-0.4845522811724644
0.07458941982887492
-1.337680572269552
-0.4845522811724644
0.07458941982887492
-1.337680572269552
-0.48375064520935845
0.07553149934713213
-1.3378044623996859
-0.48375064520935845
0.07553149934713213
-1.3378044623996859
-0.48375064520935845
0.07553149934713213
-1.3378044623996859
-0.48375064520935845
0.07553149934713213
-1.3378044623996859
-0.48400281415349317
0.0765519030021896
-1.3381438892405382
-0.48400281415349317
0.0765519030021896
-1.3381438892405382
-0.48400281415349317
0.0765519030021896
-1.3381438892405382
-0.48400281415349317
0.0765519030021896
-1.3381438892405382
-0.4849025671368487
0.07731029088879186
-1.3380699497872288
-0.4849025671368487
0.07731029088879186
-1.3380699497872288
-0.4849025671368487
0.07731029088879186
-1.3380699497872288
-0.4849025671368487
0.07731029088879186
-1.3380699497872288
-0.4858088562667634
0.07794269040072252
-1.3377891206263242
-0.4858088562667634
0.07794269040072252
-1.3377891206263242
-0.4858088562667634
0.07794269040072252
-1.3377891206263242
-0.4858088562667634
0.07794269040072252
-1.3377891206263242
-0.48643762911471683
0.07879823683039444
-1.3375526840792955
-0.48643762911471683
0.07879823683039444
-1.3375526840792955
-0.48643762911471683
0.07879823683039444
-1.3375526840792955
-0.48643762911471683
0.07879823683039444
-1.3375526840792955
-0.4880783195092038
0.07949935310076384
-1.337375610673604
-0.4880783195092038
0.07949935310076384
-1.337375610673604
-0.4880783195092038
0.07949935310076384
-1.337375610673604
-0.4880783195092038
0.07949935310076384
-1.337375610673604
-0.4896656751409148
0.07974970906898657
-1.3371841118703895
-0.4896656751409148
0.07974970906898657
-1.3371841118703895
-0.4896656751409148
0.07974970906898657
-1.3371841118703895
-0.4896656751409148
0.07974970906898657
-1.3371841118703895
-0.490803706775092
0.07986101363907407
-1.3369614907401774
-0.490803706775092
0.07986101363907407
-1.3369614907401774
-0.490803706775092
0.07986101363907407
-1.3369614907401774
-0.490803706775092
0.07986101363907407
-1.3369614907401774
-0.49140833848567056
0.0800591051816845
-1.336837687707225
-0.49140833848567056
0.0800591051816845
-1.336837687707225
-0.49140833848567056
0.0800591051816845
-1.336837687707225
-0.49140833848567056
0.0800591051816845
-1.336837687707225
-0.4917483535721645
0.08022912508905669
-1.3363422713272697
-0.4917483535721645
0.08022912508905669
-1.3363422713272697
-0.4917483535721645
0.08022912508905669
-1.3363422713272697
-0.4917483535721645
0.08022912508905669
-1.3363422713272697
-0.49321981724852104
0.0806369163527127
-1.335832832281774
-0.49321981724852104
0.0806369163527127
-1.335832832281774
-0.49321981724852104
0.0806369163527127
-1.335832832281774
-0.49321981724852104
0.0806369163527127
-1.335832832281774
-0.4942628271483565
0.08080695733078029
-1.3349915565520116
-0.4942628271483565
0.08080695733078029
-1.3349915565520116
-0.4942628271483565
0.08080695733078029
-1.3349915565520116
-0.4942628271483565
0.08080695733078029
-1.3349915565520116
-0.49433151607297643
0.08107522383741243
-1.334332654060792
-0.49433151607297643
0.08107522383741243
-1.334332654060792
-0.49433151607297643
0.08107522383741243
-1.334332654060792
-0.49433151607297643
0.08107522383741243
-1.334332654060792
-0.4939297230582227
0.08130227623525878
-1.333942314746456
-0.4939297230582227
0.08130227623525878
-1.333942314746456
-0.4939297230582227
0.08130227623525878
-1.333942314746456
-0.4939297230582227
0.08130227623525878
-1.333942314746456
-0.49243480194039824
0.08123474900005974
-1.3338066234422479
-0.49243480194039824
0.08123474900005974
-1.3338066234422479
-0.49243480194039824
0.08123474900005974
-1.3338066234422479
-0.49243480194039824
0.08123474900005974
-1.3338066234422479
-0.49133330670934827
0.08126914855866979
-1.3338134041323875
-0.49133330670934827
0.08126914855866979
-1.3338134041323875
-0.49133330670934827
0.08126914855866979
-1.3338134041323875
-0.49133330670934827
0.08126914855866979
-1.3338134041323875
-0.49133330670934827
0.08126914855866979
-1.3338134041323875
-0.49133330670934827
0.08126914855866979
-1.3338134041323875
-0.49133330670934827
0.08126914855866979
-1.3338134041323875
-0.49133330670934827
0.08126914855866979
-1.3338134041323875
-0.49234043195341437
0.08103177694561728
-1.3334979099726856
-0.49234043195341437
0.08103177694561728
-1.3334979099726856
-0.49234043195341437
0.08103177694561728
-1.3334979099726856
-0.49234043195341437
0.08103177694561728
-1.3334979099726856
-0.4938892679840486
0.08086083340339478
-1.3331992407994189
-0.4938892679840486
0.08086083340339478
-1.3331992407994189
-0.4938892679840486
0.08086083340339478
-1.3331992407994189
-0.4938892679840486
0.08086083340339478
-1.3331992407994189
-0.4946996987886893
0.08081341361580274
-1.3327459635828673
-0.4946996987886893
0.08081341361580274
-1.3327459635828673
-0.4946996987886893
0.08081341361580274
-1.3327459635828673
-0.4946996987886893
0.08081341361580274
-1.3327459635828673
-0.49493843427588313
0.08090741743899466
-1.3321500745075847
-0.49493843427588313
0.08090741743899466
-1.3321500745075847
-0.49493843427588313
0.08090741743899466
-1.3321500745075847
-0.49493843427588313
0.08090741743899466
-1.3321500745075847
-0.49538518733434467
0.08103158740756072
-1.331547735400201
-0.49538518733434467
0.08103158740756072
-1.331547735400201
-0.49538518733434467
0.08103158740756072
-1.331547735400201
-0.49538518733434467
0.08103158740756072
-1.331547735400201
-0.4958053045324483
0.08117073581793628
-1.3308712007690207
-0.4958053045324483
0.08117073581793628
-1.3308712007690207
-0.4958053045324483
0.08117073581793628
-1.3308712007690207
-0.4958053045324483
0.08117073581793628
-1.3308712007690207
-0.4950511219248676
0.08152693472285386
-1.330498619103841
-0.4950511219248676
0.08152693472285386
-1.330498619103841
-0.4950511219248676
0.08152693472285386
-1.330498619103841
-0.4950511219248676
0.08152693472285386
-1.330498619103841
-0.49488600538618943
0.08205672500780482
-1.3300954630350703
-0.49488600538618943
0.08205672500780482
-1.3300954630350703
-0.49488600538618943
0.08205672500780482
-1.3300954630350703
-0.49488600538618943
0.08205672500780482
-1.3300954630350703
-0.4956648849691058
0.08242706707981837
-1.3301001419782368
-0.4956648849691058
0.08242706707981837
-1.3301001419782368
-0.4956648849691058
0.08242706707981837
-1.3301001419782368
-0.4956648849691058
0.08242706707981837
-1.3301001419782368
-0.4963576330056793
0.08274638462405501
-1.3299116451168511
-0.4963576330056793
0.08274638462405501
-1.3299116451168511
-0.4963576330056793
0.08274638462405501
-1.3299116451168511
-0.4963576330056793
0.08274638462405501
-1.3299116451168511
-0.49643181527577024
0.0828386589566101
-1.329938336655996
-0.49643181527577024
0.0828386589566101
-1.329938336655996
-0.49643181527577024
0.0828386589566101
-1.329938336655996
-0.49643181527577024
0.0828386589566101
-1.329938336655996
-0.49679286840039893
0.08265211295907282
-1.3294534502517619
-0.49679286840039893
0.08265211295907282
-1.3294534502517619
-0.49679286840039893
0.08265211295907282
-1.3294534502517619
-0.49679286840039893
0.08265211295907282
-1.3294534502517619
-0.4981010806329119
0.08237427966318862
-1.3291168483377143
-0.4981010806329119
0.08237427966318862
-1.3291168483377143
-0.4981010806329119
0.08237427966318862
-1.3291168483377143
-0.4981010806329119
0.08237427966318862
-1.3291168483377143
-0.4987695208655256
0.08196718263436174
-1.3292957845174012
-0.4987695208655256
0.08196718263436174
-1.3292957845174012
-0.4987695208655256
0.08196718263436174
-1.3292957845174012
-0.4987695208655256
0.08196718263436174
-1.3292957845174012
-0.4983084660759465
0.08186756607865049
-1.3290968529233216
-0.4983084660759465
0.08186756607865049
-1.3290968529233216
-0.4983084660759465
0.08186756607865049
-1.3290968529233216
-0.4983084660759465
0.08186756607865049
-1.3290968529233216
-0.4983084660759465
0.08186756607865049
-1.3290968529233216
-0.4983084660759465
0.08186756607865049
-1.3290968529233216
-0.4983084660759465
0.08186756607865049
-1.3290968529233216
-0.4983084660759465
0.08186756607865049
-1.3290968529233216
-0.4988899672996306
0.08167060178708589
-1.328771816736141
-0.4988899672996306
0.08167060178708589
-1.328771816736141
-0.4988899672996306
0.08167060178708589
-1.328771816736141
-0.4988899672996306
0.08167060178708589
-1.328771816736141
-0.499953076033951
0.08169534846094013
-1.3285241942639707
-0.499953076033951
0.08169534846094013
-1.3285241942639707
-0.499953076033951
0.08169534846094013
-1.3285241942639707
-0.499953076033951
0.08169534846094013
-1.3285241942639707
-0.5006522927564087
0.08189108289075649
-1.3281276996860185
-0.5006522927564087
0.08189108289075649
-1.3281276996860185
-0.5006522927564087
0.08189108289075649
-1.3281276996860185
-0.5006522927564087
0.08189108289075649
-1.3281276996860185
-0.5012319393821174
0.08217569471811945
-1.3276721629296275
-0.5012319393821174
0.08217569471811945
-1.3276721629296275
-0.5012319393821174
0.08217569471811945
-1.3276721629296275
-0.5012319393821174
0.08217569471811945
-1.3276721629296275
-0.5011114490975395
0.08252560820425146
-1.3273028715261395
-0.5011114490975395
0.08252560820425146
-1.3273028715261395
-0.5011114490975395
0.08252560820425146
-1.3273028715261395
-0.5011114490975395
0.08252560820425146
-1.3273028715261395
-0.5010834606966044
0.08280173718884395
-1.3269186958786212
-0.5010834606966044
0.08280173718884395
-1.3269186958786212
-0.5010834606966044
0.08280173718884395
-1.3269186958786212
-0.5010834606966044
0.08280173718884395
-1.3269186958786212
-0.50086177453787
0.08307400794688931
-1.326448354479308
-0.50086177453787
0.08307400794688931
-1.326448354479308
-0.50086177453787
0.08307400794688931
-1.326448354479308
-0.50086177453787
0.08307400794688931
-1.326448354479308
-0.5010928726346877
0.08329499143764771
-1.3260615040125623
-0.5010928726346877
0.08329499143764771
-1.3260615040125623
-0.5010928726346877
0.08329499143764771
-1.3260615040125623
-0.5010928726346877
0.08329499143764771
-1.3260615040125623
-0.5017429164100639
0.08310901929580079
-1.3253884156414248
-0.5017429164100639
0.08310901929580079
-1.3253884156414248
-0.5017429164100639
0.08310901929580079
-1.3253884156414248
-0.5017429164100639
0.08310901929580079
-1.3253884156414248
-0.5020328790794911
0.08290076111447357
-1.324616942313785
-0.5020328790794911
0.08290076111447357
-1.324616942313785
-0.5020328790794911
0.08290076111447357
-1.324616942313785
-0.5020328790794911
0.08290076111447357
-1.324616942313785
-0.5010543288827268
0.0827027411672385
-1.323839736374673
-0.5010543288827268
0.0827027411672385
-1.323839736374673
-0.5010543288827268
0.0827027411672385
-1.323839736374673
-0.5010543288827268
0.0827027411672385
-1.323839736374673
-0.501253352058194
0.08230665693484897
-1.3233934788555959
-0.501253352058194
0.08230665693484897
-1.3233934788555959
-0.501253352058194
0.08230665693484897
-1.3233934788555959
-0.501253352058194
0.08230665693484897
-1.3233934788555959
-0.5012674098924321
0.08150845977348625
-1.3233661546955466
-0.5012674098924321
0.08150845977348625
-1.3233661546955466
-0.5012674098924321
0.08150845977348625
-1.3233661546955466
-0.5012674098924321
0.08150845977348625
-1.3233661546955466
-0.50096848986066
0.08024514921828509
-1.3235834718166593
-0.50096848986066
0.08024514921828509
-1.3235834718166593
-0.50096848986066
0.08024514921828509
-1.3235834718166593
-0.50096848986066
0.08024514921828509
-1.3235834718166593
-0.5013137698571994
0.0789208422216904
-1.3233351273006584
-0.5013137698571994
0.0789208422216904
-1.3233351273006584
-0.5013137698571994
0.0789208422216904
-1.3233351273006584
-0.5013137698571994
0.0789208422216904
-1.3233351273006584
-0.5032492365959319
0.07821663615363451
-1.322557061242946
-0.5032492365959319
0.07821663615363451
-1.322557061242946
-0.5032492365959319
0.07821663615363451
-1.322557061242946
-0.5032492365959319
0.07821663615363451
-1.322557061242946
-0.505316013592713
0.07823819184756842
-1.3197769110923918
-0.505316013592713
0.07823819184756842
-1.3197769110923918
-0.505316013592713
0.07823819184756842
-1.3197769110923918
-0.505316013592713
0.07823819184756842
-1.3197769110923918
-0.5063704501065759
0.07986787392189197
-1.3168635816406327
-0.5063704501065759
0.07986787392189197
-1.3168635816406327
-0.5063704501065759
0.07986787392189197
-1.3168635816406327
-0.5063704501065759
0.07986787392189197
-1.3168635816406327
-0.5068719179109958
0.08139158961642405
-1.312031221264929
-0.5068719179109958
0.08139158961642405
-1.312031221264929
-0.5068719179109958
0.08139158961642405
-1.312031221264929
-0.5068719179109958
0.08139158961642405
-1.312031221264929
-0.5073316383948991
0.08258510807971403
-1.3094586697967985
-0.5073316383948991
0.08258510807971403
-1.3094586697967985
-0.5073316383948991
0.08258510807971403
-1.3094586697967985
-0.5073316383948991
0.08258510807971403
-1.3094586697967985
-0.500450383221519
0.08229768078659595
-1.3092324227593255
-0.500450383221519
0.08229768078659595
-1.3092324227593255
-0.500450383221519
0.08229768078659595
-1.3092324227593255
-0.500450383221519
0.08229768078659595
-1.3092324227593255
-0.47442319435303626
0.0793736478189929
-1.3072570330888102
-0.47442319435303626
0.0793736478189929
-1.3072570330888102
-0.47442319435303626
0.0793736478189929
-1.3072570330888102
-0.47442319435303626
0.0793736478189929
-1.3072570330888102
-0.45696861615910933
0.07528731842169999
-1.2989994790065793
-0.45696861615910933
0.07528731842169999
-1.2989994790065793
-0.45696861615910933
0.07528731842169999
-1.2989994790065793
-0.45696861615910933
0.07528731842169999
-1.2989994790065793
-0.4397423498661902
0.07032287343781855
-1.292987571019435
-0.4397423498661902
0.07032287343781855
-1.292987571019435
-0.4397423498661902
0.07032287343781855
-1.292987571019435
-0.4397423498661902
0.07032287343781855
-1.292987571019435
-0.4327962179957594
0.06732539586366836
-1.286677053770942
-0.4327962179957594
0.06732539586366836
-1.286677053770942
-0.4327962179957594
0.06732539586366836
-1.286677053770942
-0.4327962179957594
0.06732539586366836
-1.286677053770942
-0.44141925245197744
0.06577146091574666
-1.281961985684412
-0.44141925245197744
0.06577146091574666
-1.281961985684412
-0.44141925245197744
0.06577146091574666
-1.281961985684412
-0.44141925245197744
0.06577146091574666
-1.281961985684412
-0.44327010249893295
0.06340666100857438
-1.2759807852405625
-0.44327010249893295
0.06340666100857438
-1.2759807852405625
-0.44327010249893295
0.06340666100857438
-1.2759807852405625
-0.44327010249893295
0.06340666100857438
-1.2759807852405625
-0.44436012655393453
0.05787013220088652
-1.272409170120466
-0.44436012655393453
0.05787013220088652
-1.272409170120466
-0.44436012655393453
0.05787013220088652
-1.272409170120466
-0.44436012655393453
0.05787013220088652
-1.272409170120466
-0.4432548552731256
0.052491886256238525
-1.2713188831135485
-0.4432548552731256
0.052491886256238525
-1.2713188831135485
-0.4432548552731256
0.052491886256238525
-1.2713188831135485
-0.4432548552731256
0.052491886256238525
-1.2713188831135485
-0.43809926004013083
0.046865900518707065
-1.2685151935048267
-0.43809926004013083
0.046865900518707065
-1.2685151935048267
-0.43809926004013083
0.046865900518707065
-1.2685151935048267
-0.43809926004013083
0.046865900518707065
-1.2685151935048267
-0.4362025390411388
0.04239038185549528
-1.2644327315600357
-0.4362025390411388
0.04239038185549528
-1.2644327315600357
-0.4362025390411388
0.04239038185549528
-1.2644327315600357
-0.4362025390411388
0.04239038185549528
-1.2644327315600357
-0.43785324173942836
0.03882654370738233
-1.2615700354573776
-0.43785324173942836
0.03882654370738233
-1.2615700354573776
-0.43785324173942836
0.03882654370738233
-1.2615700354573776
-0.43785324173942836
0.03882654370738233
-1.2615700354573776
-0.4420675528466171
0.036559841266835647
-1.260730300065743
-0.4420675528466171
0.036559841266835647
-1.260730300065743
-0.4420675528466171
0.036559841266835647
-1.260730300065743
-0.4420675528466171
0.036559841266835647
-1.260730300065743
-0.4457906194534739
0.035681673036647564
-1.2609134767255255
-0.4457906194534739
0.035681673036647564
-1.2609134767255255
-0.4457906194534739
0.035681673036647564
-1.2609134767255255
-0.4457906194534739
0.035681673036647564
-1.2609134767255255
-0.44595911343355865
0.03520940614093675
-1.2603584865596347
-0.44595911343355865
0.03520940614093675
-1.2603584865596347
-0.44595911343355865
0.03520940614093675
-1.2603584865596347
-0.44595911343355865
0.03520940614093675
-1.2603584865596347
-0.44561410701182164
0.034637977173615865
-1.2598730026408393
-0.44561410701182164
0.034637977173615865
-1.2598730026408393
-0.44561410701182164
0.034637977173615865
-1.2598730026408393
-0.44561410701182164
0.034637977173615865
-1.2598730026408393
-0.44294480485559506
0.03560159457575001
-1.2600523903948821
-0.44294480485559506
0.03560159457575001
-1.2600523903948821
-0.44294480485559506
0.03560159457575001
-1.2600523903948821
-0.44294480485559506
0.03560159457575001
-1.2600523903948821
-0.44301538677577446
0.0356975202778628
-1.2600753199148138
-0.44301538677577446
0.0356975202778628
-1.2600753199148138
-0.44301538677577446
0.0356975202778628
-1.2600753199148138
-0.44301538677577446
0.0356975202778628
-1.2600753199148138
-0.44255395178028806
0.035667223939109906
-1.2610629777172404
-0.44255395178028806
0.035667223939109906
-1.2610629777172404
-0.44255395178028806
0.035667223939109906
-1.2610629777172404
-0.44255395178028806
0.035667223939109906
-1.2610629777172404
-0.4414521839834229
0.03481519757767393
-1.2608790960947205
-0.4414521839834229
0.03481519757767393
-1.2608790960947205
-0.4414521839834229
0.03481519757767393
-1.2608790960947205
-0.4414521839834229
0.03481519757767393
-1.2608790960947205
-0.4410143751571467
0.032906643972473504
-1.2610966478145729
-0.4410143751571467
0.032906643972473504
-1.2610966478145729
-0.4410143751571467
0.032906643972473504
-1.2610966478145729
-0.4410143751571467
0.032906643972473504
-1.2610966478145729
-0.43954555970602716
0.031898935106019044
-1.2613526560646355
-0.43954555970602716
0.031898935106019044
-1.2613526560646355
-0.43954555970602716
0.031898935106019044
-1.2613526560646355
-0.43954555970602716
0.031898935106019044
-1.2613526560646355
-0.4368426486896071
0.031815695897340096
-1.262200239582543
-0.4368426486896071
0.031815695897340096
-1.262200239582543
-0.4368426486896071
0.031815695897340096
-1.262200239582543
-0.4368426486896071
0.031815695897340096
-1.262200239582543
-0.43344899518062646
0.032861262763435754
-1.2639095752517333
-0.43344899518062646
0.032861262763435754
-1.2639095752517333
-0.43344899518062646
0.032861262763435754
-1.2639095752517333
-0.43344899518062646
0.032861262763435754
-1.2639095752517333
-0.4315342620872458
0.03416706609310872
-1.2651187286822965
-0.4315342620872458
0.03416706609310872
-1.2651187286822965
-0.4315342620872458
0.03416706609310872
-1.2651187286822965
-0.4315342620872458
0.03416706609310872
-1.2651187286822965
-0.43254278852158934
0.03514677964936893
-1.2658483860235432
-0.43254278852158934
0.03514677964936893
-1.2658483860235432
-0.43254278852158934
0.03514677964936893
-1.2658483860235432
-0.43254278852158934
0.03514677964936893
-1.2658483860235432
-0.4342205883099474
0.034377909390262584
-1.2672814650164712
-0.4342205883099474
0.034377909390262584
-1.2672814650164712
-0.4342205883099474
0.034377909390262584
-1.2672814650164712
-0.4342205883099474
0.034377909390262584
-1.2672814650164712
-0.4340502458171517
0.032910749661839885
-1.2697306076457355
-0.4340502458171517
0.032910749661839885
-1.2697306076457355
-0.4340502458171517
0.032910749661839885
-1.2697306076457355
-0.4340502458171517
0.032910749661839885
-1.2697306076457355
-0.43318278374140234
0.031206728714539847
-1.2727682453027516
-0.43318278374140234
0.031206728714539847
-1.2727682453027516
-0.43318278374140234
0.031206728714539847
-1.2727682453027516
-0.43318278374140234
0.031206728714539847
-1.2727682453027516
-0.4306513932967654
0.029059570234755833
-1.2762879188865002
-0.4306513932967654
0.029059570234755833
-1.2762879188865002
-0.4306513932967654
0.029059570234755833
-1.2762879188865002
-0.4306513932967654
0.029059570234755833
-1.2762879188865002
-0.4282202477398297
0.027024490033949074
-1.2798104036774363
-0.4282202477398297
0.027024490033949074
-1.2798104036774363
-0.4282202477398297
0.027024490033949074
-1.2798104036774363
-0.4282202477398297
0.027024490033949074
-1.2798104036774363
-0.4285076493301428
0.025172818955333225
-1.2831595481793998
-0.4285076493301428
0.025172818955333225
-1.2831595481793998
-0.4285076493301428
0.025172818955333225
-1.2831595481793998
-0.4285076493301428
0.025172818955333225
-1.2831595481793998
-0.43090379716419874
0.023470865827208177
-1.2864156003468574
-0.43090379716419874
0.023470865827208177
-1.2864156003468574
-0.43090379716419874
0.023470865827208177
-1.2864156003468574
-0.43090379716419874
0.023470865827208177
-1.2864156003468574
-0.43255636695015975
0.02216935143141623
-1.2897484740162488
-0.43255636695015975
0.02216935143141623
-1.2897484740162488
-0.43255636695015975
0.02216935143141623
-1.2897484740162488
-0.43255636695015975
0.02216935143141623
-1.2897484740162488
-0.43243461730928584
0.021171754707090002
-1.2933776052458803
-0.43243461730928584
0.021171754707090002
-1.2933776052458803
-0.43243461730928584
0.021171754707090002
-1.2933776052458803
-0.43243461730928584
0.021171754707090002
-1.2933776052458803
-0.43244721571239947
0.020647559894203145
-1.2965623124306418
-0.43244721571239947
0.020647559894203145
-1.2965623124306418
-0.43244721571239947
0.020647559894203145
-1.2965623124306418
-0.43244721571239947
0.020647559894203145
-1.2965623124306418
-0.43272006533281726
0.020073380751713693
-1.2997388258541882
-0.43272006533281726
0.020073380751713693
-1.2997388258541882
-0.43272006533281726
0.020073380751713693
-1.2997388258541882
-0.43272006533281726
0.020073380751713693
-1.2997388258541882
-0.4328257057181424
0.019570785628040033
-1.3024794259697978
-0.4328257057181424
0.019570785628040033
-1.3024794259697978
-0.4328257057181424
0.019570785628040033
-1.3024794259697978
-0.4328257057181424
0.019570785628040033
-1.3024794259697978
-0.43322225924956226
0.01890821375073281
-1.3049131317203748
-0.43322225924956226
0.01890821375073281
-1.3049131317203748
-0.43322225924956226
0.01890821375073281
-1.3049131317203748
-0.43322225924956226
0.01890821375073281
-1.3049131317203748
-0.43303722638719355
0.017817145171385197
-1.3069201550133853
-0.43303722638719355
0.017817145171385197
-1.3069201550133853
-0.43303722638719355
0.017817145171385197
-1.3069201550133853
-0.43303722638719355
0.017817145171385197
-1.3069201550133853
-0.4326314539588255
0.016595236172398095
-1.3089722811850397
-0.4326314539588255
0.016595236172398095
-1.3089722811850397
-0.4326314539588255
0.016595236172398095
-1.3089722811850397
-0.4326314539588255
0.016595236172398095
-1.3089722811850397
-0.43195568922081773
0.015309880245574668
-1.3107574997074463
-0.43195568922081773
0.015309880245574668
-1.3107574997074463
-0.43195568922081773
0.015309880245574668
-1.3107574997074463
-0.43195568922081773
0.015309880245574668
-1.3107574997074463
-0.43075802296095894
0.014070676338834407
-1.3120238997124845
-0.43075802296095894
0.014070676338834407
-1.3120238997124845
-0.43075802296095894
0.014070676338834407
-1.3120238997124845
-0.43075802296095894
0.014070676338834407
-1.3120238997124845
-0.43004013389398305
0.01252577479947956
-1.3129536650396092
-0.43004013389398305
0.01252577479947956
-1.3129536650396092
-0.43004013389398305
0.01252577479947956
-1.3129536650396092
-0.43004013389398305
0.01252577479947956
-1.3129536650396092
-0.4299050234577304
0.011349466820442454
-1.3137701205949301
-0.4299050234577304
0.011349466820442454
-1.3137701205949301
-0.4299050234577304
0.011349466820442454
-1.3137701205949301
-0.4299050234577304
0.011349466820442454
-1.3137701205949301
-0.4293590710862004
0.010705209307911691
-1.3143500868928435
-0.4293590710862004
0.010705209307911691
-1.3143500868928435
-0.4293590710862004
0.010705209307911691
-1.3143500868928435
-0.4293590710862004
0.010705209307911691
-1.3143500868928435
-0.42691227124304
0.010892431826256705
-1.3148946429082657
-0.42691227124304
0.010892431826256705
-1.3148946429082657
-0.42691227124304
0.010892431826256705
-1.3148946429082657
-0.42691227124304
0.010892431826256705
-1.3148946429082657
-0.4240770513589164
0.011445064356230642
-1.3151646020011587
-0.4240770513589164
0.011445064356230642
-1.3151646020011587
-0.4240770513589164
0.011445064356230642
-1.3151646020011587
-0.4240770513589164
0.011445064356230642
-1.3151646020011587
-0.4229937054992378
0.012186648840859763
-1.3156140816229103
-0.4229937054992378
0.012186648840859763
-1.3156140816229103
-0.4229937054992378
0.012186648840859763
-1.3156140816229103
-0.4229937054992378
0.012186648840859763
-1.3156140816229103
-0.42262012667689275
0.013651689928923547
-1.3160248795032097
-0.42262012667689275
0.013651689928923547
-1.3160248795032097
-0.42262012667689275
0.013651689928923547
-1.3160248795032097
-0.42262012667689275
0.013651689928923547
-1.3160248795032097
-0.4227621491999172
0.016021798765526188
-1.3162605141261672
-0.4227621491999172
0.016021798765526188
-1.3162605141261672
-0.4227621491999172
0.016021798765526188
-1.3162605141261672
-0.4227621491999172
0.016021798765526188
-1.3162605141261672
-0.4221233439292423
0.019027948111279707
-1.3163739990467125
-0.4221233439292423
0.019027948111279707
-1.3163739990467125
-0.4221233439292423
0.019027948111279707
-1.3163739990467125
-0.4221233439292423
0.019027948111279707
-1.3163739990467125
-0.42152417544870424
0.022214290354704437
-1.3160982805017567
-0.42152417544870424
0.022214290354704437
-1.3160982805017567
-0.42152417544870424
0.022214290354704437
-1.3160982805017567
-0.42152417544870424
0.022214290354704437
-1.3160982805017567
-0.42033580728309455
0.025558802331983044
-1.3151236445217078
-0.42033580728309455
0.025558802331983044
-1.3151236445217078
-0.42033580728309455
0.025558802331983044
-1.3151236445217078
-0.42033580728309455
0.025558802331983044
-1.3151236445217078
-0.4191228034306442
0.028916570282674598
-1.314071621162328
-0.4191228034306442
0.028916570282674598
-1.314071621162328
-0.4191228034306442
0.028916570282674598
-1.314071621162328
-0.4191228034306442
0.028916570282674598
-1.314071621162328
-0.4180422238007784
0.03195632186784295
-1.3125015232391148
-0.4180422238007784
0.03195632186784295
-1.3125015232391148
-0.4180422238007784
0.03195632186784295
-1.3125015232391148
-0.4180422238007784
0.03195632186784295
-1.3125015232391148
-0.4161110681250024
0.03476912867950804
-1.310614420526342
-0.4161110681250024
0.03476912867950804
-1.310614420526342
-0.4161110681250024
0.03476912867950804
-1.310614420526342
-0.4161110681250024
0.03476912867950804
-1.310614420526342
-0.4135634171740709
0.0374118713027775
-1.3086984483502901
-0.4135634171740709
0.0374118713027775
-1.3086984483502901
-0.4135634171740709
0.0374118713027775
-1.3086984483502901
-0.4135634171740709
0.0374118713027775
-1.3086984483502901
-0.4111857305234665
0.039404924042769934
-1.3069942340201273
-0.4111857305234665
0.039404924042769934
-1.3069942340201273
-0.4111857305234665
0.039404924042769934
-1.3069942340201273
-0.4111857305234665
0.039404924042769934
-1.3069942340201273
-0.4089586795156007
0.04091716083316127
-1.3055389496703667
-0.4089586795156007
0.04091716083316127
-1.3055389496703667
-0.4089586795156007
0.04091716083316127
-1.3055389496703667
-0.4089586795156007
0.04091716083316127
-1.3055389496703667
-0.40766274897955057
0.04198489919931711
-1.3042594447340239
-0.40766274897955057
0.04198489919931711
-1.3042594447340239
-0.40766274897955057
0.04198489919931711
-1.3042594447340239
-0.40766274897955057
0.04198489919931711
-1.3042594447340239
-0.40753119938830235
0.042438497757890485
-1.3032782321388308
-0.40753119938830235
0.042438497757890485
-1.3032782321388308
-0.40753119938830235
0.042438497757890485
-1.3032782321388308
-0.40753119938830235
0.042438497757890485
-1.3032782321388308
-0.407459191258773
0.04296553610340509
-1.302412935605558
-0.407459191258773
0.04296553610340509
-1.302412935605558
-0.407459191258773
0.04296553610340509
-1.302412935605558
-0.407459191258773
0.04296553610340509
-1.302412935605558
-0.40742991586877425
0.04331200248816116
-1.3015863788356636
-0.40742991586877425
0.04331200248816116
-1.3015863788356636
-0.40742991586877425
0.04331200248816116
-1.3015863788356636
-0.40742991586877425
0.04331200248816116
-1.3015863788356636
-0.40694951289360165
0.043545380554328515
-1.300576078515601
-0.40694951289360165
0.043545380554328515
-1.300576078515601
-0.40694951289360165
0.043545380554328515
-1.300576078515601
-0.40694951289360165
0.043545380554328515
-1.300576078515601
-0.4065564771149852
0.04326266888237131
-1.299536358598212
-0.4065564771149852
0.04326266888237131
-1.299536358598212
-0.4065564771149852
0.04326266888237131
-1.299536358598212
-0.4065564771149852
0.04326266888237131
-1.299536358598212
-0.40611480878416734
0.04325955904641335
-1.2988274899291405
-0.40611480878416734
0.04325955904641335
-1.2988274899291405
-0.40611480878416734
0.04325955904641335
-1.2988274899291405
-0.40611480878416734
0.04325955904641335
-1.2988274899291405
-0.40637215175670827
0.04275577089731363
-1.298006514589555
-0.40637215175670827
0.04275577089731363
-1.298006514589555
-0.40637215175670827
0.04275577089731363
-1.298006514589555
-0.40637215175670827
0.04275577089731363
-1.298006514589555
-0.40743665735140794
0.0427200688615099
-1.2972001892574778
-0.40743665735140794
0.0427200688615099
-1.2972001892574778
-0.40743665735140794
0.0427200688615099
-1.2972001892574778
-0.40743665735140794
0.0427200688615099
-1.2972001892574778
-0.40818248990990913
0.04257215607880797
-1.2967125096682912
-0.40818248990990913
0.04257215607880797
-1.2967125096682912
-0.40818248990990913
0.04257215607880797
-1.2967125096682912
-0.40818248990990913
0.04257215607880797
-1.2967125096682912
-0.40876726170365413
0.04284511667532274
-1.2962334989998672
-0.40876726170365413
0.04284511667532274
-1.2962334989998672
-0.40876726170365413
0.04284511667532274
-1.2962334989998672
-0.40876726170365413
0.04284511667532274
-1.2962334989998672
-0.40928770244695006
0.04298914754168156
-1.2959009603269824
-0.40928770244695006
0.04298914754168156
-1.2959009603269824
-0.40928770244695006
0.04298914754168156
-1.2959009603269824
-0.40928770244695006
0.04298914754168156
-1.2959009603269824
-0.409658380891909
0.042887807061405055
-1.2957884465323188
-0.409658380891909
0.042887807061405055
-1.2957884465323188
-0.409658380891909
0.042887807061405055
-1.2957884465323188
-0.409658380891909
0.042887807061405055
-1.2957884465323188
-0.40990633714654395
0.04242909860968714
-1.2955988284350928
-0.40990633714654395
0.04242909860968714
-1.2955988284350928
-0.40990633714654395
0.04242909860968714
-1.2955988284350928
-0.40990633714654395
0.04242909860968714
-1.2955988284350928
-0.4101961128895077
0.04226720883863967
-1.295297180180897
-0.4101961128895077
0.04226720883863967
-1.295297180180897
-0.4101961128895077
0.04226720883863967
-1.295297180180897
-0.4101961128895077
0.04226720883863967
-1.295297180180897
-0.4109020925756728
0.042210979702272944
-1.295201234531375
-0.4109020925756728
0.042210979702272944
-1.295201234531375
-0.4109020925756728
0.042210979702272944
-1.295201234531375
-0.4109020925756728
0.042210979702272944
-1.295201234531375
-0.41163783132917964
0.04210733595682897
-1.2953454075962785
-0.41163783132917964
0.04210733595682897
-1.2953454075962785
-0.41163783132917964
0.04210733595682897
-1.2953454075962785
-0.41163783132917964
0.04210733595682897
-1.2953454075962785
-0.41204829882907057
0.04231119591704541
-1.295920913794317
-0.41204829882907057
0.04231119591704541
-1.295920913794317
-0.41204829882907057
0.04231119591704541
-1.295920913794317
-0.41204829882907057
0.04231119591704541
-1.295920913794317
-0.4129523819975822
0.042770783923338114
-1.2964613184552396
-0.4129523819975822
0.042770783923338114
-1.2964613184552396
-0.4129523819975822
0.042770783923338114
-1.2964613184552396
-0.4129523819975822
0.042770783923338114
-1.2964613184552396
-0.41457480741640185
0.04334905737727788
-1.2969187593160496
-0.41457480741640185
0.04334905737727788
-1.2969187593160496
-0.41457480741640185
0.04334905737727788
-1.2969187593160496
-0.41457480741640185
0.04334905737727788
-1.2969187593160496
-0.41616679727178996
0.04412883234684325
-1.2972444590936871
-0.41616679727178996
0.04412883234684325
-1.2972444590936871
-0.41616679727178996
0.04412883234684325
-1.2972444590936871
-0.41616679727178996
0.04412883234684325
-1.2972444590936871
-0.4176560336341282
0.044861400783801825
-1.2973094195372563
-0.4176560336341282
0.044861400783801825
-1.2973094195372563
-0.4176560336341282
0.044861400783801825
-1.2973094195372563
-0.4176560336341282
0.044861400783801825
-1.2973094195372563
-0.418589520920005
0.04589692428070994
-1.29725188320631
-0.418589520920005
0.04589692428070994
-1.29725188320631
-0.418589520920005
0.04589692428070994
-1.29725188320631
-0.418589520920005
0.04589692428070994
-1.29725188320631
-0.4185776389632318
0.0467179755872556
-1.2971514783887472
-0.4185776389632318
0.0467179755872556
-1.2971514783887472
-0.4185776389632318
0.0467179755872556
-1.2971514783887472
-0.4185776389632318
0.0467179755872556
-1.2971514783887472
-0.418063321481111
0.047318144500017534
-1.2969167992149198
-0.418063321481111
0.047318144500017534
-1.2969167992149198
-0.418063321481111
0.047318144500017534
-1.2969167992149198
-0.418063321481111
0.047318144500017534
-1.2969167992149198
-0.4176348267147875
0.04788053355983565
-1.296501220296262
-0.4176348267147875
0.04788053355983565
-1.296501220296262
-0.4176348267147875
0.04788053355983565
-1.296501220296262
-0.4176348267147875
0.04788053355983565
-1.296501220296262
-0.4179338778581422
0.04821899793189982
-1.2959564385319595
-0.4179338778581422
0.04821899793189982
-1.2959564385319595
-0.4179338778581422
0.04821899793189982
-1.2959564385319595
-0.4179338778581422
0.04821899793189982
-1.2959564385319595
-0.4181910766270275
0.04841487819260801
-1.295629957664598
-0.4181910766270275
0.04841487819260801
-1.295629957664598
-0.4181910766270275
0.04841487819260801
-1.295629957664598
-0.4181910766270275
0.04841487819260801
-1.295629957664598
-0.4182100554069115
0.04887931222236105
-1.2955543194324517
-0.4182100554069115
0.04887931222236105
-1.2955543194324517
-0.4182100554069115
0.04887931222236105
-1.2955543194324517
-0.4182100554069115
0.04887931222236105
-1.2955543194324517
-0.417763717125581
0.04951706556195675
-1.2956033850914637
-0.417763717125581
0.04951706556195675
-1.2956033850914637
-0.417763717125581
0.04951706556195675
-1.2956033850914637
-0.417763717125581
0.04951706556195675
-1.2956033850914637
-0.41793676494952814
0.050290645200224575
-1.2958468075016987
-0.41793676494952814
0.050290645200224575
-1.2958468075016987
-0.41793676494952814
0.050290645200224575
-1.2958468075016987
-0.41793676494952814
0.050290645200224575
-1.2958468075016987
-0.41915959613047343
0.05117165316859295
-1.2962908974972942
-0.41915959613047343
0.05117165316859295
-1.2962908974972942
-0.41915959613047343
0.05117165316859295
-1.2962908974972942
-0.41915959613047343
0.05117165316859295
-1.2962908974972942
-0.42152442841454885
0.052718156132344436
-1.2968846535038063
-0.42152442841454885
0.052718156132344436
-1.2968846535038063
-0.42152442841454885
0.052718156132344436
-1.2968846535038063
-0.42152442841454885
0.052718156132344436
-1.2968846535038063
-0.42334698589671704
0.054589356739552924
-1.297261987725979
-0.42334698589671704
0.054589356739552924
-1.297261987725979
-0.42334698589671704
0.054589356739552924
-1.297261987725979
-0.42334698589671704
0.054589356739552924
-1.297261987725979
-0.4232059675880809
0.05626384784475613
-1.2980676001445315
-0.4232059675880809
0.05626384784475613
-1.2980676001445315
-0.4232059675880809
0.05626384784475613
-1.2980676001445315
-0.4232059675880809
0.05626384784475613
-1.2980676001445315
-0.4227085930078878
0.058640040643819225
-1.2999121196308292
-0.4227085930078878
0.058640040643819225
-1.2999121196308292
-0.4227085930078878
0.058640040643819225
-1.2999121196308292
-0.4227085930078878
0.058640040643819225
-1.2999121196308292
-0.42444549626843775
0.0617774126286523
-1.303790179490062
-0.42444549626843775
0.0617774126286523
-1.303790179490062
-0.42444549626843775
0.0617774126286523
-1.303790179490062
-0.42444549626843775
0.0617774126286523
-1.303790179490062
-0.4292738500053098
0.06697283949004984
-1.3087325670745975
-0.4292738500053098
0.06697283949004984
-1.3087325670745975
-0.4292738500053098
0.06697283949004984
-1.3087325670745975
-0.4292738500053098
0.06697283949004984
-1.3087325670745975
-0.4312534071707226
0.07270615202436008
-1.3122120464219384
-0.4312534071707226
0.07270615202436008
-1.3122120464219384
-0.4312534071707226
0.07270615202436008
-1.3122120464219384
-0.4312534071707226
0.07270615202436008
-1.3122120464219384
-0.4314638679208114
0.07757633264275302
-1.3132645672330356
-0.4314638679208114
0.07757633264275302
-1.3132645672330356
-0.4314638679208114
0.07757633264275302
-1.3132645672330356
-0.4314638679208114
0.07757633264275302
-1.3132645672330356
-0.4300771009661478
0.08028815825102041
-1.313825560969253
-0.4300771009661478
0.08028815825102041
-1.313825560969253
-0.4300771009661478
0.08028815825102041
-1.313825560969253
-0.4300771009661478
0.08028815825102041
-1.313825560969253
-0.42176713810090183
0.07936968522950756
-1.317268949878251
-0.42176713810090183
0.07936968522950756
-1.317268949878251
-0.42176713810090183
0.07936968522950756
-1.317268949878251
-0.42176713810090183
0.07936968522950756
-1.317268949878251
-0.41885439071034836
0.08024232832423035
-1.321251359937411
-0.41885439071034836
0.08024232832423035
-1.321251359937411
-0.41885439071034836
0.08024232832423035
-1.321251359937411
-0.41885439071034836
0.08024232832423035
-1.321251359937411
-0.42390463822816676
0.08327883112230175
-1.3250774368375042
-0.42390463822816676
0.08327883112230175
-1.3250774368375042
-0.42390463822816676
0.08327883112230175
-1.3250774368375042
-0.42390463822816676
0.08327883112230175
-1.3250774368375042
-0.43409066073494246
0.0825706891795627
-1.3274890407563396
-0.43409066073494246
0.0825706891795627
-1.3274890407563396
-0.43409066073494246
0.0825706891795627
-1.3274890407563396
-0.43409066073494246
0.0825706891795627
-1.3274890407563396
-0.44045659808307774
0.07860865254151211
-1.3282185971642586
-0.44045659808307774
0.07860865254151211
-1.3282185971642586
-0.44045659808307774
0.07860865254151211
-1.3282185971642586
-0.44045659808307774
0.07860865254151211
-1.3282185971642586
-0.44715641248893395
0.07321919400119901
-1.329864637640362
-0.44715641248893395
0.07321919400119901
-1.329864637640362
-0.44715641248893395
0.07321919400119901
-1.329864637640362
-0.44715641248893395
0.07321919400119901
-1.329864637640362
-0.45227119069301097
0.06835305258797948
-1.331761487657153
-0.45227119069301097
0.06835305258797948
-1.331761487657153
-0.45227119069301097
0.06835305258797948
-1.331761487657153
-0.45227119069301097
0.06835305258797948
-1.331761487657153
-0.45015929303843394
0.06320735726377545
-1.3320246308339536
-0.45015929303843394
0.06320735726377545
-1.3320246308339536
-0.45015929303843394
0.06320735726377545
-1.3320246308339536
-0.45015929303843394
0.06320735726377545
-1.3320246308339536
-0.446273478443963
0.05802726917321225
-1.3314791472404695
-0.446273478443963
0.05802726917321225
-1.3314791472404695
-0.446273478443963
0.05802726917321225
-1.3314791472404695
-0.446273478443963
0.05802726917321225
-1.3314791472404695
-0.4433214653773091
0.052703029182949016
-1.329750654536853
-0.4433214653773091
0.052703029182949016
-1.329750654536853
-0.4433214653773091
0.052703029182949016
-1.329750654536853
-0.4433214653773091
0.052703029182949016
-1.329750654536853
-0.44219854574780865
0.04777990579841491
-1.32687892474613
-0.44219854574780865
0.04777990579841491
-1.32687892474613
-0.44219854574780865
0.04777990579841491
-1.32687892474613
-0.44219854574780865
0.04777990579841491
-1.32687892474613
-0.4426054872748939
0.04456327633573369
-1.324013425827509
-0.4426054872748939
0.04456327633573369
-1.324013425827509
-0.4426054872748939
0.04456327633573369
-1.324013425827509
-0.4426054872748939
0.04456327633573369
-1.324013425827509
-0.441308893652827
0.04136050346367826
-1.3228595819015436
-0.441308893652827
0.04136050346367826
-1.3228595819015436
-0.441308893652827
0.04136050346367826
-1.3228595819015436
-0.441308893652827
0.04136050346367826
-1.3228595819015436
-0.4420881815425306
0.039172833252600264
-1.322735728196266
-0.4420881815425306
0.039172833252600264
-1.322735728196266
-0.4420881815425306
0.039172833252600264
-1.322735728196266
-0.4420881815425306
0.039172833252600264
-1.322735728196266
-0.44316670797888114
0.03766497123200277
-1.3229220327120332
-0.44316670797888114
0.03766497123200277
-1.3229220327120332
-0.44316670797888114
0.03766497123200277
-1.3229220327120332
-0.44316670797888114
0.03766497123200277
-1.3229220327120332
-0.4424269335626127
0.03714867185910946
-1.3228138647436833
-0.4424269335626127
0.03714867185910946
-1.3228138647436833
-0.4424269335626127
0.03714867185910946
-1.3228138647436833
-0.4424269335626127
0.03714867185910946
-1.3228138647436833
-0.44049344371396665
0.03692958052616688
-1.3218949035142993
-0.44049344371396665
0.03692958052616688
-1.3218949035142993
-0.44049344371396665
0.03692958052616688
-1.3218949035142993
-0.44049344371396665
0.03692958052616688
-1.3218949035142993
-0.4404952574460693
0.037125809863745016
-1.3202378413601452
-0.4404952574460693
0.037125809863745016
-1.3202378413601452
-0.4404952574460693
0.037125809863745016
-1.3202378413601452
-0.4404952574460693
0.037125809863745016
-1.3202378413601452
-0.44050203029807394
0.037857980161240506
-1.3189754729756693
-0.44050203029807394
0.037857980161240506
-1.3189754729756693
-0.44050203029807394
0.037857980161240506
-1.3189754729756693
-0.44050203029807394
0.037857980161240506
-1.3189754729756693
-0.4409477966590205
0.03857692100346679
-1.318420771273854
-0.4409477966590205
0.03857692100346679
-1.318420771273854
-0.4409477966590205
0.03857692100346679
-1.318420771273854
-0.4409477966590205
0.03857692100346679
-1.318420771273854
-0.4410990199767534
0.039646206914083035
-1.3181142835083
-0.4410990199767534
0.039646206914083035
-1.3181142835083
-0.4410990199767534
0.039646206914083035
-1.3181142835083
-0.4410990199767534
0.039646206914083035
-1.3181142835083
-0.44025946500777713
0.04141836493933553
-1.318066457794571
-0.44025946500777713
0.04141836493933553
-1.318066457794571
-0.44025946500777713
0.04141836493933553
-1.318066457794571
-0.44025946500777713
0.04141836493933553
-1.318066457794571
-0.4396676664770547
0.04336715634149241
-1.3169866543052107
-0.4396676664770547
0.04336715634149241
-1.3169866543052107
-0.4396676664770547
0.04336715634149241
-1.3169866543052107
-0.4396676664770547
0.04336715634149241
-1.3169866543052107
-0.44004743172274124
0.044687285449266444
-1.3153147449449496
-0.44004743172274124
0.044687285449266444
-1.3153147449449496
-0.44004743172274124
0.044687285449266444
-1.3153147449449496
-0.44004743172274124
0.044687285449266444
-1.3153147449449496
-0.4405977432355447
0.04608845216000322
-1.3133906120405645
-0.4405977432355447
0.04608845216000322
-1.3133906120405645
-0.4405977432355447
0.04608845216000322
-1.3133906120405645
-0.4405977432355447
0.04608845216000322
-1.3133906120405645
-0.4400665257106461
0.047594223919624874
-1.3119374705556432
-0.4400665257106461
0.047594223919624874
-1.3119374705556432
-0.4400665257106461
0.047594223919624874
-1.3119374705556432
-0.4400665257106461
0.047594223919624874
-1.3119374705556432
-0.4380307433168132
0.04889072491802788
-1.3108962324644848
-0.4380307433168132
0.04889072491802788
-1.3108962324644848
-0.4380307433168132
0.04889072491802788
-1.3108962324644848
-0.4380307433168132
0.04889072491802788
-1.3108962324644848
-0.43839586820251725
0.050242488939393384
-1.3106571535435798
-0.43839586820251725
0.050242488939393384
-1.3106571535435798
-0.43839586820251725
0.050242488939393384
-1.3106571535435798
-0.43839586820251725
0.050242488939393384
-1.3106571535435798
-0.441022356431677
0.05143193498457848
-1.3097457765497915
-0.441022356431677
0.05143193498457848
-1.3097457765497915
-0.441022356431677
0.05143193498457848
-1.3097457765497915
-0.441022356431677
0.05143193498457848
-1.3097457765497915
-0.44357667037499116
0.05250591706684329
-1.3065805675888043
-0.44357667037499116
0.05250591706684329
-1.3065805675888043
-0.44357667037499116
0.05250591706684329
-1.3065805675888043
-0.44357667037499116
0.05250591706684329
-1.3065805675888043
-0.4442923527137984
0.05276744094029436
-1.3019782536453444
-0.4442923527137984
0.05276744094029436
-1.3019782536453444
-0.4442923527137984
0.05276744094029436
-1.3019782536453444
-0.4442923527137984
0.05276744094029436
-1.3019782536453444
-0.4465833316356085
0.051704474710352985
-1.29869557345653
-0.4465833316356085
0.051704474710352985
-1.29869557345653
-0.4465833316356085
0.051704474710352985
-1.29869557345653
-0.4465833316356085
0.051704474710352985
-1.29869557345653
-0.44213249757943646
0.05021140848033267
-1.2977633064906506
-0.44213249757943646
0.05021140848033267
-1.2977633064906506
-0.44213249757943646
0.05021140848033267
-1.2977633064906506
-0.44213249757943646
0.05021140848033267
-1.2977633064906506
-0.43614127160807004
0.048197833585885835
-1.2973593898025781
-0.43614127160807004
0.048197833585885835
-1.2973593898025781
-0.43614127160807004
0.048197833585885835
-1.2973593898025781
-0.43614127160807004
0.048197833585885835
-1.2973593898025781
-0.42128833585490794
0.045916894445051815
-1.2948238774255443
-0.42128833585490794
0.045916894445051815
-1.2948238774255443
-0.42128833585490794
0.045916894445051815
-1.2948238774255443
-0.42128833585490794
0.045916894445051815
-1.2948238774255443
-0.41366613377115163
0.04205536523494923
-1.2877440099603672
-0.41366613377115163
0.04205536523494923
-1.2877440099603672
-0.41366613377115163
0.04205536523494923
-1.2877440099603672
-0.41366613377115163
0.04205536523494923
-1.2877440099603672
-0.41111733764671987
0.039257008970901994
-1.2773043955160621
-0.41111733764671987
0.039257008970901994
-1.2773043955160621
-0.41111733764671987
0.039257008970901994
-1.2773043955160621
-0.41111733764671987
0.039257008970901994
-1.2773043955160621
-0.39619332019201736
0.0287031935166837
-1.2699275141700586
-0.39619332019201736
0.0287031935166837
-1.2699275141700586
-0.39619332019201736
0.0287031935166837
-1.2699275141700586
-0.39619332019201736
0.0287031935166837
-1.2699275141700586
-0.3883426403822653
0.022351296187585266
-1.2644486933685959
-0.3883426403822653
0.022351296187585266
-1.2644486933685959
-0.3883426403822653
0.022351296187585266
-1.2644486933685959
-0.3883426403822653
0.022351296187585266
-1.2644486933685959
-0.40314227387716073
0.017460996113682053
-1.2578995884576956
-0.40314227387716073
0.017460996113682053
-1.2578995884576956
-0.40314227387716073
0.017460996113682053
-1.2578995884576956
-0.40314227387716073
0.017460996113682053
-1.2578995884576956
-0.41379463278488915
0.010563699171561847
-1.2537941312294418
-0.41379463278488915
0.010563699171561847
-1.2537941312294418
-0.41379463278488915
0.010563699171561847
-1.2537941312294418
-0.41379463278488915
0.010563699171561847
-1.2537941312294418
-0.41286784668610893
0.0027378586847981684
-1.2516557729210798
-0.41286784668610893
0.0027378586847981684
-1.2516557729210798
-0.41286784668610893
0.0027378586847981684
-1.2516557729210798
-0.41286784668610893
0.0027378586847981684
-1.2516557729210798
-0.40223501107341747
-1.1533196792093043E-4
-1.2498019661482742
-0.40223501107341747
-1.1533196792093043E-4
-1.2498019661482742
-0.40223501107341747
-1.1533196792093043E-4
-1.2498019661482742
-0.40223501107341747
-1.1533196792093043E-4
-1.2498019661482742
-0.39560857782702485
-0.00206185762258351
-1.2465982845187435
-0.39560857782702485
-0.00206185762258351
-1.2465982845187435
-0.39560857782702485
-0.00206185762258351
-1.2465982845187435
-0.39560857782702485
-0.00206185762258351
-1.2465982845187435
-0.3960850142260493
-0.004933582960278159
-1.243952180698103
-0.3960850142260493
-0.004933582960278159
-1.243952180698103
-0.3960850142260493
-0.004933582960278159
-1.243952180698103
-0.3960850142260493
-0.004933582960278159
-1.243952180698103
-0.4056271775275211
-0.0058804748755609156
-1.243592391081406
-0.4056271775275211
-0.0058804748755609156
-1.243592391081406
-0.4056271775275211
-0.0058804748755609156
-1.243592391081406
-0.4056271775275211
-0.0058804748755609156
-1.243592391081406
-0.4105172068911945
-0.0049831920146633304
-1.2452884310553078
-0.4105172068911945
-0.0049831920146633304
-1.2452884310553078
-0.4105172068911945
-0.0049831920146633304
-1.2452884310553078
-0.4105172068911945
-0.0049831920146633304
-1.2452884310553078
-0.4112081228716261
-0.003171156812658373
-1.2474333308271706
-0.4112081228716261
-0.003171156812658373
-1.2474333308271706
-0.4112081228716261
-0.003171156812658373
-1.2474333308271706
-0.4112081228716261
-0.003171156812658373
-1.2474333308271706
-0.40932363450636516
-6.736263129140176E-4
-1.2485618823439353
-0.40932363450636516
-6.736263129140176E-4
-1.2485618823439353
-0.40932363450636516
-6.736263129140176E-4
-1.2485618823439353
-0.40932363450636516
-6.736263129140176E-4
-1.2485618823439353
-0.4082124529195699
0.0018388488704713728
-1.248487424795923
-0.4082124529195699
0.0018388488704713728
-1.248487424795923
-0.4082124529195699
0.0018388488704713728
-1.248487424795923
-0.4082124529195699
0.0018388488704713728
-1.248487424795923
-0.410335206327241
0.003764321291885352
-1.2481818351088887
-0.410335206327241
0.003764321291885352
-1.2481818351088887
-0.410335206327241
0.003764321291885352
-1.2481818351088887
-0.410335206327241
0.003764321291885352
-1.2481818351088887
-0.4131798958988227
0.00599277061312719
-1.2482939449801165
-0.4131798958988227
0.00599277061312719
-1.2482939449801165
-0.4131798958988227
0.00599277061312719
-1.2482939449801165
-0.4131798958988227
0.00599277061312719
-1.2482939449801165
-0.41476041089140536
0.007866925511258812
-1.2478386612600292
-0.41476041089140536
0.007866925511258812
-1.2478386612600292
-0.41476041089140536
0.007866925511258812
-1.2478386612600292
-0.41476041089140536
0.007866925511258812
-1.2478386612600292
-0.41384761988151786
0.00976772861872613
-1.247015409714952
-0.41384761988151786
0.00976772861872613
-1.247015409714952
-0.41384761988151786
0.00976772861872613
-1.247015409714952
-0.41384761988151786
0.00976772861872613
-1.247015409714952
-0.41236872428942817
0.01124660022925001
-1.2464756373281176
-0.41236872428942817
0.01124660022925001
-1.2464756373281176
-0.41236872428942817
0.01124660022925001
-1.2464756373281176
-0.41236872428942817
0.01124660022925001
-1.2464756373281176
-0.41077172755506197
0.012926742819218824
-1.2461489846337965
-0.41077172755506197
0.012926742819218824
-1.2461489846337965
-0.41077172755506197
0.012926742819218824
-1.2461489846337965
-0.41077172755506197
0.012926742819218824
-1.2461489846337965
-0.4104173794483723
0.014477350974002308
-1.2465707066989795
-0.4104173794483723
0.014477350974002308
-1.2465707066989795
-0.4104173794483723
0.014477350974002308
-1.2465707066989795
-0.4104173794483723
0.014477350974002308
-1.2465707066989795
-0.41120056515888004
0.015862459683960592
-1.2461120401271444
-0.41120056515888004
0.015862459683960592
-1.2461120401271444
-0.41120056515888004
0.015862459683960592
-1.2461120401271444
-0.41120056515888004
0.015862459683960592
-1.2461120401271444
-0.411947028884937
0.01674112571008864
-1.2459250208061226
-0.411947028884937
0.01674112571008864
-1.2459250208061226
-0.411947028884937
0.01674112571008864
-1.2459250208061226
-0.411947028884937
0.01674112571008864
-1.2459250208061226
-0.41210266645074584
0.017365462807932566
-1.2460568871685274
-0.41210266645074584
0.017365462807932566
-1.2460568871685274
-0.41210266645074584
0.017365462807932566
-1.2460568871685274
-0.41210266645074584
0.017365462807932566
-1.2460568871685274
-0.41111254057177266
0.01807819067161229
-1.246123950651734
-0.41111254057177266
0.01807819067161229
-1.246123950651734
-0.41111254057177266
0.01807819067161229
-1.246123950651734
-0.41111254057177266
0.01807819067161229
-1.246123950651734
-0.41120946901244676
0.01800827855576712
-1.2461102834855555
-0.41120946901244676
0.01800827855576712
-1.2461102834855555
-0.41120946901244676
0.01800827855576712
-1.2461102834855555
-0.41120946901244676
0.01800827855576712
-1.2461102834855555
-0.41101239549011537
0.017619748301464046
-1.2456794766412722
-0.41101239549011537
0.017619748301464046
-1.2456794766412722
-0.41101239549011537
0.017619748301464046
-1.2456794766412722
-0.41101239549011537
0.017619748301464046
-1.2456794766412722
-0.4114181094184001
0.016798284664934368
-1.2452363879505706
-0.4114181094184001
0.016798284664934368
-1.2452363879505706
-0.4114181094184001
0.016798284664934368
-1.2452363879505706
-0.4114181094184001
0.016798284664934368
-1.2452363879505706
-0.4116231421100894
0.016151263757512132
-1.2446537157753021
-0.4116231421100894
0.016151263757512132
-1.2446537157753021
-0.4116231421100894
0.016151263757512132
-1.2446537157753021
-0.4116231421100894
0.016151263757512132
-1.2446537157753021
-0.41172012384636647
0.01608144849475361
-1.244639953517866
-0.41172012384636647
0.01608144849475361
-1.244639953517866
-0.41172012384636647
0.01608144849475361
-1.244639953517866
-0.41172012384636647
0.01608144849475361
-1.244639953517866
-0.41183794319107564
0.015997864327415196
-1.2446960081635274
-0.41183794319107564
0.015997864327415196
-1.2446960081635274
-0.41183794319107564
0.015997864327415196
-1.2446960081635274
-0.41183794319107564
0.015997864327415196
-1.2446960081635274
-0.41190563410667996
0.015476686863225952
-1.2446891312057144
-0.41190563410667996
0.015476686863225952
-1.2446891312057144
-0.41190563410667996
0.015476686863225952
-1.2446891312057144
-0.41190563410667996
0.015476686863225952
-1.2446891312057144
-0.41165366566698275
0.014831993902086052
-1.2450018763903496
-0.41165366566698275
0.014831993902086052
-1.2450018763903496
-0.41165366566698275
0.014831993902086052
-1.2450018763903496
-0.41165366566698275
0.014831993902086052
-1.2450018763903496
-0.4118458679096865
0.01410251380228814
-1.2456483421976576
-0.4118458679096865
0.01410251380228814
-1.2456483421976576
-0.4118458679096865
0.01410251380228814
-1.2456483421976576
-0.4118458679096865
0.01410251380228814
-1.2456483421976576
-0.41303061426560883
0.01336869131810856
-1.2458225427044063
-0.41303061426560883
0.01336869131810856
-1.2458225427044063
-0.41303061426560883
0.01336869131810856
-1.2458225427044063
-0.41303061426560883
0.01336869131810856
-1.2458225427044063
-0.4137639206422799
0.012664329646243084
-1.2459264761920303
-0.4137639206422799
0.012664329646243084
-1.2459264761920303
-0.4137639206422799
0.012664329646243084
-1.2459264761920303
-0.4137639206422799
0.012664329646243084
-1.2459264761920303
-0.4142187618501759
0.011891290198860082
-1.2465645972900954
-0.4142187618501759
0.011891290198860082
-1.2465645972900954
-0.4142187618501759
0.011891290198860082
-1.2465645972900954
-0.4142187618501759
0.011891290198860082
-1.2465645972900954
-0.4134504160990767
0.011054164857798547
-1.2473845161683377
-0.4134504160990767
0.011054164857798547
-1.2473845161683377
-0.4134504160990767
0.011054164857798547
-1.2473845161683377
-0.4134504160990767
0.011054164857798547
-1.2473845161683377
-0.413435817830333
0.011060946072752124
-1.2481834197848902
-0.413435817830333
0.011060946072752124
-1.2481834197848902
-0.413435817830333
0.011060946072752124
-1.2481834197848902
-0.413435817830333
0.011060946072752124
-1.2481834197848902
-0.41502523410096925
0.01100342830545514
-1.248848333137897
-0.41502523410096925
0.01100342830545514
-1.248848333137897
-0.41502523410096925
0.01100342830545514
-1.248848333137897
-0.41502523410096925
0.01100342830545514
-1.248848333137897
-0.4159861103514454
0.01154564850826796
-1.249563474592931
-0.4159861103514454
0.01154564850826796
-1.249563474592931
-0.4159861103514454
0.01154564850826796
-1.249563474592931
-0.4159861103514454
0.01154564850826796
-1.249563474592931
-0.4158820952369509
0.012739801250977147
-1.250163080690975
-0.4158820952369509
0.012739801250977147
-1.250163080690975
-0.4158820952369509
0.012739801250977147
-1.250163080690975
-0.4158820952369509
0.012739801250977147
-1.250163080690975
-0.4157045293097738
0.014281765263649904
-1.250762513599597
-0.4157045293097738
0.014281765263649904
-1.250762513599597
-0.4157045293097738
0.014281765263649904
-1.250762513599597
-0.4157045293097738
0.014281765263649904
-1.250762513599597
-0.4161726676356672
0.01574363760192581
-1.2509734248605948
-0.4161726676356672
0.01574363760192581
-1.2509734248605948
-0.4161726676356672
0.01574363760192581
-1.2509734248605948
-0.4161726676356672
0.01574363760192581
-1.2509734248605948
-0.41683582686153464
0.01727408060399868
-1.2509987446404556
-0.41683582686153464
0.01727408060399868
-1.2509987446404556
-0.41683582686153464
0.01727408060399868
-1.2509987446404556
-0.41683582686153464
0.01727408060399868
-1.2509987446404556
-0.41701671772176974
0.018384102027963162
-1.2509598051333168
-0.41701671772176974
0.018384102027963162
-1.2509598051333168
-0.41701671772176974
0.018384102027963162
-1.2509598051333168
-0.41701671772176974
0.018384102027963162
-1.2509598051333168
-0.4168500713332202
0.019419861567583182
-1.2510031262947847
-0.4168500713332202
0.019419861567583182
-1.2510031262947847
-0.4168500713332202
0.019419861567583182
-1.2510031262947847
-0.4168500713332202
0.019419861567583182
-1.2510031262947847
-0.41638260888959083
0.01999168786339304
-1.2513217880622223
-0.41638260888959083
0.01999168786339304
-1.2513217880622223
-0.41638260888959083
0.01999168786339304
-1.2513217880622223
-0.41638260888959083
0.01999168786339304
-1.2513217880622223
-0.41642625764097685
0.020255144611217735
-1.2513779110909804
-0.41642625764097685
0.020255144611217735
-1.2513779110909804
-0.41642625764097685
0.020255144611217735
-1.2513779110909804
-0.41642625764097685
0.020255144611217735
-1.2513779110909804
-0.41649642218757743
0.02035179528676163
-1.2513990788687048
-0.41649642218757743
0.02035179528676163
-1.2513990788687048
-0.41649642218757743
0.02035179528676163
-1.2513990788687048
-0.41649642218757743
0.02035179528676163
-1.2513990788687048
-0.41654409626551286
0.020171191731606756
-1.251434272744675
-0.41654409626551286
0.020171191731606756
-1.251434272744675
-0.41654409626551286
0.020171191731606756
-1.251434272744675
-0.41654409626551286
0.020171191731606756
-1.251434272744675
-0.41651021910048985
0.020372963330333622
-1.2513024064327043
-0.41651021910048985
0.020372963330333622
-1.2513024064327043
-0.41651021910048985
0.020372963330333622
-1.2513024064327043
-0.41651021910048985
0.020372963330333622
-1.2513024064327043
-0.4161214690422742
0.020535463378053526
-1.2510855934027652
-0.4161214690422742
0.020535463378053526
-1.2510855934027652
-0.4161214690422742
0.020535463378053526
-1.2510855934027652
-0.4161214690422742
0.020535463378053526
-1.2510855934027652
-0.41639774402572277
0.020604088628227817
-1.2505521649393763
-0.41639774402572277
0.020604088628227817
-1.2505521649393763
-0.41639774402572277
0.020604088628227817
-1.2505521649393763
-0.41639774402572277
0.020604088628227817
-1.2505521649393763
-0.41671343859841936
0.020318108571375882
-1.250045497621858
-0.41671343859841936
0.020318108571375882
-1.250045497621858
-0.41671343859841936
0.020318108571375882
-1.250045497621858
-0.41671343859841936
0.020318108571375882
-1.250045497621858
-0.4175987185851159
0.01991785315401043
-1.249666022111798
-0.4175987185851159
0.01991785315401043
-1.249666022111798
-0.4175987185851159
0.01991785315401043
-1.249666022111798
-0.4175987185851159
0.01991785315401043
-1.249666022111798
-0.41784463891813683
0.01953561663640707
-1.2491378794156858
-0.41784463891813683
0.01953561663640707
-1.2491378794156858
-0.41784463891813683
0.01953561663640707
-1.2491378794156858
-0.41784463891813683
0.01953561663640707
-1.2491378794156858
-0.41788805715363647
0.01882820715000031
-1.2487127863923209
-0.41788805715363647
0.01882820715000031
-1.2487127863923209
-0.41788805715363647
0.01882820715000031
-1.2487127863923209
-0.41788805715363647
0.01882820715000031
-1.2487127863923209
-0.41809853768399685
0.01814757955261147
-1.2482949140530275
-0.41809853768399685
0.01814757955261147
-1.2482949140530275
-0.41809853768399685
0.01814757955261147
-1.2482949140530275
-0.41809853768399685
0.01814757955261147
-1.2482949140530275
-0.41845979262705685
0.017063668167142398
-1.2477926185983672
-0.41845979262705685
0.017063668167142398
-1.2477926185983672
-0.41845979262705685
0.017063668167142398
-1.2477926185983672
-0.41845979262705685
0.017063668167142398
-1.2477926185983672
-0.4192870470514982
0.015971010017814417
-1.247263212731035
-0.4192870470514982
0.015971010017814417
-1.247263212731035
-0.4192870470514982
0.015971010017814417
-1.247263212731035
-0.4192870470514982
0.015971010017814417
-1.247263212731035
-0.4192678560621305
0.015014438025669319
-1.2467112245374068
-0.4192678560621305
0.015014438025669319
-1.2467112245374068
-0.4192678560621305
0.015014438025669319
-1.2467112245374068
-0.4192678560621305
0.015014438025669319
-1.2467112245374068
-0.4194996631270263
0.014111228607840087
-1.2465207578206436
-0.4194996631270263
0.014111228607840087
-1.2465207578206436
-0.4194996631270263
0.014111228607840087
-1.2465207578206436
-0.4194996631270263
0.014111228607840087
-1.2465207578206436
-0.4195521074107264
0.013368833411011026
-1.2462616231806005
-0.4195521074107264
0.013368833411011026
-1.2462616231806005
-0.4195521074107264
0.013368833411011026
-1.2462616231806005
-0.4195521074107264
0.013368833411011026
-1.2462616231806005
-0.4202218390904967
0.012506550281293013
-1.245806796849564
-0.4202218390904967
0.012506550281293013
-1.245806796849564
-0.4202218390904967
0.012506550281293013
-1.245806796849564
-0.4202218390904967
0.012506550281293013
-1.245806796849564
-0.4211705208755216
0.011740041017439662
-1.245518876682923
-0.4211705208755216
0.011740041017439662
-1.245518876682923
-0.4211705208755216
0.011740041017439662
-1.245518876682923
-0.4211705208755216
0.011740041017439662
-1.245518876682923
-0.42132058770924674
0.0109280754616935
-1.2452446785611375
-0.42132058770924674
0.0109280754616935
-1.2452446785611375
-0.42132058770924674
0.0109280754616935
-1.2452446785611375
-0.42132058770924674
0.0109280754616935
-1.2452446785611375
-0.42174972607052824
0.010503714710953826
-1.2450547943181234
-0.42174972607052824
0.010503714710953826
-1.2450547943181234
-0.42174972607052824
0.010503714710953826
-1.2450547943181234
-0.42174972607052824
0.010503714710953826
-1.2450547943181234
-0.42185851784808226
0.00983731643798304
-1.244912703072236
-0.42185851784808226
0.00983731643798304
-1.244912703072236
-0.42185851784808226
0.00983731643798304
-1.244912703072236
-0.42185851784808226
0.00983731643798304
-1.244912703072236
-0.4218160372602342
0.009573815882295972
-1.2448560699432378
-0.4218160372602342
0.009573815882295972
-1.2448560699432378
-0.4218160372602342
0.009573815882295972
-1.2448560699432378
-0.4218160372602342
0.009573815882295972
-1.2448560699432378
-0.4222598406819857
0.00917070708704916
-1.244568879164556
-0.4222598406819857
0.00917070708704916
-1.244568879164556
-0.4222598406819857
0.00917070708704916
-1.244568879164556
-0.4222598406819857
0.00917070708704916
-1.244568879164556
-0.4219952311845296
0.008687532053881614
-1.2441157551601312
-0.4219952311845296
0.008687532053881614
-1.2441157551601312
-0.4219952311845296
0.008687532053881614
-1.2441157551601312
-0.4219952311845296
0.008687532053881614
-1.2441157551601312
-0.42183487186370905
0.008508124761279006
-1.24400396595773
-0.42183487186370905
0.008508124761279006
-1.24400396595773
-0.42183487186370905
0.008508124761279006
-1.24400396595773
-0.42183487186370905
0.008508124761279006
-1.24400396595773
-0.42117477332869974
0.008246742899794258
-1.2438725150704895
-0.42117477332869974
0.008246742899794258
-1.2438725150704895
-0.42117477332869974
0.008246742899794258
-1.2438725150704895
-0.42117477332869974
0.008246742899794258
-1.2438725150704895
-0.4210646709187814
0.008387340212006971
-1.2435537821525169
-0.4210646709187814
0.008387340212006971
-1.2435537821525169
-0.4210646709187814
0.008387340212006971
-1.2435537821525169
-0.4210646709187814
0.008387340212006971
-1.2435537821525169
-0.4211616427840818
0.008317722539637744
-1.24353932639232
-0.4211616427840818
0.008317722539637744
-1.24353932639232
-0.4211616427840818
0.008317722539637744
-1.24353932639232
-0.4211616427840818
0.008317722539637744
-1.24353932639232
-0.4207658968072972
0.008539738596920471
-1.2438606864837929
-0.4207658968072972
0.008539738596920471
-1.2438606864837929
-0.4207658968072972
0.008539738596920471
-1.2438606864837929
-0.4207658968072972
0.008539738596920471
-1.2438606864837929
-0.4205246444399031
0.009385962122230482
-1.2443158693913288
-0.4205246444399031
0.009385962122230482
-1.2443158693913288
-0.4205246444399031
0.009385962122230482
-1.2443158693913288
-0.4205246444399031
0.009385962122230482
-1.2443158693913288
-0.4209934014431288
0.010721472566793386
-1.2451259888230095
-0.4209934014431288
0.010721472566793386
-1.2451259888230095
-0.4209934014431288
0.010721472566793386
-1.2451259888230095
-0.4209934014431288
0.010721472566793386
-1.2451259888230095
-0.42232089842827986
0.012887778186238673
-1.245641667312282
-0.42232089842827986
0.012887778186238673
-1.245641667312282
-0.42232089842827986
0.012887778186238673
-1.245641667312282
-0.42232089842827986
0.012887778186238673
-1.245641667312282
-0.4237692092473213
0.015470523078824974
-1.2459751799052123
-0.4237692092473213
0.015470523078824974
-1.2459751799052123
-0.4237692092473213
0.015470523078824974
-1.2459751799052123
-0.4237692092473213
0.015470523078824974
-1.2459751799052123
-0.42406400533156974
0.018552851253727253
-1.2472365125156923
-0.42406400533156974
0.018552851253727253
-1.2472365125156923
-0.42406400533156974
0.018552851253727253
-1.2472365125156923
-0.42406400533156974
0.018552851253727253
-1.2472365125156923
-0.42535486775310577
0.02297646458457968
-1.2496712484464347
-0.42535486775310577
0.02297646458457968
-1.2496712484464347
-0.42535486775310577
0.02297646458457968
-1.2496712484464347
-0.42535486775310577
0.02297646458457968
-1.2496712484464347
-0.42742580663810176
0.028015922121200576
-1.2531291106421132
-0.42742580663810176
0.028015922121200576
-1.2531291106421132
-0.42742580663810176
0.028015922121200576
-1.2531291106421132
-0.42742580663810176
0.028015922121200576
-1.2531291106421132
-0.43050588124847017
0.0330069984191962
-1.2571010817594424
-0.43050588124847017
0.0330069984191962
-1.2571010817594424
-0.43050588124847017
0.0330069984191962
-1.2571010817594424
-0.43050588124847017
0.0330069984191962
-1.2571010817594424
-0.4324755728740411
0.038397147513625364
-1.2608358261928845
-0.4324755728740411
0.038397147513625364
-1.2608358261928845
-0.4324755728740411
0.038397147513625364
-1.2608358261928845
-0.4324755728740411
0.038397147513625364
-1.2608358261928845
-0.4346751180060499
0.043719654451943986
-1.2641963370337077
-0.4346751180060499
0.043719654451943986
-1.2641963370337077
-0.4346751180060499
0.043719654451943986
-1.2641963370337077
-0.4346751180060499
0.043719654451943986
-1.2641963370337077
-0.43361882531361085
0.04873335379529889
-1.2670054781625746
-0.43361882531361085
0.04873335379529889
-1.2670054781625746
-0.43361882531361085
0.04873335379529889
-1.2670054781625746
-0.43361882531361085
0.04873335379529889
-1.2670054781625746
-0.4325740203769406
0.05330756331169119
-1.2689864498391281
-0.4325740203769406
0.05330756331169119
-1.2689864498391281
-0.4325740203769406
0.05330756331169119
-1.2689864498391281
-0.4325740203769406
0.05330756331169119
-1.2689864498391281
-0.4337383047143631
0.0569772376695783
-1.2705727500580966
-0.4337383047143631
0.0569772376695783
-1.2705727500580966
-0.4337383047143631
0.0569772376695783
-1.2705727500580966
-0.4337383047143631
0.0569772376695783
-1.2705727500580966
-0.4333777427111542
0.05816900576674018
-1.2721759540723918
-0.4333777427111542
0.05816900576674018
-1.2721759540723918
-0.4333777427111542
0.05816900576674018
-1.2721759540723918
-0.4333777427111542
0.05816900576674018
-1.2721759540723918
-0.43238026301215016
0.059541087256757955
-1.2745245796270916
-0.43238026301215016
0.059541087256757955
-1.2745245796270916
-0.43238026301215016
0.059541087256757955
-1.2745245796270916
-0.43238026301215016
0.059541087256757955
-1.2745245796270916
-0.4356538623485767
0.0609978345651818
-1.2762659983784936
-0.4356538623485767
0.0609978345651818
-1.2762659983784936
-0.4356538623485767
0.0609978345651818
-1.2762659983784936
-0.4356538623485767
0.0609978345651818
-1.2762659983784936
-0.43785499325550703
0.059903110813375425
-1.278264543915122
-0.43785499325550703
0.059903110813375425
-1.278264543915122
-0.4370327516915073
0.05938055955129011
-1.27922554553578
-0.4370327516915073
0.05938055955129011
-1.27922554553578
-0.4370327516915073
0.05938055955129011
-1.27922554553578
-0.4370327516915073
0.05938055955129011
-1.27922554553578
-0.4390652241461447
0.05769090112122087
-1.2793825602352282
-0.4390652241461447
0.05769090112122087
-1.2793825602352282
-0.4390652241461447
0.05769090112122087
-1.2793825602352282
-0.4390652241461447
0.05769090112122087
-1.2793825602352282
-0.4408390329347369
0.05454500472079509
-1.2806551596266582
-0.4408390329347369
0.05454500472079509
-1.2806551596266582
-0.4408390329347369
0.05454500472079509
-1.2806551596266582
-0.4408390329347369
0.05454500472079509
-1.2806551596266582
-0.44240798354048155
0.05217645435548823
-1.2811161601098042
-0.44240798354048155
0.05217645435548823
-1.2811161601098042
-0.44240798354048155
0.05217645435548823
-1.2811161601098042
-0.44240798354048155
0.05217645435548823
-1.2811161601098042
-0.4434785106314182
0.049044925448804476
-1.2818391688201547
-0.4434785106314182
0.049044925448804476
-1.2818391688201547
-0.4434785106314182
0.049044925448804476
-1.2818391688201547
-0.4434785106314182
0.049044925448804476
-1.2818391688201547
-0.4414456465814483
0.04502892347825029
-1.282040885230888
-0.4414456465814483
0.04502892347825029
-1.282040885230888
-0.4414456465814483
0.04502892347825029
-1.282040885230888
-0.4414456465814483
0.04502892347825029
-1.282040885230888
-0.4387075423010484
0.03902779183692433
-1.282269455067243
-0.4387075423010484
0.03902779183692433
-1.282269455067243
-0.4387075423010484
0.03902779183692433
-1.282269455067243
-0.4387075423010484
0.03902779183692433
-1.282269455067243
-0.43892898315804774
0.03174482853723021
-1.2826258000619537
-0.43892898315804774
0.03174482853723021
-1.2826258000619537
-0.43892898315804774
0.03174482853723021
-1.2826258000619537
-0.43892898315804774
0.03174482853723021
-1.2826258000619537
-0.4415152107495194
0.024854343656925335
-1.2823958463946339
-0.4415152107495194
0.024854343656925335
-1.2823958463946339
-0.4415152107495194
0.024854343656925335
-1.2823958463946339
-0.4415152107495194
0.024854343656925335
-1.2823958463946339
-0.44339863605062085
0.0188028810249081
-1.281529618137653
-0.44339863605062085
0.0188028810249081
-1.281529618137653
-0.44339863605062085
0.0188028810249081
-1.281529618137653
-0.44339863605062085
0.0188028810249081
-1.281529618137653
-0.4399617964332491
0.014352046047566807
-1.2792039217364097
-0.4399617964332491
0.014352046047566807
-1.2792039217364097
-0.4399617964332491
0.014352046047566807
-1.2792039217364097
-0.4399617964332491
0.014352046047566807
-1.2792039217364097
-0.4368433014463929
0.010971321463037491
-1.2774584157974558
-0.4368433014463929
0.010971321463037491
-1.2774584157974558
-0.4368433014463929
0.010971321463037491
-1.2774584157974558
-0.4368433014463929
0.010971321463037491
-1.2774584157974558
-0.434576071949588
0.009179550965056385
-1.2783780020266102
-0.434576071949588
0.009179550965056385
-1.2783780020266102
-0.434576071949588
0.009179550965056385
-1.2783780020266102
-0.434576071949588
0.009179550965056385
-1.2783780020266102
-0.43563693347164667
0.008266925210832823
-1.280380305301451
-0.43563693347164667
0.008266925210832823
-1.280380305301451
-0.43563693347164667
0.008266925210832823
-1.280380305301451
-0.43563693347164667
0.008266925210832823
-1.280380305301451
-0.43701467171343106
0.006566200571325044
-1.2813078812738816
-0.43701467171343106
0.006566200571325044
-1.2813078812738816
-0.43701467171343106
0.006566200571325044
-1.2813078812738816
-0.43701467171343106
0.006566200571325044
-1.2813078812738816
-0.4371545024853804
0.0053856360889787645
-1.2798703310931816
-0.4371545024853804
0.0053856360889787645
-1.2798703310931816
-0.4371545024853804
0.0053856360889787645
-1.2798703310931816
-0.4371545024853804
0.0053856360889787645
-1.2798703310931816
-0.43883755854797296
0.004526914740427824
-1.278031481327031
-0.43883755854797296
0.004526914740427824
-1.278031481327031
-0.43883755854797296
0.004526914740427824
-1.278031481327031
-0.43883755854797296
0.004526914740427824
-1.278031481327031
-0.4407894921213381
0.004759083638824838
-1.277485444958328
-0.4407894921213381
0.004759083638824838
-1.277485444958328
-0.4407894921213381
0.004759083638824838
-1.277485444958328
-0.4407894921213381
0.004759083638824838
-1.277485444958328
-0.4416207522151856
0.005279901932155276
-1.2773029857977116
-0.4416207522151856
0.005279901932155276
-1.2773029857977116
-0.4416207522151856
0.005279901932155276
-1.2773029857977116
-0.4416207522151856
0.005279901932155276
-1.2773029857977116
-0.4399091528663754
0.00608810885718148
-1.2765555174061007
-0.4399091528663754
0.00608810885718148
-1.2765555174061007
-0.4399091528663754
0.00608810885718148
-1.2765555174061007
-0.4399091528663754
0.00608810885718148
-1.2765555174061007
-0.4370768046829115
0.007410493900163118
-1.2751431268911333
-0.4370768046829115
0.007410493900163118
-1.2751431268911333
-0.4370768046829115
0.007410493900163118
-1.2751431268911333
-0.4370768046829115
0.007410493900163118
-1.2751431268911333
-0.43347678916282295
0.009030231353432186
-1.2734665560611171
-0.43347678916282295
0.009030231353432186
-1.2734665560611171
-0.43347678916282295
0.009030231353432186
-1.2734665560611171
-0.43347678916282295
0.009030231353432186
-1.2734665560611171
-0.43394685548257955
0.010660636251394148
-1.270851679641573
-0.43394685548257955
0.010660636251394148
-1.270851679641573
-0.43394685548257955
0.010660636251394148
-1.270851679641573
-0.43394685548257955
0.010660636251394148
-1.270851679641573
-0.4361763396801776
0.01229549958784866
-1.2686460200227485
-0.4361763396801776
0.01229549958784866
-1.2686460200227485
-0.4361763396801776
0.01229549958784866
-1.2686460200227485
-0.4361763396801776
0.01229549958784866
-1.2686460200227485
-0.4390552541092915
0.01574608788847596
-1.2680024881189742
-0.4390552541092915
0.01574608788847596
-1.2680024881189742
-0.4390552541092915
0.01574608788847596
-1.2680024881189742
-0.4390552541092915
0.01574608788847596
-1.2680024881189742
-0.4364017636696681
0.019434721589475474
-1.2672525636560181
-0.4364017636696681
0.019434721589475474
-1.2672525636560181
-0.4364017636696681
0.019434721589475474
-1.2672525636560181
-0.4364017636696681
0.019434721589475474
-1.2672525636560181
-0.43186346101057754
0.022526033970714864
-1.2646472798123227
-0.43186346101057754
0.022526033970714864
-1.2646472798123227
-0.43186346101057754
0.022526033970714864
-1.2646472798123227
-0.43186346101057754
0.022526033970714864
-1.2646472798123227
-0.4323069805880265
0.025254722377379593
-1.261925424732342
-0.4323069805880265
0.025254722377379593
-1.261925424732342
-0.4323069805880265
0.025254722377379593
-1.261925424732342
-0.4323069805880265
0.025254722377379593
-1.261925424732342
-0.43426389122229875
0.028933174162626796
-1.2612553162005677
-0.43426389122229875
0.028933174162626796
-1.2612553162005677
-0.43426389122229875
0.028933174162626796
-1.2612553162005677
-0.43426389122229875
0.028933174162626796
-1.2612553162005677
-0.43682315321615384
0.033293859560557235
-1.2611764639457133
-0.43682315321615384
0.033293859560557235
-1.2611764639457133
-0.43682315321615384
0.033293859560557235
-1.2611764639457133
-0.43682315321615384
0.033293859560557235
-1.2611764639457133
-0.4415737939900465
0.03678943980965581
-1.2621248464337373
-0.4415737939900465
0.03678943980965581
-1.2621248464337373
-0.4415737939900465
0.03678943980965581
-1.2621248464337373
-0.4415737939900465
0.03678943980965581
-1.2621248464337373
-0.4418870817798932
0.03963505407259057
-1.2600652475733058
-0.4418870817798932
0.03963505407259057
-1.2600652475733058
-0.4418870817798932
0.03963505407259057
-1.2600652475733058
-0.4418870817798932
0.03963505407259057
-1.2600652475733058
-0.44044060695143494
0.04316230026454883
-1.2541475278576206
-0.44044060695143494
0.04316230026454883
-1.2541475278576206
-0.44044060695143494
0.04316230026454883
-1.2541475278576206
-0.44044060695143494
0.04316230026454883
-1.2541475278576206
-0.43803532647244026
0.04700057769535326
-1.2492757455732189
-0.43803532647244026
0.04700057769535326
-1.2492757455732189
-0.43803532647244026
0.04700057769535326
-1.2492757455732189
-0.43803532647244026
0.04700057769535326
-1.2492757455732189
-0.43837481573597215
0.04900962865966116
-1.247375878995081
-0.43837481573597215
0.04900962865966116
-1.247375878995081
-0.43837481573597215
0.04900962865966116
-1.247375878995081
-0.43837481573597215
0.04900962865966116
-1.247375878995081
-0.43999320117901064
0.048533235403369956
-1.2455503035132582
-0.43999320117901064
0.048533235403369956
-1.2455503035132582
-0.43999320117901064
0.048533235403369956
-1.2455503035132582
-0.43999320117901064
0.048533235403369956
-1.2455503035132582
-0.43847183615635504
0.046143963576934156
-1.239933942262141
-0.43847183615635504
0.046143963576934156
-1.239933942262141
-0.43847183615635504
0.046143963576934156
-1.239933942262141
-0.43847183615635504
0.046143963576934156
-1.239933942262141
-0.43197023068086454
0.044450645384104155
-1.2300695861525712
-0.43197023068086454
0.044450645384104155
-1.2300695861525712
-0.43197023068086454
0.044450645384104155
-1.2300695861525712
-0.43197023068086454
0.044450645384104155
-1.2300695861525712
-0.41446997578224476
0.04075145711247572
-1.219524459072555
-0.41446997578224476
0.04075145711247572
-1.219524459072555
-0.41446997578224476
0.04075145711247572
-1.219524459072555
-0.41446997578224476
0.04075145711247572
-1.219524459072555
-0.39440027677800354
0.03332020334006874
-1.213534512481412
-0.39440027677800354
0.03332020334006874
-1.213534512481412
-0.39440027677800354
0.03332020334006874
-1.213534512481412
-0.39440027677800354
0.03332020334006874
-1.213534512481412
-0.39277766447382817
0.023467022400368163
-1.2081539661585323
-0.39277766447382817
0.023467022400368163
-1.2081539661585323
-0.39277766447382817
0.023467022400368163
-1.2081539661585323
-0.39277766447382817
0.023467022400368163
-1.2081539661585323
-0.40467625707425264
0.014295884699740271
-1.2016799932403615
-0.40467625707425264
0.014295884699740271
-1.2016799932403615
-0.40467625707425264
0.014295884699740271
-1.2016799932403615
-0.40467625707425264
0.014295884699740271
-1.2016799932403615
-0.41537008397298225
0.005773232622525408
-1.1950747276996787
-0.41537008397298225
0.005773232622525408
-1.1950747276996787
-0.41537008397298225
0.005773232622525408
-1.1950747276996787
-0.41537008397298225
0.005773232622525408
-1.1950747276996787
-0.41918025387112345
-0.0027521222988565043
-1.1904076557391934
-0.41918025387112345
-0.0027521222988565043
-1.1904076557391934
-0.41918025387112345
-0.0027521222988565043
-1.1904076557391934
-0.41918025387112345
-0.0027521222988565043
-1.1904076557391934
-0.41161168880726107
-0.010426769467351348
-1.1896687728410775
-0.41161168880726107
-0.010426769467351348
-1.1896687728410775
-0.41161168880726107
-0.010426769467351348
-1.1896687728410775
-0.41161168880726107
-0.010426769467351348
-1.1896687728410775
-0.40126474292838654
-0.017661819844714478
-1.1880994840444155
-0.40126474292838654
-0.017661819844714478
-1.1880994840444155
-0.40126474292838654
-0.017661819844714478
-1.1880994840444155
-0.40126474292838654
-0.017661819844714478
-1.1880994840444155
-0.3984841476838479
-0.021356804386408343
-1.1846113066113029
-0.3984841476838479
-0.021356804386408343
-1.1846113066113029
-0.3984841476838479
-0.021356804386408343
-1.1846113066113029
-0.3984841476838479
-0.021356804386408343
-1.1846113066113029
-0.40469996902452426
-0.025260715988348875
-1.1832307580416672
-0.40469996902452426
-0.025260715988348875
-1.1832307580416672
-0.40469996902452426
-0.025260715988348875
-1.1832307580416672
-0.40469996902452426
-0.025260715988348875
-1.1832307580416672
-0.4107355583549457
-0.02742861381647202
-1.1841600916846475
-0.4107355583549457
-0.02742861381647202
-1.1841600916846475
-0.4107355583549457
-0.02742861381647202
-1.1841600916846475
-0.4107355583549457
-0.02742861381647202
-1.1841600916846475
-0.41097031921231253
-0.02671924363352679
-1.1857233503533762
-0.41097031921231253
-0.02671924363352679
-1.1857233503533762
-0.41097031921231253
-0.02671924363352679
-1.1857233503533762
-0.41097031921231253
-0.02671924363352679
-1.1857233503533762
-0.410023630419836
-0.024635551076203046
-1.187378665585816
-0.410023630419836
-0.024635551076203046
-1.187378665585816
-0.410023630419836
-0.024635551076203046
-1.187378665585816
-0.410023630419836
-0.024635551076203046
-1.187378665585816
-0.40885725576399906
-0.02040310740549568
-1.188857071251253
-0.40885725576399906
-0.02040310740549568
-1.188857071251253
-0.40885725576399906
-0.02040310740549568
-1.188857071251253
-0.40885725576399906
-0.02040310740549568
-1.188857071251253
-0.4107138178080278
-0.01606772470659444
-1.1900537173425212
-0.4107138178080278
-0.01606772470659444
-1.1900537173425212
-0.4107138178080278
-0.01606772470659444
-1.1900537173425212
-0.4107138178080278
-0.01606772470659444
-1.1900537173425212
-0.4115714196063519
-0.012323545627097468
-1.190968273172125
-0.4115714196063519
-0.012323545627097468
-1.190968273172125
-0.4115714196063519
-0.012323545627097468
-1.190968273172125
-0.4115714196063519
-0.012323545627097468
-1.190968273172125
-0.4130783247603017
-0.009502704689700246
-1.191310237376606
-0.4130783247603017
-0.009502704689700246
-1.191310237376606
-0.4130783247603017
-0.009502704689700246
-1.191310237376606
-0.4130783247603017
-0.009502704689700246
-1.191310237376606
-0.414537421196896
-0.007523971226422783
-1.192205838428908
-0.414537421196896
-0.007523971226422783
-1.192205838428908
-0.414537421196896
-0.007523971226422783
-1.192205838428908
-0.414537421196896
-0.007523971226422783
-1.192205838428908
-0.41444324783986614
-0.005789746193504942
-1.1928472634364846
-0.41444324783986614
-0.005789746193504942
-1.1928472634364846
-0.41444324783986614
-0.005789746193504942
-1.1928472634364846
-0.41444324783986614
-0.005789746193504942
-1.1928472634364846
-0.4136715017869502
-0.0033971298048621015
-1.194007655309893
-0.4136715017869502
-0.0033971298048621015
-1.194007655309893
-0.4136715017869502
-0.0033971298048621015
-1.194007655309893
-0.4136715017869502
-0.0033971298048621015
-1.194007655309893
-0.413475442150101
-0.0014008295307267556
-1.1958788468101824
-0.413475442150101
-0.0014008295307267556
-1.1958788468101824
-0.413475442150101
-0.0014008295307267556
-1.1958788468101824
-0.413475442150101
-0.0014008295307267556
-1.1958788468101824
-0.4134053418888326
1.3908259253754183E-4
-1.1974477933866159
-0.4134053418888326
1.3908259253754183E-4
-1.1974477933866159
-0.4134053418888326
1.3908259253754183E-4
-1.1974477933866159
-0.4134053418888326
1.3908259253754183E-4
-1.1974477933866159
-0.4155469276932676
4.6639498888479774E-4
-1.1982479543081852
-0.4155469276932676
4.6639498888479774E-4
-1.1982479543081852
-0.4155469276932676
4.6639498888479774E-4
-1.1982479543081852
-0.4155469276932676
4.6639498888479774E-4
-1.1982479543081852
-0.4174208053661169
-6.807727296538737E-5
-1.1990399352024093
-0.4174208053661169
-6.807727296538737E-5
-1.1990399352024093
-0.4174208053661169
-6.807727296538737E-5
-1.1990399352024093
-0.4174208053661169
-6.807727296538737E-5
-1.1990399352024093
-0.41743660973444674
-3.4611842294012533E-4
-1.19953391037506
-0.41743660973444674
-3.4611842294012533E-4
-1.19953391037506
-0.41743660973444674
-3.4611842294012533E-4
-1.19953391037506
-0.41743660973444674
-3.4611842294012533E-4
-1.19953391037506
-0.41595808635135584
-1.8072352426023972E-4
-1.199981002118534
-0.41595808635135584
-1.8072352426023972E-4
-1.199981002118534
-0.41595808635135584
-1.8072352426023972E-4
-1.199981002118534
-0.41595808635135584
-1.8072352426023972E-4
-1.199981002118534
-0.41551860450297706
-3.221249759476698E-4
-1.2006773813682168
-0.41551860450297706
-3.221249759476698E-4
-1.2006773813682168
-0.41551860450297706
-3.221249759476698E-4
-1.2006773813682168
-0.41551860450297706
-3.221249759476698E-4
-1.2006773813682168
-0.41605548052874114
-8.955943126802574E-4
-1.2009030893428962
-0.41605548052874114
-8.955943126802574E-4
-1.2009030893428962
-0.41605548052874114
-8.955943126802574E-4
-1.2009030893428962
-0.41605548052874114
-8.955943126802574E-4
-1.2009030893428962
-0.41612520942788866
-0.0017283938195152427
-1.2010741073361055
-0.41612520942788866
-0.0017283938195152427
-1.2010741073361055
-0.41612520942788866
-0.0017283938195152427
-1.2010741073361055
-0.41612520942788866
-0.0017283938195152427
-1.2010741073361055
-0.41702688592607223
-0.003337317736999666
-1.2014266689036963
-0.41702688592607223
-0.003337317736999666
-1.2014266689036963
-0.41702688592607223
-0.003337317736999666
-1.2014266689036963
-0.41702688592607223
-0.003337317736999666
-1.2014266689036963
-0.4181323980274974
-0.004570033372595485
-1.2022747020418654
-0.4181323980274974
-0.004570033372595485
-1.2022747020418654
-0.4181323980274974
-0.004570033372595485
-1.2022747020418654
-0.4181323980274974
-0.004570033372595485
-1.2022747020418654
-0.41901868054601643
-0.005188227419603814
-1.2030087409952321
-0.41901868054601643
-0.005188227419603814
-1.2030087409952321
-0.41901868054601643
-0.005188227419603814
-1.2030087409952321
-0.41901868054601643
-0.005188227419603814
-1.2030087409952321
-0.41852289625178285
-0.005954429093293574
-1.2032265911874809
-0.41852289625178285
-0.005954429093293574
-1.2032265911874809
-0.41852289625178285
-0.005954429093293574
-1.2032265911874809
-0.41852289625178285
-0.005954429093293574
-1.2032265911874809
-0.4185404064151417
-0.0075386644948118
-1.2035135120383067
-0.4185404064151417
-0.0075386644948118
-1.2035135120383067
-0.4185404064151417
-0.0075386644948118
-1.2035135120383067
-0.4185404064151417
-0.0075386644948118
-1.2035135120383067
-0.4189717952942222
-0.00894188736199181
-1.2037341305192293
-0.4189717952942222
-0.00894188736199181
-1.2037341305192293
-0.4189717952942222
-0.00894188736199181
-1.2037341305192293
-0.4189717952942222
-0.00894188736199181
-1.2037341305192293
-0.4196568252718685
-0.009764697079522728
-1.2039736095266047
-0.4196568252718685
-0.009764697079522728
-1.2039736095266047
-0.4196568252718685
-0.009764697079522728
-1.2039736095266047
-0.4196568252718685
-0.009764697079522728
-1.2039736095266047
-0.42153548534313834
-0.009991322905970094
-1.2045779453774377
-0.42153548534313834
-0.009991322905970094
-1.2045779453774377
-0.42153548534313834
-0.009991322905970094
-1.2045779453774377
-0.42153548534313834
-0.009991322905970094
-1.2045779453774377
-0.4227674034582707
-0.009983780617287916
-1.2055830600494528
-0.4227674034582707
-0.009983780617287916
-1.2055830600494528
-0.4227674034582707
-0.009983780617287916
-1.2055830600494528
-0.4227674034582707
-0.009983780617287916
-1.2055830600494528
-0.42254891715589804
-0.009587874277229604
-1.2064983785929273
-0.42254891715589804
-0.009587874277229604
-1.2064983785929273
-0.42254891715589804
-0.009587874277229604
-1.2064983785929273
-0.42254891715589804
-0.009587874277229604
-1.2064983785929273
-0.4229223051671452
-0.008844717059557451
-1.2075244563892775
-0.4229223051671452
-0.008844717059557451
-1.2075244563892775
-0.4229223051671452
-0.008844717059557451
-1.2075244563892775
-0.4229223051671452
-0.008844717059557451
-1.2075244563892775
-0.42340372638177115
-0.008786683803381608
-1.2085059400749836
-0.42340372638177115
-0.008786683803381608
-1.2085059400749836
-0.42340372638177115
-0.008786683803381608
-1.2085059400749836
-0.42340372638177115
-0.008786683803381608
-1.2085059400749836
-0.4239480866928339
-0.008128965862166998
-1.20926883498341
-0.4239480866928339
-0.008128965862166998
-1.20926883498341
-0.4239480866928339
-0.008128965862166998
-1.20926883498341
-0.4239480866928339
-0.008128965862166998
-1.20926883498341
-0.4241395626541373
-0.007309807608246692
-1.2097918674743622
-0.4241395626541373
-0.007309807608246692
-1.2097918674743622
-0.4241395626541373
-0.007309807608246692
-1.2097918674743622
-0.4241395626541373
-0.007309807608246692
-1.2097918674743622
-0.42485937455562556
-0.0063577342136668545
-1.2101366557640427
-0.42485937455562556
-0.0063577342136668545
-1.2101366557640427
-0.42485937455562556
-0.0063577342136668545
-1.2101366557640427
-0.42485937455562556
-0.0063577342136668545
-1.2101366557640427
-0.42522545573606596
-0.005917699649230383
-1.2104753135416364
-0.42522545573606596
-0.005917699649230383
-1.2104753135416364
-0.42522545573606596
-0.005917699649230383
-1.2104753135416364
-0.42522545573606596
-0.005917699649230383
-1.2104753135416364
-0.42563244975626374
-0.005328718412998783
-1.210601326093459
-0.42563244975626374
-0.005328718412998783
-1.210601326093459
-0.42563244975626374
-0.005328718412998783
-1.210601326093459
-0.42563244975626374
-0.005328718412998783
-1.210601326093459
-0.4260981034967781
-0.004490632329527372
-1.2108524577723119
-0.4260981034967781
-0.004490632329527372
-1.2108524577723119
-0.4260981034967781
-0.004490632329527372
-1.2108524577723119
-0.4260981034967781
-0.004490632329527372
-1.2108524577723119
-0.42577453179404745
-0.0036549769862517945
-1.2108600713388444
-0.42577453179404745
-0.0036549769862517945
-1.2108600713388444
-0.42577453179404745
-0.0036549769862517945
-1.2108600713388444
-0.42577453179404745
-0.0036549769862517945
-1.2108600713388444
-0.4250151648209676
-0.002984214574956094
-1.2108640300844182
-0.4250151648209676
-0.002984214574956094
-1.2108640300844182
-0.4250151648209676
-0.002984214574956094
-1.2108640300844182
-0.4250151648209676
-0.002984214574956094
-1.2108640300844182
-0.4252033401041347
-0.0025027184000918725
-1.2108650113885162
-0.4252033401041347
-0.0025027184000918725
-1.2108650113885162
-0.4252033401041347
-0.0025027184000918725
-1.2108650113885162
-0.4252033401041347
-0.0025027184000918725
-1.2108650113885162
-0.4255448018135097
-0.00191917664714926
-1.2105404322127766
-0.4255448018135097
-0.00191917664714926
-1.2105404322127766
-0.4255448018135097
-0.00191917664714926
-1.2105404322127766
-0.4255448018135097
-0.00191917664714926
-1.2105404322127766
-0.4262391986070595
-0.001289758382585276
-1.2102967978190597
-0.4262391986070595
-0.001289758382585276
-1.2102967978190597
-0.4262391986070595
-0.001289758382585276
-1.2102967978190597
-0.4262391986070595
-0.001289758382585276
-1.2102967978190597
-0.4260887974269235
-8.328062080006478E-4
-1.2101192791691338
-0.4260887974269235
-8.328062080006478E-4
-1.2101192791691338
-0.4260887974269235
-8.328062080006478E-4
-1.2101192791691338
-0.4260887974269235
-8.328062080006478E-4
-1.2101192791691338
-0.4250274579265128
-3.889502163685065E-4
-1.210073428983739
-0.4250274579265128
-3.889502163685065E-4
-1.210073428983739
-0.4250274579265128
-3.889502163685065E-4
-1.210073428983739
-0.4250274579265128
-3.889502163685065E-4
-1.210073428983739
-0.42512560216116063
-4.568153472585157E-4
-1.2100587621418226
-0.42512560216116063
-4.568153472585157E-4
-1.2100587621418226
-0.42512560216116063
-4.568153472585157E-4
-1.2100587621418226
-0.42512560216116063
-4.568153472585157E-4
-1.2100587621418226
-0.4259163291372317
-8.271783600444559E-4
-1.2099468108794422
-0.4259163291372317
-8.271783600444559E-4
-1.2099468108794422
-0.4259163291372317
-8.271783600444559E-4
-1.2099468108794422
-0.4259163291372317
-8.271783600444559E-4
-1.2099468108794422
-0.4260144705856778
-8.950254722091128E-4
-1.2099320938500824
-0.4260144705856778
-8.950254722091128E-4
-1.2099320938500824
-0.4260144705856778
-8.950254722091128E-4
-1.2099320938500824
-0.4260144705856778
-8.950254722091128E-4
-1.2099320938500824
-0.4264732886838358
-0.0013259072357739295
-1.2098068991569548
-0.4264732886838358
-0.0013259072357739295
-1.2098068991569548
-0.4264732886838358
-0.0013259072357739295
-1.2098068991569548
-0.4264732886838358
-0.0013259072357739295
-1.2098068991569548
-0.42715840763644214
-0.0012194459970952206
-1.2099005613316094
-0.42715840763644214
-0.0012194459970952206
-1.2099005613316094
-0.42715840763644214
-0.0012194459970952206
-1.2099005613316094
-0.42715840763644214
-0.0012194459970952206
-1.2099005613316094
-0.42782262398479687
-0.0012624451546039204
-1.2094087772049538
-0.42782262398479687
-0.0012624451546039204
-1.2094087772049538
-0.42782262398479687
-0.0012624451546039204
-1.2094087772049538
-0.42782262398479687
-0.0012624451546039204
-1.2094087772049538
-0.42815631374765234
-0.0011082835913745123
-1.2089917327979136
-0.42815631374765234
-0.0011082835913745123
-1.2089917327979136
-0.42815631374765234
-0.0011082835913745123
-1.2089917327979136
-0.42815631374765234
-0.0011082835913745123
-1.2089917327979136
-0.42815631374765234
-0.0011082835913745123
-1.2089917327979136
-0.42815631374765234
-0.0011082835913745123
-1.2089917327979136
-0.42815631374765234
-0.0011082835913745123
-1.2089917327979136
-0.42815631374765234
-0.0011082835913745123
-1.2089917327979136
-0.428075054167953
-0.001600367774682119
-1.208711035839236
-0.428075054167953
-0.001600367774682119
-1.208711035839236
-0.428075054167953
-0.001600367774682119
-1.208711035839236
-0.428075054167953
-0.001600367774682119
-1.208711035839236
-0.42859510544662144
-0.002362702257752646
-1.2085129047289977
-0.42859510544662144
-0.002362702257752646
-1.2085129047289977
-0.42859510544662144
-0.002362702257752646
-1.2085129047289977
-0.42859510544662144
-0.002362702257752646
-1.2085129047289977
-0.4294645024820503
-0.003623683437933633
-1.208031223492679
-0.4294645024820503
-0.003623683437933633
-1.208031223492679
-0.4294645024820503
-0.003623683437933633
-1.208031223492679
-0.4294645024820503
-0.003623683437933633
-1.208031223492679
-0.42941400175881744
-0.004747689643530897
-1.207786208236278
-0.42941400175881744
-0.004747689643530897
-1.207786208236278
-0.42941400175881744
-0.004747689643530897
-1.207786208236278
-0.42941400175881744
-0.004747689643530897
-1.207786208236278
-0.4289098371649236
-0.00594380758675842
-1.2079063278664965
-0.4289098371649236
-0.00594380758675842
-1.2079063278664965
-0.4289098371649236
-0.00594380758675842
-1.2079063278664965
-0.4289098371649236
-0.00594380758675842
-1.2079063278664965
-0.42910480140853846
-0.007477845797154232
-1.2080928611846278
-0.42910480140853846
-0.007477845797154232
-1.2080928611846278
-0.42910480140853846
-0.007477845797154232
-1.2080928611846278
-0.42910480140853846
-0.007477845797154232
-1.2080928611846278
-0.4294230010592467
-0.008742921365264193
-1.2079895496461226
-0.4294230010592467
-0.008742921365264193
-1.2079895496461226
-0.4294230010592467
-0.008742921365264193
-1.2079895496461226
-0.4294230010592467
-0.008742921365264193
-1.2079895496461226
-0.42954483974153657
-0.00987266758043166
-1.2079163707484575
-0.42954483974153657
-0.00987266758043166
-1.2079163707484575
-0.42954483974153657
-0.00987266758043166
-1.2079163707484575
-0.42954483974153657
-0.00987266758043166
-1.2079163707484575
-0.42994619925237204
-0.011018310495887232
-1.2077352094599634
-0.42994619925237204
-0.011018310495887232
-1.2077352094599634
-0.42994619925237204
-0.011018310495887232
-1.2077352094599634
-0.42994619925237204
-0.011018310495887232
-1.2077352094599634
-0.4296541848553672
-0.011862311801493051
-1.20765549335316
-0.4296541848553672
-0.011862311801493051
-1.20765549335316
-0.4296541848553672
-0.011862311801493051
-1.20765549335316
-0.4296541848553672
-0.011862311801493051
-1.20765549335316
-0.4293280417496831
-0.012167855803817382
-1.2079702257833516
-0.4293280417496831
-0.012167855803817382
-1.2079702257833516
-0.4293280417496831
-0.012167855803817382
-1.2079702257833516
-0.4293280417496831
-0.012167855803817382
-1.2079702257833516
-0.4293086571155633
-0.012074703202486785
-1.2083383255701365
-0.4293086571155633
-0.012074703202486785
-1.2083383255701365
-0.4293086571155633
-0.012074703202486785
-1.2083383255701365
-0.4293086571155633
-0.012074703202486785
-1.2083383255701365
-0.42977173294905924
-0.011702900367768809
-1.2086615136738676
-0.42977173294905924
-0.011702900367768809
-1.2086615136738676
-0.42977173294905924
-0.011702900367768809
-1.2086615136738676
-0.42977173294905924
-0.011702900367768809
-1.2086615136738676
-0.43050263264647654
-0.010566028559033455
-1.209427192464592
-0.43050263264647654
-0.010566028559033455
-1.209427192464592
-0.43050263264647654
-0.010566028559033455
-1.209427192464592
-0.43050263264647654
-0.010566028559033455
-1.209427192464592
-0.43178126651513515
-0.008939375357236413
-1.210440889486384
-0.43178126651513515
-0.008939375357236413
-1.210440889486384
-0.43178126651513515
-0.008939375357236413
-1.210440889486384
-0.43178126651513515
-0.008939375357236413
-1.210440889486384
-0.43314401472364167
-0.006356342202210132
-1.211667066761207
-0.43314401472364167
-0.006356342202210132
-1.211667066761207
-0.43314401472364167
-0.006356342202210132
-1.211667066761207
-0.43314401472364167
-0.006356342202210132
-1.211667066761207
-0.43451822670466417
-0.0025073543591964662
-1.2132792411761937
-0.43451822670466417
-0.0025073543591964662
-1.2132792411761937
-0.43451822670466417
-0.0025073543591964662
-1.2132792411761937
-0.43451822670466417
-0.0025073543591964662
-1.2132792411761937
-0.4351228567668033
0.0022182034842486973
-1.2155410457343052
-0.4351228567668033
0.0022182034842486973
-1.2155410457343052
-0.4351228567668033
0.0022182034842486973
-1.2155410457343052
-0.4351228567668033
0.0022182034842486973
-1.2155410457343052
-0.4353880313645406
0.007640903238747121
-1.2184409493272834
-0.4353880313645406
0.007640903238747121
-1.2184409493272834
-0.4353880313645406
0.007640903238747121
-1.2184409493272834
-0.4353880313645406
0.007640903238747121
-1.2184409493272834
-0.43566549417042344
0.01358508948463242
-1.221806118566962
-0.43566549417042344
0.01358508948463242
-1.221806118566962
-0.43566549417042344
0.01358508948463242
-1.221806118566962
-0.43566549417042344
0.01358508948463242
-1.221806118566962
-0.4361227690561065
0.01970874881417744
-1.2252865517301617
-0.4361227690561065
0.01970874881417744
-1.2252865517301617
-0.4361227690561065
0.01970874881417744
-1.2252865517301617
-0.4361227690561065
0.01970874881417744
-1.2252865517301617
-0.43723394790871817
0.02564397143537461
-1.2289115924105365
-0.43723394790871817
0.02564397143537461
-1.2289115924105365
-0.43723394790871817
0.02564397143537461
-1.2289115924105365
-0.43723394790871817
0.02564397143537461
-1.2289115924105365
-0.4392160973371308
0.03103887548546879
-1.2323771926753893
-0.4392160973371308
0.03103887548546879
-1.2323771926753893
-0.4392160973371308
0.03103887548546879
-1.2323771926753893
-0.4392160973371308
0.03103887548546879
-1.2323771926753893
-0.4395043271838446
0.0364706775431696
-1.235543006843444
-0.4395043271838446
0.0364706775431696
-1.235543006843444
-0.4395043271838446
0.0364706775431696
-1.235543006843444
-0.4395043271838446
0.0364706775431696
-1.235543006843444
-0.4380399248018977
0.04166123665758307
-1.2384322729713808
-0.4380399248018977
0.04166123665758307
-1.2384322729713808
-0.4380399248018977
0.04166123665758307
-1.2384322729713808
-0.4380399248018977
0.04166123665758307
-1.2384322729713808
-0.43861397569537036
0.047299697495976824
-1.2412712226550002
-0.43861397569537036
0.047299697495976824
-1.2412712226550002
-0.43861397569537036
0.047299697495976824
-1.2412712226550002
-0.43861397569537036
0.047299697495976824
-1.2412712226550002
-0.4397457636575601
0.052932800223316895
-1.2437498181146847
-0.4397457636575601
0.052932800223316895
-1.2437498181146847
-0.4397457636575601
0.052932800223316895
-1.2437498181146847
-0.4397457636575601
0.052932800223316895
-1.2437498181146847
-0.4379189890938061
0.057633362081237705
-1.2461283601950934
-0.4379189890938061
0.057633362081237705
-1.2461283601950934
-0.4379189890938061
0.057633362081237705
-1.2461283601950934
-0.4379189890938061
0.057633362081237705
-1.2461283601950934
-0.43819585956236706
0.06141868289187567
-1.2493796652759817
-0.43819585956236706
0.06141868289187567
-1.2493796652759817
-0.43819585956236706
0.06141868289187567
-1.2493796652759817
-0.43819585956236706
0.06141868289187567
-1.2493796652759817
-0.4419222835990354
0.06393312783531911
-1.2528713481468898
-0.4419222835990354
0.06393312783531911
-1.2528713481468898
-0.4419222835990354
0.06393312783531911
-1.2528713481468898
-0.4419222835990354
0.06393312783531911
-1.2528713481468898
-0.44111993897395746
0.0649875307206683
-1.2558893281097814
-0.44111993897395746
0.0649875307206683
-1.2558893281097814
-0.44111993897395746
0.0649875307206683
-1.2558893281097814
-0.44111993897395746
0.0649875307206683
-1.2558893281097814
-0.4429660443705625
0.06328611693619739
-1.2583920743994463
-0.4429660443705625
0.06328611693619739
-1.2583920743994463
-0.4429660443705625
0.06328611693619739
-1.2583920743994463
-0.4429660443705625
0.06328611693619739
-1.2583920743994463
-0.44410355233885096
0.06043317242845653
-1.263039524246554
-0.44410355233885096
0.06043317242845653
-1.263039524246554
-0.44410355233885096
0.06043317242845653
-1.263039524246554
-0.44410355233885096
0.06043317242845653
-1.263039524246554
-0.4440779201159744
0.056219446439144595
-1.2669468611693548
-0.4440779201159744
0.056219446439144595
-1.2669468611693548
-0.4440779201159744
0.056219446439144595
-1.2669468611693548
-0.4440779201159744
0.056219446439144595
-1.2669468611693548
-0.4440025602396423
0.05352499997972212
-1.2696678625566424
-0.4440025602396423
0.05352499997972212
-1.2696678625566424
-0.4440025602396423
0.05352499997972212
-1.2696678625566424
-0.4440025602396423
0.05352499997972212
-1.2696678625566424
-0.4497633062995777
0.049698560473120525
-1.2700132366984611
-0.4497633062995777
0.049698560473120525
-1.2700132366984611
-0.4497633062995777
0.049698560473120525
-1.2700132366984611
-0.4497633062995777
0.049698560473120525
-1.2700132366984611
-0.4559424777488148
0.042347829030244845
-1.2699805947792835
-0.4559424777488148
0.042347829030244845
-1.2699805947792835
-0.4559424777488148
0.042347829030244845
-1.2699805947792835
-0.4559424777488148
0.042347829030244845
-1.2699805947792835
-0.46242599164552384
0.03306500426462826
-1.270679849403715
-0.46242599164552384
0.03306500426462826
-1.270679849403715
-0.46242599164552384
0.03306500426462826
-1.270679849403715
-0.46242599164552384
0.03306500426462826
-1.270679849403715
-0.46438424790635563
0.023188455727552116
-1.2720127854989285
-0.46438424790635563
0.023188455727552116
-1.2720127854989285
-0.46438424790635563
0.023188455727552116
-1.2720127854989285
-0.46438424790635563
0.023188455727552116
-1.2720127854989285
-0.4613845183573722
0.012949556865863828
-1.2731906569867346
-0.4613845183573722
0.012949556865863828
-1.2731906569867346
-0.4613845183573722
0.012949556865863828
-1.2731906569867346
-0.4613845183573722
0.012949556865863828
-1.2731906569867346
-0.4547788702363924
0.0023811672085431636
-1.2738959752086432
-0.4547788702363924
0.0023811672085431636
-1.2738959752086432
-0.4547788702363924
0.0023811672085431636
-1.2738959752086432
-0.4547788702363924
0.0023811672085431636
-1.2738959752086432
-0.4475552998711221
-0.006091858274725226
-1.2737223279448056
-0.4475552998711221
-0.006091858274725226
-1.2737223279448056
-0.4475552998711221
-0.006091858274725226
-1.2737223279448056
-0.4475552998711221
-0.006091858274725226
-1.2737223279448056
-0.4452785868439173
-0.012397598893335313
-1.2739820179399515
-0.4452785868439173
-0.012397598893335313
-1.2739820179399515
-0.4452785868439173
-0.012397598893335313
-1.2739820179399515
-0.4452785868439173
-0.012397598893335313
-1.2739820179399515
-0.4487751036375138
-0.016818217449379266
-1.2744489343842171
-0.4487751036375138
-0.016818217449379266
-1.2744489343842171
-0.4487751036375138
-0.016818217449379266
-1.2744489343842171
-0.4487751036375138
-0.016818217449379266
-1.2744489343842171
-0.4531054395962743
-0.02098759995219605
-1.273920902808076
-0.4531054395962743
-0.02098759995219605
-1.273920902808076
-0.4531054395962743
-0.02098759995219605
-1.273920902808076
-0.4531054395962743
-0.02098759995219605
-1.273920902808076
-0.45333069116105346
-0.02312266279416087
-1.2724231600347216
-0.45333069116105346
-0.02312266279416087
-1.2724231600347216
-0.45333069116105346
-0.02312266279416087
-1.2724231600347216
-0.45333069116105346
-0.02312266279416087
-1.2724231600347216
-0.451066659664545
-0.023515859222055152
-1.2719123892997368
-0.451066659664545
-0.023515859222055152
-1.2719123892997368
-0.451066659664545
-0.023515859222055152
-1.2719123892997368
-0.451066659664545
-0.023515859222055152
-1.2719123892997368
-0.4517274111296091
-0.02292245111183005
-1.2732672555370614
-0.4517274111296091
-0.02292245111183005
-1.2732672555370614
-0.4517274111296091
-0.02292245111183005
-1.2732672555370614
-0.4517274111296091
-0.02292245111183005
-1.2732672555370614
-0.45040935825301237
-0.021088370760493386
-1.2742059047071466
-0.45040935825301237
-0.021088370760493386
-1.2742059047071466
-0.45040935825301237
-0.021088370760493386
-1.2742059047071466
-0.45040935825301237
-0.021088370760493386
-1.2742059047071466
-0.44585506908242023
-0.019059096579789436
-1.2733435959689605
-0.44585506908242023
-0.019059096579789436
-1.2733435959689605
-0.44585506908242023
-0.019059096579789436
-1.2733435959689605
-0.44585506908242023
-0.019059096579789436
-1.2733435959689605
-0.442872833210812
-0.01662534218087193
-1.2716972917251472
-0.442872833210812
-0.01662534218087193
-1.2716972917251472
-0.442872833210812
-0.01662534218087193
-1.2716972917251472
-0.442872833210812
-0.01662534218087193
-1.2716972917251472
-0.44295020087581327
-0.013590316293734974
-1.2697768896794392
-0.44295020087581327
-0.013590316293734974
-1.2697768896794392
-0.44295020087581327
-0.013590316293734974
-1.2697768896794392
-0.44295020087581327
-0.013590316293734974
-1.2697768896794392
-0.44369103363107615
-0.009932542903637499
-1.2683433224467655
-0.44369103363107615
-0.009932542903637499
-1.2683433224467655
-0.44369103363107615
-0.009932542903637499
-1.2683433224467655
-0.44369103363107615
-0.009932542903637499
-1.2683433224467655
-0.4436145001293363
-0.005120388911142795
-1.2672020397524597
-0.4436145001293363
-0.005120388911142795
-1.2672020397524597
-0.4436145001293363
-0.005120388911142795
-1.2672020397524597
-0.4436145001293363
-0.005120388911142795
-1.2672020397524597
-0.441612972517798
1.653035723206261E-4
-1.2654204367330495
-0.441612972517798
1.653035723206261E-4
-1.2654204367330495
-0.441612972517798
1.653035723206261E-4
-1.2654204367330495
-0.441612972517798
1.653035723206261E-4
-1.2654204367330495
-0.4400242501223562
0.0053832570340358685
-1.2618128258570547
-0.4400242501223562
0.0053832570340358685
-1.2618128258570547
-0.4400242501223562
0.0053832570340358685
-1.2618128258570547
-0.4400242501223562
0.0053832570340358685
-1.2618128258570547
-0.43892995760747167
0.01038367207274365
-1.2574996008247443
-0.43892995760747167
0.01038367207274365
-1.2574996008247443
-0.43892995760747167
0.01038367207274365
-1.2574996008247443
-0.43892995760747167
0.01038367207274365
-1.2574996008247443
-0.4394576335107134
0.01555393803889642
-1.254776247300116
-0.4394576335107134
0.01555393803889642
-1.254776247300116
-0.4394576335107134
0.01555393803889642
-1.254776247300116
-0.4394576335107134
0.01555393803889642
-1.254776247300116
-0.4416321014188598
0.020518068970039337
-1.2545730734111407
-0.4416321014188598
0.020518068970039337
-1.2545730734111407
-0.4416321014188598
0.020518068970039337
-1.2545730734111407
-0.4416321014188598
0.020518068970039337
-1.2545730734111407
-0.4432850885045156
0.02523807269227391
-1.2566463615121504
-0.4432850885045156
0.02523807269227391
-1.2566463615121504
-0.4432850885045156
0.02523807269227391
-1.2566463615121504
-0.4432850885045156
0.02523807269227391
-1.2566463615121504
-0.44301804986059695
0.029352613976209967
-1.2556927755360507
-0.44301804986059695
0.029352613976209967
-1.2556927755360507
-0.44301804986059695
0.029352613976209967
-1.2556927755360507
-0.44301804986059695
0.029352613976209967
-1.2556927755360507
-0.44300513792892926
0.032813072446868645
-1.251889692382131
-0.44300513792892926
0.032813072446868645
-1.251889692382131
-0.44300513792892926
0.032813072446868645
-1.251889692382131
-0.44300513792892926
0.032813072446868645
-1.251889692382131
-0.44126176030096603
0.035050583962707396
-1.2486663884488753
-0.44126176030096603
0.035050583962707396
-1.2486663884488753
-0.44126176030096603
0.035050583962707396
-1.2486663884488753
-0.44126176030096603
0.035050583962707396
-1.2486663884488753
-0.43917660916933665
0.03591034937405994
-1.248078264255955
-0.43917660916933665
0.03591034937405994
-1.248078264255955
-0.43917660916933665
0.03591034937405994
-1.248078264255955
-0.43917660916933665
0.03591034937405994
-1.248078264255955
-0.4356019240662024
0.03570638998506306
-1.2479368772509238
-0.4356019240662024
0.03570638998506306
-1.2479368772509238
-0.4356019240662024
0.03570638998506306
-1.2479368772509238
-0.4356019240662024
0.03570638998506306
-1.2479368772509238
-0.43484012018008933
0.03530382097581518
-1.2451592945017875
-0.43484012018008933
0.03530382097581518
-1.2451592945017875
-0.43484012018008933
0.03530382097581518
-1.2451592945017875
-0.43484012018008933
0.03530382097581518
-1.2451592945017875
-0.43879696254761946
0.03272656182956809
-1.2424608734492657
-0.43879696254761946
0.03272656182956809
-1.2424608734492657
-0.43879696254761946
0.03272656182956809
-1.2424608734492657
-0.43879696254761946
0.03272656182956809
-1.2424608734492657
-0.4391065302117947
0.030133238673958014
-1.2363031103955053
-0.4391065302117947
0.030133238673958014
-1.2363031103955053
-0.4391065302117947
0.030133238673958014
-1.2363031103955053
-0.4391065302117947
0.030133238673958014
-1.2363031103955053
-0.4320137248276428
0.025132178295275004
-1.2291170965476066
-0.4320137248276428
0.025132178295275004
-1.2291170965476066
-0.4320137248276428
0.025132178295275004
-1.2291170965476066
-0.4320137248276428
0.025132178295275004
-1.2291170965476066
-0.4138916163378177
0.016679324726247956
-1.2274268139230498
-0.4138916163378177
0.016679324726247956
-1.2274268139230498
-0.4138916163378177
0.016679324726247956
-1.2274268139230498
-0.4138916163378177
0.016679324726247956
-1.2274268139230498
-0.39488453384534294
0.01114915138414541
-1.22730275443308
-0.39488453384534294
0.01114915138414541
-1.22730275443308
-0.39488453384534294
0.01114915138414541
-1.22730275443308
-0.39488453384534294
0.01114915138414541
-1.22730275443308
-0.40283768324455504
0.004476829632616595
-1.2221210804150264
-0.40283768324455504
0.004476829632616595
-1.2221210804150264
-0.40283768324455504
0.004476829632616595
-1.2221210804150264
-0.40283768324455504
0.004476829632616595
-1.2221210804150264
-0.41898303824656324
-0.005862731599137793
-1.2175779163525295
-0.41898303824656324
-0.005862731599137793
-1.2175779163525295
-0.41898303824656324
-0.005862731599137793
-1.2175779163525295
-0.41898303824656324
-0.005862731599137793
-1.2175779163525295
-0.4289734400067174
-0.016260486943000953
-1.2145321304737475
-0.4289734400067174
-0.016260486943000953
-1.2145321304737475
-0.4289734400067174
-0.016260486943000953
-1.2145321304737475
-0.4289734400067174
-0.016260486943000953
-1.2145321304737475
-0.42367746024484204
-0.021916114544681623
-1.212196273994487
-0.42367746024484204
-0.021916114544681623
-1.212196273994487
-0.42367746024484204
-0.021916114544681623
-1.212196273994487
-0.42367746024484204
-0.021916114544681623
-1.212196273994487
-0.4146079160720726
-0.02399584695476515
-1.2109575471898184
-0.4146079160720726
-0.02399584695476515
-1.2109575471898184
-0.4146079160720726
-0.02399584695476515
-1.2109575471898184
-0.4146079160720726
-0.02399584695476515
-1.2109575471898184
-0.4118126853666583
-0.025846344788925543
-1.2109753366010438
-0.4118126853666583
-0.025846344788925543
-1.2109753366010438
-0.4118126853666583
-0.025846344788925543
-1.2109753366010438
-0.4118126853666583
-0.025846344788925543
-1.2109753366010438
-0.414899686562519
-0.026617191434031937
-1.2095738796493687
-0.414899686562519
-0.026617191434031937
-1.2095738796493687
-0.414899686562519
-0.026617191434031937
-1.2095738796493687
-0.414899686562519
-0.026617191434031937
-1.2095738796493687
-0.41583217639891823
-0.026198894767581
-1.2088208867084134
-0.41583217639891823
-0.026198894767581
-1.2088208867084134
-0.41583217639891823
-0.026198894767581
-1.2088208867084134
-0.41583217639891823
-0.026198894767581
-1.2088208867084134
-0.4163299162195746
-0.024415401858557596
-1.2101616025945396
-0.4163299162195746
-0.024415401858557596
-1.2101616025945396
-0.4163299162195746
-0.024415401858557596
-1.2101616025945396
-0.4163299162195746
-0.024415401858557596
-1.2101616025945396
-0.4183148004985823
-0.02124299327625458
-1.2129655586042043
-0.4183148004985823
-0.02124299327625458
-1.2129655586042043
-0.4183148004985823
-0.02124299327625458
-1.2129655586042043
-0.4183148004985823
-0.02124299327625458
-1.2129655586042043
-0.41836269821396316
-0.01764267853502729
-1.2150790008382761
-0.41836269821396316
-0.01764267853502729
-1.2150790008382761
-0.41836269821396316
-0.01764267853502729
-1.2150790008382761
-0.41836269821396316
-0.01764267853502729
-1.2150790008382761
-0.41781201218678593
-0.01516220927633855
-1.215191040369426
-0.41781201218678593
-0.01516220927633855
-1.215191040369426
-0.41781201218678593
-0.01516220927633855
-1.215191040369426
-0.41781201218678593
-0.01516220927633855
-1.215191040369426
-0.41883522894369224
-0.013984851944726196
-1.2155759994415307
-0.41883522894369224
-0.013984851944726196
-1.2155759994415307
-0.41883522894369224
-0.013984851944726196
-1.2155759994415307
-0.41883522894369224
-0.013984851944726196
-1.2155759994415307
-0.4200878025322863
-0.012644172384200889
-1.2158217461481566
-0.4200878025322863
-0.012644172384200889
-1.2158217461481566
-0.4200878025322863
-0.012644172384200889
-1.2158217461481566
-0.4200878025322863
-0.012644172384200889
-1.2158217461481566
-0.41949352097454984
-0.010778394125546641
-1.2162228694423192
-0.41949352097454984
-0.010778394125546641
-1.2162228694423192
-0.41949352097454984
-0.010778394125546641
-1.2162228694423192
-0.41949352097454984
-0.010778394125546641
-1.2162228694423192
-0.4197170095045416
-0.009157470901834787
-1.2163930903149964
-0.4197170095045416
-0.009157470901834787
-1.2163930903149964
-0.4197170095045416
-0.009157470901834787
-1.2163930903149964
-0.4197170095045416
-0.009157470901834787
-1.2163930903149964
-0.42005103572295877
-0.008050134178570388
-1.2165251830529573
-0.42005103572295877
-0.008050134178570388
-1.2165251830529573
-0.42005103572295877
-0.008050134178570388
-1.2165251830529573
-0.42005103572295877
-0.008050134178570388
-1.2165251830529573
-0.4191366528414272
-0.007350964133376996
-1.216258806473793
-0.4191366528414272
-0.007350964133376996
-1.216258806473793
-0.4191366528414272
-0.007350964133376996
-1.216258806473793
-0.4191366528414272
-0.007350964133376996
-1.216258806473793
-0.4188717493354464
-0.006345555137382773
-1.2159522815507513
-0.4188717493354464
-0.006345555137382773
-1.2159522815507513
-0.4188717493354464
-0.006345555137382773
-1.2159522815507513
-0.4188717493354464
-0.006345555137382773
-1.2159522815507513
-0.4187792363312369
-0.005720126956282594
-1.215461892737902
-0.4187792363312369
-0.005720126956282594
-1.215461892737902
-0.4187792363312369
-0.005720126956282594
-1.215461892737902
-0.4187792363312369
-0.005720126956282594
-1.215461892737902
-0.41991948167317283
-0.005920711826273831
-1.2148323042808764
-0.41991948167317283
-0.005920711826273831
-1.2148323042808764
-0.41991948167317283
-0.005920711826273831
-1.2148323042808764
-0.41991948167317283
-0.005920711826273831
-1.2148323042808764
-0.4201187003574161
-0.005965133913698087
-1.2143722881219128
-0.4201187003574161
-0.005965133913698087
-1.2143722881219128
-0.4201187003574161
-0.005965133913698087
-1.2143722881219128
-0.4201187003574161
-0.005965133913698087
-1.2143722881219128
-0.42023265654900926
-0.006386636664424511
-1.2139033671544672
-0.42023265654900926
-0.006386636664424511
-1.2139033671544672
-0.42023265654900926
-0.006386636664424511
-1.2139033671544672
-0.42023265654900926
-0.006386636664424511
-1.2139033671544672
-0.420656476115559
-0.007198934482813041
-1.213452313537304
-0.420656476115559
-0.007198934482813041
-1.213452313537304
-0.420656476115559
-0.007198934482813041
-1.213452313537304
-0.420656476115559
-0.007198934482813041
-1.213452313537304
-0.421193723897077
-0.008058261334788689
-1.2128878551068412
-0.421193723897077
-0.008058261334788689
-1.2128878551068412
-0.421193723897077
-0.008058261334788689
-1.2128878551068412
-0.421193723897077
-0.008058261334788689
-1.2128878551068412
-0.4213802808413455
-0.008496829868443096
-1.2121695434615432
-0.4213802808413455
-0.008496829868443096
-1.2121695434615432
-0.4213802808413455
-0.008496829868443096
-1.2121695434615432
-0.4213802808413455
-0.008496829868443096
-1.2121695434615432
-0.4220655562042978
-0.009230639094277121
-1.2119779671485242
-0.4220655562042978
-0.009230639094277121
-1.2119779671485242
-0.4220655562042978
-0.009230639094277121
-1.2119779671485242
-0.4220655562042978
-0.009230639094277121
-1.2119779671485242
-0.42272633046750774
-0.009834072699986821
-1.2119877243474655
-0.42272633046750774
-0.009834072699986821
-1.2119877243474655
-0.42272633046750774
-0.009834072699986821
-1.2119877243474655
-0.42272633046750774
-0.009834072699986821
-1.2119877243474655
-0.42328335112494225
-0.010333839521442395
-1.2118461504553069
-0.42328335112494225
-0.010333839521442395
-1.2118461504553069
-0.42328335112494225
-0.010333839521442395
-1.2118461504553069
-0.42328335112494225
-0.010333839521442395
-1.2118461504553069
-0.42476718022948995
-0.011215873257618362
-1.2117903910017753
-0.42476718022948995
-0.011215873257618362
-1.2117903910017753
-0.42476718022948995
-0.011215873257618362
-1.2117903910017753
-0.42476718022948995
-0.011215873257618362
-1.2117903910017753
-0.42542809646052326
-0.011819314174555524
-1.2117986708204906
-0.42542809646052326
-0.011819314174555524
-1.2117986708204906
-0.42542809646052326
-0.011819314174555524
-1.2117986708204906
-0.42542809646052326
-0.011819314174555524
-1.2117986708204906
-0.4265621788447389
-0.012201933370005198
-1.212025154200163
-0.4265621788447389
-0.012201933370005198
-1.212025154200163
-0.4265621788447389
-0.012201933370005198
-1.212025154200163
-0.4265621788447389
-0.012201933370005198
-1.212025154200163
-0.4272435064273165
-0.013028499029853565
-1.2122604932145458
-0.4272435064273165
-0.013028499029853565
-1.2122604932145458
-0.4272435064273165
-0.013028499029853565
-1.2122604932145458
-0.4272435064273165
-0.013028499029853565
-1.2122604932145458
-0.4284665064319715
-0.014375714296206476
-1.212449433893333
-0.4284665064319715
-0.014375714296206476
-1.212449433893333
-0.4284665064319715
-0.014375714296206476
-1.212449433893333
-0.4284665064319715
-0.014375714296206476
-1.212449433893333
-0.4291706208861607
-0.015798552027869776
-1.2125531934403702
-0.4291706208861607
-0.015798552027869776
-1.2125531934403702
-0.4291706208861607
-0.015798552027869776
-1.2125531934403702
-0.4291706208861607
-0.015798552027869776
-1.2125531934403702
-0.42938638143245744
-0.017462771310888418
-1.2125363432019038
-0.42938638143245744
-0.017462771310888418
-1.2125363432019038
-0.42938638143245744
-0.017462771310888418
-1.2125363432019038
-0.42938638143245744
-0.017462771310888418
-1.2125363432019038
-0.42954838674738477
-0.018365238778346404
-1.2126858533369025
-0.42954838674738477
-0.018365238778346404
-1.2126858533369025
-0.42954838674738477
-0.018365238778346404
-1.2126858533369025
-0.42954838674738477
-0.018365238778346404
-1.2126858533369025
-0.43007249856314805
