-0.6007340504379887
0.0749213925386299
-1.06019165635172
-0.6007340504379887
0.0749213925386299
-1.06019165635172
-0.6030811997862926
0.07572844426813131
-1.0599518399920902
-0.6030811997862926
0.07572844426813131
-1.0599518399920902
-0.6030811997862926
0.07572844426813131
-1.0599518399920902
-0.6030811997862926
0.07572844426813131
-1.0599518399920902
-0.6043920208907171
0.07645550191717349
-1.0593918640824218
-0.6043920208907171
0.07645550191717349
-1.0593918640824218
-0.6043920208907171
0.07645550191717349
-1.0593918640824218
-0.6043920208907171
0.07645550191717349
-1.0593918640824218
-0.6044981055952434
0.07727143804971742
-1.0589685212269553
-0.6044981055952434
0.07727143804971742
-1.0589685212269553
-0.6044981055952434
0.07727143804971742
-1.0589685212269553
-0.6044981055952434
0.07727143804971742
-1.0589685212269553
-0.6041638350298127
0.07811592009856078
-1.0583607767751213
-0.6041638350298127
0.07811592009856078
-1.0583607767751213
-0.6041638350298127
0.07811592009856078
-1.0583607767751213
-0.6041638350298127
0.07811592009856078
-1.0583607767751213
-0.6040557040745475
0.07895446467131399
-1.057697443926559
-0.6040557040745475
0.07895446467131399
-1.057697443926559
-0.6040557040745475
0.07895446467131399
-1.057697443926559
-0.6040557040745475
0.07895446467131399
-1.057697443926559
-0.6044609833723973
0.07959055895989477
-1.057230923275231
-0.6044609833723973
0.07959055895989477
-1.057230923275231
-0.6044609833723973
0.07959055895989477
-1.057230923275231
-0.6044609833723973
0.07959055895989477
-1.057230923275231
-0.6047846490298934
0.07993115168086531
-1.0570175903670367
-0.6047846490298934
0.07993115168086531
-1.0570175903670367
-0.6047846490298934
0.07993115168086531
-1.0570175903670367
-0.6047846490298934
0.07993115168086531
-1.0570175903670367
-0.6049489413048026
0.08016822835550527
-1.0564160564464529
-0.6049489413048026
0.08016822835550527
-1.0564160564464529
-0.6049489413048026
0.08016822835550527
-1.0564160564464529
-0.6049489413048026
0.08016822835550527
-1.0564160564464529
-0.6047095590660495
0.08038410312602984
-1.0561240997956054
-0.6047095590660495
0.08038410312602984
-1.0561240997956054
-0.6047095590660495
0.08038410312602984
-1.0561240997956054
-0.6047095590660495
0.08038410312602984
-1.0561240997956054
-0.6046093910809922
0.08044403583603589
-1.0561383986392352
-0.6046093910809922
0.08044403583603589
-1.0561383986392352
-0.6046093910809922
0.08044403583603589
-1.0561383986392352
-0.6046093910809922
0.08044403583603589
-1.0561383986392352
-0.6049251988017681
0.08091318146563804
-1.0558387816408905
-0.6049251988017681
0.08091318146563804
-1.0558387816408905
-0.6049251988017681
0.08091318146563804
-1.0558387816408905
-0.6049251988017681
0.08091318146563804
-1.0558387816408905
-0.6058576342230054
0.08107395211255027
-1.0555481227984123
-0.6058576342230054
0.08107395211255027
-1.0555481227984123
-0.6058576342230054
0.08107395211255027
-1.0555481227984123
-0.6058576342230054
0.08107395211255027
-1.0555481227984123
-0.6067361266283431
0.08098973407779793
-1.0551152571477997
-0.6067361266283431
0.08098973407779793
-1.0551152571477997
-0.6067361266283431
0.08098973407779793
-1.0551152571477997
-0.6067361266283431
0.08098973407779793
-1.0551152571477997
-0.6050671917499645
0.08116987606868693
-1.0542737001832838
-0.6050671917499645
0.08116987606868693
-1.0542737001832838
-0.6050671917499645
0.08116987606868693
-1.0542737001832838
-0.6050671917499645
0.08116987606868693
-1.0542737001832838
-0.6030097858013292
0.08160412270078544
-1.053193885371695
-0.6030097858013292
0.08160412270078544
-1.053193885371695
-0.6030097858013292
0.08160412270078544
-1.053193885371695
-0.6030097858013292
0.08160412270078544
-1.053193885371695
-0.6027052597221179
0.08142909799453898
-1.0523172323030594
-0.6027052597221179
0.08142909799453898
-1.0523172323030594
-0.6027052597221179
0.08142909799453898
-1.0523172323030594
-0.6027052597221179
0.08142909799453898
-1.0523172323030594
-0.6035240374663834
0.08093810333160305
-1.051929271687048
-0.6035240374663834
0.08093810333160305
-1.051929271687048
-0.6035240374663834
0.08093810333160305
-1.051929271687048
-0.6035240374663834
0.08093810333160305
-1.051929271687048
-0.6036842788035358
0.08097834520184792
-1.0519489358311853
-0.6036842788035358
0.08097834520184792
-1.0519489358311853
-0.6036842788035358
0.08097834520184792
-1.0519489358311853
-0.6036842788035358
0.08097834520184792
-1.0519489358311853
-0.6030215343465073
0.08060435452433888
-1.051963061069072
-0.6030215343465073
0.08060435452433888
-1.051963061069072
-0.6030215343465073
0.08060435452433888
-1.051963061069072
-0.6030215343465073
0.08060435452433888
-1.051963061069072
-0.6024470713763375
0.08039767464582481
-1.0518105256975068
-0.6024470713763375
0.08039767464582481
-1.0518105256975068
-0.6024470713763375
0.08039767464582481
-1.0518105256975068
-0.6024470713763375
0.08039767464582481
-1.0518105256975068
-0.6029629932451042
0.07982518027182392
-1.0517178279641486
-0.6029629932451042
0.07982518027182392
-1.0517178279641486
-0.6029629932451042
0.07982518027182392
-1.0517178279641486
-0.6029629932451042
0.07982518027182392
-1.0517178279641486
-0.6042472817613043
0.07917790152500034
-1.051934897260251
-0.6042472817613043
0.07917790152500034
-1.051934897260251
-0.6042472817613043
0.07917790152500034
-1.051934897260251
-0.6042472817613043
0.07917790152500034
-1.051934897260251
-0.6061993728935717
0.07882238883767513
-1.052397199671899
-0.6061993728935717
0.07882238883767513
-1.052397199671899
-0.6061993728935717
0.07882238883767513
-1.052397199671899
-0.6061993728935717
0.07882238883767513
-1.052397199671899
-0.6080170757009249
0.0785400840271745
-1.0528133379233047
-0.6080170757009249
0.0785400840271745
-1.0528133379233047
-0.6080170757009249
0.0785400840271745
-1.0528133379233047
-0.6080170757009249
0.0785400840271745
-1.0528133379233047
-0.6085508279028048
0.07829012710082854
-1.053169621894034
-0.6085508279028048
0.07829012710082854
-1.053169621894034
-0.6085508279028048
0.07829012710082854
-1.053169621894034
-0.6085508279028048
0.07829012710082854
-1.053169621894034
-0.6083812762964934
0.07813391391687607
-1.0535106077340266
-0.6083812762964934
0.07813391391687607
-1.0535106077340266
-0.6083812762964934
0.07813391391687607
-1.0535106077340266
-0.6083812762964934
0.07813391391687607
-1.0535106077340266
-0.6081114950085906
0.07803751853648716
-1.0538660940668423
-0.6081114950085906
0.07803751853648716
-1.0538660940668423
-0.6081114950085906
0.07803751853648716
-1.0538660940668423
-0.6081114950085906
0.07803751853648716
-1.0538660940668423
-0.6081969325450457
0.07763610587878814
-1.0540295086437894
-0.6081969325450457
0.07763610587878814
-1.0540295086437894
-0.6081969325450457
0.07763610587878814
-1.0540295086437894
-0.6081969325450457
0.07763610587878814
-1.0540295086437894
-0.6083773222652875
0.07694926179135439
-1.0539957627989915
-0.6083773222652875
0.07694926179135439
-1.0539957627989915
-0.6083773222652875
0.07694926179135439
-1.0539957627989915
-0.6083773222652875
0.07694926179135439
-1.0539957627989915
-0.609201265695842
0.07637626952975414
-1.0538648982587648
-0.609201265695842
0.07637626952975414
-1.0538648982587648
-0.609201265695842
0.07637626952975414
-1.0538648982587648
-0.609201265695842
0.07637626952975414
-1.0538648982587648
-0.6089128461048152
0.0756495496659292
-1.0538470116884722
-0.6089128461048152
0.0756495496659292
-1.0538470116884722
-0.6089128461048152
0.0756495496659292
-1.0538470116884722
-0.6089128461048152
0.0756495496659292
-1.0538470116884722
-0.6079360024704314
0.07505074171777723
-1.05371503352542
-0.6079360024704314
0.07505074171777723
-1.05371503352542
-0.6079360024704314
0.07505074171777723
-1.05371503352542
-0.6079360024704314
0.07505074171777723
-1.05371503352542
-0.6068786051561296
0.07477111424591487
-1.0536804508389281
-0.6068786051561296
0.07477111424591487
-1.0536804508389281
-0.6068786051561296
0.07477111424591487
-1.0536804508389281
-0.6068786051561296
0.07477111424591487
-1.0536804508389281
-0.6063645154401353
0.07466495516239016
-1.0535630383594663
-0.6063645154401353
0.07466495516239016
-1.0535630383594663
-0.6063645154401353
0.07466495516239016
-1.0535630383594663
-0.6063645154401353
0.07466495516239016
-1.0535630383594663
-0.6064260976884652
0.07439386257252362
-1.0533062186798792
-0.6064260976884652
0.07439386257252362
-1.0533062186798792
-0.6064260976884652
0.07439386257252362
-1.0533062186798792
-0.6064260976884652
0.07439386257252362
-1.0533062186798792
-0.606562190135287
0.07425643747643301
-1.0529829152356023
-0.606562190135287
0.07425643747643301
-1.0529829152356023
-0.606562190135287
0.07425643747643301
-1.0529829152356023
-0.606562190135287
0.07425643747643301
-1.0529829152356023
-0.6069371082884838
0.07390322611419906
-1.052950488004342
-0.6069371082884838
0.07390322611419906
-1.052950488004342
-0.6069371082884838
0.07390322611419906
-1.052950488004342
-0.6069371082884838
0.07390322611419906
-1.052950488004342
-0.6067518740823374
0.07340578220599972
-1.0534700685572036
-0.6067518740823374
0.07340578220599972
-1.0534700685572036
-0.6067518740823374
0.07340578220599972
-1.0534700685572036
-0.6067518740823374
0.07340578220599972
-1.0534700685572036
-0.6064808548088703
0.07300176663448421
-1.0539041770404207
-0.6064808548088703
0.07300176663448421
-1.0539041770404207
-0.6064808548088703
0.07300176663448421
-1.0539041770404207
-0.6064808548088703
0.07300176663448421
-1.0539041770404207
-0.6066300494798158
0.07261859813588989
-1.0543616752834548
-0.6066300494798158
0.07261859813588989
-1.0543616752834548
-0.6066300494798158
0.07261859813588989
-1.0543616752834548
-0.6066300494798158
0.07261859813588989
-1.0543616752834548
-0.6076335827067113
0.07234506336251714
-1.054330763253653
-0.6076335827067113
0.07234506336251714
-1.054330763253653
-0.6076335827067113
0.07234506336251714
-1.054330763253653
-0.6076335827067113
0.07234506336251714
-1.054330763253653
-0.609299729703037
0.07213673138276043
-1.0543612694525473
-0.609299729703037
0.07213673138276043
-1.0543612694525473
-0.609299729703037
0.07213673138276043
-1.0543612694525473
-0.609299729703037
0.07213673138276043
-1.0543612694525473
-0.6100477457862687
0.07210840074188786
-1.0545083240279336
-0.6100477457862687
0.07210840074188786
-1.0545083240279336
-0.6100477457862687
0.07210840074188786
-1.0545083240279336
-0.6100477457862687
0.07210840074188786
-1.0545083240279336
-0.609299729703037
0.07213673138276043
-1.0543612694525473
-0.609299729703037
0.07213673138276043
-1.0543612694525473
-0.609299729703037
0.07213673138276043
-1.0543612694525473
-0.609299729703037
0.07213673138276043
-1.0543612694525473
-0.6074502891325468
0.07243520587861792
-1.053891464005409
-0.6074502891325468
0.07243520587861792
-1.053891464005409
-0.6074502891325468
0.07243520587861792
-1.053891464005409
-0.6074502891325468
0.07243520587861792
-1.053891464005409
-0.607485981962958
0.07204964508959712
-1.0536605288490473
-0.607485981962958
0.07204964508959712
-1.0536605288490473
-0.607485981962958
0.07204964508959712
-1.0536605288490473
-0.607485981962958
0.07204964508959712
-1.0536605288490473
-0.6088434228928686
0.0718422832140899
-1.0537270007972452
-0.6088434228928686
0.0718422832140899
-1.0537270007972452
-0.6088434228928686
0.0718422832140899
-1.0537270007972452
-0.6088434228928686
0.0718422832140899
-1.0537270007972452
-0.6099447779619667
0.07157187707863498
-1.0540492101473864
-0.6099447779619667
0.07157187707863498
-1.0540492101473864
-0.6099447779619667
0.07157187707863498
-1.0540492101473864
-0.6099447779619667
0.07157187707863498
-1.0540492101473864
-0.6096145560951507
0.07168338717280541
-1.0542941173995992
-0.6096145560951507
0.07168338717280541
-1.0542941173995992
-0.6096145560951507
0.07168338717280541
-1.0542941173995992
-0.6096145560951507
0.07168338717280541
-1.0542941173995992
-0.6084450876286116
0.07202666291858043
-1.0548495873439583
-0.6084450876286116
0.07202666291858043
-1.0548495873439583
-0.6084450876286116
0.07202666291858043
-1.0548495873439583
-0.6084450876286116
0.07202666291858043
-1.0548495873439583
-0.6066011056639165
0.07191672142768332
-1.0553469091939922
-0.6066011056639165
0.07191672142768332
-1.0553469091939922
-0.6066011056639165
0.07191672142768332
-1.0553469091939922
-0.6066011056639165
0.07191672142768332
-1.0553469091939922
-0.6069435299563252
0.07155882794415344
-1.0558830209607684
-0.6069435299563252
0.07155882794415344
-1.0558830209607684
-0.6069435299563252
0.07155882794415344
-1.0558830209607684
-0.6069435299563252
0.07155882794415344
-1.0558830209607684
-0.6073581383791142
0.07203216685842889
-1.055936536593456
-0.6073581383791142
0.07203216685842889
-1.055936536593456
-0.6073581383791142
0.07203216685842889
-1.055936536593456
-0.6073581383791142
0.07203216685842889
-1.055936536593456
-0.6038861068978989
0.07332039627643197
-1.0553465232879384
-0.6038861068978989
0.07332039627643197
-1.0553465232879384
-0.6038861068978989
0.07332039627643197
-1.0553465232879384
-0.6038861068978989
0.07332039627643197
-1.0553465232879384
-0.60000404776008
0.07466709323650828
-1.054802107363294
-0.60000404776008
0.07466709323650828
-1.054802107363294
-0.60000404776008
0.07466709323650828
-1.054802107363294
-0.60000404776008
0.07466709323650828
-1.054802107363294
-0.5980107133196121
0.07623546024220258
-1.0548893794866727
-0.5980107133196121
0.07623546024220258
-1.0548893794866727
-0.5980107133196121
0.07623546024220258
-1.0548893794866727
-0.5980107133196121
0.07623546024220258
-1.0548893794866727
-0.59833882125621
0.07837272687669046
-1.0540247051236686
-0.59833882125621
0.07837272687669046
-1.0540247051236686
-0.59833882125621
0.07837272687669046
-1.0540247051236686
-0.59833882125621
0.07837272687669046
-1.0540247051236686
-0.5970863145981488
0.08057660018671131
-1.0530341858874082
-0.5970863145981488
0.08057660018671131
-1.0530341858874082
-0.5970863145981488
0.08057660018671131
-1.0530341858874082
-0.5970863145981488
0.08057660018671131
-1.0530341858874082
-0.5933008486046139
0.08303798698390023
-1.0519627153559579
-0.5933008486046139
0.08303798698390023
-1.0519627153559579
-0.5933008486046139
0.08303798698390023
-1.0519627153559579
-0.5933008486046139
0.08303798698390023
-1.0519627153559579
-0.5894109463257068
0.08742719043133051
-1.0490718622946087
-0.5894109463257068
0.08742719043133051
-1.0490718622946087
-0.5894109463257068
0.08742719043133051
-1.0490718622946087
-0.5894109463257068
0.08742719043133051
-1.0490718622946087
-0.5839213343386294
0.09112762890770469
-1.0448245340444662
-0.5839213343386294
0.09112762890770469
-1.0448245340444662
-0.5839213343386294
0.09112762890770469
-1.0448245340444662
-0.5839213343386294
0.09112762890770469
-1.0448245340444662
-0.6007412711313274
0.09056083402641368
-1.0503524478482453
-0.6007412711313274
0.09056083402641368
-1.0503524478482453
-0.6007412711313274
0.09056083402641368
-1.0503524478482453
-0.6007412711313274
0.09056083402641368
-1.0503524478482453
-0.5852844021734502
0.08746375960303109
-1.0509378622026777
-0.5852844021734502
0.08746375960303109
-1.0509378622026777
-0.5852844021734502
0.08746375960303109
-1.0509378622026777
-0.5852844021734502
0.08746375960303109
-1.0509378622026777
-0.5627962460838478
0.08664705756224925
-1.0415064068652309
-0.5627962460838478
0.08664705756224925
-1.0415064068652309
-0.5627962460838478
0.08664705756224925
-1.0415064068652309
-0.5627962460838478
0.08664705756224925
-1.0415064068652309
-0.5260165682090977
0.08005015996458688
-1.0475694080702649
-0.5260165682090977
0.08005015996458688
-1.0475694080702649
-0.5260165682090977
0.08005015996458688
-1.0475694080702649
-0.5260165682090977
0.08005015996458688
-1.0475694080702649
-0.5236363464977657
0.08444744413293194
-1.048964057022326
-0.5236363464977657
0.08444744413293194
-1.048964057022326
-0.5236363464977657
0.08444744413293194
-1.048964057022326
-0.5236363464977657
0.08444744413293194
-1.048964057022326
-0.5395464669519234
0.084365925740263
-1.0430658951855736
-0.5395464669519234
0.084365925740263
-1.0430658951855736
-0.5395464669519234
0.084365925740263
-1.0430658951855736
-0.5395464669519234
0.084365925740263
-1.0430658951855736
-0.550158399222666
0.07693584674914233
-1.035550956363625
-0.550158399222666
0.07693584674914233
-1.035550956363625
-0.550158399222666
0.07693584674914233
-1.035550956363625
-0.550158399222666
0.07693584674914233
-1.035550956363625
-0.5453346295041537
0.06842177841659922
-1.030737786102201
-0.5453346295041537
0.06842177841659922
-1.030737786102201
-0.5453346295041537
0.06842177841659922
-1.030737786102201
-0.5453346295041537
0.06842177841659922
-1.030737786102201
-0.5276724450283815
0.06227839998375258
-1.0253857900257015
-0.5276724450283815
0.06227839998375258
-1.0253857900257015
-0.5276724450283815
0.06227839998375258
-1.0253857900257015
-0.5276724450283815
0.06227839998375258
-1.0253857900257015
-0.5182623594950668
0.052641270694631107
-1.0202529570836127
-0.5182623594950668
0.052641270694631107
-1.0202529570836127
-0.5182623594950668
0.052641270694631107
-1.0202529570836127
-0.5182623594950668
0.052641270694631107
-1.0202529570836127
-0.5159668391754719
0.04289894672782196
-1.014418468363309
-0.5159668391754719
0.04289894672782196
-1.014418468363309
-0.5159668391754719
0.04289894672782196
-1.014418468363309
-0.5159668391754719
0.04289894672782196
-1.014418468363309
-0.5134556245488251
0.03447647360524765
-1.0102533671576086
-0.5134556245488251
0.03447647360524765
-1.0102533671576086
-0.5134556245488251
0.03447647360524765
-1.0102533671576086
-0.5134556245488251
0.03447647360524765
-1.0102533671576086
-0.5065614449113397
0.029118728698800677
-1.0081633447447114
-0.5065614449113397
0.029118728698800677
-1.0081633447447114
-0.5065614449113397
0.029118728698800677
-1.0081633447447114
-0.5065614449113397
0.029118728698800677
-1.0081633447447114
-0.5045156462321725
0.025680963919010553
-1.007335283462427
-0.5045156462321725
0.025680963919010553
-1.007335283462427
-0.5045156462321725
0.025680963919010553
-1.007335283462427
-0.5045156462321725
0.025680963919010553
-1.007335283462427
-0.5030769642909546
0.022992459876397038
-1.0057088372964895
-0.5030769642909546
0.022992459876397038
-1.0057088372964895
-0.5030769642909546
0.022992459876397038
-1.0057088372964895
-0.5030769642909546
0.022992459876397038
-1.0057088372964895
-0.4995263104048382
0.02149582149280739
-1.0038954793037411
-0.4995263104048382
0.02149582149280739
-1.0038954793037411
-0.4995263104048382
0.02149582149280739
-1.0038954793037411
-0.4995263104048382
0.02149582149280739
-1.0038954793037411
-0.4960509139245063
0.02144493147275829
-1.0037022270450913
-0.4960509139245063
0.02144493147275829
-1.0037022270450913
-0.4960509139245063
0.02144493147275829
-1.0037022270450913
-0.4960509139245063
0.02144493147275829
-1.0037022270450913
-0.4981198272300012
0.02294274686004766
-1.0035035706175948
-0.4981198272300012
0.02294274686004766
-1.0035035706175948
-0.4981198272300012
0.02294274686004766
-1.0035035706175948
-0.4981198272300012
0.02294274686004766
-1.0035035706175948
-0.49747611312308826
0.023358217809742888
-1.0015105003222586
-0.49747611312308826
0.023358217809742888
-1.0015105003222586
-0.49747611312308826
0.023358217809742888
-1.0015105003222586
-0.49747611312308826
0.023358217809742888
-1.0015105003222586
-0.4920563277592146
0.023004024217760714
-0.9991665448173339
-0.4920563277592146
0.023004024217760714
-0.9991665448173339
-0.4920563277592146
0.023004024217760714
-0.9991665448173339
-0.4920563277592146
0.023004024217760714
-0.9991665448173339
-0.4873121631579038
0.023053484029914716
-0.9977886453252727
-0.4873121631579038
0.023053484029914716
-0.9977886453252727
-0.4873121631579038
0.023053484029914716
-0.9977886453252727
-0.4873121631579038
0.023053484029914716
-0.9977886453252727
-0.4846077363675383
0.02269335278145703
-0.9964045200862867
-0.4846077363675383
0.02269335278145703
-0.9964045200862867
-0.4846077363675383
0.02269335278145703
-0.9964045200862867
-0.4846077363675383
0.02269335278145703
-0.9964045200862867
-0.48326636352551544
0.021926451868983496
-0.9948960735541872
-0.48326636352551544
0.021926451868983496
-0.9948960735541872
-0.48326636352551544
0.021926451868983496
-0.9948960735541872
-0.48326636352551544
0.021926451868983496
-0.9948960735541872
-0.4790260213361186
0.021520273909577718
-0.9936488613159198
-0.4790260213361186
0.021520273909577718
-0.9936488613159198
-0.4790260213361186
0.021520273909577718
-0.9936488613159198
-0.4790260213361186
0.021520273909577718
-0.9936488613159198
-0.4729569166205194
0.022074237625933076
-0.9930494699748629
-0.4729569166205194
0.022074237625933076
-0.9930494699748629
-0.4729569166205194
0.022074237625933076
-0.9930494699748629
-0.4729569166205194
0.022074237625933076
-0.9930494699748629
-0.46884579679533345
0.02163798999311007
-0.9928123540061301
-0.46884579679533345
0.02163798999311007
-0.9928123540061301
-0.46884579679533345
0.02163798999311007
-0.9928123540061301
-0.46884579679533345
0.02163798999311007
-0.9928123540061301
-0.46695621725455483
0.021379855889896566
-0.9927124240644001
-0.46695621725455483
0.021379855889896566
-0.9927124240644001
-0.46695621725455483
0.021379855889896566
-0.9927124240644001
-0.46695621725455483
0.021379855889896566
-0.9927124240644001
-0.46538303899297756
0.02108762525499112
-0.9927274032330353
-0.46538303899297756
0.02108762525499112
-0.9927274032330353
-0.46538303899297756
0.02108762525499112
-0.9927274032330353
-0.46538303899297756
0.02108762525499112
-0.9927274032330353
-0.462193188965545
0.02135798388468592
-0.9922289505172295
-0.462193188965545
0.02135798388468592
-0.9922289505172295
-0.462193188965545
0.02135798388468592
-0.9922289505172295
-0.462193188965545
0.02135798388468592
-0.9922289505172295
-0.45888656701620467
0.021658549885501564
-0.9918461279490051
-0.45888656701620467
0.021658549885501564
-0.9918461279490051
-0.45888656701620467
0.021658549885501564
-0.9918461279490051
-0.45888656701620467
0.021658549885501564
-0.9918461279490051
-0.45531012100470447
0.02095886989893023
-0.9914484791031817
-0.45531012100470447
0.02095886989893023
-0.9914484791031817
-0.45531012100470447
0.02095886989893023
-0.9914484791031817
-0.45531012100470447
0.02095886989893023
-0.9914484791031817
-0.45129425804288054
0.020255718021283873
-0.990878573092028
-0.45129425804288054
0.020255718021283873
-0.990878573092028
-0.45129425804288054
0.020255718021283873
-0.990878573092028
-0.45129425804288054
0.020255718021283873
-0.990878573092028
-0.44733378212875663
0.01878447348923305
-0.9904769242785938
-0.44733378212875663
0.01878447348923305
-0.9904769242785938
-0.44733378212875663
0.01878447348923305
-0.9904769242785938
-0.44733378212875663
0.01878447348923305
-0.9904769242785938
-0.4455462911835896
0.015596535946118725
-0.9899493194765396
-0.4455462911835896
0.015596535946118725
-0.9899493194765396
-0.4455462911835896
0.015596535946118725
-0.9899493194765396
-0.4455462911835896
0.015596535946118725
-0.9899493194765396
-0.4442203436572544
0.01258065262073719
-0.9900882199156255
-0.4442203436572544
0.01258065262073719
-0.9900882199156255
-0.4442203436572544
0.01258065262073719
-0.9900882199156255
-0.4442203436572544
0.01258065262073719
-0.9900882199156255
-0.44314550864169383
0.010602235837043044
-0.9913050728992355
-0.44314550864169383
0.010602235837043044
-0.9913050728992355
-0.44314550864169383
0.010602235837043044
-0.9913050728992355
-0.44314550864169383
0.010602235837043044
-0.9913050728992355
-0.4406793548307103
0.008308973814060651
-0.992887039045249
-0.4406793548307103
0.008308973814060651
-0.992887039045249
-0.4406793548307103
0.008308973814060651
-0.992887039045249
-0.4406793548307103
0.008308973814060651
-0.992887039045249
-0.43949564329877416
0.006029717356470828
-0.9944901337962925
-0.43949564329877416
0.006029717356470828
-0.9944901337962925
-0.43949564329877416
0.006029717356470828
-0.9944901337962925
-0.43949564329877416
0.006029717356470828
-0.9944901337962925
-0.4396823229910184
0.0044220209850776675
-0.9961477979491501
-0.4396823229910184
0.0044220209850776675
-0.9961477979491501
-0.4396823229910184
0.0044220209850776675
-0.9961477979491501
-0.4396823229910184
0.0044220209850776675
-0.9961477979491501
-0.4404537932241484
0.003338341563363663
-0.9978733596064745
-0.4404537932241484
0.003338341563363663
-0.9978733596064745
-0.4404537932241484
0.003338341563363663
-0.9978733596064745
-0.4404537932241484
0.003338341563363663
-0.9978733596064745
-0.4417708525331005
0.002679365769893802
-0.998855769997947
-0.4417708525331005
0.002679365769893802
-0.998855769997947
-0.4417708525331005
0.002679365769893802
-0.998855769997947
-0.4417708525331005
0.002679365769893802
-0.998855769997947
-0.4423071682228137
0.0028829782532650556
-0.9998608763554898
-0.4423071682228137
0.0028829782532650556
-0.9998608763554898
-0.4423071682228137
0.0028829782532650556
-0.9998608763554898
-0.4423071682228137
0.0028829782532650556
-0.9998608763554898
-0.44157475530186296
0.0038550162516337682
-1.0011362903000398
-0.44157475530186296
0.0038550162516337682
-1.0011362903000398
-0.44157475530186296
0.0038550162516337682
-1.0011362903000398
-0.44157475530186296
0.0038550162516337682
-1.0011362903000398
-0.44069533959522555
0.004365537266897664
-1.0022470061282083
-0.44069533959522555
0.004365537266897664
-1.0022470061282083
-0.44069533959522555
0.004365537266897664
-1.0022470061282083
-0.44069533959522555
0.004365537266897664
-1.0022470061282083
-0.44094476410772115
0.00465135934695427
-1.0029307562801917
-0.44094476410772115
0.00465135934695427
-1.0029307562801917
-0.44094476410772115
0.00465135934695427
-1.0029307562801917
-0.44094476410772115
0.00465135934695427
-1.0029307562801917
-0.441426083100704
0.005112029252024218
-1.0035447508673383
-0.441426083100704
0.005112029252024218
-1.0035447508673383
-0.441426083100704
0.005112029252024218
-1.0035447508673383
-0.441426083100704
0.005112029252024218
-1.0035447508673383
-0.44016589399317874
0.006029809111187826
-1.0044048879805567
-0.44016589399317874
0.006029809111187826
-1.0044048879805567
-0.44016589399317874
0.006029809111187826
-1.0044048879805567
-0.44016589399317874
0.006029809111187826
-1.0044048879805567
-0.43886155866115495
0.006867721072843877
-1.005135956603316
-0.43886155866115495
0.006867721072843877
-1.005135956603316
-0.43886155866115495
0.006867721072843877
-1.005135956603316
-0.43886155866115495
0.006867721072843877
-1.005135956603316
-0.43817508471253935
0.007955099977066
-1.0051456574488844
-0.43817508471253935
0.007955099977066
-1.0051456574488844
-0.43817508471253935
0.007955099977066
-1.0051456574488844
-0.43817508471253935
0.007955099977066
-1.0051456574488844
-0.4388578900775847
0.009256535236496272
-1.0047206511292117
-0.4388578900775847
0.009256535236496272
-1.0047206511292117
-0.4388578900775847
0.009256535236496272
-1.0047206511292117
-0.4388578900775847
0.009256535236496272
-1.0047206511292117
-0.4394680270842042
0.010975007521867494
-1.0044387764721432
-0.4394680270842042
0.010975007521867494
-1.0044387764721432
-0.4394680270842042
0.010975007521867494
-1.0044387764721432
-0.4394680270842042
0.010975007521867494
-1.0044387764721432
-0.43841097106275184
0.012550974879447901
-1.0038252825664902
-0.43841097106275184
0.012550974879447901
-1.0038252825664902
-0.43841097106275184
0.012550974879447901
-1.0038252825664902
-0.43841097106275184
0.012550974879447901
-1.0038252825664902
-0.4380701436486089
0.014021531147599457
-1.0038109420697814
-0.4380701436486089
0.014021531147599457
-1.0038109420697814
-0.4380701436486089
0.014021531147599457
-1.0038109420697814
-0.4380701436486089
0.014021531147599457
-1.0038109420697814
-0.43807757378590295
0.015212580705054587
-1.0042458782659691
-0.43807757378590295
0.015212580705054587
-1.0042458782659691
-0.43807757378590295
0.015212580705054587
-1.0042458782659691
-0.43807757378590295
0.015212580705054587
-1.0042458782659691
-0.439327695429488
0.015644361521438596
-1.0043625526195679
-0.439327695429488
0.015644361521438596
-1.0043625526195679
-0.439327695429488
0.015644361521438596
-1.0043625526195679
-0.439327695429488
0.015644361521438596
-1.0043625526195679
-0.44070642709624125
0.015626370356447372
-1.0042103587590787
-0.44070642709624125
0.015626370356447372
-1.0042103587590787
-0.44070642709624125
0.015626370356447372
-1.0042103587590787
-0.44070642709624125
0.015626370356447372
-1.0042103587590787
-0.43999800853653853
0.016181074307967877
-1.0040988299330638
-0.43999800853653853
0.016181074307967877
-1.0040988299330638
-0.43999800853653853
0.016181074307967877
-1.0040988299330638
-0.43999800853653853
0.016181074307967877
-1.0040988299330638
-0.43931337111861835
0.01678328846941148
-1.0037782188313298
-0.43931337111861835
0.01678328846941148
-1.0037782188313298
-0.43931337111861835
0.01678328846941148
-1.0037782188313298
-0.43931337111861835
0.01678328846941148
-1.0037782188313298
-0.43990585288320033
0.01638158538336003
-1.0034740735653944
-0.43990585288320033
0.01638158538336003
-1.0034740735653944
-0.43990585288320033
0.01638158538336003
-1.0034740735653944
-0.43990585288320033
0.01638158538336003
-1.0034740735653944
-0.4403020463472171
0.015619380857967673
-1.003306906144824
-0.4403020463472171
0.015619380857967673
-1.003306906144824
-0.4403020463472171
0.015619380857967673
-1.003306906144824
-0.4403020463472171
0.015619380857967673
-1.003306906144824
-0.4396458938768056
0.014423960444445216
-1.0032539649833505
-0.4396458938768056
0.014423960444445216
-1.0032539649833505
-0.4396458938768056
0.014423960444445216
-1.0032539649833505
-0.4396458938768056
0.014423960444445216
-1.0032539649833505
-0.43937248926278133
0.013184228993475973
-1.0030848281483487
-0.43937248926278133
0.013184228993475973
-1.0030848281483487
-0.43937248926278133
0.013184228993475973
-1.0030848281483487
-0.43937248926278133
0.013184228993475973
-1.0030848281483487
-0.4402243020302138
0.011961692484319553
-1.0026576174617456
-0.4402243020302138
0.011961692484319553
-1.0026576174617456
-0.4402243020302138
0.011961692484319553
-1.0026576174617456
-0.4402243020302138
0.011961692484319553
-1.0026576174617456
-0.4410905732622088
0.010383570477947315
-1.0018101229827616
-0.4410905732622088
0.010383570477947315
-1.0018101229827616
-0.4410905732622088
0.010383570477947315
-1.0018101229827616
-0.4410905732622088
0.010383570477947315
-1.0018101229827616
-0.4422099059742146
0.00915175234114852
-1.0013796592095743
-0.4422099059742146
0.00915175234114852
-1.0013796592095743
-0.4422099059742146
0.00915175234114852
-1.0013796592095743
-0.4422099059742146
0.00915175234114852
-1.0013796592095743
-0.4415473690035722
0.007809033120530577
-1.0007356066557884
-0.4415473690035722
0.007809033120530577
-1.0007356066557884
-0.4415473690035722
0.007809033120530577
-1.0007356066557884
-0.4415473690035722
0.007809033120530577
-1.0007356066557884
-0.4414390700705078
0.006676082465668367
-1.0003112093291984
-0.4414390700705078
0.006676082465668367
-1.0003112093291984
-0.4414390700705078
0.006676082465668367
-1.0003112093291984
-0.4414390700705078
0.006676082465668367
-1.0003112093291984
-0.4430031918486779
0.005263979846451212
-0.9996192335253967
-0.4430031918486779
0.005263979846451212
-0.9996192335253967
-0.4430031918486779
0.005263979846451212
-0.9996192335253967
-0.4430031918486779
0.005263979846451212
-0.9996192335253967
-0.44466008326464135
0.0037721531562152897
-0.9990168557529665
-0.44466008326464135
0.0037721531562152897
-0.9990168557529665
-0.44466008326464135
0.0037721531562152897
-0.9990168557529665
-0.44466008326464135
0.0037721531562152897
-0.9990168557529665
-0.44544610711979044
0.002061274192867204
-0.9990304277908031
-0.44544610711979044
0.002061274192867204
-0.9990304277908031
-0.44544610711979044
0.002061274192867204
-0.9990304277908031
-0.44544610711979044
0.002061274192867204
-0.9990304277908031
-0.44421597435677834
3.0408498790832495E-4
-0.9990717305769451
-0.44421597435677834
3.0408498790832495E-4
-0.9990717305769451
-0.44421597435677834
3.0408498790832495E-4
-0.9990717305769451
-0.44421597435677834
3.0408498790832495E-4
-0.9990717305769451
-0.4433610553456026
-0.0013997262523649404
-0.9985677093975543
-0.4433610553456026
-0.0013997262523649404
-0.9985677093975543
-0.4433610553456026
-0.0013997262523649404
-0.9985677093975543
-0.4433610553456026
-0.0013997262523649404
-0.9985677093975543
-0.44402812734255753
-0.0031630140277331756
-0.997839616208402
-0.44402812734255753
-0.0031630140277331756
-0.997839616208402
-0.44402812734255753
-0.0031630140277331756
-0.997839616208402
-0.44402812734255753
-0.0031630140277331756
-0.997839616208402
-0.4451399272314523
-0.004803560903968326
-0.9967472814253006
-0.4451399272314523
-0.004803560903968326
-0.9967472814253006
-0.4451399272314523
-0.004803560903968326
-0.9967472814253006
-0.4451399272314523
-0.004803560903968326
-0.9967472814253006
-0.4454768662460753
-0.006539241323655053
-0.9966928888774792
-0.4454768662460753
-0.006539241323655053
-0.9966928888774792
-0.4454768662460753
-0.006539241323655053
-0.9966928888774792
-0.4454768662460753
-0.006539241323655053
-0.9966928888774792
-0.4442865854427048
-0.00678496445558565
-0.9974705257812692
-0.4442865854427048
-0.00678496445558565
-0.9974705257812692
-0.4442865854427048
-0.00678496445558565
-0.9974705257812692
-0.4442865854427048
-0.00678496445558565
-0.9974705257812692
-0.4434163908620686
-0.0061939179842354745
-0.9982160137925279
-0.4434163908620686
-0.0061939179842354745
-0.9982160137925279
-0.4434163908620686
-0.0061939179842354745
-0.9982160137925279
-0.4434163908620686
-0.0061939179842354745
-0.9982160137925279
-0.4448571901541885
-0.005155393139836367
-0.9983464829330754
-0.4448571901541885
-0.005155393139836367
-0.9983464829330754
-0.4448571901541885
-0.005155393139836367
-0.9983464829330754
-0.4448571901541885
-0.005155393139836367
-0.9983464829330754
-0.4466357377691396
-0.0036350631028479103
-0.9980277403329256
-0.4466357377691396
-0.0036350631028479103
-0.9980277403329256
-0.4466357377691396
-0.0036350631028479103
-0.9980277403329256
-0.4466357377691396
-0.0036350631028479103
-0.9980277403329256
-0.4484561455422424
-0.001595403401620715
-0.9978899225186936
-0.4484561455422424
-0.001595403401620715
-0.9978899225186936
-0.4484561455422424
-0.001595403401620715
-0.9978899225186936
-0.4484561455422424
-0.001595403401620715
-0.9978899225186936
-0.4506749705698233
0.0011759630260979226
-0.9979235506672841
-0.4506749705698233
0.0011759630260979226
-0.9979235506672841
-0.4506749705698233
0.0011759630260979226
-0.9979235506672841
-0.4506749705698233
0.0011759630260979226
-0.9979235506672841
-0.45118360874550784
0.0043873668114377765
-0.9970414961030847
-0.45118360874550784
0.0043873668114377765
-0.9970414961030847
-0.45118360874550784
0.0043873668114377765
-0.9970414961030847
-0.45118360874550784
0.0043873668114377765
-0.9970414961030847
-0.446716330908753
0.008022521159103178
-0.9979882067565796
-0.446716330908753
0.008022521159103178
-0.9979882067565796
-0.446716330908753
0.008022521159103178
-0.9979882067565796
-0.446716330908753
0.008022521159103178
-0.9979882067565796
-0.4471378461550176
0.012707661058375811
-0.9990051015478393
-0.4471378461550176
0.012707661058375811
-0.9990051015478393
-0.4471378461550176
0.012707661058375811
-0.9990051015478393
-0.4471378461550176
0.012707661058375811
-0.9990051015478393
-0.4527423804532791
0.017483497876671257
-1.0022604344712833
-0.4527423804532791
0.017483497876671257
-1.0022604344712833
-0.4527423804532791
0.017483497876671257
-1.0022604344712833
-0.4527423804532791
0.017483497876671257
-1.0022604344712833
-0.4586556830882501
0.02271153089234549
-1.0066165696196367
-0.4586556830882501
0.02271153089234549
-1.0066165696196367
-0.4586556830882501
0.02271153089234549
-1.0066165696196367
-0.4586556830882501
0.02271153089234549
-1.0066165696196367
-0.463494011368741
0.03082308620856159
-1.010993399607549
-0.463494011368741
0.03082308620856159
-1.010993399607549
-0.463494011368741
0.03082308620856159
-1.010993399607549
-0.463494011368741
0.03082308620856159
-1.010993399607549
-0.46877486299826227
0.04133823096628471
-1.015778303344964
-0.46877486299826227
0.04133823096628471
-1.015778303344964
-0.46877486299826227
0.04133823096628471
-1.015778303344964
-0.46877486299826227
0.04133823096628471
-1.015778303344964
-0.4689637527947605
0.05046291339476405
-1.0189862459999732
-0.4689637527947605
0.05046291339476405
-1.0189862459999732
-0.4689637527947605
0.05046291339476405
-1.0189862459999732
-0.4689637527947605
0.05046291339476405
-1.0189862459999732
-0.46112906796245695
0.05662325845265166
-1.0218390418051306
-0.46112906796245695
0.05662325845265166
-1.0218390418051306
-0.46112906796245695
0.05662325845265166
-1.0218390418051306
-0.46112906796245695
0.05662325845265166
-1.0218390418051306
-0.4576490474600705
0.059724443143065756
-1.0257969731067658
-0.4576490474600705
0.059724443143065756
-1.0257969731067658
-0.4576490474600705
0.059724443143065756
-1.0257969731067658
-0.4576490474600705
0.059724443143065756
-1.0257969731067658
-0.46112726861999537
0.06542816922361185
-1.032509364024224
-0.46112726861999537
0.06542816922361185
-1.032509364024224
-0.46112726861999537
0.06542816922361185
-1.032509364024224
-0.46112726861999537
0.06542816922361185
-1.032509364024224
-0.46789578449450236
0.07079992421207214
-1.0363569943853377
-0.46789578449450236
0.07079992421207214
-1.0363569943853377
-0.46789578449450236
0.07079992421207214
-1.0363569943853377
-0.46789578449450236
0.07079992421207214
-1.0363569943853377
-0.48169472249591255
0.07261858532424574
-1.039443530799128
-0.48169472249591255
0.07261858532424574
-1.039443530799128
-0.48169472249591255
0.07261858532424574
-1.039443530799128
-0.48169472249591255
0.07261858532424574
-1.039443530799128
-0.4885626045611156
0.0694286163304387
-1.0421460183828448
-0.4885626045611156
0.0694286163304387
-1.0421460183828448
-0.4885626045611156
0.0694286163304387
-1.0421460183828448
-0.4885626045611156
0.0694286163304387
-1.0421460183828448
-0.48550483123347415
0.06403651580055574
-1.0433558254325384
-0.48550483123347415
0.06403651580055574
-1.0433558254325384
-0.48550483123347415
0.06403651580055574
-1.0433558254325384
-0.48550483123347415
0.06403651580055574
-1.0433558254325384
-0.4787814313584509
0.060944215700924426
-1.0423970649229537
-0.4787814313584509
0.060944215700924426
-1.0423970649229537
-0.4787814313584509
0.060944215700924426
-1.0423970649229537
-0.4787814313584509
0.060944215700924426
-1.0423970649229537
-0.47899272536743664
0.05561591955759692
-1.044813005247983
-0.47899272536743664
0.05561591955759692
-1.044813005247983
-0.47899272536743664
0.05561591955759692
-1.044813005247983
-0.47899272536743664
0.05561591955759692
-1.044813005247983
-0.4812453499390294
0.04695574253571603
-1.0477264314915926
-0.4812453499390294
0.04695574253571603
-1.0477264314915926
-0.4812453499390294
0.04695574253571603
-1.0477264314915926
-0.4812453499390294
0.04695574253571603
-1.0477264314915926
-0.48249705480652966
0.03699425508349722
-1.0473952853462856
-0.48249705480652966
0.03699425508349722
-1.0473952853462856
-0.48249705480652966
0.03699425508349722
-1.0473952853462856
-0.48249705480652966
0.03699425508349722
-1.0473952853462856
-0.4812683818516412
0.02881631681017189
-1.044942927610201
-0.4812683818516412
0.02881631681017189
-1.044942927610201
-0.4812683818516412
0.02881631681017189
-1.044942927610201
-0.4812683818516412
0.02881631681017189
-1.044942927610201
-0.4816984431461941
0.021469991637337447
-1.0424120600269047
-0.4816984431461941
0.021469991637337447
-1.0424120600269047
-0.4816984431461941
0.021469991637337447
-1.0424120600269047
-0.4816984431461941
0.021469991637337447
-1.0424120600269047
-0.48187710671669975
0.013771332520245866
-1.0402416493347457
-0.48187710671669975
0.013771332520245866
-1.0402416493347457
-0.48187710671669975
0.013771332520245866
-1.0402416493347457
-0.48187710671669975
0.013771332520245866
-1.0402416493347457
-0.4803085612629315
0.007398879556114079
-1.0397143791600556
-0.4803085612629315
0.007398879556114079
-1.0397143791600556
-0.4803085612629315
0.007398879556114079
-1.0397143791600556
-0.4803085612629315
0.007398879556114079
-1.0397143791600556
-0.4782638867326711
0.002637556476421557
-1.0403222731889665
-0.4782638867326711
0.002637556476421557
-1.0403222731889665
-0.4782638867326711
0.002637556476421557
-1.0403222731889665
-0.4782638867326711
0.002637556476421557
-1.0403222731889665
-0.4782582273776274
6.606874676329263E-4
-1.0401208234643717
-0.4782582273776274
6.606874676329263E-4
-1.0401208234643717
-0.4782582273776274
6.606874676329263E-4
-1.0401208234643717
-0.4782582273776274
6.606874676329263E-4
-1.0401208234643717
-0.479076246777623
-6.003444627682113E-4
-1.0386443650226125
-0.479076246777623
-6.003444627682113E-4
-1.0386443650226125
-0.479076246777623
-6.003444627682113E-4
-1.0386443650226125
-0.479076246777623
-6.003444627682113E-4
-1.0386443650226125
-0.47973414011882315
-2.3546133669073425E-4
-1.036769461979096
-0.47973414011882315
-2.3546133669073425E-4
-1.036769461979096
-0.47973414011882315
-2.3546133669073425E-4
-1.036769461979096
-0.47973414011882315
-2.3546133669073425E-4
-1.036769461979096
-0.47997452250148537
0.001978459253191012
-1.036640844992608
-0.47997452250148537
0.001978459253191012
-1.036640844992608
-0.47997452250148537
0.001978459253191012
-1.036640844992608
-0.47997452250148537
0.001978459253191012
-1.036640844992608
-0.480033331068053
0.005188636209305288
-1.037535727007719
-0.480033331068053
0.005188636209305288
-1.037535727007719
-0.480033331068053
0.005188636209305288
-1.037535727007719
-0.480033331068053
0.005188636209305288
-1.037535727007719
-0.4778246097388627
0.009621043996907745
-1.0376279300144151
-0.4778246097388627
0.009621043996907745
-1.0376279300144151
-0.4778246097388627
0.009621043996907745
-1.0376279300144151
-0.4778246097388627
0.009621043996907745
-1.0376279300144151
-0.474845196244581
0.015397082152380474
-1.0362699566535774
-0.474845196244581
0.015397082152380474
-1.0362699566535774
-0.474845196244581
0.015397082152380474
-1.0362699566535774
-0.474845196244581
0.015397082152380474
-1.0362699566535774
-0.4719445935334875
0.021514052282473748
-1.033919083166434
-0.4719445935334875
0.021514052282473748
-1.033919083166434
-0.4719445935334875
0.021514052282473748
-1.033919083166434
-0.4719445935334875
0.021514052282473748
-1.033919083166434
-0.4711785862850306
0.028045104204863298
-1.0319286482821797
-0.4711785862850306
0.028045104204863298
-1.0319286482821797
-0.4711785862850306
0.028045104204863298
-1.0319286482821797
-0.4711785862850306
0.028045104204863298
-1.0319286482821797
-0.47350632322297426
0.034113093835979935
-1.0300891523714235
-0.47350632322297426
0.034113093835979935
-1.0300891523714235
-0.47350632322297426
0.034113093835979935
-1.0300891523714235
-0.47350632322297426
0.034113093835979935
-1.0300891523714235
-0.4721289985027858
0.039852217888521106
-1.0280048108305182
-0.4721289985027858
0.039852217888521106
-1.0280048108305182
-0.4721289985027858
0.039852217888521106
-1.0280048108305182
-0.4721289985027858
0.039852217888521106
-1.0280048108305182
-0.47046006393189116
0.04587325991711886
-1.0240589906987674
-0.47046006393189116
0.04587325991711886
-1.0240589906987674
-0.47046006393189116
0.04587325991711886
-1.0240589906987674
-0.47046006393189116
0.04587325991711886
-1.0240589906987674
-0.4700316711687012
0.05182614269278625
-1.0173281983793545
-0.4700316711687012
0.05182614269278625
-1.0173281983793545
-0.4700316711687012
0.05182614269278625
-1.0173281983793545
-0.4700316711687012
0.05182614269278625
-1.0173281983793545
-0.4741727257752718
0.05792512394778842
-1.0102471521796028
-0.4741727257752718
0.05792512394778842
-1.0102471521796028
-0.4741727257752718
0.05792512394778842
-1.0102471521796028
-0.4741727257752718
0.05792512394778842
-1.0102471521796028
-0.47726064936355683
0.06327018657477883
-1.0065564108110938
-0.47726064936355683
0.06327018657477883
-1.0065564108110938
-0.47726064936355683
0.06327018657477883
-1.0065564108110938
-0.47726064936355683
0.06327018657477883
-1.0065564108110938
-0.477188074789466
0.06836820906842925
-1.0020064368576782
-0.477188074789466
0.06836820906842925
-1.0020064368576782
-0.477188074789466
0.06836820906842925
-1.0020064368576782
-0.477188074789466
0.06836820906842925
-1.0020064368576782
-0.47198350354422447
0.07095486538898217
-0.9998216988806237
-0.47198350354422447
0.07095486538898217
-0.9998216988806237
-0.47198350354422447
0.07095486538898217
-0.9998216988806237
-0.47198350354422447
0.07095486538898217
-0.9998216988806237
-0.4652315255377585
0.0699840596277189
-1.0018757617958456
-0.4652315255377585
0.0699840596277189
-1.0018757617958456
-0.4652315255377585
0.0699840596277189
-1.0018757617958456
-0.4652315255377585
0.0699840596277189
-1.0018757617958456
-0.45909921479426213
0.06568354798435429
-0.9979609268075352
-0.45909921479426213
0.06568354798435429
-0.9979609268075352
-0.45909921479426213
0.06568354798435429
-0.9979609268075352
-0.45909921479426213
0.06568354798435429
-0.9979609268075352
-0.44003691264886946
0.05253342342287741
-0.9909812187208772
-0.44003691264886946
0.05253342342287741
-0.9909812187208772
-0.44003691264886946
0.05253342342287741
-0.9909812187208772
-0.44003691264886946
0.05253342342287741
-0.9909812187208772
-0.416092862273705
0.04907769702181688
-0.9819744134209383
-0.416092862273705
0.04907769702181688
-0.9819744134209383
-0.416092862273705
0.04907769702181688
-0.9819744134209383
-0.416092862273705
0.04907769702181688
-0.9819744134209383
-0.42530761783206206
0.050418103913168706
-0.9729904018747724
-0.42530761783206206
0.050418103913168706
-0.9729904018747724
-0.42530761783206206
0.050418103913168706
-0.9729904018747724
-0.42530761783206206
0.050418103913168706
-0.9729904018747724
-0.432010613815731
0.04309012152265244
-0.9640325116153732
-0.432010613815731
0.04309012152265244
-0.9640325116153732
-0.432010613815731
0.04309012152265244
-0.9640325116153732
-0.432010613815731
0.04309012152265244
-0.9640325116153732
-0.42627809993404037
0.03360202339896382
-0.9560757829416903
-0.42627809993404037
0.03360202339896382
-0.9560757829416903
-0.42627809993404037
0.03360202339896382
-0.9560757829416903
-0.42627809993404037
0.03360202339896382
-0.9560757829416903
-0.4209160409031749
0.027985692109558254
-0.9523114040687443
-0.4209160409031749
0.027985692109558254
-0.9523114040687443
-0.4209160409031749
0.027985692109558254
-0.9523114040687443
-0.4209160409031749
0.027985692109558254
-0.9523114040687443
-0.4194172514680323
0.0205619714319892
-0.9531612752154901
-0.4194172514680323
0.0205619714319892
-0.9531612752154901
-0.4194172514680323
0.0205619714319892
-0.9531612752154901
-0.4194172514680323
0.0205619714319892
-0.9531612752154901
-0.42318537975866516
0.008748536006645118
-0.9559772923223908
-0.42318537975866516
0.008748536006645118
-0.9559772923223908
-0.42318537975866516
0.008748536006645118
-0.9559772923223908
-0.42318537975866516
0.008748536006645118
-0.9559772923223908
-0.4284041741908558
-5.913818956481303E-4
-0.9592911982508258
-0.4284041741908558
-5.913818956481303E-4
-0.9592911982508258
-0.4284041741908558
-5.913818956481303E-4
-0.9592911982508258
-0.4284041741908558
-5.913818956481303E-4
-0.9592911982508258
-0.4317415649827146
-0.009310852111045162
-0.9628688456722687
-0.4317415649827146
-0.009310852111045162
-0.9628688456722687
-0.4317415649827146
-0.009310852111045162
-0.9628688456722687
-0.4317415649827146
-0.009310852111045162
-0.9628688456722687
-0.4331352256665787
-0.015138744033921186
-0.9661139938481854
-0.4331352256665787
-0.015138744033921186
-0.9661139938481854
-0.4331352256665787
-0.015138744033921186
-0.9661139938481854
-0.4331352256665787
-0.015138744033921186
-0.9661139938481854
-0.43642056142136
-0.015895157905990772
-0.9674461283795003
-0.43642056142136
-0.015895157905990772
-0.9674461283795003
-0.43642056142136
-0.015895157905990772
-0.9674461283795003
-0.43642056142136
-0.015895157905990772
-0.9674461283795003
-0.4357512475231225
-0.012896739464370402
-0.9676087941233582
-0.4357512475231225
-0.012896739464370402
-0.9676087941233582
-0.4357512475231225
-0.012896739464370402
-0.9676087941233582
-0.4357512475231225
-0.012896739464370402
-0.9676087941233582
-0.43534448145764565
-0.007492916343981293
-0.9677411164314605
-0.43534448145764565
-0.007492916343981293
-0.9677411164314605
-0.43534448145764565
-0.007492916343981293
-0.9677411164314605
-0.43534448145764565
-0.007492916343981293
-0.9677411164314605
-0.43652480251148473
-0.002115510850359812
-0.9680964699691997
-0.43652480251148473
-0.002115510850359812
-0.9680964699691997
-0.43652480251148473
-0.002115510850359812
-0.9680964699691997
-0.43652480251148473
-0.002115510850359812
-0.9680964699691997
-0.4401424608792316
0.002429019843487059
-0.968957414275386
-0.4401424608792316
0.002429019843487059
-0.968957414275386
-0.4401424608792316
0.002429019843487059
-0.968957414275386
-0.4401424608792316
0.002429019843487059
-0.968957414275386
-0.44030540813379054
0.005096132507670903
-0.9692748280503277
-0.44030540813379054
0.005096132507670903
-0.9692748280503277
-0.44030540813379054
0.005096132507670903
-0.9692748280503277
-0.44030540813379054
0.005096132507670903
-0.9692748280503277
-0.4404753730221067
0.007520610886631156
-0.9694276834296132
-0.4404753730221067
0.007520610886631156
-0.9694276834296132
-0.4404753730221067
0.007520610886631156
-0.9694276834296132
-0.4404753730221067
0.007520610886631156
-0.9694276834296132
-0.44081858759126374
0.010018693506731473
-0.9694875995102097
-0.44081858759126374
0.010018693506731473
-0.9694875995102097
-0.44081858759126374
0.010018693506731473
-0.9694875995102097
-0.44081858759126374
0.010018693506731473
-0.9694875995102097
-0.4405323200654587
0.012085398104213876
-0.9697799242143315
-0.4405323200654587
0.012085398104213876
-0.9697799242143315
-0.4405323200654587
0.012085398104213876
-0.9697799242143315
-0.4405323200654587
0.012085398104213876
-0.9697799242143315
-0.4399437647641152
0.013128710337390222
-0.9696716678135069
-0.4399437647641152
0.013128710337390222
-0.9696716678135069
-0.4399437647641152
0.013128710337390222
-0.9696716678135069
-0.4399437647641152
0.013128710337390222
-0.9696716678135069
-0.4415997637515605
0.013272386559752273
-0.9688817751900826
-0.4415997637515605
0.013272386559752273
-0.9688817751900826
-0.4415997637515605
0.013272386559752273
-0.9688817751900826
-0.4415997637515605
0.013272386559752273
-0.9688817751900826
-0.4429098700828064
0.013795403306083958
-0.9691829952008608
-0.4429098700828064
0.013795403306083958
-0.9691829952008608
-0.4429098700828064
0.013795403306083958
-0.9691829952008608
-0.4429098700828064
0.013795403306083958
-0.9691829952008608
-0.4422741592668617
0.014760030583138545
-0.9701763133147141
-0.4422741592668617
0.014760030583138545
-0.9701763133147141
-0.4422741592668617
0.014760030583138545
-0.9701763133147141
-0.4422741592668617
0.014760030583138545
-0.9701763133147141
-0.4425156542503481
0.015411466920709348
-0.9704936715206786
-0.4425156542503481
0.015411466920709348
-0.9704936715206786
-0.4425156542503481
0.015411466920709348
-0.9704936715206786
-0.4425156542503481
0.015411466920709348
-0.9704936715206786
-0.44283622102696174
0.015062188956518556
-0.9700271178650764
-0.44283622102696174
0.015062188956518556
-0.9700271178650764
-0.44283622102696174
0.015062188956518556
-0.9700271178650764
-0.44283622102696174
0.015062188956518556
-0.9700271178650764
-0.4431393957971998
0.013854438089777247
-0.9696466381008821
-0.4431393957971998
0.013854438089777247
-0.9696466381008821
-0.4431393957971998
0.013854438089777247
-0.9696466381008821
-0.4431393957971998
0.013854438089777247
-0.9696466381008821
-0.4434996598231477
0.012063632782124665
-0.969863160485214
-0.4434996598231477
0.012063632782124665
-0.969863160485214
-0.4434996598231477
0.012063632782124665
-0.969863160485214
-0.4434996598231477
0.012063632782124665
-0.969863160485214
-0.4449785291594063
0.009922349267892452
-0.9702912880977371
-0.4449785291594063
0.009922349267892452
-0.9702912880977371
-0.4449785291594063
0.009922349267892452
-0.9702912880977371
-0.4449785291594063
0.009922349267892452
-0.9702912880977371
-0.44562538227515164
0.0068748019003551175
-0.9691027495826661
-0.44562538227515164
0.0068748019003551175
-0.9691027495826661
-0.44562538227515164
0.0068748019003551175
-0.9691027495826661
-0.44562538227515164
0.0068748019003551175
-0.9691027495826661
-0.4454780357377068
0.004216850357901788
-0.9679931676604012
-0.4454780357377068
0.004216850357901788
-0.9679931676604012
-0.4454780357377068
0.004216850357901788
-0.9679931676604012
-0.4454780357377068
0.004216850357901788
-0.9679931676604012
-0.4444143214258952
0.0014260698921895905
-0.9678034537365734
-0.4444143214258952
0.0014260698921895905
-0.9678034537365734
-0.4444143214258952
0.0014260698921895905
-0.9678034537365734
-0.4444143214258952
0.0014260698921895905
-0.9678034537365734
-0.44523695386225604
-3.690377307991364E-4
-0.9682427592845808
-0.44523695386225604
-3.690377307991364E-4
-0.9682427592845808
-0.44523695386225604
-3.690377307991364E-4
-0.9682427592845808
-0.44523695386225604
-3.690377307991364E-4
-0.9682427592845808
-0.4471933514195285
-0.0025654683826544966
-0.9683666424468175
-0.4471933514195285
-0.0025654683826544966
-0.9683666424468175
-0.4471933514195285
-0.0025654683826544966
-0.9683666424468175
-0.4471933514195285
-0.0025654683826544966
-0.9683666424468175
-0.44756743978960895
-0.0036189028601344188
-0.9690242969830042
-0.44756743978960895
-0.0036189028601344188
-0.9690242969830042
-0.44756743978960895
-0.0036189028601344188
-0.9690242969830042
-0.44756743978960895
-0.0036189028601344188
-0.9690242969830042
-0.4476840540901982
-0.0036265971662438373
-0.9700310554116359
-0.4476840540901982
-0.0036265971662438373
-0.9700310554116359
-0.4476840540901982
-0.0036265971662438373
-0.9700310554116359
-0.4476840540901982
-0.0036265971662438373
-0.9700310554116359
-0.44908429101140124
-0.003753813340209315
-0.9704545102516439
-0.44908429101140124
-0.003753813340209315
-0.9704545102516439
-0.44908429101140124
-0.003753813340209315
-0.9704545102516439
-0.44908429101140124
-0.003753813340209315
-0.9704545102516439
-0.4512346873920686
-0.0029120920680966453
-0.9704865618294993
-0.4512346873920686
-0.0029120920680966453
-0.9704865618294993
-0.4512346873920686
-0.0029120920680966453
-0.9704865618294993
-0.4512346873920686
-0.0029120920680966453
-0.9704865618294993
-0.4520580470732611
-0.0015255545253814791
-0.9712010810927008
-0.4520580470732611
-0.0015255545253814791
-0.9712010810927008
-0.4520580470732611
-0.0015255545253814791
-0.9712010810927008
-0.4520580470732611
-0.0015255545253814791
-0.9712010810927008
-0.4527575919845843
1.3346230507310492E-4
-0.9722011758024207
-0.4527575919845843
1.3346230507310492E-4
-0.9722011758024207
-0.4527575919845843
1.3346230507310492E-4
-0.9722011758024207
-0.4527575919845843
1.3346230507310492E-4
-0.9722011758024207
-0.4535409924679294
0.002006776777903564
-0.972750529084229
-0.4535409924679294
0.002006776777903564
-0.972750529084229
-0.4535409924679294
0.002006776777903564
-0.972750529084229
-0.4535409924679294
0.002006776777903564
-0.972750529084229
-0.45497583325673874
0.0038975938057942846
-0.9729159669715511
-0.45497583325673874
0.0038975938057942846
-0.9729159669715511
-0.45497583325673874
0.0038975938057942846
-0.9729159669715511
-0.45497583325673874
0.0038975938057942846
-0.9729159669715511
-0.4557491059932515
0.005300095113214343
-0.9730797339637179
-0.4557491059932515
0.005300095113214343
-0.9730797339637179
-0.4557491059932515
0.005300095113214343
-0.9730797339637179
-0.4557491059932515
0.005300095113214343
-0.9730797339637179
-0.45632531707896684
0.006195856931192485
-0.9727875779697867
-0.45632531707896684
0.006195856931192485
-0.9727875779697867
-0.45632531707896684
0.006195856931192485
-0.9727875779697867
-0.45632531707896684
0.006195856931192485
-0.9727875779697867
-0.45750067962796714
0.0066402925993115
-0.9724515405047678
-0.45750067962796714
0.0066402925993115
-0.9724515405047678
-0.45750067962796714
0.0066402925993115
-0.9724515405047678
-0.45750067962796714
0.0066402925993115
-0.9724515405047678
-0.4571005271279876
0.006634469325135382
-0.9715497974780313
-0.4571005271279876
0.006634469325135382
-0.9715497974780313
-0.4571005271279876
0.006634469325135382
-0.9715497974780313
-0.4571005271279876
0.006634469325135382
-0.9715497974780313
-0.45585340570287275
0.005472021651943304
-0.970878810254288
-0.45585340570287275
0.005472021651943304
-0.970878810254288
-0.45585340570287275
0.005472021651943304
-0.970878810254288
-0.45585340570287275
0.005472021651943304
-0.970878810254288
-0.4558499148468883
0.0034876889997712693
-0.970249253542377
-0.4558499148468883
0.0034876889997712693
-0.970249253542377
-0.4558499148468883
0.0034876889997712693
-0.970249253542377
-0.4558499148468883
0.0034876889997712693
-0.970249253542377
-0.4574284110587906
0.0011459061435396664
-0.9700515124841705
-0.4574284110587906
0.0011459061435396664
-0.9700515124841705
-0.4574284110587906
0.0011459061435396664
-0.9700515124841705
-0.4574284110587906
0.0011459061435396664
-0.9700515124841705
-0.45894048460730724
-0.0012632401508624479
-0.969664973454166
-0.45894048460730724
-0.0012632401508624479
-0.969664973454166
-0.45894048460730724
-0.0012632401508624479
-0.969664973454166
-0.45894048460730724
-0.0012632401508624479
-0.969664973454166
-0.4584976330423099
-0.004008350108418354
-0.969696039166202
-0.4584976330423099
-0.004008350108418354
-0.969696039166202
-0.4584976330423099
-0.004008350108418354
-0.969696039166202
-0.4584976330423099
-0.004008350108418354
-0.969696039166202
-0.4573085067768208
-0.007031848326102932
-0.9695491990118956
-0.4573085067768208
-0.007031848326102932
-0.9695491990118956
-0.4573085067768208
-0.007031848326102932
-0.9695491990118956
-0.4573085067768208
-0.007031848326102932
-0.9695491990118956
-0.4578533174588755
-0.010201850058137327
-0.9691472148119088
-0.4578533174588755
-0.010201850058137327
-0.9691472148119088
-0.4578533174588755
-0.010201850058137327
-0.9691472148119088
-0.4578533174588755
-0.010201850058137327
-0.9691472148119088
-0.4600115871208244
-0.012642299767244477
-0.9693065208531849
-0.4600115871208244
-0.012642299767244477
-0.9693065208531849
-0.4600115871208244
-0.012642299767244477
-0.9693065208531849
-0.4600115871208244
-0.012642299767244477
-0.9693065208531849
-0.462542290025837
-0.01437104687648639
-0.9697361983901713
-0.462542290025837
-0.01437104687648639
-0.9697361983901713
-0.462542290025837
-0.01437104687648639
-0.9697361983901713
-0.462542290025837
-0.01437104687648639
-0.9697361983901713
-0.46506227889356017
-0.015157696274644064
-0.9704436172727682
-0.46506227889356017
-0.015157696274644064
-0.9704436172727682
-0.46506227889356017
-0.015157696274644064
-0.9704436172727682
-0.46506227889356017
-0.015157696274644064
-0.9704436172727682
-0.4666622191125131
-0.013456779399469812
-0.9704502537091535
-0.4666622191125131
-0.013456779399469812
-0.9704502537091535
-0.4666622191125131
-0.013456779399469812
-0.9704502537091535
-0.4666622191125131
-0.013456779399469812
-0.9704502537091535
-0.466376128281183
-0.010052830588348993
-0.9710325084643892
-0.466376128281183
-0.010052830588348993
-0.9710325084643892
-0.466376128281183
-0.010052830588348993
-0.9710325084643892
-0.466376128281183
-0.010052830588348993
-0.9710325084643892
-0.4667235305051887
-0.006924053574634441
-0.970822035241212
-0.4667235305051887
-0.006924053574634441
-0.970822035241212
-0.4667235305051887
-0.006924053574634441
-0.970822035241212
-0.4667235305051887
-0.006924053574634441
-0.970822035241212
-0.4709817181116789
-0.0023423250507515073
-0.9707500067948236
-0.4709817181116789
-0.0023423250507515073
-0.9707500067948236
-0.4709817181116789
-0.0023423250507515073
-0.9707500067948236
-0.4709817181116789
-0.0023423250507515073
-0.9707500067948236
-0.4752250678051342
0.003806869900091957
-0.9730424091450138
-0.4752250678051342
0.003806869900091957
-0.9730424091450138
-0.4752250678051342
0.003806869900091957
-0.9730424091450138
-0.4752250678051342
0.003806869900091957
-0.9730424091450138
-0.48003631264802765
0.015316435525103783
-0.9791019806377856
-0.48003631264802765
0.015316435525103783
-0.9791019806377856
-0.48003631264802765
0.015316435525103783
-0.9791019806377856
-0.48003631264802765
0.015316435525103783
-0.9791019806377856
-0.4869036233761315
0.03121949463368557
-0.9862487726343381
-0.4869036233761315
0.03121949463368557
-0.9862487726343381
-0.4869036233761315
0.03121949463368557
-0.9862487726343381
-0.4869036233761315
0.03121949463368557
-0.9862487726343381
-0.48711329426670036
0.045846588897238846
-0.9898954114446636
-0.48711329426670036
0.045846588897238846
-0.9898954114446636
-0.48711329426670036
0.045846588897238846
-0.9898954114446636
-0.48711329426670036
0.045846588897238846
-0.9898954114446636
-0.4825715914908083
0.0577642300260674
-0.9885921356877748
-0.4825715914908083
0.0577642300260674
-0.9885921356877748
-0.4825715914908083
0.0577642300260674
-0.9885921356877748
-0.4825715914908083
0.0577642300260674
-0.9885921356877748
-0.4782159040470584
0.0696062593820796
-0.9928513181523628
-0.4782159040470584
0.0696062593820796
-0.9928513181523628
-0.4782159040470584
0.0696062593820796
-0.9928513181523628
-0.4782159040470584
0.0696062593820796
-0.9928513181523628
-0.486667099299507
0.08168464324333703
-0.9976343288333512
-0.486667099299507
0.08168464324333703
-0.9976343288333512
-0.486667099299507
0.08168464324333703
-0.9976343288333512
-0.486667099299507
0.08168464324333703
-0.9976343288333512
-0.5059290472793915
0.09122395215047546
-1.0008463996433954
-0.5059290472793915
0.09122395215047546
-1.0008463996433954
-0.5059290472793915
0.09122395215047546
-1.0008463996433954
-0.5059290472793915
0.09122395215047546
-1.0008463996433954
-0.5192091627178322
0.09665379308779624
-1.0021830994354701
-0.5192091627178322
0.09665379308779624
-1.0021830994354701
-0.5192091627178322
0.09665379308779624
-1.0021830994354701
-0.5192091627178322
0.09665379308779624
-1.0021830994354701
-0.5199872751665778
0.10004722817396025
-1.0044961774426417
-0.5199872751665778
0.10004722817396025
-1.0044961774426417
-0.5199872751665778
0.10004722817396025
-1.0044961774426417
-0.5199872751665778
0.10004722817396025
-1.0044961774426417
-0.5180772149188138
0.10037949465465083
-1.0092200105643203
-0.5180772149188138
0.10037949465465083
-1.0092200105643203
-0.5180772149188138
0.10037949465465083
-1.0092200105643203
-0.5180772149188138
0.10037949465465083
-1.0092200105643203
-0.5137861185599419
0.09608144583213957
-1.018789048111818
-0.5137861185599419
0.09608144583213957
-1.018789048111818
-0.5137861185599419
0.09608144583213957
-1.018789048111818
-0.5137861185599419
0.09608144583213957
-1.018789048111818
-0.509059772454617
0.086318419092071
-1.0254360165359384
-0.509059772454617
0.086318419092071
-1.0254360165359384
-0.509059772454617
0.086318419092071
-1.0254360165359384
-0.509059772454617
0.086318419092071
-1.0254360165359384
-0.5003774910180749
0.07252846720784055
-1.027216233535973
-0.5003774910180749
0.07252846720784055
-1.027216233535973
-0.5003774910180749
0.07252846720784055
-1.027216233535973
-0.5003774910180749
0.07252846720784055
-1.027216233535973
-0.49537880226812137
0.055113733921523765
-1.0247976735532933
-0.49537880226812137
0.055113733921523765
-1.0247976735532933
-0.49537880226812137
0.055113733921523765
-1.0247976735532933
-0.49537880226812137
0.055113733921523765
-1.0247976735532933
-0.5042980104582422
0.03922053083908462
-1.0243149395199342
-0.5042980104582422
0.03922053083908462
-1.0243149395199342
-0.5042980104582422
0.03922053083908462
-1.0243149395199342
-0.5042980104582422
0.03922053083908462
-1.0243149395199342
-0.5169489272538025
0.024024675451230815
-1.024314418698565
-0.5169489272538025
0.024024675451230815
-1.024314418698565
-0.5169489272538025
0.024024675451230815
-1.024314418698565
-0.5169489272538025
0.024024675451230815
-1.024314418698565
-0.5219808000148123
0.012492866818440237
-1.0221481240795263
-0.5219808000148123
0.012492866818440237
-1.0221481240795263
-0.5219808000148123
0.012492866818440237
-1.0221481240795263
-0.5219808000148123
0.012492866818440237
-1.0221481240795263
-0.5166384183430238
0.004595745683304923
-1.0189432725266285
-0.5166384183430238
0.004595745683304923
-1.0189432725266285
-0.5166384183430238
0.004595745683304923
-1.0189432725266285
-0.5166384183430238
0.004595745683304923
-1.0189432725266285
-0.5095812405716826
0.0013142075856315335
-1.0188887929806734
-0.5095812405716826
0.0013142075856315335
-1.0188887929806734
-0.5095812405716826
0.0013142075856315335
-1.0188887929806734
-0.5095812405716826
0.0013142075856315335
-1.0188887929806734
-0.5033536782995226
4.7154601688203347E-4
-1.0210758978048544
-0.5033536782995226
4.7154601688203347E-4
-1.0210758978048544
-0.5033536782995226
4.7154601688203347E-4
-1.0210758978048544
-0.5033536782995226
4.7154601688203347E-4
-1.0210758978048544
-0.5030515368432313
0.00331690642048264
-1.0219169564874089
-0.5030515368432313
0.00331690642048264
-1.0219169564874089
-0.5030515368432313
0.00331690642048264
-1.0219169564874089
-0.5030515368432313
0.00331690642048264
-1.0219169564874089
-0.507505810610699
0.007723888669595449
-1.0197889706171268
-0.507505810610699
0.007723888669595449
-1.0197889706171268
-0.507505810610699
0.007723888669595449
-1.0197889706171268
-0.507505810610699
0.007723888669595449
-1.0197889706171268
-0.512323983892013
0.012727752829197848
-1.0158146948419762
-0.512323983892013
0.012727752829197848
-1.0158146948419762
-0.512323983892013
0.012727752829197848
-1.0158146948419762
-0.512323983892013
0.012727752829197848
-1.0158146948419762
-0.5133744672526321
0.01801955829237544
-1.0137781676885482
-0.5133744672526321
0.01801955829237544
-1.0137781676885482
-0.5133744672526321
0.01801955829237544
-1.0137781676885482
-0.5133744672526321
0.01801955829237544
-1.0137781676885482
-0.5100897592185758
0.023330922041166435
-1.013626635926164
-0.5100897592185758
0.023330922041166435
-1.013626635926164
-0.5100897592185758
0.023330922041166435
-1.013626635926164
-0.5100897592185758
0.023330922041166435
-1.013626635926164
-0.5048319220042596
0.028587224990985177
-1.014639713032943
-0.5048319220042596
0.028587224990985177
-1.014639713032943
-0.5048319220042596
0.028587224990985177
-1.014639713032943
-0.5048319220042596
0.028587224990985177
-1.014639713032943
-0.5027285880749219
0.03181771456377891
-1.0127091457436077
-0.5027285880749219
0.03181771456377891
-1.0127091457436077
-0.5027285880749219
0.03181771456377891
-1.0127091457436077
-0.5027285880749219
0.03181771456377891
-1.0127091457436077
-0.5017258927043344
0.036053005085858555
-1.009542743941949
-0.5017258927043344
0.036053005085858555
-1.009542743941949
-0.5017258927043344
0.036053005085858555
-1.009542743941949
-0.5017258927043344
0.036053005085858555
-1.009542743941949
-0.5031409273053981
0.03730750549769363
-1.0024582421975485
-0.5031409273053981
0.03730750549769363
-1.0024582421975485
-0.5031409273053981
0.03730750549769363
-1.0024582421975485
-0.5031409273053981
0.03730750549769363
-1.0024582421975485
-0.5027468311888229
0.03887208944907737
-0.9935465317264648
-0.5027468311888229
0.03887208944907737
-0.9935465317264648
-0.5027468311888229
0.03887208944907737
-0.9935465317264648
-0.5027468311888229
0.03887208944907737
-0.9935465317264648
-0.4971306610232843
0.04061692659180159
-0.9817186778721294
-0.4971306610232843
0.04061692659180159
-0.9817186778721294
-0.4971306610232843
0.04061692659180159
-0.9817186778721294
-0.4971306610232843
0.04061692659180159
-0.9817186778721294
-0.4907882261406686
0.04054963422318933
-0.9721834638761009
-0.4907882261406686
0.04054963422318933
-0.9721834638761009
-0.4907882261406686
0.04054963422318933
-0.9721834638761009
-0.4907882261406686
0.04054963422318933
-0.9721834638761009
-0.495884208835437
0.03154027180171167
-0.9747062471477803
-0.495884208835437
0.03154027180171167
-0.9747062471477803
-0.495884208835437
0.03154027180171167
-0.9747062471477803
-0.495884208835437
0.03154027180171167
-0.9747062471477803
-0.4757136376489042
0.025382320336192945
-0.9727756778223958
-0.4757136376489042
0.025382320336192945
-0.9727756778223958
-0.4757136376489042
0.025382320336192945
-0.9727756778223958
-0.4757136376489042
0.025382320336192945
-0.9727756778223958
-0.45570142572649686
0.01857834068110888
-0.9634355400817577
-0.45570142572649686
0.01857834068110888
-0.9634355400817577
-0.45570142572649686
0.01857834068110888
-0.9634355400817577
-0.45570142572649686
0.01857834068110888
-0.9634355400817577
-0.43103234018519215
0.010258666187640543
-0.9634086184578181
-0.43103234018519215
0.010258666187640543
-0.9634086184578181
-0.43103234018519215
0.010258666187640543
-0.9634086184578181
-0.43103234018519215
0.010258666187640543
-0.9634086184578181
-0.42443523733489813
-0.001016490120192122
-0.9597457349602491
-0.42443523733489813
-0.001016490120192122
-0.9597457349602491
-0.42443523733489813
-0.001016490120192122
-0.9597457349602491
-0.42443523733489813
-0.001016490120192122
-0.9597457349602491
-0.44297902846314596
-0.011620425986539321
-0.9490770448221224
-0.44297902846314596
-0.011620425986539321
-0.9490770448221224
-0.44297902846314596
-0.011620425986539321
-0.9490770448221224
-0.44297902846314596
-0.011620425986539321
-0.9490770448221224
-0.4464395193632721
-0.01946874875131805
-0.9425262010817379
-0.4464395193632721
-0.01946874875131805
-0.9425262010817379
-0.4464395193632721
-0.01946874875131805
-0.9425262010817379
-0.4464395193632721
-0.01946874875131805
-0.9425262010817379
-0.4445612502230671
-0.02642924338782884
-0.9422001134279869
-0.4445612502230671
-0.02642924338782884
-0.9422001134279869
-0.4445612502230671
-0.02642924338782884
-0.9422001134279869
-0.4445612502230671
-0.02642924338782884
-0.9422001134279869
-0.4362132615679547
-0.030588912906019793
-0.9404234136522877
-0.4362132615679547
-0.030588912906019793
-0.9404234136522877
-0.4362132615679547
-0.030588912906019793
-0.9404234136522877
-0.4362132615679547
-0.030588912906019793
-0.9404234136522877
-0.42812067608473703
-0.034748790410566735
-0.9362795912419214
-0.42812067608473703
-0.034748790410566735
-0.9362795912419214
-0.42812067608473703
-0.034748790410566735
-0.9362795912419214
-0.42812067608473703
-0.034748790410566735
-0.9362795912419214
-0.42956532244188494
-0.03678111863403431
-0.9358121269480038
-0.42956532244188494
-0.03678111863403431
-0.9358121269480038
-0.42956532244188494
-0.03678111863403431
-0.9358121269480038
-0.42956532244188494
-0.03678111863403431
-0.9358121269480038
-0.428423052161525
-0.037613810792760084
-0.9383899724346452
-0.428423052161525
-0.037613810792760084
-0.9383899724346452
-0.428423052161525
-0.037613810792760084
-0.9383899724346452
-0.428423052161525
-0.037613810792760084
-0.9383899724346452
-0.43035966846944074
-0.03828533257384385
-0.938823523647221
-0.43035966846944074
-0.03828533257384385
-0.938823523647221
-0.43035966846944074
-0.03828533257384385
-0.938823523647221
-0.43035966846944074
-0.03828533257384385
-0.938823523647221
-0.4311936469254037
-0.036736986223434374
-0.9393712299096677
-0.4311936469254037
-0.036736986223434374
-0.9393712299096677
-0.4311936469254037
-0.036736986223434374
-0.9393712299096677
-0.4311936469254037
-0.036736986223434374
-0.9393712299096677
-0.4277400573175556
-0.03322615172739164
-0.9421473684652718
-0.4277400573175556
-0.03322615172739164
-0.9421473684652718
-0.4277400573175556
-0.03322615172739164
-0.9421473684652718
-0.4277400573175556
-0.03322615172739164
-0.9421473684652718
-0.4259490626709272
-0.028425504229696964
-0.9448324122262666
-0.4259490626709272
-0.028425504229696964
-0.9448324122262666
-0.4259490626709272
-0.028425504229696964
-0.9448324122262666
-0.4259490626709272
-0.028425504229696964
-0.9448324122262666
-0.430022407505842
-0.02502149444808084
-0.9459157001412798
-0.430022407505842
-0.02502149444808084
-0.9459157001412798
-0.430022407505842
-0.02502149444808084
-0.9459157001412798
-0.430022407505842
-0.02502149444808084
-0.9459157001412798
-0.4327141623080595
-0.022860257372238315
-0.9463622365721861
-0.4327141623080595
-0.022860257372238315
-0.9463622365721861
-0.4327141623080595
-0.022860257372238315
-0.9463622365721861
-0.4327141623080595
-0.022860257372238315
-0.9463622365721861
-0.4316861563393025
-0.019404225640503304
-0.9464590725405696
-0.4316861563393025
-0.019404225640503304
-0.9464590725405696
-0.4316861563393025
-0.019404225640503304
-0.9464590725405696
-0.4316861563393025
-0.019404225640503304
-0.9464590725405696
-0.43171543848522487
-0.015194260527028772
-0.9463753901055574
-0.43171543848522487
-0.015194260527028772
-0.9463753901055574
-0.43171543848522487
-0.015194260527028772
-0.9463753901055574
-0.43171543848522487
-0.015194260527028772
-0.9463753901055574
-0.4320796632214407
-0.012583590736666126
-0.9451576912029169
-0.4320796632214407
-0.012583590736666126
-0.9451576912029169
-0.4320796632214407
-0.012583590736666126
-0.9451576912029169
-0.4320796632214407
-0.012583590736666126
-0.9451576912029169
-0.432562978793661
-0.010094380375598204
-0.9429638919581056
-0.432562978793661
-0.010094380375598204
-0.9429638919581056
-0.432562978793661
-0.010094380375598204
-0.9429638919581056
-0.432562978793661
-0.010094380375598204
-0.9429638919581056
-0.43312237505796397
-0.008774049582937146
-0.9420222460681178
-0.43312237505796397
-0.008774049582937146
-0.9420222460681178
-0.43312237505796397
-0.008774049582937146
-0.9420222460681178
-0.43312237505796397
-0.008774049582937146
-0.9420222460681178
-0.4339209368485528
-0.008259624053557854
-0.9416866225332663
-0.4339209368485528
-0.008259624053557854
-0.9416866225332663
-0.4339209368485528
-0.008259624053557854
-0.9416866225332663
-0.4339209368485528
-0.008259624053557854
-0.9416866225332663
-0.4348592195877944
-0.009256102845473591
-0.9408488030434855
-0.4348592195877944
-0.009256102845473591
-0.9408488030434855
-0.4348592195877944
-0.009256102845473591
-0.9408488030434855
-0.4348592195877944
-0.009256102845473591
-0.9408488030434855
-0.4343822265648984
-0.011982988944058571
-0.9403039483663418
-0.4343822265648984
-0.011982988944058571
-0.9403039483663418
-0.4343822265648984
-0.011982988944058571
-0.9403039483663418
-0.4343822265648984
-0.011982988944058571
-0.9403039483663418
-0.43405317777745506
-0.015173153046337252
-0.940329731321635
-0.43405317777745506
-0.015173153046337252
-0.940329731321635
-0.43405317777745506
-0.015173153046337252
-0.940329731321635
-0.43405317777745506
-0.015173153046337252
-0.940329731321635
-0.4338034121183299
-0.018729804573560913
-0.940497749769032
-0.4338034121183299
-0.018729804573560913
-0.940497749769032
-0.4338034121183299
-0.018729804573560913
-0.940497749769032
-0.4338034121183299
-0.018729804573560913
-0.940497749769032
-0.43463010274316327
-0.022549380832307172
-0.9400394618495976
-0.43463010274316327
-0.022549380832307172
-0.9400394618495976
-0.43463010274316327
-0.022549380832307172
-0.9400394618495976
-0.43463010274316327
-0.022549380832307172
-0.9400394618495976
-0.43389488990798736
-0.026589347203649187
-0.9403869653265923
-0.43389488990798736
-0.026589347203649187
-0.9403869653265923
-0.43389488990798736
-0.026589347203649187
-0.9403869653265923
-0.43389488990798736
-0.026589347203649187
-0.9403869653265923
-0.433030742540273
-0.02860156791001873
-0.9406808738857363
-0.433030742540273
-0.02860156791001873
-0.9406808738857363
-0.433030742540273
-0.02860156791001873
-0.9406808738857363
-0.433030742540273
-0.02860156791001873
-0.9406808738857363
-0.4344320061985874
-0.030074097130959404
-0.9409536567559067
-0.4344320061985874
-0.030074097130959404
-0.9409536567559067
-0.4344320061985874
-0.030074097130959404
-0.9409536567559067
-0.4344320061985874
-0.030074097130959404
-0.9409536567559067
-0.43644084416543466
-0.03056143088327488
-0.9410421029141115
-0.43644084416543466
-0.03056143088327488
-0.9410421029141115
-0.43644084416543466
-0.03056143088327488
-0.9410421029141115
-0.43644084416543466
-0.03056143088327488
-0.9410421029141115
-0.435818586255534
-0.02898104507028468
-0.9410083909674231
-0.435818586255534
-0.02898104507028468
-0.9410083909674231
-0.435818586255534
-0.02898104507028468
-0.9410083909674231
-0.435818586255534
-0.02898104507028468
-0.9410083909674231
-0.43538068284985093
-0.02608798605622533
-0.9415980573558828
-0.43538068284985093
-0.02608798605622533
-0.9415980573558828
-0.43538068284985093
-0.02608798605622533
-0.9415980573558828
-0.43538068284985093
-0.02608798605622533
-0.9415980573558828
-0.43739972071053357
-0.02227690763383694
-0.9424774247900751
-0.43739972071053357
-0.02227690763383694
-0.9424774247900751
-0.43739972071053357
-0.02227690763383694
-0.9424774247900751
-0.43739972071053357
-0.02227690763383694
-0.9424774247900751
-0.4412300892187955
-0.017665193198784228
-0.943195694991869
-0.4412300892187955
-0.017665193198784228
-0.943195694991869
-0.4412300892187955
-0.017665193198784228
-0.943195694991869
-0.4412300892187955
-0.017665193198784228
-0.943195694991869
-0.4427063347688912
-0.013662143990025988
-0.9432463614802534
-0.4427063347688912
-0.013662143990025988
-0.9432463614802534
-0.4427063347688912
-0.013662143990025988
-0.9432463614802534
-0.4427063347688912
-0.013662143990025988
-0.9432463614802534
-0.4404961370853713
-0.01003863676493566
-0.9433973997331675
-0.4404961370853713
-0.01003863676493566
-0.9433973997331675
-0.4404961370853713
-0.01003863676493566
-0.9433973997331675
-0.4404961370853713
-0.01003863676493566
-0.9433973997331675
-0.44030301623353363
-0.005692345983825937
-0.9444824041611832
-0.44030301623353363
-0.005692345983825937
-0.9444824041611832
-0.44030301623353363
-0.005692345983825937
-0.9444824041611832
-0.44030301623353363
-0.005692345983825937
-0.9444824041611832
-0.443739018732241
-0.001935516432860455
-0.9455501654050189
-0.443739018732241
-0.001935516432860455
-0.9455501654050189
-0.443739018732241
-0.001935516432860455
-0.9455501654050189
-0.443739018732241
-0.001935516432860455
-0.9455501654050189
-0.445159386214848
-8.598530861337971E-5
-0.9447391400724298
-0.445159386214848
-8.598530861337971E-5
-0.9447391400724298
-0.445159386214848
-8.598530861337971E-5
-0.9447391400724298
-0.445159386214848
-8.598530861337971E-5
-0.9447391400724298
-0.4444266274521442
8.102727315018352E-4
-0.9442681619490872
-0.4444266274521442
8.102727315018352E-4
-0.9442681619490872
-0.4444266274521442
8.102727315018352E-4
-0.9442681619490872
-0.4444266274521442
8.102727315018352E-4
-0.9442681619490872
-0.4442122736645079
6.52356238786307E-4
-0.944232408085717
-0.4442122736645079
6.52356238786307E-4
-0.944232408085717
-0.4442122736645079
6.52356238786307E-4
-0.944232408085717
-0.4442122736645079
6.52356238786307E-4
-0.944232408085717
-0.4463118949963792
-0.0017562435210823095
-0.943914194756825
-0.4463118949963792
-0.0017562435210823095
-0.943914194756825
-0.4463118949963792
-0.0017562435210823095
-0.943914194756825
-0.4463118949963792
-0.0017562435210823095
-0.943914194756825
-0.44880615039620897
-0.004993468373921003
-0.9420579265239772
-0.44880615039620897
-0.004993468373921003
-0.9420579265239772
-0.44880615039620897
-0.004993468373921003
-0.9420579265239772
-0.44880615039620897
-0.004993468373921003
-0.9420579265239772
-0.4472784493087461
-0.00864288473374869
-0.9399416107882567
-0.4472784493087461
-0.00864288473374869
-0.9399416107882567
-0.4472784493087461
-0.00864288473374869
-0.9399416107882567
-0.4472784493087461
-0.00864288473374869
-0.9399416107882567
-0.4450161621608588
-0.012984521555865804
-0.9394136211779955
-0.4450161621608588
-0.012984521555865804
-0.9394136211779955
-0.4450161621608588
-0.012984521555865804
-0.9394136211779955
-0.4450161621608588
-0.012984521555865804
-0.9394136211779955
-0.4421339310688401
-0.018663142511838357
-0.9393832963769229
-0.4421339310688401
-0.018663142511838357
-0.9393832963769229
-0.4421339310688401
-0.018663142511838357
-0.9393832963769229
-0.4421339310688401
-0.018663142511838357
-0.9393832963769229
-0.4428828160016116
-0.026726892079830308
-0.9368915141821987
-0.4428828160016116
-0.026726892079830308
-0.9368915141821987
-0.4428828160016116
-0.026726892079830308
-0.9368915141821987
-0.4428828160016116
-0.026726892079830308
-0.9368915141821987
-0.443154940210637
-0.034718459300188395
-0.9333533392370413
-0.443154940210637
-0.034718459300188395
-0.9333533392370413
-0.443154940210637
-0.034718459300188395
-0.9333533392370413
-0.443154940210637
-0.034718459300188395
-0.9333533392370413
-0.4421539528227705
-0.03794001205169887
-0.932533850416855
-0.4421539528227705
-0.03794001205169887
-0.932533850416855
-0.4421539528227705
-0.03794001205169887
-0.932533850416855
-0.4421539528227705
-0.03794001205169887
-0.932533850416855
-0.44386519436464533
-0.037182634729661414
-0.9345768390558661
-0.44386519436464533
-0.037182634729661414
-0.9345768390558661
-0.44386519436464533
-0.037182634729661414
-0.9345768390558661
-0.44386519436464533
-0.037182634729661414
-0.9345768390558661
-0.4433233277966334
-0.03525533018610717
-0.9364757321135608
-0.4433233277966334
-0.03525533018610717
-0.9364757321135608
-0.4433233277966334
-0.03525533018610717
-0.9364757321135608
-0.4433233277966334
-0.03525533018610717
-0.9364757321135608
-0.4503799614015795
-0.03313846992950576
-0.9372359547602803
-0.4503799614015795
-0.03313846992950576
-0.9372359547602803
-0.4503799614015795
-0.03313846992950576
-0.9372359547602803
-0.4503799614015795
-0.03313846992950576
-0.9372359547602803
-0.4582922088936647
-0.0290139365457576
-0.9365616686828916
-0.4582922088936647
-0.0290139365457576
-0.9365616686828916
-0.4582922088936647
-0.0290139365457576
-0.9365616686828916
-0.4582922088936647
-0.0290139365457576
-0.9365616686828916
-0.4570263103222578
-0.020767499066939664
-0.9399528946959591
-0.4570263103222578
-0.020767499066939664
-0.9399528946959591
-0.4570263103222578
-0.020767499066939664
-0.9399528946959591
-0.4570263103222578
-0.020767499066939664
-0.9399528946959591
-0.45737216448608836
-0.005827419092069399
-0.9492001198245124
-0.45737216448608836
-0.005827419092069399
-0.9492001198245124
-0.45737216448608836
-0.005827419092069399
-0.9492001198245124
-0.45737216448608836
-0.005827419092069399
-0.9492001198245124
-0.46204708679003464
0.012300830111349217
-0.9603611152829867
-0.46204708679003464
0.012300830111349217
-0.9603611152829867
-0.46204708679003464
0.012300830111349217
-0.9603611152829867
-0.46204708679003464
0.012300830111349217
-0.9603611152829867
-0.4723160847072574
0.031312016515803634
-0.9696491482620945
-0.4723160847072574
0.031312016515803634
-0.9696491482620945
-0.4723160847072574
0.031312016515803634
-0.9696491482620945
-0.4723160847072574
0.031312016515803634
-0.9696491482620945
-0.47915059179645253
0.051110473658968515
-0.9751435650223063
-0.47915059179645253
0.051110473658968515
-0.9751435650223063
-0.47915059179645253
0.051110473658968515
-0.9751435650223063
-0.47915059179645253
0.051110473658968515
-0.9751435650223063
-0.48265030003734216
0.06624910954648586
-0.9783133767890928
-0.48265030003734216
0.06624910954648586
-0.9783133767890928
-0.48265030003734216
0.06624910954648586
-0.9783133767890928
-0.48265030003734216
0.06624910954648586
-0.9783133767890928
-0.4929895995866034
0.07550914606195192
-0.9872006592915618
-0.4929895995866034
0.07550914606195192
-0.9872006592915618
-0.4929895995866034
0.07550914606195192
-0.9872006592915618
-0.4929895995866034
0.07550914606195192
-0.9872006592915618
-0.49548770956818716
0.08866908226729542
-0.993645665213427
-0.49548770956818716
0.08866908226729542
-0.993645665213427
-0.49548770956818716
0.08866908226729542
-0.993645665213427
-0.49548770956818716
0.08866908226729542
-0.993645665213427
-0.50150636858878
0.09576697271445958
-0.9958476679093615
-0.50150636858878
0.09576697271445958
-0.9958476679093615
-0.50150636858878
0.09576697271445958
-0.9958476679093615
-0.50150636858878
0.09576697271445958
-0.9958476679093615
-0.4997041762078453
0.09772121339293392
-0.9972066103638051
-0.4997041762078453
0.09772121339293392
-0.9972066103638051
-0.4997041762078453
0.09772121339293392
-0.9972066103638051
-0.4997041762078453
0.09772121339293392
-0.9972066103638051
-0.4949639069760044
0.09301863013396687
-1.0017720622173614
-0.4949639069760044
0.09301863013396687
-1.0017720622173614
-0.4949639069760044
0.09301863013396687
-1.0017720622173614
-0.4949639069760044
0.09301863013396687
-1.0017720622173614
-0.4908122208432251
0.08596010987244336
-1.004493732283861
-0.4908122208432251
0.08596010987244336
-1.004493732283861
-0.4908122208432251
0.08596010987244336
-1.004493732283861
-0.4908122208432251
0.08596010987244336
-1.004493732283861
-0.49128947108303633
0.07899595557685897
-1.007270812388491
-0.49128947108303633
0.07899595557685897
-1.007270812388491
-0.49128947108303633
0.07899595557685897
-1.007270812388491
-0.49128947108303633
0.07899595557685897
-1.007270812388491
-0.49142624368706844
0.06870250676925924
-1.008964670152168
-0.49142624368706844
0.06870250676925924
-1.008964670152168
-0.49142624368706844
0.06870250676925924
-1.008964670152168
-0.49142624368706844
0.06870250676925924
-1.008964670152168
-0.48947866628602443
0.05577263900511265
-1.0070407174709888
-0.48947866628602443
0.05577263900511265
-1.0070407174709888
-0.48947866628602443
0.05577263900511265
-1.0070407174709888
-0.48947866628602443
0.05577263900511265
-1.0070407174709888
-0.4874437580502756
0.04012827683423831
-1.0047473260122022
-0.4874437580502756
0.04012827683423831
-1.0047473260122022
-0.4874437580502756
0.04012827683423831
-1.0047473260122022
-0.4874437580502756
0.04012827683423831
-1.0047473260122022
-0.4893281155214746
0.02323733644023848
-1.0031095186463777
-0.4893281155214746
0.02323733644023848
-1.0031095186463777
-0.4893281155214746
0.02323733644023848
-1.0031095186463777
-0.4893281155214746
0.02323733644023848
-1.0031095186463777
-0.4933452697287162
0.006684739576355313
-1.0013913686937175
-0.4933452697287162
0.006684739576355313
-1.0013913686937175
-0.4933452697287162
0.006684739576355313
-1.0013913686937175
-0.4933452697287162
0.006684739576355313
-1.0013913686937175
-0.4971597878580504
-0.007378812216594377
-1.000519388943504
-0.4971597878580504
-0.007378812216594377
-1.000519388943504
-0.4971597878580504
-0.007378812216594377
-1.000519388943504
-0.4971597878580504
-0.007378812216594377
-1.000519388943504
-0.4961763288373106
-0.016219093067585878
-1.0001931249859108
-0.4961763288373106
-0.016219093067585878
-1.0001931249859108
-0.4961763288373106
-0.016219093067585878
-1.0001931249859108
-0.4961763288373106
-0.016219093067585878
-1.0001931249859108
-0.49401088671618143
-0.019666909925102213
-1.001460739821915
-0.49401088671618143
-0.019666909925102213
-1.001460739821915
-0.49401088671618143
-0.019666909925102213
-1.001460739821915
-0.49401088671618143
-0.019666909925102213
-1.001460739821915
-0.4945026608743737
-0.01843143215193562
-1.003405719305412
-0.4945026608743737
-0.01843143215193562
-1.003405719305412
-0.4945026608743737
-0.01843143215193562
-1.003405719305412
-0.4945026608743737
-0.01843143215193562
-1.003405719305412
-0.49565713670263517
-0.01305805888990689
-1.0040317402605081
-0.49565713670263517
-0.01305805888990689
-1.0040317402605081
-0.49565713670263517
-0.01305805888990689
-1.0040317402605081
-0.49565713670263517
-0.01305805888990689
-1.0040317402605081
-0.49587183786487843
-0.004053595021054907
-1.0031542517758152
-0.49587183786487843
-0.004053595021054907
-1.0031542517758152
-0.49587183786487843
-0.004053595021054907
-1.0031542517758152
-0.49587183786487843
-0.004053595021054907
-1.0031542517758152
-0.4950800157786693
0.007928147679015183
-1.00290770100476
-0.4950800157786693
0.007928147679015183
-1.00290770100476
-0.4950800157786693
0.007928147679015183
-1.00290770100476
-0.4950800157786693
0.007928147679015183
-1.00290770100476
-0.4930617245037971
0.020047241236332534
-1.0043010804785446
-0.4930617245037971
0.020047241236332534
-1.0043010804785446
-0.4930617245037971
0.020047241236332534
-1.0043010804785446
-0.4930617245037971
0.020047241236332534
-1.0043010804785446
-0.49212386042561346
0.03215471039622681
-1.0051323174169204
-0.49212386042561346
0.03215471039622681
-1.0051323174169204
-0.49212386042561346
0.03215471039622681
-1.0051323174169204
-0.49212386042561346
0.03215471039622681
-1.0051323174169204
-0.4888240930162706
0.04352049008916803
-1.0042865436233734
-0.4888240930162706
0.04352049008916803
-1.0042865436233734
-0.4888240930162706
0.04352049008916803
-1.0042865436233734
-0.4888240930162706
0.04352049008916803
-1.0042865436233734
-0.48767510881382653
0.053229963629630825
-0.999355972343339
-0.48767510881382653
0.053229963629630825
-0.999355972343339
-0.48767510881382653
0.053229963629630825
-0.999355972343339
-0.48767510881382653
0.053229963629630825
-0.999355972343339
-0.48778931822118654
0.062440777105032326
-0.995354048479874
-0.48778931822118654
0.062440777105032326
-0.995354048479874
-0.48778931822118654
0.062440777105032326
-0.995354048479874
-0.48778931822118654
0.062440777105032326
-0.995354048479874
-0.4937003995694774
0.06949254765058951
-0.9922462788125178
-0.4937003995694774
0.06949254765058951
-0.9922462788125178
-0.4937003995694774
0.06949254765058951
-0.9922462788125178
-0.4937003995694774
0.06949254765058951
-0.9922462788125178
-0.4973046336353981
0.07632655285707741
-0.989858842169234
-0.4973046336353981
0.07632655285707741
-0.989858842169234
-0.4973046336353981
0.07632655285707741
-0.989858842169234
-0.4973046336353981
0.07632655285707741
-0.989858842169234
-0.4806238014412505
0.0770944008105168
-0.9863569109645215
-0.4806238014412505
0.0770944008105168
-0.9863569109645215
-0.4806238014412505
0.0770944008105168
-0.9863569109645215
-0.4806238014412505
0.0770944008105168
-0.9863569109645215
-0.45588067362743395
0.07424414809100047
-0.984118491877252
-0.45588067362743395
0.07424414809100047
-0.984118491877252
-0.45588067362743395
0.07424414809100047
-0.984118491877252
-0.45588067362743395
0.07424414809100047
-0.984118491877252
-0.4342838368854875
0.06427875405925987
-0.9771655921543047
-0.4342838368854875
0.06427875405925987
-0.9771655921543047
-0.4342838368854875
0.06427875405925987
-0.9771655921543047
-0.4342838368854875
0.06427875405925987
-0.9771655921543047
-0.4068156243014777
0.053195379880921406
-0.9721724123402503
-0.4068156243014777
0.053195379880921406
-0.9721724123402503
-0.4068156243014777
0.053195379880921406
-0.9721724123402503
-0.4068156243014777
0.053195379880921406
-0.9721724123402503
-0.4104524528886686
0.047542215994659846
-0.9553213157711101
-0.4104524528886686
0.047542215994659846
-0.9553213157711101
-0.4104524528886686
0.047542215994659846
-0.9553213157711101
-0.4104524528886686
0.047542215994659846
-0.9553213157711101
-0.41637900727373583
0.039062657072900436
-0.9431378963747133
-0.41637900727373583
0.039062657072900436
-0.9431378963747133
-0.41637900727373583
0.039062657072900436
-0.9431378963747133
-0.41637900727373583
0.039062657072900436
-0.9431378963747133
-0.4218644315030425
0.023706262682755535
-0.9367820537099364
-0.4218644315030425
0.023706262682755535
-0.9367820537099364
-0.4218644315030425
0.023706262682755535
-0.9367820537099364
-0.4218644315030425
0.023706262682755535
-0.9367820537099364
-0.4128184061936895
0.008299208667132288
-0.931877561838411
-0.4128184061936895
0.008299208667132288
-0.931877561838411
-0.4128184061936895
0.008299208667132288
-0.931877561838411
-0.4128184061936895
0.008299208667132288
-0.931877561838411
-0.4078254669104841
-0.008719089072690372
-0.9311784518417648
-0.4078254669104841
-0.008719089072690372
-0.9311784518417648
-0.4078254669104841
-0.008719089072690372
-0.9311784518417648
-0.4078254669104841
-0.008719089072690372
-0.9311784518417648
-0.41005841639317375
-0.027410324365518584
-0.9344205632562296
-0.41005841639317375
-0.027410324365518584
-0.9344205632562296
-0.41005841639317375
-0.027410324365518584
-0.9344205632562296
-0.41005841639317375
-0.027410324365518584
-0.9344205632562296
-0.41539677206324926
-0.04397463633110604
-0.9384512251057313
-0.41539677206324926
-0.04397463633110604
-0.9384512251057313
-0.41539677206324926
-0.04397463633110604
-0.9384512251057313
-0.41539677206324926
-0.04397463633110604
-0.9384512251057313
-0.41690289136587755
-0.05326874092023509
-0.9403623560073491
-0.41690289136587755
-0.05326874092023509
-0.9403623560073491
-0.41690289136587755
-0.05326874092023509
-0.9403623560073491
-0.41690289136587755
-0.05326874092023509
-0.9403623560073491
-0.4192677356302462
-0.05446569716782024
-0.9421707097390475
-0.4192677356302462
-0.05446569716782024
-0.9421707097390475
-0.4192677356302462
-0.05446569716782024
-0.9421707097390475
-0.4192677356302462
-0.05446569716782024
-0.9421707097390475
-0.4239789228392336
-0.04936875892275976
-0.9441513942479363
-0.4239789228392336
-0.04936875892275976
-0.9441513942479363
-0.4239789228392336
-0.04936875892275976
-0.9441513942479363
-0.4239789228392336
-0.04936875892275976
-0.9441513942479363
-0.42742981441773553
-0.042419188937947806
-0.9451312005451743
-0.42742981441773553
-0.042419188937947806
-0.9451312005451743
-0.42742981441773553
-0.042419188937947806
-0.9451312005451743
-0.42742981441773553
-0.042419188937947806
-0.9451312005451743
-0.4289886320712176
-0.035528454207407856
-0.9452050960394319
-0.4289886320712176
-0.035528454207407856
-0.9452050960394319
-0.4289886320712176
-0.035528454207407856
-0.9452050960394319
-0.4289886320712176
-0.035528454207407856
-0.9452050960394319
-0.4321509311405892
-0.03136133520733655
-0.9431053350066535
-0.4321509311405892
-0.03136133520733655
-0.9431053350066535
-0.4321509311405892
-0.03136133520733655
-0.9431053350066535
-0.4321509311405892
-0.03136133520733655
-0.9431053350066535
-0.43325598063164933
-0.02693776987174906
-0.941491480360446
-0.43325598063164933
-0.02693776987174906
-0.941491480360446
-0.43325598063164933
-0.02693776987174906
-0.941491480360446
-0.43325598063164933
-0.02693776987174906
-0.941491480360446
-0.430039401414825
-0.021642902550879473
-0.9401705499281752
-0.430039401414825
-0.021642902550879473
-0.9401705499281752
-0.430039401414825
-0.021642902550879473
-0.9401705499281752
-0.430039401414825
-0.021642902550879473
-0.9401705499281752
-0.42465750496512183
-0.017649123198859067
-0.9389601559610367
-0.42465750496512183
-0.017649123198859067
-0.9389601559610367
-0.42465750496512183
-0.017649123198859067
-0.9389601559610367
-0.42465750496512183
-0.017649123198859067
-0.9389601559610367
-0.4265078841123562
-0.017177979193959032
-0.9382661298308614
-0.4265078841123562
-0.017177979193959032
-0.9382661298308614
-0.4265078841123562
-0.017177979193959032
-0.9382661298308614
-0.4265078841123562
-0.017177979193959032
-0.9382661298308614
-0.4296456450475789
-0.016600639967135625
-0.9373071723767703
-0.4296456450475789
-0.016600639967135625
-0.9373071723767703
-0.4296456450475789
-0.016600639967135625
-0.9373071723767703
-0.4296456450475789
-0.016600639967135625
-0.9373071723767703
-0.4296556096014148
-0.014884257265609203
-0.9371228544843786
-0.4296556096014148
-0.014884257265609203
-0.9371228544843786
-0.4296556096014148
-0.014884257265609203
-0.9371228544843786
-0.4296556096014148
-0.014884257265609203
-0.9371228544843786
-0.42757669030973533
-0.013161653148077983
-0.9385152899091879
-0.42757669030973533
-0.013161653148077983
-0.9385152899091879
-0.42757669030973533
-0.013161653148077983
-0.9385152899091879
-0.42757669030973533
-0.013161653148077983
-0.9385152899091879
-0.42948164069500555
-0.013860359557098622
-0.9398619365967029
-0.42948164069500555
-0.013860359557098622
-0.9398619365967029
-0.42948164069500555
-0.013860359557098622
-0.9398619365967029
-0.42948164069500555
-0.013860359557098622
-0.9398619365967029
-0.43315899576737643
-0.01682673574449697
-0.9397480173427418
-0.43315899576737643
-0.01682673574449697
-0.9397480173427418
-0.43315899576737643
-0.01682673574449697
-0.9397480173427418
-0.43315899576737643
-0.01682673574449697
-0.9397480173427418
-0.4353815134212502
-0.02059538112943186
-0.9390106185756818
-0.4353815134212502
-0.02059538112943186
-0.9390106185756818
-0.4353815134212502
-0.02059538112943186
-0.9390106185756818
-0.4353815134212502
-0.02059538112943186
-0.9390106185756818
-0.4365333456616905
-0.024729173624533123
-0.9392018570403916
-0.4365333456616905
-0.024729173624533123
-0.9392018570403916
-0.4365333456616905
-0.024729173624533123
-0.9392018570403916
-0.4365333456616905
-0.024729173624533123
-0.9392018570403916
-0.4350099295363793
-0.029374745586215237
-0.9390310030653336
-0.4350099295363793
-0.029374745586215237
-0.9390310030653336
-0.4350099295363793
-0.029374745586215237
-0.9390310030653336
-0.4350099295363793
-0.029374745586215237
-0.9390310030653336
-0.43417123622748255
-0.03501479788474914
-0.9380222509752139
-0.43417123622748255
-0.03501479788474914
-0.9380222509752139
-0.43417123622748255
-0.03501479788474914
-0.9380222509752139
-0.43417123622748255
-0.03501479788474914
-0.9380222509752139
-0.4338435938454533
-0.04007192129586573
-0.9376406931462273
-0.4338435938454533
-0.04007192129586573
-0.9376406931462273
-0.4338435938454533
-0.04007192129586573
-0.9376406931462273
-0.4338435938454533
-0.04007192129586573
-0.9376406931462273
-0.43282132041470694
-0.043298983260844644
-0.9381247752494568
-0.43282132041470694
-0.043298983260844644
-0.9381247752494568
-0.43282132041470694
-0.043298983260844644
-0.9381247752494568
-0.43282132041470694
-0.043298983260844644
-0.9381247752494568
-0.4332396178930393
-0.046408439421815356
-0.9397811164484697
-0.4332396178930393
-0.046408439421815356
-0.9397811164484697
-0.4332396178930393
-0.046408439421815356
-0.9397811164484697
-0.4332396178930393
-0.046408439421815356
-0.9397811164484697
-0.43339282984765126
-0.04846975368870647
-0.9404987501533997
-0.43339282984765126
-0.04846975368870647
-0.9404987501533997
-0.43339282984765126
-0.04846975368870647
-0.9404987501533997
-0.43339282984765126
-0.04846975368870647
-0.9404987501533997
-0.43335178382861295
-0.04819331815069175
-0.9417900115923409
-0.43335178382861295
-0.04819331815069175
-0.9417900115923409
-0.43335178382861295
-0.04819331815069175
-0.9417900115923409
-0.43335178382861295
-0.04819331815069175
-0.9417900115923409
-0.43549454807269405
-0.04536368593433905
-0.94354146783126
-0.43549454807269405
-0.04536368593433905
-0.94354146783126
-0.43549454807269405
-0.04536368593433905
-0.94354146783126
-0.43549454807269405
-0.04536368593433905
-0.94354146783126
-0.43784962951136497
-0.04135243165588475
-0.9452246411468614
-0.43784962951136497
-0.04135243165588475
-0.9452246411468614
-0.43784962951136497
-0.04135243165588475
-0.9452246411468614
-0.43784962951136497
-0.04135243165588475
-0.9452246411468614
-0.4388553357276732
-0.0358943826280845
-0.9460297013907588
-0.4388553357276732
-0.0358943826280845
-0.9460297013907588
-0.4388553357276732
-0.0358943826280845
-0.9460297013907588
-0.4388553357276732
-0.0358943826280845
-0.9460297013907588
-0.4388258713387693
-0.03021489437770714
-0.9464007086245616
-0.4388258713387693
-0.03021489437770714
-0.9464007086245616
-0.4388258713387693
-0.03021489437770714
-0.9464007086245616
-0.4388258713387693
-0.03021489437770714
-0.9464007086245616
-0.43953964247112004
-0.02377426440216501
-0.9473263486664103
-0.43953964247112004
-0.02377426440216501
-0.9473263486664103
-0.43953964247112004
-0.02377426440216501
-0.9473263486664103
-0.43953964247112004
-0.02377426440216501
-0.9473263486664103
-0.4415815340374881
-0.018639217061013045
-0.948514453101888
-0.4415815340374881
-0.018639217061013045
-0.948514453101888
-0.4415815340374881
-0.018639217061013045
-0.948514453101888
-0.4415815340374881
-0.018639217061013045
-0.948514453101888
-0.4445023151364096
-0.016569051564105337
-0.948849600566805
-0.4445023151364096
-0.016569051564105337
-0.948849600566805
-0.4445023151364096
-0.016569051564105337
-0.948849600566805
-0.4445023151364096
-0.016569051564105337
-0.948849600566805
-0.44406489667890875
-0.015203422690124986
-0.9475367402284038
-0.44406489667890875
-0.015203422690124986
-0.9475367402284038
-0.44406489667890875
-0.015203422690124986
-0.9475367402284038
-0.44406489667890875
-0.015203422690124986
-0.9475367402284038
-0.4405518979907639
-0.014545324831317959
-0.9470316119012399
-0.4405518979907639
-0.014545324831317959
-0.9470316119012399
-0.4405518979907639
-0.014545324831317959
-0.9470316119012399
-0.4405518979907639
-0.014545324831317959
-0.9470316119012399
-0.4386596907342524
-0.015029528930723303
-0.9460387508157542
-0.4386596907342524
-0.015029528930723303
-0.9460387508157542
-0.4386596907342524
-0.015029528930723303
-0.9460387508157542
-0.4386596907342524
-0.015029528930723303
-0.9460387508157542
-0.4428243020151432
-0.01939128225677051
-0.944082632126853
-0.4428243020151432
-0.01939128225677051
-0.944082632126853
-0.4428243020151432
-0.01939128225677051
-0.944082632126853
-0.4428243020151432
-0.01939128225677051
-0.944082632126853
-0.44416429124954976
-0.024460300840448177
-0.9424246782213114
-0.44416429124954976
-0.024460300840448177
-0.9424246782213114
-0.44416429124954976
-0.024460300840448177
-0.9424246782213114
-0.44416429124954976
-0.024460300840448177
-0.9424246782213114
-0.4390523731635152
-0.028531985789857307
-0.9428572725500507
-0.4390523731635152
-0.028531985789857307
-0.9428572725500507
-0.4390523731635152
-0.028531985789857307
-0.9428572725500507
-0.4390523731635152
-0.028531985789857307
-0.9428572725500507
-0.4364787826476674
-0.03514941786968939
-0.9438269749249527
-0.4364787826476674
-0.03514941786968939
-0.9438269749249527
-0.4364787826476674
-0.03514941786968939
-0.9438269749249527
-0.4364787826476674
-0.03514941786968939
-0.9438269749249527
-0.4427105630193456
-0.045443418313206536
-0.9442132155727205
-0.4427105630193456
-0.045443418313206536
-0.9442132155727205
-0.4427105630193456
-0.045443418313206536
-0.9442132155727205
-0.4427105630193456
-0.045443418313206536
-0.9442132155727205
-0.4450703527780555
-0.05494483666207128
-0.9425193072335354
-0.4450703527780555
-0.05494483666207128
-0.9425193072335354
-0.4450703527780555
-0.05494483666207128
-0.9425193072335354
-0.4450703527780555
-0.05494483666207128
-0.9425193072335354
-0.4409172739780655
-0.06232614780246718
-0.9407497798546589
-0.4409172739780655
-0.06232614780246718
-0.9407497798546589
-0.4409172739780655
-0.06232614780246718
-0.9407497798546589
-0.4409172739780655
-0.06232614780246718
-0.9407497798546589
-0.4401914406584518
-0.065183097237387
-0.940804554381265
-0.4401914406584518
-0.065183097237387
-0.940804554381265
-0.4401914406584518
-0.065183097237387
-0.940804554381265
-0.4401914406584518
-0.065183097237387
-0.940804554381265
-0.4469574260472011
-0.06895790847605565
-0.9397375290225628
-0.4469574260472011
-0.06895790847605565
-0.9397375290225628
-0.4469574260472011
-0.06895790847605565
-0.9397375290225628
-0.4469574260472011
-0.06895790847605565
-0.9397375290225628
-0.4517940590648344
-0.0713804620073232
-0.9377881959868953
-0.4517940590648344
-0.0713804620073232
-0.9377881959868953
-0.4517940590648344
-0.0713804620073232
-0.9377881959868953
-0.4517940590648344
-0.0713804620073232
-0.9377881959868953
-0.4524980705136028
-0.07083770923015825
-0.9363743344257814
-0.4524980705136028
-0.07083770923015825
-0.9363743344257814
-0.4524980705136028
-0.07083770923015825
-0.9363743344257814
-0.4524980705136028
-0.07083770923015825
-0.9363743344257814
-0.45228099059951443
-0.06697697920254266
-0.9359245486344907
-0.45228099059951443
-0.06697697920254266
-0.9359245486344907
-0.45228099059951443
-0.06697697920254266
-0.9359245486344907
-0.45228099059951443
-0.06697697920254266
-0.9359245486344907
-0.45329345600135357
-0.05808045206565198
-0.9386141704137104
-0.45329345600135357
-0.05808045206565198
-0.9386141704137104
-0.45329345600135357
-0.05808045206565198
-0.9386141704137104
-0.45329345600135357
-0.05808045206565198
-0.9386141704137104
-0.4560432398895443
-0.04229791883566606
-0.9446089463406303
-0.4560432398895443
-0.04229791883566606
-0.9446089463406303
-0.4560432398895443
-0.04229791883566606
-0.9446089463406303
-0.4560432398895443
-0.04229791883566606
-0.9446089463406303
-0.4605911390058992
-0.025008642605189316
-0.9512080859537979
-0.4605911390058992
-0.025008642605189316
-0.9512080859537979
-0.4605911390058992
-0.025008642605189316
-0.9512080859537979
-0.4605911390058992
-0.025008642605189316
-0.9512080859537979
-0.46654672553498566
-0.007762960263571364
-0.957603752975238
-0.46654672553498566
-0.007762960263571364
-0.957603752975238
-0.46654672553498566
-0.007762960263571364
-0.957603752975238
-0.46654672553498566
-0.007762960263571364
-0.957603752975238
-0.47082797605319127
0.009227664176934275
-0.963025009029879
-0.47082797605319127
0.009227664176934275
-0.963025009029879
-0.47082797605319127
0.009227664176934275
-0.963025009029879
-0.47082797605319127
0.009227664176934275
-0.963025009029879
-0.4725718203355983
0.025496905319381202
-0.9702180430753513
-0.4725718203355983
0.025496905319381202
-0.9702180430753513
-0.4725718203355983
0.025496905319381202
-0.9702180430753513
-0.4725718203355983
0.025496905319381202
-0.9702180430753513
-0.47397061140374747
0.03975375904299718
-0.9774002444434061
-0.47397061140374747
0.03975375904299718
-0.9774002444434061
-0.47397061140374747
0.03975375904299718
-0.9774002444434061
-0.47397061140374747
0.03975375904299718
-0.9774002444434061
-0.47237102317998303
0.04971754592605597
-0.983076651423127
-0.47237102317998303
0.04971754592605597
-0.983076651423127
-0.47237102317998303
0.04971754592605597
-0.983076651423127
-0.47237102317998303
0.04971754592605597
-0.983076651423127
-0.47419890356035865
0.05455557587627777
-0.9908247756956254
-0.47419890356035865
0.05455557587627777
-0.9908247756956254
-0.47419890356035865
0.05455557587627777
-0.9908247756956254
-0.47419890356035865
0.05455557587627777
-0.9908247756956254
-0.4786145124369476
0.05936908406917856
-0.9983448150366017
-0.4786145124369476
0.05936908406917856
-0.9983448150366017
-0.4786145124369476
0.05936908406917856
-0.9983448150366017
-0.4786145124369476
0.05936908406917856
-0.9983448150366017
-0.496206955813791
0.06378573209534845
-1.003474523291356
-0.496206955813791
0.06378573209534845
-1.003474523291356
-0.496206955813791
0.06378573209534845
-1.003474523291356
-0.496206955813791
0.06378573209534845
-1.003474523291356
-0.5106347289164392
0.06238825910162828
-1.007830594807764
-0.5106347289164392
0.06238825910162828
-1.007830594807764
-0.5106347289164392
0.06238825910162828
-1.007830594807764
-0.5106347289164392
0.06238825910162828
-1.007830594807764
-0.5054877017338156
0.0565625716695177
-1.0118055237224277
-0.5054877017338156
0.0565625716695177
-1.0118055237224277
-0.5054877017338156
0.0565625716695177
-1.0118055237224277
-0.5054877017338156
0.0565625716695177
-1.0118055237224277
-0.4935426591301555
0.04987753001134062
-1.0151695195440096
-0.4935426591301555
0.04987753001134062
-1.0151695195440096
-0.4935426591301555
0.04987753001134062
-1.0151695195440096
-0.4935426591301555
0.04987753001134062
-1.0151695195440096
-0.48507340510981994
0.04474036371667347
-1.0206255310922456
-0.48507340510981994
0.04474036371667347
-1.0206255310922456
-0.48507340510981994
0.04474036371667347
-1.0206255310922456
-0.48507340510981994
0.04474036371667347
-1.0206255310922456
-0.4858336031209047
0.034737028893322884
-1.0256524958034474
-0.4858336031209047
0.034737028893322884
-1.0256524958034474
-0.4858336031209047
0.034737028893322884
-1.0256524958034474
-0.4858336031209047
0.034737028893322884
-1.0256524958034474
-0.48946272955555253
0.02057302270284866
-1.0273398258839037
-0.48946272955555253
0.02057302270284866
-1.0273398258839037
-0.48946272955555253
0.02057302270284866
-1.0273398258839037
-0.48946272955555253
0.02057302270284866
-1.0273398258839037
-0.49814485455977275
0.006233630787763563
-1.0235512960770665
-0.49814485455977275
0.006233630787763563
-1.0235512960770665
-0.49814485455977275
0.006233630787763563
-1.0235512960770665
-0.49814485455977275
0.006233630787763563
-1.0235512960770665
-0.5074974742245218
-0.008304143150213527
-1.0186822065325682
-0.5074974742245218
-0.008304143150213527
-1.0186822065325682
-0.5074974742245218
-0.008304143150213527
-1.0186822065325682
-0.5074974742245218
-0.008304143150213527
-1.0186822065325682
-0.5085508183705825
-0.02283501134434288
-1.0168375703324657
-0.5085508183705825
-0.02283501134434288
-1.0168375703324657
-0.5085508183705825
-0.02283501134434288
-1.0168375703324657
-0.5085508183705825
-0.02283501134434288
-1.0168375703324657
-0.508066479488607
-0.03499541543024615
-1.018096674444084
-0.508066479488607
-0.03499541543024615
-1.018096674444084
-0.508066479488607
-0.03499541543024615
-1.018096674444084
-0.508066479488607
-0.03499541543024615
-1.018096674444084
-0.5048579520939969
-0.043700119691467774
-1.0207316234521082
-0.5048579520939969
-0.043700119691467774
-1.0207316234521082
-0.5048579520939969
-0.043700119691467774
-1.0207316234521082
-0.5048579520939969
-0.043700119691467774
-1.0207316234521082
-0.501004529802899
-0.04920265727357175
-1.0203223920800262
-0.501004529802899
-0.04920265727357175
-1.0203223920800262
-0.501004529802899
-0.04920265727357175
-1.0203223920800262
-0.501004529802899
-0.04920265727357175
-1.0203223920800262
-0.4963379013511039
-0.05129356491883529
-1.017542684845786
-0.4963379013511039
-0.05129356491883529
-1.017542684845786
-0.4963379013511039
-0.05129356491883529
-1.017542684845786
-0.4963379013511039
-0.05129356491883529
-1.017542684845786
-0.496063049095783
-0.05020184096216891
-1.0161867036420407
-0.496063049095783
-0.05020184096216891
-1.0161867036420407
-0.496063049095783
-0.05020184096216891
-1.0161867036420407
-0.496063049095783
-0.05020184096216891
-1.0161867036420407
-0.5023633914625587
-0.04484034549582336
-1.0184349059988316
-0.5023633914625587
-0.04484034549582336
-1.0184349059988316
-0.5023633914625587
-0.04484034549582336
-1.0184349059988316
-0.5023633914625587
-0.04484034549582336
-1.0184349059988316
-0.5087994732380604
-0.036648030801521944
-1.0210478133268865
-0.5087994732380604
-0.036648030801521944
-1.0210478133268865
-0.5087994732380604
-0.036648030801521944
-1.0210478133268865
-0.5087994732380604
-0.036648030801521944
-1.0210478133268865
-0.5096173402796963
-0.025912342387252096
-1.021293378371052
-0.5096173402796963
-0.025912342387252096
-1.021293378371052
-0.5096173402796963
-0.025912342387252096
-1.021293378371052
-0.5096173402796963
-0.025912342387252096
-1.021293378371052
-0.5069911467314
-0.013216172120226225
-1.0192118336421088
-0.5069911467314
-0.013216172120226225
-1.0192118336421088
-0.5069911467314
-0.013216172120226225
-1.0192118336421088
-0.5069911467314
-0.013216172120226225
-1.0192118336421088
-0.5036681756940328
1.5648186865606706E-4
-1.0165388223307763
-0.5036681756940328
1.5648186865606706E-4
-1.0165388223307763
-0.5036681756940328
1.5648186865606706E-4
-1.0165388223307763
-0.5036681756940328
1.5648186865606706E-4
-1.0165388223307763
-0.49911342762451827
0.011711233937932828
-1.0151507285791077
-0.49911342762451827
0.011711233937932828
-1.0151507285791077
-0.49911342762451827
0.011711233937932828
-1.0151507285791077
-0.49911342762451827
0.011711233937932828
-1.0151507285791077
-0.49442164430482133
0.021671395290110012
-1.015105223752134
-0.49442164430482133
0.021671395290110012
-1.015105223752134
-0.49442164430482133
0.021671395290110012
-1.015105223752134
-0.49442164430482133
0.021671395290110012
-1.015105223752134
-0.4933318762269284
0.03146182166160676
-1.0153573599031733
-0.4933318762269284
0.03146182166160676
-1.0153573599031733
-0.4933318762269284
0.03146182166160676
-1.0153573599031733
-0.4933318762269284
0.03146182166160676
-1.0153573599031733
-0.49617127582562504
0.04203661544017173
-1.0141176668281244
-0.49617127582562504
0.04203661544017173
-1.0141176668281244
-0.49617127582562504
0.04203661544017173
-1.0141176668281244
-0.49617127582562504
0.04203661544017173
-1.0141176668281244
-0.5002498066063347
0.05046908699920919
-1.0094170342076494
-0.5002498066063347
0.05046908699920919
-1.0094170342076494
-0.5002498066063347
0.05046908699920919
-1.0094170342076494
-0.5002498066063347
0.05046908699920919
-1.0094170342076494
-0.4993819089192297
0.057444994606946166
-1.0033892451711008
-0.4993819089192297
0.057444994606946166
-1.0033892451711008
-0.4993819089192297
0.057444994606946166
-1.0033892451711008
-0.4993819089192297
0.057444994606946166
-1.0033892451711008
-0.49388098817703535
0.06321155732662734
-0.9977064433201177
-0.49388098817703535
0.06321155732662734
-0.9977064433201177
-0.49388098817703535
0.06321155732662734
-0.9977064433201177
-0.49388098817703535
0.06321155732662734
-0.9977064433201177
-0.4810410803399198
0.06514057118740295
-0.9912516050981142
-0.4810410803399198
0.06514057118740295
-0.9912516050981142
-0.4810410803399198
0.06514057118740295
-0.9912516050981142
-0.4810410803399198
0.06514057118740295
-0.9912516050981142
-0.47300116225716404
0.06286035186236141
-0.9861057360513114
-0.47300116225716404
0.06286035186236141
-0.9861057360513114
-0.47300116225716404
0.06286035186236141
-0.9861057360513114
-0.47300116225716404
0.06286035186236141
-0.9861057360513114
-0.47173311534471923
0.056741773448204996
-0.9775018687576921
-0.47173311534471923
0.056741773448204996
-0.9775018687576921
-0.47173311534471923
0.056741773448204996
-0.9775018687576921
-0.47173311534471923
0.056741773448204996
-0.9775018687576921
-0.450970263594076
0.04265686766342934
-0.9662687490446422
-0.450970263594076
0.04265686766342934
-0.9662687490446422
-0.450970263594076
0.04265686766342934
-0.9662687490446422
-0.450970263594076
0.04265686766342934
-0.9662687490446422
-0.4110022906636225
0.032401549322986466
-0.963442924324843
-0.4110022906636225
0.032401549322986466
-0.963442924324843
-0.4110022906636225
0.032401549322986466
-0.963442924324843
-0.4110022906636225
0.032401549322986466
-0.963442924324843
-0.42221959874862336
0.02759111481619407
-0.9509639059448087
-0.42221959874862336
0.02759111481619407
-0.9509639059448087
-0.42221959874862336
0.02759111481619407
-0.9509639059448087
-0.42221959874862336
0.02759111481619407
-0.9509639059448087
-0.4375700689834321
0.017596912808654826
-0.936185222762789
-0.4375700689834321
0.017596912808654826
-0.936185222762789
-0.4375700689834321
0.017596912808654826
-0.936185222762789
-0.4375700689834321
0.017596912808654826
-0.936185222762789
-0.4312275153799467
-0.0035181146037906196
-0.927027661604863
-0.4312275153799467
-0.0035181146037906196
-0.927027661604863
-0.4312275153799467
-0.0035181146037906196
-0.927027661604863
-0.4312275153799467
-0.0035181146037906196
-0.927027661604863
-0.40674039029762793
-0.01824691394108527
-0.9260405787375103
-0.40674039029762793
-0.01824691394108527
-0.9260405787375103
-0.40674039029762793
-0.01824691394108527
-0.9260405787375103
-0.40674039029762793
-0.01824691394108527
-0.9260405787375103
-0.3990686697914624
-0.03363414127841431
-0.9289044330304649
-0.3990686697914624
-0.03363414127841431
-0.9289044330304649
-0.3990686697914624
-0.03363414127841431
-0.9289044330304649
-0.3990686697914624
-0.03363414127841431
-0.9289044330304649
-0.4109275082454455
-0.054596745263233125
-0.9337092085807266
-0.4109275082454455
-0.054596745263233125
-0.9337092085807266
-0.4109275082454455
-0.054596745263233125
-0.9337092085807266
-0.4109275082454455
-0.054596745263233125
-0.9337092085807266
-0.4206946434692277
-0.06806003028256882
-0.9367193152343445
-0.4206946434692277
-0.06806003028256882
-0.9367193152343445
-0.4206946434692277
-0.06806003028256882
-0.9367193152343445
-0.4206946434692277
-0.06806003028256882
-0.9367193152343445
-0.4180269719765437
-0.06595886695233007
-0.939597859147699
-0.4180269719765437
-0.06595886695233007
-0.939597859147699
-0.4180269719765437
-0.06595886695233007
-0.939597859147699
-0.4180269719765437
-0.06595886695233007
-0.939597859147699
-0.4171392414394949
-0.05640473875863698
-0.9438240842334835
-0.4171392414394949
-0.05640473875863698
-0.9438240842334835
-0.4171392414394949
-0.05640473875863698
-0.9438240842334835
-0.4171392414394949
-0.05640473875863698
-0.9438240842334835
-0.4226200134979439
-0.04653295761568805
-0.9445656361201445
-0.4226200134979439
-0.04653295761568805
-0.9445656361201445
-0.4226200134979439
-0.04653295761568805
-0.9445656361201445
-0.4226200134979439
-0.04653295761568805
-0.9445656361201445
-0.42805445900808825
-0.039129056046422236
-0.9458901221030005
-0.42805445900808825
-0.039129056046422236
-0.9458901221030005
-0.42805445900808825
-0.039129056046422236
-0.9458901221030005
-0.42805445900808825
-0.039129056046422236
-0.9458901221030005
-0.42961833893122847
-0.03246757388156085
-0.9475376617591708
-0.42961833893122847
-0.03246757388156085
-0.9475376617591708
-0.42961833893122847
-0.03246757388156085
-0.9475376617591708
-0.42961833893122847
-0.03246757388156085
-0.9475376617591708
-0.43117232425447616
-0.027122535439493094
-0.948295366875113
-0.43117232425447616
-0.027122535439493094
-0.948295366875113
-0.43117232425447616
-0.027122535439493094
-0.948295366875113
-0.43117232425447616
-0.027122535439493094
-0.948295366875113
-0.4301379968472575
-0.023629708359753587
-0.9482312490890078
-0.4301379968472575
-0.023629708359753587
-0.9482312490890078
-0.4301379968472575
-0.023629708359753587
-0.9482312490890078
-0.4301379968472575
-0.023629708359753587
-0.9482312490890078
-0.43088841142609563
-0.021645404315975558
-0.9470371398039064
-0.43088841142609563
-0.021645404315975558
-0.9470371398039064
-0.43088841142609563
-0.021645404315975558
-0.9470371398039064
-0.43088841142609563
-0.021645404315975558
-0.9470371398039064
-0.4305094788403593
-0.019916102153844567
-0.9457970493405689
-0.4305094788403593
-0.019916102153844567
-0.9457970493405689
-0.4305094788403593
-0.019916102153844567
-0.9457970493405689
-0.4305094788403593
-0.019916102153844567
-0.9457970493405689
-0.428064745192889
-0.0194392052857554
-0.945529419335266
-0.428064745192889
-0.0194392052857554
-0.945529419335266
-0.428064745192889
-0.0194392052857554
-0.945529419335266
-0.428064745192889
-0.0194392052857554
-0.945529419335266
-0.42591872111366735
-0.02042293201158233
-0.9460589354026472
-0.42591872111366735
-0.02042293201158233
-0.9460589354026472
-0.42591872111366735
-0.02042293201158233
-0.9460589354026472
-0.42591872111366735
-0.02042293201158233
-0.9460589354026472
-0.42692082507046836
-0.022304704797141334
-0.945922808638375
-0.42692082507046836
-0.022304704797141334
-0.945922808638375
-0.42692082507046836
-0.022304704797141334
-0.945922808638375
-0.42692082507046836
-0.022304704797141334
-0.945922808638375
-0.4303542819051129
-0.024686041335912703
-0.9461529845686487
-0.4303542819051129
-0.024686041335912703
-0.9461529845686487
-0.4303542819051129
-0.024686041335912703
-0.9461529845686487
-0.4303542819051129
-0.024686041335912703
-0.9461529845686487
-0.43201856549743495
-0.028426612596427654
-0.9465462300538432
-0.43201856549743495
-0.028426612596427654
-0.9465462300538432
-0.43201856549743495
-0.028426612596427654
-0.9465462300538432
-0.43201856549743495
-0.028426612596427654
-0.9465462300538432
-0.4303739972762753
-0.03411542639215398
-0.9463300999930432
-0.4303739972762753
-0.03411542639215398
-0.9463300999930432
-0.4303739972762753
-0.03411542639215398
-0.9463300999930432
-0.4303739972762753
-0.03411542639215398
-0.9463300999930432
-0.4306387629406517
-0.04184021472722181
-0.9445816300741735
-0.4306387629406517
-0.04184021472722181
-0.9445816300741735
-0.4326118091324628
-0.0500054856435767
-0.9421915369886356
-0.4326118091324628
-0.0500054856435767
-0.9421915369886356
-0.4326118091324628
-0.0500054856435767
-0.9421915369886356
-0.4326118091324628
-0.0500054856435767
-0.9421915369886356
-0.4317426655982519
-0.05647079821565998
-0.9406271600402385
-0.4317426655982519
-0.05647079821565998
-0.9406271600402385
-0.4317426655982519
-0.05647079821565998
-0.9406271600402385
-0.4317426655982519
-0.05647079821565998
-0.9406271600402385
-0.42812262189150857
-0.06085652522034062
-0.940442794144839
-0.42812262189150857
-0.06085652522034062
-0.940442794144839
-0.42812262189150857
-0.06085652522034062
-0.940442794144839
-0.42812262189150857
-0.06085652522034062
-0.940442794144839
-0.42699921541764413
-0.06483240008108179
-0.9389996145370946
-0.42699921541764413
-0.06483240008108179
-0.9389996145370946
-0.42699921541764413
-0.06483240008108179
-0.9389996145370946
-0.42699921541764413
-0.06483240008108179
-0.9389996145370946
-0.4262706379634182
-0.06714732878634531
-0.9373478952152506
-0.4262706379634182
-0.06714732878634531
-0.9373478952152506
-0.4262706379634182
-0.06714732878634531
