-2
-6
-49
-5
2
-1
-1
1
0
-1
0
-4
1
2
1
0
-1
-3
-4
1
-3
-2
-2
0
-2
-8
-7
-4
-1
0
2
-1
-1
5
19
6
-1
-2
0
-2
0
-1
-9
-4
-2
-3
-1
0
0
4
4
-6
-1
2
-1
-1
1
-3
-3
-2
-4
1
-1
0
-3
-6
6
-3
-4
0
-2
-3
-1
3
4
2
1
0
1
-2
-2
-2
4
3
0
-2
-2
1
-2
1
-8
-1
2
-3
-1
0
-2
-1
-11
-5
-6
-6
-2
-3
0
0
7
1
2
3
-1
0
0
1
-1
2
0
-2
0
-2
-1
-4
-3
-5
1
-1
0
-1
1
2
27
6
1
0
1
-1
-2
-5
-20
-6
-10
-4
-1
-1
-1
-1
1
-1
1
-2
-1
-3
-1
-8
-27
-5
-5
-2
1
2
2
2
8
4
-3
0
1
2
1
5
19
3
9
2
-1
1
-2
-1
-5
2
1
1
-1
0
1
-2
8
2
1
-2
0
-2
1
0
-4
-7
-4
-4
0
1
-1
-2
-2
1
-6
2
-3
-2
-1
-3
5
-1
-2
-1
1
-1
-1
5
-3
1
-3
-2
-1
-1
0
-5
2
-5
-5
-3
1
-1
-1
0
-4
-5
-2
0
-1
-1
-1
1
5
4
5
-2
-2
-4
-3
-5
-5
0
0
2
-2
0
0
-2
-2
-6
5
0
-1
0
-1
-1
-5
1
-2
-3
0
-1
0
0
1
-3
-7
-2
-2
0
-1
3
8
4
0
-6
-1
-2
-1
0
-5
-2
0
6
0
0
-2
-4
-13
-10
-7
-3
-2
0
0
-2
-6
3
0
0
0
2
1
5
23
5
5
2
1
0
0
-3
-15
-6
4
5
0
0
-2
0
-5
0
-2
-5
-3
-2
-1
-6
-12
-4
-4
-2
-2
0
0
3
-3
-2
-1
1
0
-1
0
-3
6
1
0
-3
-3
-3
0
0
16
3
-9
-2
0
-2
0
0
-1
-7
1
0
1
-2
-2
-5
-13
-3
0
0
-1
-1
-3
1
6
4
1
0
1
-1
-1
2
12
10
9
3
1
1
0
4
10
1
-4
-4
-2
0
2
3
9
-4
-2
1
-2
0
3
2
-19
-1
3
2
2
-2
-2
2
17
2
-4
-4
-2
2
-1
-7
-6
-3
-3
0
1
2
-7
-7
-21
-10
-7
-7
-3
-10
1
5
10
0
-3
1
1
-1
1
-1
-16
-2
5
3
5
3
0
-10
-2
-3
-1
0
-3
3
4
-4
8
-2
-2
0
-2
0
-7
0
6
0
-3
-4
-4
-2
23
7
-9
1
2
-2
1
2
11
11
8
7
4
3
1
0
-32
-9
-7
-5
-2
-3
-2
2
-26
-13
-15
-9
-5
-5
-5
-12
-3
0
21
3
3
7
2
-2
14
-10
-36
-9
-5
-6
-6
-12
9
7
19
7
1
4
1
3
5
5
8
2
3
-2
2
8
-7
0
-15
-6
-8
-3
-5
-6
1
-12
-7
0
4
2
3
2
22
9
5
2
-10
-3
-1
0
5
-8
1
9
9
2
-2
-1
-29
-16
-15
-6
1
-2
0
2
-1
10
4
-1
-5
-9
-3
-9
18
-5
-7
-6
1
4
0
3
52
46
19
2
-2
4
3
6
-36
-5
1
6
7
0
0
3
-16
-3
-6
3
0
0
2
-4
-27
-15
4
4
3
-1
11
-3
-24
-18
-7
-11
-9
-9
-9
-8
31
8
-1
-3
-10
-13
-25
-1
-8
-6
4
-8
-4
2
1
-2
24
6
-12
4
8
3
-2
0
13
3
4
8
5
29
63
9
-3
2
-15
-14
-7
-32
-76
-6
-33
-19
11
12
-5
-1
-8
0
32
28
-9
15
7
0
-3
1
0
12
5
8
11
-3
2
17
-27
-10
-2
-11
1
10
26
-3
14
-14
-3
-18
0
6
4
-6
-31
11
2
-4
-9
-7
7
-12
-22
-17
14
-8
-10
4
-22
-6
30
15
-14
4
-3
11
17
4
61
24
-15
-6
5
1
-16
12
-39
-10
17
2
-5
-8
-10
-14
16
4
-38
-10
-1
-3
3
11
-20
-7
19
-1
-3
10
24
16
31
5
-17
9
1
-10
4
-22
-56
-10
-28
1
7
32
67
9
-12
-13
38
-8
-3
4
25
-15
49
22
12
3
-2
-33
-69
-13
-27
-13
-4
-4
-11
-14
17
19
-63
-2
32
2
-1
-2
2
-2
43
5
-93
-10
-4
21
41
-1
0
-29
32
3
10
15
25
4
12
1
16
14
2
0
-12
3
26
-15
2
-4
-3
3
13
10
-10
14
-17
9
-2
-10
-4
-6
7
23
-10
4
9
17
38
5
60
16
-40
-6
1
-48
-98
-6
-85
-43
55
-4
-11
11
34
6
-41
-1
23
8
4
23
3
-41
57
-12
26
-11
-2
-22
-50
6
-77
-16
-38
-9
-2
-5
-19
-1
47
17
-43
-7
3
17
34
32
48
20
-13
0
-9
-6
9
-7
-56
-17
65
28
19
30
39
8
-17
12
-26
-36
-13
-66
-82
-41
127
17
17
-6
-7
-11
-7
20
-109
13
48
36
-4
-12
-23
5
23
22
-6
8
5
24
97
23
-48
-49
41
-5
7
9
-10
0
28
-27
-51
-14
3
-15
-48
-59
-73
-12
-26
-30
-22
-32
22
-25
-87
-81
-2
-26
-34
7
23
24
79
97
33
68
41
34
51
8
-14
51
42
14
3
3
13
17
76
-13
-12
-6
6
-24
-108
38
-84
0
-1
-42
-29
-19
-12
-55
-23
-55
-41
-23
-3
19
5
22
58
5
-26
10
6
9
-17
-53
-32
-12
10
32
45
32
-11
50
17
5
33
-2
-27
-67
-42
17
-7
1
0
43
24
39
72
33
-71
-18
0
-53
-48
-7
-6
-82
-9
-51
1
9
11
-35
-71
16
122
28
-51
34
39
64
78
13
-48
-18
51
-1
-29
4
86
-48
49
14
-20
-78
-17
-61
-84
55
58
-20
-3
10
3
50
72
-55
-13
43
-67
78
40
28
66
79
110
72
82
-27
-34
-13
-44
-41
-81
-14
-27
26
55
11
-78
-31
100
-43
-43
-67
-57
-54
7
35
-21
18
8
-1
26
-3
-36
-44
-27
51
35
51
15
100
106
48
-110
15
29
-12
5
-8
-16
-14
-27
-53
4
-74
2
-44
-17
25
56
15
-55
10
-15
23
43
-32
-108
-74
-61
30
-29
-17
71
-27
97
37
4
54
42
27
-63
68
-54
34
55
-19
-27
-57
-6
-53
35
-8
55
6
7
-5
-26
0
-49
19
1
-84
-15
-44
-61
-25
31
-30
-37
40
12
99
127
76
67
51
2
-63
-31
-76
-102
-10
-104
-32
-5
62
21
-14
1
-28
72
52
8
-45
2
20
57
4
14
-66
-29
78
12
89
127
68
-84
19
51
-32
-1
-37
-61
-6
79
30
-12
-63
-10
17
35
-18
78
-11
20
50
9
-104
-50
-11
-105
28
23
-37
-43
-65
31
47
-66
-43
-43
3
17
105
127
-99
127
-7
-11
-44
-33
5
0
37
-77
-61
-19
17
27
33
-78
-33
127
87
-10
67
15
24
23
37
49
-18
39
-37
-19
-75
-17
6
-128
-76
-38
14
-21
-57
-110
-74
-92
-27
20
-30
4
42
9
-18
17
-12
-37
28
8
3
-45
-31
75
5
-36
45
17
41
104
84
-16
26
78
-61
-30
-26
-119
-19
63
-10
-57
52
6
-13
14
30
-72
-36
-27
-53
-11
-63
-105
24
66
30
-29
81
26
37
26
7
-60
12
0
8
-6
15
79
-16
127
33
42
-71
-34
2
25
20
6
-22
-2
-19
25
27
20
47
-59
26
23
32
-6
-12
-21
-72
-76
-5
-30
10
-4
-44
-91
-15
53
-24
49
34
2
30
28
28
44
33
23
34
12
81
101
2
17
-2
11
-26
-19
-90
-128
-37
-30
-19
-12
-10
-20
67
127
8
-49
12
-14
-2
24
-13
24
26
127
15
51
-32
-25
-39
21
-39
26
-29
-82
-67
-13
53
-22
7
32
31
17
-1
31
2
36
31
32
4
7
29
8
12
-3
18
-55
-48
-31
-39
-32
-45
-22
-69
-22
17
43
58
25
0
-18
32
31
-20
-42
-74
-9
-9
-60
5
61
17
-39
61
38
59
77
46
-75
41
92
-52
-20
-68
-97
-35
-36
-30
-96
111
65
99
127
44
41
6
16
-14
-7
-29
-73
18
21
-11
36
-15
-30
21
57
-10
-70
-14
5
-29
-21
-87
-89
-61
68
40
45
-10
5
86
103
75
91
-15
-41
-51
12
25
63
-8
-54
-30
-45
56
27
-33
-127
-9
55
4
17
35
-11
18
75
-23
-44
-6
69
-46
-48
-13
-72
22
-6
49
-28
32
34
50
127
26
-11
-37
-13
-58
-43
-101
-97
17
-20
-24
-5
-55
-10
-12
43
-63
34
94
17
126
30
9
-29
12
-58
-49
-60
-39
7
33
18
-28
-88
35
1
-43
-25
-13
20
-49
-24
-41
44
23
1
-38
-55
-9
-44
-45
32
-76
-21
19
48
-42
10
-28
-71
6
-2
-11
-11
-7
88
74
-1
7
15
-39
-73
-29
-3
-2
-33
57
34
28
62
78
-18
-5
17
1
-10
24
45
-23
-57
-10
22
-45
-29
-68
-69
6
-18
-13
-13
67
53
82
118
42
11
46
19
-47
-49
-3
-29
-57
-61
-33
-69
-68
-2
-35
-17
-25
30
-25
22
92
10
7
-14
10
27
34
61
27
14
31
7
40
-74
28
12
-56
-10
-22
-37
-26
45
-22
-73
-10
4
2
67
-39
73
9
-5
-7
-3
4
6
-5
59
-26
-28
5
-23
-79
-25
28
-68
-70
17
32
11
20
33
12
17
14
7
-15
-12
10
24
15
-24
-15
23
0
7
-2
43
3
-3
-49
-22
-48
-22
-55
-119
-35
-16
36
-4
22
28
16
14
38
64
10
7
-35
-7
22
11
-15
5
-18
54
23
12
8
33
-18
21
-6
28
51
7
83
54
-12
14
34
-21
46
45
-93
-128
34
58
69
35
-23
-40
31
63
34
0
10
61
-41
-23
-78
-115
27
-90
-10
-77
14
30
62
40
-74
127
6
15
-37
-27
36
50
66
48
35
-5
81
26
-7
58
32
-104
-8
49
-18
-7
-61
-53
-14
68
29
80
37
1
33
12
23
-70
-76
-101
-39
12
-16
-43
-50
-14
-15
89
3
-33
-20
-18
-2
5
7
-32
11
14
23
52
-28
23
43
5
-57
-14
11
-36
16
59
26
5
-64
-32
-7
67
8
-91
-28
-15
91
27
-38
-65
-24
97
-73
-30
-62
-35
-57
-75
-40
-107
48
4
11
22
35
102
-12
117
-30
-71
-51
-28
45
-31
-43
35
-1
-19
12
-22
-83
-41
0
43
-8
8
22
30
51
-80
18
-101
-66
-40
-95
-19
-19
81
-6
75
-22
5
64
-4
-15
39
-53
-113
-5
49
-60
5
66
47
-17
127
12
-1
85
30
24
-47
-25
-11
82
16
-40
-39
-42
57
38
-42
-56
-23
-64
2
-20
-74
39
49
-10
-62
91
15
36
4
2
-61
48
46
-9
-23
-40
-7
27
-39
-32
-21
-53
-3
77
77
-15
56
36
30
37
18
-16
-99
36
42
10
21
-64
-33
-112
-3
-30
-48
67
-19
32
14
78
73
80
38
-107
-90
-40
-1
-82
-128
-70
37
115
41
-86
-60
25
106
19
11
-73
7
27
54
20
-96
30
-104
16
-19
39
5
29
37
-39
52
-6
30
23
7
-13
-12
33
23
28
47
3
2
1
-43
-36
-11
-41
-56
-37
9
1
43
38
-59
6
42
17
-22
-10
-44
-112
-23
-32
-54
27
-34
-40
82
10
43
0
26
7
16
15
32
59
43
97
62
94
51
19
-23
88
127
-74
-66
-104
-31
47
127
-65
-59
-14
53
56
23
15
-97
30
-103
52
-17
9
6
-45
-41
-66
58
-38
-18
-66
-35
4
62
-6
120
39
46
-105
-8
-39
4
74
33
33
54
11
-18
18
18
6
-40
-81
-79
127
84
50
71
27
34
54
22
-78
-8
48
18
59
23
-5
71
110
-16
-33
-36
30
55
60
-77
-68
4
-54
0
-3
-61
16
43
-73
-45
49
23
-24
-104
-107
-84
46
48
-23
-94
-90
-38
21
-34
51
28
74
127
127
27
16
91
-79
-37
-77
-128
-78
92
-23
-7
39
12
3
41
22
-58
-62
-51
-65
-28
19
87
-46
-97
27
-25
-98
-14
-13
-68
40
-55
-28
63
121
28
27
27
-45
71
57
-43
28
54
20
73
74
-69
-89
80
-58
-90
-74
-109
-99
28
61
-106
64
47
42
50
-31
70
60
-24
-128
-40
17
15
54
-73
-108
-13
102
24
-2
4
-88
-25
62
34
-58
-45
-42
-103
-40
62
38
28
39
32
37
107
47
-77
-53
4
4
3
23
-5
-56
95
31
-27
-66
-8
-23
-63
36
-68
-6
23
-34
-24
-33
-55
-24
-32
-44
-14
63
11
-19
25
-57
20
-22
-9
-34
7
43
-2
33
54
-51
-24
85
0
6
23
-40
9
28
-4
4
20
53
93
16
-60
9
78
-128
-31
-32
-31
-30
112
51
-6
127
63
17
22
-5
-128
-27
12
-49
-27
-15
-35
32
127
22
1
-25
-25
-44
-22
31
11
-7
12
28
12
-45
-89
-11
47
-57
-48
-81
10
41
110
43
36
97
50
44
9
26
-58
9
-37
-49
-51
-81
-40
-60
-49
-10
7
25
3
56
-24
-60
-24
-6
-43
-57
-30
8
-6
19
34
13
28
47
18
-24
3
-9
38
-2
27
-8
20
44
31
105
127
-10
28
-6
3
-54
-15
12
-17
36
-66
41
-62
-20
-12
-36
-128
-27
-35
0
37
20
-13
-62
51
-3
48
14
54
45
54
42
-37
14
-88
-44
-41
-25
-40
-23
-58
-40
127
18
42
-58
-15
38
66
55
-101
-46
-59
42
35
62
49
-52
9
70
18
-30
18
76
80
48
51
-25
-25
-76
-17
-92
-66
-12
-101
28
25
28
26
42
9
-22
-33
-48
56
4
-27
1
5
-31
-48
7
-41
72
42
66
54
-15
24
1
37
-48
-48
-7
-6
16
5
47
-60
8
45
16
-30
38
118
-4
-12
-33
-25
-24
33
-10
105
82
75
17
12
-45
-59
47
-71
-19
7
54
15
61
-22
-64
104
-41
0
14
-31
-33
36
17
30
2
-34
-11
8
16
44
49
26
-50
-54
4
4
-4
-102
-10
56
52
11
47
32
-17
33
23
-64
10
59
-58
-76
-63
-24
-35
52
-3
-23
11
5
36
46
31
-53
-21
8
-27
1
1
66
-22
57
-44
-2
21
6
8
-66
-15
-128
88
-7
77
53
65
94
-16
91
-3
6
-84
-26
-65
-112
47
-47
-44
-4
38
-9
0
26
-26
-51
-52
5
28
13
45
90
-60
65
55
57
-22
-31
-102
-125
-14
-108
-19
-87
-1
23
16
48
23
-13
-25
1
-81
-1
11
-15
-16
83
-7
27
18
-29
-5
34
5
-26
-14
-54
-84
-8
10
-6
39
-82
93
88
59
0
4
-17
-65
29
-86
-67
73
16
-4
-7
-27
32
51
-23
12
-35
-56
20
33
47
-30
45
-55
-4
44
42
3
10
-60
-23
-7
-6
-58
-128
-5
73
115
10
33
0
36
53
8
-51
-41
-52
-23
31
-28
-68
0
-4
-86
-13
-7
-41
-14
-2
-7
-44
-9
-13
-19
14
47
6
-74
49
23
29
-21
-15
-45
-36
80
-26
35
29
45
28
31
3
-23
7
-7
-62
-86
-17
10
78
50
-10
-44
35
59
-9
-43
18
-33
-48
113
-20
64
17
38
2
5
-20
-41
-34
-51
-27
-19
-19
-22
-34
-12
44
29
6
-7
-46
-47
39
42
6
-80
-26
-20
-66
-16
-90
-37
7
14
1
-11
27
18
55
41
-45
37
19
26
85
60
18
-25
23
23
5
-7
24
-52
-5
2
-32
7
12
33
43
14
9
-17
39
-30
-7
-12
-37
-16
-5
-6
-35
-3
29
43
-17
15
-28
-21
-20
7
14
29
-4
-1
11
24
44
-1
-16
-16
-35
41
24
-22
-49
10
3
-10
59
-3
-18
-32
8
14
10
30
76
21
14
21
9
22
-5
-14
-40
-8
-10
-9
28
-23
-29
-50
52
21
-6
64
38
-16
-8
-8
-88
-6
-23
-8
-16
-28
-18
-10
-3
-13
-2
-9
-3
43
24
-34
-123
-12
-6
2
8
-35
-8
49
42
3
14
-3
-20
-2
-7
-16
69
5
-1
32
42
-13
7
10
-28
17
17
-47
-34
0
-15
-25
23
6
-15
25
23
6
6
39
-51
-26
17
-19
-7
4
-16
-87
57
32
-20
9
-11
-15
14
115
38
-18
-11
-31
-8
17
10
-86
-84
7
7
-19
-15
-10
-57
18
60
-2
0
23
15
13
82
69
-79
-5
-13
-17
20
-32
-8
12
88
-28
-1
2
-57
17
23
53
91
7
14
-35
11
-22
-16
-38
39
15
6
6
17
-7
-32
-13
-12
-4
8
-1
12
21
-11
-101
-59
10
0
-5
-21
5
22
87
63
3
-4
3
-7
-13
-5
-75
-77
0
-4
-10
2
-12
5
36
10
-4
-4
29
5
-13
-3
-32
-28
-13
8
1
23
22
-11
11
44
1
0
7
-10
-8
7
21
-1
5
8
-8
-3
-4
-5
-23
-14
-5
-4
10
13
14
14
37
-34
10
-6
-18
-41
-20
-28
-26
-16
-8
-6
-21
-12
-4
20
1
-13
-23
-4
7
-8
-8
-11
-23
-35
2
2
-4
77
17
-2
22
80
22
5
20
-11
-6
2
1
-69
-9
-1
2
2
6
6
-13
3
-3
-12
-59
-45
-20
-40
-99
-25
-18
-13
64
-50
0
-5
1
-1
32
-7
10
102
25
15
6
24
-15
7
-12
0
-5
16
20
11
9
-1
1
-60
-20
-22
11
-1
-26
14
-37
44
12
8
9
4
4
2
6
-88
-4
7
-58
-25
13
42
72
115
40
6
-43
-32
5
-18
-69
-86
-33
4
103
33
14
-20
-9
88
-2
-12
-35
-18
-11
-3
-25
-31
-20
-10
43
54
21
0
-5
-33
-8
-11
-42
-28
-23
23
45
125
53
22
16
12
22
17
1
-76
-18
0
-33
35
-2
-7
-54
-50
-24
2
7
-54
-29
-30
-44
-30
1
0
50
6
5
-11
-16
53
6
-8
-18
-8
-11
-5
5
-30
-5
4
29
-2
-4
30
78
120
31
-4
-46
34
17
-11
-49
-13
-10
10
12
19
13
-12
23
-89
-18
-2
11
-27
-21
-3
-31
27
-9
0
6
1
-17
-5
4
-92
-6
-19
-3
-5
15
4
32
81
11
2
14
1
13
-9
-28
31
14
0
-32
6
-15
14
35
3
7
10
8
-6
6
10
-35
0
-14
-5
-16
-2
-11
-30
-17
-48
-21
-1
36
-8
-13
13
30
46
13
4
-47
-18
19
-2
24
-54
-35
-20
1
-20
-19
0
3
127
32
3
14
18
5
6
26
-27
-9
-2
-41
7
1
4
-56
-47
-8
7
61
43
17
-16
-31
15
6
-5
-7
-69
-8
-9
19
-2
-8
-8
-23
25
-16
14
58
82
28
18
21
8
16
4
7
-54
-28
-2
14
19
-22
-15
13
42
-4
-15
-18
-23
-2
-20
-59
35
1
-2
2
-16
3
-2
-25
1
3
-1
15
18
0
15
10
-28
0
5
-7
4
16
-3
-43
-107
4
9
20
36
-6
0
53
80
7
-5
-44
-16
-3
-10
2
-36
-9
-13
-18
-35
0
-4
22
78
21
6
-2
-3
-6
-6
-34
-73
-34
-15
13
33
-7
2
-10
-56
5
7
3
2
7
-6
-19
34
6
11
23
15
-1
-6
34
20
2
-3
-1
-20
-5
-6
-36
-3
-3
-6
-19
-28
2
3
25
23
8
1
19
-11
-16
-2
-4
-31
-5
-7
-20
29
-1
8
27
5
2
5
17
-21
-14
-4
-69
-12
19
3
10
80
6
5
12
-24
-6
2
-32
-99
-4
-6
12
0
3
-8
6
18
-13
-4
1
1
-1
-4
-35
-2
-2
-14
-5
64
4
5
-7
-28
-4
14
19
-23
-4
-4
6
29
9
-1
-20
-12
-6
3
32
30
3
-3
56
73
-5
-1
-11
-34
16
14
9
-63
-4
6
-10
-4
-14
-20
-52
20
18
-6
-1
11
3
4
4
-27
-12
-3
6
11
-2
-12
-19
-17
3
4
-13
-18
2
-1
45
31
-19
-7
6
-5
-16
5
21
44
6
8
16
-10
7
-1
-20
-91
-12
1
3
-6
-8
-1
-17
48
8
-5
1
74
5
21
-2
2
3
0
-41
-108
7
-7
-24
10
0
2
11
43
-5
-7
10
12
-6
-9
-9
-23
0
6
-3
-42
-11
-10
3
-2
-7
16
2
35
18
11
32
34
0
-7
38
-75
-22
-3
-38
-18
-1
0
-28
-1
-8
5
15
-8
-3
8
24
-5
10
-8
-2
-10
-1
-10
-24
13
-2
-5
-27
11
27
0
-17
-29
-2
2
11
21
-5
2
26
30
7
5
19
-25
-12
-2
-7
-36
-18
-4
-10
-9
0
8
35
17
14
6
25
6
5
-3
1
-3
-10
-2
-8
14
1
3
15
33
5
-9
-6
55
-1
2
-5
-23
1
-4
-32
-87
4
-10
2
-46
-18
2
10
1
-14
4
-11
-2
6
-3
12
35
18
-3
6
39
10
-1
11
-11
-11
-6
-36
-8
5
-5
-14
-1
0
3
27
16
-4
2
-5
11
4
-13
-1
-26
-2
0
-7
-16
-17
0
-7
11
5
4
4
45
7
-4
-12
-6
-5
-10
31
22
4
-1
42
17
4
-3
-53
-78
-6
3
-17
39
1
5
16
30
1
-1
-10
-5
-5
-4
-7
-36
-10
-10
-13
-93
-23
0
35
42
-10
3
-1
34
10
-11
-26
-4
-1
11
27
51
15
-2
-3
-23
5
-3
-10
-23
-8
-2
-4
-1
-1
14
10
23
1
13
-8
1
6
-10
-32
7
3
-1
18
34
2
-11
9
19
11
2
-1
-22
-3
5
20
8
-18
-5
-10
-35
-1
6
2
19
15
-8
-16
16
4
-6
8
-14
9
14
35
51
0
-5
-45
8
-6
-9
-12
-39
-2
-4
0
-18
-2
3
22
-7
3
-5
-16
46
4
5
-31
-54
-16
9
14
11
1
-3
17
42
-1
4
-17
-15
-7
-2
3
19
5
0
11
-10
4
1
-27
-7
3
0
0
29
5
0
25
-3
13
1
-39
-71
-22
-6
-5
-1
-9
2
-4
-44
-15
-6
11
11
1
6
16
41
20
5
-4
-5
1
-11
1
-48
-5
-1
-8
11
1
-2
11
92
4
-10
11
-9
7
-2
14
-32
-5
9
-6
-21
-6
-7
-63
-78
-17
-11
-11
27
1
-1
-4
34
19
3
5
16
1
0
14
-5
-9
4
9
-44
-9
-3
11
13
2
-8
-24
-10
-5
5
7
25
-2
-1
9
3
9
-10
-20
-18
-19
-3
0
8
-9
2
-16
-17
4
-2
-15
10
1
6
24
35
10
2
31
20
0
-8
-19
-55
-9
0
1
-9
0
3
5
19
2
-7
-13
-12
-6
1
23
-17
-1
1
-8
-15
1
-7
-5
14
5
7
5
-6
-4
7
9
-12
-12
-3
-26
2
-4
-6
-9
-34
1
6
37
17
-2
-2
-25
39
10
5
9
12
6
5
-1
-62
-17
-16
-20
11
0
-3
3
70
15
-3
-43
-48
4
-10
-28
-81
-10
11
36
7
-8
-4
33
23
5
-2
-4
-3
-2
13
9
-12
-3
5
15
18
-2
-2
-1
31
-8
1
8
13
6
12
36
27
13
1
-16
-5
8
-7
-25
-45
-5
-3
-2
-13
-6
2
12
14
-2
-5
5
29
10
-6
-24
-42
-9
-5
-7
-53
-17
-4
-12
33
0
1
-12
-10
-6
5
39
18
6
-3
-2
7
-3
6
11
12
2
3
2
0
1
-10
-13
-29
-8
1
15
29
-1
1
6
27
4
0
-10
-19
-4
-1
-13
-11
1
1
-11
-1
2
-5
-4
13
-6
-2
5
-6
-2
0
4
-15
9
2
15
16
-4
4
-1
7
-15
-6
-8
-4
2
-1
-17
-10
2
-3
-4
0
-1
-3
21
52
17
7
5
-3
-2
-5
-19
-41
-8
-4
5
-3
-2
-2
9
7
1
-4
-20
-3
0
2
2
-11
-7
3
9
4
-1
-1
-8
-6
1
-10
-3
-5
-6
-2
7
22
-4
-1
3
-1
-1
3
-10
12
10
-2
0
2
3
1
11
-12
8
10
-1
4
1
-3
-14
13
1
5
1
-8
-4
-4
15
5
0
-7
-2
0
0
1
-3
-24
-2
-8
-4
4
-1
3
1
25
-10
-10
0
0
4
2
-28
-36
-1
11
0
-2
3
-4
-14
10
7
1
5
2
-4
2
8
2
-6
-1
0
0
-4
-14
-8
-2
20
5
-2
-2
-4
-4
-2
-12
-12
-5
-1
0
6
14
0
8
-7
-4
1
1
-3
3
1
-15
-9
-5
-3
-1
3
15
-17
9
19
10
2
1
5
6
21
-8
-6
-2
1
1
1
-24
9
4
16
8
4
-1
-1
11
5
9
0
-8
-8
-3
5
3
-9
-20
-18
-4
-2
-6
-15
-26
-14
6
2
3
-1
-1
-7
21
8
-7
-8
0
7
1
0
-5
5
16
6
1
7
1
3
0
-12
-8
-7
-9
-9
-5
5
6
0
3
-8
-8
0
16
3
5
9
0
17
10
6
-16
-4
-12
-7
-22
0
5
-6
-5
-9
-9
-1
8
-17
-2
0
-9
-6
-8
-14
7
2
-9
-3
6
-11
3
-2
11
-5
-1
-8
-16
9
12
-10
-2
11
1
-2
15
4
-12
32
-27
10
8
22
9
-23
-8
-1
3
-9
-6
-1
-19
0
28
13
1
-5
-6
3
68
4
-27
-10
1
-12
2
-5
-106
-9
-18
0
23
-9
-3
-9
22
4
27
-5
-30
4
4
18
19
2
-23
2
-8
-7
-10
-7
9
-16
10
6
-1
13
0
-4
22
0
-21
3
-5
-10
-5
-1
-10
13
5
6
33
5
7
-4
-20
-8
-3
-11
-4
-1
-3
20
57
16
12
-1
-49
-20
-5
-9
-64
-9
35
-11
-3
-2
-7
5
18
-2
-54
-5
16
8
11
-14
-12
1
35
1
10
-6
4
6
0
9
-68
-19
27
4
-8
-19
6
-15
28
-3
-18
-2
-6
24
32
5
33
-7
-33
-5
2
11
8
3
-15
16
31
0
4
-30
-78
2
54
31
-11
10
2
12
41
21
39
-18
38
5
-6
-20
-25
-11
-56
3
29
6
-5
-22
-19
-1
-71
0
-77
-18
-9
12
35
-7
12
22
15
-9
-6
17
46
14
-18
-16
2
-22
-3
22
41
-3
17
-3
2
27
8
-59
-78
-6
3
-1
38
11
-10
3
26
11
68
39
7
2
6
-58
-101
-1
-88
0
2
3
6
36
122
18
42
-11
-31
-24
-15
-5
-5
10
-23
-22
9
10
12
22
-22
-47
14
13
-12
0
1
18
39
9
-35
-16
23
-4
-17
-11
-29
-4
8
-3
-41
-24
-16
-57
-83
-13
-29
3
-15
6
3
-5
91
26
-15
-2
35
-6
2
-9
-48
-25
69
21
14
16
13
9
-8
21
4
-7
-2
-13
-8
5
27
-15
39
10
0
-2
-3
-8
-71
-12
-1
-5
-17
-6
-3
-8
6
-7
-35
16
40
6
0
-20
-37
23
-9
-6
-3
6
-1
24
77
-21
37
-3
-23
3
7
-18
-104
-6
-61
-27
24
7
-1
56
116
-8
101
33
-57
-6
1
-33
-48
21
-119
-37
46
-24
-14
-25
-23
-29
98
4
-11
-13
-7
27
47
0
20
10
14
-6
-12
-42
-30
11
-1
-8
23
1
-5
17
-4
-17
39
49
30
75
22
31
43
49
35
-39
-36
-24
-12
-35
-19
17
-76
-4
-43
16
19
16
-8
-38
79
-11
-68
-22
-22
-18
-31
-5
-65
-17
13
-11
-1
2
-44
-29
-7
1
51
15
5
30
26
-18
57
-33
-63
-9
-7
13
63
30
-26
15
33
7
-6
-33
-46
-12
-3
16
-1
-1
-1
27
16
27
26
60
42
11
6
-7
50
-4
-108
-50
-27
-48
-15
-23
-73
-52
9
-19
-38
-10
-2
14
42
-28
90
12
39
35
10
-53
-84
11
-35
13
18
13
5
11
59
15
75
2
17
-36
-13
19
-2
36
-47
13
-3
46
19
27
16
-26
-16
-67
-124
-89
-26
16
32
4
67
37
25
25
27
-22
-50
-10
-14
-20
-36
16
-9
-24
-49
-1
53
25
1
-10
-6
20
88
41
-38
-20
10
-17
-7
13
-76
-35
-2
18
-4
-4
-17
-3
46
-15
-55
-19
16
-13
0
-17
-25
-8
55
24
13
11
6
-28
-88
47
-3
-37
-39
-52
-15
8
58
-18
52
16
2
55
18
49
67
2
-55
14
67
49
14
-23
-36
43
94
11
-38
-44
-12
26
93
1
17
7
-49
-41
-5
-32
-75
0
-128
-120
53
-101
-38
-25
-43
-30
127
38
-70
107
66
99
127
18
-34
4
43
24
0
-52
-98
-1
102
96
64
-66
-23
-12
57
4
-58
-97
-94
-8
1
-20
-114
-2
99
54
27
35
2
30
-22
37
-128
-39
13
-38
-4
-10
36
-26
127
95
21
102
61
81
86
91
-60
-21
28
-19
-40
-96
-105
-35
-17
-50
-64
-56
-31
4
63
-16
-21
-5
2
50
29
51
-23
3
13
-13
16
-18
-11
39
104
10
-20
16
-21
47
31
-36
-59
-23
20
24
39
-12
1
-41
5
38
62
-25
38
-62
-23
2
-6
-40
-116
13
-37
16
25
-17
-11
-36
79
-18
38
8
-9
109
122
64
-128
24
18
39
26
-101
-126
-76
-26
-48
-37
-89
-62
-58
24
-11
-24
-32
61
127
19
3
32
62
19
7
-115
-24
-34
1
107
-81
10
50
55
-81
-13
53
-25
57
6
17
36
127
65
-9
17
-31
-21
14
-43
-78
-55
-43
-72
1
7
2
57
-33
-6
-70
-63
18
-65
-73
-32
-43
-25
55
107
0
-13
1
22
-106
-49
-112
-128
-101
15
70
-42
81
82
89
124
59
-10
19
35
-45
-37
-43
-84
10
-93
-24
-14
9
15
37
-10
-51
51
-17
5
-33
34
38
67
116
38
-59
19
-53
-52
-32
-58
-110
78
56
-22
-58
19
75
90
61
122
106
-3
86
88
111
26
57
59
-4
67
-17
-79
-94
-89
-9
15
-104
-101
32
10
-9
19
36
34
86
42
28
13
13
18
-78
-17
-127
37
-128
-113
-39
44
-66
29
-4
-103
127
127
127
127
125
-69
4
127
-128
-71
-117
-128
-90
-22
-10
-43
118
91
42
14
-10
79
45
29
-6
-21
-97
-95
21
25
40
-59
-53
-33
24
21
-40
56
-35
-15
-106
-27
30
49
-21
-34
-83
57
-26
26
19
-47
5
89
58
-53
126
77
43
79
15
-97
-2
38
-10
-24
-36
-106
30
87
46
17
18
18
5
-46
73
68
19
-46
-37
-24
25
58
22
-21
3
95
-12
19
2
-37
8
-104
-58
-90
83
2
24
82
-9
-32
68
18
30
15
46
-28
-66
4
-53
-11
-19
-82
-125
-128
15
127
52
-25
37
58
55
76
77
17
-44
36
-43
-42
-20
14
-28
-110
66
48
14
14
-17
-48
12
71
-73
-28
0
7
20
49
115
-31
81
-2
-32
-51
-32
11
-78
24
11
-3
9
-4
17
-66
-55
12
-27
-24
44
27
61
127
38
33
72
-73
-86
-6
-7
-18
88
-81
-109
2
-20
-35
-46
-75
-98
1
56
-16
28
4
-20
32
-33
74
20
59
-44
-46
-60
-80
41
-104
-40
-43
7
29
24
45
-73
107
-19
-31
-12
5
58
62
94
-46
62
37
55
61
17
18
12
-41
-89
-36
10
-41
-7
7
-55
-9
-21
12
-37
22
3
-34
32
13
44
-18
-98
-75
-58
24
18
59
-101
72
45
-7
-54
-97
-12
-76
100
-78
38
42
99
100
3
-3
85
58
11
-11
-67
-100
-15
-50
-126
-88
-50
-19
-41
68
10
-12
46
-11
64
-8
27
56
-75
-64
-100
-13
51
14
49
109
89
-5
25
-10
-78
5
-34
-87
-71
-7
-23
53
7
-41
-38
-73
-84
77
56
-11
-10
17
43
117
97
117
-57
26
-95
-17
0
-65
-82
-111
-40
-92
98
48
104
119
31
57
20
50
-17
-1
-10
-83
-3
-34
35
27
-46
15
-11
43
47
-7
-15
-20
-63
-3
-22
-75
-30
127
46
72
91
2
10
23
3
-98
-99
-77
39
4
-28
-52
-109
77
25
-9
41
36
57
-38
15
-31
-15
50
-47
-41
-90
-1
13
-18
-73
6
2
3
35
-24
-65
9
21
-82
12
17
-13
-23
65
101
-35
-20
-51
-54
19
62
19
48
-30
19
33
-9
-58
-91
10
20
25
14
34
23
37
102
-6
-21
33
46
44
18
44
-1
26
-19
23
-26
-128
-15
-88
-120
-3
86
30
-61
70
38
62
126
30
17
-21
26
42
-11
-22
-13
9
-39
25
7
-69
-30
18
12
-22
-15
-73
-4
-12
11
64
38
-42
-79
6
11
11
-12
-23
82
-11
32
109
42
-35
-4
-30
-92
-12
-24
-20
-8
-28
-6
-26
-19
-20
-53
-15
12
62
-16
-42
-128
-23
-47
0
17
-22
-7
67
56
73
-24
-10
-7
47
34
56
104
-19
14
49
33
-122
-50
-32
-98
-32
-128
-16
19
62
44
43
-56
-33
108
-19
-49
63
56
-17
60
1
35
96
24
-74
-41
-14
16
28
-4
-4
17
-33
-7
44
125
10
127
-15
-56
-121
-31
-48
-82
10
-109
-74
-14
120
6
-57
-5
-36
4
1
-11
-107
-20
22
63
14
-45
2
1
127
39
25
127
34
-35
39
0
-55
23
38
-47
5
-52
33
17
-35
-42
7
-44
-81
83
-14
20
-46
13
-74
-89
53
-14
-42
45
106
28
45
33
-10
-6
-26
-13
-77
-36
-9
22
-19
-55
0
-98
54
57
-13
-108
-18
-47
74
45
2
-79
-25
59
11
-28
-23
29
76
24
-9
21
15
-28
5
-6
31
22
73
17
1
58
-82
-32
-61
-9
26
52
30
6
74
-9
26
5
10
1
-65
-30
-42
-75
-44
1
4
-24
34
-55
34
70
23
-82
-65
127
-16
-42
40
-61
-81
14
-18
-124
12
55
-14
61
-17
6
-5
5
20
-19
15
0
-89
-16
8
50
-37
-105
49
-65
44
-1
23
25
77
81
-9
74
-47
-38
-73
-75
-91
-128
-110
-79
82
39
45
27
-6
62
71
38
-65
40
78
42
83
-83
-85
-41
22
-52
-126
-44
-82
100
127
63
-79
2
33
18
33
45
-50
-59
98
49
50
-9
3
-6
-8
39
-42
-62
-92
-19
-29
-7
-51
34
-25
37
49
-47
53
86
-48
-37
59
39
47
104
-53
-56
-45
26
-8
-38
-50
-102
-48
127
27
-23
-53
40
82
-71
11
22
-6
-11
14
-8
-32
87
85
17
-18
43
-64
-51
-76
-70
16
57
-7
-42
4
17
-3
-20
35
40
22
45
-75
-60
-19
11
-48
-23
-106
-94
16
37
-8
-54
-49
66
59
46
73
-14
45
-1
9
-83
-19
41
-55
16
20
-17
10
55
-14
1
127
56
55
67
68
118
52
36
-62
-54
-70
-60
-85
4
-6
-37
-101
-73
-93
-87
56
-60
2
0
-4
26
21
-61
-62
-128
-52
-45
127
45
15
18
-66
89
71
98
-83
-43
-32
12
9
65
12
-25
78
89
127
113
93
75
63
18
-56
-66
-93
-104
-7
69
12
-18
2
26
0
68
77
-88
-12
-49
-33
-10
-10
-46
-103
-25
0
59
9
-37
-33
47
-10
74
3
28
-35
57
60
69
62
72
-1
-73
31
-2
-9
38
14
49
-31
38
-59
-12
75
116
121
-122
-77
10
11
-14
-107
-116
-98
-26
-16
20
72
-18
67
97
10
35
59
70
-96
-18
-13
-29
3
15
6
-56
95
66
127
127
68
-50
67
-23
-56
2
-17
-100
-8
54
52
-8
16
0
-1
100
55
-43
-6
5
-34
-60
-102
-91
-89
121
13
35
70
44
13
36
14
95
14
48
20
1
79
69
42
-74
-13
-89
8
41
87
63
3
-59
-10
60
-60
-99
-116
-128
-66
-87
-13
-51
3
13
33
45
-40
67
-39
22
-36
55
102
127
44
56
-80
-10
40
-69
-109
-114
-54
2
47
-5
19
30
52
81
48
23
-23
-11
-18
-21
-79
-7
-69
-31
-26
-26
-4
-9
44
88
0
40
54
31
-105
-23
112
127
49
-113
-128
-17
59
-6
-93
-112
-43
120
84
18
60
7
62
12
18
-29
26
-4
10
14
23
29
47
-30
-35
-50
-89
-76
-93
27
-76
27
-24
32
28
13
58
21
50
-40
60
29
52
72
-55
-124
-29
-70
-66
-30
-54
-33
14
94
-45
63
22
12
9
24
-43
-69
33
-22
33
12
-4
2
61
119
27
99
-6
-20
-33
4
31
5
8
92
27
33
94
42
-45
-128
44
-33
-33
25
16
-27
-11
63
-11
127
73
-87
-14
43
34
117
84
-40
-69
42
-49
-32
-52
-97
-21
10
-11
-45
108
27
102
101
-34
-50
12
24
-75
-4
-94
-126
15
40
-58
-4
8
11
37
-56
-39
-31
-14
-26
109
-25
-29
126
79
-8
99
45
-88
-21
-15
1
-5
54
-79
-83
56
29
-17
-97
62
-113
-67
-1
-87
-13
17
-57
-118
51
41
-10
-4
-8
2
9
21
36
30
-14
-29
-10
35
86
-3
-68
-20
23
50
-50
-61
-41
-22
75
44
-38
-23
-20
52
-8
25
-38
-62
-4
-32
50
34
9
3
-28
68
37
-30
-21
-47
-27
-11
4
22
-12
17
55
100
127
-29
16
-11
-44
33
-19
-98
-79
28
-54
45
-6
-57
-33
-42
-14
-14
-23
-95
14
-6
-4
32
-27
-13
-29
-23
-1
26
1
2
-45
-15
-20
18
-61
6
31
27
35
-4
15
-15
14
-18
2
15
-51
0
-3
19
22
2
3
-70
-25
10
10
32
28
-18
-30
55
15
-20
8
9
40
18
-2
-109
-97
-1
-10
15
-21
-17
36
93
99
-16
-39
17
-41
-46
-15
-30
-86
-4
42
10
8
-14
-14
-55
27
3
-23
-49
-1
15
-1
-32
-30
7
2
30
43
-11
18
72
-13
-12
-8
-72
-7
36
-30
-110
19
-4
-3
8
22
18
66
126
126
3
16
-6
11
5
-18
-120
50
31
-21
-29
-15
-12
-24
12
-87
-31
3
21
4
5
41
60
46
-7
-26
-7
-26
-4
-33
19
30
-9
2
-15
43
-18
18
-11
56
1
3
85
57
17
-8
-12
-41
3
11
3
-86
30
22
41
27
16
-17
-64
19
-45
-27
9
80
-19
-5
65
85
-1
15
-22
-79
-8
-8
-45
-20
-7
-13
-4
106
32
-6
7
-14
7
-18
-41
-44
-9
-2
23
-14
13
-6
-60
-31
-17
13
11
19
12
20
127
47
19
12
6
52
33
10
6
-29
-36
-12
-14
49
-9
-1
-8
-63
-9
-28
-27
-102
-13
4
-26
-22
8
10
27
-25
-15
-5
-8
-7
3
-11
-14
19
0
8
-13
21
11
3
-16
-68
-6
-34
-92
24
11
5
14
63
29
35
118
6
-2
-7
-9
5
-10
-8
-46
-26
-6
10
21
53
-7
-10
-67
12
28
5
-29
-55
-7
-9
-69
-44
-25
-15
9
-52
0
19
47
-27
-22
4
-14
46
9
5
19
38
-4
-21
31
20
-4
-16
-20
8
2
-12
-16
17
8
7
19
-39
-16
2
27
44
-9
-15
-103
-60
24
22
10
-13
14
2
16
23
-4
-9
-15
18
-12
-2
64
103
5
8
22
-63
3
35
-16
-81
-5
-27
-22
20
-20
-38
-120
-30
-30
2
34
20
13
12
53
22
28
19
16
-6
6
-7
-72
1
1
6
-71
-60
5
4
95
63
11
-13
-4
30
-9
3
-19
-20
-13
11
28
-1
7
-20
-64
-16
4
11
-11
-23
16
26
89
28
25
14
62
115
20
4
2
39
-19
7
-13
-36
-16
-4
-37
-70
9
-23
-90
-7
-22
-15
13
34
4
-7
69
-7
-15
-18
-101
-54
-18
-10
-49
8
3
-15
74
92
16
-11
78
69
13
17
-7
-67
-10
-17
-73
-113
-45
12
45
37
-2
-6
4
-40
-12
-23
-16
-20
-15
4
15
120
21
-8
-27
62
2
5
-57
-47
-19
-9
-26
-41
11
-8
59
-82
4
-1
36
25
-6
-1
-50
-49
-11
4
-41
-22
9
-5
-9
32
-11
-15
-78
-60
-8
23
-21
-69
-2
13
51
116
32
-2
55
42
2
-7
-35
-108
-26
-11
-125
-96
-29
-16
-32
14
-4
-10
63
14
-2
22
50
10
5
-9
-68
-78
-3
-1
27
30
3
0
51
91
11
-19
-52
7
-5
-24
3
-2
5
6
14
-36
-24
-10
-54
36
31
4
-3
41
20
-2
50
-3
-14
2
14
-68
-20
5
-8
-5
-5
4
2
43
11
14
3
0
7
10
6
-4
-7
19
-2
3
-4
-8
-19
-19
14
-16
-14
45
-5
-2
19
31
-17
-3
-6
-36
-2
-11
-12
-10
-10
-6
-27
0
-21
-1
9
-3
15
-1
35
-48
-5
12
22
-31
-18
17
41
111
38
-3
-33
24
32
-17
-57
-42
-10
-2
40
6
-4
-10
-27
41
-2
-11
-12
24
0
9
34
-50
-12
11
16
-53
-25
27
36
64
-2
-1
-4
37
15
2
0
32
30
10
2
-58
-10
6
18
-31
-6
-1
23
1
7
-7
-20
22
-15
-12
-30
3
-10
-9
32
26
14
7
26
14
5
-15
-56
-24
-16
-4
-13
5
-5
18
57
46
19
7
13
29
1
6
-15
-79
-3
-8
-19
-40
-3
-4
-44
-38
-15
-2
16
30
-1
2
26
47
23
5
-2
7
1
3
14
-5
-3
-4
-16
-27
2
-12
-14
-9
-11
-12
0
4
-2
-11
-51
-21
0
8
3
4
-6
12
26
12
2
2
8
13
9
-6
-14
3
6
-2
-1
-24
-16
-1
20
15
-7
-3
-8
3
2
-1
-18
-54
-8
4
17
54
4
7
17
45
-5
-9
2
-79
-14
-1
-5
-14
-2
6
-14
-2
-10
5
26
-13
8
0
23
95
4
5
15
-5
5
-2
-50
-103
-15
-4
-29
-11
-18
1
37
48
-1
-3
41
33
21
-6
-7
-4
-1
-24
-8
48
8
-3
-2
5
8
17
31
8
0
1
16
11
6
-5
-37
-81
-16
5
6
25
-1
-8
-6
7
-11
-18
-46
-55
-6
16
17
32
8
20
46
36
19
1
4
4
8
-11
-30
0
-2
-13
2
37
-10
-4
-12
-22
-4
6
-12
-4
5
0
26
17
4
1
-5
31
5
5
16
-22
-2
-9
11
0
-11
-7
-18
-31
-2
12
12
10
11
4
12
29
-16
4
-8
-3
-14
4
5
-3
-2
-9
-5
-61
1
-9
-8
0
-3
2
6
-13
-4
-8
-4
14
8
25
23
31
-1
-4
-19
-20
0
-9
-55
3
-15
-2
1
19
7
-4
-27
-3
5
2
-13
-38
-15
-18
-34
-32
6
-8
-16
31
-5
3
-9
-54
-26
-1
13
-26
14
13
50
42
16
5
-2
14
-4
0
-12
-25
-7
-8
13
-6
2
10
8
16
-3
5
4
-21
-3
-8
-15
57
21
-2
-16
25
-1
-5
-14
-34
-8
6
0
-5
0
-6
1
18
-3
1
11
1
0
14
36
-14
8
2
-6
0
12
-34
-39
-35
-5
-23
-70
-47
-33
7
11
-12
-6
10
43
15
-7
-13
-33
-34
-16
-10
-17
-24
-8
0
-23
10
7
3
16
27
3
4
31
16
12
6
-1
28
19
3
-7
25
4
-7
-22
-23
-2
2
8
-21
-13
3
17
24
-2
-7
-16
-29
6
-10
-2
-14
-2
0
3
15
-2
10
25
0
5
-1
-7
-65
-20
-13
-24
-8
3
-18
8
44
10
-2
-8
13
3
-1
0
-23
-11
-6
-19
-24
-6
5
7
4
11
17
21
-14
-3
-1
11
2
10
8
16
41
8
12
7
42
-8
-4
-29
-35
1
-3
-28
-52
-10
-9
14
15
-9
-4
14
45
2
-5
11
30
4
-3
-12
-56
3
-7
-16
-24
2
6
-17
44
-6
1
5
0
0
-2
22
-22
15
-1
46
77
-18
-2
15
32
-9
4
-76
-92
7
-3
0
-34
-7
-2
23
30
-16
1
16
30
17
4
3
2
-3
2
-53
0
-5
-3
9
29
7
17
21
-57
-26
-5
18
-2
-4
-11
-29
30
-8
-3
-20
-19
-2
5
21
7
10
4
-2
-10
-3
5
15
60
6
8
-9
-16
2
3
-19
-44
2
-4
14
58
6
-1
5
10
1
-5
-1
-38
1
1
2
-38
-17
-1
2
6
-1
-20
-5
61
18
0
-14
-25
-1
-4
5
10
5
-1
4
17
-1
-4
-4
32
11
4
5
1
0
2
7
-67
-14
-3
-10
3
1
4
18
20
-12
-4
-17
-25
-1
-3
-5
-12
6
1
16
17
1
-1
-5
12
7
-3
0
6
1
-1
-25
0
2
1
-5
-8
0
5
27
-7
-11
4
-9
-16
1
-3
-12
5
10
2
12
17
-2
2
-6
13
-8
-6
2
4
3
-1
7
-29
3
-8
-18
-11
0
-3
1
18
9
4
-1
-13
-6
-1
15
2
14
2
2
14
3
-4
-6
2
-11
-4
-9
-4
0
1
-4
4
-6
0
8
2
-1
-1
-6
-4
-5
-6
-9
-5
0
-5
-1
1
23
5
8
5
0
2
-18
-2
-24
-12
-11
-2
-1
-4
3
1
8
7
2
-1
-1
9
24
-4
-9
1
-2
-6
1
2
-11
0
-11
-7
-4
-1
0
-5
1
-1
4
-4
2
2
-4
-3
-1
-21
0
0
-2
3
4
3
-10
7
6
-3
-10
-7
5
11
-4
5
-26
-4
6
3
-3
-18
8
1
17
5
4
4
-4
-11
0
11
7
-2
-1
-8
-15
7
8
1
2
7
17
3
6
-7
-5
-21
-9
-4
-9
-8
-3
0
-1
2
-1
-9
9
7
7
25
-7
1
-21
-6
-10
-1
-2
0
-19
-1
5
0
-14
-15
-7
10
21
8
-7
0
-11
-30
-4
-10
1
-2
21
5
3
33
5
12
4
-11
-4
-8
-3
-18
2
-42
-28
-25
-29
-8
0
33
-8
-2
-5
6
10
7
12
-31
-9
4
24
-11
-5
2
-31
-12
6
19
-20
32
5
-3
13
-10
-10
54
27
20
12
13
24
14
12
-108
-18
-3
5
-3
-3
22
-9
23
-12
-20
-6
-3
10
0
-5
-45
14
-11
-25
-14
-31
-32
-16
-8
8
35
21
1
-12
-19
1
49
-2
-32
-7
-5
7
23
12
-5
-9
33
18
10
19
41
2
19
-8
-37
-15
-1
1
-22
15
7
8
-27
-22
-7
-26
-12
-8
4
-4
-5
6
-6
50
23
0
3
2
3
6
10
-15
-40
3
-39
-15
20
8
2
-3
8
0
-10
-1
-5
-5
-5
-8
18
-7
21
-16
-3
0
2
3
-10
1
24
20
-29
-26
-6
-4
-27
0
-9
-36
34
15
1
6
39
3
-24
14
-29
-5
-5
7
6
-3
22
19
16
-1
0
-16
12
8
-6
-4
-8
-2
-11
9
16
-1
51
14
-15
7
6
-45
-72
12
-18
-35
-2
-14
-9
-7
-5
-10
-11
12
-6
23
12
4
29
-5
-40
3
-20
-20
-3
7
-7
-3
-16
15
-6
0
-3
10
27
-1
45
-14
39
7
3
15
2
6
6
2
17
-4
-1
-19
31
-4
-2
23
7
7
-3
13
-52
-7
11
21
36
27
7
23
33
13
-17
14
-33
-8
-7
-12
-40
-5
29
-6
27
-5
8
95
97
8
-1
-25
-6
-1
6
-94
-67
10
-22
6
-14
-24
-12
-1
22
-5
-2
10
6
13
-3
-32
-4
-23
-11
-5
29
11
2
11
-1
-2
-15
-12
-45
-13
1
68
102
-22
40
12
10
5
4
-18
-92
-11
49
-10
6
-1
4
26
39
40
-26
-2
-15
9
-1
3
20
-16
-23
-17
39
-8
-11
-84
-71
-2
1
43
-13
12
9
88
126
-20
-11
-9
-44
-17
-3
-66
-109
15
-27
-26
4
-32
-26
-38
-26
-22
-33
20
112
30
24
33
40
12
-4
-27
-78
-3
-5
-4
7
-14
56
16
7
11
7
48
67
18
15
17
-26
-2
-1
-63
-32
22
1
-13
-20
-25
-5
40
20
17
-23
-19
12
5
2
-26
2
-8
-82
-1
28
19
-4
39
-26
-20
-7
-22
-12
10
5
-42
-56
-13
76
18
34
-11
-17
-29
11
30
32
4
24
15
0
-7
-52
-26
-10
-21
-19
1
7
1
45
32
-108
-17
-42
-36
-6
-4
-50
-64
86
-26
-72
-30
-17
26
87
44
63
45
56
60
39
28
-16
23
-64
-35
17
-2
-35
-42
-25
-67
56
37
-29
-9
7
36
-29
53
75
-34
55
-1
-22
-48
-20
-24
1
45
-67
-74
-2
-25
53
23
-87
-54
51
95
38
14
-27
-35
12
-12
18
-29
-26
-6
59
31
-45
-30
-49
37
13
52
-28
-11
-65
-39
-28
-79
-41
-35
-29
-31
71
69
43
53
30
3
-14
41
38
22
27
-40
-26
0
58
13
-119
-1
-26
20
14
25
84
-48
12
-18
20
-36
-29
-99
-91
2
-18
-38
-66
42
31
53
113
-14
69
20
-8
15
-37
-90
-69
-30
55
-2
45
-44
-3
5
-13
18
-114
-75
-25
-9
-2
107
127
-8
105
50
-20
-26
10
-29
-128
5
-40
-75
12
-25
-14
19
43
18
58
109
33
40
15
-8
-82
-22
-62
5
81
43
-1
-4
99
7
-45
-7
-62
-90
0
18
-76
0
40
52
19
-48
-22
-54
-27
-15
-16
-72
-71
23
19
-21
-93
57
-34
-79
-2
-60
-65
-45
-43
-63
81
67
25
-10
-20
-28
22
-7
-23
-21
9
48
40
50
13
13
-10
59
-29
-16
15
22
101
-10
70
-22
1
54
4
24
61
47
-84
-13
21
-44
-12
-84
-54
15
127
-8
-116
25
-1
90
65
13
-84
-71
22
-61
-65
-96
-113
-106
-28
-16
62
37
31
-10
-47
-8
122
55
-47
-25
-21
-1
-2
2
-17
22
37
71
91
50
88
43
-24
56
47
-77
-26
67
127
41
52
-44
-74
116
39
22
-37
-32
-55
-6
1
-69
-79
-76
-10
54
-40
27
-29
-24
11
-17
-63
-57
35
-19
50
71
19
-7
57
-3
23
60
-20
-48
26
81
22
15
26
-59
34
-5
-52
-55
-32
15
37
46
-1
21
32
37
97
-4
53
-17
-54
-32
39
29
34
93
-77
127
-19
25
-15
-26
76
-30
45
-97
-29
24
14
52
49
-28
51
-15
66
-116
-68
-31
-43
80
-32
-10
3
127
39
17
-51
-98
60
17
-42
-28
27
27
-67
30
-99
99
35
-4
9
61
127
-7
44
43
32
17
-25
-69
-77
39
-20
-25
-16
-54
28
24
-92
-13
-17
-28
-47
-25
-28
-33
50
16
20
-47
-11
54
22
46
50
18
-73
-52
17
-5
12
-17
24
-15
71
2
22
86
-7
40
31
27
-36
20
26
-17
-22
-59
-100
-42
-35
37
-13
-12
-8
-19
66
-29
40
-20
16
-4
1
30
31
26
-62
-39
29
-102
-45
-72
-114
-111
-43
80
-54
120
99
100
65
92
42
-85
29
-76
25
47
118
5
-128
47
-3
-22
-29
-48
-128
-111
-33
-59
-77
5
-17
-32
40
-15
127
24
49
-33
0
-15
-54
55
-63
1
31
-23
-27
-76
-128
-63
-7
-4
14
57
61
84
86
54
-5
-16
12
16
-41
-43
-102
-13
63
54
23
-42
9
38
104
58
127
-13
-5
97
27
25
50
43
-76
-92
-28
-47
-47
-46
-127
-118
74
0
-47
13
20
24
44
65
98
53
117
47
-12
-28
23
-39
37
-7
-22
-26
30
30
-19
35
-71
-18
-30
87
26
76
55
-9
99
88
36
-88
-16
-66
-16
13
-114
-108
-73
-6
-59
-55
25
-57
69
23
40
-18
13
46
-72
3
-51
-15
13
45
9
-8
14
-5
-55
-71
-105
24
8
43
-32
7
19
-41
46
-57
-53
-54
26
29
50
114
14
-61
-8
-23
4
-12
18
-25
38
8
-9
4
-41
-24
58
6
-67
-105
-4
3
67
15
-109
-83
1
16
21
6
-125
-44
20
29
9
47
19
58
77
42
25
12
-48
-3
36
-34
-53
54
-96
71
67
-15
-48
4
127
2
-2
-22
57
-25
5
30
-75
-53
-57
10
-70
-32
-7
-34
79
47
99
34
-8
81
8
11
-66
-45
-22
12
28
-63
-9
19
-41
-46
92
-8
-24
53
9
-47
10
62
-30
36
31
28
23
59
31
22
-60
-81
-24
-49
-60
-89
13
-5
-5
35
-6
118
47
54
16
34
112
44
12
-80
-33
-55
-113
25
-121
-120
-47
31
-19
-38
-110
-72
36
79
-1
-14
26
7
34
-34
50
-8
7
-47
13
16
-9
-37
-105
-8
-3
80
-9
-24
63
27
-55
-8
-22
-6
9
-15
-118
-57
72
15
37
-13
-20
30
118
66
-57
-43
-4
-57
-8
33
-51
-21
86
-17
-60
32
12
-50
-33
-82
-46
17
44
-108
-82
-101
-83
-24
120
-21
-2
32
22
5
-50
23
-75
7
-21
47
51
57
68
41
97
23
22
-22
-27
32
43
32
3
-57
-75
-56
-17
6
-10
-12
23
70
67
-91
-20
6
-2
-20
102
39
-15
127
88
35
44
65
-112
-92
-21
-1
4
21
25
-63
97
28
49
53
29
46
-49
38
-47
-23
-16
-51
-16
-8
16
-64
-38
96
70
-69
-60
-77
-40
12
3
-23
-7
-39
3
33
53
34
56
-2
7
32
33
28
18
1
-70
-24
-56
47
57
40
26
20
38
9
85
7
-59
-87
43
11
5
10
23
-127
-5
63
-19
-42
-23
30
4
85
22
5
54
-3
-103
2
-13
-59
-24
-59
-51
-30
31
-47
-76
93
61
-2
-117
-64
-69
61
30
-69
-20
3
67
79
22
-80
-37
72
21
32
109
-10
34
10
7
10
41
71
24
48
-32
-9
-26
-65
-64
-50
-60
6
119
77
45
42
-4
-22
59
110
-23
-68
-21
-78
-13
2
2
-36
-35
-54
-26
68
9
-22
-44
5
68
32
104
-59
-24
13
58
16
73
-95
-111
85
62
66
32
52
0
127
55
-9
-22
-19
96
-43
25
26
70
-41
-30
-36
-80
4
-41
-25
-49
-48
-12
26
24
-33
-23
-1
39
-8
3
49
44
-23
33
45
86
3
-13
-34
-61
90
-11
-63
-128
8
30
-29
-61
-28
44
-6
68
-57
9
55
50
20
-124
-51
-99
92
15
-68
6
-19
11
33
22
76
43
127
127
58
-44
9
67
-96
-43
-87
-67
-43
116
-54
-37
61
-2
-28
13
74
-3
20
-13
-94
-15
-28
39
10
-24
3
9
-128
-68
-14
14
23
-18
12
-27
122
72
24
51
-31
-128
40
43
-34
8
-6
-44
16
-93
-53
4
4
-1
22
-59
-104
49
18
-6
-2
-23
-67
-107
-2
-50
11
69
-54
-38
7
118
106
-48
5
-98
57
45
52
39
-24
-25
-64
5
-27
-13
-35
-128
-86
-24
3
-13
-32
-26
-55
7
-20
118
-79
13
11
3
111
127
83
2
63
-10
-70
-47
-117
-92
-74
105
-23
30
48
19
-4
111
90
-49
-6
-63
80
89
80
-80
-44
-81
-81
17
-65
-104
-92
-23
-7
68
108
9
-4
19
63
63
6
1
-48
-14
-116
-4
56
2
20
18
-83
30
-39
-14
21
21
-3
82
79
19
-64
15
-12
65
57
-58
-36
-19
127
59
44
3
12
46
68
71
-128
-103
-74
-84
27
-46
3
28
87
15
-8
32
-67
85
3
-43
20
28
110
102
71
-128
41
-2
-128
-50
-60
-87
-26
84
-20
-56
127
66
9
1
28
-51
-31
-13
-79
-11
-15
74
-25
79
23
28
-27
-14
-37
-2
44
-63
-49
-17
-54
-13
38
59
-59
-91
56
-13
99
14
-16
-108
-53
127
-3
-3
-67
-31
-23
39
27
-83
16
-3
92
39
9
-36
-39
127
-44
-37
29
-25
11
-24
-10
19
53
21
-101
-28
5
-51
38
35
-98
-45
36
31
-49
-8
-10
43
127
-5
37
12
87
105
-10
127
-45
35
-64
-54
-78
-52
56
-46
41
-41
57
45
32
-58
-32
80
49
-21
71
39
96
77
77
-39
-59
-4
-38
-61
-101
-100
-62
-23
40
11
67
35
-31
-3
0
50
7
39
-25
-23
40
79
6
7
-4
-41
62
28
-32
-128
-38
-46
39
-19
-20
18
63
90
-13
50
-56
23
36
1
17
-87
23
-122
-29
16
-80
-54
-22
127
-66
-51
-27
-29
60
-17
-27
-52
-49
113
-38
-23
27
-37
-124
-94
41
-104
-16
23
25
-21
-11
30
-25
-61
-10
21
-27
44
66
-21
-79
55
74
67
-128
-36
1
-31
89
-5
37
-56
101
72
74
78
11
22
68
34
-25
-38
-56
-16
60
0
-65
-27
-22
23
35
32
-29
37
33
-4
12
-53
-14
46
64
-63
3
42
-7
-46
-98
-118
-77
94
45
57
41
48
116
127
-56
29
-13
-31
2
9
0
-10
-4
-115
-57
-79
-110
-54
-108
-90
-52
29
52
11
20
12
62
76
-5
-26
-57
-45
36
40
46
-103
-48
127
68
42
14
-42
-29
99
92
-118
-69
35
8
59
38
10
-17
26
-58
-49
14
6
12
44
6
-52
63
-12
-23
8
46
127
-39
-25
43
17
81
-3
-54
-89
64
-16
-5
49
-53
-32
-18
-48
-55
-115
-79
-41
74
25
-27
-88
-85
-35
22
-7
-67
-79
-69
-38
45
-89
-96
-48
-10
24
19
-32
-43
26
79
-11
61
-2
35
81
-5
46
7
54
-73
-46
-106
-128
-46
34
-22
-14
23
36
17
109
25
49
55
23
8
2
3
-128
-15
16
-71
-3
-81
-14
0
2
-3
-80
-36
-16
32
36
78
81
-27
74
-56
-50
19
-6
-16
69
3
29
45
38
-72
-11
-92
-83
-8
-15
-19
-27
34
-12
5
-26
-15
4
18
22
-43
-15
18
23
46
-58
-42
-36
-7
3
1
24
-5
2
-12
-2
4
-27
-74
-69
-21
7
58
-31
12
28
85
125
12
7
-56
-4
-46
-15
34
-63
-8
-8
47
39
23
3
-88
-128
1
6
-20
-2
23
22
65
71
0
-14
-14
-6
8
5
-30
7
-9
25
-6
11
-10
-20
-88
-23
11
-6
29
1
-51
-1
48
-56
9
-34
-56
-8
47
66
86
9
-10
-4
-7
15
-5
-1
-22
-22
10
12
61
50
-30
-12
77
101
15
-8
-62
-99
-3
-32
-121
-94
-9
0
30
-4
11
-29
24
127
11
-11
-12
33
3
-8
-53
-31
-20
29
38
21
1
52
116
115
37
24
-5
17
24
3
-21
127
33
-20
12
-25
-32
-8
-63
-55
-49
-22
-48
-4
-6
-21
-34
90
11
17
15
12
-2
-8
-25
-64
-17
21
-1
40
44
23
43
127
48
-39
-15
-48
-29
-14
-76
-52
-38
-5
-13
38
0
27
103
72
16
29
34
-27
-25
-2
-17
-92
-7
-21
-5
16
8
14
101
64
1
38
29
65
15
-43
-68
47
14
10
47
-42
5
-10
-128
-128
-33
11
-49
-35
-14
-10
74
104
26
-40
-9
-5
-1
5
-31
-128
-7
13
20
-20
-20
2
69
89
18
1
15
31
30
16
20
59
11
8
-9
31
4
-4
9
22
-13
12
17
67
45
32
72
1
9
1
18
16
-12
-14
-78
-4
7
-24
-44
-54
-14
11
116
71
-1
-10
33
25
-2
9
-127
-128
7
-3
-6
-2
-24
-27
-16
32
-22
7
-16
5
9
16
29
-68
-32
23
-6
35
17
31
69
85
85
-20
22
-39
-27
-8
-112
-113
-41
-24
-64
-93
-65
-30
-7
99
-33
9
1
-30
23
-1
55
127
14
-2
75
71
48
7
8
-95
-33
-20
-4
20
33
5
-16
10
-4
-5
-29
12
-30
14
35
2
24
-7
-26
-128
-30
-22
-56
-53
-13
6
0
87
2
-25
-44
-46
2
17
31
-3
32
37
127
99
13
-10
-2
-60
-33
-38
-128
-128
-31
-12
-27
-44
-6
8
125
46
25
4
19
33
-46
-15
-23
-49
-9
3
-35
5
-3
-18
-32
30
-18
15
-14
13
15
1
-36
9
-16
-6
2
-10
19
9
62
-19
38
-6
13
-64
7
9
-20
32
-6
-6
-9
-9
-45
-29
-11
-41
-27
14
3
69
34
16
-1
47
27
3
-3
7
3
6
-50
-69
-1
6
10
-23
14
17
64
33
-24
15
-20
-47
-16
-10
28
48
15
2
3
-86
-21
9
33
-52
-9
-3
32
112
36
0
-24
80
17
4
6
24
-7
-1
-46
-80
6
-12
-26
-40
-28
-9
-57
-27
-13
7
-24
65
25
-15
4
23
-8
-9
29
0
0
7
41
37
6
-7
-15
-14
-4
9
38
55
20
-2
7
9
27
12
9
-36
6
5
-3
4
-11
-3
-28
-46
-10
9
-18
-24
3
2
-18
17
-2
-2
-17
-2
-3
-5
6
-11
-10
8
25
-10
-5
-8
-74
13
18
-11
-1
-29
-8
10
78
-4
3
10
24
11
-2
-5
2
14
2
4
-27
43
10
-5
-33
-43
-21
1
21
-2
12
2
2
59
27
31
23
111
32
27
70
23
4
-5
-6
40
-17
-21
-85
-53
-26
-6
-18
-40
10
9
34
20
-20
-3
38
12
-13
-16
-26
-52
-8
-10
-25
-20
-5
-2
-16
24
15
3
13
14
7
21
62
-11
-3
-12
-45
-109
-37
-13
-22
14
3
-1
-1
36
11
-2
7
-3
-6
2
22
69
16
-4
6
1
9
-8
1
3
-8
-18
-74
-13
-12
2
60
-1
14
3
4
-1
4
-12
-40
-1
2
17
68
-12
-2
18
23
-10
-13
4
-12
-30
-10
-24
-47
-27
-16
-3
10
26
-3
9
41
67
14
-4
-6
59
24
-12
-49
-103
-55
-19
-24
-79
-11
-13
0
-8
20
-13
-4
16
4
14
17
31
7
14
-2
-18
11
-4
20
42
9
-2
-35
-24
-19
5
-2
3
-9
8
56
51
9
-13
-24
-45
4
7
11
25
-4
6
60
16
17
-6
-24
-16
7
11
-83
10
-27
-10
-23
-50
-2
-16
-53
70
25
1
5
13
-14
4
15
-123
-21
-3
-28
-33
2
5
1
49
-4
2
47
44
4
9
40
26
11
5
2
12
2
6
11
76
27
1
12
48
8
-11
9
69
-12
-10
-3
-74
-11
-1
16
27
23
14
1
-15
13
-20
-19
-108
-29
-13
-22
-8
-23
7
15
-47
-22
-2
-11
0
4
-21
-7
-48
20
6
25
53
-17
1
-3
-82
-29
10
44
-16
3
-29
34
104
13
-15
-25
-37
-2
10
-37
-16
2
-6
15
46
15
7
-49
-19
-22
1
-35
-3
2
-10
29
-33
7
7
-2
15
-12
8
-2
-21
-23
2
8
-30
-30
-6
55
-47
-15
-21
0
-1
11
-11
-63
46
5
-14
-16
-5
-5
15
13
72
18
0
3
-3
9
-6
-9
-7
-14
-8
15
40
6
20
83
88
5
15
-35
-72
12
0
15
-42
5
9
-4
16
-7
1
8
14
16
-5
25
40
-10
-11
-52
-93
-15
-5
12
37
18
-10
-6
48
-10
-9
-52
-101
-9
5
41
-6
5
23
67
69
-7
-10
-60
0
-18
-12
-61
-31
-14
25
29
14
25
12
-18
10
12
-19
-32
-121
-14
-1
61
36
-11
-15
16
2
-11
-18
-34
-63
-16
11
30
27
-6
-6
-11
-1
2
-19
-13
27
20
-2
-21
-26
0
-4
42
-13
17
15
14
58
-4
5
-8
8
-28
-2
-14
-16
-8
3
-10
-18
10
7
30
23
22
22
8
-8
-11
-11
-6
-13
18
-9
-48
45
12
3
-14
-6
-21
8
46
1
16
18
80
61
11
-4
6
-68
-19
-21
-54
-64
-3
-3
-3
0
1
13
3
-17
-13
-13
-21
56
9
-3
-10
36
-1
20
21
48
-6
3
-27
-60
8
-22
-90
-46
-13
-14
12
53
-19
0
53
27
12
6
2
-62
4
-1
-5
-30
-11
-10
2
-3
-2
4
1
4
9
-2
-11
29
15
-13
-27
35
6
12
23
17
-12
-26
-19
-91
-44
-18
-31
-66
-5
9
13
24
7
-2
7
7
4
5
0
-26
-12
-8
10
24
-12
-20
39
99
33
7
-34
-59
-8
15
17
-1
-3
5
23
52
0
3
-35
-42
-12
-3
10
-3
3
-7
3
100
22
5
-11
6
8
13
10
-111
-26
-9
19
28
6
4
-14
11
14
7
18
23
10
-12
-11
-24
-5
-5
-47
-20
-14
-8
1
38
8
-12
-28
-20
-13
9
8
51
9
8
6
26
4
9
12
23
-9
6
10
31
6
0
12
-25
-9
-8
9
-1
-6
-1
5
-75
-9
0
-14
-1
17
-9
-40
93
4
0
15
-16
-3
-2
20
-35
0
-10
14
22
3
-9
-17
24
-9
-4
-10
-25
-16
27
10
9
9
-11
-38
-12
12
10
-23
0
-1
8
42
-4
0
-5
-41
-40
-14
5
-2
-21
-17
8
34
80
39
10
25
58
8
-10
-27
-18
-12
0
-13
-48
-10
-6
-43
-3
6
-8
-24
1
20
-14
4
29
10
4
9
15
-8
3
-18
-54
-18
-3
0
-27
-9
4
38
-35
-14
-1
22
30
-5
38
22
32
8
2
-25
52
44
-24
-32
-8
6
-4
-7
-48
-30
-5
8
63
2
5
2
8
-1
-5
-13
-57
-8
1
4
8
7
-4
-2
-59
-21
-3
10
5
-1
17
5
34
16
0
-16
6
6
1
3
-49
-19
-8
4
0
3
-9
-58
-37
-8
-3
2
5
-5
5
43
3
-6
-3
-15
-27
-15
2
-5
6
15
0
3
8
2
-5
8
5
2
0
-7
-3
-2
-6
-13
3
5
5
9
-2
8
-2
33
-16
-25
-12
-11
-15
-13
3
2
18
-3
-1
1
4
2
-3
-13
1
22
-6
1
2
7
6
11
-7
-24
10
1
15
3
-23
6
0
15
6
5
-4
-11
-5
-20
-3
-1
-7
-10
-9
-3
3
20
15
-1
-1
2
11
7
-8
-14
34
18
-3
-3
0
-3
-1
-7
-48
-23
-8
-7
-12
-15
3
11
4
-9
-5
-2
5
7
0
-11
-17
-4
2
0
-4
2
1
23
33
20
6
2
-3
-5
2
-9
9
-4
0
3
-3
-2
-1
2
-4
-3
-6
-2
5
0
-3
-15
-31
3
8
-1
-3
2
-9
6
7
-4
-7
-11
-3
-3
-4
-7
3
6
-9
-9
-5
-8
3
12
-5
-2
15
22
5
2
2
-6
4
-5
-2
-15
-1
3
2
-5
1
4
-7
23
1
4
7
12
-5
-2
4
-3
1
0
-14
-16
9
2
-9
-15
-9
-4
3
-15
-46
-15
-1
3
1
2
-5
-4
6
9
-2
-7
-4
-5
-7
-24
-1
5
2
5
3
-4
11
41
6
2
-2
-1
1
0
-3
6
-4
-9
5
2
-5
-3
12
10
7
-1
-7
-4
1
1
-3
-13
3
-1
1
3
1
0
-1
-24
-3
-5
1
-3
3
1
3
36
-3
12
-2
-1
-5
0
-4
-12
19
-1
-3
0
1
2
5
16
0
-8
-2
-9
-5
-4
-10
-17
-24
4
0
10
2
2
4
-14
39
-6
-9
-1
2
-2
1
-2
-51
3
10
7
0
-2
7
1
4
8
2
-5
-3
1
-9
6
9
-1
-11
-29
0
-3
2
-19
-14
-4
1
33
1
0
7
4
29
1
-4
0
3
-1
-2
3
-35
-12
-2
-1
-1
-4
-2
2
-16
-12
0
-3
2
1
10
4
24
23
-5
-17
-11
-2
-20
-24
-19
-24
-1
-2
1
-1
0
8
15
20
13
10
3
3
0
-12
-22
-20
-9
-1
1
1
15
12
-12
9
6
-9
-2
0
23
9
11
1
-5
-1
-6
-1
-50
-20
-9
0
-8
-5
-6
-13
-20
14
3
-13
2
9
31
8
-4
5
2
4
-5
-3
-13
-6
19
5
14
-2
-4
-47
-33
-3
13
-18
-24
-7
-5
-3
34
1
1
21
17
8
7
30
-6
-1
-15
3
-6
-10
-1
35
48
9
0
2
15
9
1
-3
-4
0
19
3
6
8
11
1
-31
-1
-10
-4
-3
2
-8
-7
19
2
7
-20
16
1
-4
-12
0
-3
-30
25
-18
-5
1
7
-24
-12
16
13
-9
4
-6
-10
-10
-3
8
-3
3
-7
-4
-15
-19
-9
9
-14
12
16
9
-4
5
10
-11
10
13
3
-5
3
43
5
-36
-12
15
-12
2
15
8
-12
19
-20
-12
2
1
-12
-44
-7
-9
1
-94
-23
-11
-3
54
-5
54
-14
-2
13
4
-27
-55
12
42
26
30
4
14
58
64
16
-75
2
14
-5
-10
-35
-55
-10
28
-7
4
-3
8
28
-20
6
-26
-6
-5
4
-4
25
45
-8
10
-9
-3
6
3
-18
-8
15
16
-13
-7
-11
-13
-9
42
-2
15
9
22
2
0
-13
-24
0
13
3
-27
-4
-3
-5
-18
1
-27
-3
16
2
2
48
17
-6
26
-8
-19
-9
1
-18
6
4
-15
16
3
0
-6
-45
-42
-9
14
-36
36
-11
8
14
32
-3
12
-11
-17
5
-9
-18
-45
4
-20
24
-3
28
6
42
53
18
-6
-24
-19
-15
-8
-31
-4
-15
-31
-1
-9
5
1
38
-26
-15
-5
3
-14
-17
-7
-26
-8
-6
33
14
25
8
5
11
-46
1
23
0
-57
-23
-5
5
61
16
61
-23
14
-11
0
-10
-31
-1
-84
-19
-11
-11
-18
-24
3
-26
-43
15
-6
10
2
14
27
8
36
9
81
15
18
-11
-78
-1
35
-37
-70
-3
-3
12
59
3
18
49
28
-8
-9
-3
-49
24
-19
-11
0
-3
-8
-63
-36
-28
-12
-8
-39
-6
3
73
104
18
-61
-3
24
-8
5
-8
-39
-18
0
-3
-23
10
-3
-32
-7
-16
103
-1
30
-1
7
27
65
16
-30
7
45
13
4
24
-49
11
-51
29
45
0
-13
-6
3
-35
24
11
-35
-24
-6
-41
13
10
-56
-19
-38
-2
6
28
-33
-10
55
-41
0
-4
-7
-29
-20
-20
21
27
1
-5
-5
15
63
34
57
10
4
23
13
7
-67
-4
-78
3
64
-27
-6
-10
27
-31
-58
-12
7
27
4
-5
1
7
18
5
3
-16
-2
-7
-21
28
30
4
-45
7
2
32
55
-21
38
-31
-74
-26
-18
-31
-39
24
-17
38
25
-17
9
18
15
-39
20
-12
20
29
5
-37
-29
-33
-99
19
8
-28
-19
-21
-16
25
28
29
32
97
26
-2
-24
3
-24
27
10
-34
-21
25
86
0
100
-5
-33
-5
13
-13
-16
37
-64
-12
-19
4
-4
2
0
-42
61
54
26
15
4
12
-5
39
-6
-6
-60
-3
-10
-7
-1
20
-11
8
52
23
26
37
26
-10
-30
-19
29
-2
6
-11
-66
-8
-52
-33
-17
15
1
6
72
19
75
25
8
-24
12
39
50
4
-3
2
-17
38
-1
-15
-33
8
28
-12
18
-19
-53
-72
-53
-13
-74
-18
-17
-24
4
63
44
-29
78
21
8
39
39
18
34
7
-124
-56
-41
6
-20
-8
-55
31
102
62
-3
16
28
71
127
62
67
21
29
-60
-35
-111
-128
-1
-119
-57
-18
13
-20
-1
6
-63
55
61
-25
64
46
24
-27
1
-92
14
11
54
-9
-35
-60
-19
97
-17
41
-65
-3
32
52
35
41
83
-2
-57
-41
-80
-84
-11
-65
-5
47
24
-5
-2
62
11
25
-50
-85
-15
0
5
-6
-4
-67
-60
-29
61
18
70
48
-50
20
60
5
-26
9
-53
-128
-20
-71
0
35
-45
-67
-32
-18
-43
127
33
44
12
17
-34
-23
38
-43
-11
-62
13
8
66
104
38
-26
-125
-4
-19
-6
-42
-92
-76
3
60
11
15
-10
-15
70
-6
-31
-37
-5
-7
23
8
16
19
7
5
-83
-11
-19
-31
69
15
-72
19
-1
-37
13
58
-77
-53
127
-44
16
33
-24
-18
65
84
-111
44
55
-34
-4
7
93
-72
20
44
34
6
-9
-41
-86
-26
29
-48
-16
72
19
21
-20
70
-10
-42
-41
-5
-20
-22
-4
-5
83
25
1
-41
5
10
-34
-36
-1
-39
-22
-54
7
7
-15
-11
-91
-53
24
-60
-63
-47
87
-35
96
38
-29
56
68
51
-7
74
-50
73
53
42
5
11
0
-31
-85
-3
25
37
18
66
70
2
55
36
-78
8
1
-78
-96
-66
-109
-22
6
-51
-35
25
127
28
57
32
53
-44
-8
-26
-107
-36
94
-36
-61
-84
-55
-58
10
-18
-94
-64
35
52
36
59
100
45
77
18
-58
32
15
11
27
-5
60
-12
-31
69
-14
-66
-71
17
-28
-40
29
-54
-24
62
43
-39
12
-3
-11
27
-12
-74
-39
-17
53
-19
-6
-128
-2
56
44
22
-10
-47
-8
0
0
-36
9
37
15
51
-33
-10
11
22
26
-7
-46
-70
12
-3
-34
-4
-40
4
-13
-13
-33
54
41
-24
-69
2
99
-20
33
-97
-16
5
-30
-21
-51
33
29
99
24
-20
48
-4
44
-3
36
-59
7
92
105
23
16
18
-20
-51
-24
-34
-128
-107
-64
-38
-55
46
-2
4
53
12
-13
-30
-29
-1
-12
-107
-128
13
10
-55
29
29
27
26
109
33
65
64
79
-68
63
118
54
-36
-106
-44
-57
61
-74
-72
-31
-44
127
36
98
29
-14
-58
-76
84
-62
1
-48
20
12
62
89
14
31
11
56
-50
-20
-72
-111
-69
-6
-3
-59
-12
28
80
127
72
42
85
47
3
36
-1
-57
-27
72
20
-13
-19
-7
-27
-80
-18
6
-34
63
71
-63
-58
17
-46
-7
-75
-36
-27
92
126
-38
15
96
-14
7
-48
-61
-2
100
79
-79
114
46
-39
16
-24
-75
-22
-18
31
-8
24
40
59
51
3
-2
-10
30
-14
-21
-64
-57
30
72
-65
-31
-51
-19
37
100
-61
-10
34
4
-73
23
48
-14
30
69
19
-11
43
-3
-3
103
50
-56
1
-24
5
5
-8
61
49
-91
33
29
10
-2
-51
-87
-111
65
67
32
-31
-32
-58
-64
35
20
12
-27
-33
25
47
13
30
127
-32
-60
-8
1
46
55
83
-121
-27
60
-34
-21
-74
-90
-49
-72
-65
-98
93
10
51
111
-12
-75
-12
14
-45
-18
17
87
-14
18
-24
10
18
-17
-28
-67
-29
65
36
28
89
23
7
-21
81
-21
-2
14
35
9
-19
0
-19
-128
5
-9
-12
-29
-35
-34
-10
-16
63
42
59
35
62
5
22
68
-79
-80
-11
19
28
23
36
71
-29
12
-34
-3
-3
26
27
-128
-29
-46
-19
7
33
11
-10
24
18
96
52
10
3
54
-32
-100
-26
-33
-102
-63
-20
-17
-24
119
82
49
120
60
52
67
27
26
-23
4
-42
-14
-90
-128
-10
53
-3
-15
-61
-17
7
105
-43
-128
6
-19
-12
29
43
-13
-78
66
29
9
-52
-67
-85
18
8
-69
-44
15
1
15
37
-40
-26
38
28
-15
55
34
61
5
-3
64
15
-28
-62
-9
-55
-41
26
41
40
-2
-38
-48
-1
26
24
89
-6
-29
106
40
19
103
126
-100
-81
-2
-117
-52
-6
-34
-101
-86
16
-10
48
18
-3
-4
0
45
-17
-10
58
23
-6
1
9
2
-56
-11
-47
-32
-64
-96
-46
48
31
55
-90
-41
-6
127
24
-51
-8
-55
117
98
124
124
-21
-45
69
39
-8
4
-72
-128
17
-104
28
-80
-88
-46
-14
55
-2
34
-1
25
40
18
27
0
-9
-35
-43
-62
53
46
-1
-26
38
58
38
17
28
-5
8
33
59
38
22
36
-11
9
31
-41
-45
53
10
3
-71
-72
-72
-24
23
42
-23
40
-12
4
-5
-41
-9
67
10
1
58
33
83
127
22
-84
27
35
27
-31
-26
-32
-34
-22
-18
-59
-13
39
-40
-128
-15
70
-24
-20
-32
-50
36
127
-66
-109
-19
5
-19
2
-39
-128
64
9
10
34
-19
-8
-5
-32
-57
-117
53
21
21
13
76
70
-2
70
0
3
23
6
-26
-15
43
69
-20
-25
29
34
40
87
12
12
5
22
43
9
-9
11
28
-55
-46
-32
-35
-26
-23
-88
-22
38
64
16
-6
10
37
74
33
-43
-82
16
-45
-30
-32
-3
-83
124
17
-7
32
26
21
-13
60
-61
12
1
43
44
72
108
-32
68
50
61
-13
-34
-109
-128
33
-22
-21
-56
-24
-5
3
40
-18
112
18
26
59
33
89
117
63
-83
-50
5
-50
-60
-118
-96
-88
127
5
-5
-83
8
59
114
34
-85
-5
-26
64
48
41
-8
-45
-8
-23
25
-60
-52
-47
54
15
116
86
-23
55
48
53
-6
0
-64
-69
-17
12
-17
-38
-65
24
0
-47
38
-41
-42
16
-28
-74
9
-1
-49
-96
-42
-67
-34
-37
-54
-36
25
42
56
-7
-54
-24
-99
15
-6
18
-5
51
19
-39
16
-80
1
-48
-28
-73
-1
27
75
32
47
42
37
82
49
34
-10
-9
-32
18
-3
-25
66
15
-21
93
29
9
9
-39
-44
49
-71
-18
-16
26
18
56
1
-55
-11
2
3
-31
-29
-53
-48
-7
68
26
25
21
-16
5
75
105
85
7
-20
7
14
43
22
4
-45
-14
-5
-31
-29
-37
-53
-37
66
9
-7
66
61
-3
-37
-16
-29
-55
6
-49
-58
-39
-13
-10
27
57
27
-37
5
44
62
28
127
40
-27
7
-19
-56
-28
8
-69
7
15
-6
-2
19
89
-37
78
-59
-8
-68
-7
31
-2
49
-117
-33
-18
27
-3
-14
-35
-70
114
55
31
-5
-40
14
83
50
-89
-97
-68
26
25
-53
-56
-15
104
54
48
-1
2
19
-19
-10
-75
22
23
21
0
6
-51
-29
77
34
-4
-110
-29
-21
64
7
-45
27
-51
70
13
89
80
-14
0
-5
-12
-8
25
-80
-103
3
85
-101
-18
9
-22
21
92
16
-56
86
13
9
34
-50
-128
-7
-78
-88
-7
-108
-75
-34
48
-59
77
121
39
101
62
68
24
43
-6
-12
0
-38
-4
26
33
6
3
-26
-2
81
10
35
51
27
119
82
10
-1
28
50
64
80
-113
-81
-17
-67
-61
-111
-68
-76
83
63
8
-40
-1
9
-19
-1
-12
-30
0
69
20
-3
10
14
29
-27
24
-40
-14
-28
-72
-39
110
85
21
57
24
127
127
107
-101
28
27
5
2
-112
-103
-91
-47
-128
-67
22
17
63
94
-48
-38
42
32
-64
-5
-43
-15
-1
4
-26
-9
-27
-9
41
51
-19
102
9
-66
32
19
-30
-33
49
-77
81
37
22
-14
41
14
51
1
8
-11
14
-11
-67
-81
-44
-73
-64
-47
53
38
50
105
45
50
36
36
-14
-40
24
92
-3
-55
19
34
-116
-10
-53
-128
-27
95
6
19
15
22
2
22
81
-99
-1
-36
1
-24
-17
42
-69
36
-3
32
41
-5
-44
0
20
-52
19
-31
48
14
28
-22
-5
-6
-27
73
-57
-44
-33
-68
-30
110
13
-96
63
33
9
-24
13
-109
-119
30
-23
16
25
9
-71
127
55
23
-91
-34
-42
35
39
-66
-35
-28
59
-19
-24
-102
-59
-12
-6
32
-29
11
-2
-77
-29
89
-28
-39
-15
-57
-59
-22
-31
-5
-16
-2
-19
28
102
118
51
56
-14
-52
-30
-12
-27
-118
-51
13
65
12
-1
13
43
127
94
10
15
8
18
25
44
-63
-2
-2
-46
-5
53
12
-50
-97
-51
-50
60
-46
75
9
13
93
23
67
-40
23
-54
-26
-47
4
33
127
114
-12
-8
67
68
42
40
-9
-60
22
-50
-51
15
91
-41
33
65
9
33
39
21
22
28
-85
-111
-14
95
28
-9
36
-20
24
25
27
-68
-56
-64
-121
10
2
25
-4
-29
-15
-15
11
-29
-2
-71
-49
46
29
51
-18
55
-7
52
33
-97
-98
-86
-11
-79
-12
-22
-19
68
53
51
85
32
14
86
51
22
23
85
81
63
-1
-102
-35
-93
-21
-93
-72
-69
62
46
21
-23
-36
-17
26
11
70
-23
-63
109
65
82
77
103
54
31
42
44
3
0
21
-35
-102
71
6
-93
5
10
-9
7
104
-30
19
12
-61
-57
-104
25
-111
-41
-21
47
42
3
-37
-119
2
-13
-18
-2
-10
-14
-59
59
26
-27
7
-70
-56
0
-31
-36
-84
-20
-22
84
80
15
-40
-33
-104
-23
-23
-111
-69
23
99
10
46
46
-11
96
23
-17
29
0
20
-90
20
26
2
-40
-43
47
92
107
54
-9
59
127
99
52
76
15
-20
43
21
-4
-76
3
64
-70
55
-83
-27
-73
-41
-63
-62
127
-80
52
42
35
115
88
-73
-113
-46
-14
31
5
-40
-20
71
99
50
-35
-29
25
63
-5
-128
-84
-57
-67
-49
-42
-46
-11
98
46
62
-64
-19
-15
17
-30
0
-62
-4
68
38
-29
55
22
-110
37
26
-42
3
13
-21
-54
-1
-3
-6
15
15
-5
3
11
11
0
17
19
6
59
56
13
-33
29
-9
-11
19
69
57
-8
60
-14
-2
7
-16
-49
-10
38
11
56
2
29
3
101
102
31
-20
-46
5
0
-27
-88
-64
-60
-26
11
-13
-50
-30
-45
48
-36
-28
-42
1
56
40
103
121
19
23
58
-41
-33
11
12
30
14
8
28
-8
31
6
-43
-14
6
-37
-50
11
-19
-48
-35
-123
-24
-14
20
28
-6
12
11
-49
-26
-20
-53
-34
10
-26
-101
-31
-13
8
-24
1
5
26
127
25
-6
18
19
23
0
-11
-27
-37
28
-19
-14
-5
-7
-13
-11
-59
-10
-28
-93
-11
-6
-28
-60
21
-12
8
5
-35
48
89
67
68
27
-1
52
41
-39
-22
-62
-106
-4
-8
-19
20
-7
12
-67
17
20
-4
-47
-76
24
-35
31
-36
-14
7
7
-3
-15
-43
-22
69
-18
-11
5
6
16
-12
-26
68
-30
-7
14
91
-22
20
46
-90
7
7
36
-12
4
68
14
28
15
-2
-10
-9
28
-50
-28
-74
33
10
35
-28
-45
37
29
54
0
-12
-4
-31
-11
-98
-128
-14
-70
1
13
9
1
41
106
24
47
-5
2
-52
-15
-26
93
3
-20
14
46
23
8
25
64
-70
6
25
10
-26
3
1
-59
66
21
-29
-59
71
0
20
34
-56
-19
4
11
-79
-2
-39
-116
7
-14
-11
-47
-98
-39
-23
47
-17
77
0
-23
48
0
-11
-77
1
-55
30
65
-93
16
9
-30
37
-13
-6
19
127
57
59
51
-82
-4
-32
20
-86
-34
-24
21
5
-20
-15
-55
-73
-22
19
75
41
51
23
50
25
-10
-24
-62
-5
19
7
-16
-13
8
-26
-94
32
-34
16
-2
55
7
9
-12
-77
-35
-20
-28
-36
-20
1
38
4
20
-20
36
127
34
6
-1
29
-62
-5
-99
-128
-51
18
127
91
30
-6
39
72
-17
-40
-75
10
6
0
20
3
35
-24
-31
-52
-40
18
-18
-48
-3
28
31
-97
-13
-12
49
109
-13
25
58
91
1
18
-45
53
22
5
3
-39
-11
-15
49
-37
-32
-34
-52
-35
-24
-45
-106
-34
5
-14
-43
-119
5
21
78
78
12
-3
-49
4
1
-1
70
67
26
7
31
56
0
-10
-42
-111
-14
-19
-25
52
19
26
42
-15
-1
26
91
54
3
-9
5
-49
29
-7
-83
-7
25
10
41
86
0
11
8
-34
-43
7
7
38
14
15
-34
5
4
-33
-90
-51
-23
-22
32
107
33
4
8
23
-3
18
14
-113
-11
7
-18
-88
-5
0
-61
36
16
34
2
11
-4
-8
-8
-87
-14
-14
-26
-57
-26
-14
-1
33
-6
24
37
30
17
-4
-25
-16
17
-43
-11
-22
11
7
14
43
14
-6
-54
-4
-25
-2
48
-16
-7
-11
34
49
2
-7
-72
-46
-12
4
-26
-108
-24
-4
-12
37
13
5
15
57
33
0
10
-16
-25
-3
49
28
2
4
48
33
19
1
-21
28
-2
-20
-73
-55
8
-11
-16
43
11
6
29
27
-16
-1
11
-26
-19
-13
-37
-17
-13
10
-3
17
20
18
73
32
22
15
80
3
7
-2
-82
-33
-4
-23
-69
-35
-28
-3
65
11
-16
0
-41
-45
-22
-6
-7
11
-3
-6
6
70
28
0
-2
11
1
4
44
-27
-7
-5
-20
-35
-31
-4
7
-21
3
-8
-10
12
7
-1
-42
-43
-24
-21
6
-5
6
0
-32
36
20
27
32
16
1
8
-8
-8
-10
6
45
-1
-19
7
40
45
1
-9
-20
-3
7
-2
-4
-10
14
-6
-15
-16
-8
-17
-5
-47
-14
-9
-53
13
4
19
-3
73
24
9
52
-9
21
-17
-15
-92
-23
-9
-6
-15
-8
6
-55
11
-18
-3
36
27
7
7
3
40
28
16
-31
-7
13
-5
39
-52
-24
-4
25
-8
-5
-7
-47
15
8
11
31
37
0
-8
18
52
2
-1
-28
-39
-8
-33
-45
-88
-12
-8
-13
-27
-29
4
58
60
-14
-7
10
-6
-12
-8
-80
-36
3
-17
-36
35
10
19
41
-2
7
8
4
-14
-2
-5
5
12
2
-2
20
-8
6
3
-35
-14
-12
8
-3
34
12
4
35
65
22
1
4
-10
-14
23
-13
-50
-3
3
8
-12
6
3
4
14
-11
-6
-1
18
-3
-4
-65
36
18
-8
-40
-24
4
4
69
8
-33
-8
-2
-12
-2
1
-41
-80
-7
-6
-10
-7
-1
7
42
36
2
0
22
12
5
-7
-19
-16
4
2
2
59
14
8
13
-8
10
-2
-19
-79
-13
-1
-15
46
6
1
6
12
0
7
32
-77
-23
-6
6
12
9
1
28
74
19
5
0
-19
-5
6
18
-29
-12
-1
-14
4
-12
-28
-87
-68
-26
-16
5
-4
-6
-1
-2
73
13
16
16
-1
-8
13
33
38
3
-21
-46
-24
-5
-7
-11
-32
-3
33
88
41
9
-2
35
28
13
2
12
44
7
4
-29
20
13
-7
-13
-79
-5
-10
-4
-121
-41
-4
-10
-5
1
-4
33
72
-3
-15
-36
-10
-1
-19
28
28
6
6
13
25
-4
-10
-18
-9
15
-8
5
35
6
21
38
52
15
19
13
-10
-1
4
-17
58
4
-17
-29
-34
0
2
4
-98
-9
13
22
15
7
-2
-9
47
-13
-9
-17
-26
-13
-13
-37
-35
-9
0
17
-3
-6
-8
-2
50
17
-12
-37
29
0
7
41
33
19
1
12
-15
2
8
2
1
-18
-1
34
8
10
5
-16
-25
7
20
1
9
-11
0
8
15
16
8
-13
-2
-3
5
16
-7
-20
-22
-45
-26
14
6
-9
-57
1
8
16
8
-13
-7
-3
32
9
-4
10
7
-3
3
-31
-41
3
9
22
15
6
-13
9
32
-7
-9
-44
-36
-10
0
1
-71
-23
-12
-12
20
9
-31
-18
-17
6
-4
7
-4
3
6
-16
-6
-8
-1
-4
-2
3
13
11
40
20
13
10
28
13
16
18
93
18
13
17
-12
-3
-8
8
-46
-22
-5
-12
-8
1
1
1
-5
4
-8
-5
0
-1
-1
-2
-11
-23
-14
-13
-8
-6
-8
12
19
7
4
3
23
9
9
11
-2
4
-7
-29
-18
-9
9
-14
6
-5
13
39
44
10
-16
-55
-1
-3
-5
-12
-63
-13
3
29
-14
8
-3
15
21
0
5
-23
29
-7
10
8
22
2
-6
29
-89
-14
-15
-56
-56
-3
3
-7
6
17
13
35
34
2
-4
-2
2
-9
-16
-16
6
9
2
-19
-19
-6
-6
-12
-16
0
1
-4
38
16
8
38
18
-7
9
70
-4
-4
9
26
35
10
4
-56
17
-13
0
-38
-55
-13
8
-14
-38
-4
-1
14
16
-5
-1
9
9
8
0
-10
10
0
-18
-48
-18
-2
2
-11
-33
-3
-6
12
42
-2
-9
20
46
-1
6
-6
-29
-18
-8
-28
-50
5
6
20
33
-2
-5
-9
-3
-9
1
-43
-21
-7
5
35
20
-10
-6
10
-48
-1
4
-7
-7
7
5
3
47
10
-5
-4
14
6
-7
-15
2
0
6
17
11
0
6
41
7
7
-12
-50
-14
-3
-5
-22
-14
-2
-2
16
-11
-4
-3
17
-49
-24
-9
-15
-10
-1
-4
-23
-3
0
1
-1
-9
-2
-3
2
-8
2
5
6
10
-7
-2
18
-28
-4
1
-8
7
4
0
-6
8
11
0
15
1
-1
-1
-2
46
-5
-7
-16
-10
-5
1
0
31
2
-4
3
-4
-1
8
26
-50
3
6
-6
8
3
-2
12
14
-11
-9
2
1
0
-4
-11
35
0
0
10
1
13
0
-13
-73
-20
0
0
-10
-16
1
25
31
7
-3
-20
22
0
-3
-24
3
12
15
27
-30
-1
3
-10
-31
-15
-18
-23
-9
-7
-5
3
38
0
0
-7
8
7
0
-18
-5
-3
-3
9
-6
-3
-5
-4
-8
5
4
-2
30
1
5
1
-4
-3
-2
3
-1
1
11
15
16
8
5
1
-12
-3
-8
-12
7
2
-10
-17
-7
-3
0
4
-13
-3
-4
4
8
2
-5
6
-39
-9
-4
4
-9
1
2
3
-2
5
3
-2
15
-1
-6
-9
24
3
1
-19
-25
-3
-1
8
49
4
9
23
6
-1
-6
-2
-55
-16
-1
-21
-4
-1
0
-7
0
6
-3
12
6
2
0
6
-8
-8
-6
-3
-6
0
4
8
17
-2
-8
-8
-4
-1
-6
5
5
6
5
3
6
-2
6
12
23
-6
-4
-5
-1
2
-2
0
-13
1
6
2
-7
-2
0
4
-15
7
9
4
7
0
-9
-31
16
4
4
0
0
0
1
30
2
-7
-14
-8
-7
-2
4
7
0
-9
-8
1
-5
0
-3
2
-9
16
4
-7
2
-4
1
-1
19
-1
6
10
2
2
-5
-14
4
8
1
-1
-2
-1
-2
-8
-38
-14
-16
-10
-4
-1
-1
3
17
3
7
2
7
-2
-4
8
10
10
3
-8
-8
-5
0
-5
4
-5
-1
-10
-1
1
-7
-7
5
15
6
13
5
-1
4
-8
4
-18
-10
5
2
1
1
15
-4
2
1
3
0
1
-4
9
0
-5
9
3
-2
-5
7
-4
1
11
4
-1
0
2
-1
-1
7
0
-4
-3
-1
1
-9
10
1
3
-2
1
1
-1
-2
-5
-24
0
-5
-6
-2
-1
-15
-47
6
-9
-4
-1
-2
-3
4
4
4
-10
-2
1
-2
2
4
7
1
8
0
-8
-4
-2
-11
-1
2
3
-2
-3
0
-2
6
3
-9
1
5
5
0
1
-5
5
3
1
-4
1
2
-6
-3
-11
-10
-16
-6
-14
-4
-3
-2
3
-2
0
-15
6
-1
-7
-3
9
7
-2
15
17
0
-3
-6
-12
3
4
2
-2
1
0
3
8
-10
-3
-3
-8
-1
3
12
-2
-2
0
0
4
5
6
-5
5
-2
-8
-6
-10
-3
1
-11
-8
10
-4
-8
1
-6
-5
7
-2
3
-1
-4
0
2
2
3
-6
2
6
5
0
-8
2
6
1
-7
21
7
-1
5
3
11
14
-9
-10
1
-3
-1
0
-31
-30
-2
6
-3
-1
0
2
14
6
3
-9
0
-1
-2
-7
-30
-2
-8
-10
-7
-3
-3
-4
14
13
-2
3
-2
-9
1
2
18
-1
-8
-5
-4
-4
-6
-3
-17
0
1
5
-4
-13
-1
-4
23
-8
2
-2
9
8
14
4
-22
7
-3
1
4
25
9
-1
7
6
6
-11
0
-3
-33
5
-20
-18
-22
-8
0
1
-18
-9
6
-7
1
9
-8
-5
-7
-4
5
3
-10
0
-3
-7
43
12
1
1
34
-11
-1
-11
-28
-12
-9
-2
-53
21
11
0
4
-1
-4
2
-9
-11
-12
0
-1
3
8
-7
-6
0
6
17
-2
-7
8
4
2
11
-2
-2
34
8
3
-5
23
-10
0
-8
-34
4
-20
-17
7
2
-4
-12
5
-10
-8
16
10
0
1
10
-9
-4
-13
-11
-3
-5
-6
-1
-5
-14
26
8
-5
-9
0
23
35
6
-8
4
-12
-4
-4
-8
4
8
4
10
10
-2
4
8
-9
3
-3
-13
-22
0
-2
-23
-25
-5
10
4
13
2
-11
-3
18
4
13
21
4
4
3
-10
-15
2
-38
-53
-20
-23
-24
-32
-21
-20
-8
13
-30
5
14
39
55
3
13
-4
38
-17
-10
-37
-73
4
28
-7
44
24
1
15
39
-6
-27
-5
-43
-8
-1
-21
-35
2
-9
-11
-16
-8
-2
22
28
-8
-39
-5
34
0
1
-4
14
-2
6
-4
-51
1
-4
-13
-21
-4
23
41
52
16
9
43
63
6
30
-5
-14
-1
-2
-16
-74
13
29
20
11
-11
-6
-36
48
17
22
-16
-10
-14
-4
7
-38
-21
-67
-3
17
13
-4
-20
-15
-9
38
-10
-8
-4
7
33
60
-7
-31
-8
37
10
8
24
-7
-10
17
37
-19
6
12
-14
29
28
59
13
-13
-6
-5
-20
-72
3
-49
-13
20
6
-7
-13
14
-3
48
11
-38
-1
0
12
3
-3
-13
19
20
-10
1
63
55
3
0
-48
-56
-11
-4
-64
-26
13
-30
19
46
-7
-9
-42
-60
-7
-13
-21
-6
14
-2
-10
-4
-16
-57
9
-22
-2
11
26
-15
7
62
10
-67
-13
-10
-4
16
-2
-48
-10
15
-11
4
21
8
-5
57
15
0
-7
-12
30
43
5
13
-4
53
17
14
-19
-1
12
-103
16
71
-2
-10
4
12
-26
-8
-8
-85
6
4
2
-24
-4
15
3
17
13
2
18
29
34
27
-35
-26
-7
-10
-2
-4
8
16
3
48
-20
-2
-51
-45
-16
111
62
27
13
8
1
-6
17
-87
-51
-97
-24
-1
30
6
-38
-69
-28
-16
-27
-19
-18
33
25
83
30
29
48
17
25
34
15
-44
-18
73
-4
-13
-2
-25
-33
-11
13
-41
2
2
-27
26
-18
18
11
-12
11
13
2
-33
18
-64
-23
23
-26
-10
9
16
-2
34
25
-3
-7
-11
12
58
-6
-32
-35
12
9
1
-11
-66
-12
25
19
-23
39
9
7
7
4
-59
-28
13
-14
-22
-32
-5
-22
-5
43
4
6
12
6
-55
17
-13
-27
43
-18
-21
-7
4
2
59
-9
-31
-60
-9
-17
-20
-20
-28
-70
-56
-17
9
13
-21
-36
59
15
-21
61
21
6
7
36
-68
29
20
14
-5
-7
18
1
49
26
77
7
15
50
11
-3
-41
-25
-14
35
-4
11
-48
-21
28
-7
-18
-31
-3
-56
7
1
-71
-32
-35
-35
23
63
46
8
81
74
64
26
-19
-115
-90
-5
-17
-45
-51
16
15
29
73
-7
-9
35
-35
-7
-18
15
21
12
52
23
80
6
-8
-10
21
20
-123
-34
-34
-39
-13
-30
-70
-104
116
78
82
-3
20
33
40
38
-62
-62
-81
14
-30
-19
-18
-15
64
3
15
24
45
32
59
24
-24
37
54
12
-4
29
21
1
22
6
2
-34
-20
-17
-24
1
44
-14
-15
2
24
37
36
23
-67
-33
-12
-79
-49
-65
-63
-10
86
9
-16
85
11
32
21
51
-93
-12
-25
-33
6
-10
-9
-33
-67
-12
35
-86
-60
-66
-30
-22
76
3
0
79
29
32
45
-14
5
3
-13
-23
-9
-51
-57
-21
-4
24
53
26
22
59
49
51
-12
10
-31
14
22
38
42
-12
-2
-18
-10
-31
-18
-35
-103
8
35
-72
-5
-107
-31
8
89
26
88
105
6
97
5
33
56
25
-48
-48
33
99
62
33
-4
-14
-82
-22
-27
-56
-30
-43
-42
-71
13
8
56
-4
9
-2
16
-6
-27
21
-63
-10
-7
28
53
23
86
-41
-13
-98
-19
-13
20
12
-1
28
-8
127
53
38
13
-6
-43
-44
-30
-122
-26
0
21
26
-54
25
41
79
13
-26
-97
-26
-84
18
7
32
-4
26
106
9
30
0
31
-50
-16
-14
-111
-31
-96
-53
-38
25
4
-8
37
-20
122
8
71
-43
-42
-92
-75
7
66
35
-25
30
6
49
63
73
-27
-26
-112
-43
23
49
1
21
-37
-3
51
73
11
19
78
-75
-90
18
22
43
30
30
-39
29
75
-43
2
-38
-6
-66
-85
-15
107
39
68
-15
-22
-14
74
15
-87
-23
-110
0
-13
10
-70
-33
95
-3
-43
-108
1
34
57
4
-102
-62
47
48
-16
-56
-109
-17
109
58
-52
73
26
34
91
46
-15
31
0
-18
2
-11
24
-15
71
-38
-46
-72
-9
-17
-79
-18
-100
59
57
70
22
35
105
34
38
-35
1
-49
-39
-46
-54
-1
-50
43
49
29
29
67
41
11
-3
-44
-34
29
33
77
20
-17
-18
11
-5
-48
-37
-84
-66
-51
0
-4
9
8
-1
-4
65
13
-39
7
-40
50
32
53
8
57
-81
-97
3
-49
-18
-3
4
-45
53
62
-34
-14
-2
21
94
39
-28
91
87
7
-19
-25
7
-17
80
21
-47
12
10
-16
-39
-17
-50
-86
4
22
-4
-17
-31
-11
1
4
-72
-7
16
43
-39
-30
70
-38
-46
-87
-53
-59
-70
5
113
57
79
25
-20
-4
104
113
-123
35
-22
3
21
-38
-73
-48
107
-15
18
3
10
-31
-17
-43
-84
-10
27
-29
-5
45
36
47
-1
-41
29
-40
-25
-29
-21
-94
-7
-27
-49
14
-2
-12
32
58
23
22
53
-1
10
56
18
13
-46
-6
-65
52
35
37
3
22
19
-57
-9
-20
12
-34
-36
5
45
96
62
37
-15
-18
56
12
74
-47
5
-76
-25
-19
-109
-53
30
-30
-48
69
75
117
80
3
94
26
-2
-71
-68
-97
-93
31
112
43
28
50
12
24
57
31
7
-25
-23
-21
-6
28
-30
4
-86
-40
-19
92
36
10
-2
-63
-2
-32
3
-20
-20
-18
-24
-10
-33
14
-7
22
9
-12
76
-23
-128
84
77
-15
-20
38
38
28
99
41
-17
-14
11
-78
-87
36
-128
-106
-12
-27
-25
-19
-128
-68
83
13
-6
-60
18
8
50
22
-84
1
-13
60
1
2
75
-33
40
21
21
31
-24
-16
-20
-54
77
58
1
-9
6
16
17
127
54
-39
-3
-13
5
5
98
-20
-71
-16
4
-34
-27
-53
-106
-74
24
-8
-46
-61
-24
-24
-8
7
-100
-4
25
18
-24
1
-30
-69
26
-16
-55
-20
16
29
23
-25
21
-82
-34
21
-16
10
64
-2
-27
-4
25
-27
-4
-44
-59
-2
11
55
49
85
23
37
48
84
41
-53
-111
-109
-53
14
28
-22
72
-38
63
61
55
-19
-71
55
-122
33
-25
15
6
14
42
3
127
74
24
14
27
33
50
36
-87
-77
18
1
-53
-59
-60
-28
77
95
2
9
56
80
127
85
-67
-57
77
35
-39
-5
-90
-19
31
-18
-93
-62
34
13
80
-29
110
81
79
91
15
53
35
35
-122
-78
-70
-114
-64
-60
-85
-73
38
14
50
-69
-6
-49
-10
-41
9
-7
-3
35
10
47
49
42
80
10
-32
85
64
39
40
84
101
68
38
-21
-46
-66
-43
12
23
0
44
-35
7
65
72
41
-128
-76
-94
-8
19
31
60
-100
-29
-22
-27
-10
-22
-57
-128
-31
95
84
-5
42
31
-11
80
63
-31
-33
-12
-64
2
42
109
-29
-66
-62
-12
10
-45
-84
-88
18
13
9
72
44
51
64
26
-19
12
-14
-50
-88
-46
3
43
-56
-20
75
64
43
-4
-91
-116
-19
53
-5
-3
26
31
96
124
-11
-38
-4
22
-59
-33
-97
-128
26
-74
-49
-2
38
17
33
55
-38
127
-10
-34
-31
-42
6
20
91
-27
32
-12
3
-27
-48
-55
-25
-15
35
3
-70
3
81
71
-27
127
32
-25
114
70
3
-96
83
-64
-59
58
-69
-59
-11
72
-40
80
-14
-23
66
69
39
-28
-17
-67
23
-6
-4
-15
-4
65
-4
45
-24
17
-50
-11
31
25
77
-53
29
-17
43
-3
-26
-41
-78
68
21
3
-52
-19
-14
47
28
59
-16
-7
-11
20
8
29
45
-55
-9
10
27
-23
-3
-51
-125
-29
-20
-22
-12
7
34
65
86
15
47
59
-21
-44
-91
-117
-89
-108
-34
-44
5
17
23
0
12
-17
-3
44
-73
-14
0
58
-23
86
34
-58
118
73
75
25
15
-119
-4
-11
-49
-50
-69
-76
-15
33
49
36
4
-29
0
24
3
-16
-81
-40
-45
-8
-43
-28
-53
-88
-26
-23
75
60
93
30
2
39
23
11
-39
0
53
90
91
70
61
39
28
-7
-94
-109
-20
17
6
-30
-30
27
79
57
30
-36
-78
-67
-57
-74
-101
-24
-39
79
32
30
50
13
16
34
35
84
76
-16
85
38
89
105
15
-60
-53
48
14
15
-46
-97
34
72
-9
56
-128
-62
-49
-25
-108
32
-88
-43
25
21
14
4
8
-12
16
34
-24
-35
-30
-19
3
-6
75
1
-41
-2
46
46
-23
-36
18
-53
89
50
7
-80
35
45
35
40
17
-22
-41
32
6
11
-23
-5
25
28
77
90
87
-44
-32
-32
-23
-24
-13
-44
-39
-50
6
52
-69
-9
-18
-65
-17
84
41
10
-3
40
85
54
-34
-42
-65
-61
66
29
-82
-71
31
61
61
42
49
29
56
66
39
101
7
33
-84
-67
-92
-77
42
-128
-95
-11
-94
-49
-49
-38
-86
-72
11
-5
30
30
3
8
-8
10
-73
-19
-35
-63
-39
-32
-88
38
31
-50
95
97
68
40
66
-77
-43
-5
-40
-30
-22
-14
21
70
11
59
-42
-43
7
23
-60
-8
76
-75
69
73
72
115
8
-80
-76
-64
-3
-56
-60
-71
-4
-37
42
43
6
-4
-5
-29
12
-38
-42
-15
-20
-23
-19
9
-55
17
53
38
5
25
20
21
69
3
19
-41
-13
1
32
19
-64
86
-14
-23
-57
15
-9
-45
-20
39
-3
-3
20
33
34
-28
-23
41
-91
-10
-77
-82
-92
6
19
-11
32
35
-39
19
34
-19
3
-104
-28
-29
114
7
11
53
-23
69
22
2
-91
-13
19
-100
-68
-69
25
4
87
-13
-34
30
18
72
52
21
-23
17
-22
25
-11
-79
-24
-8
-45
-17
25
74
-36
19
42
-19
33
19
11
-77
12
66
32
57
-33
-3
28
95
73
50
42
13
34
28
35
30
9
-59
57
42
83
28
-5
-94
92
-88
-95
-58
2
-21
-65
127
-21
18
54
13
10
31
-9
-128
-36
18
8
64
6
-48
11
127
31
31
51
-48
-59
43
25
37
50
-96
-75
23
43
18
47
122
51
-128
-12
-28
-57
-77
-97
-34
-15
12
-45
-20
98
32
12
-39
-20
90
53
-11
52
16
86
93
-20
16
-59
25
-66
-65
-128
-128
-47
-33
-2
-23
-12
14
30
50
-30
54
52
49
-80
3
48
-2
33
-57
-92
-48
23
-52
-4
79
-110
24
127
0
22
9
-42
-113
50
127
53
39
-30
-3
-23
-32
44
-58
-93
-99
75
56
79
127
24
40
-57
36
-67
-39
-87
-128
-38
-9
67
-11
62
-14
-2
-16
10
61
-37
1
-20
90
102
42
11
-63
43
3
59
-63
-124
67
21
43
16
-24
-34
9
8
54
-41
-2
-59
-5
-44
-37
-3
-60
-8
-7
20
27
22
15
36
-55
18
25
-11
-25
-30
34
-8
26
-5
-49
-17
24
-87
-35
-45
0
14
-34
51
35
58
15
-3
7
-5
33
-38
-13
-20
-26
77
122
13
4
-8
-40
21
31
-65
-128
8
8
49
-2
14
3
-55
-47
21
47
-10
8
-71
-17
45
2
-11
-76
-1
8
7
1
-37
2
2
3
14
27
28
7
21
28
-10
26
67
26
59
30
27
-34
43
62
-36
-18
-44
-35
13
127
29
20
-112
-27
33
-18
-50
-128
-61
71
27
-1
-59
-37
-61
72
22
-65
-64
-13
-12
-13
36
-113
-45
-2
-25
-1
-29
15
15
-14
9
-14
-33
-42
-16
3
33
84
2
8
-16
56
-6
-3
16
8
-16
127
109
41
19
33
68
35
50
-111
-24
-45
17
10
-11
-8
-28
20
-7
2
-8
-20
-97
-63
-19
5
62
33
37
-9
16
47
50
20
13
25
28
10
-77
69
25
-18
-10
-65
-61
-60
37
-45
-60
-7
75
52
-11
52
8
33
12
-13
-67
-46
-14
18
-3
-29
1
-13
-15
-4
17
-4
48
34
-2
43
35
28
17
55
105
89
36
-24
-13
-7
30
-52
-110
-27
12
4
-5
22
-24
11
127
-8
-22
0
-52
-3
3
74
25
-3
13
9
36
-11
-24
-35
-67
3
10
-15
-8
-11
48
4
20
87
5
2
52
57
-1
-59
-124
-114
-35
-21
-72
-54
-10
-7
-47
46
42
-2
-36
-23
12
36
87
-47
3
-13
29
17
-32
-4
-79
-88
-22
8
-7
-6
-14
-12
-2
79
1
9
22
-4
-1
35
126
67
-3
-2
-51
24
-2
-28
-85
-62
-31
-19
14
-17
7
-8
79
81
3
-3
-33
7
-4
-38
18
-64
-3
19
94
24
12
34
42
-48
-11
-4
-36
-17
-18
21
68
127
63
-13
11
-61
-25
-32
10
-92
-42
1
38
41
4
-7
-124
-64
-41
-3
-81
27
4
-16
82
80
7
-17
6
-73
-38
-8
75
86
3
3
-6
98
47
35
24
-37
10
9
8
-112
-19
-6
70
127
32
-7
17
34
10
-29
-128
-128
-17
-5
-9
-10
-25
4
-31
45
-27
7
33
-19
24
8
17
127
36
-26
-24
27
-10
-1
-64
-122
-53
15
22
63
48
31
96
98
-19
0
25
-27
-33
-37
-87
33
26
-4
3
-55
-47
-18
-49
-86
-8
2
-56
-104
-16
16
49
43
22
10
11
26
28
0
5
10
2
13
-33
120
47
16
62
85
-6
18
62
-36
1
6
-31
-68
-13
-11
8
21
-1
5
-31
-36
6
-8
-26
-89
-18
-19
-52
7
15
22
37
52
25
13
74
85
33
-14
-40
88
-18
-14
-78
-93
-7
-3
12
-42
-22
-1
-8
63
-44
-8
-26
-104
-19
-5
65
65
4
-15
-36
86
18
21
-22
-49
-17
9
-26
22
53
-8
56
86
-6
0
13
-45
-44
2
108
4
34
0
61
120
-3
-26
-128
-127
2
-6
-51
-128
-45
-7
22
-41
-10
-5
7
78
3
11
47
94
-7
-2
-12
101
75
-11
-24
77
13
2
11
-98
-54
9
7
-82
-26
-16
41
59
-5
-7
-99
-92
-6
22
40
76
58
-7
-84
28
26
-9
-14
-85
-26
14
43
13
-22
12
5
49
3
6
72
78
15
-6
-42
60
9
-14
-103
-123
-32
6
-5
-25
-17
17
56
28
-2
5
-17
86
5
0
24
91
9
-6
56
19
19
-33
-105
-90
-8
-1
32
49
6
36
84
65
-25
-14
-4
17
11
-10
-25
-70
-6
-7
-48
-45
-18
2
-21
-6
-4
-17
-65
-34
-24
-41
-28
56
-5
8
105
-13
-6
-12
-33
-20
23
9
-46
58
33
24
38
32
8
-5
4
-7
-6
18
-45
-65
-3
-6
-31
-52
-11
-7
-3
26
8
24
32
-13
-2
-19
-41
-20
4
-2
-20
-128
-25
5
73
9
-19
-33
48
126
13
-14
0
-45
14
17
9
81
18
33
88
89
-16
-10
18
-29
-13
-24
-93
-76
-20
-2
-21
-6
-5
16
9
42
8
9
-28
57
-3
-18
-71
-29
13
4
62
-48
2
-21
-42
8
3
26
59
29
24
54
127
74
21
-18
-37
-60
-14
-36
-107
-59
-12
-13
9
-40
6
10
-9
-14
11
1
-24
54
4
10
19
-25
0
1
-21
-66
-32
-23
-48
15
-14
13
24
14
18
9
41
45
22
4
65
-9
10
7
29
-7
-6
-9
-46
39
7
-1
-36
-15
-3
9
-26
-80
-16
-4
-2
-20
20
-9
13
3
8
-4
35
28
8
6
37
71
3
7
3
-29
-21
4
-25
-97
-11
4
-14
-6
-1
11
28
118
47
10
64
85
9
-10
-76
-62
-35
-5
-50
-100
0
-2
-24
27
-5
17
28
58
-7
-32
-18
-38
0
-32
-109
-45
9
5
-8
-56
-9
8
89
44
17
11
35
71
22
9
-4
30
-13
10
-5
-68
-20
7
21
-42
-9
17
5
127
16
14
-2
32
11
-17
-55
-71
-53
-22
-40
-41
-11
-19
13
59
17
-5
22
4
9
9
-34
-29
-7
-4
12
17
-1
7
41
33
8
11
28
6
7
-5
12
25
-1
-6
-45
-28
-32
7
-9
-22
-25
8
2
16
-5
-12
-24
-2
14
-10
5
-6
10
5
21
18
16
5
24
7
2
-27
-48
-55
-21
-20
-34
-13
-11
16
-6
39
-2
0
-13
-15
1
6
21
-41
-29
-8
-14
12
5
2
30
-59
-3
6
78
49
-3
-2
0
72
11
11
-102
-58
20
-8
-16
-36
-5
4
20
6
-2
-30
47
-13
-3
-16
-66
-11
-6
-12
8
2
-9
8
69
-1
-12
-1
-33
0
-17
-6
21
22
25
-10
10
-6
7
0
12
36
-14
13
-43
12
0
-1
28
-12
-1
15
5
6
2
-2
-29
-18
3
-21
-1
-59
14
-8
-13
4
-4
-1
7
56
1
11
20
-4
-1
5
5
46
4
2
10
4
8
-8
-28
-81
-15
-22
-51
-33
-16
8
10
38
17
5
31
21
2
0
-3
-47
-15
-4
12
-23
0
-4
27
-11
-6
8
14
1
-2
0
-47
67
1
0
-12
46
-13
0
13
60
1
3
9
-27
-1
3
12
-105
-15
-6
-38
-26
15
-16
37
20
17
5
39
24
-4
-14
-30
20
-22
1
-7
-11
2
-8
-30
-60
8
-7
-14
-4
-9
6
27
-3
0
-14
-12
26
-2
12
-26
5
30
26
43
50
33
22
84
39
-8
2
-10
-75
-12
-1
-42
-49
-20
-4
20
59
8
-4
-23
43
17
-10
-58
-49
-11
0
-11
-82
-22
-8
-6
2
0
10
53
61
17
8
18
17
4
3
18
71
30
-1
-7
32
1
-15
-57
-74
-17
-4
10
-13
-6
4
-5
23
-1
-3
-5
-21
-11
-3
10
-15
-3
-7
-38
-32
0
1
17
-5
-16
11
20
-34
-13
-7
-44
-39
9
-2
23
98
14
-14
-19
-58
-17
-21
-42
-61
-12
2
4
-6
-1
2
6
-2
-2
7
-10
61
11
-2
-14
-23
24
7
82
29
-19
1
7
7
-30
-3
-58
16
19
10
11
14
-4
-10
-33
-51
-16
-16
-27
-23
2
-6
26
29
18
-6
-20
9
-6
7
12
19
-17
-2
42
6
20
19
45
4
3
0
1
35
3
-22
-69
-7
-13
-3
-16
-38
-10
11
-5
-14
18
17
10
-13
-11
-3
-18
-8
6
-2
-8
3
5
9
35
85
1
-6
-26
-43
-10
-12
4
25
12
4
28
59
2
-4
10
-52
-18
-22
1
12
-2
-10
-9
-39
-2
18
20
-48
3
-9
-37
39
5
-1
1
10
1
8
26
-6
4
-2
10
29
8
-7
-15
8
4
0
-21
-28
1
-9
-51
16
0
-13
-7
10
-10
7
-7
-34
-10
-12
-29
5
17
0
-36
-13
11
28
63
9
-13
11
54
24
-6
5
6
-19
1
-8
12
73
15
-2
-35
-26
-7
-5
-22
-76
-19
-8
30
26
-8
17
17
39
-5
-5
-49
-29
7
-15
-23
47
6
-3
-11
8
-3
-5
27
-18
4
6
21
-27
5
2
2
51
12
-7
-41
-18
-6
2
15
-75
3
-5
22
56
4
2
-25
8
-19
7
-5
-39
-2
16
-13
47
24
16
7
10
-6
-4
38
17
-4
-3
5
14
0
-18
-50
-98
-40
-26
-23
11
-4
2
11
38
1
-8
-26
-53
-8
9
55
-21
3
-2
9
22
32
-3
-56
4
-5
3
33
-12
-14
-5
-26
-26
-15
5
13
15
-1
6
-16
41
0
-8
-26
-8
-7
5
-13
-89
-16
-9
6
23
-2
15
29
18
3
11
1
-11
3
-9
9
39
14
0
-9
-24
0
-2
23
-30
-3
-5
-14
24
-2
12
-11
47
2
-1
16
27
-3
3
6
18
18
18
25
-42
2
6
7
-34
4
5
9
23
-2
-19
-13
-25
-15
-16
-31
-32
-7
-4
4
-70
-17
-14
-9
8
-8
-11
17
23
-2
10
27
35
3
4
-29
29
14
5
6
-20
8
6
29
30
8
4
17
33
-2
-4
-7
-11
-10
-7
-7
-11
-5
-3
-26
-52
-13
-10
-14
-10
0
2
12
48
19
-1
-7
-2
1
-1
-16
-37
-8
7
3
12
0
-7
19
50
9
9
12
-16
-4
6
24
25
10
-3
-5
4
0
-5
1
-34
-23
-8
2
-11
-7
-13
-32
-38
3
2
3
4
0
3
-9
-12
-1
3
4
1
7
-15
-8
30
5
-8
-16
-1
-16
1
41
20
3
0
-12
-13
2
9
-4
17
-5
-1
19
14
2
-2
-13
-13
1
6
-4
1
-5
-8
-3
-14
-14
-12
-12
-5
-2
-3
-16
29
2
0
-6
-9
-4
3
4
-35
15
6
18
14
5
-2
8
29
0
-1
-8
-6
-3
-2
0
3
5
3
-8
-4
-4
-8
-10
-19
-16
-14
-7
-6
-6
7
24
20
3
-6
7
7
-2
-4
-37
-10
-7
-5
-4
-4
-3
-3
-1
-36
-11
18
-1
2
8
-4
-1
-11
11
8
4
0
5
-13
8
39
9
-11
-57
-9
-9
21
6
-6
-3
0
56
6
4
26
3
-2
4
3
9
2
8
-28
2
9
-9
-5
-8
-5
-18
-14
2
-6
-2
6
14
2
-7
-3
-1
-3
7
-6
-19
4
-3
6
-11
-18
-15
-5
-12
11
7
16
47
10
14
1
-3
-34
7
-15
-31
-21
-7
-2
-1
-5
-10
4
31
16
9
5
1
-11
-6
17
-40
-14
-10
-3
4
3
5
17
-11
10
-8
-6
-11
10
2
-14
5
-3
7
4
18
13
1
-2
-17
-23
5
-1
-14
-5
10
-23
39
34
-12
-10
-12
-7
-12
6
-41
-36
-8
-7
-3
5
1
-32
-6
-29
8
-1
-36
-15
1
-34
-27
33
-6
2
68
-1
-28
3
23
-7
4
0
9
24
8
36
-25
-1
-13
-14
-23
-14
7
48
19
-11
-1
27
68
23
20
26
21
-22
-14
-4
-48
-80
0
-29
-14
29
17
-7
-23
28
-1
-33
3
9
3
2
10
5
-2
30
-8
-6
7
-7
11
69
-2
1
20
15
4
-5
-13
-29
-8
17
-34
-30
-40
-9
2
-54
-8
84
8
37
35
11
10
54
24
-89
5
-35
-13
-1
18
25
7
-57
-25
9
1
11
23
36
2
-4
-28
-18
20
-7
-70
-102
-26
6
26
3
-55
-10
-1
-8
3
47
-10
18
17
-10
-10
25
-4
15
-23
-1
12
3
-4
5
5
20
39
-36
-2
-1
16
-16
0
23
7
10
22
0
6
57
22
13
4
27
-21
11
18
2
-15
-115
-31
-20
5
7
18
102
-3
1
-2
15
-21
-19
-43
-64
-16
-7
10
-19
10
18
28
-13
21
64
19
-8
-8
-12
-31
-63
-5
21
-9
-19
-7
-4
41
94
14
-12
38
52
21
5
-48
-65
-1
-40
-56
-10
-8
-11
-27
4
-34
22
-11
-1
6
5
13
-3
14
57
41
-10
-35
-15
-14
-13
-28
-91
-5
-6
11
1
-6
45
-26
47
-4
-45
15
9
53
74
30
-107
-33
6
-12
-2
21
-104
-33
76
19
19
-17
-8
-71
-83
11
53
-6
-8
-18
-6
28
52
1
25
55
24
17
1
-26
-64
13
-8
-14
14
25
9
15
67
-12
-16
-21
-24
-5
-7
41
66
24
-9
-26
4
1
22
35
20
9
-27
-14
9
-17
-25
-79
-100
-9
49
50
44
35
11
-23
-7
9
-24
-36
-42
7
-1
-10
-28
1
23
9
2
4
8
30
123
14
27
-41
39
-9
15
92
62
-3
3
-42
-77
-60
-39
-116
-108
-22
-56
17
-4
-5
-33
-97
9
-2
-44
-19
-6
16
15
96
46
-26
4
19
7
0
16
2
64
10
43
19
67
-34
-6
19
5
38
52
4
-33
22
14
23
55
-1
39
35
-30
-53
-13
-39
-71
5
-128
-67
-62
34
-3
-4
-74
-56
32
11
-7
22
0
-3
20
-9
110
51
68
-35
-17
-18
-43
40
-92
10
-20
32
6
42
109
-7
5
-1
-8
-45
-9
-74
-94
-3
-33
-21
-25
51
20
59
61
5
-81
77
89
47
23
10
-36
-14
0
-49
-20
-69
-37
-46
-8
-14
6
-12
19
16
4
23
32
-7
-51
-11
-52
-25
-22
11
-30
-19
101
-45
21
-56
0
-8
-21
15
-33
-6
43
56
30
9
-35
-14
-95
-16
-20
43
-6
1
26
-12
48
28
0
-20
-20
-43
21
25
17
26
32
43
35
22
11
21
37
-17
-33
-29
-14
-27
-62
5
-26
27
16
-5
-13
-28
-55
-28
57
-40
-83
-31
36
54
75
52
-34
55
48
14
-21
-20
70
-10
9
-6
-21
49
20
20
-58
-16
111
39
25
37
30
19
-32
39
-127
-19
71
-26
-21
51
69
7
19
-7
-37
12
-7
-91
-71
14
83
3
-48
-53
-22
5
46
48
-50
-2
-13
-10
-14
33
70
-90
10
-5
29
-28
20
1
-74
25
-3
-51
-36
31
13
23
57
-13
-61
7
95
72
23
-4
-29
37
-35
29
-37
-71
-60
-53
-54
-49
127
17
39
26
2
34
68
31
-72
1
-19
-2
-16
-32
-38
10
55
-33
-8
-83
-24
2
31
38
120
44
10
82
50
50
60
71
-97
-50
-51
-18
5
-30
-112
-92
20
40
-39
15
-11
4
-17
-34
97
47
62
-2
-32
-45
-45
-25
-33
-77
-11
-34
13
-19
-39
18
-18
-23
-30
28
-8
-18
109
61
9
-3
10
-33
14
46
-72
-85
88
-19
-70
72
25
32
-5
38
-19
73
64
-97
-39
-6
69
-48
30
23
9
101
46
28
-120
32
-102
-111
-30
-56
-18
-59
54
-19
-68
50
-5
-13
-29
4
40
12
42
-49
10
-25
0
28
-31
0
-7
59
23
-35
8
20
47
56
17
5
19
86
37
-2
-44
-9
-47
-57
-23
-5
5
91
112
-13
-90
-33
-55
-36
-28
-84
-74
-21
76
-17
35
-30
-31
-1
50
23
82
-5
-35
31
0
20
11
1
-32
28
34
62
11
-20
29
6
-35
26
37
12
-9
18
7
-37
39
17
-2
21
4
-27
-112
-42
5
18
-25
-96
-20
33
58
18
59
61
-6
86
71
17
-30
39
96
-82
0
-46
-11
29
100
65
-26
-53
-37
-34
-36
-71
-116
-92
-22
51
43
19
-1
52
56
-8
-80
-45
52
-63
-41
-33
-40
-128
49
24
-32
35
15
-9
-34
-5
27
68
46
75
44
6
-61
61
-63
-65
-51
-13
-3
61
56
0
-4
49
1
12
-1
-67
-70
6
-11
68
61
-65
-27
-59
-39
-7
-32
-39
-36
66
32
38
107
39
-42
43
18
-30
-7
-8
20
22
-22
-42
47
107
9
29
1
9
61
2
-95
20
64
50
25
-19
-33
33
39
-78
-47
-46
35
53
127
0
18
33
5
17
-66
23
4
34
-46
-27
11
38
-13
6
-100
0
60
82
57
64
15
32
27
-61
-34
-74
-87
-80
-42
-128
15
32
-2
61
83
5
-85
50
9
56
19
-11
1
91
118
10
58
1
-4
6
-15
-66
-128
4
83
-9
3
-81
9
50
71
-44
-107
-98
-20
-38
-18
4
-8
-15
68
20
-18
14
-41
-67
-13
29
-43
13
14
-81
-39
-53
-65
-72
-47
-61
-1
27
49
103
107
7
110
79
3
27
-1
-81
-78
14
9
-35
-87
-18
23
35
13
25
41
59
38
-84
-37
-10
-27
-7
113
52
61
121
21
10
36
16
-78
-22
-56
-53
-6
-53
-72
-84
-29
-64
34
36
103
77
46
36
-16
-73
41
-47
-90
-58
26
-25
55
21
-36
44
13
-86
-81
7
-20
9
24
52
36
75
102
101
88
31
-20
-73
-56
-103
-74
-68
-94
-92
-1
-14
11
61
28
-45
29
35
-2
82
12
-11
-42
48
51
-16
-1
64
-12
67
117
31
7
42
21
-112
-33
-95
-114
-28
34
53
1
127
-14
14
36
63
-48
22
-63
59
62
49
25
-29
-57
-26
27
-38
-1
5
-51
26
54
-128
-61
-95
-98
-71
-1
-71
109
83
-19
49
34
12
41
97
86
93
50
-125
-50
-36
-17
-13
-73
-39
11
92
33
53
120
17
28
-44
-33
-31
12
-19
-50
-45
43
37
2
32
27
45
81
89
-128
-18
25
-94
-8
-4
-63
-18
-58
7
-40
-128
-44
-51
-86
-25
-27
51
18
115
64
59
110
60
-31
-86
-42
-24
22
18
-12
-36
47
12
46
-4
8
0
19
104
15
69
41
-97
-78
-90
-117
-77
-103
-69
-20
27
28
58
46
-27
88
47
1
96
61
74
62
67
-37
-26
-63
45
12
-11
58
22
25
3
40
21
-38
-45
16
6
-75
-33
32
33
-6
3
-45
17
37
-23
-40
-17
18
-39
-105
-51
44
-19
-19
-119
-32
42
73
5
127
89
26
79
46
55
28
7
-66
-59
-29
-44
-6
-41
-68
14
26
21
12
46
-18
-41
68
24
-61
15
1
43
25
30
7
-25
-42
45
-2
-44
-40
-37
-26
1
14
-46
-21
-2
32
28
4
-54
32
59
39
-128
-68
0
-53
15
-15
-6
-10
104
49
-7
49
-45
50
13
56
55
65
103
14
2
86
28
-1
-91
-73
-42
45
95
-52
-29
-50
-14
26
-36
-62
-72
-70
-67
-20
24
-5
11
-61
-38
100
-7
73
2
25
44
30
15
58
44
-11
-23
-4
-59
-32
15
-20
-95
-18
-13
14
57
57
37
6
48
39
72
-13
46
79
3
58
-42
-68
18
21
-87
-27
19
-76
48
57
-33
-23
-34
53
47
65
72
-13
-43
-14
21
-23
-24
28
-35
4
-28
3
-1
-33
0
9
-92
-59
-18
-10
32
33
-9
-2
53
42
61
15
54
-12
-26
-44
-32
-1
-33
-16
-56
1
-24
-21
99
-3
16
34
47
65
92
-90
-45
-39
-49
-49
-79
-88
-75
122
-7
12
29
20
38
-11
-48
-109
-56
-2
9
-41
-51
-116
-4
113
-44
28
-108
-15
-32
-19
-4
-93
79
-36
15
-5
-50
-19
1
7
-70
29
-1
-11
2
46
35
-6
25
5
48
85
93
78
-31
-110
5
-1
-45
-86
-88
-35
5
79
-56
-6
46
12
52
-48
9
-64
0
-14
-7
8
-16
-48
-26
79
25
79
-57
-25
-15
64
36
-38
-37
-113
3
11
20
-83
-68
20
-40
14
5
13
-24
63
61
-128
115
34
61
41
49
110
26
62
-61
-5
6
-49
-66
-96
-35
71
17
18
9
-7
-16
-69
-21
40
-47
-49
-46
-10
0
59
34
49
12
1
-44
25
65
-30
-25
-20
73
13
76
19
1
110
13
118
51
7
1
-6
24
5
73
-107
-51
-7
-38
-17
-71
-121
-72
95
22
9
10
9
10
22
20
-27
-23
-31
-1
37
103
-12
-52
-65
17
5
-49
-78
-48
81
-36
70
30
18
101
73
62
25
0
98
-51
-28
-22
-27
-51
-4
15
-78
11
-4
-58
-55
-27
-75
-12
44
-21
27
91
46
-38
-12
-16
10
-57
-3
-80
-21
-5
-74
-30
-5
69
17
-7
-29
5
48
-18
40
-22
-26
-46
24
53
47
28
-44
-73
-53
56
0
-37
-23
-10
58
87
32
18
-9
-10
-19
-1
41
-63
-5
44
14
13
27
68
-13
74
-22
1
19
-22
24
-10
-33
-22
21
-42
-2
2
-64
-61
48
22
3
-91
-46
9
67
0
-79
30
-10
72
13
-23
28
-9
97
-70
42
104
-24
-61
-83
67
63
-14
-64
-90
-12
66
47
38
-95
26
-19
71
70
34
34
-11
51
-17
20
-94
-49
-34
33
-2
10
32
0
26
-13
-11
44
-27
-84
-53
48
-43
4
-36
-103
-110
70
74
-23
69
56
127
118
66
2
-46
45
-65
-94
-122
-122
18
-44
-28
-38
19
32
39
55
-15
-72
33
-29
32
18
19
42
40
-15
15
-4
-34
12
47
36
-6
-27
-55
3
68
7
3
10
-40
-69
46
-36
-57
-23
-15
-9
-23
82
-22
23
-12
1
3
-46
-7
-64
-35
0
-23
-56
-52
101
61
121
99
20
47
29
-1
-128
-12
59
-45
-52
-2
18
6
113
44
25
85
40
19
-4
33
53
39
-101
-70
-20
-41
1
-9
-115
-108
81
36
-2
-35
2
27
81
36
0
4
11
12
25
-10
-52
35
19
-51
-19
-62
-26
-3
32
7
89
47
22
83
6
48
-23
15
1
-98
-47
-94
6
-32
-8
11
-110
66
38
53
9
1
52
15
5
-53
-21
-5
16
15
16
10
-20
18
44
-42
-35
43
33
4
-16
-51
-78
-20
-12
-37
-46
-45
90
3
26
23
-1
11
77
3
-61
59
17
-42
-12
-41
61
0
80
-2
10
55
10
13
127
39
5
105
16
-34
-11
3
-117
-22
-37
-96
-4
-6
5
-31
26
-72
-64
3
42
-82
-45
42
-1
-37
-12
18
-61
27
79
38
0
-14
-24
0
48
18
0
14
127
52
-4
51
-5
-26
11
-41
-128
-16
127
52
28
98
45
98
88
91
-124
-113
-27
-107
-64
-111
-124
-124
34
57
41
-15
-5
24
34
-2
48
5
-42
84
33
93
113
30
-76
-6
34
26
-22
-117
-128
9
102
59
-45
-48
-8
43
34
58
-56
-48
-26
5
19
86
-3
-57
9
35
16
-83
-35
-103
-62
44
22
-7
-6
43
44
65
62
-7
53
-83
16
23
-42
-51
-120
11
-71
27
-23
-13
4
-23
29
-16
-12
-21
4
-26
-19
-69
37
27
29
-30
16
2
-30
35
-62
-34
-9
30
-1
-1
15
-13
-12
-32
1
7
-12
61
24
13
12
20
6
-38
8
-25
-18
75
56
7
-14
18
-31
-50
-39
-118
-73
-26
16
-18
38
-29
-17
-61
15
-11
-1
-10
-20
47
10
-9
-5
3
-19
-22
-26
-13
31
115
104
14
-5
17
13
-50
12
-94
-84
-42
4
39
13
59
0
-71
57
39
-41
-18
-13
-3
-20
-33
-87
-25
0
-27
17
-5
17
61
55
3
-15
-91
-36
-14
11
74
9
3
-32
-65
2
-20
-5
-44
-15
7
-13
79
54
11
-5
12
40
-12
11
37
-79
-26
-44
-80
-128
-29
8
-4
-13
39
11
-26
116
30
-6
18
44
1
-3
-27
-39
16
-22
-38
-3
-22
-13
-22
-67
-61
6
22
9
30
52
67
3
21
-25
-33
-44
-8
-20
-41
68
-7
6
79
25
-17
-35
-47
-3
-6
-10
-66
-51
2
31
99
61
43
-5
32
17
-25
-21
-124
-104
-44
7
9
16
14
1
86
107
18
-7
20
23
-7
12
13
-45
-22
15
21
-5
7
-14
-98
-13
25
-20
-19
20
-11
-49
-74
-67
-20
8
16
-63
-19
20
86
42
22
-15
-10
-49
-15
-20
8
19
-47
6
-5
92
15
21
14
48
6
2
-14
-94
-23
-5
12
27
19
0
-8
-14
-3
-8
-59
-72
14
3
28
62
34
1
-22
11
17
10
35
47
35
23
-13
2
41
-13
-62
-37
-20
-18
77
-43
-59
25
41
20
-23
-15
-92
-5
-32
-41
-49
-4
-11
45
127
38
-9
1
-2
-36
2
-8
-89
-40
15
4
15
55
43
4
-38
34
0
5
29
65
14
-1
-89
-26
-4
4
-49
-37
-20
-18
94
-19
10
1
64
-23
2
16
15
-12
-17
10
-37
35
-2
7
35
21
-2
-36
-42
-87
-19
-17
-13
-2
-20
6
21
93
-1
-16
-78
9
10
1
-2
6
-17
1
77
58
-18
-7
32
-95
29
23
33
-34
46
19
8
36
4
7
22
38
-7
-23
-67
-79
-38
-13
-55
-78
-3
14
12
55
13
22
127
56
-19
22
39
18
28
-9
-50
78
60
-3
-30
75
14
30
-25
-95
-13
-7
-67
-96
-36
-19
2
50
-12
-20
-25
-14
-47
-23
5
-11
-28
-1
23
94
45
-4
-38
76
19
3
73
65
55
-4
21
-2
8
1
-46
-28
-29
16
45
13
25
19
45
121
12
8
-44
-34
-12
-14
-82
-83
-61
-12
7
20
-3
-6
22
21
-4
12
73
-56
-19
1
42
127
33
-6
-71
8
24
-3
-50
-91
-23
-14
31
43
-32
-7
26
91
35
-22
-78
-109
-23
18
40
-59
-1
60
95
109
38
-5
-35
6
-14
-6
-17
-61
-22
5
-24
-46
4
1
-62
-10
27
4
10
7
-4
-13
-75
-39
-22
-23
-25
-36
-1
-16
10
-20
-18
15
58
-2
32
14
64
83
9
11
9
52
24
14
-17
-22
17
-23
-87
-42
-24
-8
-12
-21
-22
-2
43
-58
-9
-12
-2
6
10
-2
25
57
9
7
-10
3
-5
-10
17
-120
-19
-24
0
0
4
-12
-18
91
-2
20
23
1
-12
5
-26
13
-13
0
27
-20
-9
16
9
-20
7
-10
-70
-24
0
-20
-24
-71
-5
15
54
54
3
11
74
73
27
15
30
-37
-1
-29
-77
-43
-25
-17
-26
-17
2
13
35
50
9
-5
-37
-27
-2
-17
-2
49
-3
1
-23
10
22
1
0
-65
-16
16
76
48
-11
-7
-18
-26
-3
-26
-49
-35
-11
-3
-14
-68
-5
-8
-7
14
-1
14
69
56
5
-1
-9
-31
-2
-8
-20
30
-5
6
20
23
-3
18
17
26
25
-4
-55
6
13
-3
38
-30
-10
6
38
15
-3
-17
-78
-19
-15
-7
2
-12
-10
7
43
25
18
1
16
-20
-1
2
-16
-81
-31
-6
-13
18
4
1
-22
53
2
5
17
19
13
-12
11
-36
-18
-4
-8
-25
-19
5
2
73
17
3
11
2
-2
-5
-19
-44
-8
-24
-59
45
10
3
17
41
20
24
99
-46
-4
-7
-27
45
-4
-11
-28
-11
-2
1
-7
-63
-24
7
-9
11
5
10
51
99
12
14
11
5
-8
0
5
-14
4
-14
-18
18
-3
-4
-53
-18
12
3
18
3
12
-8
-31
-89
-30
-12
10
0
12
12
-15
43
21
18
34
-24
-7
5
57
16
-10
-11
-44
2
-8
-6
8
16
-15
-1
9
-4
1
-12
-69
-18
-2
-2
-20
10
0
3
52
82
24
2
17
3
18
3
2
-36
-3
-3
-15
-12
-34
0
-21
-27
12
-4
6
-2
16
-6
25
-29
-24
-10
-28
-8
-20
-3
-12
-13
-2
0
-1
-14
-5
1
-19
3
-12
-6
-24
5
9
1
24
2
8
10
35
42
8
4
-19
-25
-8
15
25
-32
-9
-5
-33
81
18
-3
2
-3
-11
8
51
-74
-26
-7
-10
5
7
-1
-13
-41
-3
-14
-25
4
2
-3
14
65
12
-7
-9
-28
6
-5
-12
-37
-10
-2
17
16
-18
1
-8
-18
-6
4
-5
-6
7
8
-3
34
12
-2
-23
13
-2
-5
-2
-8
0
13
36
25
-11
-5
10
-66
-11
-3
1
-22
-23
-34
15
-56
-6
-13
0
8
18
-5
-7
71
-2
-10
-26
-25
-7
9
6
20
23
-1
17
3
7
-6
-3
13
-5
12
-1
-5
-2
-7
-34
24
9
-2
2
10
-4
-1
1
-42
-16
2
5
-13
-4
11
34
-12
-18
-7
-34
2
27
-1
-44
58
11
-7
-1
-1
-19
2
11
-5
6
-1
-18
4
7
7
45
-31
6
7
17
-13
-8
5
6
56
-3
-5
5
-3
3
-5
-14
-120
-35
-4
-47
-71
-2
-7
-57
82
6
-3
-2
1
2
4
47
39
9
-1
-17
9
21
13
-14
4
15
1
11
41
-29
-15
-3
-90
-23
-2
30
-1
-2
-11
-5
13
6
-3
5
-7
-6
4
-12
18
3
0
2
11
-2
-6
17
54
23
-4
5
-12
12
-27
37
44
15
-5
-35
4
10
10
-17
-56
-7
1
10
2
-10
11
9
31
3
5
18
-2
-5
7
35
-26
-13
9
0
13
2
-2
-43
0
2
10
23
32
-8
-5
-1
-59
-20
-9
-3
-19
11
-8
-28
-21
7
-9
-27
-32
-8
-3
-6
-8
-1
-16
-34
-8
-4
10
5
27
3
2
36
31
9
4
18
8
3
11
16
13
5
11
17
8
3
8
-2
-7
-11
1
-12
7
3
-2
-14
0
10
-13
-15
-51
-16
3
0
8
-31
-4
-39
81
15
-1
11
-11
-9
-14
-28
3
-16
-7
2
12
-6
2
-5
-11
-19
-10
1
-2
8
15
16
-16
3
-7
-34
-20
12
6
-4
10
3
0
15
3
7
-5
-2
-19
6
6
7
4
-7
14
34
6
14
12
19
39
9
22
-22
97
-3
-7
-31
-75
-20
4
-10
-84
-14
4
-9
18
-4
0
33
19
3
-7
-9
-5
-1
-16
-25
-2
-4
-8
4
25
0
0
13
-13
-1
-11
-11
22
14
9
16
24
5
-1
-13
-40
-8
-3
-20
-1
-5
10
18
0
-7
9
-1
-28
4
15
27
-4
-6
6
21
3
-12
4
0
-5
9
-2
-9
36
4
7
1
6
-5
-8
10
33
26
-15
-16
1
19
-21
-55
-86
-18
-12
-26
20
-22
5
-6
4
2
7
34
-30
9
-18
-15
-26
-7
-6
-40
-24
-5
9
39
-1
-6
3
19
-6
-4
5
16
53
18
8
-15
7
4
-6
-18
-12
2
-5
-15
-5
-1
7
21
44
-7
2
8
19
2
-35
-19
-54
-4
-16
-23
-20
-3
1
9
18
-12
-3
9
-3
-2
2
26
-26
2
6
14
32
9
-12
-39
9
11
5
-4
-14
-5
10
30
27
-1
-2
-11
5
-2
-7
-36
-49
-5
-2
-8
7
6
-9
-21
62
3
-2
11
-19
-7
13
-1
-48
-13
0
12
5
-1
5
34
11
-17
-5
5
19
5
1
-36
-71
2
-3
-12
-31
1
7
58
16
3
-2
-8
16
5
3
8
35
15
1
12
15
2
6
-41
-20
-8
-2
-14
-5
-2
-7
24
16
7
3
-4
-15
-10
-8
1
-9
-1
-6
9
-3
-1
2
21
10
1
2
9
10
3
0
-22
-27
-24
3
3
-18
-2
-1
-10
4
-2
1
-12
-8
-6
-5
-13
35
14
-2
3
17
3
0
34
-28
8
-5
0
4
2
-6
-47
-18
-16
-10
-17
-4
-4
-3
7
4
7
5
13
-7
4
2
-1
15
5
3
0
9
0
-3
3
20
-2
-4
-13
-3
-1
4
3
-24
0
-1
2
5
-1
-2
14
28
-8
0
10
-13
-5
-2
-12
-6
11
0
5
10
2
5
21
-10
-3
3
-10
-2
1
-5
-10
-23
6
6
-5
-4
-8
-2
-6
8
-6
0
15
-1
-3
1
-2
3
4
-6
-17
5
0
-5
-7
-30
-16
0
10
1
3
1
-4
-3
-2
2
3
2
1
-2
12
20
4
-12
-45
-14
-2
3
1
14
-6
1
35
12
1
-2
-7
-22
-1
2
8
3
-3
1
-5
19
11
6
2
-2
-1
0
5
-18
-2
2
-2
-6
1
-1
-7
-16
0
-6
-7
4
5
-3
1
8
-7
-12
-2
-2
-5
-6
-9
-10
-7
8
3
-2
-10
3
-1
21
5
-1
6
-2
0
3
14
-22
1
-1
-8
2
4
2
-8
7
-5
0
2
-4
1
2
-2
5
8
4
0
3
3
4
0
-7
8
2
7
-1
-3
8
7
-2
-6
-4
-5
1
1
-14
5
10
4
-2
-9
-2
-2
-3
-9
2
-3
-2
-6
-2
-1
-1
-25
-15
-13
-1
18
-2
-4
6
26
3
-8
0
-6
-1
-6
-2
-7
-3
10
3
-5
-4
0
-4
-13
-8
-16
-9
-1
5
0
4
-5
3
16
-2
0
0
5
-9
-5
14
11
7
6
0
-2
10
11
-20
-17
-2
-4
-1
-2
6
3
8
12
-3
4
-4
4
-14
-10
-13
-21
-5
-2
-4
-12
-2
-12
-3
9
6
-8
1
-1
8
22
39
10
0
-5
0
5
12
-3
-34
0
-4
0
-3
3
-11
15
9
8
8
12
4
4
1
14
12
-8
-8
-8
-7
-5
-17
-28
-16
3
0
4
2
-4
11
0
0
-18
-13
-15
-9
-5
9
11
4
2
-4
-27
4
1
-16
-7
-7
-12
3
44
-1
-3
3
1
6
15
-1
-2
5
-7
4
-3
-2
5
-4
-17
4
7
-14
2
-5
-2
15
24
-10
-1
9
-8
0
-7
-3
-11
0
1
7
-6
0
-10
-9
-17
-10
-1
-16
-8
9
8
1
33
85
1
-1
23
10
-8
-4
-35
-95
-8
1
-14
-35
1
-5
-7
21
3
-14
-35
-16
-9
3
6
0
-6
-2
39
31
-10
-4
-4
-3
1
26
-41
19
35
9
18
39
6
-4
20
-35
-16
-10
-8
-16
-13
28
3
-14
2
10
-13
11
7
-49
-19
15
-6
4
19
-21
-5
-12
9
-10
-13
-5
4
8
-23
-4
16
22
6
-2
-11
1
8
23
-37
7
10
-13
-38
-5
4
-27
1
-22
3
16
29
-27
-5
-6
-21
-10
-13
-7
15
10
4
56
-4
2
3
9
47
85
-1
-68
27
32
-11
-11
-48
-64
-10
16
-9
-3
8
8
23
41
1
18
18
-7
-6
-3
-11
-34
9
7
-1
16
-6
2
-14
-30
2
14
19
7
12
2
10
33
9
25
-8
-10
5
-5
-10
-14
6
-37
-20
-47
-4
-1
-14
12
-12
-2
-3
76
8
-12
-34
16
7
-8
20
-39
-13
6
58
-10
3
-1
11
8
5
3
2
3
-6
51
0
-35
-14
-4
7
21
19
-4
-32
-5
2
-8
-46
24
8
-69
-20
14
3
11
31
-64
-26
13
-6
-20
-7
-4
-37
-35
-5
-10
6
-1
-8
-8
0
57
8
46
-8
-29
-11
-5
-16
-31
2
28
28
11
-3
-10
32
70
2
-29
-3
20
10
21
23
-9
1
53
17
39
16
5
-4
-12
15
-128
-37
-66
-6
2
24
10
-29
9
7
39
-4
-9
-39
-19
-21
-8
6
-31
11
-2
5
33
7
58
12
48
-7
4
12
24
12
26
2
-52
-15
-5
-18
-96
-8
-2
-20
-28
-29
-3
26
61
4
48
5
30
32
6
-29
0
-5
-104
4
11
22
2
3
6
-13
0
-12
38
32
1
4
14
31
-43
-14
-29
-31
-9
-21
-35
-21
100
33
-5
-26
-13
-3
9
18
-56
-11
14
11
6
16
9
-35
2
4
-32
-25
-10
-5
-32
-11
20
-6
-22
20
2
-1
3
23
-28
5
7
1
3
16
28
3
39
7
10
7
7
2
-26
-4
1
-9
34
5
-5
-47
-18
17
-25
8
-15
19
0
43
5
-13
-24
-32
-48
-40
-16
-17
2
-8
102
32
8
-13
-4
-17
-37
31
-106
-36
16
9
-4
3
28
-53
67
0
-19
-5
1
-17
-14
29
-23
20
2
5
1
3
-22
-23
30
7
26
28
-5
-5
-15
13
-2
-6
16
-27
3
18
42
23
16
-28
-49
0
-7
-36
-22
-53
-18
6
22
-1
-14
3
-4
14
-9
-12
-62
-33
-6
2
9
-22
6
21
6
49
30
22
9
6
46
26
44
-17
1
9
45
20
-50
-34
-22
-13
-19
-54
-105
-1
-55
2
25
-21
-24
25
14
-33
34
10
28
15
16
29
25
31
32
-7
-37
-20
11
-15
-34
1
32
34
-7
62
21
22
98
6
-3
3
19
-31
-26
-56
-102
3
4
-30
-25
-66
-32
-8
10
-27
-15
24
23
20
14
31
53
24
33
7
36
8
-1
-20
-72
-5
-85
-19
-110
-1
-2
-25
-19
-21
58
77
19
1
15
-5
-21
16
19
-57
35
17
-8
12
49
22
-55
4
-9
-2
18
25
-60
-35
32
-31
34
-61
-55
-23
51
-1
84
-42
-51
65
40
-9
-44
-21
-94
42
42
-95
-27
16
98
17
51
-1
-34
94
44
20
-12
-24
123
-23
23
31
11
28
17
58
2
-24
-12
-83
-44
-64
-2
-21
-63
-31
-26
26
-28
-30
-55
-13
61
34
-4
-16
17
22
19
25
24
-3
23
-2
-2
-6
-17
20
-33
4
2
-13
15
66
71
7
48
31
20
58
40
-15
-40
15
-27
-18
-75
-43
-31
-3
73
-2
26
-17
5
24
0
-36
-4
0
-75
36
68
52
1
28
38
-11
-67
-5
-30
-76
-5
-33
-126
-67
24
-39
17
96
38
30
90
61
-54
-14
-35
-67
-21
-28
71
4
37
31
10
3
-17
-13
-82
-1
97
41
11
29
8
43
91
-3
-64
-63
56
-41
-19
-23
-113
-53
34
76
17
49
36
4
-18
10
-34
-8
-44
-19
22
-6
-19
17
-8
-74
-51
-7
-32
4
-67
-23
71
15
50
-41
-30
-18
11
37
-39
-27
-25
8
10
59
41
33
21
23
21
4
-12
-20
-33
-21
-2
5
25
50
32
22
23
9
15
28
-21
-27
-4
-19
-3
-9
-33
-21
-21
-17
-20
5
3
5
-91
-64
-39
-39
-26
-79
-29
-15
37
32
0
46
-9
11
110
-8
16
7
16
-33
-20
-47
-119
16
-47
2
-49
20
25
74
109
-12
-41
43
-10
-63
-21
9
-65
17
-20
0
14
69
19
-45
-38
-50
44
-29
-16
-15
-8
29
123
53
-67
7
39
-25
7
-23
-83
-108
64
5
-40
73
46
78
127
44
20
24
26
-68
-24
-18
-15
110
-128
-10
-19
88
18
-15
-34
-39
-21
15
17
-52
-23
16
20
-12
12
23
17
48
21
10
-32
-16
37
2
-32
-30
0
-9
-20
41
-49
-7
-9
-16
-12
30
20
-23
67
-53
18
33
23
11
52
35
54
-12
55
-87
-33
-14
-62
-17
-46
86
-1
69
44
4
-17
-4
1
-65
1
-74
-51
-53
-49
-28
-32
12
-22
27
-20
45
78
17
1
-18
-18
-10
21
-19
-67
18
-57
-59
49
-44
-31
-4
-69
-61
57
12
-21
27
24
7
93
27
60
63
51
43
28
7
16
28
-53
47
0
-21
4
-7
30
-2
-85
-107
-26
-7
-33
-2
19
-57
54
49
48
-2
-1
-11
-95
-23
50
-32
-7
-4
-5
6
41
-11
23
26
-32
97
25
44
3
88
-25
127
25
-3
3
-44
-22
-77
-37
-63
-12
-102
-31
-44
-26
-9
-58
-17
-1
21
-11
18
45
-16
-62
2
5
5
-1
-13
-64
-37
117
11
17
-44
-20
-27
19
35
49
7
-32
18
11
47
88
10
35
38
27
-21
-23
-62
-81
-18
-8
-45
-13
5
-2
-33
1
-19
8
5
-8
1
9
120
115
17
-48
-15
11
-7
23
-63
-109
-10
46
19
1
0
-3
-13
40
-14
33
-29
30
-45
-23
25
109
12
62
-20
-99
53
27
-2
-33
19
42
61
34
35
21
69
127
20
-125
-69
6
-28
6
-40
-128
-29
-23
73
10
60
31
29
74
38
-14
-37
-5
-54
-19
-29
-49
-23
9
-3
-36
-10
3
49
44
-29
-39
9
-6
30
-11
-67
-73
11
107
28
37
75
23
57
19
13
-84
-128
-14
-58
-26
33
54
1
93
119
-23
-7
-7
-65
29
73
78
-1
3
-46
13
-9
-40
8
20
-57
18
16
10
3
-6
-34
32
-4
-15
41
12
14
36
37
-128
15
22
39
20
5
-74
-37
97
-15
21
-42
3
46
83
83
36
-2
-70
77
9
13
32
-12
-31
-17
12
-42
-37
-87
-73
-27
7
13
22
-24
-12
7
95
12
17
-15
-23
-2
6
-2
-122
-41
24
9
43
-9
-8
2
29
-32
13
29
-25
31
28
10
66
48
12
14
22
-29
-7
80
30
-18
-73
-6
-27
47
17
-65
-60
-23
-58
-89
-25
-118
-112
-82
-76
-31
103
91
7
48
36
-5
6
66
-17
-8
30
26
8
2
-53
-42
54
-21
-27
-15
-12
25
103
54
-16
5
-20
-88
-23
-17
-2
-26
-51
-6
-13
92
45
89
88
71
-68
-51
-55
-34
-32
-61
-70
-68
-19
42
26
28
-17
-22
-81
-19
35
-22
-10
-72
-10
60
93
14
41
-9
45
-35
-2
-86
-109
29
-13
41
-1
-40
-1
14
15
-6
-6
-13
19
47
20
12
81
12
-4
54
14
-15
6
-14
-75
-19
45
-27
-20
83
7
46
23
-46
78
19
-23
27
7
21
1
0
-61
-15
-24
-90
-23
-15
61
39
-46
-40
12
29
-9
-10
45
17
101
54
2
-47
8
51
20
20
-35
-21
72
3
-11
-118
-125
-36
-8
48
-47
67
25
84
116
12
7
-56
28
33
19
-14
-65
-7
-87
-6
18
-57
-45
-57
1
-10
60
-39
-56
-34
-42
-5
-60
1
-74
-4
-58
-12
20
36
57
25
-85
23
5
-1
-2
-36
7
-14
-6
-27
43
-47
-16
-20
-56
-73
-3
8
18
50
33
48
-42
7
30
-7
8
10
-21
-12
-32
1
77
31
-36
14
32
14
38
17
-65
3
10
-45
-17
11
40
-13
93
-15
30
67
21
1
109
90
-97
47
-13
-20
-3
-46
-92
-109
95
27
35
54
15
31
41
33
0
-4
-40
-60
-16
-31
-42
-4
-114
-22
13
-20
1
49
95
8
64
-22
-4
27
-9
-34
-80
-17
71
42
-7
2
20
10
18
31
24
-33
16
-1
0
23
-56
-26
71
47
5
-17
-36
-44
-53
1
-66
-33
-3
30
53
25
21
-5
-80
-45
-33
-34
-18
9
-34
-18
13
-32
6
-37
-38
-35
54
-25
21
51
-41
25
1
-42
-40
4
-8
40
88
-8
-2
4
5
-36
111
12
-53
-12
10
-7
-26
60
-58
-19
15
-10
1
40
-7
12
-21
5
-5
48
41
97
96
-5
-11
-62
-10
-45
-38
-97
-92
-31
-29
11
13
-13
1
-22
68
-50
75
52
10
13
4
19
57
23
31
4
-5
42
54
26
-41
-9
19
14
0
-50
-45
10
47
19
3
-17
15
27
11
32
54
9
57
-26
17
-60
-19
-28
-80
24
-22
23
0
81
48
31
72
5
65
-26
-26
-54
-6
35
47
7
-112
34
21
-70
-43
-67
-72
1
59
-59
-47
106
46
25
-39
0
-71
-77
-8
-75
-33
-19
-15
-22
95
71
-10
3
-7
17
-27
-3
-73
0
-3
6
12
-30
9
-15
-55
109
57
63
38
53
56
39
-63
-90
4
-42
-34
-25
-6
-10
-11
-3
-41
11
0
7
18
1
13
-19
26
15
-18
36
21
-28
70
37
-62
4
34
1
-25
-2
-85
4
11
8
7
-21
16
-1
16
-17
34
-9
-11
-28
-11
-3
45
87
3
25
12
35
3
28
-38
-93
39
2
12
-43
-92
-55
-36
-6
-34
-74
-38
2
42
28
14
-17
47
59
24
25
23
10
109
62
-61
-17
-15
-42
-16
3
-80
0
35
11
11
7
94
9
47
5
-34
-39
-6
-1
-18
33
-26
-13
6
-39
9
47
-45
-47
41
-46
6
37
16
-21
-4
1
-26
20
14
-9
-24
10
22
0
40
3
12
33
-1
-34
74
15
-68
22
13
19
37
22
-53
7
-3
-39
17
11
-12
29
78
-15
-26
65
-9
-48
-68
-128
-117
-35
-48
-35
-19
12
28
112
105
7
127
40
-36
17
14
-21
-85
30
-79
-64
3
-45
-6
65
65
11
-105
-75
7
15
-21
-54
-41
-38
73
37
24
-44
-43
-98
-18
12
38
46
-19
91
59
96
51
-13
-51
-44
-28
-53
-43
-43
-33
11
50
65
19
-23
-26
-43
-12
12
-18
-23
-16
-13
7
33
-61
-35
-63
-30
14
-5
-49
-98
49
-2
23
7
9
20
50
106
42
11
32
7
-62
-42
8
-17
-68
8
28
-75
-6
-20
-36
-69
-63
-13
-1
62
23
60
36
49
70
26
-52
32
-2
-8
-42
-99
-127
-77
25
14
14
39
21
64
77
25
13
11
-33
-59
-6
-20
-93
-19
5
-10
10
13
-8
4
46
20
-31
-37
-7
4
16
-2
-81
-4
20
-12
-2
-17
-12
22
44
-10
41
48
15
12
-6
-12
-24
-1
-17
-9
9
-55
-15
17
63
-2
36
7
-35
80
25
17
-24
26
5
-25
-34
-11
21
-14
-17
10
-26
0
21
19
0
10
50
5
-8
-78
-25
-10
0
-1
-65
-16
-10
26
22
-36
-51
-92
-28
-1
24
0
27
10
-2
32
22
4
0
-16
-38
0
-1
26
-1
5
0
31
2
-30
-24
-75
34
-17
11
0
4
-2
20
8
-52
-22
-16
-5
-25
16
35
94
89
8
7
32
46
8
-57
-101
-54
2
-21
1
43
-2
15
103
-13
-11
1
-16
-34
-30
-7
-73
-3
-7
-4
41
-29
11
6
-16
57
3
13
-19
31
15
11
-58
-38
8
-2
-10
-48
-22
-21
-28
-24
7
12
-16
14
6
-1
9
89
15
-12
-1
9
-2
21
25
-87
-46
-7
28
28
1
-15
-13
78
1
-10
-66
-42
-11
-31
-106
-76
23
6
18
34
9
35
89
68
-8
25
18
34
19
-15
-25
5
50
-16
-17
-64
-14
29
44
-23
-48
6
36
-9
7
0
-65
18
2
10
21
37
12
22
86
25
47
-8
-9
35
6
-1
22
33
-28
18
53
54
32
39
127
-4
27
0
-47
-1
-14
-24
-77
-4
1
-8
-46
-103
-26
-39
-107
-37
16
7
10
75
14
22
58
-18
-13
-4
-9
-31
-30
0
-76
30
-30
12
20
18
-10
5
105
28
-16
-30
-70
-79
-15
-18
-39
-8
-12
-12
-21
66
4
-22
-61
26
6
4
19
-64
25
-8
-41
-29
31
-6
-8
13
-27
-3
100
14
12
16
44
127
15
-3
14
-58
-31
-6
-26
-128
-18
18
11
36
20
2
-13
69
37
4
113
59
-27
-5
24
51
21
4
-128
-98
-8
3
-27
-33
-44
-10
14
55
41
-17
-13
-21
-32
-16
76
-51
-8
-9
-42
-128
-19
-36
-128
2
15
19
59
35
11
24
64
31
-52
-3
43
117
14
31
127
-4
-32
2
-19
-64
-6
-17
-77
1
40
-24
-84
-30
-64
-28
13
-4
95
-14
29
61
36
-18
-74
7
-58
19
8
-74
-2
24
34
-16
2
26
60
127
49
0
-33
21
58
-9
-25
-97
-30
11
-17
-105
-70
3
23
98
-2
-17
-46
70
33
-2
62
8
45
35
79
-35
-15
11
-30
-79
-33
2
-38
46
22
-2
25
-14
4
-2
43
75
-9
-20
-114
-48
-18
3
10
-88
26
-27
3
38
0
-28
-128
2
-29
-5
15
41
20
8
107
36
-21
10
24
114
17
11
-43
-25
-10
33
26
-27
-1
28
86
82
24
-27
-87
-128
-62
-31
-84
-58
37
-3
48
95
42
3
-7
-1
-2
-9
14
93
23
6
11
-32
-45
-21
-59
-60
-17
-12
-60
-15
4
9
55
-17
-11
8
32
10
8
20
-23
16
-11
-29
-116
0
-16
5
9
76
4
39
126
10
9
-16
-3
-29
21
9
27
35
14
19
14
26
-6
-13
-30
-9
-35
1
28
-22
4
8
-6
-51
-17
-1
-73
7
-2
-8
-7
38
4
5
33
8
4
6
-10
-37
-8
8
-26
-66
-9
-14
-15
30
32
1
-65
-91
-7
5
35
-15
-62
10
63
57
-8
-2
3
-7
25
-1
1
-68
3
18
86
46
12
28
27
118
28
-7
-60
-28
-29
3
-44
15
-18
-6
5
-45
6
-17
16
-18
34
-13
-21
-7
-2
11
22
-57
-20
-9
1
-4
-2
16
10
110
26
3
19
78
23
12
-11
-78
-25
16
45
-40
-19
10
-11
102
11
-5
-56
-46
-15
-8
-17
-23
1
0
-17
18
16
-34
57
-93
-25
-3
-8
-38
-22
-31
-45
8
-5
-31
-59
34
-6
19
71
16
13
17
66
2
12
-15
-90
-74
-37
-1
-17
-7
15
29
69
121
39
13
22
31
3
-45
-70
0
10
1
7
-10
-15
21
68
-21
-1
7
4
19
-7
9
57
-30
-46
-19
-21
-23
11
-28
-122
69
6
6
-22
0
-12
-36
41
8
31
22
39
8
-4
-26
-45
-38
-18
-10
-3
27
-41
29
39
11
-3
15
22
19
-3
2
-13
-103
-42
-32
-52
-72
-7
-50
65
43
12
-4
-2
28
4
0
-45
19
12
6
19
38
15
-4
28
116
10
3
-7
-34
0
-30
-62
-29
-6
-10
-5
24
-19
24
-29
-86
-4
10
8
15
9
-3
-22
-48
-18
-12
7
4
14
-21
40
24
5
-23
-18
-37
-17
16
25
33
18
13
-7
7
15
8
-8
32
-6
-7
6
-15
-2
4
-9
-28
-12
1
-22
16
5
8
26
13
14
5
2
14
-11
6
-45
-5
3
-2
-14
-25
21
1
102
-43
-8
0
4
27
-28
-3
-29
-17
-5
4
-1
-48
-23
-17
-49
90
31
-1
-6
-8
-7
4
48
11
0
-14
13
24
-5
28
24
6
-27
1
-18
13
29
7
-12
32
5
-7
-6
17
13
-4
-18
-41
-15
-3
-45
-58
-17
-13
8
57
35
23
74
33
-10
8
-6
-5
-3
-9
2
-9
11
-1
4
20
-12
7
-18
-13
-5
0
23
52
29
1
-19
7
14
-2
11
-128
-71
-17
-6
66
8
-3
-42
74
1
-21
-12
-89
-10
5
34
2
7
-3
-11
-11
-10
-4
-58
18
-1
8
29
11
-22
1
13
-7
5
9
54
16
-2
5
-22
49
18
13
-44
-3
3
2
62
-80
-7
11
9
4
3
-10
-52
-16
1
-20
-11
-10
2
-8
-28
-36
1
5
6
-12
8
8
-14
-45
-28
-19
-24
9
-15
-3
-11
52
12
-5
-15
-7
3
10
8
-24
1
3
4
7
6
11
11
51
26
17
22
-5
-6
10
-10
-13
7
15
1
-19
10
-19
21
-32
-15
-11
-8
68
16
-25
-68
-110
-34
-18
-23
-71
-22
15
48
3
-1
-8
-1
8
0
-15
-36
2
5
-5
-14
2
-3
3
-18
15
-2
-3
24
18
-12
11
34
63
16
13
38
56
9
13
31
-19
-3
3
-37
-62
11
-24
-30
-66
-47
-20
-20
20
-9
-15
-85
-14
13
15
38
-25
1
5
48
33
20
0
9
20
14
0
12
-32
-13
-9
-18
-39
-20
3
-38
12
1
6
23
24
3
5
27
-15
3
-11
-39
9
8
-4
2
23
1
19
15
-64
-5
-16
-11
-6
-5
-10
-12
7
-16
8
-2
-3
15
-3
7
4
21
-17
50
-17
3
-4
13
34
12
-5
-29
2
-7
12
37
50
-8
-1
-6
-24
-6
6
-20
-61
-15
-21
-9
-18
-13
-24
11
8
-7
32
36
61
19
7
-14
-13
19
2
-13
-101
-27
-6
2
21
13
-18
-40
99
10
-6
0
-3
-9
2
4
4
13
3
-7
2
3
11
12
-20
-5
-12
-29
-26
6
-13
6
5
-1
7
16
20
-14
11
2
108
30
29
58
52
2
4
15
-79
-51
-9
15
-25
2
-11
-45
24
-14
-21
-40
-25
-5
9
15
63
9
-2
1
-1
14
-17
-30
7
13
-15
-63
-52
-34
-7
78
-4
23
7
13
30
4
-12
-52
2
-9
-3
9
-6
-10
-5
39
-36
-16
6
28
26
-2
10
24
16
18
5
30
31
18
11
-20
73
16
19
-15
-17
1
-8
55
-68
-2
2
7
-8
-21
-15
-53
-31
-6
-18
-44
-10
3
8
-11
-10
-15
-9
3
0
15
2
32
25
-2
-29
-62
-7
-15
17
-56
11
12
32
90
14
18
10
57
7
-6
7
10
22
-3
6
29
55
31
20
-6
-18
9
-2
-30
-79
-11
-3
21
17
10
-7
-26
50
-5
-17
-19
14
-3
-4
-10
-37
3
-12
-40
-97
-12
-12
-17
-51
-23
-17
-7
24
6
33
83
75
32
9
-6
-7
10
-7
-31
35
7
-1
5
24
-24
2
-13
23
-13
-3
-10
2
4
-7
-30
-44
-2
9
33
12
1
-2
22
-11
-5
19
35
13
-3
4
13
-24
0
0
-32
-22
16
6
17
26
0
-5
-10
4
-3
-8
-25
-14
-8
-18
-27
-11
-5
3
18
53
24
0
-1
44
29
5
-18
1
0
2
78
37
-7
15
16
-34
3
23
-6
-69
2
-21
-6
49
-4
3
14
54
4
5
-9
-40
8
-10
-22
18
-2
-1
28
-6
-10
-11
-43
-24
1
6
-8
60
20
-2
25
39
9
8
5
-88
-16
0
-6
-1
0
-1
-26
40
-6
7
5
-36
-17
-1
-13
-9
7
-15
-19
22
6
-5
12
10
-3
-9
-9
-47
-23
-23
-25
-20
-6
3
-1
-1
4
1
1
17
-4
4
-5
-13
-7
1
-11
-9
-1
8
1
-12
-3
3
-12
-11
-7
-9
1
39
5
14
31
24
4
-10
-19
-16
-7
11
-24
14
-11
-7
-29
20
22
-16
-9
-51
2
5
23
-24
-20
-18
63
45
28
15
25
0
5
-15
-26
-59
-18
-4
-3
-12
1
1
-6
-31
-19
1
15
0
-2
5
6
32
-5
-8
-38
-8
7
7
-16
-10
2
-13
1
36
2
10
28
46
25
-2
-19
-21
-6
-7
-43
-41
-12
13
27
16
-7
6
97
27
-4
13
-5
-43
-12
-1
-53
-11
-14
-1
12
19
1
-14
-13
-49
-15
-18
-21
-22
1
-2
5
-4
9
-8
-8
-2
-7
-5
-43
-9
-16
-13
-7
0
-3
-2
8
-21
7
20
14
16
5
22
25
20
8
-3
-20
6
-4
-5
12
23
3
2
36
-5
-10
2
-17
-77
-17
-2
-4
7
4
-11
-15
-1
-12
-14
-20
-36
2
2
7
22
-2
5
6
-9
0
0
-9
-28
5
7
10
-3
0
-7
13
43
7
4
-3
7
-7
1
-15
-64
-14
-21
-12
56
-12
-15
-20
-27
3
-2
-3
-38
-19
5
18
61
7
7
5
3
3
6
-5
4
-2
1
3
-4
1
-3
-11
12
3
-7
-19
-13
-3
2
-17
-12
-5
18
34
34
10
-2
11
45
1
-10
-19
-17
-8
10
12
-24
14
9
8
5
12
-6
-22
-25
-2
-3
4
3
-4
9
7
-4
-9
-15
-21
2
2
-4
-32
-38
-5
3
9
-3
-6
1
14
15
-13
3
6
-10
-1
7
44
48
14
0
1
2
6
-6
-8
5
-4
0
3
5
3
-5
-14
-22
4
-1
-12
-14
-7
4
-34
-19
-7
-7
-11
1
3
7
49
57
9
4
-2
-3
-5
-6
-26
-1
-6
-1
5
7
1
-3
21
-25
-22
-13
-11
-8
-4
-10
-21
-62
-3
1
3
-2
3
16
-13
-24
-11
-6
-13
9
13
7
11
37
18
22
20
2
-7
4
22
20
-1
-3
10
6
-2
-19
-37
42
15
-4
-15
-13
-9
-6
-5
-81
-32
-6
-16
-3
1
2
15
5
-3
-12
11
5
6
3
-21
-27
-1
5
3
5
4
-16
35
60
8
5
1
-5
-11
2
-10
-17
4
-7
-15
-9
-2
-11
-35
5
-2
6
19
6
-1
1
7
-37
1
-7
-2
-5
-3
7
5
28
3
-5
-2
2
3
-1
14
36
4
3
4
-18
-7
-1
4
-5
4
-9
-16
2
0
2
-2
7
-2
-6
-2
-1
0
12
29
4
-4
8
1
5
6
-10
-24
-11
-6
-8
6
2
-9
-1
-17
-24
-3
7
-5
-2
-1
-8
8
34
21
8
3
-3
-3
-2
-34
-19
-3
-4
-6
-1
1
2
25
-31
-23
-13
-14
-6
0
1
9
-12
-1
-1
7
0
-2
-9
-26
8
7
4
-9
0
-4
-7
8
-6
-7
-7
15
-6
-1
1
-5
21
14
9
0
-1
1
10
28
3
-3
-2
5
5
2
-1
20
8
14
8
-7
1
0
-1
-11
-19
-10
-7
1
-1
0
-4
-20
23
6
-2
-1
-1
-2
2
-1
-12
-4
2
6
0
-1
-8
4
-29
-17
-13
-6
1
3
5
10
-2
-3
-12
-2
-1
1
-7
2
-1
-2
7
-2
1
-3
8
6
4
10
5
-1
1
2
-9
-27
13
9
9
0
-3
-4
7
-6
-20
-9
-2
-7
3
5
2
7
-1
-12
-4
8
-2
-8
-3
3
10
13
1
-5
3
5
-6
-15
-3
1
4
7
-1
-7
-9
-36
-9
-1
-3
-5
-1
-1
20
29
8
3
1
2
-2
3
13
-20
9
-11
-9
-3
-1
4
-24
11
-7
-4
-9
-13
-5
-5
-3
20
-20
-3
-4
2
-9
-12
21
-28
9
1
8
27
0
1
-15
-1
-16
-1
3
5
3
3
6
0
18
0
-8
6
-5
3
-9
-19
-13
-5
0
-17
-3
-1
-5
3
-18
6
-2
-7
3
-5
14
11
6
-8
-10
-10
-7
0
13
19
8
13
3
-4
0
0
0
-1
-6
-11
4
-2
6
-4
-32
-40
-3
-6
-2
0
-2
-2
14
53
19
5
0
2
13
4
-9
-38
-20
-21
-4
2
1
1
27
37
14
5
-1
-5
-19
-6
-21
-62
-34
6
4
4
20
4
-45
-20
0
-5
-9
-3
-21
-10
27
8
-6
-8
2
1
10
2
8
16
40
10
4
8
12
-2
15
14
-3
4
-2
-10
-11
4
6
7
11
4
-8
-7
11
10
25
8
-22
1
4
2
-2
4
-39
-27
-45
-11
-5
-4
3
-14
-22
8
7
-6
5
19
11
-8
33
-12
11
13
10
1
-10
-7
11
53
-5
5
-3
-15
-34
7
-24
0
8
-6
-3
-8
6
-19
-60
-21
-14
-5
-10
-23
-39
-18
30
-1
-14
-6
4
51
38
14
-23
-32
25
5
8
9
-16
-14
-6
-16
-6
-9
-9
-23
-1
-3
43
21
14
9
1
-5
-2
19
-40
12
5
-8
2
-25
-25
-12
54
-22
-24
6
-1
35
118
24
-42
-4
-3
6
6
-9
-90
4
32
30
12
-2
-2
33
35
-3
5
-8
7
1
-5
-23
-17
-1
-21
-6
-26
-21
-12
-37
-41
-24
27
13
37
5
4
10
59
13
24
3
13
6
-1
4
-15
9
-17
3
1
8
3
33
18
5
-47
-26
-9
-12
-10
-1
-4
-10
17
-1
9
-1
-6
-31
-3
9
14
5
4
-2
5
27
29
9
-1
11
-10
-11
7
6
-29
-14
-9
-3
7
6
3
-14
-8
-6
27
3
-19
-6
2
29
19
16
-9
19
28
3
-7
-18
6
3
-10
-2
-6
-5
-3
-24
-27
-18
-5
10
13
2
1
8
-12
6
17
-13
-21
14
-8
-2
-2
1
-6
-5
13
-30
-11
-16
28
4
-24
-15
-36
18
15
12
5
-22
47
26
50
-11
-6
-1
-21
-2
-44
-2
-18
1
3
8
16
2
19
2
-1
18
3
3
13
7
-11
-26
-7
-21
-18
-47
-54
-2
6
-11
-8
10
2
15
3
2
7
9
1
-6
3
35
36
8
-9
-12
-22
-3
5
-9
-55
-13
-14
15
-10
0
-8
-44
5
2
29
-1
-11
5
-1
21
85
25
-10
8
-16
-2
4
-3
-62
-12
-19
2
8
-6
-16
-15
-32
-20
4
-4
21
10
13
12
21
13
-8
18
-19
-6
-3
-35
-55
-18
18
-28
-5
-3
-3
13
52
15
-17
-2
-1
9
7
10
19
-7
22
-10
-12
-10
-14
-34
-21
0
-27
15
8
2
3
32
15
5
-24
13
3
-3
-2
-8
-13
-6
20
-11
-19
-16
-5
-9
5
3
-1
-39
-9
-4
2
33
27
15
-2
28
32
20
5
-17
-30
-11
28
2
-20
14
5
-10
-33
-2
-80
11
31
11
11
3
11
7
18
-36
-66
-29
-21
0
39
-10
31
-6
-5
-11
-3
9
28
9
-32
-9
37
-3
-6
-16
-77
-35
19
5
-18
-3
-2
-4
33
13
-11
12
37
8
4
4
15
-11
-3
-10
-11
-5
-2
-5
-8
13
30
27
-7
10
2
-12
29
-2
-12
-18
-40
-27
-16
-4
-76
-20
-11
-15
21
10
18
27
-26
-28
3
3
8
-13
-8
-12
19
2
32
23
13
15
6
45
82
15
-32
12
43
1
-5
-42
-27
16
23
-27
-1
-19
-19
-17
-33
-10
-12
-16
-47
1
1
-1
-42
-17
-16
8
29
-5
0
2
10
11
44
-23
-4
6
5
22
25
27
52
22
-48
-5
-1
34
62
27
-102
-7
40
8
7
-18
-29
-40
24
19
26
-23
-13
-39
-61
5
-4
-14
-24
8
-5
18
17
-44
84
44
45
15
13
-12
3
58
-64
-40
-38
-9
0
9
25
-23
26
-7
-33
0
-12
0
16
13
-52
-28
-18
-16
-4
7
-41
-6
-1
16
29
12
4
-21
0
-16
-16
2
-9
14
6
4
-23
7
-13
7
-46
-5
5
2
-2
-23
21
15
34
-10
1
-17
5
2
-16
15
57
-26
-29
8
20
-14
91
-17
-56
33
14
-28
-21
71
-70
-21
70
14
2
-2
-11
-27
69
2
-87
-37
-13
3
16
27
-43
-19
-37
34
15
11
43
6
96
22
38
-26
-9
9
-14
-11
-51
1
-18
15
10
15
20
-10
-6
23
42
44
11
-2
-38
-19
-32
-13
-20
-34
7
-16
-29
-6
47
-3
0
12
-13
-6
16
20
11
14
-4
10
8
6
12
40
-44
-31
-12
-12
-11
-5
-2
-43
19
-3
26
25
-8
-2
-19
15
-36
28
-28
-36
-8
-4
14
-27
15
-6
12
-50
-4
1
-1
-14
-49
30
64
79
24
21
44
11
26
-24
-65
-25
7
-1
-35
-11
27
41
5
5
-14
-3
44
46
-76
-42
6
-28
-14
-15
-38
-15
11
8
-21
-10
20
34
36
-6
-52
-23
5
-5
-5
-40
-68
-25
-20
12
30
-38
-24
-10
7
-11
98
21
4
12
16
0
-16
44
-68
-45
-20
15
-16
-20
-19
-62
72
111
22
20
0
20
76
68
-35
-61
59
11
25
43
29
32
18
-96
-109
-16
-41
-53
-35
-60
-17
-35
-15
-66
4
22
-26
10
62
17
-5
9
-9
-9
20
8
-48
24
31
56
14
18
76
9
2
28
41
2
29
38
20
-28
24
-30
-29
11
-12
-42
31
36
2
23
61
-51
-23
13
-78
-55
28
19
-39
-22
-21
-65
-25
-8
-128
-28
58
66
31
-1
-55
-52
127
40
-41
-19
-12
-1
32
-7
-128
-24
-27
-56
-12
20
14
-1
62
15
31
55
-2
15
44
-2
-21
6
-13
-29
-34
-86
-86
-35
64
63
35
-15
5
16
4
71
-72
-69
-25
65
31
19
35
10
31
-3
38
-53
-27
-13
-65
-30
1
-30
-9
53
34
22
41
27
96
7
-77
-82
-26
12
2
40
-63
-1
21
8
-15
9
7
-42
2
-89
-71
-30
-2
-21
-86
-39
127
81
48
34
24
-20
-33
22
-65
-1
81
2
-33
-46
-7
-3
67
-9
-51
-16
2
15
-32
-33
-47
8
23
63
18
67
84
4
-32
-14
-94
-40
5
33
112
51
-29
-9
29
29
13
-39
-122
-67
115
23
18
-22
-29
-54
-6
78
-58
21
35
31
17
-14
-50
-21
-36
-47
-61
-57
-3
69
-15
11
-64
7
33
84
12
-77
-48
-80
-32
-24
10
-80
-44
-37
23
14
21
38
-59
43
22
-10
-16
44
90
5
-16
5
-3
75
127
28
-86
-1
-6
-33
14
43
98
15
1
-3
21
48
29
-8
-93
-72
30
12
41
-81
-34
-38
-8
23
-51
40
31
84
-11
13
118
-81
41
0
-25
3
22
53
-72
42
21
24
26
18
18
2
49
37
49
-77
-51
-110
-41
-25
0
-32
-112
5
7
56
-1
-39
-77
10
127
30
43
47
16
-1
75
82
22
-7
-15
-65
-7
49
-14
-41
-80
-52
3
37
-1
11
-13
21
23
23
12
-22
10
7
-54
-7
-34
-8
13
-35
-41
-74
17
-14
-32
-25
-37
21
-10
-6
93
15
-34
21
67
-3
11
16
-41
-85
-56
-57
-13
-22
-5
-42
-12
39
-16
-63
-62
-26
9
-32
-108
-45
51
39
23
112
50
47
78
61
23
13
1
-44
-22
16
36
-37
71
4
26
-2
9
22
-60
-17
79
16
38
-33
-12
12
73
38
-104
-33
-64
28
8
-62
-128
-13
58
26
16
-20
7
77
121
36
13
-24
-12
41
-3
-48
-73
-58
-14
27
-30
17
30
4
76
-13
-71
-64
-50
15
-8
65
43
34
73
106
17
30
13
-43
-13
20
-38
-30
30
-58
-32
-17
-76
-47
-10
17
62
42
-1
64
123
61
32
-4
-33
-41
11
-58
-95
-37
-83
17
-18
11
1
-22
-36
-4
127
127
56
-28
-11
14
96
57
30
-81
-30
20
26
67
39
73
-45
-79
-23
-38
-53
-53
-45
-55
-58
-41
-41
32
17
39
79
3
23
83
-2
-50
-14
-104
-62
22
75
17
9
9
14
111
88
-15
-40
7
3
-24
-24
-54
-47
-18
-6
-1
6
34
36
48
83
21
17
-25
4
14
-24
-20
-63
1
66
3
-61
0
42
53
35
53
111
-9
70
-46
-33
-45
30
-30
52
7
-48
92
26
-7
-56
44
-58
-33
47
-97
-50
10
46
-69
4
37
-24
95
34
-13
-90
-33
-24
-9
-49
36
47
122
11
44
92
-79
2
-64
-15
-103
-76
-91
127
85
23
-16
-53
-5
127
124
-102
-128
-63
-59
-48
-13
-34
-51
13
114
8
44
49
61
59
16
19
-50
-24
-22
-30
-64
-74
41
-58
-70
-63
-47
-1
57
-5
-7
-56
38
81
46
-10
-54
-128
-36
116
-11
-71
8
-23
-43
65
8
-56
85
23
-15
-18
18
50
-34
-42
-47
-4
28
50
-24
-57
70
-70
10
16
-62
-49
0
102
-80
127
24
15
31
51
61
73
77
58
17
1
-9
4
-56
-27
-8
80
39
-16
3
-14
-19
4
-17
-23
-4
12
-22
-12
-17
-54
39
-17
-57
72
-11
-20
-15
-29
-80
-1
37
-62
-15
15
81
82
20
-101
-31
6
58
40
48
12
-62
88
8
35
-26
-11
-60
-59
79
27
11
19
15
-6
-43
-52
-25
-46
19
18
10
1
76
57
62
81
6
-6
1
46
7
48
40
68
11
-78
-56
-54
-28
-18
-74
-65
-28
52
46
-5
-5
50
-2
-24
-10
39
-12
10
-15
-117
-31
34
36
1
-5
10
59
63
18
26
-50
-28
37
8
19
99
-31
9
18
-5
-41
-2
-57
-53
23
69
-16
43
-58
-28
2
0
5
70
0
-82
47
24
31
6
-25
-65
-5
3
47
44
35
68
-34
13
52
51
-59
-49
-66
-86
-3
-74
-81
-30
72
30
27
83
73
7
-12
-29
-44
-20
3
5
-83
108
-12
57
-5
-15
-83
-102
41
-73
6
-64
11
43
66
117
-21
-6
-11
32
-67
-39
-11
-111
-86
-21
-17
6
34
-16
-16
56
16
14
15
-42
51
29
20
25
40
63
67
59
-47
-14
-8
-16
35
-2
-26
-10
4
-2
-24
-25
8
-12
-58
-7
39
26
77
75
42
-54
37
51
-53
-45
-78
-53
-82
-53
44
2
53
5
5
-32
10
120
115
-31
6
37
37
38
24
-128
-113
-6
-32
-11
-1
18
13
73
92
11
24
-3
-53
-54
-28
14
-37
7
-67
5
105
127
22
-1
-107
-28
75
-1
-75
-98
-14
88
115
55
-78
-17
-25
33
35
-127
-92
12
29
-13
15
39
-58
93
-9
-39
-4
-15
-60
-19
-42
-7
5
26
-19
6
54
40
-4
21
33
30
-10
-1
10
-112
-4
5
6
-105
21
33
16
38
33
41
-19
44
47
22
55
37
88
-120
-83
-2
-31
-74
-93
10
-119
-47
72
-44
38
14
62
22
19
93
-11
-1
-44
20
-30
61
92
-105
-50
2
25
-19
-9
-50
-104
39
69
21
23
23
26
44
52
-72
-41
-26
5
-7
0
-8
40
-51
36
0
6
11
53
-31
-91
-4
-4
25
-39
-45
-73
-73
31
5
63
22
30
31
-28
-55
-12
63
-6
-21
51
31
42
49
-37
-9
-1
45
-50
1
-11
-94
52
-21
2
-76
-32
2
33
127
55
43
68
9
51
11
2
-64
-13
5
-58
27
-43
-40
-45
-20
-55
-20
-38
-42
-13
-6
37
71
1
-13
-25
5
7
7
-20
-121
-42
24
-11
13
-10
2
32
69
24
-2
14
1
63
15
-37
-26
1
-10
52
48
-9
25
32
8
56
37
-81
-53
-33
-66
-94
-99
-101
104
37
-5
39
14
69
84
87
-43
-88
-16
-35
19
67
80
-12
-26
72
77
26
-10
-114
-100
-42
104
65
-22
40
22
14
13
82
-128
-30
-6
-14
9
37
11
13
122
15
44
-50
-32
-13
65
-34
-48
-63
-45
-21
-20
0
-45
-45
-22
3
-8
7
48
43
22
-8
-99
-3
11
7
-10
8
57
-36
69
-5
-4
-1
-11
-48
-95
67
-91
18
10
-46
-2
15
33
8
-53
22
41
-44
-13
-1
9
-34
127
59
-49
11
8
2
41
31
-115
-69
-43
44
10
-23
-4
-30
127
-17
21
-33
-50
-27
-59
-7
-60
-61
22
36
13
73
88
7
19
0
19
-1
25
-54
-83
-48
23
35
-9
-1
-4
17
26
11
64
43
15
42
1
-27
-6
68
-60
-18
-7
-82
-6
58
24
-47
-32
-55
-69
25
7
18
49
-32
-65
-31
8
-10
-22
-92
-106
-33
57
17
12
-31
8
80
78
6
-20
0
-9
60
12
-46
-20
7
-54
-26
7
1
-4
32
70
34
87
79
20
-8
12
-40
-128
45
42
-57
-13
32
8
65
127
11
-70
12
-10
-18
9
-16
-69
2
27
-5
-7
-93
-63
-36
-94
-23
3
1
35
65
28
-7
60
-3
-48
39
-34
-19
-2
18
9
13
71
54
20
44
3
-13
38
9
-8
-48
21
-55
-15
-15
-3
9
9
57
-2
-24
-12
21
-72
6
-8
-30
-5
-19
-15
-36
-31
-24
-6
42
-3
50
19
58
122
17
31
-3
-23
-27
-12
-44
18
12
-28
-18
27
-4
-5
-50
-81
-14
18
-63
-28
-8
2
19
1
-4
31
-5
-19
-8
-8
50
63
15
7
3
33
17
23
-42
-84
12
18
21
-11
-15
-35
40
87
-12
-21
-31
-18
10
14
-15
-89
-7
5
76
19
-10
2
58
50
-1
7
3
14
13
-9
-72
-37
-3
2
-25
-9
-15
-5
55
18
-21
-35
12
-24
11
-3
24
-4
18
-2
-14
8
12
-17
-123
41
5
-26
23
-4
-18
-2
70
-33
-29
9
-43
-26
-11
33
65
36
13
-33
16
31
10
-42
-55
-12
-25
15
-9
23
17
36
39
-43
-1
-1
-33
-68
-13
-7
3
23
29
19
7
-27
17
-82
-112
51
28
-9
11
12
16
107
127
-29
-44
9
-2
-44
-24
-60
-101
27
-41
4
6
43
-2
-12
-58
-65
19
-32
-51
-45
-18
49
75
43
-34
-2
26
85
25
-19
40
38
35
9
8
-70
-18
23
-79
-114
3
-24
-41
12
17
-17
53
127
-36
10
64
-28
-20
-24
-97
-69
7
-13
-38
-53
-6
-25
6
12
-35
5
-13
84
12
46
116
-33
63
-10
9
64
5
-10
-33
53
-51
-9
-40
-65
-34
-65
-33
-128
33
0
5
30
41
80
65
98
-23
3
10
34
-6
-19
-13
8
-25
25
-8
-90
-15
-33
-67
67
43
5
18
126
10
76
102
12
11
-10
-22
-128
-48
-74
-128
56
20
-1
-37
66
12
7
118
24
15
0
41
73
19
37
21
-128
-16
36
41
-16
27
51
61
127
6
-3
-8
-40
-44
-32
-107
-128
2
-16
-40
-43
18
7
32
19
48
-21
2
-25
8
-46
-88
12
-7
13
55
105
40
33
88
96
1
-6
3
-41
-12
31
100
-5
41
-19
18
98
-18
-68
-128
-104
-75
12
-64
-122
-23
44
127
88
-24
-4
18
50
38
-9
-82
-128
40
-17
-14
85
17
9
53
18
-34
2
17
-22
-19
-10
-86
-36
67
43
-17
52
-13
12
8
5
41
1
10
82
7
-29
-38
96
-24
-30
-34
-112
-25
-3
37
-94
-43
17
8
9
28
-6
16
99
12
-15
-37
-7
-4
30
-5
-118
-15
-12
24
14
9
-21
-30
51
14
28
53
112
29
-3
-52
6
17
0
-13
-87
-24
13
36
31
-9
27
21
26
-5
11
32
0
-3
-34
-90
1
-20
-15
-22
-55
-59
4
2
8
22
-5
40
13
22
23
3
-21
6
16
-35
-21
-4
-4
17
-4
36
-11
13
9
12
7
-45
-86
-51
-17
-55
-37
0
15
43
52
20
-7
-53
25
3
-8
24
-8
-3
12
52
-18
-30
-13
-26
33
18
0
-30
-16
1
4
1
-14
-6
16
28
0
2
-9
13
48
11
3
-24
8
-7
12
-28
-80
-23
16
50
23
33
-30
-13
37
4
-17
10
6
-44
10
42
-9
4
-4
-32
-14
28
-14
-26
-23
-20
-24
-55
4
-16
-8
-6
32
21
-1
19
-19
-10
9
-1
6
3
2
23
1
1
4
30
-10
-13
3
-14
-15
-2
-1
-30
-75
-2
-8
-49
-26
14
-1
17
29
25
15
27
15
0
9
17
-44
-32
-1
4
37
12
-19
-15
51
-1
-14
-15
-49
-22
-16
-24
57
14
13
50
33
3
5
2
-25
-19
-10
-36
-40
-3
16
30
22
9
-2
-4
36
17
-16
-17
-27
2
-3
1
-9
-15
7
-1
9
-8
13
63
18
5
5
9
8
19
-7
-37
13
26
18
48
-15
-36
4
35
-42
-5
-24
-51
37
16
1
-5
28
-28
4
28
-41
3
-7
-16
20
4
-5
0
2
-17
-13
-73
-45
-13
-5
41
75
25
17
42
19
8
-6
1
-36
-11
3
5
9
19
-3
39
17
3
1
0
6
-12
-20
-75
-77
-22
-4
6
0
-13
2
7
-15
-13
-11
-39
-23
0
7
-30
54
22
4
26
13
-1
7
52
-14
-11
-11
-24
-10
8
13
11
-14
-9
-1
37
5
4
-7
-4
-12
2
-5
-13
-15
-21
-2
-12
5
7
23
28
28
16
5
7
22
-7
-5
-17
-18
-11
-2
15
28
5
-8
-11
12
-1
-2
-35
42
13
-3
9
-40
-3
-18
-7
-100
-41
-19
-33
-2
-28
7
17
12
-3
-13
18
81
10
-7
8
50
8
11
-10
-95
-27
-5
-11
-21
1
15
-5
61
24
11
38
67
28
2
13
-2
-7
-13
1
49
-2
1
-31
-18
-18
-8
-46
-65
-8
-11
18
29
-16
1
-12
16
-11
-1
2
7
10
-6
-17
-111
-10
-4
-15
-44
2
5
-27
-20
0
7
16
0
9
1
31
79
18
4
-3
-2
2
-8
-2
-29
-15
-13
-8
2
5
13
54
0
-10
-4
-10
16
2
5
12
40
16
0
3
-24
-1
25
-47
5
-7
2
14
4
-8
-21
-25
-64
-2
7
-13
-1
0
11
37
-68
-2
6
43
43
28
-10
-28
-22
-12
-8
-19
-82
-20
-2
2
-11
-5
-21
-15
10
1
6
11
18
14
8
24
23
-1
16
63
22
-1
-3
-31
-30
3
-22
-103
26
-23
1
-3
8
-1
-7
20
10
13
0
18
9
2
-1
15
-43
1
-13
-8
4
-7
-4
-2
-6
-5
7
-20
-14
5
-7
-8
-29
-9
-6
-8
16
2
-8
15
6
-3
-2
-6
-24
-25
-9
-22
3
4
-1
19
13
7
-4
-39
6
-3
-8
-22
-4
-8
13
33
-9
25
24
25
-18
3
5
4
-18
-11
-14
-58
16
9
-11
-12
-40
2
12
70
-1
-34
-12
-30
14
2
-23
-1
24
-4
9
35
-64
-24
-18
-14
-16
5
-33
-52
-5
3
18
9
8
2
11
75
38
-8
-4
-33
0
7
6
-29
35
5
9
9
8
-3
-8
-15
-26
0
-13
-8
12
0
10
36
-16
-7
-11
11
7
8
5
-25
45
-2
-6
-27
-16
5
-6
8
16
12
21
33
51
2
-3
5
-41
6
0
-14
-54
-2
-7
2
37
-10
-14
7
11
1
-7
-2
4
0
2
-3
-5
2
4
2
-29
-4
2
-7
-14
-3
15
20
21
18
9
7
38
4
2
-7
-13
-4
0
-7
-14
-7
-5
-22
22
-4
-15
-30
-18
-4
9
8
5
3
-2
8
13
4
33
59
57
17
42
79
40
13
-29
-13
12
-6
13
-8
-58
-57
-36
-84
-83
-38
-40
-37
-39
6
-13
-26
-42
-12
-14
-26
-24
8
1
3
61
14
-9
-25
23
6
28
43
46
12
5
22
32
11
3
44
-19
-2
6
0
-1
-6
-14
-34
9
3
-1
3
5
0
-5
-4
-3
5
1
-4
-6
-6
25
15
6
1
15
15
15
8
-1
29
-36
-2
-3
-6
-23
1
-6
-1
-12
-8
-9
9
30
8
-12
-15
-3
5
-4
-7
-47
-5
-10
-45
-28
-9
-9
-5
7
7
9
2
22
8
11
-3
16
0
13
41
27
5
-3
-14
-24
-1
0
-28
-22
-16
-4
37
29
-3
1
-5
40
13
23
17
15
11
1
10
-40
-23
-6
-10
-20
-6
-27
-10
29
9
-7
-15
-41
-11
-13
-1
-27
-1
-17
-52
-5
-1
3
-13
-14
6
-16
18
29
19
14
45
44
2
11
11
26
6
4
-29
-22
-12
-5
-19
-20
-5
-15
6
16
5
9
20
6
-12
6
38
3
-4
0
4
23
4
11
-18
14
1
3
-1
-12
0
-2
-9
-49
-9
2
-7
-2
-6
-9
-15
58
8
-15
17
14
-1
-14
-9
-29
-3
-5
-11
-30
5
-11
7
-22
5
-4
19
22
-24
6
-19
31
-11
4
11
4
2
11
-4
-6
-5
-2
-12
16
9
15
28
9
4
-5
-39
-54
-11
-5
-53
-27
-22
2
6
5
-1
1
55
82
17
-1
17
8
-8
-9
4
-41
0
3
-14
4
-7
-7
-14
-10
3
4
9
5
-4
1
-2
72
15
-7
-13
0
3
4
22
-4
-12
3
14
1
-5
-2
-50
-53
-15
-3
-2
7
5
-4
41
8
-2
-4
-30
-31
-5
11
-3
24
8
5
19
-3
-1
-17
4
-37
-12
-16
-2
5
4
5
1
76
10
8
-20
-12
-4
1
-31
-36
10
11
68
30
5
-10
-10
-45
-18
-5
-18
-31
-2
-5
-17
26
2
-5
-11
-7
-8
5
11
-13
-6
-7
-7
-12
0
-10
16
-43
-17
-15
-29
18
-6
18
35
-20
8
10
35
22
24
-10
-33
18
9
10
15
-4
-4
-10
-16
14
1
1
-15
18
-2
-1
-13
-6
0
-8
2
-25
-5
-6
-1
26
1
-11
-26
-21
-5
3
15
-12
1
-5
-7
-4
3
10
-4
-17
-1
6
-3
-7
1
-4
16
16
3
12
24
31
4
-5
-35
-38
-2
3
4
2
-7
7
-2
-12
-15
-1
4
0
6
-4
-8
10
6
-10
-1
3
0
-1
10
-26
-18
-9
-9
-28
-6
-2
42
73
18
1
-6
5
1
7
-38
-52
-6
3
4
0
-1
1
23
29
0
-6
-11
-6
-4
-7
-20
-17
-4
-2
0
3
-1
-4
-13
36
13
5
1
6
3
3
1
-7
1
1
6
1
-2
5
-3
-12
-24
-4
-1
-9
2
-1
5
19
15
15
-2
7
-5
-5
3
12
-18
-6
-5
-3
-4
2
4
0
18
2
1
2
-3
-3
11
-30
-4
-9
-11
-14
1
1
-18
2
-5
-14
-17
2
1
-4
-8
-26
-1
1
11
3
0
0
7
17
0
9
-10
1
-1
-1
3
-9
-4
-2
12
-3
-2
6
14
14
10
1
-5
7
3
-2
-23
14
2
0
-6
-2
2
1
-2
-18
0
4
14
14
0
3
15
10
-2
-6
-9
-17
0
-2
-16
-9
-7
-6
6
3
2
3
5
-6
3
-2
-11
-3
0
0
1
1
-4
-2
14
1
-3
1
-3
-8
5
13
5
11
3
2
7
14
-1
-7
-6
1
2
-7
-2
-3
12
7
6
0
-3
-5
2
-4
-2
-8
-8
-3
0
1
-9
-11
-13
-4
-2
-4
-1
4
-4
23
10
-4
-3
-3
1
-4
1
-34
-23
-6
-9
-1
-1
-9
10
-1
8
-3
7
-3
-6
0
-5
-5
-5
1
-1
-3
-7
-3
-22
2
-5
1
-2
1
0
3
-11
6
20
3
-1
3
4
-9
12
0
-13
-6
-4
-8
-14
7
10
-2
12
5
-2
-3
6
-7
-6
4
-14
-10
1
1
-5
1
-9
-21
4
11
3
0
-1
7
-13
-5
-15
-9
-7
-4
4
0
6
11
-3
-10
-21
2
-1
6
5
-16
12
16
36
6
2
-2
3
11
3
4
11
2
-1
-2
4
8
-8
-4
-3
-5
2
-1
-7
-19
2
3
-1
1
0
0
10
15
0
-2
-9
-2
-5
0
4
-5
1
-11
-10
-5
-2
-11
-19
-9
-14
-5
-4
-3
-1
4
6
3
-11
-2
11
1
1
4
-15
-6
18
12
-6
-2
-2
-19
13
1
-7
-1
2
0
-16
1
-8
-4
9
-2
-6
-1
5
-22
2
-1
-7
-7
0
-4
-3
27
-9
2
-6
-7
-23
-5
4
5
8
-10
-12
4
19
6
6
2
1
2
6
5
2
3
2
-6
-16
4
-6
-7
-7
-7
1
-10
-4
2
20
-3
-25
-3
0
4
2
-12
-11
-7
11
-4
-3
14
23
15
-6
3
-3
2
5
-9
5
-46
-3
3
7
2
-3
-6
11
15
2
0
-3
-1
0
1
-22
11
6
-11
-22
-6
4
5
-8
-9
-5
-4
5
-2
-6
-4
-9
-9
-12
-5
-8
-3
-3
-4
9
1
-15
10
18
12
1
4
-14
3
18
0
-4
-4
-1
2
10
-1
5
1
2
-15
-6
-24
-20
28
9
-5
-13
-8
-2
1
-20
-61
-20
-9
4
-10
-9
11
15
23
-1
-3
8
17
6
3
-7
-27
-3
10
2
15
2
-4
3
32
12
4
-12
-16
-1
-2
-3
-6
-2
-5
15
21
2
0
18
-2
-2
-3
-20
-27
-2
12
-5
-15
0
-7
-6
11
8
3
-4
-7
1
10
27
16
-11
-2
-5
24
3
-1
-4
1
0
0
10
-10
-6
0
-27
-39
-2
-11
0
5
9
12
39
28
7
15
3
-4
6
2
33
11
6
-21
-2
-9
-8
-12
-26
-11
-7
7
-9
20
-16
-4
-18
-34
0
2
-10
-66
7
8
-17
-3
0
19
18
22
-3
4
17
19
6
-1
10
13
1
0
8
11
-3
-7
-13
-30
-10
-13
19
46
-2
-9
-10
11
-6
-5
-24
-60
-13
3
16
46
-4
-8
-18
-5
6
-3
-34
-43
1
-6
-1
32
8
8
23
-24
-8
0
-7
-39
-11
4
-8
-7
-3
1
56
55
2
-8
-13
-1
7
0
-58
-54
-14
-50
-4
30
-9
-5
-17
-19
-10
19
-5
25
6
4
37
52
5
-1
15
-22
-4
-13
-59
-45
-5
60
-3
-21
5
13
49
25
40
-43
22
44
11
24
72
51
-18
-19
3
5
8
-4
-37
-76
-15
-3
13
12
-14
-8
-28
-4
2
-33
7
-15
8
-4
3
-12
6
36
-23
-6
5
1
-39
4
-5
2
4
2
-1
5
18
27
3
-21
-15
28
-4
-8
-5
18
-21
-14
3
-36
4
-3
-24
-86
-18
73
31
2
-1
1
32
78
43
-46
-27
2
-7
-2
5
16
19
12
-6
-2
4
-6
0
9
-9
-5
21
-1
0
10
14
28
-6
-11
-10
0
6
-3
-24
-95
-10
19
5
-20
-6
0
-10
-6
1
3
1
22
-4
0
0
12
16
-46
-36
-32
-13
-12
3
50
-10
14
11
14
1
-3
3
-23
7
-20
-15
-5
2
7
-6
-16
0
12
6
16
16
3
-1
-19
-28
34
37
15
-5
-9
4
13
7
16
-13
24
-5
-4
-3
33
6
38
33
-27
4
-3
-16
18
-2
-19
-31
-56
-7
0
-7
-36
0
-19
-7
25
-26
-19
-30
-59
-23
-55
-34
-6
-3
-9
-25
22
4
-13
3
12
-10
-1
38
32
-12
51
52
35
1
-2
-35
-69
-15
17
-33
5
8
15
47
74
22
22
-30
-56
-6
-6
22
-26
-25
64
3
0
9
3
-10
9
31
-54
10
14
-1
-2
-4
62
34
-46
-36
-34
4
2
-5
-11
-10
23
28
7
1
0
-9
-34
-26
29
9
7
6
0
5
35
17
8
14
-10
-14
-3
8
-26
-13
-25
21
13
31
10
-13
-26
-6
63
38
-9
4
3
-7
39
39
-107
-55
32
4
-13
-26
-80
-70
107
34
-9
2
10
35
73
58
-83
-32
37
-17
-17
-18
-29
-21
-29
-32
-92
-61
-24
-12
26
-37
28
24
21
30
-1
-20
-25
25
-1
-31
11
9
19
-3
-49
4
4
-9
60
17
-4
1
-8
-12
74
42
-48
-26
2
-13
16
46
-79
-35
-13
-55
-34
-30
-38
-66
17
-12
26
89
19
49
62
-17
-17
-25
-52
-19
4
-11
-15
13
25
-25
-7
16
14
-10
-30
-2
53
50
13
-13
1
13
-2
28
-104
-6
-53
-13
2
33
74
-4
15
-9
9
-50
-43
-65
-99
-41
5
-5
39
11
4
25
-3
15
2
0
0
31
39
21
45
15
-25
-23
-36
-31
-16
-23
-18
4
91
60
-24
21
11
13
30
18
-128
-40
17
2
-19
-12
-31
-14
-23
-18
-14
20
4
30
93
-68
95
1
71
-21
7
-7
-93
54
-40
-29
-56
-16
-8
-28
-23
-42
80
25
22
13
-9
-6
11
1
14
1
-45
-47
5
17
3
14
-93
2
28
16
-3
36
82
-1
47
-43
-13
20
8
-3
20
22
-19
58
89
4
6
-16
-117
-15
89
-3
-35
60
25
45
29
-1
-72
-78
-92
-102
-63
-69
-18
-65
36
52
55
21
23
40
-38
3
-22
18
-13
1
8
10
-21
-22
54
-3
22
30
9
-11
-13
29
-75
3
44
10
-7
10
46
17
-7
-20
13
18
14
6
55
25
-38
-16
-9
-35
-15
24
-45
-76
-60
35
37
-14
-8
-75
-125
8
67
-10
-61
40
41
43
36
-33
71
13
13
2
-10
-14
0
22
-78
-17
20
-30
-19
-12
120
17
51
39
19
-60
-26
-9
-59
-18
31
-38
8
7
-9
-18
-61
-9
18
-4
5
29
14
51
101
-1
55
0
-32
-9
5
-54
-114
-39
-64
-12
10
-5
-45
-25
95
13
30
79
-12
-13
41
39
1
22
38
1
20
-35
-26
-18
-37
-27
-5
-40
8
92
28
10
-36
36
-106
15
-29
-71
-21
5
72
5
55
-14
39
93
24
44
19
4
-104
1
-34
-64
-41
-47
-9
3
58
26
31
36
8
4
40
-26
42
-18
-50
33
24
-6
-108
70
4
-1
21
-3
-20
-7
61
-13
-49
29
5
-11
22
56
5
1
-14
-9
-16
-57
-27
-51
-18
38
44
-39
-24
64
28
109
89
-66
28
57
33
-26
-9
-118
-123
67
17
7
-18
8
13
59
68
41
-20
39
41
-87
-28
-5
-80
-35
15
8
-9
96
67
48
100
73
-101
-5
3
18
-18
-5
-16
-10
127
-3
34
-4
6
-13
23
43
-79
20
44
39
24
37
54
21
55
-77
-94
-74
-14
22
7
0
-6
14
36
-5
-39
-108
-100
-46
-44
66
-14
72
68
92
111
32
123
20
18
-38
19
-13
-43
81
-87
-6
37
84
24
16
67
-82
101
-64
-9
-98
-43
-33
-60
-21
-35
36
-37
68
21
7
-4
-12
83
72
-55
12
27
48
22
5
-70
-57
41
-91
-64
-78
-25
28
-76
-36
-3
39
33
29
-1
-74
32
31
-8
-95
-65
-25
-98
-57
3
-65
-17
87
19
3
41
11
31
84
20
-36
-6
-37
-68
1
16
24
1
35
1
17
60
47
-59
-83
13
11
28
61
61
-19
-86
29
-62
-60
-57
-84
-63
-35
-12
-67
43
-10
-10
17
17
-4
18
40
-23
64
49
46
72
28
-39
-20
11
41
14
-19
-33
-14
55
-43
-58
-31
5
24
87
30
-37
67
69
30
-5
8
-15
38
28
-13
-12
-3
19
-3
-40
21
58
56
-5
-22
-9
-4
-19
4
-46
-76
-40
-71
-17
16
36
-8
-23
-3
-18
29
5
3
-48
-54
82
66
62
-76
-26
-45
42
19
-44
-78
-5
18
-2
-28
-61
24
39
26
2
25
14
22
-20
-9
29
-26
26
57
5
31
55
17
8
28
-73
-44
-2
47
68
-3
-65
-35
21
8
-17
-79
-86
-70
-4
-1
50
-62
-35
-79
-102
-92
48
24
-42
73
62
72
16
49
-102
-65
-43
-40
-55
6
18
1
64
75
1
47
8
-15
94
76
-34
-5
17
59
-5
-4
13
0
-94
29
8
-67
0
-31
-128
-98
125
-105
-38
-33
-27
-9
72
11
-38
9
47
-51
-23
-23
-93
-15
32
-11
-63
73
24
59
114
-12
127
28
19
-35
-31
-50
-20
69
-128
-28
-13
-50
-3
17
-113
-35
99
-9
27
45
42
85
71
27
59
56
-20
58
18
18
90
73
35
-31
23
-73
-18
-41
-30
-33
-36
-10
-12
50
1
-12
-16
-10
-12
91
10
-17
9
-1
-20
35
-34
-56
60
-9
5
9
-30
-34
104
23
-69
31
45
51
80
22
-57
-56
42
-40
-44
-12
3
-50
57
10
-104
-44
-15
-54
-76
-38
-54
-88
-16
15
46
29
-31
6
-94
31
32
47
9
21
77
27
27
45
78
-61
-35
-43
-91
-20
91
-30
-80
73
40
55
127
46
-121
10
53
-17
-71
-11
-63
-28
19
-10
-16
33
3
-50
62
-5
101
27
9
-75
9
18
-36
65
-40
47
95
64
24
43
64
-16
0
-25
-82
-33
-23
-67
-58
31
-128
42
21
-37
-24
36
73
10
69
32
45
19
-3
-2
-90
-98
76
-43
-10
-16
-29
-108
-83
20
-16
30
-44
75
99
91
71
30
-4
-36
9
-77
-71
-96
-99
-42
4
15
-24
53
76
94
127
84
47
-18
17
-41
-35
-46
-53
41
-34
15
22
-86
-58
-10
-37
-42
120
14
32
58
65
73
44
21
-6
38
0
38
59
69
18
57
-38
-83
-21
-23
-14
-15
61
-43
31
-53
-73
-64
-66
-94
-44
-5
37
83
55
12
0
-24
-54
43
-99
4
-1
35
-29
-53
42
-15
-98
-3
21
-128
-51
-1
-80
-45
-63
-35
-18
83
58
66
49
-40
73
-86
-67
-52
-8
-34
-22
-9
-31
26
12
62
60
51
18
13
-14
-1
-21
-73
-96
-55
0
-30
94
56
30
-10
26
31
94
12
24
-82
-26
-26
-30
-90
-128
-44
4
3
-6
15
-11
42
103
-45
-109
-30
55
-43
-7
-30
-59
-17
65
18
-22
17
14
60
126
-12
-72
46
23
40
-10
-56
-85
26
124
65
-32
-24
12
19
-6
-13
4
-26
26
28
35
30
111
21
8
-14
5
12
-37
-33
-120
-54
-6
-4
9
-82
-11
48
90
41
73
-40
-41
93
22
-77
-27
-24
23
35
-6
-2
-22
-58
-88
-65
46
65
67
22
9
33
22
119
-94
5
-1
-31
12
68
53
-128
66
-28
-30
7
15
-63
-102
56
-61
-65
-38
79
24
11
111
61
-20
-14
43
-21
-19
-26
-20
-17
92
-21
-8
15
-6
54
12
16
10
36
78
-34
-19
-44
10
9
-83
-84
-73
-10
19
57
-8
-99
70
48
16
-36
18
-34
-10
71
38
88
-1
106
43
68
43
48
-128
-55
17
-2
-3
37
67
-12
4
-5
-2
-86
-61
-75
-121
-61
-39
37
-3
20
9
26
127
38
93
-28
14
-64
-72
-100
-124
-19
31
23
-82
40
27
16
-11
38
115
52
25
-51
-7
37
70
60
-70
-103
-2
61
-1
3
-37
-49
-77
-28
7
-28
-18
-2
61
17
43
22
32
19
10
-54
-105
-75
127
11
-68
35
35
56
105
54
-45
-20
11
-49
-24
-56
-54
-38
37
-38
-15
16
-7
-15
39
11
-80
-33
8
-68
-38
28
79
-18
-76
-61
-54
51
40
41
-48
-15
116
58
18
-47
-31
-50
-95
13
-32
-43
-32
-10
40
47
29
-34
116
5
-41
1
5
40
111
2
105
71
66
1
-31
-88
-83
41
44
-34
-6
40
59
66
35
26
-90
16
-6
-128
-54
-1
1
4
-83
17
23
98
44
43
50
43
-30
-6
-9
77
18
29
7
-10
-20
14
25
-63
0
70
86
2
127
-14
-4
82
64
-43
-96
13
-120
25
18
-78
-43
-25
-9
-27
8
46
34
46
21
22
49
-22
18
30
-1
-8
0
-4
-5
3
37
76
-6
48
3
14
-9
57
-43
-88
7
-38
25
51
3
-51
47
62
-16
9
-1
-7
-6
27
-2
9
1
-3
-1
41
55
-55
-107
-76
-64
-26
-28
-51
-58
-43
127
111
60
84
19
-33
-87
101
-128
-98
-15
-71
2
25
-7
-102
16
-8
-15
-13
-63
-49
76
24
-78
-12
6
-22
7
-49
9
-5
-13
18
16
-44
-13
45
1
-31
-36
12
-78
-9
14
29
40
40
-31
-1
30
23
6
-36
-98
24
15
-51
-6
23
-10
58
49
-56
-114
31
-35
-17
-17
-39
68
35
73
12
66
-37
-31
-62
-57
8
-67
21
-1
18
11
9
-92
1
45
12
-15
-20
-14
-37
8
-37
118
-45
-35
-26
-3
34
-21
-78
3
65
-10
73
18
3
26
13
23
-50
19
-41
-39
-87
5
-1
127
50
51
-20
3
21
21
14
-110
-75
-75
-7
-12
-28
-80
23
-56
43
30
24
11
26
84
-7
-45
-24
-28
-52
-46
-58
-128
-57
8
34
38
-8
-10
-34
16
24
-12
-20
-38
-10
13
12
32
17
38
-39
26
-20
-32
-6
-34
2
-82
43
-40
41
45
45
11
-16
-38
19
-1
-5
2
7
-13
45
-20
-33
34
-3
-25
-15
-11
-24
44
24
37
-11
-4
7
7
0
123
