-1
0
-13
-4
0
6
21
1
0
-1
5
0
-2
-5
-4
2
0
1
21
3
1
0
-2
-1
-1
-4
-15
0
-3
-5
-6
-2
1
1
-15
-3
0
4
6
1
-2
-2
-13
-3
0
-4
-3
-1
-2
5
14
-1
-1
1
0
-3
-1
0
6
1
1
-5
-14
0
1
-1
11
4
3
-2
9
0
-1
5
-2
-1
-5
5
18
0
2
5
-8
-4
-2
-3
-19
-2
-3
-14
8
-2
-1
-1
-5
0
1
1
-5
1
0
-1
5
0
-1
-7
-1
-2
-3
-1
-3
-5
2
-2
-5
0
-3
0
5
2
-3
-3
9
0
-2
-1
-4
-1
0
8
12
-1
0
3
4
-1
-1
-5
-2
2
1
-2
-4
1
-3
-8
-27
-5
2
-3
0
-1
0
-3
-8
-9
-5
-3
-7
-2
2
16
16
6
-1
0
4
2
-2
1
3
-1
0
1
-5
1
-1
-10
-10
-3
-1
-2
0
-1
0
-3
-1
0
-1
-5
-4
-2
-1
-2
14
2
-4
-2
2
-2
0
8
-7
-4
-3
2
-5
0
-3
-5
-1
-1
1
1
1
0
2
6
4
-5
-1
-3
0
-2
-5
-13
-8
-4
-2
-2
-2
-3
-2
-2
-19
1
-4
-2
-4
0
-3
2
3
-1
-3
1
2
1
1
7
6
5
0
-2
-4
0
0
-5
-1
0
1
0
1
0
2
0
6
-1
3
1
1
-1
-2
-3
-1
2
-2
-2
-3
-3
0
2
8
-1
-3
0
-1
1
0
-2
-4
-2
-2
-1
0
0
-3
-4
-10
-6
-3
-4
-1
0
1
1
13
5
1
-1
1
-1
1
-2
2
-1
-1
1
-1
-3
-4
6
0
3
-3
0
0
-1
-1
-6
-5
-4
1
-4
-1
2
0
6
-6
-4
-2
-2
-3
-5
-2
-7
2
6
3
0
0
-1
0
1
5
1
1
1
1
0
-3
1
8
-4
-5
0
-2
-1
-3
-12
-9
0
-2
-3
0
0
0
6
-11
-8
-2
-2
-1
-2
3
12
2
2
1
1
1
2
1
2
14
8
3
3
1
-6
-11
-38
3
8
-1
-9
1
5
4
34
6
14
3
16
21
58
16
45
34
-7
-5
-1
-23
-36
6
66
35
-1
9
-3
-3
-29
-22
-37
9
0
5
5
46
-1
10
-4
-83
-9
-18
-17
-30
-14
-14
12
-29
-30
-1
28
-32
-56
29
74
84
22
0
-11
-40
49
0
41
1
1
-1
1
14
-11
1
-19
41
22
13
-11
-22
-26
-14
3
10
35
23
-8
12
32
49
67
-68
-58
-27
8
13
-3
-49
-66
-68
11
10
35
-22
41
-2
5
10
-24
-13
-21
7
12
7
81
35
25
2
6
30
-11
7
-95
23
7
-11
-71
1
-28
4
87
31
19
-7
-16
-46
61
-43
-51
-126
-54
-11
97
75
-57
64
65
99
63
38
-72
-128
42
-24
-2
-26
-7
4
9
88
-10
-30
-78
-41
-6
23
14
-26
-128
-66
56
111
80
-3
15
11
-12
2
62
66
-49
-9
-12
14
-68
53
25
-12
49
-7
11
33
65
4
5
-57
2
-30
13
48
30
64
31
76
-5
14
-14
-28
93
-58
-100
-27
-1
12
21
0
-59
-10
33
-36
-35
4
24
-28
-24
42
65
13
22
6
-11
30
92
-23
58
127
3
-9
-23
73
-22
56
-128
-114
-18
-24
-8
-55
-36
-46
-98
-56
8
10
5
-90
-86
11
54
74
-52
17
8
5
-52
42
63
-57
-5
-8
-25
10
9
-3
-76
73
64
15
85
106
115
-12
28
127
80
20
-82
-81
-20
-16
-54
-94
-74
-41
-10
-47
-33
22
57
115
-7
0
10
37
-120
-50
31
37
-125
-60
-54
-65
25
20
-24
-27
-4
-2
73
127
108
28
13
47
56
27
-35
-98
22
-66
-128
-128
-17
28
0
2
-11
33
127
13
74
3
23
19
118
-50
-27
-112
-93
-25
-6
-16
-58
26
48
127
-22
6
-12
7
-61
8
-108
-84
-3
8
38
48
5
8
-6
-128
-17
-7
-47
-46
11
-28
85
103
61
-1
-4
-1
84
6
-31
-35
44
8
48
72
-12
-14
-25
62
-20
-13
-50
-86
39
-8
-3
-116
-49
-4
-1
32
-47
18
-109
18
-30
-14
-16
-23
29
20
99
28
1
-5
21
26
43
2
-56
47
26
3
-21
-9
-61
8
-29
-19
-22
-4
8
35
-42
-25
-3
-108
7
14
9
-6
-86
39
48
40
-24
-18
-15
-35
8
55
127
74
1
-14
-7
-19
-38
-56
-122
-14
8
-10
-16
20
-23
8
29
-3
67
17
23
57
-4
-21
-49
8
32
15
0
-45
1
16
32
-59
-21
5
-21
-53
39
-7
14
25
-7
-9
6
48
59
-14
20
114
9
2
44
20
-1
16
4
-67
-49
15
-41
8
-57
-17
-9
39
11
-42
5
-60
94
-34
25
-82
-71
-29
-25
-6
-33
2
-84
21
-17
-7
6
86
82
-20
-18
82
39
2
16
26
43
-35
22
-2
2
14
-16
-47
-91
45
61
100
25
21
-9
-27
31
9
19
-82
-67
-13
11
35
-8
-16
-14
-42
-15
-14
-9
1
-12
52
28
1
47
26
20
73
98
-28
-62
15
-3
-5
22
-21
-72
-31
85
58
18
4
8
4
-35
6
-14
9
27
-5
-47
-68
-5
-22
39
32
23
2
14
36
4
58
-25
-97
-10
11
-6
13
-38
52
44
-14
-51
-1
-3
-12
24
-47
-72
94
36
-15
-8
-17
-78
31
-26
-96
-23
9
34
53
61
-1
50
72
-16
-9
-33
13
89
-28
-57
-55
-21
-15
-10
-70
-7
-2
75
2
-7
-13
-12
33
-20
24
14
-2
-14
15
13
26
-8
-52
-10
-29
16
7
27
66
-37
10
30
-33
8
3
-22
-91
-53
17
-20
-50
-29
3
-16
1
48
-35
-97
27
-16
-20
-27
-38
-26
14
7
-51
34
-1
33
31
41
-26
-24
106
30
8
-9
-3
-19
-19
49
3
-37
-2
12
17
3
-17
-29
-13
61
22
11
13
6
-33
-62
19
-43
-2
45
67
5
40
79
44
50
2
-60
-62
-30
48
-97
-50
-55
-13
6
-13
44
3
41
-61
-14
-16
-8
-2
-27
13
86
97
43
9
58
97
-7
2
-104
-116
-51
-7
-75
-99
-18
8
32
95
-13
-15
18
42
-3
9
-26
-101
-25
-7
-19
-30
22
25
-79
25
41
14
11
13
-13
-1
-13
18
3
11
28
40
28
-19
-99
-34
-2
13
-23
-40
4
10
73
7
11
-15
10
23
18
3
71
-36
-29
15
-43
-128
-86
3
-1
54
16
-7
26
49
17
-24
-34
-75
0
-20
4
34
23
-7
-19
26
-23
4
-2
27
-90
4
19
61
58
18
-2
-31
15
-7
-34
-22
-21
-6
-10
-55
-1
-4
-8
80
75
23
44
61
-6
32
10
-113
-80
-32
-21
-54
-30
-44
23
87
7
-7
-39
19
45
11
51
-52
14
30
74
101
8
-29
-59
-37
19
-18
-55
-63
-21
0
-50
67
25
9
30
47
-1
-7
69
-42
-34
-12
-23
-37
-25
28
-48
100
8
9
13
10
70
3
66
-40
-25
0
24
19
-10
-25
-43
-5
-9
-3
-28
-36
8
17
36
93
5
-9
-18
-37
-6
-35
16
-110
49
16
24
48
34
11
-39
59
3
8
19
13
-26
-20
8
29
-13
-13
-53
-44
-10
0
-51
17
-41
-16
22
21
-32
-25
-26
18
0
-9
1
15
-38
12
67
-20
27
8
-6
35
73
15
24
7
-9
11
21
-7
16
20
-42
-54
5
-16
-25
5
5
-35
-45
-19
-13
4
13
18
8
-16
28
7
-12
-15
-27
-16
-80
6
8
43
3
8
16
9
-10
7
-22
-35
12
4
21
-10
31
18
75
-43
-8
-11
-26
-27
-11
-11
-21
26
-24
2
16
0
-21
-7
43
-49
2
4
14
-22
12
1
45
69
27
-3
-39
-15
17
11
5
-71
-74
-18
-8
-5
-18
-8
-33
-59
25
19
51
96
54
12
101
49
44
-9
-46
-85
-22
-21
-128
-50
-11
-1
30
32
18
27
38
-16
-22
-6
-39
-47
-14
19
113
69
51
13
36
44
5
-28
-67
-30
-42
-9
-28
-29
16
35
106
-21
0
9
9
11
35
-32
-90
78
-4
-15
-15
-37
-47
-29
-33
-34
-16
-1
-2
-19
-21
7
73
35
31
11
23
70
17
-1
-28
-53
17
12
-1
14
-17
-13
-36
-12
-31
-14
-7
-62
12
13
1
19
32
1
-22
-20
-26
-18
-5
28
-46
-12
31
40
-13
21
17
-24
40
-1
-5
10
33
5
29
-40
-20
-4
15
49
-14
22
-10
2
11
2
-28
-91
41
20
57
-17
-17
12
-9
-28
-45
-27
-80
-8
-10
2
11
22
-19
-21
42
12
9
-3
-3
24
-14
25
77
7
-4
5
27
-26
14
-27
-59
45
30
7
-16
1
-12
-27
3
43
-8
-22
-26
-56
-14
6
16
40
-7
0
1
36
0
-8
-59
-22
-25
-11
20
29
-6
-4
4
-3
42
2
-15
-19
8
10
43
17
-36
0
-1
-16
-23
2
-34
-74
14
14
37
46
38
-1
23
22
-5
-17
-60
-69
-41
-9
-42
-49
-34
-6
-5
3
44
-3
30
-37
11
0
23
30
-49
14
-5
62
1
5
-9
-30
39
-23
-9
-47
-25
-9
-6
70
10
-7
-49
37
19
0
11
-17
2
31
-62
19
-6
7
-3
31
-18
-41
7
-7
11
8
41
5
-17
5
36
19
-2
-9
-23
2
17
-11
-36
-26
-29
-10
-15
-14
39
-9
9
-1
25
11
7
3
6
33
-32
92
-5
-9
-15
-31
-23
-14
39
-54
13
11
23
22
27
-5
-58
86
14
1
20
4
-57
-5
45
-87
7
3
3
-22
28
14
-19
-44
-19
-21
-51
-30
-37
-1
-14
-43
-35
2
6
2
4
53
123
61
35
9
4
-14
19
-55
-96
-57
-37
-12
15
39
-17
6
67
61
47
8
-38
-37
8
-6
-19
23
6
-3
13
14
-10
3
-13
-70
-3
2
-6
37
37
38
8
126
9
11
-20
-67
12
-23
35
-10
-10
-14
13
-29
-27
-2
-3
6
33
20
10
23
27
-27
-20
-19
-5
-1
-6
-2
1
73
80
-46
-49
-9
16
12
2
-27
-37
34
25
-2
-8
52
3
7
60
52
18
0
-29
-56
-27
-55
-98
3
5
-2
44
44
-15
-30
-9
-21
-29
-17
-57
1
-24
35
55
45
2
15
13
-88
16
31
57
-68
-12
-8
4
33
3
-20
-51
9
-14
1
-2
13
-3
-41
-82
7
32
1
4
0
29
0
41
-79
-41
-13
-8
57
18
-3
-51
35
8
-4
-2
24
-1
14
41
6
6
-2
-3
-15
-8
-20
-22
15
16
13
25
40
21
23
-23
-24
8
-6
2
-54
-12
25
71
-24
-16
8
-18
2
22
11
39
-109
-45
-21
-26
-16
-9
-29
-80
63
14
5
6
7
-38
18
72
-7
-9
-11
2
36
-12
-14
-61
21
0
0
17
-30
14
21
-1
-22
-3
2
16
37
-10
0
33
-25
-8
-6
-37
-26
18
-27
-84
-32
-14
4
21
18
-25
34
21
-5
2
-15
-16
-20
8
-25
-3
71
15
9
18
38
-4
4
56
-32
-7
-9
-20
-17
-9
3
-40
30
34
16
10
23
23
2
51
-82
-42
-17
-9
0
-21
-4
-39
-14
-2
-8
-25
-42
30
32
33
21
24
3
17
19
-15
-15
-44
3
-4
15
10
40
65
-23
-14
89
2
-5
-16
-57
-41
33
53
-5
-10
-8
-10
4
15
-13
3
-23
-12
-2
-3
-31
2
12
81
-33
22
-9
-5
20
-11
-21
-78
-1
-31
-7
6
31
35
8
-33
15
11
4
25
55
-15
15
55
42
21
5
-6
-93
-6
15
-18
-94
-12
8
0
7
2
42
21
31
-6
5
48
65
-20
-43
-10
33
24
-12
-38
-63
-2
-9
-16
-123
-31
-3
22
65
-7
15
72
57
35
-2
-27
-46
-16
-13
-107
-21
-27
3
-4
-20
-40
34
72
-10
-28
-5
4
56
6
-12
-55
67
14
-3
5
-36
-6
-18
-34
-13
-16
-10
-1
10
49
-23
-106
-25
-40
-11
7
-25
-31
-10
11
77
44
18
-18
-4
7
9
68
-6
16
5
7
9
23
-27
-106
4
10
-9
11
21
-21
22
117
-45
18
11
-21
-15
48
-33
-128
-16
-25
-13
-4
-48
-33
30
92
-3
-11
3
8
59
20
-3
-36
69
-3
-9
-21
-56
-21
-25
113
-24
7
-2
16
50
9
-13
-69
-28
2
3
-15
-71
-21
-6
33
24
-2
-2
-9
14
21
3
50
30
21
10
85
122
3
15
-45
-57
-42
-13
-90
-123
-27
12
44
61
13
4
19
14
28
4
-12
-67
-1
-5
11
84
26
-7
-74
59
-5
5
-8
-86
-32
-18
20
24
10
-1
4
5
26
41
93
-39
-11
8
67
70
-19
1
-38
57
-13
-2
-84
-83
-18
-12
27
-107
-14
-1
-10
-5
-15
-4
-16
60
51
2
24
30
9
15
102
37
-1
10
-20
0
-6
5
-56
-112
-35
-1
61
3
-8
2
92
94
-7
-10
-49
-7
-4
-14
-34
26
16
2
5
-11
-32
30
-50
-81
-8
1
22
35
13
-6
62
38
4
0
-1
-19
-14
0
-9
7
-12
-1
-32
-75
-36
7
23
-30
25
2
46
124
63
-12
-10
29
-25
-7
-39
-67
-48
-14
-33
-16
2
-2
24
45
-16
-31
0
72
36
-2
-15
4
15
55
96
48
11
10
18
-21
23
-20
-128
-128
-11
-1
-27
-7
12
10
73
109
16
-7
-26
-31
-34
-2
-16
-92
-27
1
32
85
38
-8
39
39
28
7
20
12
7
-13
-59
46
2
-6
-43
-80
-3
3
11
-10
-4
-2
13
42
82
17
19
-81
-19
-2
-3
-19
-24
-6
-16
50
0
-5
25
75
-27
16
104
13
-16
-6
-27
-38
9
1
-29
29
24
8
22
5
-9
-4
-40
-83
-22
-10
-31
-2
4
-29
-52
-22
-14
0
-12
-51
-25
-15
78
13
36
-3
26
48
5
-37
-25
-6
-6
11
13
-22
22
8
79
-27
3
2
12
78
14
-34
-55
56
3
-5
-52
-69
-10
1
-6
8
3
-8
-3
-28
-20
-1
-75
-92
-26
-4
5
26
10
19
49
18
-14
-8
-2
-27
-13
-2
-16
-62
-48
-18
-4
-11
12
14
14
44
45
24
13
50
20
-11
-4
18
15
-8
-6
14
-5
4
3
9
4
2
-6
-48
-14
36
-19
53
-42
-2
-24
14
-5
-15
37
-2
-3
-9
31
59
-17
1
-10
-81
-17
6
-12
-56
-2
-27
-80
80
49
2
-12
27
1
-17
10
1
-23
-8
15
-37
3
23
37
-29
-32
-1
3
-36
-11
-4
36
93
48
17
3
95
7
-5
-105
-66
-17
-6
-3
-103
-9
-11
15
-71
0
-1
2
47
19
1
-6
33
14
0
-7
36
40
11
22
-29
-32
-7
6
-13
-22
8
-26
106
5
11
-6
-50
-7
24
49
-110
-5
-12
-12
50
1
-20
-64
-29
-40
-8
17
-14
9
11
24
37
34
3
4
19
-12
0
-30
-3
-19
-9
8
24
-3
-29
35
9
27
9
-6
-36
-1
0
-33
-32
-12
0
-7
-1
-14
-1
3
33
-2
-7
7
-28
-8
-11
41
-13
5
6
-27
31
-9
-5
-34
29
14
3
23
-40
-33
-1
19
-3
-18
-10
-33
2
4
2
-38
39
-1
-1
-9
-24
-10
11
48
-9
26
11
23
40
17
3
-80
-58
-15
3
1
18
-10
6
31
74
21
-2
-2
-7
-1
-7
-3
-11
-20
-15
-7
-33
-5
11
41
43
12
-7
-12
34
4
-1
-26
-44
-14
4
6
-2
-8
-11
-8
-20
-5
5
15
10
6
2
-4
-13
-12
-9
-18
-16
1
15
-9
24
0
0
16
12
5
-27
32
40
10
4
-14
-19
-9
1
-9
-35
-19
-12
-2
-4
0
0
-2
-2
56
20
4
-7
-1
3
-4
-18
-14
1
7
8
4
11
-14
76
16
-1
-1
-6
-5
3
12
-6
2
1
-5
27
0
-8
-16
-15
-18
-3
-3
-35
-1
-4
8
1
1
-2
7
1
-2
1
-6
7
-5
-3
-10
-1
-4
-4
-1
-32
-8
-2
1
8
0
0
-12
0
0
-5
-9
-11
-8
-1
-2
-18
-16
-1
8
-1
1
6
7
26
27
14
-4
-7
-1
1
-2
3
13
2
6
5
-1
-2
-8
-21
-18
-5
1
6
3
1
0
20
-6
-4
1
-3
0
-4
-14
-30
-2
-5
-9
-1
-3
-5
-4
-2
11
3
8
-1
3
1
-1
1
-18
-7
-5
1
-2
-1
6
8
9
-3
-7
-1
-3
8
-1
-2
5
11
9
1
1
-5
-2
-9
-8
1
4
-7
-1
-2
4
3
-12
-5
-6
-3
-1
1
0
2
-3
-1
4
6
1
2
-9
-6
5
-4
-5
-2
0
0
1
-29
-7
-5
6
-1
2
19
-12
-15
-4
10
0
4
-1
-15
-12
8
-9
-5
0
3
-2
-1
-2
-17
7
-6
-5
-18
-4
3
10
31
-2
10
10
2
1
-2
5
13
20
0
-4
-1
-1
-2
-8
-30
-4
6
4
3
-2
0
0
11
-5
-7
-10
1
-2
4
0
11
6
-9
-6
-5
-4
-2
8
1
3
9
6
5
2
3
3
7
18
9
5
0
1
-3
3
18
-1
1
1
5
2
-6
-6
-22
-11
-2
1
-1
-3
-7
1
10
-7
-8
-7
-2
-3
0
-2
-25
12
1
1
-2
2
-2
-6
-15
-16
-5
-1
-2
-3
0
0
19
14
4
2
1
1
-3
1
-2
-5
-3
-20
-3
0
2
6
2
-11
-2
14
-2
-3
-1
-11
-48
-6
-2
1
3
-1
2
-1
-1
0
1
-4
-2
-2
-10
0
-2
4
-11
-3
-2
0
3
3
7
0
2
4
0
2
1
6
17
3
-2
-2
1
0
-2
0
-17
0
-1
-1
-1
1
1
-4
-2
-11
-1
-2
-2
-3
0
-9
-1
-1
-2
-3
0
-3
4
9
6
-8
-9
-5
-2
0
-4
4
7
13
15
4
2
0
2
2
28
7
0
3
2
-1
0
-3
-29
-7
-5
-5
-4
2
-14
-7
-23
1
1
4
18
0
0
-18
-10
-6
-4
-11
-30
-3
-1
14
16
-2
-1
-4
-1
3
-1
5
23
6
-3
-5
3
1
-1
-14
-18
-3
-1
-6
-18
-4
0
-6
-4
-2
-1
5
13
0
-1
-2
-11
-6
1
3
-2
-3
2
6
8
-9
-2
-5
-5
-3
3
5
7
7
3
1
5
-2
10
-17
9
1
2
-1
1
0
-6
2
-11
6
-2
15
56
8
-8
14
1
-10
-9
-22
-67
-8
5
1
6
-7
-1
8
3
0
-3
2
-19
0
-3
-12
-9
0
1
-11
-12
-11
-1
1
9
0
0
-2
23
14
4
18
28
3
-6
1
14
4
0
-20
-31
-4
-1
2
-18
-3
-4
5
10
-1
-8
1
18
3
1
1
3
-4
-2
-4
-27
-4
3
-6
2
0
4
-3
12
11
5
16
5
0
-1
17
24
-2
-4
2
12
3
3
-13
-10
1
-4
-3
-16
-1
-2
-1
-24
5
-1
1
4
1
-4
1
43
5
3
0
23
1
-2
4
-35
-6
-6
-23
-48
-6
-2
-21
-6
-8
-6
12
7
-2
-5
2
3
3
0
1
2
1
3
3
9
-1
0
2
10
2
-5
4
24
1
-4
0
-22
-4
2
4
18
-5
-6
-40
-40
-3
3
-10
-45
-7
-1
16
31
1
-2
2
-20
-9
1
-10
-5
4
-4
-1
8
-4
0
12
20
-6
1
3
-10
5
1
7
-8
0
-11
-16
36
3
-3
-3
11
-1
-1
14
-29
-1
-3
9
2
2
-2
-14
-3
-5
0
-1
-4
1
2
10
-24
6
0
-2
-8
-1
0
-10
-6
-13
-8
-20
-12
-6
2
-1
-10
-7
-7
4
8
-1
-4
5
17
6
3
-3
7
3
2
-6
4
-2
4
11
6
-1
9
11
0
4
6
3
6
1
-4
-8
4
-5
-2
-4
-6
-3
3
8
2
2
-6
-8
-4
1
-7
-5
5
-4
-4
-12
-21
-3
-1
-3
-16
2
-1
6
-4
-1
0
0
-8
4
2
12
21
-1
3
-11
5
9
2
-14
5
1
-2
16
-7
-6
-1
-6
-13
-1
1
-6
0
-3
-5
-22
-18
-2
-1
5
26
-6
-1
19
7
2
3
0
13
-4
-6
-5
3
-3
1
-13
-39
-7
2
11
1
-1
-4
8
12
0
1
-6
-11
-2
-2
-10
10
11
-1
-1
11
1
-5
3
9
-2
0
9
0
1
-1
2
5
-1
-4
-5
3
0
3
2
25
2
0
2
20
0
-1
1
-18
-8
5
4
-26
-3
-6
-8
-8
4
-2
2
3
0
-3
-14
18
4
-6
0
3
0
-3
-6
-22
-4
8
7
5
0
4
8
15
-2
-4
-12
-6
-2
3
6
-20
-6
-1
3
-5
-1
-1
0
17
8
3
1
1
-4
-8
-9
-11
-19
-16
-2
3
-1
-1
-18
-35
0
-3
-10
-16
1
-6
-7
-6
0
5
11
18
0
1
26
7
2
-3
-5
-4
0
1
-2
14
7
3
2
-7
-1
1
3
-2
-7
-5
-7
2
-3
2
1
20
6
6
5
2
1
0
-8
-5
-2
4
4
20
3
-1
-1
-13
-5
-3
-11
-43
-6
-2
2
17
3
-5
-7
1
-1
-2
-1
22
7
-1
-2
0
0
2
3
-21
-1
3
3
1
-2
3
11
18
7
-1
3
11
1
-4
-9
-19
-4
4
-2
-10
0
-1
4
6
-4
-5
-1
-2
-2
2
2
0
3
2
-2
1
-1
3
7
7
0
5
7
11
1
-3
-21
-11
-2
2
-2
-9
0
-3
0
-7
0
-2
-1
7
3
-5
-14
-17
-6
-8
-2
-6
-6
-2
5
12
3
0
0
-4
0
0
-1
-9
-6
0
-3
3
-3
3
3
8
0
-1
2
0
1
1
7
-6
-3
-5
-5
-8
0
-6
-10
-9
6
3
2
3
-1
-2
1
8
0
-4
-2
0
-1
2
2
-5
3
4
0
-2
-2
-1
-2
16
-6
-2
-2
-5
0
-1
0
-13
-4
-1
6
7
0
-1
3
19
5
-3
-2
-1
0
0
12
20
3
-1
-10
-8
-2
-1
-11
-23
-12
-1
-2
0
0
-4
-7
1
3
2
10
2
-1
-2
-13
-18
-3
1
-4
-5
-2
4
16
44
4
-3
-10
0
4
1
-3
-34
10
4
15
2
-1
-2
-4
-8
-3
-2
0
7
4
-5
-10
-29
-16
-4
-5
-8
-15
1
9
70
24
3
10
13
39
9
1
-6
-6
-5
-5
-11
-27
-3
-6
-11
-9
-6
5
6
-8
1
26
16
10
1
-24
-12
5
-11
-16
-16
-11
1
18
-1
-26
2
8
-4
10
11
26
-21
29
-13
-24
-17
-19
-8
-5
4
20
10
-4
-10
9
7
10
9
8
4
-23
-26
3
-5
-12
10
12
-7
20
88
2
1
22
15
-29
2
41
-41
7
6
-4
25
-59
-1
-16
-28
-19
-1
-9
-11
37
-42
-29
70
-4
-23
-32
-34
-33
-4
-1
-72
-32
-10
-14
-41
-2
23
52
127
32
16
4
19
33
2
-20
-61
3
1
58
62
26
5
-28
-58
-14
8
-20
-27
-8
-5
5
69
21
6
-4
29
-36
-10
-17
-119
-34
-16
8
-41
-53
16
55
107
21
-1
-18
-9
1
1
2
-13
7
-10
-4
56
34
4
67
99
28
24
-1
-37
6
-47
-74
-49
-21
-14
-25
-8
63
-18
-44
-8
-10
-10
18
-29
-61
15
35
-52
-1
-4
49
85
69
7
57
49
34
7
-37
-8
-82
117
80
12
15
29
47
43
75
-22
-30
27
-34
-10
-26
-54
-2
33
-23
34
11
-9
-26
-28
-11
-59
13
-123
-20
-25
3
-13
-16
45
-71
-17
15
18
4
-32
69
25
15
30
-19
-10
-56
83
-25
-83
-36
-115
-51
-16
82
-12
-86
68
-35
81
35
23
-16
24
-17
-24
75
-3
-52
-31
-68
-78
-128
-26
-2
127
92
11
73
127
66
71
53
-33
-23
-6
-97
-38
11
-6
-50
53
12
2
115
62
96
-36
-40
41
-12
-11
-25
2
65
7
-74
-51
-20
0
-18
-80
-128
-32
71
46
15
28
32
38
-11
35
73
-6
-69
2
-9
38
27
-15
-61
21
8
-33
-58
-64
-93
37
97
-14
61
6
71
54
25
-41
24
-79
30
8
-71
-49
82
3
-65
-120
-76
19
-6
56
22
-60
126
127
89
-5
15
38
-113
-40
-120
-42
-44
-36
-121
-20
72
-28
-75
13
26
-7
77
-85
25
4
39
-80
1
-14
13
53
-54
5
-97
-14
-96
1
-19
-65
-55
-8
36
96
73
5
-6
-8
18
30
5
-75
-5
4
-14
4
35
10
-8
72
-1
8
28
63
-26
-2
19
-14
55
43
16
34
70
112
127
77
2
14
6
-94
-27
-10
-93
-56
11
1
-1
-2
-93
-32
-85
-128
-62
-66
-31
-35
6
27
127
69
101
10
61
115
53
7
-112
-36
-49
2
-60
-117
21
8
25
127
42
-13
13
32
-121
36
-13
-82
-87
-15
-34
-42
58
8
26
104
47
10
4
47
11
-26
30
-5
23
17
44
8
4
-37
13
-51
-81
-21
-22
43
6
-20
-28
127
115
-4
-38
-60
-61
-9
-5
-128
-85
-13
16
49
62
22
-13
1
-75
-12
17
18
-89
-28
8
76
44
-3
-12
-9
51
-57
-80
-88
-22
17
-2
-46
43
38
29
67
20
8
14
23
-12
-18
-61
19
47
3
11
15
74
43
52
49
-38
13
-1
7
-38
-34
30
-68
9
-5
-28
-52
-16
-44
-114
-3
-69
-28
-10
-18
-17
-26
11
11
-30
5
14
25
-14
43
73
19
6
2
-20
6
88
-38
-113
13
51
-4
27
27
-24
76
86
48
-5
-1
-19
-59
91
-5
7
-92
-52
-36
-37
-8
-24
25
32
-13
28
33
39
64
-2
9
94
95
21
-4
-21
-22
0
-27
-92
-47
32
12
32
10
-83
-2
48
-29
-37
11
17
-2
-25
-45
-42
-27
-2
-11
-28
17
-17
24
114
89
47
6
8
6
10
4
-47
-81
2
-11
77
55
-27
-41
-4
25
34
15
-75
-62
-33
99
104
-70
-32
-11
0
-5
14
-20
-71
-41
-6
6
28
-7
5
-18
-24
57
-43
-8
-70
-80
-40
5
18
-42
6
3
24
65
30
13
-73
115
49
18
7
-3
43
24
35
49
-4
-11
3
-28
-31
-6
4
-38
-8
-9
-7
33
17
-13
30
-67
-21
4
14
-38
-59
60
63
53
-13
8
11
14
47
-20
-77
32
20
4
-10
1
-6
51
-18
-120
-51
1
-1
16
6
-18
-26
0
20
-14
8
-24
-34
-61
6
28
29
14
-10
-54
-53
24
47
-8
-27
0
10
18
33
-10
-41
-53
30
-14
-16
-12
-31
-46
-40
-30
48
11
-9
30
64
35
66
-31
-75
6
41
41
5
0
-49
7
19
-16
-38
-13
26
21
66
66
17
20
16
1
55
22
44
-12
8
2
33
117
23
-58
-73
-57
11
-4
-32
-74
-50
15
38
85
-8
13
9
59
-13
-40
-29
-22
1
-13
-33
-34
82
0
-84
-18
4
8
38
29
-50
12
-13
-32
-80
-22
-18
-15
-84
7
8
21
-2
-7
-10
-18
8
-30
-42
-20
-12
-7
0
2
-42
-2
13
20
11
3
-3
-34
5
29
43
109
31
0
28
45
62
77
77
-128
-28
6
-13
-4
35
-74
-53
-3
14
1
-2
39
13
-22
33
9
-16
-6
29
-1
-34
3
-28
-12
18
-6
-47
-66
3
-1
81
59
32
-2
-19
-33
13
24
16
-12
5
17
44
41
36
37
42
-1
-38
-4
-51
-35
55
-19
-63
10
18
6
36
38
-37
10
-39
-105
-34
11
14
35
-11
-24
15
98
-30
-38
-70
-98
-18
-13
15
4
3
-7
20
4
-19
-16
8
23
16
-22
-2
-2
-8
-25
25
42
18
12
9
43
10
17
73
8
63
36
73
4
-2
-3
-38
-82
-53
-9
-88
-51
55
-34
-43
-95
-74
-26
2
-12
-31
-56
-78
53
9
-14
-1
24
-53
19
-7
-30
8
-7
-27
-52
-17
17
5
89
23
9
39
41
29
16
8
-8
36
1
-16
-7
67
-10
-8
-16
-53
-12
12
28
-3
38
-10
64
9
14
-13
-25
-7
-53
-77
-13
2
0
5
3
-24
10
29
-36
5
7
9
25
28
-9
52
30
36
5
9
-25
12
-1
-8
35
-7
-6
3
39
-8
7
-1
-52
-42
-17
2
13
54
-5
-76
71
27
22
-34
-61
-91
15
-32
-128
-22
0
45
45
79
2
82
112
41
-6
-68
-71
-22
-23
-23
-91
14
-6
1
23
10
13
106
-7
-23
1
24
33
7
5
-18
76
89
17
8
-5
-6
-3
83
-113
-103
-10
14
27
-20
-1
-63
39
35
17
16
-8
-13
-30
-22
-15
27
4
-19
4
16
-1
-6
34
-15
-7
-6
-5
-7
-26
-62
-43
-20
-1
11
39
26
31
55
58
-1
-1
12
12
43
8
39
77
21
-17
-28
-66
16
0
9
37
-18
-8
0
10
-8
-44
-24
31
-10
2
14
44
-15
55
65
-8
12
24
-10
-32
-12
-19
12
9
17
4
27
40
41
-38
-52
16
-20
-24
-27
-40
-28
-36
-13
-1
55
22
8
-6
8
28
20
-83
-10
8
25
24
-23
1
-16
54
-8
9
24
60
-21
-5
37
-69
-24
-10
-38
-68
-11
15
15
29
10
3
-7
-26
11
-38
-4
35
-8
-32
-15
0
-76
-17
-25
-3
3
-2
35
96
7
36
82
-19
-6
14
-25
-65
25
-47
-103
-39
-50
2
18
32
-23
-48
87
67
31
-6
-3
-48
-13
-5
1
-96
-17
-12
-6
-24
-35
34
92
108
1
5
10
29
36
-4
-28
-82
42
18
-2
-22
-19
2
4
-55
-30
2
8
53
17
-1
-69
6
-20
-11
-8
-38
-12
-37
-39
-52
25
-2
-10
19
12
57
57
-111
-62
-5
-8
-47
-21
12
61
127
83
-16
-16
12
-10
12
23
-120
-19
13
8
-2
33
-35
-50
-83
18
-5
7
26
28
10
-2
28
-7
-6
-5
-2
-21
6
-61
-46
-18
5
-7
13
-30
10
31
66
-21
-10
-9
-14
6
-10
-47
-7
-32
-4
-10
2
-59
-22
11
-76
17
-3
25
27
5
42
2
7
-11
16
2
-39
11
26
18
27
31
6
-14
-16
21
-7
-5
-62
-1
1
54
85
19
12
80
108
38
-3
-47
-56
-23
-16
-101
-71
-63
-26
-29
-24
-28
0
-28
59
-2
8
6
10
-1
30
102
47
23
11
6
11
12
-40
-72
-16
8
-4
29
42
6
31
47
-57
-4
5
-31
-63
35
-17
3
-7
-1
-5
10
34
42
5
25
124
29
4
-26
-25
-46
-1
-66
-61
-33
-6
12
98
-6
-54
22
102
-2
-1
24
-64
30
-6
58
-46
-3
0
3
-12
-36
1
-20
30
-14
-6
-25
-68
-9
52
30
27
16
4
-12
7
44
-24
-54
-36
4
-2
10
36
-26
-12
-36
18
26
4
6
0
-50
16
-40
-30
-16
7
3
2
45
13
-23
11
-9
-7
-10
-20
4
-43
-12
12
-1
-2
13
53
2
4
-5
-40
-7
-6
-21
-61
28
15
63
31
-20
5
17
28
-43
33
6
-40
-20
-13
-8
-16
14
3
6
-51
5
10
-1
27
37
-31
-5
-7
-1
-4
28
35
-48
9
-106
-36
14
0
-31
-66
8
12
74
44
-7
3
-6
8
-23
-5
-9
-35
-9
-11
-19
-91
-34
9
-3
-21
-15
10
39
73
14
-13
-26
-33
-20
-9
-28
17
41
-12
-68
-52
-9
-7
-3
-28
-23
34
41
94
19
-5
19
57
14
-16
79
-71
-40
2
-2
-3
-29
-7
-80
52
31
14
7
-26
2
-27
-11
-56
18
-7
25
21
-14
-6
-27
17
-10
-4
-23
3
-3
4
50
34
-32
-7
-37
-91
-2
37
127
-2
2
1
12
38
-12
-44
-83
-8
2
5
32
44
-1
12
22
-63
7
5
-12
26
86
-7
21
22
-12
-14
-40
23
-29
-25
-64
23
-42
-14
-6
-85
-14
95
47
43
42
4
-9
-23
7
-34
-16
-45
-15
-1
26
48
-27
24
43
66
91
28
20
30
66
-35
-74
-80
-34
-20
5
57
-44
9
101
44
10
-1
-31
-59
9
22
-70
85
17
13
0
-11
10
4
-54
-32
-27
-16
3
24
-25
14
53
-1
-8
-15
-35
-46
-7
-38
46
28
20
13
11
-20
8
16
-13
36
-34
-4
20
9
-27
2
-36
-34
-42
-7
-25
-25
-10
29
81
-46
66
11
19
7
24
-64
-86
-1
-44
-34
-29
-29
-52
18
60
20
16
23
12
-10
-16
36
-28
-7
-19
-6
35
52
61
46
1
-14
-18
8
-4
-30
-47
18
13
12
-13
-12
-25
27
41
4
74
38
51
4
41
48
33
-18
-53
-16
-14
-6
-36
-77
-5
10
-66
11
-31
-11
-26
-44
-1
-14
28
-26
-34
5
23
38
24
-9
3
-84
-20
-8
-19
-18
-33
18
-22
18
50
17
46
58
12
-31
-5
-59
23
-4
-15
9
11
-16
4
78
7
-5
-19
-9
0
34
44
7
9
-3
-16
-18
2
-29
-65
-115
-7
-3
-12
-5
-23
21
39
102
50
25
15
-28
43
-25
-18
-83
-35
-9
9
1
-76
19
63
27
-22
-6
9
-4
-3
15
19
21
56
16
-16
-8
35
1
-53
-17
-33
-3
36
41
2
19
-11
-46
-11
-1
-23
-10
27
-7
17
32
-10
-4
-1
7
-4
-14
49
54
22
1
5
-26
-28
-16
1
-30
-27
1
31
72
18
1
-47
-28
11
11
-23
-15
29
-23
29
25
20
-14
-19
-37
-29
9
-55
-21
-83
-23
-25
-19
-5
9
11
22
2
7
14
25
-4
0
110
37
69
34
26
10
-1
-26
-37
-27
-33
-2
15
13
-20
6
67
-4
10
-9
-28
-9
-7
-32
-4
-4
-26
-19
5
21
1
22
-12
36
-10
-13
-10
-16
-3
13
-7
-1
15
7
28
48
7
-8
-39
-4
-17
1
1
-20
-10
-2
-1
-21
-1
-12
-44
-38
-29
-14
27
48
10
11
17
1
-5
-7
-66
-50
7
5
-7
16
10
16
87
14
1
-13
-1
45
-6
-18
-40
-3
8
6
-9
-50
-20
-8
-48
-27
-11
-11
22
-4
5
2
-36
9
-42
-6
-13
-6
-11
-18
-36
40
41
7
-17
-46
-7
-4
28
-44
-13
3
22
37
-3
-5
4
15
-10
0
-1
7
4
-2
20
17
45
-8
-10
-11
4
-4
-2
-21
-5
8
12
0
3
-15
-31
10
9
-9
-31
14
-1
12
6
-5
-35
-12
15
-2
-3
2
-22
-3
-34
-13
-19
-12
-1
0
15
1
-10
-5
-4
-6
0
-15
1
17
28
6
4
-8
-9
-9
29
11
6
-21
-56
2
2
-1
-11
-25
-10
16
57
-9
1
3
4
5
0
4
19
8
4
-4
38
-5
-11
10
-21
16
-5
11
-26
10
8
-12
8
-13
-7
-1
9
10
-18
29
70
27
13
-12
-22
-6
13
8
28
-17
-3
16
15
-19
0
6
2
7
5
8
9
23
32
4
-23
1
2
-2
1
2
16
-7
-50
-28
-9
-4
-21
-29
-25
-5
11
19
2
-11
-2
-13
14
3
-12
-1
0
1
6
13
11
-8
7
-2
1
-18
2
-14
22
2
-13
-1
0
-1
-9
39
-4
-2
-17
-5
-1
-4
4
-15
-18
-15
0
-4
-5
13
-34
-4
-1
11
20
8
-1
6
6
-22
-24
-18
-35
-11
-4
-14
-4
-5
6
5
1
-5
-7
-5
36
54
6
-2
14
-1
-1
7
-27
-100
-1
17
18
13
8
-26
22
31
-9
-19
-27
-11
-1
-4
-13
-8
9
1
0
-1
0
3
-12
10
2
2
20
12
-1
2
17
0
-6
0
-18
-1
-2
13
1
37
15
3
8
-8
-4
-3
-7
-26
-6
-1
0
5
0
-2
-8
-53
-15
0
4
-2
-2
-15
14
36
-10
-29
-83
-21
-5
-4
-19
-45
5
16
64
14
7
-1
-12
-23
-5
6
32
10
-3
8
-7
34
-10
-8
1
-2
-2
-9
11
28
6
6
26
2
-3
6
0
12
6
-7
-33
-8
0
6
9
37
4
-10
-26
-9
1
0
-6
-47
5
12
18
7
-1
-2
7
14
2
4
6
-2
-1
2
-1
3
4
-2
-22
-5
-1
-10
1
15
-10
-6
-5
-4
-6
-5
-6
-29
3
-8
-15
-12
-3
1
7
57
2
3
17
6
0
4
-12
-26
-11
-4
-15
-5
-3
7
-1
3
6
2
-8
-1
-1
3
-7
0
-19
-6
-5
1
-2
0
-3
15
15
7
14
3
0
2
1
31
6
-7
-10
-3
0
-3
1
-32
-2
2
0
-3
0
1
15
26
1
-5
-4
-1
1
4
0
-27
-10
5
19
5
2
0
-12
-1
-18
0
-17
-6
-6
1
-8
19
8
-5
-6
0
0
1
5
-18
4
-2
2
2
2
-2
1
-5
-6
-3
2
-2
0
-7
-10
-13
10
-6
-11
-6
-2
0
1
1
-20
-4
-2
0
0
1
7
-2
20
8
-9
2
2
-3
-7
-8
-4
4
19
1
-3
-4
6
9
0
-1
-2
-4
2
3
-1
-12
-11
-2
11
-1
1
-5
-3
6
7
-2
-6
-1
-3
2
-7
0
-11
-6
-5
2
-1
0
-3
-11
3
1
-3
-2
-4
-3
1
-9
28
9
-3
-1
1
-5
3
4
1
-8
-3
-3
-1
3
8
7
-3
1
4
-2
-1
1
3
-13
-12
-3
0
-1
2
-2
-3
19
-11
-9
-19
-7
-4
-3
-5
-14
3
0
8
3
0
-1
-2
-16
9
-1
-4
-1
0
0
-5
5
17
4
-2
-1
0
2
-1
-5
4
-2
-23
-3
-1
-2
-2
14
-8
10
32
5
2
1
6
1
-11
3
11
2
-1
0
5
5
4
-1
0
1
2
-1
2
10
4
-2
-5
-1
-2
-2
-6
-27
-13
-5
-19
-6
-3
-4
3
-15
-7
-4
-5
-1
-1
-4
-13
11
4
-2
-4
-2
-2
-5
-7
-17
-23
-11
4
-1
-4
0
8
29
10
-3
-7
-2
-3
18
-14
12
12
4
2
1
2
-3
9
-11
-1
2
-5
-1
2
3
-9
-7
11
5
10
1
0
-5
-5
-49
-9
-3
-1
-1
-2
-3
-9
-40
-13
-4
-2
-3
-1
4
2
29
-4
-5
-6
-2
0
2
-3
-25
-15
1
9
16
1
-2
-3
53
5
-1
5
-2
-2
-7
5
11
7
-4
-20
-40
-5
-2
-5
-29
-11
-3
11
-4
-3
-6
6
-6
0
4
7
2
1
0
2
-2
1
-2
-7
16
1
-3
8
6
-3
1
-5
-12
-5
0
3
16
-6
-1
-10
-4
-3
0
-6
-5
7
-4
1
2
0
-1
-7
-14
-10
-4
-2
-3
0
-2
-1
9
-4
-3
1
12
1
1
0
-13
-1
2
0
-6
-2
2
6
-13
-8
-7
0
10
2
-1
-1
20
1
3
-13
-7
-1
-9
2
-10
0
-2
24
39
5
-9
-12
-37
5
1
-9
-34
-2
18
2
13
2
1
4
-4
-1
-10
-1
10
6
0
0
3
-3
1
0
22
3
-3
-8
-15
-5
-1
-5
10
3
1
-11
21
4
-2
-12
0
3
5
-2
-19
-1
5
5
-8
-13
-3
-7
-11
-2
2
13
6
3
1
19
32
-1
3
-10
2
-4
-6
-18
-18
-1
-6
14
-1
10
5
4
-12
-2
-5
-22
-7
-13
-3
-1
7
-2
-5
7
-6
-1
-1
-4
-3
2
5
8
9
2
1
13
19
0
-1
-6
25
-9
-10
-20
-11
-2
1
1
-25
8
4
21
-3
1
0
-3
7
-2
3
4
42
4
-4
-4
-44
-10
-2
-8
-66
-8
-7
-14
21
2
-3
-7
3
-2
-1
1
1
0
-2
0
13
3
-1
-4
-1
-12
-7
-27
-24
-3
5
9
10
13
1
19
34
3
-3
5
2
9
5
21
22
2
-3
4
-15
-6
-3
-23
-47
-7
-3
-11
-3
1
1
-8
2
2
2
2
14
-7
-2
9
9
-2
8
2
-1
-8
0
6
16
1
1
9
31
9
0
-20
-5
2
-7
-18
-16
-9
-5
-5
-35
-3
-3
5
-7
-1
-2
-4
7
1
0
2
0
1
1
1
-2
0
8
4
17
-6
0
9
19
3
-11
20
-21
6
4
19
36
-2
-3
-11
0
-4
0
4
-18
3
-11
-9
-17
-2
-5
-12
-24
-3
5
-5
-1
-4
0
1
9
0
6
6
4
-8
-5
-13
-21
-3
2
6
-6
3
-1
6
38
0
-4
8
-10
8
11
4
6
-1
-5
-4
22
3
-3
-5
-17
-3
4
-5
6
-1
-7
-5
2
-2
-1
-3
-7
-5
8
12
10
-1
-3
-1
21
7
-4
-7
-11
-4
-1
-3
-28
-5
-5
-5
16
0
3
-4
3
-1
-1
-24
-32
-1
-3
2
6
-2
3
31
11
-1
0
0
-8
-11
-1
-1
-21
-3
-5
-8
-9
1
0
10
23
-1
-1
1
5
4
1
-1
-3
4
-16
0
-6
1
-7
-31
-29
-8
2
8
-17
-6
4
4
13
-7
-1
-1
51
5
-6
-1
-5
-3
-1
-2
-70
-8
6
17
9
1
0
8
4
12
-3
-5
6
-1
-4
-18
-12
-4
-6
-13
-16
-1
2
5
1
-8
-3
-2
3
0
-17
15
20
3
2
4
-6
-4
3
-3
8
-3
5
1
39
1
2
13
1
-3
4
7
-26
1
-6
-10
-36
-12
-6
-8
4
-1
5
-5
29
11
3
13
-12
0
1
4
2
-1
0
-5
-6
1
-2
4
10
10
-7
-18
26
4
0
-1
-6
0
4
27
-6
-1
6
-1
-1
-8
-2
-14
0
-2
0
-7
16
18
6
25
26
0
3
-8
-5
-7
0
-11
-19
0
-1
11
-15
8
-1
1
-4
4
2
-4
-3
-7
-6
-8
4
0
3
2
1
-8
-4
-11
-15
-1
0
-2
11
3
-2
4
14
0
4
-3
-6
-1
-2
-12
2
-1
-4
-2
27
8
4
22
12
-1
1
2
-7
-15
2
-5
-25
0
-4
-11
-9
2
-1
3
-3
-3
-5
-2
-5
2
-2
-10
-7
-2
5
-3
8
8
2
0
19
3
0
-7
-6
-6
-1
-4
-15
-3
5
6
0
1
-1
-1
3
-3
-3
-13
6
-3
0
-4
-8
-2
-6
-4
-25
3
-3
-4
4
0
-2
0
-5
-5
-8
-4
-3
2
-2
3
-3
-4
-4
-3
2
1
2
7
3
0
0
4
-6
-3
2
-3
-18
-9
6
9
-4
-3
-1
-8
25
-3
-11
-14
-5
-5
-4
-9
-4
15
9
7
6
1
1
5
-8
-2
-4
-4
-1
0
3
-1
2
-7
-4
-9
-12
0
0
4
-12
-2
-6
-11
0
-2
1
2
5
-7
5
18
12
-3
-1
-6
-3
-2
2
5
-5
1
-2
3
22
7
0
-6
-7
-3
-2
-2
-32
0
-6
1
2
-2
-2
-7
-3
-13
-9
-8
-3
-1
-3
-1
-14
5
6
0
-4
0
0
-3
-11
-10
-3
3
-1
1
3
-2
11
0
0
-5
3
0
1
1
2
11
-3
1
-1
-1
1
7
3
-14
-1
-1
-2
-3
-1
-4
15
2
-2
-4
-1
0
-3
2
-29
-5
0
0
-1
0
3
-9
-10
-6
-1
1
0
0
0
7
19
7
2
0
1
-1
0
-4
10
3
-1
-2
-2
-3
-2
1
5
-5
-2
-1
-1
-2
-1
2
-8
-2
-6
-3
-1
-2
2
-5
0
-1
0
2
2
1
0
-1
-10
6
5
2
-2
-3
-1
0
4
5
1
-4
-3
2
-5
-4
-10
-8
-7
0
3
-1
-3
-2
2
-2
-3
0
-2
-1
1
17
10
5
0
-1
-3
0
-5
-19
0
-7
5
5
3
-1
-4
-5
-5
-13
-3
-2
-3
-2
3
11
8
13
4
-2
-1
2
1
-5
-2
-7
-4
-1
0
-1
1
6
23
-4
-1
-1
1
-1
-2
6
5
8
-5
-5
-3
1
-2
-5
-3
0
-2
-12
0
-1
-5
-8
-19
-4
0
14
1
-2
-1
-6
-23
-2
3
3
1
0
-2
1
16
-2
-1
-7
1
-2
-2
4
3
-1
0
10
2
-1
-2
0
3
3
-1
-9
-1
0
-2
-1
4
0
-1
0
-2
2
-1
0
-4
0
3
2
0
0
-2
-7
-6
0
-5
-4
-3
-2
6
0
3
-5
-1
-2
0
-1
0
13
-1
6
2
1
0
-1
1
-4
3
4
-1
-2
0
-2
-3
-19
8
2
-3
2
-1
-1
-6
13
-18
-10
-7
-3
-3
-2
0
7
-9
1
0
-1
0
0
1
22
3
0
2
-1
-3
-1
4
16
36
4
3
1
-2
2
4
-44
-6
6
1
-23
-1
2
9
33
40
12
-3
11
17
7
-11
6
-12
-3
-8
-31
-25
-31
-2
17
47
-14
1
36
14
44
-2
-13
-17
7
5
-18
-16
2
11
67
40
25
-1
36
73
-10
-6
-40
-115
-36
16
26
-10
42
-11
-4
97
-8
-13
-37
-20
-81
-9
-44
-80
-16
-30
-3
-33
67
72
72
99
50
32
13
29
-30
-39
113
-26
14
-4
12
26
-32
3
-86
62
-17
8
41
-65
-50
-42
-36
-73
-49
-4
-11
-82
-43
-38
-104
-43
21
-14
-110
-110
-48
-2
106
98
-31
-58
-100
42
-41
51
-47
-128
13
27
87
127
84
-17
61
17
14
8
-87
-54
23
-3
-124
110
-49
9
80
85
-15
8
-49
-60
32
15
-15
-51
74
35
127
88
-4
-33
-48
5
-44
31
-61
-14
-28
22
-23
-3
63
-16
-64
-128
-62
-65
-110
6
85
45
25
125
22
73
100
11
-44
-52
-88
-112
-59
-38
-60
75
25
54
126
116
58
54
46
-37
47
81
40
22
25
1
-16
40
52
-119
-128
-24
33
-39
-37
11
-107
44
118
-48
-22
21
59
-88
-37
-6
-128
18
-10
2
-19
127
-9
-35
109
31
67
-11
-58
-128
-16
-27
127
20
-46
0
75
99
29
-8
-77
-19
-5
-9
-118
-88
-88
22
71
68
6
-3
32
52
-108
-19
43
-68
-75
11
41
0
-24
28
89
113
87
11
3
8
110
2
15
5
18
8
-5
0
5
8
94
-18
-49
-41
-5
0
34
21
-56
73
83
19
18
55
125
13
-46
-110
-5
41
-18
-106
-102
-54
10
13
26
9
26
45
67
3
-38
51
42
-1
-19
-25
-6
-17
14
47
5
5
52
90
-14
20
43
-53
-73
-44
-46
-68
-23
-48
-103
52
37
0
-77
-4
-8
-7
82
54
25
22
65
-30
3
19
5
-128
-80
-5
-18
-62
-78
-3
-108
109
28
-11
-2
48
23
28
70
-109
-16
3
12
42
9
0
-90
-24
13
4
-5
14
1
-70
64
28
17
28
26
-51
33
-20
-65
30
-5
-19
-42
44
-47
1
-31
-56
-15
-10
15
-49
10
-12
-34
-75
-25
-9
44
54
-15
20
-69
-28
-14
-13
-27
-94
-25
37
23
17
6
4
21
56
59
-44
29
113
47
-2
1
-46
-9
-12
-88
-96
-31
5
1
83
-21
44
78
91
0
-28
-23
25
61
-9
17
-64
-45
-6
-45
-50
-56
37
0
72
-17
3
7
87
-6
-33
11
-28
-6
-9
-13
-6
-46
-8
-40
-21
-33
-8
3
51
37
6
-26
12
39
9
26
50
34
-9
41
-76
-22
-9
4
-10
23
12
94
123
27
-7
-25
-48
-13
-27
-53
26
13
21
30
38
-63
3
58
7
7
24
9
-18
39
-38
-71
-75
-20
-21
-46
-41
-33
-27
-16
-62
-16
-20
26
38
29
2
20
49
-28
-11
3
-28
-99
11
44
-82
-4
8
-24
7
14
-20
-2
-73
-24
-4
1
-64
-40
22
-69
-62
-15
-8
-16
-34
-5
-95
-14
28
20
-11
4
25
5
36
25
-27
-1
7
37
25
31
16
109
99
45
4
-15
-1
35
-35
-66
55
10
8
-18
-74
-61
12
-81
-103
-48
-9
-35
-41
-22
30
23
35
-26
-6
11
-20
-5
-6
-93
-62
-25
-2
35
118
56
32
127
99
31
-3
-9
3
-8
-36
-81
-38
1
3
-38
-43
-74
-2
-67
8
-17
-4
32
80
71
11
39
-20
17
-6
-23
-47
-52
35
96
26
-6
15
18
-22
-3
19
95
-53
-11
-13
7
26
3
-3
-29
67
17
1
1
-16
-31
20
-61
-43
-17
-2
28
106
79
-5
74
88
85
25
-34
-92
78
-24
52
-78
-41
-36
86
123
-29
-18
-125
-62
-45
5
-95
-110
-72
-30
66
57
-1
-9
-2
-15
13
38
-11
-22
-30
-9
29
111
1
28
4
65
50
23
-4
-49
1
-14
-63
27
30
9
35
28
52
38
108
-40
-35
0
-2
-44
-63
-24
-112
12
5
-25
-31
5
-23
16
118
24
26
23
24
38
3
-6
-93
-64
-17
-17
2
-35
-17
12
55
-21
62
48
4
-3
108
-13
-80
65
19
-7
45
5
-63
20
-61
-52
-11
-2
-51
-51
19
-49
-23
-32
-29
-36
-42
-34
-31
43
82
93
-12
4
38
37
0
-37
-38
19
33
14
7
15
65
19
-42
-18
23
22
-10
44
63
29
121
-37
-51
-18
-19
-45
-29
-22
-85
70
45
12
102
82
-47
-2
24
-55
-50
-42
-101
-85
-20
-4
-72
-29
9
4
96
66
55
-11
56
32
-37
-9
-85
-49
3
67
101
15
16
11
-26
-57
-31
-37
61
-49
21
25
32
69
-55
14
-73
104
-19
-5
-30
-47
-57
-71
-38
-127
-58
-21
41
108
-35
1
-126
-70
14
-24
-33
-114
5
-33
81
8
-55
-11
26
32
34
5
40
-41
35
35
-9
-19
-28
39
127
92
83
25
127
117
69
-26
-103
70
12
-5
-122
-128
4
37
61
-96
-63
-8
-18
58
-10
-31
-23
43
-12
-41
3
55
-25
54
88
-19
-44
-3
-39
-38
-24
-55
-100
28
35
47
73
104
18
92
109
-45
43
-1
13
-40
-8
6
3
48
13
19
-23
-26
8
-41
-128
-10
46
-9
10
23
49
-24
-75
28
-35
-23
31
42
-48
-32
33
-63
-22
-1
-92
-94
18
34
97
22
-11
-6
39
71
41
-16
32
18
41
9
41
38
-18
28
79
-18
-1
6
41
90
-32
-16
-128
54
0
7
-26
-57
105
12
72
-40
-34
-7
-43
-106
-36
0
-70
-38
-35
-12
-33
-7
-60
-47
-14
39
38
5
-6
39
-72
12
73
-29
-21
-30
13
21
16
-12
-86
-8
8
33
64
115
-7
63
127
-38
-4
31
-2
-113
-25
-30
-84
-19
-34
-44
-29
36
103
-29
-128
-70
-16
-30
38
121
-121
20
114
104
-2
-5
-62
-128
-15
-1
-58
-67
52
8
62
84
36
32
127
-9
6
36
-23
-26
29
-9
-106
127
8
5
22
-65
14
-6
-37
-53
-16
-7
-7
87
42
-14
19
22
17
2
-20
-93
-54
14
37
-68
-21
-16
-47
-54
-6
13
51
-47
-23
14
41
10
15
-31
5
53
30
15
-9
11
-98
-5
14
123
39
-2
1
25
61
12
-14
84
5
-10
-13
-67
76
33
77
-43
-19
4
24
75
-33
-77
-114
-95
-40
-34
11
25
-5
24
62
21
83
40
13
5
27
73
14
-86
-20
7
-28
51
-12
-31
82
127
28
-4
14
-57
5
-3
95
-7
19
10
37
40
-1
-3
-128
66
-36
-12
-19
-46
73
-53
37
-128
-49
-19
-7
-40
-128
5
-25
-15
13
-1
-2
85
8
36
55
-56
-22
-11
-25
6
127
11
-44
58
5
-1
-2
-43
-37
-8
102
67
14
-5
-4
-31
23
-19
-111
-26
-40
-6
34
46
-48
-29
93
70
21
-5
2
6
-28
-52
-110
-27
-71
-40
-28
-35
-44
44
31
88
46
19
-20
13
-1
-34
-96
-83
-22
-6
44
80
28
59
52
58
78
28
-38
-128
101
-15
-42
-69
-43
3
35
108
29
-42
-22
-52
-49
-49
-46
-103
-72
-8
18
-18
3
5
4
64
-68
26
-20
-79
2
0
-8
-44
25
7
-40
-30
-36
7
-19
45
-29
-6
58
117
37
11
42
-23
13
-28
-106
-3
21
7
10
12
28
7
57
1
-25
-14
-33
-62
-46
43
67
72
24
16
89
104
-47
-43
16
36
-13
-26
-76
-10
5
3
-8
-20
33
5
10
0
45
-28
-3
59
19
1
-8
-7
-100
-22
42
-40
-14
0
4
45
43
3
-99
-80
-10
17
32
5
59
17
85
-54
9
-3
-13
-7
-57
-18
25
75
20
9
-11
-67
-8
-4
-70
-107
-82
-29
-46
42
16
-2
8
97
49
17
24
-23
-2
33
16
81
8
29
8
19
65
-2
-18
-128
-19
-20
22
-50
-68
-30
-35
124
60
-10
-79
-33
39
19
2
13
-6
-6
33
40
54
21
-49
-57
-69
4
86
79
12
-30
-41
-73
-14
3
9
105
90
2
127
127
76
15
-28
-93
-83
-28
-128
-108
-92
-33
-55
34
-21
14
84
105
53
-3
-40
-117
6
38
-52
4
-32
7
74
118
20
1
-24
50
12
22
3
1
77
26
95
-31
53
13
21
2
40
-89
-101
-59
-6
-7
22
50
-38
7
74
119
-88
-39
-89
-95
-53
-29
-50
-128
6
-4
-16
-53
-9
40
27
32
11
3
64
96
-45
19
78
75
42
13
-32
-108
-2
0
-3
32
65
40
13
27
4
-18
-50
-78
-40
-55
-28
-12
-27
-17
-52
-1
0
25
102
127
37
19
50
17
-8
-22
-128
-128
53
-6
56
12
-52
-8
78
74
-115
23
-23
2
-15
36
33
95
-26
14
36
4
-19
-9
-91
-79
-21
11
35
59
73
5
49
98
24
-34
-128
-116
-44
-26
-49
-1
20
67
105
25
31
4
23
-13
-22
-26
-48
9
-23
-34
13
9
28
29
-18
32
-72
20
37
55
-29
13
-71
-80
26
-7
-104
-91
-14
20
125
100
83
17
41
55
33
-29
5
42
13
6
34
10
-50
4
-11
51
1
0
-72
-95
-57
11
-54
-63
8
-5
80
120
70
42
100
-5
-62
-9
-79
-121
-26
30
-87
-11
-6
23
4
14
-14
-7
79
12
19
-24
-1
36
30
-8
-43
-47
11
15
47
66
-12
9
22
20
-22
-33
-48
-90
40
2
50
-7
26
30
60
-29
-6
-30
-80
-44
-52
-17
-51
-54
-24
-10
46
126
-3
-11
22
38
-3
-27
-22
-81
25
13
-29
-71
-48
-15
35
-91
-8
-2
11
56
32
58
24
-59
1
24
23
83
15
-48
-72
41
8
-13
-9
-40
10
1
-4
-7
19
8
38
77
1
3
94
82
42
-4
32
40
11
-25
32
69
22
-3
-83
-65
3
57
127
51
-7
13
-15
-99
51
-10
-105
-77
-77
-7
4
93
-17
20
-86
-52
-4
-4
-19
50
-7
1
61
78
29
0
102
124
7
12
-19
3
32
21
-31
-49
41
17
92
-5
14
-9
25
48
-19
-20
-53
51
2
-3
-25
-26
-15
-29
-12
-90
-39
-30
-16
-28
-17
-5
45
-13
-17
-1
4
16
-5
-20
-88
53
72
25
59
96
41
11
77
-70
-19
-7
-101
-90
-46
29
-9
-76
-25
-12
24
51
34
-5
23
27
9
13
0
6
-1
-32
-31
1
7
-14
2
-2
-3
-20
-64
-16
-45
-23
-9
-30
-13
7
0
36
28
19
60
44
4
21
84
35
-11
-3
-54
-74
-23
-1
-21
-31
-33
-9
14
-40
1
-8
-24
-11
3
-6
-28
12
-9
17
34
7
9
9
-19
-50
24
-36
-110
2
10
2
33
60
-21
26
74
-29
-3
11
8
-45
-9
-28
41
87
17
-9
-24
-22
0
-10
-55
-67
-16
-19
-21
14
0
4
-27
53
48
18
20
37
4
6
6
-29
-2
-6
-15
-44
-9
-1
-24
-40
-35
4
36
68
4
0
11
62
14
-1
-68
-83
-22
-6
-5
-28
4
0
41
38
0
-7
-4
46
-14
-3
-17
-37
0
19
4
23
-10
-9
-57
1
5
-20
-6
8
4
0
52
-1
-27
-4
-37
-54
-13
-19
-13
11
4
-17
-44
22
-6
-1
-50
1
5
19
80
72
9
14
65
-4
-4
-17
-35
-21
0
5
-13
-24
-2
1
-40
-20
-21
-20
-1
41
8
9
19
45
17
27
65
27
6
3
8
-22
3
-10
-46
-24
-1
-2
-19
-49
-17
-4
-7
6
-10
7
15
49
-5
1
6
-6
-3
1
3
26
5
-12
-32
-12
2
-15
-20
-26
2
6
12
-13
-2
1
14
-29
-23
2
16
14
1
-3
3
-11
23
-4
-34
-23
-1
-2
4
12
-6
-3
12
-1
2
4
-9
-47
-1
0
-34
22
7
3
6
23
-5
7
48
-2
-5
-4
-8
-18
-14
-5
-18
-16
-6
-10
0
-15
3
-4
-7
8
-1
6
-6
-34
-5
7
23
4
6
-1
-12
3
-1
-7
-46
-16
-10
-1
-1
40
7
6
7
-7
-4
-8
5
-57
-1
0
25
15
4
7
0
-17
-6
1
-1
-9
0
-22
7
0
6
-9
-37
-12
-1
-1
6
-10
-7
2
30
10
3
0
-2
27
-28
-8
-30
-1
-5
-4
-8
-2
20
3
27
-1
2
4
-1
15
-4
-11
-10
0
-3
-2
0
-34
44
27
10
5
2
-6
-4
-7
-17
-11
-12
-5
-1
3
10
7
0
-1
5
-5
-2
4
1
0
-11
3
9
2
-1
4
5
15
-5
-18
-25
-8
-1
2
-6
-22
-10
0
6
1
-1
2
-4
27
9
7
20
7
1
-1
-4
-10
7
4
-4
-1
-2
-2
-3
-14
-14
-7
-18
-1
0
-1
2
5
-1
-3
25
2
-1
-1
-6
12
-2
-2
13
2
0
3
-1
-40
7
6
-17
-6
-3
-2
-2
-6
-13
-3
7
1
-1
0
0
-2
9
0
-3
2
-2
-2
3
34
2
3
1
0
-3
2
7
1
5
5
-4
-4
5
-2
-8
-12
-5
-1
0
-1
0
-2
3
10
11
-2
-3
1
-1
1
-16
-32
-31
-14
-2
-1
-2
4
1
13
20
11
4
2
-4
-1
7
-13
-1
-3
-7
-3
0
0
0
3
1
-4
-5
-2
-2
-6
-1
16
2
13
2
1
-1
1
-1
4
-6
-3
2
1
-1
-5
-1
2
-2
-14
-38
-11
-1
-2
0
9
5
3
38
6
0
-3
-5
-15
-1
0
2
-1
1
1
-3
-12
-8
1
2
-2
-2
1
3
9
-4
1
6
1
-1
-1
6
9
6
-2
-24
-4
0
2
-9
-33
-10
-9
-7
-3
-1
-2
-8
30
4
1
9
1
-2
1
-6
6
6
-3
-5
-5
-3
3
10
1
-5
4
-6
-3
0
-4
7
0
11
4
6
1
2
-2
-4
27
-5
-8
-4
-3
0
3
5
-14
-6
-9
-2
-1
-1
2
-1
12
4
3
-5
-1
1
0
-14
-7
2
0
-4
2
-1
-2
2
-16
-1
-2
6
-2
-2
-3
-1
-7
-12
3
18
4
2
-5
-2
11
6
5
4
15
0
-1
0
13
-1
-5
-20
-6
1
-3
-6
-13
-2
-1
12
-4
-4
-8
1
-5
-4
-5
-26
-47
-7
0
-1
4
-3
-1
0
1
-2
-16
31
-6
-1
-11
1
6
1
5
-9
-10
5
10
-7
21
3
-1
-3
15
-6
6
12
11
-2
0
-5
-14
5
-1
-2
-2
1
-2
-11
-7
-22
-6
-6
-2
-2
0
7
5
7
2
10
-7
-3
2
1
-16
-4
-2
6
8
0
0
-9
15
3
-2
-10
-4
-2
5
2
-16
-8
-3
-3
-12
-4
1
4
2
4
-2
0
25
4
0
-6
9
5
4
-2
-31
1
0
-1
-9
-5
-3
4
1
-4
0
-16
-23
-2
-2
-2
1
0
-2
0
26
-1
-6
-12
2
-2
1
0
-31
-5
-2
0
13
2
-1
6
1
-10
0
9
-4
2
0
-5
13
6
4
2
-8
-3
2
3
2
2
-6
-14
12
2
-1
0
-2
2
-4
9
-6
-2
1
-6
22
-8
0
13
5
-2
3
4
1
8
5
-9
6
5
-3
-3
2
-2
0
-5
-22
-1
-2
-4
-10
0
0
-9
-14
-3
-4
7
-9
-2
-1
-3
-1
-1
1
1
22
4
1
10
11
-1
3
-7
-42
-12
-8
-2
11
2
2
1
43
1
0
4
18
-2
2
7
16
20
-7
0
-14
-1
-5
-8
-22
-13
12
-4
-9
3
2
14
-1
2
2
1
-18
-2
-1
-8
-6
-3
4
13
13
1
-1
4
12
-1
-4
-13
9
-1
5
4
21
8
-2
10
-2
0
0
-1
-7
-12
-7
-15
-17
-4
-4
4
18
14
-1
3
18
-1
0
-2
-19
0
9
-2
6
1
3
-2
-27
-7
-6
-11
-36
-3
-23
18
-2
4
7
10
-4
-1
1
-1
0
-2
-5
-5
19
2
0
3
-16
-5
-7
0
7
0
-1
-12
29
0
6
10
-31
-8
10
5
39
8
3
7
13
0
-5
-1
-26
-1
-5
-18
-35
-4
-8
-3
-4
-8
-3
-16
-4
1
4
2
-4
-4
-7
-3
15
0
3
-12
-20
-10
-4
14
10
-1
2
8
2
5
-7
-33
6
0
1
-3
38
1
7
19
-6
-2
-2
-8
-62
-12
-2
11
18
-2
-5
-5
26
13
1
-1
-4
0
-1
-13
-31
-5
-1
-6
-17
0
1
34
8
-3
-10
-27
-12
-2
0
-4
2
2
-11
-17
1
-1
4
1
-10
6
16
22
11
-1
2
-9
11
2
8
22
6
3
-5
-5
4
1
0
4
-3
-2
-3
0
1
0
1
2
10
2
-2
-14
-53
-23
-22
-17
-9
-5
-3
17
-2
11
3
0
22
3
-5
-30
-27
-11
-4
-15
-50
-6
-2
8
8
8
3
4
6
1
3
-4
19
-3
2
6
-27
-4
-1
-2
-8
-7
-2
12
16
0
4
8
5
3
2
5
23
1
-7
-12
-42
1
-1
-8
6
2
2
-2
38
3
2
-2
11
2
-1
7
-18
-6
-11
-18
-18
-2
1
0
-3
5
11
19
10
4
1
-4
2
-2
-1
-1
-3
0
2
1
-1
-5
-3
0
0
0
0
-1
5
-11
-5
-2
-1
-3
-3
-9
11
3
1
-6
-3
0
4
12
-6
-2
1
7
4
-1
-6
-21
-25
-6
-5
-9
-6
-2
3
0
14
-7
1
7
2
-2
-1
3
12
9
-2
-6
6
-1
0
3
24
8
1
9
-5
0
-2
9
3
-4
0
-11
-3
-1
-4
-11
-9
0
0
-1
-1
0
4
-1
-11
-1
-2
11
18
0
-6
-7
-3
-4
1
-21
-25
-3
2
2
-3
-4
-1
1
2
0
2
-2
15
8
6
4
5
-1
-1
-4
-38
-6
3
11
1
-1
-2
3
22
1
-8
-3
8
0
0
-3
-12
3
-1
-11
-7
-1
-3
-1
4
2
4
3
-3
-2
0
-3
-3
-5
-6
-12
-1
-1
4
-1
2
-3
3
9
6
-2
-5
-6
-3
-4
-3
-6
-6
-2
-1
10
27
3
-1
3
1
0
-2
2
-8
6
1
-5
-5
-1
0
0
-7
3
-2
-2
-1
-1
2
5
7
-3
-5
-6
-3
-1
-1
-5
-13
-10
-6
1
-1
-2
-1
-16
-2
-2
1
-2
-3
-1
-1
1
10
-3
0
-4
2
-2
0
6
20
13
0
2
0
1
0
3
-4
-1
-3
-6
-3
-1
-3
-6
-9
-1
-2
3
-3
0
3
5
15
4
5
7
5
0
-4
-5
-41
-2
-1
0
-3
-3
1
-2
-11
-6
-2
1
-1
-1
-1
-2
7
-4
-6
-10
-3
-1
1
2
28
-1
2
1
0
-2
0
-3
-27
-2
-3
-1
0
-2
-3
-3
-17
6
2
0
-1
0
-2
5
22
3
-4
-13
-4
-2
0
-3
-21
-2
-9
-30
-2
2
0
-2
13
-2
7
37
4
-3
-4
0
10
4
5
2
0
1
-3
-31
-48
-12
-1
0
-2
-1
4
28
59
7
-1
-9
-3
-1
-2
26
-49
-7
-7
-14
-2
0
-8
-54
-11
-5
0
10
-2
2
0
11
50
4
-3
-12
-3
7
-5
-28
-33
6
2
19
21
-10
13
60
42
5
0
-14
-31
-37
4
-30
-10
7
10
24
3
-10
3
77
53
3
-2
-21
3
86
0
-49
22
-5
-11
-12
-7
-33
-8
-28
-76
-3
11
33
56
4
15
41
11
-22
-17
-26
-78
-2
-2
-42
-50
-11
8
15
23
-104
-1
-22
-14
28
24
55
38
117
-6
71
101
-7
-12
-8
-74
-94
34
87
88
1
-2
-44
35
47
2
15
-30
60
-21
-16
73
9
-17
45
40
-49
8
37
-38
-69
-20
-29
116
-36
-12
13
-8
-65
-56
-119
-91
40
10
8
-33
77
-45
111
14
-38
12
60
24
31
-16
71
55
61
-50
-64
-44
-60
6
-88
-50
-61
-24
32
111
61
8
127
127
79
32
43
-103
53
115
51
-94
-66
27
35
47
49
-67
-94
-41
4
-13
-69
-28
-9
-8
8
17
-33
30
-79
-101
-47
-75
-70
-51
-29
-49
20
127
-31
36
46
102
71
-42
-97
-116
83
-16
-55
-128
-33
44
52
62
12
86
104
-84
-40
-24
-53
-78
-20
-45
-124
110
51
54
93
67
-50
0
-40
-55
-26
32
69
63
4
8
-32
-35
-2
-62
-128
-85
-47
-57
73
22
2
-18
-16
47
75
12
-6
-26
2
18
26
-30
26
-3
-68
48
2
-20
-28
-12
-53
-41
14
-46
-22
36
47
69
44
-37
-15
-98
65
12
-23
-65
-31
24
21
46
10
-24
-22
34
38
35
56
28
-22
2
-98
-68
-74
29
-50
49
-21
5
39
-5
-24
13
92
59
16
-10
-33
16
-44
-8
-21
-120
-68
-22
-45
4
-20
-14
66
60
42
13
13
-15
-25
10
127
51
13
-29
10
38
69
40
-68
97
6
42
37
20
44
42
75
15
2
-23
-24
-24
-18
-46
-128
-125
-114
-13
24
-2
-53
13
64
46
71
6
4
-34
-4
-51
61
56
98
31
22
41
82
-19
-41
-92
1
0
-23
13
-72
-1
40
70
21
20
70
-16
13
98
86
30
-17
23
32
92
48
-103
-128
-84
-77
-78
-50
-103
-91
22
117
99
6
-4
-23
-4
32
-29
66
-72
38
-5
65
61
24
-57
-69
34
-43
3
-38
-40
40
127
92
121
37
24
10
32
56
-42
81
-125
-72
-7
-5
10
-79
-70
-83
27
14
-18
-24
-66
-37
4
65
97
56
10
-7
-24
-52
53
-20
-128
-16
-8
21
53
21
-1
-77
-7
-32
3
-22
-21
48
-11
-58
-36
27
7
-93
-24
-47
36
90
68
29
17
114
86
-41
-47
-119
-71
-42
-14
-48
-96
-29
46
80
91
31
18
-36
40
43
-21
-98
-98
-6
11
82
124
10
10
41
51
35
-12
-93
-128
-48
24
-16
4
-15
17
45
80
-52
-55
-40
-51
-5
-8
20
56
-28
14
113
-48
-32
-24
-39
20
-59
-14
-123
72
-9
-30
-23
-80
4
-43
-36
-63
0
-15
17
43
43
56
64
91
15
8
5
-59
-30
17
-24
-17
22
43
24
46
49
4
-38
-110
-15
9
-7
59
111
-27
56
115
39
-7
-5
-101
-60
29
63
-3
-34
-27
-13
2
-23
-6
-31
-8
-15
-35
-5
-21
9
5
-15
-128
-95
3
37
55
-38
15
62
110
95
18
-44
-9
61
-9
-122
-119
-29
-10
-2
-13
1
-23
127
127
36
15
29
12
1
-17
-127
-93
-97
-24
10
-13
-15
13
-12
27
8
-11
-20
14
56
-6
22
-13
22
4
42
-19
-14
2
23
12
-12
-6
-48
-34
66
18
43
56
58
53
50
88
35
-50
-64
-82
-78
-40
-20
-5
-17
26
-40
74
-8
-6
-31
-36
-25
-1
-6
-44
0
1
24
-5
23
8
61
37
42
-10
9
34
-7
41
-18
19
32
56
35
-45
59
13
45
52
44
19
73
93
18
3
44
-7
-46
-28
-103
-106
-33
-19
-51
31
28
-21
-38
-48
19
-8
-88
-27
-4
-2
18
54
-46
27
46
31
-28
-11
-16
14
15
35
69
107
27
4
20
-3
6
-17
-46
-27
-2
21
22
28
-27
-23
25
64
30
22
39
75
109
-52
-120
-63
-17
-17
-37
-34
-50
2
22
50
20
2
2
25
-2
-12
10
-74
-20
-27
-50
-31
-22
58
87
-37
-24
-12
48
20
38
-17
-30
-1
26
7
-52
-21
-12
-14
21
25
39
26
21
3
-53
-13
-3
65
-2
-5
21
-70
-4
17
-38
-56
-16
15
21
58
21
14
98
113
43
1
-19
-69
20
-26
-128
-117
-44
-13
-5
23
-47
9
7
-28
-28
-5
11
-21
13
-1
19
32
23
9
6
23
-23
15
20
-1
14
10
43
-8
14
-56
-128
-67
-30
-9
-15
-7
52
5
7
104
-3
-11
-26
-13
-21
42
79
-114
36
-17
-27
-29
-25
-16
-18
-30
-25
9
41
101
67
-18
83
108
59
1
-12
-12
32
-14
44
4
-14
21
15
-15
-42
12
3
49
27
-7
-22
-22
-13
-18
-67
-92
-32
-1
2
5
-16
-7
-96
-98
-56
-49
-20
26
45
24
102
-4
-33
-2
-21
-66
-52
-24
-55
77
35
24
21
35
-14
4
-14
-108
-22
20
42
45
59
-12
-114
-51
17
-3
-43
-76
-41
-24
-72
-92
-43
-18
35
119
31
-45
75
55
8
-31
-43
-49
-116
33
63
-8
-29
-21
-27
-34
-17
18
8
74
46
42
51
35
-25
24
113
-27
4
23
8
109
91
45
-72
-38
-15
2
27
-72
-19
-26
19
40
-10
0
-49
-29
-12
40
127
65
-16
-32
-12
-17
-44
14
42
39
32
2
-28
14
1
29
59
48
-19
7
22
63
117
-23
-52
-51
-9
-11
-27
-34
-4
37
105
104
21
9
-3
-18
-38
-46
-128
-128
-71
-21
-23
-51
-18
-24
65
102
63
7
20
127
66
37
-111
-91
-21
1
38
32
-31
27
114
98
18
-13
-76
-85
-3
-18
-100
-84
5
4
28
37
21
-38
63
42
13
21
-31
-37
-35
4
-28
33
34
-1
10
-14
7
37
-77
38
-28
6
7
4
48
1
16
49
-3
-6
-11
-6
-7
-5
-49
-35
-44
-6
-8
-22
-24
31
112
10
43
-5
-36
59
-7
-55
-90
-100
-61
-12
34
-62
4
18
29
32
41
6
-24
-18
-35
10
-43
18
-15
-14
57
50
-3
-4
71
77
20
-9
-71
-55
-25
11
-40
-128
-48
-8
25
-5
-11
-24
-87
-75
5
21
26
32
4
10
29
-41
-7
5
-49
-55
-4
14
45
19
-3
-4
37
3
4
10
47
67
39
12
17
80
-7
-4
-93
-80
-68
-23
-37
-85
17
2
24
82
19
-17
3
12
-6
11
72
-23
-6
-3
3
-25
5
23
-22
-72
-1
13
-2
57
97
-12
-3
-5
-1
-22
15
-17
-31
-41
44
-30
-51
-16
-20
4
-15
7
32
90
74
39
41
12
33
7
-66
-88
-49
5
-36
-57
-49
13
127
106
10
5
-23
50
16
3
-14
-40
29
9
3
27
12
-76
-128
-86
-57
-21
8
-19
-55
10
49
124
11
-5
56
111
48
35
127
21
8
3
-37
-38
11
-9
-127
-68
-22
6
-38
-52
13
-20
46
4
4
5
43
70
-58
-20
-100
-41
0
-27
-37
-92
-6
-17
61
52
25
-10
29
24
-41
15
-52
-27
-18
-5
-35
-37
-1
13
27
25
11
19
-3
-26
-18
-8
-1
-80
-27
5
30
22
5
-7
19
-40
26
-7
-14
24
-17
9
93
29
34
0
13
-16
-60
-20
-86
-31
-49
-10
-32
-41
0
-2
-10
68
-20
7
-45
-42
-51
-32
-22
-66
20
-12
14
-36
-12
-45
-32
-63
-44
-14
-7
10
-35
-6
-107
36
27
0
-14
-17
10
8
49
-19
71
17
21
29
18
11
14
56
19
-8
-17
56
54
-5
-62
-99
-31
30
61
88
30
17
101
68
-7
-7
-11
-90
-1
-55
-106
-31
1
-9
-29
5
-41
43
-4
12
23
2
9
12
39
11
86
43
4
-15
13
45
46
6
-48
-107
-48
-8
22
47
30
-17
69
92
4
5
-4
-28
-16
-5
13
68
51
36
-44
-121
-102
92
28
28
-25
5
16
8
87
-91
-41
-17
-13
-21
-7
-5
11
-33
-9
28
64
8
13
43
14
8
-29
-41
-19
4
52
61
16
19
28
86
43
14
-34
-16
-43
37
127
15
-15
3
7
25
41
26
37
-11
-32
-11
17
-54
-43
-40
-97
91
18
-14
-17
23
-17
-24
-68
-76
-5
-7
-39
12
0
6
40
8
-7
0
40
-44
-41
-2
8
-5
2
6
11
72
36
16
21
-43
-14
4
9
-7
26
-37
39
93
5
-7
27
-47
-44
-10
-43
-61
-6
0
-5
109
44
3
121
44
36
4
-33
-120
-72
-18
-93
-39
-12
-13
5
-31
-19
-55
-11
-108
-77
-12
17
44
-2
-9
-28
98
78
23
-42
-29
9
58
89
-63
-14
-4
18
20
27
-23
-32
63
0
-12
26
57
6
-13
-14
-117
-54
-22
-40
-87
3
12
-88
36
-7
3
21
55
-35
-11
-70
47
5
-5
-48
-55
-13
25
77
-65
0
0
8
67
72
39
76
19
-12
-2
26
23
-18
-36
-75
-55
-20
4
-15
9
-11
30
102
68
48
19
44
57
117
2
-54
-50
-38
-10
-13
-54
-24
30
104
127
56
11
-25
-59
-17
10
-78
-128
-87
-26
-22
-10
56
-43
-22
26
16
0
30
27
-74
17
106
67
35
12
-21
-14
3
4
-128
-8
13
-3
16
-12
9
-21
-3
1
5
-9
-41
-49
-28
-11
-22
-105
-66
-8
7
-6
0
-20
-20
77
20
19
5
24
8
4
67
-4
11
12
26
1
-29
-9
-30
15
16
-9
-11
15
10
23
48
54
-18
-3
17
-27
-23
-10
-35
-88
-19
-17
-36
-29
-25
-28
-36
15
21
2
-3
80
7
60
79
51
7
3
22
-21
-9
-42
62
-31
-19
-6
-38
-47
19
50
81
73
35
31
43
33
13
-44
-128
-80
-4
-14
-33
-26
61
64
127
61
-7
16
29
6
-7
-1
-118
-63
23
-10
9
56
25
12
43
-11
-14
2
-14
-42
2
-27
-62
22
23
7
-12
27
16
22
6
50
29
-9
1
-14
-72
-15
-36
-49
-51
-9
12
4
0
-22
-16
-22
-4
-1
24
-13
-26
46
101
-21
-33
-18
-73
-37
61
-57
-31
-21
-7
-7
1
5
-15
31
-15
41
34
18
45
32
13
-6
-19
-61
-24
-4
-18
-4
-31
18
-34
43
-4
-5
6
0
-5
-33
121
54
63
16
-2
29
74
4
-14
-27
-28
-17
-28
59
-45
-18
-52
-22
-13
-4
11
-63
36
2
12
-16
-8
-1
15
11
-37
9
-90
-39
-14
-7
-22
-9
12
-2
-5
-5
13
2
5
24
15
26
32
66
6
12
2
27
27
-5
11
-37
-6
-9
7
-9
-28
-31
-44
16
12
-13
-6
-31
-31
0
30
-45
-13
10
-6
26
19
19
1
36
1
-6
-9
-65
-7
-14
-15
13
-30
-4
13
-1
-16
17
52
-23
46
13
3
1
-11
-3
-22
32
-24
4
2
-7
4
-16
-26
6
8
-15
-34
33
5
8
-23
-27
10
9
30
-13
-14
13
37
2
-8
-6
-5
-16
-3
-10
-23
34
-2
-10
-7
3
1
-3
-17
-29
7
7
-23
2
-5
-1
30
3
24
9
-5
14
0
-8
8
0
-18
8
30
9
-2
20
-5
23
2
-6
-14
-21
5
40
-16
1
-3
-7
14
13
-6
-6
16
-13
-1
-10
-17
-3
-5
1
1
6
8
13
11
5
3
-5
-41
-16
5
0
3
-3
0
14
48
6
1
-6
4
1
4
-1
-28
-15
-3
1
3
6
-5
7
-34
-5
-35
-12
-19
-13
-15
-7
-3
0
-19
3
13
-2
-2
-22
-14
4
35
8
-3
0
-7
-2
2
16
-44
-6
9
-8
-7
22
-2
-32
15
-3
-19
-5
-1
-35
16
-14
-1
-9
-1
-3
1
-4
5
-3
-4
13
12
7
1
3
-7
0
17
2
7
3
0
-11
-7
6
-6
-5
-6
-8
-3
9
-5
-4
-9
1
-3
2
1
-9
12
14
-33
-13
0
-2
-10
-18
-7
-17
29
14
7
4
-1
5
-4
-5
-19
-11
-10
-7
2
-4
0
0
13
1
-9
-6
-2
-6
-1
-3
-12
-5
-2
1
0
-10
-11
-9
0
1
3
0
-7
2
12
15
-1
0
8
-3
1
-4
-17
-13
-5
-3
-1
-3
-3
1
-2
6
-7
-5
-3
2
-1
-6
-3
28
8
-3
-1
-1
-3
7
4
-33
-2
7
3
0
3
-1
14
21
4
-8
-19
-7
1
-4
-24
-5
3
0
3
1
0
-2
0
-28
-1
-12
-46
-9
-3
7
-1
40
0
14
50
10
1
-1
4
10
5
10
37
8
1
16
-7
14
1
-3
-5
-3
1
-42
15
-18
3
3
10
3
-4
-6
-4
-11
-7
-13
-32
-11
-2
0
-5
8
-1
-4
-19
-3
0
0
-5
-18
-1
0
17
0
-1
7
0
20
5
5
3
2
-3
-4
4
2
-3
-9
-16
-6
-3
-13
-19
-5
9
-3
7
-1
-4
-7
30
7
-16
-5
-5
0
-1
10
-6
-26
-6
-3
6
-1
-2
-4
6
3
1
-4
-11
-1
1
22
-8
2
-2
2
2
0
5
7
-29
-22
-21
-8
-5
-2
0
1
-24
3
10
-2
9
0
-1
-22
32
2
20
9
3
2
2
-2
1
-20
18
4
-8
-2
-1
6
37
23
2
-1
-3
0
1
-4
-11
-29
-7
0
11
0
-3
15
-42
4
-20
-12
-4
14
-1
-10
1
1
0
-5
-12
-30
-3
-16
-5
-11
17
12
9
5
1
4
24
25
-1
-5
-9
-6
-3
8
-35
-9
-2
6
16
1
-4
-21
36
-3
0
-4
19
53
6
-7
-13
10
-12
0
-18
-81
-10
11
8
15
10
3
-15
9
-2
-4
-2
-13
3
3
-13
-45
-9
10
-18
7
-2
-1
4
7
-4
-6
3
-17
-6
-3
2
21
0
-6
-9
-14
6
6
11
7
3
-2
10
4
-4
-6
11
43
3
7
-2
-6
-16
-5
-31
-50
-2
-9
-6
7
26
7
5
20
2
4
-4
-9
-13
-1
-5
-14
-2
4
6
7
11
-4
-2
22
-2
3
-15
-13
-5
1
3
-23
-2
3
7
-9
-4
-1
-1
23
3
0
-9
23
3
3
10
-12
-3
21
-1
-12
-5
-5
-3
-10
1
-5
11
7
5
1
-6
11
3
-4
-2
-16
-6
-11
-24
-2
-5
3
-1
9
-1
4
17
7
2
1
0
21
2
3
-3
12
3
9
-3
-13
-6
0
-7
-43
-6
3
-19
-25
-10
-9
2
11
-3
-1
7
8
4
-6
-15
-1
0
-2
34
-12
-7
0
6
5
-1
6
9
62
12
8
20
22
3
-17
-13
-12
-11
-7
-36
-29
0
-11
-1
-17
7
-1
9
15
-3
-10
-12
-8
-7
-3
-10
-26
0
10
11
-2
3
-2
3
26
1
9
3
18
12
5
12
7
0
-4
1
-3
4
6
35
18
-1
-14
-12
-10
-17
-3
-35
-45
-7
-5
-10
-33
-9
-5
5
4
-4
-15
7
19
0
-10
-2
3
-1
1
-5
-8
-8
-3
-7
-1
2
-1
10
11
11
-1
8
9
-2
2
-8
-14
-20
-4
-13
-4
-2
6
-5
7
27
5
6
0
-3
7
-7
16
0
-5
-41
25
0
3
7
-1
12
17
56
-27
3
0
-7
20
-13
-1
1
-9
-3
-14
-17
-56
-21
-13
12
17
2
-4
-2
-13
-9
-8
-17
-32
-4
0
-6
-1
7
-3
-24
16
2
3
-5
-3
14
0
-2
10
0
3
23
27
-1
1
11
11
-1
-7
-13
-4
-2
-3
-6
2
0
-5
10
-4
-6
4
-5
-19
-4
-2
-4
-17
-6
0
12
30
-1
-2
5
19
3
2
-13
-60
-6
0
0
-6
-5
-3
4
-1
1
-2
-4
-11
-6
-12
-5
12
1
0
-3
-5
0
-4
-14
-5
-1
14
0
-6
4
6
23
24
4
5
6
-14
2
3
22
20
1
-8
24
49
-15
8
0
-27
2
-14
-5
-31
6
-5
-21
4
5
-4
-24
-4
-2
3
-3
5
-3
4
13
-2
-5
-10
-5
-17
-1
-2
-17
4
1
2
8
36
1
9
5
-5
-7
-3
-10
-7
0
-10
11
5
5
-3
-23
-14
-1
3
-6
17
2
3
40
34
3
-5
-3
-11
-9
-1
-8
-21
-4
5
3
7
5
13
5
-7
-2
4
-6
-1
-4
-2
-12
17
0
-7
-11
-26
-6
-4
-1
-14
-1
-1
-7
-11
-4
-12
-11
9
0
-3
3
-1
7
-4
-1
-18
-2
3
-1
-3
-3
2
4
11
-1
3
-4
17
2
7
14
19
-3
1
4
-18
-8
-6
-16
-42
-6
-7
0
27
1
-8
-11
11
0
-1
6
-15
-2
2
12
-2
2
-3
-3
10
2
7
-7
-16
0
1
-15
15
14
6
-2
22
0
8
11
-4
0
-5
9
-4
-2
-10
-20
-11
-14
-8
12
0
-4
-4
-2
-9
-3
-6
-13
-6
0
1
-19
-7
-3
3
-12
-23
-2
-6
7
0
8
-5
-1
9
0
-2
18
15
-3
-1
17
10
0
4
-3
-5
0
-1
-16
-17
-3
1
-1
-5
3
3
2
11
0
4
-8
16
-2
2
-5
-5
-4
-2
4
-12
2
-3
1
-3
-1
-1
5
5
1
-2
-7
-7
0
0
3
12
-1
-11
0
20
2
-1
-6
-9
1
3
4
-8
0
7
3
1
5
10
9
35
1
-1
11
1
-13
0
-23
-69
-7
4
6
9
8
-1
5
7
-1
-9
-16
-28
-4
-5
-8
-3
-4
0
6
19
2
-5
12
19
2
-2
-3
-5
1
3
-13
-16
1
1
2
-7
5
5
5
6
1
1
1
15
0
3
3
3
-3
3
-6
-22
-5
-1
-5
6
0
-8
4
15
-7
-12
-6
-34
-7
-3
-4
-11
-3
-10
-3
0
0
-17
12
-13
2
8
3
8
1
10
0
8
3
2
-1
-5
2
-2
3
0
0
4
9
20
1
-6
-12
-14
-6
-2
-7
0
-2
5
-1
0
-4
-4
2
6
0
1
7
11
-5
-6
-4
-21
-4
1
-11
-12
-3
-4
-9
8
1
6
-7
-3
-4
-2
12
4
2
-7
-14
-14
-5
-1
2
1
1
-1
7
3
1
2
-6
-17
-5
3
2
-7
3
-4
-6
9
-1
1
1
14
-11
-1
5
7
0
3
9
-10
4
1
2
-7
0
-6
-15
6
5
-1
-10
-11
0
-2
-7
7
-5
-1
15
33
0
0
1
3
1
-2
-15
-26
-2
2
4
-30
-6
-3
8
-1
2
7
-18
-5
-8
-4
-6
-9
-5
-2
-1
5
2
0
9
10
0
0
-3
4
-4
-1
-3
6
1
-10
1
18
11
4
-3
1
-1
0
-1
-17
-1
-2
-4
-3
-1
1
-3
-11
-9
-2
2
2
-2
-6
-1
-10
-1
-6
-2
2
-4
12
-4
6
1
-4
-4
-9
-3
0
9
-1
-1
5
-4
0
0
-3
-2
4
8
13
6
1
0
-6
9
-7
-2
0
3
3
0
1
-4
24
4
-3
-2
-1
0
-6
-8
-27
-4
-8
-4
-5
-2
2
10
14
-3
-6
-6
-2
-4
-1
0
-2
0
0
1
4
1
1
-1
-5
-1
-4
6
-2
-1
-4
4
14
4
5
-1
-3
1
3
-3
-9
-6
2
1
-1
3
2
0
-9
2
-2
0
5
-5
-4
-12
4
-8
-4
-3
-2
-3
-1
4
2
3
-3
-1
-2
0
-2
-2
-2
2
5
2
1
1
-8
6
3
4
5
2
0
-1
1
0
-1
2
-1
-4
0
-2
2
-2
3
-5
-4
-3
-3
0
-1
-10
10
3
-2
-2
0
-2
-4
7
-48
-13
-2
3
-1
-2
0
1
25
2
-2
-1
-1
0
-3
6
-25
-1
6
-1
0
-2
0
2
15
2
0
1
0
0
2
-8
-4
2
-1
-3
0
0
0
-1
-14
-4
1
-2
-2
0
0
-1
14
-1
-6
0
0
-3
-1
-1
-7
-3
-5
-2
-3
-2
2
-3
4
7
9
2
2
-1
1
1
-4
-4
-3
-2
-2
-1
1
6
12
1
5
-1
-1
1
-1
0
-10
1
-1
-2
-2
-1
-1
-1
0
-8
-7
-3
-1
-2
1
4
6
-1
-2
-3
-2
0
4
9
4
3
1
1
0
1
1
-5
-17
-7
-4
2
2
1
0
-3
15
1
-2
-1
-2
-1
-1
-1
0
5
5
2
0
-2
0
1
-19
-6
-4
-8
-2
0
2
8
-2
6
-1
-2
-5
2
5
-14
22
-1
0
3
0
0
9
11
-8
-3
0
1
3
0
-6
-23
-13
-5
-7
-10
22
33
-1
11
-25
-9
5
30
-25
-23
-1
-8
71
17
-1
2
7
4
20
5
-30
5
7
22
-11
14
-31
-9
-55
-13
-11
-42
25
15
-31
-49
9
13
11
29
38
-2
9
19
67
-1
9
-13
-89
-31
-33
-61
-33
-19
-10
12
60
49
33
114
-1
3
-13
-46
-75
-97
-35
-90
-29
-27
-2
-24
-89
-56
-11
77
-28
6
-3
66
100
-16
28
4
14
36
12
14
-84
20
-1
87
127
23
-11
-67
-61
-85
-53
-79
-81
-53
-71
-61
19
110
42
84
60
16
71
65
92
-69
-40
-62
-67
7
-1
-26
-64
-72
10
-76
82
-12
13
127
-37
64
28
62
-40
-43
48
-106
-90
-120
22
30
89
78
16
-49
-23
127
11
66
-22
14
1
-35
-53
-18
-84
-82
69
-25
-28
6
13
-58
49
52
112
-41
-41
8
127
7
65
-2
-57
-2
43
53
62
95
-23
-52
127
91
41
-28
-51
-71
74
93
-119
-31
-25
-5
50
34
-19
-82
-44
-25
-46
0
34
11
17
46
72
-7
-44
-85
-51
-54
-20
4
-50
-116
-7
-12
-22
-23
54
-128
19
-26
-20
-56
-40
11
36
76
92
101
94
127
127
86
-7
75
6
39
-3
-120
-113
-110
-84
78
-109
-28
-64
-62
9
-35
-30
-128
21
-10
-3
43
112
1
37
127
-7
44
8
22
-31
-23
-59
-68
-95
-106
-45
-59
47
99
89
85
127
107
11
54
66
23
-24
-49
-128
7
50
-17
-44
88
21
-77
38
7
-14
19
-16
62
-29
-23
-85
-42
23
31
31
47
-31
-103
-8
-63
-18
-11
25
-46
41
127
127
-21
-13
-10
30
33
-10
42
-30
50
30
-13
-62
-16
17
-99
-49
-18
-23
46
49
34
-37
-112
-91
-12
16
-71
-78
40
13
99
73
102
30
62
125
24
-26
-92
-76
-24
-39
-49
-20
-59
-67
-117
16
-12
-3
28
53
-33
74
125
-64
-30
15
-1
26
-42
-17
-92
-36
5
1
44
21
6
-1
67
127
14
-8
-62
-91
-40
3
63
-24
-15
-17
20
-65
-80
-14
-128
54
7
-7
38
-10
69
78
49
-98
-16
11
-57
-33
-47
-64
-90
-10
-51
-1
53
9
13
-16
42
-7
28
-21
-92
-72
9
15
35
-3
13
13
80
86
14
-6
125
-31
46
6
-26
-105
-39
-4
-92
-33
1
12
6
39
26
-4
-99
103
15
-4
-7
-35
-106
25
61
-118
-13
-2
5
54
69
-7
68
57
-15
23
19
32
-28
-23
-35
-59
46
-16
43
88
23
-9
45
-40
6
13
-47
-119
-31
66
96
127
21
-8
4
109
60
-31
-89
-14
29
-10
-27
-5
-47
18
67
-58
-63
-23
-53
-85
28
24
-34
27
-9
-3
107
106
-12
4
-32
59
-32
-4
-48
-66
48
19
92
-46
-64
-20
-8
-22
-40
8
127
115
91
26
-10
13
28
18
-25
77
9
0
-6
80
88
19
-2
-95
-78
-4
68
-51
-60
43
64
112
45
24
13
54
44
-34
-104
-45
-40
-6
-9
-30
26
3
67
-56
26
-16
0
-19
-102
-8
29
82
1
-4
-32
57
41
-11
-35
-8
-73
-46
29
-16
-19
36
69
87
6
51
37
28
-5
-58
-84
72
22
-9
-30
37
5
-13
-26
-14
56
30
-22
-61
-31
8
46
-8
3
2
25
18
37
-22
47
25
-8
-30
28
47
-35
-20
15
-128
-38
-2
-46
-62
9
-54
-73
9
-41
-18
2
85
11
-33
-45
30
31
-6
-19
-23
84
33
9
-109
-18
19
-15
-43
-115
6
19
69
7
6
32
10
20
-4
-40
-79
5
-8
-7
-18
-6
6
51
-80
12
28
26
73
-29
15
54
123
34
-21
16
32
111
-22
16
-128
-84
-32
-80
-84
-77
-71
65
111
47
14
88
88
32
-40
-18
40
5
19
-30
-108
-101
-1
0
121
-2
19
5
-5
-91
-43
-84
-114
-32
-25
19
60
77
23
-42
39
-29
-22
-27
-75
-56
-3
-127
-51
18
31
-6
0
-12
17
-24
37
-1
-3
11
-18
87
56
68
109
29
-13
-49
-26
-65
-39
-125
-103
-5
-9
-13
-22
-36
-18
-73
77
-11
-5
45
45
70
-37
-99
-71
-46
-9
-59
-13
-13
45
102
48
-2
4
51
-9
62
25
-17
-61
-10
2
53
110
94
-10
16
5
-1
-31
-114
-104
-47
9
-11
-87
-31
19
56
33
2
16
80
86
42
-25
11
16
-35
23
59
127
37
22
-7
-83
-37
-24
-128
-115
-108
0
3
69
62
7
2
118
36
-46
-18
9
10
27
77
-14
29
40
-17
-38
81
-6
-76
-43
-66
0
-32
-79
-20
30
104
103
103
-28
2
19
18
-41
32
-115
-99
-32
5
43
-128
-13
-128
-47
32
46
77
42
99
52
113
46
5
2
-54
-35
-104
-64
-67
79
28
10
-13
-7
-26
14
34
-50
-6
-16
63
45
67
18
-98
68
5
-1
-76
-92
-38
-3
101
-101
-51
-17
5
46
25
-21
-18
31
-42
-12
5
-19
-54
5
127
100
120
19
-11
77
21
-15
-98
-16
-55
-6
33
-57
-12
12
37
-25
11
-10
-15
4
-24
32
112
-54
-1
29
7
-8
16
-31
-120
-77
29
-6
-10
-8
72
-58
82
-7
-10
21
5
104
-16
69
85
127
51
-6
-1
-74
-23
-52
-73
-93
-73
-48
-23
-60
-49
68
55
39
-7
27
48
59
14
-41
89
-36
16
-28
-86
-73
-11
-22
-84
2
10
-13
47
73
-30
-12
-68
-94
-41
19
33
47
-2
54
55
34
16
22
-20
-55
-50
20
15
55
-10
3
36
102
65
4
22
-88
16
20
-14
-61
49
-46
61
66
18
3
21
52
-75
-43
-68
-48
-17
-32
-60
-118
-64
8
10
10
54
-37
36
91
-10
-44
62
91
-6
2
-35
64
22
13
16
-14
28
19
6
-78
39
-5
-91
-53
-36
26
-16
24
5
60
127
-120
-37
-3
27
28
11
14
15
41
-33
-16
6
79
52
0
-47
90
79
8
-28
6
-49
-4
-32
6
-8
-7
33
67
-43
1
-16
4
-2
-5
-12
-99
-7
-11
28
-25
49
31
108
127
-46
-1
-21
-3
-60
-27
-91
-60
49
43
127
-30
-23
15
-13
-32
31
-24
-128
92
34
1
63
103
-44
12
49
33
3
-10
-32
-62
-1
1
-26
11
11
17
11
69
67
54
67
82
61
8
-18
-50
-1
-53
-40
-39
-72
-10
32
91
-91
32
24
-8
16
-3
-100
-128
-5
-56
-86
-111
-15
5
51
52
23
13
71
69
6
18
33
42
-27
-27
-68
37
15
-8
-12
-13
-46
-80
-128
-50
-43
-36
-30
-72
4
58
71
127
42
26
31
67
-23
-12
-14
-32
-7
5
-37
-75
-18
42
-1
41
31
14
-1
1
35
-29
-40
-52
-25
-16
52
109
-20
28
-9
-33
-38
-27
19
-25
-11
-43
-53
46
14
-5
-100
-88
-19
9
-92
-128
-43
12
57
89
26
-16
-21
127
53
-8
-43
-86
-29
66
88
-81
-29
8
15
39
84
-36
-70
72
-11
-13
15
-10
-26
7
21
74
39
13
-12
-75
13
8
-22
-128
-52
10
55
116
3
29
74
37
0
7
-6
-77
31
-12
-39
37
-17
-18
-18
-12
43
-12
66
9
18
-20
-43
2
7
12
-6
6
94
45
86
98
36
-76
-76
2
-26
-27
-29
-93
-50
32
50
-76
-39
1
-10
4
4
22
80
2
-5
-4
20
-3
19
31
-6
34
-61
-6
-77
-68
0
5
-22
-68
33
6
33
107
3
-31
-44
50
35
11
84
94
-4
-22
38
-64
-12
6
5
76
-17
8
-23
78
42
-13
-68
-103
-27
-42
8
11
-21
-14
-23
42
-16
-1
-7
26
-14
-9
-14
-47
39
42
11
-27
-3
6
25
-37
-40
-8
-50
-49
-3
25
85
57
-17
1
78
113
21
-2
-92
-84
48
-28
-42
-125
4
-22
-9
-19
-70
11
-19
-66
-44
28
17
-29
32
12
32
43
16
-16
-45
2
17
22
7
26
4
-8
11
43
-2
-12
-22
25
-5
14
64
24
20
2
-22
40
30
3
-39
35
12
-42
67
-56
-24
-10
-44
-23
-11
30
16
-69
28
1
74
56
12
-8
47
39
14
-3
-42
19
32
-14
-41
32
-34
7
0
-43
-64
-11
-1
86
-17
-20
11
35
24
20
62
77
7
7
10
7
-22
-21
-3
-90
-18
-15
-41
-79
-34
-2
27
48
32
8
68
93
94
13
-8
-54
2
25
-62
-73
-50
-1
32
-113
-45
-12
46
47
-12
28
81
109
20
-7
-59
-50
-7
-18
-76
25
17
6
17
57
24
-35
-87
-106
-73
-26
-15
-49
-1
18
78
78
11
-17
17
-2
-23
-3
-110
-95
-34
12
29
34
15
-1
127
6
19
-2
-47
-104
-56
24
-76
49
-57
-10
23
89
3
-8
-108
-82
40
4
1
56
36
-37
-16
110
9
-11
9
-19
-9
35
29
-42
-1
16
-34
-78
-26
-18
-31
-96
-27
-13
42
100
18
22
48
55
2
-1
23
74
-15
21
-2
-22
5
-7
-57
-33
14
-10
-112
43
-40
-1
-22
-70
25
-11
105
17
23
9
65
88
13
21
-25
-22
19
12
-33
-23
-36
-23
6
50
2
-6
1
-31
-44
35
-16
-51
-28
-12
-6
8
-2
24
-36
16
-16
-19
-4
58
47
2
86
87
41
5
-13
-75
8
40
14
-128
-32
13
42
43
-34
-3
-32
74
8
-13
-66
-55
21
49
-11
-90
-4
11
104
84
24
-46
-128
2
-29
3
-93
-119
-51
9
88
86
68
-13
12
78
7
-39
34
26
-7
-3
30
-30
15
11
27
-14
22
9
-9
68
36
-14
14
3
-13
20
10
-113
-57
34
-7
8
2
3
31
122
40
-59
-97
-69
-31
-18
10
1
-98
0
65
54
41
15
-8
-77
-14
1
-17
29
2
0
32
51
24
21
75
9
7
-10
-59
-42
17
11
11
-46
13
4
40
53
36
-13
17
100
33
9
-77
-89
-30
6
-71
-98
-69
-22
53
107
39
5
71
12
2
4
-7
-53
0
-7
-35
13
4
2
4
54
17
17
78
5
38
6
-8
-81
-4
-1
-20
-62
-25
7
19
88
20
-22
-67
-71
-34
-17
30
104
-24
-41
115
95
48
12
-6
68
4
3
37
97
38
-9
48
66
17
-18
-68
-91
-26
-10
-47
-48
13
2
10
-11
-12
10
19
-47
12
27
-58
30
23
7
-3
8
28
-38
50
-73
-54
-15
-6
-78
-61
0
-49
-16
-20
1
-18
11
15
-20
-5
47
6
-19
-4
51
-7
36
45
-45
-4
-8
-3
-49
13
20
-28
19
28
16
-14
-21
7
-38
-13
-77
-26
-4
19
29
-14
2
-70
60
-6
-1
49
7
30
52
63
-12
12
-7
-60
14
6
-50
-63
-7
-7
-5
-22
-38
-3
27
55
48
48
-1
28
33
3
-20
-39
-11
-37
-4
-12
8
18
0
20
33
34
12
51
66
14
27
-20
-21
-42
4
-30
-82
-15
12
37
51
66
20
5
14
2
-10
-14
-28
21
13
-8
-8
10
-35
-62
-45
-64
-28
-24
-36
-32
-2
57
26
14
-9
7
35
-1
3
-10
37
5
-10
-5
-23
-12
-14
-55
-52
-19
7
-10
-12
0
-20
-78
1
2
7
14
-13
-17
11
25
14
15
0
17
29
-2
-7
20
65
-3
-7
-26
-26
13
6
19
-59
-10
1
-10
11
-5
2
12
18
-22
-4
5
-7
-10
-9
-48
-38
9
10
0
13
1
5
19
51
51
10
-8
-23
1
-6
11
-12
-18
2
-9
-10
-2
0
5
-5
-2
-5
16
-3
-9
-1
-24
-3
-7
-10
-20
-3
4
-4
10
-20
-25
-8
5
-8
-3
5
-10
10
-7
7
9
12
-4
-5
11
-4
13
-4
-12
-13
1
-3
-14
-28
-15
-5
1
11
-1
-3
-1
11
-13
-4
-9
-11
-2
0
-1
6
24
8
1
0
1
7
11
-28
-11
-4
-2
13
0
-5
-9
13
4
5
-4
-26
-2
-2
3
9
-3
-4
2
-4
-2
6
4
-12
-20
-9
-7
-6
-1
-1
7
6
7
-2
-3
-4
-5
-3
-13
5
0
3
10
19
-1
-7
0
1
-4
3
-3
-11
3
3
2
-1
28
14
9
4
1
1
3
-2
-20
-5
-3
-7
1
-2
-8
-9
6
-8
-2
7
1
-1
-2
-8
-14
-9
-7
-11
-3
0
5
4
2
-1
-3
1
-4
0
2
0
-19
-3
-2
-7
-4
-1
-5
4
17
-5
0
4
1
-2
-2
-5
-8
1
-2
-1
1
2
-5
-9
9
13
5
3
-1
-3
2
-2
-6
-5
-3
-8
-1
0
2
32
-19
-2
-2
3
-3
-1
-2
-25
-1
-10
-5
-4
-3
0
0
-3
-5
0
1
1
0
2
-2
1
0
4
-1
-6
0
-5
-8
-27
2
1
2
7
1
0
-2
-15
-1
-2
1
-1
-2
2
3
45
-12
-11
-2
-5
-5
-3
-3
-41
-2
1
-2
-3
-2
-5
-8
-12
4
-1
-1
2
3
6
1
12
-7
-3
-5
-1
5
-4
-5
-26
-11
-2
0
0
-1
-5
11
35
8
1
3
2
-6
-6
-14
-5
3
-1
-3
-2
-3
-4
-5
-18
-1
0
1
-1
3
-3
-1
12
0
-4
-4
-1
0
3
6
-7
1
-1
-1
-2
-1
3
-8
-3
-10
0
1
3
-2
-5
2
23
-1
-1
-3
0
-3
0
-4
-14
1
-2
-1
-2
-3
-1
-4
-2
16
6
-1
0
1
5
8
-2
5
11
5
3
1
-2
1
32
2
-5
-2
-2
-3
-2
6
8
3
-6
-1
-2
0
0
-7
-20
-12
-1
0
-2
-1
-6
-5
-27
-12
-1
-1
-2
-1
-1
0
15
-3
-4
-3
-1
1
-1
1
-16
0
4
-2
-2
-2
1
0
38
9
2
1
-3
1
6
3
-4
-3
-7
-2
-1
1
4
0
2
6
2
7
30
2
-6
-4
-10
-11
0
-14
-40
-3
-2
3
-6
-2
2
11
6
0
-1
-1
-7
-5
-3
-2
4
-2
-10
-2
-3
1
-3
-8
-25
-8
3
11
12
6
-4
0
17
3
5
-19
4
-5
2
-2
12
-4
-11
1
21
6
-4
11
-24
-4
-4
4
4
0
0
-18
-14
3
-1
-2
-13
3
-1
-5
-5
0
-2
4
3
7
-7
-1
11
0
7
4
-1
-9
7
-1
0
1
2
2
1
-1
2
9
3
-3
-3
-6
0
-5
-2
3
2
-1
0
-1
-5
-5
-1
-3
-6
1
-1
0
6
3
0
2
7
-1
-1
-1
-13
-9
-13
-5
-10
-1
-1
0
2
-4
4
6
32
-1
-4
-7
0
8
4
-1
-27
-1
0
3
-17
12
5
-5
-2
0
-8
-3
-15
-1
0
1
16
2
0
-1
-4
-6
-9
-6
-26
-2
-2
-9
-8
-5
-5
0
7
0
1
5
24
-1
-4
-4
0
0
7
-2
-8
-8
0
3
1
-1
1
2
-6
8
3
6
13
-1
-4
7
11
-10
-10
-13
-18
-6
2
-4
-22
-12
0
5
21
1
-10
-3
8
5
4
-4
-31
-4
-3
-12
-20
-3
0
0
-4
2
1
16
12
7
6
-2
-7
0
4
-1
6
-2
-6
-5
9
-2
3
-1
1
-2
-2
3
7
-2
0
2
10
1
-2
-1
-5
-3
2
-5
-15
-9
-18
-4
25
1
3
-4
8
3
6
19
-9
-2
-7
5
13
6
17
-33
-25
-5
-5
-9
-16
4
3
2
-19
2
-6
-6
-7
-5
-2
-4
-11
-5
-2
3
-2
-4
-11
2
12
1
2
-2
8
-2
-5
7
9
-3
12
1
5
-2
-3
-3
9
-1
-17
21
5
5
6
9
13
5
1
3
-2
6
6
-3
-11
0
4
-9
-13
-2
3
7
2
1
-3
2
18
-5
-10
-12
-13
-3
2
-5
-20
1
-5
1
-6
-2
-3
0
6
-2
-4
-10
-3
-1
1
4
-12
2
0
6
18
2
1
-4
-14
-1
-1
9
10
-1
2
-6
16
2
7
-1
-10
-3
4
3
3
-13
2
-7
0
-1
1
-7
-26
-1
-5
6
1
-1
-3
-2
11
5
3
0
2
0
3
4
5
3
-4
-4
3
0
-8
-9
-7
-7
-8
-11
-21
-3
2
3
11
2
2
6
0
-1
0
1
-1
9
1
1
2
-1
3
-1
-3
0
4
-1
6
0
-5
10
45
-7
3
1
6
-3
-1
-9
-35
-1
-4
-4
-12
-3
-5
-6
-17
-7
-9
-6
2
-1
0
-2
0
-3
-5
-2
-7
0
-4
-3
3
6
-3
0
1
0
0
2
10
3
11
3
3
0
2
0
-14
0
8
4
6
-3
1
-1
41
-4
-7
-3
-6
0
-5
-5
-22
-1
-4
-4
-4
0
-1
0
-5
-1
-7
-1
6
1
-1
1
-6
-2
-1
1
15
0
0
-4
-7
-4
-1
-8
-30
-5
-3
-5
0
1
-2
-3
0
-2
2
6
13
1
3
13
31
4
-1
-4
-23
-5
9
-5
-32
-2
-2
-2
10
4
4
2
8
0
-4
-9
-12
0
-3
-4
2
0
-2
-6
-3
-5
-9
-5
-5
-3
0
3
20
1
-7
1
9
-1
2
-2
-13
-2
-2
-1
2
-2
2
-4
-18
-5
3
2
-7
-3
0
3
22
2
3
5
5
-1
-4
3
23
11
8
2
-1
2
-2
-3
-22
2
2
-2
-7
2
0
4
8
-1
-5
-5
3
0
0
-3
-10
-15
-8
-5
-9
-4
7
2
18
8
6
0
1
-2
-3
-7
-17
-3
1
3
1
-1
5
4
-4
3
-1
1
1
3
3
1
11
-4
2
-3
-5
0
-7
-5
-20
-10
-15
-7
-7
-1
-2
-7
-4
6
2
0
6
0
2
-2
-20
-2
6
9
3
0
-3
-1
-5
1
-2
-4
-9
-1
2
11
-1
-9
-3
1
3
-1
1
-11
-2
1
3
0
1
-1
-5
2
7
4
-2
-5
-4
-1
-4
-5
-10
-4
-6
-4
-4
-1
-4
-3
5
-4
-4
-5
0
-2
1
5
-8
-9
-4
1
3
0
2
-1
-2
11
10
6
-1
0
-6
-3
-2
1
-4
-5
-3
-1
1
-2
-19
-3
-4
-1
1
0
-2
-4
7
-10
-4
-2
-2
-2
1
3
-13
4
-1
1
3
0
0
-1
-3
6
0
0
-2
3
-2
-3
1
-7
0
0
2
-2
2
1
-5
-7
-1
-1
-1
-1
-3
-2
11
1
-1
-3
-2
-3
-1
4
3
6
-1
1
-3
-1
-1
-3
0
-4
-3
-2
0
-1
-2
3
6
0
0
0
0
0
-1
0
-6
-1
1
-3
-3
-1
0
-1
-8
-1
3
2
-2
-2
-1
-7
-1
-2
-6
-3
-1
-2
-2
3
22
-3
-3
-1
-2
-3
0
-2
7
0
-1
-3
1
0
-2
0
-12
1
4
1
-1
0
-1
-1
5
4
-7
-1
-1
0
0
-5
-36
-2
5
-1
-1
-3
0
4
29
0
-3
-1
-1
0
0
9
25
6
-3
-3
-1
0
2
-5
26
6
4
1
4
8
-1
0
0
12
-3
4
6
10
-13
-10
-36
-14
-8
-12
7
-9
10
8
15
-4
5
15
-17
27
2
101
68
8
0
-1
2
-22
14
-64
10
25
5
-22
23
73
17
-8
-60
-8
3
20
27
11
-61
-103
-110
-40
-22
-6
-53
-89
15
-7
10
6
3
48
84
58
2
61
-37
-69
-19
-23
-86
-91
-34
-50
127
48
-11
-90
-72
54
51
-8
-61
37
6
54
93
61
-65
-93
-121
7
10
50
-39
36
55
102
36
36
-23
-76
80
-19
31
-27
93
31
48
127
-41
-39
63
123
-57
-63
7
-61
-67
-39
-57
-70
114
88
45
42
95
63
34
-102
-96
26
-37
-79
-67
70
-29
-18
-111
-128
-20
59
-78
-83
51
86
68
91
51
4
34
70
0
-47
-103
-48
-36
22
83
-29
-74
-38
-46
-24
-66
-57
-63
-43
-2
-76
31
23
-9
67
45
18
-43
-49
-56
-90
52
77
77
-80
65
65
44
-33
-6
-37
-71
-63
12
59
0
94
62
-58
-12
49
7
127
-120
-13
-32
-1
53
29
-20
-78
123
-23
-65
9
81
-8
-25
48
-1
-54
-25
-111
-125
-4
53
67
94
-30
-6
59
25
11
63
92
-56
-19
-28
-77
16
38
10
-71
97
105
49
-8
-14
76
-27
-3
-42
37
31
6
66
79
-17
-49
-57
-38
28
102
5
-69
23
80
117
14
5
-42
-62
-53
-98
-81
-73
8
-47
-26
-28
-78
16
-40
-33
0
-15
-55
-22
-5
3
81
93
24
64
124
94
-93
-6
-99
-10
-57
-14
-60
-48
43
38
127
-55
-18
-26
0
52
83
26
60
104
50
40
13
-16
-76
-32
-128
-128
-73
-22
42
65
1
-51
-116
63
68
-19
-62
-16
67
34
112
63
-6
-12
22
-13
-4
-6
-91
-25
6
28
4
-7
45
-25
115
-16
10
-15
-10
-50
48
-58
-76
-68
-5
18
38
85
-46
28
-40
61
-91
-15
-34
-111
22
65
127
-13
66
-12
12
55
55
-61
-44
-3
-18
10
24
-12
-15
88
28
0
25
18
-32
-63
14
-13
13
48
26
18
10
57
6
-72
-75
-78
-63
-23
11
-42
-63
-16
-9
112
51
-31
-41
-25
9
-19
1
-79
10
8
29
37
27
4
-17
-52
-14
11
-34
-24
-35
25
56
54
21
-4
-1
-53
-48
-10
-86
53
17
23
58
89
14
-33
-18
54
-34
-5
-65
-57
-88
4
-57
-30
0
-32
-26
-43
-75
-33
-35
-74
-8
-13
7
58
125
73
114
-26
-45
-1
-31
-19
-114
14
42
84
60
31
54
41
-31
35
18
-16
-12
-23
-22
-29
43
39
48
-28
-29
-28
-48
-91
-40
-75
-128
-85
-49
7
33
-5
40
13
104
31
39
26
31
96
36
-20
97
11
40
27
45
56
13
-15
-113
-61
-48
-30
-46
-78
-23
44
127
88
46
-26
-35
-54
11
-20
-95
-39
10
12
-20
76
9
-6
69
-76
-73
5
23
-44
-16
16
-9
127
42
-22
43
76
38
-47
-128
-128
-39
-16
-52
-104
-78
41
38
101
-23
39
12
1
54
-30
-80
-48
46
4
4
38
44
-15
1
44
20
30
13
4
-33
10
92
-86
-36
3
7
-26
-3
-16
-64
-15
2
-45
3
15
-63
8
-42
114
45
5
-24
6
12
-26
91
-38
-47
0
-10
-9
-91
-16
2
0
7
-4
16
12
32
-15
70
38
20
-4
20
15
-22
13
-71
-81
-49
-13
16
-10
-62
-8
-42
93
24
1
-19
-62
13
31
54
32
29
28
-6
41
43
-6
65
-66
-24
19
6
-29
-69
3
10
113
94
22
25
7
19
22
56
-69
-10
-31
-21
9
-20
9
-28
46
-31
7
4
97
55
17
-42
-70
-33
-31
-24
-84
34
-46
-66
48
68
21
-7
52
83
19
74
-83
-40
19
33
-4
-45
1
-43
48
26
7
7
28
-48
25
23
-8
-20
-19
-42
-38
28
-82
37
100
-35
-17
7
25
-35
56
-52
-101
-6
-2
44
41
28
-57
-29
14
27
-3
-60
-70
37
-12
11
37
-56
-28
24
12
-74
-15
-53
-78
-59
-15
-47
-56
-40
17
61
55
59
35
2
5
-8
56
-9
11
29
5
40
41
82
-29
-8
33
-18
-13
-44
-10
-69
23
87
-11
43
7
15
25
9
-35
-86
-91
-56
12
10
19
-9
16
33
105
37
-10
-20
-11
29
-4
14
-118
-2
-3
-10
-2
33
48
92
16
-3
1
49
17
40
0
0
70
-7
-2
1
22
7
19
70
-48
-21
8
-30
-18
-25
-19
15
6
51
9
-5
-19
20
1
-28
20
-27
-6
4
19
-76
-34
40
7
8
-3
-6
-47
-6
-24
-17
14
-25
8
60
40
-41
14
-31
54
-7
-23
-19
-10
4
34
-68
-92
35
26
14
50
30
-1
49
30
-25
-28
-30
-69
-9
-50
-52
-69
-31
-29
-43
-27
-28
1
126
73
42
38
-25
-74
-2
1
30
41
-13
-6
5
19
-3
35
-20
54
-7
-3
-4
19
34
2
-84
-96
34
22
51
78
84
-43
-72
-76
-58
-21
15
-2
-60
29
114
110
41
-13
-67
-128
-58
-50
-87
-77
-7
-7
13
25
-33
59
127
67
32
-1
1
3
23
3
-30
-42
40
34
17
29
10
-37
-41
57
9
4
15
30
43
21
68
-9
18
0
4
45
9
15
-7
66
-9
3
12
-45
45
16
-19
66
-23
-20
-5
24
-65
-40
54
-37
-10
-32
-28
-53
-12
16
-73
-91
-41
9
10
15
-50
6
92
21
-15
-8
15
28
-16
26
6
48
24
14
27
46
67
-20
-26
-26
26
52
10
17
47
-36
-49
-33
4
8
25
44
-8
22
83
96
53
-9
-29
-40
-53
-57
-116
58
3
-33
-16
-55
10
4
19
-99
-76
-33
5
17
20
66
9
-32
-31
11
-39
-7
31
-16
-101
0
12
-4
-3
14
-40
58
127
33
19
14
60
59
57
15
78
4
19
12
-21
3
-29
-9
-41
19
-2
-12
-2
-38
7
-43
-81
-6
-28
-9
-53
-64
-24
0
79
-34
-4
-6
23
45
4
17
57
-43
-6
-11
-17
-16
35
7
-4
53
17
16
24
-6
25
-1
2
-12
-4
-2
-31
10
-55
-7
-22
17
20
4
4
46
80
3
-128
-86
-14
20
39
38
7
-16
110
97
58
-16
-62
-37
10
38
7
-86
-38
-1
13
-86
23
1
-3
-28
7
12
42
19
5
17
59
13
-33
-33
-46
53
-12
-41
-98
-5
17
12
12
4
4
-5
-30
30
-31
5
14
13
-74
12
94
58
-14
-12
-25
-104
-94
-18
-111
1
1
-6
-1
-9
11
-38
-2
-9
-32
-7
14
44
-20
-7
80
-40
-13
-35
-10
49
16
12
-14
-13
-8
-2
-22
-38
61
4
-43
42
-6
19
15
-6
-47
35
-10
4
-6
8
11
13
-19
12
67
-18
13
28
-2
10
47
-47
-125
-93
-28
-32
-49
-51
-17
-1
34
27
-10
-13
7
-33
-32
56
79
24
7
-14
-13
48
56
-22
-49
-45
17
19
38
11
22
47
81
50
45
21
7
34
11
-31
-49
-112
-67
-15
25
45
-11
-23
3
69
29
-8
-59
-105
-61
13
60
-12
5
-7
34
58
45
32
69
91
31
22
6
-25
29
8
-13
-4
-11
17
24
12
-6
8
98
38
35
21
51
62
1
-19
-111
-50
-2
-15
-77
-59
-9
-31
-38
-27
-38
-17
9
4
-18
19
78
-21
-20
14
11
-33
9
-33
-65
88
56
6
5
14
34
3
127
-10
1
1
32
14
-14
-19
-128
-40
-11
-8
-19
-1
-50
44
-4
-34
-3
-4
-23
-5
-7
-51
4
-34
5
13
35
-5
12
28
-3
41
-13
2
-23
-4
23
-20
16
-26
-31
-9
13
27
20
2
23
67
42
-7
59
53
4
40
67
42
-11
-15
-106
-117
-13
-47
-128
-24
-8
4
56
80
-3
9
70
-123
-17
2
-31
-16
-6
26
47
88
-4
23
14
-23
-37
4
8
32
-21
-11
71
26
-17
17
50
-44
27
-7
-55
37
72
-49
-92
8
15
7
18
-58
-41
-7
13
36
20
-12
13
24
1
3
-65
-19
-47
-27
-77
-64
-24
0
-42
78
-4
9
-19
-87
-29
24
4
81
8
3
51
119
12
-34
-59
-128
-37
-12
-47
-128
-8
21
0
83
18
3
23
53
27
-30
60
12
19
-6
14
12
-67
-15
68
-63
2
-10
-19
10
10
-6
-2
81
13
-6
-2
-26
-20
-15
-9
-126
-123
-49
-60
0
6
-29
-75
127
1
2
-5
-48
-52
51
81
-53
88
44
100
127
46
-15
-66
-40
12
0
-26
-43
-28
-9
61
17
9
1
-37
-85
-22
3
-42
50
-18
-2
-17
18
13
-30
0
-19
-36
-2
9
-29
-77
-6
-36
92
24
-5
1
62
38
13
10
-95
-34
8
35
44
12
75
125
27
2
-5
56
87
43
-86
-126
-47
28
-3
27
58
-30
17
0
-44
11
-12
-124
-98
-7
-3
-45
35
21
26
61
112
35
12
69
46
-12
-7
-7
-6
-3
32
-17
-102
-19
-3
2
19
4
-79
-22
-98
-17
10
16
39
23
-8
40
75
15
-5
-6
-22
27
17
-59
-100
3
3
0
-60
-12
-30
52
54
-33
-3
-31
9
28
12
-47
110
14
-22
10
29
0
-5
110
-122
25
7
-8
-17
1
-10
-71
-19
18
21
65
108
58
10
54
-10
-47
-24
-120
-121
-93
32
26
-17
-33
-6
4
30
0
-42
-51
-48
33
17
32
48
-15
-16
80
65
6
-21
-22
-61
-71
56
-64
21
-37
2
-14
-77
57
-18
-21
15
37
29
49
57
-15
28
-7
72
-2
9
1
-50
-31
4
-78
-123
-31
-12
19
5
-13
-6
95
67
22
-12
-30
-16
11
-20
-38
21
17
4
20
40
34
18
-15
-64
0
3
16
-10
-9
-8
55
5
-24
-12
-39
-8
11
15
23
97
16
19
23
102
83
1
-21
-119
-17
-5
-39
-91
-34
-9
19
7
27
8
64
24
-50
-12
44
122
4
-7
-22
-12
41
10
-17
-105
-34
1
37
13
-11
6
55
19
-29
-18
-34
47
20
-12
-95
64
13
-4
-13
-49
-20
20
103
12
16
16
14
-27
30
-5
-33
-63
-24
-5
23
25
10
-18
-86
-14
-11
-9
-9
4
-3
63
85
-6
-12
-19
-49
-38
1
-14
-46
-25
-18
-13
1
9
-22
-25
-35
-34
57
33
46
18
27
8
27
32
2
-9
-24
-47
-5
19
21
-25
-24
-21
18
98
54
-4
-95
52
-12
4
-10
-8
-35
-6
10
-102
-43
-32
-43
-10
-36
30
127
127
76
23
60
38
30
-79
-92
-73
-26
7
-20
-24
-28
-17
-35
-32
3
-5
-4
-22
-38
-12
77
27
-9
7
-33
-29
10
29
-8
-18
19
-16
38
82
10
-19
-96
-65
-13
-6
-58
-77
-8
0
-18
14
31
19
46
56
-1
0
-38
92
23
-10
-32
-27
-29
33
25
-45
-40
0
-38
-58
24
-7
118
80
32
-3
60
80
-41
-4
-67
-28
-71
-2
-24
-61
-34
24
25
-40
65
16
-23
-33
25
-27
25
91
19
5
9
9
-1
25
45
-43
-5
-14
5
67
42
2
-8
-23
-3
15
-19
-100
-1
-21
-7
111
-10
-16
5
61
-25
-26
-19
-84
-15
-2
-17
-59
-33
17
-13
-60
11
5
17
50
8
38
-14
-4
4
-4
15
43
26
21
50
80
35
25
13
-22
-10
-69
-101
-43
-32
-21
-32
-76
-7
37
43
23
3
-5
-10
19
2
32
112
21
23
5
17
43
13
-19
-128
-69
-37
-10
15
41
44
25
63
127
37
20
49
55
-34
-14
-25
-79
-53
-3
-52
-92
47
-34
-68
-71
2
-2
23
74
-29
67
110
65
32
-2
-63
-99
60
17
-13
-12
10
-3
19
52
4
-7
18
0
-84
-12
6
-3
-20
-13
-7
1
50
18
3
39
14
5
-22
-9
-6
-9
22
6
3
-12
6
-6
1
-2
-14
-8
-11
-13
-37
-2
8
2
-10
-48
-39
-8
26
13
-19
-12
-2
7
10
-13
3
18
-6
14
20
-10
-16
-5
-22
-57
-12
-22
-29
-3
7
-20
-23
18
20
-13
7
37
-13
-13
38
-1
6
20
23
21
4
-14
-58
-31
-21
-11
-26
-75
-28
17
56
12
-31
10
6
14
4
11
-15
48
35
10
3
13
5
-18
-41
-66
-1
-11
-15
-31
0
6
-5
68
-20
-16
6
32
-6
4
12
-79
-16
-7
0
-4
9
3
4
40
19
19
14
-8
-1
4
-8
19
-6
-5
-30
-23
-1
-12
1
-10
10
-5
14
35
-12
-8
10
-35
-5
-8
-8
-28
3
-2
-21
7
11
2
3
22
-6
-2
6
-7
-5
-7
-13
-22
1
-8
-3
-17
-13
3
13
18
-5
0
-10
6
13
6
-26
2
-2
6
-1
55
12
-7
8
-16
-7
-1
11
-7
3
-9
-5
-5
4
-3
-9
-19
-11
10
9
0
0
-1
-17
-2
-11
11
21
8
-1
3
10
-12
7
4
5
11
5
-8
14
28
-4
-15
-9
-14
-12
-10
-20
-25
1
-5
-9
-2
-4
7
21
43
8
3
-2
2
2
2
-5
-11
-2
2
3
2
-5
3
-5
-28
-18
-9
-6
-11
5
-6
-6
-5
-1
-9
0
21
-5
-3
3
18
22
5
-3
-10
1
6
-3
-2
4
2
1
-4
2
0
1
-11
35
13
1
4
11
4
4
-7
-18
-6
-7
3
0
0
-5
-6
-20
-7
5
-7
-2
-3
-4
11
2
-3
5
6
-4
1
3
4
-3
0
-7
-1
-3
3
-4
-11
-3
-4
2
3
2
-7
-3
3
-37
-13
-4
-7
-5
1
-1
-1
20
5
-1
5
1
-2
0
-7
-4
4
7
-4
-2
-2
3
7
10
4
0
-2
-1
0
-5
-10
1
-3
0
-1
1
2
5
3
-12
-5
-3
0
0
-3
0
0
-14
2
-3
-5
-1
0
-1
-1
-17
-3
0
3
0
-1
1
-5
47
12
-1
-2
0
10
-3
-3
-18
-5
-5
-1
-1
-3
-2
-5
13
-1
0
-2
-1
-1
1
8
-4
-1
-1
5
2
3
0
11
1
1
-1
-5
-3
0
-3
-14
0
6
3
1
2
1
1
22
5
-9
-6
-4
-2
-6
-10
-39
-15
2
5
3
-1
-1
1
9
5
-4
-1
-3
0
-3
5
16
0
-5
-1
-1
-4
-1
-7
-14
-9
6
-2
0
-2
1
3
5
9
2
-1
0
-2
-1
2
0
5
-3
-1
-3
-2
0
-2
24
-10
-2
0
3
-1
-3
3
-9
-22
-8
-5
-3
-3
-5
-6
-17
13
3
6
-4
0
2
-8
-15
-12
-10
-8
-4
1
-12
1
-6
6
6
-4
-2
-1
1
4
3
2
4
8
3
3
1
1
10
-1
-3
-2
1
0
2
-1
-11
-10
-5
1
2
1
1
-3
0
6
2
-3
-2
-3
-2
-10
-10
-16
-5
-3
-4
-2
1
-2
11
15
2
-1
1
-1
-10
5
6
8
1
-3
-4
-2
-1
-2
1
9
2
6
0
1
-3
2
2
0
2
-1
0
-1
-3
-1
-5
-6
-5
-3
-1
-1
5
0
-7
-6
-5
-2
25
0
1
-3
0
-3
2
0
-19
-3
-6
-5
-18
-3
-1
6
4
0
-5
-3
6
-7
-10
-14
-33
-5
-1
-2
-16
-2
7
1
-2
1
-2
0
-8
-9
-7
-2
10
2
3
1
4
19
1
6
15
2
-2
2
10
6
2
-3
5
-1
-1
4
-14
-31
-3
8
3
-1
-2
-6
39
23
-1
-6
-16
-5
-3
-1
-8
-8
-1
-2
-9
0
2
1
6
6
0
2
6
4
1
-3
-14
2
2
-7
-3
-1
2
2
-12
-22
-6
-6
4
-2
-16
3
6
15
1
-10
-14
-6
20
-10
22
3
7
21
28
6
-16
-12
-11
-14
-3
-8
-6
0
-8
0
-7
-8
-3
-11
-51
-6
4
-3
7
6
-2
-7
1
-1
0
1
-7
-5
-4
1
-1
-1
2
1
12
8
-1
3
10
-1
4
-1
3
-4
-4
-2
16
2
7
-3
-9
-7
-16
-7
42
3
-4
5
1
5
13
5
-64
-9
-5
-6
25
8
14
4
6
0
-6
9
-10
8
5
-1
-10
3
0
-3
-7
-6
-7
-4
0
-2
-2
1
-16
-9
-11
-7
23
2
1
3
14
3
-5
-2
-5
-2
2
-3
-2
-4
-4
8
13
0
2
5
11
-1
5
2
11
0
-9
-3
-11
3
2
-5
-19
-3
2
11
20
8
-1
0
-17
0
-1
-13
-42
-5
-1
2
19
2
0
2
9
3
-1
0
-16
-1
-2
-1
-15
-33
-8
-5
12
1
-3
-5
-6
10
-3
-6
12
-4
2
7
30
1
0
17
16
-2
-20
18
25
-1
3
-23
-44
-2
-8
-12
-40
-3
-3
-5
7
6
0
-3
-14
-7
-7
-1
-2
-4
5
-8
-17
-3
-9
2
18
-2
11
-7
3
-11
-1
5
2
-5
4
4
27
-13
3
-3
8
0
-1
9
-15
18
7
-1
-4
2
-4
-21
-12
3
10
21
10
-5
4
8
8
-8
-5
-1
-16
0
-3
-4
-12
6
-11
19
22
2
2
-8
-13
-16
-12
-31
-23
-2
-1
8
3
-3
-3
-18
-29
-6
1
-1
0
8
1
4
28
4
-2
1
11
2
-1
-13
-41
-6
3
-2
-7
0
4
20
24
2
-1
2
8
-1
5
3
14
2
-3
1
15
-4
-6
-25
-51
-9
-2
2
-19
7
-2
-7
17
3
-2
-2
4
-1
-8
8
-13
-3
2
-3
-13
-1
2
-6
8
1
5
-7
-7
4
9
19
16
2
1
0
8
4
4
-5
0
-1
-1
2
-6
-2
3
-1
-9
-3
-1
-1
22
4
-6
-2
0
1
-9
-7
-16
-4
-5
-1
-1
-3
-3
-2
-5
1
-4
8
-4
-3
8
-10
-3
-5
5
4
7
1
-22
21
1
0
3
-5
-4
1
10
-1
-8
4
6
3
-4
0
1
-6
-1
1
-1
20
55
2
-3
3
25
0
-3
-31
-82
-6
5
-5
-11
2
-2
13
32
1
-2
-2
-3
1
-3
-19
-42
-2
-1
-1
2
2
1
3
12
-2
3
-5
1
-1
2
11
23
2
1
12
12
0
-4
-3
-9
-2
-1
-3
-13
-5
-1
7
21
1
3
1
-9
-3
-4
-4
-6
-2
-3
-5
13
4
-6
-3
2
-1
2
-2
-19
-4
1
-9
-9
1
0
-3
10
-8
2
18
20
-1
-2
12
28
26
12
-9
-20
-2
-2
-12
-34
-9
-5
-1
9
0
-7
-2
-10
-2
-5
-8
-7
-2
4
-3
-5
-2
-3
-2
-4
-2
-5
-1
18
-8
-9
-21
-12
-2
-1
2
-8
0
1
17
15
0
7
-4
10
4
-1
-2
-4
-1
-3
-3
-9
-3
13
13
4
1
-6
0
-6
2
6
0
-9
-2
-2
4
12
0
-3
1
16
-4
-1
4
0
-6
-6
-17
-13
-3
-4
-8
-8
-4
-12
-7
5
-2
1
-6
-4
-10
-4
4
0
-2
-3
3
19
14
6
9
0
0
0
0
-5
4
6
2
-4
2
0
-5
-1
4
1
-6
4
-1
-1
-1
-12
-8
-8
-8
-4
-1
0
-2
-5
-8
-8
-6
-2
-3
4
0
1
7
12
14
4
1
-6
-6
6
-1
3
2
2
-1
-1
-5
-8
-5
1
0
-2
2
-1
0
5
-2
-2
-3
-1
-1
0
-2
14
-2
-7
-6
-4
0
-1
2
-12
-3
-7
-1
1
-2
0
-3
-7
2
5
4
0
-3
-1
4
-7
0
2
0
0
0
-1
-9
-6
-7
-1
-2
-3
-2
0
6
15
4
-2
-4
0
0
1
0
3
1
-6
-1
0
0
1
-1
-11
-9
-6
-1
-1
2
1
-2
5
6
5
0
-2
-2
-1
-1
-7
-6
3
-1
-1
1
-2
-1
5
3
3
-9
-4
-2
-1
4
3
1
1
9
0
2
-1
3
16
8
-1
3
-1
-4
2
-4
26
10
-4
2
3
4
2
-8
-36
-13
0
-6
22
38
-2
-7
-8
-9
-3
-30
-23
-59
7
-13
-32
-8
-10
4
6
82
-17
22
82
27
19
15
20
-49
14
-34
-54
-14
-13
1
-49
16
18
69
127
48
-9
-28
106
84
-54
-41
-78
-43
2
77
-18
22
-14
-94
-113
-11
-2
-42
-56
-49
12
100
117
14
-7
13
-24
-6
-48
-36
-128
-27
-16
29
17
-40
-36
-22
-15
-11
-52
-111
-86
-119
31
110
81
64
46
114
116
107
-40
-63
65
-34
-22
-89
-116
-44
-30
-74
-75
4
19
20
2
-20
62
97
102
45
-2
-77
74
79
41
3
-39
-34
16
69
65
-26
-23
12
-54
-21
10
-78
-43
-41
40
32
73
19
47
80
39
74
-98
-119
-105
-37
-33
-67
-112
-65
86
122
22
49
16
49
70
25
103
125
122
120
8
46
127
127
-37
-117
-128
-123
-53
-84
-32
-30
1
98
127
70
-37
70
59
5
37
49
67
44
64
-114
-27
108
48
82
-2
-43
67
118
38
-52
-16
-60
-37
57
26
67
34
64
106
127
120
47
33
-19
10
12
-70
-128
29
-70
-113
-58
-58
-15
-45
-88
-100
-94
-33
-16
-46
31
-2
122
71
2
-31
-30
-27
10
39
3
67
70
55
-30
-23
58
-46
-112
-118
-17
7
53
30
15
9
-8
100
-14
24
-60
-1
-92
28
1
12
-22
-35
33
60
55
-22
59
-128
3
60
-17
-115
-44
-20
-36
-6
-16
6
-39
31
-8
-50
-18
-36
-16
-50
-8
35
-60
7
16
127
49
8
-35
41
-45
72
3
-56
42
21
68
18
95
-64
-78
-31
-98
-67
-65
-111
-128
-20
10
-47
17
-60
25
20
-26
13
88
127
59
40
-24
-22
-8
-12
-106
-109
-64
-12
0
19
23
-52
-26
-83
13
20
2
-15
36
49
12
62
39
-1
-3
10
97
-24
25
107
-13
-12
-68
-71
-99
-83
-75
4
-31
11
3
81
-61
81
127
-107
4
15
60
-8
-64
-1
-55
93
-1
-26
-83
-75
-56
26
-65
-44
-12
8
10
49
84
-5
-56
20
-38
-15
7
-13
-94
-37
-18
-50
-65
-41
-49
48
34
-4
-10
-46
67
61
127
123
65
26
64
60
34
1
-87
-128
66
9
61
43
-40
3
15
-42
-66
42
-32
7
-12
-36
4
39
73
1
75
66
-24
25
-36
-86
-46
-27
-128
-128
45
4
76
87
-41
16
100
-31
-18
-32
-55
-79
-1
-72
-19
104
41
-2
-3
-4
22
-17
-42
-116
-75
11
-3
0
36
-2
9
50
28
36
32
35
37
27
-2
-2
-1
-5
15
76
-30
65
127
126
22
-6
22
-31
-6
-46
-43
-27
-30
-11
-64
-13
-70
-6
16
-25
-5
-25
0
-65
-21
5
-14
-43
-5
-49
-64
78
-7
-13
-20
127
23
60
90
16
14
11
30
-45
18
13
-5
56
78
15
-54
17
-38
50
84
17
-49
-17
12
37
52
-16
2
-55
-29
-20
-39
-108
-52
-53
-90
6
-54
-8
-77
3
50
7
-16
-107
-69
34
83
85
-9
1
13
40
49
-9
-60
-70
-64
4
45
11
51
23
122
88
22
9
-29
-32
-52
-53
-92
-128
-19
-30
7
6
-12
1
127
49
57
0
-32
-28
6
-35
-29
-46
-10
16
28
29
4
54
115
45
44
49
12
-50
-21
-5
2
-62
-62
-39
-24
0
10
8
-128
38
-6
-6
-2
27
-49
-22
57
13
21
-8
8
-52
-24
7
31
-56
-5
8
-19
-8
31
37
-29
93
33
40
58
122
67
26
89
-128
-68
-26
-44
-128
-53
-15
-65
19
-71
-10
-43
20
-22
4
15
98
50
-19
9
-20
-15
-11
36
55
27
1
6
-1
27
-40
-13
-94
-16
-20
0
39
1
19
-60
-8
-28
8
27
58
62
36
18
-51
7
11
-5
-82
-53
-18
-29
-2
19
-4
1
30
26
23
49
74
-16
-7
-27
-71
-25
-13
59
-26
-5
51
37
34
-52
-24
-128
29
41
13
33
94
90
-27
-38
37
-14
-6
-26
-87
-77
-3
36
-80
-46
-48
-31
-42
-14
1
-86
7
74
-30
8
-5
115
-25
93
25
-34
21
-1
42
-35
19
13
-77
-7
6
27
-21
4
-43
7
20
-21
-35
-20
7
6
-1
16
14
-2
-18
-61
-56
-37
4
7
58
43
11
57
70
48
52
103
10
-28
-17
-17
-34
-49
-71
-124
-109
-3
-6
23
23
-41
9
84
-45
-56
-8
-34
-18
42
16
75
80
47
37
16
-18
-54
-91
-68
85
1
-21
-36
-28
-4
43
50
-48
-5
27
45
40
7
-13
3
61
13
-35
-1
30
-49
25
-101
-31
-29
12
-4
-34
-16
42
127
46
31
22
-15
12
61
-17
-40
51
-16
-18
13
-8
-43
2
22
127
-7
11
5
25
-13
-37
-103
-128
-59
-25
-14
-18
25
-17
-47
-7
38
26
11
83
10
18
-33
115
74
47
34
-13
83
-11
-29
-118
-33
4
-13
3
-58
34
7
88
9
-31
31
27
0
1
56
-98
-72
-20
-51
-69
3
-41
83
-88
-17
-15
-30
25
19
19
-41
96
44
29
19
-64
-8
-5
68
-9
-29
-22
-21
11
-25
57
24
-40
13
10
29
65
2
48
85
45
-24
-1
-21
-56
-45
-30
-45
-42
2
7
20
43
50
-12
81
-58
11
12
-22
-18
-80
-5
-53
96
43
-15
27
-43
-36
6
12
-123
-33
-7
-20
39
8
72
76
116
18
21
13
59
60
-64
-128
-77
-58
-44
-44
-67
55
-11
-10
-63
14
9
25
12
-31
12
52
89
51
28
29
21
41
8
2
7
3
-13
-26
35
-8
12
-3
-13
-47
50
18
-65
-29
-26
-12
98
44
-9
-9
-6
9
-15
-128
-89
-51
-25
-21
-16
-40
18
30
38
42
-9
37
63
81
-21
-29
-65
-18
-17
-36
17
-19
28
1
-65
-24
17
12
-11
-20
-12
-13
98
28
-3
-3
13
28
-31
-19
-64
-7
20
8
1
32
-24
-67
12
21
-31
-5
24
44
45
127
71
37
24
32
19
12
-42
-77
-108
-31
-31
-40
1
-35
14
50
51
14
-10
11
-51
-35
17
127
-13
11
16
-20
12
49
17
7
29
-7
20
47
-29
-42
-29
-67
11
25
6
-27
12
-6
-58
-12
8
-18
-3
12
-15
-78
-10
-6
12
-25
-29
8
0
55
16
-35
-30
9
-17
-47
61
-51
-7
105
-37
-15
29
21
-99
-52
-20
-79
-79
-34
-12
-13
34
9
15
10
8
32
15
9
1
10
-12
-6
46
-31
-27
8
46
18
41
46
101
25
-7
-11
-13
34
6
73
66
34
25
-5
11
-72
5
-44
-63
-7
-6
70
60
-28
-58
-83
62
-10
2
-49
-82
-17
25
87
25
24
-3
-19
30
-3
9
-87
-46
-40
-8
15
7
46
24
-12
-7
-20
-17
10
23
-14
0
78
11
50
30
14
-4
38
-16
45
14
2
4
-22
-35
-30
17
-54
87
7
-13
-5
-50
-7
-12
-37
-58
-9
0
-12
-2
2
0
-46
-128
-21
-14
28
60
9
-8
-44
35
-1
-4
-30
12
5
30
127
1
36
37
36
-26
-20
-19
10
-4
-9
-13
17
21
-32
3
-26
45
-6
-10
-49
-59
-6
-12
-40
-42
17
0
35
53
-6
-29
-102
-51
-47
-38
-27
-27
-27
15
6
127
25
9
-10
63
2
13
65
-13
44
47
28
-23
-5
-14
-63
-116
-66
-9
16
-15
33
-3
30
36
11
-17
-42
-82
-9
-28
-8
33
26
-9
-32
-15
-22
26
18
15
-36
-32
-9
22
35
-6
-20
30
2
20
24
57
-20
39
39
-68
9
26
98
39
31
1
45
93
16
4
-70
-4
22
14
26
-24
-87
-12
-12
-73
-19
-6
-93
-53
15
-4
-2
4
-8
-8
-78
-46
-22
-29
-15
11
5
-2
24
-67
10
-6
-17
-11
-6
-10
-8
24
49
9
32
11
31
17
93
39
-4
0
2
-36
-67
14
-2
34
23
26
18
-1
4
-5
-36
-46
-41
21
-29
-46
-26
-16
-48
59
-30
-29
0
30
-13
32
103
-52
12
-5
2
-1
32
-56
2
-34
1
-14
-33
45
24
-10
39
66
11
-16
-29
-115
-41
-2
-19
-32
-25
8
45
93
25
28
87
90
38
33
-3
-44
14
15
27
58
42
14
11
63
40
-36
-97
-81
-67
-28
-34
-14
-35
-15
-65
-12
-7
-22
-30
-24
-26
16
-46
-51
0
3
42
42
4
0
17
54
1
15
-13
-28
1
4
50
-45
23
7
6
13
84
12
-10
-51
1
-3
25
26
-2
-2
21
57
-33
-8
-15
-1
-3
6
44
49
17
15
-13
2
9
50
-18
23
17
7
19
-69
16
-27
26
-55
-4
-14
-32
5
-32
0
16
16
-17
-12
6
-20
21
-26
-73
-50
-12
7
6
11
-14
35
1
70
12
13
7
9
0
-8
-39
-76
13
13
18
25
-16
-34
-47
77
23
-14
-39
-51
-38
33
114
13
11
-3
42
64
23
-22
-116
-54
-14
-16
-12
-19
10
9
41
4
10
4
28
44
47
-16
-80
17
-17
12
-12
3
-18
34
44
-17
-7
-3
6
33
9
-26
5
76
29
-15
-36
-21
-12
31
63
-3
-30
16
69
6
29
-20
-88
-12
-11
-3
-29
-15
-26
-26
46
-63
32
27
18
20
-8
11
106
62
-1
-16
-20
-41
-47
-47
-82
-36
-1
-16
-23
3
-5
30
59
-49
-2
-5
13
2
27
-32
-98
-28
-39
-28
-23
-16
-38
-9
-37
18
-7
-2
25
56
15
16
32
-14
27
20
-11
-18
11
-1
9
-16
-18
34
40
39
-18
-24
15
20
16
-4
-55
-57
-13
-11
-33
-37
24
14
6
-4
60
16
2
-54
-33
-35
6
-10
2
22
45
110
41
-6
-35
-38
-17
11
37
10
-31
-15
28
30
26
-41
-89
4
-39
-4
1
8
-4
7
57
-19
10
21
-8
-5
-43
-6
-80
-42
17
0
16
-5
42
27
109
65
4
-21
3
34
-32
-11
-36
-113
-19
-13
-16
-38
4
9
22
127
-22
1
6
21
15
-19
38
38
13
8
-30
-56
-17
27
13
-14
-6
0
-13
-3
17
22
22
35
56
18
40
69
10
-32
64
40
-14
-12
-36
-70
-14
-16
-84
-122
-5
-38
-38
-7
25
-15
-16
-1
-13
-2
5
-32
-15
14
-23
22
22
23
25
21
0
-22
71
31
23
4
4
30
-48
26
-65
-27
-56
7
12
46
43
-17
32
-10
23
-4
-13
-80
-11
-11
-26
-20
-35
5
18
72
-9
0
-64
4
4
-20
-24
-50
-7
18
109
23
16
7
37
45
24
-29
-128
-93
-33
-9
21
36
-2
14
79
98
-3
2
-57
-70
-56
-21
-68
-14
57
19
-18
10
-8
-35
-21
-70
-6
-9
-3
41
8
6
-43
-52
-20
6
-7
-70
-28
23
62
94
27
4
30
38
1
-53
-15
-50
-19
-10
-32
-46
-28
27
39
32
8
1
0
30
23
-17
-46
51
-7
-3
3
21
12
-26
-14
-95
-17
-13
21
2
-3
26
29
32
0
13
16
15
48
-14
44
-45
-23
-6
36
92
-63
-20
-66
127
43
14
-32
-49
9
6
5
-106
-39
-24
-64
-90
-8
16
-21
75
25
7
18
18
47
19
8
-39
-5
4
5
-1
11
6
16
-85
-20
-17
-20
26
-4
13
8
23
21
23
24
11
19
17
60
6
2
-15
-4
38
-6
11
-35
127
30
17
24
-5
-1
-5
-33
-87
-32
-1
-32
-47
-12
3
9
24
-15
-13
42
59
21
-2
-10
-43
-17
-9
17
13
3
-2
-12
52
17
0
-54
-53
9
-5
-2
2
-6
-6
21
-7
12
-6
19
8
6
1
2
22
-6
7
-11
-15
-20
-11
-8
-11
-4
-56
-50
-2
17
8
1
-29
-19
29
106
25
16
9
11
42
-4
0
-12
-43
-9
-4
-12
15
8
-4
-20
-17
-1
0
-15
-60
-5
-5
6
-21
-14
-9
4
-5
-15
0
-9
37
5
1
-6
32
13
12
22
-29
14
10
25
5
4
-12
-70
0
-24
-6
-40
-43
-8
17
8
-9
-8
-7
12
5
31
-10
-12
-4
-2
-2
-6
-6
-18
11
1
29
8
7
19
27
-6
-7
-12
-17
4
-7
-45
-10
-5
10
28
-43
-24
-8
29
34
9
-4
-24
19
-17
-3
-26
-34
-23
6
11
-13
-6
-9
-4
10
4
6
5
36
39
10
-5
-6
7
9
24
-15
-4
0
14
30
-1
-5
-6
40
5
-5
5
-19
-10
-6
-35
9
-7
-3
-22
-26
-13
4
-24
-67
-6
3
23
18
6
10
30
24
11
-2
-3
-18
-10
0
33
-3
-14
-6
7
6
7
-1
-4
20
11
6
8
-18
-3
3
1
-8
-5
-1
14
15
1
-7
-20
15
-3
-9
-9
-15
-6
0
13
-29
6
-3
-23
-19
1
-7
8
-1
-19
-3
17
9
4
7
15
22
17
8
9
11
2
-16
-31
-27
-10
-1
-13
-4
-4
10
29
22
-9
-19
-12
-14
0
-4
-2
-12
16
11
-13
-2
-5
0
11
5
-8
-2
18
3
2
3
1
9
-17
-8
-28
-8
-6
-4
-41
-15
35
17
16
23
5
-2
37
13
-3
-13
-17
-9
1
-1
-7
-19
25
24
17
8
4
0
-12
10
-8
-3
-4
-8
-1
5
-7
-22
-15
-2
12
14
4
-5
3
-3
-3
-2
6
-5
-3
0
8
18
-16
-14
-13
0
-5
-5
-13
-14
-6
-6
-7
-11
-4
1
2
-2
10
12
8
4
3
0
9
7
-4
-2
-15
-3
0
-2
-13
-6
-4
-5
-1
3
-3
1
-2
1
10
4
5
-7
-2
0
-3
4
0
-3
0
5
2
-2
-5
1
0
-1
0
-2
-4
4
3
-10
-9
1
5
6
2
-4
1
2
9
-1
-7
-10
-3
-6
-6
0
4
9
9
9
2
0
0
-9
5
1
-2
-3
0
-4
1
8
3
-2
-2
-3
0
4
5
2
-15
-9
-4
-3
-3
2
5
18
-6
-2
6
4
-2
1
-5
-17
11
10
1
-2
2
-1
-6
6
-12
-6
-6
-1
-2
-1
3
15
-9
-1
2
-3
1
-1
-10
-28
-3
-5
-1
-1
2
1
1
-13
-1
-7
-6
-2
-2
0
4
-11
-7
-1
-3
-1
0
-4
-6
-3
3
3
2
-1
0
5
8
8
-15
-8
-2
-1
-1
-3
-3
-1
-25
-1
-6
-2
-2
-2
-2
-11
12
-5
-1
-2
-2
-1
-5
-6
2
3
3
-2
2
-1
0
2
5
1
-4
-1
2
-7
-5
-5
3
-4
-1
-2
-1
2
0
14
-2
-4
-4
1
1
0
-3
-5
-14
0
5
0
-2
2
4
-6
-10
3
3
2
0
-6
-2
10
-4
-2
2
-1
-2
0
4
1
3
2
-3
-2
1
-2
-1
-4
14
3
-2
-2
1
0
6
-9
-4
-5
-2
0
1
-1
-19
10
0
-4
-5
-2
-1
6
-2
-10
-3
-1
-1
1
0
-4
-2
-5
1
-1
4
1
-3
-4
-5
-15
9
2
-8
-2
0
2
13
14
-6
-1
8
-2
-2
-8
-1
-1
4
-2
-4
-2
-2
5
-4
3
6
7
8
1
2
1
1
4
0
-6
-2
-1
-1
2
5
8
2
9
0
3
-1
-2
-4
-10
-4
-5
3
52
4
-3
-7
-15
-21
-6
-18
-90
-7
-4
-2
11
14
0
1
5
-1
-3
-3
-16
10
6
-5
-2
0
4
9
14
-3
1
6
4
-3
-1
3
21
9
2
-1
25
1
1
3
15
-9
-3
1
-3
-1
-1
-1
-17
-3
-9
-6
-4
-1
-1
-2
-4
-1
5
1
-5
2
-3
-3
-14
-1
-1
2
15
2
4
6
14
-1
2
-4
-10
-2
0
-13
-13
5
2
5
12
-1
-1
-2
14
0
2
-3
-15
-4
0
2
5
10
-1
-1
8
-1
-7
-10
-34
-5
4
-2
-12
-5
2
9
1
-10
-7
-4
-3
4
-2
-9
-13
-8
-8
-6
-16
-1
-4
4
-4
1
-7
-9
12
-2
-4
0
7
2
4
12
12
0
-1
6
18
-6
0
3
5
0
1
0
4
8
5
30
19
4
-1
-3
12
0
0
-35
-24
1
-5
-4
-1
-4
-5
-13
-43
-6
-2
-1
-20
-11
-7
-8
-7
-2
-1
-3
16
4
-11
-5
-3
-3
4
-1
-20
-4
4
22
67
2
4
0
20
13
11
9
-11
5
-5
-3
6
-4
-4
2
-26
-1
1
-2
-33
-2
5
0
12
1
1
3
5
4
2
0
-9
-2
1
0
-16
-5
-3
-2
24
0
3
2
17
8
-2
3
9
1
0
-7
-5
-12
-8
-15
-16
-3
1
12
30
-8
0
3
-4
-1
-1
-2
-40
6
1
3
8
2
-10
-1
10
11
1
-4
-6
-1
-1
0
-1
-5
-4
-11
-12
-1
0
-6
-8
-5
-2
2
-2
0
3
3
16
-5
-4
-1
7
-1
1
-2
-8
-2
-10
-6
-3
-2
4
5
4
-3
9
-6
-5
-2
1
0
3
11
4
31
40
2
-5
-9
-3
-8
0
-19
-74
-5
4
3
-18
1
7
3
14
-1
-7
-15
-16
0
-7
-10
-15
-2
-3
-5
-15
-5
-11
-8
-4
0
5
3
5
-7
-7
0
24
1
-5
-1
1
7
4
-1
0
-3
0
3
11
7
1
6
-1
-2
-3
0
0
-23
-5
-10
-10
-2
1
-6
-16
16
14
9
12
-1
8
13
18
-8
5
0
5
2
-2
-4
-40
-3
-1
2
9
2
-7
-5
0
0
-9
-8
-19
-3
-2
-1
13
-5
-5
2
9
0
-1
-4
2
-6
-5
-5
1
-1
2
8
18
-2
-3
-2
2
-1
1
-5
-14
8
9
3
20
1
1
2
4
-3
3
15
-37
-2
-5
-5
-6
-1
-2
5
2
-4
-6
-7
-2
-8
-12
-5
-7
-1
-1
-3
-1
-1
4
-4
-5
-1
-1
4
4
2
-2
-4
27
2
2
-1
-5
7
3
0
-2
0
0
-1
12
-5
-1
0
-6
-2
-2
-3
-6
-2
-6
-5
-8
-3
-3
-5
2
2
-1
-3
14
0
2
-3
-18
-5
-1
-1
-5
-1
-1
4
-4
1
4
-4
2
-1
-2
-4
19
7
-2
1
-11
-2
-6
-2
-2
-4
-5
-4
5
1
-1
-5
-7
-1
-10
-5
0
-1
4
0
13
5
6
2
-1
-1
-2
1
-20
-1
2
-1
-10
0
3
14
10
-7
-3
-2
6
-1
-2
-18
4
-3
0
-4
1
-2
0
2
-6
1
1
1
-4
0
1
-3
4
-3
-4
-2
-6
0
-1
-5
2
4
-3
-3
7
0
0
10
-2
0
3
-5
-5
-1
1
10
13
2
1
-1
-3
1
-1
-12
-16
-4
-3
4
-2
-2
-2
-1
5
-6
-5
-5
5
0
5
7
2
1
3
6
0
0
-4
-12
12
5
0
0
-5
-2
-1
1
-10
-9
-2
-5
-2
-2
-2
-6
3
-5
-5
0
4
-2
-3
0
-1
2
-12
-3
-3
-2
-1
2
2
2
8
0
1
-1
0
1
-6
-2
2
2
-1
0
-2
-6
-12
-3
1
-4
1
0
-2
-1
-7
-3
-1
0
2
-1
-3
4
21
8
-4
-2
-2
-3
0
0
-2
0
0
-1
-1
1
1
-2
-1
-5
6
1
1
0
-1
0
-1
-4
-2
0
1
2
2
1
2
1
-1
-1
-1
0
-4
-1
2
1
-2
-3
-3
-2
0
7
2
-3
-3
-5
0
-1
3
-2
-4
2
-1
0
-1
-1
-1
-7
-2
-6
-5
-1
-2
0
3
10
0
1
4
4
2
-1
-1
-4
-4
-4
0
1
4
-1
-2
1
13
2
1
-4
-2
-2
-3
-3
-7
0
-2
-5
-2
-1
2
-6
7
9
3
1
-1
-1
-4
-3
14
0
-5
0
-3
-1
2
8
7
-2
0
-2
-1
1
-3
-11
-21
-6
-4
-3
-2
1
-4
-1
11
-1
-1
4
2
-2
4
5
-11
-3
0
-3
-3
-1
-4
-21
-7
-1
-3
-4
-1
-2
0
8
2
-3
-3
-6
0
-1
-1
-6
-5
2
2
3
-2
-4
0
2
20
2
1
3
1
-1
-3
-5
-42
-2
-1
-1
-1
-1
-3
6
11
-4
-3
-6
-1
0
2
4
4
3
2
5
1
0
4
0
-25
-2
-3
-4
1
0
1
11
17
-4
1
1
0
-2
-1
-12
20
2
0
10
2
-4
-2
19
-4
9
0
-9
0
25
-2
-4
37
14
-1
-3
11
6
-10
-45
-6
-14
-2
-27
-37
-21
17
11
-41
2
6
25
30
45
-3
55
63
-4
4
22
6
-42
-29
12
-85
-23
-13
-12
-28
-81
27
-31
-2
17
2
11
35
-1
-42
-87
-107
-41
-10
-62
-75
51
2
-96
65
51
6
-8
86
0
26
72
81
3
9
39
-72
72
-64
-57
-52
-36
-7
-82
-91
-115
-10
93
-19
-28
-26
77
56
-89
-21
-14
24
8
-20
-62
-50
58
52
24
35
22
-17
-7
36
65
-42
-47
40
27
19
-13
-9
-25
-3
66
127
35
29
-34
52
75
60
27
-75
-107
-30
65
-12
-65
-97
-121
-32
40
-91
-13
-67
-45
64
108
110
4
77
112
117
127
-40
-88
-61
-77
1
92
83
-58
77
102
44
60
56
-75
-84
113
-9
-56
-55
-62
-21
-28
-64
-101
13
101
22
-12
-107
-85
11
6
-32
-28
96
73
-7
-18
29
-10
111
45
-22
-47
57
74
12
28
-67
-50
116
97
114
48
55
103
-46
-84
-117
-83
-96
-101
27
-69
-24
117
86
73
69
56
-73
41
-21
-128
-75
-102
-91
16
87
-5
41
51
127
62
53
-9
74
-63
-57
-91
-128
-18
24
14
-57
-25
21
-76
6
-7
-65
-108
-17
-30
-41
10
-74
17
57
73
28
36
10
109
-12
-12
-97
-37
19
-56
15
80
80
-2
59
-15
-59
77
-4
-128
-85
-108
-4
40
-13
27
-5
117
97
100
1
-46
-29
68
-27
-87
-128
-55
40
38
100
29
-4
-57
127
57
-45
-2
-78
-46
12
117
-82
-38
35
-6
-71
34
-43
-60
96
-14
-7
-51
21
-24
40
85
-63
-26
-14
-3
31
67
17
72
83
-2
36
99
57
-20
-2
-89
-35
-30
-45
-25
-52
-81
-32
11
8
49
-26
-26
20
-34
-28
80
-38
0
-1
-38
-74
15
-16
5
-77
-8
14
4
21
65
65
13
-46
-33
9
19
42
-26
-46
-71
-48
32
2
14
41
14
13
12
127
50
26
-41
-109
-8
54
122
29
-24
-14
67
49
75
13
-50
-36
-6
-21
-70
-1
42
-1
51
-76
-1
16
-30
-32
-43
-14
-113
-13
-39
1
15
80
14
9
59
30
40
-39
1
13
17
0
52
31
22
46
-63
-24
-45
-33
86
107
-4
8
63
-9
-36
-3
-115
-76
-60
-18
-51
-42
-2
1
-2
-9
21
39
65
16
-10
48
24
-10
6
-22
20
75
83
-29
-23
-8
-10
-33
-80
-16
-16
-28
-19
-54
-11
-9
66
68
17
-5
-45
-46
-33
-4
-43
-81
-34
1
37
127
37
-5
-13
62
71
-62
-20
114
-25
5
-11
-76
-53
45
127
-51
30
27
25
-31
-107
-30
-105
-71
-65
-35
-7
37
-29
52
127
24
57
35
34
-38
54
-39
-108
49
2
-44
-14
-18
-30
28
-9
9
-44
-30
-6
31
9
0
21
64
92
61
37
61
38
-42
-21
-118
-26
-35
-27
-61
-23
23
1
-56
-27
6
2
-11
8
51
3
17
-20
18
30
15
7
18
89
83
46
28
26
39
9
-45
-128
2
34
-77
-31
70
21
6
75
42
0
25
2
-72
-64
14
55
-38
-37
-2
-27
7
22
11
103
-47
-10
-32
-19
-23
-27
-47
-43
-1
14
38
18
3
-23
11
36
-62
-9
-23
41
20
29
-18
40
49
29
12
37
-19
7
20
-59
29
-29
-6
-1
-12
-5
17
48
78
7
14
-15
-31
12
14
-79
-125
-37
-24
-18
16
-6
-25
-29
26
24
-4
-18
-34
-33
23
118
-81
3
-13
-38
-10
62
-27
-101
63
10
19
70
-5
-55
58
51
-22
-34
-3
3
5
57
-53
-44
115
0
-14
-19
25
6
24
-5
-36
23
18
-26
-21
-45
25
40
-2
26
38
34
46
12
-7
36
-37
9
-3
-55
-25
-26
17
26
18
42
19
46
69
77
-44
-116
-71
-65
-41
-50
-73
-20
18
120
-14
-8
-5
36
-10
-52
0
-45
32
-12
7
38
33
-5
4
55
-57
-4
-15
-56
-72
20
-18
-124
127
21
21
20
51
-25
34
39
-103
5
-13
-17
-77
23
-28
-4
60
20
-5
5
32
23
8
-4
25
-33
-3
-8
-38
-56
25
-9
46
36
33
26
18
24
-34
-85
-55
-44
-18
-12
-10
-34
22
109
95
50
2
7
25
27
12
21
-70
4
21
12
4
28
-39
-47
-113
-48
-21
-13
-59
-62
-14
55
19
12
-13
-23
18
-19
14
71
74
15
17
19
-30
-3
-22
-108
-58
-24
-28
19
38
13
12
72
-11
-14
11
-6
-9
12
1
12
3
11
9
-3
34
-46
-29
-90
-53
17
12
-8
-18
-36
74
106
117
20
11
-13
-20
21
-34
-79
-97
-38
-44
-19
-19
6
14
59
32
-22
3
-10
-16
16
11
96
48
45
19
19
46
12
3
-16
-76
-53
-15
2
13
-19
-20
-61
103
69
-1
-35
-36
39
-5
-2
-60
-39
-12
-17
6
-2
6
-48
19
3
-13
-7
19
-12
-13
54
8
11
22
-7
-5
-11
-6
28
-74
-7
4
21
24
31
6
95
122
40
13
7
-3
-44
-7
-66
-87
-55
-22
-15
-37
53
-32
-81
7
8
12
6
23
-14
44
114
44
-1
-18
-6
19
6
-14
-77
-24
-28
-8
-18
-29
-10
9
-32
-5
27
24
39
46
10
5
-16
62
6
-4
-14
-26
-23
-2
10
51
15
2
24
27
27
2
86
93
8
-6
-17
-14
16
-17
-105
-95
-65
-10
-4
24
24
27
9
11
24
9
9
9
5
4
33
64
28
1
-46
43
-5
-16
-62
-21
-20
-5
38
-15
-12
-5
65
-49
-12
-1
-21
-72
-10
-30
-85
-36
-6
-8
-20
19
-9
-3
-21
15
-3
14
9
-14
-9
8
22
51
49
6
26
30
28
7
-58
-61
-23
-24
-15
-24
-24
26
68
28
1
-9
-22
-11
-19
23
25
2
12
8
70
84
40
15
3
34
-32
30
-28
-40
-29
-27
-31
-39
-7
-14
-38
-8
-37
-43
-77
33
-16
-31
-2
-43
19
-35
0
-85
2
-4
-6
19
-36
-7
22
-18
0
-9
-1
21
3
13
33
30
-5
3
23
7
14
25
110
82
22
12
8
-8
-5
-22
55
-40
-34
9
22
-17
-12
29
-2
9
0
3
14
40
19
-17
28
-13
33
11
5
-29
-52
-10
-17
-6
-1
-22
-35
-21
-11
13
-27
16
13
7
8
-20
3
-9
13
-66
-15
-17
-41
-17
11
-2
-41
56
-13
13
43
49
-31
-13
42
49
29
15
17
1
-15
21
11
-34
-23
2
-9
-20
-18
13
20
42
7
-5
-8
13
-3
18
-5
-23
19
-12
-32
26
29
-19
-31
-104
-38
24
76
18
19
2
-1
80
4
-13
-29
-44
3
-4
-52
-52
3
-14
-9
12
0
25
85
81
-2
-11
-8
-15
30
-4
-22
-128
-88
-18
-9
8
-19
-10
-34
35
52
32
26
48
40
-2
44
40
32
9
28
-19
-24
-8
3
15
16
1
1
6
-30
-4
5
-7
0
-19
-54
-18
23
11
-80
-30
-22
2
36
13
-22
-20
-29
-32
-27
-6
-45
-77
-6
-7
1
52
12
-7
28
32
-16
23
34
65
17
11
23
37
23
3
41
-39
-13
11
-30
-33
-24
-31
-120
21
14
-10
1
-7
11
5
51
-62
-9
-3
6
-3
15
-14
46
42
22
-5
-8
-10
-5
10
-7
25
-1
3
-6
28
14
-18
3
32
0
2
-4
50
-14
-12
-22
-101
-58
-25
-33
-91
13
-27
-32
56
38
4
10
15
-7
-3
50
23
-1
6
-15
-20
-11
-6
-29
1
17
18
37
15
39
22
108
68
26
-1
-28
2
-32
-2
-87
-63
-43
-21
-27
-19
-3
-26
-122
-52
-22
-8
32
55
-8
7
23
-2
-9
6
8
8
4
7
53
38
13
6
-16
-7
38
23
101
-37
6
-7
-15
-28
-5
-9
-27
36
-1
-20
2
82
6
-1
-36
-53
-17
-6
0
-97
20
15
-9
0
2
25
16
50
24
21
24
18
31
19
14
16
9
8
21
24
-9
0
-8
-9
0
31
103
22
29
-4
4
40
9
-18
-89
-23
7
8
18
63
-1
1
-5
-39
-24
-9
10
-77
-1
2
13
7
-15
-11
-35
-33
-20
7
-26
-24
-12
-4
-5
-1
-1
25
34
-4
-16
7
-1
16
11
-17
-48
-36
22
14
22
75
24
-8
-15
0
-12
-20
-26
-84
9
10
3
78
24
4
15
-4
-33
-11
-41
-24
0
12
14
3
26
-9
-54
25
-11
9
-9
-4
-20
3
2
-98
5
-7
-14
-38
7
-1
24
-16
-8
-28
-7
47
-18
-7
-29
36
11
3
29
4
-9
5
24
69
-7
-6
-23
-34
10
-10
-50
17
4
13
-22
12
-34
-18
92
8
-15
-13
-28
-24
-5
-2
-26
-11
-4
-16
16
43
8
22
66
7
14
9
5
50
12
23
-50
51
17
10
26
-94
-6
-5
14
-22
-3
7
23
58
-27
-10
-47
-46
6
-11
-46
12
-30
-23
6
-9
-22
-7
-2
-59
-14
5
7
48
23
2
-43
7
-2
-2
29
68
-20
2
17
-17
-2
-36
-5
-13
-18
-12
3
20
30
25
-34
-65
-20
-17
-15
12
-20
-40
24
-51
9
2
71
70
6
-17
-59
67
9
14
-58
-102
-13
19
14
-4
21
-2
27
50
-10
-7
16
39
-7
3
-26
-42
16
19
61
-45
-11
1
-23
-49
-6
17
-3
-63
14
-1
29
81
29
1
10
-51
-25
-13
-25
-41
-9
-5
-68
27
28
19
32
32
10
38
86
-24
3
3
80
127
78
-16
-66
20
-37
-5
-86
-101
-49
-46
-108
-103
-8
8
5
10
0
4
87
52
29
-8
15
62
-13
-41
20
35
-8
-20
-35
-26
-4
18
4
-21
2
-4
37
58
36
7
83
88
19
9
-8
-49
18
-6
-14
-74
-31
3
27
-23
-53
22
14
16
2
11
-74
-69
-1
-27
2
-24
4
-11
-7
3
19
-9
-21
70
-11
-14
-12
7
-10
-5
12
-7
17
3
29
54
20
20
20
17
4
6
21
25
-22
8
-16
-20
-4
2
34
25
22
18
51
63
14
12
-22
-70
-67
-16
-32
-93
-52
-19
-15
17
18
-15
-28
71
18
-2
-6
-24
-7
7
-19
-44
-9
10
8
25
12
8
77
87
32
21
19
-57
13
-1
-14
-65
-21
-14
-3
2
-21
13
-20
25
3
-12
3
34
-25
-1
57
35
-9
-7
-60
-94
-20
-17
-20
-63
4
9
5
50
21
18
6
52
43
22
20
4
6
-28
-1
-40
-23
-25
-12
-14
-13
-2
23
-24
7
3
74
127
4
51
63
35
-13
-1
-42
-46
-12
-33
-65
50
5
-2
-65
-109
-2
7
-19
-105
-21
5
70
56
9
0
-1
60
8
-5
-35
-18
2
-5
-3
-21
-4
-13
103
103
-24
24
-6
-37
-7
-6
-72
6
-1
-7
43
121
30
16
-64
-112
-24
-13
-88
-128
-81
-19
-7
-21
7
8
41
39
28
1
5
13
25
-23
1
12
3
3
23
40
-44
12
-47
62
12
1
14
39
39
-17
32
-51
-4
10
-7
-15
-7
-16
-49
18
-26
-16
4
-53
-5
-2
-47
51
-5
-18
-12
3
8
29
114
-33
39
12
-30
30
9
-33
-124
-50
-7
17
81
41
-31
3
19
-51
-32
-14
-62
-90
-3
5
3
8
32
15
28
93
39
-6
14
37
-14
-3
2
-77
-42
26
73
30
26
-5
2
31
18
3
-53
-40
3
11
6
14
9
-1
-16
-36
-21
-4
-15
-14
0
-11
-21
-26
10
3
17
59
3
17
19
-32
-24
-4
-16
-49
-2
3
15
92
3
-15
-8
-3
-1
-8
-14
-92
11
6
-4
-8
11
1
-26
40
-10
-3
9
14
6
3
2
63
50
9
30
27
6
-49
-18
8
3
3
-42
-19
-3
3
33
33
3
-10
40
53
-1
17
17
5
-32
-17
-56
-98
21
1
-8
-19
14
16
8
9
-3
19
46
-88
-15
6
10
56
3
5
29
42
24
3
115
105
23
0
-37
-28
-24
-25
-95
-88
-22
9
-7
-31
-25
-19
13
17
17
6
4
73
25
9
-27
-42
5
-8
24
18
14
1
-24
-58
-44
-7
-45
-34
-1
16
57
80
15
29
98
-15
8
4
7
-11
-3
-18
-84
-8
6
7
-25
6
-1
12
28
23
-28
-16
33
-12
1
-16
-49
-39
-1
-2
-33
-26
5
17
76
2
12
7
35
102
-13
8
-24
-3
-11
-5
-69
-96
4
-4
28
46
7
0
-8
-36
-8
-23
-82
-116
-15
7
47
95
-8
4
18
115
-14
-8
-14
-22
23
7
-47
-48
-5
-9
18
24
1
31
12
66
17
17
-22
19
29
-3
28
-26
-24
-25
16
-37
-7
-16
-42
65
37
14
29
6
-8
-33
-64
-76
-20
-7
-17
8
16
-25
5
-49
-18
-13
-78
-83
-13
16
56
33
23
13
50
66
8
-8
-81
-29
4
-15
-15
-19
33
15
49
16
-5
4
40
32
2
-19
-35
3
18
20
-7
-8
17
-5
16
2
-5
1
-5
23
-6
-7
6
-58
-16
-19
-37
-62
-24
2
21
27
14
5
35
31
-2
19
15
21
-11
-1
2
-6
-3
-12
-21
26
-11
-2
-13
-6
-23
-27
17
7
16
4
0
-5
8
-16
-45
-41
-12
-4
-7
10
-19
11
-26
-34
-6
-9
6
3
-9
12
65
4
-1
-6
27
31
10
-14
-106
-3
-15
-8
-60
-66
-22
10
23
-2
2
18
44
32
5
-9
3
21
0
1
-23
-28
-2
-4
12
21
12
-7
-4
5
-3
13
11
-16
5
9
14
25
5
4
0
17
-2
-10
-6
11
-12
3
-2
-43
-23
-1
21
-8
1
-4
-8
-29
-2
-3
-7
-8
4
-1
-19
8
11
-3
-12
8
-4
0
-2
11
-13
-4
3
-20
-2
1
-3
25
10
-4
-6
13
-1
-5
-17
-27
-1
2
6
-10
-3
-1
-3
0
-5
-4
-16
-5
-2
2
19
8
1
7
2
-1
-3
-5
-9
-6
10
-5
-7
3
1
1
1
15
-15
-2
5
-7
-2
2
-7
1
-3
-10
-13
-8
-6
1
16
12
3
4
8
6
1
-3
-5
5
-28
-12
1
2
2
0
-17
2
11
8
-3
-14
-4
2
9
-5
13
4
1
9
0
-4
0
-8
-1
-6
-2
-3
-1
-2
-8
-9
-2
3
-5
-1
0
-2
0
10
-10
-7
0
-3
-3
1
-3
-5
-24
-2
-1
2
-4
-2
7
-6
16
2
3
0
-1
0
-9
3
-7
-4
-6
-3
1
-2
-3
-7
10
4
1
-3
-5
2
3
13
-1
-1
5
5
0
0
-3
0
-17
-5
-10
-8
-4
1
-4
-8
12
-3
-3
3
-1
0
3
5
-24
1
5
1
5
-4
0
-1
17
2
-2
-1
-2
-3
5
-7
-6
2
3
1
-1
1
0
0
16
16
5
1
-2
-3
-2
2
28
1
-1
-5
-2
0
0
4
-9
-9
-7
-6
0
2
2
-7
-22
-19
-2
0
-3
1
1
-12
-10
7
-3
-1
-2
-1
-7
7
13
9
4
-2
3
-1
1
1
-4
-2
-2
1
-1
1
0
4
-2
-4
2
-2
-1
1
-1
-2
2
-8
-3
32
0
-4
-2
-2
-2
-9
-7
-50
-7
3
-1
1
-4
12
2
6
2
-4
2
-6
-1
0
0
0
0
-4
-2
2
-2
-7
-3
-5
-1
0
-1
0
-8
-4
1
12
-2
2
-3
4
8
2
3
2
0
-5
3
-7
-5
2
-3
-4
-2
0
-7
-6
-30
-3
3
-6
-2
-6
5
7
34
-1
0
6
-2
-6
1
-1
-5
-4
2
-5
0
6
1
3
-14
1
-1
3
-2
-1
-7
-5
0
-2
0
-8
-1
2
-3
-2
-10
1
-1
2
1
1
2
6
1
-2
-2
2
-1
-2
-10
-16
3
-9
-6
-2
-1
4
8
9
1
-3
0
-6
-1
-7
-2
0
-8
5
2
4
-1
-4
-2
-9
12
3
-2
3
-1
0
-6
-6
0
-2
-1
-2
-2
2
1
-2
8
3
-3
-7
-3
1
-7
0
-20
-2
-1
8
0
1
4
17
1
3
-2
-3
0
1
3
11
6
0
1
0
0
-6
-1
-9
14
0
-2
-2
0
3
1
-4
-15
-5
1
1
-1
9
-1
8
-8
-6
-4
0
-3
3
-2
7
6
15
-1
-2
1
-9
-3
-3
13
-5
-6
-4
-1
1
4
-4
1
0
-4
11
1
3
-2
-10
-17
0
10
8
1
-2
4
18
21
-1
-14
-38
-6
2
4
-3
9
6
2
3
1
-3
-9
-11
-7
0
-7
-7
0
0
5
5
-8
-3
1
15
-1
2
-1
3
-11
-6
6
23
1
-2
-4
-15
9
5
4
-13
-1
-2
5
-6
0
-3
-7
-13
-1
-1
-2
-3
-1
0
14
11
-4
0
2
33
8
3
-15
-16
0
-3
-1
-8
-9
-10
-3
4
0
-2
-7
-7
-2
-3
8
10
0
-2
-5
-5
13
5
-3
-14
0
2
4
-10
3
2
8
13
0
3
1
18
-8
-1
6
28
0
2
0
4
8
-9
-8
0
-1
0
-4
-12
-3
5
2
-35
-5
-2
-5
-12
-6
0
10
8
-3
-4
-3
8
0
3
-3
-9
-2
-3
-2
-9
4
5
9
18
1
2
-2
3
2
-6
-7
14
4
-5
-1
-11
-2
-13
-6
-6
-4
0
-2
2
-7
3
-3
-11
-4
4
4
-10
8
7
14
37
3
0
-3
14
-2
1
-14
-42
-3
-3
0
-4
-7
-4
1
-3
1
-7
-4
-16
-9
-7
-4
-3
-1
0
3
10
1
1
-2
-11
-3
-1
1
-7
-4
-9
-6
5
1
3
-3
-5
-10
-8
3
8
-3
2
4
5
8
8
-1
-1
-3
-2
-16
-2
-2
10
1
-17
0
-3
5
-10
3
3
17
19
0
-4
2
8
-3
-3
-20
-20
-1
1
-2
-7
-7
-8
-3
2
0
-3
-3
-21
-11
-7
-6
-11
-4
-3
-1
9
0
-4
-10
-2
-1
0
-4
-6
-2
-2
2
8
-1
-1
0
9
-1
-3
2
-1
-1
5
7
20
17
9
34
68
3
-5
-11
-32
-10
6
-32
-81
3
-3
-2
-1
-2
9
10
7
-4
-2
0
1
8
3
-5
-2
1
-6
-2
15
-7
-12
-6
-12
-3
0
4
6
0
-8
8
34
1
2
-3
-14
4
0
-7
-3
1
3
-4
1
-18
-9
-3
-9
-3
0
5
8
6
3
1
-8
0
1
-6
-17
8
1
-1
15
-2
3
6
15
-7
8
10
-6
2
-4
2
14
5
-4
-1
-6
-4
-6
-13
-34
-11
-10
-13
-21
-1
-2
0
4
-1
0
-4
1
2
0
-6
-8
8
-3
3
12
-4
8
0
-2
-2
-3
2
4
1
-5
2
9
-9
6
-8
-17
-3
-1
4
5
-2
2
0
7
-3
-2
-8
-8
-6
-7
-1
5
-2
4
-2
-7
-5
-13
-2
-3
-1
1
1
2
9
7
-4
-14
-2
-3
-1
4
-2
6
5
14
0
-2
3
2
5
1
-2
-4
1
0
-7
-17
0
5
5
0
-2
-4
-2
20
-7
-8
-7
-5
-3
-2
5
16
-9
-7
3
3
-1
-3
-9
-17
5
-7
-5
-5
-1
-5
2
-2
2
1
-1
-3
-1
4
3
-6
11
8
2
2
2
0
1
11
1
-3
0
14
-1
-4
-4
-10
-4
-2
-4
-14
-3
2
-4
0
-4
2
-2
3
-1
-1
5
0
-3
0
-4
-5
1
-3
-5
-3
-2
-4
-6
-4
0
0
1
1
10
0
3
12
3
-1
-2
3
5
6
-1
1
0
3
2
10
-7
-2
-4
-8
-1
-1
-1
-5
-5
-17
-3
2
-4
1
-1
-9
-4
8
0
3
0
-3
0
13
12
8
1
-5
0
-2
4
2
-3
-9
-7
-3
-1
-3
-5
-13
2
-1
0
-1
-1
2
0
4
-10
-2
-1
0
1
0
5
6
0
-2
-6
-2
-2
0
-3
-21
1
0
0
0
-1
-2
-3
12
-5
-2
1
-5
0
0
0
0
1
-3
-7
-4
0
0
-2
-4
-5
6
9
4
0
2
-3
5
-3
-8
-7
-1
0
-2
0
-2
1
3
9
-3
-1
-3
-1
4
6
-3
-3
0
0
-2
-5
-9
-5
-6
-4
0
-2
-2
-1
7
-4
1
1
0
-2
0
0
6
-1
2
-2
-1
1
1
1
-4
-4
-9
-3
0
-1
-1
-1
-4
5
9
2
-1
1
0
-3
-2
3
-2
1
-2
-1
-2
-5
-10
-3
2
-3
0
2
-1
1
3
1
-1
2
-1
-3
-1
3
-3
0
-2
0
0
0
-2
-5
0
-6
-5
-5
-2
-2
0
-4
-6
-2
-1
-3
-2
-1
1
2
0
-1
-1
0
0
-1
0
-3
0
1
-1
-4
0
-2
-1
-2
-9
-3
0
2
-2
-1
-1
4
-2
2
2
5
3
-1
-1
-7
5
2
2
-1
-2
-1
1
-1
7
-7
-5
-12
-2
0
3
4
11
8
2
8
3
6
-2
-1
11
7
9
9
11
3
-1
-20
-90
-26
-7
-11
-32
-23
3
22
70
18
-1
-25
8
37
11
53
62
18
4
15
10
29
5
-19
66
8
15
33
3
1
-25
-56
-83
-34
-3
12
42
-48
-1
62
79
22
-18
-11
47
-26
7
4
-46
-10
-7
-22
-98
-84
-13
-16
97
29
4
-18
54
104
35
-8
-2
-74
14
88
47
85
-46
43
-13
49
-40
-108
-61
51
36
40
-65
-27
39
112
119
47
25
104
-42
12
-14
-89
-68
-94
-28
-52
-100
9
-43
-125
57
88
37
-128
-63
-26
31
127
-24
-26
-42
-52
-72
-37
22
3
3
-24
21
98
31
44
85
126
123
-15
11
118
28
44
-16
-89
71
-27
-78
-28
-68
-88
-114
-6
-115
5
26
30
91
-37
-26
34
18
-83
19
-55
-126
25
91
29
-11
36
46
-26
127
-6
73
32
-12
74
-28
88
44
68
-32
-64
106
-6
-26
-93
33
21
-50
-6
-4
-8
14
62
-17
-60
-42
-115
-83
-72
43
26
76
-17
-9
-6
-80
-55
34
-58
-42
14
116
4
53
108
-61
-56
-1
25
43
86
98
-54
-28
16
50
25
-89
-73
-99
-30
37
109
97
124
15
-77
-51
48
21
-1
-60
-66
-43
94
29
-128
15
-56
54
8
26
-77
-54
106
52
-42
92
-68
-80
-51
14
-45
-122
25
-94
-8
36
92
-33
-10
15
60
101
25
36
19
35
-33
47
94
31
46
24
-43
-43
29
-8
-19
-35
-50
-25
-36
35
20
3
81
115
46
-25
33
-22
-26
-15
-92
-24
-4
102
-14
12
-16
-28
2
-128
-35
-13
-34
-22
69
22
75
86
-83
-18
51
-80
-82
-82
-128
13
21
-72
17
44
-63
-34
9
-88
27
10
29
-97
-3
8
75
61
5
-1
-98
41
71
-43
-34
-23
4
1
72
83
50
56
65
-53
-45
-33
-12
-52
-33
-16
-14
-47
-26
-17
-24
1
31
42
117
82
26
-12
-99
0
2
-43
-98
-76
18
5
45
-29
1
-12
-16
-40
-47
17
1
12
-84
-9
-88
-29
-3
-12
-34
-14
74
16
37
-89
10
-6
48
-41
-46
-39
-27
71
-21
1
-57
-27
0
41
30
-11
57
53
58
21
14
43
108
74
50
25
-16
13
22
-47
-128
-119
-57
-27
22
29
0
17
-49
86
73
9
22
-49
-10
25
49
-124
-116
-44
-5
5
-51
13
15
83
4
-30
-38
78
106
-13
-77
62
6
19
51
-74
-31
-23
-1
-88
36
40
43
77
10
-26
-59
-107
-47
1
-17
-47
-30
11
-8
33
-32
-14
-8
43
7
-11
-30
-14
-18
-23
-21
-6
-74
-78
106
-81
-28
-82
-67
22
16
8
-65
37
40
59
24
59
-7
17
51
-25
18
44
46
-50
-85
14
86
119
0
4
6
-40
-6
78
18
-113
9
15
13
31
38
-12
4
89
58
-18
-47
-11
6
-10
-29
-36
-74
-52
-44
-75
-97
-6
8
25
16
5
33
18
13
0
-11
-78
15
12
19
24
-13
21
46
126
-8
22
28
10
70
-12
-59
-105
10
11
-21
-8
-37
32
-82
-49
8
24
18
68
30
-24
82
70
-8
-29
-46
-89
28
-10
-100
17
15
-24
-3
26
89
57
123
5
-26
-24
0
-1
-13
2
12
-43
-19
20
-47
-15
-45
27
28
79
-9
33
98
56
52
-42
-82
-33
15
7
2
43
38
20
59
116
11
-3
-18
-56
-21
-14
4
-33
-7
-35
4
2
54
32
6
-7
-1
14
-12
-26
-78
-51
0
-41
-47
-32
-33
-72
-19
8
8
23
14
-19
42
36
18
12
-16
-15
-30
14
-14
-5
-85
6
48
22
47
8
-15
56
90
8
12
-91
-3
-6
5
-28
-17
-46
-24
3
15
10
22
0
-24
-28
-35
-8
-25
-26
1
17
18
-10
-75
-106
-33
-1
-30
-12
-10
87
127
58
14
12
4
-34
74
-35
-60
28
-34
-3
-27
-33
-34
2
79
105
78
-5
4
34
58
-32
-123
-37
-47
17
27
17
-60
6
102
39
59
-2
-15
-4
-25
4
-57
-40
-25
-9
5
19
16
-30
-75
-55
-10
5
6
-10
-3
-4
-65
5
29
-4
-73
-8
67
-2
-29
-40
-57
-51
72
53
-47
-4
15
119
22
40
-35
-44
50
17
27
-79
-38
-3
-13
-8
-45
-23
49
-109
57
15
13
-22
32
21
0
11
-18
-6
-14
3
-6
-27
-51
-24
4
-44
-17
17
33
0
-1
72
-38
13
69
49
51
5
-96
-25
-14
10
-30
-20
-57
-24
49
93
23
-39
-76
20
-26
13
86
-78
8
57
60
34
-32
-8
-49
6
19
-17
-43
-43
-13
19
85
-19
-8
-1
31
-33
-6
-19
-102
-51
-20
16
-2
-1
-10
14
87
-32
-11
-10
2
42
32
-13
-31
-48
-2
-15
-3
-6
-28
41
35
11
-1
1
26
49
63
-1
-8
58
54
41
1
-52
-33
-17
-71
-19
-38
-21
2
-6
-41
-29
21
-42
6
-10
-21
-9
22
-20
25
-5
-20
-12
-9
-7
-29
24
80
-20
3
4
9
8
53
-18
-48
80
4
15
32
17
-23
67
127
-17
48
8
-20
-20
24
-58
-95
100
-11
-7
-24
22
-7
2
-80
-81
-23
-17
-6
-62
-26
-3
-29
-21
14
-11
18
63
11
22
61
-16
39
13
-45
-48
3
-3
-15
115
30
17
107
84
29
-7
-18
-99
-25
4
-87
-87
17
1
-62
59
-7
5
24
-13
-62
-19
-42
32
-3
2
11
74
10
2
127
70
32
17
4
28
-27
-6
-14
67
-19
8
37
51
6
-18
32
39
12
-16
-47
-60
-23
37
81
-12
4
-24
6
13
0
-10
-33
-28
7
11
0
1
46
-67
-101
-31
-73
-11
-8
20
-17
2
7
-70
26
12
-3
2
2
7
88
42
31
28
39
15
83
36
31
86
11
-19
-2
-20
-43
-1
-12
-66
-3
5
3
-53
18
8
-6
-88
-25
4
-20
65
76
-9
13
94
13
-1
-15
-78
-32
0
-35
-16
-9
1
-22
-20
14
7
28
-14
32
12
65
17
-21
-2
-38
-27
-14
-21
27
67
1
25
-34
3
-34
-20
-33
33
11
24
-53
25
-19
2
-42
-104
3
1
109
-27
16
18
37
50
-49
15
0
-96
24
28
1
-52
38
-13
-79
24
4
-14
18
28
2
-4
-46
-18
-21
-22
-26
-7
-29
24
42
61
6
3
4
9
1
33
27
-17
-34
1
-11
-36
9
-64
-103
-28
23
20
12
14
-33
-14
40
-44
-22
-18
-20
-49
-42
25
29
97
51
20
53
79
72
-30
78
-16
-3
-26
-59
-85
-5
-10
6
74
-3
3
8
35
-2
54
86
-112
-39
5
19
-58
29
-24
-92
71
26
-8
1
15
-21
23
9
7
9
-21
-17
12
-7
2
-69
-127
-68
-6
5
-12
-3
-44
-40
46
66
0
-4
14
-7
0
98
62
-14
-19
-14
35
20
31
25
-5
2
45
32
41
42
30
-21
-2
8
6
-57
-115
-26
15
-1
-29
-39
-39
-10
45
17
-48
-59
64
7
5
-10
-14
-20
18
68
-41
11
6
19
33
-26
-21
64
66
36
11
19
-23
17
4
32
-10
11
18
3
34
22
9
0
34
31
-8
-29
-1
8
-14
32
96
-21
-17
9
-84
-65
28
-66
-110
-48
-26
-24
66
38
-10
23
-1
10
21
43
39
14
-13
-102
-87
-49
-17
8
-4
76
-3
56
1
-12
-22
-32
0
-54
-54
-54
79
28
-35
-18
-29
-43
-51
-15
20
-15
27
1
3
-7
33
-31
-126
4
43
39
57
38
-30
-114
21
-54
-28
-44
-27
7
24
127
2
15
-8
0
-19
6
0
5
54
32
1
6
50
-23
-7
1
-80
-25
-1
-25
-82
-25
-16
-62
4
16
-10
7
34
27
-5
22
-15
-48
-8
4
46
-9
-2
-4
91
12
3
2
-29
-27
-16
17
-102
-13
0
13
-33
-76
-35
-95
20
7
-20
-51
-46
-1
32
119
10
16
10
-21
17
16
-13
28
-56
-39
6
20
16
-16
43
-22
98
3
-7
-26
9
6
-36
0
-80
16
-6
62
80
62
-17
-91
20
-1
23
-3
-58
-14
16
-37
-51
-17
-2
-18
-47
-27
14
37
47
23
-7
6
82
4
39
110
97
11
14
-41
-60
5
-27
-74
-40
-21
-13
79
96
-2
7
113
5
21
-10
-90
-114
20
-5
-106
-26
-10
22
10
-10
2
34
88
127
62
21
46
29
24
9
-4
-97
-29
-24
3
4
18
16
-70
-73
-39
-31
-17
81
32
4
47
9
6
16
30
-58
-37
6
8
69
-10
-8
-53
-48
-2
-5
-32
-35
-3
25
26
-80
-41
1
-16
46
27
1
10
28
6
-3
37
-4
22
-9
-39
-23
-18
7
14
-61
-37
8
53
31
7
20
53
115
42
8
-26
26
54
-27
-52
-118
-30
-19
3
28
-26
1
-28
79
-2
-32
-61
-107
-48
14
79
-22
-17
9
39
71
-16
29
71
74
-35
-10
-18
-13
38
-20
-91
-56
32
45
29
-39
-37
-39
4
27
15
-8
-14
31
73
15
-92
-60
-7
-28
-15
12
-33
-11
77
16
8
17
-2
17
-38
14
13
23
-35
-14
42
40
36
-45
16
18
-7
5
-4
11
9
3
7
-22
17
10
-26
-53
14
7
21
5
9
-6
4
-3
-66
6
14
58
20
-4
-4
6
24
-20
-97
-128
-83
-32
-15
-3
12
11
57
86
5
15
8
43
35
-13
-71
-80
-32
20
48
42
18
22
107
117
72
-2
-47
-57
-54
34
98
79
33
9
24
7
-8
-23
-45
-61
-6
-3
19
-2
-23
4
-25
10
-8
-12
-31
13
10
14
-18
28
18
4
23
20
28
25
55
-21
-14
0
38
26
21
-24
18
107
-8
5
-33
-40
-42
-34
-101
-113
20
6
-4
-50
-27
-8
83
-16
-38
-17
-13
9
19
9
-11
108
39
0
3
23
-36
7
18
-44
-2
3
27
29
12
-8
-60
18
-29
2
-15
-37
-22
-7
-18
-30
33
12
-8
-30
-5
-16
-40
-66
-9
-3
-27
9
41
28
64
12
6
0
41
13
-12
-27
-27
41
7
-9
-24
-5
-22
3
22
-47
-9
-9
30
29
19
-13
40
-43
-16
8
29
1
3
-24
-109
-29
-60
-11
-84
-80
-5
-10
56
103
53
-7
19
17
-3
-29
-113
-72
-65
-16
22
21
30
26
72
60
45
19
8
13
-30
12
61
5
43
34
25
12
-12
-2
26
47
-27
-26
-12
10
40
-14
-34
-8
-13
-5
-14
5
-35
-17
-98
1
-20
-16
-45
-25
37
30
62
16
-6
-16
7
-23
34
8
-63
3
25
41
21
30
10
-36
-17
-8
-2
1
42
51
-40
31
100
53
-12
-23
-98
-80
-37
-34
-92
-54
14
-5
63
94
41
8
127
55
8
-22
-29
-78
7
14
-94
46
-17
10
16
33
5
20
20
-54
11
16
0
19
-22
-46
-113
-47
-57
-28
-42
-56
-35
12
71
-14
66
20
10
19
-30
13
-42
7
1
0
-16
-15
41
3
118
-27
-12
-2
12
-11
-6
24
-74
-23
17
7
5
23
-7
-19
-7
-77
-47
-23
-35
-61
9
-10
-24
127
12
-7
-4
20
-38
11
-15
-60
17
25
45
80
40
-31
-38
-38
-9
-34
-25
-44
-35
-4
37
3
2
9
9
10
22
38
93
15
-9
14
4
-23
-36
-13
-108
-23
-5
-11
-25
-26
2
-33
44
6
10
25
36
29
-17
2
9
33
14
-16
14
25
-14
23
53
-54
5
-9
-30
-31
31
4
-68
31
-14
15
24
8
-10
23
22
51
5
4
3
22
6
8
-6
59
-23
-10
27
15
-20
-8
34
20
47
20
-66
-102
-9
-18
-43
-5
19
-12
30
31
-3
-13
-80
-32
-8
-2
-36
7
39
-6
-2
31
4
-5
4
31
-14
53
87
-50
-31
-1
31
24
-4
-25
-30
25
13
-2
0
-14
-21
26
64
10
28
-2
38
53
26
38
-7
-110
-59
-6
-30
-72
5
-49
-83
-22
11
15
4
4
0
18
44
32
14
9
-8
-18
18
16
57
46
6
-8
-2
0
9
9
-54
-46
8
-4
6
60
8
1
20
-2
-21
-22
-23
-64
15
2
29
-28
6
-1
8
27
-26
-26
-11
40
18
9
-26
-59
-15
-9
65
42
4
10
7
30
-31
-8
-116
-5
-21
-14
36
34
5
-43
-31
-62
-58
-18
-46
-13
-1
23
26
3
34
6
13
-30
-15
-6
-6
-6
-4
-3
-11
19
16
-11
62
81
39
5
40
67
10
8
-5
-39
-49
-13
-17
-61
-13
2
-3
6
11
14
-16
20
2
-6
0
13
17
10
1
-39
-12
3
65
13
4
-4
10
13
-12
-11
-10
51
19
-6
3
25
-3
17
13
-6
-45
-6
-3
-25
3
-10
-44
4
15
0
1
23
-4
8
-2
-95
3
-6
-27
-12
8
-6
25
31
8
1
6
-1
-2
-1
-7
-7
-22
4
3
8
-1
4
-4
5
-3
2
-1
-11
11
-6
-18
8
-12
-2
-12
-7
-11
5
-3
3
19
4
3
-2
-3
-3
20
-11
1
-10
5
8
0
-7
-13
-12
-11
-18
-12
-11
-1
-3
0
11
-12
-3
-39
-23
-4
4
2
-8
1
21
40
31
1
8
8
10
7
3
-7
-3
3
-6
-7
5
-5
1
0
-3
4
-4
-11
-2
-10
-10
-12
-6
-9
8
12
11
14
-5
7
2
-2
-9
-10
-4
18
2
5
2
-2
-1
-1
-25
-4
0
-18
-12
4
0
1
10
-13
2
6
2
2
4
18
19
-8
3
4
5
-1
-4
2
-14
9
-4
-2
-5
1
-9
-18
-12
-19
-11
-9
-2
-2
8
13
7
3
4
6
-1
0
-2
4
0
-19
-12
-4
0
0
-7
-10
-1
-10
-5
-14
-5
-4
-5
-4
-12
14
10
10
0
0
-1
-6
-14
6
-2
7
1
1
4
7
13
2
0
-9
-4
-1
-1
-5
4
-10
-9
0
0
-5
1
3
-5
-14
-5
6
-5
-2
-1
2
3
9
5
2
-1
2
-1
-1
-11
-21
-6
-5
4
-3
3
5
10
29
7
2
-2
0
0
-9
-16
1
2
-2
1
2
-10
-1
10
3
-4
-2
-1
-4
-2
-1
3
0
-1
5
-1
-2
2
-7
-15
-14
-6
0
1
-1
-7
3
13
16
4
1
-4
-1
2
0
-7
-5
-1
-3
-4
-1
2
6
3
10
8
2
3
0
-2
0
-1
-5
1
4
0
-1
-2
0
4
5
-9
1
1
1
1
3
-3
-15
-5
-2
-5
0
0
-4
-7
0
4
2
0
0
-2
-6
5
1
0
-3
0
-1
0
11
-4
2
0
0
-2
-1
-3
-13
-8
-11
-4
-4
1
0
3
6
4
-8
-10
-7
-4
0
9
-6
-8
-1
-3
-2
2
-2
-3
9
-1
24
12
8
5
3
-4
-1
1
9
3
5
0
2
-3
0
6
1
6
-1
1
-1
0
5
3
-15
-3
0
-1
-1
6
-13
4
1
0
-2
-1
-2
1
-3
-20
2
-1
-5
-2
-2
-3
-1
20
-4
-3
1
0
-1
-3
-1
-12
-9
-3
-5
-4
-2
5
-3
-3
-13
-10
-4
0
2
0
4
9
5
-5
-3
0
-1
-1
2
-7
1
-2
-5
-2
-2
-3
-5
10
4
3
3
1
0
-14
-4
0
4
9
2
0
-3
1
-8
-23
-5
1
7
3
0
-2
1
9
-1
-4
0
0
-1
-2
6
-3
4
-1
-8
-3
-2
3
-2
-1
-13
-8
-1
-3
-1
4
2
12
6
6
-2
0
-2
-3
-2
4
17
4
0
1
-2
-5
-5
-8
-6
-7
-7
13
1
2
-2
2
-2
0
8
-14
-2
-6
0
-16
-19
2
9
31
0
-2
-3
1
9
1
1
-5
-1
-4
6
3
2
3
-9
-45
-4
-4
-6
-11
-6
-6
-9
15
1
0
1
11
2
-6
3
-10
-2
-16
13
-3
-6
-4
-2
8
1
0
-1
-26
-3
2
8
15
1
3
0
9
1
1
-4
-5
-3
1
4
0
16
10
4
0
2
9
-13
-41
-3
1
-4
1
0
-2
13
10
6
-6
-15
-10
-3
2
-1
0
-10
-3
13
3
2
4
-6
7
-1
2
-4
-1
-2
0
-5
14
0
-3
0
-7
-2
-1
-8
-14
-7
-8
-3
1
-2
5
-1
-1
0
10
-12
-5
-4
0
16
26
8
-2
8
-4
1
-2
-14
-15
-4
1
2
27
1
-3
-5
-8
3
6
10
-31
-1
-3
-7
-8
-9
-8
-3
2
0
0
2
-8
-6
-4
-4
-8
-1
2
5
10
-5
-9
-5
-3
-1
10
1
9
-1
-6
16
63
3
0
1
-5
1
7
18
-18
-1
-3
-3
-2
13
5
-41
-56
-3
1
5
10
-3
3
0
-11
-2
-6
-5
13
3
3
0
2
2
-2
1
-3
-6
-5
2
17
0
0
-4
-8
-5
-7
14
27
-1
3
3
9
2
-1
-2
-11
-2
-2
-3
-2
-2
2
0
-2
-2
4
-1
-12
-2
-12
-16
8
-2
-15
0
36
10
5
15
-8
-2
-7
-7
-60
-9
12
5
1
1
-2
3
6
0
3
7
1
0
-6
1
0
9
6
-6
-3
0
7
-4
4
-4
-8
-10
2
-2
3
-1
19
-2
-8
-5
-5
-2
-5
-5
-7
-1
-3
-5
-3
-2
1
1
-3
-4
-10
-6
-7
-2
0
-7
-19
-9
-8
-7
3
-2
0
8
7
6
11
16
18
0
1
-7
18
0
6
1
26
3
-5
-5
-2
9
3
-14
-71
-4
-2
-5
-17
-10
-5
2
10
-1
2
0
-1
-6
-10
-6
-7
-4
2
3
3
5
-2
-2
3
-3
1
3
7
3
8
10
25
3
-1
0
-4
-1
1
0
-3
-1
2
1
17
4
-7
-9
-6
-1
-4
-8
-25
-7
-3
1
-5
-3
-5
-7
-7
-11
-3
4
7
-1
1
-1
-5
4
3
-3
-6
-1
0
0
19
-1
-2
-3
2
-2
6
0
-2
-3
-3
-6
-14
1
1
3
0
-3
-4
2
6
0
-1
-2
-4
-5
3
-4
4
0
-1
0
-3
0
0
-3
-6
-2
0
2
4
2
-2
-7
-10
0
-2
-1
-3
4
1
2
6
0
4
13
6
2
1
4
7
1
-2
-5
9
-4
-2
-1
-4
0
-6
-2
-12
3
0
-3
-7
-1
1
-2
0
-7
-4
-4
7
-2
-1
-6
0
0
-5
2
-2
-3
-4
-1
-11
1
2
0
-6
0
-2
1
6
0
0
1
0
-1
-3
4
8
0
-4
-2
1
0
-1
-2
-9
-6
-6
-2
-2
-3
0
-4
1
0
-2
-4
-3
-2
0
6
4
2
2
0
1
-2
-4
-6
-12
-5
-3
-2
0
-2
0
-1
3
-1
2
-1
0
-1
0
-1
-4
1
-3
-2
0
4
-2
-1
0
1
1
-1
-5
-1
4
10
3
6
2
-6
2
1
-4
-18
-9
-4
-1
9
1
-1
-1
-7
-3
-4
1
-6
0
0
-2
0
-5
-2
-3
1
-4
-4
2
0
-13
-5
-4
-3
1
-2
1
5
12
-1
-5
-9
-3
-2
-3
-3
8
6
2
6
0
-1
0
1
-13
-4
1
-2
-3
-1
-8
-7
-32
-7
-9
-1
-2
0
-2
-1
4
4
1
0
1
1
0
-3
-17
-2
2
-2
-5
-4
4
8
38
1
1
-3
0
0
-2
-20
-11
-3
0
1
-2
-2
3
29
-14
-5
-6
1
0
2
-3
-8
-5
-1
-4
-4
-1
-1
1
-5
13
0
5
6
2
0
4
10
41
4
-3
-25
-4
1
-5
-9
-13
2
-1
14
2
-4
0
4
-9
-3
-1
1
0
0
-3
-1
-3
-1
-6
-5
-2
-2
1
-4
6
2
3
3
3
2
5
7
6
-3
0
-12
-2
0
-2
5
29
2
-1
0
0
-1
-6
-14
-35
-4
-1
-6
-4
0
-3
4
13
3
1
8
2
0
-1
-7
-6
2
3
0
-2
-5
1
-4
-14
-1
0
6
2
0
-4
-1
16
-10
-8
-7
-3
-1
0
1
-6
4
3
5
2
0
0
-3
-2
1
7
0
2
4
-1
4
6
2
-1
0
0
-1
0
-3
8
5
3
-2
-1
-2
0
1
-10
-10
-3
1
0
-2
0
-2
5
1
-4
-3
-1
-2
-1
4
5
4
-3
-1
0
2
2
3
-6
3
0
3
1
0
1
-8
12
1
4
-3
-1
-5
-5
-5
-17
-4
-8
-5
-7
0
-4
3
5
-1
2
10
2
0
1
7
4
3
0
1
0
0
0
-9
-1
-4
0
-12
-1
-1
-1
-1
22
-4
-5
-1
-4
-3
-1
2
17
3
3
-7
-2
0
0
-2
-13
4
1
17
-2
-3
-1
5
13
-10
-2
-3
-2
0
2
-9
-76
-4
-3
-13
-1
3
-6
-12
-17
-4
-11
-20
-8
-9
-4
-5
8
2
6
25
9
3
1
6
20
12
-3
-17
-12
-17
3
7
1
-11
6
26
19
9
4
-3
60
12
4
-2
4
8
-10
-14
-74
-18
-8
-16
1
2
0
1
11
4
-10
-27
-2
6
-5
-4
-39
-7
3
14
-19
-21
2
-14
-32
-9
-2
7
-3
1
11
25
33
7
3
10
3
13
-17
-5
38
11
9
16
12
-27
5
30
68
6
-2
-11
-10
-14
-5
-14
-99
-25
-11
-21
-1
15
1
-59
-54
-16
-6
6
13
17
3
-10
45
5
5
3
-25
11
8
21
1
7
-12
-9
36
-28
-24
-17
72
15
-1
18
-45
-13
31
37
-3
-5
-6
-15
90
20
6
-107
-76
-25
5
12
-103
-64
-9
-6
10
47
25
14
51
29
1
116
56
9
3
-27
23
82
-18
-93
-107
-56
-20
11
41
-91
5
47
88
19
-39
-58
-38
37
-19
62
32
21
1
86
-11
-117
27
77
-6
7
38
12
-53
-39
-38
-57
32
-36
-5
-47
-39
45
-18
-3
-128
-36
-15
-87
-6
52
41
23
85
34
19
73
63
127
6
0
49
36
-40
-4
-28
-37
-23
10
-7
-2
0
88
104
-15
37
89
28
-12
26
-22
-91
-126
8
-94
-38
-28
28
-14
44
16
54
2
44
66
39
68
75
68
-62
-68
-36
-16
-66
-125
-90
21
62
81
34
-29
-32
-6
-2
-20
-64
-60
-37
-84
84
53
14
-20
44
92
-56
-87
14
21
25
-10
-2
62
-8
127
75
17
-22
-8
82
-37
93
57
29
39
117
125
-43
-47
-72
-58
-128
-128
-128
-100
-16
-38
60
5
-29
40
-6
62
-15
25
-40
-94
-32
32
4
21
10
55
56
26
-5
56
29
1
53
24
-10
-4
59
-39
-11
42
31
-25
-58
-111
1
26
76
105
3
65
108
127
73
21
-30
-37
-36
74
105
19
5
39
-18
27
-12
-56
-9
74
-59
-16
1
-4
-24
-94
-96
-48
-23
-65
9
22
17
127
95
-3
-7
4
-39
-18
-48
-128
-81
8
53
64
87
-11
32
123
105
0
-26
-104
-69
-14
-112
-128
-27
79
-8
-29
-16
-106
127
116
103
-7
9
-46
-8
-23
-83
-128
-128
-113
-98
-48
3
-24
-39
81
50
93
0
-18
50
38
-21
-59
-59
-52
11
23
-5
-74
-16
-31
86
19
4
-37
-24
-9
-35
-13
-20
32
33
70
16
-57
77
61
-36
-19
-10
29
-11
0
51
43
-39
-4
0
-35
14
29
-26
-86
50
-32
-34
19
-59
6
-42
-57
-128
-98
2
6
54
111
29
6
127
35
16
51
39
-55
-34
84
10
51
17
3
-72
-77
14
39
-31
0
5
-56
-13
-7
-39
-54
-13
-67
-38
-29
14
-11
-43
-38
77
23
13
14
-29
14
23
66
31
-6
-18
-36
-13
30
-2
9
127
75
0
-16
58
92
13
22
27
14
-16
-22
-66
-13
-34
-11
-128
-82
28
-1
-2
-66
42
50
105
50
14
43
10
18
16
-17
-128
-8
26
22
19
41
-10
123
-12
1
0
20
7
-80
48
81
21
5
-26
-47
58
64
-41
-128
85
0
22
26
-96
-101
-12
2
37
-50
3
54
37
-7
12
-2
6
51
-23
-66
-32
1
-35
-79
-31
24
50
47
1
4
20
127
-37
0
-38
-19
33
27
-3
15
3
14
-4
-19
-54
-85
29
24
123
24
29
-38
24
-12
-51
-84
-32
2
13
59
-63
-23
18
40
-21
43
12
-22
77
13
-26
-75
-95
-30
13
27
-34
42
38
127
77
9
-23
4
54
32
-47
-93
-54
-77
-27
-10
-45
-25
28
99
127
43
7
-16
-20
-18
7
11
53
-9
-23
12
69
8
27
-4
-87
-3
25
-7
-78
25
-13
-51
85
-7
-13
-12
33
-30
-41
-112
-29
-57
-17
15
65
68
-22
53
46
30
2
-72
-64
-92
8
-13
63
24
31
99
56
19
45
120
-18
1
-23
-30
-33
46
-40
-119
-16
1
-24
-13
42
6
-1
-59
41
-39
14
25
-52
8
43
46
-91
34
29
-4
3
-41
-21
-30
6
-30
-19
45
85
66
21
127
-3
23
-16
-53
-47
-10
25
37
-43
-15
-27
-39
10
40
-24
-36
77
-17
-13
-2
-10
-7
41
18
-23
18
25
27
31
31
-15
-86
27
14
40
16
-33
-32
31
55
-59
3
-7
27
25
46
-16
-32
56
-12
-25
-25
-5
59
15
-17
-110
6
1
-37
-23
-35
-23
-57
49
-33
-7
-12
-48
5
17
22
-13
4
12
18
-3
-32
-40
-41
-110
-24
-1
20
19
40
28
70
127
50
9
-9
-25
-4
-1
69
-39
-28
3
-6
2
-15
54
-25
40
15
-28
74
127
59
4
-26
-14
-23
4
-57
-107
-33
-8
36
80
22
43
17
10
25
-84
-48
-128
-56
-44
-32
-35
-105
-32
-45
-47
-16
1
-7
-4
-3
32
122
71
52
-10
15
42
25
-15
31
-26
-43
-18
-21
-26
-15
27
-4
60
-5
19
24
13
12
-33
-7
6
-11
23
16
21
-71
-15
-52
-71
3
21
-34
-13
-17
10
9
118
18
-7
-10
-55
25
8
-50
-108
-36
-45
5
16
56
-12
-21
93
-8
-17
-39
-56
-47
18
15
0
45
23
52
89
9
14
-9
15
-39
-4
-64
-54
17
0
-38
73
71
20
23
25
-1
-10
-12
-123
-36
-17
-18
-20
-7
27
39
92
30
16
21
40
44
-68
-111
-128
-62
-63
-31
-31
-57
-9
-3
-63
-15
15
5
-4
-15
26
-53
97
12
-20
-50
5
14
-15
55
38
23
25
61
21
6
44
90
-68
23
33
14
14
21
0
-42
115
64
30
-16
16
35
-14
30
-92
-72
-34
38
0
-12
20
50
115
22
-6
-53
48
84
-51
-96
-101
-68
-59
6
0
-55
39
107
67
27
20
-15
-31
0
-22
49
23
30
25
11
5
-11
8
49
-35
-5
-9
6
-18
-19
29
-43
4
-17
15
60
127
40
-2
-24
65
6
-8
-57
-86
-46
13
-13
64
27
26
43
7
42
-54
44
-120
-42
-18
-5
-27
-47
16
-66
64
7
2
-11
21
36
-9
-74
-44
6
-24
4
7
24
7
-6
-77
-24
5
51
64
-33
-14
74
68
-9
-23
-98
-109
-49
-3
-56
-1
42
16
34
-41
-23
12
76
-73
-1
27
13
17
-8
-25
-46
9
-16
-10
-17
-57
5
5
-59
-40
-21
-10
42
3
-21
-36
-26
-5
16
-39
-57
-26
-11
5
-58
-30
-74
2
-5
12
-42
-21
3
40
49
-8
-14
-23
-24
-2
-47
20
19
13
42
13
-59
45
127
37
43
30
-44
-70
-35
-9
-70
-72
-62
-29
47
72
62
-21
0
111
24
1
-33
-65
-29
-31
-82
-115
3
1
4
12
37
41
-18
-45
-13
-4
17
3
56
30
104
79
42
-3
12
79
-7
25
61
-89
-31
14
-18
-60
15
6
-46
110
-1
12
-1
-30
22
-48
-38
35
4
4
13
61
-37
20
38
-77
9
-23
-14
-54
-23
-17
-7
-29
-42
-23
-35
35
57
28
36
79
54
28
27
-9
-53
14
42
-60
-30
4
23
12
0
-1
-12
107
-16
-15
29
29
-6
34
127
-5
22
30
-13
46
51
-30
-85
-41
44
21
16
7
6
7
46
-34
-9
-18
-26
-26
48
-17
-46
-13
65
9
9
28
23
-9
13
64
-56
-27
-16
-71
-70
-8
9
19
-4
0
16
60
-5
-32
-19
-63
-23
-3
20
-48
-25
-18
11
29
0
3
-15
21
-2
15
-26
21
31
11
-23
3
4
26
-85
-9
-36
-5
6
-6
3
-19
10
45
32
12
-21
19
7
59
98
15
13
16
37
15
23
-81
-72
27
23
-31
-36
-24
-16
29
46
-46
-21
-8
8
-21
3
10
63
-3
-5
-11
-53
-22
3
-18
-107
8
-3
35
21
6
-26
73
114
21
24
29
73
85
39
0
34
91
9
-6
-24
-22
81
-55
-120
-73
-1
-17
15
-20
-69
-1
100
13
-52
-35
-9
-13
-15
12
52
4
21
5
-53
-13
33
-14
-55
-117
-37
-9
12
1
-34
32
52
78
-23
2
4
11
-35
-19
-36
76
53
16
-32
-116
-55
44
5
24
-25
-14
-14
21
23
-6
-20
-91
18
-5
20
60
12
33
15
127
19
12
1
-4
5
1
36
-62
-51
-20
-9
-20
6
-11
-38
-19
3
10
19
-5
-20
-17
-41
90
-9
16
-22
19
-4
-1
23
-67
10
14
47
7
-35
-22
-98
-111
-35
-22
10
-10
-12
11
15
14
41
-16
-34
-15
-30
1
-37
-33
-61
-33
-31
-65
10
-4
68
-7
2
8
21
82
100
-14
-87
64
33
9
-14
16
-10
-9
76
15
28
5
29
-33
-51
-6
-31
25
1
17
17
64
8
34
24
32
-53
-22
-33
-43
30
7
-59
-128
-15
10
7
22
22
-25
23
-61
39
27
46
9
53
11
62
53
-2
-20
-17
-11
-26
-26
-106
38
19
4
18
46
-4
34
127
98
-6
14
-21
-42
-15
8
-75
-30
-13
-17
-38
-3
60
1
8
-76
-16
-19
16
6
-9
4
16
84
7
7
-5
2
-44
-12
0
-66
3
-11
7
41
40
-27
-63
4
1
-21
3
-28
-46
22
85
-32
18
-2
-7
28
-18
7
-15
17
-19
15
5
-38
70
-30
-20
47
16
27
-5
-45
-70
3
-39
-12
-48
15
22
57
-1
6
2
32
30
-13
-13
-25
-18
2
85
-62
50
-17
10
26
-5
7
9
78
-22
-6
-16
5
26
-27
48
-42
10
-8
3
32
-14
3
-52
-52
-25
14
-61
-116
-62
-30
-90
-4
31
31
26
85
70
28
127
77
14
-9
-3
-52
2
-20
-49
-29
-41
-26
2
17
-63
2
-38
46
18
9
34
31
81
9
52
41
-5
-3
-1
28
-39
-35
13
-127
-53
-31
-17
-23
-2
21
63
19
24
42
17
19
34
-25
-68
-83
-76
-22
-16
-20
-36
-2
32
38
19
-2
40
17
22
-1
-40
41
25
-9
-61
9
19
12
29
-27
10
12
12
-8
-10
12
94
49
21
20
9
-21
-2
-3
-31
-5
-6
8
-9
-1
-21
-7
-49
-77
-12
-13
-20
15
17
36
-85
13
-28
-29
39
-7
25
-18
31
123
21
11
-13
-51
-30
-4
-87
34
-39
-28
-42
-27
-2
3
10
-21
29
22
29
21
23
28
-3
28
13
11
4
-20
-51
-11
20
-49
-1
-20
-3
56
21
18
89
-12
-30
5
8
-12
-10
-17
-74
-30
2
-7
-29
-59
2
-9
-26
-32
31
7
0
7
17
13
83
19
22
-16
52
54
18
-24
-17
-31
-8
6
-68
-47
5
9
-60
127
9
1
28
60
-45
-7
68
-62
-50
-43
-31
-39
-27
-5
-14
31
-14
20
-6
-36
-34
-31
-61
-67
-26
-8
30
25
-14
11
5
18
46
26
31
29
41
-7
27
63
-1
-6
-14
-4
39
-11
-45
-82
-22
-13
-30
-28
-18
3
21
-1
4
-18
11
31
1
-6
37
29
17
2
48
-31
0
-19
-10
-31
-4
29
-2
56
35
-4
37
-38
11
11
-19
-37
-21
5
-7
11
26
11
-16
-59
-17
8
52
-35
-35
-13
21
52
-3
-6
-39
46
6
-5
-16
-11
-13
-19
-87
-28
-16
-17
-14
7
-26
23
9
45
12
-5
46
33
2
3
69
25
8
-1
-49
-48
-5
-15
-52
-29
-16
8
4
-9
-6
-1
17
46
12
3
41
77
-22
8
8
49
20
-2
-41
-103
23
14
26
-73
-32
6
15
-8
23
-35
-29
-38
-6
1
-7
28
-37
14
24
100
-3
-11
18
36
17
15
-28
-58
39
11
43
-7
-6
-11
-7
23
10
-12
-52
-24
-6
-1
-19
7
-3
11
7
-10
18
0
8
-17
9
-4
-4
2
-6
5
32
49
-15
-18
-26
7
-15
-7
-34
-16
-15
-2
13
21
4
11
25
-21
-3
-5
1
15
20
9
25
16
-4
12
-12
-12
17
-17
-21
-35
-26
1
-2
-8
-21
-1
-12
-18
4
-8
8
13
-5
11
32
36
-1
0
-7
-13
3
-13
-62
-14
0
-7
-13
-10
18
-1
14
7
-11
-20
-33
-5
-2
-16
20
30
34
29
25
11
-8
-1
-46
-15
-6
-3
29
61
2
16
34
-10
0
7
-14
-74
4
-2
25
-23
-15
-8
-4
22
-5
-1
-56
13
-14
-4
-21
24
-14
-9
-25
0
8
-6
3
-35
-13
4
19
-4
4
9
40
20
17
-13
-8
-6
3
5
-3
1
-4
6
17
-9
-18
-5
-6
-7
-3
-1
-19
-1
8
-6
-10
36
7
6
6
32
-1
5
-14
-55
3
6
-2
-19
-5
-10
-12
-10
1
-5
-2
-14
0
10
15
12
0
10
-3
11
4
0
-2
-9
4
-14
-4
-5
-1
-3
-9
17
6
-9
17
-10
3
6
13
12
-4
7
-27
-28
5
-5
2
-4
0
-2
5
24
-4
-1
-5
-27
-4
4
-3
11
-10
-2
-8
20
6
43
-6
-28
-6
6
3
-2
6
-14
6
7
-2
-11
-2
1
-3
-4
18
6
15
5
-5
-27
0
-6
-3
2
3
-2
0
17
6
5
-4
-8
8
0
-3
8
-1
11
-1
-15
-35
-11
1
-10
-4
5
-5
-19
-5
-1
-1
-9
-4
4
-5
28
15
5
-2
14
4
-14
11
-4
-1
-4
0
-3
0
3
10
0
0
-1
1
1
0
-11
-11
2
7
3
-7
-14
-2
1
-4
-17
-3
0
7
11
2
-3
2
5
-3
2
-5
-5
0
-3
-1
5
-1
-5
24
4
-1
5
-4
-5
-7
3
-18
-3
-2
0
2
-6
-9
4
18
5
1
-5
3
6
20
-2
-10
-1
0
2
-2
3
-11
3
4
1
0
0
-3
2
-12
-10
-12
-11
-3
-3
-8
-21
11
0
-9
3
1
-8
3
0
2
2
5
-1
0
1
5
5
3
0
-8
0
-2
3
-4
0
-2
-3
7
-5
-3
0
1
18
-17
-7
-10
1
-3
-1
-3
-9
0
1
5
2
-5
22
-15
-2
-8
-7
-7
-5
1
-11
8
-1
21
1
5
-2
0
-2
-9
-10
0
-4
-4
2
2
0
3
10
-6
0
2
2
-2
4
1
9
-7
-1
-4
-2
-3
-1
-6
-1
-10
0
6
-2
-2
-7
-5
-3
10
-4
-3
2
0
1
5
17
3
7
-2
-1
-1
-11
4
-11
-11
-7
-7
-4
-3
3
1
-19
1
-5
1
-4
1
-5
-3
16
14
3
-6
1
-2
-3
0
-10
0
2
-13
-1
1
-3
5
21
9
9
20
6
2
-1
-3
-31
-14
-2
6
-2
-1
1
-6
-6
-4
-5
-6
-3
0
-3
-1
-10
-1
0
2
-2
0
0
9
20
4
2
-9
-3
-2
-8
-14
-5
1
0
-3
-2
-2
-2
2
-13
-5
-12
-5
1
0
-1
-5
3
-13
-4
-1
-4
-4
-4
6
-14
4
5
-1
0
3
0
2
28
15
3
2
-1
-1
1
0
-12
-4
1
0
-2
0
0
0
5
4
0
2
1
4
-6
0
-4
-4
-2
-1
-2
-2
0
-6
-4
-3
-5
-4
-2
-2
4
0
0
5
-3
-1
-1
1
-2
4
10
-4
-1
5
2
-1
-2
-7
31
6
3
-3
-2
-2
-7
7
-48
-14
-7
-1
-2
0
0
1
-2
2
-3
-3
-1
0
0
-4
-10
0
-2
6
1
0
-3
0
0
7
4
1
1
1
1
1
39
1
1
-3
0
-2
2
-3
-15
-10
-3
-4
-2
-1
-4
0
-5
2
7
9
3
0
-4
-5
-13
-5
-6
-3
-1
-1
5
11
6
-10
-8
-2
-5
-1
-3
-8
1
3
3
-4
-1
-1
7
-11
12
9
4
1
0
-2
-1
-7
-19
-7
-4
0
0
-1
-1
-2
16
4
-3
-1
10
0
-4
9
3
-3
-3
-6
-23
-1
-5
-4
-7
0
-10
-6
-2
-2
1
-1
-8
-8
-5
-6
-4
-2
3
0
2
8
7
-5
2
-1
7
-9
-9
-13
3
10
8
0
-13
2
-8
4
2
2
0
-2
-2
2
-1
-7
-1
-6
-2
-1
1
-4
5
-8
-5
-2
0
-2
-3
-2
-9
-2
-7
-9
0
-3
0
-1
-6
1
-1
1
-2
1
-4
3
1
8
3
3
3
1
-2
1
14
6
1
2
-3
-2
-2
-6
-31
-19
-2
2
2
-2
0
0
9
5
1
-7
-2
-3
-1
-4
-31
-7
-6
-4
-3
-1
3
-3
8
5
6
5
-2
1
1
8
18
14
3
0
5
0
-1
-4
-12
-14
-4
3
0
-1
-3
-1
-10
4
0
3
1
-2
-1
-2
3
-11
-8
-4
-7
-3
-1
-5
-9
1
2
2
4
1
-1
4
17
4
-3
-7
-5
0
-1
1
2
5
4
0
-2
2
1
2
-8
0
-5
1
0
-1
1
0
9
6
2
1
1
0
3
-3
-3
-4
-1
-6
1
-1
-3
2
-2
-3
-1
2
-1
-3
-3
-4
-8
-4
-2
-2
-3
-2
-1
1
10
-6
-2
-1
15
0
0
1
1
5
-1
1
-16
0
1
-2
-5
-5
-9
-9
-1
0
-2
-5
1
1
4
3
2
-1
-1
2
1
8
7
2
-3
-1
-1
6
3
-3
-1
1
8
0
0
-5
3
-4
-2
-2
-1
-3
0
-2
-5
-15
-12
-5
-5
-2
-2
-2
14
11
3
0
2
1
-3
3
-3
0
1
4
1
-1
-1
2
2
0
0
6
-6
0
0
2
-4
5
4
-1
3
1
-4
1
-6
-5
-1
-4
-5
-3
8
-10
2
0
-9
-4
1
1
-2
-2
-3
-6
-1
-2
-2
-3
0
-2
3
-2
-8
-5
-2
-2
-1
8
4
3
10
6
-2
1
-6
-4
-21
-2
12
3
0
-1
0
0
6
14
0
0
3
2
-1
-3
-6
-6
-4
-5
-2
-1
1
0
8
0
-11
-2
-4
-1
-1
0
-3
-8
-3
-3
0
-1
2
-1
2
-3
0
-4
-2
0
-2
0
4
7
9
4
1
0
0
-8
-26
-6
-1
3
-2
-1
0
4
22
-1
-3
-4
2
-1
-2
-2
-18
-11
-8
-5
-2
-1
-1
-7
-4
1
-13
-8
-6
-2
0
0
-3
3
12
-3
-1
1
-2
0
-2
-1
1
11
4
1
5
0
0
2
1
-1
1
1
-2
-3
1
1
5
5
3
1
-1
-2
-5
-9
-8
-5
-1
0
-3
-4
-9
-1
-3
-8
-2
-2
0
2
7
-3
-4
-4
-1
-1
1
-1
-10
-10
-6
-2
-2
-1
0
-1
3
21
9
4
0
0
