-0.5038516083362048
-0.036586580993076184
0.5743640373062274
-0.5038516083362048
-0.036586580993076184
0.5743640373062274
-0.5038516083362048
-0.036586580993076184
0.5743640373062274
-0.5038516083362048
-0.036586580993076184
0.5743640373062274
-0.5038516083362048
-0.036586580993076184
0.5743640373062274
-0.5038516083362048
-0.036586580993076184
0.5743640373062274
-0.5038516083362048
-0.036586580993076184
0.5743640373062274
-0.5038516083362048
-0.036586580993076184
0.5743640373062274
-0.5038516083362048
-0.036586580993076184
0.5743640373062274
-0.5038516083362048
-0.036586580993076184
0.5743640373062274
-0.5038516083362048
-0.036586580993076184
0.5743640373062274
-0.5038516083362048
-0.036586580993076184
0.5743640373062274
-0.5039131465985034
-0.03678317358781194
0.5745369294554298
-0.5039131465985034
-0.03678317358781194
0.5745369294554298
-0.5039131465985034
-0.03678317358781194
0.5745369294554298
-0.5039131465985034
-0.03678317358781194
0.5745369294554298
-0.5039131465985034
-0.03678317358781194
0.5745369294554298
-0.5039131465985034
-0.03678317358781194
0.5745369294554298
-0.5039131465985034
-0.03678317358781194
0.5745369294554298
-0.5039131465985034
-0.03678317358781194
0.5745369294554298
-0.5037998801962337
-0.03681719836231574
0.5745434677042501
-0.5037998801962337
-0.03681719836231574
0.5745434677042501
-0.5037998801962337
-0.03681719836231574
0.5745434677042501
-0.5037998801962337
-0.03681719836231574
0.5745434677042501
-0.5037998801962337
-0.03681719836231574
0.5745434677042501
-0.5037998801962337
-0.03681719836231574
0.5745434677042501
-0.5037998801962337
-0.03681719836231574
0.5745434677042501
-0.5037998801962337
-0.03681719836231574
0.5745434677042501
-0.5036866106400879
-0.0368512248483187
0.5745500022912885
-0.5036866106400879
-0.0368512248483187
0.5745500022912885
-0.5036866106400879
-0.0368512248483187
0.5745500022912885
-0.5036866106400879
-0.0368512248483187
0.5745500022912885
-0.5037271884428223
-0.03699420595310347
0.5744665367401101
-0.5037271884428223
-0.03699420595310347
0.5744665367401101
-0.5037271884428223
-0.03699420595310347
0.5744665367401101
-0.5037271884428223
-0.03699420595310347
0.5744665367401101
-0.503613913824857
-0.0370282317126129
0.574473059098242
-0.503613913824857
-0.0370282317126129
0.574473059098242
-0.503613913824857
-0.0370282317126129
0.574473059098242
-0.503613913824857
-0.0370282317126129
0.574473059098242
-0.5034708392120646
-0.03706877069351021
0.5744455279175931
-0.5034708392120646
-0.03706877069351021
0.5744455279175931
-0.5034708392120646
-0.03706877069351021
0.5744455279175931
-0.5034708392120646
-0.03706877069351021
0.5744455279175931
-0.5034708392120646
-0.03706877069351021
0.5744455279175931
-0.5034708392120646
-0.03706877069351021
0.5744455279175931
-0.5034708392120646
-0.03706877069351021
0.5744455279175931
-0.5034708392120646
-0.03706877069351021
0.5744455279175931
-0.5033575637000458
-0.03710279620231584
0.5744520411974249
-0.5033575637000458
-0.03710279620231584
0.5744520411974249
-0.5033575637000458
-0.03710279620231584
0.5744520411974249
-0.5033575637000458
-0.03710279620231584
0.5744520411974249
-0.503240501089559
-0.03726238254479311
0.5739713724887429
-0.503240501089559
-0.03726238254479311
0.5739713724887429
-0.503240501089559
-0.03726238254479311
0.5739713724887429
-0.503240501089559
-0.03726238254479311
0.5739713724887429
-0.5031000425112746
-0.03745815361760501
0.573343360711682
-0.5031000425112746
-0.03745815361760501
0.573343360711682
-0.5031000425112746
-0.03745815361760501
0.573343360711682
-0.5031000425112746
-0.03745815361760501
0.573343360711682
-0.5028980060467024
-0.03745711957760656
0.5725424649989099
-0.5028980060467024
-0.03745711957760656
0.5725424649989099
-0.5028980060467024
-0.03745711957760656
0.5725424649989099
-0.5028980060467024
-0.03745711957760656
0.5725424649989099
-0.5027649586374355
-0.03740447903050269
0.57133143953069
-0.5027649586374355
-0.03740447903050269
0.57133143953069
-0.5027649586374355
-0.03740447903050269
0.57133143953069
-0.5027649586374355
-0.03740447903050269
0.57133143953069
-0.5029511108157589
-0.03719657222647084
0.569844665857062
-0.5029511108157589
-0.03719657222647084
0.569844665857062
-0.5029511108157589
-0.03719657222647084
0.569844665857062
-0.5029511108157589
-0.03719657222647084
0.569844665857062
-0.5039738918429619
-0.036806419288170085
0.5681198037428344
-0.5039738918429619
-0.036806419288170085
0.5681198037428344
-0.5039738918429619
-0.036806419288170085
0.5681198037428344
-0.5039738918429619
-0.036806419288170085
0.5681198037428344
-0.5057836308601169
-0.03594365483115452
0.5663566206185875
-0.5057836308601169
-0.03594365483115452
0.5663566206185875
-0.5057836308601169
-0.03594365483115452
0.5663566206185875
-0.5057836308601169
-0.03594365483115452
0.5663566206185875
-0.5081894508601721
-0.034940478353172696
0.56555322460041
-0.5081894508601721
-0.034940478353172696
0.56555322460041
-0.5081894508601721
-0.034940478353172696
0.56555322460041
-0.5081894508601721
-0.034940478353172696
0.56555322460041
-0.5120503224322085
-0.03407183074170308
0.5646350198034279
-0.5120503224322085
-0.03407183074170308
0.5646350198034279
-0.5120503224322085
-0.03407183074170308
0.5646350198034279
-0.5120503224322085
-0.03407183074170308
0.5646350198034279
-0.5189531765325301
-0.03227078491831979
0.5629285434970743
-0.5189531765325301
-0.03227078491831979
0.5629285434970743
-0.5189531765325301
-0.03227078491831979
0.5629285434970743
-0.5189531765325301
-0.03227078491831979
0.5629285434970743
-0.5324095735752188
-0.030069184876446393
0.5617573196325826
-0.5324095735752188
-0.030069184876446393
0.5617573196325826
-0.5324095735752188
-0.030069184876446393
0.5617573196325826
-0.5324095735752188
-0.030069184876446393
0.5617573196325826
-0.5557357782063098
-0.028356730879814097
0.5601895776451258
-0.5557357782063098
-0.028356730879814097
0.5601895776451258
-0.5557357782063098
-0.028356730879814097
0.5601895776451258
-0.5557357782063098
-0.028356730879814097
0.5601895776451258
-0.5864103332582971
-0.02754514704947167
0.5585925331041123
-0.5864103332582971
-0.02754514704947167
0.5585925331041123
-0.5864103332582971
-0.02754514704947167
0.5585925331041123
-0.5864103332582971
-0.02754514704947167
0.5585925331041123
-0.6202214048403802
-0.02803254201775713
0.5554404074571264
-0.6202214048403802
-0.02803254201775713
0.5554404074571264
-0.6202214048403802
-0.02803254201775713
0.5554404074571264
-0.6202214048403802
-0.02803254201775713
0.5554404074571264
-0.6569823398715438
-0.028803995607129224
0.551145721014025
-0.6569823398715438
-0.028803995607129224
0.551145721014025
-0.6569823398715438
-0.028803995607129224
0.551145721014025
-0.6569823398715438
-0.028803995607129224
0.551145721014025
-0.6995498638229714
-0.029835825272058875
0.545314183435144
-0.6995498638229714
-0.029835825272058875
0.545314183435144
-0.6995498638229714
-0.029835825272058875
0.545314183435144
-0.6995498638229714
-0.029835825272058875
0.545314183435144
-0.7504820757624465
-0.03053543335382743
0.5383301858371999
-0.7504820757624465
-0.03053543335382743
0.5383301858371999
-0.7504820757624465
-0.03053543335382743
0.5383301858371999
-0.7504820757624465
-0.03053543335382743
0.5383301858371999
-0.8043785101562415
-0.02999533492426275
0.5317088163227023
-0.8043785101562415
-0.02999533492426275
0.5317088163227023
-0.8043785101562415
-0.02999533492426275
0.5317088163227023
-0.8043785101562415
-0.02999533492426275
0.5317088163227023
-0.8415657382962652
-0.030553712484018926
0.5233860927167584
-0.8415657382962652
-0.030553712484018926
0.5233860927167584
-0.8415657382962652
-0.030553712484018926
0.5233860927167584
-0.8415657382962652
-0.030553712484018926
0.5233860927167584
-0.8593284344491896
-0.03206141623514298
0.5144526961225656
-0.8593284344491896
-0.03206141623514298
0.5144526961225656
-0.8593284344491896
-0.03206141623514298
0.5144526961225656
-0.8593284344491896
-0.03206141623514298
0.5144526961225656
-0.8685795956317427
-0.03405633595533133
0.5052650692388504
-0.8685795956317427
-0.03405633595533133
0.5052650692388504
-0.8685795956317427
-0.03405633595533133
0.5052650692388504
-0.8685795956317427
-0.03405633595533133
0.5052650692388504
-0.8807772070563504
-0.03547366205500315
0.4992782890991509
-0.8807772070563504
-0.03547366205500315
0.4992782890991509
-0.8807772070563504
-0.03547366205500315
0.4992782890991509
-0.8807772070563504
-0.03547366205500315
0.4992782890991509
-0.896121372827965
-0.03620536584549136
0.495074541067561
-0.896121372827965
-0.03620536584549136
0.495074541067561
-0.896121372827965
-0.03620536584549136
0.495074541067561
-0.896121372827965
-0.03620536584549136
0.495074541067561
-0.9080305439826759
-0.03701892706910057
0.4908587904008187
-0.9080305439826759
-0.03701892706910057
0.4908587904008187
-0.9080305439826759
-0.03701892706910057
0.4908587904008187
-0.9080305439826759
-0.03701892706910057
0.4908587904008187
-0.9144489169556772
-0.037780998890203026
0.4864039138808919
-0.9144489169556772
-0.037780998890203026
0.4864039138808919
-0.9144489169556772
-0.037780998890203026
0.4864039138808919
-0.9144489169556772
-0.037780998890203026
0.4864039138808919
-0.918939331761102
-0.039213515395758014
0.4818741903086303
-0.918939331761102
-0.039213515395758014
0.4818741903086303
-0.918939331761102
-0.039213515395758014
0.4818741903086303
-0.918939331761102
-0.039213515395758014
0.4818741903086303
-0.9245726605950314
-0.04095290379536943
0.4779429524721398
-0.9245726605950314
-0.04095290379536943
0.4779429524721398
-0.9245726605950314
-0.04095290379536943
0.4779429524721398
-0.9245726605950314
-0.04095290379536943
0.4779429524721398
-0.9307205758644022
-0.04225293888628772
0.4746941846943146
-0.9307205758644022
-0.04225293888628772
0.4746941846943146
-0.9307205758644022
-0.04225293888628772
0.4746941846943146
-0.9307205758644022
-0.04225293888628772
0.4746941846943146
-0.9340386435623488
-0.04279255765230214
0.4715082355880183
-0.9340386435623488
-0.04279255765230214
0.4715082355880183
-0.9340386435623488
-0.04279255765230214
0.4715082355880183
-0.9340386435623488
-0.04279255765230214
0.4715082355880183
-0.9358099730097186
-0.04275746718897574
0.46823501180800053
-0.9358099730097186
-0.04275746718897574
0.46823501180800053
-0.9358099730097186
-0.04275746718897574
0.46823501180800053
-0.9358099730097186
-0.04275746718897574
0.46823501180800053
-0.9374775525048794
-0.04247303392090089
0.46552730805983333
-0.9374775525048794
-0.04247303392090089
0.46552730805983333
-0.9374775525048794
-0.04247303392090089
0.46552730805983333
-0.9374775525048794
-0.04247303392090089
0.46552730805983333
-0.9401505276114904
-0.04212261847666331
0.4633306824221188
-0.9401505276114904
-0.04212261847666331
0.4633306824221188
-0.9401505276114904
-0.04212261847666331
0.4633306824221188
-0.9401505276114904
-0.04212261847666331
0.4633306824221188
-0.9419699471271824
-0.041923145434855896
0.4615259999238452
-0.9419699471271824
-0.041923145434855896
0.4615259999238452
-0.9419699471271824
-0.041923145434855896
0.4615259999238452
-0.9419699471271824
-0.041923145434855896
0.4615259999238452
-0.9433117589178476
-0.041614301705893045
0.4595912679117806
-0.9433117589178476
-0.041614301705893045
0.4595912679117806
-0.9433117589178476
-0.041614301705893045
0.4595912679117806
-0.9433117589178476
-0.041614301705893045
0.4595912679117806
-0.945258544171838
-0.041504530414726674
0.4575640213795675
-0.945258544171838
-0.041504530414726674
0.4575640213795675
-0.945258544171838
-0.041504530414726674
0.4575640213795675
-0.945258544171838
-0.041504530414726674
0.4575640213795675
-0.947384240940368
-0.040965659737774045
0.4554826884919584
-0.947384240940368
-0.040965659737774045
0.4554826884919584
-0.947384240940368
-0.040965659737774045
0.4554826884919584
-0.947384240940368
-0.040965659737774045
0.4554826884919584
-0.9501075516527562
-0.040289447378312956
0.4539672816280448
-0.9501075516527562
-0.040289447378312956
0.4539672816280448
-0.9501075516527562
-0.040289447378312956
0.4539672816280448
-0.9501075516527562
-0.040289447378312956
0.4539672816280448
-0.9529882165354102
-0.03980282378036659
0.45254974938859954
-0.9529882165354102
-0.03980282378036659
0.45254974938859954
-0.9529882165354102
-0.03980282378036659
0.45254974938859954
-0.9529882165354102
-0.03980282378036659
0.45254974938859954
-0.9545550249200103
-0.039740896962703734
0.45063181019546655
-0.9545550249200103
-0.039740896962703734
0.45063181019546655
-0.9545550249200103
-0.039740896962703734
0.45063181019546655
-0.9545550249200103
-0.039740896962703734
0.45063181019546655
-0.9557454782735478
-0.0399891525496334
0.44880496319609625
-0.9557454782735478
-0.0399891525496334
0.44880496319609625
-0.9557454782735478
-0.0399891525496334
0.44880496319609625
-0.9557454782735478
-0.0399891525496334
0.44880496319609625
-0.9580351222294593
-0.03987633010263747
0.4472322127592287
-0.9580351222294593
-0.03987633010263747
0.4472322127592287
-0.9580351222294593
-0.03987633010263747
0.4472322127592287
-0.9580351222294593
-0.03987633010263747
0.4472322127592287
-0.9596654751721608
-0.03952009281322916
0.4461576184674569
-0.9596654751721608
-0.03952009281322916
0.4461576184674569
-0.9596654751721608
-0.03952009281322916
0.4461576184674569
-0.9596654751721608
-0.03952009281322916
0.4461576184674569
-0.9599827479667886
-0.03900421472591472
0.44562788677618165
-0.9599827479667886
-0.03900421472591472
0.44562788677618165
-0.9599827479667886
-0.03900421472591472
0.44562788677618165
-0.9599827479667886
-0.03900421472591472
0.44562788677618165
-0.9616110322791661
-0.038526197100814404
0.4456222863410862
-0.9616110322791661
-0.038526197100814404
0.4456222863410862
-0.9616110322791661
-0.038526197100814404
0.4456222863410862
-0.9616110322791661
-0.038526197100814404
0.4456222863410862
-0.9629425017456714
-0.03822426748542542
0.4456425615519823
-0.9629425017456714
-0.03822426748542542
0.4456425615519823
-0.9629425017456714
-0.03822426748542542
0.4456425615519823
-0.9629425017456714
-0.03822426748542542
0.4456425615519823
-0.9622544563446519
-0.037934399770340806
0.44538719026470297
-0.9622544563446519
-0.037934399770340806
0.44538719026470297
-0.9622544563446519
-0.037934399770340806
0.44538719026470297
-0.9622544563446519
-0.037934399770340806
0.44538719026470297
-0.9615070196992054
-0.037885596312254265
0.44498727946379213
-0.9615070196992054
-0.037885596312254265
0.44498727946379213
-0.9615070196992054
-0.037885596312254265
0.44498727946379213
-0.9615070196992054
-0.037885596312254265
0.44498727946379213
-0.9618940423605022
-0.037127454970197336
0.4449282255904636
-0.9618940423605022
-0.037127454970197336
0.4449282255904636
-0.9618940423605022
-0.037127454970197336
0.4449282255904636
-0.9618940423605022
-0.037127454970197336
0.4449282255904636
-0.9622255459019071
-0.036379862024076066
0.44484399297955024
-0.9622255459019071
-0.036379862024076066
0.44484399297955024
-0.9622255459019071
-0.036379862024076066
0.44484399297955024
-0.9622255459019071
-0.036379862024076066
0.44484399297955024
-0.9617994611602241
-0.035752754367657895
0.4446123500434397
-0.9617994611602241
-0.035752754367657895
0.4446123500434397
-0.9617994611602241
-0.035752754367657895
0.4446123500434397
-0.9617994611602241
-0.035752754367657895
0.4446123500434397
-0.9617948832700806
-0.035251137466874846
0.4444850545879271
-0.9617948832700806
-0.035251137466874846
0.4444850545879271
-0.9617948832700806
-0.035251137466874846
0.4444850545879271
-0.9617948832700806
-0.035251137466874846
0.4444850545879271
-0.9623132665240176
-0.03508088569008367
0.4443314070744826
-0.9623132665240176
-0.03508088569008367
0.4443314070744826
-0.9623132665240176
-0.03508088569008367
0.4443314070744826
-0.9623132665240176
-0.03508088569008367
0.4443314070744826
-0.9623380907223962
-0.03518620011045713
0.44438695795533667
-0.9623380907223962
-0.03518620011045713
0.44438695795533667
-0.9623380907223962
-0.03518620011045713
0.44438695795533667
-0.9623380907223962
-0.03518620011045713
0.44438695795533667
-0.9622327097228369
-0.03521101297341302
0.4443975546216049
-0.9622327097228369
-0.03521101297341302
0.4443975546216049
-0.9622327097228369
-0.03521101297341302
0.4443975546216049
-0.9622327097228369
-0.03521101297341302
0.4443975546216049
-0.9625026458212093
-0.03514505243983953
0.44466749071997724
-0.9625026458212093
-0.03514505243983953
0.44466749071997724
-0.9625026458212093
-0.03514505243983953
0.44466749071997724
-0.9625026458212093
-0.03514505243983953
0.44466749071997724
-0.9631452225530326
-0.035501244789775115
0.4447917074487408
-0.9631452225530326
-0.035501244789775115
0.4447917074487408
-0.9631452225530326
-0.035501244789775115
0.4447917074487408
-0.9631452225530326
-0.035501244789775115
0.4447917074487408
-0.9634813656323716
-0.03548006864249773
0.4449811523746839
-0.9634813656323716
-0.03548006864249773
0.4449811523746839
-0.9634813656323716
-0.03548006864249773
0.4449811523746839
-0.9634813656323716
-0.03548006864249773
0.4449811523746839
-0.9637973822496739
-0.03563029654613509
0.4450960358119504
-0.9637973822496739
-0.03563029654613509
0.4450960358119504
-0.9637973822496739
-0.03563029654613509
0.4450960358119504
-0.9637973822496739
-0.03563029654613509
0.4450960358119504
-0.9637725161223165
-0.035525035616797915
0.4450404063771518
-0.9637725161223165
-0.035525035616797915
0.4450404063771518
-0.9637725161223165
-0.035525035616797915
0.4450404063771518
-0.9637725161223165
-0.035525035616797915
0.4450404063771518
-0.9639239228437736
-0.03571664729004169
0.4448747771706024
-0.9639239228437736
-0.03571664729004169
0.4448747771706024
-0.9639239228437736
-0.03571664729004169
0.4448747771706024
-0.9639239228437736
-0.03571664729004169
0.4448747771706024
-0.9639345229790485
-0.035772252195232716
0.4447694513631476
-0.9639345229790485
-0.035772252195232716
0.4447694513631476
-0.9639345229790485
-0.035772252195232716
0.4447694513631476
-0.9639345229790485
-0.035772252195232716
0.4447694513631476
-0.9639593809635416
-0.035877510185850725
0.44482509407346027
-0.9639593809635416
-0.035877510185850725
0.44482509407346027
-0.9639593809635416
-0.035877510185850725
0.44482509407346027
-0.9639593809635416
-0.035877510185850725
0.44482509407346027
-0.9642553008980723
-0.036423942095629776
0.44501233848783717
-0.9642553008980723
-0.036423942095629776
0.44501233848783717
-0.9642553008980723
-0.036423942095629776
0.44501233848783717
-0.9642553008980723
-0.036423942095629776
0.44501233848783717
-0.9644871922532849
-0.036710268700809595
0.44492738657046793
-0.9644871922532849
-0.036710268700809595
0.44492738657046793
-0.9644871922532849
-0.036710268700809595
0.44492738657046793
-0.9644871922532849
-0.036710268700809595
0.44492738657046793
-0.9645120828673165
-0.036815505511050735
0.4449830717086241
-0.9645120828673165
-0.036815505511050735
0.4449830717086241
-0.9645120828673165
-0.036815505511050735
0.4449830717086241
-0.9645120828673165
-0.036815505511050735
0.4449830717086241
-0.9643510937371069
-0.03685092875887804
0.44496873170594314
-0.9643510937371069
-0.03685092875887804
0.44496873170594314
-0.9643510937371069
-0.03685092875887804
0.44496873170594314
-0.9643510937371069
-0.03685092875887804
0.44496873170594314
-0.9643759904157516
-0.03695616438707548
0.44502440953650146
-0.9643759904157516
-0.03695616438707548
0.44502440953650146
-0.9643759904157516
-0.03695616438707548
0.44502440953650146
-0.9643759904157516
-0.03695616438707548
0.44502440953650146
-0.9646327720406539
-0.037347739836737
0.4449952350819954
-0.9646327720406539
-0.037347739836737
0.4449952350819954
-0.9646327720406539
-0.037347739836737
0.4449952350819954
-0.9646327720406539
-0.037347739836737
0.4449952350819954
-0.964301243627445
-0.03787043860602687
0.44493341798363073
-0.964301243627445
-0.03787043860602687
0.44493341798363073
-0.964301243627445
-0.03787043860602687
0.44493341798363073
-0.964301243627445
-0.03787043860602687
0.44493341798363073
-0.9636334549248026
-0.03863916625303523
0.44482820425997416
-0.9636334549248026
-0.03863916625303523
0.44482820425997416
-0.9636334549248026
-0.03863916625303523
0.44482820425997416
-0.9636334549248026
-0.03863916625303523
0.44482820425997416
-0.9636334549248026
-0.03863916625303523
0.44482820425997416
-0.9636334549248026
-0.03863916625303523
0.44482820425997416
-0.9636334549248026
-0.03863916625303523
0.44482820425997416
-0.9636334549248026
-0.03863916625303523
0.44482820425997416
-0.963970532909969
-0.03890064106427717
0.44473297707191567
-0.963970532909969
-0.03890064106427717
0.44473297707191567
-0.963970532909969
-0.03890064106427717
0.44473297707191567
-0.963970532909969
-0.03890064106427717
0.44473297707191567
-0.963970532909969
-0.03890064106427717
0.44473297707191567
-0.963970532909969
-0.03890064106427717
0.44473297707191567
-0.963970532909969
-0.03890064106427717
0.44473297707191567
-0.963970532909969
-0.03890064106427717
0.44473297707191567
-0.9630667230896065
-0.039388845226473485
0.4444457480815945
-0.9630667230896065
-0.039388845226473485
0.4444457480815945
-0.9630667230896065
-0.039388845226473485
0.4444457480815945
-0.9630667230896065
-0.039388845226473485
0.4444457480815945
-0.9630116883725085
-0.039906741927440134
0.4442820843370322
-0.9630116883725085
-0.039906741927440134
0.4442820843370322
-0.9630116883725085
-0.039906741927440134
0.4442820843370322
-0.9630116883725085
-0.039906741927440134
0.4442820843370322
-0.9633589760752703
-0.04022391729934112
0.4440816427375047
-0.9633589760752703
-0.04022391729934112
0.4440816427375047
-0.9633589760752703
-0.04022391729934112
0.4440816427375047
-0.9633589760752703
-0.04022391729934112
0.4440816427375047
-0.9633589760752703
-0.04022391729934112
0.4440816427375047
-0.9633589760752703
-0.04022391729934112
0.4440816427375047
-0.9633589760752703
-0.04022391729934112
0.4440816427375047
-0.9633589760752703
-0.04022391729934112
0.4440816427375047
-0.962791248357856
-0.04046580510009512
0.4438374053381804
-0.962791248357856
-0.04046580510009512
0.4438374053381804
-0.962791248357856
-0.04046580510009512
0.4438374053381804
-0.962791248357856
-0.04046580510009512
0.4438374053381804
-0.962710841201098
-0.040596002977476564
0.4439033617098014
-0.962710841201098
-0.040596002977476564
0.4439033617098014
-0.962710841201098
-0.040596002977476564
0.4439033617098014
-0.962710841201098
-0.040596002977476564
0.4439033617098014
-0.962710841201098
-0.040596002977476564
0.4439033617098014
-0.962710841201098
-0.040596002977476564
0.4439033617098014
-0.962710841201098
-0.040596002977476564
0.4439033617098014
-0.962710841201098
-0.040596002977476564
0.4439033617098014
-0.9625308423504512
-0.04058745595330897
0.44346133599676024
-0.9625308423504512
-0.04058745595330897
0.44346133599676024
-0.9625308423504512
-0.04058745595330897
0.44346133599676024
-0.9625308423504512
-0.04058745595330897
0.44346133599676024
-0.9613451845757612
-0.04057770965981559
0.4431467236617835
-0.9613451845757612
-0.04057770965981559
0.4431467236617835
-0.9613451845757612
-0.04057770965981559
0.4431467236617835
-0.9613451845757612
-0.04057770965981559
0.4431467236617835
-0.9593501215555599
-0.04069219280277766
0.44292426465048307
-0.9593501215555599
-0.04069219280277766
0.44292426465048307
-0.9593501215555599
-0.04069219280277766
0.44292426465048307
-0.9593501215555599
-0.04069219280277766
0.44292426465048307
-0.9546657861791155
-0.04023112019673888
0.44331408920502713
-0.9546657861791155
-0.04023112019673888
0.44331408920502713
-0.9546657861791155
-0.04023112019673888
0.44331408920502713
-0.9546657861791155
-0.04023112019673888
0.44331408920502713
-0.9410134625874016
-0.04061321165812555
0.4447293395662218
-0.9410134625874016
-0.04061321165812555
0.4447293395662218
-0.9410134625874016
-0.04061321165812555
0.4447293395662218
-0.9410134625874016
-0.04061321165812555
0.4447293395662218
-0.9155763918584598
-0.04079406342535644
0.447297410943632
-0.9155763918584598
-0.04079406342535644
0.447297410943632
-0.9155763918584598
-0.04079406342535644
0.447297410943632
-0.9155763918584598
-0.04079406342535644
0.447297410943632
-0.8798801340746236
-0.039922435849776575
0.4517994518777851
-0.8798801340746236
-0.039922435849776575
0.4517994518777851
-0.8798801340746236
-0.039922435849776575
0.4517994518777851
-0.8798801340746236
-0.039922435849776575
0.4517994518777851
-0.8401197399696327
-0.03988184643960355
0.45737171770012125
-0.8401197399696327
-0.03988184643960355
0.45737171770012125
-0.8401197399696327
-0.03988184643960355
0.45737171770012125
-0.8401197399696327
-0.03988184643960355
0.45737171770012125
-0.7992654516427035
-0.04204973420868359
0.46261835012125496
-0.7992654516427035
-0.04204973420868359
0.46261835012125496
-0.7992654516427035
-0.04204973420868359
0.46261835012125496
-0.7992654516427035
-0.04204973420868359
0.46261835012125496
-0.761057482104031
-0.04347192161499447
0.46722475580816214
-0.761057482104031
-0.04347192161499447
0.46722475580816214
-0.761057482104031
-0.04347192161499447
0.46722475580816214
-0.761057482104031
-0.04347192161499447
0.46722475580816214
-0.7289174820420312
-0.04420299954206729
0.47053213262510674
-0.7289174820420312
-0.04420299954206729
0.47053213262510674
-0.7289174820420312
-0.04420299954206729
0.47053213262510674
-0.7289174820420312
-0.04420299954206729
0.47053213262510674
-0.7031037424968551
-0.04353402774274221
0.4722091356311954
-0.7031037424968551
-0.04353402774274221
0.4722091356311954
-0.7031037424968551
-0.04353402774274221
0.4722091356311954
-0.7031037424968551
-0.04353402774274221
0.4722091356311954
-0.6782174845827379
-0.043184995181585924
0.4730053288009071
-0.6782174845827379
-0.043184995181585924
0.4730053288009071
-0.6782174845827379
-0.043184995181585924
0.4730053288009071
-0.6782174845827379
-0.043184995181585924
0.4730053288009071
-0.6504619747557707
-0.042123542942341614
0.47410040264197656
-0.6504619747557707
-0.042123542942341614
0.47410040264197656
-0.6504619747557707
-0.042123542942341614
0.47410040264197656
-0.6504619747557707
-0.042123542942341614
0.47410040264197656
-0.6229740973303842
-0.03898877816071731
0.4789001236500385
-0.6229740973303842
-0.03898877816071731
0.4789001236500385
-0.6229740973303842
-0.03898877816071731
0.4789001236500385
-0.6229740973303842
-0.03898877816071731
0.4789001236500385
-0.5968181234856288
-0.03658901839469676
0.4842981423646736
-0.5968181234856288
-0.03658901839469676
0.4842981423646736
-0.5968181234856288
-0.03658901839469676
0.4842981423646736
-0.5968181234856288
-0.03658901839469676
0.4842981423646736
-0.5779344123459009
-0.03598464592142398
0.48891760940592116
-0.5779344123459009
-0.03598464592142398
0.48891760940592116
-0.5779344123459009
-0.03598464592142398
0.48891760940592116
-0.5779344123459009
-0.03598464592142398
0.48891760940592116
-0.5625828155200293
-0.037709648934075815
0.49234791285654694
-0.5625828155200293
-0.037709648934075815
0.49234791285654694
-0.5625828155200293
-0.037709648934075815
0.49234791285654694
-0.5625828155200293
-0.037709648934075815
0.49234791285654694
-0.54771933798273
-0.040032935352165615
0.49480706203530156
-0.54771933798273
-0.040032935352165615
0.49480706203530156
-0.54771933798273
-0.040032935352165615
0.49480706203530156
-0.54771933798273
-0.040032935352165615
0.49480706203530156
-0.5307652234239983
-0.04280402505748894
0.4971740252804314
-0.5307652234239983
-0.04280402505748894
0.4971740252804314
-0.5307652234239983
-0.04280402505748894
0.4971740252804314
-0.5307652234239983
-0.04280402505748894
0.4971740252804314
-0.5154625173285916
-0.045687525850980945
0.4997054122983004
-0.5154625173285916
-0.045687525850980945
0.4997054122983004
-0.5154625173285916
-0.045687525850980945
0.4997054122983004
-0.5154625173285916
-0.045687525850980945
0.4997054122983004
-0.5073897114735373
-0.04844208522090672
0.5029786552019259
-0.5073897114735373
-0.04844208522090672
0.5029786552019259
-0.5073897114735373
-0.04844208522090672
0.5029786552019259
-0.5073897114735373
-0.04844208522090672
0.5029786552019259
-0.5084939645093572
-0.050168167467203
0.5058733585046589
-0.5084939645093572
-0.050168167467203
0.5058733585046589
-0.5084939645093572
-0.050168167467203
0.5058733585046589
-0.5084939645093572
-0.050168167467203
0.5058733585046589
-0.5136352564600831
-0.0512778832636794
0.5076825387560874
-0.5136352564600831
-0.0512778832636794
0.5076825387560874
-0.5136352564600831
-0.0512778832636794
0.5076825387560874
-0.5136352564600831
-0.0512778832636794
0.5076825387560874
-0.5155753225708479
-0.0527289264932785
0.5087936709892249
-0.5155753225708479
-0.0527289264932785
0.5087936709892249
-0.5155753225708479
-0.0527289264932785
0.5087936709892249
-0.5155753225708479
-0.0527289264932785
0.5087936709892249
-0.5118774886807765
-0.054141541808484565
0.5099752184186013
-0.5118774886807765
-0.054141541808484565
0.5099752184186013
-0.5118774886807765
-0.054141541808484565
0.5099752184186013
-0.5118774886807765
-0.054141541808484565
0.5099752184186013
-0.5089838870595798
-0.0544927722019556
0.5114801710530406
-0.5089838870595798
-0.0544927722019556
0.5114801710530406
-0.5089838870595798
-0.0544927722019556
0.5114801710530406
-0.5089838870595798
-0.0544927722019556
0.5114801710530406
-0.5102947064302479
-0.05503585751102087
0.5126715547972713
-0.5102947064302479
-0.05503585751102087
0.5126715547972713
-0.5102947064302479
-0.05503585751102087
0.5126715547972713
-0.5102947064302479
-0.05503585751102087
0.5126715547972713
-0.5125902890078206
-0.05550155287094406
0.5136596170114329
-0.5125902890078206
-0.05550155287094406
0.5136596170114329
-0.5125902890078206
-0.05550155287094406
0.5136596170114329
-0.5125902890078206
-0.05550155287094406
0.5136596170114329
-0.5118346530143131
-0.05624755577324947
0.5145664049825931
-0.5118346530143131
-0.05624755577324947
0.5145664049825931
-0.5118346530143131
-0.05624755577324947
0.5145664049825931
-0.5118346530143131
-0.05624755577324947
0.5145664049825931
-0.5091023046933445
-0.05678007442699856
0.515751926928294
-0.5091023046933445
-0.05678007442699856
0.515751926928294
-0.5091023046933445
-0.05678007442699856
0.515751926928294
-0.5091023046933445
-0.05678007442699856
0.515751926928294
-0.5086944518254837
-0.05734741499811438
0.5165296346300378
-0.5086944518254837
-0.05734741499811438
0.5165296346300378
-0.5086944518254837
-0.05734741499811438
0.5165296346300378
-0.5086944518254837
-0.05734741499811438
0.5165296346300378
-0.5100434139899601
-0.05772499587582775
0.5172837384433431
-0.5100434139899601
-0.05772499587582775
0.5172837384433431
-0.5100434139899601
-0.05772499587582775
0.5172837384433431
-0.5100434139899601
-0.05772499587582775
0.5172837384433431
-0.5109679494039879
-0.058458337163091706
0.518087046057061
-0.5109679494039879
-0.058458337163091706
0.518087046057061
-0.5109679494039879
-0.058458337163091706
0.518087046057061
-0.5109679494039879
-0.058458337163091706
0.518087046057061
-0.5112454296560573
-0.05872008848060834
0.5188382274410798
-0.5112454296560573
-0.05872008848060834
0.5188382274410798
-0.5112454296560573
-0.05872008848060834
0.5188382274410798
-0.5112454296560573
-0.05872008848060834
0.5188382274410798
-0.5117074710094652
-0.058932893413822206
0.5190621235041306
-0.5117074710094652
-0.058932893413822206
0.5190621235041306
-0.5117074710094652
-0.058932893413822206
0.5190621235041306
-0.5117074710094652
-0.058932893413822206
0.5190621235041306
-0.5128326530217977
-0.059094350729790086
0.5193565608477748
-0.5128326530217977
-0.059094350729790086
0.5193565608477748
-0.5128326530217977
-0.059094350729790086
0.5193565608477748
-0.5128326530217977
-0.059094350729790086
0.5193565608477748
-0.5131292598128595
-0.0595969111112828
0.5196516203250947
-0.5131292598128595
-0.0595969111112828
0.5196516203250947
-0.5131292598128595
-0.0595969111112828
0.5196516203250947
-0.5131292598128595
-0.0595969111112828
0.5196516203250947
-0.5126751707931222
-0.06014670668489018
0.520025899446647
-0.5126751707931222
-0.06014670668489018
0.520025899446647
-0.5126751707931222
-0.06014670668489018
0.520025899446647
-0.5126751707931222
-0.06014670668489018
0.520025899446647
-0.5130861329699492
-0.06061793402628816
0.5203165880456018
-0.5130861329699492
-0.06061793402628816
0.5203165880456018
-0.5130861329699492
-0.06061793402628816
0.5203165880456018
-0.5130861329699492
-0.06061793402628816
0.5203165880456018
-0.5143620040732124
-0.06101022131359993
0.5205242171976765
-0.5143620040732124
-0.06101022131359993
0.5205242171976765
-0.5143620040732124
-0.06101022131359993
0.5205242171976765
-0.5143620040732124
-0.06101022131359993
0.5205242171976765
-0.5155639617510696
-0.06149097201825699
0.52054025479938
-0.5155639617510696
-0.06149097201825699
0.52054025479938
-0.5155639617510696
-0.06149097201825699
0.52054025479938
-0.5155639617510696
-0.06149097201825699
0.52054025479938
-0.5167036087471321
-0.06186250052593677
0.5204943996823609
-0.5167036087471321
-0.06186250052593677
0.5204943996823609
-0.5167036087471321
-0.06186250052593677
0.5204943996823609
-0.5167036087471321
-0.06186250052593677
0.5204943996823609
-0.5181804208034254
-0.061990859668417546
0.5205495265420611
-0.5181804208034254
-0.061990859668417546
0.5205495265420611
-0.5181804208034254
-0.061990859668417546
0.5205495265420611
-0.5181804208034254
-0.061990859668417546
0.5205495265420611
-0.5208704200297489
-0.062283152571711846
0.5207519857313144
-0.5208704200297489
-0.062283152571711846
0.5207519857313144
-0.5208704200297489
-0.062283152571711846
0.5207519857313144
-0.5208704200297489
-0.062283152571711846
0.5207519857313144
-0.5260935503615772
-0.06217999046477897
0.5210005849399977
-0.5260935503615772
-0.06217999046477897
0.5210005849399977
-0.5260935503615772
-0.06217999046477897
0.5210005849399977
-0.5260935503615772
-0.06217999046477897
0.5210005849399977
-0.534799346485544
-0.06175970462973031
0.5215309710722231
-0.534799346485544
-0.06175970462973031
0.5215309710722231
-0.534799346485544
-0.06175970462973031
0.5215309710722231
-0.534799346485544
-0.06175970462973031
0.5215309710722231
-0.5483161004827016
-0.060759924389445226
0.5220033889062694
-0.5483161004827016
-0.060759924389445226
0.5220033889062694
-0.5483161004827016
-0.060759924389445226
0.5220033889062694
-0.5483161004827016
-0.060759924389445226
0.5220033889062694
-0.566117545931174
-0.059515371916193965
0.5222337239176305
-0.566117545931174
-0.059515371916193965
0.5222337239176305
-0.566117545931174
-0.059515371916193965
0.5222337239176305
-0.566117545931174
-0.059515371916193965
0.5222337239176305
-0.5865381810661768
-0.05776016202489035
0.5223161121700272
-0.5865381810661768
-0.05776016202489035
0.5223161121700272
-0.5865381810661768
-0.05776016202489035
0.5223161121700272
-0.5865381810661768
-0.05776016202489035
0.5223161121700272
-0.608318208250666
-0.056139357369976835
0.5230106510592704
-0.608318208250666
-0.056139357369976835
0.5230106510592704
-0.608318208250666
-0.056139357369976835
0.5230106510592704
-0.608318208250666
-0.056139357369976835
0.5230106510592704
-0.6318686009992298
-0.054368333828022204
0.5244655658997097
-0.6318686009992298
-0.054368333828022204
0.5244655658997097
-0.6318686009992298
-0.054368333828022204
0.5244655658997097
-0.6318686009992298
-0.054368333828022204
0.5244655658997097
-0.6578992606069933
-0.052738164371060374
0.525862968952791
-0.6578992606069933
-0.052738164371060374
0.525862968952791
-0.6578992606069933
-0.052738164371060374
0.525862968952791
-0.6578992606069933
-0.052738164371060374
0.525862968952791
-0.6863343074574041
-0.05173942501461391
0.5255874776356062
-0.6863343074574041
-0.05173942501461391
0.5255874776356062
-0.6863343074574041
-0.05173942501461391
0.5255874776356062
-0.6863343074574041
-0.05173942501461391
0.5255874776356062
-0.7191154225344751
-0.05135885509423707
0.5224907592946004
-0.7191154225344751
-0.05135885509423707
0.5224907592946004
-0.7191154225344751
-0.05135885509423707
0.5224907592946004
-0.7191154225344751
-0.05135885509423707
0.5224907592946004
-0.7606956611411823
-0.05103409761911119
0.5161062714588153
-0.7606956611411823
-0.05103409761911119
0.5161062714588153
-0.7606956611411823
-0.05103409761911119
0.5161062714588153
-0.7606956611411823
-0.05103409761911119
0.5161062714588153
-0.8153759671002171
-0.049644468750308285
0.5089177903722029
-0.8153759671002171
-0.049644468750308285
0.5089177903722029
-0.8153759671002171
-0.049644468750308285
0.5089177903722029
-0.8153759671002171
-0.049644468750308285
0.5089177903722029
-0.8653249781567832
-0.051093365702745745
0.5039034072620611
-0.8653249781567832
-0.051093365702745745
0.5039034072620611
-0.8653249781567832
-0.051093365702745745
0.5039034072620611
-0.8653249781567832
-0.051093365702745745
0.5039034072620611
-0.8908971523928443
-0.05549853703019467
0.4996247352972132
-0.8908971523928443
-0.05549853703019467
0.4996247352972132
-0.8908971523928443
-0.05549853703019467
0.4996247352972132
-0.8908971523928443
-0.05549853703019467
0.4996247352972132
-0.8939063242700713
-0.059444250237719216
0.49418429396755986
-0.8939063242700713
-0.059444250237719216
0.49418429396755986
-0.8939063242700713
-0.059444250237719216
0.49418429396755986
-0.8939063242700713
-0.059444250237719216
0.49418429396755986
-0.8947811562258365
-0.061053952980750684
0.4906469166531969
-0.8947811562258365
-0.061053952980750684
0.4906469166531969
-0.8947811562258365
-0.061053952980750684
0.4906469166531969
-0.8947811562258365
-0.061053952980750684
0.4906469166531969
-0.9036481801235743
-0.06105907835990648
0.4894735883176741
-0.9036481801235743
-0.06105907835990648
0.4894735883176741
-0.9036481801235743
-0.06105907835990648
0.4894735883176741
-0.9036481801235743
-0.06105907835990648
0.4894735883176741
-0.9138962134752348
-0.06028363207527925
0.48841411146207847
-0.9138962134752348
-0.06028363207527925
0.48841411146207847
-0.9138962134752348
-0.06028363207527925
0.48841411146207847
-0.9138962134752348
-0.06028363207527925
0.48841411146207847
-0.9208197479955088
-0.059605325721817516
0.4864659879590107
-0.9208197479955088
-0.059605325721817516
0.4864659879590107
-0.9208197479955088
-0.059605325721817516
0.4864659879590107
-0.9208197479955088
-0.059605325721817516
0.4864659879590107
-0.9249894865534681
-0.05922608460692315
0.4841137109362844
-0.9249894865534681
-0.05922608460692315
0.4841137109362844
-0.9249894865534681
-0.05922608460692315
0.4841137109362844
-0.9249894865534681
-0.05922608460692315
0.4841137109362844
-0.9287172535851479
-0.05890750411052328
0.4815747619283132
-0.9287172535851479
-0.05890750411052328
0.4815747619283132
-0.9287172535851479
-0.05890750411052328
0.4815747619283132
-0.9287172535851479
-0.05890750411052328
0.4815747619283132
-0.9324292354502636
-0.058718817946769995
0.47939176590836746
-0.9324292354502636
-0.058718817946769995
0.47939176590836746
-0.9324292354502636
-0.058718817946769995
0.47939176590836746
-0.9324292354502636
-0.058718817946769995
0.47939176590836746
-0.9358773928858836
-0.058093421232040456
0.4776099877150424
-0.9358773928858836
-0.058093421232040456
0.4776099877150424
-0.9358773928858836
-0.058093421232040456
0.4776099877150424
-0.9358773928858836
-0.058093421232040456
0.4776099877150424
-0.9372916385405374
-0.0571301204629127
0.4763611877622186
-0.9372916385405374
-0.0571301204629127
0.4763611877622186
-0.9372916385405374
-0.0571301204629127
0.4763611877622186
-0.9372916385405374
-0.0571301204629127
0.4763611877622186
-0.9380674063782349
-0.056266592262933283
0.47547800588539413
-0.9380674063782349
-0.056266592262933283
0.47547800588539413
-0.9380674063782349
-0.056266592262933283
0.47547800588539413
-0.9380674063782349
-0.056266592262933283
0.47547800588539413
-0.9388338472516232
-0.05534937609726491
0.4746997605750403
-0.9388338472516232
-0.05534937609726491
0.4746997605750403
-0.9388338472516232
-0.05534937609726491
0.4746997605750403
-0.9388338472516232
-0.05534937609726491
0.4746997605750403
-0.9398834942763006
-0.054419665454484775
0.4740877305911691
-0.9398834942763006
-0.054419665454484775
0.4740877305911691
-0.9398834942763006
-0.054419665454484775
0.4740877305911691
-0.9398834942763006
-0.054419665454484775
0.4740877305911691
-0.9394089193536463
-0.05346711965419143
0.47339356284069084
-0.9394089193536463
-0.05346711965419143
0.47339356284069084
-0.9394089193536463
-0.05346711965419143
0.47339356284069084
-0.9394089193536463
-0.05346711965419143
0.47339356284069084
-0.9374124048891589
-0.05293890828861381
0.4728468754414696
-0.9374124048891589
-0.05293890828861381
0.4728468754414696
-0.9374124048891589
-0.05293890828861381
0.4728468754414696
-0.9374124048891589
-0.05293890828861381
0.4728468754414696
-0.9375159252420182
-0.05246309490157015
0.4726092399446209
-0.9375159252420182
-0.05246309490157015
0.4726092399446209
-0.9375159252420182
-0.05246309490157015
0.4726092399446209
-0.9375159252420182
-0.05246309490157015
0.4726092399446209
-0.9388420801236027
-0.051694744835536335
0.4724144386689291
-0.9388420801236027
-0.051694744835536335
0.4724144386689291
-0.9388420801236027
-0.051694744835536335
0.4724144386689291
-0.9388420801236027
-0.051694744835536335
0.4724144386689291
-0.9388312778817814
-0.051021566958438125
0.4717751470279203
-0.9388312778817814
-0.051021566958438125
0.4717751470279203
-0.9388312778817814
-0.051021566958438125
0.4717751470279203
-0.9388312778817814
-0.051021566958438125
0.4717751470279203
-0.9373601985212784
-0.050588232347895216
0.4710599813706135
-0.9373601985212784
-0.050588232347895216
0.4710599813706135
-0.9373601985212784
-0.050588232347895216
0.4710599813706135
-0.9373601985212784
-0.050588232347895216
0.4710599813706135
-0.9358741755286628
-0.05055151105681619
0.470412612757021
-0.9358741755286628
-0.05055151105681619
0.470412612757021
-0.9358741755286628
-0.05055151105681619
0.470412612757021
-0.9358741755286628
-0.05055151105681619
0.470412612757021
-0.935700567642787
-0.05081516938651186
0.46994632301319705
-0.935700567642787
-0.05081516938651186
0.46994632301319705
-0.935700567642787
-0.05081516938651186
0.46994632301319705
-0.935700567642787
-0.05081516938651186
0.46994632301319705
-0.9364924767990167
-0.051076351563081074
0.4699272478239886
-0.9364924767990167
-0.051076351563081074
0.4699272478239886
-0.9364924767990167
-0.051076351563081074
0.4699272478239886
-0.9364924767990167
-0.051076351563081074
0.4699272478239886
-0.9373292980520489
-0.051323917771569645
0.4696057911025197
-0.9373292980520489
-0.051323917771569645
0.4696057911025197
-0.9373292980520489
-0.051323917771569645
0.4696057911025197
-0.9373292980520489
-0.051323917771569645
0.4696057911025197
-0.9366847924631941
-0.05170176245714747
0.4694189889573847
-0.9366847924631941
-0.05170176245714747
0.4694189889573847
-0.9366847924631941
-0.05170176245714747
0.4694189889573847
-0.9366847924631941
-0.05170176245714747
0.4694189889573847
-0.9362470666791505
-0.05225673457220577
0.4690914656880565
-0.9362470666791505
-0.05225673457220577
0.4690914656880565
-0.9362470666791505
-0.05225673457220577
0.4690914656880565
-0.9362470666791505
-0.05225673457220577
0.4690914656880565
-0.936683386996036
-0.052880941783257945
0.4693182640986006
-0.936683386996036
-0.052880941783257945
0.4693182640986006
-0.936683386996036
-0.052880941783257945
0.4693182640986006
-0.936683386996036
-0.052880941783257945
0.4693182640986006
-0.9372209713647952
-0.053709119994547416
0.46941509441142115
-0.9372209713647952
-0.053709119994547416
0.46941509441142115
-0.9372209713647952
-0.053709119994547416
0.46941509441142115
-0.9372209713647952
-0.053709119994547416
0.46941509441142115
-0.9364521051773482
-0.05445415353928657
0.46967612908300904
-0.9364521051773482
-0.05445415353928657
0.46967612908300904
-0.9364521051773482
-0.05445415353928657
0.46967612908300904
-0.9364521051773482
-0.05445415353928657
0.46967612908300904
-0.9353926053835407
-0.05560646517847692
0.4701022607606556
-0.9353926053835407
-0.05560646517847692
0.4701022607606556
-0.9353926053835407
-0.05560646517847692
0.4701022607606556
-0.9353926053835407
-0.05560646517847692
0.4701022607606556
-0.935334856832066
-0.05668848401667494
0.47078048776795334
-0.935334856832066
-0.05668848401667494
0.47078048776795334
-0.935334856832066
-0.05668848401667494
0.47078048776795334
-0.935334856832066
-0.05668848401667494
0.47078048776795334
-0.9352853066239518
-0.05737562070667676
0.47112594193552554
-0.9352853066239518
-0.05737562070667676
0.47112594193552554
-0.9352853066239518
-0.05737562070667676
0.47112594193552554
-0.9352853066239518
-0.05737562070667676
0.47112594193552554
-0.9346504578690211
-0.057979187449267736
0.47134785690311837
-0.9346504578690211
-0.057979187449267736
0.47134785690311837
-0.9346504578690211
-0.057979187449267736
0.47134785690311837
-0.9346504578690211
-0.057979187449267736
0.47134785690311837
-0.9335531594292381
-0.05852371320181
0.47159601819589597
-0.9335531594292381
-0.05852371320181
0.47159601819589597
-0.9335531594292381
-0.05852371320181
0.47159601819589597
-0.9335531594292381
-0.05852371320181
0.47159601819589597
-0.9331376848836659
-0.05885004398193614
0.4719820506461451
-0.9331376848836659
-0.05885004398193614
0.4719820506461451
-0.9331376848836659
-0.05885004398193614
0.4719820506461451
-0.9331376848836659
-0.05885004398193614
0.4719820506461451
-0.9327397384807569
-0.05922802049633225
0.47252791005696576
-0.9327397384807569
-0.05922802049633225
0.47252791005696576
-0.9327397384807569
-0.05922802049633225
0.47252791005696576
-0.9327397384807569
-0.05922802049633225
0.47252791005696576
-0.9319433568138011
-0.05959170002922345
0.47302139448345765
-0.9319433568138011
-0.05959170002922345
0.47302139448345765
-0.9319433568138011
-0.05959170002922345
0.47302139448345765
-0.9319433568138011
-0.05959170002922345
0.47302139448345765
-0.931218148392011
-0.060046320592123635
0.47326614216979107
-0.931218148392011
-0.060046320592123635
0.47326614216979107
-0.931218148392011
-0.060046320592123635
0.47326614216979107
-0.931218148392011
-0.060046320592123635
0.47326614216979107
-0.9311395691746625
-0.06017907990604421
0.47332993122330275
-0.9311395691746625
-0.06017907990604421
0.47332993122330275
-0.9311395691746625
-0.06017907990604421
0.47332993122330275
-0.9311395691746625
-0.06017907990604421
0.47332993122330275
-0.9306178259372725
-0.060361031999127075
0.4732083427694908
-0.9306178259372725
-0.060361031999127075
0.4732083427694908
-0.9306178259372725
-0.060361031999127075
0.4732083427694908
-0.9306178259372725
-0.060361031999127075
0.4732083427694908
-0.9306178259372725
-0.060361031999127075
0.4732083427694908
-0.9306178259372725
-0.060361031999127075
0.4732083427694908
-0.9306178259372725
-0.060361031999127075
0.4732083427694908
-0.9306178259372725
-0.060361031999127075
0.4732083427694908
-0.9307943336981429
-0.06020348831556755
0.47286923638971545
-0.9307943336981429
-0.06020348831556755
0.47286923638971545
-0.9307943336981429
-0.06020348831556755
0.47286923638971545
-0.9307943336981429
-0.06020348831556755
0.47286923638971545
-0.9306885247469533
-0.06023063233979102
0.47287888679559364
-0.9306885247469533
-0.06023063233979102
0.47287888679559364
-0.9306885247469533
-0.06023063233979102
0.47287888679559364
-0.9306885247469533
-0.06023063233979102
0.47287888679559364
-0.9301813403026735
-0.06001442539300628
0.47269121536078096
-0.9301813403026735
-0.06001442539300628
0.47269121536078096
-0.9301813403026735
-0.06001442539300628
0.47269121536078096
-0.9301813403026735
-0.06001442539300628
0.47269121536078096
-0.9302085239728981
-0.060120061200433804
0.47274528272628696
-0.9302085239728981
-0.060120061200433804
0.47274528272628696
-0.9302085239728981
-0.060120061200433804
0.47274528272628696
-0.9302085239728981
-0.060120061200433804
0.47274528272628696
-0.9302085239728981
-0.060120061200433804
0.47274528272628696
-0.9302085239728981
-0.060120061200433804
0.47274528272628696
-0.9302085239728981
-0.060120061200433804
0.47274528272628696
-0.9302085239728981
-0.060120061200433804
0.47274528272628696
-0.9296963328606251
-0.06035575393472447
0.4725177711298728
-0.9296963328606251
-0.06035575393472447
0.4725177711298728
-0.9296963328606251
-0.06035575393472447
0.4725177711298728
-0.9296963328606251
-0.06035575393472447
0.4725177711298728
-0.9290436753296571
-0.06095678071319173
0.4721416652982158
-0.9290436753296571
-0.06095678071319173
0.4721416652982158
-0.9290436753296571
-0.06095678071319173
0.4721416652982158
-0.9290436753296571
-0.06095678071319173
0.4721416652982158
-0.9289378117771872
-0.06098391408070031
0.4721512323943844
-0.9289378117771872
-0.06098391408070031
0.4721512323943844
-0.9289378117771872
-0.06098391408070031
0.4721512323943844
-0.9289378117771872
-0.06098391408070031
0.4721512323943844
-0.9288591330954431
-0.06111672305600983
0.4722148117300485
-0.9288591330954431
-0.06111672305600983
0.4722148117300485
-0.9288591330954431
-0.06111672305600983
0.4722148117300485
-0.9288591330954431
-0.06111672305600983
0.4722148117300485
-0.9288591330954431
-0.06111672305600983
0.4722148117300485
-0.9288591330954431
-0.06111672305600983
0.4722148117300485
-0.9288591330954431
-0.06111672305600983
0.4722148117300485
-0.9288591330954431
-0.06111672305600983
0.4722148117300485
-0.9288591330954431
-0.06111672305600983
0.4722148117300485
-0.9288591330954431
-0.06111672305600983
0.4722148117300485
-0.9288591330954431
-0.06111672305600983
0.4722148117300485
-0.9288591330954431
-0.06111672305600983
0.4722148117300485
-0.9287088040358886
-0.06120731152564457
0.47209130384585235
-0.9287088040358886
-0.06120731152564457
0.47209130384585235
-0.9287088040358886
-0.06120731152564457
0.47209130384585235
-0.9287088040358886
-0.06120731152564457
0.47209130384585235
-0.9279788127111627
-0.060935199987963616
0.4724002420240469
-0.9279788127111627
-0.060935199987963616
0.4724002420240469
-0.9279788127111627
-0.060935199987963616
0.4724002420240469
-0.9279788127111627
-0.060935199987963616
0.4724002420240469
-0.9262110457616446
-0.06074799854136987
0.4730219987962413
-0.9262110457616446
-0.06074799854136987
0.4730219987962413
-0.9262110457616446
-0.06074799854136987
0.4730219987962413
-0.9262110457616446
-0.06074799854136987
0.4730219987962413
-0.9225346194951861
-0.060520817224506286
0.47403673197490503
-0.9225346194951861
-0.060520817224506286
0.47403673197490503
-0.9225346194951861
-0.060520817224506286
0.47403673197490503
-0.9225346194951861
-0.060520817224506286
0.47403673197490503
-0.9133254289130411
-0.06097909199579417
0.47623176408931917
-0.9133254289130411
-0.06097909199579417
0.47623176408931917
-0.9133254289130411
-0.06097909199579417
0.47623176408931917
-0.9133254289130411
-0.06097909199579417
0.47623176408931917
-0.8936349120445382
-0.06218783647869236
0.47933176304140684
-0.8936349120445382
-0.06218783647869236
0.47933176304140684
-0.8936349120445382
-0.06218783647869236
0.47933176304140684
-0.8936349120445382
-0.06218783647869236
0.47933176304140684
-0.8617320304978285
-0.0628411804895023
0.4842643361759802
-0.8617320304978285
-0.0628411804895023
0.4842643361759802
-0.8617320304978285
-0.0628411804895023
0.4842643361759802
-0.8617320304978285
-0.0628411804895023
0.4842643361759802
-0.8187996113634605
-0.06392794728359669
0.4905839880949939
-0.8187996113634605
-0.06392794728359669
0.4905839880949939
-0.7745915269744336
-0.0659311597092455
0.49571346699182706
-0.7745915269744336
-0.0659311597092455
0.49571346699182706
-0.7745915269744336
-0.0659311597092455
0.49571346699182706
-0.7745915269744336
-0.0659311597092455
0.49571346699182706
-0.7745915269744336
-0.0659311597092455
0.49571346699182706
-0.7745915269744336
-0.0659311597092455
0.49571346699182706
-0.7347404282500346
-0.0670961340096161
0.4996323811611775
-0.7347404282500346
-0.0670961340096161
0.4996323811611775
-0.7347404282500346
-0.0670961340096161
0.4996323811611775
-0.7347404282500346
-0.0670961340096161
0.4996323811611775
-0.7010550814479487
-0.06756613366388607
0.500824352595398
-0.7010550814479487
-0.06756613366388607
0.500824352595398
-0.7010550814479487
-0.06756613366388607
0.500824352595398
-0.7010550814479487
-0.06756613366388607
0.500824352595398
-0.6718465423943355
-0.0660507199770775
0.4998498365042593
-0.6718465423943355
-0.0660507199770775
0.4998498365042593
-0.6718465423943355
-0.0660507199770775
0.4998498365042593
-0.6718465423943355
-0.0660507199770775
0.4998498365042593
-0.6440046805805791
-0.06309935605712029
0.4990870136245274
-0.6440046805805791
-0.06309935605712029
0.4990870136245274
-0.6440046805805791
-0.06309935605712029
0.4990870136245274
-0.6440046805805791
-0.06309935605712029
0.4990870136245274
-0.6142295673171052
-0.05907835487781367
0.500061235620354
-0.6142295673171052
-0.05907835487781367
0.500061235620354
-0.6142295673171052
-0.05907835487781367
0.500061235620354
-0.6142295673171052
-0.05907835487781367
0.500061235620354
-0.5877775327817669
-0.056055151227297546
0.5037703797342047
-0.5877775327817669
-0.056055151227297546
0.5037703797342047
-0.5695718247325456
-0.053979808011801814
0.5084476996026818
-0.5695718247325456
-0.053979808011801814
0.5084476996026818
-0.5695718247325456
-0.053979808011801814
0.5084476996026818
-0.5695718247325456
-0.053979808011801814
0.5084476996026818
-0.5695718247325456
-0.053979808011801814
0.5084476996026818
-0.5695718247325456
-0.053979808011801814
0.5084476996026818
-0.5603474402126754
-0.05276394039690626
0.5135869513281701
-0.5603474402126754
-0.05276394039690626
0.5135869513281701
-0.5603474402126754
-0.05276394039690626
0.5135869513281701
-0.5603474402126754
-0.05276394039690626
0.5135869513281701
-0.5567464044524387
-0.05340825313867846
0.5178528366627907
-0.5567464044524387
-0.05340825313867846
0.5178528366627907
-0.5567464044524387
-0.05340825313867846
0.5178528366627907
-0.5567464044524387
-0.05340825313867846
0.5178528366627907
-0.5488694389278008
-0.05586773243260148
0.5201200826837178
-0.5488694389278008
-0.05586773243260148
0.5201200826837178
-0.5488694389278008
-0.05586773243260148
0.5201200826837178
-0.5488694389278008
-0.05586773243260148
0.5201200826837178
-0.5361295964417288
-0.05803517540723171
0.5214135078858845
-0.5361295964417288
-0.05803517540723171
0.5214135078858845
-0.52330657810324
-0.06013934326584613
0.5235436853931783
-0.52330657810324
-0.06013934326584613
0.5235436853931783
-0.52330657810324
-0.06013934326584613
0.5235436853931783
-0.52330657810324
-0.06013934326584613
0.5235436853931783
-0.5142486604334745
-0.06209112637792995
0.5266855744487834
-0.5142486604334745
-0.06209112637792995
0.5266855744487834
-0.5142486604334745
-0.06209112637792995
0.5266855744487834
-0.5142486604334745
-0.06209112637792995
0.5266855744487834
-0.5082233042875606
-0.06460337146499372
0.5297558371698463
-0.5082233042875606
-0.06460337146499372
0.5297558371698463
-0.5082233042875606
-0.06460337146499372
0.5297558371698463
-0.5082233042875606
-0.06460337146499372
0.5297558371698463
-0.5025709053003875
-0.06847600802479034
0.5328036324359449
-0.5025709053003875
-0.06847600802479034
0.5328036324359449
-0.5025709053003875
-0.06847600802479034
0.5328036324359449
-0.5025709053003875
-0.06847600802479034
0.5328036324359449
-0.49667723192535007
-0.07204491356386493
0.5364125689704091
-0.49667723192535007
-0.07204491356386493
0.5364125689704091
-0.49667723192535007
-0.07204491356386493
0.5364125689704091
-0.49667723192535007
-0.07204491356386493
0.5364125689704091
-0.495473019914591
-0.07476687689183704
0.5399860148650772
-0.495473019914591
-0.07476687689183704
0.5399860148650772
-0.495473019914591
-0.07476687689183704
0.5399860148650772
-0.495473019914591
-0.07476687689183704
0.5399860148650772
-0.4985781273137275
-0.07742806665389923
0.5423307040905041
-0.4985781273137275
-0.07742806665389923
0.5423307040905041
-0.4985781273137275
-0.07742806665389923
0.5423307040905041
-0.4985781273137275
-0.07742806665389923
0.5423307040905041
-0.5011500665111351
-0.07995046725883219
0.5436768484543602
-0.5011500665111351
-0.07995046725883219
0.5436768484543602
-0.5011500665111351
-0.07995046725883219
0.5436768484543602
-0.5011500665111351
-0.07995046725883219
0.5436768484543602
-0.4987197267099325
-0.08241840176504822
0.544835605936191
-0.4987197267099325
-0.08241840176504822
0.544835605936191
-0.4987197267099325
-0.08241840176504822
0.544835605936191
-0.4987197267099325
-0.08241840176504822
0.544835605936191
-0.4951930209533697
-0.0836613878022869
0.5463255723887115
-0.4951930209533697
-0.0836613878022869
0.5463255723887115
-0.4951930209533697
-0.0836613878022869
0.5463255723887115
-0.4951930209533697
-0.0836613878022869
0.5463255723887115
-0.49535892679606475
-0.08458171082506687
0.5477594326041606
-0.49535892679606475
-0.08458171082506687
0.5477594326041606
-0.49535892679606475
-0.08458171082506687
0.5477594326041606
-0.49535892679606475
-0.08458171082506687
0.5477594326041606
-0.4978868034425693
-0.08566864660847559
0.548623060279544
-0.4978868034425693
-0.08566864660847559
0.548623060279544
-0.4978868034425693
-0.08566864660847559
0.548623060279544
-0.4978868034425693
-0.08566864660847559
0.548623060279544
-0.4989719162508701
-0.08687580215523866
0.5494443612952604
-0.4989719162508701
-0.08687580215523866
0.5494443612952604
-0.4989719162508701
-0.08687580215523866
0.5494443612952604
-0.4989719162508701
-0.08687580215523866
0.5494443612952604
-0.497354978329867
-0.0877976530781703
0.5501468353875383
-0.497354978329867
-0.0877976530781703
0.5501468353875383
-0.497354978329867
-0.0877976530781703
0.5501468353875383
-0.497354978329867
-0.0877976530781703
0.5501468353875383
-0.49592953909258336
-0.0884238519344228
0.5508145046831545
-0.49592953909258336
-0.0884238519344228
0.5508145046831545
-0.49592953909258336
-0.0884238519344228
0.5508145046831545
-0.49592953909258336
-0.0884238519344228
0.5508145046831545
-0.49574655465989265
-0.08900048827165537
0.551317060442376
-0.49574655465989265
-0.08900048827165537
0.551317060442376
-0.49574655465989265
-0.08900048827165537
0.551317060442376
-0.49574655465989265
-0.08900048827165537
0.551317060442376
-0.49635088415586137
-0.08899339222999961
0.5518077025471829
-0.49635088415586137
-0.08899339222999961
0.5518077025471829
-0.49635088415586137
-0.08899339222999961
0.5518077025471829
-0.49635088415586137
-0.08899339222999961
0.5518077025471829
-0.4965162613156394
-0.0889491229680381
0.5523238906352995
-0.4965162613156394
-0.0889491229680381
0.5523238906352995
-0.4965162613156394
-0.0889491229680381
0.5523238906352995
-0.4965162613156394
-0.0889491229680381
0.5523238906352995
-0.4966606012675454
-0.08899869894373545
0.5524649669591184
-0.4966606012675454
-0.08899869894373545
0.5524649669591184
-0.4966606012675454
-0.08899869894373545
0.5524649669591184
-0.4966606012675454
-0.08899869894373545
0.5524649669591184
-0.497069199873937
-0.08903866455746194
0.5524058442273415
-0.497069199873937
-0.08903866455746194
0.5524058442273415
-0.497069199873937
-0.08903866455746194
0.5524058442273415
-0.497069199873937
-0.08903866455746194
0.5524058442273415
-0.49819734762763807
-0.08893515681069257
0.5521339461623468
-0.49819734762763807
-0.08893515681069257
0.5521339461623468
-0.49819734762763807
-0.08893515681069257
0.5521339461623468
-0.49819734762763807
-0.08893515681069257
0.5521339461623468
-0.4999922710460194
-0.0888880206054476
0.5519407959713275
-0.4999922710460194
-0.0888880206054476
0.5519407959713275
-0.4999922710460194
-0.0888880206054476
0.5519407959713275
-0.4999922710460194
-0.0888880206054476
0.5519407959713275
-0.5022696550019076
-0.08867355221968763
0.5518820404383301
-0.5022696550019076
-0.08867355221968763
0.5518820404383301
-0.5022696550019076
-0.08867355221968763
0.5518820404383301
-0.5022696550019076
-0.08867355221968763
0.5518820404383301
-0.506623967893868
-0.08778137290559009
0.552275465373531
-0.506623967893868
-0.08778137290559009
0.552275465373531
-0.506623967893868
-0.08778137290559009
0.552275465373531
-0.506623967893868
-0.08778137290559009
0.552275465373531
-0.514262817044863
-0.08617207044082363
0.5535033292656379
-0.514262817044863
-0.08617207044082363
0.5535033292656379
-0.514262817044863
-0.08617207044082363
0.5535033292656379
-0.514262817044863
-0.08617207044082363
0.5535033292656379
-0.5270776193070221
-0.08324303151699257
0.554876415498846
-0.5270776193070221
-0.08324303151699257
0.554876415498846
-0.5270776193070221
-0.08324303151699257
0.554876415498846
-0.5270776193070221
-0.08324303151699257
0.554876415498846
-0.5460720145843505
-0.07896601216788994
0.5562963937239318
-0.5460720145843505
-0.07896601216788994
0.5562963937239318
-0.5460720145843505
-0.07896601216788994
0.5562963937239318
-0.5460720145843505
-0.07896601216788994
0.5562963937239318
-0.5714729868279222
-0.07343235397147502
0.5586299914505335
-0.5714729868279222
-0.07343235397147502
0.5586299914505335
-0.5714729868279222
-0.07343235397147502
0.5586299914505335
-0.5714729868279222
-0.07343235397147502
0.5586299914505335
-0.5997310970076178
-0.06694626669182546
0.5612038617119678
-0.5997310970076178
-0.06694626669182546
0.5612038617119678
-0.5997310970076178
-0.06694626669182546
0.5612038617119678
-0.5997310970076178
-0.06694626669182546
0.5612038617119678
-0.6292138873519197
-0.06087018023086932
0.5624771356244771
-0.6292138873519197
-0.06087018023086932
0.5624771356244771
-0.6292138873519197
-0.06087018023086932
0.5624771356244771
-0.6292138873519197
-0.06087018023086932
0.5624771356244771
-0.6621762495136941
-0.05544963332135839
0.5611380294039957
-0.6621762495136941
-0.05544963332135839
0.5611380294039957
-0.6621762495136941
-0.05544963332135839
0.5611380294039957
-0.6621762495136941
-0.05544963332135839
0.5611380294039957
-0.6978674974265372
-0.05167964363365742
0.5577713300404279
-0.6978674974265372
-0.05167964363365742
0.5577713300404279
-0.6978674974265372
-0.05167964363365742
0.5577713300404279
-0.6978674974265372
-0.05167964363365742
0.5577713300404279
-0.7357898794644563
-0.04847360280019788
0.5520632634521206
-0.7357898794644563
-0.04847360280019788
0.5520632634521206
-0.7357898794644563
-0.04847360280019788
0.5520632634521206
-0.7357898794644563
-0.04847360280019788
0.5520632634521206
-0.7876684037405592
-0.04501169443812744
0.5431054816846099
-0.7876684037405592
-0.04501169443812744
0.5431054816846099
-0.7876684037405592
-0.04501169443812744
0.5431054816846099
-0.7876684037405592
-0.04501169443812744
0.5431054816846099
-0.8406135383906863
-0.04408117420554958
0.5367136606192895
-0.8406135383906863
-0.04408117420554958
0.5367136606192895
-0.8406135383906863
-0.04408117420554958
0.5367136606192895
-0.8406135383906863
-0.04408117420554958
0.5367136606192895
-0.8717278988514064
-0.047234915183601595
0.5319194130943166
-0.8717278988514064
-0.047234915183601595
0.5319194130943166
-0.8717278988514064
-0.047234915183601595
0.5319194130943166
-0.8717278988514064
-0.047234915183601595
0.5319194130943166
-0.8793197609899379
-0.05003108540801224
0.5246204756216901
-0.8793197609899379
-0.05003108540801224
0.5246204756216901
-0.8793197609899379
-0.05003108540801224
0.5246204756216901
-0.8793197609899379
-0.05003108540801224
0.5246204756216901
-0.8829646954472203
-0.05382620936667385
0.5177910201204878
-0.8829646954472203
-0.05382620936667385
0.5177910201204878
-0.8829646954472203
-0.05382620936667385
0.5177910201204878
-0.8829646954472203
-0.05382620936667385
0.5177910201204878
-0.8953550401576091
-0.05678074425136279
0.5141406381192548
-0.8953550401576091
-0.05678074425136279
0.5141406381192548
-0.8953550401576091
-0.05678074425136279
0.5141406381192548
-0.8953550401576091
-0.05678074425136279
0.5141406381192548
-0.9093641880545942
-0.05728528103556011
0.5114065983579538
-0.9093641880545942
-0.05728528103556011
0.5114065983579538
-0.9093641880545942
-0.05728528103556011
0.5114065983579538
-0.9093641880545942
-0.05728528103556011
0.5114065983579538
-0.916659560060276
-0.05765010159929077
0.5083670857943001
-0.916659560060276
-0.05765010159929077
0.5083670857943001
-0.916659560060276
-0.05765010159929077
0.5083670857943001
-0.916659560060276
-0.05765010159929077
0.5083670857943001
-0.9194997129232635
-0.058060630023691544
0.5052284630860997
-0.9194997129232635
-0.058060630023691544
0.5052284630860997
-0.9194997129232635
-0.058060630023691544
0.5052284630860997
-0.9194997129232635
-0.058060630023691544
0.5052284630860997
-0.9232649911118547
-0.058703431101494376
0.5029261173534938
-0.9232649911118547
-0.058703431101494376
0.5029261173534938
-0.9232649911118547
-0.058703431101494376
0.5029261173534938
-0.9232649911118547
-0.058703431101494376
0.5029261173534938
-0.9292229555836911
-0.059076255800557226
0.5009554423051175
-0.9292229555836911
-0.059076255800557226
0.5009554423051175
-0.9292229555836911
-0.059076255800557226
0.5009554423051175
-0.9292229555836911
-0.059076255800557226
0.5009554423051175
-0.9345945044731102
-0.05983733884613171
0.4988257038736108
-0.9345945044731102
-0.05983733884613171
0.4988257038736108
-0.9345945044731102
-0.05983733884613171
0.4988257038736108
-0.9345945044731102
-0.05983733884613171
0.4988257038736108
-0.9376184632036552
-0.06092096407245242
0.4966169833048528
-0.9376184632036552
-0.06092096407245242
0.4966169833048528
-0.9376184632036552
-0.06092096407245242
0.4966169833048528
-0.9376184632036552
-0.06092096407245242
0.4966169833048528
-0.9386664717070784
-0.060875736259178775
0.4945026678961179
-0.9386664717070784
-0.060875736259178775
0.4945026678961179
-0.9386664717070784
-0.060875736259178775
0.4945026678961179
-0.9386664717070784
-0.060875736259178775
0.4945026678961179
-0.9396385968231163
-0.059558944999460156
0.4930007798217819
-0.9396385968231163
-0.059558944999460156
0.4930007798217819
-0.9396385968231163
-0.059558944999460156
0.4930007798217819
-0.9396385968231163
-0.059558944999460156
0.4930007798217819
-0.9411242053770092
-0.058171502092553166
0.49224062869222157
-0.9411242053770092
-0.058171502092553166
0.49224062869222157
-0.9411242053770092
-0.058171502092553166
0.49224062869222157
-0.9411242053770092
-0.058171502092553166
0.49224062869222157
-0.9411487891512068
-0.05698205511528896
0.49176944465439754
-0.9411487891512068
-0.05698205511528896
0.49176944465439754
-0.9411487891512068
-0.05698205511528896
0.49176944465439754
-0.9411487891512068
-0.05698205511528896
0.49176944465439754
-0.9397781552266478
-0.05670630913229838
0.4915564552853433
-0.9397781552266478
-0.05670630913229838
0.4915564552853433
-0.9397781552266478
-0.05670630913229838
0.4915564552853433
-0.9397781552266478
-0.05670630913229838
0.4915564552853433
-0.9384741021408101
-0.05669490746721928
0.49134720467923243
-0.9384741021408101
-0.05669490746721928
0.49134720467923243
-0.9384741021408101
-0.05669490746721928
0.49134720467923243
-0.9384741021408101
-0.05669490746721928
0.49134720467923243
-0.9385777647448659
-0.05644612493559989
0.49125605898672814
-0.9385777647448659
-0.05644612493559989
0.49125605898672814
-0.9385777647448659
-0.05644612493559989
0.49125605898672814
-0.9385777647448659
-0.05644612493559989
0.49125605898672814
-0.9373301935793593
-0.05619279565285497
0.4911930233886818
-0.9373301935793593
-0.05619279565285497
0.4911930233886818
-0.9373301935793593
-0.05619279565285497
0.4911930233886818
-0.9373301935793593
-0.05619279565285497
0.4911930233886818
-0.935272588508157
-0.05659633325284173
0.49054077699952137
-0.935272588508157
-0.05659633325284173
0.49054077699952137
-0.935272588508157
-0.05659633325284173
0.49054077699952137
-0.935272588508157
-0.05659633325284173
0.49054077699952137
-0.9346969886724308
-0.0566220566234277
0.489875538437398
-0.9346969886724308
-0.0566220566234277
0.489875538437398
-0.9346969886724308
-0.0566220566234277
0.489875538437398
-0.9346969886724308
-0.0566220566234277
0.489875538437398
-0.9351633176590816
-0.05678379079651128
0.4890416899005551
-0.9351633176590816
-0.05678379079651128
0.4890416899005551
-0.9351633176590816
-0.05678379079651128
0.4890416899005551
-0.9351633176590816
-0.05678379079651128
0.4890416899005551
-0.9345614973430219
-0.057212624969681346
0.48791350119192517
-0.9345614973430219
-0.057212624969681346
0.48791350119192517
-0.9345614973430219
-0.057212624969681346
0.48791350119192517
-0.9345614973430219
-0.057212624969681346
0.48791350119192517
-0.9336660776181583
-0.05760120694382163
0.4867233980528052
-0.9336660776181583
-0.05760120694382163
0.4867233980528052
-0.9336660776181583
-0.05760120694382163
0.4867233980528052
-0.9336660776181583
-0.05760120694382163
0.4867233980528052
-0.9339822345077091
-0.05785522708232236
0.4857664891586224
-0.9339822345077091
-0.05785522708232236
0.4857664891586224
-0.9339822345077091
-0.05785522708232236
0.4857664891586224
-0.9339822345077091
-0.05785522708232236
0.4857664891586224
-0.9337838395615394
-0.05807099401048657
0.4848738502976424
-0.9337838395615394
-0.05807099401048657
0.4848738502976424
-0.9337838395615394
-0.05807099401048657
0.4848738502976424
-0.9337838395615394
-0.05807099401048657
0.4848738502976424
-0.9329124683968258
-0.05850651793827989
0.48410811111819574
-0.9329124683968258
-0.05850651793827989
0.48410811111819574
-0.9329124683968258
-0.05850651793827989
0.48410811111819574
-0.9329124683968258
-0.05850651793827989
0.48410811111819574
-0.9328431727113254
-0.058521870925969874
0.48354971996054696
-0.9328431727113254
-0.058521870925969874
0.48354971996054696
-0.9328431727113254
-0.058521870925969874
0.48354971996054696
-0.9328431727113254
-0.058521870925969874
0.48354971996054696
-0.9328431727113254
-0.058521870925969874
0.48354971996054696
-0.9328431727113254
-0.058521870925969874
0.48354971996054696
-0.9328431727113254
-0.058521870925969874
0.48354971996054696
-0.9328431727113254
-0.058521870925969874
0.48354971996054696
-0.9323903922833784
-0.05851946286685386
0.48347036374847235
-0.9323903922833784
-0.05851946286685386
0.48347036374847235
-0.9323903922833784
-0.05851946286685386
0.48347036374847235
-0.9323903922833784
-0.05851946286685386
0.48347036374847235
-0.9316560629408699
-0.058702943441031614
0.48374054866079336
-0.9316560629408699
-0.058702943441031614
0.48374054866079336
-0.9316560629408699
-0.058702943441031614
0.48374054866079336
-0.9316560629408699
-0.058702943441031614
0.48374054866079336
-0.9312750379533908
-0.05874202773568533
0.48384856993698455
-0.9312750379533908
-0.05874202773568533
0.48384856993698455
-0.9312750379533908
-0.05874202773568533
0.48384856993698455
-0.9312750379533908
-0.05874202773568533
0.48384856993698455
-0.9312650029028897
-0.05868807198725312
0.48395421736243405
-0.9312650029028897
-0.05868807198725312
0.48395421736243405
-0.9312650029028897
-0.05868807198725312
0.48395421736243405
-0.9312650029028897
-0.05868807198725312
0.48395421736243405
-0.9308361496972442
-0.05851388067548485
0.48421952291483733
-0.9308361496972442
-0.05851388067548485
0.48421952291483733
-0.9308361496972442
-0.05851388067548485
0.48421952291483733
-0.9308361496972442
-0.05851388067548485
0.48421952291483733
-0.9299522156345014
-0.05878946858352677
0.4843661785594113
-0.9299522156345014
-0.05878946858352677
0.4843661785594113
-0.9299522156345014
-0.05878946858352677
0.4843661785594113
-0.9299522156345014
-0.05878946858352677
0.4843661785594113
-0.9294747636605116
-0.0595833255205584
0.4844191239393141
-0.9294747636605116
-0.0595833255205584
0.4844191239393141
-0.9294747636605116
-0.0595833255205584
0.4844191239393141
-0.9294747636605116
-0.0595833255205584
0.4844191239393141
-0.9287777097141677
-0.06059984810230486
0.48467731023071803
-0.9287777097141677
-0.06059984810230486
0.48467731023071803
-0.9287777097141677
-0.06059984810230486
0.48467731023071803
-0.9287777097141677
-0.06059984810230486
0.48467731023071803
-0.927737738014016
-0.061815363668134636
0.48499039095998636
-0.927737738014016
-0.061815363668134636
0.48499039095998636
-0.927737738014016
-0.061815363668134636
0.48499039095998636
-0.927737738014016
-0.061815363668134636
0.48499039095998636
-0.9273227077270143
-0.06259759493331198
0.4853350356523267
-0.9273227077270143
-0.06259759493331198
0.4853350356523267
-0.9273227077270143
-0.06259759493331198
0.4853350356523267
-0.9273227077270143
-0.06259759493331198
0.4853350356523267
-0.9270997899647098
-0.06321660980351725
0.48587127722166806
-0.9270997899647098
-0.06321660980351725
0.48587127722166806
-0.9270997899647098
-0.06321660980351725
0.48587127722166806
-0.9270997899647098
-0.06321660980351725
0.48587127722166806
-0.9263261525770435
-0.06369450754891923
0.4861510737319169
-0.9263261525770435
-0.06369450754891923
0.4861510737319169
-0.9263261525770435
-0.06369450754891923
0.4861510737319169
-0.9263261525770435
-0.06369450754891923
0.4861510737319169
-0.9255182039563845
-0.06428978842657648
0.486190965498852
-0.9255182039563845
-0.06428978842657648
0.486190965498852
-0.9255182039563845
-0.06428978842657648
0.486190965498852
-0.9255182039563845
-0.06428978842657648
0.486190965498852
-0.9253586250788182
-0.06432746819693136
0.4861726489990361
-0.9253586250788182
-0.06432746819693136
0.4861726489990361
-0.9253586250788182
-0.06432746819693136
0.4861726489990361
-0.9253586250788182
-0.06432746819693136
0.4861726489990361
-0.9249281342949536
-0.0646065260993574
0.4863968180733704
-0.9249281342949536
-0.0646065260993574
0.4863968180733704
-0.9249281342949536
-0.0646065260993574
0.4863968180733704
-0.9249281342949536
-0.0646065260993574
0.4863968180733704
-0.9241945657131211
-0.06479219041145204
0.4866641997092632
-0.9241945657131211
-0.06479219041145204
0.4866641997092632
-0.9241945657131211
-0.06479219041145204
0.4866641997092632
-0.9241945657131211
-0.06479219041145204
0.4866641997092632
-0.9241504968981427
-0.06485549992172586
0.48653032949712516
-0.9241504968981427
-0.06485549992172586
0.48653032949712516
-0.9241504968981427
-0.06485549992172586
0.48653032949712516
-0.9241504968981427
-0.06485549992172586
0.48653032949712516
-0.9234481865441809
-0.06475013090600097
0.4865209091722965
-0.9234481865441809
-0.06475013090600097
0.4865209091722965
-0.9234481865441809
-0.06475013090600097
0.4865209091722965
-0.9234481865441809
-0.06475013090600097
0.4865209091722965
-0.922283244849332
-0.0645889434613166
0.48653659579598
-0.922283244849332
-0.0645889434613166
0.48653659579598
-0.922283244849332
-0.0645889434613166
0.48653659579598
-0.922283244849332
-0.0645889434613166
0.48653659579598
-0.9203891861107336
-0.06371017928499938
0.4869025043401204
-0.9203891861107336
-0.06371017928499938
0.4869025043401204
-0.9203891861107336
-0.06371017928499938
0.4869025043401204
-0.9203891861107336
-0.06371017928499938
0.4869025043401204
-0.9160958428030171
-0.06259897469222392
0.488070066666605
-0.9160958428030171
-0.06259897469222392
0.488070066666605
-0.9160958428030171
-0.06259897469222392
0.488070066666605
-0.9160958428030171
-0.06259897469222392
0.488070066666605
-0.9062823529655405
-0.06159712991520127
0.49027698551979926
-0.9062823529655405
-0.06159712991520127
0.49027698551979926
-0.9062823529655405
-0.06159712991520127
0.49027698551979926
-0.9062823529655405
-0.06159712991520127
0.49027698551979926
-0.8890716485737012
-0.06060962314538096
0.4941642971079289
-0.8890716485737012
-0.06060962314538096
0.4941642971079289
-0.8890716485737012
-0.06060962314538096
0.4941642971079289
-0.8890716485737012
-0.06060962314538096
0.4941642971079289
-0.8629519167569966
-0.059332766094031264
0.4999351723495119
-0.8629519167569966
-0.059332766094031264
0.4999351723495119
-0.8629519167569966
-0.059332766094031264
0.4999351723495119
-0.8629519167569966
-0.059332766094031264
0.4999351723495119
-0.8306002165880245
-0.059228809508717645
0.5070495797908557
-0.8306002165880245
-0.059228809508717645
0.5070495797908557
-0.8306002165880245
-0.059228809508717645
0.5070495797908557
-0.8306002165880245
-0.059228809508717645
0.5070495797908557
-0.793987776065883
-0.061387668859395894
0.5140310185620407
-0.793987776065883
-0.061387668859395894
0.5140310185620407
-0.793987776065883
-0.061387668859395894
0.5140310185620407
-0.793987776065883
-0.061387668859395894
0.5140310185620407
-0.7558502958283048
-0.06464364651363208
0.5199947884413212
-0.7558502958283048
-0.06464364651363208
0.5199947884413212
-0.7558502958283048
-0.06464364651363208
0.5199947884413212
-0.7558502958283048
-0.06464364651363208
0.5199947884413212
-0.7189119167785242
-0.06777576673827107
0.5240413302008734
-0.7189119167785242
-0.06777576673827107
0.5240413302008734
-0.7189119167785242
-0.06777576673827107
0.5240413302008734
-0.7189119167785242
-0.06777576673827107
0.5240413302008734
-0.684213988108853
-0.07035493417677843
0.525113859913648
-0.684213988108853
-0.07035493417677843
0.525113859913648
-0.684213988108853
-0.07035493417677843
0.525113859913648
-0.684213988108853
-0.07035493417677843
0.525113859913648
-0.652367779927104
-0.07021845689055782
0.5247258146670151
-0.652367779927104
-0.07021845689055782
0.5247258146670151
-0.652367779927104
-0.07021845689055782
0.5247258146670151
-0.652367779927104
-0.07021845689055782
0.5247258146670151
-0.6213885505554935
-0.06843270058219286
0.52522248451454
-0.6213885505554935
-0.06843270058219286
0.52522248451454
-0.6213885505554935
-0.06843270058219286
0.52522248451454
-0.6213885505554935
-0.06843270058219286
0.52522248451454
-0.5873490333504766
-0.06598547516632763
0.5278681141481204
-0.5873490333504766
-0.06598547516632763
0.5278681141481204
-0.5873490333504766
-0.06598547516632763
0.5278681141481204
-0.5873490333504766
-0.06598547516632763
0.5278681141481204
-0.5555384203287329
-0.0650503825629119
0.531644129309238
-0.5555384203287329
-0.0650503825629119
0.531644129309238
-0.5555384203287329
-0.0650503825629119
0.531644129309238
-0.5555384203287329
-0.0650503825629119
0.531644129309238
-0.5292836769830108
-0.06501353548398031
0.53507973362168
-0.5292836769830108
-0.06501353548398031
0.53507973362168
-0.5292836769830108
-0.06501353548398031
0.53507973362168
-0.5292836769830108
-0.06501353548398031
0.53507973362168
-0.5123719985704493
-0.06579181026809582
0.5388589499198839
-0.5123719985704493
-0.06579181026809582
0.5388589499198839
-0.5123719985704493
-0.06579181026809582
0.5388589499198839
-0.5123719985704493
-0.06579181026809582
0.5388589499198839
-0.5009184549239216
-0.06826039296213375
0.5423773707467099
-0.5009184549239216
-0.06826039296213375
0.5423773707467099
-0.5009184549239216
-0.06826039296213375
0.5423773707467099
-0.5009184549239216
-0.06826039296213375
0.5423773707467099
-0.49156602058994553
-0.07232076834614862
0.5441482415240045
-0.49156602058994553
-0.07232076834614862
0.5441482415240045
-0.49156602058994553
-0.07232076834614862
0.5441482415240045
-0.49156602058994553
-0.07232076834614862
0.5441482415240045
-0.48456859432259114
-0.07622242518664664
0.5450598833774138
-0.48456859432259114
-0.07622242518664664
0.5450598833774138
-0.48456859432259114
-0.07622242518664664
0.5450598833774138
-0.48456859432259114
-0.07622242518664664
0.5450598833774138
-0.4816692080057747
-0.07849209532455914
0.5459772729111139
-0.4816692080057747
-0.07849209532455914
0.5459772729111139
-0.4816692080057747
-0.07849209532455914
0.5459772729111139
-0.4816692080057747
-0.07849209532455914
0.5459772729111139
-0.48605397700601616
-0.07927807603844851
0.5470472283291705
-0.48605397700601616
-0.07927807603844851
0.5470472283291705
-0.48605397700601616
-0.07927807603844851
0.5470472283291705
-0.48605397700601616
-0.07927807603844851
0.5470472283291705
-0.4926078882921587
-0.08027190167136054
0.5469946663320208
-0.4926078882921587
-0.08027190167136054
0.5469946663320208
-0.4926078882921587
-0.08027190167136054
0.5469946663320208
-0.4926078882921587
-0.08027190167136054
0.5469946663320208
-0.49497332923686665
-0.08138810074452668
0.5467466369081276
-0.49497332923686665
-0.08138810074452668
0.5467466369081276
-0.49497332923686665
-0.08138810074452668
0.5467466369081276
-0.49497332923686665
-0.08138810074452668
0.5467466369081276
-0.4928520324422498
-0.08198785623295156
0.5471941380212808
-0.4928520324422498
-0.08198785623295156
0.5471941380212808
-0.4928520324422498
-0.08198785623295156
0.5471941380212808
-0.4928520324422498
-0.08198785623295156
0.5471941380212808
-0.49142382977383303
-0.08261332183836087
0.547864241388602
-0.49142382977383303
-0.08261332183836087
0.547864241388602
-0.49142382977383303
-0.08261332183836087
0.547864241388602
-0.49142382977383303
-0.08261332183836087
0.547864241388602
-0.49170050739895865
-0.08325205551556786
0.5487105821246834
-0.49170050739895865
-0.08325205551556786
0.5487105821246834
-0.49170050739895865
-0.08325205551556786
0.5487105821246834
-0.49170050739895865
-0.08325205551556786
0.5487105821246834
-0.49093952319393974
-0.08415763984975204
0.5501528047161754
-0.49093952319393974
-0.08415763984975204
0.5501528047161754
-0.49093952319393974
-0.08415763984975204
0.5501528047161754
-0.49093952319393974
-0.08415763984975204
0.5501528047161754
-0.48866937495446605
-0.08500904482542428
0.5519653473827814
-0.48866937495446605
-0.08500904482542428
0.5519653473827814
-0.48866937495446605
-0.08500904482542428
0.5519653473827814
-0.48866937495446605
-0.08500904482542428
0.5519653473827814
-0.48818814447842285
-0.08504021334402302
0.5534753741794777
-0.48818814447842285
-0.08504021334402302
0.5534753741794777
-0.48818814447842285
-0.08504021334402302
0.5534753741794777
-0.48818814447842285
-0.08504021334402302
0.5534753741794777
-0.49171457959769854
-0.08460646911368429
0.5545530473272238
-0.49171457959769854
-0.08460646911368429
0.5545530473272238
-0.49171457959769854
-0.08460646911368429
0.5545530473272238
-0.49171457959769854
-0.08460646911368429
0.5545530473272238
-0.49589578640590415
-0.08369452308983523
0.5546540980194714
-0.49589578640590415
-0.08369452308983523
0.5546540980194714
-0.49589578640590415
-0.08369452308983523
0.5546540980194714
-0.49589578640590415
-0.08369452308983523
0.5546540980194714
-0.4968929704380227
-0.0832527982560114
0.5542547668401527
-0.4968929704380227
-0.0832527982560114
0.5542547668401527
-0.4968929704380227
-0.0832527982560114
0.5542547668401527
-0.4968929704380227
-0.0832527982560114
0.5542547668401527
-0.49496782364818986
-0.08345967430158682
0.5539674811996749
-0.49496782364818986
-0.08345967430158682
0.5539674811996749
-0.49496782364818986
-0.08345967430158682
0.5539674811996749
-0.49496782364818986
-0.08345967430158682
0.5539674811996749
-0.4928882832919016
-0.08352614801766331
0.5538807491488755
-0.4928882832919016
-0.08352614801766331
0.5538807491488755
-0.4928882832919016
-0.08352614801766331
0.5538807491488755
-0.4928882832919016
-0.08352614801766331
0.5538807491488755
-0.4928919901786043
-0.08377670574015447
0.5544633336725245
-0.4928919901786043
-0.08377670574015447
0.5544633336725245
-0.4928919901786043
-0.08377670574015447
0.5544633336725245
-0.4928919901786043
-0.08377670574015447
0.5544633336725245
-0.4932243849511399
-0.08421347059923978
0.5550192695680712
-0.4932243849511399
-0.08421347059923978
0.5550192695680712
-0.4932243849511399
-0.08421347059923978
0.5550192695680712
-0.4932243849511399
-0.08421347059923978
0.5550192695680712
-0.49266887294431666
-0.08431511833083413
0.555749050220676
-0.49266887294431666
-0.08431511833083413
0.555749050220676
-0.49266887294431666
-0.08431511833083413
0.555749050220676
-0.49266887294431666
-0.08431511833083413
0.555749050220676
-0.4911035016897367
-0.08501367509238857
0.5562736021556245
-0.4911035016897367
-0.08501367509238857
0.5562736021556245
-0.4911035016897367
-0.08501367509238857
0.5562736021556245
-0.4911035016897367
-0.08501367509238857
0.5562736021556245
-0.49003020482689474
-0.0856345275971116
0.5565902290503845
-0.49003020482689474
-0.0856345275971116
0.5565902290503845
-0.49003020482689474
-0.0856345275971116
0.5565902290503845
-0.49003020482689474
-0.0856345275971116
0.5565902290503845
-0.4904481048927538
-0.08653468029688711
0.5567467530319847
-0.4904481048927538
-0.08653468029688711
0.5567467530319847
-0.4904481048927538
-0.08653468029688711
0.5567467530319847
-0.4904481048927538
-0.08653468029688711
0.5567467530319847
-0.49177028006863927
-0.08751190348939951
0.5566339190644994
-0.49177028006863927
-0.08751190348939951
0.5566339190644994
-0.49177028006863927
-0.08751190348939951
0.5566339190644994
-0.49177028006863927
-0.08751190348939951
0.5566339190644994
-0.49298238235191266
-0.08863951707019863
0.5565218066480507
-0.49298238235191266
-0.08863951707019863
0.5565218066480507
-0.49298238235191266
-0.08863951707019863
0.5565218066480507
-0.49298238235191266
-0.08863951707019863
0.5565218066480507
-0.49355764385773987
-0.08970929177712349
0.556366050818869
-0.49355764385773987
-0.08970929177712349
0.556366050818869
-0.49355764385773987
-0.08970929177712349
0.556366050818869
-0.49355764385773987
-0.08970929177712349
0.556366050818869
-0.4934438465681974
-0.08974305094116403
0.5563691380812054
-0.4934438465681974
-0.08974305094116403
0.5563691380812054
-0.4934438465681974
-0.08974305094116403
0.5563691380812054
-0.4934438465681974
-0.08974305094116403
0.5563691380812054
-0.49329983556173024
-0.08977987989312984
0.5563383258834235
-0.49329983556173024
-0.08977987989312984
0.5563383258834235
-0.49329983556173024
-0.08977987989312984
0.5563383258834235
-0.49329983556173024
-0.08977987989312984
0.5563383258834235
-0.4933586022336808
-0.09041041312643142
0.556378672448363
-0.4933586022336808
-0.09041041312643142
0.556378672448363
-0.4933586022336808
-0.09041041312643142
0.556378672448363
-0.4933586022336808
-0.09041041312643142
0.556378672448363
-0.4936043696625254
-0.09071360088219849
0.5565002452932173
-0.4936043696625254
-0.09071360088219849
0.5565002452932173
-0.4936043696625254
-0.09071360088219849
0.5565002452932173
-0.4936043696625254
-0.09071360088219849
0.5565002452932173
-0.4939427790396663
-0.09107642442630508
0.5562435788591225
-0.4939427790396663
-0.09107642442630508
0.5562435788591225
-0.4939427790396663
-0.09107642442630508
0.5562435788591225
-0.4939427790396663
-0.09107642442630508
0.5562435788591225
-0.49481560734390273
-0.09107111710154452
0.5558314556143199
-0.49481560734390273
-0.09107111710154452
0.5558314556143199
-0.49481560734390273
-0.09107111710154452
0.5558314556143199
-0.49481560734390273
-0.09107111710154452
0.5558314556143199
-0.49619272012334925
-0.09070123974802506
0.5552295343109875
-0.49619272012334925
-0.09070123974802506
0.5552295343109875
-0.49619272012334925
-0.09070123974802506
0.5552295343109875
-0.49619272012334925
-0.09070123974802506
0.5552295343109875
-0.4993552107671855
-0.09010551388740018
0.5546659783198347
-0.4993552107671855
-0.09010551388740018
0.5546659783198347
-0.4993552107671855
-0.09010551388740018
0.5546659783198347
-0.4993552107671855
-0.09010551388740018
0.5546659783198347
-0.5048717393241525
-0.08911715288020182
0.5541217129780479
-0.5048717393241525
-0.08911715288020182
0.5541217129780479
-0.5048717393241525
-0.08911715288020182
0.5541217129780479
-0.5048717393241525
-0.08911715288020182
0.5541217129780479
-0.5146381151083829
-0.08794495653903411
0.5533784407017326
-0.5146381151083829
-0.08794495653903411
0.5533784407017326
-0.5146381151083829
-0.08794495653903411
0.5533784407017326
-0.5146381151083829
-0.08794495653903411
0.5533784407017326
-0.5299657297005862
-0.08660506764225347
0.5520998614216552
-0.5299657297005862
-0.08660506764225347
0.5520998614216552
-0.5299657297005862
-0.08660506764225347
0.5520998614216552
-0.5299657297005862
-0.08660506764225347
0.5520998614216552
-0.5506191649923518
-0.08441577734270324
0.5501502593096006
-0.5506191649923518
-0.08441577734270324
0.5501502593096006
-0.5506191649923518
-0.08441577734270324
0.5501502593096006
-0.5506191649923518
-0.08441577734270324
0.5501502593096006
-0.5752043047388364
-0.08244516420955103
0.5480996511858403
-0.5752043047388364
-0.08244516420955103
0.5480996511858403
-0.5752043047388364
-0.08244516420955103
0.5480996511858403
-0.5752043047388364
-0.08244516420955103
0.5480996511858403
-0.6013876567400358
-0.08131815322613938
0.5456182051512698
-0.6013876567400358
-0.08131815322613938
0.5456182051512698
-0.6013876567400358
-0.08131815322613938
0.5456182051512698
-0.6013876567400358
-0.08131815322613938
0.5456182051512698
-0.6295285506583508
-0.08149238519000437
0.5435802066152596
-0.6295285506583508
-0.08149238519000437
0.5435802066152596
-0.6295285506583508
-0.08149238519000437
0.5435802066152596
-0.6295285506583508
-0.08149238519000437
0.5435802066152596
-0.6608184224010787
-0.08207912819368063
0.5418664756511739
-0.6608184224010787
-0.08207912819368063
0.5418664756511739
-0.6608184224010787
-0.08207912819368063
0.5418664756511739
-0.6608184224010787
-0.08207912819368063
0.5418664756511739
-0.6955213567237126
-0.08200352475225879
0.5393943056690195
-0.6955213567237126
-0.08200352475225879
0.5393943056690195
-0.6955213567237126
-0.08200352475225879
0.5393943056690195
-0.6955213567237126
-0.08200352475225879
0.5393943056690195
-0.7370549776161991
-0.08193020569828265
0.5315519168911677
-0.7370549776161991
-0.08193020569828265
0.5315519168911677
-0.7370549776161991
-0.08193020569828265
0.5315519168911677
-0.7370549776161991
-0.08193020569828265
0.5315519168911677
-0.7952630144827404
-0.08009258115039815
0.522615247007956
-0.7952630144827404
-0.08009258115039815
0.522615247007956
-0.7952630144827404
-0.08009258115039815
0.522615247007956
-0.7952630144827404
-0.08009258115039815
0.522615247007956
-0.8498076465229507
-0.0795528729692439
0.5169607508334535
-0.8498076465229507
-0.0795528729692439
0.5169607508334535
-0.8498076465229507
-0.0795528729692439
0.5169607508334535
-0.8498076465229507
-0.0795528729692439
0.5169607508334535
-0.8757118406487777
-0.08327323491502489
0.5131934230961659
-0.8757118406487777
-0.08327323491502489
0.5131934230961659
-0.8757118406487777
-0.08327323491502489
0.5131934230961659
-0.8757118406487777
-0.08327323491502489
0.5131934230961659
-0.8791736192857342
-0.0873658892411159
0.5061477238002973
-0.8791736192857342
-0.0873658892411159
0.5061477238002973
-0.8791736192857342
-0.0873658892411159
0.5061477238002973
-0.8791736192857342
-0.0873658892411159
0.5061477238002973
-0.883145878981964
-0.0900941136498238
0.49881074161567107
-0.883145878981964
-0.0900941136498238
0.49881074161567107
-0.883145878981964
-0.0900941136498238
0.49881074161567107
-0.883145878981964
-0.0900941136498238
0.49881074161567107
-0.8972485526005599
-0.09142710329540521
0.4934740851196336
-0.8972485526005599
-0.09142710329540521
0.4934740851196336
-0.8972485526005599
-0.09142710329540521
0.4934740851196336
-0.8972485526005599
-0.09142710329540521
0.4934740851196336
-0.9134908815201582
-0.09196282707290188
0.4880894396548703
-0.9134908815201582
-0.09196282707290188
0.4880894396548703
-0.9134908815201582
-0.09196282707290188
0.4880894396548703
-0.9134908815201582
-0.09196282707290188
0.4880894396548703
-0.9234127790757477
-0.09201343510117688
0.48307186755617015
-0.9234127790757477
-0.09201343510117688
0.48307186755617015
-0.9234127790757477
-0.09201343510117688
0.48307186755617015
-0.9234127790757477
-0.09201343510117688
0.48307186755617015
-0.9288879686678695
-0.09231410053275764
0.4793875510640625
-0.9288879686678695
-0.09231410053275764
0.4793875510640625
-0.9288879686678695
-0.09231410053275764
0.4793875510640625
-0.9288879686678695
-0.09231410053275764
0.4793875510640625
-0.9340108336194782
-0.09211123578248953
0.4769196530489507
-0.9340108336194782
-0.09211123578248953
0.4769196530489507
-0.9340108336194782
-0.09211123578248953
0.4769196530489507
-0.9340108336194782
-0.09211123578248953
0.4769196530489507
-0.939242339207303
-0.09212484013827396
0.4756898592875667
-0.939242339207303
-0.09212484013827396
0.4756898592875667
-0.939242339207303
-0.09212484013827396
0.4756898592875667
-0.939242339207303
-0.09212484013827396
0.4756898592875667
-0.9431025443818026
-0.09265536357798687
0.4749561488006499
-0.9431025443818026
-0.09265536357798687
0.4749561488006499
-0.9431025443818026
-0.09265536357798687
0.4749561488006499
-0.9431025443818026
-0.09265536357798687
0.4749561488006499
-0.9446275963653091
-0.09391561706509001
0.4745999674154936
-0.9446275963653091
-0.09391561706509001
0.4745999674154936
-0.9446275963653091
-0.09391561706509001
0.4745999674154936
-0.9446275963653091
-0.09391561706509001
0.4745999674154936
-0.94587071249693
-0.0947377205879878
0.4741091091200738
-0.94587071249693
-0.0947377205879878
0.4741091091200738
-0.94587071249693
-0.0947377205879878
0.4741091091200738
-0.94587071249693
-0.0947377205879878
0.4741091091200738
-0.947372396478547
-0.09504887534126624
0.47340114839081876
-0.947372396478547
-0.09504887534126624
0.47340114839081876
-0.947372396478547
-0.09504887534126624
0.47340114839081876
-0.947372396478547
-0.09504887534126624
0.47340114839081876
-0.949031593469871
-0.09481653723378106
0.4728546628988434
-0.949031593469871
-0.09481653723378106
0.4728546628988434
-0.949031593469871
-0.09481653723378106
0.4728546628988434
-0.949031593469871
-0.09481653723378106
0.4728546628988434
-0.9497902358083216
-0.09452573977087975
0.47256852639515373
-0.9497902358083216
-0.09452573977087975
0.47256852639515373
-0.9497902358083216
-0.09452573977087975
0.47256852639515373
-0.9497902358083216
-0.09452573977087975
0.47256852639515373
-0.9505397661565267
-0.09457136438049135
0.4727235711130889
-0.9505397661565267
-0.09457136438049135
0.4727235711130889
-0.9505397661565267
-0.09457136438049135
0.4727235711130889
-0.9505397661565267
-0.09457136438049135
0.4727235711130889
-0.9510477762071177
-0.09427697476824133
0.47306296512338314
-0.9510477762071177
-0.09427697476824133
0.47306296512338314
-0.9510477762071177
-0.09427697476824133
0.47306296512338314
-0.9510477762071177
-0.09427697476824133
0.47306296512338314
-0.9496030921766937
-0.09378204675596954
0.4735462272201924
-0.9496030921766937
-0.09378204675596954
0.4735462272201924
-0.9496030921766937
-0.09378204675596954
0.4735462272201924
-0.9496030921766937
-0.09378204675596954
0.4735462272201924
-0.9478447043289013
-0.09341537255837773
0.4738849982071396
-0.9478447043289013
-0.09341537255837773
0.4738849982071396
-0.9478447043289013
-0.09341537255837773
0.4738849982071396
-0.9478447043289013
-0.09341537255837773
0.4738849982071396
-0.9468476341256933
-0.09247880365672392
0.47422673856784536
-0.9468476341256933
-0.09247880365672392
0.47422673856784536
-0.9468476341256933
-0.09247880365672392
0.47422673856784536
-0.9468476341256933
-0.09247880365672392
0.47422673856784536
-0.9466741654608001
-0.09173350256081347
0.47437085735296725
-0.9466741654608001
-0.09173350256081347
0.47437085735296725
-0.9466741654608001
-0.09173350256081347
0.47437085735296725
-0.9466741654608001
-0.09173350256081347
0.47437085735296725
-0.9460927743319738
-0.09092031913612847
0.4745618356554559
-0.9460927743319738
-0.09092031913612847
0.4745618356554559
-0.9460927743319738
-0.09092031913612847
0.4745618356554559
-0.9460927743319738
-0.09092031913612847
0.4745618356554559
-0.9455006233451353
-0.09033068921531563
0.47456981755957833
-0.9455006233451353
-0.09033068921531563
0.47456981755957833
-0.9455006233451353
-0.09033068921531563
0.47456981755957833
-0.9455006233451353
-0.09033068921531563
0.47456981755957833
-0.9450502946031163
-0.08987318111631891
0.47451974571812044
-0.9450502946031163
-0.08987318111631891
0.47451974571812044
-0.9450502946031163
-0.08987318111631891
0.47451974571812044
-0.9450502946031163
-0.08987318111631891
0.47451974571812044
-0.9439381800000509
-0.08997499638825013
0.47425809427844023
-0.9439381800000509
-0.08997499638825013
0.47425809427844023
-0.9439381800000509
-0.08997499638825013
0.47425809427844023
-0.9439381800000509
-0.08997499638825013
0.47425809427844023
-0.942420542246192
-0.08983377714196393
0.4737912027692149
-0.942420542246192
-0.08983377714196393
0.4737912027692149
-0.942420542246192
-0.08983377714196393
0.4737912027692149
-0.942420542246192
-0.08983377714196393
0.4737912027692149
-0.9420597564485416
-0.08980588294131484
0.47343041697156424
-0.9420597564485416
-0.08980588294131484
0.47343041697156424
-0.9420597564485416
-0.08980588294131484
0.47343041697156424
-0.9420597564485416
-0.08980588294131484
0.47343041697156424
-0.9426745520819377
-0.08965973264192487
0.47291282916400423
-0.9426745520819377
-0.08965973264192487
0.47291282916400423
-0.9426745520819377
-0.08965973264192487
0.47291282916400423
-0.9426745520819377
-0.08965973264192487
0.47291282916400423
-0.9418012343599541
-0.08980969931492351
0.47268978156840413
-0.9418012343599541
-0.08980969931492351
0.47268978156840413
-0.9418012343599541
-0.08980969931492351
0.47268978156840413
-0.9418012343599541
-0.08980969931492351
0.47268978156840413
-0.9405562581321045
-0.09005121610283601
0.4724632679132813
-0.9405562581321045
-0.09005121610283601
0.4724632679132813
-0.9405562581321045
-0.09005121610283601
0.4724632679132813
-0.9405562581321045
-0.09005121610283601
0.4724632679132813
-0.9405842361706774
-0.09015631771424003
0.472518360536697
-0.9405842361706774
-0.09015631771424003
0.472518360536697
-0.9405842361706774
-0.09015631771424003
0.472518360536697
-0.9405842361706774
-0.09015631771424003
0.472518360536697
-0.9411247459824953
-0.09008340688927202
0.47243597306739726
-0.9411247459824953
-0.09008340688927202
0.47243597306739726
-0.9411247459824953
-0.09008340688927202
0.47243597306739726
-0.9411247459824953
-0.09008340688927202
0.47243597306739726
-0.9412853879301625
-0.09004736929198867
0.4724557339194959
-0.9412853879301625
-0.09004736929198867
0.4724557339194959
-0.9412853879301625
-0.09004736929198867
0.4724557339194959
-0.9412853879301625
-0.09004736929198867
0.4724557339194959
-0.9412853879301625
-0.09004736929198867
0.4724557339194959
-0.9412853879301625
-0.09004736929198867
0.4724557339194959
-0.9412853879301625
-0.09004736929198867
0.4724557339194959
-0.9412853879301625
-0.09004736929198867
0.4724557339194959
-0.9411247459824953
-0.09008340688927202
0.47243597306739726
-0.9411247459824953
-0.09008340688927202
0.47243597306739726
-0.9411247459824953
-0.09008340688927202
0.47243597306739726
-0.9411247459824953
-0.09008340688927202
0.47243597306739726
-0.9411247459824953
-0.09008340688927202
0.47243597306739726
-0.9411247459824953
-0.09008340688927202
0.47243597306739726
-0.9411247459824953
-0.09008340688927202
0.47243597306739726
-0.9411247459824953
-0.09008340688927202
0.47243597306739726
-0.9411247459824953
-0.09008340688927202
0.47243597306739726
-0.9411247459824953
-0.09008340688927202
0.47243597306739726
-0.9411247459824953
-0.09008340688927202
0.47243597306739726
-0.9411247459824953
-0.09008340688927202
0.47243597306739726
-0.9401319679943206
-0.08987331904039571
0.4727214409801179
-0.9401319679943206
-0.08987331904039571
0.4727214409801179
-0.9401319679943206
-0.08987331904039571
0.4727214409801179
-0.9401319679943206
-0.08987331904039571
0.4727214409801179
-0.9401261245421064
-0.0895406498954286
0.4731165182576448
-0.9401261245421064
-0.0895406498954286
0.4731165182576448
-0.9401261245421064
-0.0895406498954286
0.4731165182576448
-0.9401261245421064
-0.0895406498954286
0.4731165182576448
-0.9406440844767096
-0.08902504159282038
0.47364001214113804
-0.9406440844767096
-0.08902504159282038
0.47364001214113804
-0.9406440844767096
-0.08902504159282038
0.47364001214113804
-0.9406440844767096
-0.08902504159282038
0.47364001214113804
-0.9406440844767096
-0.08902504159282038
0.47364001214113804
-0.9406440844767096
-0.08902504159282038
0.47364001214113804
-0.9406440844767096
-0.08902504159282038
0.47364001214113804
-0.9406440844767096
-0.08902504159282038
0.47364001214113804
-0.939468619178071
-0.0890792095364229
0.47345612846981755
-0.939468619178071
-0.0890792095364229
0.47345612846981755
-0.939468619178071
-0.0890792095364229
0.47345612846981755
-0.939468619178071
-0.0890792095364229
0.47345612846981755
-0.9394488861313578
-0.08902887559168685
0.47329556852258586
-0.9394488861313578
-0.08902887559168685
0.47329556852258586
-0.9394488861313578
-0.08902887559168685
0.47329556852258586
-0.9394488861313578
-0.08902887559168685
0.47329556852258586
-0.9396011795427223
-0.08893795410202868
0.47342084185930583
-0.9396011795427223
-0.08893795410202868
0.47342084185930583
-0.9396011795427223
-0.08893795410202868
0.47342084185930583
-0.9396011795427223
-0.08893795410202868
0.47342084185930583
-0.9396011795427223
-0.08893795410202868
0.47342084185930583
-0.9396011795427223
-0.08893795410202868
0.47342084185930583
-0.9396011795427223
-0.08893795410202868
0.47342084185930583
-0.9396011795427223
-0.08893795410202868
0.47342084185930583
-0.9395236348850036
-0.08907097428582571
0.4734841332890243
-0.9395236348850036
-0.08907097428582571
0.4734841332890243
-0.9395236348850036
-0.08907097428582571
0.4734841332890243
-0.9395236348850036
-0.08907097428582571
0.4734841332890243
-0.9395236348850036
-0.08907097428582571
0.4734841332890243
-0.9395236348850036
-0.08907097428582571
0.4734841332890243
-0.9395236348850036
-0.08907097428582571
0.4734841332890243
-0.9395236348850036
-0.08907097428582571
0.4734841332890243
-0.939468619178071
-0.0890792095364229
0.47345612846981755
-0.939468619178071
-0.0890792095364229
0.47345612846981755
-0.939468619178071
-0.0890792095364229
0.47345612846981755
-0.939468619178071
-0.0890792095364229
0.47345612846981755
-0.9394768832136579
-0.08913400540098182
0.47335058260443
-0.9394768832136579
-0.08913400540098182
0.47335058260443
-0.9394768832136579
-0.08913400540098182
0.47335058260443
-0.9394768832136579
-0.08913400540098182
0.47335058260443
-0.9393713333101675
-0.08916189528349823
0.47335884260191413
-0.9393713333101675
-0.08916189528349823
0.47335884260191413
-0.9393713333101675
-0.08916189528349823
0.47335884260191413
-0.9393713333101675
-0.08916189528349823
0.47335884260191413
-0.9387170310904862
-0.08920828026752113
0.4735552226986228
-0.9387170310904862
-0.08920828026752113
0.4735552226986228
-0.9387170310904862
-0.08920828026752113
0.4735552226986228
-0.9387170310904862
-0.08920828026752113
0.4735552226986228
-0.9374579600420154
-0.08906314923354301
0.47382983563359404
-0.9374579600420154
-0.08906314923354301
0.47382983563359404
-0.9374579600420154
-0.08906314923354301
0.47382983563359404
-0.9374579600420154
-0.08906314923354301
0.47382983563359404
-0.9346786918141998
-0.08838527601163841
0.4744068406116088
-0.9346786918141998
-0.08838527601163841
0.4744068406116088
-0.9346786918141998
-0.08838527601163841
0.4744068406116088
-0.9346786918141998
-0.08838527601163841
0.4744068406116088
-0.9286589033926308
-0.08738230135728964
0.47598250633919437
-0.9286589033926308
-0.08738230135728964
0.47598250633919437
-0.9286589033926308
-0.08738230135728964
0.47598250633919437
-0.9286589033926308
-0.08738230135728964
0.47598250633919437
-0.9157766069900372
-0.08672684451097469
0.47831169885721037
-0.9157766069900372
-0.08672684451097469
0.47831169885721037
-0.9157766069900372
-0.08672684451097469
0.47831169885721037
-0.9157766069900372
-0.08672684451097469
0.47831169885721037
-0.8947639479023989
-0.08627058120200794
0.48178023509326745
-0.8947639479023989
-0.08627058120200794
0.48178023509326745
-0.8947639479023989
-0.08627058120200794
0.48178023509326745
-0.8947639479023989
-0.08627058120200794
0.48178023509326745
-0.8663349032987169
-0.08622867334752903
0.4867962846273823
-0.8663349032987169
-0.08622867334752903
0.4867962846273823
-0.8663349032987169
-0.08622867334752903
0.4867962846273823
-0.8663349032987169
-0.08622867334752903
0.4867962846273823
-0.8331707820296363
-0.08705928486511515
0.4922096334316696
-0.8331707820296363
-0.08705928486511515
0.4922096334316696
-0.8331707820296363
-0.08705928486511515
0.4922096334316696
-0.8331707820296363
-0.08705928486511515
0.4922096334316696
-0.7982084654940825
-0.08840849586425856
0.4979984940556202
-0.7982084654940825
-0.08840849586425856
0.4979984940556202
-0.7982084654940825
-0.08840849586425856
0.4979984940556202
-0.7982084654940825
-0.08840849586425856
0.4979984940556202
-0.7650996209574974
-0.0883960266887455
0.5047209326722724
-0.7650996209574974
-0.0883960266887455
0.5047209326722724
-0.7650996209574974
-0.0883960266887455
0.5047209326722724
-0.7650996209574974
-0.0883960266887455
0.5047209326722724
-0.73671019703288
-0.08709806733367921
0.51155569734229
-0.73671019703288
-0.08709806733367921
0.51155569734229
-0.73671019703288
-0.08709806733367921
0.51155569734229
-0.73671019703288
-0.08709806733367921
0.51155569734229
-0.7116179034764575
-0.0860170965765407
0.5169778606613811
-0.7116179034764575
-0.0860170965765407
0.5169778606613811
-0.7116179034764575
-0.0860170965765407
0.5169778606613811
-0.7116179034764575
-0.0860170965765407
0.5169778606613811
-0.6877129009268139
-0.08551596378299121
0.5204379586621244
-0.6877129009268139
-0.08551596378299121
0.5204379586621244
-0.6877129009268139
-0.08551596378299121
0.5204379586621244
-0.6877129009268139
-0.08551596378299121
0.5204379586621244
-0.6613475111145484
-0.08436295548080695
0.5224408591239043
-0.6613475111145484
-0.08436295548080695
0.5224408591239043
-0.6613475111145484
-0.08436295548080695
0.5224408591239043
-0.6613475111145484
-0.08436295548080695
0.5224408591239043
-0.6321830812478182
-0.08269199003524093
0.5253705735075668
-0.6321830812478182
-0.08269199003524093
0.5253705735075668
-0.6321830812478182
-0.08269199003524093
0.5253705735075668
-0.6321830812478182
-0.08269199003524093
0.5253705735075668
-0.6008753528113084
-0.0808041103069206
0.5291167119729452
-0.6008753528113084
-0.0808041103069206
0.5291167119729452
-0.6008753528113084
-0.0808041103069206
0.5291167119729452
-0.6008753528113084
-0.0808041103069206
0.5291167119729452
-0.5739184770275114
-0.07935577556835528
0.5340835761968039
-0.5739184770275114
-0.07935577556835528
0.5340835761968039
-0.5739184770275114
-0.07935577556835528
0.5340835761968039
-0.5739184770275114
-0.07935577556835528
0.5340835761968039
-0.5516227609761106
-0.07902392583801045
0.5388137228798426
-0.5516227609761106
-0.07902392583801045
0.5388137228798426
-0.5516227609761106
-0.07902392583801045
0.5388137228798426
-0.5516227609761106
-0.07902392583801045
0.5388137228798426
-0.5328380788220969
-0.07960538976029449
0.542589514208306
-0.5328380788220969
-0.07960538976029449
0.542589514208306
-0.5328380788220969
-0.07960538976029449
0.542589514208306
-0.5328380788220969
-0.07960538976029449
0.542589514208306
-0.5164989208436324
-0.0812404088273512
0.5466715757930416
-0.5164989208436324
-0.0812404088273512
0.5466715757930416
-0.5164989208436324
-0.0812404088273512
0.5466715757930416
-0.5164989208436324
-0.0812404088273512
0.5466715757930416
-0.5010028717342698
-0.08350892804737381
0.5507316087778051
-0.5010028717342698
-0.08350892804737381
0.5507316087778051
-0.5010028717342698
-0.08350892804737381
0.5507316087778051
-0.5010028717342698
-0.08350892804737381
0.5507316087778051
-0.489519326847228
-0.08583734964236803
0.5540772989939089
-0.489519326847228
-0.08583734964236803
0.5540772989939089
-0.489519326847228
-0.08583734964236803
0.5540772989939089
-0.489519326847228
-0.08583734964236803
0.5540772989939089
-0.4818617831756596
-0.08855026631016541
0.5565255912870899
-0.4818617831756596
-0.08855026631016541
0.5565255912870899
-0.4818617831756596
-0.08855026631016541
0.5565255912870899
-0.4818617831756596
-0.08855026631016541
0.5565255912870899
-0.4771159131764887
-0.09146179344173673
0.5586985135696033
-0.4771159131764887
-0.09146179344173673
0.5586985135696033
-0.4771159131764887
-0.09146179344173673
0.5586985135696033
-0.4771159131764887
-0.09146179344173673
0.5586985135696033
-0.47289365171207
-0.09501817733585509
0.5614676829081211
-0.47289365171207
-0.09501817733585509
0.5614676829081211
-0.47289365171207
-0.09501817733585509
0.5614676829081211
-0.47289365171207
-0.09501817733585509
0.5614676829081211
-0.4697379486135063
-0.09775523904056206
0.5642668189221194
-0.4697379486135063
-0.09775523904056206
0.5642668189221194
-0.4697379486135063
-0.09775523904056206
0.5642668189221194
-0.4697379486135063
-0.09775523904056206
0.5642668189221194
-0.4697869831871715
-0.09955963634950694
0.56668644031575
-0.4697869831871715
-0.09955963634950694
0.56668644031575
-0.4697869831871715
-0.09955963634950694
0.56668644031575
-0.4697869831871715
-0.09955963634950694
0.56668644031575
-0.47254779072126013
-0.10154200934653564
0.5684276921652508
-0.47254779072126013
-0.10154200934653564
0.5684276921652508
-0.47254779072126013
-0.10154200934653564
0.5684276921652508
-0.47254779072126013
-0.10154200934653564
0.5684276921652508
-0.47324494246614734
-0.10383378089920393
0.569604908170052
-0.47324494246614734
-0.10383378089920393
0.569604908170052
-0.47324494246614734
-0.10383378089920393
0.569604908170052
-0.47324494246614734
-0.10383378089920393
0.569604908170052
-0.4728019008098597
-0.10586989916326905
0.5704694243593391
-0.4728019008098597
-0.10586989916326905
0.5704694243593391
-0.4728019008098597
-0.10586989916326905
0.5704694243593391
-0.4728019008098597
-0.10586989916326905
0.5704694243593391
-0.4725385056414972
-0.10743820759342267
0.5708332703126044
-0.4725385056414972
-0.10743820759342267
0.5708332703126044
-0.4725385056414972
-0.10743820759342267
0.5708332703126044
-0.4725385056414972
-0.10743820759342267
0.5708332703126044
-0.4734378078081217
-0.10799263527473474
0.5713622680719502
-0.4734378078081217
-0.10799263527473474
0.5713622680719502
-0.4734378078081217
-0.10799263527473474
0.5713622680719502
-0.4734378078081217
-0.10799263527473474
0.5713622680719502
-0.47447139077484907
-0.10940340481457268
0.5719861529344356
-0.47447139077484907
-0.10940340481457268
0.5719861529344356
-0.47447139077484907
-0.10940340481457268
0.5719861529344356
-0.47447139077484907
-0.10940340481457268
0.5719861529344356
-0.4740655924650626
-0.11046016738448886
0.5724608733363972
-0.4740655924650626
-0.11046016738448886
0.5724608733363972
-0.4740655924650626
-0.11046016738448886
0.5724608733363972
-0.4740655924650626
-0.11046016738448886
0.5724608733363972
-0.473747189973015
-0.11099430319146944
0.5728137667455206
-0.473747189973015
-0.11099430319146944
0.5728137667455206
-0.473747189973015
-0.11099430319146944
0.5728137667455206
-0.473747189973015
-0.11099430319146944
0.5728137667455206
-0.47418408808043827
-0.11154716361143648
0.5727651215934582
-0.47418408808043827
-0.11154716361143648
0.5727651215934582
-0.47418408808043827
-0.11154716361143648
0.5727651215934582
-0.47418408808043827
-0.11154716361143648
0.5727651215934582
-0.4751200472264387
-0.11169871820984685
0.5726488802095796
-0.4751200472264387
-0.11169871820984685
0.5726488802095796
-0.4751200472264387
-0.11169871820984685
0.5726488802095796
-0.4751200472264387
-0.11169871820984685
0.5726488802095796
-0.4751552611313153
-0.11181189500886216
0.5726784505357927
-0.4751552611313153
-0.11181189500886216
0.5726784505357927
-0.4751552611313153
-0.11181189500886216
0.5726784505357927
-0.4751552611313153
-0.11181189500886216
0.5726784505357927
-0.47501442534272814
-0.11135917179398017
0.5725601929784966
-0.47501442534272814
-0.11135917179398017
0.5725601929784966
-0.47501442534272814
-0.11135917179398017
0.5725601929784966
-0.47501442534272814
-0.11135917179398017
0.5725601929784966
-0.47632809104647655
-0.11100023547500736
0.5724969473767911
-0.47632809104647655
-0.11100023547500736
0.5724969473767911
-0.47632809104647655
-0.11100023547500736
0.5724969473767911
-0.47632809104647655
-0.11100023547500736
0.5724969473767911
-0.4776851932666332
-0.1103801219482267
0.5723719830650741
-0.4776851932666332
-0.1103801219482267
0.5723719830650741
-0.4776851932666332
-0.1103801219482267
0.5723719830650741
-0.4776851932666332
-0.1103801219482267
0.5723719830650741
-0.4778073885258005
-0.10997074928808
0.5722791430083367
-0.4778073885258005
-0.10997074928808
0.5722791430083367
-0.4778073885258005
-0.10997074928808
0.5722791430083367
-0.4778073885258005
-0.10997074928808
0.5722791430083367
-0.47717979705113317
-0.10963027568588467
0.5722467803031401
-0.47717979705113317
-0.10963027568588467
0.5722467803031401
-0.47717979705113317
-0.10963027568588467
0.5722467803031401
-0.47717979705113317
-0.10963027568588467
0.5722467803031401
-0.47722335271080574
-0.1093689946246673
0.57218557608031
-0.47722335271080574
-0.1093689946246673
0.57218557608031
-0.47722335271080574
-0.1093689946246673
0.57218557608031
-0.47722335271080574
-0.1093689946246673
0.57218557608031
-0.4771768899574204
-0.10905233933403718
0.5725030016707449
-0.4771768899574204
-0.10905233933403718
0.5725030016707449
-0.4771768899574204
-0.10905233933403718
0.5725030016707449
-0.4771768899574204
-0.10905233933403718
0.5725030016707449
-0.4772848786844996
-0.10892900138130958
0.5728425750175128
-0.4772848786844996
-0.10892900138130958
0.5728425750175128
-0.4772848786844996
-0.10892900138130958
0.5728425750175128
-0.4772848786844996
-0.10892900138130958
0.5728425750175128
-0.477426390135766
-0.10886261671521232
0.5729896233955922
-0.477426390135766
-0.10886261671521232
0.5729896233955922
-0.477426390135766
-0.10886261671521232
0.5729896233955922
-0.477426390135766
-0.10886261671521232
0.5729896233955922
-0.4780231929884089
-0.10865629013790828
0.5731287385024986
-0.4780231929884089
-0.10865629013790828
0.5731287385024986
-0.4780231929884089
-0.10865629013790828
0.5731287385024986
-0.4780231929884089
-0.10865629013790828
0.5731287385024986
-0.47944485468838394
-0.10814700484182407
0.5730665492567261
-0.47944485468838394
-0.10814700484182407
0.5730665492567261
-0.47944485468838394
-0.10814700484182407
0.5730665492567261
-0.47944485468838394
-0.10814700484182407
0.5730665492567261
-0.48224590461296785
-0.10744553446668911
0.5732241498316593
-0.48224590461296785
-0.10744553446668911
0.5732241498316593
-0.48224590461296785
-0.10744553446668911
0.5732241498316593
-0.48224590461296785
-0.10744553446668911
0.5732241498316593
-0.4866246823939731
-0.10644913787877808
0.5739297802899388
-0.4866246823939731
-0.10644913787877808
0.5739297802899388
-0.4866246823939731
-0.10644913787877808
0.5739297802899388
-0.4866246823939731
-0.10644913787877808
0.5739297802899388
-0.4938874750381423
-0.10474294419650741
0.5746293541128273
-0.4938874750381423
-0.10474294419650741
0.5746293541128273
-0.4938874750381423
-0.10474294419650741
0.5746293541128273
-0.4938874750381423
-0.10474294419650741
0.5746293541128273
-0.5062800048310363
-0.10251421049709904
0.5753544351485037
-0.5062800048310363
-0.10251421049709904
0.5753544351485037
-0.5062800048310363
-0.10251421049709904
0.5753544351485037
-0.5062800048310363
-0.10251421049709904
0.5753544351485037
-0.5249992296247004
-0.09893483452220637
0.575311870678751
-0.5249992296247004
-0.09893483452220637
0.575311870678751
-0.5249992296247004
-0.09893483452220637
0.575311870678751
-0.5249992296247004
-0.09893483452220637
0.575311870678751
-0.5488437064153336
-0.09371321236618792
0.5745252273458652
-0.5488437064153336
-0.09371321236618792
0.5745252273458652
-0.5488437064153336
-0.09371321236618792
0.5745252273458652
-0.5488437064153336
-0.09371321236618792
0.5745252273458652
-0.5765916639500097
-0.08798637872151867
0.5749531834224253
-0.5765916639500097
-0.08798637872151867
0.5749531834224253
-0.5765916639500097
-0.08798637872151867
0.5749531834224253
-0.5765916639500097
-0.08798637872151867
0.5749531834224253
-0.6054041791419398
-0.08208380861996771
0.5758306056179678
-0.6054041791419398
-0.08208380861996771
0.5758306056179678
-0.6054041791419398
-0.08208380861996771
0.5758306056179678
-0.6054041791419398
-0.08208380861996771
0.5758306056179678
-0.6360509631507599
-0.07682329176803447
0.5759302060556426
-0.6360509631507599
-0.07682329176803447
0.5759302060556426
-0.6360509631507599
-0.07682329176803447
0.5759302060556426
-0.6360509631507599
-0.07682329176803447
0.5759302060556426
-0.6651852629088859
-0.07435998671016172
0.5742371003310799
-0.6651852629088859
-0.07435998671016172
0.5742371003310799
-0.6651852629088859
-0.07435998671016172
0.5742371003310799
-0.6651852629088859
-0.07435998671016172
0.5742371003310799
-0.6927867562644912
-0.07427597667994822
0.5723426021797378
-0.6927867562644912
-0.07427597667994822
0.5723426021797378
-0.6927867562644912
-0.07427597667994822
0.5723426021797378
-0.6927867562644912
-0.07427597667994822
0.5723426021797378
-0.7285298492750796
-0.07140681594127853
0.5686817899294604
-0.7285298492750796
-0.07140681594127853
0.5686817899294604
-0.7285298492750796
-0.07140681594127853
0.5686817899294604
-0.7285298492750796
-0.07140681594127853
0.5686817899294604
-0.7742166929723249
-0.06722740339289537
0.5646854727394115
-0.7742166929723249
-0.06722740339289537
0.5646854727394115
-0.7742166929723249
-0.06722740339289537
0.5646854727394115
-0.7742166929723249
-0.06722740339289537
0.5646854727394115
-0.8126756025001267
-0.06513135230844043
0.5607820240647265
-0.8126756025001267
-0.06513135230844043
0.5607820240647265
-0.8126756025001267
-0.06513135230844043
0.5607820240647265
-0.8126756025001267
-0.06513135230844043
0.5607820240647265
-0.8363047370472315
-0.06344181364043322
0.5561433653918779
-0.8363047370472315
-0.06344181364043322
0.5561433653918779
-0.8363047370472315
-0.06344181364043322
0.5561433653918779
-0.8363047370472315
-0.06344181364043322
0.5561433653918779
-0.8496527133276165
-0.06134850151036365
0.5507771974787631
-0.8496527133276165
-0.06134850151036365
0.5507771974787631
-0.8496527133276165
-0.06134850151036365
0.5507771974787631
-0.8496527133276165
-0.06134850151036365
0.5507771974787631
-0.8612951296573971
-0.05876018321553247
0.5474006018690916
-0.8612951296573971
-0.05876018321553247
0.5474006018690916
-0.8612951296573971
-0.05876018321553247
0.5474006018690916
-0.8612951296573971
-0.05876018321553247
0.5474006018690916
-0.87387611228196
-0.05563575909087541
0.5447116362111655
-0.87387611228196
-0.05563575909087541
0.5447116362111655
-0.87387611228196
-0.05563575909087541
0.5447116362111655
-0.87387611228196
-0.05563575909087541
0.5447116362111655
-0.8848504301522521
-0.053640830919701725
0.5427051275033961
-0.8848504301522521
-0.053640830919701725
0.5427051275033961
-0.8848504301522521
-0.053640830919701725
0.5427051275033961
-0.8848504301522521
-0.053640830919701725
0.5427051275033961
-0.8937962564350791
-0.0524744491153534
0.541315627846504
-0.8937962564350791
-0.0524744491153534
0.541315627846504
-0.8937962564350791
-0.0524744491153534
0.541315627846504
-0.8937962564350791
-0.0524744491153534
0.541315627846504
-0.9008030653305282
-0.05231097759147341
0.5398294886536809
-0.9008030653305282
-0.05231097759147341
0.5398294886536809
-0.9008030653305282
-0.05231097759147341
0.5398294886536809
-0.9008030653305282
-0.05231097759147341
0.5398294886536809
-0.9083788478571485
-0.052170627139698084
0.5383043382982826
-0.9083788478571485
-0.052170627139698084
0.5383043382982826
-0.9083788478571485
-0.052170627139698084
0.5383043382982826
-0.9083788478571485
-0.052170627139698084
0.5383043382982826
-0.91745719140592
-0.05179021493153968
0.536181429877739
-0.91745719140592
-0.05179021493153968
0.536181429877739
-0.91745719140592
-0.05179021493153968
0.536181429877739
-0.91745719140592
-0.05179021493153968
0.536181429877739
-0.9253263925298534
-0.050795558302594905
0.533431113870394
-0.9253263925298534
-0.050795558302594905
0.533431113870394
-0.9253263925298534
-0.050795558302594905
0.533431113870394
-0.9253263925298534
-0.050795558302594905
0.533431113870394
-0.9317334387292353
-0.04925807484475677
0.5303049684316917
-0.9317334387292353
-0.04925807484475677
0.5303049684316917
-0.9317334387292353
-0.04925807484475677
0.5303049684316917
-0.9317334387292353
-0.04925807484475677
0.5303049684316917
-0.9376767365568931
-0.04809238876678393
0.5272653189984534
-0.9376767365568931
-0.04809238876678393
0.5272653189984534
-0.9376767365568931
-0.04809238876678393
0.5272653189984534
-0.9376767365568931
-0.04809238876678393
0.5272653189984534
-0.9438732101451996
-0.04744809776860795
0.5242857191637382
-0.9438732101451996
-0.04744809776860795
0.5242857191637382
-0.9438732101451996
-0.04744809776860795
0.5242857191637382
-0.9438732101451996
-0.04744809776860795
0.5242857191637382
-0.9502272956200735
-0.0471683503234428
0.521583932452195
-0.9502272956200735
-0.0471683503234428
0.521583932452195
-0.9502272956200735
-0.0471683503234428
0.521583932452195
-0.9502272956200735
-0.0471683503234428
0.521583932452195
-0.9557998170716199
-0.04711583671705951
0.5191994361265408
-0.9557998170716199
-0.04711583671705951
0.5191994361265408
-0.9557998170716199
-0.04711583671705951
0.5191994361265408
-0.9557998170716199
-0.04711583671705951
0.5191994361265408
-0.9594092718784969
-0.04646356543375897
0.5170365090023658
-0.9594092718784969
-0.04646356543375897
0.5170365090023658
-0.9594092718784969
-0.04646356543375897
0.5170365090023658
-0.9594092718784969
-0.04646356543375897
0.5170365090023658
-0.9623982947596488
-0.0455838874938423
0.5150641118812533
-0.9623982947596488
-0.0455838874938423
0.5150641118812533
-0.9623982947596488
-0.0455838874938423
0.5150641118812533
-0.9623982947596488
-0.0455838874938423
0.5150641118812533
-0.9653674293801453
-0.0443722199123824
