-0.41869379684545904
0.050172870496427095
0.6238388437209894
-0.41869379684545904
0.050172870496427095
0.6238388437209894
-0.41857984979602997
0.05013684296858667
0.6238494886354622
-0.41857984979602997
0.05013684296858667
0.6238494886354622
-0.41857984979602997
0.05013684296858667
0.6238494886354622
-0.41857984979602997
0.05013684296858667
0.6238494886354622
-0.4185566094954005
0.05012621438086185
0.6238134166521093
-0.4185566094954005
0.05012621438086185
0.6238134166521093
-0.4185566094954005
0.05012621438086185
0.6238134166521093
-0.4185566094954005
0.05012621438086185
0.6238134166521093
-0.41904053418160003
0.04988029076456559
0.6237733974689882
-0.41904053418160003
0.04988029076456559
0.6237733974689882
-0.41904053418160003
0.04988029076456559
0.6237733974689882
-0.41904053418160003
0.04988029076456559
0.6237733974689882
-0.41904053418160003
0.04988029076456559
0.6237733974689882
-0.41904053418160003
0.04988029076456559
0.6237733974689882
-0.41904053418160003
0.04988029076456559
0.6237733974689882
-0.41904053418160003
0.04988029076456559
0.6237733974689882
-0.4189626660728427
0.04973046648914344
0.62380729921949
-0.4189626660728427
0.04973046648914344
0.62380729921949
-0.4189626660728427
0.04973046648914344
0.62380729921949
-0.4189626660728427
0.04973046648914344
0.62380729921949
-0.4189626660728427
0.04973046648914344
0.62380729921949
-0.4189626660728427
0.04973046648914344
0.62380729921949
-0.4189626660728427
0.04973046648914344
0.62380729921949
-0.4189626660728427
0.04973046648914344
0.62380729921949
-0.4189626660728427
0.04973046648914344
0.62380729921949
-0.4189626660728427
0.04973046648914344
0.62380729921949
-0.4189626660728427
0.04973046648914344
0.62380729921949
-0.4189626660728427
0.04973046648914344
0.62380729921949
-0.4189626660728427
0.04973046648914344
0.62380729921949
-0.4189626660728427
0.04973046648914344
0.62380729921949
-0.4189626660728427
0.04973046648914344
0.62380729921949
-0.4189626660728427
0.04973046648914344
0.62380729921949
-0.4189626660728427
0.04973046648914344
0.62380729921949
-0.4189626660728427
0.04973046648914344
0.62380729921949
-0.4189626660728427
0.04973046648914344
0.62380729921949
-0.4189626660728427
0.04973046648914344
0.62380729921949
-0.4189626660728427
0.04973046648914344
0.62380729921949
-0.4189626660728427
0.04973046648914344
0.62380729921949
-0.4189626660728427
0.04973046648914344
0.62380729921949
-0.4189626660728427
0.04973046648914344
0.62380729921949
-0.41891596126076935
0.049867502029865625
0.623897970389819
-0.41891596126076935
0.049867502029865625
0.623897970389819
-0.41891596126076935
0.049867502029865625
0.623897970389819
-0.41891596126076935
0.049867502029865625
0.623897970389819
-0.41764427326871134
0.050194260758546876
0.6242972357226257
-0.41764427326871134
0.050194260758546876
0.6242972357226257
-0.41764427326871134
0.050194260758546876
0.6242972357226257
-0.41764427326871134
0.050194260758546876
0.6242972357226257
-0.41613390506836473
0.05047140116466067
0.6248321383724224
-0.41613390506836473
0.05047140116466067
0.6248321383724224
-0.41613390506836473
0.05047140116466067
0.6248321383724224
-0.41613390506836473
0.05047140116466067
0.6248321383724224
-0.413790228490799
0.050450707865639204
0.6252553957874802
-0.413790228490799
0.050450707865639204
0.6252553957874802
-0.413790228490799
0.050450707865639204
0.6252553957874802
-0.413790228490799
0.050450707865639204
0.6252553957874802
-0.4107689262260089
0.049653869473497814
0.625543060999512
-0.4107689262260089
0.049653869473497814
0.625543060999512
-0.4107689262260089
0.049653869473497814
0.625543060999512
-0.4107689262260089
0.049653869473497814
0.625543060999512
-0.4041126038717987
0.04948362826604428
0.6251643522250412
-0.4041126038717987
0.04948362826604428
0.6251643522250412
-0.4041126038717987
0.04948362826604428
0.6251643522250412
-0.4041126038717987
0.04948362826604428
0.6251643522250412
-0.40031242218942814
0.05220436471654368
0.6272344429394414
-0.40031242218942814
0.05220436471654368
0.6272344429394414
-0.40031242218942814
0.05220436471654368
0.6272344429394414
-0.40031242218942814
0.05220436471654368
0.6272344429394414
-0.40400783689656816
0.05830956659005123
0.6305313604582259
-0.40400783689656816
0.05830956659005123
0.6305313604582259
-0.40400783689656816
0.05830956659005123
0.6305313604582259
-0.40400783689656816
0.05830956659005123
0.6305313604582259
-0.4087684575229735
0.06730023185317252
0.6351075239665994
-0.4087684575229735
0.06730023185317252
0.6351075239665994
-0.4087684575229735
0.06730023185317252
0.6351075239665994
-0.4087684575229735
0.06730023185317252
0.6351075239665994
-0.4085418408129969
0.07689009971614555
0.6379795329852702
-0.4085418408129969
0.07689009971614555
0.6379795329852702
-0.4085418408129969
0.07689009971614555
0.6379795329852702
-0.4085418408129969
0.07689009971614555
0.6379795329852702
-0.41941985218882505
0.0820146826661316
0.638595889870416
-0.41941985218882505
0.0820146826661316
0.638595889870416
-0.41941985218882505
0.0820146826661316
0.638595889870416
-0.41941985218882505
0.0820146826661316
0.638595889870416
-0.4316958181721213
0.08224042405152404
0.6369282112432492
-0.4316958181721213
0.08224042405152404
0.6369282112432492
-0.4316958181721213
0.08224042405152404
0.6369282112432492
-0.4316958181721213
0.08224042405152404
0.6369282112432492
-0.44278137939332235
0.07987629465120112
0.6327994059506075
-0.44278137939332235
0.07987629465120112
0.6327994059506075
-0.44278137939332235
0.07987629465120112
0.6327994059506075
-0.44278137939332235
0.07987629465120112
0.6327994059506075
-0.44181272061448557
0.07123945461343516
0.6320883949956742
-0.44181272061448557
0.07123945461343516
0.6320883949956742
-0.44181272061448557
0.07123945461343516
0.6320883949956742
-0.44181272061448557
0.07123945461343516
0.6320883949956742
-0.4351869340625435
0.0599703304675681
0.6337976724174712
-0.4351869340625435
0.0599703304675681
0.6337976724174712
-0.4351869340625435
0.0599703304675681
0.6337976724174712
-0.4351869340625435
0.0599703304675681
0.6337976724174712
-0.4297569243266966
0.05621862155110211
0.6327698454317556
-0.4297569243266966
0.05621862155110211
0.6327698454317556
-0.4297569243266966
0.05621862155110211
0.6327698454317556
-0.4297569243266966
0.05621862155110211
0.6327698454317556
-0.4305466199533476
0.05510171147310787
0.6330702273754925
-0.4305466199533476
0.05510171147310787
0.6330702273754925
-0.4305466199533476
0.05510171147310787
0.6330702273754925
-0.4305466199533476
0.05510171147310787
0.6330702273754925
-0.4341939368866842
0.053298927096831275
0.6313467327857264
-0.4341939368866842
0.053298927096831275
0.6313467327857264
-0.4341939368866842
0.053298927096831275
0.6313467327857264
-0.4341939368866842
0.053298927096831275
0.6313467327857264
-0.43808648293343583
0.05209381994466648
0.6302007654270347
-0.43808648293343583
0.05209381994466648
0.6302007654270347
-0.43808648293343583
0.05209381994466648
0.6302007654270347
-0.43808648293343583
0.05209381994466648
0.6302007654270347
-0.43853181425759286
0.05162060892754167
0.6280787260036391
-0.43853181425759286
0.05162060892754167
0.6280787260036391
-0.43853181425759286
0.05162060892754167
0.6280787260036391
-0.43853181425759286
0.05162060892754167
0.6280787260036391
-0.43823993954171697
0.05085414947898924
0.6274662458731535
-0.43823993954171697
0.05085414947898924
0.6274662458731535
-0.43823993954171697
0.05085414947898924
0.6274662458731535
-0.43823993954171697
0.05085414947898924
0.6274662458731535
-0.4396906034867908
0.049898018662305886
0.626928593760931
-0.4396906034867908
0.049898018662305886
0.626928593760931
-0.4396906034867908
0.049898018662305886
0.626928593760931
-0.4396906034867908
0.049898018662305886
0.626928593760931
-0.44090904050146784
0.05020757281834554
0.6265492953426818
-0.44090904050146784
0.05020757281834554
0.6265492953426818
-0.44090904050146784
0.05020757281834554
0.6265492953426818
-0.44090904050146784
0.05020757281834554
0.6265492953426818
-0.44084874517219186
0.05066662836693724
0.6257753891392462
-0.44084874517219186
0.05066662836693724
0.6257753891392462
-0.44084874517219186
0.05066662836693724
0.6257753891392462
-0.44084874517219186
0.05066662836693724
0.6257753891392462
-0.4393600439281114
0.0514544699709385
0.6244924931395712
-0.4393600439281114
0.0514544699709385
0.6244924931395712
-0.4393600439281114
0.0514544699709385
0.6244924931395712
-0.4393600439281114
0.0514544699709385
0.6244924931395712
-0.43931565664869127
0.052206549032362326
0.6232576136795174
-0.43931565664869127
0.052206549032362326
0.6232576136795174
-0.43931565664869127
0.052206549032362326
0.6232576136795174
-0.43931565664869127
0.052206549032362326
0.6232576136795174
-0.44153999618047485
0.053402154650518924
0.6224508562552156
-0.44153999618047485
0.053402154650518924
0.6224508562552156
-0.44153999618047485
0.053402154650518924
0.6224508562552156
-0.44153999618047485
0.053402154650518924
0.6224508562552156
-0.4431956619251604
0.054838809131899514
0.6223556099524337
-0.4431956619251604
0.054838809131899514
0.6223556099524337
-0.4431956619251604
0.054838809131899514
0.6223556099524337
-0.4431956619251604
0.054838809131899514
0.6223556099524337
-0.44238088381910823
0.056488171411982965
0.6215730599675131
-0.44238088381910823
0.056488171411982965
0.6215730599675131
-0.44238088381910823
0.056488171411982965
0.6215730599675131
-0.44238088381910823
0.056488171411982965
0.6215730599675131
-0.44024230054233143
0.05771195239190869
0.6208106831966677
-0.44024230054233143
0.05771195239190869
0.6208106831966677
-0.44024230054233143
0.05771195239190869
0.6208106831966677
-0.44024230054233143
0.05771195239190869
0.6208106831966677
-0.4389627124727417
0.059144113614876294
0.6202938798345217
-0.4389627124727417
0.059144113614876294
0.6202938798345217
-0.4389627124727417
0.059144113614876294
0.6202938798345217
-0.4389627124727417
0.059144113614876294
0.6202938798345217
-0.4399957630366585
0.060102644616309875
0.6201642058393005
-0.4399957630366585
0.060102644616309875
0.6201642058393005
-0.4399957630366585
0.060102644616309875
0.6201642058393005
-0.4399957630366585
0.060102644616309875
0.6201642058393005
-0.44148409915686404
0.06044579138694685
0.6206718362173061
-0.44148409915686404
0.06044579138694685
0.6206718362173061
-0.44148409915686404
0.06044579138694685
0.6206718362173061
-0.44148409915686404
0.06044579138694685
0.6206718362173061
-0.44119287387299994
0.0601800348040558
0.6216121120032675
-0.44119287387299994
0.0601800348040558
0.6216121120032675
-0.44119287387299994
0.0601800348040558
0.6216121120032675
-0.44119287387299994
0.0601800348040558
0.6216121120032675
-0.43996732154029206
0.059616809868529734
0.622609018006576
-0.43996732154029206
0.059616809868529734
0.622609018006576
-0.43996732154029206
0.059616809868529734
0.622609018006576
-0.43996732154029206
0.059616809868529734
0.622609018006576
-0.4387423539306404
0.059052357137640316
0.6236052141769315
-0.4387423539306404
0.059052357137640316
0.6236052141769315
-0.4387423539306404
0.059052357137640316
0.6236052141769315
-0.4387423539306404
0.059052357137640316
0.6236052141769315
-0.4391097159110943
0.05841291622383085
0.6242902915028453
-0.4391097159110943
0.05841291622383085
0.6242902915028453
-0.4391097159110943
0.05841291622383085
0.6242902915028453
-0.4391097159110943
0.05841291622383085
0.6242902915028453
-0.43971646336407083
0.05782120445101029
0.6248389041611339
-0.43971646336407083
0.05782120445101029
0.6248389041611339
-0.43971646336407083
0.05782120445101029
0.6248389041611339
-0.43971646336407083
0.05782120445101029
0.6248389041611339
-0.4396027217212177
0.05778533554429787
0.6248503773575178
-0.4396027217212177
0.05778533554429787
0.6248503773575178
-0.4396027217212177
0.05778533554429787
0.6248503773575178
-0.4396027217212177
0.05778533554429787
0.6248503773575178
-0.43933496302824726
0.057409790598438905
0.6252988505128992
-0.43933496302824726
0.057409790598438905
0.6252988505128992
-0.43933496302824726
0.057409790598438905
0.6252988505128992
-0.43933496302824726
0.057409790598438905
0.6252988505128992
-0.4401148187231378
0.056692262759967235
0.6256332795586304
-0.4401148187231378
0.056692262759967235
0.6256332795586304
-0.4401148187231378
0.056692262759967235
0.6256332795586304
-0.4401148187231378
0.056692262759967235
0.6256332795586304
-0.4405540718937658
0.055766554994390316
0.6261045261067133
-0.4405540718937658
0.055766554994390316
0.6261045261067133
-0.4405540718937658
0.055766554994390316
0.6261045261067133
-0.4405540718937658
0.055766554994390316
0.6261045261067133
-0.4401832023228953
0.05449341708466339
0.6262423312783594
-0.4401832023228953
0.05449341708466339
0.6262423312783594
-0.4401832023228953
0.05449341708466339
0.6262423312783594
-0.4401832023228953
0.05449341708466339
0.6262423312783594
-0.43977821020660485
0.0535904255232183
0.6257440932211987
-0.43977821020660485
0.0535904255232183
0.6257440932211987
-0.43977821020660485
0.0535904255232183
0.6257440932211987
-0.43977821020660485
0.0535904255232183
0.6257440932211987
-0.4395828970459048
0.05250774103704079
0.6253191289398828
-0.4395828970459048
0.05250774103704079
0.6253191289398828
-0.4395828970459048
0.05250774103704079
0.6253191289398828
-0.4395828970459048
0.05250774103704079
0.6253191289398828
-0.4403264419120542
0.05132288210438899
0.6248117939413387
-0.4403264419120542
0.05132288210438899
0.6248117939413387
-0.4403264419120542
0.05132288210438899
0.6248117939413387
-0.4403264419120542
0.05132288210438899
0.6248117939413387
-0.4402798057119854
0.050162543040528945
0.6244003652243578
-0.4402798057119854
0.050162543040528945
0.6244003652243578
-0.4402798057119854
0.050162543040528945
0.6244003652243578
-0.4402798057119854
0.050162543040528945
0.6244003652243578
-0.43970080154889435
0.04948658060510208
0.6240131602639898
-0.43970080154889435
0.04948658060510208
0.6240131602639898
-0.43970080154889435
0.04948658060510208
0.6240131602639898
-0.43970080154889435
0.04948658060510208
0.6240131602639898
-0.43947939562955785
0.04927071829753528
0.6233947311818996
-0.43947939562955785
0.04927071829753528
0.6233947311818996
-0.43947939562955785
0.04927071829753528
0.6233947311818996
-0.43947939562955785
0.04927071829753528
0.6233947311818996
-0.4396682032221119
0.04887565728858752
0.6225290363434457
-0.4396682032221119
0.04887565728858752
0.6225290363434457
-0.4396682032221119
0.04887565728858752
0.6225290363434457
-0.4396682032221119
0.04887565728858752
0.6225290363434457
-0.43970045606965746
0.048281706968788335
0.6216319551759459
-0.43970045606965746
0.048281706968788335
0.6216319551759459
-0.43970045606965746
0.048281706968788335
0.6216319551759459
-0.43970045606965746
0.048281706968788335
0.6216319551759459
-0.4397444564458835
0.048083862464479245
0.6212794441625838
-0.4397444564458835
0.048083862464479245
0.6212794441625838
-0.4397444564458835
0.048083862464479245
0.6212794441625838
-0.4397444564458835
0.048083862464479245
0.6212794441625838
-0.43978838624665906
0.04788600397784675
0.6209269478822058
-0.43978838624665906
0.04788600397784675
0.6209269478822058
-0.43978838624665906
0.04788600397784675
0.6209269478822058
-0.43978838624665906
0.04788600397784675
0.6209269478822058
-0.4393949586260467
0.04779723266204486
0.6205222064566335
-0.4393949586260467
0.04779723266204486
0.6205222064566335
-0.4393949586260467
0.04779723266204486
0.6205222064566335
-0.4393949586260467
0.04779723266204486
0.6205222064566335
-0.4389837932327362
0.04745645491048967
0.6202129786929333
-0.4389837932327362
0.04745645491048967
0.6202129786929333
-0.4389837932327362
0.04745645491048967
0.6202129786929333
-0.4389837932327362
0.04745645491048967
0.6202129786929333
-0.4389837932327362
0.04745645491048967
0.6202129786929333
-0.4389837932327362
0.04745645491048967
0.6202129786929333
-0.4389837932327362
0.04745645491048967
0.6202129786929333
-0.4389837932327362
0.04745645491048967
0.6202129786929333
-0.4391333257059309
0.04737858418761394
0.6202266405767073
-0.4391333257059309
0.04737858418761394
0.6202266405767073
-0.4391333257059309
0.04737858418761394
0.6202266405767073
-0.4391333257059309
0.04737858418761394
0.6202266405767073
-0.4391333257059309
0.04737858418761394
0.6202266405767073
-0.4391333257059309
0.04737858418761394
0.6202266405767073
-0.4391333257059309
0.04737858418761394
0.6202266405767073
-0.4391333257059309
0.04737858418761394
0.6202266405767073
-0.43895134451570733
0.04752976949598684
0.6205542045487112
-0.43895134451570733
0.04752976949598684
0.6205542045487112
-0.43895134451570733
0.04752976949598684
0.6205542045487112
-0.43895134451570733
0.04752976949598684
0.6205542045487112
-0.43975714727144805
0.04759855789610768
0.6208730827064282
-0.43975714727144805
0.04759855789610768
0.6208730827064282
-0.43975714727144805
0.04759855789610768
0.6208730827064282
-0.43975714727144805
0.04759855789610768
0.6208730827064282
-0.44069885892661803
0.04755443484433766
0.6210560877522814
-0.44069885892661803
0.04755443484433766
0.6210560877522814
-0.44069885892661803
0.04755443484433766
0.6210560877522814
-0.44069885892661803
0.04755443484433766
0.6210560877522814
-0.44162061032765654
0.047098560232974415
0.621174320794749
-0.44162061032765654
0.047098560232974415
0.621174320794749
-0.44162061032765654
0.047098560232974415
0.621174320794749
-0.44162061032765654
0.047098560232974415
0.621174320794749
-0.4419101132937173
0.04660627057972753
0.6209209426869551
-0.4419101132937173
0.04660627057972753
0.6209209426869551
-0.4419101132937173
0.04660627057972753
0.6209209426869551
-0.4419101132937173
0.04660627057972753
0.6209209426869551
-0.44230238800147026
0.04617430012212505
0.6207705823862325
-0.44230238800147026
0.04617430012212505
0.6207705823862325
-0.44230238800147026
0.04617430012212505
0.6207705823862325
-0.44230238800147026
0.04617430012212505
0.6207705823862325
-0.4426587817312418
0.04585583169726488
0.6205956898029308
-0.4426587817312418
0.04585583169726488
0.6205956898029308
-0.4426587817312418
0.04585583169726488
0.6205956898029308
-0.4426587817312418
0.04585583169726488
0.6205956898029308
-0.4431256112301037
0.045512871765440076
0.6201469928379649
-0.4431256112301037
0.045512871765440076
0.6201469928379649
-0.4431256112301037
0.045512871765440076
0.6201469928379649
-0.4431256112301037
0.045512871765440076
0.6201469928379649
-0.44353910715954603
0.04503118212590082
0.6197697764675386
-0.44353910715954603
0.04503118212590082
0.6197697764675386
-0.44353910715954603
0.04503118212590082
0.6197697764675386
-0.44353910715954603
0.04503118212590082
0.6197697764675386
-0.443736031042138
0.04435359988664848
0.6194032287811255
-0.443736031042138
0.04435359988664848
0.6194032287811255
-0.443736031042138
0.04435359988664848
0.6194032287811255
-0.443736031042138
0.04435359988664848
0.6194032287811255
-0.4439220298782057
0.0437007389287962
0.6191504984487424
-0.4439220298782057
0.0437007389287962
0.6191504984487424
-0.4439220298782057
0.0437007389287962
0.6191504984487424
-0.4439220298782057
0.0437007389287962
0.6191504984487424
-0.4446272789629831
0.04268649657709998
0.618887528282427
-0.4446272789629831
0.04268649657709998
0.618887528282427
-0.4446272789629831
0.04268649657709998
0.618887528282427
-0.4446272789629831
0.04268649657709998
0.618887528282427
-0.4452753462442045
0.04183542770877613
0.6188276432723784
-0.4452753462442045
0.04183542770877613
0.6188276432723784
-0.4452753462442045
0.04183542770877613
0.6188276432723784
-0.4452753462442045
0.04183542770877613
0.6188276432723784
-0.4456986093403505
0.04122883167907791
0.6184409454726207
-0.4456986093403505
0.04122883167907791
0.6184409454726207
-0.4456986093403505
0.04122883167907791
0.6184409454726207
-0.4456986093403505
0.04122883167907791
0.6184409454726207
-0.44515178500398656
0.04043972625812107
0.6180779174923589
-0.44515178500398656
0.04043972625812107
0.6180779174923589
-0.44515178500398656
0.04043972625812107
0.6180779174923589
-0.44515178500398656
0.04043972625812107
0.6180779174923589
-0.44384755492048183
0.039504569896308205
0.6175670050602065
-0.44384755492048183
0.039504569896308205
0.6175670050602065
-0.44384755492048183
0.039504569896308205
0.6175670050602065
-0.44384755492048183
0.039504569896308205
0.6175670050602065
-0.44353315500813423
0.03756928302390986
0.61757572822555
-0.44353315500813423
0.03756928302390986
0.61757572822555
-0.44353315500813423
0.03756928302390986
0.61757572822555
-0.44353315500813423
0.03756928302390986
0.61757572822555
-0.44488908916005
0.03397704706049047
0.6166173929452221
-0.44488908916005
0.03397704706049047
0.6166173929452221
-0.44488908916005
0.03397704706049047
0.6166173929452221
-0.44488908916005
0.03397704706049047
0.6166173929452221
-0.44461113062910296
0.02991167574298918
0.614732637853984
-0.44461113062910296
0.02991167574298918
0.614732637853984
-0.44461113062910296
0.02991167574298918
0.614732637853984
-0.44461113062910296
0.02991167574298918
0.614732637853984
-0.44216003282277516
0.02521824669756469
0.6131037509103896
-0.44216003282277516
0.02521824669756469
0.6131037509103896
-0.44216003282277516
0.02521824669756469
0.6131037509103896
-0.44216003282277516
0.02521824669756469
0.6131037509103896
-0.44099882436770077
0.019857006794964136
0.6113565625519519
-0.44099882436770077
0.019857006794964136
0.6113565625519519
-0.44099882436770077
0.019857006794964136
0.6113565625519519
-0.44099882436770077
0.019857006794964136
0.6113565625519519
-0.4378819980612875
0.014533682341866059
0.6083920297413279
-0.4378819980612875
0.014533682341866059
0.6083920297413279
-0.4378819980612875
0.014533682341866059
0.6083920297413279
-0.4378819980612875
0.014533682341866059
0.6083920297413279
-0.4331649531888316
0.009558260195157379
0.6044793141442808
-0.4331649531888316
0.009558260195157379
0.6044793141442808
-0.4331649531888316
0.009558260195157379
0.6044793141442808
-0.4331649531888316
0.009558260195157379
0.6044793141442808
-0.4266769663956053
0.004770159212059378
0.6026128457051679
-0.4266769663956053
0.004770159212059378
0.6026128457051679
-0.4266769663956053
0.004770159212059378
0.6026128457051679
-0.4266769663956053
0.004770159212059378
0.6026128457051679
-0.41888868519566924
1.2875739339151664E-4
0.6014021066000758
-0.41888868519566924
1.2875739339151664E-4
0.6014021066000758
-0.41888868519566924
1.2875739339151664E-4
0.6014021066000758
-0.41888868519566924
1.2875739339151664E-4
0.6014021066000758
-0.41191101143636344
-0.0028430887964765463
0.6006356661724587
-0.41191101143636344
-0.0028430887964765463
0.6006356661724587
-0.41191101143636344
-0.0028430887964765463
0.6006356661724587
-0.41191101143636344
-0.0028430887964765463
0.6006356661724587
-0.40897091178848555
-0.004215030435243465
0.5990360054943152
-0.40897091178848555
-0.004215030435243465
0.5990360054943152
-0.40897091178848555
-0.004215030435243465
0.5990360054943152
-0.40897091178848555
-0.004215030435243465
0.5990360054943152
-0.41046382805152065
-0.004107911050203434
0.5985771444920873
-0.41046382805152065
-0.004107911050203434
0.5985771444920873
-0.41046382805152065
-0.004107911050203434
0.5985771444920873
-0.41046382805152065
-0.004107911050203434
0.5985771444920873
-0.41139809815381473
-0.004044032875539281
0.5987951379335538
-0.41139809815381473
-0.004044032875539281
0.5987951379335538
-0.41139809815381473
-0.004044032875539281
0.5987951379335538
-0.41139809815381473
-0.004044032875539281
0.5987951379335538
-0.41086303477774294
-0.004912481115553908
0.5985440337389131
-0.41086303477774294
-0.004912481115553908
0.5985440337389131
-0.41086303477774294
-0.004912481115553908
0.5985440337389131
-0.41086303477774294
-0.004912481115553908
0.5985440337389131
-0.4084123884415666
-0.006397100612511118
0.5981485273724328
-0.4084123884415666
-0.006397100612511118
0.5981485273724328
-0.4084123884415666
-0.006397100612511118
0.5981485273724328
-0.4084123884415666
-0.006397100612511118
0.5981485273724328
-0.40687050835165706
-0.008226362469583583
0.5978976621126741
-0.40687050835165706
-0.008226362469583583
0.5978976621126741
-0.40687050835165706
-0.008226362469583583
0.5978976621126741
-0.40687050835165706
-0.008226362469583583
0.5978976621126741
-0.4079416019757485
-0.01040242346190851
0.5977932037251354
-0.4079416019757485
-0.01040242346190851
0.5977932037251354
-0.4079416019757485
-0.01040242346190851
0.5977932037251354
-0.4079416019757485
-0.01040242346190851
0.5977932037251354
-0.41083839741279693
-0.012964808190365948
0.598131581086631
-0.41083839741279693
-0.012964808190365948
0.598131581086631
-0.41083839741279693
-0.012964808190365948
0.598131581086631
-0.41083839741279693
-0.012964808190365948
0.598131581086631
-0.41262789216906626
-0.01476439997413448
0.5987859155788414
-0.41262789216906626
-0.01476439997413448
0.5987859155788414
-0.41262789216906626
-0.01476439997413448
0.5987859155788414
-0.41262789216906626
-0.01476439997413448
0.5987859155788414
-0.412186613727997
-0.01614686729363737
0.5996676359742482
-0.412186613727997
-0.01614686729363737
0.5996676359742482
-0.412186613727997
-0.01614686729363737
0.5996676359742482
-0.412186613727997
-0.01614686729363737
0.5996676359742482
-0.4114157143136457
-0.017581608467126357
0.6008315459843241
-0.4114157143136457
-0.017581608467126357
0.6008315459843241
-0.4114157143136457
-0.017581608467126357
0.6008315459843241
-0.4114157143136457
-0.017581608467126357
0.6008315459843241
-0.41114214324997644
-0.019713849838951348
0.6023004694166983
-0.41114214324997644
-0.019713849838951348
0.6023004694166983
-0.41114214324997644
-0.019713849838951348
0.6023004694166983
-0.41114214324997644
-0.019713849838951348
0.6023004694166983
-0.41168303102618037
-0.02157261238488644
0.6032811062628494
-0.41168303102618037
-0.02157261238488644
0.6032811062628494
-0.41168303102618037
-0.02157261238488644
0.6032811062628494
-0.41168303102618037
-0.02157261238488644
0.6032811062628494
-0.411591012208115
-0.022374973276545574
0.603961001795256
-0.411591012208115
-0.022374973276545574
0.603961001795256
-0.411591012208115
-0.022374973276545574
0.603961001795256
-0.411591012208115
-0.022374973276545574
0.603961001795256
-0.4112181568354293
-0.02286631059937846
0.6040223238577305
-0.4112181568354293
-0.02286631059937846
0.6040223238577305
-0.4112181568354293
-0.02286631059937846
0.6040223238577305
-0.4112181568354293
-0.02286631059937846
0.6040223238577305
-0.4112181568354293
-0.02286631059937846
0.6040223238577305
-0.4112181568354293
-0.02286631059937846
0.6040223238577305
-0.4112181568354293
-0.02286631059937846
0.6040223238577305
-0.4112181568354293
-0.02286631059937846
0.6040223238577305
-0.4116263761204273
-0.02289097375787042
0.6039500006948832
-0.4116263761204273
-0.02289097375787042
0.6039500006948832
-0.4116263761204273
-0.02289097375787042
0.6039500006948832
-0.4116263761204273
-0.02289097375787042
0.6039500006948832
-0.41194982610045416
-0.023215911543288135
0.6037466575869506
-0.41194982610045416
-0.023215911543288135
0.6037466575869506
-0.41194982610045416
-0.023215911543288135
0.6037466575869506
-0.41194982610045416
-0.023215911543288135
0.6037466575869506
-0.41211183771610355
-0.02334261158110632
0.6035367846843795
-0.41211183771610355
-0.02334261158110632
0.6035367846843795
-0.41211183771610355
-0.02334261158110632
0.6035367846843795
-0.41211183771610355
-0.02334261158110632
0.6035367846843795
-0.41199781640988214
-0.023378399528481125
0.603542875063463
-0.41199781640988214
-0.023378399528481125
0.603542875063463
-0.41199781640988214
-0.023378399528481125
0.603542875063463
-0.41199781640988214
-0.023378399528481125
0.603542875063463
-0.41160177675471754
-0.023402083382047065
0.6033870546203154
-0.41160177675471754
-0.023402083382047065
0.6033870546203154
-0.41160177675471754
-0.023402083382047065
0.6033870546203154
-0.41160177675471754
-0.023402083382047065
0.6033870546203154
-0.4109595057598196
-0.023527510736799217
0.603093528364643
-0.4109595057598196
-0.023527510736799217
0.603093528364643
-0.4109595057598196
-0.023527510736799217
0.603093528364643
-0.4109595057598196
-0.023527510736799217
0.603093528364643
-0.40993325377425827
-0.023621842204517348
0.6029079206299367
-0.40993325377425827
-0.023621842204517348
0.6029079206299367
-0.40993325377425827
-0.023621842204517348
0.6029079206299367
-0.40993325377425827
-0.023621842204517348
0.6029079206299367
-0.4086438264863488
-0.023271486503416643
0.6027459813873924
-0.4086438264863488
-0.023271486503416643
0.6027459813873924
-0.4086438264863488
-0.023271486503416643
0.6027459813873924
-0.4086438264863488
-0.023271486503416643
0.6027459813873924
-0.4091624209355451
-0.021351912281005313
0.6036922739971294
-0.4091624209355451
-0.021351912281005313
0.6036922739971294
-0.4091624209355451
-0.021351912281005313
0.6036922739971294
-0.4091624209355451
-0.021351912281005313
0.6036922739971294
-0.4109888496194836
-0.0178436593307783
0.6046317656743313
-0.4109888496194836
-0.0178436593307783
0.6046317656743313
-0.4109888496194836
-0.0178436593307783
0.6046317656743313
-0.4109888496194836
-0.0178436593307783
0.6046317656743313
-0.4123357562160872
-0.012147547136326797
0.6061676572173731
-0.4123357562160872
-0.012147547136326797
0.6061676572173731
-0.4123357562160872
-0.012147547136326797
0.6061676572173731
-0.4123357562160872
-0.012147547136326797
0.6061676572173731
-0.4151439094247536
-0.004182225837877946
0.60753608242136
-0.4151439094247536
-0.004182225837877946
0.60753608242136
-0.4151439094247536
-0.004182225837877946
0.60753608242136
-0.4151439094247536
-0.004182225837877946
0.60753608242136
-0.4192821965691968
0.005915038311804394
0.6089708650333151
-0.4192821965691968
0.005915038311804394
0.6089708650333151
-0.4192821965691968
0.005915038311804394
0.6089708650333151
-0.4192821965691968
0.005915038311804394
0.6089708650333151
-0.4218294528366845
0.015200085467891167
0.610677450495076
-0.4218294528366845
0.015200085467891167
0.610677450495076
-0.4218294528366845
0.015200085467891167
0.610677450495076
-0.4218294528366845
0.015200085467891167
0.610677450495076
-0.4270966785526883
0.019929815074661253
0.6097113702222468
-0.4270966785526883
0.019929815074661253
0.6097113702222468
-0.4270966785526883
0.019929815074661253
0.6097113702222468
-0.4270966785526883
0.019929815074661253
0.6097113702222468
-0.438812279761034
0.01572740437889678
0.6083132959857972
-0.438812279761034
0.01572740437889678
0.6083132959857972
-0.438812279761034
0.01572740437889678
0.6083132959857972
-0.438812279761034
0.01572740437889678
0.6083132959857972
-0.44485434879133506
0.005482055882877584
0.6113909357149274
-0.44485434879133506
0.005482055882877584
0.6113909357149274
-0.44485434879133506
0.005482055882877584
0.6113909357149274
-0.44485434879133506
0.005482055882877584
0.6113909357149274
-0.440870550411452
0.0018262100810562526
0.6129871553653099
-0.440870550411452
0.0018262100810562526
0.6129871553653099
-0.440870550411452
0.0018262100810562526
0.6129871553653099
-0.440870550411452
0.0018262100810562526
0.6129871553653099
-0.430861429941742
0.004572861626743263
0.6136543904237933
-0.430861429941742
0.004572861626743263
0.6136543904237933
-0.430861429941742
0.004572861626743263
0.6136543904237933
-0.430861429941742
0.004572861626743263
0.6136543904237933
-0.42389776359024883
0.00585060172232769
0.6116016977252757
-0.42389776359024883
0.00585060172232769
0.6116016977252757
-0.42389776359024883
0.00585060172232769
0.6116016977252757
-0.42389776359024883
0.00585060172232769
0.6116016977252757
-0.4246721326174329
0.005536845263578554
0.609649060998505
-0.4246721326174329
0.005536845263578554
0.609649060998505
-0.4246721326174329
0.005536845263578554
0.609649060998505
-0.4246721326174329
0.005536845263578554
0.609649060998505
-0.43174353707575963
0.0067384907130141865
0.6073635520159372
-0.43174353707575963
0.0067384907130141865
0.6073635520159372
-0.43174353707575963
0.0067384907130141865
0.6073635520159372
-0.43174353707575963
0.0067384907130141865
0.6073635520159372
-0.4363690095715501
0.008631665250068159
0.606988712906831
-0.4363690095715501
0.008631665250068159
0.606988712906831
-0.4363690095715501
0.008631665250068159
0.606988712906831
-0.4363690095715501
0.008631665250068159
0.606988712906831
-0.4369049587390488
0.010284134538825896
0.6071715621830625
-0.4369049587390488
0.010284134538825896
0.6071715621830625
-0.4369049587390488
0.010284134538825896
0.6071715621830625
-0.4369049587390488
0.010284134538825896
0.6071715621830625
-0.43215924622877305
0.012058170205627959
0.607141342539735
-0.43215924622877305
0.012058170205627959
0.607141342539735
-0.43215924622877305
0.012058170205627959
0.607141342539735
-0.43215924622877305
0.012058170205627959
0.607141342539735
-0.4278470576400116
0.013014513903913824
0.6057517209766208
-0.4278470576400116
0.013014513903913824
0.6057517209766208
-0.4278470576400116
0.013014513903913824
0.6057517209766208
-0.4278470576400116
0.013014513903913824
0.6057517209766208
-0.4269222606287526
0.013494061888040735
0.6038803800627547
-0.4269222606287526
0.013494061888040735
0.6038803800627547
-0.4269222606287526
0.013494061888040735
0.6038803800627547
-0.4269222606287526
0.013494061888040735
0.6038803800627547
-0.4308267648592121
0.014488501211061999
0.6040531133229378
-0.4308267648592121
0.014488501211061999
0.6040531133229378
-0.4308267648592121
0.014488501211061999
0.6040531133229378
-0.4308267648592121
0.014488501211061999
0.6040531133229378
-0.4346092177077713
0.015458789727143254
0.6048248633171438
-0.4346092177077713
0.015458789727143254
0.6048248633171438
-0.4346092177077713
0.015458789727143254
0.6048248633171438
-0.4346092177077713
0.015458789727143254
0.6048248633171438
-0.43313849867286325
0.015999206086107807
0.6046430161088563
-0.43313849867286325
0.015999206086107807
0.6046430161088563
-0.43313849867286325
0.015999206086107807
0.6046430161088563
-0.43313849867286325
0.015999206086107807
0.6046430161088563
-0.429451810433732
0.016252470859307602
0.6033283075949131
-0.429451810433732
0.016252470859307602
0.6033283075949131
-0.429451810433732
0.016252470859307602
0.6033283075949131
-0.429451810433732
0.016252470859307602
0.6033283075949131
-0.4293046606448026
0.016233127512336253
0.603415673096346
-0.4293046606448026
0.016233127512336253
0.603415673096346
-0.4293046606448026
0.016233127512336253
0.603415673096346
-0.4293046606448026
0.016233127512336253
0.603415673096346
-0.4324232166274155
0.016440996857824828
0.6040819840641041
-0.4324232166274155
0.016440996857824828
0.6040819840641041
-0.4324232166274155
0.016440996857824828
0.6040819840641041
-0.4324232166274155
0.016440996857824828
0.6040819840641041
-0.434283552344675
0.016106575262460374
0.604684580144268
-0.434283552344675
0.016106575262460374
0.604684580144268
-0.434283552344675
0.016106575262460374
0.604684580144268
-0.434283552344675
0.016106575262460374
0.604684580144268
-0.4335594472921383
0.015852579309383018
0.6045525211763095
-0.4335594472921383
0.015852579309383018
0.6045525211763095
-0.4335594472921383
0.015852579309383018
0.6045525211763095
-0.4335594472921383
0.015852579309383018
0.6045525211763095
-0.43239902239580713
0.015310259664130839
0.6043305538124303
-0.43239902239580713
0.015310259664130839
0.6043305538124303
-0.43239902239580713
0.015310259664130839
0.6043305538124303
-0.43239902239580713
0.015310259664130839
0.6043305538124303
-0.43331452711003127
0.015111230230613094
0.6051129502407069
-0.43331452711003127
0.015111230230613094
0.6051129502407069
-0.43331452711003127
0.015111230230613094
0.6051129502407069
-0.43331452711003127
0.015111230230613094
0.6051129502407069
-0.43408413083887537
0.014810498694719535
0.6056058474998736
-0.43408413083887537
0.014810498694719535
0.6056058474998736
-0.43408413083887537
0.014810498694719535
0.6056058474998736
-0.43408413083887537
0.014810498694719535
0.6056058474998736
-0.43312461008403125
0.014108587751019568
0.6055735601883809
-0.43312461008403125
0.014108587751019568
0.6055735601883809
-0.43312461008403125
0.014108587751019568
0.6055735601883809
-0.43312461008403125
0.014108587751019568
0.6055735601883809
-0.43258681530669757
0.012858675334207047
0.6054195742510133
-0.43258681530669757
0.012858675334207047
0.6054195742510133
-0.43258681530669757
0.012858675334207047
0.6054195742510133
-0.43258681530669757
0.012858675334207047
0.6054195742510133
-0.4335078977463097
0.011994753171033474
0.6055217938401574
-0.4335078977463097
0.011994753171033474
0.6055217938401574
-0.4335078977463097
0.011994753171033474
0.6055217938401574
-0.4335078977463097
0.011994753171033474
0.6055217938401574
-0.43417358847363813
0.011550830575247872
0.6055336844174106
-0.43417358847363813
0.011550830575247872
0.6055336844174106
-0.43417358847363813
0.011550830575247872
0.6055336844174106
-0.43417358847363813
0.011550830575247872
0.6055336844174106
-0.43378878931962983
0.011500240133143184
0.6052712107913779
-0.43378878931962983
0.011500240133143184
0.6052712107913779
-0.43378878931962983
0.011500240133143184
0.6052712107913779
-0.43378878931962983
0.011500240133143184
0.6052712107913779
-0.43378878931962983
0.011500240133143184
0.6052712107913779
-0.43378878931962983
0.011500240133143184
0.6052712107913779
-0.43378878931962983
0.011500240133143184
0.6052712107913779
-0.43378878931962983
0.011500240133143184
0.6052712107913779
-0.43386724630841156
0.011649454639323521
0.605237849529593
-0.43386724630841156
0.011649454639323521
0.605237849529593
-0.43386724630841156
0.011649454639323521
0.605237849529593
-0.43386724630841156
0.011649454639323521
0.605237849529593
-0.4341635451554437
0.011908585768473631
0.6048210529450196
-0.4341635451554437
0.011908585768473631
0.6048210529450196
-0.4341635451554437
0.011908585768473631
0.6048210529450196
-0.4341635451554437
0.011908585768473631
0.6048210529450196
-0.43420799603384735
0.012005263542028733
0.6040089794208927
-0.43420799603384735
0.012005263542028733
0.6040089794208927
-0.43420799603384735
0.012005263542028733
0.6040089794208927
-0.43420799603384735
0.012005263542028733
0.6040089794208927
-0.434287783751844
0.011988038336065779
0.603221819071894
-0.434287783751844
0.011988038336065779
0.603221819071894
-0.434287783751844
0.011988038336065779
0.603221819071894
-0.434287783751844
0.011988038336065779
0.603221819071894
-0.4339390591497232
0.012059509104204384
0.6022612458368714
-0.4339390591497232
0.012059509104204384
0.6022612458368714
-0.4339390591497232
0.012059509104204384
0.6022612458368714
-0.4339390591497232
0.012059509104204384
0.6022612458368714
-0.4340619731918625
0.011986677993849943
0.6017619940455547
-0.4340619731918625
0.011986677993849943
0.6017619940455547
-0.4340619731918625
0.011986677993849943
0.6017619940455547
-0.4340619731918625
0.011986677993849943
0.6017619940455547
-0.4348139136704466
0.012067381632975297
0.6016573014274205
-0.4348139136704466
0.012067381632975297
0.6016573014274205
-0.4348139136704466
0.012067381632975297
0.6016573014274205
-0.4348139136704466
0.012067381632975297
0.6016573014274205
-0.4349278039910114
0.012102546031995802
0.6016488105748824
-0.4349278039910114
0.012102546031995802
0.6016488105748824
-0.4349278039910114
0.012102546031995802
0.6016488105748824
-0.4349278039910114
0.012102546031995802
0.6016488105748824
-0.43496297130694633
0.01198866616667678
0.6016737530115643
-0.43496297130694633
0.01198866616667678
0.6016737530115643
-0.43496297130694633
0.01198866616667678
0.6016737530115643
-0.43496297130694633
0.01198866616667678
0.6016737530115643
-0.4354271479765491
0.011300843653093392
0.6014649422369059
-0.4354271479765491
0.011300843653093392
0.6014649422369059
-0.4354271479765491
0.011300843653093392
0.6014649422369059
-0.4354271479765491
0.011300843653093392
0.6014649422369059
-0.43549778595302135
0.010587905957415975
0.6011076451448619
-0.43549778595302135
0.010587905957415975
0.6011076451448619
-0.43549778595302135
0.010587905957415975
0.6011076451448619
-0.43549778595302135
0.010587905957415975
0.6011076451448619
-0.43603192512201705
0.009672130766026698
0.6009494308490044
-0.43603192512201705
0.009672130766026698
0.6009494308490044
-0.43603192512201705
0.009672130766026698
0.6009494308490044
-0.43603192512201705
0.009672130766026698
0.6009494308490044
-0.43662624271874995
0.00905258038369466
0.6008822099743093
-0.43662624271874995
0.00905258038369466
0.6008822099743093
-0.43662624271874995
0.00905258038369466
0.6008822099743093
-0.43662624271874995
0.00905258038369466
0.6008822099743093
-0.43704656976661815
0.008587041432043533
0.6011401265806802
-0.43704656976661815
0.008587041432043533
0.6011401265806802
-0.43704656976661815
0.008587041432043533
0.6011401265806802
-0.43704656976661815
0.008587041432043533
0.6011401265806802
-0.4370213725189184
0.007775012894043378
0.6010446286920819
-0.4370213725189184
0.007775012894043378
0.6010446286920819
-0.4370213725189184
0.007775012894043378
0.6010446286920819
-0.4370213725189184
0.007775012894043378
0.6010446286920819
-0.43717860244902423
0.007269310553856557
0.6009175091589862
-0.43717860244902423
0.007269310553856557
0.6009175091589862
-0.43717860244902423
0.007269310553856557
0.6009175091589862
-0.43717860244902423
0.007269310553856557
0.6009175091589862
-0.4375552507710755
0.006859098417790854
0.6008878641796244
-0.4375552507710755
0.006859098417790854
0.6008878641796244
-0.4375552507710755
0.006859098417790854
0.6008878641796244
-0.4375552507710755
0.006859098417790854
0.6008878641796244
-0.4382117269890587
0.006438861419515378
0.6010161810107426
-0.4382117269890587
0.006438861419515378
0.6010161810107426
-0.4382117269890587
0.006438861419515378
0.6010161810107426
-0.4382117269890587
0.006438861419515378
0.6010161810107426
-0.4382117269890587
0.006438861419515378
0.6010161810107426
-0.4382117269890587
0.006438861419515378
0.6010161810107426
-0.4382117269890587
0.006438861419515378
0.6010161810107426
-0.4382117269890587
0.006438861419515378
0.6010161810107426
-0.4381765416738984
0.006552692852827978
0.6009909536819527
-0.4381765416738984
0.006552692852827978
0.6009909536819527
-0.4381765416738984
0.006552692852827978
0.6009909536819527
-0.4381765416738984
0.006552692852827978
0.6009909536819527
-0.4381765416738984
0.006552692852827978
0.6009909536819527
-0.4381765416738984
0.006552692852827978
0.6009909536819527
-0.4381765416738984
0.006552692852827978
0.6009909536819527
-0.4381765416738984
0.006552692852827978
0.6009909536819527
-0.438062705636064
0.006517508668305702
0.6009991773044897
-0.438062705636064
0.006517508668305702
0.6009991773044897
-0.438062705636064
0.006517508668305702
0.6009991773044897
-0.438062705636064
0.006517508668305702
0.6009991773044897
-0.43773874974303756
0.006180878082832894
0.6005232914377381
-0.43773874974303756
0.006180878082832894
0.6005232914377381
-0.43773874974303756
0.006180878082832894
0.6005232914377381
-0.43773874974303756
0.006180878082832894
0.6005232914377381
-0.4376249011635306
0.00614571385221072
0.6005314803236415
-0.4376249011635306
0.00614571385221072
0.6005314803236415
-0.4376249011635306
0.00614571385221072
0.6005314803236415
-0.4376249011635306
0.00614571385221072
0.6005314803236415
-0.4367340577673065
0.005620313717167986
0.6005768165356065
-0.4367340577673065
0.005620313717167986
0.6005768165356065
-0.4367340577673065
0.005620313717167986
0.6005768165356065
-0.4367340577673065
0.005620313717167986
0.6005768165356065
-0.43487454045198315
0.0036998587050210874
0.6010148238936611
-0.43487454045198315
0.0036998587050210874
0.6010148238936611
-0.43487454045198315
0.0036998587050210874
0.6010148238936611
-0.43487454045198315
0.0036998587050210874
0.6010148238936611
-0.436769693957868
-5.367276058127011E-4
0.6017042714855858
-0.436769693957868
-5.367276058127011E-4
0.6017042714855858
-0.436769693957868
-5.367276058127011E-4
0.6017042714855858
-0.436769693957868
-5.367276058127011E-4
0.6017042714855858
-0.4379054846085608
-0.007169623082111588
0.5997333428030281
-0.4379054846085608
-0.007169623082111588
0.5997333428030281
-0.4379054846085608
-0.007169623082111588
0.5997333428030281
-0.4379054846085608
-0.007169623082111588
0.5997333428030281
-0.4364714466630071
-0.014759728719143796
0.5981751868987909
-0.4364714466630071
-0.014759728719143796
0.5981751868987909
-0.4364714466630071
-0.014759728719143796
0.5981751868987909
-0.4364714466630071
-0.014759728719143796
0.5981751868987909
-0.4322087411911329
-0.02155395057850883
0.5970068337665746
-0.4322087411911329
-0.02155395057850883
0.5970068337665746
-0.4322087411911329
-0.02155395057850883
0.5970068337665746
-0.4322087411911329
-0.02155395057850883
0.5970068337665746
-0.42639230300585107
-0.025544264839919735
0.5952273818285385
-0.42639230300585107
-0.025544264839919735
0.5952273818285385
-0.42639230300585107
-0.025544264839919735
0.5952273818285385
-0.42639230300585107
-0.025544264839919735
0.5952273818285385
-0.4210490123165694
-0.029491724121687116
0.5916075355971688
-0.4210490123165694
-0.029491724121687116
0.5916075355971688
-0.4210490123165694
-0.029491724121687116
0.5916075355971688
-0.4210490123165694
-0.029491724121687116
0.5916075355971688
-0.4156675068837253
-0.0343778393989695
0.5884787289302411
-0.4156675068837253
-0.0343778393989695
0.5884787289302411
-0.4156675068837253
-0.0343778393989695
0.5884787289302411
-0.4156675068837253
-0.0343778393989695
0.5884787289302411
-0.41004201491102205
-0.037909029937194146
0.5877277373257349
-0.41004201491102205
-0.037909029937194146
0.5877277373257349
-0.41004201491102205
-0.037909029937194146
0.5877277373257349
-0.41004201491102205
-0.037909029937194146
0.5877277373257349
-0.40709366348005455
-0.03787505366227988
0.5883917416718736
-0.40709366348005455
-0.03787505366227988
0.5883917416718736
-0.40709366348005455
-0.03787505366227988
0.5883917416718736
-0.40709366348005455
-0.03787505366227988
0.5883917416718736
-0.41171188800364983
-0.03605255495101241
0.5879936708895368
-0.41171188800364983
-0.03605255495101241
0.5879936708895368
-0.41171188800364983
-0.03605255495101241
0.5879936708895368
-0.41171188800364983
-0.03605255495101241
0.5879936708895368
-0.41929075969959334
-0.03541145371659129
0.5876752559962988
-0.41929075969959334
-0.03541145371659129
0.5876752559962988
-0.41929075969959334
-0.03541145371659129
0.5876752559962988
-0.41929075969959334
-0.03541145371659129
0.5876752559962988
-0.41906227748375785
-0.03607616276520013
0.5886014509947466
-0.41906227748375785
-0.03607616276520013
0.5886014509947466
-0.41906227748375785
-0.03607616276520013
0.5886014509947466
-0.41906227748375785
-0.03607616276520013
0.5886014509947466
-0.41268067355065474
-0.03645422279408732
0.5890396722155378
-0.41268067355065474
-0.03645422279408732
0.5890396722155378
-0.41268067355065474
-0.03645422279408732
0.5890396722155378
-0.41268067355065474
-0.03645422279408732
0.5890396722155378
-0.40925541019413164
-0.036291843564735846
0.5891204814922235
-0.40925541019413164
-0.036291843564735846
0.5891204814922235
-0.40925541019413164
-0.036291843564735846
0.5891204814922235
-0.40925541019413164
-0.036291843564735846
0.5891204814922235
-0.4110222153428279
-0.036179661563857754
0.590300886085193
-0.4110222153428279
-0.036179661563857754
0.590300886085193
-0.4110222153428279
-0.036179661563857754
0.590300886085193
-0.4110222153428279
-0.036179661563857754
0.590300886085193
-0.4141019860596238
-0.03618881980507098
0.5914482557553999
-0.4141019860596238
-0.03618881980507098
0.5914482557553999
-0.4159915145773872
-0.036388986025704076
0.5915144554846659
-0.4159915145773872
-0.036388986025704076
0.5915144554846659
-0.4159915145773872
-0.036388986025704076
0.5915144554846659
-0.4159915145773872
-0.036388986025704076
0.5915144554846659
-0.41636960157279235
-0.03735578670002248
0.590733995669232
-0.41636960157279235
-0.03735578670002248
0.590733995669232
-0.41636960157279235
-0.03735578670002248
0.590733995669232
-0.41636960157279235
-0.03735578670002248
0.590733995669232
-0.41648764863195553
-0.03824446237525167
0.5906492574639982
-0.41648764863195553
-0.03824446237525167
0.5906492574639982
-0.41648764863195553
-0.03824446237525167
0.5906492574639982
-0.41648764863195553
-0.03824446237525167
0.5906492574639982
-0.41492262438784594
-0.038494469687468766
0.591112842362959
-0.41492262438784594
-0.038494469687468766
0.591112842362959
-0.41492262438784594
-0.038494469687468766
0.591112842362959
-0.41492262438784594
-0.038494469687468766
0.591112842362959
-0.41529823518684994
-0.03817542367344487
0.5921167617177723
-0.41529823518684994
-0.03817542367344487
0.5921167617177723
-0.41529823518684994
-0.03817542367344487
0.5921167617177723
-0.41529823518684994
-0.03817542367344487
0.5921167617177723
-0.416451122675988
-0.03826909966193648
0.5931397442564996
-0.416451122675988
-0.03826909966193648
0.5931397442564996
-0.416451122675988
-0.03826909966193648
0.5931397442564996
-0.416451122675988
-0.03826909966193648
0.5931397442564996
-0.4174281576972371
-0.03881999304629198
0.5934674664147699
-0.4174281576972371
-0.03881999304629198
0.5934674664147699
-0.4174281576972371
-0.03881999304629198
0.5934674664147699
-0.4174281576972371
-0.03881999304629198
0.5934674664147699
-0.417541954308593
-0.03961418232442841
0.5932796017222187
-0.417541954308593
-0.03961418232442841
0.5932796017222187
-0.417541954308593
-0.03961418232442841
0.5932796017222187
-0.417541954308593
-0.03961418232442841
0.5932796017222187
-0.4170121532900503
-0.039999428884249746
0.5934336952171121
-0.4170121532900503
-0.039999428884249746
0.5934336952171121
-0.4170121532900503
-0.039999428884249746
0.5934336952171121
-0.4170121532900503
-0.039999428884249746
0.5934336952171121
-0.41705980393271935
-0.03963143468263961
0.593870736271429
-0.41705980393271935
-0.03963143468263961
0.593870736271429
-0.41705980393271935
-0.03963143468263961
0.593870736271429
-0.41705980393271935
-0.03963143468263961
0.593870736271429
-0.4172868912844632
-0.03936171427252549
0.5942488072861827
-0.4172868912844632
-0.03936171427252549
0.5942488072861827
-0.4172868912844632
-0.03936171427252549
0.5942488072861827
-0.4172868912844632
-0.03936171427252549
0.5942488072861827
-0.4172868912844632
-0.03936171427252549
0.5942488072861827
-0.4172868912844632
-0.03936171427252549
0.5942488072861827
-0.4172868912844632
-0.03936171427252549
0.5942488072861827
-0.4172868912844632
-0.03936171427252549
0.5942488072861827
-0.4167649654130673
-0.039369735682922256
0.5943232062468516
-0.4167649654130673
-0.039369735682922256
0.5943232062468516
-0.4167649654130673
-0.039369735682922256
0.5943232062468516
-0.4167649654130673
-0.039369735682922256
0.5943232062468516
-0.4166508513726232
-0.03940517378527649
0.5943283533779317
-0.4166508513726232
-0.03940517378527649
0.5943283533779317
-0.4166508513726232
-0.03940517378527649
0.5943283533779317
-0.4166508513726232
-0.03940517378527649
0.5943283533779317
-0.4166768754366099
-0.03959881676522366
0.59397538915426
-0.4166768754366099
-0.03959881676522366
0.59397538915426
-0.4166768754366099
-0.03959881676522366
0.59397538915426
-0.4166768754366099
-0.03959881676522366
0.59397538915426
-0.4166768754366099
-0.03959881676522366
0.59397538915426
-0.4166768754366099
-0.03959881676522366
0.59397538915426
-0.4166768754366099
-0.03959881676522366
0.59397538915426
-0.4166768754366099
-0.03959881676522366
0.59397538915426
-0.4158835202950929
-0.03994114376304784
0.5941146865390009
-0.4158835202950929
-0.03994114376304784
0.5941146865390009
-0.4158835202950929
-0.03994114376304784
0.5941146865390009
-0.4158835202950929
-0.03994114376304784
0.5941146865390009
-0.4145709810190759
-0.03988936284851168
0.5943627228164067
-0.4145709810190759
-0.03988936284851168
0.5943627228164067
-0.4145709810190759
-0.03988936284851168
0.5943627228164067
-0.4145709810190759
-0.03988936284851168
0.5943627228164067
-0.4129976007408828
-0.039493194211616185
0.5954772226062078
-0.4129976007408828
-0.039493194211616185
0.5954772226062078
-0.4129976007408828
-0.039493194211616185
0.5954772226062078
-0.4129976007408828
-0.039493194211616185
0.5954772226062078
-0.4137534859154749
-0.03817879512736883
0.5969497070984041
-0.4137534859154749
-0.03817879512736883
0.5969497070984041
-0.4137534859154749
-0.03817879512736883
0.5969497070984041
-0.4137534859154749
-0.03817879512736883
0.5969497070984041
-0.41611996987417255
-0.03506718368048467
0.597787358767687
-0.41611996987417255
-0.03506718368048467
0.597787358767687
-0.41611996987417255
-0.03506718368048467
0.597787358767687
-0.41611996987417255
-0.03506718368048467
0.597787358767687
-0.4163450318111746
-0.02903069231826395
0.5981768417607131
-0.4163450318111746
-0.02903069231826395
0.5981768417607131
-0.4163450318111746
-0.02903069231826395
0.5981768417607131
-0.4163450318111746
-0.02903069231826395
0.5981768417607131
-0.4164698332286775
-0.020570996453783654
0.59844596221312
-0.4164698332286775
-0.020570996453783654
0.59844596221312
-0.4164698332286775
-0.020570996453783654
0.59844596221312
-0.4164698332286775
-0.020570996453783654
0.59844596221312
-0.41522011389777946
-0.011524855541298572
0.5998474503775317
-0.41522011389777946
-0.011524855541298572
0.5998474503775317
-0.41522011389777946
-0.011524855541298572
0.5998474503775317
-0.41522011389777946
-0.011524855541298572
0.5998474503775317
-0.4137697938217857
-0.003285668329971105
0.5989071154990497
-0.4137697938217857
-0.003285668329971105
0.5989071154990497
-0.4137697938217857
-0.003285668329971105
0.5989071154990497
-0.4137697938217857
-0.003285668329971105
0.5989071154990497
-0.4130466068710338
0.0058736748377076035
0.5950979101352931
-0.4130466068710338
0.0058736748377076035
0.5950979101352931
-0.4130466068710338
0.0058736748377076035
0.5950979101352931
-0.4130466068710338
0.0058736748377076035
0.5950979101352931
-0.4179899266582291
0.011190885179294674
0.5890738981227527
-0.4179899266582291
0.011190885179294674
0.5890738981227527
-0.4179899266582291
0.011190885179294674
0.5890738981227527
-0.4179899266582291
0.011190885179294674
0.5890738981227527
-0.4248554736603657
0.007270163931361306
0.5860102131174348
-0.4248554736603657
0.007270163931361306
0.5860102131174348
-0.4248554736603657
0.007270163931361306
0.5860102131174348
-0.4248554736603657
0.007270163931361306
0.5860102131174348
-0.4224815648116525
3.207668718047477E-4
0.587364867299816
-0.4224815648116525
3.207668718047477E-4
0.587364867299816
-0.4224815648116525
3.207668718047477E-4
0.587364867299816
-0.4224815648116525
3.207668718047477E-4
0.587364867299816
-0.4127453172711976
-0.0019734828726278883
0.5873523737080537
-0.4127453172711976
-0.0019734828726278883
0.5873523737080537
-0.4127453172711976
-0.0019734828726278883
0.5873523737080537
-0.4127453172711976
-0.0019734828726278883
0.5873523737080537
-0.4054349095102746
-0.0038637189625980468
0.5863576002757253
-0.4054349095102746
-0.0038637189625980468
0.5863576002757253
-0.4054349095102746
-0.0038637189625980468
0.5863576002757253
-0.4054349095102746
-0.0038637189625980468
0.5863576002757253
-0.4037530343126582
-0.004778961713253006
0.5843451671868954
-0.4037530343126582
-0.004778961713253006
0.5843451671868954
-0.4037530343126582
-0.004778961713253006
0.5843451671868954
-0.4037530343126582
-0.004778961713253006
0.5843451671868954
-0.40525056375505325
-0.005140512886419347
0.5816541223087497
-0.40525056375505325
-0.005140512886419347
0.5816541223087497
-0.40525056375505325
-0.005140512886419347
0.5816541223087497
-0.40525056375505325
-0.005140512886419347
0.5816541223087497
-0.4087248972551522
-0.0053347668678045005
0.5801028398919746
-0.4087248972551522
-0.0053347668678045005
0.5801028398919746
-0.4087248972551522
-0.0053347668678045005
0.5801028398919746
-0.4087248972551522
-0.0053347668678045005
0.5801028398919746
-0.41130023712134944
-0.00502287895824133
0.5791601072538991
-0.41130023712134944
-0.00502287895824133
0.5791601072538991
-0.41130023712134944
-0.00502287895824133
0.5791601072538991
-0.41130023712134944
-0.00502287895824133
0.5791601072538991
-0.4114387178457995
-0.004981864147704059
0.5791874570198028
-0.4114387178457995
-0.004981864147704059
0.5791874570198028
-0.4114387178457995
-0.004981864147704059
0.5791874570198028
-0.4114387178457995
-0.004981864147704059
0.5791874570198028
-0.4101072688155348
-0.004453745816065253
0.5792420906830072
-0.4101072688155348
-0.004453745816065253
0.5792420906830072
-0.4101072688155348
-0.004453745816065253
0.5792420906830072
-0.4101072688155348
-0.004453745816065253
0.5792420906830072
-0.40991608280155917
-0.0039903804619000035
0.5785962266595764
-0.40991608280155917
-0.0039903804619000035
0.5785962266595764
-0.40991608280155917
-0.0039903804619000035
0.5785962266595764
-0.40991608280155917
-0.0039903804619000035
0.5785962266595764
-0.4104787790425876
-0.0038794073854652913
0.577702162119332
-0.4104787790425876
-0.0038794073854652913
0.577702162119332
-0.4104787790425876
-0.0038794073854652913
0.577702162119332
-0.4104787790425876
-0.0038794073854652913
0.577702162119332
-0.4113399936851574
-0.004174064969724724
0.5775617615838143
-0.4113399936851574
-0.004174064969724724
0.5775617615838143
-0.4113399936851574
-0.004174064969724724
0.5775617615838143
-0.4113399936851574
-0.004174064969724724
0.5775617615838143
-0.4124133095338268
-0.00425528435541445
0.5775324534277417
-0.4124133095338268
-0.00425528435541445
0.5775324534277417
-0.4124133095338268
-0.00425528435541445
0.5775324534277417
-0.4124133095338268
-0.00425528435541445
0.5775324534277417
-0.4141568508306116
-0.003986592553850787
0.577586278360612
-0.4141568508306116
-0.003986592553850787
0.577586278360612
-0.4141568508306116
-0.003986592553850787
0.577586278360612
-0.4141568508306116
-0.003986592553850787
0.577586278360612
-0.4151642058636105
-0.003516630687670061
0.5771660795243387
-0.4151642058636105
-0.003516630687670061
0.5771660795243387
-0.4151642058636105
-0.003516630687670061
0.5771660795243387
-0.4151642058636105
-0.003516630687670061
0.5771660795243387
-0.41504303168508216
-0.0037096034102692024
0.5764179643940915
-0.41504303168508216
-0.0037096034102692024
0.5764179643940915
-0.41504303168508216
-0.0037096034102692024
0.5764179643940915
-0.41504303168508216
-0.0037096034102692024
0.5764179643940915
-0.4161331221463257
-0.003937166684118296
0.5762642807108174
-0.4161331221463257
-0.003937166684118296
0.5762642807108174
-0.4161331221463257
-0.003937166684118296
0.5762642807108174
-0.4161331221463257
-0.003937166684118296
0.5762642807108174
-0.4176623455607962
-0.004205018094828146
0.5765500618686044
-0.4176623455607962
-0.004205018094828146
0.5765500618686044
-0.4176623455607962
-0.004205018094828146
0.5765500618686044
-0.4176623455607962
-0.004205018094828146
0.5765500618686044
-0.4189452878473833
-0.004571836307794391
0.5767017142501742
-0.4189452878473833
-0.004571836307794391
0.5767017142501742
-0.4189452878473833
-0.004571836307794391
0.5767017142501742
-0.4189452878473833
-0.004571836307794391
0.5767017142501742
-0.41924366636293703
-0.005158926109390582
0.5765880036730374
-0.41924366636293703
-0.005158926109390582
0.5765880036730374
-0.41924366636293703
-0.005158926109390582
0.5765880036730374
-0.41924366636293703
-0.005158926109390582
0.5765880036730374
-0.4192559474801289
-0.006132771052201679
0.5762811364277567
-0.4192559474801289
-0.006132771052201679
0.5762811364277567
-0.4192559474801289
-0.006132771052201679
0.5762811364277567
-0.4192559474801289
-0.006132771052201679
0.5762811364277567
-0.41919153867819925
-0.007174863439436295
0.5763829264034978
-0.41919153867819925
-0.007174863439436295
0.5763829264034978
-0.41919153867819925
-0.007174863439436295
0.5763829264034978
-0.41919153867819925
-0.007174863439436295
0.5763829264034978
-0.42038198232168544
-0.00806740034981327
0.5766485770020053
-0.42038198232168544
-0.00806740034981327
0.5766485770020053
-0.42038198232168544
-0.00806740034981327
0.5766485770020053
-0.42038198232168544
-0.00806740034981327
0.5766485770020053
-0.421813678246325
-0.008514228589096161
0.5768210638787803
-0.421813678246325
-0.008514228589096161
0.5768210638787803
-0.421813678246325
-0.008514228589096161
0.5768210638787803
-0.421813678246325
-0.008514228589096161
0.5768210638787803
-0.421813678246325
-0.008514228589096161
0.5768210638787803
-0.421813678246325
-0.008514228589096161
0.5768210638787803
-0.421813678246325
-0.008514228589096161
0.5768210638787803
-0.421813678246325
-0.008514228589096161
0.5768210638787803
-0.42146612939886946
-0.008697040932831053
0.5764641046050911
-0.42146612939886946
-0.008697040932831053
0.5764641046050911
-0.42146612939886946
-0.008697040932831053
0.5764641046050911
-0.42146612939886946
-0.008697040932831053
0.5764641046050911
-0.42169060379906464
-0.008709653666211953
0.5760733124639146
-0.42169060379906464
-0.008709653666211953
0.5760733124639146
-0.42169060379906464
-0.008709653666211953
0.5760733124639146
-0.42169060379906464
-0.008709653666211953
0.5760733124639146
-0.4223076464373292
-0.008606853917206857
0.5757302388903827
-0.4223076464373292
-0.008606853917206857
0.5757302388903827
-0.4223076464373292
-0.008606853917206857
0.5757302388903827
-0.4223076464373292
-0.008606853917206857
0.5757302388903827
-0.42282101368125735
-0.008338405363092776
0.5750408858434125
-0.42282101368125735
-0.008338405363092776
0.5750408858434125
-0.42282101368125735
-0.008338405363092776
0.5750408858434125
-0.42282101368125735
-0.008338405363092776
0.5750408858434125
-0.42322011082595684
-0.008104226862216955
0.5743582328288533
-0.42322011082595684
-0.008104226862216955
0.5743582328288533
-0.42322011082595684
-0.008104226862216955
0.5743582328288533
-0.42322011082595684
-0.008104226862216955
0.5743582328288533
-0.42346936755343684
-0.008110639886277747
0.5740013429062435
-0.42346936755343684
-0.008110639886277747
0.5740013429062435
-0.42346936755343684
-0.008110639886277747
0.5740013429062435
-0.42346936755343684
-0.008110639886277747
0.5740013429062435
-0.42307664284077107
-0.008235031683654016
0.5733570250131357
-0.42307664284077107
-0.008235031683654016
0.5733570250131357
-0.42307664284077107
-0.008235031683654016
0.5733570250131357
-0.42307664284077107
-0.008235031683654016
0.5733570250131357
-0.42305427156893205
-0.008347464370592455
0.5728315451034939
-0.42305427156893205
-0.008347464370592455
0.5728315451034939
-0.42305427156893205
-0.008347464370592455
0.5728315451034939
-0.42305427156893205
-0.008347464370592455
0.5728315451034939
-0.42327644145949783
-0.008264324841390919
0.5723354457554471
-0.42327644145949783
-0.008264324841390919
0.5723354457554471
-0.42327644145949783
-0.008264324841390919
0.5723354457554471
-0.42327644145949783
-0.008264324841390919
0.5723354457554471
-0.4235951594750751
-0.008179054164437293
0.571684282936092
-0.4235951594750751
-0.008179054164437293
0.571684282936092
-0.4235951594750751
-0.008179054164437293
0.571684282936092
-0.4235951594750751
-0.008179054164437293
0.571684282936092
-0.4236289123764853
-0.008293521511780153
0.5717090428168067
-0.4236289123764853
-0.008293521511780153
0.5717090428168067
-0.4236289123764853
-0.008293521511780153
0.5717090428168067
-0.4236289123764853
-0.008293521511780153
0.5717090428168067
-0.4243877891878572
-0.008248309436712295
0.5714980274845685
-0.4243877891878572
-0.008248309436712295
0.5714980274845685
-0.4243877891878572
-0.008248309436712295
0.5714980274845685
-0.4243877891878572
-0.008248309436712295
0.5714980274845685
-0.4243877891878572
-0.008248309436712295
0.5714980274845685
-0.4243877891878572
-0.008248309436712295
0.5714980274845685
-0.4243877891878572
-0.008248309436712295
0.5714980274845685
-0.4243877891878572
-0.008248309436712295
0.5714980274845685
-0.42402878051777404
-0.008904208365362471
0.5713278261509952
-0.42402878051777404
-0.008904208365362471
0.5713278261509952
-0.42402878051777404
-0.008904208365362471
0.5713278261509952
-0.42402878051777404
-0.008904208365362471
0.5713278261509952
-0.423746331113462
-0.009636295254729935
0.5713641498537242
-0.423746331113462
-0.009636295254729935
0.5713641498537242
-0.423746331113462
-0.009636295254729935
0.5713641498537242
-0.423746331113462
-0.009636295254729935
0.5713641498537242
-0.42426352682171703
-0.01045295964385891
0.5716975573905652
-0.42426352682171703
-0.01045295964385891
0.5716975573905652
-0.42426352682171703
-0.01045295964385891
0.5716975573905652
-0.42426352682171703
-0.01045295964385891
0.5716975573905652
-0.42513592728270877
-0.011111610194227543
0.5722741901859968
-0.42513592728270877
-0.011111610194227543
0.5722741901859968
-0.42513592728270877
-0.011111610194227543
0.5722741901859968
-0.42513592728270877
-0.011111610194227543
0.5722741901859968
-0.42564444337261825
-0.01137980176970486
0.5727648631531722
-0.42564444337261825
-0.01137980176970486
0.5727648631531722
-0.42564444337261825
-0.01137980176970486
0.5727648631531722
-0.42564444337261825
-0.01137980176970486
0.5727648631531722
-0.42599313562771235
-0.011623750429550364
0.5729746816927379
-0.42599313562771235
-0.011623750429550364
0.5729746816927379
-0.42599313562771235
-0.011623750429550364
0.5729746816927379
-0.42599313562771235
-0.011623750429550364
0.5729746816927379
-0.42637061410403565
-0.012063556746394342
0.5728324907613375
-0.42637061410403565
-0.012063556746394342
0.5728324907613375
-0.42637061410403565
-0.012063556746394342
0.5728324907613375
-0.42637061410403565
-0.012063556746394342
0.5728324907613375
-0.4261707002489189
-0.012754174950847545
0.5723462517598756
-0.4261707002489189
-0.012754174950847545
0.5723462517598756
-0.4261707002489189
-0.012754174950847545
0.5723462517598756
-0.4261707002489189
-0.012754174950847545
0.5723462517598756
-0.42624740749242074
-0.0135309606045631
0.5722400555740157
-0.42624740749242074
-0.0135309606045631
0.5722400555740157
-0.42624740749242074
-0.0135309606045631
0.5722400555740157
-0.42624740749242074
-0.0135309606045631
0.5722400555740157
-0.42677932882739594
-0.014076509001482069
0.5720024156198915
-0.42677932882739594
-0.014076509001482069
0.5720024156198915
-0.42677932882739594
-0.014076509001482069
0.5720024156198915
-0.42677932882739594
-0.014076509001482069
0.5720024156198915
-0.42713553572855834
-0.01402513754310155
0.5717541264935916
-0.42713553572855834
-0.01402513754310155
0.5717541264935916
-0.42713553572855834
-0.01402513754310155
0.5717541264935916
-0.42713553572855834
-0.01402513754310155
0.5717541264935916
-0.42713553572855834
-0.01402513754310155
0.5717541264935916
-0.42713553572855834
-0.01402513754310155
0.5717541264935916
-0.42713553572855834
-0.01402513754310155
0.5717541264935916
-0.42713553572855834
-0.01402513754310155
0.5717541264935916
-0.42713553572855834
-0.01402513754310155
0.5717541264935916
-0.42713553572855834
-0.01402513754310155
0.5717541264935916
-0.42713553572855834
-0.01402513754310155
0.5717541264935916
-0.42713553572855834
-0.01402513754310155
0.5717541264935916
-0.42648599554974725
-0.014544865772526065
0.5714321779769198
-0.42648599554974725
-0.014544865772526065
0.5714321779769198
-0.42648599554974725
-0.014544865772526065
0.5714321779769198
-0.42648599554974725
-0.014544865772526065
0.5714321779769198
-0.42648599554974725
-0.014544865772526065
0.5714321779769198
-0.42648599554974725
-0.014544865772526065
0.5714321779769198
-0.42648599554974725
-0.014544865772526065
0.5714321779769198
-0.42648599554974725
-0.014544865772526065
0.5714321779769198
-0.4259097005149459
-0.015211800863459126
0.5715370009793279
-0.4259097005149459
-0.015211800863459126
0.5715370009793279
-0.4259097005149459
-0.015211800863459126
0.5715370009793279
-0.4259097005149459
-0.015211800863459126
0.5715370009793279
-0.42403032779720623
-0.016076663403415865
0.572512240818942
-0.42403032779720623
-0.016076663403415865
0.572512240818942
-0.42403032779720623
-0.016076663403415865
0.572512240818942
-0.42403032779720623
-0.016076663403415865
0.572512240818942
-0.4234542898293552
-0.019158481247945336
0.575347356815261
-0.4234542898293552
-0.019158481247945336
0.575347356815261
-0.4234542898293552
-0.019158481247945336
0.575347356815261
-0.4234542898293552
-0.019158481247945336
0.575347356815261
-0.42874913992857694
-0.024527998556010833
0.5758922339527512
-0.42874913992857694
-0.024527998556010833
0.5758922339527512
-0.42874913992857694
-0.024527998556010833
0.5758922339527512
-0.42874913992857694
-0.024527998556010833
0.5758922339527512
-0.42837225838130116
-0.029322970058037152
0.5746816647436631
-0.42837225838130116
-0.029322970058037152
0.5746816647436631
-0.42837225838130116
-0.029322970058037152
0.5746816647436631
-0.42837225838130116
-0.029322970058037152
0.5746816647436631
-0.4230931464019527
-0.033957755240598
0.5742523277890721
-0.4230931464019527
-0.033957755240598
0.5742523277890721
-0.4230931464019527
-0.033957755240598
0.5742523277890721
-0.4230931464019527
-0.033957755240598
0.5742523277890721
-0.4205915770118701
-0.039348779032438136
0.5731619359318515
-0.4205915770118701
-0.039348779032438136
0.5731619359318515
-0.4205915770118701
-0.039348779032438136
0.5731619359318515
-0.4205915770118701
-0.039348779032438136
0.5731619359318515
-0.4228510513695725
-0.044004963732175675
0.5726839230376739
-0.4228510513695725
-0.044004963732175675
0.5726839230376739
-0.4228510513695725
-0.044004963732175675
0.5726839230376739
-0.4228510513695725
-0.044004963732175675
0.5726839230376739
-0.4232014655031211
-0.04708881851849892
0.5705419869664052
-0.4232014655031211
-0.04708881851849892
0.5705419869664052
-0.4232014655031211
-0.04708881851849892
0.5705419869664052
-0.4232014655031211
-0.04708881851849892
0.5705419869664052
-0.423199525743321
-0.047661859331789035
0.5671484455317398
-0.423199525743321
-0.047661859331789035
0.5671484455317398
-0.423199525743321
-0.047661859331789035
0.5671484455317398
-0.423199525743321
-0.047661859331789035
0.5671484455317398
-0.4239809513941627
-0.04678607970548067
0.5640457401763284
-0.4239809513941627
-0.04678607970548067
0.5640457401763284
-0.4239809513941627
-0.04678607970548067
0.5640457401763284
-0.4239809513941627
-0.04678607970548067
0.5640457401763284
-0.4241362927899549
-0.044350213190864796
0.5636449608427745
-0.4241362927899549
-0.044350213190864796
0.5636449608427745
-0.4241362927899549
-0.044350213190864796
0.5636449608427745
-0.4241362927899549
-0.044350213190864796
0.5636449608427745
-0.42419591445840654
-0.03951530539488481
0.5642688881759736
-0.42419591445840654
-0.03951530539488481
0.5642688881759736
-0.42419591445840654
-0.03951530539488481
0.5642688881759736
-0.42419591445840654
-0.03951530539488481
0.5642688881759736
-0.42973752735131643
-0.03602766566780501
0.565235110058004
-0.42973752735131643
-0.03602766566780501
0.565235110058004
-0.42973752735131643
-0.03602766566780501
0.565235110058004
-0.42973752735131643
-0.03602766566780501
0.565235110058004
-0.4310806717040144
-0.035105342062177684
0.5659168986879
-0.4310806717040144
-0.035105342062177684
0.5659168986879
-0.4310806717040144
-0.035105342062177684
0.5659168986879
-0.4310806717040144
-0.035105342062177684
0.5659168986879
-0.4244464639172936
-0.03390346775717102
0.5670613934878743
-0.4244464639172936
-0.03390346775717102
0.5670613934878743
-0.4244464639172936
-0.03390346775717102
0.5670613934878743
-0.4244464639172936
-0.03390346775717102
0.5670613934878743
-0.41844408081239687
-0.0327788187574893
0.5676397637474746
-0.41844408081239687
-0.0327788187574893
0.5676397637474746
-0.41844408081239687
-0.0327788187574893
0.5676397637474746
-0.41844408081239687
-0.0327788187574893
0.5676397637474746
-0.42048728411869907
-0.03247975015252534
0.5681435005687894
-0.42048728411869907
-0.03247975015252534
0.5681435005687894
-0.42048728411869907
-0.03247975015252534
0.5681435005687894
-0.42048728411869907
-0.03247975015252534
0.5681435005687894
-0.42474143182158036
-0.03193951515274007
0.567981347994535
-0.42474143182158036
-0.03193951515274007
0.567981347994535
-0.42474143182158036
-0.03193951515274007
0.567981347994535
-0.42474143182158036
-0.03193951515274007
0.567981347994535
-0.42650940649334373
-0.031220197843809947
0.5683535340825865
-0.42650940649334373
-0.031220197843809947
0.5683535340825865
-0.42650940649334373
-0.031220197843809947
0.5683535340825865
-0.42650940649334373
-0.031220197843809947
0.5683535340825865
-0.4262442674657579
-0.03123050293500968
0.5698954929988213
-0.4262442674657579
-0.03123050293500968
0.5698954929988213
-0.4262442674657579
-0.03123050293500968
0.5698954929988213
-0.4262442674657579
-0.03123050293500968
0.5698954929988213
-0.426019055558318
-0.03233061701632744
0.5711591390413635
-0.426019055558318
-0.03233061701632744
0.5711591390413635
-0.426019055558318
-0.03233061701632744
0.5711591390413635
-0.426019055558318
-0.03233061701632744
0.5711591390413635
-0.4259374143212226
-0.03329679034712884
0.5716066779049918
-0.4259374143212226
-0.03329679034712884
0.5716066779049918
-0.4259374143212226
-0.03329679034712884
0.5716066779049918
-0.4259374143212226
-0.03329679034712884
0.5716066779049918
-0.4253834302972652
-0.033505520197017295
0.5720019817378246
-0.4253834302972652
-0.033505520197017295
0.5720019817378246
-0.4253834302972652
-0.033505520197017295
0.5720019817378246
-0.4253834302972652
-0.033505520197017295
0.5720019817378246
-0.42531367879155973
-0.033145128221886394
0.5725574572999693
-0.42531367879155973
-0.033145128221886394
0.5725574572999693
-0.42531367879155973
-0.033145128221886394
0.5725574572999693
-0.42531367879155973
-0.033145128221886394
0.5725574572999693
-0.4257936524343247
-0.03329913037375701
0.5730285981706695
-0.4257936524343247
-0.03329913037375701
0.5730285981706695
-0.4257936524343247
-0.03329913037375701
0.5730285981706695
-0.4257936524343247
-0.03329913037375701
0.5730285981706695
-0.42612640915450817
-0.03432250193593868
0.5732907307767579
-0.42612640915450817
-0.03432250193593868
0.5732907307767579
-0.42612640915450817
-0.03432250193593868
0.5732907307767579
-0.42612640915450817
-0.03432250193593868
0.5732907307767579
-0.42635269064073167
-0.03592732408427768
0.5734023922080584
-0.42635269064073167
-0.03592732408427768
0.5734023922080584
-0.42635269064073167
-0.03592732408427768
0.5734023922080584
-0.42635269064073167
-0.03592732408427768
0.5734023922080584
-0.42560731170297217
-0.03684107804927738
0.5737909022302486
-0.42560731170297217
-0.03684107804927738
0.5737909022302486
-0.42560731170297217
-0.03684107804927738
0.5737909022302486
-0.42560731170297217
-0.03684107804927738
0.5737909022302486
-0.42498444834486515
-0.03724964706745923
0.5739870044659258
-0.42498444834486515
-0.03724964706745923
0.5739870044659258
-0.42498444834486515
-0.03724964706745923
0.5739870044659258
-0.42498444834486515
-0.03724964706745923
0.5739870044659258
-0.42550910504451184
-0.0377690461909198
0.5738695997062321
-0.42550910504451184
-0.0377690461909198
0.5738695997062321
-0.42550910504451184
-0.0377690461909198
0.5738695997062321
-0.42550910504451184
-0.0377690461909198
0.5738695997062321
-0.42659524170788016
-0.03842583855632027
0.5735884181037834
-0.42659524170788016
-0.03842583855632027
0.5735884181037834
-0.42659524170788016
-0.03842583855632027
0.5735884181037834
-0.42659524170788016
-0.03842583855632027
0.5735884181037834
-0.4270956488296743
-0.03888206472108443
0.5732175653216601
-0.4270956488296743
-0.03888206472108443
0.5732175653216601
-0.4270956488296743
-0.03888206472108443
0.5732175653216601
-0.4270956488296743
-0.03888206472108443
0.5732175653216601
-0.42677811091481316
-0.038752458554395706
0.5730282209721657
-0.42677811091481316
-0.038752458554395706
0.5730282209721657
-0.42677811091481316
-0.038752458554395706
0.5730282209721657
-0.42677811091481316
-0.038752458554395706
0.5730282209721657
-0.42539162545237547
-0.03761389727785544
0.5729244519269412
-0.42539162545237547
-0.03761389727785544
0.5729244519269412
-0.42539162545237547
-0.03761389727785544
0.5729244519269412
-0.42539162545237547
-0.03761389727785544
0.5729244519269412
-0.42545270536605123
-0.03502578020273187
0.5752142780244589
-0.42545270536605123
-0.03502578020273187
0.5752142780244589
-0.42545270536605123
-0.03502578020273187
0.5752142780244589
-0.42545270536605123
-0.03502578020273187
0.5752142780244589
-0.43001637734009146
-0.031268057888373196
0.5780010077948259
-0.43001637734009146
-0.031268057888373196
0.5780010077948259
-0.43001637734009146
-0.031268057888373196
0.5780010077948259
-0.43001637734009146
-0.031268057888373196
0.5780010077948259
-0.43299737500014773
-0.024632462206150185
0.5798910712892978
-0.43299737500014773
-0.024632462206150185
0.5798910712892978
-0.43299737500014773
-0.024632462206150185
0.5798910712892978
-0.43299737500014773
-0.024632462206150185
0.5798910712892978
-0.4303420131930337
-0.014268803727712068
0.5789587814364758
-0.4303420131930337
-0.014268803727712068
0.5789587814364758
-0.4303420131930337
-0.014268803727712068
0.5789587814364758
-0.4303420131930337
-0.014268803727712068
0.5789587814364758
-0.42414239149973065
-0.002070609081860623
0.5757408313183832
-0.42414239149973065
-0.002070609081860623
0.5757408313183832
-0.42414239149973065
-0.002070609081860623
0.5757408313183832
-0.42414239149973065
-0.002070609081860623
0.5757408313183832
-0.4154695540136254
0.009935719118770961
0.5751197424971034
-0.4154695540136254
0.009935719118770961
0.5751197424971034
-0.4154695540136254
0.009935719118770961
0.5751197424971034
-0.4154695540136254
0.009935719118770961
0.5751197424971034
-0.4114158243182651
0.019612916195705404
0.57432994351074
-0.4114158243182651
0.019612916195705404
0.57432994351074
-0.4114158243182651
0.019612916195705404
0.57432994351074
-0.4114158243182651
0.019612916195705404
0.57432994351074
-0.4168991913728281
0.022862942921836646
0.5679426437316438
-0.4168991913728281
0.022862942921836646
0.5679426437316438
-0.4168991913728281
0.022862942921836646
0.5679426437316438
-0.4168991913728281
0.022862942921836646
0.5679426437316438
-0.4216233426661406
0.02014218078975037
0.5657846274497744
-0.4216233426661406
0.02014218078975037
0.5657846274497744
-0.4216233426661406
0.02014218078975037
0.5657846274497744
-0.4216233426661406
0.02014218078975037
0.5657846274497744
-0.4162103662766011
0.01862963243733904
0.5685350228632057
-0.4162103662766011
0.01862963243733904
0.5685350228632057
-0.4162103662766011
0.01862963243733904
0.5685350228632057
-0.4162103662766011
0.01862963243733904
0.5685350228632057
-0.40724506522052895
0.01873427514767568
0.5692192419401375
-0.40724506522052895
0.01873427514767568
0.5692192419401375
-0.40724506522052895
0.01873427514767568
0.5692192419401375
-0.40724506522052895
0.01873427514767568
0.5692192419401375
-0.4004044232945327
0.018641751466475634
0.5671882889396327
-0.4004044232945327
0.018641751466475634
0.5671882889396327
-0.4004044232945327
0.018641751466475634
0.5671882889396327
-0.4004044232945327
0.018641751466475634
0.5671882889396327
-0.3988404258086144
0.018120514325765787
0.5637315641118468
-0.3988404258086144
0.018120514325765787
0.5637315641118468
-0.3988404258086144
0.018120514325765787
0.5637315641118468
-0.3988404258086144
0.018120514325765787
0.5637315641118468
-0.40359456930376064
0.017067562759416514
0.5619732291544961
-0.40359456930376064
0.017067562759416514
0.5619732291544961
-0.40359456930376064
0.017067562759416514
0.5619732291544961
-0.40359456930376064
0.017067562759416514
0.5619732291544961
-0.4071599695538175
0.016722179652274374
0.5615534499274474
-0.4071599695538175
0.016722179652274374
0.5615534499274474
-0.4071599695538175
0.016722179652274374
0.5615534499274474
-0.4071599695538175
0.016722179652274374
0.5615534499274474
-0.40554406727978876
0.01689992035405294
0.5609480157536986
-0.40554406727978876
0.01689992035405294
0.5609480157536986
-0.40554406727978876
0.01689992035405294
0.5609480157536986
-0.40554406727978876
0.01689992035405294
0.5609480157536986
-0.4019303309311543
0.01709882639152073
0.5600635138915436
-0.4019303309311543
0.01709882639152073
0.5600635138915436
-0.4019303309311543
0.01709882639152073
0.5600635138915436
-0.4019303309311543
0.01709882639152073
0.5600635138915436
-0.40097146024885033
0.016643591168330675
0.5591884623512162
-0.40097146024885033
0.016643591168330675
0.5591884623512162
-0.40097146024885033
0.016643591168330675
0.5591884623512162
-0.40097146024885033
0.016643591168330675
0.5591884623512162
-0.4038715952524017
0.016082851132747635
0.5593313662761906
-0.4038715952524017
0.016082851132747635
0.5593313662761906
-0.4038715952524017
0.016082851132747635
0.5593313662761906
-0.4038715952524017
0.016082851132747635
0.5593313662761906
-0.40768253298095425
0.015985912510123268
0.5598012026256532
-0.40768253298095425
0.015985912510123268
0.5598012026256532
-0.40768253298095425
0.015985912510123268
0.5598012026256532
-0.40768253298095425
0.015985912510123268
0.5598012026256532
-0.4098294286527581
0.016308923453602957
0.5602487004645121
-0.4098294286527581
0.016308923453602957
0.5602487004645121
-0.4098294286527581
0.016308923453602957
0.5602487004645121
-0.4098294286527581
0.016308923453602957
0.5602487004645121
-0.4091576949267895
0.016390276734984437
0.5603226164772165
-0.4091576949267895
0.016390276734984437
0.5603226164772165
-0.4091576949267895
0.016390276734984437
0.5603226164772165
-0.4091576949267895
0.016390276734984437
0.5603226164772165
-0.409002102236236
0.01649589157039862
0.5604217912646241
-0.409002102236236
0.01649589157039862
0.5604217912646241
-0.409002102236236
0.01649589157039862
0.5604217912646241
-0.409002102236236
0.01649589157039862
0.5604217912646241
-0.41009212269460177
0.016259711256286537
0.5602567009588707
-0.41009212269460177
0.016259711256286537
0.5602567009588707
-0.41009212269460177
0.016259711256286537
0.5602567009588707
-0.41009212269460177
0.016259711256286537
0.5602567009588707
-0.41219799569603877
0.015694431170550412
0.5602214921763504
-0.41219799569603877
0.015694431170550412
0.5602214921763504
-0.41219799569603877
0.015694431170550412
0.5602214921763504
-0.41219799569603877
0.015694431170550412
0.5602214921763504
-0.4127798552448456
0.015489001950968724
0.560294415648122
-0.4127798552448456
0.015489001950968724
0.560294415648122
-0.4127798552448456
0.015489001950968724
0.560294415648122
-0.4127798552448456
0.015489001950968724
0.560294415648122
-0.4123626780372303
0.015199139399625809
0.560717792972428
-0.4123626780372303
0.015199139399625809
0.560717792972428
-0.4123626780372303
0.015199139399625809
0.560717792972428
-0.4123626780372303
0.015199139399625809
0.560717792972428
-0.41167519975809774
0.014981880519093759
0.5612477202486937
-0.41167519975809774
0.014981880519093759
0.5612477202486937
-0.41167519975809774
0.014981880519093759
0.5612477202486937
-0.41167519975809774
0.014981880519093759
0.5612477202486937
-0.4125609999163133
0.014668191802316197
0.561615452173076
-0.4125609999163133
0.014668191802316197
0.561615452173076
-0.4125609999163133
0.014668191802316197
0.561615452173076
-0.4125609999163133
0.014668191802316197
0.561615452173076
-0.4134464489864799
0.013929716612130863
0.5618330523523889
-0.4134464489864799
0.013929716612130863
0.5618330523523889
-0.4134464489864799
0.013929716612130863
0.5618330523523889
-0.4134464489864799
0.013929716612130863
0.5618330523523889
-0.413069122300232
0.013342637278288537
0.5614101794834638
-0.413069122300232
0.013342637278288537
0.5614101794834638
-0.413069122300232
0.013342637278288537
0.5614101794834638
-0.413069122300232
0.013342637278288537
0.5614101794834638
-0.4134933530526814
0.01265962090092777
0.5606771824700363
-0.4134933530526814
0.01265962090092777
0.5606771824700363
-0.4134933530526814
0.01265962090092777
0.5606771824700363
-0.4134933530526814
0.01265962090092777
0.5606771824700363
-0.4140090771980432
0.012080871211840778
0.5602813975415902
-0.4140090771980432
0.012080871211840778
0.5602813975415902
-0.4140090771980432
0.012080871211840778
0.5602813975415902
-0.4140090771980432
0.012080871211840778
0.5602813975415902
-0.41486027855341084
0.011377202531646381
0.5600992586794942
-0.41486027855341084
0.011377202531646381
0.5600992586794942
-0.41486027855341084
0.011377202531646381
0.5600992586794942
-0.41486027855341084
0.011377202531646381
0.5600992586794942
-0.4156228723800263
0.010975075111041965
0.5602141463806647
-0.4156228723800263
0.010975075111041965
0.5602141463806647
-0.4156228723800263
0.010975075111041965
0.5602141463806647
-0.4156228723800263
0.010975075111041965
0.5602141463806647
-0.4156228723800263
0.010975075111041965
0.5602141463806647
-0.4156228723800263
0.010975075111041965
0.5602141463806647
-0.4156228723800263
0.010975075111041965
0.5602141463806647
-0.4156228723800263
0.010975075111041965
0.5602141463806647
-0.41577689056162703
0.010789429056448405
0.5597383975230799
-0.41577689056162703
0.010789429056448405
0.5597383975230799
-0.41577689056162703
0.010789429056448405
0.5597383975230799
-0.41577689056162703
0.010789429056448405
0.5597383975230799
-0.41702895232309445
0.010946062636311895
0.5594077657431156
-0.41702895232309445
0.010946062636311895
0.5594077657431156
-0.41702895232309445
0.010946062636311895
0.5594077657431156
-0.41702895232309445
0.010946062636311895
0.5594077657431156
-0.4181421694509531
0.011061855942041572
0.5590517266359778
-0.4181421694509531
0.011061855942041572
0.5590517266359778
-0.4181421694509531
0.011061855942041572
0.5590517266359778
-0.4181421694509531
0.011061855942041572
0.5590517266359778
-0.4182305178386203
0.011105152422111764
0.5585278398688075
-0.4182305178386203
0.011105152422111764
0.5585278398688075
-0.4182305178386203
0.011105152422111764
0.5585278398688075
-0.4182305178386203
0.011105152422111764
0.5585278398688075
-0.4182305178386203
0.011105152422111764
0.5585278398688075
-0.4182305178386203
0.011105152422111764
0.5585278398688075
-0.4182305178386203
0.011105152422111764
0.5585278398688075
-0.4182305178386203
0.011105152422111764
0.5585278398688075
-0.41900920116462737
0.011079823932498298
0.5585632477420353
-0.41900920116462737
0.011079823932498298
0.5585632477420353
-0.41900920116462737
0.011079823932498298
0.5585632477420353
-0.41900920116462737
0.011079823932498298
0.5585632477420353
-0.41900920116462737
0.011079823932498298
0.5585632477420353
-0.41900920116462737
0.011079823932498298
0.5585632477420353
-0.41900920116462737
0.011079823932498298
0.5585632477420353
-0.41900920116462737
0.011079823932498298
0.5585632477420353
-0.41900920116462737
0.011079823932498298
0.5585632477420353
-0.41900920116462737
0.011079823932498298
0.5585632477420353
-0.41900920116462737
0.011079823932498298
0.5585632477420353
-0.41900920116462737
0.011079823932498298
0.5585632477420353
-0.41900920116462737
0.011079823932498298
0.5585632477420353
-0.41900920116462737
0.011079823932498298
0.5585632477420353
-0.41900920116462737
0.011079823932498298
0.5585632477420353
-0.41900920116462737
0.011079823932498298
0.5585632477420353
-0.4195331047883992
0.011079518131222632
0.5584748957216134
-0.4195331047883992
0.011079518131222632
0.5584748957216134
-0.4195331047883992
0.011079518131222632
0.5584748957216134
-0.4195331047883992
0.011079518131222632
0.5584748957216134
-0.42004937991957525
0.011103447296100707
0.5585013475509958
-0.42004937991957525
0.011103447296100707
0.5585013475509958
-0.42004937991957525
0.011103447296100707
0.5585013475509958
-0.42004937991957525
0.011103447296100707
0.5585013475509958
-0.42004937991957525
0.011103447296100707
0.5585013475509958
-0.42004937991957525
0.011103447296100707
0.5585013475509958
-0.42004937991957525
0.011103447296100707
0.5585013475509958
-0.42004937991957525
0.011103447296100707
0.5585013475509958
-0.4198776860070255
0.010832573223950058
0.558679998318875
-0.4198776860070255
0.010832573223950058
0.558679998318875
-0.4198776860070255
0.010832573223950058
0.558679998318875
-0.4198776860070255
0.010832573223950058
0.558679998318875
-0.4202955450058887
0.010331814081647964
0.5588189989580868
-0.4202955450058887
0.010331814081647964
0.5588189989580868
-0.4202955450058887
0.010331814081647964
0.5588189989580868
-0.4202955450058887
0.010331814081647964
0.5588189989580868
-0.42135330700057905
0.010289468871827407
0.5590114114017875
-0.42135330700057905
0.010289468871827407
0.5590114114017875
-0.42135330700057905
0.010289468871827407
0.5590114114017875
-0.42135330700057905
0.010289468871827407
0.5590114114017875
-0.42178763515838835
0.010165983208069893
0.5590700832437799
-0.42178763515838835
0.010165983208069893
0.5590700832437799
-0.42178763515838835
0.010165983208069893
0.5590700832437799
-0.42178763515838835
0.010165983208069893
0.5590700832437799
-0.42178763515838835
0.010165983208069893
0.5590700832437799
-0.42178763515838835
0.010165983208069893
0.5590700832437799
-0.42178763515838835
0.010165983208069893
0.5590700832437799
-0.42178763515838835
0.010165983208069893
0.5590700832437799
-0.4222544907644122
0.009403866767334451
0.5591109853492512
-0.4222544907644122
0.009403866767334451
0.5591109853492512
-0.4222544907644122
0.009403866767334451
0.5591109853492512
-0.4222544907644122
0.009403866767334451
0.5591109853492512
-0.42274520489369755
0.008994403859025783
0.5589565081019627
-0.42274520489369755
0.008994403859025783
0.5589565081019627
-0.42274520489369755
0.008994403859025783
0.5589565081019627
-0.42274520489369755
0.008994403859025783
0.5589565081019627
-0.4229735312969059
0.008634012411673577
0.5587928666132989
-0.4229735312969059
0.008634012411673577
0.5587928666132989
-0.4229735312969059
0.008634012411673577
0.5587928666132989
-0.4229735312969059
0.008634012411673577
0.5587928666132989
-0.4228587773063465
0.008601205214475723
0.5588004266090231
-0.4228587773063465
0.008601205214475723
0.5588004266090231
-0.4228587773063465
0.008601205214475723
0.5588004266090231
-0.4228587773063465
0.008601205214475723
0.5588004266090231
-0.42197434355636687
0.008126069329167707
0.5589915966818546
-0.42197434355636687
0.008126069329167707
0.5589915966818546
-0.42197434355636687
0.008126069329167707
0.5589915966818546
-0.42197434355636687
0.008126069329167707
0.5589915966818546
-0.4227459000614752
0.007256672057870482
0.55932939006694
-0.4227459000614752
0.007256672057870482
0.55932939006694
-0.4227459000614752
0.007256672057870482
0.55932939006694
-0.4227459000614752
0.007256672057870482
0.55932939006694
-0.4213767239400612
0.00569262240017663
0.5593255302436536
-0.4213767239400612
0.00569262240017663
0.5593255302436536
-0.4213767239400612
0.00569262240017663
0.5593255302436536
-0.4213767239400612
0.00569262240017663
0.5593255302436536
-0.4219195930815053
6.525914515450789E-5
0.5589858905661245
-0.4219195930815053
6.525914515450789E-5
0.5589858905661245
-0.4219195930815053
6.525914515450789E-5
0.5589858905661245
-0.4219195930815053
6.525914515450789E-5
0.5589858905661245
-0.42498640002109833
-0.007507750231161083
0.5583735051842715
-0.42498640002109833
-0.007507750231161083
0.5583735051842715
-0.42498640002109833
-0.007507750231161083
0.5583735051842715
-0.42498640002109833
-0.007507750231161083
0.5583735051842715
-0.42406324572921617
-0.015142404953519047
0.5585212264445918
-0.42406324572921617
-0.015142404953519047
0.5585212264445918
-0.42406324572921617
-0.015142404953519047
0.5585212264445918
-0.42406324572921617
-0.015142404953519047
0.5585212264445918
-0.425935324379427
-0.022978905823206525
0.5583089703795795
-0.425935324379427
-0.022978905823206525
0.5583089703795795
-0.425935324379427
-0.022978905823206525
0.5583089703795795
-0.425935324379427
-0.022978905823206525
0.5583089703795795
-0.4283242797741541
-0.029830692087937802
0.5571160059145595
-0.4283242797741541
-0.029830692087937802
0.5571160059145595
-0.4283242797741541
-0.029830692087937802
0.5571160059145595
-0.4283242797741541
-0.029830692087937802
0.5571160059145595
-0.4274463549360933
-0.03421392045228594
0.552957816736858
-0.4274463549360933
-0.03421392045228594
0.552957816736858
-0.4274463549360933
-0.03421392045228594
0.552957816736858
-0.4274463549360933
-0.03421392045228594
0.552957816736858
-0.4273550933789686
-0.035331565042492116
0.5490795725832963
-0.4273550933789686
-0.035331565042492116
0.5490795725832963
-0.4273550933789686
-0.035331565042492116
0.5490795725832963
-0.4273550933789686
-0.035331565042492116
0.5490795725832963
-0.432917754153107
-0.03509242484035114
0.548400345341217
-0.432917754153107
-0.03509242484035114
0.548400345341217
-0.432917754153107
-0.03509242484035114
0.548400345341217
-0.432917754153107
-0.03509242484035114
0.548400345341217
-0.4360117258896774
-0.03317711924285412
0.5484742303900774
-0.4360117258896774
-0.03317711924285412
0.5484742303900774
-0.4360117258896774
-0.03317711924285412
0.5484742303900774
-0.4360117258896774
-0.03317711924285412
0.5484742303900774
-0.43749383202275016
-0.029252740877369454
0.5484841684615657
-0.43749383202275016
-0.029252740877369454
0.5484841684615657
-0.43749383202275016
-0.029252740877369454
0.5484841684615657
-0.43749383202275016
-0.029252740877369454
0.5484841684615657
-0.4379274149228562
-0.02695981715788651
0.5489244254142899
-0.4379274149228562
-0.02695981715788651
0.5489244254142899
-0.4379274149228562
-0.02695981715788651
0.5489244254142899
-0.4379274149228562
-0.02695981715788651
0.5489244254142899
-0.43639461490634074
-0.025990534794071474
0.5493770582151639
-0.43639461490634074
-0.025990534794071474
0.5493770582151639
-0.43639461490634074
-0.025990534794071474
0.5493770582151639
-0.43639461490634074
-0.025990534794071474
0.5493770582151639
-0.43338415790888096
-0.025233786154510232
0.5501524536993287
-0.43338415790888096
-0.025233786154510232
0.5501524536993287
-0.43338415790888096
-0.025233786154510232
0.5501524536993287
-0.43338415790888096
-0.025233786154510232
0.5501524536993287
-0.4331489043292132
-0.02395213905905988
0.5503488666032813
-0.4331489043292132
-0.02395213905905988
0.5503488666032813
-0.4331489043292132
-0.02395213905905988
0.5503488666032813
-0.4331489043292132
-0.02395213905905988
0.5503488666032813
-0.43614714769226537
-0.0232408419206382
0.5497614057667908
-0.43614714769226537
-0.0232408419206382
0.5497614057667908
-0.43614714769226537
-0.0232408419206382
0.5497614057667908
-0.43614714769226537
-0.0232408419206382
0.5497614057667908
-0.43943748547753325
-0.023222433014259043
0.5503943330413626
-0.43943748547753325
-0.023222433014259043
0.5503943330413626
-0.43943748547753325
-0.023222433014259043
0.5503943330413626
-0.43943748547753325
-0.023222433014259043
0.5503943330413626
-0.4407030857978487
-0.023211064910523084
0.5517804218756162
-0.4407030857978487
-0.023211064910523084
0.5517804218756162
-0.4407030857978487
-0.023211064910523084
0.5517804218756162
-0.4407030857978487
-0.023211064910523084
0.5517804218756162
-0.4394385837245103
-0.023075700322674926
0.5528187210774399
-0.4394385837245103
-0.023075700322674926
0.5528187210774399
-0.4394385837245103
-0.023075700322674926
0.5528187210774399
-0.4394385837245103
-0.023075700322674926
0.5528187210774399
-0.4385946618894049
-0.023687681715322317
0.5529110936537053
-0.4385946618894049
-0.023687681715322317
0.5529110936537053
-0.4385946618894049
-0.023687681715322317
0.5529110936537053
-0.4385946618894049
-0.023687681715322317
0.5529110936537053
-0.4376710378920848
-0.02475106726407187
0.5539789305922702
-0.4376710378920848
-0.02475106726407187
0.5539789305922702
-0.4376710378920848
-0.02475106726407187
0.5539789305922702
-0.4376710378920848
-0.02475106726407187
0.5539789305922702
-0.4382139658351326
-0.026076587705304313
0.5561360360504739
-0.4382139658351326
-0.026076587705304313
0.5561360360504739
-0.4382139658351326
-0.026076587705304313
0.5561360360504739
-0.4382139658351326
-0.026076587705304313
0.5561360360504739
-0.43868742483826006
-0.027391414383262095
0.5572598530279831
-0.43868742483826006
-0.027391414383262095
0.5572598530279831
-0.43868742483826006
-0.027391414383262095
0.5572598530279831
-0.43868742483826006
-0.027391414383262095
0.5572598530279831
-0.4379206175156779
-0.02783192059434009
0.5574331885033299
-0.4379206175156779
-0.02783192059434009
0.5574331885033299
-0.4379206175156779
-0.02783192059434009
0.5574331885033299
-0.4379206175156779
-0.02783192059434009
0.5574331885033299
-0.43762639724852886
-0.028082426176693362
0.5578456254434688
-0.43762639724852886
-0.028082426176693362
0.5578456254434688
-0.43762639724852886
-0.028082426176693362
0.5578456254434688
-0.43762639724852886
-0.028082426176693362
0.5578456254434688
-0.43777373078614773
-0.02848260070928671
0.5582115620983227
-0.43777373078614773
-0.02848260070928671
0.5582115620983227
-0.43777373078614773
-0.02848260070928671
0.5582115620983227
-0.43777373078614773
-0.02848260070928671
0.5582115620983227
-0.43843492110458376
-0.028968252834360424
0.5581230595430806
-0.43843492110458376
-0.028968252834360424
0.5581230595430806
-0.43843492110458376
-0.028968252834360424
0.5581230595430806
-0.43843492110458376
-0.028968252834360424
0.5581230595430806
-0.43832045121433616
-0.02900143939919257
0.5581287125429669
-0.43832045121433616
-0.02900143939919257
0.5581287125429669
-0.43832045121433616
-0.02900143939919257
0.5581287125429669
-0.43832045121433616
-0.02900143939919257
0.5581287125429669
-0.43760553216784387
-0.028751898202392524
0.5583892710477028
-0.43760553216784387
-0.028751898202392524
0.5583892710477028
-0.43760553216784387
-0.028751898202392524
0.5583892710477028
-0.43760553216784387
-0.028751898202392524
0.5583892710477028
-0.43757231971843613
-0.028637471474043785
0.5583633227356742
-0.43757231971843613
-0.028637471474043785
0.5583633227356742
-0.43757231971843613
-0.028637471474043785
0.5583633227356742
-0.43757231971843613
-0.028637471474043785
0.5583633227356742
-0.4374342118646134
-0.02881162107548472
0.5577301897304383
-0.4374342118646134
-0.02881162107548472
0.5577301897304383
-0.4374342118646134
-0.02881162107548472
0.5577301897304383
-0.4374342118646134
-0.02881162107548472
0.5577301897304383
-0.4371961943862292
-0.028961341800728905
0.5573648191893344
-0.4371961943862292
-0.028961341800728905
0.5573648191893344
-0.4371961943862292
-0.028961341800728905
0.5573648191893344
-0.4371961943862292
-0.028961341800728905
0.5573648191893344
-0.43618232180066013
-0.028977348016193703
0.5574392812060818
-0.43618232180066013
-0.028977348016193703
0.5574392812060818
-0.43618232180066013
-0.028977348016193703
0.5574392812060818
-0.43618232180066013
-0.028977348016193703
0.5574392812060818
-0.4355007364300059
-0.028842303272211805
0.5577259708389358
-0.4355007364300059
-0.028842303272211805
0.5577259708389358
-0.4355007364300059
-0.028842303272211805
0.5577259708389358
-0.4355007364300059
-0.028842303272211805
0.5577259708389358
-0.43540449454634167
-0.028390034651186717
0.5581397212113656
-0.43540449454634167
-0.028390034651186717
0.5581397212113656
-0.43540449454634167
-0.028390034651186717
0.5581397212113656
-0.43540449454634167
-0.028390034651186717
0.5581397212113656
-0.43509739158377186
-0.02719947746163542
0.5586277682050931
-0.43509739158377186
-0.02719947746163542
0.5586277682050931
-0.43509739158377186
-0.02719947746163542
0.5586277682050931
-0.43509739158377186
-0.02719947746163542
0.5586277682050931
-0.4341282779765062
-0.025523970040550813
0.5592065021846011
-0.4341282779765062
-0.025523970040550813
0.5592065021846011
-0.4341282779765062
-0.025523970040550813
0.5592065021846011
-0.4341282779765062
-0.025523970040550813
0.5592065021846011
-0.4337967364034234
-0.022209841476623655
0.5605322248651811
-0.4337967364034234
-0.022209841476623655
0.5605322248651811
-0.4337967364034234
-0.022209841476623655
0.5605322248651811
-0.4337967364034234
-0.022209841476623655
0.5605322248651811
-0.43551580147945074
-0.016498749868099568
0.5623623097517901
-0.43551580147945074
-0.016498749868099568
0.5623623097517901
-0.43551580147945074
-0.016498749868099568
0.5623623097517901
-0.43551580147945074
-0.016498749868099568
0.5623623097517901
-0.4347516704159732
-0.00564065298844687
0.5630136715645342
-0.4347516704159732
-0.00564065298844687
0.5630136715645342
-0.4347516704159732
-0.00564065298844687
0.5630136715645342
-0.4347516704159732
-0.00564065298844687
0.5630136715645342
-0.43615901830853565
0.008796567335664961
0.5628932929650812
-0.43615901830853565
0.008796567335664961
0.5628932929650812
-0.43615901830853565
0.008796567335664961
0.5628932929650812
-0.43615901830853565
0.008796567335664961
0.5628932929650812
-0.43408565497066387
0.022518831560285498
0.5635673009958105
-0.43408565497066387
0.022518831560285498
0.5635673009958105
-0.43408565497066387
0.022518831560285498
0.5635673009958105
-0.43408565497066387
0.022518831560285498
0.5635673009958105
-0.42608433979630506
0.03305072387823523
0.5629859594165351
-0.42608433979630506
0.03305072387823523
0.5629859594165351
-0.42608433979630506
0.03305072387823523
0.5629859594165351
-0.42608433979630506
0.03305072387823523
0.5629859594165351
-0.4241816404176561
0.03996177296832219
0.5585775597612674
-0.4241816404176561
0.03996177296832219
0.5585775597612674
-0.4241816404176561
0.03996177296832219
0.5585775597612674
-0.4241816404176561
0.03996177296832219
0.5585775597612674
-0.4270034110323746
0.03820805379767584
0.5516779831157399
-0.4270034110323746
0.03820805379767584
0.5516779831157399
-0.4270034110323746
0.03820805379767584
0.5516779831157399
-0.4270034110323746
0.03820805379767584
0.5516779831157399
-0.4285320088871658
0.031319111490006525
0.5513967851415649
-0.4285320088871658
0.031319111490006525
0.5513967851415649
-0.4285320088871658
0.031319111490006525
0.5513967851415649
-0.4285320088871658
0.031319111490006525
0.5513967851415649
-0.42319999773831907
0.02983011228173572
0.5539127235514786
-0.42319999773831907
0.02983011228173572
0.5539127235514786
-0.42319999773831907
0.02983011228173572
0.5539127235514786
-0.42319999773831907
0.02983011228173572
0.5539127235514786
-0.4149209179141648
0.030835400535293968
0.5521646933172182
-0.4149209179141648
0.030835400535293968
0.5521646933172182
-0.4149209179141648
0.030835400535293968
0.5521646933172182
-0.4149209179141648
0.030835400535293968
0.5521646933172182
-0.4077653567282463
0.029656440369576008
0.550141911486462
-0.4077653567282463
0.029656440369576008
0.550141911486462
-0.4077653567282463
0.029656440369576008
0.550141911486462
-0.4077653567282463
0.029656440369576008
0.550141911486462
-0.4047452295871892
0.02945406076047305
0.5477309333211563
-0.4047452295871892
0.02945406076047305
0.5477309333211563
-0.4047452295871892
0.02945406076047305
0.5477309333211563
-0.4047452295871892
0.02945406076047305
0.5477309333211563
-0.40771519097830233
0.029985860447220253
0.5450231257239426
-0.40771519097830233
0.029985860447220253
0.5450231257239426
-0.40771519097830233
0.029985860447220253
0.5450231257239426
-0.40771519097830233
0.029985860447220253
0.5450231257239426
-0.4117686543494962
0.029686223504048953
0.5437179601465627
-0.4117686543494962
0.029686223504048953
0.5437179601465627
-0.4117686543494962
0.029686223504048953
0.5437179601465627
-0.4117686543494962
0.029686223504048953
0.5437179601465627
-0.41136088901660367
0.029642360594121054
0.5434256703470096
-0.41136088901660367
0.029642360594121054
0.5434256703470096
-0.41136088901660367
0.029642360594121054
0.5434256703470096
-0.41136088901660367
0.029642360594121054
0.5434256703470096
-0.4086778097234236
0.0296208142974897
0.5438501165416876
-0.4086778097234236
0.0296208142974897
0.5438501165416876
-0.4086778097234236
0.0296208142974897
0.5438501165416876
-0.4086778097234236
0.0296208142974897
0.5438501165416876
-0.4075935812677607
0.029318373516582383
0.5438616797500694
-0.4075935812677607
0.029318373516582383
0.5438616797500694
-0.4075935812677607
0.029318373516582383
0.5438616797500694
-0.4075935812677607
0.029318373516582383
0.5438616797500694
-0.40929438437544824
0.028747511548792116
0.5437818960675596
-0.40929438437544824
0.028747511548792116
0.5437818960675596
-0.40929438437544824
0.028747511548792116
0.5437818960675596
-0.40929438437544824
0.028747511548792116
0.5437818960675596
-0.4101710821991204
0.028312801272381793
0.543019103060343
-0.4101710821991204
0.028312801272381793
0.543019103060343
-0.4101710821991204
0.028312801272381793
0.543019103060343
-0.4101710821991204
0.028312801272381793
0.543019103060343
-0.4099528456606789
0.027989698512955276
0.5417878729190908
-0.4099528456606789
0.027989698512955276
0.5417878729190908
-0.4099528456606789
0.027989698512955276
0.5417878729190908
-0.4099528456606789
0.027989698512955276
0.5417878729190908
-0.41083279090440994
0.0279782405283458
0.5411771239924079
-0.41083279090440994
0.0279782405283458
0.5411771239924079
-0.41083279090440994
0.0279782405283458
0.5411771239924079
-0.41083279090440994
0.0279782405283458
0.5411771239924079
-0.41306821602575283
0.02788097144817562
0.5414197257959205
-0.41306821602575283
0.02788097144817562
0.5414197257959205
-0.41306821602575283
0.02788097144817562
0.5414197257959205
-0.41306821602575283
0.02788097144817562
0.5414197257959205
-0.41451689787211576
0.02784033859151832
0.5417485332238947
-0.41451689787211576
0.02784033859151832
0.5417485332238947
-0.41451689787211576
0.02784033859151832
0.5417485332238947
-0.41451689787211576
0.02784033859151832
0.5417485332238947
-0.41383831336854104
0.027872247636870552
0.5415641518150546
-0.41383831336854104
0.027872247636870552
0.5415641518150546
-0.41383831336854104
0.027872247636870552
0.5415641518150546
-0.41383831336854104
0.027872247636870552
0.5415641518150546
-0.4135553287380328
0.02785689045916361
0.5406634108827368
-0.4135553287380328
0.02785689045916361
0.5406634108827368
-0.4135553287380328
0.02785689045916361
0.5406634108827368
-0.4135553287380328
0.02785689045916361
0.5406634108827368
-0.4150217622185508
0.0276885271411457
0.5403844868332204
-0.4150217622185508
0.0276885271411457
0.5403844868332204
-0.4150217622185508
0.0276885271411457
0.5403844868332204
-0.4150217622185508
0.0276885271411457
0.5403844868332204
-0.4166581864024837
0.027344800918358985
0.540260504713201
-0.4166581864024837
0.027344800918358985
0.540260504713201
-0.4166581864024837
0.027344800918358985
0.540260504713201
-0.4166581864024837
0.027344800918358985
0.540260504713201
-0.4174009931370287
0.027002224108499354
0.5401157748798043
-0.4174009931370287
0.027002224108499354
0.5401157748798043
-0.4174009931370287
0.027002224108499354
0.5401157748798043
-0.4174009931370287
0.027002224108499354
0.5401157748798043
-0.41790432975674086
0.026520990941331125
0.5402107353448491
-0.41790432975674086
0.026520990941331125
0.5402107353448491
-0.41790432975674086
0.026520990941331125
0.5402107353448491
-0.41790432975674086
0.026520990941331125
0.5402107353448491
-0.4184714960384024
0.025908948973464154
0.5402463194738105
-0.4184714960384024
0.025908948973464154
0.5402463194738105
-0.4184714960384024
0.025908948973464154
0.5402463194738105
-0.4184714960384024
0.025908948973464154
0.5402463194738105
-0.41903869845321606
0.025296902206175653
0.5402822517590992
-0.41903869845321606
0.025296902206175653
0.5402822517590992
-0.41903869845321606
0.025296902206175653
0.5402822517590992
-0.41903869845321606
0.025296902206175653
0.5402822517590992
-0.41979649347834447
0.0248872142905804
0.5403931559712386
-0.41979649347834447
0.0248872142905804
0.5403931559712386
-0.41979649347834447
0.0248872142905804
0.5403931559712386
-0.41979649347834447
0.0248872142905804
0.5403931559712386
-0.4206863124387895
0.024380132120694613
0.5398888199160874
-0.4206863124387895
0.024380132120694613
0.5398888199160874
-0.4206863124387895
0.024380132120694613
0.5398888199160874
-0.4206863124387895
0.024380132120694613
0.5398888199160874
-0.4210279656614138
0.023968661888488233
0.5393376956474657
-0.4210279656614138
0.023968661888488233
0.5393376956474657
-0.4210279656614138
0.023968661888488233
0.5393376956474657
-0.4210279656614138
0.023968661888488233
0.5393376956474657
-0.42105537397552323
0.023347437842447912
0.5388353871852672
-0.42105537397552323
0.023347437842447912
0.5388353871852672
-0.42105537397552323
0.023347437842447912
0.5388353871852672
-0.42105537397552323
0.023347437842447912
0.5388353871852672
-0.4210347970611377
0.02288976679484192
0.5385391910450129
-0.4210347970611377
0.02288976679484192
0.5385391910450129
-0.4210347970611377
0.02288976679484192
0.5385391910450129
-0.4210347970611377
0.02288976679484192
0.5385391910450129
-0.42192362740849393
0.022543437666426552
0.5387900016490378
-0.42192362740849393
0.022543437666426552
0.5387900016490378
-0.42192362740849393
0.022543437666426552
0.5387900016490378
-0.42192362740849393
0.022543437666426552
0.5387900016490378
-0.42251114268126316
0.022388865162049073
0.5391238075013368
-0.42251114268126316
0.022388865162049073
0.5391238075013368
-0.42251114268126316
0.022388865162049073
0.5391238075013368
-0.42251114268126316
0.022388865162049073
0.5391238075013368
-0.4217563166233194
0.022250199130624662
0.5388547524002372
-0.4217563166233194
0.022250199130624662
0.5388547524002372
-0.4217563166233194
0.022250199130624662
0.5388547524002372
-0.4217563166233194
0.022250199130624662
0.5388547524002372
-0.42142605142428935
0.0219274037409757
0.5383796025087856
-0.42142605142428935
0.0219274037409757
0.5383796025087856
-0.42142605142428935
0.0219274037409757
0.5383796025087856
-0.42142605142428935
0.0219274037409757
0.5383796025087856
-0.42198474746014086
0.021339097777922738
0.5385326981748305
-0.42198474746014086
0.021339097777922738
0.5385326981748305
-0.42198474746014086
0.021339097777922738
0.5385326981748305
-0.42198474746014086
0.021339097777922738
0.5385326981748305
-0.42259565998329535
0.02101260432314522
0.5386294089336638
-0.42259565998329535
0.02101260432314522
0.5386294089336638
-0.42259565998329535
0.02101260432314522
0.5386294089336638
-0.42259565998329535
0.02101260432314522
0.5386294089336638
-0.4226271635788805
0.02089748896424042
0.5386537593891956
-0.4226271635788805
0.02089748896424042
0.5386537593891956
-0.4226271635788805
0.02089748896424042
0.5386537593891956
-0.4226271635788805
0.02089748896424042
0.5386537593891956
-0.42282166908070645
0.020731133082580577
0.5388411126318646
-0.42282166908070645
0.020731133082580577
0.5388411126318646
-0.42282166908070645
0.020731133082580577
0.5388411126318646
-0.42282166908070645
0.020731133082580577
0.5388411126318646
-0.4233326526090806
0.020225760816271966
0.5388238992100894
-0.4233326526090806
0.020225760816271966
0.5388238992100894
-0.4233326526090806
0.020225760816271966
0.5388238992100894
-0.4233326526090806
0.020225760816271966
0.5388238992100894
-0.4237054316067572
0.01986081314807294
0.5390522387804462
-0.4237054316067572
0.01986081314807294
0.5390522387804462
-0.4237054316067572
0.01986081314807294
0.5390522387804462
-0.4237054316067572
0.01986081314807294
0.5390522387804462
-0.4237054316067572
0.01986081314807294
0.5390522387804462
-0.4237054316067572
0.01986081314807294
0.5390522387804462
-0.4237054316067572
0.01986081314807294
0.5390522387804462
-0.4237054316067572
0.01986081314807294
0.5390522387804462
-0.4236093208849341
0.01931294864314499
0.5390507685048761
-0.4236093208849341
0.01931294864314499
0.5390507685048761
-0.4236093208849341
0.01931294864314499
0.5390507685048761
-0.4236093208849341
0.01931294864314499
0.5390507685048761
-0.42382942778058036
0.018426063847808646
0.5388450085250089
-0.42382942778058036
0.018426063847808646
0.5388450085250089
-0.42382942778058036
0.018426063847808646
0.5388450085250089
-0.42382942778058036
0.018426063847808646
0.5388450085250089
-0.4242734000701126
0.01780651916232435
0.539007651240392
-0.4242734000701126
0.01780651916232435
0.539007651240392
-0.4242734000701126
0.01780651916232435
0.539007651240392
-0.4242734000701126
0.01780651916232435
0.539007651240392
-0.4243082821135864
0.017224067785840874
0.5392530917677618
-0.4243082821135864
0.017224067785840874
0.5392530917677618
-0.4243082821135864
0.017224067785840874
0.5392530917677618
-0.4243082821135864
0.017224067785840874
0.5392530917677618
-0.4239337773132554
0.01669574768273319
0.5390960969977551
-0.4239337773132554
0.01669574768273319
0.5390960969977551
-0.4239337773132554
0.01669574768273319
0.5390960969977551
-0.4239337773132554
0.01669574768273319
0.5390960969977551
-0.4239337773132554
0.01669574768273319
0.5390960969977551
-0.4239337773132554
0.01669574768273319
0.5390960969977551
-0.4239337773132554
0.01669574768273319
0.5390960969977551
-0.4239337773132554
0.01669574768273319
0.5390960969977551
-0.4239337773132554
0.01669574768273319
0.5390960969977551
-0.4239337773132554
0.01669574768273319
0.5390960969977551
-0.4239337773132554
0.01669574768273319
0.5390960969977551
-0.4239337773132554
0.01669574768273319
0.5390960969977551
-0.423779300345706
0.01680373697545887
0.5391945104862781
-0.423779300345706
0.01680373697545887
0.5391945104862781
-0.423779300345706
0.01680373697545887
0.5391945104862781
-0.423779300345706
0.01680373697545887
0.5391945104862781
-0.423779300345706
0.01680373697545887
0.5391945104862781
-0.423779300345706
0.01680373697545887
0.5391945104862781
-0.423779300345706
0.01680373697545887
0.5391945104862781
-0.423779300345706
0.01680373697545887
0.5391945104862781
-0.423779300345706
0.01680373697545887
0.5391945104862781
-0.423779300345706
0.01680373697545887
0.5391945104862781
-0.423779300345706
0.01680373697545887
0.5391945104862781
-0.423779300345706
0.01680373697545887
0.5391945104862781
-0.42363972895527857
0.016764360770602935
0.5391707332773751
-0.42363972895527857
0.016764360770602935
0.5391707332773751
-0.42363972895527857
0.016764360770602935
0.5391707332773751
-0.42363972895527857
0.016764360770602935
0.5391707332773751
-0.42352463381394684
0.01673278577071688
0.5391785312696789
-0.42352463381394684
0.01673278577071688
0.5391785312696789
-0.42352463381394684
0.01673278577071688
0.5391785312696789
-0.42352463381394684
0.01673278577071688
0.5391785312696789
-0.42256080794359346
0.01615905612412789
0.5401519437693053
-0.42256080794359346
0.01615905612412789
0.5401519437693053
-0.42256080794359346
0.01615905612412789
0.5401519437693053
-0.42256080794359346
0.01615905612412789
0.5401519437693053
-0.4224964849605492
0.014402523963221198
0.5417121134019562
-0.4224964849605492
0.014402523963221198
0.5417121134019562
-0.4224964849605492
0.014402523963221198
0.5417121134019562
-0.4224964849605492
0.014402523963221198
0.5417121134019562
-0.42491207138114906
0.0104383880900763
0.5424093057218191
-0.42491207138114906
0.0104383880900763
0.5424093057218191
-0.42491207138114906
0.0104383880900763
0.5424093057218191
-0.42491207138114906
0.0104383880900763
0.5424093057218191
-0.4257659069467987
0.006030627317656642
0.5425154340135678
-0.4257659069467987
0.006030627317656642
0.5425154340135678
-0.4257659069467987
0.006030627317656642
0.5425154340135678
-0.4257659069467987
0.006030627317656642
0.5425154340135678
-0.42634713706686606
0.0013629781597922655
0.5435575171862699
-0.42634713706686606
0.0013629781597922655
0.5435575171862699
-0.42634713706686606
0.0013629781597922655
0.5435575171862699
-0.42634713706686606
0.0013629781597922655
0.5435575171862699
-0.430184104510945
-0.0042649708090087245
0.544383890708682
-0.430184104510945
-0.0042649708090087245
0.544383890708682
-0.430184104510945
-0.0042649708090087245
0.544383890708682
-0.430184104510945
-0.0042649708090087245
0.544383890708682
-0.4347465324448148
-0.009243852813609569
0.5436676803112447
-0.4347465324448148
-0.009243852813609569
0.5436676803112447
-0.4347465324448148
-0.009243852813609569
0.5436676803112447
-0.4347465324448148
-0.009243852813609569
0.5436676803112447
-0.4349191215087207
-0.012740266862300356
0.5429286694627106
-0.4349191215087207
-0.012740266862300356
0.5429286694627106
-0.4349191215087207
-0.012740266862300356
0.5429286694627106
-0.4349191215087207
-0.012740266862300356
0.5429286694627106
-0.43281184043073945
-0.01466251747543079
0.5403537057511173
-0.43281184043073945
-0.01466251747543079
0.5403537057511173
-0.43281184043073945
-0.01466251747543079
0.5403537057511173
-0.43281184043073945
-0.01466251747543079
0.5403537057511173
-0.4340849528861519
-0.013698185540501817
0.5383972085858538
-0.4340849528861519
-0.013698185540501817
0.5383972085858538
-0.4340849528861519
-0.013698185540501817
0.5383972085858538
-0.4340849528861519
-0.013698185540501817
0.5383972085858538
-0.4374176506545819
-0.010511118772019669
0.5375163573012256
-0.4374176506545819
-0.010511118772019669
0.5375163573012256
-0.4374176506545819
-0.010511118772019669
0.5375163573012256
-0.4374176506545819
-0.010511118772019669
0.5375163573012256
-0.4368364673488934
-0.005713084429779334
0.5370510922044474
-0.4368364673488934
-0.005713084429779334
0.5370510922044474
-0.4368364673488934
-0.005713084429779334
0.5370510922044474
-0.4368364673488934
-0.005713084429779334
0.5370510922044474
-0.43783427771751865
-2.065325854550561E-4
0.5378363988539523
-0.43783427771751865
-2.065325854550561E-4
0.5378363988539523
-0.43783427771751865
-2.065325854550561E-4
0.5378363988539523
-0.43783427771751865
-2.065325854550561E-4
0.5378363988539523
-0.44243473843038966
0.0027819672066194206
0.539165020915673
-0.44243473843038966
0.0027819672066194206
0.539165020915673
-0.44243473843038966
0.0027819672066194206
0.539165020915673
-0.44243473843038966
0.0027819672066194206
0.539165020915673
-0.4441963903952924
0.003261354269468041
0.5408222851541801
-0.4441963903952924
0.003261354269468041
0.5408222851541801
-0.4441963903952924
0.003261354269468041
0.5408222851541801
-0.4441963903952924
0.003261354269468041
0.5408222851541801
-0.4406057941993724
0.0033255088215908774
0.5415239746816822
-0.4406057941993724
0.0033255088215908774
0.5415239746816822
-0.4406057941993724
0.0033255088215908774
0.5415239746816822
-0.4406057941993724
0.0033255088215908774
0.5415239746816822
-0.43759266082440995
0.003437302634618805
0.5416983626120365
-0.43759266082440995
0.003437302634618805
0.5416983626120365
-0.43759266082440995
0.003437302634618805
0.5416983626120365
-0.43759266082440995
0.003437302634618805
0.5416983626120365
-0.43722913542127767
0.004394716664667644
0.5423631097810728
-0.43722913542127767
0.004394716664667644
0.5423631097810728
-0.43722913542127767
0.004394716664667644
0.5423631097810728
-0.43722913542127767
0.004394716664667644
0.5423631097810728
-0.43802062466230196
0.0046988150323391195
0.5439070004559259
-0.43802062466230196
0.0046988150323391195
0.5439070004559259
-0.43802062466230196
0.0046988150323391195
0.5439070004559259
-0.43802062466230196
0.0046988150323391195
0.5439070004559259
-0.43889172152919187
0.00319725828460369
0.5448225500291548
-0.43889172152919187
0.00319725828460369
0.5448225500291548
-0.43889172152919187
0.00319725828460369
0.5448225500291548
-0.43889172152919187
0.00319725828460369
0.5448225500291548
-0.43934744471460263
0.0015651902219845767
0.545065741947163
-0.43934744471460263
0.0015651902219845767
0.545065741947163
-0.43934744471460263
0.0015651902219845767
0.545065741947163
-0.43934744471460263
0.0015651902219845767
0.545065741947163
-0.43843182813053866
8.562173331907117E-4
0.5459470706356834
-0.43843182813053866
8.562173331907117E-4
0.5459470706356834
-0.43843182813053866
8.562173331907117E-4
0.5459470706356834
-0.43843182813053866
8.562173331907117E-4
0.5459470706356834
-0.4381159892815693
3.144594587686709E-4
0.5468240668873291
-0.4381159892815693
3.144594587686709E-4
0.5468240668873291
-0.4381159892815693
3.144594587686709E-4
0.5468240668873291
-0.4381159892815693
3.144594587686709E-4
0.5468240668873291
-0.4391239565821592
-7.772768948176849E-4
0.5476505373582585
-0.4391239565821592
-7.772768948176849E-4
0.5476505373582585
-0.4391239565821592
-7.772768948176849E-4
0.5476505373582585
-0.4391239565821592
-7.772768948176849E-4
0.5476505373582585
-0.439403257143333
-0.002211376659819796
0.5478504822311295
-0.439403257143333
-0.002211376659819796
0.5478504822311295
-0.439403257143333
-0.002211376659819796
0.5478504822311295
-0.439403257143333
-0.002211376659819796
0.5478504822311295
-0.43845900707269314
-0.003453330051443674
0.5475768715740827
-0.43845900707269314
-0.003453330051443674
0.5475768715740827
-0.43845900707269314
-0.003453330051443674
0.5475768715740827
-0.43845900707269314
-0.003453330051443674
0.5475768715740827
-0.437066280186986
-0.0045182858986191395
0.5474687643915206
-0.437066280186986
-0.0045182858986191395
0.5474687643915206
-0.437066280186986
-0.0045182858986191395
0.5474687643915206
-0.437066280186986
-0.0045182858986191395
0.5474687643915206
-0.4372139362222827
-0.005040696721573476
0.5478259754562379
-0.4372139362222827
-0.005040696721573476
0.5478259754562379
-0.4372139362222827
-0.005040696721573476
0.5478259754562379
-0.4372139362222827
-0.005040696721573476
0.5478259754562379
-0.43817672725151363
-0.005086798332438005
0.5481809004370833
-0.43817672725151363
-0.005086798332438005
0.5481809004370833
-0.43817672725151363
-0.005086798332438005
0.5481809004370833
-0.43817672725151363
-0.005086798332438005
0.5481809004370833
-0.43845218359460797
-0.005188125893844628
0.5479633855221987
-0.43845218359460797
-0.005188125893844628
0.5479633855221987
