4
12
3
1
1
12
15
0
3
8
4
4
7
14
12
0
2
7
5
3
6
13
10
1
2
6
17
3
5
12
12
3
2
6
17
3
5
10
12
3
2
7
16
2
5
12
11
4
2
8
15
2
5
11
11
4
2
7
14
3
4
11
10
4
2
7
13
3
5
11
10
4
2
7
12
2
4
10
11
4
2
7
12
2
4
10
10
4
2
7
12
2
4
9
10
4
2
7
11
2
4
9
9
3
2
8
11
3
4
9
9
3
1
9
11
3
4
10
9
4
1
8
10
3
4
10
11
5
2
8
10
3
4
9
11
5
2
8
10
3
4
9
10
5
1
8
10
3
4
9
10
4
1
8
10
3
4
9
10
5
2
8
10
3
4
9
10
5
2
8
10
3
4
9
10
4
2
8
10
3
4
9
10
4
1
7
10
3
4
9
9
4
1
7
10
3
4
9
9
4
1
8
10
3
4
9
9
4
1
8
10
3
4
9
9
4
2
8
15
3
4
9
9
4
2
7
15
3
4
10
9
4
2
7
14
3
4
10
9
4
2
7
14
3
4
10
9
4
2
8
15
3
4
9
9
4
2
7
17
3
4
9
9
4
2
7
17
3
4
9
9
4
2
7
17
3
4
9
9
4
2
7
16
3
4
9
9
4
2
7
16
3
4
9
8
4
2
7
16
3
4
9
8
4
2
8
16
3
4
9
8
4
2
8
16
3
4
9
8
4
2
8
16
3
4
9
8
4
2
8
15
3
4
9
8
4
2
8
15
3
4
9
8
4
2
8
15
3
4
9
8
4
2
8
15
3
4
9
8
4
2
10
15
3
4
9
8
4
2
11
15
3
4
9
8
4
2
11
15
3
4
9
7
4
2
11
15
3
4
9
7
4
2
11
15
3
3
9
7
4
2
11
15
3
3
8
7
4
2
11
15
3
3
8
7
4
2
11
15
3
3
8
7
4
2
11
15
3
3
8
7
3
2
11
15
3
3
8
6
3
2
11
14
3
3
7
6
3
2
11
15
3
3
7
6
3
2
11
15
3
3
7
6
3
2
11
15
3
3
7
6
3
2
12
15
3
3
7
6
3
2
12
15
4
3
7
6
3
2
12
15
4
3
7
6
3
2
12
15
4
3
8
6
3
2
12
16
4
3
8
5
3
2
12
16
4
3
8
5
3
2
12
16
4
3
7
4
2
2
12
16
4
3
7
4
2
2
12
16
4
3
7
4
2
2
13
17
4
3
7
4
2
2
13
17
4
3
7
4
2
2
13
17
4
3
7
3
2
3
16
19
5
4
7
3
2
3
16
20
5
3
7
3
2
3
16
20
5
3
7
3
2
3
17
23
5
3
7
3
2
3
17
23
7
4
7
3
2
3
18
24
8
4
8
3
2
3
18
23
7
4
7
3
2
4
18
23
8
4
7
3
3
4
18
23
8
4
7
3
2
4
19
25
9
4
7
2
2
5
19
26
9
4
8
3
2
5
19
26
9
4
8
3
2
5
20
26
9
5
9
3
2
5
20
27
9
5
10
3
2
5
20
27
9
5
11
3
3
5
21
27
9
5
11
3
3
5
21
28
9
5
12
3
3
6
21
28
10
5
12
3
3
6
21
28
10
5
13
3
3
6
21
28
10
5
13
3
3
6
21
31
10
6
12
3
3
7
22
32
10
7
13
4
3
8
22
33
10
7
13
4
3
10
23
36
11
7
14
4
3
11
23
36
11
7
14
4
3
11
24
37
12
8
15
5
4
11
24
37
13
8
15
5
4
11
24
37
13
9
16
5
4
11
25
37
13
9
16
5
4
12
30
37
14
9
16
5
4
12
31
37
15
9
16
5
4
13
33
39
15
9
16
6
5
14
35
41
16
10
16
6
5
15
36
43
16
10
16
6
5
15
40
46
16
10
17
6
5
16
40
46
16
11
18
6
5
17
42
49
17
12
19
7
6
17
42
50
17
12
19
7
6
17
42
53
17
12
19
7
6
19
43
54
19
12
19
7
6
25
47
54
23
14
19
8
7
26
49
56
27
14
19
9
7
26
49
57
27
15
20
9
7
26
50
57
27
16
22
10
8
26
51
57
27
16
22
10
8
26
51
59
28
16
23
10
8
27
51
59
28
16
23
11
9
27
51
58
28
16
24
12
9
28
52
61
29
16
24
13
10
28
53
62
29
16
25
13
10
28
54
61
30
17
25
13
10
29
54
61
33
17
26
14
10
29
56
61
34
18
26
14
10
31
56
60
34
19
26
14
10
33
56
61
33
19
27
14
11
33
58
62
34
19
27
14
11
35
58
63
36
20
29
15
11
35
58
63
36
20
31
15
11
35
61
65
38
20
33
15
11
35
62
66
40
20
33
15
11
36
64
67
41
20
33
15
11
36
64
67
41
20
33
15
11
36
64
67
41
20
33
15
11
36
65
69
43
21
33
15
12
36
67
70
45
21
33
15
12
38
69
70
46
22
34
16
12
40
71
71
47
22
34
17
13
40
71
71
48
22
34
17
13
41
71
71
48
22
34
17
13
43
73
72
50
22
35
17
14
44
73
71
50
22
35
17
14
45
74
72
50
22
35
17
14
45
74
72
50
22
35
18
15
45
74
71
51
22
35
18
15
45
74
71
51
22
35
17
15
45
75
71
53
22
35
17
15
46
76
72
53
22
34
18
15
46
78
73
54
22
34
18
16
46
78
73
54
22
35
18
16
46
76
74
54
22
35
18
16
47
76
74
55
23
36
18
16
47
75
73
55
23
37
18
15
47
75
73
55
23
37
18
16
47
75
72
55
23
37
18
16
47
73
70
55
23
37
19
16
47
74
70
56
23
37
19
16
46
73
69
57
23
37
18
15
47
74
69
57
23
38
19
15
47
74
67
57
23
38
22
15
46
73
67
57
23
38
22
15
43
72
67
56
22
38
22
15
43
71
68
55
22
37
21
15
43
72
67
55
22
37
22
15
43
71
68
56
21
36
21
15
43
71
69
56
21
36
22
15
43
71
69
56
21
35
22
15
44
72
69
56
21
36
21
15
46
73
69
56
21
36
20
15
46
73
67
56
22
37
21
14
46
72
67
56
22
36
21
15
47
73
68
56
22
36
21
15
47
73
68
54
22
36
21
15
47
73
68
54
22
38
21
15
46
73
69
55
22
38
21
15
45
74
69
55
21
38
21
15
44
72
68
55
21
38
23
15
43
74
67
54
21
37
23
15
44
75
68
54
22
34
23
15
44
74
66
54
22
33
24
15
44
74
65
53
22
33
24
15
44
72
64
53
22
32
24
15
44
72
66
55
22
33
25
15
44
72
67
55
22
33
25
15
45
71
66
53
22
33
25
15
45
70
65
52
22
33
25
15
43
68
66
51
21
32
24
15
41
66
67
51
21
32
24
14
43
68
68
50
22
32
24
14
44
68
67
51
22
32
24
14
42
67
66
50
21
31
25
14
41
67
66
52
21
31
25
13
40
67
66
53
21
32
25
13
40
66
65
54
21
32
25
13
40
66
64
53
21
31
25
13
39
66
66
53
21
31
25
13
39
64
68
52
21
32
25
12
39
63
70
52
21
32
25
12
39
61
68
53
21
32
25
12
39
62
68
53
21
33
27
12
39
63
68
53
21
33
27
12
37
64
67
52
20
31
27
12
37
64
68
52
20
30
27
12
37
63
70
52
21
32
28
12
37
65
70
52
22
33
28
12
38
64
70
52
21
34
28
12
38
63
70
51
21
34
29
12
39
63
69
50
22
34
29
13
39
63
69
50
21
33
28
13
39
64
70
50
22
33
26
13
39
64
71
50
22
33
27
14
42
66
70
50
25
34
27
15
42
67
68
49
25
34
28
15
42
66
70
50
26
34
28
15
42
68
71
50
26
34
28
15
43
69
71
50
26
33
28
14
44
71
71
51
26
33
28
14
43
71
72
52
26
33
28
14
41
70
72
51
26
33
28
14
41
70
73
51
25
31
27
14
41
70
75
51
26
32
27
13
39
69
74
52
25
31
27
13
39
69
73
51
24
31
27
13
39
69
75
52
24
29
27
13
39
69
74
52
24
29
28
13
39
68
75
53
24
30
30
13
39
69
75
52
24
30
29
13
39
67
76
52
23
30
29
13
38
67
76
51
23
30
30
13
40
68
77
51
23
30
32
15
41
68
76
50
23
30
31
15
42
68
76
50
23
30
31
15
42
68
75
48
23
30
31
15
43
69
74
47
23
29
31
15
42
69
72
47
23
29
31
15
42
70
73
47
23
29
31
15
42
70
74
48
23
29
31
15
43
70
72
48
23
28
32
15
41
67
71
48
23
28
32
15
40
69
72
46
23
28
32
15
40
70
73
48
23
28
32
15
40
70
73
46
23
28
32
15
40
72
73
44
23
28
32
15
40
72
73
45
22
28
32
15
40
73
74
45
23
28
32
15
40
73
72
44
23
28
32
15
40
75
71
44
23
28
32
15
39
75
70
43
23
28
32
15
41
77
72
42
23
28
33
15
41
78
73
43
24
26
31
15
41
77
73
42
24
26
31
15
41
77
74
43
24
26
32
15
41
77
74
43
24
26
32
15
41
77
72
43
23
24
31
15
41
77
72
43
22
22
31
15
41
79
74
43
22
21
32
15
40
79
74
43
22
21
32
15
40
80
74
45
22
21
32
15
40
79
74
44
22
21
32
15
39
79
72
45
22
21
32
16
42
80
72
44
22
20
32
16
39
78
72
44
18
20
32
15
40
77
73
44
19
20
33
15
40
77
71
43
18
20
33
16
39
75
69
41
18
20
33
15
38
75
69
41
18
21
34
15
38
74
69
40
18
22
34
15
39
73
69
40
18
22
34
16
39
72
69
41
18
22
34
16
39
72
68
41
18
22
34
16
39
73
66
40
18
22
34
16
39
72
67
40
19
22
35
16
40
72
67
41
19
22
36
16
40
71
65
40
19
22
36
16
41
73
65
40
19
21
34
16
41
74
64
39
19
20
33
16
42
73
63
39
20
20
32
16
41
73
64
40
20
20
32
16
42
72
64
40
20
20
32
15
41
71
64
41
19
19
30
14
40
72
66
41
19
21
31
14
39
72
65
40
19
22
33
14
39
72
65
40
21
24
33
14
38
72
66
41
20
24
33
14
38
73
66
41
20
24
34
14
39
72
67
41
20
24
35
15
40
72
65
41
20
25
35
15
40
72
66
41
20
25
34
16
39
73
68
43
20
25
34
15
39
72
67
44
21
25
34
15
39
70
66
41
21
25
34
16
39
70
67
41
21
25
35
16
39
68
66
42
21
25
34
16
40
69
67
42
21
24
35
16
41
69
66
43
21
25
34
16
41
69
66
42
21
25
34
16
41
67
67
42
21
25
35
16
41
67
67
41
21
25
35
16
40
65
64
41
20
25
34
16
40
65
63
41
20
25
34
16
41
66
63
41
21
25
35
16
41
66
61
43
20
26
36
16
41
66
61
43
20
26
36
16
41
68
62
42
20
26
36
16
41
66
64
42
20
26
35
16
41
64
63
42
20
25
34
16
41
65
63
42
20
25
34
16
40
65
63
40
20
25
34
16
40
65
64
40
20
25
35
15
40
65
63
40
20
25
35
14
37
63
64
39
20
25
35
14
37
63
64
40
20
26
35
14
36
63
63
40
19
26
37
14
36
62
63
40
19
28
39
13
36
63
65
40
19
29
39
13
36
63
65
40
18
27
38
14
36
65
64
40
18
27
38
14
35
67
63
40
18
27
38
14
34
67
64
39
18
27
38
14
35
68
64
40
18
28
38
14
35
67
64
40
18
28
39
14
35
68
64
41
18
28
38
14
33
68
65
40
17
28
37
13
33
70
65
40
17
28
37
14
32
69
65
40
17
29
39
14
32
70
66
40
17
29
40
14
32
71
68
39
17
29
40
13
31
70
66
39
17
29
39
13
31
71
66
39
17
29
39
14
30
70
66
39
17
30
40
14
29
70
64
42
17
29
40
14
29
70
64
43
17
29
41
14
30
72
67
44
15
27
41
14
30
72
67
43
15
27
41
14
30
71
69
43
15
27
41
13
28
71
68
43
15
27
41
13
28
71
70
43
15
27
41
13
29
71
70
42
15
27
41
12
29
70
67
40
15
27
41
13
28
70
67
39
14
27
41
12
28
70
68
40
14
27
41
12
28
70
68
40
14
27
41
12
28
71
68
39
14
27
41
13
27
70
69
38
14
28
41
13
26
69
69
38
14
27
41
12
26
69
69
38
14
27
41
12
26
70
68
38
13
26
41
12
26
70
68
38
12
26
41
12
26
70
70
38
12
26
41
12
26
70
71
39
13
26
41
12
25
69
71
39
12
26
40
11
25
68
71
36
12
26
40
11
25
68
71
36
12
26
40
11
25
66
70
36
12
26
40
11
26
67
68
37
12
26
41
11
26
67
68
37
12
27
41
11
26
67
68
37
12
27
42
11
27
68
70
41
12
28
42
12
27
67
71
41
12
27
41
12
27
68
71
41
12
29
44
12
27
68
70
41
12
29
44
12
27
68
70
41
12
29
44
12
27
69
71
42
12
28
41
12
26
68
72
43
12
27
40
11
26
68
70
43
12
26
40
11
27
68
70
42
12
26
40
11
27
67
70
42
12
26
40
11
26
65
70
42
12
26
42
11
26
64
71
42
12
26
42
11
26
65
70
41
12
25
42
11
26
63
70
42
11
26
42
11
26
63
71
43
11
26
42
11
26
63
69
42
11
26
42
11
26
60
69
42
11
26
42
10
26
61
69
42
12
24
40
10
27
59
70
43
11
24
40
10
26
59
70
43
12
24
40
10
26
59
71
43
12
24
40
10
26
58
71
43
12
24
40
10
26
59
71
43
12
24
41
10
28
60
71
40
12
23
40
11
27
62
74
39
11
22
38
11
27
60
71
40
11
23
38
11
27
61
71
39
11
23
38
11
27
61
69
40
11
23
38
11
27
61
69
40
11
23
38
10
26
61
68
39
11
23
37
10
25
61
67
39
11
23
37
10
25
61
68
39
11
23
37
10
25
63
68
39
11
23
37
10
25
62
68
38
11
23
37
10
26
62
67
38
11
23
37
11
26
62
67
38
11
22
37
11
26
63
66
38
11
22
37
11
27
64
66
38
11
22
37
11
27
65
67
38
11
22
37
11
28
63
67
38
11
25
40
11
27
64
67
38
11
26
41
11
27
64
65
37
11
26
41
11
26
62
64
37
10
27
41
11
26
61
64
37
11
27
41
12
26
61
63
36
11
27
41
12
26
62
65
37
11
27
41
12
26
63
66
38
11
27
41
12
26
62
66
37
11
28
41
12
26
63
65
37
11
27
41
12
25
63
64
37
11
26
41
12
24
63
63
33
11
26
41
12
25
65
62
33
11
26
41
11
25
65
62
32
12
24
38
11
26
67
63
32
12
24
38
11
26
67
63
33
12
24
38
11
26
67
63
33
12
24
38
11
26
67
62
32
12
26
37
11
26
66
63
32
12
26
37
11
25
66
63
33
12
26
37
11
25
65
62
33
12
25
37
11
25
65
63
32
12
25
34
12
26
67
63
32
12
25
34
12
26
66
62
32
12
25
34
12
25
66
62
31
12
25
34
11
26
66
61
30
12
25
33
11
26
66
61
29
12
25
33
11
25
66
61
29
12
25
34
11
25
65
62
28
11
25
34
11
25
64
59
27
11
25
33
11
24
63
57
27
11
25
33
11
25
64
56
26
11
25
33
11
25
64
55
26
11
25
33
11
24
63
55
25
11
25
31
11
23
60
54
25
11
24
30
10
23
59
51
25
11
24
30
10
22
58
51
22
11
24
30
10
22
58
50
22
11
24
31
10
22
58
50
22
11
24
31
10
22
57
50
22
11
24
31
10
21
57
49
22
11
24
31
10
21
56
49
22
11
24
31
9
21
55
47
22
11
24
31
9
21
54
48
22
11
24
31
9
21
53
48
22
10
24
31
9
19
53
47
22
10
24
30
9
19
52
47
22
10
24
30
8
19
52
48
22
10
24
30
8
18
50
48
22
10
24
29
8
18
48
45
22
10
24
29
8
16
48
45
21
10
22
25
8
16
47
45
22
10
20
24
7
16
47
45
21
10
21
23
7
16
47
45
22
10
22
24
7
15
47
45
22
10
21
23
6
15
47
45
22
10
21
23
6
14
45
43
20
9
22
22
6
14
43
40
19
8
22
22
6
14
43
40
19
9
24
21
6
13
41
40
19
8
24
21
6
14
40
40
19
9
25
20
6
13
37
38
18
9
25
19
6
13
34
38
18
8
25
19
6
11
33
38
18
8
26
19
6
11
28
36
18
8
27
19
6
11
28
36
16
7
27
19
6
10
28
34
13
7
27
19
6
10
28
34
13
7
25
19
6
10
27
32
12
7
26
20
6
10
27
32
12
7
26
20
6
10
27
32
12
7
26
19
6
8
27
29
10
6
26
19
5
7
20
27
10
7
27
19
5
6
20
27
10
7
27
19
5
6
20
27
10
7
29
20
5
6
20
27
10
8
33
20
5
6
19
27
10
8
34
21
6
6
19
27
10
8
34
21
6
5
18
25
10
8
34
21
6
5
17
25
10
8
34
21
6
5
17
25
9
8
35
21
6
5
15
25
9
8
35
21
6
5
15
25
9
8
35
21
6
5
15
24
9
8
35
21
6
5
15
24
9
8
36
21
6
5
14
24
9
8
36
21
6
5
12
24
9
8
36
20
6
5
9
24
8
8
36
18
6
5
9
24
8
8
36
18
6
5
9
24
8
8
36
18
6
5
9
24
8
8
36
18
6
5
9
24
8
8
36
18
6
5
9
24
8
8
36
18
6
5
9
23
8
8
37
18
6
5
9
23
8
8
37
19
6
5
9
23
8
8
38
22
7
5
8
23
8
9
38
23
7
5
7
20
7
9
38
23
7
5
7
20
7
9
38
23
7
5
8
21
7
9
38
23
7
5
8
21
7
9
39
23
7
5
8
21
7
9
39
23
7
5
8
20
7
9
38
22
7
5
8
20
7
9
38
22
7
5
8
20
7
9
38
22
7
5
8
20
7
9
38
22
7
5
8
20
6
9
37
22
7
5
9
20
6
9
38
21
7
5
8
20
6
9
37
21
7
5
8
19
6
9
36
21
7
5
8
19
5
8
36
20
6
5
8
21
6
8
36
20
6
5
8
22
6
8
36
20
6
5
8
22
6
8
35
20
6
5
8
22
6
8
35
20
6
5
9
24
6
8
35
20
6
5
9
24
6
8
35
20
6
5
9
24
6
8
35
20
6
5
9
24
6
8
35
19
6
5
9
25
6
8
35
19
6
5
9
26
6
8
35
19
6
5
9
26
6
8
34
19
6
5
9
26
6
8
34
19
6
5
9
26
6
8
33
19
6
5
9
26
6
8
32
19
6
5
8
26
6
7
28
19
6
5
8
26
6
7
28
17
5
5
9
27
6
7
30
18
5
4
8
27
6
7
30
19
5
4
8
27
6
7
30
19
5
4
8
27
6
7
29
20
5
4
8
27
6
7
29
20
5
4
8
27
6
7
29
21
5
4
8
27
6
7
28
21
5
4
8
27
6
7
28
21
5
4
8
26
6
7
28
21
5
4
9
27
6
7
27
21
5
4
9
26
6
7
27
21
5
4
9
26
6
7
27
21
5
4
9
26
6
7
27
21
5
4
9
26
6
7
27
21
5
4
9
26
6
7
27
21
5
4
9
26
6
6
27
21
5
4
9
26
6
6
27
21
5
4
9
26
6
6
27
21
5
4
9
26
6
6
26
18
4
4
9
26
6
6
26
19
4
3
9
26
6
6
26
20
4
3
9
26
6
6
25
20
3
3
9
25
6
6
25
20
3
3
9
25
6
5
24
22
3
3
9
25
6
5
24
23
3
3
9
25
6
5
23
23
3
3
9
25
6
5
23
23
3
3
9
25
6
5
23
23
3
3
9
25
6
5
23
23
3
3
9
25
6
5
23
23
3
3
9
26
6
5
22
23
3
3
9
26
6
5
22
23
3
3
9
26
6
5
22
23
3
3
9
26
6
5
22
23
3
3
9
24
6
5
22
23
3
3
9
24
5
5
22
23
3
3
10
24
5
5
23
23
3
3
11
24
6
5
22
23
3
3
10
20
5
5
22
23
3
3
10
20
5
5
22
24
3
3
10
20
5
5
22
24
3
3
10
21
5
5
22
24
3
3
10
20
5
5
22
24
3
3
10
19
5
5
22
23
3
3
10
19
5
5
22
23
3
3
10
19
5
5
22
23
3
3
10
19
5
5
22
24
3
3
11
19
5
4
21
23
3
3
11
19
4
4
21
24
3
3
11
20
5
4
19
24
3
3
11
19
5
4
16
23
3
3
11
19
4
4
16
22
3
3
11
20
5
4
16
22
3
3
11
20
5
4
16
21
3
3
11
20
5
4
16
21
3
3
11
20
5
4
16
21
3
3
11
19
5
5
16
21
3
3
11
19
5
5
16
20
3
3
11
19
5
5
16
20
3
3
11
19
5
5
16
20
3
3
11
19
5
5
16
20
3
3
11
19
5
5
16
20
3
3
11
19
5
5
15
20
3
3
11
19
5
5
15
20
3
3
11
19
5
5
15
20
3
3
11
21
5
5
14
20
3
3
11
21
5
5
14
20
3
3
11
21
5
5
13
20
3
3
11
24
7
5
12
19
3
3
11
25
7
5
12
16
3
3
12
27
7
5
12
15
3
3
13
30
7
5
12
15
3
3
13
31
7
5
12
15
3
4
13
31
7
5
11
12
3
4
13
32
7
5
11
10
3
4
13
33
7
5
11
10
3
5
13
33
7
5
11
10
3
5
14
34
8
5
11
10
3
5
14
34
8
5
11
10
3
5
15
35
9
5
10
10
3
5
16
35
9
6
11
10
3
6
17
34
9
6
11
10
3
5
18
34
9
6
10
10
3
6
18
38
10
7
11
10
3
6
19
38
10
7
11
10
3
6
21
40
14
7
9
10
3
6
24
41
17
6
8
8
4
6
24
43
19
7
8
8
4
6
25
43
19
7
8
8
4
6
25
43
19
7
8
7
4
8
30
45
24
8
8
6
4
12
35
48
29
11
8
7
5
13
39
51
31
13
9
8
5
14
39
51
32
14
9
8
6
15
41
54
33
15
9
8
6
16
42
54
33
15
10
8
6
16
44
56
33
15
10
8
6
20
44
56
33
17
10
9
6
22
44
58
33
18
11
10
7
22
44
60
33
18
11
9
7
23
47
61
33
18
11
9
7
23
48
61
33
18
12
9
8
25
51
61
34
18
11
9
8
25
51
61
34
18
11
9
8
27
52
61
34
18
12
9
8
27
53
62
34
19
12
10
8
27
53
62
34
19
11
10
8
27
54
62
34
20
12
10
8
29
57
64
35
20
12
10
8
31
58
65
35
21
13
10
9
31
58
66
35
21
13
10
9
31
58
66
35
21
13
10
9
31
58
68
35
21
13
10
9
31
59
68
36
23
14
11
9
31
60
69
36
24
14
11
9
31
60
70
37
24
14
11
9
32
60
69
37
25
14
11
9
34
61
71
38
25
15
12
10
34
61
72
39
25
14
12
10
34
61
72
39
26
15
12
10
34
62
72
40
26
15
12
10
35
62
71
41
26
15
12
10
36
65
71
42
26
15
12
11
36
65
72
42
26
15
12
11
36
65
72
43
27
15
12
11
36
66
72
43
27
15
12
11
36
66
72
43
27
15
12
11
36
67
72
43
27
15
12
11
36
68
72
44
27
15
12
11
36
68
73
44
27
15
12
11
36
70
73
44
27
15
12
11
38
71
74
45
27
15
12
11
38
71
74
45
27
15
12
11
38
71
73
44
28
15
12
11
38
71
74
44
28
15
13
11
38
71
73
44
28
16
13
11
39
70
72
44
28
16
13
11
39
70
71
43
28
15
13
11
40
71
71
43
28
15
13
11
40
72
71
43
28
16
13
11
40
70
72
43
28
16
13
11
39
68
70
40
27
16
13
11
39
67
68
38
26
16
13
11
39
67
68
37
25
15
13
11
39
67
66
37
25
16
13
11
38
66
66
37
25
16
13
11
40
67
65
37
25
16
13
12
38
68
66
38
25
15
13
12
37
68
65
38
24
15
13
11
37
68
63
38
24
15
12
11
36
67
63
39
24
15
12
11
37
67
65
39
24
14
12
11
36
66
65
39
24
14
12
11
37
66
66
39
24
14
12
11
36
66
66
40
24
14
12
11
36
68
66
40
24
14
13
11
36
68
68
40
24
14
13
11
36
68
68
40
22
13
14
11
35
67
66
40
23
13
17
11
34
67
66
40
23
13
16
11
33
68
65
41
23
13
16
11
33
68
66
41
23
13
16
11
34
69
64
41
23
13
17
11
34
69
64
41
21
13
17
11
34
69
63
41
19
12
16
11
34
69
63
42
19
13
17
11
34
69
64
42
19
14
17
11
32
68
63
41
18
13
17
10
32
68
60
40
18
13
17
10
32
68
60
40
18
13
17
10
33
68
59
39
18
13
18
11
33
68
59
38
19
13
18
11
32
66
59
37
18
13
17
10
32
65
59
37
18
13
17
10
32
67
61
37
17
13
17
10
32
68
63
37
17
13
18
10
32
67
64
37
17
14
22
11
32
67
64
36
17
14
22
11
32
67
64
35
17
14
22
11
32
67
63
35
17
14
22
11
32
67
64
35
17
14
22
11
30
67
63
35
17
14
22
11
30
67
64
36
16
14
22
11
31
67
66
36
16
14
22
11
31
67
65
36
15
13
22
11
32
67
66
35
15
13
22
11
31
67
66
34
15
13
23
11
31
69
67
34
15
13
22
11
30
68
67
34
15
13
22
11
29
67
67
34
15
13
23
11
29
69
66
32
15
13
23
11
29
69
67
32
15
13
23
11
29
68
68
32
15
13
23
11
31
68
69
33
16
13
23
11
31
68
69
34
15
12
23
11
31
71
70
34
15
12
23
11
30
70
70
34
15
12
23
10
30
69
69
33
15
12
23
10
30
69
68
32
15
12
23
10
31
71
68
32
15
12
24
10
32
71
70
32
15
12
24
10
32
71
68
33
14
12
24
10
32
70
68
32
15
12
24
10
31
69
67
32
15
12
24
10
31
69
68
33
15
13
26
10
30
69
67
33
15
13
25
10
30
68
66
33
15
13
25
10
30
68
67
33
15
13
25
10
30
67
68
33
14
13
23
10
30
66
68
33
14
13
23
10
30
66
67
33
15
13
24
10
31
66
66
33
15
13
26
10
30
65
67
33
14
13
26
10
30
65
68
34
14
13
26
10
29
65
70
33
14
13
26
10
29
64
70
30
14
12
27
10
30
65
71
31
14
12
28
10
30
66
71
31
14
12
28
10
30
66
72
31
14
13
28
10
30
68
72
32
14
13
27
10
30
69
72
32
13
13
27
10
29
70
72
33
13
13
27
9
30
70
71
33
13
13
28
9
30
70
71
33
13
13
28
9
29
68
70
33
13
13
28
9
29
68
69
33
13
13
27
9
29
68
67
32
13
12
25
9
29
68
67
33
14
12
25
9
29
67
68
33
14
12
25
9
29
67
68
33
14
12
25
9
29
67
69
35
15
13
25
9
30
68
69
35
16
12
25
9
30
68
68
36
16
12
25
9
29
67
66
36
16
13
25
9
29
68
67
36
16
13
25
9
28
68
67
37
16
13
25
9
28
68
67
37
16
13
25
9
28
66
66
38
16
13
25
9
28
65
66
38
16
13
25
9
28
66
66
38
16
13
25
9
28
64
66
38
17
13
25
9
27
64
64
38
17
13
25
9
27
64
64
38
17
13
25
8
25
64
63
38
16
13
25
8
25
64
63
37
17
14
25
8
25
62
62
37
17
14
24
8
24
61
63
38
16
13
24
8
24
62
64
38
16
13
24
8
24
62
66
38
16
13
24
8
25
61
66
39
16
13
24
8
24
62
65
39
16
13
24
8
22
63
67
39
16
13
25
8
22
62
66
39
16
13
25
8
23
62
66
39
17
14
25
8
23
63
65
37
16
14
23
8
23
61
65
37
16
13
23
8
23
61
65
37
16
13
24
8
23
61
65
36
16
14
24
8
22
61
65
37
16
13
23
8
22
62
66
37
16
13
24
8
22
61
67
38
16
13
23
8
22
61
67
38
16
13
20
8
22
60
68
37
16
13
20
8
22
60
67
37
16
13
20
8
22
61
64
37
16
13
20
8
22
62
63
37
16
12
18
8
22
61
64
38
17
13
18
7
21
60
63
38
17
13
18
7
21
62
65
39
17
13
19
7
21
62
65
38
17
13
19
7
20
60
65
38
17
13
19
7
21
59
66
38
18
14
19
7
21
60
66
38
17
13
18
7
21
60
67
38
17
13
18
7
21
60
67
38
17
13
18
7
22
60
66
38
17
13
18
7
22
60
67
38
17
13
18
7
22
60
66
38
18
13
18
7
22
60
68
39
18
13
18
7
22
60
68
38
19
14
19
7
22
58
67
37
17
13
19
7
22
57
67
36
17
13
19
7
22
57
67
35
17
14
18
7
22
59
67
34
17
14
19
7
22
59
66
35
17
14
19
7
22
59
66
39
17
14
19
7
23
59
66
38
17
14
19
7
24
59
65
37
17
14
20
7
24
59
66
37
17
14
20
7
24
59
66
37
17
13
20
7
24
59
66
37
16
13
19
7
24
59
68
37
16
14
19
8
25
59
68
37
16
13
19
7
25
59
68
38
16
13
19
8
25
59
68
38
16
13
20
8
25
58
67
38
16
13
20
8
25
58
66
37
16
13
20
8
24
57
66
37
16
13
20
8
24
57
64
37
16
14
20
8
23
57
64
36
16
14
20
7
22
54
64
37
17
14
20
7
25
54
62
36
17
14
20
7
25
56
63
36
17
13
19
7
24
56
64
36
16
13
20
7
24
57
63
36
16
13
21
7
24
57
63
36
16
13
20
7
24
57
64
36
16
13
20
7
24
58
65
38
16
13
20
7
24
56
65
38
16
13
20
7
24
56
64
38
16
13
20
7
24
56
65
38
16
13
20
7
24
55
66
38
16
13
20
7
24
56
64
38
16
13
20
7
24
56
64
38
16
13
20
7
24
59
64
39
16
14
20
7
24
58
64
39
17
14
20
7
26
60
62
37
18
14
20
7
26
60
62
37
18
13
19
8
26
60
60
36
17
13
19
8
26
59
61
36
17
13
19
8
26
58
61
36
17
13
20
8
25
59
59
35
16
12
21
7
25
58
58
35
16
12
21
7
26
58
58
36
17
12
21
7
26
59
59
36
17
12
22
7
24
58
59
36
17
12
22
7
25
58
59
36
17
12
25
7
24
58
59
36
16
12
25
7
25
58
57
36
16
12
25
7
25
58
59
37
15
12
24
7
24
58
60
37
16
12
25
7
24
57
60
38
16
12
25
7
24
57
60
38
16
12
25
7
24
56
60
38
16
12
25
7
24
56
60
37
15
12
25
8
24
56
61
33
15
12
25
7
23
56
62
33
15
12
25
7
23
56
64
33
15
12
25
8
22
56
64
33
15
12
25
8
22
56
66
33
15
12
25
8
22
56
66
33
15
12
25
8
22
58
64
33
15
12
25
8
21
58
63
33
16
12
25
7
21
58
64
33
16
12
26
7
22
58
64
32
15
12
25
7
22
60
65
33
15
12
25
7
22
62
67
34
16
12
25
7
22
64
67
33
16
12
25
7
22
63
68
34
15
12
25
7
22
64
68
34
15
12
25
7
22
64
69
33
15
12
25
8
20
63
68
33
15
12
25
7
20
61
69
34
15
12
25
7
20
61
69
34
15
12
25
7
21
61
69
34
15
12
24
7
21
61
69
34
15
12
24
8
21
61
68
34
15
11
24
8
20
61
67
31
15
11
25
8
20
61
67
31
15
11
25
8
20
61
67
30
15
11
25
8
21
63
65
30
16
12
25
8
21
63
64
30
16
12
25
8
21
63
65
31
16
11
25
8
21
63
67
32
16
12
25
8
21
63
67
31
15
11
25
8
21
62
67
31
14
11
25
8
18
61
68
31
13
11
25
7
19
63
68
31
13
11
25
7
19
62
68
31
13
11
25
7
19
64
68
32
13
11
25
7
20
65
68
32
13
11
24
7
20
65
68
32
13
11
24
7
20
65
68
32
14
12
27
7
20
66
68
32
13
12
27
7
20
65
68
32
13
11
26
7
20
65
68
31
13
11
26
7
19
64
67
32
13
11
23
7
20
66
67
31
13
11
23
7
19
66
69
31
13
11
23
7
19
67
67
30
13
11
23
6
19
67
67
31
12
11
23
6
19
67
67
30
12
11
23
6
19
66
67
30
12
11
22
6
19
67
67
30
12
11
22
6
19
67
67
31
12
11
22
6
20
67
66
32
12
11
22
6
22
69
65
32
13
11
22
6
21
70
63
32
12
11
21
5
21
72
62
31
12
11
21
5
21
72
60
31
12
11
21
5
21
72
60
31
12
11
21
5
22
71
60
31
12
11
21
5
23
70
62
30
12
11
20
6
23
70
63
30
11
10
20
6
23
70
62
31
11
10
20
6
23
68
61
30
12
10
20
6
22
67
61
30
11
10
20
5
22
65
60
29
11
9
19
5
22
64
59
29
11
9
19
5
22
64
59
29
11
10
19
5
22
64
58
29
11
12
20
5
22
64
58
29
11
12
21
5
22
64
57
28
10
12
21
5
22
64
55
28
11
12
21
5
21
63
56
28
11
12
21
5
21
62
56
28
10
12
21
5
21
62
57
28
10
12
20
5
21
63
56
28
10
12
20
5
21
62
54
27
10
12
20
5
21
62
55
27
10
13
19
5
20
60
55
27
9
13
20
5
20
61
55
27
9
16
20
4
20
60
54
26
9
18
20
4
20
59
52
25
9
20
20
4
20
56
51
24
9
20
20
4
20
56
51
24
9
21
20
4
19
56
50
24
9
22
20
4
19
53
50
24
8
22
20
4
18
52
50
24
9
23
20
4
18
49
49
22
8
23
20
4
17
48
49
22
8
23
19
4
17
47
49
22
8
24
19
4
17
46
49
22
8
25
15
4
17
46
48
21
8
26
15
4
17
46
47
21
8
26
15
4
17
45
46
21
8
27
16
4
17
45
47
21
7
27
16
5
16
42
47
20
8
31
15
4
16
41
43
20
8
33
16
4
16
40
43
20
8
33
17
4
16
40
41
18
8
34
18
4
16
40
39
18
8
34
18
4
16
40
41
17
9
36
18
5
16
37
41
17
9
37
18
5
16
36
40
16
10
39
20
5
15
36
43
15
9
40
21
5
12
31
44
15
9
41
21
4
12
29
44
15
9
42
21
5
12
24
45
15
9
42
21
5
12
23
45
15
10
43
22
5
11
19
46
15
10
44
22
5
9
19
46
15
10
44
22
6
7
18
42
14
10
44
22
6
7
18
41
14
10
44
23
7
7
18
41
13
10
45
23
7
7
18
41
13
10
45
23
7
7
16
39
13
10
46
23
8
6
16
39
13
10
46
23
8
6
16
38
12
10
46
24
10
7
16
39
13
10
46
25
11
6
16
39
13
10
47
26
11
7
16
39
13
10
47
25
12
7
15
39
13
10
47
26
13
6
13
40
13
10
49
26
13
6
13
39
13
10
49
26
14
6
13
40
13
10
49
26
14
7
13
38
13
10
49
26
14
6
12
38
13
10
50
26
15
6
12
38
13
10
50
26
15
6
12
38
13
10
50
26
16
6
12
38
13
10
50
26
16
6
11
37
13
10
49
26
16
6
11
38
13
10
48
26
16
6
11
38
12
10
48
26
17
6
11
39
12
10
48
26
17
6
11
39
12
10
49
26
17
6
11
39
12
11
50
26
18
6
11
39
12
11
49
26
19
6
11
39
12
11
49
26
20
6
12
39
12
11
49
26
20
7
12
39
12
11
49
26
20
7
12
39
12
11
48
26
20
7
12
40
12
11
48
26
20
7
12
41
12
11
47
26
20
6
12
41
12
11
48
25
20
6
12
41
12
11
48
25
20
6
12
41
12
11
48
26
20
6
12
41
12
10
46
26
20
6
12
41
12
10
44
25
20
6
12
41
12
10
44
25
20
6
12
41
12
10
44
24
20
6
11
41
13
10
45
24
20
6
11
39
12
9
43
24
20
6
11
39
12
9
43
24
20
6
11
39
12
8
40
22
20
6
11
36
11
8
40
22
20
6
11
35
10
9
39
21
20
6
11
34
10
9
39
22
20
6
11
34
10
9
38
21
20
6
11
32
10
8
37
21
20
6
11
31
9
9
37
21
20
6
11
31
9
8
37
21
19
6
11
32
9
8
37
21
19
6
11
31
9
8
36
21
19
6
11
31
9
8
38
21
19
6
11
31
9
9
38
21
19
6
11
31
9
9
38
21
19
6
11
31
9
9
37
21
19
6
11
31
9
9
37
21
18
6
11
30
8
9
37
18
17
6
11
30
8
8
36
17
17
5
11
29
8
8
35
17
17
5
11
28
7
8
35
16
16
5
11
28
7
8
34
16
15
5
11
28
7
8
33
17
15
5
11
27
7
8
33
17
15
5
11
26
7
8
34
17
15
5
11
26
7
8
32
17
14
5
11
26
8
8
32
17
14
5
11
27
8
8
32
17
13
5
11
27
8
8
32
17
13
4
11
27
8
8
32
17
13
4
11
27
8
8
32
17
13
4
11
26
8
8
32
17
11
4
11
26
8
8
32
17
11
4
11
26
8
7
30
18
11
4
10
26
8
7
28
18
11
4
11
25
8
7
28
18
7
4
10
25
8
7
28
19
6
4
10
25
8
7
28
20
6
4
10
26
8
7
28
20
6
4
10
26
8
7
28
20
6
4
10
24
8
7
28
20
6
4
9
23
8
7
28
20
6
4
10
23
8
7
27
20
6
4
10
22
7
7
26
20
6
3
10
22
7
7
26
20
6
3
10
22
7
7
26
19
6
3
10
22
7
7
26
19
7
3
10
22
7
7
26
20
7
3
11
22
7
7
26
21
7
3
11
23
7
7
25
25
6
3
11
23
7
7
25
26
6
3
11
25
7
7
24
26
6
3
11
25
7
7
24
26
6
3
11
25
7
7
24
26
6
3
11
24
7
7
23
26
6
3
11
24
7
6
22
26
6
3
11
25
7
6
22
26
6
3
11
25
7
6
22
26
6
3
11
25
7
6
22
26
6
3
11
25
7
6
21
26
6
3
11
24
7
6
21
26
6
3
11
24
7
6
22
26
6
3
11
24
6
6
19
27
6
3
11
24
6
5
18
28
6
3
10
25
6
5
18
28
6
3
10
25
7
5
18
28
6
3
10
25
7
5
19
28
6
3
10
25
7
5
18
28
6
3
10
25
7
5
19
29
6
3
10
25
7
5
19
29
6
3
10
25
7
5
19
29
6
3
11
26
7
5
18
29
6
3
11
26
7
5
18
29
6
3
11
26
7
5
17
28
5
3
11
26
7
5
17
28
5
3
11
26
7
5
17
28
5
3
11
26
6
5
17
28
5
3
11
25
6
5
17
28
5
3
11
26
6
5
17
28
5
3
11
26
6
5
16
28
5
3
11
26
6
5
16
28
5
3
11
25
6
5
15
28
5
3
11
25
6
5
15
28
5
3
11
25
6
5
15
27
5
3
11
25
6
5
15
27
5
3
11
25
6
5
15
27
5
3
11
25
6
5
15
26
5
3
11
24
6
5
15
25
5
3
10
24
6
5
14
25
5
3
10
24
6
5
14
25
5
3
11
24
7
5
14
25
5
3
13
29
7
5
14
25
5
3
16
31
8
6
14
25
5
3
18
31
8
6
14
25
5
3
17
31
8
6
14
25
4
3
18
32
8
6
14
25
4
3
18
36
9
6
13
24
3
4
18
36
9
6
13
24
3
6
20
35
9
7
13
23
3
6
20
35
9
7
12
18
3
6
20
36
9
7
13
17
3
6
21
35
10
8
13
17
3
7
22
35
10
8
13
17
3
7
23
38
10
8
13
17
3
7
23
39
11
8
13
17
3
8
24
39
11
8
13
17
3
8
25
41
11
8
13
17
3
9
26
45
11
9
13
16
3
9
26
48
12
8
13
16
3
10
27
48
13
10
13
17
3
10
27
48
14
10
13
16
4
11
27
49
15
10
12
16
4
11
29
49
15
10
11
15
3
11
30
49
18
10
11
11
3
11
30
51
25
10
11
11
3
12
30
54
27
11
11
11
4
12
31
56
27
11
10
11
4
12
32
58
27
11
10
10
4
12
33
58
27
11
9
9
4
14
35
59
27
12
9
8
4
14
37
61
29
12
9
9
5
19
38
61
31
15
10
9
5
20
42
64
34
16
11
9
5
21
46
66
34
17
11
10
5
21
47
66
35
17
11
9
5
23
48
67
36
18
11
10
6
27
49
68
37
21
12
10
6
27
51
69
37
21
12
10
6
27
51
70
38
21
12
10
6
27
51
70
39
21
12
10
6
28
53
71
39
21
12
10
6
28
54
73
40
22
12
10
6
29
56
75
41
22
13
10
6
30
56
76
42
23
13
10
7
30
57
78
45
23
13
10
7
30
57
78
46
24
14
11
7
31
58
78
47
24
14
11
7
31
59
78
47
24
14
11
7
31
61
79
47
24
14
11
7
31
63
80
47
24
14
11
7
31
64
81
47
24
14
11
7
32
64
79
47
24
14
11
7
33
65
79
47
24
14
11
8
33
65
79
48
24
14
11
8
34
65
79
48
24
14
11
8
34
65
79
48
25
14
11
8
34
65
78
48
25
14
11
8
34
66
78
48
25
14
11
8
34
67
79
49
24
14
11
8
34
68
79
51
24
14
11
8
36
70
79
51
25
14
11
8
36
70
79
51
25
14
11
8
37
70
79
52
25
14
12
8
37
72
78
52
25
14
12
8
37
72
78
52
26
14
12
8
37
72
78
52
26
14
11
9
37
72
77
52
26
14
11
8
38
73
75
53
26
14
11
9
38
73
75
54
26
14
11
9
38
74
75
53
26
14
11
9
39
76
76
53
26
14
11
9
39
76
77
53
26
14
11
9
41
78
77
53
26
14
12
9
42
79
78
53
26
14
12
10
42
79
77
50
26
14
12
10
42
81
75
49
26
14
12
10
43
81
74
49
26
14
12
10
43
81
73
49
26
14
13
10
43
81
73
49
26
14
13
10
43
81
72
49
26
15
13
10
43
82
72
49
26
15
13
10
42
83
73
48
25
14
14
10
41
81
71
46
24
14
14
10
41
79
69
46
24
14
14
10
41
79
71
46
24
14
14
10
41
80
73
47
24
13
14
10
38
79
72
46
21
13
14
10
39
79
73
47
22
13
16
10
39
79
72
47
22
14
16
10
39
80
73
46
22
14
19
10
39
80
71
45
22
14
19
10
40
80
70
45
22
14
19
10
39
79
70
44
21
14
19
10
39
81
70
44
21
14
20
10
39
80
68
40
21
14
20
11
39
80
68
40
20
13
20
10
39
80
68
39
20
14
21
11
39
80
67
39
20
14
22
11
39
78
67
39
20
14
22
11
39
77
66
39
20
14
22
11
40
77
65
40
20
14
22
11
39
78
65
40
20
14
22
11
39
76
65
40
21
14
22
10
39
77
67
40
21
14
22
11
39
77
67
41
21
14
22
11
39
78
66
41
20
14
22
11
39
80
68
43
20
14
22
11
39
80
69
44
21
14
23
11
39
79
71
44
21
14
23
11
39
78
70
42
21
14
23
11
38
77
70
42
20
13
23
11
38
77
70
42
20
14
23
11
37
79
70
41
20
13
23
11
36
78
70
41
20
13
23
11
36
77
70
41
19
13
23
11
36
76
70
41
20
14
24
11
36
76
70
41
20
14
24
11
35
76
70
40
20
14
24
11
35
76
70
39
19
14
24
11
35
75
70
40
20
14
25
11
34
73
69
40
20
14
25
11
34
73
68
40
20
14
25
11
32
72
68
40
20
14
25
11
31
71
69
39
20
14
25
10
31
71
68
39
20
15
26
10
30
69
68
38
20
15
29
10
29
70
67
38
20
16
29
10
29
70
67
40
20
16
28
10
28
69
68
41
21
16
29
10
28
69
67
42
20
15
29
10
28
67
66
42
20
15
29
10
28
65
65
43
20
15
29
10
28
65
65
44
20
15
29
10
28
65
66
45
19
15
29
10
28
66
65
44
19
15
29
10
28
65
63
43
19
15
29
10
28
65
65
43
19
16
30
11
28
65
63
42
19
15
29
10
27
64
62
42
18
15
29
10
27
64
64
42
18
14
27
10
27
64
65
42
18
14
27
10
27
64
65
42
18
15
28
11
26
64
64
42
18
15
28
11
26
64
63
42
18
15
27
10
26
64
63
42
18
15
27
10
26
66
63
42
18
15
27
10
27
66
63
41
17
14
26
10
27
68
63
42
17
14
26
10
27
68
64
43
17
14
26
10
28
68
64
43
18
14
26
10
28
67
64
42
18
14
26
10
28
68
62
43
18
14
26
10
27
69
64
42
17
15
26
10
28
69
62
42
18
15
26
10
28
71
62
41
18
15
26
10
28
70
63
41
18
15
27
10
28
68
62
38
18
15
27
10
28
67
62
38
18
16
28
10
28
67
61
37
18
16
29
10
29
69
62
38
18
16
29
10
29
67
63
38
18
16
29
10
29
67
63
38
18
17
29
11
29
65
63
38
17
17
29
11
29
65
63
39
18
17
30
10
29
66
63
40
18
17
30
10
30
67
63
40
17
17
29
10
30
68
64
40
17
17
30
10
31
69
65
41
17
17
30
10
31
69
63
40
17
17
30
10
30
69
64
41
16
17
30
10
32
70
65
43
17
17
30
11
33
70
67
43
17
17
30
11
33
70
67
43
16
17
30
11
33
70
66
43
17
17
29
10
33
70
66
43
17
17
29
11
33
70
66
43
17
16
27
11
33
68
66
43
17
17
28
11
34
69
67
44
17
16
28
11
34
69
66
42
16
17
28
11
34
69
67
42
16
17
28
11
33
70
69
44
16
17
29
11
33
69
69
43
16
18
30
11
33
70
69
41
16
18
30
11
33
71
68
41
17
18
30
11
33
70
67
41
16
18
30
11
33
69
67
41
16
18
29
11
33
70
64
40
16
18
29
10
34
70
65
40
16
18
29
10
34
71
65
40
16
18
28
11
34
70
63
41
16
18
29
11
33
70
65
42
16
18
29
11
33
68
67
42
16
18
29
10
33
68
66
42
16
18
29
10
32
68
66
42
16
18
29
10
33
68
66
43
16
18
30
10
33
68
66
43
16
18
30
10
32
66
66
44
17
18
30
10
31
65
66
44
17
18
30
10
31
65
65
43
16
19
32
10
30
63
65
43
16
19
32
10
30
63
67
45
16
19
32
10
30
62
67
44
17
19
32
10
30
61
67
44
16
18
32
10
29
59
67
44
16
18
32
10
28
57
67
44
16
18
32
10
28
57
66
44
15
18
31
9
28
59
66
44
15
18
32
10
28
59
64
44
16
17
30
9
29
59
63
44
16
17
29
9
27
57
62
43
15
17
30
9
27
60
62
43
15
17
30
9
27
60
64
44
15
17
30
9
27
62
65
44
15
16
29
9
27
62
65
44
15
16
30
9
27
61
67
43
15
16
32
9
26
59
67
43
15
16
32
9
26
60
65
43
15
16
31
9
25
58
65
43
15
16
31
9
25
59
66
44
15
16
31
9
25
58
66
43
15
16
31
9
22
57
65
41
14
15
31
9
22
56
64
41
14
15
31
9
22
55
64
41
14
15
31
9
22
55
64
41
14
15
31
9
20
54
65
42
14
15
31
8
21
55
65
42
15
15
31
7
21
57
65
41
15
15
29
7
21
56
65
39
15
15
29
7
21
56
65
39
15
15
29
7
20
57
65
39
15
14
28
7
21
57
62
36
15
14
28
7
21
58
62
36
15
13
27
7
21
56
61
36
15
13
26
7
21
56
62
36
14
13
27
7
20
56
61
36
14
13
27
7
19
55
61
35
14
13
27
7
19
53
61
35
14
13
27
7
18
53
61
35
14
13
27
6
18
51
61
35
14
12
27
6
18
51
61
34
14
12
27
6
18
53
58
33
14
12
27
6
18
54
56
33
14
12
26
6
18
54
55
33
14
12
25
6
18
52
56
33
14
12
25
6
18
51
55
31
13
12
24
6
18
51
55
31
13
12
24
6
18
50
55
30
13
12
24
6
18
50
55
28
13
12
24
6
17
50
56
28
13
12
23
5
17
50
55
28
13
12
23
5
17
50
53
26
12
12
23
5
17
50
53
26
12
18
23
5
17
49
52
26
12
21
24
5
17
49
53
26
13
21
24
5
16
49
53
26
13
21
23
5
16
48
53
26
13
22
23
5
15
47
52
25
12
23
23
5
15
47
52
25
12
23
23
5
14
47
52
24
12
23
23
5
14
47
52
24
12
23
23
5
14
43
50
23
12
24
22
5
14
42
48
21
11
26
22
5
13
40
45
20
11
26
22
4
13
40
46
20
11
26
20
5
14
39
43
20
11
29
18
5
14
39
43
18
11
29
18
5
14
37
43
17
11
30
20
5
13
35
43
15
11
31
20
5
13
35
41
15
11
32
19
5
13
35
39
14
11
32
19
5
13
35
37
15
11
33
19
5
13
35
36
14
11
33
19
5
13
35
36
13
11
37
21
5
13
35
35
13
11
39
20
5
13
35
31
10
10
39
20
5
13
33
31
10
9
39
20
6
12
30
31
11
9
39
20
6
11
30
30
11
8
40
21
6
11
30
30
11
8
42
22
7
11
28
33
11
9
42
22
7
11
26
33
10
9
42
22
7
9
24
34
10
9
42
22
7
9
24
34
10
9
44
23
7
9
24
34
10
9
45
23
7
9
24
33
10
9
48
24
7
9
24
33
10
9
50
24
7
9
24
33
10
9
51
24
7
9
24
33
10
9
54
24
7
9
23
33
10
9
55
24
8
8
23
32
10
9
55
24
8
8
20
32
10
9
56
24
8
6
16
32
10
9
56
26
8
6
15
33
9
9
56
26
8
6
15
33
10
9
56
26
8
6
16
33
10
10
59
27
8
6
12
33
10
10
61
27
8
6
12
33
10
10
62
27
8
6
11
34
10
10
62
27
8
6
11
33
9
10
62
26
8
6
11
33
9
10
62
26
8
6
11
34
9
10
62
26
9
6
11
32
9
10
60
25
9
6
11
32
9
9
60
25
9
6
11
32
9
9
61
26
9
6
11
32
9
9
61
26
9
6
11
32
8
9
61
26
9
6
11
32
8
9
61
26
9
6
10
31
8
11
62
27
9
6
11
31
8
11
64
27
9
6
11
31
8
11
64
27
9
6
11
31
8
11
63
27
9
6
11
31
8
11
63
27
9
6
11
32
8
11
63
27
9
6
11
31
8
11
63
28
9
5
11
31
8
11
62
29
9
5
10
31
8
11
62
29
9
5
10
32
9
11
62
28
9
5
10
32
9
11
61
29
9
5
11
32
9
11
61
29
9
5
11
32
9
11
61
29
9
5
11
32
8
11
61
29
9
5
11
32
8
11
61
29
9
5
11
32
8
10
58
28
9
5
10
32
8
10
57
28
9
5
10
32
8
10
58
28
9
5
10
32
8
10
58
28
8
5
10
32
8
10
58
28
8
5
10
32
8
11
58
28
8
5
10
31
8
11
56
27
8
5
10
28
8
10
56
26
8
5
9
28
8
10
56
27
8
4
9
28
7
10
56
27
8
4
9
28
7
10
55
26
8
4
9
28
8
10
54
26
8
4
9
28
7
10
52
26
8
4
8
28
7
10
49
26
8
4
8
27
7
10
48
26
8
4
8
27
7
9
45
26
7
4
9
28
8
9
44
26
7
4
9
28
8
9
44
26
7
4
9
28
8
9
43
26
7
4
9
27
8
9
43
25
7
4
9
27
8
9
43
25
7
4
9
28
8
9
43
26
7
4
8
27
7
9
39
26
7
4
8
27
7
8
35
25
7
4
8
26
7
8
34
26
7
4
8
26
7
8
34
26
7
4
9
26
7
8
34
25
7
4
10
26
7
8
34
25
6
3
10
26
7
8
34
26
6
3
11
26
7
8
33
28
6
4
11
25
7
8
33
28
6
3
11
25
7
8
31
27
6
3
11
25
7
8
30
27
6
3
11
25
7
8
30
28
6
3
11
25
7
8
29
28
6
3
11
25
7
6
26
27
6
3
11
25
7
6
23
28
6
3
10
25
7
6
22
28
6
3
10
25
7
6
23
28
6
3
11
24
7
6
22
28
6
3
11
23
7
6
21
28
6
3
11
23
7
6
21
26
5
3
11
23
7
6
21
25
6
3
11
23
7
6
21
25
6
3
11
21
6
6
21
25
6
4
11
21
6
6
21
26
6
4
11
21
6
6
21
26
5
4
11
21
6
6
21
26
5
3
11
21
6
6
21
26
5
4
11
21
6
6
20
26
5
4
11
20
6
6
20
26
5
3
11
20
6
6
20
26
5
3
11
20
6
6
19
26
5
3
11
19
6
6
18
27
5
3
11
20
6
6
18
27
5
3
11
20
6
6
17
27
5
3
11
20
6
6
17
27
5
4
11
20
6
5
17
27
5
4
11
20
6
5
17
27
4
3
11
20
6
6
17
26
4
3
11
19
6
6
18
26
4
3
11
19
6
6
18
26
4
3
11
19
6
6
19
26
4
3
11
19
6
6
19
26
4
3
12
19
6
6
18
26
4
3
12
19
5
6
18
26
4
3
12
18
5
6
19
26
4
3
12
18
5
6
19
27
4
3
12
19
5
6
18
27
4
3
12
19
5
6
18
27
4
3
12
18
5
6
18
26
4
3
12
17
5
6
18
25
4
3
12
17
5
6
18
25
4
3
12
17
5
6
18
24
4
3
12
17
5
6
18
24
4
3
12
17
5
6
18
24
4
3
12
16
5
6
19
24
4
3
11
16
5
7
21
24
4
3
11
16
5
7
21
24
3
3
11
16
5
7
21
22
3
3
11
16
5
7
21
22
3
3
11
15
5
7
21
22
3
3
11
15
5
7
21
22
3
4
11
15
5
7
21
22
3
4
11
15
5
7
21
21
3
3
11
15
5
7
21
21
3
3
11
15
5
7
21
21
3
3
11
15
5
7
21
21
3
3
11
15
5
7
20
21
3
4
11
15
5
7
20
21
3
4
11
15
5
7
21
21
3
4
11
15
6
7
21
21
3
4
11
16
5
7
20
21
3
3
10
15
5
7
20
21
3
3
10
15
5
7
20
21
2
3
10
15
5
7
19
20
3
3
10
15
5
7
19
18
3
3
10
15
5
7
18
18
3
3
10
15
5
7
19
19
3
3
11
15
5
7
19
19
3
3
11
15
5
6
18
19
3
3
11
15
5
6
18
19
2
3
10
15
5
6
18
18
3
3
10
15
5
6
18
18
3
3
10
14
5
6
18
18
2
3
10
15
5
6
18
18
2
3
10
15
5
6
18
17
2
3
10
15
5
6
18
17
2
3
11
14
5
6
18
17
3
3
11
15
5
6
18
17
2
3
11
15
6
6
17
17
2
3
11
15
5
6
16
17
2
3
11
15
6
6
16
17
2
3
11
15
6
6
16
17
2
3
10
15
6
6
16
17
2
3
10
15
6
6
16
17
2
3
10
15
6
6
15
16
2
3
10
15
6
6
15
16
2
3
10
14
6
6
15
15
2
3
10
14
6
6
16
15
2
3
10
15
5
5
15
14
2
3
10
15
6
5
15
14
2
3
11
16
6
5
15
14
2
3
10
15
5
5
15
14
2
3
10
16
6
5
15
14
2
3
11
16
6
5
15
14
2
3
11
18
6
5
14
14
2
4
10
18
6
5
11
14
2
3
10
18
6
5
11
13
2
3
11
19
6
5
11
13
2
3
10
20
6
5
11
13
2
3
10
25
6
5
10
13
2
3
10
26
6
5
10
12
2
3
10
26
6
4
10
11
2
3
10
27
6
4
10
10
2
3
11
28
6
4
10
10
2
3
11
28
6
4
10
10
2
3
11
28
6
4
10
9
2
3
11
29
7
4
10
9
2
3
11
30
6
4
10
9
2
3
12
29
6
4
10
7
2
4
12
31
6
4
10
7
2
4
12
32
6
4
10
7
2
4
13
32
6
4
10
7
2
4
12
33
7
4
11
7
2
4
12
35
7
4
11
7
2
4
13
35
8
4
11
7
2
4
14
35
8
4
11
7
2
4
14
35
8
4
11
6
2
5
14
36
9
5
11
5
2
8
15
36
9
7
11
5
2
8
17
37
10
8
11
6
2
9
17
40
10
8
11
5
2
9
23
40
10
8
11
5
3
9
25
40
11
8
11
5
3
9
25
41
11
8
11
5
3
9
26
42
12
8
11
4
3
10
26
42
12
8
11
4
3
10
26
43
12
8
14
4
3
11
26
43
12
11
19
5
3
11
26
44
12
11
19
5
3
13
29
44
13
11
19
5
3
14
34
47
13
12
19
6
4
15
34
49
13
13
19
6
4
15
35
51
14
13
20
6
4
15
36
51
14
14
22
7
4
15
36
54
15
14
24
7
4
20
39
55
15
15
24
7
4
21
40
55
17
15
25
8
5
22
40
57
20
16
25
8
6
22
41
57
22
18
27
9
7
22
41
57
24
19
27
9
7
22
41
60
27
19
27
9
7
23
42
62
31
19
27
9
7
24
42
63
31
19
27
9
8
24
43
65
31
19
28
9
8
25
43
65
32
19
29
9
8
26
43
65
32
19
30
10
8
27
44
68
33
20
31
10
8
31
47
69
34
23
32
11
9
32
48
69
34
23
32
11
9
32
50
68
34
23
32
11
9
33
50
69
36
23
32
12
9
33
50
71
37
23
33
12
9
33
50
71
38
23
33
12
10
33
52
73
38
24
33
12
10
34
53
74
39
24
33
12
11
34
54
75
39
24
33
12
11
35
54
75
39
24
35
12
11
35
55
76
39
24
35
12
11
35
55
76
41
24
35
12
11
36
55
75
43
24
35
12
11
36
57
77
43
25
35
12
11
36
58
77
43
25
35
13
11
36
58
77
44
25
35
13
11
36
58
77
44
25
35
13
11
37
60
77
45
25
35
13
11
38
60
77
46
26
35
13
12
39
60
79
48
26
35
13
12
40
62
79
49
27
35
15
12
39
62
79
49
27
35
16
12
39
62
80
49
27
35
16
12
39
62
78
49
28
35
16
12
39
62
80
50
27
35
16
12
40
64
80
49
28
36
16
13
40
64
80
49
28
36
16
13
40
65
80
52
28
36
16
13
40
66
81
52
29
36
17
13
40
67
81
53
29
35
17
13
41
69
81
53
29
32
16
14
41
71
81
54
29
32
16
14
40
69
81
55
29
32
16
14
40
69
79
55
28
32
16
14
40
69
79
55
28
32
16
14
41
69
78
55
28
32
16
14
41
69
79
55
28
31
16
14
41
70
78
57
28
29
16
14
39
69
78
57
27
29
16
14
39
70
78
57
27
28
16
13
38
70
77
56
27
28
16
13
38
70
77
55
25
27
15
13
38
71
79
55
25
26
15
12
38
71
77
54
25
26
15
12
41
72
77
52
25
26
15
13
43
73
78
54
26
27
15
14
44
75
77
54
27
26
15
14
43
75
77
54
27
25
15
14
44
76
79
54
28
24
16
14
43
76
78
56
27
24
16
15
41
74
76
55
25
22
15
14
40
75
76
55
26
22
15
15
41
75
77
55
25
22
15
15
41
77
77
57
26
22
15
15
41
77
76
57
26
22
15
15
41
77
77
57
26
21
15
15
41
76
75
57
26
22
15
15
41
76
74
57
26
22
15
15
42
76
73
57
26
21
15
15
42
77
74
57
26
18
15
15
41
77
73
57
26
18
15
15
42
78
73
56
26
18
15
15
43
77
75
54
26
18
15
15
43
76
73
54
26
18
15
15
43
76
74
54
25
18
14
15
44
77
74
54
25
18
15
15
46
78
75
55
25
17
15
15
46
78
74
55
25
18
15
15
45
78
75
55
25
18
15
15
44
79
74
53
25
17
16
15
43
78
74
53
24
17
14
15
43
77
74
53
23
17
13
15
44
77
74
54
23
16
12
15
43
77
74
54
23
16
12
15
44
76
72
53
23
16
12
15
43
74
72
55
23
15
12
14
44
75
72
55
22
15
12
14
44
74
72
53
22
15
12
14
44
74
72
53
22
15
12
14
45
75
73
54
22
15
12
14
44
73
73
54
21
15
12
14
44
72
73
55
21
14
12
14
44
72
74
55
21
14
12
14
44
71
75
56
21
14
12
14
43
71
74
56
21
15
14
14
42
71
75
57
22
14
14
14
42
71
74
57
21
15
14
15
42
71
72
56
21
15
14
15
42
71
72
56
21
15
15
15
43
69
72
56
21
15
15
15
43
69
72
55
22
15
15
15
43
69
73
56
22
15
15
15
43
71
73
55
22
15
15
15
43
71
74
56
23
15
15
15
40
70
72
56
22
15
15
14
38
68
72
55
21
14
15
13
37
67
70
54
21
14
15
14
37
66
70
54
20
14
15
14
37
67
69
54
19
15
15
14
37
67
68
52
19
14
15
13
37
67
70
53
20
14
15
13
37
66
70
53
20
14
15
13
37
65
70
53
20
14
15
13
36
62
68
49
19
14
16
12
35
62
67
49
19
14
16
12
35
65
66
49
19
14
17
12
35
65
67
48
21
14
17
12
35
65
68
48
21
14
17
12
33
65
70
48
21
15
17
12
34
64
69
48
21
15
17
13
34
63
68
49
21
15
17
13
33
62
68
49
21
15
17
13
32
64
69
50
21
14
17
13
33
64
71
50
21
15
17
13
33
62
71
51
21
15
17
13
33
62
72
51
21
15
17
13
30
60
72
49
21
15
17
12
30
60
72
48
22
15
17
13
30
59
71
47
22
15
18
13
30
58
71
48
22
14
17
12
30
59
70
48
22
14
17
13
30
59
70
48
22
15
18
13
30
59
69
48
22
15
18
12
29
60
71
48
22
15
18
12
29
59
72
48
23
15
18
13
29
59
73
47
23
15
18
12
28
57
74
46
23
15
18
12
28
57
74
46
23
15
18
13
27
56
73
46
22
15
18
12
27
55
72
45
22
15
19
13
27
54
71
44
22
15
19
13
27
55
71
44
22
16
19
13
27
55
69
44
22
16
19
13
27
56
69
43
23
16
19
12
27
55
70
43
23
15
18
13
28
54
69
41
23
15
18
12
28
54
69
41
23
16
18
12
28
54
69
41
24
16
18
12
28
55
70
41
23
16
18
12
28
56
69
40
23
16
18
12
28
56
70
40
23
15
18
12
27
55
71
39
23
15
18
11
27
53
69
40
23
15
18
11
27
53
68
38
22
15
18
11
27
55
69
39
22
16
23
11
27
55
68
39
22
16
23
11
26
54
69
39
22
16
23
11
26
55
68
40
22
16
23
11
24
53
68
43
21
15
23
10
24
53
68
43
21
15
23
10
24
54
67
43
21
15
23
10
24
54
67
43
21
15
23
10
24
54
67
43
21
15
23
10
24
54
67
44
21
15
23
10
24
54
68
44
21
16
23
10
25
54
69
45
21
16
23
10
25
54
67
45
19
15
22
10
25
53
67
46
19
15
23
10
25
52
65
47
19
15
23
10
24
52
65
46
19
15
23
10
24
52
65
46
19
15
23
10
24
55
66
47
19
17
23
10
22
54
64
46
19
17
23
10
21
54
62
49
19
17
24
10
21
54
64
49
19
17
24
10
22
54
64
48
19
17
24
10
22
56
63
48
19
17
24
10
22
57
63
49
18
17
24
10
22
57
63
49
18
17
23
9
22
57
65
48
18
17
23
10
22
56
68
48
18
17
24
9
22
56
67
48
18
17
23
9
22
56
68
48
18
17
23
9
22
57
67
49
18
17
24
10
22
58
66
49
18
17
24
10
22
59
65
50
18
17
25
10
23
61
64
50
18
17
28
10
24
63
64
50
18
17
27
10
24
62
65
50
18
17
27
10
24
62
65
49
18
17
27
9
25
64
65
49
18
18
28
9
25
63
66
49
18
18
28
9
25
63
66
48
17
18
27
10
28
63
67
48
17
18
27
10
28
64
67
48
17
18
27
10
27
64
67
48
17
18
27
10
26
64
67
48
16
18
27
10
26
64
68
48
16
18
27
10
26
64
67
48
16
18
27
10
27
65
68
49
16
18
27
10
27
65
67
49
16
18
28
10
27
65
65
49
16
18
28
10
27
65
65
49
16
18
28
10
27
66
64
49
16
18
27
10
27
64
64
48
17
17
23
10
28
66
65
49
17
17
23
10
28
67
67
50
17
18
23
10
28
68
69
52
17
18
23
10
28
69
69
50
18
18
23
10
28
69
69
49
18
18
23
10
28
68
67
49
19
19
25
10
28
69
67
50
19
19
25
10
28
70
67
51
19
19
25
10
28
70
68
51
19
19
25
10
28
70
68
51
19
18
25
10
28
69
67
50
19
18
25
10
27
69
67
50
19
18
25
10
27
69
67
48
19
18
24
10
28
70
68
49
19
18
24
10
30
71
67
49
19
18
24
10
31
72
67
50
19
18
24
10
30
70
68
49
21
16
24
10
30
70
68
49
21
17
24
9
31
71
70
48
21
16
23
10
31
72
69
49
21
16
23
10
31
72
68
49
21
16
23
10
30
71
68
50
21
16
24
10
30
69
67
50
21
16
24
10
30
70
66
49
21
17
24
10
30
70
66
51
21
16
24
10
31
70
66
54
23
17
24
10
31
71
67
54
23
17
24
10
31
72
67
54
23
17
24
10
31
70
67
53
23
17
23
9
34
71
69
53
23
18
23
10
35
70
70
52
23
18
23
10
35
70
72
52
23
18
19
10
34
69
72
52
23
18
19
10
35
69
72
52
23
18
19
10
35
69
71
52
24
18
22
10
34
68
72
52
24
18
24
10
34
68
73
52
24
19
25
10
34
69
73
52
24
19
25
10
32
67
73
51
24
19
25
9
32
66
72
51
24
19
25
9
32
67
73
51
24
19
25
9
33
67
74
51
24
19
25
10
33
67
75
52
25
19
25
10
33
68
76
52
25
20
25
10
33
68
75
52
26
20
25
10
33
69
75
52
25
20
26
10
33
69
76
52
26
20
26
10
33
68
77
52
25
20
26
10
33
67
78
53
26
21
27
10
33
68
79
54
26
21
27
10
33
66
79
52
26
21
27
10
33
65
77
52
26
21
27
10
33
64
76
49
25
21
27
10
34
64
75
49
25
21
27
11
34
65
77
49
25
20
27
11
34
64
77
49
25
20
27
11
34
63
80
50
24
20
27
11
33
64
80
51
24
20
28
11
34
64
81
51
24
20
27
11
34
64
80
51
24
20
28
11
34
64
82
51
24
20
28
11
34
64
83
52
24
20
28
11
34
66
83
52
24
20
29
11
34
64
81
51
24
20
29
11
32
63
82
51
24
20
29
10
32
62
82
50
24
20
29
10
32
62
81
49
22
20
29
10
32
62
81
49
23
20
29
10
32
62
80
48
22
20
29
10
32
61
80
47
22
20
29
10
31
61
79
46
22
20
29
10
31
61
79
45
22
20
28
10
31
61
79
45
22
20
28
10
31
60
79
45
21
20
28
10
31
60
78
43
21
19
28
10
30
60
76
39
18
18
28
10
30
60
77
39
18
18
28
10
31
62
77
39
18
18
28
10
31
62
76
38
18
18
28
10
27
60
74
38
18
18
28
9
25
60
73
38
17
17
28
9
25
59
71
38
17
17
28
9
24
59
71
38
17
17
28
9
24
58
71
37
17
17
28
9
24
58
71
37
16
17
26
9
24
57
71
36
16
16
23
9
24
57
68
36
16
15
22
9
23
56
69
36
16
15
22
9
23
56
68
36
16
15
21
9
23
56
68
36
16
15
21
9
23
55
67
36
15
16
21
8
22
55
65
35
15
16
21
8
22
55
64
34
13
15
21
8
21
52
63
34
13
14
20
8
20
50
62
33
12
16
20
8
20
49
62
33
12
16
20
7
20
49
61
32
12
16
20
7
20
49
60
32
12
17
20
7
19
49
58
30
11
17
19
7
18
47
56
29
10
17
20
6
18
47
56
29
10
17
20
6
18
47
55
29
10
18
19
6
18
46
55
29
10
19
19
6
16
43
55
29
10
21
19
6
16
42
52
28
10
22
20
6
16
42
52
28
10
22
19
5
16
42
49
24
10
24
18
6
16
38
47
20
10
25
19
6
15
38
46
18
10
26
19
5
15
38
45
18
10
27
17
6
15
37
42
17
10
27
17
6
14
36
41
14
9
27
18
6
14
33
40
14
8
27
18
6
14
33
41
14
9
32
17
6
14
33
41
14
9
34
18
6
11
33
40
13
8
34
18
5
11
32
40
13
8
34
18
5
11
31
39
12
7
34
17
5
9
29
36
12
7
34
17
5
8
29
35
12
7
34
18
5
8
28
35
12
7
35
18
5
8
28
35
12
7
35
19
5
8
27
34
12
7
35
19
5
8
27
35
12
7
35
19
5
8
27
34
12
7
35
19
5
8
25
33
12
8
36
19
5
8
22
28
11
8
40
19
5
6
15
28
11
8
41
19
5
6
14
28
11
8
44
19
5
6
13
26
11
8
45
19
5
6
13
27
11
8
45
19
5
6
13
29
11
8
45
20
6
6
13
29
11
8
45
20
6
6
13
29
11
8
46
20
6
6
13
29
11
8
46
20
6
6
11
29
11
8
46
20
6
6
11
29
10
8
46
20
6
6
11
28
10
8
46
21
6
6
11
28
10
8
46
21
7
6
11
28
10
8
46
21
7
6
11
28
9
8
45
21
7
6
11
28
9
8
45
20
7
5
11
28
9
8
45
21
7
5
10
27
9
8
45
21
7
5
10
27
9
8
45
21
7
5
10
27
9
8
45
20
7
5
10
27
9
8
45
22
7
5
10
27
9
8
45
22
7
5
10
27
9
8
45
22
7
5
10
27
9
8
45
22
7
5
10
29
9
8
44
21
7
5
10
30
9
8
44
21
7
5
10
30
9
8
44
21
7
5
10
29
9
8
43
21
7
5
10
29
8
8
43
21
7
5
10
29
8
8
43
21
7
5
10
29
8
8
42
20
7
5
9
28
8
8
41
19
7
5
9
28
8
8
41
23
7
5
9
27
8
8
40
23
7
5
9
28
8
7
40
23
7
5
10
27
8
7
40
23
7
4
10
28
9
7
40
23
7
5
10
27
8
7
37
23
7
5
10
27
8
7
35
23
7
5
10
27
8
7
35
23
7
5
10
27
8
7
35
23
7
5
10
28
8
8
35
23
7
5
10
28
8
8
35
23
7
5
10
28
8
8
35
23
7
5
10
28
8
8
35
23
7
5
10
28
8
8
35
22
7
5
10
28
7
8
35
22
7
5
10
28
7
8
35
22
7
5
9
28
7
8
35
22
7
5
10
28
7
7
34
22
7
4
10
28
8
7
29
23
6
4
9
27
7
8
28
23
6
5
10
27
8
7
24
23
6
5
10
27
8
7
22
23
6
5
10
28
8
7
22
23
6
5
10
27
8
7
22
23
5
5
10
27
8
7
21
24
5
5
10
27
8
7
21
24
5
5
10
27
8
7
21
24
5
5
10
27
8
7
21
24
5
5
10
27
8
7
21
24
5
5
10
27
8
7
21
24
5
5
10
27
8
7
22
24
5
5
10
27
8
7
22
24
5
5
10
27
8
7
22
24
5
5
10
27
7
7
22
24
5
5
10
27
8
7
22
24
5
5
10
27
8
7
22
24
5
5
10
27
8
7
22
25
5
5
10
27
8
7
22
25
4
5
10
27
7
7
22
23
4
5
10
26
7
7
22
23
4
5
10
28
7
6
22
23
4
5
10
28
7
6
22
23
4
5
10
26
7
6
22
24
4
5
10
25
7
6
21
24
4
5
10
25
7
6
21
24
4
5
10
25
7
6
21
24
4
5
10
25
7
6
21
24
4
5
10
25
7
6
20
24
4
5
10
25
7
6
22
24
4
5
10
25
7
6
24
23
4
5
10
25
7
6
24
20
3
6
11
25
8
6
23
22
3
6
11
27
8
6
23
22
3
6
11
27
8
7
24
21
3
6
11
26
7
7
24
21
3
6
11
26
7
7
24
21
3
6
11
26
7
7
24
21
3
6
10
26
7
7
24
21
3
6
11
26
8
7
24
22
3
6
11
26
8
6
23
22
3
6
11
25
8
6
23
22
3
6
11
26
8
6
23
22
3
6
11
26
8
6
23
22
3
6
11
25
8
6
23
22
3
6
11
25
8
6
23
21
3
6
12
25
8
6
23
22
3
6
12
25
8
6
23
24
3
6
12
25
8
6
23
24
3
6
12
26
8
6
22
23
3
6
12
26
8
6
23
23
3
6
11
26
8
6
23
24
3
6
11
26
8
6
23
24
3
6
11
24
8
6
24
23
3
6
11
23
7
6
23
23
3
6
11
24
8
6
23
23
3
6
11
23
8
6
23
23
3
6
11
24
8
6
24
23
3
6
11
24
8
6
24
23
3
6
12
24
8
6
24
23
3
6
12
24
8
6
23
24
3
6
12
24
8
6
23
24
3
6
13
25
8
6
22
24
3
6
13
25
8
6
22
23
3
7
13
25
8
6
22
24
3
7
13
25
8
6
22
24
3
7
13
25
8
6
22
24
3
7
13
24
8
6
22
23
3
7
13
24
8
6
21
23
3
7
13
24
8
6
22
23
3
7
13
24
8
6
22
23
3
6
13
24
8
6
22
23
3
7
13
24
8
6
22
23
3
6
13
24
8
6
22
22
3
6
13
24
8
6
21
22
3
6
13
24
8
6
21
23
3
7
13
24
8
6
21
23
3
7
15
24
8
6
21
23
3
7
15
24
8
6
21
23
3
7
15
24
8
6
19
23
3
7
15
24
8
6
17
23
3
7
15
24
8
6
17
23
3
7
15
24
8
6
16
22
3
7
15
22
7
6
16
22
3
7
15
22
7
6
15
22
3
6
15
22
7
6
15
22
3
6
15
22
7
6
15
22
3
6
15
22
7
5
15
23
3
6
15
22
7
5
15
23
3
6
14
22
7
5
15
22
3
6
14
22
7
5
15
22
3
6
14
22
7
5
14
22
3
6
15
23
7
5
13
22
3
6
15
23
7
5
13
22
3
6
15
23
7
5
14
22
3
6
15
23
7
5
13
22
3
6
14
23
7
5
13
21
3
6
14
23
6
5
13
18
3
6
14
23
6
5
13
18
3
6
14
22
6
4
13
18
3
6
14
23
6
4
11
18
3
6
14
23
6
4
11
18
3
6
14
23
6
4
10
18
3
6
14
23
6
4
10
18
3
6
14
23
6
4
10
18
3
6
14
21
6
4
10
17
3
6
14
21
6
4
10
17
3
6
14
20
6
4
9
17
3
6
14
20
5
4
9
16
3
5
13
20
5
4
9
16
3
5
13
20
5
4
9
15
3
5
13
20
5
4
9
15
3
5
13
20
5
4
9
15
3
5
12
19
5
4
9
15
3
5
12
19
5
4
9
14
3
5
11
19
5
4
9
14
3
5
11
19
5
4
9
14
3
5
12
19
5
4
9
14
3
5
12
19
5
4
9
14
3
5
12
19
5
4
8
14
2
5
12
19
5
4
7
14
2
5
12
17
5
4
7
14
2
5
12
17
5
4
7
14
2
4
12
17
5
4
7
14
2
4
12
18
5
4
7
14
2
4
12
17
5
4
7
13
2
4
12
17
5
4
7
12
2
3
11
17
5
4
7
12
2
3
10
18
5
4
7
11
2
3
10
17
5
4
6
11
2
3
10
17
5
3
6
11
2
3
10
17
5
3
6
11
2
3
10
18
5
3
6
10
2
3
11
17
5
4
6
10
2
3
11
17
5
4
6
9
1
3
11
18
5
4
6
9
1
3
11
18
6
4
6
9
2
3
12
18
6
4
6
6
1
4
13
18
6
4
6
6
2
4
13
18
5
4
6
6
2
4
13
18
6
4
6
6
2
4
13
18
6
4
6
6
2
4
13
17
6
4
6
6
2
4
13
18
6
4
6
5
2
5
13
17
6
4
6
6
2
5
13
17
6
4
6
5
2
5
14
18
7
4
6
6
2
6
14
24
7
5
6
6
2
6
14
29
9
5
6
6
2
6
15
33
12
5
6
5
2
6
16
35
12
5
6
5
2
6
22
37
15
5
5
5
2
6
24
39
20
7
5
5
2
8
24
39
22
9
6
6
2
8
25
39
22
9
6
6
2
8
26
41
25
9
6
6
2
9
26
42
26
9
7
5
2
9
27
42
26
9
6
5
2
10
27
42
26
9
7
6
2
11
29
43
26
10
7
6
2
15
33
42
26
12
9
7
4
16
38
42
26
12
9
7
4
16
40
44
29
12
9
7
5
18
40
46
29
13
10
8
5
18
40
46
29
14
10
8
5
19
40
47
29
14
10
8
5
19
44
50
29
14
10
8
6
21
45
51
30
14
10
8
6
22
45
51
30
16
13
9
6
22
45
53
31
16
15
9
6
23
48
55
32
17
15
9
6
24
49
55
33
17
15
10
6
24
51
58
33
17
15
10
6
24
54
58
33
17
15
10
6
24
56
58
35
19
15
10
6
25
57
60
35
20
16
10
7
25
58
61
35
21
16
11
7
25
58
62
35
21
16
11
7
25
59
62
36
21
16
11
7
26
61
63
37
21
16
11
8
26
61
66
39
21
16
11
8
26
61
68
42
21
17
11
9
26
61
70
43
21
17
11
9
26
62
71
43
21
17
11
9
26
62
73
43
21
17
11
9
27
63
73
43
21
17
11
9
27
63
75
45
22
17
11
9
28
63
76
46
23
17
12
9
29
63
78
49
23
17
12
10
29
63
79
49
23
17
12
10
34
65
79
50
24
19
13
12
34
65
80
50
24
19
13
12
34
66
80
50
25
20
14
12
35
66
80
51
25
20
14
12
36
67
80
52
25
20
16
12
36
67
81
52
26
21
16
12
38
69
81
52
26
21
16
12
38
70
79
52
26
22
16
12
39
70
78
52
27
22
17
12
39
69
76
52
27
22
17
12
40
70
78
52
27
22
17
12
40
68
77
52
27
22
17
12
40
67
76
50
27
23
17
12
40
67
77
49
26
22
17
12
44
67
77
49
27
23
18
13
44
67
78
48
27
23
18
13
44
67
80
48
27
23
18
13
44
67
80
48
27
23
18
13
44
68
80
48
27
23
18
13
44
68
80
48
27
23
18
13
43
67
80
48
26
22
18
13
43
65
80
48
26
22
18
13
43
64
79
49
26
22
18
13
42
64
79
49
26
22
18
13
42
66
79
49
25
21
18
13
42
66
79
50
27
23
20
13
42
64
77
50
27
23
21
13
43
64
76
50
27
23
21
13
43
64
76
51
26
21
21
13
43
64
75
50
25
20
21
13
42
62
74
49
25
20
21
13
43
63
75
49
25
20
21
13
44
63
74
49
25
20
21
14
44
62
74
49
25
21
21
14
44
62
76
48
24
20
21
14
44
62
76
48
23
21
21
14
44
61
76
48
23
21
21
14
44
61
76
48
23
21
21
14
44
61
77
47
23
21
21
14
45
61
76
47
23
22
23
13
45
62
74
45
24
22
23
13
45
62
72
42
23
22
23
13
45
62
70
42
23
22
23
13
45
62
70
42
23
22
24
13
45
64
68
42
24
23
24
13
45
64
68
42
24
23
24
13
45
64
68
41
24
23
24
13
44
64
66
39
23
23
24
13
44
65
64
35
23
23
24
13
44
66
65
35
22
23
24
12
40
65
65
35
21
21
24
11
40
64
64
35
21
21
24
11
40
63
65
35
21
21
23
12
39
65
65
34
21
21
24
12
39
66
65
32
21
20
22
12
39
66
66
32
20
20
22
12
37
66
68
32
20
19
24
12
37
66
68
32
20
19
24
12
38
66
68
33
19
18
23
11
38
66
69
31
19
18
23
11
38
66
69
32
19
18
24
12
38
68
68
32
19
18
24
12
38
68
69
32
19
18
24
12
37
70
69
32
19
18
24
12
33
71
68
33
18
17
24
11
33
73
67
33
18
17
24
11
33
73
64
33
18
17
24
11
33
73
65
34
18
17
24
11
33
72
66
34
18
18
24
10
34
72
66
34
18
18
25
10
34
72
67
34
18
17
24
10
33
71
67
34
18
18
24
10
33
72
67
31
18
18
24
10
33
72
67
31
18
18
24
10
33
70
69
31
18
18
24
10
33
70
69
30
16
17
24
10
32
71
70
30
16
17
23
10
30
70
72
29
16
17
23
9
31
70
72
28
17
18
24
9
30
70
72
28
18
19
25
9
30
71
72
28
18
19
25
9
29
70
71
28
18
19
25
9
27
68
70
29
18
19
24
9
27
68
70
29
18
19
25
9
27
67
68
29
19
19
25
9
27
67
67
30
18
18
25
9
27
66
68
31
19
18
25
9
27
66
67
31
18
18
24
9
27
66
69
31
18
18
25
9
26
64
69
31
18
18
23
8
25
64
70
31
18
17
23
9
26
64
70
33
19
18
25
9
27
65
69
33
19
17
25
9
27
65
68
33
19
18
24
9
26
62
70
35
18
18
25
8
27
63
72
39
19
18
25
9
27
63
72
39
19
18
26
8
27
63
71
39
19
18
26
9
28
62
71
39
20
18
26
9
28
62
72
42
20
19
27
9
28
63
74
44
20
19
26
8
29
64
74
44
20
19
27
8
29
64
73
45
20
19
26
8
29
63
74
45
20
19
26
8
29
62
73
45
20
19
27
8
28
62
72
45
20
19
27
7
28
59
70
45
20
19
26
7
28
60
71
46
20
19
26
8
29
61
71
48
21
19
26
9
28
63
72
48
21
20
26
9
28
62
70
48
21
20
26
9
28
61
72
48
21
21
28
9
28
61
72
49
21
21
28
9
28
59
73
49
21
21
28
8
27
59
72
49
21
21
28
8
27
57
72
49
21
21
28
8
28
57
72
48
21
21
28
9
28
57
71
48
21
21
28
9
28
58
71
48
21
22
27
9
28
57
71
48
21
23
27
9
28
57
70
48
21
23
27
9
28
57
70
48
21
23
27
9
28
60
71
48
21
22
27
9
28
60
72
48
21
22
27
9
29
59
71
48
22
22
27
9
29
60
72
48
22
22
26
9
29
60
70
48
22
22
26
9
29
60
69
49
22
22
27
9
28
60
70
50
21
22
25
9
29
60
70
50
21
21
25
9
29
61
71
50
21
21
25
9
29
61
71
50
21
21
25
9
29
61
71
51
21
21
25
9
30
59
72
51
21
21
25
9
32
60
73
53
21
21
25
9
32
61
73
53
21
21
25
10
34
63
73
53
20
21
25
10
33
63
74
53
20
21
25
10
33
63
72
54
20
21
24
10
33
64
72
54
20
21
25
10
33
64
72
53
20
21
25
10
33
65
73
52
19
21
23
10
33
65
73
51
20
21
23
10
33
65
73
51
20
20
23
10
33
66
71
50
20
20
22
9
33
65
69
47
18
19
22
9
33
65
69
47
19
19
21
9
33
68
71
47
19
20
21
9
32
69
71
49
19
20
21
9
32
68
69
48
19
20
20
9
32
68
70
46
19
21
21
9
32
69
68
46
19
21
21
9
32
69
69
46
19
21
21
9
32
69
68
46
19
21
21
9
32
70
69
46
19
21
20
9
32
70
68
46
19
21
20
9
34
72
68
46
19
22
19
10
34
71
69
46
19
22
19
10
32
71
70
44
18
22
19
9
32
69
69
44
18
22
22
9
33
69
69
44
18
22
22
9
33
69
67
44
18
22
20
9
33
69
67
43
18
22
20
9
33
69
66
43
18
21
21
9
34
68
68
43
18
21
21
9
34
68
68
44
18
21
21
9
34
67
68
44
17
22
21
9
34
68
68
44
17
23
21
9
33
67
68
45
17
24
21
9
33
67
69
45
17
23
21
9
33
69
71
46
18
24
22
9
33
70
72
46
18
24
22
9
33
68
71
46
18
24
22
9
33
68
70
46
18
24
22
9
33
69
69
46
17
24
22
9
33
69
68
47
18
24
22
9
33
69
70
48
18
24
22
9
33
69
70
46
17
24
22
9
33
69
70
47
17
24
22
9
32
68
70
48
17
23
22
9
32
68
70
48
17
23
22
9
32
69
71
48
17
23
23
9
32
68
70
49
17
23
23
9
32
68
70
48
16
23
23
9
30
68
68
46
16
23
22
9
31
69
67
46
16
23
22
9
29
68
65
46
16
23
22
8
29
69
67
46
16
23
23
8
29
69
67
46
16
23
23
8
29
68
68
46
16
23
23
8
29
68
68
46
17
24
23
8
29
67
67
46
17
24
24
8
29
68
69
46
17
24
24
8
29
68
69
45
16
25
24
8
29
68
69
45
16
25
25
8
29
69
68
46
16
25
25
8
29
68
69
46
17
25
26
8
28
66
67
46
16
24
25
8
28
64
67
44
17
24
26
8
29
63
67
44
17
24
26
9
29
63
65
42
16
23
26
9
28
62
66
42
16
23
26
9
28
62
66
42
16
23
26
9
27
62
66
43
16
23
26
9
27
61
67
45
16
23
26
9
28
61
69
45
15
23
27
9
25
60
69
45
15
23
28
8
25
61
67
44
15
23
28
8
23
61
66
43
15
23
28
8
23
61
66
43
16
25
27
8
24
61
67
43
16
26
27
8
24
64
67
43
16
25
27
8
24
65
66
43
16
25
27
8
24
64
66
43
16
25
26
8
24
65
67
43
17
25
27
8
24
64
67
43
17
26
29
8
24
63
67
45
17
25
29
8
24
63
66
46
17
24
29
8
24
64
66
45
16
24
29
8
24
64
66
45
16
24
30
8
23
62
66
45
16
23
28
8
24
63
64
44
16
23
28
8
24
62
65
45
16
23
30
8
24
62
65
45
16
23
30
8
24
61
65
44
16
23
29
7
24
61
67
44
16
23
29
7
24
62
65
44
16
23
30
7
25
63
64
44
16
23
29
7
25
63
63
43
16
23
29
7
25
63
63
42
16
23
29
7
25
62
63
43
16
23
29
7
25
64
62
43
16
23
29
7
25
65
62
40
16
23
29
7
25
65
63
39
16
24
29
7
25
65
63
40
16
24
29
7
24
64
63
41
16
24
29
7
23
64
63
40
16
24
29
7
23
64
61
40
16
24
29
7
23
64
61
40
16
24
29
7
23
65
60
40
16
24
29
7
23
65
60
40
15
24
29
7
23
66
60
40
15
25
28
7
23
65
58
40
15
24
27
7
22
65
59
40
15
24
27
7
22
64
59
41
15
24
26
6
21
63
59
40
16
24
27
6
21
63
58
40
14
24
27
6
21
64
58
40
14
24
27
6
21
64
58
40
14
24
26
6
21
64
58
40
14
24
26
6
21
63
58
40
14
24
26
6
21
63
57
40
13
24
26
6
21
63
58
40
13
24
26
6
22
63
57
39
15
24
26
6
22
63
56
37
15
24
26
6
21
62
54
36
15
24
25
6
21
62
53
36
15
24
24
6
21
61
53
36
15
24
24
6
21
59
53
36
15
24
24
6
21
59
53
36
14
23
22
5
20
59
52
35
14
22
22
5
20
56
52
35
13
22
22
5
20
55
52
35
13
22
22
5
18
55
52
35
13
22
22
5
18
55
49
35
13
24
21
5
18
55
49
32
13
25
19
5
17
55
48
29
13
25
19
5
17
54
48
29
13
25
19
5
17
53
48
28
13
25
18
5
17
53
47
28
13
26
17
5
17
53
45
27
13
26
17
5
16
50
45
27
13
28
18
5
16
50
43
26
13
28
16
5
16
49
44
26
13
30
16
5
15
49
44
25
13
32
16
5
15
49
41
23
12
32
17
5
15
47
41
23
12
32
17
5
13
46
40
23
13
32
17
5
13
46
40
21
12
33
18
5
13
45
40
21
12
33
18
5
12
45
39
21
12
34
18
5
11
42
39
21
12
34
17
5
11
39
38
21
12
34
17
5
11
39
36
21
11
34
17
5
11
39
36
19
12
35
17
5
11
38
36
17
12
36
17
6
11
35
36
17
12
35
18
6
11
35
36
17
12
36
19
6
10
30
36
16
12
38
19
6
10
28
36
16
13
40
19
6
10
27
36
16
13
42
21
6
10
25
36
16
13
41
21
6
10
23
34
15
13
42
21
6
10
22
32
15
13
42
21
6
10
22
32
14
13
42
21
7
10
22
32
13
12
42
20
7
10
22
31
12
12
41
20
7
9
20
30
12
12
42
20
7
9
19
30
12
12
42
20
7
9
19
30
11
12
42
20
7
9
19
32
11
12
42
20
7
9
18
32
11
13
45
20
7
9
17
29
11
13
47
20
7
6
11
29
10
11
47
20
6
6
9
30
10
11
47
21
6
6
9
30
10
12
50
21
6
6
9
30
10
12
49
21
6
6
9
30
10
12
50
21
6
6
9
30
10
12
50
21
6
6
9
28
10
12
49
21
6
6
9
28
10
12
50
21
6
5
9
29
9
12
50
21
6
5
9
29
9
12
50
21
6
5
9
29
8
12
50
21
6
5
10
29
8
11
49
21
6
5
10
29
8
11
49
21
6
5
10
30
8
11
49
21
6
5
10
29
8
11
49
21
6
5
10
29
8
11
49
21
6
5
10
29
8
11
48
21
6
5
10
29
8
11
49
21
6
5
10
29
8
11
48
20
6
5
10
29
8
11
48
22
6
5
10
28
8
11
48
22
6
5
9
28
8
11
46
22
6
4
9
27
8
11
46
22
6
4
9
26
8
10
46
22
6
5
9
26
8
10
46
22
6
4
9
26
8
10
45
21
6
4
9
26
7
10
46
21
6
4
9
26
7
10
45
21
6
5
9
26
7
10
45
21
6
5
9
26
6
10
45
21
6
5
9
26
6
10
45
21
6
5
9
25
6
10
44
22
5
5
9
25
6
10
43
21
5
5
9
25
6
10
44
21
5
5
9
26
6
10
43
20
5
5
9
25
6
9
41
20
5
5
9
25
6
8
39
20
5
5
9
26
6
8
38
19
5
5
9
26
6
8
38
19
4
4
10
27
6
8
37
19
4
4
10
27
6
8
37
19
4
4
10
27
6
8
37
19
4
4
9
27
6
8
37
19
3
4
9
28
6
8
37
19
3
4
9
28
6
8
37
19
3
4
9
27
6
8
37
19
3
4
9
27
6
8
38
21
3
4
9
26
5
8
38
22
3
4
9
26
5
8
35
25
3
4
9
26
5
8
32
25
3
4
9
25
5
8
33
25
3
4
9
23
5
8
32
25
3
4
9
23
5
7
29
25
3
4
9
23
5
8
30
25
3
4
9
23
5
8
30
25
3
4
9
23
5
8
30
25
3
4
10
23
5
8
30
25
3
4
10
22
5
7
27
25
3
5
10
22
5
7
27
24
3
5
10
22
5
7
27
24
3
5
10
21
5
8
27
25
3
5
10
21
5
8
27
26
3
5
10
21
5
8
27
26
3
4
10
21
5
8
27
26
3
5
10
22
5
8
27
26
3
5
10
22
5
8
26
26
3
5
10
21
5
8
26
26
3
4
10
21
5
7
24
26
3
4
10
21
5
7
25
27
3
4
10
21
4
7
25
25
3
4
10
21
4
7
25
26
3
5
10
21
4
7
25
26
3
5
10
21
4
7
25
26
3
5
10
20
4
7
25
27
3
5
10
20
4
7
25
27
3
5
10
20
4
7
25
27
3
5
10
20
4
7
25
27
3
5
10
20
4
7
24
27
3
5
10
19
5
7
25
27
3
4
10
19
4
7
25
27
3
4
10
19
4
8
25
26
3
4
10
19
4
8
25
26
3
4
10
19
4
7
25
26
3
4
9
18
4
7
24
26
3
5
10
18
4
7
24
26
3
5
10
18
4
7
24
27
3
5
10
18
4
7
24
26
3
5
10
17
4
7
24
25
2
5
10
17
4
7
24
25
2
5
10
15
4
7
24
26
2
5
10
15
4
7
24
27
2
5
10
15
4
7
24
27
2
5
10
15
5
6
24
27
2
5
10
15
5
6
24
27
2
5
10
15
5
6
24
28
2
5
10
15
5
6
23
28
2
5
10
15
5
6
20
26
2
5
10
15
5
6
19
25
2
5
10
16
5
6
19
22
2
5
10
16
5
6
19
22
2
5
10
16
5
5
19
22
2
5
10
16
4
5
18
21
2
5
10
16
5
5
18
21
2
5
10
16
5
5
18
21
2
5
10
17
5
5
16
21
2
5
10
17
5
5
17
21
2
5
10
17
5
5
17
21
2
5
9
17
5
5
17
22
2
5
9
16
5
5
16
23
3
5
9
16
5
5
17
26
3
5
9
17
5
5
17
25
3
5
9
18
5
5
16
24
3
5
9
17
5
5
16
25
3
5
9
17
5
5
16
25
3
5
9
16
5
5
17
25
3
5
9
16
5
5
16
25
3
5
9
17
5
5
16
25
3
5
9
17
5
5
16
24
3
5
9
17
5
5
14
23
3
5
9
17
5
5
14
23
3
5
9
17
5
5
14
23
3
5
9
17
5
4
14
22
3
5
9
17
5
4
14
22
3
5
9
17
5
4
13
21
3
5
9
17
5
4
13
21
3
5
9
17
5
4
13
21
3
5
9
17
5
4
13
21
3
5
9
17
5
4
13
21
3
5
9
17
5
4
12
21
3
5
9
17
5
4
13
22
3
5
9
18
5
4
12
22
3
5
9
18
5
4
12
22
3
5
9
18
5
4
12
22
3
5
9
18
5
4
11
21
3
5
8
18
5
4
11
22
3
5
8
18
6
4
11
21
3
5
8
18
5
4
12
22
3
5
8
19
6
4
11
22
3
5
8
19
6
4
11
22
3
5
9
20
6
4
11
21
3
5
9
20
6
4
11
19
3
5
9
20
5
4
11
19
3
5
8
21
6
4
11
19
3
5
8
21
6
4
11
19
3
5
9
21
6
5
11
19
3
5
9
21
6
5
11
18
3
5
8
21
6
5
11
18
3
4
8
21
6
5
11
18
3
4
8
21
6
5
11
18
3
4
8
21
6
5
11
18
2
4
8
20
7
4
10
18
2
4
8
20
7
4
10
18
2
4
8
20
6
4
10
18
2
4
8
20
6
4
10
18
2
4
7
20
6
5
10
18
2
4
7
20
6
4
9
18
2
4
7
20
6
4
9
18
2
4
7
21
6
5
9
17
2
4
8
21
6
4
9
15
2
4
8
21
6
4
8
11
1
4
8
20
6
4
8
10
1
4
7
19
6
4
8
10
1
4
7
19
7
5
8
10
1
3
7
19
7
5
7
9
1
3
7
19
7
4
7
9
1
3
7
19
7
4
7
9
1
3
7
19
7
4
7
9
1
3
7
18
7
4
7
9
1
3
7
18
7
4
7
9
1
3
7
18
7
4
7
9
1
3
7
18
7
4
7
9
1
3
7
19
7
4
7
9
1
3
8
20
7
4
7
9
1
3
8
24
7
5
7
9
1
3
9
24
7
5
7
9
1
3
9
24
7
5
7
9
2
3
9
24
7
5
7
9
2
3
9
24
7
5
7
9
2
3
9
25
7
4
6
9
1
3
9
25
7
4
5
7
1
3
9
25
7
4
5
5
1
3
9
24
7
4
5
5
1
3
9
25
7
4
5
5
1
3
9
25
7
4
5
5
1
2
9
25
7
4
5
4
1
2
9
25
7
4
5
4
1
2
9
25
7
4
5
2
1
2
9
24
7
4
5
2
1
2
8
24
6
4
5
2
1
2
8
23
6
4
5
2
1
2
8
23
7
4
5
2
1
2
8
23
7
4
5
2
1
2
8
22
7
4
5
2
1
2
8
22
7
4
5
2
1
2
8
23
7
4
5
2
1
2
8
23
6
4
5
2
1
2
8
23
6
4
5
2
1
2
8
23
7
4
4
2
1
2
8
23
6
4
4
2
1
2
8
24
6
4
4
2
1
3
8
24
6
4
4
2
1
3
8
24
6
4
5
2
1
3
9
24
6
4
5
2
1
3
9
24
6
4
5
2
2
3
9
25
6
4
5
2
2
3
9
25
7
4
5
2
2
3
10
25
7
4
5
2
2
3
10
25
7
4
5
2
2
4
10
26
7
4
5
2
2
4
10
28
7
4
5
2
2
4
10
28
7
4
5
2
2
4
11
29
7
4
5
2
2
4
11
29
7
4
5
2
2
4
11
29
7
4
6
2
2
4
11
29
7
4
6
2
2
4
11
32
8
4
6
2
2
4
11
37
8
4
6
2
2
4
12
37
8
4
6
2
2
4
12
38
8
5
7
3
2
4
13
39
8
5
7
3
2
4
13
40
8
5
7
3
2
4
13
39
8
5
7
3
2
4
13
39
8
4
7
3
2
4
12
37
8
4
7
3
2
4
14
36
8
4
7
3
2
4
14
36
10
5
7
3
2
4
15
37
11
5
9
3
2
5
15
37
11
5
9
3
2
5
15
37
11
5
9
3
2
5
16
38
12
6
9
4
2
6
18
40
14
7
10
4
3
6
19
40
15
7
11
4
3
6
19
41
15
7
11
4
3
7
19
42
15
8
11
4
3
7
20
42
15
8
11
4
3
7
21
42
15
8
11
4
3
7
22
45
15
8
11
4
3
7
23
45
15
8
12
4
3
8
23
46
15
8
12
4
3
8
26
49
19
8
12
4
3
8
28
50
20
8
12
4
3
8
29
51
20
8
13
4
3
8
29
51
22
8
13
4
3
9
32
51
22
9
13
4
3
9
34
54
26
9
13
4
3
9
36
54
26
9
13
4
3
9
36
55
27
9
13
4
3
11
40
55
27
10
14
5
3
12
41
55
27
11
14
6
4
12
43
55
29
11
14
6
4
13
43
56
29
12
15
6
4
13
43
58
29
12
15
6
4
13
45
58
29
12
15
6
4
13
46
58
29
12
15
6
4
14
47
58
32
12
15
6
4
14
48
58
32
12
15
6
4
18
50
59
33
13
15
6
4
19
50
59
34
13
15
7
4
19
50
60
35
13
15
7
4
20
50
62
35
14
15
7
5
20
50
62
36
14
15
7
5
20
53
63
38
14
15
7
5
20
53
64
40
14
15
7
5
20
53
65
40
15
15
8
5
20
53
65
40
15
15
8
5
21
55
64
40
15
15
8
5
22
55
62
42
15
15
8
5
22
55
63
42
15
15
8
5
22
55
63
42
15
15
8
6
24
57
65
44
16
15
8
6
24
58
65
44
16
15
8
6
24
61
65
44
16
15
8
6
24
61
68
45
16
15
9
6
24
61
68
46
16
15
9
6
24
60
69
46
17
15
9
6
24
63
69
46
17
15
9
6
26
65
69
46
16
14
9
7
26
65
70
47
16
14
9
7
26
67
70
47
17
14
9
7
26
67
70
47
16
14
9
7
27
67
69
46
16
13
9
7
27
67
70
47
16
13
9
7
27
69
69
47
18
14
9
7
28
70
69
47
18
14
9
7
28
70
69
47
18
14
9
7
29
70
69
49
18
13
9
7
29
70
67
49
19
14
10
7
29
70
67
50
19
13
10
7
32
71
67
51
19
13
10
8
32
71
65
51
19
13
10
8
32
70
64
53
20
13
10
8
33
70
65
56
21
13
10
8
33
71
66
57
21
13
10
8
33
70
66
57
21
13
10
8
33
69
64
58
21
12
10
8
33
69
65
58
21
13
10
9
34
68
65
58
21
12
10
9
33
67
66
58
21
12
10
9
33
69
66
58
20
11
10
9
33
70
66
58
20
11
10
9
33
70
66
58
20
11
10
9
33
70
66
58
20
11
10
9
33
69
66
58
20
11
10
10
33
68
66
59
20
11
10
10
34
69
67
58
20
11
10
10
34
69
66
58
21
12
10
10
32
68
67
57
21
12
10
10
31
70
67
58
21
12
10
10
33
71
66
58
21
12
10
11
35
73
64
58
21
13
10
11
36
74
65
58
21
13
10
12
36
72
64
57
22
13
11
12
37
72
65
56
22
13
11
12
37
72
64
56
21
13
11
12
37
72
63
56
21
13
11
12
36
71
64
56
21
13
11
12
36
72
63
55
22
13
11
12
36
72
64
55
22
13
11
12
36
73
66
55
22
13
11
12
36
72
64
54
22
13
11
12
37
74
66
54
22
13
11
12
37
72
66
54
22
13
11
12
38
73
66
57
22
13
11
12
38
73
68
56
22
13
11
12
39
74
67
56
23
13
11
12
40
73
67
56
23
13
11
13
40
71
67
56
24
13
12
13
40
73
66
56
24
13
12
13
40
73
67
56
24
13
12
13
40
73
66
56
24
13
12
13
40
75
68
57
24
13
12
13
40
74
69
57
24
13
12
13
40
73
70
57
23
13
12
13
40
72
71
57
23
12
12
13
40
72
71
57
23
12
12
13
39
72
70
56
23
12
13
13
39
72
71
55
22
12
13
13
39
72
71
55
22
12
13
13
38
72
71
54
22
12
13
13
37
72
71
53
22
12
13
13
37
72
71
51
21
12
13
13
38
74
72
50
20
12
13
13
38
73
72
48
20
12
13
13
38
74
72
47
20
12
13
13
38
74
72
44
20
12
13
13
38
75
71
44
20
12
13
13
38
77
73
45
20
12
13
13
38
77
72
45
20
12
13
12
38
75
72
46
20
12
13
12
38
74
74
46
20
12
13
12
38
74
74
47
20
12
13
12
38
75
74
47
20
12
13
12
38
75
74
48
20
12
13
11
38
75
74
48
20
12
14
11
38
74
74
47
21
12
15
11
38
74
75
47
20
11
16
11
38
74
74
48
20
11
16
11
38
73
75
46
20
11
16
11
36
72
75
46
20
11
16
11
35
70
74
46
20
10
16
10
33
70
75
47
20
10
16
9
33
70
77
46
19
10
16
10
33
70
75
46
19
10
16
10
33
70
75
46
19
9
16
10
33
70
75
46
19
10
16
10
33
70
75
46
19
10
17
10
33
70
75
46
20
10
17
9
34
69
75
47
22
11
17
10
34
68
74
48
22
11
17
10
33
70
75
47
21
11
17
10
33
69
73
47
21
11
17
10
32
69
72
48
22
11
17
10
31
68
71
46
21
11
17
10
31
67
71
45
21
11
17
10
31
66
71
45
20
11
17
10
29
66
72
46
20
11
17
9
28
66
74
46
20
11
17
9
28
64
76
46
20
12
18
9
27
64
76
46
20
12
18
9
27
65
77
46
20
12
18
9
26
63
75
45
20
12
18
9
26
63
74
45
20
12
18
10
27
63
74
47
20
12
18
10
27
63
73
47
20
12
18
10
27
63
74
47
20
12
18
10
26
63
74
47
20
12
18
10
26
63
74
47
20
12
18
10
26
65
73
47
20
12
18
10
26
65
74
47
20
12
18
10
27
67
74
48
21
12
18
10
27
68
73
48
20
12
18
10
25
66
72
46
20
12
18
10
25
67
73
46
20
12
18
10
25
66
72
46
20
13
18
10
25
66
74
47
21
13
18
10
25
67
74
47
21
13
18
10
25
65
72
47
21
13
18
10
25
63
72
47
21
13
18
10
24
63
71
46
20
13
18
10
24
64
69
46
20
13
19
10
24
63
68
45
20
14
22
10
24
63
68
44
21
14
22
10
26
64
68
43
21
14
23
11
26
67
69
44
21
14
23
11
26
67
71
45
21
14
22
11
26
66
71
47
21
14
21
11
26
66
71
47
21
14
21
11
26
65
71
47
21
14
21
10
26
66
71
47
20
14
21
10
26
67
71
49
20
14
21
10
26
67
71
50
20
14
21
10
26
69
69
50
20
14
21
11
26
69
69
50
21
14
21
11
26
70
72
51
22
15
21
11
27
71
71
51
22
14
21
11
28
73
71
51
22
14
21
11
29
75
73
52
21
14
21
11
28
75
71
50
19
14
20
10
28
75
72
50
19
13
20
10
29
75
73
50
19
13
20
10
28
75
73
53
18
13
20
10
28
76
74
53
18
14
20
10
28
77
74
52
18
14
20
10
28
77
73
52
19
14
20
10
28
77
72
53
18
14
20
10
28
79
73
52
18
13
20
10
29
79
72
52
18
13
20
10
29
80
70
53
18
13
19
10
29
79
70
52
18
13
22
10
29
78
69
52
17
13
22
10
29
77
70
52
17
13
22
10
29
78
70
52
17
13
22
9
28
78
69
51
17
13
22
9
28
80
69
51
17
13
22
9
28
79
70
50
17
13
22
9
28
80
71
51
17
13
22
9
28
79
71
51
17
13
22
9
28
78
71
51
17
13
22
9
29
77
71
51
17
13
22
9
29
75
71
50
17
13
22
9
29
74
72
50
17
14
22
9
29
73
71
50
17
14
22
9
29
72
70
50
17
14
23
9
29
74
71
50
17
13
23
9
29
73
70
49
16
13
23
9
29
72
71
49
16
13
24
9
30
73
71
50
17
13
25
9
32
73
71
51
17
13
25
9
33
73
71
50
17
13
25
9
34
72
72
50
17
12
24
9
34
73
72
50
17
12
22
9
34
73
72
50
17
12
25
9
33
72
73
50
16
11
24
9
33
71
71
49
16
11
24
9
33
73
69
49
17
11
24
9
33
73
68
47
17
11
24
9
33
73
67
48
17
11
26
9
33
74
68
49
18
13
28
9
33
74
70
51
18
14
27
9
34
74
70
49
18
14
28
9
34
72
69
47
18
14
28
10
35
73
69
47
18
15
29
10
35
73
69
48
17
15
29
9
35
71
67
48
17
15
29
9
34
71
67
48
18
15
30
9
32
69
67
48
18
15
30
9
32
67
65
47
17
15
30
9
32
68
66
47
17
15
30
9
32
68
67
47
17
15
30
9
32
67
66
48
17
15
30
9
32
66
66
45
17
15
30
9
32
64
65
44
17
15
31
9
32
64
65
44
17
15
31
9
32
64
64
43
17
14
31
9
32
63
65
42
17
15
32
9
32
62
63
42
17
15
32
9
32
61
64
43
18
16
32
9
32
60
64
43
18
16
32
9
32
60
67
45
18
16
30
9
32
61
67
46
18
16
30
9
32
62
66
46
18
16
30
9
32
62
67
45
19
16
30
9
32
61
67
45
19
16
30
9
33
60
68
46
19
16
30
9
33
60
66
46
19
16
30
9
33
60
67
46
18
16
30
9
33
60
67
46
18
16
30
9
33
60
67
46
18
15
30
9
32
59
68
46
18
15
30
9
32
59
68
47
18
15
30
9
32
60
68
47
18
15
30
9
32
61
70
49
18
15
31
9
32
61
71
49
18
15
31
9
32
60
69
48
19
16
32
9
32
60
69
48
19
16
33
9
32
60
68
48
19
16
32
9
31
60
68
48
18
16
31
9
29
60
69
48
18
16
31
8
28
60
69
49
19
16
31
8
28
62
70
49
19
16
31
8
28
63
69
49
18
16
31
8
28
61
69
49
18
16
29
8
28
61
69
49
18
16
29
8
28
60
69
49
19
17
29
8
29
58
69
49
18
17
28
8
28
58
69
48
18
17
29
8
28
61
69
48
18
17
27
8
27
60
67
46
17
15
26
7
28
61
66
44
17
15
26
8
27
62
68
44
18
15
25
8
26
63
68
44
18
16
25
7
26
62
68
44
17
15
24
7
26
62
67
43
17
15
24
7
26
62
67
42
18
15
26
7
26
61
67
42
17
15
25
7
26
61
67
43
18
15
25
7
26
61
66
43
18
15
25
7
26
61
67
43
18
15
25
8
28
63
65
44
18
15
25
7
27
62
65
44
19
15
25
7
27
61
65
45
19
15
25
7
27
61
64
45
19
15
24
8
27
60
64
47
19
15
24
8
27
63
64
47
19
15
24
8
28
65
64
47
19
15
23
8
28
65
64
47
19
15
22
8
28
65
63
47
18
14
23
8
28
65
64
46
18
14
23
7
28
65
62
44
18
14
22
7
27
64
61
43
17
13
22
7
27
64
61
44
17
14
23
7
27
65
61
44
17
14
23
7
27
65
63
44
17
13
23
7
26
63
61
43
17
13
22
7
26
63
62
43
17
13
22
6
26
64
60
43
17
13
22
6
26
64
60
44
17
13
22
6
27
64
60
43
17
13
22
6
26
64
59
43
17
13
22
6
25
64
60
43
17
13
22
6
24
64
58
42
17
13
21
6
24
64
58
40
17
13
20
6
24
63
57
40
17
13
20
6
24
63
57
40
17
12
17
6
24
63
57
40
16
12
16
6
24
63
57
40
16
12
16
6
24
63
56
39
16
11
16
6
24
63
56
38
16
11
16
6
23
63
56
37
16
11
16
6
23
61
55
36
16
11
16
6
22
59
54
37
16
11
16
6
22
59
55
37
16
11
16
6
22
59
55
37
15
11
16
6
22
59
55
37
15
10
15
6
21
58
55
37
15
10
15
6
21
58
54
36
14
10
15
6
21
55
55
35
14
12
15
6
20
54
55
35
14
15
15
6
20
51
53
35
14
17
16
6
20
49
50
35
13
17
17
5
20
48
50
35
13
17
16
5
19
46
50
35
13
25
16
5
18
46
50
34
13
25
17
6
18
46
50
34
12
25
16
6
18
46
50
34
11
25
17
5
18
46
50
33
11
26
18
6
18
46
52
33
11
28
18
5
18
44
50
32
10
28
17
5
14
42
50
31
11
32
17
6
14
41
49
29
9
35
17
8
14
41
49
28
10
35
17
8
14
41
48
27
10
35
17
8
14
41
48
25
9
36
17
8
13
37
48
24
10
38
18
8
12
32
48
25
11
39
18
8
12
31
48
25
11
39
18
8
11
31
48
24
11
41
18
8
11
31
46
24
11
43
19
8
10
30
45
24
11
44
19
8
10
29
44
24
11
44
20
9
9
29
45
22
11
45
22
11
9
26
44
21
12
48
23
11
9
26
43
21
12
50
23
11
9
26
41
21
12
50
23
11
9
26
41
20
12
50
23
11
9
23
41
20
12
50
23
11
9
23
41
18
12
51
23
11
9
22
40
18
12
52
23
11
9
22
40
17
12
52
23
11
8
22
40
17
12
52
23
11
8
21
39
16
12
52
23
11
8
20
37
16
12
52
23
11
8
20
37
16
12
52
23
11
8
19
37
16
12
52
23
11
7
18
35
16
13
54
24
11
7
18
35
15
13
54
24
11
7
16
35
15
13
54
24
11
7
16
34
15
13
55
24
11
6
14
34
15
13
55
24
11
6
14
34
15
13
55
25
11
6
14
34
14
13
55
26
11
6
12
32
13
13
55
26
11
6
12
32
13
13
56
26
11
6
11
32
13
13
56
26
11
6
11
32
13
13
56
26
11
6
11
32
13
13
56
26
11
6
11
31
13
13
56
26
11
6
12
32
13
13
55
26
11
6
12
32
13
13
55
26
11
6
12
32
13
13
54
25
11
6
12
32
13
13
54
25
11
6
12
32
13
13
51
25
11
6
12
32
13
13
53
24
11
6
12
32
13
13
53
23
11
6
12
32
13
13
53
23
11
6
11
32
13
13
52
22
11
6
11
29
12
13
52
22
11
6
11
29
12
13
51
22
10
6
11
29
12
12
49
22
10
6
11
29
12
12
47
22
9
6
11
29
12
12
47
22
9
5
11
29
12
12
47
22
9
5
11
29
12
12
47
22
9
5
11
29
12
11
45
21
8
5
11
29
11
10
44
21
8
5
11
25
9
10
44
21
8
5
11
26
9
10
43
21
8
5
11
26
9
10
41
19
8
5
10
24
9
10
40
19
8
5
10
24
9
10
40
19
7
5
10
24
9
10
38
15
4
5
10
24
9
9
35
15
4
5
10
22
9
9
32
15
4
5
10
22
8
8
32
15
4
5
10
22
8
8
32
15
4
4
9
21
8
8
32
15
4
4
9
22
7
8
31
15
4
4
9
21
7
8
30
15
4
4
9
22
7
8
30
16
4
4
9
23
7
8
30
16
4
4
9
22
7
8
30
15
4
4
9
22
7
7
30
15
4
4
9
22
7
7
30
17
4
4
9
22
6
7
30
17
4
4
9
22
7
7
28
17
4
4
9
22
6
7
28
16
3
4
9
22
6
7
28
15
3
4
9
22
6
6
26
15
3
4
9
22
6
6
26
15
3
4
9
22
6
6
25
14
3
4
9
22
7
6
25
13
3
4
9
22
6
6
25
14
3
4
10
22
6
7
25
13
3
4
10
22
6
7
25
13
3
4
9
22
6
7
25
13
3
4
10
22
6
7
25
13
3
4
10
22
6
7
25
13
3
4
10
21
6
7
25
13
3
4
9
21
5
6
25
14
3
4
9
22
6
6
25
17
3
4
9
21
6
6
25
17
3
4
9
21
6
6
25
17
3
3
9
22
6
6
22
17
3
3
9
22
6
6
22
17
3
3
9
22
6
6
21
17
3
3
9
22
6
6
21
17
3
3
9
22
6
6
21
17
3
3
9
22
6
6
21
17
3
3
9
22
6
6
20
17
3
3
9
22
6
6
20
17
3
3
9
22
6
6
19
17
3
3
9
22
6
6
19
17
3
4
9
22
6
7
21
17
3
4
9
23
6
7
21
18
3
4
9
22
6
7
21
18
3
4
9
22
6
7
21
18
3
4
9
21
6
7
21
19
3
4
9
22
6
7
21
20
3
4
9
22
6
7
21
20
3
4
9
21
6
7
21
20
3
4
10
21
6
7
21
20
3
4
10
21
6
7
21
19
3
4
10
21
6
7
21
19
3
4
10
21
6
7
21
19
3
4
10
21
6
7
21
20
3
4
10
21
6
7
20
20
3
4
11
22
6
7
20
20
3
5
11
22
6
7
20
20
3
5
11
22
6
7
20
20
3
5
11
21
6
7
20
20
3
5
11
21
6
7
20
20
3
5
11
21
6
7
20
20
3
5
11
20
6
7
19
19
3
5
11
20
6
7
20
18
3
5
11
20
6
7
19
18
3
5
11
19
6
7
19
18
3
5
11
19
6
7
19
18
3
5
11
19
6
7
19
18
3
5
11
19
6
7
19
18
3
5
10
19
6
7
19
18
3
5
10
19
6
7
19
18
2
5
10
19
6
7
19
19
3
5
10
18
6
6
18
20
3
5
10
18
6
6
18
20
3
5
10
18
6
6
18
21
3
5
9
18
6
7
17
21
3
5
9
18
6
7
18
22
3
5
9
18
6
7
17
22
3
5
9
18
6
7
17
22
3
5
9
17
5
7
16
19
3
5
10
17
5
7
16
19
3
5
9
17
5
7
16
20
3
5
10
17
5
6
16
20
3
5
9
16
5
6
16
20
3
5
10
17
5
6
16
20
3
5
9
17
5
6
16
20
3
5
9
17
5
6
16
20
3
5
9
17
5
6
16
20
3
5
9
17
5
6
16
20
3
5
9
17
5
6
16
20
3
5
9
17
5
6
16
20
3
5
9
17
5
6
16
20
3
5
9
17
5
6
14
20
3
5
9
15
5
6
14
20
3
5
9
15
5
6
13
21
3
5
9
16
5
6
13
21
3
5
9
16
5
5
12
20
3
5
9
15
5
5
12
20
3
5
9
16
5
5
12
20
3
5
9
18
6
5
12
20
3
5
8
18
6
5
12
21
2
5
8
18
6
5
12
21
3
5
8
18
6
5
12
21
2
5
9
19
6
5
12
21
3
5
9
19
6
5
12
21
3
5
9
19
6
5
11
21
2
5
8
18
6
5
11
21
3
4
8
18
6
5
11
20
2
4
8
18
6
5
11
20
2
4
8
18
6
4
11
20
3
4
8
18
6
5
11
20
3
4
8
18
6
5
13
20
3
4
8
18
5
5
13
20
3
4
7
18
5
5
12
20
3
4
7
18
6
5
12
20
3
4
7
18
6
4
12
20
3
4
7
18
6
4
12
20
3
4
7
18
6
4
12
20
3
4
7
18
6
4
12
20
3
4
7
19
5
4
12
20
3
4
7
18
5
4
12
20
3
4
7
18
5
4
12
19
2
4
7
18
5
4
12
18
2
4
7
18
5
5
12
18
2
3
7
18
5
4
11
17
2
3
7
18
5
4
11
17
2
3
7
18
5
4
10
15
2
3
7
18
5
4
10
15
2
3
7
18
6
4
10
15
2
3
8
18
6
4
10
15
2
3
7
18
6
4
10
14
2
3
7
19
6
4
10
13
2
3
7
18
6
4
10
13
2
2
7
18
6
4
10
13
2
2
7
18
6
4
10
13
2
2
7
18
6
4
10
13
2
2
7
18
6
4
10
12
2
2
7
18
6
4
10
12
2
2
7
19
6
4
10
12
2
2
6
19
6
4
9
12
2
2
6
19
6
4
9
12
2
2
6
19
6
4
9
12
2
2
6
19
6
4
9
12
2
2
6
19
6
4
9
12
2
2
7
19
6
4
9
10
1
3
7
19
6
4
9
10
1
3
8
19
6
4
9
9
2
3
8
19
6
4
9
7
2
3
8
19
6
4
9
7
2
3
9
17
6
4
9
6
2
3
10
19
6
4
9
6
2
3
12
19
6
5
9
6
2
4
14
21
7
5
9
6
2
4
14
23
8
5
9
5
2
4
16
26
8
5
9
5
2
4
17
26
10
5
9
5
2
4
18
27
10
5
9
5
2
4
18
27
10
5
9
5
2
4
18
27
10
5
8
4
2
4
19
28
11
5
8
4
2
4
19
28
11
5
8
4
2
5
19
29
12
6
5
3
2
5
19
28
12
6
5
3
2
5
19
29
12
6
5
3
2
5
19
30
12
6
4
3
2
5
19
33
14
6
4
3
2
5
20
33
14
6
4
3
2
5
20
35
14
6
4
3
2
6
21
36
15
6
4
3
2
7
25
39
17
6
4
3
3
7
25
39
17
7
4
3
3
7
26
39
17
7
5
3
3
8
27
43
19
7
5
3
3
9
28
46
19
8
5
4
3
9
29
47
21
8
8
4
4
9
29
48
21
8
8
4
4
11
31
48
21
9
8
5
4
12
34
50
22
10
8
5
4
12
35
50
22
10
9
5
5
12
38
50
22
11
9
5
5
14
40
51
22
11
9
5
5
14
40
51
23
11
9
5
5
14
42
53
23
12
9
6
5
14
42
54
23
12
10
6
5
14
42
55
25
12
10
6
5
15
43
58
28
12
10
6
6
15
44
59
31
13
11
6
6
15
45
59
32
13
11
6
6
15
46
59
32
13
11
6
6
16
47
60
32
14
11
7
7
16
49
60
32
15
13
8
8
16
52
60
32
16
16
8
8
17
52
61
32
16
16
8
8
17
52
62
34
16
16
8
8
17
53
65
35
16
16
8
8
17
53
65
36
16
16
8
8
18
54
68
36
16
16
8
8
19
56
68
36
17
16
8
8
19
56
68
37
17
17
8
8
19
57
68
39
17
17
8
9
19
57
68
41
17
17
8
9
20
58
68
41
17
17
9
9
20
58
67
43
17
17
9
10
20
58
69
43
17
17
9
10
21
60
68
43
17
17
9
10
22
62
68
43
19
18
10
10
23
63
68
43
19
18
10
10
23
63
68
43
19
18
10
10
23
66
69
44
21
18
10
10
23
65
69
45
21
18
10
10
23
67
70
45
21
18
10
10
23
67
70
45
21
18
10
10
23
69
71
45
21
18
11
10
23
71
71
45
21
18
11
10
24
71
72
45
21
18
12
10
24
71
71
46
21
18
12
10
24
71
71
48
21
18
12
10
24
71
72
48
21
19
12
10
24
73
71
47
21
19
12
10
24
71
71
47
21
19
12
10
24
72
72
47
22
19
13
10
25
71
72
47
24
20
14
10
25
72
70
47
24
20
14
10
24
72
69
47
24
20
14
10
24
71
70
46
24
19
14
11
24
71
69
46
24
19
14
11
24
71
69
47
24
19
14
10
23
70
68
47
23
19
14
10
24
70
69
47
24
18
14
10
24
69
69
49
24
18
14
10
24
69
68
49
24
18
14
10
24
69
68
49
24
18
14
10
24
68
67
49
24
18
14
10
24
68
67
49
24
18
14
10
24
68
66
48
24
18
14
10
25
68
64
47
24
18
14
11
25
68
65
46
24
18
14
11
25
67
65
45
24
18
14
11
25
66
66
46
24
18
14
11
25
66
65
46
24
18
13
10
25
64
65
46
23
16
13
9
24
62
65
46
23
14
13
9
25
64
67
46
23
13
13
9
27
66
67
47
23
14
13
10
27
67
67
48
23
14
13
10
27
67
66
47
23
14
13
10
27
67
65
47
23
14
13
10
26
66
67
48
23
14
13
10
26
69
66
47
23
14
13
10
26
68
67
46
23
14
13
10
26
68
67
44
23
14
13
10
26
68
68
45
23
13
13
10
26
67
69
43
23
13
13
10
25
67
68
43
25
14
13
10
25
65
68
43
25
14
13
10
24
63
69
43
24
13
13
10
24
62
69
43
24
13
13
10
24
62
69
43
25
14
13
11
24
60
70
44
25
14
13
11
24
60
70
45
25
14
13
11
25
60
70
45
25
14
13
11
25
61
70
45
25
14
13
11
25
58
68
45
25
14
12
11
25
58
70
45
25
14
12
11
25
59
71
46
25
14
12
11
25
59
71
45
26
14
12
11
25
61
72
43
25
14
12
11
26
62
71
44
25
13
12
11
26
62
71
43
25
13
12
11
26
62
72
44
25
13
12
11
26
62
73
44
24
13
11
12
26
63
74
45
23
12
10
12
26
65
75
45
22
12
10
12
26
64
74
45
22
12
10
12
27
66
74
45
23
12
10
12
27
67
74
44
23
12
10
12
27
67
75
44
23
12
10
12
28
68
75
44
23
12
10
12
30
70
75
45
23
13
11
12
29
69
76
44
23
12
11
12
29
68
77
44
23
12
12
12
29
68
77
44
23
12
12
12
29
68
77
44
23
12
12
12
29
68
77
45
23
12
12
12
29
70
78
44
23
12
12
12
28
69
80
44
24
13
12
11
28
70
79
44
23
13
12
12
28
71
79
44
24
13
12
11
28
71
78
44
23
13
12
11
28
72
80
44
23
13
12
11
28
72
80
44
23
13
12
12
28
74
80
44
23
13
12
12
27
72
79
43
23
13
12
12
26
70
78
42
23
12
12
11
26
69
77
40
23
12
12
11
27
69
77
40
22
12
12
11
27
69
77
43
22
12
13
11
27
68
77
44
22
12
13
11
27
67
78
44
22
12
13
11
27
69
78
44
22
12
13
11
29
69
78
44
22
12
13
11
28
68
78
43
22
12
13
10
29
70
79
43
22
12
13
10
29
70
78
43
20
11
13
10
29
71
77
43
20
11
13
10
28
73
78
43
20
11
13
10
29
73
79
43
20
11
13
9
29
73
79
43
17
10
13
9
28
73
77
41
17
10
13
9
28
73
78
40
17
10
13
9
28
73
80
42
17
10
13
10
28
73
81
45
17
10
13
10
29
73
81
46
17
10
13
10
28
71
81
47
16
10
13
9
28
71
79
45
16
10
13
9
28
70
78
45
16
10
13
9
28
69
78
46
16
10
13
9
28
69
80
46
16
10
13
10
28
67
80
47
16
10
13
10
28
67
79
46
16
10
13
9
27
69
78
47
16
10
13
8
26
69
77
48
16
9
13
9
26
66
77
48
16
10
13
9
26
67
77
48
16
10
13
9
26
66
77
48
15
9
13
8
26
66
77
48
16
10
14
8
28
67
76
49
16
10
14
8
26
67
76
50
15
10
14
9
24
66
76
50
15
10
14
8
25
66
75
48
15
10
13
8
25
66
74
48
15
10
13
8
25
66
74
48
15
10
13
8
25
67
74
48
14
10
13
9
24
68
75
48
14
10
13
9
25
69
73
48
14
10
13
9
26
69
72
48
14
9
12
8
26
68
71
48
15
10
13
8
26
68
70
48
14
10
13
8
26
69
70
48
14
10
13
8
26
68
69
48
14
10
13
8
26
68
68
48
14
10
13
8
26
66
68
48
14
10
13
8
26
66
69
49
15
10
13
8
26
66
70
49
15
10
13
9
27
68
70
50
15
10
13
9
26
68
69
49
14
10
12
9
25
66
70
47
15
10
11
8
25
66
70
45
15
10
11
8
26
66
70
45
15
10
11
8
26
66
70
46
15
10
11
8
25
67
70
46
16
11
11
8
25
69
69
47
16
11
11
9
24
68
70
47
17
11
12
9
24
69
72
47
17
11
12
9
25
68
71
47
16
11
12
8
25
68
69
48
16
11
12
9
25
70
68
47
16
11
12
9
25
70
68
47
16
10
11
9
25
72
68
47
16
10
11
9
25
73
67
48
16
10
11
9
25
71
64
45
16
10
11
8
25
71
63
42
16
10
11
8
25
71
63
41
16
10
11
8
25
73
61
41
16
10
11
8
25
73
61
41
16
10
11
8
25
73
63
41
16
10
11
8
25
74
62
40
16
10
11
7
24
73
61
41
16
10
11
7
24
73
61
41
16
10
11
7
24
73
63
42
16
10
11
7
24
71
62
42
16
10
10
7
24
71
62
39
16
10
9
7
25
72
62
39
17
10
10
7
25
71
62
39
17
10
10
7
25
70
63
39
17
11
11
7
25
71
64
38
16
10
10
7
23
70
65
37
16
10
10
7
23
68
64
36
16
9
9
7
22
68
63
36
16
9
9
7
22
69
64
37
15
9
9
7
24
71
64
36
15
9
9
7
24
71
64
36
15
9
9
7
24
71
64
36
15
9
9
7
24
69
63
36
15
9
9
7
23
69
65
36
15
9
9
7
24
71
66
37
16
9
9
7
24
71
67
36
15
8
9
7
24
71
66
36
15
9
10
7
24
71
67
36
15
9
10
7
24
71
67
36
15
9
10
7
24
71
67
36
15
9
10
7
24
71
69
36
15
9
11
7
24
72
68
35
15
9
11
7
24
72
67
36
15
9
11
7
22
70
68
35
15
9
11
7
22
71
68
36
15
9
11
7
22
71
67
36
14
9
11
7
22
71
65
37
14
9
11
7
22
71
65
37
14
9
11
7
21
70
64
37
14
10
11
7
22
69
64
37
14
9
11
7
22
67
65
36
14
9
11
7
22
67
63
35
12
9
11
7
21
66
63
38
12
9
11
7
20
66
64
38
12
9
11
7
21
64
64
38
12
9
11
7
21
63
64
38
12
9
11
7
21
61
65
38
12
9
11
7
21
59
65
40
12
9
11
7
20
58
65
40
12
9
11
7
20
58
65
39
12
9
11
7
21
58
66
39
13
9
11
7
21
58
66
41
13
9
12
7
21
57
66
40
12
9
12
7
21
56
65
41
13
9
12
7
21
56
64
41
13
9
13
7
21
55
64
40
13
9
13
8
21
55
63
39
13
9
13
8
21
55
62
39
13
9
14
8
21
55
61
39
13
9
14
8
22
55
61
37
13
10
14
8
22
55
63
39
13
10
14
8
21
55
61
41
13
10
14
8
21
56
63
41
13
10
14
8
22
56
62
41
13
10
13
8
21
56
61
41
13
10
13
9
22
56
61
41
13
10
13
8
22
56
63
42
14
10
14
8
24
55
64
42
13
10
14
9
24
54
63
42
14
10
14
9
22
52
64
42
14
10
14
9
22
52
64
42
14
10
15
9
22
52
65
42
14
10
15
9
22
52
67
43
14
10
15
9
22
50
65
43
14
11
16
9
21
47
66
42
13
11
17
9
21
46
66
42
13
11
16
9
22
46
66
42
13
11
16
9
22
47
67
43
13
11
16
9
21
46
67
43
13
11
16
9
21
46
67
43
13
11
16
9
21
48
65
44
13
11
16
8
22
50
65
44
13
11
16
8
22
50
66
44
13
11
16
8
22
50
65
44
13
10
16
8
22
50
64
44
14
10
16
8
22
51
64
44
14
10
16
8
22
52
64
43
14
10
16
8
23
52
64
43
14
10
16
8
22
52
64
43
14
10
16
8
22
51
65
43
14
10
16
8
22
52
63
43
14
10
16
8
22
52
63
43
14
10
16
8
22
51
61
40
14
10
16
8
22
51
61
40
15
11
16
8
22
50
62
40
15
11
16
8
21
50
63
40
15
11
16
8
21
51
62
40
15
11
16
8
22
51
62
38
15
11
16
8
22
52
63
37
15
11
16
8
22
53
63
38
15
11
16
8
22
53
62
38
15
11
16
8
22
53
62
36
15
11
16
8
21
54
62
36
15
11
16
8
21
55
62
35
15
11
16
7
21
55
62
35
14
11
15
7
21
55
62
35
14
10
15
7
21
55
63
35
14
10
15
7
21
55
63
36
14
10
14
7
21
55
63
37
14
10
14
7
20
55
63
37
14
10
14
7
20
55
61
35
14
10
14
6
20
53
61
33
13
10
14
6
20
53
59
33
13
10
14
7
19
52
60
34
13
9
14
6
19
51
60
34
13
9
14
6
19
51
60
33
12
9
14
6
19
50
57
32
13
10
14
6
16
50
56
32
13
10
13
5
16
50
57
32
13
10
13
5
16
49
57
32
13
10
13
5
16
49
57
32
13
10
13
5
15
49
55
32
13
10
13
5
15
49
53
31
12
11
13
5
15
48
52
30
12
10
12
5
15
48
51
30
12
10
11
5
15
48
50
30
12
10
12
5
15
48
50
30
12
11
12
5
14
46
50
28
12
13
12
5
14
46
49
26
12
14
13
5
14
46
49
26
12
14
13
5
14
44
50
26
12
16
16
6
13
40
50
26
12
16
16
6
13
40
48
24
12
16
16
6
13
40
48
23
12
17
16
6
13
39
51
22
12
18
16
6
12
38
50
22
11
19
16
6
12
36
50
22
11
19
16
6
11
35
50
21
11
21
16
6
11
32
51
20
11
21
17
6
11
32
50
21
11
22
17
6
11
32
50
21
11
22
17
6
11
32
50
21
11
22
17
6
11
31
50
21
10
22
17
6
10
31
49
21
10
23
17
6
10
31
48
21
10
25
18
6
10
31
48
21
10
25
18
6
10
31
48
20
10
25
18
6
10
30
49
20
10
25
18
7
8
28
48
20
10
25
18
6
9
26
50
20
10
25
18
7
9
26
50
20
10
26
18
7
9
26
49
20
10
26
19
7
9
22
49
20
10
27
19
7
9
19
49
20
10
27
19
7
9
18
49
20
10
28
19
7
9
18
50
20
10
29
19
7
9
18
47
18
10
31
19
7
9
18
47
16
10
31
19
7
9
18
47
16
11
33
19
7
9
16
47
15
11
35
19
7
9
16
47
15
11
35
19
7
9
16
47
14
11
36
19
7
8
15
47
14
11
36
20
7
8
15
45
12
11
36
20
7
8
15
45
12
11
36
20
7
8
15
45
12
11
37
20
7
8
14
45
12
11
38
20
7
8
14
44
12
11
38
20
7
8
15
44
11
11
38
20
7
8
15
43
10
11
38
20
7
8
14
43
10
11
38
20
8
8
14
43
10
11
38
20
8
8
15
43
10
11
38
19
8
8
15
43
10
11
38
19
8
8
14
43
10
11
38
19
8
7
14
43
10
11
38
19
8
7
15
43
10
10
38
18
8
7
16
43
10
10
38
18
8
7
16
44
10
10
37
18
8
7
16
44
10
10
37
18
8
7
16
42
10
10
36
17
8
7
16
42
10
10
37
21
8
7
16
42
10
10
37
21
8
7
16
42
10
10
36
21
8
7
16
38
10
10
36
21
8
7
16
39
10
10
36
21
8
7
17
39
10
10
36
21
8
7
16
39
10
10
34
21
8
7
16
38
10
10
34
20
7
7
16
37
10
10
34
20
7
7
16
37
10
10
34
20
7
7
16
37
10
10
34
20
7
7
16
37
9
10
34
20
7
7
16
37
9
10
33
20
7
7
16
37
9
10
32
19
7
7
15
37
9
10
32
19
7
7
15
36
10
10
31
20
7
7
15
34
9
10
31
20
6
7
15
33
9
9
31
20
6
6
14
31
9
9
31
20
6
6
14
31
9
9
31
20
6
6
14
31
9
9
31
20
6
6
14
31
9
9
30
20
6
6
14
31
9
9
30
20
6
6
14
30
9
9
30
20
6
6
14
30
9
9
30
20
6
6
13
30
9
9
28
20
5
5
13
30
9
9
27
20
5
5
13
29
8
8
26
20
5
5
13
29
8
8
23
20
5
5
13
30
9
8
23
20
5
5
13
29
9
8
21
20
5
5
13
29
9
8
21
20
5
5
13
29
9
8
21
20
5
5
13
29
9
8
21
20
5
5
13
28
9
7
19
20
5
5
13
28
9
7
17
20
5
5
13
28
9
7
17
20
5
5
13
28
9
7
17
20
5
5
13
28
9
8
17
20
5
5
13
28
9
8
17
20
3
5
13
28
9
8
17
22
4
5
13
28
9
8
17
24
4
5
13
28
9
8
16
24
3
5
13
28
9
8
16
24
3
5
13
28
9
8
17
24
3
5
12
26
9
8
17
25
3
5
10
25
8
7
16
24
3
5
10
23
8
7
16
25
3
4
10
22
8
8
16
25
3
4
10
22
8
8
16
23
3
4
9
21
8
7
15
20
3
4
9
22
8
7
15
20
3
4
9
22
8
7
15
20
3
4
8
22
8
7
16
20
3
4
8
21
8
7
15
20
3
3
7
20
8
7
15
20
3
3
7
20
8
7
15
20
3
3
7
20
8
7
15
20
3
3
7
20
8
7
16
20
3
3
7
20
8
7
16
22
3
3
7
19
8
7
16
22
3
4
7
19
8
7
16
22
3
4
7
19
8
7
17
22
3
3
8
19
8
7
17
22
3
3
8
18
7
7
17
22
3
3
8
18
7
7
17
21
3
3
8
18
7
7
17
21
3
3
8
18
7
7
17
21
3
3
8
18
7
7
17
22
3
3
8
18
7
7
17
22
3
3
8
18
7
7
17
22
3
3
9
18
7
7
17
22
3
3
8
18
7
7
16
22
3
3
8
19
7
7
16
22
3
3
8
20
7
6
15
22
3
3
8
20
7
6
15
22
3
3
9
20
7
6
14
22
3
3
9
20
7
6
14
22
3
3
8
21
7
6
14
22
3
3
9
19
6
6
14
21
3
3
9
19
6
6
14
21
3
3
9
19
6
6
14
21
3
3
9
19
6
6
14
21
3
3
9
19
6
6
15
26
3
3
9
19
6
7
15
28
3
3
9
19
6
7
15
28
3
3
9
19
6
7
15
28
3
3
9
18
6
7
15
28
3
3
9
18
5
6
15
28
3
3
9
18
5
6
15
28
3
3
9
18
5
6
14
27
3
3
9
18
5
6
14
25
3
3
9
18
6
7
15
26
3
3
9
18
6
7
15
27
3
3
9
17
5
6
14
27
3
3
9
17
5
6
14
27
3
3
9
17
5
6
15
28
3
3
9
17
5
6
15
28
3
3
9
17
5
6
14
28
3
3
9
17
5
6
14
28
3
3
9
17
5
6
15
28
3
3
9
18
5
6
15
28
3
3
9
17
5
6
14
28
3
3
9
17
5
6
14
28
3
3
10
17
5
6
14
28
3
3
10
17
5
6
14
28
3
3
10
17
5
6
14
28
3
3
10
17
5
6
14
28
3
3
9
17
5
6
14
28
3
3
9
17
5
6
13
27
3
3
10
18
5
6
13
27
3
3
10
18
5
6
13
27
3
3
10
18
5
6
12
27
3
3
10
17
4
6
12
27
3
3
10
17
5
6
12
26
3
3
10
18
5
6
12
26
3
3
10
17
5
6
12
26
3
3
10
17
5
6
12
27
3
3
10
18
5
6
12
28
3
3
10
18
5
6
12
27
3
3
10
18
5
6
12
28
3
3
9
17
5
6
12
28
3
3
10
17
5
6
11
28
3
3
10
16
4
6
11
28
3
3
10
16
4
6
12
29
3
3
10
16
5
6
12
29
3
3
10
16
5
6
12
29
3
3
10
15
4
6
12
29
3
3
10
15
4
6
12
29
3
3
10
15
4
6
12
29
3
3
10
14
4
6
12
29
3
3
10
14
4
6
13
29
3
3
10
15
4
6
13
29
3
3
10
15
4
5
12
25
3
3
10
15
4
5
12
22
3
3
10
15
4
5
12
23
3
3
10
15
4
5
12
23
3
3
10
15
4
5
12
23
3
3
10
15
4
5
12
22
3
3
10
15
4
5
12
22
3
3
10
15
4
5
12
22
3
3
10
15
4
5
12
22
3
3
10
16
4
5
12
21
3
3
10
15
4
5
11
20
3
3
10
15
4
5
11
20
3
3
10
15
4
5
11
20
2
3
10
15
4
5
10
19
2
3
10
16
5
5
10
19
3
3
10
16
5
5
10
19
3
3
9
15
5
5
10
19
3
3
9
15
5
5
10
19
3
3
9
15
5
5
10
18
3
3
9
16
5
5
10
18
3
3
9
16
5
5
10
18
2
3
9
16
5
5
10
18
2
3
10
16
5
5
10
17
2
3
10
16
5
5
10
17
2
3
10
16
5
5
10
17
2
3
10
16
5
5
10
17
2
3
10
15
5
5
10
17
2
3
10
15
5
5
10
17
2
3
9
15
5
5
10
17
2
3
9
15
5
5
10
17
2
3
9
15
5
5
10
17
2
3
9
15
5
5
10
17
2
3
9
15
5
5
10
17
2
3
9
15
5
5
9
17
2
3
9
15
5
5
9
16
2
3
9
15
5
5
9
14
2
3
9
15
5
5
9
14
2
3
9
15
5
5
9
14
2
3
9
15
5
5
9
13
2
3
9
16
5
5
9
13
2
3
9
16
5
5
9
13
2
3
9
15
5
5
8
10
2
3
9
15
5
5
8
10
2
3
9
15
5
5
8
10
2
3
9
15
5
5
8
10
2
3
9
15
5
5
7
9
2
3
9
15
5
5
7
9
2
3
9
15
5
5
7
9
2
3
9
15
5
5
7
9
2
3
10
15
5
5
6
9
2
3
11
15
5
5
5
9
2
3
11
15
5
4
5
8
2
3
11
15
5
4
5
8
1
3
11
15
5
4
4
8
1
3
13
15
5
4
4
8
1
3
17
15
5
4
4
8
2
3
17
15
5
4
4
8
2
3
17
15
5
4
4
7
2
3
17
15
5
4
4
7
2
4
17
15
6
4
4
7
2
4
17
15
6
4
4
7
2
4
20
16
6
4
4
6
2
4
22
17
6
4
4
6
2
5
23
17
6
4
4
6
2
6
25
16
6
4
4
4
2
6
26
17
6
4
4
4
2
6
26
17
6
4
4
4
2
6
26
17
6
4
4
3
2
6
28
18
6
4
4
3
2
7
30
18
6
4
4
3
2
6
30
18
6
4
4
3
2
7
31
19
6
4
4
3
2
7
31
19
6
4
3
3
2
7
31
19
7
4
3
2
2
7
31
20
7
4
3
2
2
7
31
22
7
4
3
2
2
7
31
22
7
4
3
2
2
7
32
23
7
4
3
2
2
7
32
24
7
4
3
2
2
7
32
24
7
4
3
2
2
7
32
24
7
4
3
2
2
7
32
24
7
4
3
2
2
7
32
24
7
4
3
2
2
7
32
26
7
4
3
2
2
7
32
28
8
4
3
2
2
7
32
30
10
4
3
2
2
7
32
34
10
4
3
2
2
7
32
37
11
4
3
2
2
7
33
38
11
5
3
2
2
7
36
41
13
5
3
2
2
8
39
43
14
5
3
3
3
8
39
43
14
6
3
3
3
8
40
44
15
6
4
3
3
9
40
45
15
6
4
3
3
9
40
45
15
6
4
3
3
10
41
48
15
7
4
3
3
10
42
48
15
7
5
3
3
10
42
48
15
8
5
3
3
11
42
48
15
8
7
4
3
11
42
48
15
8
7
4
3
11
42
48
16
8
8
4
3
12
44
49
16
9
8
4
4
12
44
50
16
9
8
4
4
12
44
50
16
9
8
4
4
13
44
50
18
9
8
5
4
13
43
51
18
9
8
5
4
13
43
52
18
10
9
5
4
15
46
52
18
10
9
5
5
16
47
52
21
10
10
5
5
16
49
52
21
10
11
6
5
16
50
53
21
10
11
6
5
16
50
54
21
11
14
6
5
16
51
54
21
11
14
6
5
17
52
54
23
11
14
7
5
21
52
54
24
12
14
7
6
21
53
54
24
12
15
7
6
21
54
55
24
13
16
10
6
21
55
57
26
13
16
10
7
21
55
57
27
13
16
10
8
21
53
58
28
13
16
10
8
22
55
58
30
14
16
10
8
23
57
58
31
14
18
10
8
23
59
58
31
14
18
10
8
24
62
59
32
15
19
10
8
26
64
59
36
15
20
10
9
26
64
60
37
16
20
10
9
27
65
60
37
16
20
10
9
28
65
60
37
16
20
11
10
28
65
60
37
16
20
11
10
29
65
61
37
17
20
11
10
29
66
62
38
17
20
11
10
30
67
62
39
17
20
11
10
31
68
63
40
17
20
12
10
31
68
62
42
17
23
12
10
31
70
61
42
17
23
13
11
32
71
63
42
17
24
13
11
32
72
61
44
18
24
14
11
32
74
62
45
19
24
14
12
32
74
61
45
19
26
14
12
32
73
59
44
19
26
14
12
32
72
59
44
19
26
15
12
32
72
60
45
19
26
15
12
34
73
61
46
19
26
15
12
34
72
60
46
20
26
15
12
34
72
62
47
20
26
15
12
33
72
60
47
21
26
16
13
33
72
60
47
21
26
16
13
34
72
61
47
21
27
16
13
34
74
62
48
21
26
16
13
35
74
62
48
23
27
18
13
35
73
63
48
23
27
18
13
35
72
64
48
23
28
18
13
38
73
63
48
23
28
18
14
39
73
63
48
23
28
18
14
39
74
63
47
23
28
18
14
40
76
63
48
23
28
18
14
40
76
63
49
23
27
18
14
40
74
64
49
23
27
18
14
39
74
67
51
23
27
18
14
39
74
68
52
23
27
18
14
39
73
68
52
23
27
18
14
39
72
68
54
23
26
17
14
39
72
68
56
24
26
17
14
39
71
69
56
24
26
17
14
37
71
69
56
23
26
17
14
38
72
69
56
23
25
17
14
38
71
69
56
23
25
16
14
38
70
68
55
22
25
16
13
38
71
69
55
22
25
17
12
38
72
68
55
23
25
17
13
38
72
69
54
22
24
17
13
37
70
68
54
22
23
17
13
37
68
69
54
22
23
17
13
37
65
68
54
22
22
17
13
36
65
70
51
21
22
17
12
35
65
69
51
21
22
17
12
35
65
69
51
21
22
17
12
36
67
70
52
21
21
17
13
36
67
70
53
21
21
17
13
36
69
70
53
21
21
17
13
37
71
72
52
21
22
17
13
37
70
71
51
21
21
17
13
36
70
71
51
21
21
16
13
36
71
73
49
21
19
16
13
36
69
73
50
22
18
15
12
36
67
72
49
21
18
15
12
37
67
73
48
21
18
15
12
37
66
72
48
20
18
14
11
37
67
72
48
20
16
14
11
37
66
72
48
20
16
15
12
37
66
73
50
20
15
14
12
38
66
73
50
20
15
14
12
36
65
72
52
20
15
14
11
37
65
72
52
20
15
14
12
37
65
73
52
20
16
15
12
38
66
73
52
19
15
14
12
38
67
74
53
19
15
14
11
38
66
73
53
19
15
14
11
38
66
72
53
19
15
14
11
37
66
72
53
17
14
14
11
37
68
71
53
17
14
14
11
38
69
70
53
17
12
13
11
34
70
70
53
17
12
13
10
34
70
70
54
17
12
13
10
34
69
71
55
17
12
13
10
32
67
71
55
18
12
13
10
33
68
70
54
18
12
13
10
32
68
70
54
18
12
13
10
32
68
70
51
19
12
13
10
34
67
69
51
19
12
13
11
34
67
68
51
19
12
14
11
34
68
68
49
19
13
14
11
35
69
68
46
19
13
13
11
34
69
67
46
19
12
13
11
34
69
67
46
19
12
14
11
34
67
67
46
19
12
14
11
34
67
67
46
20
13
14
11
35
69
69
46
20
13
15
11
36
69
68
46
20
13
18
11
35
67
68
46
20
13
18
11
35
67
68
46
20
13
18
11
35
68
69
47
20
13
18
11
35
69
68
47
20
13
19
11
35
71
70
47
20
13
19
11
35
70
68
47
20
13
20
11
37
70
68
48
20
13
20
11
37
69
68
47
20
14
20
11
35
67
68
47
20
14
20
11
35
69
69
45
20
14
20
11
35
68
67
45
20
14
20
11
34
66
65
45
20
13
20
10
33
66
66
45
20
13
20
10
33
67
67
45
20
13
20
10
33
66
65
46
19
13
20
10
33
66
65
45
19
13
20
10
33
67
63
45
19
13
20
10
32
66
62
45
19
13
20
10
31
66
62
44
19
12
21
10
32
67
62
45
19
14
21
11
31
67
63
45
19
13
21
10
32
68
61
43
18
13
22
10
31
68
60
42
18
14
24
11
31
69
59
40
18
14
24
11
31
70
61
39
19
14
25
10
31
72
59
40
18
13
24
10
31
74
59
42
18
13
24
11
31
74
58
41
18
13
24
10
30
74
59
40
18
14
25
11
30
74
60
41
18
14
25
11
30
75
62
41
17
13
25
11
32
74
62
40
17
13
24
11
32
73
62
40
17
13
24
11
32
73
64
40
17
13
24
11
32
74
65
40
17
13
24
11
31
74
65
38
17
13
25
10
31
75
66
37
17
13
25
10
31
74
68
37
17
13
25
10
31
74
68
39
16
13
25
10
31
74
67
39
16
14
25
10
32
75
68
39
15
14
25
10
32
75
67
39
15
15
26
10
35
76
67
39
15
15
26
11
34
75
67
39
16
16
26
11
35
74
67
40
17
16
27
11
35
75
68
40
17
16
27
11
35
75
69
39
16
16
27
11
34
75
69
38
16
16
27
11
34
73
68
39
16
16
26
11
33
73
68
39
15
15
24
11
33
75
70
42
15
16
24
11
33
75
70
42
16
17
24
11
33
76
71
41
16
17
24
11
34
75
71
42
17
19
24
11
35
73
69
41
17
19
24
11
35
73
71
42
17
19
23
11
35
74
71
41
17
20
23
11
35
74
71
41
17
20
23
11
35
75
71
42
17
20
23
11
35
76
70
42
16
21
23
11
36
76
70
43
17
21
24
13
36
76
70
43
17
21
24
12
36
76
69
43
17
21
24
12
36
77
71
43
17
25
24
12
36
78
71
43
17
29
25
12
37
78
71
43
17
29
25
12
38
78
71
43
17
29
26
12
38
80
73
44
17
29
26
12
40
79
72
43
17
30
26
12
40
78
72
42
17
30
26
12
40
78
71
42
17
30
26
12
40
78
71
42
17
30
25
12
40
79
71
42
17
29
23
12
40
78
71
41
17
29
23
12
40
77
70
41
17
29
23
12
39
75
71
40
17
30
23
12
41
74
70
40
17
29
23
12
41
75
70
39
17
30
23
12
41
75
70
39
17
29
22
12
41
75
69
39
17
30
22
12
41
74
67
38
17
30
22
12
39
75
69
39
17
30
23
12
40
75
70
42
17
30
23
12
40
73
69
41
17
30
23
12
40
73
70
43
17
30
23
12
42
74
69
43
16
31
24
12
43
74
69
43
16
31
24
13
43
74
67
43
16
31
24
13
43
74
68
41
16
31
24
13
43
75
66
42
17
30
23
13
42
76
68
42
17
30
23
13
42
76
67
43
16
30
23
13
39
74
68
42
16
30
23
12
39
74
67
43
16
30
23
12
39
74
68
42
15
31
23
12
39
74
67
42
16
31
23
12
40
75
65
42
17
32
24
12
40
75
68
43
17
32
24
12
41
75
67
43
17
32
24
13
41
75
67
42
17
32
24
12
42
74
65
41
17
32
24
12
42
74
65
41
17
32
27
13
42
73
63
43
17
32
28
13
41
74
63
42
17
31
28
13
41
75
64
43
17
31
28
13
41
75
62
42
17
31
28
12
39
75
62
42
17
31
28
12
39
76
62
42
17
31
28
12
39
74
62
42
17
31
28
12
38
72
63
42
17
31
28
12
38
71
62
41
17
32
27
11
38
71
62
41
17
32
27
11
38
70
62
41
17
32
28
11
38
69
60
40
16
30
28
11
38
68
59
40
16
27
27
11
36
67
59
40
16
27
27
11
36
69
60
40
16
27
26
11
35
66
57
40
16
27
25
11
33
66
58
39
15
25
25
11
33
66
57
39
15
26
25
11
33
66
58
40
15
26
25
11
33
66
58
40
16
26
25
11
32
64
58
39
15
26
25
11
32
64
58
40
15
28
25
11
32
64
58
39
15
30
24
11
32
64
57
38
15
30
24
11
30
63
57
38
15
31
25
11
30
61
57
38
15
31
25
11
30
61
56
38
15
32
25
11
29
60
57
38
15
32
25
10
29
59
56
38
15
33
25
10
29
57
53
37
15
33
24
10
28
57
51
34
16
35
26
10
28
56
51
34
15
35
25
10
28
57
49
32
15
35
25
11
24
55
48
32
15
36
24
10
23
54
49
32
15
36
25
10
23
54
49
32
15
36
24
10
22
52
47
31
15
36
25
10
22
52
47
30
14
36
25
10
22
50
43
29
14
36
25
10
21
48
43
27
14
37
24
10
21
48
43
27
14
37
24
10
21
48
42
27
14
38
24
10
21
48
41
27
14
37
24
10
21
47
41
27
13
37
24
10
18
44
41
26
11
37
23
9
17
44
37
25
11
37
23
9
14
44
36
25
11
38
23
9
14
44
36
25
10
38
23
9
12
41
36
23
10
38
22
9
11
41
36
22
9
37
17
8
11
40
35
17
9
39
17
7
10
37
35
16
9
39
16
7
10
35
34
14
10
42
17
7
9
35
32
13
9
42
16
7
9
33
32
13
9
42
16
7
9
32
33
13
9
42
17
7
9
31
31
12
9
42
17
7
9
30
31
12
9
42
16
7
9
31
31
12
10
44
16
7
9
31
30
12
10
43
16
7
9
30
31
12
10
43
16
7
8
29
32
12
10
44
16
7
7
27
31
12
9
44
16
7
7
27
32
12
9
44
16
7
6
24
30
10
9
45
16
7
6
23
30
10
9
45
16
7
6
23
30
10
9
45
16
7
6
22
29
10
9
45
19
7
6
21
28
10
9
45
19
7
6
21
28
8
9
46
19
7
6
20
28
8
9
46
19
7
6
20
28
8
9
45
20
7
6
19
28
8
9
44
20
7
6
19
29
8
9
44
19
7
6
19
28
8
9
45
19
7
6
18
28
8
9
45
19
7
6
17
28
8
9
44
19
7
6
17
28
8
10
47
19
6
6
17
28
8
10
47
19
6
5
17
27
8
10
46
19
6
5
17
27
8
10
46
17
6
5
16
27
8
10
46
17
6
5
15
27
8
10
46
17
5
5
14
29
7
10
45
17
4
5
13
27
6
10
45
17
4
5
13
27
6
10
46
17
4
5
13
27
6
10
47
17
4
5
13
27
6
10
47
17
4
5
11
26
6
10
47
17
3
5
11
26
6
10
47
17
3
5
11
26
6
10
47
17
3
5
11
26
6
10
46
16
3
5
11
25
6
10
47
17
3
5
10
25
6
10
48
17
3
5
10
25
6
10
48
17
3
5
10
25
6
10
48
17
3
5
10
26
6
11
48
17
3
5
10
26
6
11
48
17
3
5
10
26
6
11
48
16
3
5
10
27
6
11
49
16
3
5
10
26
6
10
48
16
3
5
10
26
6
10
48
16
3
5
10
27
6
10
45
16
3
5
10
26
6
10
45
16
3
5
10
27
6
10
45
16
3
5
10
27
6
10
45
15
3
5
10
27
7
10
45
15
3
5
9
26
6
10
45
15
3
5
9
25
6
9
42
15
3
4
8
25
6
9
43
15
3
4
8
25
6
9
43
15
3
4
8
24
6
9
42
15
3
4
8
24
6
9
41
15
3
4
8
24
6
9
41
15
2
4
8
24
6
9
41
15
2
4
8
24
6
9
41
15
2
4
8
24
6
9
41
15
2
4
8
24
6
9
41
11
2
4
8
24
6
9
41
11
2
4
8
24
5
9
39
11
2
4
8
23
6
9
40
10
2
4
8
23
6
9
40
9
2
4
8
23
6
9
40
10
2
4
8
24
6
9
40
10
2
5
9
25
6
9
37
9
2
5
9
25
6
9
37
9
2
5
9
25
6
9
37
9
2
5
9
25
6
8
33
9
2
5
9
25
6
8
33
9
2
5
9
25
6
8
33
9
2
5
9
25
6
8
32
10
2
5
10
25
6
8
31
13
2
5
10
25
6
8
31
13
2
5
9
24
6
8
31
13
2
4
9
24
6
8
31
13
2
4
9
24
6
8
30
13
2
4
9
24
6
7
29
13
2
4
9
24
6
7
28
13
2
4
9
24
6
7
28
13
2
4
9
24
6
7
29
13
2
4
9
24
6
7
29
13
2
4
9
24
6
7
29
13
2
5
9
24
6
7
27
13
2
5
9
24
6
6
24
15
2
5
9
24
6
7
24
15
2
5
9
24
6
7
24
16
2
5
9
24
6
6
24
16
2
5
9
24
6
6
24
16
2
5
9
24
6
6
22
16
2
5
9
23
6
6
20
16
2
5
9
23
6
6
20
16
2
5
9
23
6
6
20
17
2
4
9
22
6
6
20
17
2
5
10
22
6
6
20
17
2
5
10
22
5
6
19
17
2
5
10
21
5
6
19
17
2
5
11
21
5
6
19
17
2
5
11
21
5
6
18
17
2
5
11
21
5
6
18
16
2
5
12
21
5
6
17
17
2
5
12
20
5
6
17
17
2
5
12
20
5
6
17
17
2
5
12
20
5
6
18
17
2
5
12
21
5
6
17
18
2
5
12
21
5
6
17
18
2
5
12
21
5
6
17
18
2
6
12
20
5
6
17
18
3
6
12
20
5
6
17
18
3
6
12
19
5
6
17
18
3
6
12
19
5
6
17
19
3
6
12
19
5
6
16
19
3
6
12
19
5
6
16
19
2
6
12
19
4
6
16
19
2
5
13
18
4
6
15
19
2
5
12
17
4
6
15
20
2
5
12
17
4
6
15
20
3
5
12
17
4
6
15
20
3
5
12
17
4
6
15
20
3
5
12
17
4
6
15
20
3
5
12
17
4
6
15
21
3
5
12
17
4
6
14
20
3
5
12
18
4
6
14
18
3
5
12
18
4
6
14
18
3
5
12
16
4
6
14
18
3
5
12
17
4
6
14
18
3
5
12
17
4
6
14
18
3
5
12
17
4
6
14
18
3
5
12
17
4
6
14
18
3
5
12
17
4
6
13
18
3
5
12
17
4
6
11
18
3
5
12
17
4
6
11
18
3
5
12
16
4
6
11
18
3
5
12
16
4
5
11
18
2
5
12
16
4
5
11
16
2
5
12
16
5
5
10
16
2
5
12
16
5
5
10
15
2
5
12
16
5
5
10
15
2
5
12
16
5
5
9
15
2
4
13
16
5
5
10
15
2
4
13
16
5
5
10
15
2
4
13
16
5
5
10
15
2
4
12
15
4
5
9
14
2
4
12
16
4
5
9
14
2
4
12
16
4
5
9
14
2
4
11
15
4
5
9
14
2
4
11
15
4
5
9
15
2
4
10
14
4
5
9
15
2
3
10
14
4
5
9
14
2
3
10
14
4
5
9
14
2
3
10
14
4
5
9
14
2
3
10
14
4
5
9
14
2
3
10
14
4
5
9
14
2
3
10
14
4
5
8
13
2
3
9
14
4
5
8
13
2
3
9
14
4
5
7
13
2
3
9
14
4
5
7
13
2
3
9
14
4
5
7
13
2
3
9
14
4
4
7
12
2
3
9
15
4
5
7
12
2
3
9
15
4
4
6
11
2
3
9
15
4
4
6
11
2
3
9
15
4
4
6
11
2
3
9
15
4
4
6
12
2
3
9
15
4
4
7
11
2
3
8
15
4
4
7
10
2
3
8
15
4
4
6
10
1
3
8
15
4
4
7
9
1
3
8
15
4
4
6
9
1
3
8
14
4
4
6
9
1
3
8
14
4
4
6
8
1
3
8
14
4
4
6
8
1
3
8
13
4
4
6
9
1
3
8
13
4
4
6
8
1
3
8
13
4
4
6
8
1
3
8
13
4
4
6
8
1
3
8
13
4
4
7
9
1
3
8
13
4
4
7
9
1
3
8
14
4
4
6
9
1
3
8
14
4
4
7
9
1
3
8
14
4
4
6
9
1
3
8
14
4
4
6
9
1
3
8
14
4
4
6
9
1
3
8
14
4
4
6
9
1
3
8
13
4
4
6
9
1
3
8
13
3
4
6
9
1
3
8
13
3
4
6
9
1
3
8
13
3
4
6
9
1
3
8
14
3
4
8
10
2
3
8
14
3
4
10
10
2
3
8
14
3
4
10
10
2
3
8
14
3
4
10
10
2
3
8
14
3
4
10
11
2
3
8
13
3
4
11
12
2
3
8
13
3
4
11
12
2
3
8
13
3
4
11
11
2
3
8
13
3
4
11
11
2
3
8
14
3
4
11
11
2
3
8
14
3
4
11
11
2
3
9
14
3
4
11
11
2
3
9
14
3
4
11
11
2
3
9
14
3
4
11
11
2
3
8
14
3
4
11
11
2
3
8
14
3
4
11
11
2
3
8
15
3
4
11
11
2
3
9
15
3
4
11
11
2
3
9
15
3
4
11
11
2
3
9
15
3
4
11
11
2
3
9
15
3
4
11
11
2
3
9
13
3
4
11
11
2
3
9
14
3
4
11
11
2
3
9
13
4
4
11
11
2
3
9
13
4
4
11
10
2
3
9
13
4
4
11
10
2
3
9
14
4
4
10
10
2
3
10
15
4
4
10
10
2
3
10
15
4
4
10
10
2
3
10
15
4
4
10
10
2
3
10
15
4
4
10
10
2
3
9
15
4
4
10
10
2
3
10
15
4
4
10
10
2
3
10
16
4
4
10
10
2
3
10
17
4
4
10
10
2
3
10
18
4
4
10
10
2
3
10
18
4
4
10
10
2
3
10
18
4
4
10
10
2
3
10
19
4
4
10
9
2
3
10
21
5
4
10
9
2
3
11
21
5
4
10
9
2
3
11
22
5
4
10
9
2
3
11
23
5
4
10
9
2
3
11
23
5
4
10
9
2
3
11
24
6
5
10
9
2
3
11
24
7
5
10
9
2
4
13
28
10
7
11
9
2
4
13
29
10
7
11
9
2
5
15
30
11
7
11
9
2
5
15
30
11
7
11
9
2
5
16
29
11
7
9
7
2
6
20
30
11
8
10
8
2
7
21
35
13
8
10
8
2
7
21
36
13
8
10
8
2
8
25
41
14
8
14
7
2
8
25
43
15
8
16
6
2
10
25
45
15
9
16
6
2
12
25
45
16
9
16
6
3
12
25
47
16
10
17
6
3
12
26
47
16
10
17
8
3
14
31
49
17
10
18
8
4
14
30
48
17
10
18
8
4
14
31
48
17
10
18
8
4
15
31
50
19
11
18
9
4
18
33
53
25
14
18
10
4
18
34
53
27
14
18
10
4
18
38
54
27
15
19
10
5
18
38
57
29
15
19
10
5
19
38
58
31
15
19
10
5
19
39
59
32
15
20
10
5
19
42
60
33
15
20
10
5
19
43
60
34
15
20
10
6
19
44
61
37
16
20
11
6
20
44
61
37
16
20
11
6
22
44
63
38
16
23
11
6
23
46
64
38
16
23
11
7
25
46
64
39
16
23
11
7
27
48
64
39
16
23
11
7
30
51
65
39
16
23
11
9
31
52
65
39
16
23
11
9
32
55
66
39
16
23
12
9
33
58
66
40
16
23
12
9
33
60
66
40
16
23
12
9
33
62
68
40
17
23
12
9
33
62
68
40
17
23
12
10
33
62
68
40
17
23
12
10
34
62
68
40
17
23
12
10
34
63
69
41
17
23
12
10
35
65
69
41
17
23
12
10
35
65
69
41
19
24
12
10
35
66
69
41
21
24
13
10
35
66
69
43
22
24
13
10
35
67
69
45
22
25
13
10
36
67
69
46
22
24
13
10
36
67
71
46
22
24
13
10
37
70
72
46
22
24
13
10
37
71
72
47
23
25
13
11
38
71
73
48
23
25
13
11
37
71
73
48
23
24
13
11
39
73
73
49
24
24
13
11
39
73
73
49
24
25
13
11
39
73
73
49
24
24
13
11
39
72
72
50
24
24
13
11
39
72
72
50
23
24
13
11
39
71
69
50
24
22
13
11
39
71
69
51
24
19
13
11
39
72
67
51
24
19
13
11
39
72
67
51
23
19
13
11
39
73
68
52
24
19
13
11
40
75
68
52
24
19
12
11
39
73
68
52
23
18
12
11
39
73
69
52
23
18
11
11
40
73
69
52
23
18
12
11
40
74
68
52
23
18
11
11
39
74
68
52
21
18
11
11
39
74
69
52
22
18
12
12
39
72
70
52
21
17
12
12
39
74
68
51
21
17
12
12
39
75
67
50
21
17
12
12
40
74
67
49
21
16
12
12
40
74
69
48
21
16
12
11
40
75
68
48
22
17
12
12
40
75
68
46
22
16
12
11
41
75
70
47
22
16
12
11
41
76
70
46
21
12
12
11
41
74
70
47
21
12
12
11
39
74
71
47
21
12
12
11
38
74
71
47
22
13
12
11
37
73
72
47
22
12
12
10
37
75
72
47
22
12
12
9
36
73
72
48
22
12
12
9
36
72
73
47
22
12
12
10
36
70
73
48
22
12
12
10
36
71
70
49
22
12
12
10
37
72
71
49
22
12
12
10
37
73
72
49
22
12
12
10
37
75
73
49
22
13
12
10
37
75
72
49
22
13
12
10
37
73
72
50
23
13
13
10
37
74
72
50
21
12
13
10
36
74
72
49
20
11
13
10
36
74
72
48
20
11
13
10
36
73
72
45
19
11
13
9
35
73
71
45
19
11
13
9
35
74
70
45
19
11
13
9
35
72
69
46
20
11
13
10
35
70
67
44
19
12
16
9
34
70
68
44
19
11
16
9
35
69
68
43
19
11
16
9
34
68
68
43
18
12
16
9
34
70
69
45
18
12
16
9
34
71
69
45
18
12
16
9
34
71
69
43
18
12
17
9
34
71
70
43
18
12
18
10
34
72
72
47
18
12
18
10
35
72
72
46
18
13
18
10
36
72
72
46
18
13
19
10
36
72
72
47
18
13
19
10
36
72
72
45
18
13
19
10
35
70
73
45
18
13
19
10
35
71
73
46
18
13
19
10
36
72
72
47
18
13
19
10
35
72
74
48
18
12
19
10
35
72
74
48
18
13
19
10
35
71
72
45
18
13
19
10
35
70
71
44
18
12
20
9
35
70
70
44
18
12
20
10
36
68
70
44
18
12
20
10
36
68
72
44
19
12
20
10
35
68
71
44
19
12
20
10
36
70
69
45
19
12
20
10
35
67
69
45
18
13
21
10
35
67
68
45
18
13
21
10
35
68
66
46
18
13
21
10
34
69
66
47
18
13
21
10
34
69
66
46
18
13
21
10
34
70
64
46
19
13
22
10
35
69
64
46
19
13
22
11
34
70
63
46
19
13
22
11
34
68
63
46
18
13
22
11
34
67
62
46
19
13
23
11
33
68
62
46
19
13
23
11
33
68
65
47
19
14
23
11
33
66
65
46
19
14
23
11
33
66
65
46
19
14
23
11
33
67
64
46
19
14
24
11
32
65
64
46
18
14
24
11
32
65
63
46
19
14
23
11
32
65
63
45
18
13
23
11
32
64
64
46
18
13
23
11
33
65
66
48
19
14
23
11
33
65
66
48
18
14
23
11
33
67
66
48
18
14
23
11
33
67
68
49
18
14
23
11
33
67
70
49
18
14
23
11
33
67
71
49
18
14
23
11
32
69
71
50
17
13
21
11
32
69
70
49
17
13
22
11
31
70
70
49
18
14
22
10
31
70
69
49
18
14
22
10
31
68
68
47
18
14
22
10
31
67
69
47
18
14
22
10
31
68
68
47
18
14
21
10
31
69
67
47
18
14
21
10
31
69
65
44
18
14
21
10
30
70
66
44
18
14
21
9
29
71
67
44
18
14
20
9
29
70
68
44
18
14
21
9
28
70
67
44
18
14
20
9
28
69
66
44
18
14
20
9
28
69
65
45
19
14
20
9
27
69
66
46
19
14
20
9
28
70
65
44
19
14
20
10
28
69
65
44
20
14
20
10
28
70
66
44
20
14
20
10
28
70
67
44
20
14
19
10
27
70
67
44
20
14
19
9
27
71
68
44
19
14
20
9
27
70
66
44
19
14
20
9
27
70
68
43
19
14
20
9
26
68
70
43
19
14
20
9
26
68
70
43
19
14
20
9
26
69
71
43
19
14
20
9
24
70
70
42
19
13
20
9
24
68
70
40
19
13
20
9
25
68
70
41
19
13
19
9
24
68
72
42
19
13
18
9
23
68
71
42
19
13
18
8
22
69
73
42
19
13
18
8
22
69
74
44
19
13
18
8
22
68
73
47
19
13
17
8
22
67
73
47
20
13
18
8
22
66
72
45
20
13
18
8
22
66
72
45
20
13
22
8
21
65
72
46
20
13
22
8
21
64
73
46
20
13
22
8
21
64
73
46
20
13
22
8
21
64
74
46
19
13
23
8
20
64
74
46
19
13
23
8
20
64
74
45
20
13
23
8
21
64
73
42
19
13
23
9
21
64
73
42
19
13
23
8
21
62
73
43
19
13
23
8
21
63
71
42
19
13
23
8
21
62
69
41
19
13
23
8
21
61
68
41
20
13
23
8
21
59
69
41
20
13
23
9
21
59
70
41
20
13
23
8
22
59
71
41
19
13
23
8
23
59
71
42
20
12
23
8
22
58
71
42
19
12
23
8
22
57
70
42
19
12
23
8
23
58
71
42
19
12
23
8
22
57
71
42
19
12
23
8
24
56
71
42
20
13
23
9
24
54
70
41
20
13
23
9
24
53
69
41
19
12
23
9
24
56
68
41
20
13
23
9
24
58
67
41
20
13
23
9
24
59
67
41
19
13
23
9
24
59
68
39
19
13
24
9
24
59
68
37
19
13
24
9
24
58
68
37
19
13
24
9
24
58
68
38
18
13
25
9
24
60
69
38
18
13
25
9
25
60
67
38
18
13
25
9
25
60
69
38
18
13
25
9
25
60
68
39
18
13
24
9
24
60
70
39
18
13
24
9
24
60
69
39
18
13
24
9
24
60
69
39
18
13
24
9
24
61
70
41
18
13
23
9
24
61
71
42
18
13
23
9
24
60
72
43
18
13
23
8
25
61
73
42
18
13
23
8
24
61
73
42
17
13
23
8
24
62
71
41
17
13
24
8
25
63
73
41
17
13
24
8
26
61
70
40
17
14
25
8
27
62
69
38
17
14
26
8
27
62
70
34
16
14
26
8
27
62
72
35
16
14
25
9
27
62
71
36
15
14
25
9
27
62
71
36
15
13
22
9
29
63
70
37
16
14
22
9
29
63
69
37
16
14
22
9
29
61
70
37
16
14
22
9
30
63
69
37
16
14
21
9
30
63
69
37
16
14
21
10
30
65
70
39
16
14
22
10
29
65
70
39
16
14
21
9
29
66
69
41
15
14
21
9
29
66
72
41
16
13
21
9
29
66
71
42
17
14
21
10
29
66
71
42
17
14
22
10
30
66
73
43
17
14
22
10
30
67
71
42
17
13
22
9
30
67
71
42
17
14
22
10
29
67
71
42
16
13
22
9
28
67
71
42
16
13
22
9
29
67
71
42
16
13
22
9
29
68
71
42
16
13
22
9
28
66
72
42
16
13
21
9
29
68
70
42
16
13
21
9
27
68
70
42
16
13
21
9
28
69
72
43
16
13
21
9
28
70
73
43
16
13
21
9
28
69
73
43
16
12
20
9
29
69
74
43
16
12
21
9
29
69
75
43
16
12
21
9
29
70
74
42
16
12
20
9
30
71
73
43
17
12
20
9
29
71
75
43
16
12
20
9
28
71
75
42
16
11
19
9
28
70
75
42
16
11
19
9
28
70
75
42
16
11
19
9
28
70
73
42
16
11
19
9
29
71
74
42
16
12
20
9
29
72
72
44
17
12
20
9
30
74
73
43
17
12
20
9
30
74
71
43
17
12
19
9
30
73
70
41
17
12
20
9
31
73
68
41
17
12
20
10
32
72
68
42
17
12
20
10
32
72
68
43
17
12
20
10
32
74
69
43
17
13
21
10
32
74
69
43
17
12
20
10
31
74
68
43
17
12
20
10
31
75
68
44
17
12
18
10
30
74
68
45
16
11
18
10
30
75
69
45
16
11
18
10
31
75
68
45
16
11
18
9
31
77
68
44
16
11
19
9
31
77
69
44
16
11
19
9
29
78
68
43
15
11
18
9
29
78
69
43
15
10
18
9
29
78
69
43
16
10
18
9
29
76
70
43
16
10
18
9
28
77
70
43
16
10
19
8
28
75
68
40
15
10
18
8
28
75
69
40
15
10
18
8
28
74
71
39
15
10
18
8
28
74
70
39
15
10
18
8
28
75
70
38
14
10
17
8
28
76
70
38
14
10
17
8
27
76
68
38
13
10
17
8
27
76
68
39
13
10
17
8
27
77
67
39
13
10
17
8
27
77
68
39
13
10
17
8
27
77
68
39
13
9
16
8
27
77
69
40
14
10
17
8
27
77
69
39
14
10
17
8
27
77
69
39
14
10
16
8
26
75
69
39
14
10
18
8
27
75
69
39
14
10
20
8
26
73
67
39
13
10
20
8
26
73
67
39
13
10
20
8
26
74
68
39
13
10
20
8
26
73
67
38
14
10
20
8
27
73
67
38
14
10
20
8
26
71
69
39
14
10
20
8
26
71
69
38
14
10
20
8
25
70
69
39
14
10
20
8
25
70
68
39
13
10
20
8
25
72
66
39
14
10
20
8
26
72
67
39
14
10
20
8
26
71
67
39
14
10
20
8
25
69
67
39
13
10
20
8
25
68
67
37
13
10
21
8
25
66
67
37
14
11
22
8
24
66
67
38
14
10
22
8
24
69
68
39
14
11
22
8
24
69
68
38
14
10
22
8
23
70
68
36
14
11
22
8
23
69
67
36
14
10
22
8
23
67
67
35
14
10
22
8
23
66
67
36
14
10
22
8
23
66
67
36
14
10
22
8
23
64
67
36
14
10
22
8
23
63
67
35
14
10
22
8
23
63
66
35
14
10
22
8
22
63
65
35
14
10
22
8
22
61
65
35
14
10
21
8
22
60
65
35
14
10
21
8
22
59
65
35
15
10
21
8
22
60
63
35
15
10
21
8
22
60
62
35
14
10
21
8
22
60
63
36
15
10
21
7
22
58
63
36
15
10
20
7
22
58
63
36
15
10
20
7
22
58
61
36
15
10
20
7
22
58
59
36
15
10
20
7
22
57
59
35
14
10
20
7
22
55
59
35
14
10
20
7
22
54
59
35
14
10
20
7
22
53
59
33
14
9
20
7
22
53
59
33
14
9
20
7
22
51
58
33
14
9
20
7
22
51
57
33
14
9
20
7
22
51
57
32
15
10
20
7
22
51
56
31
14
10
20
7
22
50
55
31
14
10
20
7
21
50
55
30
13
10
20
7
21
50
54
30
13
10
18
7
21
50
53
30
13
10
16
7
21
50
53
30
13
10
16
7
21
50
53
30
13
12
17
6
20
47
51
30
13
18
18
6
19
47
51
29
13
19
19
6
18
44
49
29
13
20
19
6
18
44
47
29
13
20
19
6
18
44
45
29
13
20
19
6
18
44
44
28
13
20
19
6
18
44
44
28
13
21
19
6
18
40
44
28
13
21
20
6
16
38
43
27
13
22
20
6
16
38
43
26
13
22
20
6
16
38
43
26
13
23
19
6
15
38
43
26
13
23
17
6
14
37
40
26
12
22
17
6
14
37
39
25
12
23
17
5
14
32
38
23
11
23
17
5
13
30
38
23
12
26
16
5
11
27
36
23
11
28
16
4
11
26
36
22
11
28
15
4
11
26
35
22
11
28
15
4
9
24
34
20
11
29
15
4
9
24
33
19
11
29
15
4
9
24
33
18
11
29
15
4
9
24
34
17
11
30
15
4
9
22
34
17
10
30
15
4
8
21
33
17
10
31
15
4
8
21
33
16
10
31
15
4
8
20
33
16
10
31
15
4
8
20
33
14
10
31
15
4
8
19
33
14
10
33
15
4
8
18
31
14
10
34
15
4
7
18
29
13
9
34
16
4
7
17
29
11
9
34
16
4
6
16
29
11
9
35
16
4
6
16
29
11
9
35
16
5
6
16
29
11
9
35
16
5
6
16
27
10
9
35
17
5
6
16
27
10
9
36
18
5
6
16
26
10
9
36
18
5
6
16
27
10
9
37
18
5
6
13
26
8
9
38
18
5
5
11
26
8
9
38
19
5
5
10
27
8
9
38
19
5
5
10
28
8
9
38
19
5
6
10
26
8
9
39
19
5
6
10
26
8
9
40
19
6
5
10
26
8
9
40
19
6
6
10
27
8
9
40
19
6
6
10
27
8
9
39
19
6
6
10
27
7
9
39
18
6
5
9
26
7
9
39
18
6
5
9
26
7
8
37
16
6
5
9
27
7
8
36
16
6
5
9
26
7
8
36
15
6
5
9
26
7
8
37
15
6
5
9
27
7
8
36
15
6
5
9
26
6
8
36
15
6
5
9
26
6
8
37
15
6
5
9
25
6
8
37
14
5
5
9
25
6
8
37
14
5
5
9
25
6
8
37
15
5
5
9
25
5
8
37
15
5
4
9
23
5
8
37
15
5
4
9
24
5
8
37
15
5
4
9
23
5
8
37
15
5
4
8
23
5
8
37
15
5
4
8
23
5
7
35
15
5
4
8
23
5
7
33
15
5
4
9
23
5
7
33
15
5
4
9
24
5
7
33
15
5
4
9
24
5
7
33
15
5
4
8
24
4
7
33
15
5
4
8
23
4
7
33
15
5
4
7
21
4
7
32
15
5
3
7
21
4
7
32
15
5
3
7
21
5
7
31
15
5
3
8
20
5
7
31
15
5
3
8
20
5
7
32
15
5
3
8
20
5
7
31
15
5
3
8
20
5
6
29
15
5
3
9
20
5
6
29
15
5
3
9
21
5
6
29
15
5
3
9
21
5
6
29
14
4
3
9
22
5
6
27
14
4
3
9
24
5
6
27
15
4
3
9
24
5
6
27
17
4
3
9
24
5
6
27
15
4
3
9
24
5
6
26
14
3
3
9
24
5
6
26
14
3
3
9
24
5
6
25
14
3
3
9
24
5
6
24
14
3
3
9
24
5
6
24
14
3
3
9
23
5
6
24
14
3
3
9
22
5
6
23
14
3
3
9
22
5
5
21
14
3
3
9
22
5
5
21
14
3
3
9
22
5
5
21
14
3
3
9
21
5
6
21
14
3
3
9
21
5
6
21
14
3
3
8
22
5
5
20
14
3
3
8
22
5
5
20
14
3
3
8
22
5
5
20
14
3
3
8
21
5
5
20
15
3
3
8
21
5
6
20
14
3
3
9
20
5
6
19
15
3
3
9
20
5
6
19
15
3
3
9
20
5
5
19
15
3
3
10
20
5
5
17
15
3
3
10
20
5
5
16
15
3
3
10
20
5
5
15
15
3
3
10
19
5
5
15
14
3
3
10
20
5
5
14
14
3
3
10
19
5
5
14
14
2
3
10
19
5
5
14
14
2
3
10
19
5
5
14
14
3
3
10
20
5
5
14
14
3
4
10
24
5
5
14
14
3
4
10
24
5
5
14
13
2
3
10
24
5
5
15
14
2
3
10
24
5
5
15
14
2
4
10
24
6
5
14
14
2
4
10
24
6
5
14
17
3
4
11
24
6
5
14
17
3
4
11
24
6
5
14
18
3
4
11
24
6
5
14
18
3
4
11
24
6
5
14
18
3
4
10
24
6
5
13
18
3
4
10
24
6
5
13
18
3
4
10
24
6
6
13
18
3
4
10
24
6
6
13
18
3
4
10
24
5
6
13
18
3
4
10
23
5
5
13
20
3
4
10
23
5
5
12
20
3
4
10
23
5
6
12
20
3
4
10
21
5
6
12
20
3
4
10
21
5
6
12
19
3
4
10
21
5
6
14
19
3
4
10
20
5
5
14
19
3
4
10
20
5
5
14
19
3
4
10
20
5
5
14
20
3
4
10
20
5
5
15
20
3
4
10
20
5
5
14
20
3
4
10
20
5
5
14
20
3
4
10
20
6
6
15
20
3
4
10
20
6
6
15
20
3
4
10
20
6
6
15
20
3
4
10
20
6
6
15
20
3
4
10
21
6
6
15
20
3
4
10
21
6
6
15
20
3
4
11
21
6
6
15
20
3
4
11
21
6
6
15
20
3
4
11
21
6
6
15
20
3
4
10
21
6
6
15
20
3
4
10
22
6
6
14
20
3
5
10
22
6
6
15
20
3
5
10
22
6
6
15
20
3
5
10
22
6
6
15
20
3
4
9
21
6
6
15
20
3
4
9
22
6
6
15
20
3
4
9
22
6
6
15
20
3
4
9
22
6
6
15
20
3
4
9
22
6
6
15
20
3
4
9
22
6
6
15
20
3
4
9
22
6
6
14
20
3
4
9
22
6
6
15
20
3
4
9
21
5
6
15
20
3
4
8
16
5
6
15
20
3
4
8
15
5
6
15
20
3
4
8
15
5
5
14
20
3
4
8
15
5
5
13
20
3
4
8
15
5
5
13
19
3
4
8
15
5
5
13
17
2
4
7
14
5
6
14
17
2
4
7
14
5
6
13
16
2
4
7
14
5
6
13
16
2
4
7
14
5
5
13
16
2
4
7
14
5
5
13
16
2
4
7
14
5
6
13
16
2
4
7
14
5
6
14
16
2
4
7
13
5
6
14
16
2
4
7
13
5
6
14
15
2
4
7
14
5
6
14
12
2
4
7
14
5
6
14
12
2
4
7
13
5
6
14
12
2
4
7
13
5
6
14
11
2
4
7
13
5
6
14
11
2
4
7
13
5
6
13
10
2
4
7
13
5
6
12
10
2
4
7
13
5
6
12
10
2
4
7
13
5
6
12
9
2
4
7
13
5
6
11
8
2
4
7
13
5
6
11
8
2
4
8
13
5
6
11
7
2
4
8
13
5
6
11
7
2
4
8
13
5
6
11
7
2
4
8
14
5
6
10
7
2
4
8
14
5
6
10
7
2
4
8
12
5
6
10
7
2
4
8
12
5
6
10
7
2
4
7
12
5
6
10
7
2
4
7
12
5
6
10
7
2
4
8
12
5
5
10
7
2
4
8
10
5
5
10
5
2
3
8
10
5
5
10
5
2
3
8
10
5
5
10
4
2
3
8
11
5
5
10
4
2
3
8
11
5
5
10
4
2
3
8
10
5
5
10
4
2
3
8
10
5
5
10
4
2
3
8
10
5
5
10
3
2
3
9
11
5
5
9
3
2
3
9
11
5
5
9
3
2
3
9
11
5
5
9
3
2
3
10
12
5
5
9
3
2
3
12
12
5
5
9
3
2
4
12
13
5
5
9
3
2
4
12
13
5
5
9
3
2
4
12
13
5
5
9
3
2
4
12
13
5
5
9
3
2
4
12
13
5
5
9
3
2
4
12
14
5
5
9
3
2
4
13
14
5
5
9
3
2
4
13
14
5
5
8
2
2
4
14
15
5
5
8
2
2
4
14
16
6
5
8
2
2
4
14
17
6
5
8
2
2
4
14
17
6
5
8
2
2
4
15
17
6
5
8
2
1
4
16
19
7
4
7
2
1
4
16
19
7
4
6
2
1
4
16
22
7
4
6
2
1
4
16
24
7
5
8
2
2
4
16
25
8
5
10
2
2
4
17
25
8
5
10
2
2
5
20
25
9
4
10
2
2
5
20
25
9
5
10
2
2
5
20
28
10
5
10
2
2
6
20
28
10
5
10
2
2
6
20
32
11
5
10
2
2
6
20
32
11
5
10
2
2
6
20
32
11
5
10
2
2
6
20
32
11
5
10
2
2
7
21
34
12
5
10
3
2
7
24
37
12
5
10
3
2
7
24
37
12
5
10
3
2
8
26
39
14
6
10
3
2
9
29
43
20
8
10
4
3
9
31
45
20
8
11
4
3
10
32
46
21
8
12
4
3
10
32
49
22
8
12
4
3
10
32
49
23
8
12
4
3
10
32
51
23
8
12
4
3
10
32
52
23
8
12
4
3
12
33
55
24
9
12
4
3
14
33
57
26
12
13
5
4
14
33
59
26
12
18
5
4
14
37
61
27
12
18
5
4
15
39
61
29
13
18
5
4
15
43
62
31
13
18
6
4
16
46
64
31
13
18
6
4
17
48
64
31
13
18
6
5
19
50
65
31
14
18
6
5
19
50
65
31
14
18
6
5
19
52
66
31
14
18
6
5
19
52
66
32
14
18
6
5
19
52
66
32
14
19
6
5
20
53
66
32
14
19
6
5
20
54
66
32
14
19
6
5
20
56
67
34
14
19
6
5
22
56
67
35
14
19
7
5
22
57
67
35
14
19
7
5
24
57
67
37
15
19
7
5
24
57
67
37
15
19
7
5
24
57
67
41
16
19
7
6
24
57
67
41
16
19
8
6
24
57
67
41
16
19
8
7
24
57
67
42
16
19
8
7
24
59
68
44
16
20
8
7
24
60
67
44
16
19
8
7
24
60
68
46
16
19
8
7
24
60
68
46
17
20
8
7
25
62
67
47
17
19
8
7
25
62
67
47
17
18
8
7
25
63
70
49
18
19
9
7
25
63
72
50
18
19
9
8
25
64
73
50
18
19
9
8
25
65
72
50
18
19
9
8
25
67
72
50
19
19
9
8
25
68
71
51
19
19
9
8
25
68
71
51
19
19
9
8
26
68
72
51
19
19
9
8
26
69
72
51
19
19
10
8
25
68
72
52
19
19
10
8
26
69
72
53
19
19
10
8
26
69
72
54
20
19
10
8
27
69
71
53
20
19
10
8
26
68
69
52
19
19
9
8
26
69
68
53
19
19
9
8
27
69
68
53
19
18
9
8
27
69
66
52
19
18
10
8
27
69
66
53
21
22
10
9
27
70
65
53
21
23
10
9
27
70
66
53
21
23
10
9
26
71
65
53
21
23
10
9
26
71
63
52
20
23
10
8
26
71
61
52
20
20
10
8
27
71
60
52
20
20
10
8
27
69
60
51
20
20
10
8
27
67
59
51
20
19
10
8
27
65
57
51
20
20
10
8
26
65
59
51
20
20
11
8
25
64
60
51
19
20
11
8
25
64
62
53
20
20
11
8
25
64
61
53
20
20
12
8
26
64
62
54
21
20
12
9
26
64
61
54
21
20
12
9
25
65
62
55
21
21
12
9
25
66
63
56
21
21
12
9
25
65
63
55
21
21
12
9
24
65
62
54
21
21
12
9
24
64
63
55
22
21
12
9
22
65
64
54
21
21
12
9
23
66
64
54
21
21
12
9
24
66
65
52
21
21
12
9
24
66
66
55
21
21
12
9
24
68
66
55
21
20
12
8
24
68
67
55
21
20
11
8
24
68
69
54
21
20
11
8
24
67
68
54
21
20
13
8
24
67
68
53
21
21
14
8
24
68
68
52
21
21
14
9
24
66
70
52
20
21
14
9
24
67
70
54
20
21
14
9
24
66
68
52
20
20
15
9
25
65
68
51
20
20
15
9
25
65
67
51
20
20
15
9
25
64
67
51
20
20
15
9
25
63
67
51
20
20
15
8
25
61
66
50
20
20
15
9
25
61
66
50
20
20
15
8
24
61
67
50
20
20
15
8
24
60
67
51
20
20
15
8
24
60
66
52
20
20
15
8
26
61
64
51
21
20
15
9
25
62
66
51
20
20
15
9
25
62
66
51
20
20
15
8
25
62
67
50
20
20
15
8
25
60
68
49
20
20
16
9
25
62
69
49
20
20
16
9
25
63
71
49
20
20
17
9
25
63
70
49
18
16
17
9
25
63
70
49
18
14
17
9
25
63
69
48
18
14
17
9
25
61
69
48
18
14
17
9
25
61
70
48
18
14
17
9
25
61
70
49
18
13
17
9
23
61
70
49
18
13
17
9
23
61
69
47
18
14
17
9
24
61
69
47
19
14
17
9
23
62
71
47
19
13
17
9
24
61
70
47
19
13
17
9
24
62
71
47
19
13
17
9
24
61
70
45
18
13
17
9
23
60
70
45
18
13
16
9
23
61
70
44
18
13
17
9
23
62
70
45
17
12
17
9
23
60
71
43
17
12
17
9
23
58
70
43
18
12
17
9
23
57
70
43
17
12
17
9
23
58
71
43
17
12
17
9
23
58
71
42
17
11
17
9
23
57
71
41
17
11
17
9
23
57
72
41
17
11
17
9
23
57
71
40
19
13
20
9
23
57
70
37
19
13
20
9
22
55
70
37
19
13
20
9
22
54
69
35
19
13
20
9
23
52
67
35
19
13
21
9
24
55
67
35
19
13
20
9
23
55
67
37
19
13
19
9
24
55
67
37
19
13
19
8
24
57
65
37
19
13
19
8
24
56
65
35
18
13
19
8
24
56
66
36
18
13
20
8
23
57
64
36
19
13
21
8
23
57
64
36
19
13
21
8
23
57
64
36
19
13
21
8
23
57
65
36
18
13
21
8
23
59
67
37
18
13
21
8
23
59
68
38
18
13
21
8
23
60
67
39
18
13
21
8
23
61
68
38
18
13
21
8
23
61
68
36
18
13
21
8
21
60
67
35
17
13
22
8
21
60
65
36
18
13
22
8
21
61
66
37
18
13
22
8
22
61
65
37
17
13
23
8
22
61
64
37
18
13
22
7
21
60
64
37
18
14
22
7
21
59
62
36
18
14
21
7
21
59
62
35
18
14
22
7
21
58
62
36
18
14
22
7
21
58
63
36
18
14
22
7
22
59
63
36
18
14
23
7
22
60
61
36
18
14
23
7
21
62
61
36
18
14
23
7
21
61
63
37
18
14
23
7
21
61
63
37
18
14
23
7
21
61
62
37
17
14
23
7
21
61
62
37
18
14
23
7
20
61
62
37
18
14
23
7
21
60
59
36
18
14
24
7
21
62
58
38
18
14
24
7
22
61
60
41
17
14
24
7
21
60
61
41
18
14
24
7
21
60
60
40
18
14
24
7
21
60
58
40
18
14
24
7
21
61
58
39
17
14
24
7
21
60
59
39
17
14
24
7
21
60
58
39
17
14
24
7
21
62
60
41
17
14
24
8
22
63
59
41
17
14
24
9
22
63
59
41
17
14
24
9
22
65
59
42
15
13
22
8
22
64
59
42
15
12
22
8
22
65
59
43
16
12
22
8
22
66
59
45
16
13
22
8
21
66
62
47
16
13
22
8
21
64
63
46
17
15
23
9
21
65
64
45
18
15
23
9
21
64
62
45
18
15
23
9
21
63
64
44
18
14
24
9
20
63
64
44
18
15
24
9
20
64
63
43
18
14
22
9
20
64
63
43
17
14
22
9
20
64
63
43
17
14
22
9
20
64
63
43
17
14
22
9
20
64
64
43
17
14
22
9
20
62
62
42
17
14
22
9
20
62
61
42
17
15
22
9
20
62
62
42
19
15
22
9
20
60
62
41
19
16
22
9
20
61
62
41
19
16
22
9
21
61
62
41
19
16
21
9
22
62
64
40
19
16
21
8
22
61
64
40
19
15
21
8
21
61
65
41
19
16
21
8
21
61
66
41
19
16
22
8
21
60
64
41
18
15
22
8
21
60
64
42
18
15
22
8
21
60
64
42
18
15
21
8
21
60
64
41
18
15
21
8
21
60
64
41
18
16
21
8
20
59
65
41
17
16
20
8
20
59
65
41
17
16
21
8
20
57
66
41
17
16
20
8
20
59
64
41
17
16
20
8
20
59
64
41
18
16
20
8
20
60
64
41
18
16
20
8
21
61
65
41
18
16
20
8
21
60
64
41
18
16
20
8
23
62
64
41
18
17
22
8
22
61
64
40
18
17
21
7
22
61
62
38
18
17
22
7
22
62
62
38
18
17
22
7
21
62
62
38
18
16
22
7
22
62
64
38
18
17
22
7
22
62
66
39
18
17
22
7
22
62
65
39
18
17
22
7
21
62
65
39
18
16
23
7
21
60
63
38
18
17
24
7
21
58
63
39
18
17
24
6
20
60
64
39
18
17
24
5
19
58
64
40
18
17
24
5
20
59
63
41
18
17
24
5
19
58
63
39
17
17
24
5
19
58
63
37
17
17
24
5
19
58
60
35
16
17
23
5
19
59
59
39
17
17
22
5
19
58
60
40
17
17
22
5
19
58
59
40
17
17
22
5
19
58
59
40
17
17
22
5
19
58
59
40
17
17
21
5
20
58
61
40
17
17
22
5
19
58
62
40
17
17
23
5
19
57
62
40
17
17
23
5
19
58
62
41
17
18
26
5
20
60
62
41
17
18
26
5
20
60
62
41
17
19
27
5
20
60
62
41
17
19
27
5
20
60
63
40
16
20
28
5
21
61
64
40
16
21
28
5
21
62
64
41
15
21
27
5
21
61
65
41
15
21
27
5
20
58
64
42
15
21
27
5
20
58
64
43
15
21
28
5
20
59
63
43
15
21
29
5
20
59
63
42
15
21
31
5
20
60
62
43
15
21
31
5
20
62
63
42
15
21
32
5
20
62
65
44
15
21
32
5
20
63
65
44
15
21
32
5
20
63
67
45
16
21
32
5
20
63
65
45
16
21
32
5
20
63
65
45
16
20
32
5
20
62
65
45
16
20
31
5
20
60
67
45
16
21
31
6
20
60
67
45
15
21
31
6
20
59
70
46
15
21
32
6
20
58
69
46
15
21
34
6
20
60
70
46
15
21
33
6
18
58
70
47
15
21
32
6
18
57
69
47
15
21
32
6
18
58
70
46
15
21
32
6
18
59
70
46
15
21
31
6
19
58
70
46
15
21
31
6
18
57
69
46
15
21
31
6
18
57
70
45
15
21
32
6
18
57
70
45
15
21
32
6
18
58
70
45
14
21
31
6
19
59
71
45
15
20
30
6
19
59
71
44
15
20
30
6
19
58
70
43
15
20
30
6
19
59
70
42
15
20
30
6
19
58
71
41
15
20
30
6
19
58
70
41
15
20
30
7
19
57
72
41
15
20
30
7
19
58
74
41
15
20
30
7
19
57
74
38
13
19
30
7
19
56
73
37
12
19
30
7
19
56
73
37
12
19
30
7
19
56
72
37
12
19
30
7
19
56
72
37
12
19
31
7
18
56
70
37
12
19
30
7
18
55
69
37
12
19
30
7
18
55
69
37
11
19
29
7
18
54
69
36
11
18
27
7
17
51
68
35
11
18
27
7
17
52
67
34
11
18
26
7
17
51
67
34
11
18
26
6
17
51
65
34
11
15
25
6
15
50
64
34
10
16
25
6
15
50
65
34
10
16
25
6
15
49
64
34
10
16
25
6
15
49
64
33
10
16
25
6
15
49
63
31
10
16
24
6
14
48
63
31
10
16
24
6
14
48
63
31
10
16
20
6
14
46
63
30
10
17
20
6
14
43
63
30
10
19
20
6
14
43
60
28
10
24
21
6
14
41
60
28
11
29
21
6
13
41
58
27
10
29
21
6
13
41
58
25
9
29
21
6
13
40
58
25
9
29
21
6
13
40
57
25
9
31
21
6
13
40
55
25
10
31
21
6
13
39
54
24
10
31
21
6
12
39
51
22
10
32
21
6
12
39
51
22
10
36
18
6
12
36
50
21
10
36
18
6
11
36
50
18
10
36
18
6
11
36
50
18
10
37
18
6
11
33
48
18
10
39
17
6
11
32
48
18
10
39
20
6
10
32
48
18
10
39
20
6
10
32
46
18
10
39
20
6
10
31
43
18
10
39
20
6
10
31
42
18
10
39
20
6
9
30
42
17
10
39
20
6
9
28
40
17
10
40
20
6
8
27
40
17
10
42
20
5
7
25
40
17
10
42
20
5
7
24
40
16
10
43
20
5
7
24
39
16
10
43
20
5
6
23
39
16
10
43
20
5
6
22
35
16
10
43
20
5
6
21
31
15
10
43
20
5
6
21
31
14
10
43
20
5
6
21
31
14
10
44
20
5
6
21
32
14
10
44
20
5
6
20
32
13
10
46
21
5
6
20
32
13
10
48
20
6
5
16
32
13
10
49
20
6
5
16
32
13
10
49
20
6
5
16
32
13
10
49
20
6
5
16
32
13
10
49
20
6
4
15
31
13
10
49
20
6
4
14
31
12
10
49
20
6
4
14
31
12
10
49
20
6
4
14
31
12
10
49
20
6
4
14
31
12
10
49
20
6
4
11
29
11
11
49
19
6
4
11
27
8
11
49
20
6
4
10
27
8
11
50
20
6
4
10
27
8
11
50
20
6
3
8
26
7
11
50
19
6
3
8
25
7
11
50
19
6
3
8
25
7
11
49
19
6
3
7
25
7
11
49
19
6
3
7
25
7
10
48
17
6
3
7
25
7
10
45
17
6
3
7
26
7
10
45
17
6
3
8
25
6
10
46
17
6
3
8
25
6
10
46
17
6
3
8
26
6
10
44
16
6
3
8
26
6
10
44
16
6
3
8
26
6
9
45
17
6
3
8
25
6
9
44
17
6
3
8
25
6
8
41
17
6
3
8
25
6
8
40
16
6
3
8
25
6
8
40
16
6
3
8
25
6
8
41
17
6
3
8
25
6
8
39
17
6
3
8
25
6
8
39
13
5
3
8
25
6
8
39
13
5
3
8
25
6
8
39
13
5
3
8
25
6
8
39
13
5
3
9
25
6
8
38
12
5
3
9
25
6
8
38
12
5
3
8
24
5
8
37
12
5
3
8
24
6
8
36
12
5
3
8
25
6
8
35
13
5
3
7
25
6
8
35
13
5
3
7
25
7
8
36
13
5
3
7
25
7
8
37
12
5
3
7
25
7
8
36
12
5
3
7
25
7
8
36
12
5
3
7
26
7
8
36
12
5
3
7
25
7
8
36
12
5
3
7
24
7
8
35
11
5
3
8
24
7
8
33
11
5
4
9
23
7
8
30
11
4
4
9
23
7
7
29
11
3
4
9
23
7
7
29
11
3
4
9
23
7
7
29
11
3
4
9
23
7
7
29
11
3
4
9
23
7
7
28
11
3
4
9
23
7
7
28
11
3
4
9
23
7
7
28
11
3
4
9
23
7
7
28
11
3
4
9
23
7
7
27
11
3
4
10
23
7
7
27
11
3
4
10
23
7
7
27
11
3
4
9
23
7
7
26
11
3
4
10
22
7
7
26
11
3
4
10
23
7
7
26
11
3
4
10
23
7
7
25
12
3
4
10
22
7
7
25
11
3
4
10
23
8
6
24
11
3
4
10
22
8
6
22
11
3
4
10
23
8
6
22
11
2
5
11
22
8
6
22
11
2
5
11
21
8
6
21
11
2
5
11
21
8
6
21
11
2
5
11
21
8
6
21
12
3
4
11
22
8
6
21
16
2
5
12
22
8
6
20
19
3
5
12
23
8
6
20
19
3
5
12
22
8
6
20
19
3
5
12
22
8
7
20
19
3
5
12
22
8
7
20
20
3
5
12
23
8
6
20
19
3
5
12
22
8
6
19
19
3
5
12
22
8
6
19
19
3
5
12
22
8
6
19
20
3
5
12
21
7
6
19
20
3
5
12
21
8
6
19
20
3
5
12
21
8
6
19
20
3
5
12
21
8
6
19
20
3
5
13
21
8
6
19
20
3
5
13
21
8
6
19
20
3
5
13
19
7
6
19
20
3
5
13
20
7
6
19
21
3
5
13
19
7
6
17
21
3
5
13
19
7
6
15
21
3
5
13
19
7
6
14
21
3
5
13
19
7
6
14
21
3
5
12
18
7
6
14
21
3
5
12
19
7
6
14
21
3
5
13
19
7
6
14
21
3
5
12
19
7
6
13
21
3
4
12
19
7
5
13
21
3
4
12
19
7
5
13
21
3
5
12
19
7
6
13
21
3
5
12
19
7
5
12
21
3
4
12
19
7
5
12
21
3
4
12
19
7
5
12
21
3
4
12
19
7
5
12
21
3
4
12
19
7
5
12
21
3
4
12
19
7
5
13
21
3
4
12
18
6
5
13
21
3
4
11
18
7
5
13
21
3
4
11
19
7
5
13
21
3
4
12
19
7
5
13
21
3
4
11
18
7
5
13
21
3
4
11
18
6
5
13
21
3
4
11
17
6
5
13
21
3
4
11
17
6
5
13
21
3
4
11
17
6
5
14
21
3
4
11
17
6
5
14
21
3
4
11
16
6
5
14
22
3
4
11
16
6
5
14
22
3
4
10
16
6
5
15
22
3
4
10
15
6
5
14
22
3
4
10
15
5
5
14
21
3
4
10
15
5
5
13
19
3
3
9
14
5
5
13
15
2
3
9
14
5
5
13
15
2
3
10
15
6
5
12
15
2
3
10
15
6
4
12
15
2
3
10
15
6
4
12
14
2
3
9
15
6
4
12
14
2
3
9
15
6
4
12
14
2
3
9
15
6
4
12
15
2
3
9
15
6
5
13
15
2
3
9
16
6
5
13
16
2
3
9
16
6
5
13
16
2
3
9
17
6
4
13
16
2
3
8
17
6
5
13
16
2
3
8
17
6
5
13
16
2
3
7
16
5
5
13
15
2
3
7
16
5
5
13
15
2
3
8
16
5
5
12
14
2
3
8
16
5
5
12
14
2
3
8
16
5
5
12
14
2
3
8
16
5
5
12
14
2
3
8
16
5
5
12
14
2
3
8
16
5
5
12
14
2
3
8
16
5
5
12
14
2
3
7
15
5
5
12
14
2
3
7
15
5
5
12
14
1
3
7
15
5
5
12
14
1
3
7
15
5
5
12
14
1
3
7
15
5
5
12
14
1
3
7
15
5
5
12
13
1
3
7
15
5
5
12
13
1
3
7
15
5
5
12
13
1
3
7
15
5
5
12
13
1
3
8
15
5
5
12
13
1
3
11
15
5
5
11
13
1
3
11
16
5
5
11
14
1
3
11
16
5
5
11
13
1
3
11
16
5
5
11
13
1
3
11
16
5
5
11
13
1
3
11
16
5
5
11
13
1
3
11
16
5
5
12
14
2
3
11
16
5
5
14
16
2
3
11
16
5
5
13
16
2
3
11
16
5
5
13
16
2
3
12
16
5
5
12
16
