1
0
13
4
0
6
21
1
0
0
9
2
1
5
15
1
0
0
14
2
1
4
12
1
0
2
14
2
1
4
11
1
0
1
14
2
1
4
10
1
1
1
14
2
1
4
9
1
1
2
14
2
1
4
8
1
1
2
13
2
1
4
9
1
1
2
13
2
1
4
9
1
1
2
12
2
2
4
10
1
1
3
12
2
2
4
11
1
1
4
12
2
2
3
11
1
1
4
11
2
2
3
10
1
1
4
11
2
2
3
10
1
1
4
10
2
2
3
10
1
1
4
10
2
2
3
10
1
1
4
10
2
2
3
9
1
1
4
10
2
2
3
9
1
1
5
12
2
2
3
9
1
1
5
11
3
2
3
9
1
1
6
12
3
2
3
9
1
1
5
11
3
2
3
8
1
1
6
11
3
2
3
8
1
1
6
11
3
2
3
8
1
1
5
11
3
2
3
8
1
1
6
11
3
2
3
8
1
1
6
11
3
2
3
8
1
1
6
11
3
2
3
7
1
1
6
10
3
2
3
7
1
1
6
11
3
2
3
7
1
1
6
11
3
2
2
7
1
1
6
11
3
2
2
7
1
1
6
10
3
2
2
7
1
1
6
10
3
2
2
7
1
1
6
10
3
2
2
7
1
1
5
10
3
2
2
7
1
1
5
10
3
2
2
7
1
1
5
10
3
2
2
6
1
1
5
10
3
2
2
6
1
1
5
10
3
2
2
6
1
1
5
10
3
2
2
6
1
1
5
10
3
2
2
6
1
1
5
10
3
2
2
6
1
1
5
9
3
2
2
6
1
1
5
9
3
2
2
6
1
1
5
9
3
2
2
6
1
1
5
9
3
2
2
6
1
1
5
9
3
2
2
6
1
1
6
9
3
2
2
6
1
1
5
9
3
2
2
6
1
2
8
9
3
2
2
5
2
2
9
9
4
2
3
6
8
3
11
10
4
2
3
6
9
3
14
11
4
2
3
6
10
4
15
11
4
2
3
9
10
4
15
16
4
3
4
10
10
5
15
16
6
3
5
11
13
6
18
20
6
3
5
12
15
6
19
20
6
3
5
12
15
6
19
21
7
4
6
12
15
6
19
21
8
5
6
12
16
9
21
23
12
6
6
12
16
12
23
25
12
6
8
12
17
12
23
25
12
6
8
12
17
12
26
25
13
6
8
13
17
12
29
25
13
7
13
13
17
12
32
26
13
7
13
15
19
13
32
31
15
7
19
18
21
16
34
34
17
9
21
25
22
16
34
34
17
9
21
28
22
17
35
34
17
9
21
28
28
19
36
38
21
9
21
28
28
19
37
39
22
9
21
28
30
20
37
39
23
9
22
29
31
20
37
40
23
10
22
30
31
22
38
41
23
10
22
30
34
24
40
41
23
10
22
30
35
24
40
42
23
10
22
30
35
24
41
42
24
10
22
30
37
25
42
45
24
11
22
32
38
26
46
48
24
11
22
33
38
27
48
49
24
11
22
35
40
27
48
50
25
11
22
35
41
27
49
50
25
11
23
35
41
27
50
51
26
12
26
38
44
27
51
54
29
12
28
40
44
28
51
56
30
13
28
41
44
28
52
58
30
13
28
41
47
29
52
58
35
16
29
42
47
29
52
59
35
16
31
46
50
29
52
59
36
16
31
48
50
30
55
62
36
17
31
48
50
31
58
62
38
17
31
48
52
32
58
64
40
17
31
48
53
32
58
66
40
17
32
48
54
32
60
67
40
17
32
48
54
32
60
70
40
17
33
49
54
32
61
71
41
17
33
49
55
32
62
71
41
17
33
50
55
32
62
72
41
17
34
51
55
32
61
74
42
17
34
51
56
32
63
74
42
17
34
51
55
32
64
73
42
17
34
51
55
32
64
74
42
17
34
51
56
32
64
74
42
17
34
51
56
32
64
74
42
17
34
51
57
33
64
74
42
17
34
51
57
33
66
74
42
17
34
51
57
34
68
74
42
17
34
51
57
34
68
74
43
17
34
51
57
34
68
74
43
17
34
52
57
34
68
74
42
17
34
52
57
33
67
73
42
17
34
53
57
33
67
75
42
17
34
53
57
33
66
75
43
17
35
53
58
33
65
76
43
18
33
53
59
34
64
76
44
18
34
53
59
33
65
74
43
18
31
53
59
32
64
74
43
17
29
50
59
32
64
74
43
18
29
49
61
32
64
75
43
18
29
49
58
31
63
74
42
18
29
49
58
31
63
74
42
18
29
49
57
31
63
74
42
18
29
50
58
31
63
73
42
18
29
50
59
30
64
73
42
17
29
50
58
29
63
73
42
17
30
50
57
29
63
73
42
17
30
51
57
30
62
74
42
17
30
50
56
31
62
72
42
17
29
49
56
30
60
71
43
17
29
49
56
30
59
72
43
17
30
48
56
30
59
72
42
17
30
48
57
30
59
72
42
17
30
49
57
30
59
71
41
17
28
47
54
30
59
69
40
17
25
45
54
31
58
68
38
16
25
46
54
30
58
66
38
16
26
47
52
30
58
66
34
14
24
46
53
30
59
66
34
14
23
43
50
30
59
66
34
13
23
41
51
28
56
66
34
13
23
41
51
28
54
66
33
13
22
41
48
27
54
64
31
13
22
41
47
28
54
61
32
13
23
42
47
28
53
60
33
13
24
43
47
29
55
58
33
13
23
42
47
29
54
57
32
13
23
42
46
29
55
58
32
13
24
43
46
29
57
60
33
13
25
44
45
29
57
59
32
13
25
44
45
29
55
61
32
13
25
44
45
29
54
61
33
13
25
44
45
29
54
61
32
13
25
44
44
29
55
61
32
13
25
44
43
29
56
59
32
13
25
44
42
28
57
59
32
13
26
48
44
27
54
58
32
13
26
48
43
26
51
59
32
13
26
48
43
26
51
59
31
13
26
48
45
26
51
60
32
13
26
47
45
26
51
59
32
13
26
47
45
26
51
60
34
14
26
48
44
26
51
60
35
14
26
48
44
27
51
61
35
14
26
48
44
27
51
61
35
14
28
50
42
27
52
60
33
13
29
50
42
27
51
61
34
13
29
49
40
26
52
60
33
13
29
50
40
26
52
62
33
13
29
49
39
25
52
60
33
13
29
49
39
26
53
59
32
13
29
49
39
26
53
60
32
13
30
49
39
25
53
62
32
12
30
49
37
25
52
63
32
12
30
49
35
25
51
62
32
13
30
49
35
25
51
62
32
13
30
48
35
25
51
62
32
13
30
48
36
23
52
61
32
13
30
48
37
22
52
61
32
13
30
48
37
21
51
60
31
13
30
48
35
22
51
58
31
13
30
48
34
22
51
57
31
13
30
48
33
21
50
57
31
13
30
47
33
21
49
57
31
13
30
46
34
21
51
58
31
13
30
46
34
20
51
58
31
13
30
46
33
20
51
58
31
13
30
44
33
20
51
58
31
13
30
44
32
19
49
59
33
12
30
44
32
19
49
59
32
13
30
45
32
19
51
58
33
13
31
47
32
19
54
58
32
13
31
47
32
19
54
58
31
12
32
47
32
19
56
59
32
13
32
47
32
18
55
59
31
13
31
46
32
18
56
58
30
13
31
46
32
18
57
59
30
13
31
47
32
19
56
57
30
12
30
45
33
19
55
55
29
13
28
44
33
19
55
54
29
12
28
43
33
19
55
52
29
13
28
44
33
19
54
52
29
12
28
44
33
19
54
52
30
12
28
44
33
19
52
52
30
12
28
44
33
19
51
52
31
12
28
44
33
19
50
52
30
12
27
42
31
19
51
52
30
12
27
42
32
19
52
51
30
12
27
42
32
19
52
51
30
12
27
42
29
20
53
50
29
11
27
41
29
20
53
50
29
11
27
41
29
20
53
49
27
11
27
41
29
20
53
47
25
11
27
40
29
19
54
45
25
11
26
40
28
19
54
45
26
10
24
38
28
19
53
45
26
9
23
37
28
19
53
45
26
10
23
37
29
19
52
44
26
10
25
38
29
18
52
43
26
10
25
38
28
18
51
43
26
10
25
38
29
18
51
44
26
10
24
38
29
18
51
42
26
10
24
39
29
17
51
39
25
9
24
38
29
18
52
39
25
9
24
38
29
19
52
38
25
9
23
38
29
19
51
39
25
9
23
38
29
18
52
39
25
9
23
38
29
18
51
39
25
9
23
37
27
19
51
41
25
9
23
38
27
19
51
41
25
9
23
38
27
18
51
42
25
9
23
38
28
18
51
44
25
9
23
38
26
18
51
44
25
9
24
38
27
18
51
44
25
9
24
38
26
19
53
45
26
9
24
38
26
21
55
45
26
9
24
38
26
21
55
45
27
9
24
38
26
21
55
45
27
9
24
38
26
21
55
44
25
9
24
39
27
21
55
47
24
9
23
38
26
21
53
47
24
9
22
36
26
21
50
46
24
9
21
36
26
21
50
46
24
9
21
35
26
23
48
46
24
9
20
35
26
23
48
46
23
9
20
35
26
23
46
46
23
9
20
36
25
24
46
45
23
9
21
36
25
24
46
45
24
9
23
36
25
24
46
45
23
9
22
37
25
25
46
45
23
9
22
37
25
25
47
45
23
9
22
36
25
25
48
45
23
9
22
36
25
25
48
46
23
9
22
36
25
25
49
46
22
9
22
36
24
25
49
46
22
9
22
36
24
25
49
46
22
9
22
34
24
25
48
46
22
9
22
35
23
25
48
46
22
9
22
34
23
25
48
49
23
9
22
34
23
25
48
50
23
9
22
34
23
25
49
49
22
10
22
35
23
25
49
49
22
9
21
34
23
25
49
49
22
9
21
34
23
25
49
49
22
9
22
34
24
25
50
49
21
9
22
34
24
25
50
49
21
9
22
34
24
26
50
49
21
9
22
34
23
26
50
49
21
9
20
32
22
26
50
49
21
9
20
33
22
26
51
50
22
9
20
32
21
26
51
49
22
9
20
33
21
26
51
49
22
9
20
31
21
26
51
48
21
10
20
32
22
26
50
50
21
10
20
32
23
25
51
50
21
10
20
32
23
26
50
50
21
9
19
33
23
26
51
50
21
9
19
33
22
26
53
50
21
9
19
33
23
25
53
48
22
9
20
33
23
25
53
48
22
9
19
36
22
25
52
48
22
9
19
36
21
26
52
47
22
9
20
37
21
27
52
47
22
9
20
38
20
27
52
49
22
9
20
39
20
26
50
49
22
9
20
39
20
25
51
49
21
9
20
39
21
25
51
48
21
9
19
39
21
25
51
49
21
9
19
40
21
25
51
48
21
9
19
39
21
25
53
45
22
9
19
38
22
25
53
46
22
9
19
38
21
25
54
46
22
9
19
38
21
25
56
46
22
9
19
38
21
23
57
46
21
9
19
38
22
23
60
46
21
9
19
38
23
23
61
45
21
9
19
38
23
22
59
46
21
9
18
38
23
22
61
46
21
9
16
39
23
21
62
46
21
8
16
38
23
21
61
45
21
8
17
38
23
21
61
45
21
8
20
42
23
20
61
46
21
9
24
45
23
20
61
45
20
8
24
45
23
20
60
46
20
9
24
46
23
20
61
47
20
9
24
48
24
20
61
47
20
8
24
47
24
21
62
47
20
8
26
48
24
20
62
48
20
8
28
49
24
20
61
47
19
8
28
49
24
20
60
47
20
8
28
49
23
20
61
48
20
8
28
49
23
20
61
50
21
8
29
49
23
20
63
52
21
8
30
48
23
20
63
52
21
8
30
48
23
20
62
53
21
8
30
48
23
19
62
53
21
8
30
48
23
19
62
52
21
7
30
49
24
19
62
52
21
7
30
52
25
19
62
52
21
7
31
53
26
19
61
51
20
7
31
53
26
19
61
52
21
7
31
53
26
20
63
52
21
7
31
53
26
21
65
55
21
6
31
53
24
20
66
56
21
6
31
52
24
20
65
57
21
6
31
54
25
20
65
58
21
6
32
54
25
20
65
58
21
6
32
55
24
20
64
58
21
6
32
55
27
20
64
59
21
6
32
54
27
20
63
59
21
6
32
54
27
20
65
57
21
6
32
54
27
19
65
57
21
6
32
53
27
18
65
58
21
6
32
53
27
18
66
56
20
6
32
52
27
18
66
55
21
6
32
52
27
19
64
55
20
6
32
52
27
18
64
55
20
6
32
53
27
19
64
55
20
6
33
53
27
19
64
55
20
6
33
54
26
18
63
57
19
6
33
54
26
18
64
56
18
6
32
54
26
18
63
56
19
6
32
54
26
18
61
57
20
7
32
54
26
18
59
56
20
7
32
54
25
17
56
56
20
7
32
54
24
18
55
57
21
7
32
53
24
18
55
56
21
7
33
54
24
17
52
57
21
7
33
54
24
18
53
58
22
7
33
53
24
18
53
58
22
7
33
53
24
18
52
58
22
7
30
50
24
18
52
59
23
7
28
49
23
18
54
59
23
7
27
51
23
18
54
59
23
7
27
50
23
18
53
59
23
7
27
49
23
18
53
59
23
7
27
49
23
17
51
60
23
7
26
49
23
17
52
62
23
7
23
48
23
17
52
60
24
7
23
48
23
17
52
60
23
7
23
48
23
17
50
59
23
7
23
48
23
18
50
57
23
7
21
48
23
18
49
56
23
7
20
48
23
18
48
56
23
7
20
48
22
17
48
55
23
7
20
48
22
17
48
55
23
7
20
48
23
17
48
55
23
7
20
47
22
17
48
55
23
7
19
44
20
17
48
55
23
7
19
43
20
17
49
55
23
7
19
43
19
16
50
55
23
7
18
43
19
15
48
55
23
8
18
43
19
14
45
52
23
8
18
43
19
14
44
50
23
8
18
43
18
14
43
49
22
8
17
42
18
14
43
48
22
8
17
42
18
14
42
48
22
8
16
40
18
15
43
48
22
8
16
40
14
15
42
47
22
8
16
40
13
15
42
47
23
8
16
38
13
15
40
47
23
8
15
38
13
15
40
48
23
8
15
38
12
15
39
46
23
8
15
38
12
14
39
46
23
8
14
38
12
14
37
46
23
8
14
37
12
13
37
46
23
8
14
37
12
13
35
46
23
8
14
35
11
12
34
46
23
8
12
34
11
12
34
46
23
8
12
34
11
12
33
44
23
8
12
34
11
12
32
44
23
8
12
33
11
12
32
43
22
8
12
33
11
12
32
43
21
7
12
33
10
12
32
43
21
7
12
33
10
12
32
43
21
7
12
32
10
10
32
42
20
7
11
32
10
10
31
42
20
7
11
31
10
10
31
41
20
7
11
30
10
10
29
39
19
7
10
29
10
9
29
39
19
7
10
29
10
9
29
39
18
7
10
29
10
9
28
37
17
6
10
25
10
9
24
36
17
6
10
21
10
9
24
34
17
7
10
20
9
9
24
34
17
7
10
19
7
9
24
34
16
7
10
19
7
9
24
31
16
7
10
18
7
8
23
27
16
6
10
16
7
8
21
27
15
6
10
16
7
8
21
26
15
6
10
16
6
8
21
26
14
6
10
16
6
7
20
26
14
6
10
15
6
7
19
26
14
7
10
15
6
7
19
25
14
6
10
14
6
7
19
26
14
6
9
14
6
7
18
25
14
6
9
13
4
7
18
26
14
6
7
13
4
7
17
25
14
6
7
12
4
6
16
25
14
6
7
11
3
6
11
24
14
6
7
11
3
6
10
21
13
6
7
11
3
6
10
22
13
6
7
10
3
6
9
22
13
6
7
8
3
6
8
21
13
6
7
8
2
6
8
21
13
6
7
8
2
6
8
21
13
6
6
8
2
6
8
20
13
6
6
8
2
5
6
20
13
6
6
7
2
5
6
19
12
6
6
7
2
5
6
19
10
5
6
7
2
5
6
19
10
5
6
7
2
4
6
16
10
5
6
7
2
4
6
17
10
5
6
6
2
5
6
17
9
5
6
5
2
5
6
17
9
5
6
6
2
5
6
17
9
5
6
6
2
5
6
17
9
5
6
6
2
5
6
17
9
5
6
6
2
5
6
17
9
5
6
7
2
4
6
16
8
5
6
6
2
5
6
16
8
5
6
6
2
5
6
16
8
5
6
6
2
5
7
16
8
5
6
6
2
5
6
16
8
5
6
10
2
5
7
16
8
5
6
14
2
5
7
16
8
5
6
14
2
5
7
16
7
5
7
14
2
5
7
16
8
5
7
14
2
5
7
16
8
5
7
14
2
5
7
16
8
5
7
15
2
5
7
16
8
5
7
15
2
5
7
17
8
5
7
15
2
5
7
17
7
5
7
15
2
4
6
16
8
5
8
15
2
4
7
17
8
5
8
15
2
4
7
17
7
5
8
15
2
4
7
16
7
4
8
15
2
4
7
17
7
4
8
15
2
4
7
18
7
4
8
17
2
4
7
18
7
4
8
17
2
4
7
17
7
4
8
17
2
4
7
18
7
4
8
17
2
4
7
18
7
4
8
17
2
4
7
18
7
4
10
18
2
4
7
19
7
4
10
18
2
4
7
19
7
4
10
18
2
4
7
19
6
4
10
19
2
4
7
18
6
4
10
19
2
4
8
19
6
4
10
19
2
4
8
19
6
4
10
19
2
4
8
19
6
4
10
19
2
4
8
18
6
4
10
19
2
4
8
18
6
4
10
19
2
4
8
19
6
4
10
19
2
4
8
19
6
4
10
19
2
4
8
19
6
4
10
19
2
4
8
18
6
4
10
19
2
4
8
18
6
4
10
19
2
4
8
18
6
4
10
19
2
4
8
18
6
4
10
19
2
4
8
18
5
3
10
19
2
4
8
18
5
3
11
19
2
4
8
18
5
3
11
19
2
4
9
17
6
3
11
19
2
4
8
17
5
3
11
19
2
4
8
18
6
3
11
19
2
4
8
17
6
3
11
19
2
4
8
18
6
3
11
19
2
4
8
18
6
3
11
19
2
4
8
18
6
3
11
19
2
4
8
18
6
3
11
19
2
4
8
18
5
3
12
19
2
3
8
18
6
3
12
19
2
3
8
18
6
3
11
18
2
3
8
19
5
3
11
15
2
3
8
19
5
3
11
15
2
3
8
19
5
3
11
15
2
3
8
19
5
3
11
15
2
3
8
19
5
3
11
15
2
3
8
19
5
3
10
14
2
3
8
19
6
4
10
14
2
3
8
19
6
4
10
14
2
3
8
19
6
4
10
14
2
3
9
19
5
4
10
14
2
3
9
18
5
4
10
14
2
3
9
18
6
4
10
14
2
3
9
18
6
4
10
14
2
3
9
17
5
4
10
14
2
3
9
17
5
4
10
14
2
3
8
17
5
4
10
14
2
3
8
17
5
4
10
14
2
3
8
17
5
4
10
14
2
3
8
17
6
4
10
13
2
3
8
17
6
4
8
12
2
3
8
16
5
4
8
11
2
3
8
16
5
4
8
11
2
3
8
16
5
4
8
11
2
3
9
16
5
4
8
11
2
3
9
15
5
4
8
11
2
3
9
15
5
4
7
11
2
3
8
15
5
4
7
11
2
3
8
14
5
4
7
11
2
3
8
15
5
4
7
11
2
3
8
14
5
4
7
11
2
3
8
14
5
4
7
11
2
3
8
14
5
4
7
11
2
3
8
14
5
4
7
11
2
3
8
15
5
4
7
11
1
3
8
15
5
4
7
11
1
2
8
15
5
4
7
11
1
2
8
15
5
4
7
11
1
2
8
15
5
4
6
10
1
2
8
15
5
4
6
10
1
2
8
15
5
4
6
10
1
2
8
17
5
4
6
10
2
2
8
17
5
4
5
10
2
2
8
17
5
4
5
10
2
3
8
16
5
4
5
10
2
3
8
19
6
4
5
10
6
3
8
19
6
4
5
10
7
3
8
19
6
4
5
10
7
3
9
19
7
4
6
10
7
3
9
19
7
4
7
10
8
3
9
19
7
4
7
9
9
3
10
19
7
4
8
9
9
4
10
19
7
4
8
9
9
4
10
19
7
4
8
9
9
4
10
22
7
4
8
10
10
4
12
23
7
4
8
10
13
4
12
23
8
4
8
10
14
7
13
25
7
5
9
11
15
7
12
27
8
5
9
13
15
7
14
32
10
5
9
13
15
7
14
33
10
5
12
15
16
7
15
34
10
5
13
16
16
7
15
35
10
5
13
16
17
8
15
39
11
6
13
17
18
8
17
42
11
6
13
17
18
8
17
42
11
6
13
18
19
8
19
44
12
7
13
18
19
10
22
44
12
7
13
18
21
10
23
44
12
7
13
19
22
11
23
45
12
7
15
22
24
11
24
45
13
7
16
22
27
19
27
45
13
8
17
23
29
20
27
46
14
8
18
24
29
20
27
46
14
8
18
25
29
22
27
49
15
9
18
25
29
23
29
49
15
9
18
25
31
23
29
49
15
9
20
27
31
26
29
52
17
10
23
28
33
27
30
53
17
10
23
28
33
28
32
53
19
11
25
30
38
28
32
56
23
11
27
35
39
30
32
56
23
11
30
35
39
30
33
56
23
11
34
36
41
30
34
57
23
11
34
36
42
30
35
57
23
11
34
38
46
30
37
58
23
12
35
38
46
31
38
57
25
12
35
39
46
31
39
57
25
13
36
40
48
31
41
57
27
13
37
40
48
32
41
58
27
13
38
41
49
32
42
61
29
13
38
42
49
33
46
63
31
13
38
42
52
33
49
63
32
14
42
42
53
34
50
63
32
14
43
44
53
34
50
64
32
14
43
44
54
34
52
63
35
14
43
45
54
34
52
65
36
14
43
45
54
34
52
66
36
14
43
45
54
34
52
66
36
14
43
46
54
34
52
66
37
15
43
46
55
37
55
67
37
15
43
48
55
37
57
68
37
15
43
48
56
38
58
70
38
18
43
48
56
38
60
71
40
18
44
51
57
38
62
70
41
18
45
53
57
38
62
72
41
18
45
54
59
38
62
72
43
18
45
54
59
38
62
73
44
18
45
54
59
38
62
73
43
18
45
54
59
38
62
71
45
18
45
54
59
38
62
72
48
18
45
54
59
38
62
74
49
18
45
54
60
38
62
74
50
18
45
54
61
38
62
72
50
18
45
54
61
39
62
72
50
18
45
54
61
40
63
73
50
18
45
54
61
40
62
71
51
18
45
54
62
40
62
71
51
18
45
54
61
40
62
72
51
18
45
54
61
40
64
71
52
18
44
53
60
40
63
71
52
18
44
53
59
37
63
71
52
18
44
52
59
38
65
71
52
18
44
52
60
39
66
71
52
18
44
53
61
38
66
70
52
18
44
53
61
38
65
70
52
18
44
53
60
37
67
71
52
18
44
52
60
36
68
70
52
18
42
52
60
34
68
69
52
18
43
52
60
35
67
69
52
18
42
51
57
35
69
68
50
18
40
47
57
33
69
69
50
18
39
48
57
34
69
68
50
18
38
48
55
36
70
69
51
18
37
48
54
36
70
69
51
18
37
46
51
36
69
69
51
17
38
47
52
36
69
69
50
17
39
48
52
36
69
71
50
17
38
47
50
36
68
71
50
17
36
47
50
35
68
71
50
17
35
46
49
35
67
69
48
17
35
46
50
35
65
67
47
17
35
46
48
35
64
67
47
16
31
46
47
35
63
69
47
16
29
44
46
35
63
68
47
16
29
44
46
36
61
68
45
16
29
43
46
37
62
67
44
16
29
43
46
36
62
67
44
16
29
43
46
37
62
66
45
16
28
43
47
37
63
66
45
15
29
43
46
34
61
65
46
15
29
41
46
34
60
65
46
16
29
41
45
34
59
63
45
13
30
44
45
34
57
63
42
12
29
42
45
35
55
64
42
13
27
39
45
35
55
61
42
13
28
40
43
35
56
60
40
12
28
39
43
35
56
58
41
13
28
39
44
34
56
59
41
13
27
39
44
34
56
58
39
12
27
38
45
34
56
55
36
12
27
38
44
34
57
55
34
12
27
38
44
36
58
57
32
12
27
38
42
37
58
56
32
12
27
38
42
36
57
55
32
12
27
37
41
36
57
54
32
12
28
38
41
36
58
55
31
12
28
39
40
36
57
55
31
12
28
39
40
36
57
54
31
12
29
39
41
35
56
54
30
11
29
39
41
35
56
56
30
11
29
39
41
35
55
57
30
13
31
41
39
34
53
57
29
13
31
41
39
33
52
57
29
13
31
40
37
33
52
56
29
12
30
41
37
33
52
56
30
12
31
40
37
33
51
55
30
12
34
40
38
33
50
57
32
13
33
40
36
34
50
57
31
13
33
41
37
33
50
57
31
13
33
41
37
33
48
57
31
13
34
41
37
33
47
56
31
13
32
41
38
33
47
56
32
13
30
40
38
30
45
56
32
13
30
40
38
31
45
55
32
13
30
40
38
31
45
55
31
13
28
39
37
31
46
55
31
13
28
38
37
31
44
53
31
12
28
38
37
31
44
53
31
12
28
38
37
31
45
53
31
13
29
39
39
31
45
55
31
13
29
39
40
30
46
57
32
13
31
40
40
30
45
58
32
13
31
40
40
29
47
56
31
13
31
40
40
29
47
57
33
13
31
40
39
27
49
59
36
13
31
40
39
27
49
59
36
13
31
40
39
28
49
59
36
13
31
40
38
27
48
59
36
13
31
39
37
27
48
59
34
13
31
39
37
27
48
60
34
13
30
39
38
27
48
60
34
12
30
40
37
27
47
60
34
13
30
37
37
26
46
60
34
13
30
36
36
27
47
58
34
13
30
35
36
27
47
58
34
13
30
35
35
27
46
58
35
13
29
36
34
28
46
58
34
13
29
36
32
28
46
59
34
13
29
36
32
28
46
60
34
13
30
37
32
28
46
60
34
13
30
38
32
27
46
59
33
13
30
37
31
26
44
56
33
14
30
37
32
24
44
56
33
14
30
39
32
24
45
56
33
14
30
40
32
25
47
56
34
14
30
39
32
26
47
56
34
14
29
40
32
25
47
58
34
14
29
39
32
25
49
60
33
14
28
39
32
25
48
61
34
14
27
39
31
25
48
60
34
14
27
40
31
25
49
58
34
13
26
37
31
25
49
59
34
13
26
38
31
27
50
61
35
13
26
38
31
26
50
63
37
13
26
38
31
26
49
65
36
12
23
38
32
27
49
65
35
12
20
37
31
26
49
64
33
11
20
37
31
25
49
64
33
11
20
37
30
25
49
64
34
11
20
36
30
25
49
63
34
11
19
36
31
25
49
64
33
11
19
36
30
26
49
64
33
11
19
36
30
26
49
63
33
11
19
36
30
24
48
64
33
11
21
38
30
24
49
66
33
11
22
39
30
25
51
66
34
12
22
39
30
25
51
66
34
12
22
38
30
25
53
66
34
12
22
38
29
25
53
66
33
11
22
38
26
26
53
64
33
11
21
38
24
26
52
62
33
11
19
37
25
26
52
63
33
11
19
37
25
26
50
63
33
11
19
40
25
27
50
64
31
11
20
41
26
27
50
62
27
11
19
40
26
27
49
62
27
11
20
41
26
27
49
62
27
11
20
42
27
28
50
62
27
11
20
42
27
27
49
62
27
11
19
41
27
27
49
62
27
11
19
41
28
27
49
61
27
10
19
40
27
28
49
61
26
10
19
41
27
27
48
61
26
10
19
42
28
26
48
61
27
10
19
41
28
26
48
61
27
10
19
41
28
26
48
62
26
10
19
41
28
26
48
62
25
9
19
41
29
25
50
61
25
9
19
42
29
25
51
60
25
9
19
41
29
25
51
60
25
9
18
42
29
25
51
60
25
9
19
43
29
25
51
60
25
8
19
43
28
25
52
60
25
8
19
41
28
25
51
62
25
8
19
41
28
24
50
62
25
8
18
41
28
23
50
62
25
8
19
40
28
23
50
61
25
8
19
40
27
23
48
59
25
8
19
40
27
23
48
58
25
8
20
42
27
24
52
58
25
8
20
42
27
24
52
58
24
7
20
42
27
24
52
58
24
8
20
42
29
22
51
56
23
8
21
42
29
23
51
53
20
8
21
43
29
26
52
51
21
7
21
43
29
26
51
50
21
7
21
44
29
26
52
50
24
8
21
44
30
27
52
51
25
9
21
45
31
27
54
51
25
9
22
45
31
27
54
52
24
9
22
45
29
27
55
51
25
9
21
45
30
26
55
51
25
9
22
45
30
26
55
51
24
9
22
45
29
27
55
51
25
9
21
44
30
27
55
49
25
9
20
43
29
27
54
48
25
9
20
43
29
28
55
47
26
10
20
43
30
28
54
47
26
10
20
43
30
28
53
47
26
10
20
44
31
28
53
46
26
10
20
43
32
28
53
46
26
10
20
43
32
28
54
43
27
10
21
43
31
28
53
42
26
10
21
42
31
27
54
40
27
10
21
42
31
27
54
39
27
10
22
42
31
27
53
41
27
10
21
41
31
27
53
41
28
11
22
42
31
27
53
41
28
11
22
42
30
27
53
43
28
11
22
42
30
27
53
42
28
11
23
42
29
27
53
45
28
11
23
42
29
27
54
48
29
11
23
41
30
27
54
49
29
11
22
40
31
27
54
49
29
11
22
40
31
27
54
48
30
11
22
40
31
27
54
48
30
11
23
40
31
27
54
48
30
11
23
40
30
27
52
48
30
11
22
39
30
27
52
49
31
11
22
39
30
27
52
48
31
11
23
38
30
27
52
49
31
11
22
37
30
27
52
48
31
11
22
37
30
27
52
48
33
12
22
37
30
26
51
46
33
12
22
36
30
26
53
45
34
13
23
36
29
27
52
45
34
12
23
36
30
26
52
44
34
12
23
36
30
27
52
44
34
13
23
36
30
27
52
44
34
13
22
34
30
26
49
44
34
13
22
34
29
26
48
44
34
13
22
34
30
26
47
43
34
13
23
34
27
26
48
44
34
13
22
34
27
25
48
44
33
13
22
32
27
22
49
44
33
13
22
32
27
21
49
43
33
13
22
32
27
21
49
43
30
12
22
32
25
21
48
41
30
12
22
31
24
21
46
41
31
12
22
31
24
21
45
40
31
12
22
31
24
21
45
40
30
12
22
31
24
20
44
40
31
12
21
30
24
20
44
40
31
12
21
30
24
20
44
39
31
12
22
30
24
20
44
39
30
12
21
30
24
19
42
38
29
12
21
30
24
17
41
38
29
11
21
30
22
17
40
38
29
10
21
30
22
16
40
38
29
11
22
29
21
15
40
39
29
11
23
28
20
15
40
39
29
11
23
28
19
15
39
38
28
11
23
27
18
15
38
38
28
11
22
25
18
15
37
38
28
12
24
25
18
15
37
38
27
12
24
24
18
15
37
36
27
12
24
24
17
15
37
36
27
11
23
23
17
14
37
35
26
11
24
23
17
14
37
34
27
11
24
23
17
13
36
34
27
11
24
23
17
12
35
30
27
11
24
23
17
12
35
26
26
11
24
23
16
12
35
24
25
11
24
23
12
12
34
24
25
11
24
23
12
12
34
24
24
11
24
23
11
12
33
24
24
11
24
22
11
11
33
23
24
11
24
22
10
11
33
24
24
11
24
22
10
11
33
26
24
11
24
22
9
12
33
26
23
12
24
20
9
12
32
26
23
12
24
19
8
11
32
26
23
11
24
19
7
11
31
26
20
11
23
19
7
11
31
26
20
11
23
18
7
11
27
26
18
10
23
18
7
11
27
27
17
10
23
18
7
11
25
27
17
11
26
18
7
10
25
28
17
10
27
18
7
9
25
28
17
10
27
18
7
9
25
28
17
10
27
17
7
9
25
28
17
10
27
17
6
9
25
28
17
10
27
16
5
9
25
28
17
10
27
16
5
9
23
28
17
10
27
16
5
9
19
28
17
10
27
14
5
9
18
28
17
10
27
13
4
9
17
28
17
10
27
13
4
9
16
28
16
10
27
13
4
8
16
28
15
10
27
11
4
8
15
28
15
10
27
10
4
8
15
28
14
10
27
10
4
8
15
28
13
10
27
10
4
8
15
28
13
10
27
10
4
8
14
28
13
10
27
10
4
8
14
28
13
10
27
10
4
8
14
29
12
10
27
9
4
8
14
29
12
10
27
9
4
8
14
29
11
10
27
9
3
7
14
29
11
9
26
9
3
7
14
29
11
9
24
9
3
7
13
29
11
9
24
9
3
7
13
29
11
9
24
9
3
7
12
29
11
9
24
9
3
7
12
29
12
8
22
8
3
7
12
29
11
8
22
8
3
7
11
29
11
8
22
8
3
7
11
29
11
8
22
8
3
7
11
29
10
8
21
7
2
7
11
28
10
8
21
6
2
7
11
28
10
8
21
6
2
7
11
28
10
8
21
6
2
6
11
28
10
8
20
6
2
6
11
28
10
8
20
6
2
6
11
28
10
8
20
6
2
6
10
28
10
8
20
6
2
6
10
28
9
7
20
6
2
6
10
28
9
7
20
6
2
6
9
27
10
7
20
6
2
5
8
23
10
7
20
5
2
4
7
22
10
7
20
5
2
4
7
22
10
7
20
5
2
4
7
22
10
7
20
5
2
4
6
22
10
7
20
5
2
4
7
22
10
7
20
5
2
4
6
22
10
7
20
5
2
4
7
21
9
7
20
5
2
3
6
20
10
5
16
4
2
3
6
20
10
5
13
4
2
4
6
19
10
5
13
3
2
4
6
19
10
5
13
3
2
4
6
18
10
5
12
3
2
4
6
20
10
5
11
3
2
4
6
20
10
5
11
3
2
4
6
19
10
4
10
3
2
4
6
19
10
4
10
4
2
4
6
21
10
4
10
4
2
4
6
21
10
4
10
6
2
4
6
21
10
4
10
6
2
4
6
19
10
4
10
6
2
4
6
19
10
4
10
7
2
3
6
19
10
4
10
7
2
3
6
19
10
4
10
7
2
3
6
19
10
4
10
7
2
3
6
18
10
4
10
7
2
3
6
18
10
4
10
7
2
3
6
17
10
4
10
7
2
3
6
17
10
4
9
7
2
3
5
17
10
4
9
7
2
4
5
17
10
4
10
9
2
4
5
18
10
4
10
10
2
4
5
18
10
4
10
10
2
5
5
18
9
4
10
10
2
5
5
18
9
4
10
10
2
5
5
18
9
4
10
11
2
5
5
18
9
4
9
11
2
5
5
18
9
4
9
11
2
5
6
18
9
4
10
12
2
5
6
18
9
4
10
12
2
5
6
18
9
4
10
12
2
5
7
18
9
4
10
12
2
5
7
18
8
4
10
12
2
5
7
18
8
3
10
13
2
5
7
18
8
4
10
13
2
5
7
19
8
4
11
13
2
5
7
18
8
4
11
14
2
5
7
19
8
4
11
17
2
5
7
19
8
4
11
17
2
5
7
19
7
4
11
17
2
5
7
19
8
4
11
17
2
5
7
19
8
3
10
18
2
5
7
19
8
3
10
18
2
5
7
19
8
3
11
19
2
5
7
19
8
3
11
19
2
5
7
19
8
3
11
19
2
5
7
19
8
3
11
19
2
5
7
19
8
3
11
19
2
5
7
19
7
3
11
20
2
5
7
19
7
3
11
20
2
4
7
19
7
3
11
20
2
4
7
19
7
3
11
20
2
5
7
19
7
3
11
21
2
5
8
18
7
3
11
21
2
5
8
17
6
3
11
21
2
5
8
17
6
3
11
21
2
5
8
16
6
3
11
21
2
5
8
15
6
3
11
22
2
5
8
15
6
3
11
21
2
5
8
14
6
3
11
21
2
5
8
14
6
3
11
21
2
5
8
14
6
3
11
21
2
5
8
15
6
4
11
21
2
5
8
15
6
4
11
21
2
5
8
15
6
4
12
22
2
5
8
15
6
4
12
22
2
5
8
15
6
4
12
22
2
5
8
15
6
4
12
22
2
5
8
15
6
3
12
22
2
5
8
15
6
3
13
23
3
5
8
15
6
4
13
22
3
5
8
15
6
4
13
21
3
5
8
18
6
4
13
21
3
4
8
18
6
4
13
21
3
4
8
18
6
4
13
21
3
4
8
18
6
4
13
21
2
5
8
18
6
4
13
21
3
5
8
18
6
4
13
22
2
5
8
18
6
4
12
22
2
5
8
19
6
4
12
21
2
5
8
19
6
4
12
21
2
5
7
19
6
4
12
21
2
5
7
19
6
4
13
22
3
5
7
19
6
4
13
22
3
5
7
19
6
4
13
22
3
5
7
19
6
4
13
22
3
5
7
19
7
4
13
21
2
5
7
18
7
4
13
19
2
5
7
18
7
4
13
19
2
5
7
18
7
4
13
19
2
5
7
18
6
4
13
19
2
5
7
18
6
4
13
18
2
5
7
18
6
4
13
18
2
5
7
18
6
4
12
17
2
5
7
18
6
4
12
17
2
5
7
18
6
4
12
17
2
5
7
18
6
4
12
17
2
5
7
17
6
4
12
17
2
5
7
17
6
4
12
17
2
5
7
17
6
4
12
17
2
5
7
18
6
4
12
17
2
5
7
17
6
4
12
17
2
4
6
17
6
4
11
16
2
4
6
17
6
4
11
16
2
4
6
17
6
4
11
15
2
4
6
18
6
4
12
15
2
4
6
18
7
4
11
15
2
4
6
18
7
4
11
14
2
4
6
17
6
4
11
14
2
4
6
17
6
4
12
14
2
4
6
17
7
4
12
14
2
4
6
17
7
4
12
14
2
4
6
17
7
4
12
14
2
4
6
17
6
4
12
14
2
4
6
17
7
4
11
13
2
4
6
17
7
4
10
13
2
4
6
18
7
4
10
13
2
4
6
18
7
4
10
12
2
4
6
18
7
4
10
12
2
3
6
18
7
4
9
12
2
3
6
17
7
4
9
11
2
3
6
16
7
4
9
11
1
3
6
13
7
4
9
11
1
3
6
14
7
4
9
11
1
3
6
14
7
4
9
11
2
3
6
14
7
4
9
11
2
2
5
13
7
4
9
11
1
2
5
13
7
4
9
10
1
2
5
13
7
4
9
9
2
2
5
12
7
4
9
9
2
2
5
12
7
4
9
9
2
2
5
12
7
4
9
9
2
2
5
12
7
4
8
8
1
2
6
12
7
4
7
8
1
2
6
12
7
4
7
8
1
2
6
12
7
4
6
7
1
2
6
12
7
4
6
7
1
2
6
12
6
4
6
7
1
2
6
12
6
4
6
7
1
2
6
12
6
4
6
6
1
2
6
12
6
4
6
6
1
2
6
12
6
4
6
6
1
2
6
12
6
4
5
6
1
2
6
12
6
4
6
5
1
2
6
12
6
4
6
5
1
2
6
12
6
4
6
5
1
2
6
12
6
4
6
4
1
2
6
12
6
4
6
3
1
2
6
12
6
4
6
3
1
2
6
12
6
4
6
3
1
2
6
11
6
4
5
3
1
2
6
12
6
4
5
3
1
2
6
12
6
4
5
3
1
2
6
12
6
4
5
3
1
2
7
12
6
4
5
3
1
2
7
12
6
3
5
3
1
2
9
12
6
3
6
3
1
2
10
13
6
3
6
4
1
3
10
13
6
3
7
5
4
3
11
15
6
3
9
5
7
3
11
15
6
3
9
5
7
3
14
16
7
3
10
11
7
3
15
22
8
4
10
11
9
3
15
26
9
4
12
12
15
4
16
28
9
6
12
12
17
11
19
31
11
7
12
13
18
12
25
32
11
7
12
14
18
12
28
33
11
7
13
16
20
13
28
34
13
7
13
20
21
14
32
35
13
7
20
25
22
14
35
37
14
11
25
26
22
16
36
41
14
11
27
31
25
16
37
41
14
12
30
32
25
16
41
44
16
12
32
34
26
16
41
45
16
12
32
35
28
17
45
46
16
13
33
35
28
17
46
46
17
13
33
35
30
17
47
50
19
16
36
35
32
19
47
53
19
19
39
35
33
20
48
55
21
20
40
37
33
21
51
57
22
21
40
37
33
24
52
58
23
21
41
38
34
29
55
58
23
22
41
38
37
30
57
58
23
22
42
40
38
30
60
58
23
22
42
43
38
30
62
58
25
22
43
47
38
31
64
58
26
22
44
49
38
31
65
58
26
22
47
51
40
31
66
59
26
22
47
51
43
31
66
60
28
22
47
51
43
31
67
62
30
22
47
51
46
31
67
62
30
22
47
51
46
31
69
62
31
23
47
51
46
31
69
63
33
23
47
52
49
31
70
65
33
24
47
54
51
32
70
65
34
24
48
54
52
32
70
65
34
24
48
54
52
32
70
65
34
24
48
56
52
32
70
66
36
24
49
57
52
33
71
66
36
24
50
57
52
33
72
67
36
25
51
57
52
33
72
69
38
25
51
57
53
33
74
71
38
25
51
58
53
33
75
72
38
25
51
58
53
33
76
72
38
25
51
58
53
35
76
72
38
25
51
59
54
35
76
72
38
25
51
59
54
35
76
73
38
25
51
59
54
35
77
73
38
25
51
60
54
35
77
73
38
25
51
61
54
35
77
73
38
25
51
61
54
36
77
75
39
25
51
61
54
36
77
74
39
25
51
62
54
36
78
74
39
25
51
62
54
36
78
74
39
25
51
62
53
35
77
73
39
25
51
63
53
35
76
73
38
25
51
63
53
35
75
73
39
25
51
63
53
35
75
72
38
25
51
62
53
34
74
72
38
25
48
60
53
35
73
73
38
23
47
61
52
34
73
71
38
23
45
58
52
34
73
71
38
23
43
58
52
34
72
70
38
24
42
57
52
34
72
70
38
24
43
56
51
34
69
69
38
23
42
57
53
34
69
70
38
23
42
57
52
34
69
69
37
21
39
57
51
33
69
67
37
19
37
57
51
35
68
65
36
18
36
57
50
35
66
63
35
16
35
56
50
33
67
65
35
16
35
56
50
29
66
65
35
15
35
57
48
28
64
66
36
15
34
56
48
29
62
66
36
15
34
53
48
28
61
67
35
15
34
53
49
28
61
68
34
15
32
51
49
29
62
68
34
15
28
50
48
29
61
68
34
15
28
50
47
28
61
67
33
15
28
51
47
29
62
65
30
15
28
51
45
29
63
66
30
15
28
51
45
29
62
66
30
14
28
51
45
29
62
66
27
14
28
53
42
29
62
65
30
13
28
52
41
28
63
66
30
14
30
55
41
28
65
66
30
14
33
57
42
28
66
66
30
14
32
55
42
29
65
66
29
13
32
57
42
28
64
66
29
13
30
57
42
28
63
66
29
13
29
57
42
28
65
64
28
13
29
57
42
29
65
62
27
13
29
56
42
28
67
60
27
13
29
56
42
28
67
61
27
14
29
56
42
27
66
60
29
15
29
56
44
27
67
61
29
14
29
56
45
27
67
61
29
14
30
56
45
28
67
60
29
15
30
55
45
28
67
61
29
15
30
54
45
28
68
61
29
15
30
53
45
28
68
59
29
15
30
53
46
28
69
58
29
16
30
53
46
27
69
58
30
15
33
54
45
27
69
57
30
16
36
55
45
27
70
57
30
16
38
54
46
26
70
57
30
16
40
54
45
28
71
57
30
16
40
54
45
28
72
57
30
17
40
55
45
29
72
58
30
17
40
55
46
30
71
58
31
17
41
57
46
30
73
59
31
17
41
59
45
30
73
59
32
17
41
59
45
30
73
58
32
17
40
59
45
30
75
59
34
17
44
61
46
30
76
59
34
17
47
63
44
31
77
60
35
17
47
64
44
31
77
59
35
18
47
64
44
32
77
59
35
18
47
64
44
30
78
59
35
19
48
65
44
32
80
59
36
19
48
65
44
32
78
57
35
19
48
66
43
32
80
57
36
19
48
65
43
32
80
55
36
20
48
65
43
32
80
56
36
20
50
66
44
33
80
55
35
20
50
65
43
32
78
53
36
20
50
65
43
32
78
53
36
20
50
66
42
32
79
54
35
20
50
65
44
32
80
54
36
20
50
67
43
32
79
54
36
20
51
67
44
32
78
54
36
19
51
67
45
33
79
53
36
20
51
67
45
32
79
53
36
20
51
67
44
34
81
52
34
21
51
68
42
34
81
51
34
21
50
66
45
34
81
51
34
21
48
66
47
34
82
52
34
21
49
68
47
33
83
53
34
21
50
68
47
33
85
52
34
22
50
67
47
33
85
55
33
22
50
68
47
33
84
55
33
22
50
69
46
33
83
55
33
21
49
70
47
33
81
56
33
21
50
70
47
33
80
56
33
21
50
70
47
33
80
56
32
20
50
70
46
33
79
58
33
20
50
70
46
33
79
59
33
20
49
70
47
33
80
59
32
20
49
71
47
34
80
59
33
20
49
71
47
34
81
59
35
21
49
71
47
35
80
60
34
21
49
71
46
35
79
63
34
20
49
71
46
35
80
62
33
20
47
70
45
35
82
62
33
20
45
70
46
36
81
64
34
20
43
69
49
36
81
64
33
20
41
70
49
35
80
65
34
20
41
70
52
34
80
65
33
19
41
69
52
34
80
64
33
19
41
69
51
33
82
61
33
19
41
68
51
33
81
61
33
19
40
66
52
34
82
62
33
20
40
66
52
34
81
63
34
19
40
66
52
34
81
62
32
19
37
65
51
35
80
62
34
19
33
65
53
35
79
61
33
19
33
66
53
35
79
61
34
20
34
67
54
34
78
61
33
20
33
67
54
33
77
62
33
19
32
66
54
31
76
62
33
19
32
66
55
31
76
64
33
19
32
66
55
30
76
64
32
19
32
66
54
30
75
64
32
18
32
66
54
31
76
64
32
18
32
67
55
31
75
64
32
19
33
66
54
31
74
64
32
19
33
66
55
31
74
65
32
19
32
64
56
31
72
64
32
19
32
64
55
31
72
65
32
19
32
63
55
31
73
65
32
19
32
63
55
30
73
66
31
19
32
63
54
30
73
68
33
19
32
63
54
30
72
69
34
18
31
61
54
29
69
70
34
18
31
59
55
29
68
72
34
17
31
59
54
29
66
73
35
17
33
57
51
29
64
72
35
17
32
54
52
29
64
72
35
17
33
54
51
29
62
72
35
16
33
56
53
29
62
72
37
16
33
57
54
29
65
74
39
17
34
56
54
29
66
75
40
17
34
57
53
30
66
74
40
17
35
59
53
30
66
74
40
17
34
58
54
29
67
74
40
17
35
58
53
32
69
73
40
17
35
59
52
32
69
74
42
18
37
60
52
32
69
76
42
18
37
59
52
31
67
74
41
17
38
61
52
30
67
75
40
16
38
62
52
29
67
74
41
17
38
62
52
28
67
73
41
19
38
62
52
29
66
73
41
19
40
64
52
29
64
72
41
19
44
66
52
28
64
70
41
19
45
67
51
28
64
70
41
20
46
67
51
28
64
70
41
20
47
68
48
28
63
70
42
20
48
69
48
28
64
71
42
20
48
69
48
29
64
71
42
20
48
69
48
29
63
70
42
21
48
69
48
29
61
70
42
20
48
69
47
28
62
70
42
20
50
70
47
28
63
71
43
20
50
69
48
27
63
70
42
20
50
67
46
27
62
70
42
20
51
67
46
26
63
70
41
18
52
67
46
27
64
70
42
18
53
69
46
27
65
69
42
19
53
69
45
27
66
69
42
19
53
68
45
27
66
68
41
19
53
69
45
27
64
68
42
20
53
70
46
27
64
68
42
20
54
70
45
26
64
67
42
20
53
69
45
26
65
69
42
20
52
69
45
26
65
70
42
20
52
70
45
26
65
71
42
20
52
70
43
27
65
71
42
20
52
71
42
28
64
70
42
20
52
71
42
27
63
70
42
20
52
72
41
27
64
70
42
20
52
71
41
28
64
69
41
20
53
72
41
29
66
68
40
20
53
73
41
28
68
68
41
19
53
74
41
28
69
66
41
19
53
74
39
28
69
65
41
19
54
76
39
28
69
65
41
19
54
76
39
28
70
64
40
19
53
75
39
28
70
64
40
19
53
74
37
28
68
62
39
19
53
73
35
28
66
61
37
19
52
73
35
28
66
59
37
19
52
72
35
27
66
60
37
19
53
72
36
28
66
61
37
19
53
72
34
28
65
61
36
19
53
72
34
25
63
60
36
19
53
72
33
25
63
58
35
19
52
70
33
25
63
55
35
19
52
70
33
24
64
55
35
19
52
70
32
24
63
54
35
19
52
68
32
24
63
54
34
18
52
68
32
24
63
53
33
16
52
69
32
25
64
53
33
16
50
67
32
25
65
53
33
16
47
65
31
25
64
54
33
16
46
64
27
25
65
55
33
15
46
62
26
25
65
56
33
15
44
62
26
25
65
55
32
15
43
60
26
24
62
53
31
15
43
61
26
22
60
54
31
15
44
62
26
22
60
54
31
14
44
62
25
22
60
54
29
14
44
62
25
22
59
53
29
14
42
61
25
22
56
51
27
14
43
60
25
21
57
51
27
14
43
60
24
22
57
51
27
14
42
59
23
22
58
51
27
14
41
56
20
21
56
51
25
14
40
54
20
21
55
51
25
14
40
54
20
21
54
52
25
14
41
54
20
21
54
51
25
14
41
53
19
21
54
52
25
13
40
52
19
21
53
52
25
12
39
52
19
20
52
52
24
12
39
51
18
20
52
49
24
12
39
51
18
20
52
48
24
12
39
50
17
20
51
46
24
12
39
49
17
18
51
45
24
12
39
48
16
17
50
45
24
11
39
48
16
17
50
45
24
11
39
46
16
17
48
44
23
11
39
46
16
16
48
43
23
11
38
45
16
14
45
43
23
11
38
43
15
14
42
41
20
11
38
41
15
14
41
41
20
11
38
41
15
14
40
40
20
11
35
37
15
14
40
40
19
11
35
36
13
14
37
40
19
11
35
35
13
14
37
40
19
11
35
35
13
13
37
38
19
10
36
35
13
13
36
38
19
10
36
35
13
13
34
37
16
10
35
32
11
13
32
36
17
10
32
30
10
12
32
34
17
10
32
29
8
12
32
34
17
10
32
29
8
12
32
34
17
10
32
29
8
11
30
34
16
10
32
29
8
11
30
34
15
9
31
28
8
11
28
34
15
10
30
26
7
11
28
34
15
9
30
25
7
11
28
34
15
9
30
25
7
10
27
34
15
9
30
24
7
9
23
34
15
9
30
23
6
8
20
34
15
9
30
22
6
8
19
32
15
9
30
22
6
7
18
30
14
9
29
22
6
7
17
30
13
9
29
21
6
7
17
29
13
8
29
20
6
7
17
29
12
8
29
18
6
7
17
28
12
8
27
13
5
7
17
28
13
9
27
12
5
7
17
27
13
9
26
11
5
7
17
27
13
9
25
11
5
6
17
27
13
9
24
11
3
6
16
26
13
9
24
11
3
6
15
26
13
9
23
11
3
5
10
24
13
9
22
11
3
5
9
23
13
9
22
11
3
5
7
23
12
8
22
9
3
5
7
23
12
7
20
8
3
5
7
22
12
7
19
8
3
5
6
21
12
7
20
8
3
5
6
21
12
7
20
7
2
5
6
21
12
7
19
7
2
4
5
21
12
7
19
7
2
4
5
20
11
7
19
7
2
4
5
20
11
7
19
6
2
4
5
20
11
7
18
6
2
4
5
19
11
7
18
5
2
4
5
19
11
7
17
5
2
4
5
19
11
7
16
5
2
4
5
19
11
7
16
5
2
4
5
19
11
7
16
5
2
4
5
19
11
7
15
5
2
4
5
18
11
7
15
5
1
4
5
16
11
7
15
4
1
4
5
16
11
7
15
8
2
2
5
16
11
7
14
7
2
3
6
16
11
7
14
7
2
3
7
15
10
7
13
8
2
3
7
16
10
7
13
8
2
3
7
16
10
7
13
8
2
3
7
15
9
6
13
8
2
3
7
15
8
6
13
8
2
3
7
15
8
6
13
8
2
3
7
15
8
6
13
8
2
3
7
15
8
5
12
8
2
3
7
15
8
5
12
9
2
3
7
14
8
5
12
10
2
3
7
14
8
5
12
10
2
3
7
15
8
5
11
10
2
3
7
15
8
5
11
10
2
3
7
16
8
5
11
10
2
3
7
15
8
5
11
10
2
3
7
15
8
5
11
10
2
3
7
15
8
5
11
10
2
3
7
14
8
5
11
10
2
3
7
14
8
5
11
10
2
3
7
14
8
5
11
10
2
3
7
14
8
5
11
11
2
3
7
13
6
5
11
11
2
3
7
13
6
5
11
11
2
3
7
14
6
5
11
11
2
3
7
15
6
5
11
11
2
3
7
16
6
4
11
11
2
3
7
16
6
4
11
11
2
3
7
16
7
4
10
11
2
3
7
16
7
4
8
12
2
3
7
16
7
4
9
12
2
3
7
16
7
4
9
12
2
3
7
16
7
4
9
12
2
3
7
16
7
4
9
12
2
3
7
16
7
4
8
12
2
3
7
15
7
4
8
12
2
3
7
16
7
4
8
13
2
4
7
16
7
5
9
13
2
4
7
16
7
5
9
14
2
4
7
16
7
5
9
14
2
4
7
16
7
4
9
14
2
4
7
17
7
4
9
14
2
4
7
17
7
4
9
15
2
5
7
17
7
4
9
15
2
5
7
17
7
5
9
15
2
5
7
17
7
5
9
15
2
5
7
17
7
5
10
15
2
5
7
18
7
5
10
15
2
4
7
20
7
5
9
14
2
4
7
20
7
5
9
14
2
4
6
21
7
4
9
14
2
4
8
21
7
4
10
14
2
4
8
20
7
5
10
14
2
4
8
20
7
5
11
14
2
4
8
20
6
5
11
14
2
4
8
20
6
5
11
14
2
4
8
20
6
5
11
14
2
4
8
21
7
6
11
14
2
4
8
21
7
6
11
14
2
4
9
22
7
6
11
16
2
4
9
22
7
6
11
15
2
4
9
22
7
6
11
15
2
4
9
22
7
6
11
16
2
4
9
21
7
6
11
16
2
4
9
22
7
6
11
16
2
4
9
22
7
6
11
16
2
4
9
22
7
6
12
16
2
4
9
22
7
6
12
16
2
4
9
22
7
6
12
16
2
4
9
22
7
6
12
16
2
4
9
22
7
6
12
16
2
4
9
22
7
6
12
16
2
4
9
22
7
6
11
16
2
4
10
22
7
6
12
16
2
4
10
22
7
6
12
15
2
4
10
22
7
6
12
15
2
4
10
21
7
6
12
15
2
4
10
21
7
6
12
15
2
4
10
21
7
6
12
15
2
4
10
21
7
6
12
15
2
4
10
21
7
6
12
15
2
4
10
21
7
6
12
15
2
4
9
21
7
6
12
15
2
4
10
21
7
6
12
15
2
4
9
21
6
6
12
15
2
4
10
21
6
6
12
15
2
4
9
21
6
6
12
14
2
3
9
21
6
6
12
14
2
3
9
21
6
6
12
14
2
3
9
21
6
6
12
14
2
3
9
21
6
5
12
13
2
3
9
20
6
5
12
13
2
3
9
20
6
5
11
12
1
3
9
20
6
5
11
12
1
2
9
20
6
5
11
12
2
2
9
20
6
5
11
12
2
2
9
20
6
5
10
12
2
2
9
19
6
5
10
12
2
2
9
17
6
5
10
12
1
2
9
17
6
5
10
12
1
2
9
16
6
5
10
11
1
2
8
17
6
5
9
11
2
2
8
17
6
5
9
11
2
2
8
17
6
4
8
11
2
2
8
18
6
4
8
11
1
2
8
18
6
4
8
11
1
2
8
18
6
4
8
11
1
2
7
17
5
3
8
11
1
2
7
17
5
3
9
11
1
2
6
17
5
4
10
8
1
2
6
17
4
4
10
8
1
2
7
18
5
4
10
7
1
2
8
20
5
4
10
7
1
2
9
21
5
4
10
6
1
2
11
20
5
4
10
6
1
2
11
21
5
4
10
6
1
2
12
21
5
3
10
6
2
3
15
22
5
3
10
7
5
3
15
22
5
3
10
7
5
3
19
23
5
3
11
7
13
3
20
23
5
4
11
7
14
3
20
25
5
4
12
11
14
4
21
25
6
5
12
15
14
4
22
26
6
5
12
15
20
4
22
26
7
6
15
16
26
4
24
30
7
6
15
19
29
6
27
32
7
6
16
20
30
6
27
32
11
6
16
22
30
6
28
33
13
7
17
23
31
7
28
37
14
7
17
23
33
10
32
39
15
7
16
23
34
12
36
39
16
7
18
23
35
12
37
39
18
10
21
24
36
12
39
40
20
10
21
29
37
12
43
43
23
11
22
32
37
20
44
45
24
12
22
33
38
22
46
46
24
12
24
33
38
22
46
46
25
13
27
36
39
25
47
46
25
14
27
40
39
25
47
49
27
15
30
43
41
25
48
52
27
17
31
44
41
28
50
53
28
17
32
45
41
29
53
55
29
19
34
46
41
29
53
56
29
19
36
47
41
29
53
56
29
21
40
49
42
30
54
56
29
21
40
49
43
30
54
56
29
21
40
49
43
30
55
56
29
21
40
49
44
30
55
57
29
22
41
50
44
31
55
58
31
22
41
51
45
31
55
59
31
22
41
51
45
31
56
59
31
22
43
52
46
32
56
59
31
22
44
52
46
32
58
60
31
22
44
52
47
32
58
62
32
23
44
52
47
32
59
62
33
23
44
52
47
32
61
63
33
23
44
53
48
32
62
64
33
24
45
53
48
33
63
64
33
24
45
53
48
33
65
66
37
24
44
53
49
33
66
67
38
24
44
53
49
34
67
67
40
24
45
53
50
34
67
67
40
24
45
53
51
34
67
68
40
24
46
53
51
37
67
68
40
25
46
55
52
40
70
69
42
27
46
57
53
40
72
70
42
27
46
57
53
40
72
70
42
27
47
57
53
41
72
71
43
27
47
58
54
45
73
72
43
27
47
58
53
45
73
74
44
27
47
58
54
46
74
74
44
27
47
58
54
46
74
75
45
27
47
57
54
47
74
77
45
27
47
57
53
47
75
77
45
27
47
57
50
47
75
75
45
27
48
56
49
47
75
75
45
27
51
57
49
47
77
76
45
27
51
58
49
47
77
76
44
27
51
58
48
47
78
76
44
27
52
61
48
47
77
75
44
27
54
63
47
46
75
75
44
27
54
64
47
47
75
75
43
26
53
64
47
47
75
75
42
26
53
62
47
47
75
74
41
26
53
62
46
45
75
73
40
26
53
62
46
44
74
74
40
26
52
62
46
44
74
74
40
26
51
61
46
43
74
75
40
25
50
59
48
43
74
75
39
25
49
58
48
43
74
73
39
24
48
57
48
41
73
72
38
25
48
56
48
41
71
73
40
23
46
56
48
41
71
74
42
23
45
55
48
41
73
76
42
21
42
54
48
40
74
78
42
21
42
54
47
40
77
79
45
21
42
54
47
40
76
79
45
21
42
54
47
40
76
78
45
21
41
53
46
40
76
77
44
21
42
52
47
40
76
77
44
22
42
54
47
40
76
78
46
22
40
53
46
40
76
79
46
22
40
53
46
40
75
78
46
22
40
53
46
40
76
77
45
22
39
53
46
40
75
76
45
23
40
53
46
40
73
76
45
23
41
55
45
40
73
75
46
23
43
57
45
39
72
75
46
23
43
57
45
39
71
73
43
23
43
57
45
39
71
73
42
23
43
57
45
39
71
74
40
22
43
57
43
39
71
73
40
23
43
57
42
39
71
73
40
23
43
58
45
37
72
73
40
23
43
57
45
34
70
73
38
20
42
55
43
34
68
72
39
20
42
55
43
35
68
72
38
20
42
55
43
34
68
71
38
20
42
54
43
29
66
69
38
20
42
54
43
28
66
68
37
20
42
55
41
27
65
68
37
20
42
55
41
27
65
69
36
20
43
56
41
26
68
68
37
20
42
55
41
26
67
68
37
20
42
55
41
26
67
68
37
20
40
55
40
26
65
68
37
20
37
54
40
26
66
68
36
20
37
52
40
25
65
68
36
20
37
52
40
26
64
68
36
20
35
49
40
26
64
68
36
20
33
48
41
26
65
70
37
20
33
46
40
25
65
70
37
20
32
46
40
25
63
70
37
20
32
46
40
25
61
70
37
19
32
44
40
24
63
71
38
20
32
44
40
23
64
70
38
20
32
44
40
23
64
70
39
20
32
44
40
23
64
70
39
20
33
44
37
23
65
69
38
20
33
43
37
23
66
70
38
20
33
46
37
23
66
70
38
19
34
46
40
24
67
68
36
20
34
46
40
24
66
67
34
20
34
46
39
24
66
65
34
21
34
49
41
25
64
63
34
21
34
50
41
25
62
62
31
20
35
50
41
25
64
62
31
21
35
50
41
25
65
63
31
21
34
50
41
26
65
63
31
21
34
50
43
26
65
63
30
19
33
49
43
25
66
63
28
19
33
49
43
26
68
65
30
19
33
49
43
26
69
66
31
19
33
53
44
27
70
67
31
19
33
53
44
26
72
69
31
17
35
54
43
26
73
69
30
17
33
52
43
27
73
70
29
17
30
50
43
27
73
70
29
17
30
50
43
27
73
70
30
17
30
49
43
27
73
70
29
16
30
49
43
27
72
68
30
16
30
49
44
27
74
68
30
16
30
50
43
28
75
69
31
16
30
49
41
27
73
69
32
16
30
49
40
27
73
68
32
16
31
50
40
27
74
69
32
16
31
50
40
26
73
71
32
16
31
50
40
26
74
71
32
16
30
50
40
26
74
72
32
15
31
51
39
26
74
71
32
15
31
50
39
26
74
71
32
15
31
50
39
26
74
70
33
16
31
51
39
25
72
69
32
16
31
51
39
25
73
69
32
16
31
51
39
25
73
70
32
16
31
51
41
25
73
70
32
16
31
51
41
25
71
69
32
16
31
51
40
25
71
69
34
17
31
51
41
24
70
68
34
17
31
52
41
24
73
70
34
17
31
50
40
24
72
68
33
17
31
50
40
26
74
69
34
17
31
50
40
26
74
71
34
17
32
53
41
27
76
70
34
17
32
53
40
27
76
69
33
15
33
53
40
26
75
69
33
15
33
54
40
26
76
69
32
15
33
55
40
27
77
67
32
15
33
55
40
27
75
67
32
15
33
54
39
26
75
66
32
15
32
51
39
26
74
67
32
15
32
51
36
25
74
67
32
14
32
51
36
25
75
66
32
13
31
51
36
25
74
66
33
13
32
48
34
24
73
67
33
13
32
48
35
24
73
67
33
13
31
48
35
25
71
67
33
12
31
48
35
25
73
67
33
12
31
48
35
24
72
67
34
13
31
47
31
24
72
67
35
13
31
48
31
24
71
67
35
13
32
49
31
23
70
65
33
13
32
50
31
24
71
63
32
13
32
47
30
24
70
62
32
13
32
47
30
24
69
61
32
13
30
46
31
24
68
62
33
13
30
46
31
23
68
63
33
13
29
46
31
23
68
63
33
14
30
49
34
26
67
63
33
14
30
49
36
29
67
63
33
14
30
49
36
29
67
63
34
14
30
49
36
29
65
63
33
14
31
49
36
28
64
62
33
14
31
48
36
28
66
62
32
14
30
48
36
29
66
62
32
14
29
48
37
29
67
63
32
14
28
48
37
29
67
61
32
14
28
48
37
29
66
60
32
14
28
48
37
29
66
60
32
14
28
49
37
29
66
60
32
14
27
49
38
30
66
61
31
14
27
48
38
30
65
60
30
13
27
49
38
30
67
59
30
13
27
52
40
30
67
60
30
13
27
52
40
30
67
61
32
13
27
51
37
30
68
62
34
13
28
51
37
31
68
63
33
13
28
52
37
31
68
62
32
12
27
52
37
31
68
63
32
12
28
53
36
31
67
61
32
12
28
53
37
31
67
62
31
12
28
53
37
30
66
61
30
12
28
54
37
30
66
59
30
12
28
52
37
30
65
59
31
12
27
52
37
30
64
59
31
12
27
52
40
30
64
59
32
12
27
52
40
30
64
62
33
12
26
51
40
30
64
64
35
12
26
50
40
31
64
64
35
12
26
50
41
31
66
65
35
12
26
50
41
31
68
64
35
12
26
50
41
31
68
63
34
12
27
51
41
31
67
65
35
12
27
50
40
31
66
66
35
12
26
50
40
31
66
65
35
12
26
50
40
31
66
64
35
12
26
50
40
30
67
64
34
12
26
50
40
30
65
65
34
12
26
50
40
30
65
65
33
12
26
51
40
32
66
65
33
12
26
50
39
32
66
64
33
11
25
49
39
33
65
64
33
12
26
48
39
32
66
65
33
12
26
48
40
33
68
65
33
12
26
48
39
33
69
65
33
12
26
48
39
33
69
64
32
12
26
48
39
33
69
62
32
12
26
48
39
33
69
62
32
11
25
45
37
31
69
62
32
11
25
45
35
28
69
62
32
11
26
45
35
29
70
62
31
11
27
45
36
30
71
62
31
11
27
44
36
30
70
61
31
11
27
44
36
29
68
62
31
11
27
44
36
29
68
62
31
11
27
44
35
29
69
61
32
11
27
44
37
29
68
60
32
11
26
44
37
29
68
60
32
11
26
45
37
29
68
61
32
11
26
44
37
29
70
60
32
11
26
44
37
28
69
59
32
11
26
43
36
29
69
59
32
12
26
41
36
29
67
59
32
12
25
37
35
29
66
59
32
12
25
37
35
28
66
57
30
12
25
37
35
28
66
56
28
11
25
38
35
27
65
55
28
11
25
38
35
27
65
54
29
11
24
37
35
27
65
52
28
11
24
35
35
27
64
52
28
11
24
34
35
27
63
52
28
11
23
33
35
27
63
51
28
11
23
32
33
26
62
51
28
11
23
32
33
26
61
50
28
11
23
32
33
25
59
50
28
11
22
31
29
25
59
49
27
11
23
30
29
25
57
46
26
11
23
29
28
26
56
42
23
10
22
29
27
25
56
42
23
10
22
29
25
25
54
41
22
10
22
29
25
25
51
41
22
10
22
29
25
25
52
41
22
10
21
28
25
25
52
38
20
10
21
28
25
24
52
37
21
10
21
28
25
24
51
37
21
10
21
28
25
25
51
37
21
10
21
28
25
24
50
36
22
10
21
27
25
25
50
34
22
10
20
27
24
25
50
34
22
10
20
25
24
23
49
33
22
10
20
24
24
23
48
33
22
10
20
24
24
21
47
31
21
9
19
23
24
21
43
29
21
9
18
23
22
19
39
28
22
9
18
23
23
19
36
27
22
9
18
21
22
19
35
27
22
9
18
21
22
18
34
27
22
9
18
20
22
18
34
26
21
9
18
20
20
18
34
25
20
9
18
20
20
18
34
25
20
9
17
20
19
17
31
24
20
8
14
19
17
15
30
24
20
8
14
19
17
14
30
24
19
8
12
19
17
14
30
23
19
8
12
19
17
14
30
22
19
8
12
19
17
13
25
21
17
8
12
18
13
13
25
21
16
7
13
17
12
13
23
21
16
8
15
14
10
13
23
21
16
8
16
14
9
13
20
21
16
8
15
14
9
14
20
21
16
8
16
14
9
14
19
19
16
8
16
13
8
14
19
18
16
8
16
13
7
13
18
18
16
8
16
12
5
13
18
17
16
7
16
12
5
13
18
17
16
7
17
8
5
13
18
17
15
7
16
8
4
13
17
16
14
7
17
8
4
13
17
16
14
7
17
8
4
12
16
16
14
7
16
6
4
13
16
16
13
7
15
6
4
13
16
16
14
7
15
6
3
13
16
15
14
7
15
6
3
13
16
15
14
7
15
6
3
13
16
15
14
7
15
5
3
13
16
15
14
7
14
5
3
13
16
15
14
7
14
5
3
12
17
15
14
7
14
5
3
12
17
15
14
7
14
6
3
12
17
15
14
7
14
6
3
12
17
16
14
7
14
6
3
12
16
16
14
7
14
6
3
12
16
15
14
7
15
9
3
12
16
16
13
6
15
15
3
12
16
16
13
6
15
15
3
12
16
16
12
6
15
16
3
12
16
16
11
6
15
16
3
11
16
15
10
6
14
16
3
10
16
15
10
6
15
16
3
10
16
15
10
6
15
17
3
10
16
15
10
6
15
19
3
10
16
15
11
6
15
19
3
10
16
15
11
6
15
19
3
10
16
15
10
6
15
19
3
10
16
15
9
6
15
19
3
10
16
15
9
5
15
20
3
10
16
15
9
5
15
20
3
10
16
16
9
5
15
20
3
10
16
16
9
5
15
20
3
10
16
16
9
6
15
20
3
10
15
15
9
6
16
20
3
10
15
16
9
6
16
20
3
10
15
15
9
6
16
21
3
10
16
15
9
6
16
21
3
10
16
15
9
6
16
21
3
10
16
15
9
6
16
21
3
10
16
17
9
5
14
21
3
11
16
16
9
5
14
21
3
11
16
16
9
5
13
21
3
11
16
16
9
5
13
22
3
9
16
16
9
5
13
22
3
9
16
16
9
5
12
22
3
9
16
16
9
5
13
22
3
9
16
16
10
5
13
23
3
9
16
16
10
5
13
23
3
9
16
16
10
5
13
23
3
9
16
16
10
5
13
23
3
9
15
16
10
5
13
23
3
9
16
16
10
5
13
23
3
9
16
16
11
5
13
23
3
9
16
16
11
5
14
23
3
9
15
16
10
5
16
24
3
9
15
16
10
5
16
24
3
8
14
18
10
5
16
24
3
8
14
18
10
6
17
24
3
8
13
18
10
6
17
24
3
8
13
17
10
6
17
24
3
8
12
18
10
5
17
24
3
8
12
18
10
5
17
24
3
8
12
17
10
5
17
24
3
8
12
17
10
5
17
24
3
7
11
17
10
5
17
26
3
7
10
17
10
5
17
25
3
7
10
17
10
5
16
22
3
7
10
17
10
5
16
22
3
7
10
17
10
5
17
21
2
7
9
17
10
5
17
21
2
7
10
18
10
5
17
22
2
7
10
19
10
5
17
22
2
7
10
19
10
5
17
21
2
7
10
19
10
5
16
20
2
7
11
19
9
5
16
20
2
7
11
19
9
5
16
20
2
7
11
19
9
5
17
20
2
7
11
19
9
5
18
20
2
7
10
19
9
5
18
20
2
7
10
19
9
6
18
20
2
7
10
19
9
6
18
20
2
7
10
19
9
6
18
20
2
7
11
19
9
6
17
20
2
7
11
19
9
6
17
20
2
7
11
19
9
6
17
20
2
7
11
19
9
6
17
20
2
7
10
18
9
6
18
21
2
7
10
19
9
6
17
21
2
7
9
19
9
6
18
21
2
7
9
17
8
6
17
20
2
6
9
17
9
6
17
20
2
6
9
17
8
6
17
20
2
6
9
17
9
6
17
20
2
6
9
17
9
6
17
20
2
6
10
17
8
6
17
20
2
6
10
17
9
6
16
20
2
5
10
17
8
6
15
19
2
5
10
16
8
6
16
19
2
5
10
16
8
6
16
19
2
5
10
16
8
6
16
19
2
5
10
16
8
6
16
19
2
5
10
16
7
6
15
19
2
5
10
16
6
6
15
19
2
5
10
16
6
6
14
19
2
5
10
16
6
5
12
19
2
5
10
16
6
5
13
21
2
5
9
14
6
5
12
21
2
5
10
14
6
5
12
21
2
5
10
14
6
5
12
21
2
5
10
14
5
5
12
21
2
5
9
14
5
5
12
21
2
5
9
14
5
5
12
21
2
5
9
14
5
5
12
21
2
5
9
14
5
5
12
21
2
5
9
14
5
5
12
19
2
5
9
14
5
6
12
19
2
5
9
14
5
5
12
19
2
5
9
14
5
5
12
19
2
5
9
14
5
5
11
19
2
5
9
14
5
5
11
19
2
5
9
12
5
5
11
19
2
5
9
12
5
5
10
19
2
5
8
12
5
5
11
19
2
5
8
12
5
5
11
18
2
5
8
12
5
5
11
18
2
5
8
12
5
5
10
18
2
5
8
12
5
5
10
18
2
5
8
12
5
5
8
17
2
5
8
12
5
5
8
17
2
5
8
12
5
5
9
18
2
4
8
12
5
5
9
18
2
4
8
12
5
5
9
18
2
4
8
12
5
4
9
18
2
4
8
12
5
4
9
18
2
4
8
12
5
4
9
18
2
5
8
12
5
4
9
17
2
5
8
12
5
4
8
16
2
5
8
11
5
4
8
16
2
5
8
11
5
4
8
16
2
5
8
11
5
4
8
16
2
5
8
11
5
4
8
16
2
5
8
11
5
4
8
16
2
5
7
11
4
4
8
16
2
5
7
11
4
4
8
16
2
5
7
12
4
4
7
15
2
5
7
12
4
4
7
15
2
5
7
12
4
4
7
15
2
5
7
12
4
4
7
15
2
5
7
12
4
4
7
15
2
5
7
12
4
4
7
15
2
5
7
12
4
4
7
15
2
5
7
12
5
4
7
15
2
5
7
12
5
4
7
15
2
5
7
12
5
4
7
15
2
5
7
12
5
4
7
14
2
5
7
12
4
4
6
10
2
5
7
12
4
4
6
10
2
4
6
11
4
4
6
10
2
5
6
13
4
4
5
10
2
4
6
13
4
4
5
10
2
5
6
14
4
4
5
10
2
5
6
14
4
4
5
10
2
4
6
13
4
4
5
9
2
4
6
13
4
4
5
8
2
4
6
13
4
4
5
8
2
4
6
13
4
3
5
8
2
3
6
13
4
4
5
8
2
3
6
13
4
4
5
8
2
3
6
13
4
4
5
8
2
3
6
13
4
4
5
8
2
3
6
13
4
4
5
7
2
3
6
13
4
4
5
7
2
3
6
13
4
4
4
7
1
3
5
13
4
4
4
7
1
3
5
13
4
4
4
7
1
3
5
13
4
4
4
7
1
3
5
13
4
4
4
6
1
3
5
13
4
4
4
6
1
3
5
14
4
4
4
6
1
3
5
14
4
4
4
4
1
3
6
14
4
4
3
4
5
3
6
14
4
4
5
5
5
3
6
17
5
4
5
5
5
4
6
17
5
4
6
5
6
6
6
19
5
4
8
6
6
7
9
19
5
4
9
8
6
7
10
21
5
5
9
15
7
9
13
21
6
5
9
17
10
10
20
21
6
5
11
20
17
11
24
22
7
5
12
23
19
11
26
22
7
5
15
27
19
11
26
22
8
5
15
30
19
11
29
28
9
5
18
31
22
14
31
30
12
11
20
31
27
15
33
31
12
15
22
34
29
16
34
33
12
15
22
35
30
16
36
35
12
15
28
35
32
16
37
35
13
16
32
37
36
17
37
37
17
16
33
38
40
17
38
37
17
16
33
38
40
20
40
38
18
17
33
38
41
21
41
41
18
18
33
42
41
23
41
42
18
19
34
43
43
24
41
46
22
20
34
44
44
26
43
49
23
20
34
44
45
26
45
49
23
21
34
45
45
26
45
50
23
22
36
45
45
26
45
51
28
22
36
45
45
27
49
50
28
22
37
46
45
28
50
52
32
26
41
49
47
28
51
52
32
26
44
51
49
30
52
54
32
27
45
51
50
30
55
54
32
27
46
54
50
31
58
54
33
27
46
54
50
32
59
56
36
28
46
54
52
34
60
58
39
28
47
55
52
34
60
61
39
29
47
56
53
35
61
61
39
29
47
56
54
35
61
62
40
29
47
56
54
35
63
62
41
29
47
56
55
35
66
65
41
29
47
56
55
36
66
65
41
29
47
57
55
36
67
65
41
30
48
57
55
36
69
67
41
30
49
58
55
36
70
67
44
30
50
61
56
36
72
68
44
30
50
61
56
37
74
68
44
30
50
61
56
39
76
69
44
31
50
61
57
39
77
69
44
31
51
61
57
39
77
71
44
31
51
63
57
39
78
71
44
31
52
63
58
39
80
72
44
31
52
63
59
40
80
72
44
31
52
63
59
41
81
72
45
31
53
63
59
41
81
72
45
31
54
64
59
41
81
72
45
31
55
65
59
41
83
71
45
31
55
66
59
41
83
71
45
31
55
65
59
40
83
73
45
31
55
65
59
40
83
74
45
31
55
64
59
40
82
75
45
31
54
62
59
40
83
75
46
31
54
62
60
40
82
73
45
31
54
64
58
41
82
75
45
29
53
66
57
40
82
74
45
28
52
65
57
40
82
74
46
28
53
65
56
40
82
73
46
28
52
67
55
40
82
73
46
27
50
66
53
40
82
73
45
27
50
66
50
40
84
74
47
27
49
66
50
38
83
74
47
27
49
67
51
38
83
74
48
26
50
64
52
37
83
75
48
26
50
64
50
37
84
73
47
25
50
64
49
36
84
72
47
25
50
64
51
36
83
73
47
24
50
64
52
36
83
72
48
24
49
64
51
36
84
73
45
25
49
64
51
36
82
73
45
25
48
64
51
36
82
72
43
22
45
62
50
36
81
72
43
22
42
60
47
34
81
70
43
20
41
60
47
34
79
73
43
20
41
59
48
34
78
73
43
21
41
60
47
34
77
72
41
20
40
59
47
31
76
71
38
20
40
59
49
31
76
69
38
18
40
59
48
31
75
70
38
18
40
59
47
31
76
70
37
18
40
59
47
31
75
72
37
19
40
59
49
30
73
72
38
19
41
60
50
32
73
74
38
19
43
61
50
32
72
73
38
19
43
63
52
32
70
74
38
19
42
62
53
32
69
75
36
18
41
60
54
32
68
75
36
18
40
61
54
31
69
75
36
18
40
60
54
29
67
75
35
18
40
60
55
30
66
76
36
18
40
60
56
31
68
75
36
18
39
59
56
31
68
76
36
18
40
58
55
31
67
76
36
18
40
58
55
30
68
75
36
18
40
58
55
29
67
76
35
18
40
60
56
29
67
76
35
18
41
61
57
29
67
77
35
19
41
60
57
29
65
78
35
19
40
58
57
29
64
80
36
19
40
59
57
29
65
80
39
19
40
60
55
29
65
80
39
20
40
59
55
29
65
80
39
21
40
59
56
29
66
79
40
21
40
59
56
29
67
80
42
21
40
57
56
28
66
80
44
21
40
55
58
28
67
80
44
22
41
55
59
29
68
80
44
22
41
54
61
30
69
81
44
22
38
52
61
30
69
81
44
22
39
52
61
30
69
81
43
22
40
53
61
30
68
81
41
22
40
54
61
30
68
80
42
22
40
52
60
30
70
80
44
22
39
53
60
29
71
79
44
22
39
53
60
29
70
79
43
22
39
53
59
29
71
78
43
22
39
53
58
30
73
78
44
22
39
52
58
31
74
78
42
21
39
54
58
32
74
79
43
20
38
55
58
32
74
80
44
21
38
56
59
33
74
80
43
21
39
56
59
33
75
80
43
21
40
56
59
33
75
80
43
21
41
57
58
33
76
79
43
21
41
57
58
33
76
79
43
21
41
56
59
33
75
80
43
21
41
58
58
33
75
79
43
21
41
58
56
33
76
79
43
21
41
58
57
34
76
79
43
22
42
61
58
34
76
78
44
22
42
61
58
34
76
77
43
22
42
62
56
34
76
75
42
21
40
61
55
33
77
73
42
22
39
60
55
33
79
75
42
22
39
59
53
34
79
73
42
21
39
60
52
33
78
73
43
21
39
59
51
33
78
73
43
21
39
59
51
33
76
72
43
21
39
60
51
33
76
72
44
21
42
63
50
32
75
70
44
21
43
63
50
32
75
69
45
21
43
63
50
32
77
69
45
21
43
65
49
32
76
69
44
21
43
65
49
31
75
69
44
21
42
66
49
32
75
69
45
21
42
65
47
33
75
69
46
21
39
64
49
33
75
68
46
21
40
67
49
34
76
69
46
21
41
67
48
34
76
67
45
21
41
66
48
34
74
65
43
21
41
65
48
35
76
64
43
20
41
66
48
36
76
66
43
20
42
67
47
36
76
66
42
20
42
67
47
36
74
65
40
19
42
67
47
36
74
63
38
19
42
68
43
36
72
63
38
18
41
68
41
36
71
63
38
18
43
69
38
35
71
64
38
18
43
70
38
35
71
66
39
18
43
71
37
36
71
67
39
18
42
70
39
37
70
66
38
18
42
69
39
36
70
67
38
18
42
70
38
36
68
68
35
18
42
71
38
37
67
68
34
18
42
72
38
37
67
68
34
18
42
72
39
36
66
67
34
18
43
72
39
36
64
67
37
19
44
73
38
37
64
67
37
19
44
73
38
36
63
65
36
19
44
72
38
35
63
64
35
18
44
71
38
34
63
64
36
18
45
72
37
34
61
64
36
17
44
72
37
34
61
65
37
17
45
73
37
34
60
64
36
17
45
73
37
33
60
65
37
17
46
74
37
33
60
64
37
17
45
73
36
33
60
63
37
17
45
73
36
33
59
62
37
17
45
73
34
33
59
62
36
17
46
71
33
33
60
64
36
16
48
71
34
32
59
66
36
16
48
71
35
32
59
66
36
16
48
70
35
32
58
66
36
16
48
70
35
31
55
64
35
16
48
70
35
31
55
64
35
16
49
69
34
31
55
63
34
16
49
69
34
32
56
63
34
16
49
69
33
32
56
64
34
16
50
68
33
32
56
64
33
15
48
65
33
32
56
64
33
15
46
65
33
32
53
65
33
15
46
65
33
32
51
65
32
15
45
64
33
32
50
66
32
15
46
64
33
32
50
66
33
15
47
65
35
31
49
66
31
15
47
65
35
30
49
67
30
15
48
64
33
30
50
69
30
15
46
62
33
29
50
67
30
15
46
62
33
29
51
68
32
16
45
62
33
29
51
69
32
16
46
62
32
27
50
70
32
15
45
61
32
26
52
68
31
15
46
62
33
26
53
68
32
15
46
63
33
25
55
69
33
15
46
63
33
25
55
70
32
14
45
61
33
26
55
70
32
14
45
62
33
25
55
71
32
14
43
63
33
25
54
69
32
14
43
62
33
25
54
67
31
14
43
61
33
24
55
66
31
14
43
62
31
23
56
65
31
14
44
63
31
23
56
65
31
14
44
62
31
23
56
62
30
14
44
60
32
24
55
63
30
14
44
59
31
24
55
62
30
14
43
60
31
24
55
64
31
14
43
61
31
24
55
66
28
12
42
59
31
22
54
67
28
12
43
58
31
23
54
67
27
12
45
60
31
23
56
67
27
12
47
62
32
23
57
68
28
12
46
62
32
23
57
68
27
12
46
60
32
23
57
67
27
12
44
60
32
23
57
67
27
12
44
61
33
23
57
66
27
12
43
62
33
24
58
66
27
12
43
61
36
24
59
67
27
13
43
62
35
23
59
67
27
13
43
62
35
24
60
66
27
12
42
62
35
24
59
65
27
12
41
61
35
23
58
64
28
12
42
62
34
23
59
65
29
12
43
64
34
23
60
65
28
11
42
64
34
23
60
64
28
11
42
65
34
23
61
64
29
11
41
66
34
23
61
65
29
11
41
67
34
23
61
65
29
11
41
68
34
23
63
66
30
11
39
68
34
23
63
67
30
12
39
69
34
23
63
68
30
12
40
69
33
23
63
67
30
11
40
69
32
23
63
66
30
11
40
69
33
24
64
66
31
11
40
69
33
24
64
65
31
11
39
68
31
24
64
65
31
11
38
67
30
24
64
64
30
11
37
67
30
24
63
62
30
11
36
67
30
24
62
63
30
11
36
67
30
24
62
61
28
11
37
66
30
25
62
60
28
10
38
66
30
26
60
59
28
10
37
67
30
26
58
59
29
10
37
65
29
26
57
59
28
10
37
64
29
26
55
58
28
10
38
64
28
26
55
56
28
10
38
65
29
25
55
56
30
10
38
64
28
25
55
55
30
10
37
63
28
26
56
54
31
11
37
62
28
25
56
54
31
11
36
62
28
25
54
54
31
11
36
61
28
25
52
55
31
11
35
60
28
25
53
55
31
11
35
60
28
25
54
54
31
11
35
60
27
25
54
55
30
11
35
60
27
25
53
55
30
11
35
59
26
25
52
54
30
11
35
58
26
24
52
51
30
10
35
58
26
24
52
50
30
10
33
58
26
23
52
49
31
10
30
57
26
22
49
49
30
10
27
54
25
22
48
47
29
10
27
53
25
21
47
47
29
10
27
53
25
21
47
47
29
10
27
52
24
21
47
47
29
10
27
49
23
21
47
47
29
10
26
46
22
19
45
46
29
10
26
46
17
19
44
46
28
9
26
45
17
19
44
46
28
10
26
45
17
19
43
46
28
9
25
44
17
19
43
45
28
9
24
44
16
19
43
43
28
9
22
42
15
19
42
41
26
9
20
39
14
19
41
41
26
9
20
38
14
19
40
41
26
9
20
38
14
18
39
41
26
9
20
36
14
18
39
40
26
9
20
34
14
18
38
39
25
9
20
31
13
17
34
36
25
9
20
29
13
17
34
34
24
9
18
28
13
17
32
31
24
9
17
27
13
17
32
31
24
8
17
26
13
17
31
31
24
8
17
26
12
16
30
29
23
8
17
23
9
16
30
29
22
8
17
23
9
16
30
29
23
8
17
22
9
15
29
28
23
8
17
21
8
14
29
28
22
8
17
21
8
13
29
26
22
8
17
21
8
14
27
25
22
8
15
21
7
11
25
25
22
8
13
21
7
9
24
26
22
8
12
20
7
8
22
25
21
8
12
19
7
8
22
25
20
8
11
19
7
8
22
25
20
8
9
17
6
7
21
25
19
8
8
13
6
7
21
25
17
7
8
13
6
7
21
24
16
7
8
12
6
5
19
24
14
6
7
11
4
5
17
23
13
6
7
10
4
5
17
23
13
5
7
10
4
5
15
22
13
5
7
10
4
4
11
22
13
5
7
10
3
3
11
22
13
5
6
9
3
3
10
20
13
5
5
8
3
3
10
18
13
5
5
8
3
3
10
18
13
5
5
8
2
3
7
18
13
5
5
8
2
3
7
16
11
5
5
7
2
3
7
17
11
5
5
7
2
3
7
17
11
5
5
7
2
3
6
17
11
5
4
7
2
3
6
18
10
5
4
7
2
3
5
18
10
5
3
6
2
3
5
18
10
5
3
7
2
3
5
17
10
5
4
9
2
3
5
17
10
5
4
9
2
3
5
17
9
5
4
9
2
3
5
17
9
5
4
9
2
3
5
17
9
5
4
9
2
3
5
17
9
5
4
9
2
3
5
17
9
5
4
10
2
3
5
17
9
5
5
10
2
3
5
17
9
5
5
10
2
3
5
17
9
5
5
10
2
3
5
17
8
4
4
10
2
3
5
17
7
4
5
10
2
3
5
17
7
4
5
10
2
3
5
17
7
4
4
9
2
3
5
17
7
4
4
9
2
3
5
17
7
4
4
10
2
3
5
17
6
4
5
10
2
3
5
17
6
4
5
11
2
3
5
17
6
4
5
11
2
4
5
17
6
4
5
11
2
4
5
17
6
4
5
12
2
4
5
16
6
4
5
12
2
4
5
17
6
4
5
12
2
4
5
17
6
4
5
12
2
4
5
16
6
4
5
12
2
4
5
16
6
4
5
12
2
4
5
15
6
4
5
13
2
4
5
14
6
4
5
13
2
4
5
14
6
4
5
13
2
4
6
14
6
4
5
13
2
4
6
14
6
4
5
13
2
4
6
13
6
4
5
13
2
4
5
13
6
4
5
13
2
4
5
13
6
5
5
14
2
4
5
13
6
5
6
14
2
4
5
13
6
5
7
14
2
4
5
13
6
5
7
15
2
4
5
13
6
5
7
15
2
4
5
13
6
6
7
15
2
4
5
13
6
6
7
15
2
4
5
13
6
5
7
15
2
5
6
12
6
5
7
15
2
5
6
12
6
5
7
15
2
5
6
12
6
5
7
15
2
5
6
11
5
6
8
15
2
5
6
12
5
6
8
15
2
5
6
11
5
6
8
15
2
5
6
10
5
6
8
15
2
5
6
10
5
5
8
15
2
5
6
11
5
6
8
15
2
5
6
11
5
6
8
14
2
5
6
11
5
6
8
14
2
5
6
11
5
6
8
14
2
4
6
11
5
6
7
13
2
4
6
11
5
6
8
13
2
4
5
11
5
6
8
13
2
4
5
11
5
6
7
13
2
4
5
11
5
6
7
13
2
4
6
12
5
6
7
13
2
4
6
13
5
6
7
13
2
4
6
14
5
6
7
13
2
4
6
14
5
6
7
13
2
4
6
14
5
6
7
13
2
4
6
14
5
6
7
13
2
4
6
14
5
6
7
13
2
4
6
15
5
6
7
13
2
4
6
15
5
6
7
12
2
4
6
15
5
6
7
11
2
4
6
15
5
6
7
12
2
4
6
15
5
6
7
12
2
4
6
15
5
6
7
12
2
4
6
15
5
6
7
12
2
4
6
15
5
6
7
13
2
4
6
15
5
6
7
13
2
4
6
15
4
6
7
13
2
4
6
15
4
6
7
13
2
4
6
15
4
6
7
13
2
4
6
15
4
6
7
12
2
4
5
15
4
6
7
12
2
4
5
15
4
6
7
12
2
4
5
15
4
6
7
12
2
4
5
16
4
6
7
12
2
4
5
16
4
6
7
12
2
4
5
16
4
5
7
11
2
4
5
16
5
5
6
11
2
4
5
16
4
5
5
11
2
4
5
16
4
5
5
10
2
4
5
16
4
5
5
10
2
4
5
16
5
5
5
10
2
4
5
16
5
5
5
10
2
3
5
16
5
5
5
10
2
3
4
16
5
5
5
10
1
3
4
16
5
5
5
10
1
3
4
16
5
5
5
10
1
3
4
16
5
5
4
10
1
3
4
16
5
5
4
10
1
3
4
16
5
5
4
10
1
3
4
16
5
5
4
9
1
3
4
15
5
5
4
9
1
3
4
15
5
5
4
9
1
3
4
16
5
5
4
9
1
3
4
15
5
5
4
9
1
3
4
15
5
5
4
9
1
3
4
15
5
5
4
9
1
2
4
15
5
5
4
9
1
2
4
15
5
5
4
9
1
3
4
15
5
5
4
9
1
3
4
15
5
5
4
9
1
2
4
14
5
5
4
9
1
2
4
13
5
5
4
8
1
2
4
13
5
5
3
8
1
2
4
13
5
5
3
8
1
2
4
13
5
5
3
8
1
2
4
13
5
4
3
8
1
2
4
13
5
4
3
8
1
2
4
12
5
4
3
8
1
2
4
11
5
4
3
8
1
2
4
12
5
4
3
8
1
2
4
13
5
4
3
8
1
2
4
13
5
4
3
7
1
2
4
14
5
4
3
7
2
2
4
14
5
4
3
5
2
3
4
14
5
4
3
4
2
3
4
14
5
4
4
4
4
3
14
17
6
4
4
4
5
4
17
17
6
4
5
5
11
4
17
19
7
4
5
6
11
9
22
24
9
5
5
9
17
10
22
24
9
5
9
15
19
10
24
25
13
6
9
19
23
11
25
30
14
6
15
22
24
13
25
31
15
6
17
25
25
16
28
36
15
6
18
26
26
17
32
36
16
7
21
28
26
18
32
38
16
9
28
29
26
20
36
39
19
9
29
30
27
21
37
42
22
11
30
33
28
22
40
44
23
12
32
34
30
22
40
47
29
12
33
36
32
23
42
48
32
14
33
36
34
23
42
50
32
15
33
38
34
26
43
50
32
18
34
39
34
26
44
50
33
18
35
40
35
26
45
51
35
19
37
41
36
28
46
51
35
19
37
42
37
28
46
51
38
21
38
42
38
28
50
54
38
22
38
43
38
28
51
57
38
23
38
44
38
28
51
57
38
24
41
48
38
29
52
58
39
24
42
48
38
31
54
59
39
24
43
48
39
31
55
60
41
25
43
48
40
31
55
61
42
25
43
49
42
31
55
61
42
26
46
49
43
31
56
63
42
26
46
50
43
34
57
64
42
26
46
50
45
34
58
64
42
26
47
50
45
34
59
66
42
28
50
52
47
34
60
66
43
28
51
52
47
34
63
66
43
28
51
53
48
35
63
68
44
29
51
53
50
35
66
70
45
29
51
53
50
36
68
71
46
29
52
53
51
36
70
71
46
29
52
54
51
36
71
71
46
29
52
54
51
36
73
71
46
29
52
54
51
37
74
72
46
30
52
55
52
37
74
72
48
30
52
57
52
38
76
72
49
30
52
58
52
39
76
72
49
30
52
58
52
41
76
72
49
30
53
59
52
41
76
72
49
30
53
59
52
42
77
73
50
30
53
60
53
42
77
74
50
30
53
60
53
43
76
75
50
30
53
60
53
43
75
75
50
30
53
60
52
43
76
75
50
30
53
60
53
42
75
74
50
30
54
61
51
42
75
74
50
30
54
60
52
42
75
74
49
31
54
59
52
42
75
73
49
31
53
59
54
43
77
72
49
31
52
58
56
42
76
71
50
31
52
58
56
41
74
71
49
31
51
57
56
41
75
70
49
30
49
58
56
42
75
70
49
30
48
57
56
41
76
69
48
30
48
57
55
41
75
67
48
30
47
57
55
41
77
66
45
30
47
57
53
40
78
67
44
29
47
57
53
41
79
65
43
29
47
57
52
39
79
66
44
27
46
57
52
39
79
68
44
28
46
57
52
39
80
70
43
27
45
58
52
39
80
71
43
27
45
57
52
39
81
71
41
26
44
58
52
39
78
70
41
26
44
57
52
39
79
68
41
24
44
56
52
39
79
69
41
25
41
53
53
38
79
69
41
25
41
53
53
37
79
69
41
24
39
53
54
37
78
67
39
23
39
53
53
37
79
67
38
23
39
52
52
37
79
68
39
23
37
52
52
37
78
67
39
23
36
52
51
35
78
67
39
22
36
53
51
35
78
67
39
22
35
53
51
35
77
68
41
20
31
51
50
35
77
68
40
21
30
50
50
34
75
68
41
20
30
52
49
34
74
67
40
20
30
53
48
35
73
65
40
20
29
53
49
34
72
66
39
20
28
53
49
34
70
65
39
20
28
53
49
34
69
65
40
20
29
53
49
35
67
67
40
20
29
53
49
35
67
68
40
20
29
52
48
36
67
67
38
20
30
50
49
35
64
67
38
20
30
50
49
34
64
68
38
20
31
50
49
32
65
69
39
20
30
49
49
33
65
68
39
20
31
49
51
31
64
68
38
20
31
49
51
31
65
66
38
20
31
49
51
32
66
66
39
20
31
49
51
32
66
67
39
20
30
49
51
31
66
69
39
20
30
48
50
32
66
68
39
19
30
46
51
32
66
69
39
19
29
46
49
32
66
69
39
19
29
45
48
32
66
68
39
19
29
45
45
30
64
68
39
19
28
45
43
30
64
67
38
18
27
45
43
30
64
67
38
18
28
45
43
30
64
67
38
18
28
43
43
28
62
68
38
18
27
44
43
28
61
68
38
18
27
43
42
29
60
68
37
19
27
42
42
29
60
69
37
19
27
42
42
28
58
68
37
18
26
41
42
28
56
68
37
18
26
40
42
28
57
68
36
19
27
41
44
29
57
67
36
19
26
40
45
28
57
66
36
19
27
41
44
29
58
66
36
18
27
41
44
30
60
66
36
18
27
41
43
30
60
66
36
18
27
41
43
30
59
65
36
18
27
41
43
30
59
65
36
17
27
42
42
30
58
64
35
17
27
42
43
30
57
64
35
17
27
42
42
30
58
65
35
18
27
43
42
30
58
66
35
18
27
43
42
30
58
65
34
18
27
43
41
31
58
64
34
18
27
43
42
30
58
64
34
19
27
42
42
31
57
63
34
19
27
43
41
31
58
63
32
18
28
43
42
32
60
62
32
18
27
44
42
32
60
64
34
19
27
41
41
33
60
63
34
19
28
40
41
32
61
63
33
18
28
39
40
33
62
62
32
18
29
40
40
33
63
61
32
18
29
40
40
33
63
61
32
18
28
40
40
32
64
60
32
18
29
41
40
31
65
58
32
18
29
41
39
30
65
58
32
18
27
40
39
30
65
59
31
18
27
40
38
30
65
58
30
18
27
39
38
30
64
57
28
17
27
39
40
29
67
58
28
17
27
39
38
28
68
60
29
17
28
40
37
29
67
61
29
17
28
41
37
28
66
60
28
17
28
41
37
28
66
58
28
18
29
42
37
29
68
56
28
18
29
42
37
28
67
56
28
18
28
42
38
28
68
55
28
18
28
44
40
28
69
55
28
18
28
44
40
28
69
55
28
18
28
44
40
28
70
55
28
19
28
45
39
28
70
55
28
19
28
45
39
28
70
55
27
19
27
44
40
28
70
55
27
18
27
44
40
28
70
53
27
19
27
44
40
29
72
55
27
19
27
43
40
28
71
54
27
18
27
43
40
29
70
53
26
18
27
43
41
29
70
53
26
18
27
43
41
29
71
53
27
18
27
43
41
30
70
54
28
18
26
42
39
29
70
54
27
18
28
44
39
29
68
51
27
18
26
41
39
29
68
52
27
18
26
41
39
27
66
51
27
18
27
42
39
27
67
51
26
18
27
42
38
27
68
51
26
18
29
43
38
27
68
51
27
18
29
42
38
27
69
50
27
18
29
42
38
28
69
51
28
18
29
42
37
27
71
51
28
17
29
41
37
27
73
49
27
17
30
41
37
28
72
49
27
17
30
41
37
28
72
49
27
17
30
41
36
29
72
49
27
16
30
41
35
28
71
49
27
16
30
40
35
28
70
48
27
16
31
41
34
27
69
48
27
15
34
43
34
28
71
46
25
14
35
45
34
27
72
49
24
14
35
45
34
27
71
51
24
15
35
45
34
26
69
51
24
15
35
44
33
26
68
51
24
14
36
44
34
26
69
51
25
14
36
45
35
26
68
51
24
14
35
44
35
26
68
51
25
15
37
44
35
26
68
52
25
15
37
46
35
26
68
52
25
15
37
49
35
26
68
55
26
15
38
52
34
26
68
57
26
15
38
52
32
27
66
55
26
15
37
52
33
27
65
54
24
14
37
52
33
26
65
54
24
14
36
50
33
26
65
57
29
16
37
50
33
27
65
60
29
15
36
50
34
27
65
60
32
16
39
53
35
27
65
60
31
16
39
54
33
27
65
60
31
16
39
53
31
27
63
60
31
16
39
53
31
27
63
60
31
16
39
53
32
27
62
61
32
15
39
53
33
27
62
63
32
16
39
53
32
29
64
63
32
15
40
55
32
31
67
63
32
15
40
55
32
31
66
63
32
15
44
57
31
30
64
62
32
15
44
59
31
30
65
62
32
15
44
58
31
29
64
64
32
14
44
58
30
31
63
65
32
14
44
58
30
31
63
65
32
14
44
58
30
30
63
65
30
14
44
58
30
30
63
65
30
14
43
57
29
30
63
66
30
14
43
56
29
30
64
67
30
14
43
56
28
30
65
68
30
14
44
58
29
30
64
67
31
14
46
60
32
30
62
67
31
14
45
59
32
31
62
67
31
14
45
60
32
31
62
68
31
14
45
60
34
31
62
67
30
14
45
61
34
31
60
67
31
15
46
62
34
31
57
67
30
15
46
62
34
31
58
69
31
15
46
62
34
30
59
70
31
15
46
62
34
30
60
70
31
15
46
62
34
30
60
70
31
15
46
62
34
30
60
69
30
15
45
62
34
29
59
71
30
15
43
61
36
29
57
72
30
15
42
62
36
29
56
70
31
15
43
62
37
29
56
71
31
14
43
62
37
29
56
73
31
14
42
62
37
28
56
72
31
15
42
62
36
28
56
73
31
15
42
62
35
28
58
73
31
15
42
62
35
28
57
73
30
14
41
61
35
28
58
73
30
14
40
60
35
29
60
72
30
14
40
58
35
29
59
69
30
14
40
55
35
29
60
69
31
15
40
54
35
29
59
69
31
15
40
55
34
29
58
68
31
15
40
56
35
29
60
68
31
15
40
56
35
29
60
67
26
14
40
56
35
29
62
67
28
15
41
56
35
30
62
67
26
14
38
53
34
30
61
67
26
14
38
53
35
30
62
67
26
14
38
52
35
30
61
67
26
14
38
53
35
30
63
67
25
14
39
54
33
30
63
66
26
14
40
54
32
30
63
66
25
14
40
54
33
28
61
66
26
14
39
53
32
26
60
67
26
14
40
53
32
26
61
67
28
14
36
52
33
26
61
67
29
14
35
50
33
26
60
68
29
14
35
50
33
26
60
67
29
14
35
51
33
23
60
65
29
14
35
53
33
23
60
66
29
14
35
53
33
24
60
66
29
14
35
53
33
23
59
66
29
14
35
54
33
24
59
64
29
14
35
54
33
24
57
63
29
14
35
54
33
26
58
63
29
14
34
53
32
26
58
63
28
14
30
50
29
26
60
63
28
14
30
50
29
26
62
63
28
14
30
50
30
26
62
65
29
14
31
50
29
25
61
66
29
14
31
50
28
25
62
67
29
13
31
51
29
27
64
67
29
13
32
52
30
27
63
64
29
13
32
53
29
27
61
64
31
13
32
53
30
27
61
64
32
13
32
53
29
27
61
63
32
13
32
53
29
27
61
63
31
13
31
53
29
27
61
62
31
13
31
51
27
27
61
59
31
13
31
49
27
27
61
59
31
13
29
49
26
27
61
57
31
13
30
49
26
27
61
55
31
13
29
50
26
27
60
55
31
13
29
49
25
27
59
55
31
13
29
50
26
27
58
55
31
13
29
50
25
27
58
54
31
13
29
50
25
27
57
55
31
13
29
50
25
25
56
56
31
13
28
50
25
25
55
57
31
13
28
50
25
25
55
57
30
13
27
50
25
25
55
57
30
13
28
49
25
25
55
57
30
12
27
48
24
25
53
57
30
12
27
48
23
25
53
55
30
12
27
48
23
24
50
52
28
11
26
48
22
22
49
51
27
11
25
48
22
22
48
51
28
11
26
48
21
22
47
51
28
11
25
47
21
21
47
51
27
11
25
46
21
21
45
50
27
11
23
45
21
21
45
50
27
11
23
44
21
21
45
49
27
11
22
44
21
21
45
48
26
11
22
43
20
21
42
47
26
11
20
42
20
21
41
47
24
11
20
41
19
20
41
47
22
11
19
41
19
20
41
45
22
11
19
41
19
20
40
45
22
11
19
40
18
20
40
45
22
10
19
37
18
20
40
42
22
10
19
36
18
19
40
41
23
10
19
35
17
19
40
40
23
10
19
34
17
18
40
40
23
10
19
34
17
18
39
38
23
10
19
34
17
15
37
38
22
9
18
32
16
14
36
37
22
9
18
32
16
14
32
37
22
10
18
31
16
14
27
36
22
9
18
31
15
13
26
31
21
9
17
30
14
13
25
29
20
9
15
27
13
12
24
28
20
9
15
25
12
8
18
26
20
9
12
21
9
7
18
26
20
9
11
19
9
7
18
26
16
9
11
19
9
7
18
26
16
9
11
18
8
7
17
26
16
9
11
18
8
7
17
26
16
9
11
18
8
7
16
26
16
9
11
17
6
7
16
26
16
9
11
17
6
7
16
26
16
8
10
17
6
6
16
25
16
8
10
17
6
6
15
25
16
8
10
16
5
6
15
25
16
7
9
16
5
5
12
25
15
7
8
12
4
5
9
25
15
7
8
12
4
5
9
24
14
7
8
12
4
4
7
22
14
7
8
11
4
4
7
21
14
6
8
10
4
4
7
17
14
6
8
10
4
4
7
17
14
6
8
10
4
4
7
17
14
6
7
10
4
4
7
17
14
6
6
8
3
4
7
16
14
6
6
7
3
4
6
16
14
6
6
7
3
4
6
16
14
6
6
6
3
4
6
16
14
6
6
5
3
4
6
16
14
6
5
5
3
3
6
14
14
6
5
5
3
4
6
14
14
6
5
5
3
4
6
14
14
6
5
5
3
4
6
14
14
5
4
5
3
4
5
14
14
5
4
5
3
4
5
13
14
5
3
5
2
3
4
13
14
5
3
6
2
3
3
11
14
5
3
6
2
3
3
11
14
5
4
8
2
3
3
11
14
5
4
7
2
3
3
11
14
5
4
7
2
3
3
11
14
5
4
7
2
3
3
11
14
5
4
7
2
3
3
11
13
5
4
7
2
3
3
12
14
5
4
7
2
3
3
12
13
5
4
7
2
3
3
12
13
4
4
7
2
3
3
12
13
5
4
7
2
3
3
12
14
5
4
7
2
4
3
12
13
4
4
8
2
5
3
13
13
4
5
9
2
5
4
13
13
4
5
9
2
5
4
13
13
4
5
11
2
5
4
13
13
4
5
11
2
5
4
13
13
4
5
11
2
5
4
13
13
4
5
11
2
5
4
13
12
4
5
11
2
5
4
13
11
4
5
13
2
5
4
13
10
5
5
16
2
5
4
13
10
5
5
16
2
5
4
13
10
5
5
16
2
5
4
13
10
5
5
16
2
5
4
13
10
5
5
16
2
5
4
13
10
5
5
16
2
5
4
12
10
5
5
16
2
5
4
12
10
5
5
16
2
5
4
12
10
5
6
16
2
5
4
12
10
5
6
16
2
5
4
13
10
5
6
17
2
5
4
13
10
5
6
17
2
5
4
13
11
5
6
17
2
5
4
13
11
5
6
17
2
5
4
13
10
5
6
17
2
6
5
14
10
5
7
18
2
6
5
15
10
5
7
18
2
6
5
15
10
5
7
18
2
6
5
15
10
5
7
18
2
6
5
15
10
5
7
18
3
6
5
15
10
5
7
18
2
6
5
15
10
5
7
18
2
6
6
15
10
5
7
18
3
6
6
16
10
5
7
19
3
6
6
16
10
6
8
19
3
6
6
16
10
6
9
19
3
6
6
16
10
6
9
20
3
6
6
16
10
6
9
20
3
6
6
16
10
6
9
20
3
6
6
16
10
6
10
21
3
6
6
16
10
6
9
20
3
6
6
16
10
6
10
21
3
6
6
16
10
6
10
21
3
6
6
16
10
6
10
21
3
6
6
16
10
6
10
21
3
6
6
16
9
6
10
22
3
6
6
15
9
6
10
21
3
6
6
15
8
6
10
21
3
6
6
15
8
6
10
21
3
6
6
15
8
6
10
21
3
6
6
15
8
6
10
21
3
6
6
15
8
6
10
21
3
6
7
15
8
6
10
21
3
6
7
15
7
6
10
21
3
5
7
15
7
6
10
21
3
5
7
15
7
6
11
24
3
5
7
15
7
6
11
24
3
5
7
15
7
6
11
25
3
5
7
15
7
6
11
25
3
5
7
15
7
5
11
25
3
5
7
15
7
5
11
23
3
5
7
15
7
5
11
23
3
5
7
15
7
5
11
23
3
5
7
15
7
5
11
23
3
5
7
15
7
5
11
23
3
5
7
15
7
4
12
23
3
5
7
15
8
5
12
23
3
5
7
16
8
5
12
23
3
5
7
16
8
5
12
23
3
5
7
16
8
5
12
23
3
5
7
15
8
5
12
23
3
5
7
15
8
5
12
23
3
5
7
15
6
5
12
23
3
5
7
15
6
5
12
23
2
5
7
14
6
5
12
23
2
5
6
14
6
5
12
22
3
5
6
13
6
5
12
22
2
5
6
12
6
5
12
22
2
5
6
12
6
5
12
22
2
4
6
13
7
5
12
22
2
4
6
12
6
5
12
22
2
4
6
12
6
5
12
22
2
4
5
12
6
5
12
22
2
4
5
12
6
5
12
22
2
4
5
12
6
5
12
21
2
4
5
12
6
5
11
21
2
4
5
12
6
5
11
21
2
4
5
12
5
5
11
20
2
4
5
12
5
5
11
20
2
4
5
12
5
5
10
19
2
4
5
12
5
5
10
19
2
4
5
12
5
5
10
18
2
4
5
11
5
5
10
18
2
4
5
12
5
5
9
18
1
4
5
11
5
5
9
18
1
4
5
11
6
5
9
17
1
4
5
11
6
5
9
17
1
4
5
11
6
5
9
17
1
4
5
11
6
5
9
17
1
4
5
11
6
5
9
17
1
4
5
11
6
5
9
17
1
4
5
12
6
5
9
17
2
3
4
13
6
5
9
18
5
2
4
13
6
5
10
18
10
2
5
13
6
5
10
16
15
3
5
17
7
6
9
12
16
4
7
19
8
6
9
13
17
4
12
26
10
6
9
19
20
9
13
28
12
6
14
19
20
9
19
32
12
6
15
20
22
9
23
36
12
6
15
20
22
11
24
40
12
6
16
20
22
12
24
40
13
10
22
24
28
13
28
42
15
11
27
29
32
14
30
43
16
12
30
33
32
15
32
44
16
12
30
33
32
17
34
46
17
12
32
34
34
18
34
46
17
12
33
35
34
18
34
47
18
12
35
36
35
19
35
48
18
14
37
36
36
23
38
50
19
15
38
40
38
26
42
50
20
15
38
41
38
30
46
53
26
15
39
44
42
30
48
56
31
16
41
45
42
30
50
59
33
17
42
45
42
31
51
59
33
19
45
46
45
32
52
59
34
22
48
46
45
32
53
60
35
22
49
46
46
35
56
62
35
22
49
46
46
36
59
62
37
27
49
47
46
37
60
64
39
28
49
47
46
37
62
64
39
28
50
47
46
37
62
65
40
29
50
47
47
38
64
67
40
29
50
48
47
38
64
69
40
29
51
48
49
38
64
69
40
30
51
48
49
38
65
71
40
31
51
51
50
38
65
71
40
31
51
51
50
39
65
71
40
32
52
51
51
39
65
73
41
32
52
52
51
40
65
74
41
32
53
52
53
41
66
74
44
33
53
54
56
41
66
74
44
34
54
54
56
41
67
76
44
35
54
54
56
41
69
78
45
35
54
54
56
42
69
79
45
35
54
54
56
43
69
79
46
35
54
54
58
43
69
81
46
35
54
55
59
44
70
81
46
35
54
57
60
46
72
82
46
35
55
57
61
46
72
83
46
35
56
57
61
46
73
83
46
35
56
58
62
46
73
83
46
35
56
58
64
46
74
83
47
36
57
58
63
46
74
83
48
37
59
61
63
46
74
83
48
36
61
63
63
46
74
83
48
36
61
63
64
47
74
81
48
37
60
62
63
46
74
81
48
37
60
63
64
46
75
81
48
37
60
63
64
46
75
80
48
37
61
64
64
47
75
79
48
37
61
64
63
46
75
81
49
36
59
63
61
46
74
80
49
36
57
61
60
46
73
80
49
36
55
60
60
47
75
81
49
36
55
60
59
46
74
80
48
36
55
59
59
46
74
80
48
36
54
59
59
46
74
79
48
37
54
60
59
46
74
81
48
37
54
60
58
44
72
80
48
37
53
58
58
42
70
80
48
37
54
57
59
39
68
78
45
37
54
55
56
39
66
77
42
37
54
55
56
39
66
75
42
37
53
56
57
39
66
76
41
36
51
56
56
39
66
76
42
35
48
56
56
39
67
77
41
35
47
56
55
36
66
77
41
35
47
56
55
35
66
78
40
31
47
56
55
35
65
76
38
30
47
55
55
36
65
76
39
31
47
56
55
35
65
76
38
30
47
56
55
35
66
74
38
30
46
56
55
35
66
73
38
30
45
56
54
35
66
73
38
30
45
55
53
35
66
72
39
29
46
56
54
35
67
75
40
29
46
58
54
34
67
74
41
29
46
58
54
34
67
74
41
29
46
58
53
33
68
74
41
29
45
58
52
32
67
75
38
27
44
56
48
32
67
74
38
26
44
57
49
32
66
73
38
25
44
58
50
32
65
71
37
25
44
58
50
32
65
71
37
25
44
59
50
31
65
70
36
26
45
59
48
31
68
69
37
26
44
59
48
29
67
69
36
26
44
60
48
27
65
68
37
27
43
60
47
27
65
67
38
27
42
59
50
27
66
67
39
27
42
59
48
27
66
68
38
27
42
59
46
27
66
67
37
27
41
59
46
27
66
67
36
25
38
56
46
27
65
67
36
26
37
54
45
28
66
67
36
26
37
54
45
29
68
68
36
25
37
54
44
29
68
68
37
25
37
53
44
29
67
67
37
25
36
51
44
31
66
68
37
25
35
50
44
30
66
66
36
26
36
51
44
30
66
65
35
26
36
51
44
30
68
65
35
25
36
51
44
31
70
65
35
26
36
50
45
29
68
63
35
26
35
50
45
29
68
65
35
26
34
50
44
29
69
68
36
26
34
49
44
29
69
67
36
25
33
49
44
29
70
67
37
25
31
49
46
29
70
69
38
25
31
48
45
30
69
70
37
24
29
48
44
29
70
71
38
24
30
49
44
30
70
70
37
23
28
49
44
30
70
72
37
23
28
47
43
30
69
71
37
23
28
47
42
31
69
70
36
23
27
48
42
31
68
69
36
23
27
48
41
31
67
67
36
23
27
49
42
31
65
67
35
23
27
49
43
30
66
68
36
23
27
49
44
29
64
70
36
22
27
49
44
31
65
72
35
22
27
49
44
32
65
72
36
22
28
50
45
32
64
73
35
22
28
50
45
32
64
73
36
23
28
50
45
32
64
72
36
22
27
47
44
32
63
70
35
23
27
44
43
32
62
71
34
23
26
44
43
32
65
71
34
23
26
44
44
32
65
71
35
23
26
45
45
32
65
70
35
23
27
45
45
32
64
71
35
23
27
44
44
31
64
72
35
23
27
43
44
32
64
72
35
23
27
42
44
32
65
71
35
24
26
41
44
32
67
72
35
23
26
41
44
32
65
74
35
23
27
39
42
32
65
74
35
23
26
38
41
32
67
73
34
22
26
37
41
32
66
73
33
22
27
37
39
33
66
73
33
22
27
37
38
33
66
72
33
22
27
37
40
33
66
72
33
22
27
37
40
33
66
72
33
22
26
37
41
33
67
72
32
22
25
38
41
32
67
73
32
22
25
38
40
31
64
71
33
22
25
38
40
31
63
71
32
22
25
39
40
31
63
72
32
22
25
39
39
29
63
71
32
22
24
38
40
28
63
72
32
21
25
39
41
29
64
72
32
21
26
40
40
29
64
71
32
21
26
40
40
28
62
71
32
21
26
40
40
29
62
71
32
21
26
40
39
29
63
69
33
21
26
40
40
28
61
66
32
21
26
41
40
28
62
68
31
20
26
39
40
28
62
66
30
19
26
39
38
28
62
66
29
19
26
40
37
28
62
66
29
19
26
40
37
28
64
64
28
19
26
39
37
28
63
63
28
19
25
39
37
27
63
62
27
19
26
39
37
27
62
62
27
19
26
40
37
27
64
62
28
19
26
39
37
26
63
64
28
20
26
39
37
26
63
64
28
21
26
39
36
26
63
66
30
21
26
39
35
26
63
64
29
21
27
40
34
26
62
62
29
21
27
39
34
24
62
60
30
21
27
39
34
22
59
59
28
20
26
38
33
23
59
59
28
20
30
39
33
23
59
59
28
20
31
39
33
23
59
60
30
20
31
40
33
23
61
60
29
19
31
39
32
23
62
59
29
19
31
39
32
23
59
58
28
19
31
39
32
22
59
58
28
19
31
38
30
22
60
58
28
19
30
38
31
22
60
57
28
19
30
38
31
22
60
56
29
19
30
38
31
22
61
56
29
19
30
39
31
22
62
56
29
19
30
38
31
22
59
55
28
19
30
39
31
22
58
54
28
18
30
42
31
22
58
54
28
18
31
43
31
22
56
55
29
19
31
44
30
22
57
56
29
19
30
45
30
22
57
57
30
19
30
45
30
21
58
57
30
19
30
45
29
21
58
57
30
19
31
45
28
20
58
58
30
19
30
44
27
20
57
58
30
18
30
42
28
20
56
57
30
18
30
42
28
20
56
58
30
18
30
42
28
20
56
58
30
18
30
42
28
21
56
56
29
18
30
43
28
21
55
56
29
18
31
43
26
21
55
55
29
18
29
42
26
20
54
55
29
18
28
40
26
20
53
56
29
18
28
40
26
20
52
56
29
18
28
40
25
20
52
57
29
18
29
41
26
21
54
57
28
17
29
42
25
21
56
58
28
18
29
42
25
21
55
56
28
17
29
41
26
21
56
56
28
18
29
41
26
21
56
53
28
17
29
41
26
22
56
54
28
18
29
41
26
22
54
54
28
17
30
41
26
22
55
54
28
17
31
41
26
22
55
54
28
17
30
40
26
22
57
55
28
17
30
40
27
23
56
54
27
17
30
39
27
23
57
52
27
17
30
38
27
23
58
52
27
16
30
38
28
23
58
49
25
16
30
39
27
23
58
49
26
16
29
37
27
23
58
49
26
16
29
38
27
23
58
49
25
16
30
39
27
23
58
49
25
16
30
38
28
22
57
49
26
16
27
37
28
23
57
49
26
16
25
38
28
23
58
49
24
16
26
37
28
23
57
49
24
16
26
37
28
23
57
48
24
16
26
37
28
23
58
48
24
16
26
36
29
23
60
49
23
16
25
37
29
23
59
51
23
16
25
37
27
23
59
54
23
16
25
37
27
24
59
54
23
16
25
37
27
24
58
53
22
15
25
37
27
23
57
53
24
15
26
38
27
23
57
53
24
15
26
39
27
23
58
55
24
16
26
35
26
23
58
54
23
16
25
33
26
23
57
53
23
16
26
33
26
23
58
53
22
15
26
32
26
22
57
52
22
15
25
32
27
22
56
51
22
15
25
34
27
22
56
51
23
15
24
35
27
22
57
51
23
15
25
36
27
22
58
50
23
15
25
36
24
23
61
51
23
15
25
36
24
23
62
53
23
15
26
38
25
23
62
52
24
15
26
38
25
22
62
53
24
15
26
37
25
22
63
53
24
15
26
38
25
22
63
55
24
15
26
38
25
23
62
55
24
15
26
39
25
23
63
54
24
15
26
39
25
23
63
53
24
14
26
39
25
23
62
54
24
14
26
38
25
23
60
54
24
15
25
37
25
23
59
54
24
14
26
39
27
23
59
57
25
15
26
40
26
23
58
59
25
15
27
42
26
22
58
59
25
15
27
41
27
22
58
59
25
15
27
41
27
22
57
60
25
15
25
41
26
22
56
60
25
15
25
41
26
22
56
59
25
15
25
42
26
22
54
61
25
15
25
41
26
20
53
62
25
15
25
42
26
20
52
62
25
15
26
43
25
20
51
62
25
14
26
43
25
20
50
63
25
14
27
42
25
19
50
63
25
14
27
42
25
19
50
63
25
13
26
42
25
19
50
63
25
13
25
41
25
21
51
62
25
13
25
42
23
21
53
62
24
12
25
42
23
21
52
60
24
12
25
42
23
21
52
60
23
12
25
42
23
20
51
60
23
12
25
42
23
20
50
61
23
12
25
43
22
20
49
60
23
12
25
43
22
20
47
60
23
12
25
43
21
20
47
58
23
11
25
42
22
20
47
55
23
11
25
42
22
20
47
55
22
11
25
42
22
19
47
55
22
11
26
42
21
19
47
55
21
11
25
41
21
18
46
55
21
11
25
40
22
18
45
52
21
10
25
40
21
18
45
52
22
10
25
40
21
18
45
52
22
9
24
40
21
18
43
52
22
9
24
40
20
18
43
52
20
9
25
39
19
17
43
53
20
9
25
38
19
17
43
53
19
9
25
37
19
17
42
53
19
9
24
36
19
17
39
53
19
9
24
35
19
17
35
51
19
9
24
35
19
17
33
49
19
9
22
34
17
16
32
49
17
9
23
34
17
16
31
48
17
9
23
33
17
16
31
48
17
9
23
32
17
16
30
46
17
9
22
32
17
14
30
46
17
9
22
31
16
13
30
46
17
9
22
31
16
13
29
45
17
9
22
30
16
13
29
43
17
9
22
30
16
12
29
43
17
9
22
31
15
12
29
43
17
9
22
28
12
12
28
39
16
10
22
27
12
12
28
36
16
9
20
24
12
11
28
34
15
9
20
24
10
11
27
34
15
9
20
24
9
11
27
32
15
9
19
24
9
11
27
32
15
8
19
24
9
11
26
32
15
8
19
23
9
11
26
26
14
8
19
23
9
11
25
23
14
8
18
22
9
11
25
23
14
8
18
20
8
11
25
22
13
8
17
20
8
11
25
21
13
8
16
19
8
11
25
21
13
8
15
19
8
10
25
21
13
8
15
19
8
10
25
21
13
7
15
19
8
7
24
21
13
7
15
18
8
6
19
21
13
7
15
17
8
6
19
20
13
7
15
17
8
6
19
20
13
7
15
15
8
6
19
20
13
7
15
15
7
6
19
19
13
7
15
14
7
6
18
19
13
7
15
14
7
5
16
19
12
7
14
13
7
5
16
19
12
7
14
13
6
5
16
19
12
7
14
13
5
5
16
19
12
7
13
12
5
4
16
19
12
7
12
12
5
4
15
18
12
7
11
11
5
4
15
18
12
7
11
10
4
4
15
17
12
7
11
10
4
4
15
17
11
7
11
10
4
4
14
17
11
7
10
9
4
4
14
16
11
7
10
9
3
4
13
16
11
7
10
8
3
4
13
13
11
7
9
8
3
4
12
12
11
7
9
7
2
4
11
12
11
7
9
7
2
4
11
12
11
7
9
7
2
4
11
12
11
7
9
7
2
4
11
12
11
7
9
6
2
4
11
11
11
7
8
6
2
4
11
11
11
7
8
6
2
4
11
11
10
7
8
6
2
3
10
11
10
7
8
5
2
3
10
10
10
6
8
5
2
3
10
10
10
6
8
5
2
3
9
10
10
6
7
5
2
3
9
10
10
6
6
5
2
3
8
10
9
6
6
8
2
3
6
10
9
6
6
15
2
3
6
10
9
5
5
15
2
3
5
10
9
5
5
15
2
3
6
10
8
5
5
15
2
3
6
10
8
5
5
15
2
3
5
10
8
4
5
15
2
3
5
10
8
4
5
15
2
3
5
10
8
4
5
15
2
3
5
10
8
4
4
15
2
3
5
10
8
4
4
15
2
3
5
11
8
4
4
15
2
3
5
11
8
4
4
15
2
3
5
11
8
4
4
15
2
3
5
12
8
4
4
15
2
3
5
12
8
4
4
15
2
3
5
12
8
4
4
16
2
3
5
12
8
4
4
16
2
3
5
12
8
4
5
16
2
3
5
12
8
4
5
16
2
3
5
12
8
4
6
16
2
3
5
12
8
4
8
16
2
3
5
12
8
4
8
17
2
3
5
12
8
4
8
17
2
3
5
11
8
4
8
17
2
3
5
11
8
4
9
20
2
3
5
12
8
4
9
20
2
3
5
12
8
4
9
20
2
3
5
13
8
4
9
20
2
3
5
13
7
4
9
20
2
3
5
13
7
4
9
20
2
3
5
13
7
4
9
21
2
3
5
13
7
4
9
21
2
3
5
13
7
4
9
21
2
3
5
14
7
4
9
21
2
3
5
15
7
4
9
21
2
3
5
14
7
4
9
21
2
3
5
14
7
4
9
21
2
3
5
15
7
4
9
21
2
3
5
15
7
5
9
21
2
3
5
15
7
5
9
21
2
3
5
15
7
5
10
22
2
3
5
15
7
5
10
24
2
3
5
15
7
5
10
24
2
3
5
15
7
5
10
24
2
3
5
15
7
5
10
24
2
3
5
15
7
5
10
24
2
3
5
15
7
5
10
24
2
3
5
15
7
5
10
24
2
3
5
15
7
5
10
24
2
3
5
15
8
5
10
23
2
3
5
15
7
5
10
20
2
3
5
16
7
5
10
20
2
3
5
16
7
5
10
20
2
3
5
16
7
5
10
20
2
3
5
15
7
5
10
20
2
3
5
15
7
5
10
20
2
3
5
15
7
5
10
20
2
3
5
15
7
5
10
20
2
3
5
15
7
5
10
20
2
3
5
15
7
6
10
20
2
3
5
15
7
6
10
20
2
3
5
15
7
6
10
20
2
3
5
15
7
6
10
20
2
3
5
14
7
6
10
20
2
3
5
14
7
6
10
20
2
3
4
14
7
5
10
20
2
3
4
14
7
5
10
20
2
3
4
14
7
5
10
20
2
3
4
14
7
5
10
20
2
3
4
14
7
5
9
20
2
3
4
14
7
6
8
20
2
3
4
14
7
6
8
19
1
3
4
14
6
5
8
19
1
3
5
14
6
5
8
19
1
3
5
14
6
5
7
16
1
3
5
14
6
5
7
16
1
3
5
14
6
5
7
16
1
3
5
13
6
5
7
16
1
3
6
13
6
5
7
16
1
3
6
13
6
5
7
16
1
3
6
13
6
5
7
16
1
3
6
13
6
5
7
15
1
3
6
12
6
5
7
15
1
3
6
11
6
5
7
15
1
3
6
11
6
5
7
15
1
3
6
11
6
5
7
15
1
3
6
11
6
5
7
15
1
3
6
11
6
5
7
15
1
3
6
11
6
5
6
15
1
3
6
11
6
5
6
15
1
3
6
11
6
5
5
14
1
3
6
11
6
5
4
10
1
3
6
11
6
5
4
10
1
2
6
11
6
5
4
9
1
2
5
11
6
5
4
9
1
2
5
11
5
5
4
9
1
2
5
11
5
5
4
9
1
2
6
11
5
5
4
9
1
2
6
11
4
5
4
9
1
2
6
10
4
4
3
8
1
2
5
10
4
4
3
8
1
2
5
8
4
4
3
8
1
2
5
9
4
4
3
8
1
2
5
8
4
4
3
8
1
2
5
8
4
4
3
8
1
2
5
8
4
4
3
8
1
2
5
8
4
4
3
7
1
2
6
9
4
4
3
5
1
2
6
9
4
4
3
5
1
2
6
9
4
3
3
5
1
2
6
9
4
3
3
5
1
2
6
9
4
3
3
4
1
2
6
9
3
3
3
4
1
2
6
9
3
3
3
4
1
2
6
11
3
3
3
4
1
2
6
11
3
3
3
3
1
2
6
11
3
3
3
3
1
2
6
11
3
3
3
3
1
2
7
11
3
3
3
3
1
2
7
11
3
3
3
3
1
2
7
11
3
3
3
3
3
2
7
12
4
3
3
3
3
2
9
12
4
3
5
6
4
3
9
13
4
3
6
7
8
3
12
16
4
3
7
7
9
5
12
20
5
3
7
8
15
6
13
20
6
3
7
9
15
8
18
25
8
4
11
14
16
8
22
26
11
4
11
18
16
9
24
29
11
4
12
21
19
13
25
30
12
4
17
24
25
13
29
30
12
5
20
26
28
13
29
30
12
6
22
27
29
15
29
30
13
6
22
27
31
16
29
31
13
7
22
27
31
16
31
35
14
8
22
28
32
18
31
37
20
9
24
28
34
23
35
37
21
15
24
30
34
24
39
40
21
19
29
34
39
25
40
41
24
19
32
36
40
27
43
42
25
20
33
38
43
27
44
42
27
20
33
39
45
27
46
42
27
25
36
39
45
28
46
44
29
25
36
39
45
32
47
45
29
27
37
39
45
33
47
47
32
31
38
40
47
34
49
50
34
34
40
40
48
34
51
52
36
35
41
41
49
34
54
53
39
37
41
43
49
34
55
56
40
38
41
44
49
35
56
59
40
38
41
45
50
36
57
59
40
39
44
45
50
36
57
59
40
40
45
45
50
36
59
59
40
42
45
45
51
36
60
61
40
43
45
46
52
36
63
62
43
43
46
46
52
36
65
63
45
43
46
46
53
36
66
66
45
44
47
48
53
36
67
68
46
44
47
50
53
36
69
69
46
44
47
51
54
37
69
70
47
44
47
51
54
37
70
71
47
44
47
51
55
37
71
72
47
45
49
51
55
37
72
72
47
45
49
52
56
38
72
72
47
45
49
52
56
38
73
72
47
45
50
53
56
38
73
73
47
45
50
53
57
39
73
73
48
45
50
54
57
39
74
73
48
45
50
54
57
40
74
75
48
45
50
56
57
40
75
75
48
45
51
56
58
40
76
75
48
46
52
56
58
40
76
76
48
46
52
56
58
40
78
76
49
46
52
57
58
40
78
75
49
46
52
57
58
40
78
75
49
46
52
57
57
40
79
76
49
46
53
57
57
40
79
75
49
46
53
56
57
40
78
75
49
47
54
55
57
40
78
74
49
47
53
55
57
39
77
74
49
47
53
54
55
39
76
74
49
47
53
54
53
39
77
74
49
47
53
55
53
39
77
76
49
47
53
55
53
39
76
78
49
47
53
56
54
40
78
76
49
47
53
56
55
39
79
76
47
47
52
56
54
37
79
76
48
45
52
56
54
37
79
74
48
44
50
53
51
36
78
74
47
45
48
52
51
35
77
74
48
45
47
51
48
35
77
76
47
45
47
51
46
35
75
76
47
42
46
51
46
36
75
75
46
42
46
51
46
32
76
76
46
42
45
51
46
31
78
74
44
40
44
52
44
31
78
72
43
38
42
53
44
31
76
71
42
37
41
52
44
31
76
71
39
35
41
50
44
31
76
69
39
34
41
49
43
30
75
67
38
34
42
49
43
30
74
67
39
33
39
49
43
29
74
67
39
32
38
49
42
29
73
67
39
29
38
49
42
29
73
69
39
28
38
48
40
30
71
68
36
28
37
48
40
30
71
67
33
28
37
48
40
30
71
66
33
28
38
46
41
31
71
63
32
27
38
45
41
32
70
64
31
27
38
44
41
31
69
63
32
27
38
44
41
31
68
62
32
27
38
44
40
31
68
61
32
27
36
43
40
31
67
61
32
26
37
44
40
31
69
62
32
26
37
45
40
31
70
62
32
26
37
44
40
31
70
61
32
26
37
44
39
30
71
61
32
26
38
45
39
29
72
63
32
27
38
45
39
29
72
63
31
26
38
43
40
29
70
63
31
26
37
43
38
29
70
63
31
26
35
43
39
29
69
62
32
27
35
43
38
29
69
63
32
27
35
42
38
29
70
64
32
26
35
42
39
29
69
65
32
25
34
42
38
30
69
65
33
26
33
43
39
30
67
64
32
26
32
42
39
30
68
65
32
25
31
42
39
29
70
65
32
25
31
41
37
29
70
65
32
25
29
41
37
29
70
65
32
25
28
41
38
29
71
65
32
25
27
39
38
31
72
65
31
25
27
38
37
30
73
64
32
26
27
37
36
29
71
64
31
25
27
37
33
29
71
63
31
25
27
37
32
28
69
64
31
25
27
36
32
28
68
65
32
24
27
37
32
27
68
66
32
23
27
36
32
27
68
65
29
22
27
35
31
27
68
63
29
22
26
34
31
27
69
64
29
22
26
35
31
26
70
66
29
22
26
35
32
25
69
66
30
21
26
34
33
25
68
66
29
19
26
33
33
26
69
66
29
18
26
32
32
26
69
66
29
18
25
32
31
26
68
66
29
18
26
32
31
25
68
66
29
17
26
33
31
25
68
66
29
17
25
33
31
25
68
67
29
17
25
33
31
25
70
68
30
17
25
33
31
25
69
67
30
17
25
33
31
25
68
66
30
17
26
33
31
25
69
66
30
17
26
33
31
24
68
65
30
17
26
34
30
25
67
64
30
16
24
34
29
23
67
64
30
17
24
34
28
22
67
63
30
16
24
34
28
22
67
63
30
17
24
35
28
22
67
63
30
16
24
34
28
22
67
63
30
16
24
36
28
22
67
63
30
16
24
35
26
21
65
63
29
15
23
33
26
22
64
63
29
16
23
34
26
23
64
64
29
16
22
34
26
23
63
63
29
16
21
32
26
23
61
61
28
15
21
31
26
22
63
60
29
15
21
30
26
22
63
60
29
15
21
29
25
23
63
60
28
15
21
29
24
22
63
59
28
15
21
30
25
22
62
59
28
15
21
30
25
22
60
57
27
15
21
30
24
22
60
57
27
15
22
30
24
21
60
56
26
15
23
29
23
21
60
56
26
15
23
29
23
21
59
55
27
15
22
29
23
21
57
55
26
14
22
29
23
21
57
55
26
14
23
29
23
21
57
57
27
14
25
29
23
21
55
58
27
14
25
29
22
18
54
56
27
14
25
29
22
18
54
55
26
13
25
29
22
18
53
58
29
13
25
29
22
18
52
58
29
14
25
29
23
18
52
57
28
14
26
29
23
18
51
55
27
14
25
29
23
18
51
54
26
14
26
29
23
18
52
55
26
14
27
29
23
18
52
55
27
14
27
31
23
18
52
54
27
14
28
31
23
18
50
52
26
14
28
31
22
18
50
51
25
13
28
31
21
18
51
51
25
13
28
31
21
17
49
52
25
13
28
31
21
17
48
52
25
13
28
31
21
17
48
52
25
13
27
30
21
17
48
51
25
13
27
31
21
17
48
53
26
13
27
33
21
18
47
52
26
13
27
33
21
17
45
50
25
13
27
33
20
17
45
50
25
13
28
33
21
17
47
50
25
13
27
32
22
17
48
51
25
13
27
33
22
17
50
51
25
13
27
32
22
17
49
51
25
13
27
32
21
17
49
51
25
13
27
32
22
17
51
51
25
13
27
32
22
17
51
50
24
13
27
34
22
17
50
51
24
13
27
36
22
17
50
51
24
14
25
35
21
17
50
50
24
13
25
35
21
16
50
50
24
13
24
35
20
16
51
50
25
12
24
34
20
15
53
49
25
12
24
35
19
15
52
49
25
12
25
37
19
15
52
49
25
12
25
37
19
15
50
48
25
12
25
37
19
15
50
47
24
12
25
37
19
15
50
48
25
12
25
38
19
14
50
47
24
13
25
40
18
14
50
49
24
12
25
40
19
14
50
49
24
12
25
40
19
14
51
48
24
12
24
40
19
14
50
49
24
12
23
39
19
14
50
49
24
13
23
40
19
14
50
49
24
13
24
40
19
14
50
50
24
13
24
40
19
14
51
49
24
13
23
40
19
14
52
47
23
12
21
40
19
14
52
46
23
12
21
40
19
14
53
45
23
12
21
41
19
14
52
45
23
12
21
43
18
14
52
41
20
12
21
43
18
14
52
41
18
11
22
43
18
14
52
41
18
11
22
44
18
14
52
41
18
11
23
44
17
14
52
42
19
11
21
44
17
15
50
42
18
11
21
44
17
15
51
43
18
11
20
42
17
16
51
43
18
11
22
43
17
16
51
43
18
11
23
45
17
16
51
43
18
11
23
46
17
16
48
43
18
11
23
46
17
16
48
42
18
11
24
46
17
16
48
43
18
11
24
48
17
16
48
43
18
11
24
48
17
16
49
43
19
12
25
48
17
17
50
41
17
11
27
49
20
16
51
40
17
11
29
51
21
17
53
43
17
11
29
51
21
17
54
43
17
11
29
52
21
18
52
43
17
11
29
52
20
18
50
42
16
11
29
53
21
18
49
43
16
11
29
52
21
18
49
44
16
11
29
52
22
18
48
44
16
11
31
53
22
18
46
44
16
11
31
53
22
18
46
45
16
11
31
52
22
18
46
44
16
11
31
51
22
18
46
44
16
10
31
50
22
18
46
44
16
10
31
50
22
18
46
45
16
10
31
51
24
18
44
47
17
10
32
51
24
18
42
47
17
10
31
50
24
18
42
48
17
10
31
49
24
18
44
49
17
11
31
50
24
18
44
50
17
11
31
50
24
18
43
50
17
11
31
50
24
18
44
50
17
11
32
51
24
18
44
51
17
10
32
50
24
18
44
50
18
11
32
50
24
18
43
50
18
11
32
50
24
18
43
50
18
11
34
53
24
19
44
49
18
11
34
53
24
20
44
49
18
10
35
55
23
20
44
51
18
10
36
55
23
20
44
51
18
10
37
55
23
20
44
51
18
10
39
57
23
20
42
51
18
10
40
57
23
20
42
54
19
10
41
59
23
20
43
57
22
11
41
58
23
20
43
56
22
11
41
57
24
20
43
56
22
10
41
57
24
20
43
57
22
10
41
57
24
20
43
57
22
10
41
56
24
20
43
57
22
11
40
57
24
20
44
56
22
11
40
57
24
20
46
57
22
11
40
57
24
20
49
56
22
11
42
57
24
19
49
56
22
11
42
58
24
19
49
56
23
11
41
57
25
19
49
56
23
11
41
58
25
19
50
56
23
11
41
58
25
19
49
56
23
11
40
57
25
19
50
55
23
11
40
56
25
19
50
55
23
11
40
57
25
19
49
55
23
11
40
57
25
18
47
56
23
11
38
54
23
18
46
58
22
11
37
52
22
17
44
56
22
11
37
52
22
17
42
56
23
11
37
52
21
17
42
56
23
11
37
51
21
17
42
56
23
11
37
51
21
17
41
55
23
11
38
53
21
17
41
54
23
11
38
53
20
17
41
55
23
11
36
52
20
17
42
55
23
11
40
54
20
17
42
55
23
11
42
56
20
17
42
55
24
12
42
55
20
17
42
56
24
12
42
56
20
17
42
56
24
12
41
56
20
17
42
55
24
12
42
56
18
17
44
54
23
11
42
56
18
17
45
53
23
11
42
56
18
17
45
53
23
12
42
56
18
17
44
51
22
11
43
56
18
17
46
51
22
11
43
57
18
17
46
50
22
11
44
59
17
17
45
51
22
11
43
58
17
17
46
52
22
11
44
59
17
17
46
54
22
11
44
59
17
17
47
55
21
10
44
59
17
17
47
55
22
10
43
56
18
16
46
55
22
11
42
56
17
15
46
55
22
11
41
54
18
16
46
54
22
11
40
53
18
16
46
54
22
11
41
54
18
16
47
54
23
11
39
53
17
16
48
54
23
11
38
53
18
16
49
52
22
11
38
51
18
16
47
48
19
11
38
51
18
16
47
48
19
11
38
51
18
16
47
49
19
11
38
52
17
16
47
48
19
12
38
51
16
16
46
48
19
11
38
51
16
16
46
48
19
11
38
51
16
16
46
47
19
11
38
51
16
16
43
47
18
11
38
51
16
15
40
47
18
11
36
50
16
15
41
46
18
11
35
49
16
16
43
46
17
10
36
48
15
16
43
46
17
11
37
47
14
15
42
46
17
11
37
47
14
15
41
46
17
11
37
47
14
15
41
46
17
11
37
47
14
15
41
45
16
11
37
46
14
15
41
46
16
11
37
46
14
15
41
44
16
11
37
46
14
15
41
42
16
10
37
46
14
15
41
42
16
10
37
46
14
15
41
41
15
10
36
46
14
13
41
41
15
10
36
46
14
13
41
41
15
10
36
45
14
13
41
41
14
10
35
43
13
13
41
41
14
10
35
43
13
13
40
39
14
10
35
42
13
13
40
38
14
10
31
40
13
13
40
38
13
9
28
38
13
13
40
38
14
9
28
38
12
13
40
37
13
9
27
37
12
13
40
37
13
9
27
36
11
13
39
36
13
9
26
35
11
12
37
36
13
9
26
34
11
12
35
36
13
9
26
34
11
12
35
36
13
9
25
34
11
12
34
36
13
9
25
34
11
11
32
36
13
9
24
31
11
11
32
36
13
9
22
28
11
11
32
35
13
9
22
28
10
11
30
31
13
9
22
24
10
11
30
27
13
8
21
24
10
11
29
26
14
8
21
24
10
10
29
24
14
8
21
24
9
10
28
24
13
7
21
23
9
10
28
22
12
7
21
23
9
9
26
19
13
7
20
23
9
8
26
18
12
7
17
20
9
8
25
17
12
7
16
18
9
7
23
17
12
7
16
17
7
7
21
17
13
7
15
17
7
7
21
17
12
7
15
17
7
7
21
17
12
7
15
16
7
7
21
15
12
6
14
15
6
7
21
14
12
6
13
16
6
6
20
14
12
7
13
16
6
6
20
14
12
7
13
16
5
5
20
14
12
7
13
16
5
4
19
12
12
7
13
16
4
4
19
12
12
7
13
16
4
4
16
12
12
7
12
15
4
3
7
12
12
6
9
12
3
3
7
12
13
6
7
11
3
3
7
11
13
6
6
11
3
3
7
11
13
6
6
11
3
2
6
11
13
6
5
10
3
2
6
10
13
6
5
10
2
2
6
9
13
6
5
10
2
2
6
8
13
6
5
10
2
2
6
8
13
6
4
10
2
2
6
8
13
6
4
9
2
2
6
7
13
6
4
9
2
2
6
6
13
6
4
9
2
2
6
6
13
6
4
9
2
2
5
6
13
6
4
9
2
2
5
6
13
6
3
9
2
2
5
6
13
6
3
9
2
2
5
6
13
6
3
9
2
2
4
6
13
6
3
9
2
3
4
6
12
5
3
9
2
3
4
6
12
6
3
9
2
3
4
6
12
6
3
9
2
3
4
6
12
6
3
9
2
3
3
6
13
6
3
9
2
3
3
7
13
5
4
10
2
3
3
7
12
6
4
10
2
3
4
7
12
6
4
10
2
3
3
7
12
6
4
11
2
3
3
7
12
6
4
11
2
3
3
7
12
6
4
11
2
3
3
7
12
6
4
11
2
3
3
7
12
6
4
11
2
3
3
8
12
6
4
12
2
3
3
8
11
6
4
12
1
3
3
8
11
6
5
12
1
3
4
8
11
5
5
12
1
3
4
8
11
5
5
12
1
3
4
9
11
5
5
13
1
3
4
9
10
5
5
13
1
3
4
9
10
5
5
13
2
3
4
9
10
4
5
14
2
3
4
9
10
5
5
14
2
3
4
9
10
5
5
14
2
3
4
9
10
4
5
13
2
3
4
9
10
5
5
11
1
3
4
9
10
4
5
11
2
3
4
9
10
4
5
12
2
3
4
9
10
4
6
14
2
3
4
9
10
4
6
14
2
3
4
9
10
4
6
14
2
3
4
10
10
4
6
14
2
3
4
10
9
5
6
14
2
3
3
10
8
5
6
14
2
3
4
10
8
5
6
14
2
3
4
10
8
5
6
14
2
3
4
10
8
5
6
14
2
3
4
10
8
5
7
14
2
3
4
10
8
5
7
14
2
3
4
10
8
5
7
14
2
3
4
10
8
5
7
14
2
3
4
10
8
5
7
14
2
3
4
10
8
5
7
14
2
3
4
10
8
5
8
17
2
3
4
11
8
5
9
21
2
3
4
11
8
5
10
21
2
3
4
11
8
5
10
21
2
3
4
11
8
6
10
21
2
3
4
11
8
6
10
21
2
3
4
11
7
6
10
21
2
3
4
11
8
6
10
21
2
3
4
11
8
5
10
21
2
2
4
11
8
5
10
21
2
2
4
11
8
5
10
21
2
2
4
12
7
5
10
21
2
2
4
12
7
6
10
21
2
2
4
12
7
6
10
21
2
2
4
12
7
6
10
21
2
3
4
12
7
6
10
21
2
3
4
12
7
6
10
21
2
3
4
12
6
6
10
21
2
3
4
12
7
6
10
21
2
3
4
12
7
6
9
21
2
3
4
11
7
6
9
21
2
3
4
11
6
6
9
21
2
3
4
11
7
6
9
21
2
3
4
11
6
6
9
20
2
3
4
12
6
6
9
20
2
3
4
12
6
6
9
20
2
3
4
12
6
6
9
20
2
3
4
12
6
6
9
19
2
3
4
12
6
6
9
19
2
3
4
12
6
6
9
19
2
3
4
12
6
6
9
19
2
3
4
12
6
6
9
19
2
3
4
12
6
6
9
19
2
3
5
12
6
6
9
19
2
3
5
11
6
6
9
19
2
3
5
11
6
6
8
18
2
3
5
11
6
6
8
18
2
3
4
11
6
6
8
18
2
3
4
11
6
6
8
18
2
3
4
11
7
6
8
18
2
3
4
11
6
6
8
18
2
3
4
11
6
6
8
18
2
3
4
11
7
6
8
17
2
3
4
11
6
6
8
17
2
3
4
12
6
6
8
17
2
3
4
12
6
6
8
17
2
3
4
11
6
6
8
17
1
2
4
11
6
6
8
17
1
2
4
11
6
6
8
17
1
3
4
11
6
6
8
17
1
2
4
11
6
6
6
14
1
2
4
10
6
6
5
8
1
2
4
10
6
6
4
8
1
2
4
10
6
6
4
8
1
2
4
10
6
5
4
8
1
2
4
10
6
5
4
7
1
2
4
10
6
6
4
7
1
2
4
10
5
5
4
7
1
2
4
10
5
5
4
7
1
2
3
9
5
5
4
6
1
2
3
9
5
5
4
6
1
2
3
9
5
5
4
6
1
2
3
8
5
5
4
5
1
2
3
8
5
5
4
5
1
2
3
8
5
5
3
5
1
2
3
8
5
5
4
5
1
2
3
8
4
5
3
5
1
2
3
8
5
5
4
5
1
2
3
8
5
5
4
5
1
2
3
8
5
5
4
5
1
2
4
15
6
5
4
6
3
2
5
18
6
5
5
6
6
2
9
20
7
5
6
6
7
2
9
22
7
5
7
6
7
4
12
24
8
5
7
8
10
4
15
27
9
6
8
11
10
4
15
27
9
6
8
17
16
4
15
31
10
6
8
19
21
6
15
31
14
6
15
20
24
9
16
31
15
8
21
22
25
10
17
32
16
10
26
27
26
11
22
32
16
10
29
29
29
11
23
35
16
11
34
30
32
13
30
36
16
12
38
30
32
14
30
38
17
13
38
30
32
14
33
38
18
17
42
35
32
14
37
38
19
17
44
36
33
18
37
39
23
23
44
39
33
18
38
41
23
24
44
40
35
18
38
45
24
27
45
40
35
20
39
48
24
29
45
40
36
20
41
49
25
29
46
42
36
20
43
49
26
30
46
42
36
20
44
49
27
30
48
44
38
21
44
50
27
31
48
45
39
22
44
50
27
35
48
46
41
23
45
50
27
35
50
48
42
24
45
51
28
37
51
50
42
24
48
53
33
37
52
50
43
24
48
53
34
38
54
51
47
24
48
54
34
38
55
51
49
26
49
55
35
40
55
51
49
31
49
57
35
40
57
51
49
31
50
59
35
40
57
52
50
32
51
59
36
40
57
52
50
32
51
59
37
40
57
52
50
32
53
61
37
41
58
52
50
32
54
61
37
43
58
52
50
32
54
64
37
43
58
52
51
32
55
65
39
43
58
54
52
34
58
65
39
44
58
54
53
34
58
66
40
44
58
56
53
34
59
67
40
44
60
56
54
35
59
67
40
44
61
57
54
36
60
67
40
45
61
58
55
36
60
68
40
45
61
58
55
36
62
69
40
45
63
58
55
37
64
69
40
45
63
58
55
37
64
70
41
45
63
58
56
37
65
70
41
45
63
58
57
37
65
70
41
45
63
58
57
37
65
70
41
45
64
58
57
38
65
69
42
45
64
58
57
38
66
69
42
45
64
58
57
39
68
70
43
46
64
58
57
39
68
71
44
46
64
58
56
39
69
72
47
46
64
56
56
39
69
72
46
46
64
57
56
39
69
73
45
46
64
57
55
38
69
74
45
46
62
58
54
38
69
75
45
46
60
56
54
38
68
74
46
46
59
55
52
38
68
73
46
46
56
55
52
39
67
73
46
47
54
55
52
38
67
73
46
47
54
55
52
38
66
73
45
46
51
53
53
38
65
75
45
46
50
52
53
38
65
76
43
43
50
50
53
38
65
76
44
43
50
50
52
38
65
74
45
42
50
51
53
38
64
72
45
41
50
51
52
38
63
72
44
41
50
49
52
37
62
74
44
40
50
49
53
37
62
76
43
40
47
48
53
37
63
75
43
40
47
47
52
37
64
76
43
37
48
48
50
36
65
76
43
36
46
46
51
37
67
75
43
34
45
44
51
36
65
74
39
34
44
44
51
36
65
75
38
34
44
44
48
37
66
74
38
34
43
44
46
36
66
75
37
32
42
45
46
32
66
74
37
32
40
44
46
32
65
73
37
32
40
44
47
32
64
73
37
32
40
45
47
32
64
73
36
32
40
45
47
32
63
71
36
32
40
45
49
32
62
71
36
28
40
46
50
32
62
70
36
28
40
46
49
33
61
69
34
28
39
44
48
31
59
69
34
26
39
44
47
30
60
69
34
26
39
42
47
33
61
69
34
26
37
42
47
33
62
69
35
26
36
40
47
32
62
70
36
26
36
40
48
32
64
70
36
26
36
40
48
31
64
70
37
26
33
40
48
31
63
69
37
26
32
40
48
31
64
69
37
26
32
40
47
31
63
69
37
26
33
40
47
31
63
68
38
27
34
40
47
30
63
69
38
27
34
40
47
30
63
70
37
26
33
40
48
30
62
71
37
26
33
40
48
29
59
69
37
26
33
40
48
29
59
68
35
27
33
40
48
29
59
67
32
26
34
40
48
29
60
66
32
26
34
39
46
29
59
66
32
26
35
37
46
29
61
66
31
27
35
36
46
29
61
65
31
27
36
36
46
29
62
64
30
27
36
36
46
29
63
65
31
27
36
36
45
27
63
64
30
24
35
36
45
27
62
64
30
23
34
35
45
27
62
64
30
22
34
35
45
27
61
62
31
23
34
36
45
25
61
60
31
23
34
35
45
25
62
59
30
23
33
35
45
25
61
59
28
21
33
34
43
26
62
59
28
21
33
34
44
26
63
59
28
21
33
34
44
27
65
56
29
21
33
34
43
28
66
56
29
21
33
34
42
28
66
57
29
21
33
33
42
28
65
56
29
21
32
32
42
28
64
56
30
21
33
33
40
27
62
58
30
20
36
35
41
27
62
60
30
20
37
37
40
27
62
59
30
20
35
36
40
26
61
59
30
20
35
37
40
26
63
58
30
20
35
36
40
26
63
58
30
19
35
37
39
26
64
59
30
19
36
38
38
25
65
58
29
19
36
37
38
25
65
58
29
19
35
36
38
27
66
59
31
19
35
36
37
27
66
59
30
19
35
35
34
27
67
58
31
19
35
35
36
26
67
59
31
19
35
35
36
26
67
60
30
19
35
36
36
26
66
60
30
19
35
37
38
23
64
61
30
19
35
38
37
23
63
60
30
19
35
38
37
23
62
59
28
19
36
38
36
22
60
59
27
19
36
39
35
22
59
58
27
19
36
39
35
23
59
58
26
19
37
42
35
22
60
58
26
20
37
43
35
22
59
59
26
20
36
43
34
22
60
59
25
19
34
43
34
22
60
57
25
18
34
42
33
23
60
56
25
18
34
42
33
23
60
54
24
18
34
42
32
24
62
54
24
18
34
42
33
24
62
55
24
17
34
43
33
24
62
55
24
17
34
44
34
25
61
55
24
18
34
45
33
25
61
55
24
17
33
46
32
26
61
56
25
15
32
46
32
26
62
57
25
15
31
46
32
26
61
57
25
15
31
45
32
26
60
59
27
15
31
45
32
26
59
59
28
15
31
45
32
26
60
59
28
15
31
45
32
26
60
59
28
16
31
45
31
26
60
59
27
15
32
47
31
26
59
59
27
16
32
48
31
27
60
59
27
16
32
48
31
27
60
60
27
16
32
48
31
27
60
60
27
16
32
48
30
27
60
59
28
16
32
48
30
25
57
59
27
16
32
48
30
24
56
59
27
16
32
50
31
24
55
60
28
16
32
50
31
24
55
60
28
16
33
49
31
24
56
61
28
17
32
49
33
24
57
59
28
17
29
47
34
25
57
58
28
17
26
46
34
26
57
58
28
18
26
46
33
26
57
60
28
19
26
45
33
27
56
60
29
19
27
45
33
27
59
59
29
19
27
45
33
27
59
59
29
19
26
45
33
26
58
60
29
19
26
46
33
26
58
60
29
19
26
46
33
25
56
60
28
18
26
47
33
25
56
61
28
18
26
47
33
25
55
62
28
18
25
47
33
25
56
61
28
18
26
47
32
25
59
60
28
18
27
47
32
25
59
59
28
18
27
46
30
26
59
59
28
18
27
45
30
26
59
60
28
18
28
46
31
26
60
61
28
18
26
47
31
26
60
61
28
18
26
46
31
26
60
61
27
18
26
47
31
27
62
63
27
18
26
46
31
27
61
63
27
18
28
47
31
27
63
61
27
18
30
49
30
27
63
61
27
18
30
49
30
27
64
64
29
18
31
49
30
27
64
65
29
18
31
49
30
27
65
65
29
18
31
50
31
25
63
65
29
18
31
51
31
25
63
66
29
18
32
51
30
25
63
65
28
18
31
51
29
25
62
65
28
18
30
50
29
25
62
64
28
18
31
50
29
23
61
63
28
18
31
49
29
23
60
64
29
18
32
49
30
23
61
66
29
18
31
49
30
23
60
64
27
19
33
52
31
23
61
64
26
19
33
53
31
23
60
64
26
18
33
52
31
23
61
65
26
18
33
52
31
23
61
65
27
18
32
50
32
23
63
65
26
18
32
50
33
22
63
65
26
18
32
50
33
22
62
65
26
18
32
50
33
23
62
64
26
18
32
50
33
23
62
64
26
18
33
50
33
23
62
64
26
18
32
50
34
23
62
63
26
18
32
49
33
22
62
64
27
18
32
48
33
22
63
65
27
18
32
48
33
22
62
65
27
18
32
48
31
23
63
67
29
18
33
49
31
22
64
67
29
17
33
49
31
21
65
67
29
17
33
49
31
20
65
65
29
16
33
48
31
20
63
65
28
15
32
48
31
20
60
65
28
15
33
48
31
20
60
66
27
15
33
48
31
21
62
67
27
15
33
47
31
21
63
67
28
15
33
47
31
21
63
69
27
15
33
46
32
21
63
68
27
15
33
46
31
21
63
67
28
15
33
46
30
20
62
67
28
15
32
46
30
20
60
67
28
15
32
46
30
20
60
67
27
15
33
46
30
20
60
66
27
15
33
46
30
19
60
65
27
15
32
45
29
19
59
65
27
15
32
44
29
19
61
65
29
15
34
45
29
19
61
66
29
15
34
44
29
19
61
66
31
15
34
43
29
19
61
66
31
15
32
41
29
19
60
66
32
16
30
37
29
19
58
66
32
16
30
37
30
18
57
64
31
16
29
37
30
18
59
62
31
15
30
37
30
19
58
61
30
15
30
36
31
19
59
61
30
16
30
35
30
19
59
61
30
16
29
35
31
20
60
61
30
16
32
35
31
20
62
61
30
16
33
37
31
20
64
61
30
16
33
39
31
20
65
61
30
16
32
39
31
20
65
59
29
16
32
39
30
21
66
57
30
16
33
39
30
21
67
56
31
16
31
36
30
21
66
56
31
16
31
35
30
21
68
56
31
16
31
35
30
21
67
55
31
15
31
35
29
20
67
56
31
15
31
36
28
20
66
58
31
15
31
36
28
20
65
59
31
15
32
37
28
21
65
59
31
15
31
37
28
20
66
59
31
15
31
37
28
20
67
59
31
16
31
37
28
20
69
59
31
16
31
37
27
21
69
58
31
16
32
37
27
21
67
56
29
15
32
37
27
21
67
55
29
15
32
37
27
21
67
54
28
15
31
37
27
21
66
52
26
15
31
36
25
20
64
51
26
15
31
36
26
20
64
51
27
16
32
39
25
20
64
51
27
16
32
39
25
20
65
51
27
16
32
39
26
20
65
51
27
16
32
39
26
21
66
49
27
16
32
39
25
21
64
46
27
15
32
38
25
21
64
46
27
15
32
39
25
22
64
46
28
15
32
40
24
23
65
46
28
15
32
40
24
23
65
46
27
16
32
39
24
23
65
47
27
15
32
39
24
23
65
46
27
15
32
40
24
22
65
46
27
16
32
41
24
22
65
46
27
16
31
41
24
22
65
46
27
16
31
42
24
22
65
46
27
16
31
42
24
22
65
46
26
16
29
41
24
23
65
44
26
16
30
41
24
23
63
43
25
16
30
41
24
23
62
42
24
16
30
41
24
23
62
44
24
15
30
42
23
23
62
43
25
15
30
43
23
22
62
43
25
15
30
43
22
22
61
43
25
15
29
43
22
22
61
43
25
14
29
43
21
22
60
44
25
13
29
43
21
22
60
44
25
13
29
43
21
21
59
43
26
13
25
41
20
21
57
45
25
13
24
39
19
21
54
44
25
13
24
37
19
21
53
44
26
12
23
37
19
20
53
43
25
12
23
37
19
19
50
43
24
12
23
36
18
19
49
43
23
11
23
36
18
19
49
43
23
11
23
36
17
19
46
43
23
12
23
36
17
19
45
42
23
12
23
36
17
19
45
41
22
12
23
35
17
19
45
37
21
12
23
35
16
19
45
36
21
11
23
33
15
18
45
36
21
10
22
33
14
18
44
36
21
10
22
33
14
17
42
36
22
10
22
33
13
17
40
36
22
10
22
32
13
17
39
36
22
9
22
32
13
17
39
35
22
9
22
32
13
16
38
35
22
9
21
32
12
16
37
34
22
9
21
32
12
16
37
34
22
9
21
32
12
16
37
33
22
9
21
32
11
16
37
33
21
8
19
28
11
16
36
33
20
8
18
28
11
16
35
32
20
8
17
28
10
16
35
32
20
8
17
27
10
14
32
31
20
8
17
27
10
14
32
31
20
8
17
27
9
13
31
31
20
8
16
26
9
12
31
27
18
8
16
24
9
10
29
27
19
8
16
24
9
10
28
27
18
8
16
24
8
9
27
26
18
8
16
24
8
9
26
25
18
8
16
22
8
9
26
25
18
7
15
21
8
9
25
25
18
7
15
20
7
9
25
24
18
7
15
18
7
9
23
24
18
7
15
18
5
9
17
24
18
7
14
17
5
6
16
22
16
7
12
17
5
5
16
22
16
7
12
17
5
5
16
22
16
7
12
17
4
5
14
19
15
7
11
14
4
5
14
18
13
6
10
11
4
5
14
18
13
6
10
10
4
5
14
18
13
6
10
9
3
5
10
18
13
6
10
9
3
5
10
16
13
6
10
8
3
4
10
16
11
6
10
7
3
4
8
16
11
6
10
7
3
4
8
10
11
6
10
6
3
4
8
9
11
6
9
6
3
4
8
9
11
6
9
6
3
4
8
9
11
6
9
6
2
4
7
10
11
6
9
6
2
4
7
10
11
6
9
6
2
4
7
10
11
6
9
6
2
4
7
9
11
6
9
6
2
4
7
9
10
6
8
5
2
4
7
9
10
5
5
3
2
4
7
10
10
5
5
3
2
4
7
10
10
5
5
3
2
4
6
10
10
5
5
3
1
4
6
10
10
5
5
3
1
4
6
10
10
5
5
3
1
4
6
9
10
5
4
2
1
4
6
9
10
5
4
3
1
4
6
9
10
5
4
3
1
4
6
9
10
5
5
5
1
4
5
9
10
5
4
5
1
4
5
9
10
5
5
8
1
4
5
9
10
5
5
8
1
3
5
9
10
5
4
8
1
4
5
9
10
5
4
8
1
4
5
9
10
5
4
9
1
4
5
9
10
5
4
9
1
4
5
9
10
5
4
9
1
4
5
11
10
5
4
9
1
4
5
11
9
5
4
9
1
4
5
11
9
5
5
9
1
4
5
11
8
5
5
9
1
4
5
11
8
5
5
9
1
4
5
11
8
5
5
9
1
4
5
11
8
5
5
9
1
4
6
11
8
5
5
9
1
4
6
11
8
5
5
10
1
4
6
11
8
5
5
10
1
4
6
11
8
5
5
10
1
4
6
11
8
5
5
11
1
4
6
11
8
5
5
11
1
4
6
11
7
5
6
14
1
4
6
11
7
5
6
14
1
4
6
11
8
5
8
16
1
4
6
11
8
5
8
16
1
4
6
12
8
5
8
16
1
4
6
12
8
5
8
16
1
4
6
12
8
5
9
17
1
4
5
12
7
5
8
17
1
4
6
12
7
5
8
17
1
4
6
12
7
5
9
17
1
5
5
13
7
5
9
17
1
5
5
15
7
5
9
17
1
5
5
15
7
5
9
17
1
5
5
15
7
5
9
17
1
5
5
15
7
5
9
17
1
5
5
15
6
5
9
17
1
5
5
15
6
5
9
17
1
5
5
15
6
5
9
17
1
5
5
15
6
5
9
17
1
4
5
15
7
6
9
17
1
4
5
15
6
6
9
17
1
4
5
15
7
6
10
20
1
4
5
15
7
6
10
20
1
4
5
15
7
6
10
20
2
4
5
15
7
6
10
20
2
4
5
15
6
6
10
20
2
4
5
15
6
6
10
20
2
4
5
15
6
6
10
20
2
4
5
15
6
6
10
20
2
4
6
15
6
6
10
20
2
4
5
15
6
6
9
19
2
4
5
16
6
6
9
19
2
4
5
15
6
6
9
19
2
4
5
15
6
6
9
19
2
4
5
15
6
6
9
19
2
4
5
15
6
6
9
19
1
4
5
15
5
5
9
19
1
3
5
14
5
5
9
19
1
3
5
14
5
5
9
19
1
3
5
14
5
5
9
19
1
4
5
14
5
5
9
19
1
4
5
14
5
5
9
19
1
4
5
14
5
5
9
19
1
4
5
14
5
5
9
19
1
4
4
13
5
5
9
19
1
4
4
13
5
5
9
18
1
4
4
13
5
5
9
18
1
3
4
13
5
5
9
18
1
3
4
13
5
5
9
18
1
4
4
13
5
5
9
18
1
3
4
13
5
5
8
15
1
3
4
13
5
5
8
15
1
3
4
13
4
5
6
13
1
3
4
13
4
5
6
13
1
3
5
13
4
5
6
13
1
3
5
13
4
5
6
13
1
3
5
13
4
5
6
12
1
3
5
13
4
5
6
12
1
3
5
13
4
5
6
12
1
3
5
13
4
4
5
12
1
3
5
12
4
4
5
12
1
3
5
10
4
4
5
12
1
3
5
10
4
4
5
12
1
2
5
10
4
4
5
12
2
2
5
11
4
4
5
12
1
2
5
11
4
4
5
12
1
2
7
11
4
4
5
12
1
2
7
11
4
4
5
12
1
2
7
11
4
4
5
12
1
2
7
13
4
3
5
12
1
2
7
12
4
3
6
11
1
2
7
12
4
3
5
5
1
2
7
12
3
3
5
5
1
2
7
12
3
3
5
5
1
2
7
12
3
3
5
5
1
2
7
13
3
3
5
4
1
3
7
14
3
3
5
4
1
3
7
14
3
3
5
4
1
3
7
13
3
3
5
4
1
2
7
13
3
3
5
4
1
3
7
14
3
3
5
4
1
3
7
13
3
3
5
4
1
2
7
13
3
3
5
3
1
2
7
13
3
3
5
3
1
2
7
13
3
3
5
3
1
2
7
13
3
3
5
3
1
2
7
13
3
3
5
2
1
2
7
13
3
3
5
2
1
2
7
13
3
3
5
2
1
2
7
13
3
3
5
2
2
2
7
14
3
3
5
2
2
2
7
14
3
3
5
2
2
2
7
14
3
3
5
2
2
2
7
14
3
3
6
2
2
2
7
14
3
3
6
2
2
2
7
14
3
3
6
2
2
2
7
14
3
3
6
2
2
2
7
14
4
3
6
2
2
2
7
18
4
3
6
2
2
2
7
18
4
3
7
2
2
2
7
18
4
3
8
2
2
2
7
18
4
3
8
3
3
2
7
18
4
3
9
4
3
2
7
20
4
4
9
4
3
3
7
22
5
4
9
4
3
3
7
22
5
4
10
4
3
3
7
23
5
4
10
5
4
3
7
23
5
4
10
5
4
3
8
24
5
4
10
5
5
4
8
24
5
4
10
5
6
4
9
26
5
4
10
5
6
4
9
29
6
4
11
5
7
4
12
30
7
4
11
5
7
4
12
31
7
4
11
6
7
4
13
30
7
5
11
8
8
5
13
32
7
5
11
10
8
7
13
32
7
5
11
16
9
7
20
34
8
5
11
22
12
7
20
34
10
6
11
23
13
7
26
34
10
6
12
23
17
7
29
37
13
6
12
24
21
7
29
39
13
8
14
24
22
8
31
39
13
8
18
24
28
8
32
39
13
10
19
25
28
10
33
40
14
10
20
26
29
10
33
43
15
10
23
26
30
12
34
45
16
10
25
27
35
12
34
45
17
12
25
28
35
12
34
45
17
12
28
31
35
13
36
45
17
12
28
34
39
13
38
46
17
13
28
34
39
15
38
46
19
14
30
36
40
17
39
46
20
17
35
38
41
19
41
46
20
17
35
38
41
21
42
47
23
21
35
38
41
22
44
47
26
21
36
38
41
22
45
47
32
23
36
38
41
25
45
49
33
24
36
42
44
26
45
50
34
30
40
46
47
26
46
51
34
30
41
46
47
26
46
51
36
30
41
46
47
26
46
52
36
30
42
46
47
27
47
52
36
31
42
46
48
27
47
52
40
31
42
47
50
27
48
54
43
33
42
47
50
28
49
56
43
33
43
47
50
28
49
56
45
34
43
47
50
28
51
58
45
34
43
47
51
28
54
58
45
34
43
48
51
29
57
60
45
35
44
49
51
29
60
61
45
35
47
50
51
33
62
61
46
35
47
50
53
38
64
63
46
35
47
50
53
39
67
65
49
38
47
50
53
40
68
65
51
38
47
50
53
40
68
65
51
38
47
50
54
40
68
66
51
38
48
51
54
40
68
66
51
38
49
51
55
42
69
66
52
38
49
51
55
42
69
66
52
38
49
51
55
42
70
66
52
38
49
51
55
43
70
67
53
38
49
52
57
43
70
69
54
38
49
52
57
43
71
68
54
38
49
53
58
43
71
68
54
38
50
53
58
44
71
68
55
39
50
52
58
44
71
69
55
39
50
51
58
44
70
68
55
39
50
49
58
44
70
70
55
39
50
49
59
44
69
70
55
39
50
50
58
44
67
70
56
39
50
49
57
44
67
71
56
39
50
49
57
44
67
73
56
39
49
49
55
44
68
73
56
38
49
49
56
44
69
73
56
39
49
49
56
45
71
72
56
39
47
51
57
44
71
71
56
39
47
50
55
44
71
71
56
38
48
50
54
45
72
71
57
39
47
48
54
44
73
71
56
39
46
47
51
44
72
71
56
39
47
47
53
44
72
72
56
39
46
46
52
44
72
72
56
38
43
45
52
43
72
72
56
37
43
46
52
42
72
73
55
36
43
47
52
42
73
74
53
36
43
47
52
42
74
74
51
34
43
47
52
41
75
75
51
34
42
44
49
41
74
75
51
29
38
42
47
41
74
75
51
29
38
43
47
41
74
76
49
29
38
43
47
41
76
76
49
29
37
44
48
40
76
76
49
28
38
45
49
40
76
76
47
28
40
44
47
41
77
75
44
26
40
45
47
41
78
73
43
26
40
45
47
41
78
73
43
25
40
45
47
41
78
73
42
25
39
45
47
41
76
72
42
25
40
47
48
41
76
71
43
24
39
46
48
41
74
70
43
24
37
44
48
38
72
71
41
24
37
44
46
34
70
69
41
25
36
45
46
32
69
67
38
21
36
45
46
31
68
67
36
21
36
44
46
31
68
67
35
22
36
44
46
31
68
68
35
21
36
44
46
31
68
68
35
21
34
45
45
29
68
68
35
21
34
45
46
29
67
69
35
21
34
45
46
29
67
71
36
21
34
44
46
28
67
69
33
21
34
44
43
29
67
67
33
21
35
47
43
29
66
67
32
21
36
48
42
29
66
68
32
22
35
48
42
30
66
70
32
22
35
48
45
30
66
70
32
22
35
48
45
30
68
70
33
22
35
48
45
30
68
68
31
22
35
48
43
31
68
68
31
22
35
47
43
31
68
66
29
22
35
47
43
30
68
65
28
22
35
47
43
30
68
65
28
21
34
48
43
30
66
66
29
22
34
48
42
29
65
68
29
22
34
48
41
29
63
67
30
22
35
47
39
29
63
66
29
22
35
48
39
29
63
67
30
22
34
48
39
28
62
69
30
21
33
48
39
29
60
70
31
21
33
48
39
30
62
73
32
22
34
47
38
30
62
71
32
22
33
47
38
29
61
72
32
22
33
47
38
29
61
72
31
22
34
45
38
30
61
72
31
23
34
45
38
29
59
73
32
23
34
45
38
28
58
73
32
23
34
44
38
28
57
73
32
23
35
45
40
29
58
74
33
24
35
43
40
29
60
74
33
24
35
42
40
30
60
73
34
24
35
42
40
29
58
73
33
24
35
41
39
29
58
72
32
24
34
44
37
29
58
73
32
24
32
45
38
28
56
73
33
24
33
45
37
29
54
75
33
24
33
44
38
29
54
75
33
24
33
44
38
28
54
74
32
24
33
44
38
28
54
75
32
24
33
43
37
28
52
76
32
24
35
45
38
28
52
76
32
24
35
46
38
28
53
75
32
24
35
46
38
27
54
75
32
24
35
46
37
27
53
76
32
23
35
46
37
27
52
75
33
24
36
46
37
27
53
75
34
23
36
46
36
27
53
73
35
23
35
46
36
27
53
73
35
23
36
46
37
28
56
73
35
24
36
47
37
27
56
72
36
24
37
48
38
27
55
72
35
24
37
48
38
28
56
73
35
24
37
48
38
27
56
73
35
24
35
45
38
27
57
74
36
24
35
44
38
28
58
74
36
23
35
45
38
25
58
74
35
22
34
45
35
26
58
74
35
22
34
45
35
25
55
74
34
23
34
46
35
25
55
74
34
23
35
46
36
25
55
74
35
23
35
46
37
25
56
75
35
23
35
46
35
25
55
76
35
22
35
46
35
25
58
74
35
23
35
46
36
26
59
72
35
22
35
46
35
26
59
71
35
22
34
45
35
26
59
71
36
22
34
43
35
26
59
72
36
22
32
44
36
26
59
71
35
22
32
45
36
26
59
70
35
22
32
45
36
26
59
69
35
22
32
45
36
24
57
66
34
20
32
44
35
24
58
66
34
20
32
44
35
24
58
64
34
20
32
45
35
25
59
64
34
20
31
45
35
27
58
64
34
20
31
45
35
27
58
62
33
19
31
45
35
27
59
61
32
19
32
45
35
27
60
58
31
19
31
44
33
28
61
57
30
18
32
46
32
28
59
57
30
18
33
46
34
29
61
58
30
18
33
46
36
29
63
58
30
18
33
46
36
28
63
58
30
18
32
42
35
29
63
60
31
18
31
40
35
29
63
60
31
18
31
40
35
28
63
58
31
18
31
43
35
29
63
58
31
18
31
43
35
28
62
59
31
17
31
44
35
29
62
61
31
18
30
43
35
29
61
61
32
17
27
41
34
29
61
61
32
17
27
40
34
29
60
61
32
17
27
40
34
29
60
62
32
17
28
39
34
29
61
63
32
17
27
39
34
28
61
63
32
17
26
39
34
28
61
64
32
17
27
40
34
28
61
63
31
17
27
42
36
28
62
64
31
17
26
42
36
28
61
64
31
17
26
41
36
28
60
63
30
16
25
41
35
28
60
61
30
17
25
40
35
28
59
62
30
17
25
40
35
27
60
62
31
17
26
40
35
27
58
61
30
17
26
39
35
27
60
60
30
17
26
38
35
27
62
60
30
17
26
39
35
27
63
60
30
17
27
38
35
26
62
60
30
17
27
37
35
26
62
61
30
17
26
36
35
26
62
61
29
17
26
37
34
26
63
60
28
17
26
37
35
26
64
58
28
17
25
37
35
26
61
58
28
16
25
37
36
26
60
58
28
17
25
37
37
26
60
58
29
17
25
38
36
26
60
58
27
17
25
38
36
26
61
58
27
16
25
37
35
26
61
59
27
16
25
36
35
26
61
59
27
16
25
36
35
26
61
59
27
16
26
39
36
26
63
59
27
17
26
41
37
26
64
60
27
17
26
41
37
26
64
60
27
17
26
41
38
25
63
60
27
17
26
42
40
22
63
60
27
17
26
42
40
22
62
63
28
17
26
42
40
22
62
63
28
18
25
42
41
22
61
64
30
18
25
42
41
20
59
64
30
17
23
40
40
20
59
63
30
17
24
40
39
18
57
62
30
17
24
40
38
18
57
62
29
17
24
40
38
18
57
62
29
17
23
40
37
18
56
61
29
17
23
40
37
18
57
60
29
17
24
40
37
18
57
62
28
17
24
37
37
17
59
62
29
17
24
37
36
17
58
61
29
18
24
36
36
17
58
58
29
18
24
36
37
17
58
58
28
18
24
37
37
17
59
58
28
18
24
37
37
17
60
57
28
18
24
38
37
17
60
56
28
17
24
38
37
17
60
54
28
17
25
39
37
17
60
54
27
17
26
39
37
18
60
57
26
17
26
39
37
18
60
57
27
18
26
38
35
17
59
57
27
18
26
38
35
18
58
57
27
18
26
38
34
18
58
57
27
18
26
37
35
17
58
58
26
18
26
37
35
17
58
56
27
18
26
37
35
17
58
56
26
18
25
37
34
17
58
55
26
17
26
37
34
17
56
55
26
18
26
37
34
16
53
54
26
18
26
37
34
16
52
53
26
18
26
38
33
16
52
53
27
18
26
39
33
16
53
52
27
18
26
39
33
16
54
51
27
18
26
39
33
16
53
51
27
17
27
39
32
16
53
51
27
17
28
39
32
16
53
51
27
17
28
39
30
15
53
51
26
17
28
40
29
15
53
52
26
17
29
41
29
16
53
53
26
17
29
41
29
16
52
52
25
17
29
41
30
16
52
53
25
17
29
42
29
16
52
53
25
17
29
41
29
16
51
53
25
17
29
38
28
16
50
53
25
16
29
36
26
15
46
52
25
16
29
36
26
15
46
52
24
16
29
35
25
15
46
52
24
16
28
35
22
15
46
51
24
16
28
35
22
14
46
48
23
15
28
35
22
14
45
49
23
14
28
35
22
14
44
47
20
14
28
35
21
14
44
47
20
14
28
35
21
14
44
47
20
14
26
35
21
14
44
47
20
14
27
35
21
14
42
46
20
14
27
35
21
14
43
46
20
14
27
36
21
14
42
45
20
14
27
37
20
13
41
45
20
14
27
37
20
13
41
42
20
14
27
37
20
13
40
42
19
13
26
37
20
13
40
41
18
13
26
37
20
12
40
41
18
13
26
37
18
12
40
41
19
12
26
36
18
12
38
41
18
12
26
36
18
12
36
41
18
12
26
36
18
12
36
41
18
12
26
36
18
12
34
40
17
12
25
35
18
11
34
40
17
12
23
35
18
11
33
36
17
12
23
34
17
11
32
35
16
11
23
33
16
11
32
35
16
10
23
33
16
11
31
34
15
10
22
33
15
11
31
34
14
10
22
33
14
12
30
33
14
10
22
33
13
12
30
31
14
10
22
33
13
12
30
31
14
9
21
33
13
12
29
31
14
9
20
32
13
12
29
30
14
9
20
32
12
12
29
30
14
9
20
31
12
12
29
30
14
8
20
30
12
12
28
30
13
8
20
29
12
12
27
29
13
8
20
29
12
12
25
29
13
8
20
29
11
11
25
28
13
8
19
29
11
11
23
28
13
8
17
28
11
11
21
28
13
8
17
28
11
11
21
27
13
8
17
26
10
11
21
26
12
8
16
22
10
11
21
24
12
8
16
22
9
10
20
24
12
8
16
21
8
10
20
19
12
8
16
21
8
10
20
17
11
8
15
21
8
9
20
17
11
7
13
20
8
9
20
17
11
7
13
20
7
9
20
17
11
7
13
20
7
9
19
15
11
7
12
20
7
9
19
15
11
7
12
20
7
9
18
15
11
7
12
20
6
10
18
15
11
7
12
20
6
10
18
14
10
7
12
20
5
10
18
14
10
7
12
20
5
9
17
13
10
7
12
20
5
9
15
13
11
7
12
20
4
9
15
13
11
6
11
20
4
9
15
12
10
5
11
20
4
9
13
13
9
5
10
18
4
9
12
13
10
5
10
14
4
9
12
12
9
5
10
14
4
9
9
12
9
5
9
14
4
9
8
13
9
5
10
13
3
9
8
13
9
5
8
12
2
9
8
14
10
5
8
12
2
9
7
14
9
5
8
12
2
9
7
14
9
4
8
11
2
9
7
13
9
4
8
9
2
9
7
13
9
4
8
8
2
9
7
13
9
4
8
8
2
8
7
13
9
4
8
8
2
8
7
13
9
4
8
8
2
8
7
13
10
4
7
8
2
8
6
13
10
4
7
8
2
8
6
13
10
4
7
7
2
8
6
12
10
4
7
6
2
6
6
12
9
4
7
6
2
5
6
12
10
4
7
6
2
5
5
12
9
4
7
5
2
5
5
13
9
4
7
4
2
5
5
14
9
4
7
4
2
5
5
14
8
4
7
4
2
5
5
14
8
4
7
4
1
5
5
13
8
4
7
3
1
5
5
14
8
4
7
3
1
5
5
15
8
4
7
3
1
4
5
15
8
4
7
3
1
5
5
14
8
4
7
2
1
5
5
14
8
4
7
2
1
5
5
14
8
4
7
2
1
5
5
15
8
4
6
2
1
5
5
15
8
4
6
2
1
5
5
15
8
4
5
3
1
5
5
15
8
4
5
4
1
5
5
15
7
4
5
4
1
5
5
15
7
4
5
4
1
4
5
15
7
4
5
4
1
5
5
15
8
4
5
4
1
5
5
15
8
4
5
4
1
5
5
15
7
4
5
4
1
5
5
14
7
4
5
4
1
4
5
15
7
4
5
4
1
4
5
15
7
4
5
4
1
4
5
15
7
4
5
4
1
4
5
15
7
4
5
4
1
4
5
15
7
4
5
4
1
4
5
15
7
4
5
4
1
4
5
16
7
4
5
4
1
4
5
16
7
4
5
4
1
3
5
16
7
4
5
4
1
3
5
16
7
4
5
4
1
3
5
16
7
4
5
4
1
3
5
15
7
4
5
4
1
3
5
15
7
4
4
4
1
3
5
15
7
4
4
4
1
3
5
15
7
4
4
4
1
3
5
15
7
4
4
4
1
3
4
15
7
4
4
4
1
3
4
15
7
4
4
4
1
3
4
14
7
4
4
4
1
3
4
14
7
4
4
4
1
3
4
14
7
4
4
4
1
3
4
14
7
4
4
5
1
3
4
14
7
4
4
5
1
3
4
14
7
4
4
5
1
3
4
14
7
4
4
5
1
3
4
14
7
4
4
5
1
3
4
14
7
4
4
5
1
3
4
14
7
4
4
5
1
3
4
13
7
4
4
5
1
3
4
11
7
4
4
5
1
3
4
11
7
4
4
5
1
3
4
11
7
4
4
5
1
3
4
11
7
4
4
5
1
3
4
10
7
4
4
5
1
3
4
10
7
4
4
5
1
3
4
10
7
4
4
5
1
3
4
10
7
4
4
5
1
3
4
10
6
5
4
5
1
3
4
10
7
5
4
5
1
3
4
10
7
5
4
5
1
3
3
10
7
5
4
5
1
3
3
9
7
5
4
5
1
3
3
9
7
5
4
4
1
3
3
9
7
5
4
4
1
3
3
10
7
5
4
4
1
3
3
10
7
5
4
4
1
2
3
11
7
5
3
4
1
2
3
11
7
5
4
4
1
2
3
11
6
5
4
4
1
2
3
11
6
5
4
4
1
2
3
11
6
5
4
4
1
2
3
10
6
5
4
4
1
2
3
11
6
5
4
4
1
2
3
10
6
5
4
4
1
2
3
10
6
5
4
4
1
2
3
10
6
5
4
4
1
2
3
9
7
5
4
4
1
2
3
8
7
5
4
4
1
2
3
9
6
5
4
4
1
2
3
9
6
5
4
5
1
2
3
10
6
6
4
5
1
2
3
10
6
6
4
5
1
2
3
10
6
6
4
6
1
2
3
10
6
6
4
6
1
2
3
10
6
6
4
6
1
2
3
9
6
6
4
6
1
2
3
9
6
6
5
6
1
2
3
10
6
7
5
7
1
2
3
11
7
7
5
8
1
2
3
11
7
7
5
8
1
2
3
11
7
7
6
8
1
2
3
11
7
7
6
7
1
2
3
11
7
7
5
8
1
2
3
11
7
7
5
8
1
2
3
11
7
7
6
8
1
2
3
11
7
7
6
8
1
2
3
11
7
7
6
8
1
2
3
11
6
6
6
8
1
2
3
11
6
6
6
8
1
2
3
11
6
6
6
8
1
2
3
11
6
7
6
8
1
2
3
11
6
7
6
8
1
2
3
11
6
7
6
8
1
2
3
11
6
7
6
8
1
2
3
11
6
7
6
8
1
2
3
11
6
7
6
8
1
2
3
11
6
7
6
8
1
2
3
11
7
7
6
8
1
2
3
11
6
7
6
8
1
2
3
11
7
7
6
8
1
2
3
11
7
7
6
11
1
2
3
11
7
7
7
14
1
2
3
11
7
7
7
14
2
2
3
11
7
7
7
14
2
2
3
11
7
7
7
14
2
2
3
10
7
7
7
14
2
2
3
10
6
7
7
14
2
2
3
10
6
7
7
14
2
2
3
10
7
7
7
14
2
2
3
10
7
7
7
14
2
1
3
10
7
7
7
15
2
1
3
10
7
7
7
15
2
2
3
10
7
6
7
15
2
1
3
10
7
6
7
15
2
2
3
10
7
6
7
15
2
2
3
10
7
6
7
15
2
2
3
10
6
6
7
15
2
2
3
11
6
6
7
15
2
2
3
11
6
6
6
15
2
1
3
10
6
6
6
14
2
1
3
10
6
6
6
15
2
1
3
9
6
6
6
15
2
1
3
9
6
6
6
14
2
1
3
9
6
6
6
14
2
1
3
9
6
6
6
14
2
1
3
9
6
6
6
14
2
2
3
9
5
5
6
14
2
2
3
9
5
5
6
14
2
1
3
8
5
5
5
13
1
1
3
8
5
5
6
13
1
1
3
8
5
5
5
13
1
1
3
9
5
5
5
13
1
1
3
9
5
5
5
13
1
1
3
8
5
5
5
13
1
1
3
9
5
5
5
13
1
1
3
9
5
5
5
13
1
1
3
8
5
5
5
13
1
1
3
9
5
5
5
13
1
1
3
9
5
6
5
13
1
1
3
9
5
5
5
13
1
1
3
9
5
5
5
14
1
1
3
8
5
5
5
13
1
1
3
8
5
5
5
13
1
1
3
8
5
5
5
14
1
1
3
8
5
5
5
14
1
1
3
8
5
5
5
14
2
1
3
8
5
5
5
13
1
1
3
8
5
5
5
13
1
1
3
8
5
5
5
14
1
1
3
8
5
5
5
14
1
1
3
8
5
5
5
11
1
1
3
8
5
5
4
8
1
1
3
9
5
5
4
8
1
1
3
9
5
6
4
8
2