-0.9630526338985353
0.07940922919592255
-0.6964742653883448
-0.9630526338985353
0.07940922919592255
-0.6964742653883448
-0.9633088815099944
0.07838394851201562
-0.6962560000870083
-0.9633088815099944
0.07838394851201562
-0.6962560000870083
-0.9633088815099944
0.07838394851201562
-0.6962560000870083
-0.9633088815099944
0.07838394851201562
-0.6962560000870083
-0.9636821745921185
0.07720365831274567
-0.6960064192625364
-0.9636821745921185
0.07720365831274567
-0.6960064192625364
-0.9636821745921185
0.07720365831274567
-0.6960064192625364
-0.9636821745921185
0.07720365831274567
-0.6960064192625364
-0.9642583419460028
0.07577485713579307
-0.6958109029129561
-0.9642583419460028
0.07577485713579307
-0.6958109029129561
-0.9642583419460028
0.07577485713579307
-0.6958109029129561
-0.9642583419460028
0.07577485713579307
-0.6958109029129561
-0.9650684539726345
0.07449358957253782
-0.6957474147383355
-0.9650684539726345
0.07449358957253782
-0.6957474147383355
-0.9650684539726345
0.07449358957253782
-0.6957474147383355
-0.9650684539726345
0.07449358957253782
-0.6957474147383355
-0.9659564596086412
0.07312734946632561
-0.6955113734631989
-0.9659564596086412
0.07312734946632561
-0.6955113734631989
-0.9659564596086412
0.07312734946632561
-0.6955113734631989
-0.9659564596086412
0.07312734946632561
-0.6955113734631989
-0.9671174336915641
0.07172286265753475
-0.6951803987035636
-0.9671174336915641
0.07172286265753475
-0.6951803987035636
-0.9671174336915641
0.07172286265753475
-0.6951803987035636
-0.9671174336915641
0.07172286265753475
-0.6951803987035636
-0.9682393979824433
0.07050436377387347
-0.6950743446281118
-0.9682393979824433
0.07050436377387347
-0.6950743446281118
-0.9682393979824433
0.07050436377387347
-0.6950743446281118
-0.9682393979824433
0.07050436377387347
-0.6950743446281118
-0.9691509059807158
0.06918488877880898
-0.694990328025224
-0.9691509059807158
0.06918488877880898
-0.694990328025224
-0.9691509059807158
0.06918488877880898
-0.694990328025224
-0.9691509059807158
0.06918488877880898
-0.694990328025224
-0.9697432621885067
0.06792655954414004
-0.6950540476883384
-0.9697432621885067
0.06792655954414004
-0.6950540476883384
-0.9697432621885067
0.06792655954414004
-0.6950540476883384
-0.9697432621885067
0.06792655954414004
-0.6950540476883384
-0.9704057259998311
0.06623382961641536
-0.69502146180901
-0.9704057259998311
0.06623382961641536
-0.69502146180901
-0.9704057259998311
0.06623382961641536
-0.69502146180901
-0.9704057259998311
0.06623382961641536
-0.69502146180901
-0.9710520142404641
0.06448641742977179
-0.6950887971962769
-0.9710520142404641
0.06448641742977179
-0.6950887971962769
-0.9710520142404641
0.06448641742977179
-0.6950887971962769
-0.9710520142404641
0.06448641742977179
-0.6950887971962769
-0.9720729581151801
0.06330663563492031
-0.6949925365733656
-0.9720729581151801
0.06330663563492031
-0.6949925365733656
-0.9720729581151801
0.06330663563492031
-0.6949925365733656
-0.9720729581151801
0.06330663563492031
-0.6949925365733656
-0.9731565340908918
0.06198769429593619
-0.6948238711590324
-0.9731565340908918
0.06198769429593619
-0.6948238711590324
-0.9731565340908918
0.06198769429593619
-0.6948238711590324
-0.9731565340908918
0.06198769429593619
-0.6948238711590324
-0.9745739605033059
0.060777454661340845
-0.6947692522863969
-0.9745739605033059
0.060777454661340845
-0.6947692522863969
-0.9745739605033059
0.060777454661340845
-0.6947692522863969
-0.9745739605033059
0.060777454661340845
-0.6947692522863969
-0.9752284890253826
0.05955173232662144
-0.6946712471219816
-0.9752284890253826
0.05955173232662144
-0.6946712471219816
-0.9752284890253826
0.05955173232662144
-0.6946712471219816
-0.9752284890253826
0.05955173232662144
-0.6946712471219816
-0.9755471225995401
0.05833123149412644
-0.6948239702749545
-0.9755471225995401
0.05833123149412644
-0.6948239702749545
-0.9755471225995401
0.05833123149412644
-0.6948239702749545
-0.9755471225995401
0.05833123149412644
-0.6948239702749545
-0.9759204669237123
0.05726627350323473
-0.6949302746486672
-0.9759204669237123
0.05726627350323473
-0.6949302746486672
-0.9759204669237123
0.05726627350323473
-0.6949302746486672
-0.9759204669237123
0.05726627350323473
-0.6949302746486672
-0.9762554138811365
0.05610045176477625
-0.6949812529403139
-0.9762554138811365
0.05610045176477625
-0.6949812529403139
-0.9762554138811365
0.05610045176477625
-0.6949812529403139
-0.9762554138811365
0.05610045176477625
-0.6949812529403139
-0.9771804242501049
0.055122298577379804
-0.6950669869150743
-0.9771804242501049
0.055122298577379804
-0.6950669869150743
-0.9771804242501049
0.055122298577379804
-0.6950669869150743
-0.9771804242501049
0.055122298577379804
-0.6950669869150743
-0.9781219891754184
0.05402661119256648
-0.6951350367134751
-0.9781219891754184
0.05402661119256648
-0.6951350367134751
-0.9781219891754184
0.05402661119256648
-0.6951350367134751
-0.9781219891754184
0.05402661119256648
-0.6951350367134751
-0.9783771891800673
0.05311709136926911
-0.6952728105289002
-0.9783771891800673
0.05311709136926911
-0.6952728105289002
-0.9783771891800673
0.05311709136926911
-0.6952728105289002
-0.9783771891800673
0.05311709136926911
-0.6952728105289002
-0.978406033178243
0.05269594929111119
-0.6954868734362409
-0.978406033178243
0.05269594929111119
-0.6954868734362409
-0.978406033178243
0.05269594929111119
-0.6954868734362409
-0.978406033178243
0.05269594929111119
-0.6954868734362409
-0.9785864305382612
0.05240131913164589
-0.6953813237951298
-0.9785864305382612
0.05240131913164589
-0.6953813237951298
-0.9785864305382612
0.05240131913164589
-0.6953813237951298
-0.9785864305382612
0.05240131913164589
-0.6953813237951298
-0.9788338852178112
0.05195881796022328
-0.6954605628747242
-0.9788338852178112
0.05195881796022328
-0.6954605628747242
-0.9788338852178112
0.05195881796022328
-0.6954605628747242
-0.9788338852178112
0.05195881796022328
-0.6954605628747242
-0.9782897634952862
0.051577263259432966
-0.6954552582503926
-0.9782897634952862
0.051577263259432966
-0.6954552582503926
-0.9782897634952862
0.051577263259432966
-0.6954552582503926
-0.9782897634952862
0.051577263259432966
-0.6954552582503926
-0.9782897634952862
0.051577263259432966
-0.6954552582503926
-0.9782897634952862
0.051577263259432966
-0.6954552582503926
-0.9782897634952862
0.051577263259432966
-0.6954552582503926
-0.9782897634952862
0.051577263259432966
-0.6954552582503926
-0.9782897634952862
0.051577263259432966
-0.6954552582503926
-0.9782897634952862
0.051577263259432966
-0.6954552582503926
-0.9782897634952862
0.051577263259432966
-0.6954552582503926
-0.9782897634952862
0.051577263259432966
-0.6954552582503926
-0.9785388519618216
0.051778634404522184
-0.6954854335821986
-0.9785388519618216
0.051778634404522184
-0.6954854335821986
-0.9785388519618216
0.051778634404522184
-0.6954854335821986
-0.9785388519618216
0.051778634404522184
-0.6954854335821986
-0.9791719257533806
0.0524256523532157
-0.6952431862736395
-0.9791719257533806
0.0524256523532157
-0.6952431862736395
-0.9791719257533806
0.0524256523532157
-0.6952431862736395
-0.9791719257533806
0.0524256523532157
-0.6952431862736395
-0.9794761578749753
0.05295527940272748
-0.6951436725566325
-0.9794761578749753
0.05295527940272748
-0.6951436725566325
-0.9794761578749753
0.05295527940272748
-0.6951436725566325
-0.9794761578749753
0.05295527940272748
-0.6951436725566325
-0.9793431571645057
0.05370001890695637
-0.6952294973479668
-0.9793431571645057
0.05370001890695637
-0.6952294973479668
-0.9793431571645057
0.05370001890695637
-0.6952294973479668
-0.9793431571645057
0.05370001890695637
-0.6952294973479668
-0.9791551734606251
0.05428911202666587
-0.6953610642522973
-0.9791551734606251
0.05428911202666587
-0.6953610642522973
-0.9791551734606251
0.05428911202666587
-0.6953610642522973
-0.9791551734606251
0.05428911202666587
-0.6953610642522973
-0.9791551734606251
0.05428911202666587
-0.6953610642522973
-0.9791551734606251
0.05428911202666587
-0.6953610642522973
-0.9791551734606251
0.05428911202666587
-0.6953610642522973
-0.9791551734606251
0.05428911202666587
-0.6953610642522973
-0.9791551734606251
0.05428911202666587
-0.6953610642522973
-0.9791551734606251
0.05428911202666587
-0.6953610642522973
-0.9791551734606251
0.05428911202666587
-0.6953610642522973
-0.9791551734606251
0.05428911202666587
-0.6953610642522973
-0.9800127320216421
0.054664119001089896
-0.6960337069085517
-0.9800127320216421
0.054664119001089896
-0.6960337069085517
-0.9800127320216421
0.054664119001089896
-0.6960337069085517
-0.9800127320216421
0.054664119001089896
-0.6960337069085517
-0.9804720081953427
0.05535458347241508
-0.6969467794344253
-0.9804720081953427
0.05535458347241508
-0.6969467794344253
-0.9804720081953427
0.05535458347241508
-0.6969467794344253
-0.9804720081953427
0.05535458347241508
-0.6969467794344253
-0.9797915851123346
0.05550690569587824
-0.6990556802687062
-0.9797915851123346
0.05550690569587824
-0.6990556802687062
-0.9797915851123346
0.05550690569587824
-0.6990556802687062
-0.9797915851123346
0.05550690569587824
-0.6990556802687062
-0.9799355528194044
0.05636050020688639
-0.7007438475540567
-0.9799355528194044
0.05636050020688639
-0.7007438475540567
-0.9799355528194044
0.05636050020688639
-0.7007438475540567
-0.9799355528194044
0.05636050020688639
-0.7007438475540567
-0.9805747555643816
0.05704003001249017
-0.701834914522161
-0.9805747555643816
0.05704003001249017
-0.701834914522161
-0.9805747555643816
0.05704003001249017
-0.701834914522161
-0.9805747555643816
0.05704003001249017
-0.701834914522161
-0.9795171735006222
0.058737009729518244
-0.7035247108918855
-0.9795171735006222
0.058737009729518244
-0.7035247108918855
-0.9795171735006222
0.058737009729518244
-0.7035247108918855
-0.9795171735006222
0.058737009729518244
-0.7035247108918855
-0.979537705673363
0.06150657665858569
-0.7047416004170245
-0.979537705673363
0.06150657665858569
-0.7047416004170245
-0.979537705673363
0.06150657665858569
-0.7047416004170245
-0.979537705673363
0.06150657665858569
-0.7047416004170245
-0.9823654511019353
0.06478241301173925
-0.7045273899367884
-0.9823654511019353
0.06478241301173925
-0.7045273899367884
-0.9823654511019353
0.06478241301173925
-0.7045273899367884
-0.9823654511019353
0.06478241301173925
-0.7045273899367884
-0.9869824344472463
0.06729778689728289
-0.7037397912053407
-0.9869824344472463
0.06729778689728289
-0.7037397912053407
-0.9869824344472463
0.06729778689728289
-0.7037397912053407
-0.9869824344472463
0.06729778689728289
-0.7037397912053407
-0.9842788052565952
0.06914391227309166
-0.7048592299123104
-0.9842788052565952
0.06914391227309166
-0.7048592299123104
-0.9842788052565952
0.06914391227309166
-0.7048592299123104
-0.9842788052565952
0.06914391227309166
-0.7048592299123104
-0.97933521319751
0.07112432699625848
-0.7055332639342826
-0.97933521319751
0.07112432699625848
-0.7055332639342826
-0.97933521319751
0.07112432699625848
-0.7055332639342826
-0.97933521319751
0.07112432699625848
-0.7055332639342826
-0.9769465044477321
0.07303792030997323
-0.7066023045625526
-0.9769465044477321
0.07303792030997323
-0.7066023045625526
-0.9769465044477321
0.07303792030997323
-0.7066023045625526
-0.9769465044477321
0.07303792030997323
-0.7066023045625526
-0.9804770371879461
0.07481767584895613
-0.7070405253838542
-0.9804770371879461
0.07481767584895613
-0.7070405253838542
-0.9804770371879461
0.07481767584895613
-0.7070405253838542
-0.9804770371879461
0.07481767584895613
-0.7070405253838542
-0.9808956327699577
0.0768810397991817
-0.707116912249687
-0.9808956327699577
0.0768810397991817
-0.707116912249687
-0.9808956327699577
0.0768810397991817
-0.707116912249687
-0.9808956327699577
0.0768810397991817
-0.707116912249687
-0.9805519256952763
0.0787987684320488
-0.7082101983155753
-0.9805519256952763
0.0787987684320488
-0.7082101983155753
-0.9805519256952763
0.0787987684320488
-0.7082101983155753
-0.9805519256952763
0.0787987684320488
-0.7082101983155753
-0.9801283662306537
0.08023199845767598
-0.7089089465971444
-0.9801283662306537
0.08023199845767598
-0.7089089465971444
-0.9801283662306537
0.08023199845767598
-0.7089089465971444
-0.9801283662306537
0.08023199845767598
-0.7089089465971444
-0.9802872684682401
0.08174452342475717
-0.7090256756400906
-0.9802872684682401
0.08174452342475717
-0.7090256756400906
-0.9802872684682401
0.08174452342475717
-0.7090256756400906
-0.9802872684682401
0.08174452342475717
-0.7090256756400906
-0.9824321048429457
0.08293216844868469
-0.7093055786882344
-0.9824321048429457
0.08293216844868469
-0.7093055786882344
-0.9824321048429457
0.08293216844868469
-0.7093055786882344
-0.9824321048429457
0.08293216844868469
-0.7093055786882344
-0.9810265834525125
0.08443703532382973
-0.7096332570021013
-0.9810265834525125
0.08443703532382973
-0.7096332570021013
-0.9810265834525125
0.08443703532382973
-0.7096332570021013
-0.9810265834525125
0.08443703532382973
-0.7096332570021013
-0.9805575012087426
0.08595250953259437
-0.7099347212744471
-0.9805575012087426
0.08595250953259437
-0.7099347212744471
-0.9805575012087426
0.08595250953259437
-0.7099347212744471
-0.9805575012087426
0.08595250953259437
-0.7099347212744471
-0.9808025146553293
0.0871985440760306
-0.710221665091594
-0.9808025146553293
0.0871985440760306
-0.710221665091594
-0.9808025146553293
0.0871985440760306
-0.710221665091594
-0.9808025146553293
0.0871985440760306
-0.710221665091594
-0.9806363752205723
0.08801538738303867
-0.710166023055545
-0.9806363752205723
0.08801538738303867
-0.710166023055545
-0.9806363752205723
0.08801538738303867
-0.710166023055545
-0.9806363752205723
0.08801538738303867
-0.710166023055545
-0.979881472877584
0.08893569183608407
-0.7103487281181342
-0.979881472877584
0.08893569183608407
-0.7103487281181342
-0.979881472877584
0.08893569183608407
-0.7103487281181342
-0.979881472877584
0.08893569183608407
-0.7103487281181342
-0.9790859525975124
0.0903358993913382
-0.7107843864566699
-0.9790859525975124
0.0903358993913382
-0.7107843864566699
-0.9790859525975124
0.0903358993913382
-0.7107843864566699
-0.9790859525975124
0.0903358993913382
-0.7107843864566699
-0.9803188426989132
0.09180488156746999
-0.7105525761207786
-0.9803188426989132
0.09180488156746999
-0.7105525761207786
-0.9803188426989132
0.09180488156746999
-0.7105525761207786
-0.9803188426989132
0.09180488156746999
-0.7105525761207786
-0.9817478095339097
0.09331879280892848
-0.7104031795783692
-0.9817478095339097
0.09331879280892848
-0.7104031795783692
-0.9817478095339097
0.09331879280892848
-0.7104031795783692
-0.9817478095339097
0.09331879280892848
-0.7104031795783692
-0.98144149559316
0.09460866559099565
-0.7098920639954973
-0.98144149559316
0.09460866559099565
-0.7098920639954973
-0.98144149559316
0.09460866559099565
-0.7098920639954973
-0.98144149559316
0.09460866559099565
-0.7098920639954973
-0.9800267794837838
0.09530734615294413
-0.7091657287563738
-0.9800267794837838
0.09530734615294413
-0.7091657287563738
-0.9800267794837838
0.09530734615294413
-0.7091657287563738
-0.9800267794837838
0.09530734615294413
-0.7091657287563738
-0.9785669467637712
0.09602982093151527
-0.7084936177272689
-0.9785669467637712
0.09602982093151527
-0.7084936177272689
-0.9785669467637712
0.09602982093151527
-0.7084936177272689
-0.9785669467637712
0.09602982093151527
-0.7084936177272689
-0.9779568952473989
0.09666705863753347
-0.7079620378375061
-0.9779568952473989
0.09666705863753347
-0.7079620378375061
-0.9779568952473989
0.09666705863753347
-0.7079620378375061
-0.9779568952473989
0.09666705863753347
-0.7079620378375061
-0.9782025021358793
0.09733367553364557
-0.7079396293529436
-0.9782025021358793
0.09733367553364557
-0.7079396293529436
-0.9782025021358793
0.09733367553364557
-0.7079396293529436
-0.9782025021358793
0.09733367553364557
-0.7079396293529436
-0.9775129834764441
0.09822753011245239
-0.7084145585141659
-0.9775129834764441
0.09822753011245239
-0.7084145585141659
-0.9775129834764441
0.09822753011245239
-0.7084145585141659
-0.9775129834764441
0.09822753011245239
-0.7084145585141659
-0.9776121979773428
0.0992999754705315
-0.7082925711332554
-0.9776121979773428
0.0992999754705315
-0.7082925711332554
-0.9776121979773428
0.0992999754705315
-0.7082925711332554
-0.9776121979773428
0.0992999754705315
-0.7082925711332554
-0.977131282362176
0.100587954993756
-0.7078525695156507
-0.977131282362176
0.100587954993756
-0.7078525695156507
-0.977131282362176
0.100587954993756
-0.7078525695156507
-0.977131282362176
0.100587954993756
-0.7078525695156507
-0.9769836944883382
0.10116406568009653
-0.7076677792246023
-0.9769836944883382
0.10116406568009653
-0.7076677792246023
-0.9769836944883382
0.10116406568009653
-0.7076677792246023
-0.9769836944883382
0.10116406568009653
-0.7076677792246023
-0.9780870770823835
0.10111017240610493
-0.7079328969118802
-0.9780870770823835
0.10111017240610493
-0.7079328969118802
-0.9780870770823835
0.10111017240610493
-0.7079328969118802
-0.9780870770823835
0.10111017240610493
-0.7079328969118802
-0.9772984299816905
0.10110194855694021
-0.7084436592241254
-0.9772984299816905
0.10110194855694021
-0.7084436592241254
-0.9772984299816905
0.10110194855694021
-0.7084436592241254
-0.9772984299816905
0.10110194855694021
-0.7084436592241254
-0.976655476893099
0.1010503904626933
-0.708723081386908
-0.976655476893099
0.1010503904626933
-0.708723081386908
-0.976655476893099
0.1010503904626933
-0.708723081386908
-0.976655476893099
0.1010503904626933
-0.708723081386908
-0.9775411504119159
0.10078123212157963
-0.708639595174282
-0.9775411504119159
0.10078123212157963
-0.708639595174282
-0.9775411504119159
0.10078123212157963
-0.708639595174282
-0.9775411504119159
0.10078123212157963
-0.708639595174282
-0.9776416120101784
0.10074117934133581
-0.7086247483720689
-0.9776416120101784
0.10074117934133581
-0.7086247483720689
-0.9776416120101784
0.10074117934133581
-0.7086247483720689
-0.9776416120101784
0.10074117934133581
-0.7086247483720689
-0.9776416120101784
0.10074117934133581
-0.7086247483720689
-0.9776416120101784
0.10074117934133581
-0.7086247483720689
-0.9776416120101784
0.10074117934133581
-0.7086247483720689
-0.9776416120101784
0.10074117934133581
-0.7086247483720689
-0.9777420685946066
0.10070113012025572
-0.7086098983552851
-0.9777420685946066
0.10070113012025572
-0.7086098983552851
-0.9777420685946066
0.10070113012025572
-0.7086098983552851
-0.9777420685946066
0.10070113012025572
-0.7086098983552851
-0.9776564579127595
0.10079675698269551
-0.7085242876734381
-0.9776564579127595
0.10079675698269551
-0.7085242876734381
-0.9776564579127595
0.10079675698269551
-0.7085242876734381
-0.9776564579127595
0.10079675698269551
-0.7085242876734381
-0.979301462800274
0.10100453222757859
-0.7084399099468897
-0.979301462800274
0.10100453222757859
-0.7084399099468897
-0.979301462800274
0.10100453222757859
-0.7084399099468897
-0.979301462800274
0.10100453222757859
-0.7084399099468897
-0.9805553960976091
0.10136095716966956
-0.7086721752897529
-0.9805553960976091
0.10136095716966956
-0.7086721752897529
-0.9805553960976091
0.10136095716966956
-0.7086721752897529
-0.9805553960976091
0.10136095716966956
-0.7086721752897529
-0.9818900893178983
0.1019167490611334
-0.7090171038176584
-0.9818900893178983
0.1019167490611334
-0.7090171038176584
-0.9818900893178983
0.1019167490611334
-0.7090171038176584
-0.9818900893178983
0.1019167490611334
-0.7090171038176584
-0.9818900893178983
0.1019167490611334
-0.7090171038176584
-0.9818900893178983
0.1019167490611334
-0.7090171038176584
-0.9818900893178983
0.1019167490611334
-0.7090171038176584
-0.9818900893178983
0.1019167490611334
-0.7090171038176584
-0.9817336607211264
0.10197162649100516
-0.7089917070270603
-0.9817336607211264
0.10197162649100516
-0.7089917070270603
-0.9817336607211264
0.10197162649100516
-0.7089917070270603
-0.9817336607211264
0.10197162649100516
-0.7089917070270603
-0.9824907582435467
0.10203958981813589
-0.7095183778720516
-0.9824907582435467
0.10203958981813589
-0.7095183778720516
-0.9824907582435467
0.10203958981813589
-0.7095183778720516
-0.9824907582435467
0.10203958981813589
-0.7095183778720516
-0.981923078024827
0.10265319703742194
-0.7098518555830017
-0.981923078024827
0.10265319703742194
-0.7098518555830017
-0.981923078024827
0.10265319703742194
-0.7098518555830017
-0.981923078024827
0.10265319703742194
-0.7098518555830017
-0.9824478856101585
0.10339353326153918
-0.7101100240172916
-0.9824478856101585
0.10339353326153918
-0.7101100240172916
-0.9824478856101585
0.10339353326153918
-0.7101100240172916
-0.9824478856101585
0.10339353326153918
-0.7101100240172916
-0.9823722061517798
0.10364797186163506
-0.710196796301299
-0.9823722061517798
0.10364797186163506
-0.710196796301299
-0.9823722061517798
0.10364797186163506
-0.710196796301299
-0.9823722061517798
0.10364797186163506
-0.710196796301299
-0.9813118704905748
0.10404198928393883
-0.7104657548232329
-0.9813118704905748
0.10404198928393883
-0.7104657548232329
-0.9813118704905748
0.10404198928393883
-0.7104657548232329
-0.9813118704905748
0.10404198928393883
-0.7104657548232329
-0.9819373821551116
0.10474204938869108
-0.7107093266363208
-0.9819373821551116
0.10474204938869108
-0.7107093266363208
-0.9819373821551116
0.10474204938869108
-0.7107093266363208
-0.9819373821551116
0.10474204938869108
-0.7107093266363208
-0.9832734956781216
0.10529626319997819
-0.711057037658602
-0.9832734956781216
0.10529626319997819
-0.711057037658602
-0.9832734956781216
0.10529626319997819
-0.711057037658602
-0.9832734956781216
0.10529626319997819
-0.711057037658602
-0.9838184809886207
0.10579657407787889
-0.7111891847892827
-0.9838184809886207
0.10579657407787889
-0.7111891847892827
-0.9838184809886207
0.10579657407787889
-0.7111891847892827
-0.9838184809886207
0.10579657407787889
-0.7111891847892827
-0.9850057761965741
0.10634842310831691
-0.7110439129834245
-0.9850057761965741
0.10634842310831691
-0.7110439129834245
-0.9850057761965741
0.10634842310831691
-0.7110439129834245
-0.9850057761965741
0.10634842310831691
-0.7110439129834245
-0.985286542838504
0.1068311715884644
-0.7107974399720776
-0.985286542838504
0.1068311715884644
-0.7107974399720776
-0.985286542838504
0.1068311715884644
-0.7107974399720776
-0.985286542838504
0.1068311715884644
-0.7107974399720776
-0.9842371296250497
0.10704303633397405
-0.7104852713570314
-0.9842371296250497
0.10704303633397405
-0.7104852713570314
-0.9842371296250497
0.10704303633397405
-0.7104852713570314
-0.9842371296250497
0.10704303633397405
-0.7104852713570314
-0.9842371296250497
0.10704303633397405
-0.7104852713570314
-0.9842371296250497
0.10704303633397405
-0.7104852713570314
-0.9842371296250497
0.10704303633397405
-0.7104852713570314
-0.9842371296250497
0.10704303633397405
-0.7104852713570314
-0.9853848647977742
0.1073253517615559
-0.7103687459042406
-0.9853848647977742
0.1073253517615559
-0.7103687459042406
-0.9853848647977742
0.1073253517615559
-0.7103687459042406
-0.9853848647977742
0.1073253517615559
-0.7103687459042406
-0.9881159972504502
0.10771464173236872
-0.7106869047760149
-0.9881159972504502
0.10771464173236872
-0.7106869047760149
-0.9881159972504502
0.10771464173236872
-0.7106869047760149
-0.9881159972504502
0.10771464173236872
-0.7106869047760149
-0.9885722623848777
0.10824210685953993
-0.7110924542274153
-0.9885722623848777
0.10824210685953993
-0.7110924542274153
-0.9885722623848777
0.10824210685953993
-0.7110924542274153
-0.9885722623848777
0.10824210685953993
-0.7110924542274153
-0.988087170634381
0.10905407379736397
-0.7115392877316286
-0.988087170634381
0.10905407379736397
-0.7115392877316286
-0.988087170634381
0.10905407379736397
-0.7115392877316286
-0.988087170634381
0.10905407379736397
-0.7115392877316286
-0.9890315262308462
0.1093474010777241
-0.7118107866831429
-0.9890315262308462
0.1093474010777241
-0.7118107866831429
-0.9890315262308462
0.1093474010777241
-0.7118107866831429
-0.9890315262308462
0.1093474010777241
-0.7118107866831429
-0.9896044318251156
0.109016897994574
-0.7117615637514111
-0.9896044318251156
0.109016897994574
-0.7117615637514111
-0.9896044318251156
0.109016897994574
-0.7117615637514111
-0.9896044318251156
0.109016897994574
-0.7117615637514111
-0.9912824444918928
0.10862882445428237
-0.7119813094910215
-0.9912824444918928
0.10862882445428237
-0.7119813094910215
-0.9912824444918928
0.10862882445428237
-0.7119813094910215
-0.9912824444918928
0.10862882445428237
-0.7119813094910215
-0.9924984137846027
0.10851710330764376
-0.7124922098915909
-0.9924984137846027
0.10851710330764376
-0.7124922098915909
-0.9924984137846027
0.10851710330764376
-0.7124922098915909
-0.9924984137846027
0.10851710330764376
-0.7124922098915909
-0.9922351477291736
0.10866762017529709
-0.7129501516023111
-0.9922351477291736
0.10866762017529709
-0.7129501516023111
-0.9922351477291736
0.10866762017529709
-0.7129501516023111
-0.9922351477291736
0.10866762017529709
-0.7129501516023111
-0.9914735676512115
0.10906576685503686
-0.7132862768775896
-0.9914735676512115
0.10906576685503686
-0.7132862768775896
-0.9914735676512115
0.10906576685503686
-0.7132862768775896
-0.9914735676512115
0.10906576685503686
-0.7132862768775896
-0.9920236500353292
0.1092694947418982
-0.713393252151487
-0.9920236500353292
0.1092694947418982
-0.713393252151487
-0.9920236500353292
0.1092694947418982
-0.713393252151487
-0.9920236500353292
0.1092694947418982
-0.713393252151487
-0.9928117872987838
0.10961661877169848
-0.7136397114275832
-0.9928117872987838
0.10961661877169848
-0.7136397114275832
-0.9928117872987838
0.10961661877169848
-0.7136397114275832
-0.9928117872987838
0.10961661877169848
-0.7136397114275832
-0.9936297561788077
0.11007654042935462
-0.7136866807624427
-0.9936297561788077
0.11007654042935462
-0.7136866807624427
-0.9936297561788077
0.11007654042935462
-0.7136866807624427
-0.9936297561788077
0.11007654042935462
-0.7136866807624427
-0.9936135915751874
0.11019058175369421
-0.713702845366063
-0.9936135915751874
0.11019058175369421
-0.713702845366063
-0.9936135915751874
0.11019058175369421
-0.713702845366063
-0.9936135915751874
0.11019058175369421
-0.713702845366063
-0.9936284349201839
0.11024707961022595
-0.7136029596260525
-0.9936284349201839
0.11024707961022595
-0.7136029596260525
-0.9936284349201839
0.11024707961022595
-0.7136029596260525
-0.9936284349201839
0.11024707961022595
-0.7136029596260525
-0.9936284349201839
0.11024707961022595
-0.7136029596260525
-0.9936284349201839
0.11024707961022595
-0.7136029596260525
-0.9936284349201839
0.11024707961022595
-0.7136029596260525
-0.9936284349201839
0.11024707961022595
-0.7136029596260525
-0.9941379909662437
0.11035134269218265
-0.7136536178898087
-0.9941379909662437
0.11035134269218265
-0.7136536178898087
-0.9941379909662437
0.11035134269218265
-0.7136536178898087
-0.9941379909662437
0.11035134269218265
-0.7136536178898087
-0.9956221856792136
0.11049418217528627
-0.7141054013490555
-0.9956221856792136
0.11049418217528627
-0.7141054013490555
-0.9956221856792136
0.11049418217528627
-0.7141054013490555
-0.9956221856792136
0.11049418217528627
-0.7141054013490555
-0.9984332269615951
0.11137042784984247
-0.7145736094910611
-0.9984332269615951
0.11137042784984247
-0.7145736094910611
-0.9984332269615951
0.11137042784984247
-0.7145736094910611
-0.9984332269615951
0.11137042784984247
-0.7145736094910611
-1.0005458539437528
0.11274561199477766
-0.714869507883704
-1.0005458539437528
0.11274561199477766
-0.714869507883704
-1.0005458539437528
0.11274561199477766
-0.714869507883704
-1.0005458539437528
0.11274561199477766
-0.714869507883704
-1.0017813534228717
0.11380049562840512
-0.7151897686764164
-1.0017813534228717
0.11380049562840512
-0.7151897686764164
-1.0017813534228717
0.11380049562840512
-0.7151897686764164
-1.0017813534228717
0.11380049562840512
-0.7151897686764164
-1.0010015594358526
0.11356502534092343
-0.7153095139854543
-1.0010015594358526
0.11356502534092343
-0.7153095139854543
-1.0010015594358526
0.11356502534092343
-0.7153095139854543
-1.0010015594358526
0.11356502534092343
-0.7153095139854543
-1.0011498541155277
0.11286189806873606
-0.7153754341053884
-1.0011498541155277
0.11286189806873606
-0.7153754341053884
-1.0011498541155277
0.11286189806873606
-0.7153754341053884
-1.0011498541155277
0.11286189806873606
-0.7153754341053884
-1.0012288955612316
0.11177524765307882
-0.7156663823076013
-1.0012288955612316
0.11177524765307882
-0.7156663823076013
-1.0012288955612316
0.11177524765307882
-0.7156663823076013
-1.0012288955612316
0.11177524765307882
-0.7156663823076013
-1.001188129168651
0.11167624160334497
-0.715609139521761
-1.001188129168651
0.11167624160334497
-0.715609139521761
-1.001188129168651
0.11167624160334497
-0.715609139521761
-1.001188129168651
0.11167624160334497
-0.715609139521761
-1.0018638696159465
0.1113761778641613
-0.7151873044528665
-1.0018638696159465
0.1113761778641613
-0.7151873044528665
-1.0018638696159465
0.1113761778641613
-0.7151873044528665
-1.0018638696159465
0.1113761778641613
-0.7151873044528665
-1.0018723898424837
0.11156593218162977
-0.7142789304397327
-1.0018723898424837
0.11156593218162977
-0.7142789304397327
-1.0018723898424837
0.11156593218162977
-0.7142789304397327
-1.0018723898424837
0.11156593218162977
-0.7142789304397327
-1.0012049643770617
0.11159688150561434
-0.7129239141491064
-1.0012049643770617
0.11159688150561434
-0.7129239141491064
-1.0012049643770617
0.11159688150561434
-0.7129239141491064
-1.0012049643770617
0.11159688150561434
-0.7129239141491064
-1.0017810620876513
0.1122447519780196
-0.7101944443449926
-1.0017810620876513
0.1122447519780196
-0.7101944443449926
-1.0017810620876513
0.1122447519780196
-0.7101944443449926
-1.0017810620876513
0.1122447519780196
-0.7101944443449926
-1.0000310211621204
0.11167256461654426
-0.7098832562193256
-1.0000310211621204
0.11167256461654426
-0.7098832562193256
-1.0000310211621204
0.11167256461654426
-0.7098832562193256
-1.0000310211621204
0.11167256461654426
-0.7098832562193256
-1.0013683446279842
0.10974583413067852
-0.711788741555631
-1.0013683446279842
0.10974583413067852
-0.711788741555631
-1.0013683446279842
0.10974583413067852
-0.711788741555631
-1.0013683446279842
0.10974583413067852
-0.711788741555631
-0.998775324077799
0.10900642573886897
-0.7120301554487204
-0.998775324077799
0.10900642573886897
-0.7120301554487204
-0.998775324077799
0.10900642573886897
-0.7120301554487204
-0.998775324077799
0.10900642573886897
-0.7120301554487204
-0.9998122893630291
0.10827600773266512
-0.7115738523573903
-0.9998122893630291
0.10827600773266512
-0.7115738523573903
-0.9998122893630291
0.10827600773266512
-0.7115738523573903
-0.9998122893630291
0.10827600773266512
-0.7115738523573903
-1.0047195160927478
0.10719761691958564
-0.7098826850458819
-1.0047195160927478
0.10719761691958564
-0.7098826850458819
-1.0047195160927478
0.10719761691958564
-0.7098826850458819
-1.0047195160927478
0.10719761691958564
-0.7098826850458819
-1.007197283472737
0.10487188146038691
-0.7075853715371381
-1.007197283472737
0.10487188146038691
-0.7075853715371381
-1.007197283472737
0.10487188146038691
-0.7075853715371381
-1.007197283472737
0.10487188146038691
-0.7075853715371381
-1.008213615720811
0.10132423554855151
-0.7031802895085159
-1.008213615720811
0.10132423554855151
-0.7031802895085159
-1.008213615720811
0.10132423554855151
-0.7031802895085159
-1.008213615720811
0.10132423554855151
-0.7031802895085159
-1.0055732735904868
0.097339851273724
-0.6975012710673549
-1.0055732735904868
0.097339851273724
-0.6975012710673549
-1.0055732735904868
0.097339851273724
-0.6975012710673549
-1.0055732735904868
0.097339851273724
-0.6975012710673549
-1.0003020769101019
0.09346188884233006
-0.6924028029398231
-1.0003020769101019
0.09346188884233006
-0.6924028029398231
-1.0003020769101019
0.09346188884233006
-0.6924028029398231
-1.0003020769101019
0.09346188884233006
-0.6924028029398231
-0.9944289432102589
0.08981602245123255
-0.6889702551250614
-0.9944289432102589
0.08981602245123255
-0.6889702551250614
-0.9944289432102589
0.08981602245123255
-0.6889702551250614
-0.9944289432102589
0.08981602245123255
-0.6889702551250614
-0.991341267262009
0.08525990074853959
-0.6868978976087422
-0.991341267262009
0.08525990074853959
-0.6868978976087422
-0.991341267262009
0.08525990074853959
-0.6868978976087422
-0.991341267262009
0.08525990074853959
-0.6868978976087422
-0.988527003178828
0.07989982943293088
-0.685345059600439
-0.988527003178828
0.07989982943293088
-0.685345059600439
-0.988527003178828
0.07989982943293088
-0.685345059600439
-0.988527003178828
0.07989982943293088
-0.685345059600439
-0.9825353544270082
0.07342783096274179
-0.6823608717728524
-0.9825353544270082
0.07342783096274179
-0.6823608717728524
-0.9825353544270082
0.07342783096274179
-0.6823608717728524
-0.9825353544270082
0.07342783096274179
-0.6823608717728524
-0.9759555498147526
0.06714851130698211
-0.6796773751570737
-0.9759555498147526
0.06714851130698211
-0.6796773751570737
-0.9759555498147526
0.06714851130698211
-0.6796773751570737
-0.9759555498147526
0.06714851130698211
-0.6796773751570737
-0.971939472280846
0.06122048330732008
-0.6780736383872629
-0.971939472280846
0.06122048330732008
-0.6780736383872629
-0.971939472280846
0.06122048330732008
-0.6780736383872629
-0.971939472280846
0.06122048330732008
-0.6780736383872629
-0.9681376300348239
0.05556878089945865
-0.6761269439342384
-0.9681376300348239
0.05556878089945865
-0.6761269439342384
-0.9681376300348239
0.05556878089945865
-0.6761269439342384
-0.9681376300348239
0.05556878089945865
-0.6761269439342384
-0.9652647637897622
0.05051632311319317
-0.6744636593830104
-0.9652647637897622
0.05051632311319317
-0.6744636593830104
-0.9652647637897622
0.05051632311319317
-0.6744636593830104
-0.9652647637897622
0.05051632311319317
-0.6744636593830104
-0.9650470060033501
0.046204889869783036
-0.6732864252901547
-0.9650470060033501
0.046204889869783036
-0.6732864252901547
-0.9650470060033501
0.046204889869783036
-0.6732864252901547
-0.9650470060033501
0.046204889869783036
-0.6732864252901547
-0.9660092435124202
0.04247440189929144
-0.671664176234259
-0.9660092435124202
0.04247440189929144
-0.671664176234259
-0.9660092435124202
0.04247440189929144
-0.671664176234259
-0.9660092435124202
0.04247440189929144
-0.671664176234259
-0.967627209407342
0.038810455458363195
-0.6697407151134916
-0.967627209407342
0.038810455458363195
-0.6697407151134916
-0.967627209407342
0.038810455458363195
-0.6697407151134916
-0.967627209407342
0.038810455458363195
-0.6697407151134916
-0.969145575019404
0.03512057211768825
-0.6685357280837071
-0.969145575019404
0.03512057211768825
-0.6685357280837071
-0.969145575019404
0.03512057211768825
-0.6685357280837071
-0.969145575019404
0.03512057211768825
-0.6685357280837071
-0.971110546101065
0.03167127698872706
-0.6679408214359207
-0.971110546101065
0.03167127698872706
-0.6679408214359207
-0.971110546101065
0.03167127698872706
-0.6679408214359207
-0.971110546101065
0.03167127698872706
-0.6679408214359207
-0.9721134031926206
0.028096800538321337
-0.6674280130806574
-0.9721134031926206
0.028096800538321337
-0.6674280130806574
-0.9721134031926206
0.028096800538321337
-0.6674280130806574
-0.9721134031926206
0.028096800538321337
-0.6674280130806574
-0.9725951233806254
0.0245336690514675
-0.6666454607632033
-0.9725951233806254
0.0245336690514675
-0.6666454607632033
-0.9725951233806254
0.0245336690514675
-0.6666454607632033
-0.9725951233806254
0.0245336690514675
-0.6666454607632033
-0.974350595203208
0.02144614957532685
-0.6663522031390539
-0.974350595203208
0.02144614957532685
-0.6663522031390539
-0.974350595203208
0.02144614957532685
-0.6663522031390539
-0.974350595203208
0.02144614957532685
-0.6663522031390539
-0.9760583643676937
0.018558264573151
-0.6657661094049849
-0.9760583643676937
0.018558264573151
-0.6657661094049849
-0.9760583643676937
0.018558264573151
-0.6657661094049849
-0.9760583643676937
0.018558264573151
-0.6657661094049849
-0.9774894007253465
0.01623517539949453
-0.6647703792518795
-0.9774894007253465
0.01623517539949453
-0.6647703792518795
-0.9774894007253465
0.01623517539949453
-0.6647703792518795
-0.9774894007253465
0.01623517539949453
-0.6647703792518795
-0.9781729624566554
0.014220223149184317
-0.6642760331470107
-0.9781729624566554
0.014220223149184317
-0.6642760331470107
-0.9781729624566554
0.014220223149184317
-0.6642760331470107
-0.9781729624566554
0.014220223149184317
-0.6642760331470107
-0.9778031609809748
0.01198483745332813
-0.6640442475174717
-0.9778031609809748
0.01198483745332813
-0.6640442475174717
-0.9778031609809748
0.01198483745332813
-0.6640442475174717
-0.9778031609809748
0.01198483745332813
-0.6640442475174717
-0.9770957174380042
0.010261974115891094
-0.6641697833438842
-0.9770957174380042
0.010261974115891094
-0.6641697833438842
-0.9770957174380042
0.010261974115891094
-0.6641697833438842
-0.9770957174380042
0.010261974115891094
-0.6641697833438842
-0.9768769526570236
0.009296549263006281
-0.6641785522718278
-0.9768769526570236
0.009296549263006281
-0.6641785522718278
-0.9768769526570236
0.009296549263006281
-0.6641785522718278
-0.9768769526570236
0.009296549263006281
-0.6641785522718278
-0.9772635073705165
0.008592360066641852
-0.6638512298488185
-0.9772635073705165
0.008592360066641852
-0.6638512298488185
-0.9772635073705165
0.008592360066641852
-0.6638512298488185
-0.9772635073705165
0.008592360066641852
-0.6638512298488185
-0.9783107120203657
0.007957178854086125
-0.6633054130071538
-0.9783107120203657
0.007957178854086125
-0.6633054130071538
-0.9783107120203657
0.007957178854086125
-0.6633054130071538
-0.9783107120203657
0.007957178854086125
-0.6633054130071538
-0.9785468471093276
0.00765464183162416
-0.6628838162998579
-0.9785468471093276
0.00765464183162416
-0.6628838162998579
-0.9785468471093276
0.00765464183162416
-0.6628838162998579
-0.9785468471093276
0.00765464183162416
-0.6628838162998579
-0.977647429329785
0.0075544153909193204
-0.6630844001004796
-0.977647429329785
0.0075544153909193204
-0.6630844001004796
-0.977647429329785
0.0075544153909193204
-0.6630844001004796
-0.977647429329785
0.0075544153909193204
-0.6630844001004796
-0.9771669564670078
0.007478337003549993
-0.6635648729632565
-0.9771669564670078
0.007478337003549993
-0.6635648729632565
-0.9771669564670078
0.007478337003549993
-0.6635648729632565
-0.9771669564670078
0.007478337003549993
-0.6635648729632565
-0.9768948333114467
0.00785381082498785
-0.6638491146521742
-0.9768948333114467
0.00785381082498785
-0.6638491146521742
-0.9768948333114467
0.00785381082498785
-0.6638491146521742
-0.9768948333114467
0.00785381082498785
-0.6638491146521742
-0.977397188171034
0.008143638097820973
-0.6637889315927322
-0.977397188171034
0.008143638097820973
-0.6637889315927322
-0.977397188171034
0.008143638097820973
-0.6637889315927322
-0.977397188171034
0.008143638097820973
-0.6637889315927322
-0.9780739226871062
0.008434254415367139
-0.6636441752846657
-0.9780739226871062
0.008434254415367139
-0.6636441752846657
-0.9780739226871062
0.008434254415367139
-0.6636441752846657
-0.9780739226871062
0.008434254415367139
-0.6636441752846657
-0.9791819049747192
0.00862984680423219
-0.6636717113766003
-0.9791819049747192
0.00862984680423219
-0.6636717113766003
-0.9791819049747192
0.00862984680423219
-0.6636717113766003
-0.9791819049747192
0.00862984680423219
-0.6636717113766003
-0.9803435179927041
0.008981642138747394
-0.6636522109382013
-0.9803435179927041
0.008981642138747394
-0.6636522109382013
-0.9803435179927041
0.008981642138747394
-0.6636522109382013
-0.9803435179927041
0.008981642138747394
-0.6636522109382013
-0.9799509235081262
0.00969365781459984
-0.6636336287776302
-0.9799509235081262
0.00969365781459984
-0.6636336287776302
-0.9799509235081262
0.00969365781459984
-0.6636336287776302
-0.9799509235081262
0.00969365781459984
-0.6636336287776302
-0.9784919864167269
0.010485153187019142
-0.6636468186798122
-0.9784919864167269
0.010485153187019142
-0.6636468186798122
-0.9784919864167269
0.010485153187019142
-0.6636468186798122
-0.9784919864167269
0.010485153187019142
-0.6636468186798122
-0.9779903524931843
0.011510968463378506
-0.6642754720743423
-0.9779903524931843
0.011510968463378506
-0.6642754720743423
-0.9779903524931843
0.011510968463378506
-0.6642754720743423
-0.9779903524931843
0.011510968463378506
-0.6642754720743423
-0.9786220072008118
0.012319576650035828
-0.6648001244207523
-0.9786220072008118
0.012319576650035828
-0.6648001244207523
-0.9786220072008118
0.012319576650035828
-0.6648001244207523
-0.9786220072008118
0.012319576650035828
-0.6648001244207523
-0.9797398531478503
0.013195739596752338
-0.66519318703116
-0.9797398531478503
0.013195739596752338
-0.66519318703116
-0.9797398531478503
0.013195739596752338
-0.66519318703116
-0.9797398531478503
0.013195739596752338
-0.66519318703116
-0.9794553863227322
0.014038647364228376
-0.6654197800226568
-0.9794553863227322
0.014038647364228376
-0.6654197800226568
-0.9794553863227322
0.014038647364228376
-0.6654197800226568
-0.9794553863227322
0.014038647364228376
-0.6654197800226568
-0.9797423531610783
0.01451093905998048
-0.6657636032525847
-0.9797423531610783
0.01451093905998048
-0.6657636032525847
-0.9797423531610783
0.01451093905998048
-0.6657636032525847
-0.9797423531610783
0.01451093905998048
-0.6657636032525847
-0.9803220964505798
0.015169799001108803
-0.6660790543350753
-0.9803220964505798
0.015169799001108803
-0.6660790543350753
-0.9803220964505798
0.015169799001108803
-0.6660790543350753
-0.9803220964505798
0.015169799001108803
-0.6660790543350753
-0.9808840449157615
0.015773859545963314
-0.6664965089058927
-0.9808840449157615
0.015773859545963314
-0.6664965089058927
-0.9808840449157615
0.015773859545963314
-0.6664965089058927
-0.9808840449157615
0.015773859545963314
-0.6664965089058927
-0.9805959003413303
0.016102054433828165
-0.6666240634117301
-0.9805959003413303
0.016102054433828165
-0.6666240634117301
-0.9805959003413303
0.016102054433828165
-0.6666240634117301
-0.9805959003413303
0.016102054433828165
-0.6666240634117301
-0.9806315774882143
0.016203662252083174
-0.6666786726493799
-0.9806315774882143
0.016203662252083174
-0.6666786726493799
-0.9806315774882143
0.016203662252083174
-0.6666786726493799
-0.9806315774882143
0.016203662252083174
-0.6666786726493799
-0.9806315774882143
0.016203662252083174
-0.6666786726493799
-0.9806315774882143
0.016203662252083174
-0.6666786726493799
-0.9806315774882143
0.016203662252083174
-0.6666786726493799
-0.9806315774882143
0.016203662252083174
-0.6666786726493799
-0.9814642229761439
0.016432306647802018
-0.6668126991457113
-0.9814642229761439
0.016432306647802018
-0.6668126991457113
-0.9814642229761439
0.016432306647802018
-0.6668126991457113
-0.9814642229761439
0.016432306647802018
-0.6668126991457113
-0.9825425493108121
0.016864949224864423
-0.6669724687901095
-0.9825425493108121
0.016864949224864423
-0.6669724687901095
-0.9825425493108121
0.016864949224864423
-0.6669724687901095
-0.9825425493108121
0.016864949224864423
-0.6669724687901095
-0.983277430574439
0.017825790524329952
-0.6668844885942261
-0.983277430574439
0.017825790524329952
-0.6668844885942261
-0.983277430574439
0.017825790524329952
-0.6668844885942261
-0.983277430574439
0.017825790524329952
-0.6668844885942261
-0.9836171370354565
0.018810237180714836
-0.6667604133551521
-0.9836171370354565
0.018810237180714836
-0.6667604133551521
-0.9836171370354565
0.018810237180714836
-0.6667604133551521
-0.9836171370354565
0.018810237180714836
-0.6667604133551521
-0.9837837484194065
0.01961935967138276
-0.6668027023219321
-0.9837837484194065
0.01961935967138276
-0.6668027023219321
-0.9837837484194065
0.01961935967138276
-0.6668027023219321
-0.9837837484194065
0.01961935967138276
-0.6668027023219321
-0.9845421192257536
0.020975278001410077
-0.6667973579000056
-0.9845421192257536
0.020975278001410077
-0.6667973579000056
-0.9845421192257536
0.020975278001410077
-0.6667973579000056
-0.9845421192257536
0.020975278001410077
-0.6667973579000056
-0.9846043724520874
0.02217682585600185
-0.6664354196760496
-0.9846043724520874
0.02217682585600185
-0.6664354196760496
-0.9846043724520874
0.02217682585600185
-0.6664354196760496
-0.9846043724520874
0.02217682585600185
-0.6664354196760496
-0.9855370700798279
0.023525766912049287
-0.6666061596947409
-0.9855370700798279
0.023525766912049287
-0.6666061596947409
-0.9855370700798279
0.023525766912049287
-0.6666061596947409
-0.9855370700798279
0.023525766912049287
-0.6666061596947409
-0.9861466457703103
0.02510112126532356
-0.6668502801031335
-0.9861466457703103
0.02510112126532356
-0.6668502801031335
-0.9861466457703103
0.02510112126532356
-0.6668502801031335
-0.9861466457703103
0.02510112126532356
-0.6668502801031335
-0.9868021073517255
0.026666856644813983
-0.6667840270260075
-0.9868021073517255
0.026666856644813983
-0.6667840270260075
-0.9868021073517255
0.026666856644813983
-0.6667840270260075
-0.9868021073517255
0.026666856644813983
-0.6667840270260075
-0.9867830622850422
0.028303855769716797
-0.6687165183202676
-0.9867830622850422
0.028303855769716797
-0.6687165183202676
-0.9867830622850422
0.028303855769716797
-0.6687165183202676
-0.9867830622850422
0.028303855769716797
-0.6687165183202676
-0.9841077951449757
0.029312831949248427
-0.6726617573231803
-0.9841077951449757
0.029312831949248427
-0.6726617573231803
-0.9841077951449757
0.029312831949248427
-0.6726617573231803
-0.9841077951449757
0.029312831949248427
-0.6726617573231803
-0.9837577920475624
0.031124473324736106
-0.677216138698218
-0.9837577920475624
0.031124473324736106
-0.677216138698218
-0.9837577920475624
0.031124473324736106
-0.677216138698218
-0.9837577920475624
0.031124473324736106
-0.677216138698218
-0.9851356236369113
0.03391180629181233
-0.6810691850943348
-0.9851356236369113
0.03391180629181233
-0.6810691850943348
-0.9851356236369113
0.03391180629181233
-0.6810691850943348
-0.9851356236369113
0.03391180629181233
-0.6810691850943348
-0.9866021708571026
0.03723128793219254
-0.6830258604066126
-0.9866021708571026
0.03723128793219254
-0.6830258604066126
-0.9866021708571026
0.03723128793219254
-0.6830258604066126
-0.9866021708571026
0.03723128793219254
-0.6830258604066126
-0.9911328620770472
0.04164938664761544
-0.6831334949221706
-0.9911328620770472
0.04164938664761544
-0.6831334949221706
-0.9911328620770472
0.04164938664761544
-0.6831334949221706
-0.9911328620770472
0.04164938664761544
-0.6831334949221706
-0.9939186235211206
0.04435916118788942
-0.6837702364327513
-0.9939186235211206
0.04435916118788942
-0.6837702364327513
-0.9939186235211206
0.04435916118788942
-0.6837702364327513
-0.9939186235211206
0.04435916118788942
-0.6837702364327513
-0.9907283986617532
0.04643053843513405
-0.6858380254865734
-0.9907283986617532
0.04643053843513405
-0.6858380254865734
-0.9907283986617532
0.04643053843513405
-0.6858380254865734
-0.9907283986617532
0.04643053843513405
-0.6858380254865734
-0.9862919719759113
0.04761915474200611
-0.687857477928493
-0.9862919719759113
0.04761915474200611
-0.687857477928493
-0.9862919719759113
0.04761915474200611
-0.687857477928493
-0.9862919719759113
0.04761915474200611
-0.687857477928493
-0.9813100756141943
0.05035172824320715
-0.6898851802987314
-0.9813100756141943
0.05035172824320715
-0.6898851802987314
-0.9813100756141943
0.05035172824320715
-0.6898851802987314
-0.9813100756141943
0.05035172824320715
-0.6898851802987314
-0.9809889863486718
0.0533083529762638
-0.6900962661199499
-0.9809889863486718
0.0533083529762638
-0.6900962661199499
-0.9809889863486718
0.0533083529762638
-0.6900962661199499
-0.9809889863486718
0.0533083529762638
-0.6900962661199499
-0.9793246814461573
0.057073371893424346
-0.6916015021362968
-0.9793246814461573
0.057073371893424346
-0.6916015021362968
-0.9793246814461573
0.057073371893424346
-0.6916015021362968
-0.9793246814461573
0.057073371893424346
-0.6916015021362968
-0.9782220091847488
0.0599679910899611
-0.69161085872854
-0.9782220091847488
0.0599679910899611
-0.69161085872854
-0.9782220091847488
0.0599679910899611
-0.69161085872854
-0.9782220091847488
0.0599679910899611
-0.69161085872854
-0.9761955328846951
0.06192103818623611
-0.6915134953720954
-0.9761955328846951
0.06192103818623611
-0.6915134953720954
-0.9761955328846951
0.06192103818623611
-0.6915134953720954
-0.9761955328846951
0.06192103818623611
-0.6915134953720954
-0.9746368221390356
0.06374283983948113
-0.6927174403786847
-0.9746368221390356
0.06374283983948113
-0.6927174403786847
-0.9746368221390356
0.06374283983948113
-0.6927174403786847
-0.9746368221390356
0.06374283983948113
-0.6927174403786847
-0.9714079479917869
0.06565220568679057
-0.6934502842159175
-0.9714079479917869
0.06565220568679057
-0.6934502842159175
-0.9714079479917869
0.06565220568679057
-0.6934502842159175
-0.9714079479917869
0.06565220568679057
-0.6934502842159175
-0.9704238047415135
0.06769129625709998
-0.6939144204649227
-0.9704238047415135
0.06769129625709998
-0.6939144204649227
-0.9704238047415135
0.06769129625709998
-0.6939144204649227
-0.9704238047415135
0.06769129625709998
-0.6939144204649227
-0.9721720970169748
0.0700113037921175
-0.6947866175545034
-0.9721720970169748
0.0700113037921175
-0.6947866175545034
-0.9721720970169748
0.0700113037921175
-0.6947866175545034
-0.9721720970169748
0.0700113037921175
-0.6947866175545034
-0.9741881970496427
0.07230075592575477
-0.6953121790410381
-0.9741881970496427
0.07230075592575477
-0.6953121790410381
-0.9741881970496427
0.07230075592575477
-0.6953121790410381
-0.9741881970496427
0.07230075592575477
-0.6953121790410381
-0.9745779369372581
0.07459707996101116
-0.6957632916808586
-0.9745779369372581
0.07459707996101116
-0.6957632916808586
-0.9745779369372581
0.07459707996101116
-0.6957632916808586
-0.9745779369372581
0.07459707996101116
-0.6957632916808586
-0.9750396777975057
0.07640158285223046
-0.6965704582452389
-0.9750396777975057
0.07640158285223046
-0.6965704582452389
-0.9750396777975057
0.07640158285223046
-0.6965704582452389
-0.9750396777975057
0.07640158285223046
-0.6965704582452389
-0.9750422780993666
0.07843417003597603
-0.6969505166780365
-0.9750422780993666
0.07843417003597603
-0.6969505166780365
-0.9750422780993666
0.07843417003597603
-0.6969505166780365
-0.9750422780993666
0.07843417003597603
-0.6969505166780365
-0.9776563006446356
0.08073481029868337
-0.6976153423382431
-0.9776563006446356
0.08073481029868337
-0.6976153423382431
-0.9776563006446356
0.08073481029868337
-0.6976153423382431
-0.9776563006446356
0.08073481029868337
-0.6976153423382431
-0.9805433136641724
0.08271110367280109
-0.6979106445111151
-0.9805433136641724
0.08271110367280109
-0.6979106445111151
-0.9805433136641724
0.08271110367280109
-0.6979106445111151
-0.9805433136641724
0.08271110367280109
-0.6979106445111151
-0.9798838415988258
0.08440464072769784
-0.6979465881329832
-0.9798838415988258
0.08440464072769784
-0.6979465881329832
-0.9798838415988258
0.08440464072769784
-0.6979465881329832
-0.9798838415988258
0.08440464072769784
-0.6979465881329832
-0.976284422803655
0.08588444472203932
-0.6977421674273834
-0.976284422803655
0.08588444472203932
-0.6977421674273834
-0.976284422803655
0.08588444472203932
-0.6977421674273834
-0.976284422803655
0.08588444472203932
-0.6977421674273834
-0.9732389097934244
0.08710630216376684
-0.6976907426343582
-0.9732389097934244
0.08710630216376684
-0.6976907426343582
-0.9732389097934244
0.08710630216376684
-0.6976907426343582
-0.9732389097934244
0.08710630216376684
-0.6976907426343582
-0.9742372287822154
0.08825517068177921
-0.6976585253331541
-0.9742372287822154
0.08825517068177921
-0.6976585253331541
-0.9742372287822154
0.08825517068177921
-0.6976585253331541
-0.9742372287822154
0.08825517068177921
-0.6976585253331541
-0.9770295055098435
0.08887433243033238
-0.6978018250567908
-0.9770295055098435
0.08887433243033238
-0.6978018250567908
-0.9770295055098435
0.08887433243033238
-0.6978018250567908
-0.9770295055098435
0.08887433243033238
-0.6978018250567908
-0.9770575362881936
0.0898499996251344
-0.6981916436053782
-0.9770575362881936
0.0898499996251344
-0.6981916436053782
-0.9770575362881936
0.0898499996251344
-0.6981916436053782
-0.9770575362881936
0.0898499996251344
-0.6981916436053782
-0.9758159435187623
0.09065447684693624
-0.6977583513658007
-0.9758159435187623
0.09065447684693624
-0.6977583513658007
-0.9758159435187623
0.09065447684693624
-0.6977583513658007
-0.9758159435187623
0.09065447684693624
-0.6977583513658007
-0.9741997715315617
0.09170635951898748
-0.6973454890640932
-0.9741997715315617
0.09170635951898748
-0.6973454890640932
-0.9741997715315617
0.09170635951898748
-0.6973454890640932
-0.9741997715315617
0.09170635951898748
-0.6973454890640932
-0.9737069194054816
0.09246971403486509
-0.6970650166406013
-0.9737069194054816
0.09246971403486509
-0.6970650166406013
-0.9737069194054816
0.09246971403486509
-0.6970650166406013
-0.9737069194054816
0.09246971403486509
-0.6970650166406013
-0.9742886201099785
0.09348122185285797
-0.6967187455887963
-0.9742886201099785
0.09348122185285797
-0.6967187455887963
-0.9742886201099785
0.09348122185285797
-0.6967187455887963
-0.9742886201099785
0.09348122185285797
-0.6967187455887963
-0.97448020456407
0.0941810152215073
-0.6955717027770468
-0.97448020456407
0.0941810152215073
-0.6955717027770468
-0.97448020456407
0.0941810152215073
-0.6955717027770468
-0.97448020456407
0.0941810152215073
-0.6955717027770468
-0.9734425928928444
0.09432431456151427
-0.6947976669204785
-0.9734425928928444
0.09432431456151427
-0.6947976669204785
-0.9734425928928444
0.09432431456151427
-0.6947976669204785
-0.9734425928928444
0.09432431456151427
-0.6947976669204785
-0.9723197047125854
0.09444041328001393
-0.6947472622213222
-0.9723197047125854
0.09444041328001393
-0.6947472622213222
-0.9723197047125854
0.09444041328001393
-0.6947472622213222
-0.9723197047125854
0.09444041328001393
-0.6947472622213222
-0.9729305985435949
0.09479565886212193
-0.6950599290704302
-0.9729305985435949
0.09479565886212193
-0.6950599290704302
-0.9729305985435949
0.09479565886212193
-0.6950599290704302
-0.9729305985435949
0.09479565886212193
-0.6950599290704302
-0.9728297218640818
0.09483491217725928
-0.6950746003415189
-0.9728297218640818
0.09483491217725928
-0.6950746003415189
-0.9728297218640818
0.09483491217725928
-0.6950746003415189
-0.9728297218640818
0.09483491217725928
-0.6950746003415189
-0.973394294162823
0.09468972040063246
-0.6946824306692239
-0.973394294162823
0.09468972040063246
-0.6946824306692239
-0.973394294162823
0.09468972040063246
-0.6946824306692239
-0.973394294162823
0.09468972040063246
-0.6946824306692239
-0.973394294162823
0.09468972040063246
-0.6946824306692239
-0.973394294162823
0.09468972040063246
-0.6946824306692239
-0.973394294162823
0.09468972040063246
-0.6946824306692239
-0.973394294162823
0.09468972040063246
-0.6946824306692239
-0.9737835088174808
0.0938515642377285
-0.6946113788355809
-0.9737835088174808
0.0938515642377285
-0.6946113788355809
-0.9737835088174808
0.0938515642377285
-0.6946113788355809
-0.9737835088174808
0.0938515642377285
-0.6946113788355809
-0.9746150175687807
0.09302598958077125
-0.6950978993553663
-0.9746150175687807
0.09302598958077125
-0.6950978993553663
-0.9746150175687807
0.09302598958077125
-0.6950978993553663
-0.9746150175687807
0.09302598958077125
-0.6950978993553663
-0.9751187263310076
0.09289870290795192
-0.6955853409463364
-0.9751187263310076
0.09289870290795192
-0.6955853409463364
-0.9751187263310076
0.09289870290795192
-0.6955853409463364
-0.9751187263310076
0.09289870290795192
-0.6955853409463364
-0.9760557310995949
0.09337133691453435
-0.6957618742325101
-0.9760557310995949
0.09337133691453435
-0.6957618742325101
-0.9760557310995949
0.09337133691453435
-0.6957618742325101
-0.9760557310995949
0.09337133691453435
-0.6957618742325101
-0.9754664672252688
0.093471378107723
-0.6959981392418022
-0.9754664672252688
0.093471378107723
-0.6959981392418022
-0.9754664672252688
0.093471378107723
-0.6959981392418022
-0.9754664672252688
0.093471378107723
-0.6959981392418022
-0.9756833237236344
0.09332608088807136
-0.6966774494022206
-0.9756833237236344
0.09332608088807136
-0.6966774494022206
-0.9756833237236344
0.09332608088807136
-0.6966774494022206
-0.9756833237236344
0.09332608088807136
-0.6966774494022206
-0.9763393515631109
0.09302987419577753
-0.6968222333496965
-0.9763393515631109
0.09302987419577753
-0.6968222333496965
-0.9763393515631109
0.09302987419577753
-0.6968222333496965
-0.9763393515631109
0.09302987419577753
-0.6968222333496965
-0.9774947795888413
0.09249130092763629
-0.6970867182664463
-0.9774947795888413
0.09249130092763629
-0.6970867182664463
-0.9774947795888413
0.09249130092763629
-0.6970867182664463
-0.9774947795888413
0.09249130092763629
-0.6970867182664463
-0.9773641899688084
0.0924195519172254
-0.6973030838088539
-0.9773641899688084
0.0924195519172254
-0.6973030838088539
-0.9773641899688084
0.0924195519172254
-0.6973030838088539
-0.9773641899688084
0.0924195519172254
-0.6973030838088539
-0.9769817755657435
0.09238464985985867
-0.6979616366252961
-0.9769817755657435
0.09238464985985867
-0.6979616366252961
-0.9769817755657435
0.09238464985985867
-0.6979616366252961
-0.9769817755657435
0.09238464985985867
-0.6979616366252961
-0.9771480674020184
0.09301377091999137
-0.6989191784533184
-0.9771480674020184
0.09301377091999137
-0.6989191784533184
-0.9771480674020184
0.09301377091999137
-0.6989191784533184
-0.9771480674020184
0.09301377091999137
-0.6989191784533184
-0.9780647369984429
0.09360128556660315
-0.7000323975084025
-0.9780647369984429
0.09360128556660315
-0.7000323975084025
-0.9780647369984429
0.09360128556660315
-0.7000323975084025
-0.9780647369984429
0.09360128556660315
-0.7000323975084025
-0.9777395180057915
0.09417761615121097
-0.7008444373518082
-0.9777395180057915
0.09417761615121097
-0.7008444373518082
-0.9777395180057915
0.09417761615121097
-0.7008444373518082
-0.9777395180057915
0.09417761615121097
-0.7008444373518082
-0.9776396452470079
0.09508154590987768
-0.7014510657939491
-0.9776396452470079
0.09508154590987768
-0.7014510657939491
-0.9776396452470079
0.09508154590987768
-0.7014510657939491
-0.9776396452470079
0.09508154590987768
-0.7014510657939491
-0.9782183690239449
0.09626453164545025
-0.7019432693405456
-0.9782183690239449
0.09626453164545025
-0.7019432693405456
-0.9782183690239449
0.09626453164545025
-0.7019432693405456
-0.9782183690239449
0.09626453164545025
-0.7019432693405456
-0.9780649302771384
0.09701265726659955
-0.702594834487464
-0.9780649302771384
0.09701265726659955
-0.702594834487464
-0.9780649302771384
0.09701265726659955
-0.702594834487464
-0.9780649302771384
0.09701265726659955
-0.702594834487464
-0.9774347533279587
0.09759444312819927
-0.7030834757091226
-0.9774347533279587
0.09759444312819927
-0.7030834757091226
-0.9774347533279587
0.09759444312819927
-0.7030834757091226
-0.9774347533279587
0.09759444312819927
-0.7030834757091226
-0.9776889801657441
0.09825057968194706
-0.70331788449105
-0.9776889801657441
0.09825057968194706
-0.70331788449105
-0.9776889801657441
0.09825057968194706
-0.70331788449105
-0.9776889801657441
0.09825057968194706
-0.70331788449105
-0.9777448251109168
0.09823582456602467
-0.7033577982718802
-0.9777448251109168
0.09823582456602467
-0.7033577982718802
-0.9777448251109168
0.09823582456602467
-0.7033577982718802
-0.9777448251109168
0.09823582456602467
-0.7033577982718802
-0.9777448251109168
0.09823582456602467
-0.7033577982718802
-0.9777448251109168
0.09823582456602467
-0.7033577982718802
-0.9777448251109168
0.09823582456602467
-0.7033577982718802
-0.9777448251109168
0.09823582456602467
-0.7033577982718802
-0.9771022236724333
0.09777288476175922
-0.7032445084744136
-0.9771022236724333
0.09777288476175922
-0.7032445084744136
-0.9771022236724333
0.09777288476175922
-0.7032445084744136
-0.9771022236724333
0.09777288476175922
-0.7032445084744136
-0.9772028134006193
0.0977331764266247
-0.7032296712946384
-0.9772028134006193
0.0977331764266247
-0.7032296712946384
-0.9772028134006193
0.0977331764266247
-0.7032296712946384
-0.9772028134006193
0.0977331764266247
-0.7032296712946384
-0.9783455916980474
0.09778163935280439
-0.7035485545803598
-0.9783455916980474
0.09778163935280439
-0.7035485545803598
-0.9783455916980474
0.09778163935280439
-0.7035485545803598
-0.9783455916980474
0.09778163935280439
-0.7035485545803598
-0.9791563762688551
0.09759898836889754
-0.7036348542709575
-0.9791563762688551
0.09759898836889754
-0.7036348542709575
-0.9791563762688551
0.09759898836889754
-0.7036348542709575
-0.9791563762688551
0.09759898836889754
-0.7036348542709575
-0.9783307207696441
0.09772604196426919
-0.7036491042218178
-0.9783307207696441
0.09772604196426919
-0.7036491042218178
-0.9783307207696441
0.09772604196426919
-0.7036491042218178
-0.9783307207696441
0.09772604196426919
-0.7036491042218178
-0.9776353261777319
0.09792450468604047
-0.7034472593799127
-0.9776353261777319
0.09792450468604047
-0.7034472593799127
-0.9776353261777319
0.09792450468604047
-0.7034472593799127
-0.9776353261777319
0.09792450468604047
-0.7034472593799127
-0.9776709413346917
0.09774017253710612
-0.7032201714496504
-0.9776709413346917
0.09774017253710612
-0.7032201714496504
-0.9776709413346917
0.09774017253710612
-0.7032201714496504
-0.9776709413346917
0.09774017253710612
-0.7032201714496504
-0.9775960421582018
0.09741495872597702
-0.7029979523908491
-0.9775960421582018
0.09741495872597702
-0.7029979523908491
-0.9775960421582018
0.09741495872597702
-0.7029979523908491
-0.9775960421582018
0.09741495872597702
-0.7029979523908491
-0.9771386452492525
0.09717894985269569
-0.7026241028812031
-0.9771386452492525
0.09717894985269569
-0.7026241028812031
-0.9771386452492525
0.09717894985269569
-0.7026241028812031
-0.9771386452492525
0.09717894985269569
-0.7026241028812031
-0.9770899979189441
0.09672784503807377
-0.7026430787099294
-0.9770899979189441
0.09672784503807377
-0.7026430787099294
-0.9770899979189441
0.09672784503807377
-0.7026430787099294
-0.9770899979189441
0.09672784503807377
-0.7026430787099294
-0.9768870519898194
0.09599027644352487
-0.7028064877393164
-0.9768870519898194
0.09599027644352487
-0.7028064877393164
-0.9768870519898194
0.09599027644352487
-0.7028064877393164
-0.9768870519898194
0.09599027644352487
-0.7028064877393164
-0.9772258064775831
0.09551645744196281
-0.7026193372800922
-0.9772258064775831
0.09551645744196281
-0.7026193372800922
-0.9772258064775831
0.09551645744196281
-0.7026193372800922
-0.9772258064775831
0.09551645744196281
-0.7026193372800922
-0.9785755161961676
0.09514339871635183
-0.7021558466723249
-0.9785755161961676
0.09514339871635183
-0.7021558466723249
-0.9785755161961676
0.09514339871635183
-0.7021558466723249
-0.9785755161961676
0.09514339871635183
-0.7021558466723249
-0.9786027247803641
0.09460819351337388
-0.7020031852873617
-0.9786027247803641
0.09460819351337388
-0.7020031852873617
-0.9786027247803641
0.09460819351337388
-0.7020031852873617
-0.9786027247803641
0.09460819351337388
-0.7020031852873617
-0.9783318409878038
0.09447605595244195
-0.7021785260205633
-0.9783318409878038
0.09447605595244195
-0.7021785260205633
-0.9783318409878038
0.09447605595244195
-0.7021785260205633
-0.9783318409878038
0.09447605595244195
-0.7021785260205633
-0.978273525257397
0.09403592334184858
-0.7019403434411424
-0.978273525257397
0.09403592334184858
-0.7019403434411424
-0.978273525257397
0.09403592334184858
-0.7019403434411424
-0.978273525257397
0.09403592334184858
-0.7019403434411424
-0.9777719145273139
0.09363318643954645
-0.7018690690750219
-0.9777719145273139
0.09363318643954645
-0.7018690690750219
-0.9777719145273139
0.09363318643954645
-0.7018690690750219
-0.9777719145273139
0.09363318643954645
-0.7018690690750219
-0.9778188213925105
0.09326734069086604
-0.7019834562113965
-0.9778188213925105
0.09326734069086604
-0.7019834562113965
-0.9778188213925105
0.09326734069086604
-0.7019834562113965
-0.9778188213925105
0.09326734069086604
-0.7019834562113965
-0.9782673495300335
0.09298187593733673
-0.7025155389968707
-0.9782673495300335
0.09298187593733673
-0.7025155389968707
-0.9782673495300335
0.09298187593733673
-0.7025155389968707
-0.9782673495300335
0.09298187593733673
-0.7025155389968707
-0.9780711302651766
0.0928130516296014
-0.7032446821172508
-0.9780711302651766
0.0928130516296014
-0.7032446821172508
-0.9780711302651766
0.0928130516296014
-0.7032446821172508
-0.9780711302651766
0.0928130516296014
-0.7032446821172508
-0.9777849021979959
0.0926255895610604
-0.7035209011402459
-0.9777849021979959
0.0926255895610604
-0.7035209011402459
-0.9777849021979959
0.0926255895610604
-0.7035209011402459
-0.9777849021979959
0.0926255895610604
-0.7035209011402459
-0.979163894803747
0.09241024500387526
-0.7035792555894584
-0.979163894803747
0.09241024500387526
-0.7035792555894584
-0.979163894803747
0.09241024500387526
-0.7035792555894584
-0.979163894803747
0.09241024500387526
-0.7035792555894584
-0.9792947340650786
0.09248178031123333
-0.70336302468348
-0.9792947340650786
0.09248178031123333
-0.70336302468348
-0.9792947340650786
0.09248178031123333
-0.70336302468348
-0.9792947340650786
0.09248178031123333
-0.70336302468348
-0.9785647286934108
0.09269380369482233
-0.7034749059630782
-0.9785647286934108
0.09269380369482233
-0.7034749059630782
-0.9785647286934108
0.09269380369482233
-0.7034749059630782
-0.9785647286934108
0.09269380369482233
-0.7034749059630782
-0.9769474418334266
0.09334339471447241
-0.7035888245939291
-0.9769474418334266
0.09334339471447241
-0.7035888245939291
-0.9769474418334266
0.09334339471447241
-0.7035888245939291
-0.9769474418334266
0.09334339471447241
-0.7035888245939291
-0.9769315351957679
0.09345855105933745
-0.7036047312315878
-0.9769315351957679
0.09345855105933745
-0.7036047312315878
-0.9769315351957679
0.09345855105933745
-0.7036047312315878
-0.9769315351957679
0.09345855105933745
-0.7036047312315878
-0.977491868264458
0.09290423621829935
-0.7037384654124079
-0.977491868264458
0.09290423621829935
-0.7037384654124079
-0.977491868264458
0.09290423621829935
-0.7037384654124079
-0.977491868264458
0.09290423621829935
-0.7037384654124079
-0.9776187461057392
0.09256797561436438
-0.7040489393619465
-0.9776187461057392
0.09256797561436438
-0.7040489393619465
-0.9776187461057392
0.09256797561436438
-0.7040489393619465
-0.9776187461057392
0.09256797561436438
-0.7040489393619465
-0.9777193205156378
0.09252836576167489
-0.704033810108454
-0.9777193205156378
0.09252836576167489
-0.704033810108454
-0.9777193205156378
0.09252836576167489
-0.704033810108454
-0.9777193205156378
0.09252836576167489
-0.704033810108454
-0.9773316371515676
0.0925513506605569
-0.7042405623819212
-0.9773316371515676
0.0925513506605569
-0.7042405623819212
-0.9773316371515676
0.0925513506605569
-0.7042405623819212
-0.9773316371515676
0.0925513506605569
-0.7042405623819212
-0.9773873295690011
0.09253628591359095
-0.7042803558986842
-0.9773873295690011
0.09253628591359095
-0.7042803558986842
-0.9773873295690011
0.09253628591359095
-0.7042803558986842
-0.9773873295690011
0.09253628591359095
-0.7042803558986842
-0.9780159497756342
0.09253421550792654
-0.7040990375727553
-0.9780159497756342
0.09253421550792654
-0.7040990375727553
-0.9780159497756342
0.09253421550792654
-0.7040990375727553
-0.9780159497756342
0.09253421550792654
-0.7040990375727553
-0.9787109679601453
0.09245900199038336
-0.7034894382483894
-0.9787109679601453
0.09245900199038336
-0.7034894382483894
-0.9787109679601453
0.09245900199038336
-0.7034894382483894
-0.9787109679601453
0.09245900199038336
-0.7034894382483894
-0.979748265695732
0.09268081590948138
-0.7018339664559985
-0.979748265695732
0.09268081590948138
-0.7018339664559985
-0.979748265695732
0.09268081590948138
-0.7018339664559985
-0.979748265695732
0.09268081590948138
-0.7018339664559985
-0.9824396631988477
0.09318698832839427
-0.698810679485521
-0.9824396631988477
0.09318698832839427
-0.698810679485521
-0.9824396631988477
0.09318698832839427
-0.698810679485521
-0.9824396631988477
0.09318698832839427
-0.698810679485521
-0.9851303296005822
0.09275780945957947
-0.696728352214754
-0.9851303296005822
0.09275780945957947
-0.696728352214754
-0.9851303296005822
0.09275780945957947
-0.696728352214754
-0.9851303296005822
0.09275780945957947
-0.696728352214754
-0.9886242545192906
0.0896149061424902
-0.6975695985101963
-0.9886242545192906
0.0896149061424902
-0.6975695985101963
-0.9886242545192906
0.0896149061424902
-0.6975695985101963
-0.9886242545192906
0.0896149061424902
-0.6975695985101963
-0.9885476412804247
0.08555084289697952
-0.6988381053734074
-0.9885476412804247
0.08555084289697952
-0.6988381053734074
-0.9885476412804247
0.08555084289697952
-0.6988381053734074
-0.9885476412804247
0.08555084289697952
-0.6988381053734074
-0.9877926764406296
0.08186788609079039
-0.699002436770173
-0.9877926764406296
0.08186788609079039
-0.699002436770173
-0.9877926764406296
0.08186788609079039
-0.699002436770173
-0.9877926764406296
0.08186788609079039
-0.699002436770173
-0.9860093952378697
0.0787710236369143
-0.6964473978307345
-0.9860093952378697
0.0787710236369143
-0.6964473978307345
-0.9860093952378697
0.0787710236369143
-0.6964473978307345
-0.9860093952378697
0.0787710236369143
-0.6964473978307345
-0.9838521514274814
0.07553153314670634
-0.6930162281196244
-0.9838521514274814
0.07553153314670634
-0.6930162281196244
-0.9838521514274814
0.07553153314670634
-0.6930162281196244
-0.9838521514274814
0.07553153314670634
-0.6930162281196244
-0.9803508562441581
0.07200329272817124
-0.6901206469333379
-0.9803508562441581
0.07200329272817124
-0.6901206469333379
-0.9803508562441581
0.07200329272817124
-0.6901206469333379
-0.9803508562441581
0.07200329272817124
-0.6901206469333379
-0.9776640911096224
0.06782314550582555
-0.6882899375723053
-0.9776640911096224
0.06782314550582555
-0.6882899375723053
-0.9776640911096224
0.06782314550582555
-0.6882899375723053
-0.9776640911096224
0.06782314550582555
-0.6882899375723053
-0.9761249715674392
0.06399907176711694
-0.685619197329415
-0.9761249715674392
0.06399907176711694
-0.685619197329415
-0.9761249715674392
0.06399907176711694
-0.685619197329415
-0.9761249715674392
0.06399907176711694
-0.685619197329415
-0.9749093051164655
0.06029329839313565
-0.6824639186350128
-0.9749093051164655
0.06029329839313565
-0.6824639186350128
-0.9749093051164655
0.06029329839313565
-0.6824639186350128
-0.9749093051164655
0.06029329839313565
-0.6824639186350128
-0.9750546861179415
0.05673914207764241
-0.6798407665146742
-0.9750546861179415
0.05673914207764241
-0.6798407665146742
-0.9750546861179415
0.05673914207764241
-0.6798407665146742
-0.9750546861179415
0.05673914207764241
-0.6798407665146742
-0.9773419350315022
0.05323733222367579
-0.6780210494722049
-0.9773419350315022
0.05323733222367579
-0.6780210494722049
-0.9773419350315022
0.05323733222367579
-0.6780210494722049
-0.9773419350315022
0.05323733222367579
-0.6780210494722049
-0.9799676024164707
0.04978203943406424
-0.6770150865502405
-0.9799676024164707
0.04978203943406424
-0.6770150865502405
-0.9799676024164707
0.04978203943406424
-0.6770150865502405
-0.9799676024164707
0.04978203943406424
-0.6770150865502405
-0.9829630656127245
0.04528246833320056
-0.6754948282935004
-0.9829630656127245
0.04528246833320056
-0.6754948282935004
-0.9829630656127245
0.04528246833320056
-0.6754948282935004
-0.9829630656127245
0.04528246833320056
-0.6754948282935004
-0.9825285557048093
0.03973164769919545
-0.6739987810271013
-0.9825285557048093
0.03973164769919545
-0.6739987810271013
-0.9825285557048093
0.03973164769919545
-0.6739987810271013
-0.9825285557048093
0.03973164769919545
-0.6739987810271013
-0.9835371149070313
0.03379642751697857
-0.6726428287386814
-0.9835371149070313
0.03379642751697857
-0.6726428287386814
-0.9835371149070313
0.03379642751697857
-0.6726428287386814
-0.9835371149070313
0.03379642751697857
-0.6726428287386814
-0.985954382013049
0.028412587342610336
-0.6712112137060594
-0.985954382013049
0.028412587342610336
-0.6712112137060594
-0.985954382013049
0.028412587342610336
-0.6712112137060594
-0.985954382013049
0.028412587342610336
-0.6712112137060594
-0.9877875403200204
0.024540891055852943
-0.6687716900739378
-0.9877875403200204
0.024540891055852943
-0.6687716900739378
-0.9877875403200204
0.024540891055852943
-0.6687716900739378
-0.9877875403200204
0.024540891055852943
-0.6687716900739378
-0.9871307455560493
0.020952969359655522
-0.6665657706559363
-0.9871307455560493
0.020952969359655522
-0.6665657706559363
-0.9871307455560493
0.020952969359655522
-0.6665657706559363
-0.9871307455560493
0.020952969359655522
-0.6665657706559363
-0.9861752610565169
0.017627753072160066
-0.664849935085938
-0.9861752610565169
0.017627753072160066
-0.664849935085938
-0.9861752610565169
0.017627753072160066
-0.664849935085938
-0.9861752610565169
0.017627753072160066
-0.664849935085938
-0.9860999000078187
0.014806268920818074
-0.6633329901086169
-0.9860999000078187
0.014806268920818074
-0.6633329901086169
-0.9860999000078187
0.014806268920818074
-0.6633329901086169
-0.9860999000078187
0.014806268920818074
-0.6633329901086169
-0.9858678247229337
0.011880585922315287
-0.6612763608241454
-0.9858678247229337
0.011880585922315287
-0.6612763608241454
-0.9858678247229337
0.011880585922315287
-0.6612763608241454
-0.9858678247229337
0.011880585922315287
-0.6612763608241454
-0.9869432677685238
0.009349675550265505
-0.6601016244137813
-0.9869432677685238
0.009349675550265505
-0.6601016244137813
-0.9869432677685238
0.009349675550265505
-0.6601016244137813
-0.9869432677685238
0.009349675550265505
-0.6601016244137813
-0.9871156456523202
0.007873060105863564
-0.6591770395920256
-0.9871156456523202
0.007873060105863564
-0.6591770395920256
-0.9871156456523202
0.007873060105863564
-0.6591770395920256
-0.9871156456523202
0.007873060105863564
-0.6591770395920256
-0.9868094917837358
0.0064999042832015845
-0.6583924560548184
-0.9868094917837358
0.0064999042832015845
-0.6583924560548184
-0.9868094917837358
0.0064999042832015845
-0.6583924560548184
-0.9868094917837358
0.0064999042832015845
-0.6583924560548184
-0.9869549775504898
0.00541878697929243
-0.6581186305569399
-0.9869549775504898
0.00541878697929243
-0.6581186305569399
-0.9869549775504898
0.00541878697929243
-0.6581186305569399
-0.9869549775504898
0.00541878697929243
-0.6581186305569399
-0.9873323399015145
0.0050186165389204205
-0.6575554639010444
-0.9873323399015145
0.0050186165389204205
-0.6575554639010444
-0.9873323399015145
0.0050186165389204205
-0.6575554639010444
-0.9873323399015145
0.0050186165389204205
-0.6575554639010444
-0.9873323399015145
0.0050186165389204205
-0.6575554639010444
-0.9873323399015145
0.0050186165389204205
-0.6575554639010444
-0.9873323399015145
0.0050186165389204205
-0.6575554639010444
-0.9873323399015145
0.0050186165389204205
-0.6575554639010444
-0.9868158937410495
0.00519484948059936
-0.6575594131522615
-0.9868158937410495
0.00519484948059936
-0.6575594131522615
-0.9868158937410495
0.00519484948059936
-0.6575594131522615
-0.9868158937410495
0.00519484948059936
-0.6575594131522615
-0.9863691843638084
0.005574516487502314
-0.6576728538483447
-0.9863691843638084
0.005574516487502314
-0.6576728538483447
-0.9863691843638084
0.005574516487502314
-0.6576728538483447
-0.9863691843638084
0.005574516487502314
-0.6576728538483447
-0.9864783731344626
0.006044757379477208
-0.6581018244534718
-0.9864783731344626
0.006044757379477208
-0.6581018244534718
-0.9864783731344626
0.006044757379477208
-0.6581018244534718
-0.9864783731344626
0.006044757379477208
-0.6581018244534718
-0.9863963249515083
0.006466578925672703
-0.6584594647303083
-0.9863963249515083
0.006466578925672703
-0.6584594647303083
-0.9863963249515083
0.006466578925672703
-0.6584594647303083
-0.9863963249515083
0.006466578925672703
-0.6584594647303083
-0.9861946088366558
0.007051338989855303
-0.6585970633807273
-0.9861946088366558
0.007051338989855303
-0.6585970633807273
-0.9861946088366558
0.007051338989855303
-0.6585970633807273
-0.9861946088366558
0.007051338989855303
-0.6585970633807273
-0.9862663166256626
0.007769508905239821
-0.658807568971906
-0.9862663166256626
0.007769508905239821
-0.658807568971906
-0.9862663166256626
0.007769508905239821
-0.658807568971906
-0.9862663166256626
0.007769508905239821
-0.658807568971906
-0.986171403570233
0.008484538794554616
-0.6591913255294822
-0.986171403570233
0.008484538794554616
-0.6591913255294822
-0.986171403570233
0.008484538794554616
-0.6591913255294822
-0.986171403570233
0.008484538794554616
-0.6591913255294822
-0.9859217766271627
0.009078242051341608
-0.6596401195991076
-0.9859217766271627
0.009078242051341608
-0.6596401195991076
-0.9859217766271627
0.009078242051341608
-0.6596401195991076
-0.9859217766271627
0.009078242051341608
-0.6596401195991076
-0.9860489196954341
0.009778057688277676
-0.6598856472321257
-0.9860489196954341
0.009778057688277676
-0.6598856472321257
-0.9860489196954341
0.009778057688277676
-0.6598856472321257
-0.9860489196954341
0.009778057688277676
-0.6598856472321257
-0.9858610293058767
0.010069783767875498
-0.6599966188242394
-0.9858610293058767
0.010069783767875498
-0.6599966188242394
-0.9858610293058767
0.010069783767875498
-0.6599966188242394
-0.9858610293058767
0.010069783767875498
-0.6599966188242394
-0.9858610293058767
0.010069783767875498
-0.6599966188242394
-0.9858610293058767
0.010069783767875498
-0.6599966188242394
-0.9858610293058767
0.010069783767875498
-0.6599966188242394
-0.9858610293058767
0.010069783767875498
-0.6599966188242394
-0.9858961554064876
0.010171422958762572
-0.6600514463430344
-0.9858961554064876
0.010171422958762572
-0.6600514463430344
-0.9858961554064876
0.010171422958762572
-0.6600514463430344
-0.9858961554064876
0.010171422958762572
-0.6600514463430344
-0.9858961554064876
0.010171422958762572
-0.6600514463430344
-0.9858961554064876
0.010171422958762572
-0.6600514463430344
-0.9858961554064876
0.010171422958762572
-0.6600514463430344
-0.9858961554064876
0.010171422958762572
-0.6600514463430344
-0.9864841321968528
0.010023060966714669
-0.6602404480817069
-0.9864841321968528
0.010023060966714669
-0.6602404480817069
-0.9864841321968528
0.010023060966714669
-0.6602404480817069
-0.9864841321968528
0.010023060966714669
-0.6602404480817069
-0.9871553129665277
0.009967468639827991
-0.6601727839689435
-0.9871553129665277
0.009967468639827991
-0.6601727839689435
-0.9871553129665277
0.009967468639827991
-0.6601727839689435
-0.9871553129665277
0.009967468639827991
-0.6601727839689435
-0.9880416636894713
0.010180163998378542
-0.6603401022150518
-0.9880416636894713
0.010180163998378542
-0.6603401022150518
-0.9880416636894713
0.010180163998378542
-0.6603401022150518
-0.9880416636894713
0.010180163998378542
-0.6603401022150518
-0.9880972856089806
0.010851262655981781
-0.6603947655995819
-0.9880972856089806
0.010851262655981781
-0.6603947655995819
-0.9880972856089806
0.010851262655981781
-0.6603947655995819
-0.9880972856089806
0.010851262655981781
-0.6603947655995819
-0.9877087309884711
0.011727782255404575
-0.6606435192309305
-0.9877087309884711
0.011727782255404575
-0.6606435192309305
-0.9877087309884711
0.011727782255404575
-0.6606435192309305
-0.9877087309884711
0.011727782255404575
-0.6606435192309305
-0.9873924328619446
0.01263288095406318
-0.6610836653699619
-0.9873924328619446
0.01263288095406318
-0.6610836653699619
-0.9873924328619446
0.01263288095406318
-0.6610836653699619
-0.9873924328619446
0.01263288095406318
-0.6610836653699619
-0.9879558350393441
0.013759777044142883
-0.6613457916664977
-0.9879558350393441
0.013759777044142883
-0.6613457916664977
-0.9879558350393441
0.013759777044142883
-0.6613457916664977
-0.9879558350393441
0.013759777044142883
-0.6613457916664977
-0.9883155955234795
0.015140202204587784
-0.6613047957137981
-0.9883155955234795
0.015140202204587784
-0.6613047957137981
-0.9883155955234795
0.015140202204587784
-0.6613047957137981
-0.9883155955234795
0.015140202204587784
-0.6613047957137981
-0.9892956966017311
0.016822369678193668
-0.6613466694991293
-0.9892956966017311
0.016822369678193668
-0.6613466694991293
-0.9892956966017311
0.016822369678193668
-0.6613466694991293
-0.9892956966017311
0.016822369678193668
-0.6613466694991293
-0.9899214504332072
0.018976927746467143
-0.6613338197428926
-0.9899214504332072
0.018976927746467143
-0.6613338197428926
-0.9899214504332072
0.018976927746467143
-0.6613338197428926
-0.9899214504332072
0.018976927746467143
-0.6613338197428926
-0.9900863022526767
0.02128212274325834
-0.6616159568744054
-0.9900863022526767
0.02128212274325834
-0.6616159568744054
-0.9900863022526767
0.02128212274325834
-0.6616159568744054
-0.9900863022526767
0.02128212274325834
-0.6616159568744054
-0.9887999041089506
0.023735605012189097
-0.6619537969325262
-0.9887999041089506
0.023735605012189097
-0.6619537969325262
-0.9887999041089506
0.023735605012189097
-0.6619537969325262
-0.9887999041089506
0.023735605012189097
-0.6619537969325262
-0.9882080399013304
0.02652775627977544
-0.6623078930840062
-0.9882080399013304
0.02652775627977544
-0.6623078930840062
-0.9882080399013304
0.02652775627977544
-0.6623078930840062
-0.9882080399013304
0.02652775627977544
-0.6623078930840062
-0.9884075478348521
0.02911782671055537
-0.6623041372825955
-0.9884075478348521
0.02911782671055537
-0.6623041372825955
-0.9884075478348521
0.02911782671055537
-0.6623041372825955
-0.9884075478348521
0.02911782671055537
-0.6623041372825955
-0.9892290949868626
0.03157818447507234
-0.6635158970016414
-0.9892290949868626
0.03157818447507234
-0.6635158970016414
-0.9892290949868626
0.03157818447507234
-0.6635158970016414
-0.9892290949868626
0.03157818447507234
-0.6635158970016414
-0.9869373187821968
0.033291671501535364
-0.6658795973369452
-0.9869373187821968
0.033291671501535364
-0.6658795973369452
-0.9869373187821968
0.033291671501535364
-0.6658795973369452
-0.9869373187821968
0.033291671501535364
-0.6658795973369452
-0.9855600630949288
0.035257991489361665
-0.6688323859380495
-0.9855600630949288
0.035257991489361665
-0.6688323859380495
-0.9855600630949288
0.035257991489361665
-0.6688323859380495
-0.9855600630949288
0.035257991489361665
-0.6688323859380495
-0.984886769598721
0.03784108099304092
-0.6724367617485143
-0.984886769598721
0.03784108099304092
-0.6724367617485143
-0.984886769598721
0.03784108099304092
-0.6724367617485143
-0.984886769598721
0.03784108099304092
-0.6724367617485143
-0.9845137142647704
0.04140465076290663
-0.674294939894632
-0.9845137142647704
0.04140465076290663
-0.674294939894632
-0.9845137142647704
0.04140465076290663
-0.674294939894632
-0.9845137142647704
0.04140465076290663
-0.674294939894632
-0.9812063984011697
0.04446318284163061
-0.6748270729725646
-0.9812063984011697
0.04446318284163061
-0.6748270729725646
-0.9812063984011697
0.04446318284163061
-0.6748270729725646
-0.9812063984011697
0.04446318284163061
-0.6748270729725646
-0.9832851614157017
0.04828659083232104
-0.6760194556072867
-0.9832851614157017
0.04828659083232104
-0.6760194556072867
-0.9832851614157017
0.04828659083232104
-0.6760194556072867
-0.9832851614157017
0.04828659083232104
-0.6760194556072867
-0.9869324512677832
0.05228206729969657
-0.6786842510356469
-0.9869324512677832
0.05228206729969657
-0.6786842510356469
-0.9869324512677832
0.05228206729969657
-0.6786842510356469
-0.9869324512677832
0.05228206729969657
-0.6786842510356469
-0.989251195785108
0.05501674249353776
-0.6806814969840128
-0.989251195785108
0.05501674249353776
-0.6806814969840128
-0.989251195785108
0.05501674249353776
-0.6806814969840128
-0.989251195785108
0.05501674249353776
-0.6806814969840128
-0.9882599432549597
0.055583375236820116
-0.6813443112836601
-0.9882599432549597
0.055583375236820116
-0.6813443112836601
-0.9882599432549597
0.055583375236820116
-0.6813443112836601
-0.9882599432549597
0.055583375236820116
-0.6813443112836601
-0.9835147750540437
0.05649504621228617
-0.6821349729864443
-0.9835147750540437
0.05649504621228617
-0.6821349729864443
-0.9835147750540437
0.05649504621228617
-0.6821349729864443
-0.9835147750540437
0.05649504621228617
-0.6821349729864443
-0.9778550849843103
0.058886708312459964
-0.6831898764382505
-0.9778550849843103
0.058886708312459964
-0.6831898764382505
-0.9778550849843103
0.058886708312459964
-0.6831898764382505
-0.9778550849843103
0.058886708312459964
-0.6831898764382505
-0.9732794301424075
0.06154556426635121
-0.6842406509462813
-0.9732794301424075
0.06154556426635121
-0.6842406509462813
-0.9732794301424075
0.06154556426635121
-0.6842406509462813
-0.9732794301424075
0.06154556426635121
-0.6842406509462813
-0.9708123989672368
0.06386795284227309
-0.6844909464061703
-0.9708123989672368
0.06386795284227309
-0.6844909464061703
-0.9708123989672368
0.06386795284227309
-0.6844909464061703
-0.9708123989672368
0.06386795284227309
-0.6844909464061703
-0.9704665962907824
0.06492539262586453
-0.6838118330898759
-0.9704665962907824
0.06492539262586453
-0.6838118330898759
-0.9704665962907824
0.06492539262586453
-0.6838118330898759
-0.9704665962907824
0.06492539262586453
-0.6838118330898759
-0.9702730550619595
0.0652137027638131
-0.6850906263616462
-0.9702730550619595
0.0652137027638131
-0.6850906263616462
-0.9702730550619595
0.0652137027638131
-0.6850906263616462
-0.9702730550619595
0.0652137027638131
-0.6850906263616462
-0.9694184057921991
0.06580319611968821
-0.685975475957671
-0.9694184057921991
0.06580319611968821
-0.685975475957671
-0.9694184057921991
0.06580319611968821
-0.685975475957671
-0.9694184057921991
0.06580319611968821
-0.685975475957671
-0.9667500816810081
0.06675217255150676
-0.686182018767566
-0.9667500816810081
0.06675217255150676
-0.686182018767566
-0.9667500816810081
0.06675217255150676
-0.686182018767566
-0.9667500816810081
0.06675217255150676
-0.686182018767566
-0.9683410343755959
0.06757398620749488
-0.6866856758558116
-0.9683410343755959
0.06757398620749488
-0.6866856758558116
-0.9683410343755959
0.06757398620749488
-0.6866856758558116
-0.9683410343755959
0.06757398620749488
-0.6866856758558116
-0.9727734228769165
0.06812326382387388
-0.6880939810167139
-0.9727734228769165
0.06812326382387388
-0.6880939810167139
-0.9727734228769165
0.06812326382387388
-0.6880939810167139
-0.9727734228769165
0.06812326382387388
-0.6880939810167139
-0.9755266179460962
0.06875873044202513
-0.6887766237480728
-0.9755266179460962
0.06875873044202513
-0.6887766237480728
-0.9755266179460962
0.06875873044202513
-0.6887766237480728
-0.9755266179460962
0.06875873044202513
-0.6887766237480728
-0.9755849013776996
0.06930454106694975
-0.6896371497552943
-0.9755849013776996
0.06930454106694975
-0.6896371497552943
-0.9755849013776996
0.06930454106694975
-0.6896371497552943
-0.9755849013776996
0.06930454106694975
-0.6896371497552943
-0.9734997273812773
0.07096936140131971
-0.6906397921950276
-0.9734997273812773
0.07096936140131971
-0.6906397921950276
-0.9734997273812773
0.07096936140131971
-0.6906397921950276
-0.9734997273812773
0.07096936140131971
-0.6906397921950276
-0.9737375363875199
0.07268305023957869
-0.6912102837049289
-0.9737375363875199
0.07268305023957869
-0.6912102837049289
-0.9737375363875199
0.07268305023957869
-0.6912102837049289
-0.9737375363875199
0.07268305023957869
-0.6912102837049289
-0.9765767805121226
0.07420842653256483
-0.6917666228207519
-0.9765767805121226
0.07420842653256483
-0.6917666228207519
-0.9765767805121226
0.07420842653256483
-0.6917666228207519
-0.9765767805121226
0.07420842653256483
-0.6917666228207519
-0.9790665694970474
0.07581555535802911
-0.6916106800927312
-0.9790665694970474
0.07581555535802911
-0.6916106800927312
-0.9790665694970474
0.07581555535802911
-0.6916106800927312
-0.9790665694970474
0.07581555535802911
-0.6916106800927312
-0.9776319653391214
0.07668330556553381
-0.6914752463784151
-0.9776319653391214
0.07668330556553381
-0.6914752463784151
-0.9776319653391214
0.07668330556553381
-0.6914752463784151
-0.9776319653391214
0.07668330556553381
-0.6914752463784151
-0.9734654349864267
0.07770768756801265
-0.6925483994872026
-0.9734654349864267
0.07770768756801265
-0.6925483994872026
-0.9734654349864267
0.07770768756801265
-0.6925483994872026
-0.9734654349864267
0.07770768756801265
-0.6925483994872026
-0.9726073356625177
0.07853656820834147
-0.6926366778681476
-0.9726073356625177
0.07853656820834147
-0.6926366778681476
-0.9726073356625177
0.07853656820834147
-0.6926366778681476
-0.9726073356625177
0.07853656820834147
-0.6926366778681476
-0.9753319024321084
0.07964411631724952
-0.6926675864178872
-0.9753319024321084
0.07964411631724952
-0.6926675864178872
-0.9753319024321084
0.07964411631724952
-0.6926675864178872
-0.9753319024321084
0.07964411631724952
-0.6926675864178872
-0.976905107328293
0.08123010836310651
-0.6928951570462467
-0.976905107328293
0.08123010836310651
-0.6928951570462467
-0.976905107328293
0.08123010836310651
-0.6928951570462467
-0.976905107328293
0.08123010836310651
-0.6928951570462467
-0.9759296919655314
0.08285905437383129
-0.6929651140244424
-0.9759296919655314
0.08285905437383129
-0.6929651140244424
-0.9759296919655314
0.08285905437383129
-0.6929651140244424
-0.9759296919655314
0.08285905437383129
-0.6929651140244424
-0.9745595239450924
0.08398787377738598
-0.6934019449266342
-0.9745595239450924
0.08398787377738598
-0.6934019449266342
-0.9745595239450924
0.08398787377738598
-0.6934019449266342
-0.9745595239450924
0.08398787377738598
-0.6934019449266342
-0.9740284420736326
0.08493499267756657
-0.6933503696591252
-0.9740284420736326
0.08493499267756657
-0.6933503696591252
-0.9740284420736326
0.08493499267756657
-0.6933503696591252
-0.9740284420736326
0.08493499267756657
-0.6933503696591252
-0.9745288394227561
0.08563233514303206
-0.6925242016769921
-0.9745288394227561
0.08563233514303206
-0.6925242016769921
-0.9745288394227561
0.08563233514303206
-0.6925242016769921
-0.9745288394227561
0.08563233514303206
-0.6925242016769921
-0.9744406000149858
0.08561211511758748
-0.6920714876658194
-0.9744406000149858
0.08561211511758748
-0.6920714876658194
-0.9744406000149858
0.08561211511758748
-0.6920714876658194
-0.9744406000149858
0.08561211511758748
-0.6920714876658194
-0.974672592127265
0.08564499474190285
-0.6918394955535402
-0.974672592127265
0.08564499474190285
-0.6918394955535402
-0.974672592127265
0.08564499474190285
-0.6918394955535402
-0.974672592127265
0.08564499474190285
-0.6918394955535402
-0.9755410329685026
0.0846356841163233
-0.6920950467932865
-0.9755410329685026
0.0846356841163233
-0.6920950467932865
-0.9755410329685026
0.0846356841163233
-0.6920950467932865
-0.9755410329685026
0.0846356841163233
-0.6920950467932865
-0.9755458524612785
0.08421826997670696
-0.6928791949266668
-0.9755458524612785
0.08421826997670696
-0.6928791949266668
-0.9755458524612785
0.08421826997670696
-0.6928791949266668
-0.9755458524612785
0.08421826997670696
-0.6928791949266668
-0.9754176330942389
0.08426868571966563
-0.6922867088073064
-0.9754176330942389
0.08426868571966563
-0.6922867088073064
-0.9754176330942389
0.08426868571966563
-0.6922867088073064
-0.9754176330942389
0.08426868571966563
-0.6922867088073064
-0.9774223100766863
0.08402557491840594
-0.6911740922952134
-0.9774223100766863
0.08402557491840594
-0.6911740922952134
-0.9774223100766863
0.08402557491840594
-0.6911740922952134
-0.9774223100766863
0.08402557491840594
-0.6911740922952134
-0.9779500788872642
0.08378205509930205
-0.6907231656935052
-0.9779500788872642
0.08378205509930205
-0.6907231656935052
-0.9779500788872642
0.08378205509930205
-0.6907231656935052
-0.9779500788872642
0.08378205509930205
-0.6907231656935052
-0.9776438245644025
0.08395551425995161
-0.6903176443073242
-0.9776438245644025
0.08395551425995161
-0.6903176443073242
-0.9776438245644025
0.08395551425995161
-0.6903176443073242
-0.9776438245644025
0.08395551425995161
-0.6903176443073242
-0.977744694440051
0.0839168185308776
-0.6903024672314589
-0.977744694440051
0.0839168185308776
-0.6903024672314589
-0.977744694440051
0.0839168185308776
-0.6903024672314589
-0.977744694440051
0.0839168185308776
-0.6903024672314589
-0.9788464950172446
0.08444101763645759
-0.6911233783385343
-0.9788464950172446
0.08444101763645759
-0.6911233783385343
-0.9788464950172446
0.08444101763645759
-0.6911233783385343
-0.9788464950172446
0.08444101763645759
-0.6911233783385343
-0.980719849753841
0.08440173635971736
-0.691686938886331
-0.980719849753841
0.08440173635971736
-0.691686938886331
-0.980719849753841
0.08440173635971736
-0.691686938886331
-0.980719849753841
0.08440173635971736
-0.691686938886331
-0.9830062198986768
0.08328468484727533
-0.6920465362549394
-0.9830062198986768
0.08328468484727533
-0.6920465362549394
-0.9830062198986768
0.08328468484727533
-0.6920465362549394
-0.9830062198986768
0.08328468484727533
-0.6920465362549394
-0.9836516804247696
0.08288785580187584
-0.6915623056361223
-0.9836516804247696
0.08288785580187584
-0.6915623056361223
-0.9836516804247696
0.08288785580187584
-0.6915623056361223
-0.9836516804247696
0.08288785580187584
-0.6915623056361223
-0.9827561432573717
0.0827982553939529
-0.691728432515099
-0.9827561432573717
0.0827982553939529
-0.691728432515099
-0.9827561432573717
0.0827982553939529
-0.691728432515099
-0.9827561432573717
0.0827982553939529
-0.691728432515099
-0.9815997561385056
0.08267688045409513
-0.6926954908087917
-0.9815997561385056
0.08267688045409513
-0.6926954908087917
-0.9815997561385056
0.08267688045409513
-0.6926954908087917
-0.9815997561385056
0.08267688045409513
-0.6926954908087917
-0.9829126964068811
0.08219879313039734
-0.6933433406255617
-0.9829126964068811
0.08219879313039734
-0.6933433406255617
-0.9829126964068811
0.08219879313039734
-0.6933433406255617
-0.9829126964068811
0.08219879313039734
-0.6933433406255617
-0.984095868819381
0.08166037646368794
-0.6930311166953758
-0.984095868819381
0.08166037646368794
-0.6930311166953758
-0.984095868819381
0.08166037646368794
-0.6930311166953758
-0.984095868819381
0.08166037646368794
-0.6930311166953758
-0.9855906631846598
0.08118551746982305
-0.6926813311374543
-0.9855906631846598
0.08118551746982305
-0.6926813311374543
-0.9855906631846598
0.08118551746982305
-0.6926813311374543
-0.9855906631846598
0.08118551746982305
-0.6926813311374543
-0.9847011128544958
0.08133461086565166
-0.6924067310857455
-0.9847011128544958
0.08133461086565166
-0.6924067310857455
-0.9847011128544958
0.08133461086565166
-0.6924067310857455
-0.9847011128544958
0.08133461086565166
-0.6924067310857455
-0.9842413935377045
0.08196017887212867
-0.6926300913717124
-0.9842413935377045
0.08196017887212867
-0.6926300913717124
-0.9842413935377045
0.08196017887212867
-0.6926300913717124
-0.9842413935377045
0.08196017887212867
-0.6926300913717124
-0.9848509399666635
0.08214321801054249
-0.6930244788308284
-0.9848509399666635
0.08214321801054249
-0.6930244788308284
-0.9848509399666635
0.08214321801054249
-0.6930244788308284
-0.9848509399666635
0.08214321801054249
-0.6930244788308284
-0.9863231430654968
0.08219133155738567
-0.6930864527737887
-0.9863231430654968
0.08219133155738567
-0.6930864527737887
-0.9863231430654968
0.08219133155738567
-0.6930864527737887
-0.9863231430654968
0.08219133155738567
-0.6930864527737887
-0.9874854383852405
0.08200464425624929
-0.6932685330079092
-0.9874854383852405
0.08200464425624929
-0.6932685330079092
-0.9874854383852405
0.08200464425624929
-0.6932685330079092
-0.9874854383852405
0.08200464425624929
-0.6932685330079092
-0.9871049188557034
0.08237545552243056
-0.6934039035116938
-0.9871049188557034
0.08237545552243056
-0.6934039035116938
-0.9871049188557034
0.08237545552243056
-0.6934039035116938
-0.9871049188557034
0.08237545552243056
-0.6934039035116938
-0.9871049188557034
0.08237545552243056
-0.6934039035116938
-0.9871049188557034
0.08237545552243056
-0.6934039035116938
-0.9871049188557034
0.08237545552243056
-0.6934039035116938
-0.9871049188557034
0.08237545552243056
-0.6934039035116938
-0.9870043632599316
0.08241419548510785
-0.6934194261913224
-0.9870043632599316
0.08241419548510785
-0.6934194261913224
-0.9870043632599316
0.08241419548510785
-0.6934194261913224
-0.9870043632599316
0.08241419548510785
-0.6934194261913224
-0.9876991578035973
0.08250182798180886
-0.6938992413761993
-0.9876991578035973
0.08250182798180886
-0.6938992413761993
-0.9876991578035973
0.08250182798180886
-0.6938992413761993
-0.9876991578035973
0.08250182798180886
-0.6938992413761993
-0.9896878697199667
0.08247466733038035
-0.6943447052895565
-0.9896878697199667
0.08247466733038035
-0.6943447052895565
-0.9896878697199667
0.08247466733038035
-0.6943447052895565
-0.9896878697199667
0.08247466733038035
-0.6943447052895565
-0.9905781519069706
0.08260705891407871
-0.6949041114062968
-0.9905781519069706
0.08260705891407871
-0.6949041114062968
-0.9905781519069706
0.08260705891407871
-0.6949041114062968
-0.9905781519069706
0.08260705891407871
-0.6949041114062968
-0.9913447875481759
0.08273376884224211
-0.695322626197687
-0.9913447875481759
0.08273376884224211
-0.695322626197687
-0.9913447875481759
0.08273376884224211
-0.695322626197687
-0.9913447875481759
0.08273376884224211
-0.695322626197687
-0.9904101479180588
0.08336275680698492
-0.6953037920404501
-0.9904101479180588
0.08336275680698492
-0.6953037920404501
-0.9904101479180588
0.08336275680698492
-0.6953037920404501
-0.9904101479180588
0.08336275680698492
-0.6953037920404501
-0.9904585337144575
0.08327922956493798
-0.6957002222682532
-0.9904585337144575
0.08327922956493798
-0.6957002222682532
-0.9904585337144575
0.08327922956493798
-0.6957002222682532
-0.9904585337144575
0.08327922956493798
-0.6957002222682532
-0.9913862294372741
0.08294503155333902
-0.6957467480847026
-0.9913862294372741
0.08294503155333902
-0.6957467480847026
-0.9913862294372741
0.08294503155333902
-0.6957467480847026
-0.9913862294372741
0.08294503155333902
-0.6957467480847026
-0.9913862294372741
0.08294503155333902
-0.6957467480847026
-0.9913862294372741
0.08294503155333902
-0.6957467480847026
-0.9913862294372741
0.08294503155333902
-0.6957467480847026
-0.9913862294372741
0.08294503155333902
-0.6957467480847026
-0.9906761911066301
0.08226828807408454
-0.6957800277733928
-0.9906761911066301
0.08226828807408454
-0.6957800277733928
-0.9906761911066301
0.08226828807408454
-0.6957800277733928
-0.9906761911066301
0.08226828807408454
-0.6957800277733928
-0.9913700686447354
0.08207131474436684
-0.6959751037067664
-0.9913700686447354
0.08207131474436684
-0.6959751037067664
-0.9913700686447354
0.08207131474436684
-0.6959751037067664
-0.9913700686447354
0.08207131474436684
-0.6959751037067664
-0.9924294496515367
0.08181030938264491
-0.6958044696587412
-0.9924294496515367
0.08181030938264491
-0.6958044696587412
-0.9924294496515367
0.08181030938264491
-0.6958044696587412
-0.9924294496515367
0.08181030938264491
-0.6958044696587412
-0.9928025232816721
0.08173434196877348
-0.6956958606565307
-0.9928025232816721
0.08173434196877348
-0.6956958606565307
-0.9928025232816721
0.08173434196877348
-0.6956958606565307
-0.9928025232816721
0.08173434196877348
-0.6956958606565307
-0.9922490748311373
0.08100310733564199
-0.6957522429971172
-0.9922490748311373
0.08100310733564199
-0.6957522429971172
-0.9922490748311373
0.08100310733564199
-0.6957522429971172
-0.9922490748311373
0.08100310733564199
-0.6957522429971172
-0.9931061433833236
0.0804565827252635
-0.6959418060813796
-0.9931061433833236
0.0804565827252635
-0.6959418060813796
-0.9931061433833236
0.0804565827252635
-0.6959418060813796
-0.9931061433833236
0.0804565827252635
-0.6959418060813796
-0.9936815032020742
0.08013124197329873
-0.6958841842554477
-0.9936815032020742
0.08013124197329873
-0.6958841842554477
-0.9936815032020742
0.08013124197329873
-0.6958841842554477
-0.9936815032020742
0.08013124197329873
-0.6958841842554477
-0.9935811754472719
0.08016999391749856
-0.6959000155449486
-0.9935811754472719
0.08016999391749856
-0.6959000155449486
-0.9935811754472719
0.08016999391749856
-0.6959000155449486
-0.9935811754472719
0.08016999391749856
-0.6959000155449486
-0.9936358810547736
0.08032611992479143
-0.6958559858357791
-0.9936358810547736
0.08032611992479143
-0.6958559858357791
-0.9936358810547736
0.08032611992479143
-0.6958559858357791
-0.9936358810547736
0.08032611992479143
-0.6958559858357791
-0.9941162657069484
0.08045184077723558
-0.6952910895912722
-0.9941162657069484
0.08045184077723558
-0.6952910895912722
-0.9941162657069484
0.08045184077723558
-0.6952910895912722
-0.9941162657069484
0.08045184077723558
-0.6952910895912722
-0.9935472417570755
0.08019945546201261
-0.6950355457599509
-0.9935472417570755
0.08019945546201261
-0.6950355457599509
-0.9935472417570755
0.08019945546201261
-0.6950355457599509
-0.9935472417570755
0.08019945546201261
-0.6950355457599509
-0.994506351869808
0.07944244400526028
-0.6952913740602891
-0.994506351869808
0.07944244400526028
-0.6952913740602891
-0.994506351869808
0.07944244400526028
-0.6952913740602891
-0.994506351869808
0.07944244400526028
-0.6952913740602891
-0.9960481398567744
0.07888314613921332
-0.6953334543444667
-0.9960481398567744
0.07888314613921332
-0.6953334543444667
-0.9960481398567744
0.07888314613921332
-0.6953334543444667
-0.9960481398567744
0.07888314613921332
-0.6953334543444667
-0.9964064448385654
0.0783258352239344
-0.6961038451520337
-0.9964064448385654
0.0783258352239344
-0.6961038451520337
-0.9964064448385654
0.0783258352239344
-0.6961038451520337
-0.9964064448385654
0.0783258352239344
-0.6961038451520337
-0.9961435350415094
0.07800629148020398
-0.6966195251995543
-0.9961435350415094
0.07800629148020398
-0.6966195251995543
-0.9961435350415094
0.07800629148020398
-0.6966195251995543
-0.9961435350415094
0.07800629148020398
-0.6966195251995543
-0.9970304096494867
0.07774368361054745
-0.696523597538288
-0.9970304096494867
0.07774368361054745
-0.696523597538288
-0.9970304096494867
0.07774368361054745
-0.696523597538288
-0.9970304096494867
0.07774368361054745
-0.696523597538288
-0.9971870511228944
0.07768900265172306
-0.6965463684050168
-0.9971870511228944
0.07768900265172306
-0.6965463684050168
-0.9971870511228944
0.07768900265172306
-0.6965463684050168
-0.9971870511228944
0.07768900265172306
-0.6965463684050168
-0.996080191603736
0.07775232840707341
-0.6960384458869749
-0.996080191603736
0.07775232840707341
-0.6960384458869749
-0.996080191603736
0.07775232840707341
-0.6960384458869749
-0.996080191603736
0.07775232840707341
-0.6960384458869749
-0.995792180454243
0.07826876693655437
-0.6958207187057327
-0.995792180454243
0.07826876693655437
-0.6958207187057327
-0.995792180454243
0.07826876693655437
-0.6958207187057327
-0.995792180454243
0.07826876693655437
-0.6958207187057327
-0.9949883014890298
0.07886117566510881
-0.6952208610494995
-0.9949883014890298
0.07886117566510881
-0.6952208610494995
-0.9949883014890298
0.07886117566510881
-0.6952208610494995
-0.9949883014890298
0.07886117566510881
-0.6952208610494995
-0.9937015763495647
0.07921644859847607
-0.6948176783606734
-0.9937015763495647
0.07921644859847607
-0.6948176783606734
-0.9937015763495647
0.07921644859847607
-0.6948176783606734
-0.9937015763495647
0.07921644859847607
-0.6948176783606734
-0.9935660737840121
0.07973918214414966
-0.6941712940926883
-0.9935660737840121
0.07973918214414966
-0.6941712940926883
-0.9935660737840121
0.07973918214414966
-0.6941712940926883
-0.9935660737840121
0.07973918214414966
-0.6941712940926883
-0.9941779409406138
0.08019164615749882
-0.6926925285604906
-0.9941779409406138
0.08019164615749882
-0.6926925285604906
-0.9941779409406138
0.08019164615749882
-0.6926925285604906
-0.9941779409406138
0.08019164615749882
-0.6926925285604906
-0.9939056484762737
0.07912791697369492
-0.6926276075895266
-0.9939056484762737
0.07912791697369492
-0.6926276075895266
-0.9939056484762737
0.07912791697369492
-0.6926276075895266
-0.9939056484762737
0.07912791697369492
-0.6926276075895266
-0.9971456746057488
0.07838475643891679
-0.6919542722360088
-0.9971456746057488
0.07838475643891679
-0.6919542722360088
-0.9971456746057488
0.07838475643891679
-0.6919542722360088
-0.9971456746057488
0.07838475643891679
-0.6919542722360088
-0.999742950995575
0.07699426060458259
-0.6889976407351598
-0.999742950995575
0.07699426060458259
-0.6889976407351598
-0.999742950995575
0.07699426060458259
-0.6889976407351598
-0.999742950995575
0.07699426060458259
-0.6889976407351598
-1.0019994905122431
0.07381039062464703
-0.6862663482880781
-1.0019994905122431
0.07381039062464703
-0.6862663482880781
-1.0019994905122431
0.07381039062464703
-0.6862663482880781
-1.0019994905122431
0.07381039062464703
-0.6862663482880781
-1.0028341954302225
0.07007754384143573
-0.6843909967851152
-1.0028341954302225
0.07007754384143573
-0.6843909967851152
-1.0028341954302225
0.07007754384143573
-0.6843909967851152
-1.0028341954302225
0.07007754384143573
-0.6843909967851152
-1.0031802861950603
0.0662538413135569
-0.6838058368935941
-1.0031802861950603
0.0662538413135569
-0.6838058368935941
-1.0031802861950603
0.0662538413135569
-0.6838058368935941
-1.0031802861950603
0.0662538413135569
-0.6838058368935941
-1.0039193681773324
0.06301524161830473
-0.6821475091539748
-1.0039193681773324
0.06301524161830473
-0.6821475091539748
-1.0039193681773324
0.06301524161830473
-0.6821475091539748
-1.0039193681773324
0.06301524161830473
-0.6821475091539748
-1.0060481140409256
0.059630833735738464
-0.6788310690963666
-1.0060481140409256
0.059630833735738464
-0.6788310690963666
-1.0060481140409256
0.059630833735738464
-0.6788310690963666
-1.0060481140409256
0.059630833735738464
-0.6788310690963666
-1.0051185336187631
0.055916857813398786
-0.6741962337366622
-1.0051185336187631
0.055916857813398786
-0.6741962337366622
-1.0051185336187631
0.055916857813398786
-0.6741962337366622
-1.0051185336187631
0.055916857813398786
-0.6741962337366622
-1.002076349835267
0.051930197250735416
-0.6706245092718017
-1.002076349835267
0.051930197250735416
-0.6706245092718017
-1.002076349835267
0.051930197250735416
-0.6706245092718017
-1.002076349835267
0.051930197250735416
-0.6706245092718017
-0.9974972810217875
0.04813092799274938
-0.6687093302793127
-0.9974972810217875
0.04813092799274938
-0.6687093302793127
-0.9974972810217875
0.04813092799274938
-0.6687093302793127
-0.9974972810217875
0.04813092799274938
-0.6687093302793127
-0.9934806836513607
0.044694369966827685
-0.6674243544498489
-0.9934806836513607
0.044694369966827685
-0.6674243544498489
-0.9934806836513607
0.044694369966827685
-0.6674243544498489
-0.9934806836513607
0.044694369966827685
-0.6674243544498489
-0.9906741967164265
0.04098100166212585
-0.6651172415508091
-0.9906741967164265
0.04098100166212585
-0.6651172415508091
-0.9906741967164265
0.04098100166212585
-0.6651172415508091
-0.9906741967164265
0.04098100166212585
-0.6651172415508091
-0.9862293824276449
0.036396418352757504
-0.6621415348350013
-0.9862293824276449
0.036396418352757504
-0.6621415348350013
-0.9862293824276449
0.036396418352757504
-0.6621415348350013
-0.9862293824276449
0.036396418352757504
-0.6621415348350013
-0.9783207510863079
0.030917794374346705
-0.6589539773638174
-0.9783207510863079
0.030917794374346705
-0.6589539773638174
-0.9783207510863079
0.030917794374346705
-0.6589539773638174
-0.9783207510863079
0.030917794374346705
-0.6589539773638174
-0.9705445582850736
0.025352922879914735
-0.6569146403671761
-0.9705445582850736
0.025352922879914735
-0.6569146403671761
-0.9705445582850736
0.025352922879914735
-0.6569146403671761
-0.9705445582850736
0.025352922879914735
-0.6569146403671761
-0.964588785756751
0.019610181579627826
-0.6558158517886973
-0.964588785756751
0.019610181579627826
-0.6558158517886973
-0.964588785756751
0.019610181579627826
-0.6558158517886973
-0.964588785756751
0.019610181579627826
-0.6558158517886973
-0.9594755345889894
0.014260218647452487
-0.6554025259484718
-0.9594755345889894
0.014260218647452487
-0.6554025259484718
-0.9594755345889894
0.014260218647452487
-0.6554025259484718
-0.9594755345889894
0.014260218647452487
-0.6554025259484718
-0.9576795814921947
0.008820776407013349
-0.6549958941511864
-0.9576795814921947
0.008820776407013349
-0.6549958941511864
-0.9576795814921947
0.008820776407013349
-0.6549958941511864
-0.9576795814921947
0.008820776407013349
-0.6549958941511864
-0.9578883685710299
0.0033366569955347635
-0.6544983645349606
-0.9578883685710299
0.0033366569955347635
-0.6544983645349606
-0.9578883685710299
0.0033366569955347635
-0.6544983645349606
-0.9578883685710299
0.0033366569955347635
-0.6544983645349606
-0.9590020943722956
-0.0015245758449349601
-0.6536291340612057
-0.9590020943722956
-0.0015245758449349601
-0.6536291340612057
-0.9590020943722956
-0.0015245758449349601
-0.6536291340612057
-0.9590020943722956
-0.0015245758449349601
-0.6536291340612057
-0.9605175675463501
-0.005729946265318732
-0.653748302253983
-0.9605175675463501
-0.005729946265318732
-0.653748302253983
-0.9605175675463501
-0.005729946265318732
-0.653748302253983
-0.9605175675463501
-0.005729946265318732
-0.653748302253983
-0.9609769291163666
-0.009310525466997501
-0.6550162399104267
-0.9609769291163666
-0.009310525466997501
-0.6550162399104267
-0.9609769291163666
-0.009310525466997501
-0.6550162399104267
-0.9609769291163666
-0.009310525466997501
-0.6550162399104267
-0.9606522078972041
-0.01314852652719751
-0.656455963222459
-0.9606522078972041
-0.01314852652719751
-0.656455963222459
-0.9606522078972041
-0.01314852652719751
-0.656455963222459
-0.9606522078972041
-0.01314852652719751
-0.656455963222459
-0.960146207560772
-0.01718153403960585
-0.6561862950526561
-0.960146207560772
-0.01718153403960585
-0.6561862950526561
-0.960146207560772
-0.01718153403960585
-0.6561862950526561
-0.960146207560772
-0.01718153403960585
-0.6561862950526561
-0.9605240356829288
-0.02133443139629316
-0.6555443521709909
-0.9605240356829288
-0.02133443139629316
-0.6555443521709909
-0.9605240356829288
-0.02133443139629316
-0.6555443521709909
-0.9605240356829288
-0.02133443139629316
-0.6555443521709909
-0.962112698221141
-0.024127379362804874
-0.6556866193539066
-0.962112698221141
-0.024127379362804874
-0.6556866193539066
-0.962112698221141
-0.024127379362804874
-0.6556866193539066
-0.962112698221141
-0.024127379362804874
-0.6556866193539066
-0.96271645786568
-0.02589964261035365
-0.6561483540193677
-0.96271645786568
-0.02589964261035365
-0.6561483540193677
-0.96271645786568
-0.02589964261035365
-0.6561483540193677
-0.96271645786568
-0.02589964261035365
-0.6561483540193677
-0.9618273304284599
-0.026301109916251824
-0.6566885675432799
-0.9618273304284599
-0.026301109916251824
-0.6566885675432799
-0.9618273304284599
-0.026301109916251824
-0.6566885675432799
-0.9618273304284599
-0.026301109916251824
-0.6566885675432799
-0.9606526282200138
-0.02584581832257324
-0.6568490416496835
-0.9606526282200138
-0.02584581832257324
-0.6568490416496835
-0.9606526282200138
-0.02584581832257324
-0.6568490416496835
-0.9606526282200138
-0.02584581832257324
-0.6568490416496835
-0.9603257704016528
-0.02527856396444776
-0.6571046100907876
-0.9603257704016528
-0.02527856396444776
-0.6571046100907876
-0.9603257704016528
-0.02527856396444776
-0.6571046100907876
-0.9603257704016528
-0.02527856396444776
-0.6571046100907876
-0.9593996371408834
-0.02461532197437068
-0.6570236084491976
-0.9593996371408834
-0.02461532197437068
-0.6570236084491976
-0.9593996371408834
-0.02461532197437068
-0.6570236084491976
-0.9593996371408834
-0.02461532197437068
-0.6570236084491976
-0.9587669593649182
-0.02376238404522899
-0.656906210140742
-0.9587669593649182
-0.02376238404522899
-0.656906210140742
-0.9587669593649182
-0.02376238404522899
-0.656906210140742
-0.9587669593649182
-0.02376238404522899
-0.656906210140742
-0.9587041801445962
-0.022762334936004252
-0.656991969862821
-0.9587041801445962
-0.022762334936004252
-0.656991969862821
-0.9587041801445962
-0.022762334936004252
-0.656991969862821
-0.9587041801445962
-0.022762334936004252
-0.656991969862821
-0.9590030237093884
-0.02154213112200408
-0.6572322627522185
-0.9590030237093884
-0.02154213112200408
-0.6572322627522185
-0.9590030237093884
-0.02154213112200408
-0.6572322627522185
-0.9590030237093884
-0.02154213112200408
-0.6572322627522185
-0.9588006399006169
-0.020096120496502258
-0.6576365912523618
-0.9588006399006169
-0.020096120496502258
-0.6576365912523618
-0.9588006399006169
-0.020096120496502258
-0.6576365912523618
-0.9588006399006169
-0.020096120496502258
-0.6576365912523618
-0.9587589684007434
-0.01852574423075966
-0.6577133919658634
-0.9587589684007434
-0.01852574423075966
-0.6577133919658634
-0.9587589684007434
-0.01852574423075966
-0.6577133919658634
-0.9587589684007434
-0.01852574423075966
-0.6577133919658634
-0.9590284418949389
-0.0172303112773106
-0.6575587948060767
-0.9590284418949389
-0.0172303112773106
-0.6575587948060767
-0.9590284418949389
-0.0172303112773106
-0.6575587948060767
-0.9590284418949389
-0.0172303112773106
-0.6575587948060767
-0.959278705809171
-0.015987860147637006
-0.6575072007158055
-0.959278705809171
-0.015987860147637006
-0.6575072007158055
-0.959278705809171
-0.015987860147637006
-0.6575072007158055
-0.959278705809171
-0.015987860147637006
-0.6575072007158055
-0.9594760107876227
-0.014733315811171833
-0.6577677794020251
-0.9594760107876227
-0.014733315811171833
-0.6577677794020251
-0.9594760107876227
-0.014733315811171833
-0.6577677794020251
-0.9594760107876227
-0.014733315811171833
-0.6577677794020251
-0.9589465236238853
-0.013747099555898042
-0.6578906330365829
-0.9589465236238853
-0.013747099555898042
-0.6578906330365829
-0.9589465236238853
-0.013747099555898042
-0.6578906330365829
-0.9589465236238853
-0.013747099555898042
-0.6578906330365829
-0.9586943297173597
-0.012795938492912277
-0.6579073016529625
-0.9586943297173597
-0.012795938492912277
-0.6579073016529625
-0.9586943297173597
-0.012795938492912277
-0.6579073016529625
-0.9586943297173597
-0.012795938492912277
-0.6579073016529625
-0.9599288214879035
-0.011715763151976947
-0.6578136861044954
-0.9599288214879035
-0.011715763151976947
-0.6578136861044954
-0.9599288214879035
-0.011715763151976947
-0.6578136861044954
-0.9599288214879035
-0.011715763151976947
-0.6578136861044954
-0.9619743485324382
-0.010455068827444017
-0.65794454950623
-0.9619743485324382
-0.010455068827444017
-0.65794454950623
-0.9619743485324382
-0.010455068827444017
-0.65794454950623
-0.9619743485324382
-0.010455068827444017
-0.65794454950623
-0.9635552016045619
-0.00920458361170794
-0.6578556124184698
-0.9635552016045619
-0.00920458361170794
-0.6578556124184698
-0.9635552016045619
-0.00920458361170794
-0.6578556124184698
-0.9635552016045619
-0.00920458361170794
-0.6578556124184698
-0.964809894581401
-0.007554118028168858
-0.657759810545526
-0.964809894581401
-0.007554118028168858
-0.657759810545526
-0.964809894581401
-0.007554118028168858
-0.657759810545526
-0.964809894581401
-0.007554118028168858
-0.657759810545526
-0.9650131549026921
-0.005941952399427409
-0.6573407721960403
-0.9650131549026921
-0.005941952399427409
-0.6573407721960403
-0.9650131549026921
-0.005941952399427409
-0.6573407721960403
-0.9650131549026921
-0.005941952399427409
-0.6573407721960403
-0.9659413175670982
-0.004228540263101003
-0.6568014482150903
-0.9659413175670982
-0.004228540263101003
-0.6568014482150903
-0.9659413175670982
-0.004228540263101003
-0.6568014482150903
-0.9659413175670982
-0.004228540263101003
-0.6568014482150903
-0.9683381878631498
-0.002095992702715778
-0.6564431263538012
-0.9683381878631498
-0.002095992702715778
-0.6564431263538012
-0.9683381878631498
-0.002095992702715778
-0.6564431263538012
-0.9683381878631498
-0.002095992702715778
-0.6564431263538012
-0.9708221484527397
2.956893789365015E-4
-0.6560955521434104
-0.9708221484527397
2.956893789365015E-4
-0.6560955521434104
-0.9708221484527397
2.956893789365015E-4
-0.6560955521434104
-0.9708221484527397
2.956893789365015E-4
-0.6560955521434104
-0.9735316680855893
0.003019877558433639
-0.6555375344750589
-0.9735316680855893
0.003019877558433639
-0.6555375344750589
-0.9735316680855893
0.003019877558433639
-0.6555375344750589
-0.9735316680855893
0.003019877558433639
-0.6555375344750589
-0.9762783261346131
0.006013988109206767
-0.6553048198027734
-0.9762783261346131
0.006013988109206767
-0.6553048198027734
-0.9762783261346131
0.006013988109206767
-0.6553048198027734
-0.9762783261346131
0.006013988109206767
-0.6553048198027734
-0.9787413318871082
0.00947242114568659
-0.656593500505773
-0.9787413318871082
0.00947242114568659
-0.656593500505773
-0.9787413318871082
0.00947242114568659
-0.656593500505773
-0.9787413318871082
0.00947242114568659
-0.656593500505773
-0.9758063619927009
0.012077474540671058
-0.6596125267359525
-0.9758063619927009
0.012077474540671058
-0.6596125267359525
-0.9758063619927009
0.012077474540671058
-0.6596125267359525
-0.9758063619927009
0.012077474540671058
-0.6596125267359525
-0.9738613807485851
0.014954845121732913
-0.664260704403139
-0.9738613807485851
0.014954845121732913
-0.664260704403139
-0.9738613807485851
0.014954845121732913
-0.664260704403139
-0.9738613807485851
0.014954845121732913
-0.664260704403139
-0.9778792376227315
0.018676246426914248
-0.668479493721708
-0.9778792376227315
0.018676246426914248
-0.668479493721708
-0.9778792376227315
0.018676246426914248
-0.668479493721708
-0.9778792376227315
0.018676246426914248
-0.668479493721708
-0.9825713471061608
0.022716785625532105
-0.6708485723259918
-0.9825713471061608
0.022716785625532105
-0.6708485723259918
-0.9825713471061608
0.022716785625532105
-0.6708485723259918
-0.9825713471061608
0.022716785625532105
-0.6708485723259918
-0.9856308272092705
0.026153352050271434
-0.6712618131669691
-0.9856308272092705
0.026153352050271434
-0.6712618131669691
-0.9856308272092705
0.026153352050271434
-0.6712618131669691
-0.9856308272092705
0.026153352050271434
-0.6712618131669691
-0.9884601366480787
0.0291752169372002
-0.6728605449580488
-0.9884601366480787
0.0291752169372002
-0.6728605449580488
-0.9884601366480787
0.0291752169372002
-0.6728605449580488
-0.9884601366480787
0.0291752169372002
-0.6728605449580488
-0.9882872628801321
0.031681376434114616
-0.674646145599112
-0.9882872628801321
0.031681376434114616
-0.674646145599112
-0.9882872628801321
0.031681376434114616
-0.674646145599112
-0.9882872628801321
0.031681376434114616
-0.674646145599112
-0.9878632215396098
0.034533926252848485
-0.6753832506835789
-0.9878632215396098
0.034533926252848485
-0.6753832506835789
-0.9878632215396098
0.034533926252848485
-0.6753832506835789
-0.9878632215396098
0.034533926252848485
-0.6753832506835789
-0.9875805237190909
0.036817521239357054
-0.6759473228029972
-0.9875805237190909
0.036817521239357054
-0.6759473228029972
-0.9875805237190909
0.036817521239357054
-0.6759473228029972
-0.9875805237190909
0.036817521239357054
-0.6759473228029972
-0.987023424784992
0.03897249313499035
-0.6764346181214734
-0.987023424784992
0.03897249313499035
-0.6764346181214734
-0.987023424784992
0.03897249313499035
-0.6764346181214734
-0.987023424784992
0.03897249313499035
-0.6764346181214734
-0.9814319889845528
0.042046707398453224
-0.6759060388046929
-0.9814319889845528
0.042046707398453224
-0.6759060388046929
-0.9814319889845528
0.042046707398453224
-0.6759060388046929
-0.9814319889845528
0.042046707398453224
-0.6759060388046929
-0.9816163622805564
0.04435248574362536
-0.676181476844077
-0.9816163622805564
0.04435248574362536
-0.676181476844077
-0.9816163622805564
0.04435248574362536
-0.676181476844077
-0.9816163622805564
0.04435248574362536
-0.676181476844077
-0.9852361342738012
0.045285200948946704
-0.6759615020018738
-0.9852361342738012
0.045285200948946704
-0.6759615020018738
-0.9852361342738012
0.045285200948946704
-0.6759615020018738
-0.9852361342738012
0.045285200948946704
-0.6759615020018738
-0.9844016358854754
0.04559267781466989
-0.6753996998400087
-0.9844016358854754
0.04559267781466989
-0.6753996998400087
-0.9844016358854754
0.04559267781466989
-0.6753996998400087
-0.9844016358854754
0.04559267781466989
-0.6753996998400087
-0.981957726156159
0.04550862369426426
-0.6759783249297737
-0.981957726156159
0.04550862369426426
-0.6759783249297737
-0.981957726156159
0.04550862369426426
-0.6759783249297737
-0.981957726156159
0.04550862369426426
-0.6759783249297737
-0.9788716813346995
0.045710818939324944
-0.6767768555129123
-0.9788716813346995
0.045710818939324944
-0.6767768555129123
-0.9788716813346995
0.045710818939324944
-0.6767768555129123
-0.9788716813346995
0.045710818939324944
-0.6767768555129123
-0.9790346135923439
0.04627437315145023
-0.6775194491650482
-0.9790346135923439
0.04627437315145023
-0.6775194491650482
-0.9790346135923439
0.04627437315145023
-0.6775194491650482
-0.9790346135923439
0.04627437315145023
-0.6775194491650482
-0.9817067352870172
0.04660727753535923
-0.6776962938676436
-0.9817067352870172
0.04660727753535923
-0.6776962938676436
-0.9817067352870172
