-0.9074223432034323
-0.07235314048827825
-0.6684587890404793
-0.9074223432034323
-0.07235314048827825
-0.6684587890404793
-0.9074926062052624
-0.07249149360153871
-0.6683881022183914
-0.9074926062052624
-0.07249149360153871
-0.6683881022183914
-0.9074926062052624
-0.07249149360153871
-0.6683881022183914
-0.9074926062052624
-0.07249149360153871
-0.6683881022183914
-0.9074926062052624
-0.07249149360153871
-0.6683881022183914
-0.9074926062052624
-0.07249149360153871
-0.6683881022183914
-0.9074926062052624
-0.07249149360153871
-0.6683881022183914
-0.9074926062052624
-0.07249149360153871
-0.6683881022183914
-0.9068795431122871
-0.07245036526565962
-0.6681676628826583
-0.9068795431122871
-0.07245036526565962
-0.6681676628826583
-0.9068795431122871
-0.07245036526565962
-0.6681676628826583
-0.9068795431122871
-0.07245036526565962
-0.6681676628826583
-0.9062473537193585
-0.07263914433469659
-0.6678828589690766
-0.9062473537193585
-0.07263914433469659
-0.6678828589690766
-0.9062473537193585
-0.07263914433469659
-0.6678828589690766
-0.9062473537193585
-0.07263914433469659
-0.6678828589690766
-0.9053779132642676
-0.07285578412286665
-0.6675018329195209
-0.9053779132642676
-0.07285578412286665
-0.6675018329195209
-0.9053779132642676
-0.07285578412286665
-0.6675018329195209
-0.9053779132642676
-0.07285578412286665
-0.6675018329195209
-0.904397689331218
-0.07321327498443797
-0.6672319013101411
-0.904397689331218
-0.07321327498443797
-0.6672319013101411
-0.904397689331218
-0.07321327498443797
-0.6672319013101411
-0.904397689331218
-0.07321327498443797
-0.6672319013101411
-0.9041285165912567
-0.07369238355230984
-0.6669177164874824
-0.9041285165912567
-0.07369238355230984
-0.6669177164874824
-0.9041285165912567
-0.07369238355230984
-0.6669177164874824
-0.9041285165912567
-0.07369238355230984
-0.6669177164874824
-0.903825364190199
-0.07410974430482638
-0.6665545215163089
-0.903825364190199
-0.07410974430482638
-0.6665545215163089
-0.903825364190199
-0.07410974430482638
-0.6665545215163089
-0.903825364190199
-0.07410974430482638
-0.6665545215163089
-0.9033495825414201
-0.07486803911101636
-0.66611463222001
-0.9033495825414201
-0.07486803911101636
-0.66611463222001
-0.9033495825414201
-0.07486803911101636
-0.66611463222001
-0.9033495825414201
-0.07486803911101636
-0.66611463222001
-0.903203064081037
-0.07568809952277726
-0.6655957602569331
-0.903203064081037
-0.07568809952277726
-0.6655957602569331
-0.903203064081037
-0.07568809952277726
-0.6655957602569331
-0.903203064081037
-0.07568809952277726
-0.6655957602569331
-0.9025097311874999
-0.07637230801701353
-0.6654577431798641
-0.9025097311874999
-0.07637230801701353
-0.6654577431798641
-0.9025097311874999
-0.07637230801701353
-0.6654577431798641
-0.9025097311874999
-0.07637230801701353
-0.6654577431798641
-0.9016410007060698
-0.07688430606847323
-0.6654120371935814
-0.9016410007060698
-0.07688430606847323
-0.6654120371935814
-0.9016410007060698
-0.07688430606847323
-0.6654120371935814
-0.9016410007060698
-0.07688430606847323
-0.6654120371935814
-0.9016195853340567
-0.07693315929225734
-0.665516788800379
-0.9016195853340567
-0.07693315929225734
-0.665516788800379
-0.9016195853340567
-0.07693315929225734
-0.665516788800379
-0.9016195853340567
-0.07693315929225734
-0.665516788800379
-0.9017913157686317
-0.07762733943677745
-0.6653462757097235
-0.9017913157686317
-0.07762733943677745
-0.6653462757097235
-0.9017913157686317
-0.07762733943677745
-0.6653462757097235
-0.9017913157686317
-0.07762733943677745
-0.6653462757097235
-0.9021169357672526
-0.07837677304940126
-0.6651881227534417
-0.9021169357672526
-0.07837677304940126
-0.6651881227534417
-0.9021169357672526
-0.07837677304940126
-0.6651881227534417
-0.9021169357672526
-0.07837677304940126
-0.6651881227534417
-0.9021169357672526
-0.07837677304940126
-0.6651881227534417
-0.9021169357672526
-0.07837677304940126
-0.6651881227534417
-0.9021169357672526
-0.07837677304940126
-0.6651881227534417
-0.9021169357672526
-0.07837677304940126
-0.6651881227534417
-0.9018825455629278
-0.0790455289592642
-0.6652574781754651
-0.9018825455629278
-0.0790455289592642
-0.6652574781754651
-0.9018825455629278
-0.0790455289592642
-0.6652574781754651
-0.9018825455629278
-0.0790455289592642
-0.6652574781754651
-0.9008377466126494
-0.079844851721219
-0.6656389324714345
-0.9008377466126494
-0.079844851721219
-0.6656389324714345
-0.9008377466126494
-0.079844851721219
-0.6656389324714345
-0.9008377466126494
-0.079844851721219
-0.6656389324714345
-0.9001909003687866
-0.0803688567925048
-0.665705714433031
-0.9001909003687866
-0.0803688567925048
-0.665705714433031
-0.9001909003687866
-0.0803688567925048
-0.665705714433031
-0.9001909003687866
-0.0803688567925048
-0.665705714433031
-0.9000860684388667
-0.08033498785289767
-0.6657272938306357
-0.9000860684388667
-0.08033498785289767
-0.6657272938306357
-0.9000860684388667
-0.08033498785289767
-0.6657272938306357
-0.9000860684388667
-0.08033498785289767
-0.6657272938306357
-0.9001909003687866
-0.0803688567925048
-0.665705714433031
-0.9001909003687866
-0.0803688567925048
-0.665705714433031
-0.9001909003687866
-0.0803688567925048
-0.665705714433031
-0.9001909003687866
-0.0803688567925048
-0.665705714433031
-0.9001569259539437
-0.08047334966941821
-0.6656568501125948
-0.9001569259539437
-0.08047334966941821
-0.6656568501125948
-0.9001569259539437
-0.08047334966941821
-0.6656568501125948
-0.9001569259539437
-0.08047334966941821
-0.6656568501125948
-0.8997776542309107
-0.0805178068631309
-0.6660361218356277
-0.8997776542309107
-0.0805178068631309
-0.6660361218356277
-0.8997776542309107
-0.0805178068631309
-0.6660361218356277
-0.8997776542309107
-0.0805178068631309
-0.6660361218356277
-0.8997776542309107
-0.0805178068631309
-0.6660361218356277
-0.8997776542309107
-0.0805178068631309
-0.6660361218356277
-0.8997776542309107
-0.0805178068631309
-0.6660361218356277
-0.8997776542309107
-0.0805178068631309
-0.6660361218356277
-0.8997776542309107
-0.0805178068631309
-0.6660361218356277
-0.8997776542309107
-0.0805178068631309
-0.6660361218356277
-0.8997776542309107
-0.0805178068631309
-0.6660361218356277
-0.8997776542309107
-0.0805178068631309
-0.6660361218356277
-0.8997776542309107
-0.0805178068631309
-0.6660361218356277
-0.8997776542309107
-0.0805178068631309
-0.6660361218356277
-0.8997776542309107
-0.0805178068631309
-0.6660361218356277
-0.8997776542309107
-0.0805178068631309
-0.6660361218356277
-0.8998304166938665
-0.08001723512804376
-0.6661482435324846
-0.8998304166938665
-0.08001723512804376
-0.6661482435324846
-0.8998304166938665
-0.08001723512804376
-0.6661482435324846
-0.8998304166938665
-0.08001723512804376
-0.6661482435324846
-0.9003203758352574
-0.07954987045640202
-0.6665711663228077
-0.9003203758352574
-0.07954987045640202
-0.6665711663228077
-0.9003203758352574
-0.07954987045640202
-0.6665711663228077
-0.9003203758352574
-0.07954987045640202
-0.6665711663228077
-0.9014171164970979
-0.07900388235680363
-0.6669692725436558
-0.9014171164970979
-0.07900388235680363
-0.6669692725436558
-0.9014171164970979
-0.07900388235680363
-0.6669692725436558
-0.9014171164970979
-0.07900388235680363
-0.6669692725436558
-0.9034006456964879
-0.07842013180098584
-0.6672294300597226
-0.9034006456964879
-0.07842013180098584
-0.6672294300597226
-0.9034006456964879
-0.07842013180098584
-0.6672294300597226
-0.9034006456964879
-0.07842013180098584
-0.6672294300597226
-0.9066990644337711
-0.07782687149623027
-0.6679219853946373
-0.9066990644337711
-0.07782687149623027
-0.6679219853946373
-0.9066990644337711
-0.07782687149623027
-0.6679219853946373
-0.9066990644337711
-0.07782687149623027
-0.6679219853946373
-0.9114648273362699
-0.0764757035563114
-0.6688992121529598
-0.9114648273362699
-0.0764757035563114
-0.6688992121529598
-0.9114648273362699
-0.0764757035563114
-0.6688992121529598
-0.9114648273362699
-0.0764757035563114
-0.6688992121529598
-0.9174508638429406
-0.07509385361924134
-0.6700790357588016
-0.9174508638429406
-0.07509385361924134
-0.6700790357588016
-0.9174508638429406
-0.07509385361924134
-0.6700790357588016
-0.9174508638429406
-0.07509385361924134
-0.6700790357588016
-0.9253187637951609
-0.07310835089667207
-0.6715605043547839
-0.9253187637951609
-0.07310835089667207
-0.6715605043547839
-0.9253187637951609
-0.07310835089667207
-0.6715605043547839
-0.9253187637951609
-0.07310835089667207
-0.6715605043547839
-0.9362068686180381
-0.0709211890714295
-0.6732964552509975
-0.9362068686180381
-0.0709211890714295
-0.6732964552509975
-0.9362068686180381
-0.0709211890714295
-0.6732964552509975
-0.9362068686180381
-0.0709211890714295
-0.6732964552509975
-0.9513690440434952
-0.06806970523900685
-0.6757292502670893
-0.9513690440434952
-0.06806970523900685
-0.6757292502670893
-0.9513690440434952
-0.06806970523900685
-0.6757292502670893
-0.9513690440434952
-0.06806970523900685
-0.6757292502670893
-0.9699599784435119
-0.06517716576477586
-0.6793094878531906
-0.9699599784435119
-0.06517716576477586
-0.6793094878531906
-0.9699599784435119
-0.06517716576477586
-0.6793094878531906
-0.9699599784435119
-0.06517716576477586
-0.6793094878531906
-0.9934329925931933
-0.061845149700290356
-0.6832955351121909
-0.9934329925931933
-0.061845149700290356
-0.6832955351121909
-0.9934329925931933
-0.061845149700290356
-0.6832955351121909
-0.9934329925931933
-0.061845149700290356
-0.6832955351121909
-1.0216451565399751
-0.05872073796023348
-0.687934835740397
-1.0216451565399751
-0.05872073796023348
-0.687934835740397
-1.0216451565399751
-0.05872073796023348
-0.687934835740397
-1.0216451565399751
-0.05872073796023348
-0.687934835740397
-1.0525897000116737
-0.056298494184996745
-0.6940515876589691
-1.0525897000116737
-0.056298494184996745
-0.6940515876589691
-1.0525897000116737
-0.056298494184996745
-0.6940515876589691
-1.0525897000116737
-0.056298494184996745
-0.6940515876589691
-1.0885987645557147
-0.05454952549843397
-0.7005044880569373
-1.0885987645557147
-0.05454952549843397
-0.7005044880569373
-1.0885987645557147
-0.05454952549843397
-0.7005044880569373
-1.0885987645557147
-0.05454952549843397
-0.7005044880569373
-1.131308533107052
-0.053149817447882546
-0.7067474553565604
-1.131308533107052
-0.053149817447882546
-0.7067474553565604
-1.131308533107052
-0.053149817447882546
-0.7067474553565604
-1.131308533107052
-0.053149817447882546
-0.7067474553565604
-1.184242814796505
-0.04987441915544354
-0.711477216249584
-1.184242814796505
-0.04987441915544354
-0.711477216249584
-1.184242814796505
-0.04987441915544354
-0.711477216249584
-1.184242814796505
-0.04987441915544354
-0.711477216249584
-1.2490311615445466
-0.04440096337632594
-0.7143366035742066
-1.2490311615445466
-0.04440096337632594
-0.7143366035742066
-1.2490311615445466
-0.04440096337632594
-0.7143366035742066
-1.2490311615445466
-0.04440096337632594
-0.7143366035742066
-1.3096179136841801
-0.036123578919910616
-0.7162125161738886
-1.3096179136841801
-0.036123578919910616
-0.7162125161738886
-1.3096179136841801
-0.036123578919910616
-0.7162125161738886
-1.3096179136841801
-0.036123578919910616
-0.7162125161738886
-1.3449934531096521
-0.026536486462245604
-0.7171032720666923
-1.3449934531096521
-0.026536486462245604
-0.7171032720666923
-1.3449934531096521
-0.026536486462245604
-0.7171032720666923
-1.3449934531096521
-0.026536486462245604
-0.7171032720666923
-1.354223979571938
-0.0206447339527179
-0.719460527778994
-1.354223979571938
-0.0206447339527179
-0.719460527778994
-1.354223979571938
-0.0206447339527179
-0.719460527778994
-1.354223979571938
-0.0206447339527179
-0.719460527778994
-1.3559502845126095
-0.02217833506614716
-0.7234185580443476
-1.3559502845126095
-0.02217833506614716
-0.7234185580443476
-1.3559502845126095
-0.02217833506614716
-0.7234185580443476
-1.3559502845126095
-0.02217833506614716
-0.7234185580443476
-1.3626587925026346
-0.022557965301232698
-0.7254439016122245
-1.3626587925026346
-0.022557965301232698
-0.7254439016122245
-1.3626587925026346
-0.022557965301232698
-0.7254439016122245
-1.3626587925026346
-0.022557965301232698
-0.7254439016122245
-1.3759748337728683
-0.021225142256225293
-0.7251380313266149
-1.3759748337728683
-0.021225142256225293
-0.7251380313266149
-1.3759748337728683
-0.021225142256225293
-0.7251380313266149
-1.3759748337728683
-0.021225142256225293
-0.7251380313266149
-1.3864332942385178
-0.018168963064186087
-0.724699871449032
-1.3864332942385178
-0.018168963064186087
-0.724699871449032
-1.3864332942385178
-0.018168963064186087
-0.724699871449032
-1.3864332942385178
-0.018168963064186087
-0.724699871449032
-1.3884836563007712
-0.013780482167937237
-0.724380749488875
-1.3884836563007712
-0.013780482167937237
-0.724380749488875
-1.3884836563007712
-0.013780482167937237
-0.724380749488875
-1.3884836563007712
-0.013780482167937237
-0.724380749488875
-1.3887719340636773
-0.010863772608203915
-0.7240008124756773
-1.3887719340636773
-0.010863772608203915
-0.7240008124756773
-1.3887719340636773
-0.010863772608203915
-0.7240008124756773
-1.3887719340636773
-0.010863772608203915
-0.7240008124756773
-1.3923763096322528
-0.007361100623789969
-0.7224498002608546
-1.3923763096322528
-0.007361100623789969
-0.7224498002608546
-1.3923763096322528
-0.007361100623789969
-0.7224498002608546
-1.3923763096322528
-0.007361100623789969
-0.7224498002608546
-1.3977253566815073
-0.004927053210283303
-0.7203619783859129
-1.3977253566815073
-0.004927053210283303
-0.7203619783859129
-1.3977253566815073
-0.004927053210283303
-0.7203619783859129
-1.3977253566815073
-0.004927053210283303
-0.7203619783859129
-1.3997468188565083
-0.00306227824027273
-0.7196696096209301
-1.3997468188565083
-0.00306227824027273
-0.7196696096209301
-1.3997468188565083
-0.00306227824027273
-0.7196696096209301
-1.3997468188565083
-0.00306227824027273
-0.7196696096209301
-1.4015782260342642
-0.0012092392726874668
-0.7190633297687257
-1.4015782260342642
-0.0012092392726874668
-0.7190633297687257
-1.4015782260342642
-0.0012092392726874668
-0.7190633297687257
-1.4015782260342642
-0.0012092392726874668
-0.7190633297687257
-1.4047974147140545
-6.054654774747551E-5
-0.7185196035097139
-1.4047974147140545
-6.054654774747551E-5
-0.7185196035097139
-1.4047974147140545
-6.054654774747551E-5
-0.7185196035097139
-1.4047974147140545
-6.054654774747551E-5
-0.7185196035097139
-1.40757680220266
0.001652511331461328
-0.7182880581071792
-1.40757680220266
0.001652511331461328
-0.7182880581071792
-1.40757680220266
0.001652511331461328
-0.7182880581071792
-1.40757680220266
0.001652511331461328
-0.7182880581071792
-1.4088321258599232
0.0022840047702912475
-0.7182074062749093
-1.4088321258599232
0.0022840047702912475
-0.7182074062749093
-1.4088321258599232
0.0022840047702912475
-0.7182074062749093
-1.4088321258599232
0.0022840047702912475
-0.7182074062749093
-1.4086710242888878
0.0023444613988662004
-0.7182023095393951
-1.4086710242888878
0.0023444613988662004
-0.7182023095393951
-1.4086710242888878
0.0023444613988662004
-0.7182023095393951
-1.4086710242888878
0.0023444613988662004
-0.7182023095393951
-1.4080107053019988
0.0012606410361478305
-0.7177121733627413
-1.4080107053019988
0.0012606410361478305
-0.7177121733627413
-1.4080107053019988
0.0012606410361478305
-0.7177121733627413
-1.4080107053019988
0.0012606410361478305
-0.7177121733627413
-1.4093008526947717
7.022656060200362E-4
-0.7168256890148195
-1.4093008526947717
7.022656060200362E-4
-0.7168256890148195
-1.4093008526947717
7.022656060200362E-4
-0.7168256890148195
-1.4093008526947717
7.022656060200362E-4
-0.7168256890148195
-1.408830522355311
-3.6803918657093943E-4
-0.7162535877302671
-1.408830522355311
-3.6803918657093943E-4
-0.7162535877302671
-1.408830522355311
-3.6803918657093943E-4
-0.7162535877302671
-1.408830522355311
-3.6803918657093943E-4
-0.7162535877302671
-1.4066895297278013
-0.0011810029266712567
-0.715753049082458
-1.4066895297278013
-0.0011810029266712567
-0.715753049082458
-1.4066895297278013
-0.0011810029266712567
-0.715753049082458
-1.4066895297278013
-0.0011810029266712567
-0.715753049082458
-1.4057180868790744
-0.002347670776493778
-0.7151404724550271
-1.4057180868790744
-0.002347670776493778
-0.7151404724550271
-1.4057180868790744
-0.002347670776493778
-0.7151404724550271
-1.4057180868790744
-0.002347670776493778
-0.7151404724550271
-1.4054291713094438
-0.0036549041314954483
-0.7147828599014269
-1.4054291713094438
-0.0036549041314954483
-0.7147828599014269
-1.4054291713094438
-0.0036549041314954483
-0.7147828599014269
-1.4054291713094438
-0.0036549041314954483
-0.7147828599014269
-1.4049888273736981
-0.005059283015411815
-0.7148495080505693
-1.4049888273736981
-0.005059283015411815
-0.7148495080505693
-1.4049888273736981
-0.005059283015411815
-0.7148495080505693
-1.4049888273736981
-0.005059283015411815
-0.7148495080505693
-1.4056184465724497
-0.005830397835068141
-0.7150740260132619
-1.4056184465724497
-0.005830397835068141
-0.7150740260132619
-1.4056184465724497
-0.005830397835068141
-0.7150740260132619
-1.4056184465724497
-0.005830397835068141
-0.7150740260132619
-1.406973958804374
-0.005418468417534887
-0.7150059391395316
-1.406973958804374
-0.005418468417534887
-0.7150059391395316
-1.406973958804374
-0.005418468417534887
-0.7150059391395316
-1.406973958804374
-0.005418468417534887
-0.7150059391395316
-1.4070936116107555
-0.005363569252179293
-0.7150519565695881
-1.4070936116107555
-0.005363569252179293
-0.7150519565695881
-1.4070936116107555
-0.005363569252179293
-0.7150519565695881
-1.4070936116107555
-0.005363569252179293
-0.7150519565695881
-1.406277395167293
-0.005763637685254364
-0.7155025783066883
-1.406277395167293
-0.005763637685254364
-0.7155025783066883
-1.406277395167293
-0.005763637685254364
-0.7155025783066883
-1.406277395167293
-0.005763637685254364
-0.7155025783066883
-1.405731943656829
-0.0064631273140713305
-0.7157546005738704
-1.405731943656829
-0.0064631273140713305
-0.7157546005738704
-1.405731943656829
-0.0064631273140713305
-0.7157546005738704
-1.405731943656829
-0.0064631273140713305
-0.7157546005738704
-1.4053302702933321
-0.006734876829498755
-0.7162750711586601
-1.4053302702933321
-0.006734876829498755
-0.7162750711586601
-1.4053302702933321
-0.006734876829498755
-0.7162750711586601
-1.4053302702933321
-0.006734876829498755
-0.7162750711586601
-1.4049274039676953
-0.0072736849093888055
-0.7168686618528453
-1.4049274039676953
-0.0072736849093888055
-0.7168686618528453
-1.4049274039676953
-0.0072736849093888055
-0.7168686618528453
-1.4049274039676953
-0.0072736849093888055
-0.7168686618528453
-1.405264198715089
-0.008243984686229146
-0.717880555079526
-1.405264198715089
-0.008243984686229146
-0.717880555079526
-1.405264198715089
-0.008243984686229146
-0.717880555079526
-1.405264198715089
-0.008243984686229146
-0.717880555079526
-1.405980225096623
-0.008736273449612555
-0.7185467603253349
-1.405980225096623
-0.008736273449612555
-0.7185467603253349
-1.405980225096623
-0.008736273449612555
-0.7185467603253349
-1.405980225096623
-0.008736273449612555
-0.7185467603253349
-1.406445202535926
-0.00869740551727769
-0.7188963034280417
-1.406445202535926
-0.00869740551727769
-0.7188963034280417
-1.406445202535926
-0.00869740551727769
-0.7188963034280417
-1.406445202535926
-0.00869740551727769
-0.7188963034280417
-1.4064595621519818
-0.00838961804467119
-0.7193067454927837
-1.4064595621519818
-0.00838961804467119
-0.7193067454927837
-1.4064595621519818
-0.00838961804467119
-0.7193067454927837
-1.4064595621519818
-0.00838961804467119
-0.7193067454927837
-1.4061001660116828
-0.008324272082064736
-0.7196070179967098
-1.4061001660116828
-0.008324272082064736
-0.7196070179967098
-1.4061001660116828
-0.008324272082064736
-0.7196070179967098
-1.4061001660116828
-0.008324272082064736
-0.7196070179967098
-1.406848889762617
-0.008774966658765544
-0.7198030543985964
-1.406848889762617
-0.008774966658765544
-0.7198030543985964
-1.406848889762617
-0.008774966658765544
-0.7198030543985964
-1.406848889762617
-0.008774966658765544
-0.7198030543985964
-1.4076472796138508
-0.009314371916113819
-0.7202794357580664
-1.4076472796138508
-0.009314371916113819
-0.7202794357580664
-1.4076472796138508
-0.009314371916113819
-0.7202794357580664
-1.4076472796138508
-0.009314371916113819
-0.7202794357580664
-1.4074660766869302
-0.010191544870585652
-0.7212036035716689
-1.4074660766869302
-0.010191544870585652
-0.7212036035716689
-1.4074660766869302
-0.010191544870585652
-0.7212036035716689
-1.4074660766869302
-0.010191544870585652
-0.7212036035716689
-1.4077932616926625
-0.011444544272642458
-0.7221252824026312
-1.4077932616926625
-0.011444544272642458
-0.7221252824026312
-1.4077932616926625
-0.011444544272642458
-0.7221252824026312
-1.4077932616926625
-0.011444544272642458
-0.7221252824026312
-1.4091329838667068
-0.012713142166878378
-0.7230107271627808
-1.4091329838667068
-0.012713142166878378
-0.7230107271627808
-1.4091329838667068
-0.012713142166878378
-0.7230107271627808
-1.4091329838667068
-0.012713142166878378
-0.7230107271627808
-1.4105160581618656
-0.013645854682869657
-0.7236744707937912
-1.4105160581618656
-0.013645854682869657
-0.7236744707937912
-1.4105160581618656
-0.013645854682869657
-0.7236744707937912
-1.4105160581618656
-0.013645854682869657
-0.7236744707937912
-1.4112639409563512
-0.014538078211101787
-0.7242069033428711
-1.4112639409563512
-0.014538078211101787
-0.7242069033428711
-1.4112639409563512
-0.014538078211101787
-0.7242069033428711
-1.4112639409563512
-0.014538078211101787
-0.7242069033428711
-1.4121108893150816
-0.015212949239071988
-0.7244163598591762
-1.4121108893150816
-0.015212949239071988
-0.7244163598591762
-1.4121108893150816
-0.015212949239071988
-0.7244163598591762
-1.4121108893150816
-0.015212949239071988
-0.7244163598591762
-1.4129737276171228
-0.015624509305911664
-0.7244926572686448
-1.4129737276171228
-0.015624509305911664
-0.7244926572686448
-1.4129737276171228
-0.015624509305911664
-0.7244926572686448
-1.4129737276171228
-0.015624509305911664
-0.7244926572686448
-1.4136560668256557
-0.016251724436950422
-0.7245366785159495
-1.4136560668256557
-0.016251724436950422
-0.7245366785159495
-1.4136560668256557
-0.016251724436950422
-0.7245366785159495
-1.4136560668256557
-0.016251724436950422
-0.7245366785159495
-1.414860240673652
-0.016949140400232335
-0.7249862300137547
-1.414860240673652
-0.016949140400232335
-0.7249862300137547
-1.414860240673652
-0.016949140400232335
-0.7249862300137547
-1.414860240673652
-0.016949140400232335
-0.7249862300137547
-1.4156391002485171
-0.017756148261164152
-0.7255894682829247
-1.4156391002485171
-0.017756148261164152
-0.7255894682829247
-1.4156391002485171
-0.017756148261164152
-0.7255894682829247
-1.4156391002485171
-0.017756148261164152
-0.7255894682829247
-1.4159185364744238
-0.018643657509464555
-0.7263146248975357
-1.4159185364744238
-0.018643657509464555
-0.7263146248975357
-1.4159185364744238
-0.018643657509464555
-0.7263146248975357
-1.4159185364744238
-0.018643657509464555
-0.7263146248975357
-1.4176327938943978
-0.019397630267139577
-0.7273891787968441
-1.4176327938943978
-0.019397630267139577
-0.7273891787968441
-1.4176327938943978
-0.019397630267139577
-0.7273891787968441
-1.4176327938943978
-0.019397630267139577
-0.7273891787968441
-1.4196405737151796
-0.01934636851568049
-0.7284598213536781
-1.4196405737151796
-0.01934636851568049
-0.7284598213536781
-1.4196405737151796
-0.01934636851568049
-0.7284598213536781
-1.4196405737151796
-0.01934636851568049
-0.7284598213536781
-1.4203771914421732
-0.0192906452852106
-0.7292381954137265
-1.4203771914421732
-0.0192906452852106
-0.7292381954137265
-1.4203771914421732
-0.0192906452852106
-0.7292381954137265
-1.4203771914421732
-0.0192906452852106
-0.7292381954137265
-1.4201105813111854
-0.018978321992844042
-0.7296024193548679
-1.4201105813111854
-0.018978321992844042
-0.7296024193548679
-1.4201105813111854
-0.018978321992844042
-0.7296024193548679
-1.4201105813111854
-0.018978321992844042
-0.7296024193548679
-1.4202439420353348
-0.01836425180464623
-0.7298283330195557
-1.4202439420353348
-0.01836425180464623
-0.7298283330195557
-1.4202439420353348
-0.01836425180464623
-0.7298283330195557
-1.4202439420353348
-0.01836425180464623
-0.7298283330195557
-1.4211072942169234
-0.018028810483772886
-0.7300378585415075
-1.4211072942169234
-0.018028810483772886
-0.7300378585415075
-1.4211072942169234
-0.018028810483772886
-0.7300378585415075
-1.4211072942169234
-0.018028810483772886
-0.7300378585415075
-1.4217912039492993
-0.01741377374920244
-0.730582717606306
-1.4217912039492993
-0.01741377374920244
-0.730582717606306
-1.4217912039492993
-0.01741377374920244
-0.730582717606306
-1.4217912039492993
-0.01741377374920244
-0.730582717606306
-1.4216580903883627
-0.016929150127340153
-0.7315107175802392
-1.4216580903883627
-0.016929150127340153
-0.7315107175802392
-1.4216580903883627
-0.016929150127340153
-0.7315107175802392
-1.4216580903883627
-0.016929150127340153
-0.7315107175802392
-1.4220895020824762
-0.016192366214344795
-0.7324651848530455
-1.4220895020824762
-0.016192366214344795
-0.7324651848530455
-1.4220895020824762
-0.016192366214344795
-0.7324651848530455
-1.4220895020824762
-0.016192366214344795
-0.7324651848530455
-1.4224305426292911
-0.01569077857505737
-0.73351895872311
-1.4224305426292911
-0.01569077857505737
-0.73351895872311
-1.4224305426292911
-0.01569077857505737
-0.73351895872311
-1.4224305426292911
-0.01569077857505737
-0.73351895872311
-1.4228822515689876
-0.01511995376129438
-0.73484031219538
-1.4228822515689876
-0.01511995376129438
-0.73484031219538
-1.4228822515689876
-0.01511995376129438
-0.73484031219538
-1.4228822515689876
-0.01511995376129438
-0.73484031219538
-1.423830333409122
-0.014484037942662394
-0.7358799993897529
-1.423830333409122
-0.014484037942662394
-0.7358799993897529
-1.423830333409122
-0.014484037942662394
-0.7358799993897529
-1.423830333409122
-0.014484037942662394
-0.7358799993897529
-1.4248171729676877
-0.013790484339134353
-0.7366112248069181
-1.4248171729676877
-0.013790484339134353
-0.7366112248069181
-1.4248171729676877
-0.013790484339134353
-0.7366112248069181
-1.4248171729676877
-0.013790484339134353
-0.7366112248069181
-1.4255575477127433
-0.013002764237561911
-0.7373689683661695
-1.4255575477127433
-0.013002764237561911
-0.7373689683661695
-1.4255575477127433
-0.013002764237561911
-0.7373689683661695
-1.4255575477127433
-0.013002764237561911
-0.7373689683661695
-1.426158553772156
-0.01235882721501219
-0.7379458944059955
-1.426158553772156
-0.01235882721501219
-0.7379458944059955
-1.426158553772156
-0.01235882721501219
-0.7379458944059955
-1.426158553772156
-0.01235882721501219
-0.7379458944059955
-1.426582096092284
-0.011917206983991712
-0.738650758838043
-1.426582096092284
-0.011917206983991712
-0.738650758838043
-1.426582096092284
-0.011917206983991712
-0.738650758838043
-1.426582096092284
-0.011917206983991712
-0.738650758838043
-1.4261044691766234
-0.011423254358029123
-0.739115069917144
-1.4261044691766234
-0.011423254358029123
-0.739115069917144
-1.4261044691766234
-0.011423254358029123
-0.739115069917144
-1.4261044691766234
-0.011423254358029123
-0.739115069917144
-1.4241266663541559
-0.010986439104208075
-0.7396723383035958
-1.4241266663541559
-0.010986439104208075
-0.7396723383035958
-1.4241266663541559
-0.010986439104208075
-0.7396723383035958
-1.4241266663541559
-0.010986439104208075
-0.7396723383035958
-1.4213256025488292
-0.010513027622527116
-0.7401809675134837
-1.4213256025488292
-0.010513027622527116
-0.7401809675134837
-1.4213256025488292
-0.010513027622527116
-0.7401809675134837
-1.4213256025488292
-0.010513027622527116
-0.7401809675134837
-1.4172962630861892
-0.01031444463625462
-0.740616865105313
-1.4172962630861892
-0.01031444463625462
-0.740616865105313
-1.4172962630861892
-0.01031444463625462
-0.740616865105313
-1.4172962630861892
-0.01031444463625462
-0.740616865105313
-1.4113953081655448
-0.010394952734462046
-0.7411960026680039
-1.4113953081655448
-0.010394952734462046
-0.7411960026680039
-1.4113953081655448
-0.010394952734462046
-0.7411960026680039
-1.4113953081655448
-0.010394952734462046
-0.7411960026680039
-1.3997367831808822
-0.009710071606855466
-0.7419601778236735
-1.3997367831808822
-0.009710071606855466
-0.7419601778236735
-1.3997367831808822
-0.009710071606855466
-0.7419601778236735
-1.3997367831808822
-0.009710071606855466
-0.7419601778236735
-1.3785062266991837
-0.009899535037740399
-0.7431908227849169
-1.3785062266991837
-0.009899535037740399
-0.7431908227849169
-1.3785062266991837
-0.009899535037740399
-0.7431908227849169
-1.3785062266991837
-0.009899535037740399
-0.7431908227849169
-1.3491144844052267
-0.010641543953190485
-0.7442306039129232
-1.3491144844052267
-0.010641543953190485
-0.7442306039129232
-1.3491144844052267
-0.010641543953190485
-0.7442306039129232
-1.3491144844052267
-0.010641543953190485
-0.7442306039129232
-1.317405589412394
-0.011884116680505633
-0.7437018580779681
-1.317405589412394
-0.011884116680505633
-0.7437018580779681
-1.317405589412394
-0.011884116680505633
-0.7437018580779681
-1.317405589412394
-0.011884116680505633
-0.7437018580779681
-1.2854346609867466
-0.014293614746484978
-0.7405397087494542
-1.2854346609867466
-0.014293614746484978
-0.7405397087494542
-1.2854346609867466
-0.014293614746484978
-0.7405397087494542
-1.2854346609867466
-0.014293614746484978
-0.7405397087494542
-1.2526138440591423
-0.01857795421659789
-0.7349809672626297
-1.2526138440591423
-0.01857795421659789
-0.7349809672626297
-1.2526138440591423
-0.01857795421659789
-0.7349809672626297
-1.2526138440591423
-0.01857795421659789
-0.7349809672626297
-1.211246572730288
-0.023059893619198413
-0.727729338642372
-1.211246572730288
-0.023059893619198413
-0.727729338642372
-1.211246572730288
-0.023059893619198413
-0.727729338642372
-1.211246572730288
-0.023059893619198413
-0.727729338642372
-1.162403005536514
-0.030224998130036616
-0.7210046424631763
-1.162403005536514
-0.030224998130036616
-0.7210046424631763
-1.162403005536514
-0.030224998130036616
-0.7210046424631763
-1.162403005536514
-0.030224998130036616
-0.7210046424631763
-1.1103857819977825
-0.04001862369653746
-0.7156190963444201
-1.1103857819977825
-0.04001862369653746
-0.7156190963444201
-1.1103857819977825
-0.04001862369653746
-0.7156190963444201
-1.1103857819977825
-0.04001862369653746
-0.7156190963444201
-1.0586733265339214
-0.05098023392085331
-0.7131108224357237
-1.0586733265339214
-0.05098023392085331
-0.7131108224357237
-1.0586733265339214
-0.05098023392085331
-0.7131108224357237
-1.0586733265339214
-0.05098023392085331
-0.7131108224357237
-1.0124557866371444
-0.062055644053950636
-0.71311776422869
-1.0124557866371444
-0.062055644053950636
-0.71311776422869
-1.0124557866371444
-0.062055644053950636
-0.71311776422869
-1.0124557866371444
-0.062055644053950636
-0.71311776422869
-0.9763839559234136
-0.07185411729806132
-0.7148812324042403
-0.9763839559234136
-0.07185411729806132
-0.7148812324042403
-0.9763839559234136
-0.07185411729806132
-0.7148812324042403
-0.9763839559234136
-0.07185411729806132
-0.7148812324042403
-0.9491841031543525
-0.08043238852142723
-0.7139106125719371
-0.9491841031543525
-0.08043238852142723
-0.7139106125719371
-0.9491841031543525
-0.08043238852142723
-0.7139106125719371
-0.9491841031543525
-0.08043238852142723
-0.7139106125719371
-0.932557990478202
-0.0877953088279374
-0.7098462991039903
-0.932557990478202
-0.0877953088279374
-0.7098462991039903
-0.932557990478202
-0.0877953088279374
-0.7098462991039903
-0.932557990478202
-0.0877953088279374
-0.7098462991039903
-0.9312624066615316
-0.09328273651795965
-0.7051775415443531
-0.9312624066615316
-0.09328273651795965
-0.7051775415443531
-0.9312624066615316
-0.09328273651795965
-0.7051775415443531
-0.9312624066615316
-0.09328273651795965
-0.7051775415443531
-0.9422900427877656
-0.0970462170281235
-0.702534314085803
-0.9422900427877656
-0.0970462170281235
-0.702534314085803
-0.9422900427877656
-0.0970462170281235
-0.702534314085803
-0.9422900427877656
-0.0970462170281235
-0.702534314085803
-0.9536970973240158
-0.09960534089822526
-0.7025777976453724
-0.9536970973240158
-0.09960534089822526
-0.7025777976453724
-0.9536970973240158
-0.09960534089822526
-0.7025777976453724
-0.9536970973240158
-0.09960534089822526
-0.7025777976453724
-0.9571935594828974
-0.10035786765917033
-0.7041578550502243
-0.9571935594828974
-0.10035786765917033
-0.7041578550502243
-0.9571935594828974
-0.10035786765917033
-0.7041578550502243
-0.9571935594828974
-0.10035786765917033
-0.7041578550502243
-0.9523998651161756
-0.09999326354002892
-0.7061634434827588
-0.9523998651161756
-0.09999326354002892
-0.7061634434827588
-0.9523998651161756
-0.09999326354002892
-0.7061634434827588
-0.9523998651161756
-0.09999326354002892
-0.7061634434827588
-0.9475252976278256
-0.09928388957182895
-0.7076050232657963
-0.9475252976278256
-0.09928388957182895
-0.7076050232657963
-0.9475252976278256
-0.09928388957182895
-0.7076050232657963
-0.9475252976278256
-0.09928388957182895
-0.7076050232657963
-0.9473409718803147
-0.09864090038839084
-0.7078959342919985
-0.9473409718803147
-0.09864090038839084
-0.7078959342919985
-0.9473409718803147
-0.09864090038839084
-0.7078959342919985
-0.9473409718803147
-0.09864090038839084
-0.7078959342919985
-0.9512233184781309
-0.09899725034460236
-0.7068038676539995
-0.9512233184781309
-0.09899725034460236
-0.7068038676539995
-0.9512233184781309
-0.09899725034460236
-0.7068038676539995
-0.9512233184781309
-0.09899725034460236
-0.7068038676539995
-0.9539918629705919
-0.09951980432940166
-0.7057445524587624
-0.9539918629705919
-0.09951980432940166
-0.7057445524587624
-0.9539918629705919
-0.09951980432940166
-0.7057445524587624
-0.9539918629705919
-0.09951980432940166
-0.7057445524587624
-0.9540740775919355
-0.09965848864527907
-0.705411956764934
-0.9540740775919355
-0.09965848864527907
-0.705411956764934
-0.9540740775919355
-0.09965848864527907
-0.705411956764934
-0.9540740775919355
-0.09965848864527907
-0.705411956764934
-0.9537414236289249
-0.09912242207227603
-0.7054301904117676
-0.9537414236289249
-0.09912242207227603
-0.7054301904117676
-0.9537414236289249
-0.09912242207227603
-0.7054301904117676
-0.9537414236289249
-0.09912242207227603
-0.7054301904117676
-0.9538906160492251
-0.09773728336226382
-0.7057544327067062
-0.9538906160492251
-0.09773728336226382
-0.7057544327067062
-0.9538906160492251
-0.09773728336226382
-0.7057544327067062
-0.9538906160492251
-0.09773728336226382
-0.7057544327067062
-0.9548282840919765
-0.0958107569914748
-0.7057998616930203
-0.9548282840919765
-0.0958107569914748
-0.7057998616930203
-0.9548282840919765
-0.0958107569914748
-0.7057998616930203
-0.9548282840919765
-0.0958107569914748
-0.7057998616930203
-0.9557490468937706
-0.09377107674139577
-0.7059575555716849
-0.9557490468937706
-0.09377107674139577
-0.7059575555716849
-0.9557490468937706
-0.09377107674139577
-0.7059575555716849
-0.9557490468937706
-0.09377107674139577
-0.7059575555716849
-0.9561864791837087
-0.09173097680109954
-0.7064280140509818
-0.9561864791837087
-0.09173097680109954
-0.7064280140509818
-0.9561864791837087
-0.09173097680109954
-0.7064280140509818
-0.9561864791837087
-0.09173097680109954
-0.7064280140509818
-0.9577276517741814
-0.09004102560899604
-0.7067797815081562
-0.9577276517741814
-0.09004102560899604
-0.7067797815081562
-0.9577276517741814
-0.09004102560899604
-0.7067797815081562
-0.9577276517741814
-0.09004102560899604
-0.7067797815081562
-0.9597156180687012
-0.0888710412899653
-0.7072463839832367
-0.9597156180687012
-0.0888710412899653
-0.7072463839832367
-0.9597156180687012
-0.0888710412899653
-0.7072463839832367
-0.9597156180687012
-0.0888710412899653
-0.7072463839832367
-0.9608725482920998
-0.08795276022102146
-0.7071211925336192
-0.9608725482920998
-0.08795276022102146
-0.7071211925336192
-0.9608725482920998
-0.08795276022102146
-0.7071211925336192
-0.9608725482920998
-0.08795276022102146
-0.7071211925336192
-0.9616971388801766
-0.08698030099302413
-0.7071718768760676
-0.9616971388801766
-0.08698030099302413
-0.7071718768760676
-0.9616971388801766
-0.08698030099302413
-0.7071718768760676
-0.9616971388801766
-0.08698030099302413
-0.7071718768760676
-0.9620482554376553
-0.08635010478927256
-0.7070973450739194
-0.9620482554376553
-0.08635010478927256
-0.7070973450739194
-0.9620482554376553
-0.08635010478927256
-0.7070973450739194
-0.9620482554376553
-0.08635010478927256
-0.7070973450739194
-0.9624928069605827
-0.08588209827399415
-0.7074964185038576
-0.9624928069605827
-0.08588209827399415
-0.7074964185038576
-0.9624928069605827
-0.08588209827399415
-0.7074964185038576
-0.9624928069605827
-0.08588209827399415
-0.7074964185038576
-0.9624643404726925
-0.08576902534226992
-0.7078640518053487
-0.9624643404726925
-0.08576902534226992
-0.7078640518053487
-0.9624643404726925
-0.08576902534226992
-0.7078640518053487
-0.9624643404726925
-0.08576902534226992
-0.7078640518053487
-0.9625796524671311
-0.08580376296258242
-0.707583264010406
-0.9625796524671311
-0.08580376296258242
-0.707583264010406
-0.9625796524671311
-0.08580376296258242
-0.707583264010406
-0.9625796524671311
-0.08580376296258242
-0.707583264010406
-0.9630897014444133
-0.08586562104982266
-0.7073173040562645
-0.9630897014444133
-0.08586562104982266
-0.7073173040562645
-0.9630897014444133
-0.08586562104982266
-0.7073173040562645
-0.9630897014444133
-0.08586562104982266
-0.7073173040562645
-0.9630544158645421
-0.08596786107967444
-0.7072657352499628
-0.9630544158645421
-0.08596786107967444
-0.7072657352499628
-0.9626747071391436
-0.08648501862957793
-0.7077075605271833
-0.9626747071391436
-0.08648501862957793
-0.7077075605271833
-0.9626747071391436
-0.08648501862957793
-0.7077075605271833
-0.9626747071391436
-0.08648501862957793
-0.7077075605271833
-0.9620458168709698
-0.08673015640637151
-0.7080759756782949
-0.9620458168709698
-0.08673015640637151
-0.7080759756782949
-0.9620458168709698
-0.08673015640637151
-0.7080759756782949
-0.9620458168709698
-0.08673015640637151
-0.7080759756782949
-0.9618916776905156
-0.08667100860927414
-0.7080647059563254
-0.9618916776905156
-0.08667100860927414
-0.7080647059563254
-0.9618916776905156
-0.08667100860927414
-0.7080647059563254
-0.9618916776905156
-0.08667100860927414
-0.7080647059563254
-0.9619431673562495
-0.08669496765965393
-0.7081000283622129
-0.9619431673562495
-0.08669496765965393
-0.7081000283622129
-0.9619431673562495
-0.08669496765965393
-0.7081000283622129
-0.9619431673562495
-0.08669496765965393
-0.7081000283622129
-0.9619864400735352
-0.08688371641439493
-0.7081271317710781
-0.9619864400735352
-0.08688371641439493
-0.7081271317710781
-0.9619864400735352
-0.08688371641439493
-0.7081271317710781
-0.9619864400735352
-0.08688371641439493
-0.7081271317710781
-0.9611454578721437
-0.08727376119595161
-0.7081248232296788
-0.9611454578721437
-0.08727376119595161
-0.7081248232296788
-0.9611454578721437
-0.08727376119595161
-0.7081248232296788
-0.9611454578721437
-0.08727376119595161
-0.7081248232296788
-0.9606125083427876
-0.08776937330110132
-0.7080506087540426
-0.9606125083427876
-0.08776937330110132
-0.7080506087540426
-0.9606125083427876
-0.08776937330110132
-0.7080506087540426
-0.9606125083427876
-0.08776937330110132
-0.7080506087540426
-0.9596414469154558
-0.08804915684387461
-0.7079349797393221
-0.9596414469154558
-0.08804915684387461
-0.7079349797393221
-0.9596414469154558
-0.08804915684387461
-0.7079349797393221
-0.9596414469154558
-0.08804915684387461
-0.7079349797393221
-0.9584215769559328
-0.08805731662846844
-0.7077456437323039
-0.9584215769559328
-0.08805731662846844
-0.7077456437323039
-0.9584215769559328
-0.08805731662846844
-0.7077456437323039
-0.9584215769559328
-0.08805731662846844
-0.7077456437323039
-0.9572130142810645
-0.08801433801748719
-0.7077103495523004
-0.9572130142810645
-0.08801433801748719
-0.7077103495523004
-0.9572130142810645
-0.08801433801748719
-0.7077103495523004
-0.9572130142810645
-0.08801433801748719
-0.7077103495523004
-0.9567315171199551
-0.08806572319444766
-0.7076093268781053
-0.9567315171199551
-0.08806572319444766
-0.7076093268781053
-0.9567315171199551
-0.08806572319444766
-0.7076093268781053
-0.9567315171199551
-0.08806572319444766
-0.7076093268781053
-0.9565580536167204
-0.0882353724061594
-0.7075309439804078
-0.9565580536167204
-0.0882353724061594
-0.7075309439804078
-0.9565580536167204
-0.0882353724061594
-0.7075309439804078
-0.9565580536167204
-0.0882353724061594
-0.7075309439804078
-0.9561471915137245
-0.08855032491795267
-0.7075957878379401
-0.9561471915137245
-0.08855032491795267
-0.7075957878379401
-0.9561471915137245
-0.08855032491795267
-0.7075957878379401
-0.9561471915137245
-0.08855032491795267
-0.7075957878379401
-0.9548440179901528
-0.08876328936067587
-0.7075614105979006
-0.9548440179901528
-0.08876328936067587
-0.7075614105979006
-0.9548440179901528
-0.08876328936067587
-0.7075614105979006
-0.9548440179901528
-0.08876328936067587
-0.7075614105979006
-0.9538052445049614
-0.08890597270244854
-0.707522111440231
-0.9538052445049614
-0.08890597270244854
-0.707522111440231
-0.9538052445049614
-0.08890597270244854
-0.707522111440231
-0.9538052445049614
-0.08890597270244854
-0.707522111440231
-0.9538937837600397
-0.08886720610502424
-0.7071030124321197
-0.9538937837600397
-0.08886720610502424
-0.7071030124321197
-0.9538937837600397
-0.08886720610502424
-0.7071030124321197
-0.9538937837600397
-0.08886720610502424
-0.7071030124321197
-0.9548360565812666
-0.08843836513643803
-0.7064273630564195
-0.9548360565812666
-0.08843836513643803
-0.7064273630564195
-0.9548360565812666
-0.08843836513643803
-0.7064273630564195
-0.9548360565812666
-0.08843836513643803
-0.7064273630564195
-0.9566075151036029
-0.08766923994930734
-0.705599131935685
-0.9566075151036029
-0.08766923994930734
-0.705599131935685
-0.9566075151036029
-0.08766923994930734
-0.705599131935685
-0.9566075151036029
-0.08766923994930734
-0.705599131935685
-0.9590955114326498
-0.08664956624879933
-0.7051418453952909
-0.9590955114326498
-0.08664956624879933
-0.7051418453952909
-0.9590955114326498
-0.08664956624879933
-0.7051418453952909
-0.9590955114326498
-0.08664956624879933
-0.7051418453952909
-0.961422963973076
-0.08493687813725721
-0.7048785671217533
-0.961422963973076
-0.08493687813725721
-0.7048785671217533
-0.961422963973076
-0.08493687813725721
-0.7048785671217533
-0.961422963973076
-0.08493687813725721
-0.7048785671217533
-0.9647469448845343
-0.08254932680065112
-0.7048144386291534
-0.9647469448845343
-0.08254932680065112
-0.7048144386291534
-0.9647469448845343
-0.08254932680065112
-0.7048144386291534
-0.9647469448845343
-0.08254932680065112
-0.7048144386291534
-0.9707430030607912
-0.07986918416888615
-0.704765393664918
-0.9707430030607912
-0.07986918416888615
-0.704765393664918
-0.9707430030607912
-0.07986918416888615
-0.704765393664918
-0.9707430030607912
-0.07986918416888615
-0.704765393664918
-0.9815206614167277
-0.0760059839676591
-0.7053409109366845
-0.9815206614167277
-0.0760059839676591
-0.7053409109366845
-0.9815206614167277
-0.0760059839676591
-0.7053409109366845
-0.9815206614167277
-0.0760059839676591
-0.7053409109366845
-0.9970411969208982
-0.0707551821097618
-0.7070690171990128
-0.9970411969208982
-0.0707551821097618
-0.7070690171990128
-0.9970411969208982
-0.0707551821097618
-0.7070690171990128
-0.9970411969208982
-0.0707551821097618
-0.7070690171990128
-1.0191062463297833
-0.06406843459875877
-0.7100087778801693
-1.0191062463297833
-0.06406843459875877
-0.7100087778801693
-1.0191062463297833
-0.06406843459875877
-0.7100087778801693
-1.0191062463297833
-0.06406843459875877
-0.7100087778801693
-1.047713074313531
-0.056232689131475444
-0.7149575001433461
-1.047713074313531
-0.056232689131475444
-0.7149575001433461
-1.047713074313531
-0.056232689131475444
-0.7149575001433461
-1.047713074313531
-0.056232689131475444
-0.7149575001433461
-1.0829538374817718
-0.047751327382985265
-0.7219712993224701
-1.0829538374817718
-0.047751327382985265
-0.7219712993224701
-1.0829538374817718
-0.047751327382985265
-0.7219712993224701
-1.0829538374817718
-0.047751327382985265
-0.7219712993224701
-1.1231517524594505
-0.04038647859492038
-0.7302179601174474
-1.1231517524594505
-0.04038647859492038
-0.7302179601174474
-1.1231517524594505
-0.04038647859492038
-0.7302179601174474
-1.1231517524594505
-0.04038647859492038
-0.7302179601174474
-1.1661225082453004
-0.03422441384049726
-0.7391990838900421
-1.1661225082453004
-0.03422441384049726
-0.7391990838900421
-1.1661225082453004
-0.03422441384049726
-0.7391990838900421
-1.1661225082453004
-0.03422441384049726
-0.7391990838900421
-1.2119275472317175
-0.029138817253615015
-0.748653735436591
-1.2119275472317175
-0.029138817253615015
-0.748653735436591
-1.2119275472317175
-0.029138817253615015
-0.748653735436591
-1.2119275472317175
-0.029138817253615015
-0.748653735436591
-1.2635603814980272
-0.024590379881037912
-0.7584942967212983
-1.2635603814980272
-0.024590379881037912
-0.7584942967212983
-1.2635603814980272
-0.024590379881037912
-0.7584942967212983
-1.2635603814980272
-0.024590379881037912
-0.7584942967212983
-1.3187630484354043
-0.020674076759093003
-0.7662980214094526
-1.3187630484354043
-0.020674076759093003
-0.7662980214094526
-1.3187630484354043
-0.020674076759093003
-0.7662980214094526
-1.3187630484354043
-0.020674076759093003
-0.7662980214094526
-1.369483741739496
-0.017362274166481544
-0.7730291107855577
-1.369483741739496
-0.017362274166481544
-0.7730291107855577
-1.369483741739496
-0.017362274166481544
-0.7730291107855577
-1.369483741739496
-0.017362274166481544
-0.7730291107855577
-1.4018550992210603
-0.01457075967498668
-0.78024737788249
-1.4018550992210603
-0.01457075967498668
-0.78024737788249
-1.4018550992210603
-0.01457075967498668
-0.78024737788249
-1.4018550992210603
-0.01457075967498668
-0.78024737788249
-1.4174436756973656
-0.012208608136009606
-0.7873036669755582
-1.4174436756973656
-0.012208608136009606
-0.7873036669755582
-1.4174436756973656
-0.012208608136009606
-0.7873036669755582
-1.4174436756973656
-0.012208608136009606
-0.7873036669755582
-1.4298384190689442
-0.011368679097771704
-0.7911902562011615
-1.4298384190689442
-0.011368679097771704
-0.7911902562011615
-1.4298384190689442
-0.011368679097771704
-0.7911902562011615
-1.4298384190689442
-0.011368679097771704
-0.7911902562011615
-1.442537232742349
-0.011094441388115208
-0.7933686572667041
-1.442537232742349
-0.011094441388115208
-0.7933686572667041
-1.442537232742349
-0.011094441388115208
-0.7933686572667041
-1.442537232742349
-0.011094441388115208
-0.7933686572667041
-1.4557008576620307
-0.008467431233469538
-0.7946389976293531
-1.4557008576620307
-0.008467431233469538
-0.7946389976293531
-1.4557008576620307
-0.008467431233469538
-0.7946389976293531
-1.4557008576620307
-0.008467431233469538
-0.7946389976293531
-1.4642679058994432
-0.0056572823946549194
-0.7952165030819439
-1.4642679058994432
-0.0056572823946549194
-0.7952165030819439
-1.4642679058994432
-0.0056572823946549194
-0.7952165030819439
-1.4642679058994432
-0.0056572823946549194
-0.7952165030819439
-1.4675232898941795
-0.003953323456622466
-0.7947797484414035
-1.4675232898941795
-0.003953323456622466
-0.7947797484414035
-1.4675232898941795
-0.003953323456622466
-0.7947797484414035
-1.4675232898941795
-0.003953323456622466
-0.7947797484414035
-1.4676695119572758
-0.004939997822468614
-0.7949897776973717
-1.4676695119572758
-0.004939997822468614
-0.7949897776973717
-1.4676695119572758
-0.004939997822468614
-0.7949897776973717
-1.4676695119572758
-0.004939997822468614
-0.7949897776973717
-1.4692044355254883
-0.007099085353750113
-0.7947100698481832
-1.4692044355254883
-0.007099085353750113
-0.7947100698481832
-1.4692044355254883
-0.007099085353750113
-0.7947100698481832
-1.4692044355254883
-0.007099085353750113
-0.7947100698481832
-1.473004128038095
-0.009468011160319407
-0.7941671693394544
-1.473004128038095
-0.009468011160319407
-0.7941671693394544
-1.473004128038095
-0.009468011160319407
-0.7941671693394544
-1.473004128038095
-0.009468011160319407
-0.7941671693394544
-1.4768283087624563
-0.011071768983054413
-0.7941576314556584
-1.4768283087624563
-0.011071768983054413
-0.7941576314556584
-1.4768283087624563
-0.011071768983054413
-0.7941576314556584
-1.4768283087624563
-0.011071768983054413
-0.7941576314556584
-1.480265633152912
-0.01204921009913588
-0.794002964147159
-1.480265633152912
-0.01204921009913588
-0.794002964147159
-1.480265633152912
-0.01204921009913588
-0.794002964147159
-1.480265633152912
-0.01204921009913588
-0.794002964147159
-1.4820288763198266
-0.01235649249920401
-0.7931551816317485
-1.4820288763198266
-0.01235649249920401
-0.7931551816317485
-1.4820288763198266
-0.01235649249920401
-0.7931551816317485
-1.4820288763198266
-0.01235649249920401
-0.7931551816317485
-1.483437226370123
-0.013089631757414065
-0.7919422226700964
-1.483437226370123
-0.013089631757414065
-0.7919422226700964
-1.483437226370123
-0.013089631757414065
-0.7919422226700964
-1.483437226370123
-0.013089631757414065
-0.7919422226700964
-1.486243302652242
-0.013843031556645478
-0.7906862136506
-1.486243302652242
-0.013843031556645478
-0.7906862136506
-1.486243302652242
-0.013843031556645478
-0.7906862136506
-1.486243302652242
-0.013843031556645478
-0.7906862136506
-1.4889253265301072
-0.015579357116070744
-0.7891969420003226
-1.4889253265301072
-0.015579357116070744
-0.7891969420003226
-1.4889253265301072
-0.015579357116070744
-0.7891969420003226
-1.4889253265301072
-0.015579357116070744
-0.7891969420003226
-1.4893460599855886
-0.017104494596177813
-0.7881327107988195
-1.4893460599855886
-0.017104494596177813
-0.7881327107988195
-1.4893460599855886
-0.017104494596177813
-0.7881327107988195
-1.4893460599855886
-0.017104494596177813
-0.7881327107988195
-1.4890505049827805
-0.018316427442916113
-0.787414003743168
-1.4890505049827805
-0.018316427442916113
-0.787414003743168
-1.4890505049827805
-0.018316427442916113
-0.787414003743168
-1.4890505049827805
-0.018316427442916113
-0.787414003743168
-1.4885727387923946
-0.019737327020196864
-0.7866593495899618
-1.4885727387923946
-0.019737327020196864
-0.7866593495899618
-1.4885727387923946
-0.019737327020196864
-0.7866593495899618
-1.4885727387923946
-0.019737327020196864
-0.7866593495899618
-1.48689607468765
-0.022251865477247355
-0.7858841193066136
-1.48689607468765
-0.022251865477247355
-0.7858841193066136
-1.48689607468765
-0.022251865477247355
-0.7858841193066136
-1.48689607468765
-0.022251865477247355
-0.7858841193066136
-1.4859238070896037
-0.025501500977255738
-0.785793467883828
-1.4859238070896037
-0.025501500977255738
-0.785793467883828
-1.4859238070896037
-0.025501500977255738
-0.785793467883828
-1.4859238070896037
-0.025501500977255738
-0.785793467883828
-1.486584501752563
-0.02837686253281012
-0.7862916102167605
-1.486584501752563
-0.02837686253281012
-0.7862916102167605
-1.486584501752563
-0.02837686253281012
-0.7862916102167605
-1.486584501752563
-0.02837686253281012
-0.7862916102167605
-1.487581492821455
-0.029988197677215056
-0.786809787923114
-1.487581492821455
-0.029988197677215056
-0.786809787923114
-1.487581492821455
-0.029988197677215056
-0.786809787923114
-1.487581492821455
-0.029988197677215056
-0.786809787923114
-1.4875288399431652
-0.030977046250911716
-0.7873170317358723
-1.4875288399431652
-0.030977046250911716
-0.7873170317358723
-1.4875288399431652
-0.030977046250911716
-0.7873170317358723
-1.4875288399431652
-0.030977046250911716
-0.7873170317358723
-1.4857335902593607
-0.03191295380403528
-0.787417819032806
-1.4857335902593607
-0.03191295380403528
-0.787417819032806
-1.4857335902593607
-0.03191295380403528
-0.787417819032806
-1.4857335902593607
-0.03191295380403528
-0.787417819032806
-1.4842673509145747
-0.03364993729621502
-0.7872770151911977
-1.4842673509145747
-0.03364993729621502
-0.7872770151911977
-1.4842673509145747
-0.03364993729621502
-0.7872770151911977
-1.4842673509145747
-0.03364993729621502
-0.7872770151911977
-1.4837606194405306
-0.03466381584877426
-0.787057159943845
-1.4837606194405306
-0.03466381584877426
-0.787057159943845
-1.4837606194405306
-0.03466381584877426
-0.787057159943845
-1.4837606194405306
-0.03466381584877426
-0.787057159943845
-1.4834716005601427
-0.035576611482767216
-0.787055312778132
-1.4834716005601427
-0.035576611482767216
-0.787055312778132
-1.4834716005601427
-0.035576611482767216
-0.787055312778132
-1.4834716005601427
-0.035576611482767216
-0.787055312778132
-1.4831890113813708
-0.03601293173351566
-0.7872722255976814
-1.4831890113813708
-0.03601293173351566
-0.7872722255976814
-1.4831890113813708
-0.03601293173351566
-0.7872722255976814
-1.4831890113813708
-0.03601293173351566
-0.7872722255976814
-1.4824790017230616
-0.036375445946910945
-0.7872212265113046
-1.4824790017230616
-0.036375445946910945
-0.7872212265113046
-1.4824790017230616
-0.036375445946910945
-0.7872212265113046
-1.4824790017230616
-0.036375445946910945
-0.7872212265113046
-1.48126622685471
-0.03663137623678129
-0.7868693055500211
-1.48126622685471
-0.03663137623678129
-0.7868693055500211
-1.48126622685471
-0.03663137623678129
-0.7868693055500211
-1.48126622685471
-0.03663137623678129
-0.7868693055500211
-1.4795877032455007
-0.037533599769146817
-0.7867017700723534
-1.4795877032455007
-0.037533599769146817
-0.7867017700723534
-1.4795877032455007
-0.037533599769146817
-0.7867017700723534
-1.4795877032455007
-0.037533599769146817
-0.7867017700723534
-1.4785287852878863
-0.03850004101103852
-0.7867195242495633
-1.4785287852878863
-0.03850004101103852
-0.7867195242495633
-1.4785287852878863
-0.03850004101103852
-0.7867195242495633
-1.4785287852878863
-0.03850004101103852
-0.7867195242495633
-1.479199096153909
-0.03867249447040855
-0.7869540473293781
-1.479199096153909
-0.03867249447040855
-0.7869540473293781
-1.479199096153909
-0.03867249447040855
-0.7869540473293781
-1.479199096153909
-0.03867249447040855
-0.7869540473293781
-1.4796351659984248
-0.03893808244427669
-0.7872633875805858
-1.4796351659984248
-0.03893808244427669
-0.7872633875805858
-1.4796351659984248
-0.03893808244427669
-0.7872633875805858
-1.4796351659984248
-0.03893808244427669
-0.7872633875805858
-1.479091071228393
-0.03905646867026612
-0.7880174018636332
-1.479091071228393
-0.03905646867026612
-0.7880174018636332
-1.479091071228393
-0.03905646867026612
-0.7880174018636332
-1.479091071228393
-0.03905646867026612
-0.7880174018636332
-1.4786886539856405
-0.03904854718325346
-0.7887959932596136
-1.4786886539856405
-0.03904854718325346
-0.7887959932596136
-1.4786886539856405
-0.03904854718325346
-0.7887959932596136
-1.4786886539856405
-0.03904854718325346
-0.7887959932596136
-1.4779678150172908
-0.038916080165073405
-0.7894154437334862
-1.4779678150172908
-0.038916080165073405
-0.7894154437334862
-1.4779678150172908
-0.038916080165073405
-0.7894154437334862
-1.4779678150172908
-0.038916080165073405
-0.7894154437334862
-1.477456914202684
-0.038783213645828846
-0.7896586297077329
-1.477456914202684
-0.038783213645828846
-0.7896586297077329
-1.477456914202684
-0.038783213645828846
-0.7896586297077329
-1.477456914202684
-0.038783213645828846
-0.7896586297077329
-1.4770054056504927
-0.03914323519034605
-0.7901030674415336
-1.4770054056504927
-0.03914323519034605
-0.7901030674415336
-1.4770054056504927
-0.03914323519034605
-0.7901030674415336
-1.4770054056504927
-0.03914323519034605
-0.7901030674415336
-1.4769978415174911
-0.039760266211833505
-0.7909499606760841
-1.4769978415174911
-0.039760266211833505
-0.7909499606760841
-1.4769978415174911
-0.039760266211833505
-0.7909499606760841
-1.4769978415174911
-0.039760266211833505
-0.7909499606760841
-1.47764988650275
-0.039899103132608235
-0.7919539634227785
-1.47764988650275
-0.039899103132608235
-0.7919539634227785
-1.47764988650275
-0.039899103132608235
-0.7919539634227785
-1.47764988650275
-0.039899103132608235
-0.7919539634227785
-1.4774561914467808
-0.04023990883858211
-0.7932103459991913
-1.4774561914467808
-0.04023990883858211
-0.7932103459991913
-1.4774561914467808
-0.04023990883858211
-0.7932103459991913
-1.4774561914467808
-0.04023990883858211
-0.7932103459991913
-1.4779823410454453
-0.04088998480520976
-0.7942737581021801
-1.4779823410454453
-0.04088998480520976
-0.7942737581021801
-1.4779823410454453
-0.04088998480520976
-0.7942737581021801
-1.4779823410454453
-0.04088998480520976
-0.7942737581021801
-1.478910283683799
-0.0410642363326374
-0.7950006771524034
-1.478910283683799
-0.0410642363326374
-0.7950006771524034
-1.478910283683799
-0.0410642363326374
-0.7950006771524034
-1.478910283683799
-0.0410642363326374
-0.7950006771524034
-1.4795200657995426
-0.041105256360773904
-0.7957279019111405
-1.4795200657995426
-0.041105256360773904
-0.7957279019111405
-1.4795200657995426
-0.041105256360773904
-0.7957279019111405
-1.4795200657995426
-0.041105256360773904
-0.7957279019111405
-1.479510783377198
-0.041079573225655946
-0.7962719718922892
-1.479510783377198
-0.041079573225655946
-0.7962719718922892
-1.479510783377198
-0.041079573225655946
-0.7962719718922892
-1.479510783377198
-0.041079573225655946
-0.7962719718922892
-1.4794672665735509
-0.04178995348284966
-0.7968838276621568
-1.4794672665735509
-0.04178995348284966
-0.7968838276621568
-1.4794672665735509
-0.04178995348284966
-0.7968838276621568
-1.4794672665735509
-0.04178995348284966
-0.7968838276621568
-1.4797255680198311
-0.042258111632507374
-0.7972519586595049
-1.4797255680198311
-0.042258111632507374
-0.7972519586595049
-1.4797255680198311
-0.042258111632507374
-0.7972519586595049
-1.4797255680198311
-0.042258111632507374
-0.7972519586595049
-1.4793972000844482
-0.042759230084911934
-0.7977806638056543
-1.4793972000844482
-0.042759230084911934
-0.7977806638056543
-1.4793972000844482
-0.042759230084911934
-0.7977806638056543
-1.4793972000844482
-0.042759230084911934
-0.7977806638056543
-1.4786162015185838
-0.043443452217227826
-0.7983278319037884
-1.4786162015185838
-0.043443452217227826
-0.7983278319037884
-1.4786162015185838
-0.043443452217227826
-0.7983278319037884
-1.4786162015185838
-0.043443452217227826
-0.7983278319037884
-1.4792329740362602
-0.04415481666433872
-0.7988123749331337
-1.4792329740362602
-0.04415481666433872
-0.7988123749331337
-1.4792329740362602
-0.04415481666433872
-0.7988123749331337
-1.4792329740362602
-0.04415481666433872
-0.7988123749331337
-1.4804191017567305
-0.0446330974288872
-0.7993192314019494
-1.4804191017567305
-0.0446330974288872
-0.7993192314019494
-1.4804191017567305
-0.0446330974288872
-0.7993192314019494
-1.4804191017567305
-0.0446330974288872
-0.7993192314019494
-1.4809704408741131
-0.04438351096118108
-0.7997945757301502
-1.4809704408741131
-0.04438351096118108
-0.7997945757301502
-1.4809704408741131
-0.04438351096118108
-0.7997945757301502
-1.4809704408741131
-0.04438351096118108
-0.7997945757301502
-1.4806687187962604
-0.04395581085218797
-0.8002137490804319
-1.4806687187962604
-0.04395581085218797
-0.8002137490804319
-1.4806687187962604
-0.04395581085218797
-0.8002137490804319
-1.4806687187962604
-0.04395581085218797
-0.8002137490804319
-1.4801897824772252
-0.04392089336904697
-0.800801265671691
-1.4801897824772252
-0.04392089336904697
-0.800801265671691
-1.4801897824772252
-0.04392089336904697
-0.800801265671691
-1.4801897824772252
-0.04392089336904697
-0.800801265671691
-1.480054888901446
-0.04375290195969024
-0.801261932532533
-1.480054888901446
-0.04375290195969024
-0.801261932532533
-1.480054888901446
-0.04375290195969024
-0.801261932532533
-1.480054888901446
-0.04375290195969024
-0.801261932532533
-1.4796774825764154
-0.04348389235308964
-0.8017569078851824
-1.4796774825764154
-0.04348389235308964
-0.8017569078851824
-1.4796774825764154
-0.04348389235308964
-0.8017569078851824
-1.4796774825764154
-0.04348389235308964
-0.8017569078851824
-1.4795356081178566
-0.043131841543056874
-0.8020163886336825
-1.4795356081178566
-0.043131841543056874
-0.8020163886336825
-1.4795356081178566
-0.043131841543056874
-0.8020163886336825
-1.4795356081178566
-0.043131841543056874
-0.8020163886336825
-1.4782557952600077
-0.04257488984895109
-0.8024039867907207
-1.4782557952600077
-0.04257488984895109
-0.8024039867907207
-1.4782557952600077
-0.04257488984895109
-0.8024039867907207
-1.4782557952600077
-0.04257488984895109
-0.8024039867907207
-1.476574881355022
-0.04184874340099671
-0.8028250389538839
-1.476574881355022
-0.04184874340099671
-0.8028250389538839
-1.476574881355022
-0.04184874340099671
-0.8028250389538839
-1.476574881355022
-0.04184874340099671
-0.8028250389538839
-1.4743503902224835
-0.04106878255306576
-0.8034126994287903
-1.4743503902224835
-0.04106878255306576
-0.8034126994287903
-1.4743503902224835
-0.04106878255306576
-0.8034126994287903
-1.4743503902224835
-0.04106878255306576
-0.8034126994287903
-1.4706037552731623
-0.040113904143628115
-0.8039747742083088
-1.4706037552731623
-0.040113904143628115
-0.8039747742083088
-1.4706037552731623
-0.040113904143628115
-0.8039747742083088
-1.4706037552731623
-0.040113904143628115
-0.8039747742083088
-1.4622359981689257
-0.03767359619706742
-0.8043721259578155
-1.4622359981689257
-0.03767359619706742
-0.8043721259578155
-1.4622359981689257
-0.03767359619706742
-0.8043721259578155
-1.4622359981689257
-0.03767359619706742
-0.8043721259578155
-1.4451035372799894
-0.03558504450980591
-0.8041180515458909
-1.4451035372799894
-0.03558504450980591
-0.8041180515458909
-1.4451035372799894
-0.03558504450980591
-0.8041180515458909
-1.4451035372799894
-0.03558504450980591
-0.8041180515458909
-1.4174999576430989
-0.03377220736343989
-0.8038848868663698
-1.4174999576430989
-0.03377220736343989
-0.8038848868663698
-1.4174999576430989
-0.03377220736343989
-0.8038848868663698
-1.4174999576430989
-0.03377220736343989
-0.8038848868663698
-1.3823197660615696
-0.032840069553974276
-0.8023784554295781
-1.3823197660615696
-0.032840069553974276
-0.8023784554295781
-1.3823197660615696
-0.032840069553974276
-0.8023784554295781
-1.3823197660615696
-0.032840069553974276
-0.8023784554295781
-1.3407671244042285
-0.03214204569217551
-0.7982291559069403
-1.3407671244042285
-0.03214204569217551
-0.7982291559069403
-1.3407671244042285
-0.03214204569217551
-0.7982291559069403
-1.3407671244042285
-0.03214204569217551
-0.7982291559069403
-1.2923397141475181
-0.032027049961474506
-0.789021568326071
-1.2923397141475181
-0.032027049961474506
-0.789021568326071
-1.2923397141475181
-0.032027049961474506
-0.789021568326071
-1.2923397141475181
-0.032027049961474506
-0.789021568326071
-1.2341663132465348
-0.036252792457027394
-0.7779870113589755
-1.2341663132465348
-0.036252792457027394
-0.7779870113589755
-1.2341663132465348
-0.036252792457027394
-0.7779870113589755
-1.2341663132465348
-0.036252792457027394
-0.7779870113589755
-1.1667334333605366
-0.045343576520005265
-0.7697126601809081
-1.1667334333605366
-0.045343576520005265
-0.7697126601809081
-1.1667334333605366
-0.045343576520005265
-0.7697126601809081
-1.1667334333605366
-0.045343576520005265
-0.7697126601809081
-1.0981403750300378
-0.057467735085528944
-0.7660653715065688
-1.0981403750300378
-0.057467735085528944
-0.7660653715065688
-1.0981403750300378
-0.057467735085528944
-0.7660653715065688
-1.0981403750300378
-0.057467735085528944
-0.7660653715065688
-1.0396180447701728
-0.06874997164755109
-0.7651616373813344
-1.0396180447701728
-0.06874997164755109
-0.7651616373813344
-1.0396180447701728
-0.06874997164755109
-0.7651616373813344
-1.0396180447701728
-0.06874997164755109
-0.7651616373813344
-0.997734875562269
-0.07712542702356469
-0.7631462297601467
-0.997734875562269
-0.07712542702356469
-0.7631462297601467
-0.997734875562269
-0.07712542702356469
-0.7631462297601467
-0.997734875562269
-0.07712542702356469
-0.7631462297601467
-0.9749037638712934
-0.08220830158680514
-0.7592877928383047
-0.9749037638712934
-0.08220830158680514
-0.7592877928383047
-0.9749037638712934
-0.08220830158680514
-0.7592877928383047
-0.9749037638712934
-0.08220830158680514
-0.7592877928383047
-0.9720003954923006
-0.085539584747383
-0.7538012373794146
-0.9720003954923006
-0.085539584747383
-0.7538012373794146
-0.9720003954923006
-0.085539584747383
-0.7538012373794146
-0.9720003954923006
-0.085539584747383
-0.7538012373794146
-0.9853997554211726
-0.08681985143012674
-0.7491899006197353
-0.9853997554211726
-0.08681985143012674
-0.7491899006197353
-0.9853997554211726
-0.08681985143012674
-0.7491899006197353
-0.9853997554211726
-0.08681985143012674
-0.7491899006197353
-1.0006668059429904
-0.08735448390777208
-0.7486762866652732
-1.0006668059429904
-0.08735448390777208
-0.7486762866652732
-1.0006668059429904
-0.08735448390777208
-0.7486762866652732
-1.0006668059429904
-0.08735448390777208
-0.7486762866652732
-1.003194127307469
-0.08757649719406242
-0.7516946292174036
-1.003194127307469
-0.08757649719406242
-0.7516946292174036
-1.003194127307469
-0.08757649719406242
-0.7516946292174036
-1.003194127307469
-0.08757649719406242
-0.7516946292174036
-0.9877772814912831
-0.0874971613372447
-0.7548213628083273
-0.9877772814912831
-0.0874971613372447
-0.7548213628083273
-0.9877772814912831
-0.0874971613372447
-0.7548213628083273
-0.9877772814912831
-0.0874971613372447
-0.7548213628083273
-0.965528943884174
-0.08807970096317166
-0.756932504675951
-0.965528943884174
-0.08807970096317166
-0.756932504675951
-0.965528943884174
-0.08807970096317166
-0.756932504675951
-0.965528943884174
-0.08807970096317166
-0.756932504675951
-0.9507293531357486
-0.08990336919285623
-0.7573504362697917
-0.9507293531357486
-0.08990336919285623
-0.7573504362697917
-0.9507293531357486
-0.08990336919285623
-0.7573504362697917
-0.9507293531357486
-0.08990336919285623
-0.7573504362697917
-0.9502288380601669
-0.09190005572925769
-0.7559898561537912
-0.9502288380601669
-0.09190005572925769
-0.7559898561537912
-0.9502288380601669
-0.09190005572925769
-0.7559898561537912
-0.9502288380601669
-0.09190005572925769
-0.7559898561537912
-0.9576037038819618
-0.0942854094419451
-0.7538380133751648
-0.9576037038819618
-0.0942854094419451
-0.7538380133751648
-0.9576037038819618
-0.0942854094419451
-0.7538380133751648
-0.9576037038819618
-0.0942854094419451
-0.7538380133751648
-0.9637130067544362
-0.0968779964144674
-0.7520296273277663
-0.9637130067544362
-0.0968779964144674
-0.7520296273277663
-0.9637130067544362
-0.0968779964144674
-0.7520296273277663
-0.9637130067544362
-0.0968779964144674
-0.7520296273277663
-0.9632908163879332
-0.09984096010241793
-0.7510118152755139
-0.9632908163879332
-0.09984096010241793
-0.7510118152755139
-0.9632908163879332
-0.09984096010241793
-0.7510118152755139
-0.9632908163879332
-0.09984096010241793
-0.7510118152755139
-0.9563362539008544
-0.10354116760284666
-0.7504825590833117
-0.9563362539008544
-0.10354116760284666
-0.7504825590833117
-0.9563362539008544
-0.10354116760284666
-0.7504825590833117
-0.9563362539008544
-0.10354116760284666
-0.7504825590833117
-0.9495985482681807
-0.10744681295810529
-0.7499141393574253
-0.9495985482681807
-0.10744681295810529
-0.7499141393574253
-0.9495985482681807
-0.10744681295810529
-0.7499141393574253
-0.9495985482681807
-0.10744681295810529
-0.7499141393574253
-0.9474821847230831
-0.1111638726311436
-0.7489435863088844
-0.9474821847230831
-0.1111638726311436
-0.7489435863088844
-0.9474821847230831
-0.1111638726311436
-0.7489435863088844
-0.9474821847230831
-0.1111638726311436
-0.7489435863088844
-0.9501053806228656
-0.11425515440095754
-0.7474517356901308
-0.9501053806228656
-0.11425515440095754
-0.7474517356901308
-0.9501053806228656
-0.11425515440095754
-0.7474517356901308
-0.9501053806228656
-0.11425515440095754
-0.7474517356901308
-0.9535182516377639
-0.11713513109827642
-0.7460896857208984
-0.9535182516377639
-0.11713513109827642
-0.7460896857208984
-0.9535182516377639
-0.11713513109827642
-0.7460896857208984
-0.9535182516377639
-0.11713513109827642
-0.7460896857208984
-0.9547015040699235
-0.11967479225113702
-0.745008907794751
-0.9547015040699235
-0.11967479225113702
-0.745008907794751
-0.9547015040699235
-0.11967479225113702
-0.745008907794751
-0.9547015040699235
-0.11967479225113702
-0.745008907794751
-0.9536456916042118
-0.1226365132573499
-0.7442601093759548
-0.9536456916042118
-0.1226365132573499
-0.7442601093759548
-0.9536456916042118
-0.1226365132573499
-0.7442601093759548
-0.9536456916042118
-0.1226365132573499
-0.7442601093759548
-0.9512757104808699
-0.12562283659035778
-0.7437694606211144
-0.9512757104808699
-0.12562283659035778
-0.7437694606211144
-0.9512757104808699
-0.12562283659035778
-0.7437694606211144
-0.9512757104808699
-0.12562283659035778
-0.7437694606211144
-0.9489239591907723
-0.12861380358655447
-0.743029812505648
-0.9489239591907723
-0.12861380358655447
-0.743029812505648
-0.9489239591907723
-0.12861380358655447
-0.743029812505648
-0.9489239591907723
-0.12861380358655447
-0.743029812505648
-0.9476212660853399
-0.13135459456020707
-0.7420688759278725
-0.9476212660853399
-0.13135459456020707
-0.7420688759278725
-0.9476212660853399
-0.13135459456020707
-0.7420688759278725
-0.9476212660853399
-0.13135459456020707
-0.7420688759278725
-0.9471265960375465
-0.1336568033379362
-0.7413051686173024
-0.9471265960375465
-0.1336568033379362
-0.7413051686173024
-0.9471265960375465
-0.1336568033379362
-0.7413051686173024
-0.9471265960375465
-0.1336568033379362
-0.7413051686173024
-0.9475696696489244
-0.13550610057591603
-0.7406050948401477
-0.9475696696489244
-0.13550610057591603
-0.7406050948401477
-0.9475696696489244
-0.13550610057591603
-0.7406050948401477
-0.9475696696489244
-0.13550610057591603
-0.7406050948401477
-0.9472186282215624
-0.13669455845009154
-0.7398435167367897
-0.9472186282215624
-0.13669455845009154
-0.7398435167367897
-0.9472186282215624
-0.13669455845009154
-0.7398435167367897
-0.9472186282215624
-0.13669455845009154
-0.7398435167367897
-0.9458779674111787
-0.137802733947118
-0.7394262333452754
-0.9458779674111787
-0.137802733947118
-0.7394262333452754
-0.9458779674111787
-0.137802733947118
-0.7394262333452754
-0.9458779674111787
-0.137802733947118
-0.7394262333452754
-0.944677758751668
-0.13843006031407548
-0.7388121822264745
-0.944677758751668
-0.13843006031407548
-0.7388121822264745
-0.944677758751668
-0.13843006031407548
-0.7388121822264745
-0.944677758751668
-0.13843006031407548
-0.7388121822264745
-0.9434726338641494
-0.139182901760951
-0.7384418505507335
-0.9434726338641494
-0.139182901760951
-0.7384418505507335
-0.9434726338641494
-0.139182901760951
-0.7384418505507335
-0.9434726338641494
-0.139182901760951
-0.7384418505507335
-0.942857703870472
-0.13980246953651657
-0.7378904834781391
-0.942857703870472
-0.13980246953651657
-0.7378904834781391
-0.942857703870472
-0.13980246953651657
-0.7378904834781391
-0.942857703870472
-0.13980246953651657
-0.7378904834781391
-0.9434176153072839
-0.14058727654013814
-0.737295036095249
-0.9434176153072839
-0.14058727654013814
-0.737295036095249
-0.9434176153072839
-0.14058727654013814
-0.737295036095249
-0.9434176153072839
-0.14058727654013814
-0.737295036095249
-0.9438554716297867
-0.1413315468025648
-0.7369830491726543
-0.9438554716297867
-0.1413315468025648
-0.7369830491726543
-0.9438554716297867
-0.1413315468025648
-0.7369830491726543
-0.9438554716297867
-0.1413315468025648
-0.7369830491726543
-0.9438701774567618
-0.1420938795661467
-0.7367714708501882
-0.9438701774567618
-0.1420938795661467
-0.7367714708501882
-0.9438701774567618
-0.1420938795661467
-0.7367714708501882
-0.9438701774567618
-0.1420938795661467
-0.7367714708501882
-0.9437101276949562
-0.14271771234007852
-0.7364122090147771
-0.9437101276949562
-0.14271771234007852
-0.7364122090147771
-0.9437101276949562
-0.14271771234007852
-0.7364122090147771
-0.9437101276949562
-0.14271771234007852
-0.7364122090147771
-0.9429765245174309
-0.14341010007946187
-0.735583106181692
-0.9429765245174309
-0.14341010007946187
-0.735583106181692
-0.9429765245174309
-0.14341010007946187
-0.735583106181692
-0.9429765245174309
-0.14341010007946187
-0.735583106181692
-0.942560225476928
-0.14408417003334725
-0.734428883649729
-0.942560225476928
-0.14408417003334725
-0.734428883649729
-0.942560225476928
-0.14408417003334725
-0.734428883649729
-0.942560225476928
-0.14408417003334725
-0.734428883649729
-0.9425493518863383
-0.14462908235832053
-0.7332858533200813
-0.9425493518863383
-0.14462908235832053
-0.7332858533200813
-0.9425493518863383
-0.14462908235832053
-0.7332858533200813
-0.9425493518863383
-0.14462908235832053
-0.7332858533200813
-0.9432930632795286
-0.14511767394480682
-0.7325167298720175
-0.9432930632795286
-0.14511767394480682
-0.7325167298720175
-0.9432930632795286
-0.14511767394480682
-0.7325167298720175
-0.9432930632795286
-0.14511767394480682
-0.7325167298720175
-0.9439791877581438
-0.14507097883816003
-0.7321528795591943
-0.9439791877581438
-0.14507097883816003
-0.7321528795591943
-0.9439791877581438
-0.14507097883816003
-0.7321528795591943
-0.9439791877581438
-0.14507097883816003
-0.7321528795591943
-0.9456899824385626
-0.14436627095991295
-0.7316892404072742
-0.9456899824385626
-0.14436627095991295
-0.7316892404072742
-0.9456899824385626
-0.14436627095991295
-0.7316892404072742
-0.9456899824385626
-0.14436627095991295
-0.7316892404072742
-0.9479652670143491
-0.14323076555317704
-0.7313243596814181
-0.9479652670143491
-0.14323076555317704
-0.7313243596814181
-0.9479652670143491
-0.14323076555317704
-0.7313243596814181
-0.9479652670143491
-0.14323076555317704
-0.7313243596814181
-0.9510677080355628
-0.14194457816450612
-0.7308735181366481
-0.9510677080355628
-0.14194457816450612
-0.7308735181366481
-0.9510677080355628
-0.14194457816450612
-0.7308735181366481
-0.9510677080355628
-0.14194457816450612
-0.7308735181366481
-0.9554288027000097
-0.1408492813047745
-0.7306104129053214
-0.9554288027000097
-0.1408492813047745
-0.7306104129053214
-0.9554288027000097
-0.1408492813047745
-0.7306104129053214
-0.9554288027000097
-0.1408492813047745
-0.7306104129053214
-0.9610682394301839
-0.1393917990244876
-0.7308777503838297
-0.9610682394301839
-0.1393917990244876
-0.7308777503838297
-0.9610682394301839
-0.1393917990244876
-0.7308777503838297
-0.9610682394301839
-0.1393917990244876
-0.7308777503838297
-0.9673365645077617
-0.13766352658446213
-0.7312763806465254
-0.9673365645077617
-0.13766352658446213
-0.7312763806465254
-0.9673365645077617
-0.13766352658446213
-0.7312763806465254
-0.9673365645077617
-0.13766352658446213
-0.7312763806465254
-0.9749969481980226
-0.1357764126672904
-0.731921068102614
-0.9749969481980226
-0.1357764126672904
-0.731921068102614
-0.9749969481980226
-0.1357764126672904
-0.731921068102614
-0.9749969481980226
-0.1357764126672904
-0.731921068102614
-0.9824947241507094
-0.1338826990331062
-0.732418415062844
-0.9824947241507094
-0.1338826990331062
-0.732418415062844
-0.9824947241507094
-0.1338826990331062
-0.732418415062844
-0.9824947241507094
-0.1338826990331062
-0.732418415062844
-0.9907321074080959
-0.13170709242198542
-0.7331847662962341
-0.9907321074080959
-0.13170709242198542
-0.7331847662962341
-0.9907321074080959
-0.13170709242198542
-0.7331847662962341
-0.9907321074080959
-0.13170709242198542
-0.7331847662962341
-1.0001725302584896
-0.1294405858167981
-0.7342483021657596
-1.0001725302584896
-0.1294405858167981
-0.7342483021657596
-1.0001725302584896
-0.1294405858167981
-0.7342483021657596
-1.0001725302584896
-0.1294405858167981
-0.7342483021657596
-1.011605065286196
-0.12694693815260522
-0.7360494198988101
-1.011605065286196
-0.12694693815260522
-0.7360494198988101
-1.011605065286196
-0.12694693815260522
-0.7360494198988101
-1.011605065286196
-0.12694693815260522
-0.7360494198988101
-1.0252306709472803
-0.12395830879339521
-0.7382831246132737
-1.0252306709472803
-0.12395830879339521
-0.7382831246132737
-1.0252306709472803
-0.12395830879339521
-0.7382831246132737
-1.0252306709472803
-0.12395830879339521
-0.7382831246132737
-1.0423822907441973
-0.12022558957825216
-0.7407934523198995
-1.0423822907441973
-0.12022558957825216
-0.7407934523198995
-1.0423822907441973
-0.12022558957825216
-0.7407934523198995
-1.0423822907441973
-0.12022558957825216
-0.7407934523198995
-1.0640561892897427
-0.1155110445276043
-0.744085287676796
-1.0640561892897427
-0.1155110445276043
-0.744085287676796
-1.0640561892897427
-0.1155110445276043
-0.744085287676796
-1.0640561892897427
-0.1155110445276043
-0.744085287676796
-1.0902374156201207
-0.11016022910569959
-0.7489428624551122
-1.0902374156201207
-0.11016022910569959
-0.7489428624551122
-1.0902374156201207
-0.11016022910569959
-0.7489428624551122
-1.0902374156201207
-0.11016022910569959
-0.7489428624551122
-1.1245026973033483
-0.10406755094957577
-0.7555337278966335
-1.1245026973033483
-0.10406755094957577
-0.7555337278966335
-1.1245026973033483
-0.10406755094957577
-0.7555337278966335
-1.1245026973033483
-0.10406755094957577
-0.7555337278966335
-1.1717324999307988
-0.09776816374740892
-0.7609888965547934
-1.1717324999307988
-0.09776816374740892
-0.7609888965547934
-1.1717324999307988
-0.09776816374740892
-0.7609888965547934
-1.1717324999307988
-0.09776816374740892
-0.7609888965547934
-1.2324741318173946
-0.08865186584265945
-0.7647212305637249
-1.2324741318173946
-0.08865186584265945
-0.7647212305637249
-1.2324741318173946
-0.08865186584265945
-0.7647212305637249
-1.2324741318173946
-0.08865186584265945
-0.7647212305637249
-1.2984928984887874
-0.08104846255887849
-0.7691269371750471
-1.2984928984887874
-0.08104846255887849
-0.7691269371750471
-1.2984928984887874
-0.08104846255887849
-0.7691269371750471
-1.2984928984887874
-0.08104846255887849
-0.7691269371750471
-1.355886654720071
-0.07585121269006363
-0.7739095376291042
-1.355886654720071
-0.07585121269006363
-0.7739095376291042
-1.355886654720071
-0.07585121269006363
-0.7739095376291042
-1.355886654720071
-0.07585121269006363
-0.7739095376291042
-1.3873995035194293
-0.06967260517281032
-0.7782777007227382
-1.3873995035194293
-0.06967260517281032
-0.7782777007227382
-1.3873995035194293
-0.06967260517281032
-0.7782777007227382
-1.3873995035194293
-0.06967260517281032
-0.7782777007227382
-1.3945424775588693
-0.06602055699825152
-0.7819986485166756
-1.3945424775588693
-0.06602055699825152
-0.7819986485166756
-1.3945424775588693
-0.06602055699825152
-0.7819986485166756
-1.3945424775588693
-0.06602055699825152
-0.7819986485166756
-1.3965855905649738
-0.06335563453326222
-0.7848341778908293
-1.3965855905649738
-0.06335563453326222
-0.7848341778908293
-1.3965855905649738
-0.06335563453326222
-0.7848341778908293
-1.3965855905649738
-0.06335563453326222
-0.7848341778908293
-1.4056112937900131
-0.062223435898562114
-0.7857491806157372
-1.4056112937900131
-0.062223435898562114
-0.7857491806157372
-1.4056112937900131
-0.062223435898562114
-0.7857491806157372
-1.4056112937900131
-0.062223435898562114
-0.7857491806157372
-1.418458062008439
-0.06133847654062426
-0.7869896393344432
-1.418458062008439
-0.06133847654062426
-0.7869896393344432
-1.418458062008439
-0.06133847654062426
-0.7869896393344432
-1.418458062008439
-0.06133847654062426
-0.7869896393344432
-1.429897612962227
-0.0606003083854832
-0.7889055133865922
-1.429897612962227
-0.0606003083854832
-0.7889055133865922
-1.429897612962227
-0.0606003083854832
-0.7889055133865922
-1.429897612962227
-0.0606003083854832
-0.7889055133865922
-1.4380666700796412
-0.060504437913821214
-0.7908619355642709
-1.4380666700796412
-0.060504437913821214
-0.7908619355642709
-1.4380666700796412
-0.060504437913821214
-0.7908619355642709
-1.4380666700796412
-0.060504437913821214
-0.7908619355642709
-1.4446346474474128
-0.05941989842858077
-0.7920985944432468
-1.4446346474474128
-0.05941989842858077
-0.7920985944432468
-1.4446346474474128
-0.05941989842858077
-0.7920985944432468
-1.4446346474474128
-0.05941989842858077
-0.7920985944432468
-1.4509377136588482
-0.05866173803679711
-0.7922778444779324
-1.4509377136588482
-0.05866173803679711
-0.7922778444779324
-1.4509377136588482
-0.05866173803679711
-0.7922778444779324
-1.4509377136588482
-0.05866173803679711
-0.7922778444779324
-1.4570656308332297
-0.058765574025686496
-0.7925160184011817
-1.4570656308332297
-0.058765574025686496
-0.7925160184011817
-1.4570656308332297
-0.058765574025686496
-0.7925160184011817
-1.4570656308332297
-0.058765574025686496
-0.7925160184011817
-1.4621186110348057
-0.05916278936242309
-0.7930273683016721
-1.4621186110348057
-0.05916278936242309
-0.7930273683016721
-1.4621186110348057
-0.05916278936242309
-0.7930273683016721
-1.4621186110348057
-0.05916278936242309
-0.7930273683016721
-1.4662267285650263
-0.060484174845189226
-0.7934535888217076
-1.4662267285650263
-0.060484174845189226
-0.7934535888217076
-1.4662267285650263
-0.060484174845189226
-0.7934535888217076
-1.4662267285650263
-0.060484174845189226
-0.7934535888217076
-1.4717743104173486
-0.06194015523760555
-0.7939161559114747
-1.4717743104173486
-0.06194015523760555
-0.7939161559114747
-1.4717743104173486
-0.06194015523760555
-0.7939161559114747
-1.4717743104173486
-0.06194015523760555
-0.7939161559114747
-1.4797316566671923
-0.06329758100096018
-0.7938704252975346
-1.4797316566671923
-0.06329758100096018
-0.7938704252975346
-1.4797316566671923
-0.06329758100096018
-0.7938704252975346
-1.4797316566671923
-0.06329758100096018
-0.7938704252975346
-1.4885345807813235
-0.06397680518439847
-0.7938383345784403
-1.4885345807813235
-0.06397680518439847
-0.7938383345784403
-1.4885345807813235
-0.06397680518439847
-0.7938383345784403
-1.4885345807813235
-0.06397680518439847
-0.7938383345784403
-1.4949310376218237
-0.06411571405312683
-0.7940040451401277
-1.4949310376218237
-0.06411571405312683
-0.7940040451401277
-1.4949310376218237
-0.06411571405312683
-0.7940040451401277
-1.4949310376218237
-0.06411571405312683
-0.7940040451401277
-1.4993799481585437
-0.06401259033647519
-0.7939039130044179
-1.4993799481585437
-0.06401259033647519
-0.7939039130044179
-1.4993799481585437
-0.06401259033647519
-0.7939039130044179
-1.4993799481585437
-0.06401259033647519
-0.7939039130044179
-1.5022142967846828
-0.06332873645278662
-0.7935301635107598
-1.5022142967846828
-0.06332873645278662
-0.7935301635107598
-1.5022142967846828
-0.06332873645278662
-0.7935301635107598
-1.5022142967846828
-0.06332873645278662
-0.7935301635107598
-1.5052161669708806
-0.06355887566162009
-0.7933294919761406
-1.5052161669708806
-0.06355887566162009
-0.7933294919761406
-1.5052161669708806
-0.06355887566162009
-0.7933294919761406
-1.5052161669708806
-0.06355887566162009
-0.7933294919761406
-1.507434183000539
-0.06494745624451607
-0.7935421499158473
-1.507434183000539
-0.06494745624451607
-0.7935421499158473
-1.507434183000539
-0.06494745624451607
-0.7935421499158473
-1.507434183000539
-0.06494745624451607
-0.7935421499158473
-1.5087175482418729
-0.06744993629706157
-0.7936912411046837
-1.5087175482418729
-0.06744993629706157
-0.7936912411046837
-1.5087175482418729
-0.06744993629706157
-0.7936912411046837
-1.5087175482418729
-0.06744993629706157
-0.7936912411046837
-1.5096847606880532
-0.07048096132676986
-0.7938179651832111
-1.5096847606880532
-0.07048096132676986
-0.7938179651832111
-1.5096847606880532
-0.07048096132676986
-0.7938179651832111
-1.5096847606880532
-0.07048096132676986
-0.7938179651832111
-1.5114351090156977
-0.07309414844396293
-0.7930627785313505
-1.5114351090156977
-0.07309414844396293
-0.7930627785313505
-1.5114351090156977
-0.07309414844396293
-0.7930627785313505
-1.5114351090156977
-0.07309414844396293
-0.7930627785313505
-1.5143235065731109
-0.07525125504018608
-0.7920875133459914
-1.5143235065731109
-0.07525125504018608
-0.7920875133459914
-1.5143235065731109
-0.07525125504018608
-0.7920875133459914
-1.5143235065731109
-0.07525125504018608
-0.7920875133459914
-1.5163597171338592
-0.07677076050769256
-0.7910418688371976
-1.5163597171338592
-0.07677076050769256
-0.7910418688371976
-1.5163597171338592
-0.07677076050769256
-0.7910418688371976
-1.5163597171338592
-0.07677076050769256
-0.7910418688371976
-1.5166336064305472
-0.07885333470103782
-0.7906225338486641
-1.5166336064305472
-0.07885333470103782
-0.7906225338486641
-1.5166336064305472
-0.07885333470103782
-0.7906225338486641
-1.5166336064305472
-0.07885333470103782
-0.7906225338486641
-1.516434180771419
-0.08139840592522486
-0.7901877809471064
-1.516434180771419
-0.08139840592522486
-0.7901877809471064
-1.516434180771419
-0.08139840592522486
-0.7901877809471064
-1.516434180771419
-0.08139840592522486
-0.7901877809471064
-1.5167811340261144
-0.0841646397515978
-0.7900888963425038
-1.5167811340261144
-0.0841646397515978
-0.7900888963425038
-1.5167811340261144
-0.0841646397515978
-0.7900888963425038
-1.5167811340261144
-0.0841646397515978
-0.7900888963425038
-1.5176314392313848
-0.08639686709623826
-0.7899860794856789
-1.5176314392313848
-0.08639686709623826
-0.7899860794856789
-1.5176314392313848
-0.08639686709623826
-0.7899860794856789
-1.5176314392313848
-0.08639686709623826
-0.7899860794856789
-1.5193466756736898
-0.08832796719867882
-0.7900746500687434
-1.5193466756736898
-0.08832796719867882
-0.7900746500687434
-1.5193466756736898
-0.08832796719867882
-0.7900746500687434
-1.5193466756736898
-0.08832796719867882
-0.7900746500687434
-1.521336444453892
-0.08952478884086708
-0.790754316718822
-1.521336444453892
-0.08952478884086708
-0.790754316718822
-1.521336444453892
-0.08952478884086708
-0.790754316718822
-1.521336444453892
-0.08952478884086708
-0.790754316718822
-1.5223818878135693
-0.09005066817052046
-0.7915712102287878
-1.5223818878135693
-0.09005066817052046
-0.7915712102287878
-1.5223818878135693
-0.09005066817052046
-0.7915712102287878
-1.5223818878135693
-0.09005066817052046
-0.7915712102287878
-1.5226018924081905
-0.0905150712471412
-0.7925365586275974
-1.5226018924081905
-0.0905150712471412
-0.7925365586275974
-1.5226018924081905
-0.0905150712471412
-0.7925365586275974
-1.5226018924081905
-0.0905150712471412
-0.7925365586275974
-1.522960858012636
-0.09131206868107386
-0.793549953795984
-1.522960858012636
-0.09131206868107386
-0.793549953795984
-1.522960858012636
-0.09131206868107386
-0.793549953795984
-1.522960858012636
-0.09131206868107386
-0.793549953795984
-1.5234226259905117
-0.09187444085342548
-0.7944729690364596
-1.5234226259905117
-0.09187444085342548
-0.7944729690364596
-1.5234226259905117
-0.09187444085342548
-0.7944729690364596
-1.5234226259905117
-0.09187444085342548
-0.7944729690364596
-1.5234507437792104
-0.09188121707310422
-0.7955954252607668
-1.5234507437792104
-0.09188121707310422
-0.7955954252607668
-1.5234507437792104
-0.09188121707310422
-0.7955954252607668
-1.5234507437792104
-0.09188121707310422
-0.7955954252607668
-1.5231322846460504
-0.09202511751417021
-0.796850239023387
-1.5231322846460504
-0.09202511751417021
-0.796850239023387
-1.5231322846460504
-0.09202511751417021
-0.796850239023387
-1.5231322846460504
-0.09202511751417021
-0.796850239023387
-1.5229056419158566
-0.09239456645484212
-0.7981063291873786
-1.5229056419158566
-0.09239456645484212
-0.7981063291873786
-1.5229056419158566
-0.09239456645484212
-0.7981063291873786
-1.5229056419158566
-0.09239456645484212
-0.7981063291873786
-1.5234331699598733
-0.09279920034382515
-0.7990223029544707
-1.5234331699598733
-0.09279920034382515
-0.7990223029544707
-1.5234331699598733
-0.09279920034382515
-0.7990223029544707
-1.5234331699598733
-0.09279920034382515
-0.7990223029544707
-1.5234445946573874
-0.09355273547147264
-0.7998111102406437
-1.5234445946573874
-0.09355273547147264
-0.7998111102406437
-1.5234445946573874
-0.09355273547147264
-0.7998111102406437
-1.5234445946573874
-0.09355273547147264
-0.7998111102406437
-1.5229472971589064
-0.0937125200648493
-0.8007690058109311
-1.5229472971589064
-0.0937125200648493
-0.8007690058109311
-1.5229472971589064
-0.0937125200648493
-0.8007690058109311
-1.5229472971589064
-0.0937125200648493
-0.8007690058109311
-1.523064769529238
-0.09441972657025569
-0.8016651831981636
-1.523064769529238
-0.09441972657025569
-0.8016651831981636
-1.523064769529238
-0.09441972657025569
-0.8016651831981636
-1.523064769529238
-0.09441972657025569
-0.8016651831981636
-1.5238391672363276
-0.09493056387887429
-0.8023785008516912
-1.5238391672363276
-0.09493056387887429
-0.8023785008516912
-1.5238391672363276
-0.09493056387887429
-0.8023785008516912
-1.5238391672363276
-0.09493056387887429
-0.8023785008516912
-1.5246288682043672
-0.09516981859430232
-0.8031976799768692
-1.5246288682043672
-0.09516981859430232
-0.8031976799768692
-1.5246288682043672
-0.09516981859430232
-0.8031976799768692
-1.5246288682043672
-0.09516981859430232
-0.8031976799768692
-1.524577394486892
-0.09561493761373455
-0.80406163168231
-1.524577394486892
-0.09561493761373455
-0.80406163168231
-1.524577394486892
-0.09561493761373455
-0.80406163168231
-1.524577394486892
-0.09561493761373455
-0.80406163168231
-1.5240029447495709
-0.09640021492096303
-0.8049587490659775
-1.5240029447495709
-0.09640021492096303
-0.8049587490659775
-1.5240029447495709
-0.09640021492096303
-0.8049587490659775
-1.5240029447495709
-0.09640021492096303
-0.8049587490659775
-1.523979759493491
-0.0972367714928456
-0.8056715939463187
-1.523979759493491
-0.0972367714928456
-0.8056715939463187
-1.523979759493491
-0.0972367714928456
-0.8056715939463187
-1.523979759493491
-0.0972367714928456
-0.8056715939463187
-1.5245310714721436
-0.0978470629483339
-0.8062376816320082
-1.5245310714721436
-0.0978470629483339
-0.8062376816320082
-1.5245310714721436
-0.0978470629483339
-0.8062376816320082
-1.5245310714721436
-0.0978470629483339
-0.8062376816320082
-1.5243346454924358
-0.0978550048509288
-0.8063270413854522
-1.5243346454924358
-0.0978550048509288
-0.8063270413854522
-1.5243346454924358
-0.0978550048509288
-0.8063270413854522
-1.5243346454924358
-0.0978550048509288
-0.8063270413854522
-1.523852297582084
-0.09849598329183418
-0.8066720656404281
-1.523852297582084
-0.09849598329183418
-0.8066720656404281
-1.523852297582084
-0.09849598329183418
-0.8066720656404281
-1.523852297582084
-0.09849598329183418
-0.8066720656404281
-1.5232414226589526
-0.09898614912366747
-0.8070997462708575
-1.5232414226589526
-0.09898614912366747
-0.8070997462708575
-1.5232414226589526
-0.09898614912366747
-0.8070997462708575
-1.5232414226589526
-0.09898614912366747
-0.8070997462708575
-1.523578918365748
-0.0992267057444979
-0.8075880001170811
-1.523578918365748
-0.0992267057444979
-0.8075880001170811
-1.523578918365748
-0.0992267057444979
-0.8075880001170811
-1.523578918365748
-0.0992267057444979
-0.8075880001170811
-1.5246558970057869
-0.09921207939063793
-0.8085445253637455
-1.5246558970057869
-0.09921207939063793
-0.8085445253637455
-1.5246558970057869
-0.09921207939063793
-0.8085445253637455
-1.5246558970057869
-0.09921207939063793
-0.8085445253637455
-1.525065213408311
-0.0990089196943496
-0.8094503500528932
-1.525065213408311
-0.0990089196943496
-0.8094503500528932
-1.525065213408311
-0.0990089196943496
-0.8094503500528932
-1.525065213408311
-0.0990089196943496
-0.8094503500528932
-1.5248978021410422
-0.09884275917499714
-0.8103061343950259
-1.5248978021410422
-0.09884275917499714
-0.8103061343950259
-1.5248978021410422
-0.09884275917499714
-0.8103061343950259
-1.5248978021410422
-0.09884275917499714
-0.8103061343950259
-1.5254475015675595
-0.09860296536250415
-0.8107048772061857
-1.5254475015675595
-0.09860296536250415
-0.8107048772061857
-1.5254475015675595
-0.09860296536250415
-0.8107048772061857
-1.5254475015675595
-0.09860296536250415
-0.8107048772061857
-1.5262311483203443
-0.09828014233577427
-0.8109314027365024
-1.5262311483203443
-0.09828014233577427
-0.8109314027365024
-1.5262311483203443
-0.09828014233577427
-0.8109314027365024
-1.5262311483203443
-0.09828014233577427
-0.8109314027365024
-1.5260665841300738
-0.09755523164972697
-0.8110367281811864
-1.5260665841300738
-0.09755523164972697
-0.8110367281811864
-1.5260665841300738
-0.09755523164972697
-0.8110367281811864
-1.5260665841300738
-0.09755523164972697
-0.8110367281811864
-1.5256375856614648
-0.09783463226294223
-0.8114953514613303
-1.5256375856614648
-0.09783463226294223
-0.8114953514613303
-1.5256375856614648
-0.09783463226294223
-0.8114953514613303
-1.5256375856614648
-0.09783463226294223
-0.8114953514613303
-1.525377312490955
-0.09791636012824591
-0.8121228722684546
-1.525377312490955
-0.09791636012824591
-0.8121228722684546
-1.525377312490955
-0.09791636012824591
-0.8121228722684546
-1.525377312490955
-0.09791636012824591
-0.8121228722684546
-1.5253733757641261
-0.09828661352713938
-0.8126763164069791
-1.5253733757641261
-0.09828661352713938
-0.8126763164069791
-1.5253733757641261
-0.09828661352713938
-0.8126763164069791
-1.5253733757641261
-0.09828661352713938
-0.8126763164069791
-1.524503196545676
-0.09913632590537383
-0.8132383166570004
-1.524503196545676
-0.09913632590537383
-0.8132383166570004
-1.524503196545676
-0.09913632590537383
-0.8132383166570004
-1.524503196545676
-0.09913632590537383
-0.8132383166570004
-1.523579729473599
-0.0996833965709176
-0.813717165953885
-1.523579729473599
-0.0996833965709176
-0.813717165953885
-1.523579729473599
-0.0996833965709176
-0.813717165953885
-1.523579729473599
-0.0996833965709176
-0.813717165953885
-1.5220030263162139
-0.10022831013887695
-0.8141157341288864
-1.5220030263162139
-0.10022831013887695
-0.8141157341288864
-1.5220030263162139
-0.10022831013887695
-0.8141157341288864
-1.5220030263162139
-0.10022831013887695
-0.8141157341288864
-1.5200811493256696
-0.10043145182058875
-0.8148757546501484
-1.5200811493256696
-0.10043145182058875
-0.8148757546501484
-1.5200811493256696
-0.10043145182058875
-0.8148757546501484
-1.5200811493256696
-0.10043145182058875
-0.8148757546501484
-1.5165462837001222
-0.10060126375062296
-0.816057345454827
-1.5165462837001222
-0.10060126375062296
-0.816057345454827
-1.5165462837001222
-0.10060126375062296
-0.816057345454827
-1.5165462837001222
-0.10060126375062296
-0.816057345454827
-1.510750012233158
-0.1000669815234894
-0.8176050519547846
-1.510750012233158
-0.1000669815234894
-0.8176050519547846
-1.510750012233158
-0.1000669815234894
-0.8176050519547846
-1.510750012233158
-0.1000669815234894
-0.8176050519547846
-1.5005630110644645
-0.0991268362813424
-0.8198092355050149
-1.5005630110644645
-0.0991268362813424
-0.8198092355050149
-1.5005630110644645
-0.0991268362813424
-0.8198092355050149
-1.5005630110644645
-0.0991268362813424
-0.8198092355050149
-1.481407810146535
-0.09680769291855343
-0.8226354819584054
-1.481407810146535
-0.09680769291855343
-0.8226354819584054
-1.481407810146535
-0.09680769291855343
-0.8226354819584054
-1.481407810146535
-0.09680769291855343
-0.8226354819584054
-1.4566495585962027
-0.09474219547130608
-0.8254406336107593
-1.4566495585962027
-0.09474219547130608
-0.8254406336107593
-1.4566495585962027
-0.09474219547130608
-0.8254406336107593
-1.4566495585962027
-0.09474219547130608
-0.8254406336107593
-1.4295213378409686
-0.0913909362830353
-0.8266392003511408
-1.4295213378409686
-0.0913909362830353
-0.8266392003511408
-1.4295213378409686
-0.0913909362830353
-0.8266392003511408
-1.4295213378409686
-0.0913909362830353
-0.8266392003511408
-1.397360048094804
-0.08601765843510044
-0.8236431461034732
-1.397360048094804
-0.08601765843510044
-0.8236431461034732
-1.397360048094804
-0.08601765843510044
-0.8236431461034732
-1.397360048094804
-0.08601765843510044
-0.8236431461034732
-1.3556726380208712
-0.07989995249632763
-0.8142285178982288
-1.3556726380208712
-0.07989995249632763
-0.8142285178982288
-1.3556726380208712
-0.07989995249632763
-0.8142285178982288
-1.3556726380208712
-0.07989995249632763
-0.8142285178982288
-1.3049439071207547
-0.07605081007749018
-0.8014655733394744
-1.3049439071207547
-0.07605081007749018
-0.8014655733394744
-1.3049439071207547
-0.07605081007749018
-0.8014655733394744
-1.3049439071207547
-0.07605081007749018
-0.8014655733394744
-1.243944606148861
-0.07671951941860865
-0.7888044204635621
-1.243944606148861
-0.07671951941860865
-0.7888044204635621
-1.243944606148861
-0.07671951941860865
-0.7888044204635621
-1.243944606148861
-0.07671951941860865
-0.7888044204635621
-1.17869939319622
-0.08130806362750115
-0.780636343852216
-1.17869939319622
-0.08130806362750115
-0.780636343852216
-1.17869939319622
-0.08130806362750115
-0.780636343852216
-1.17869939319622
-0.08130806362750115
-0.780636343852216
-1.1151819987279195
-0.08668781986723152
-0.7754563972934067
-1.1151819987279195
-0.08668781986723152
-0.7754563972934067
-1.1151819987279195
-0.08668781986723152
-0.7754563972934067
-1.1151819987279195
-0.08668781986723152
-0.7754563972934067
-1.0636551020926162
-0.08976764044171298
-0.7710311879482379
-1.0636551020926162
-0.08976764044171298
-0.7710311879482379
-1.0636551020926162
-0.08976764044171298
-0.7710311879482379
-1.0636551020926162
-0.08976764044171298
-0.7710311879482379
-1.0306800532475633
-0.08902649681035163
-0.7646642985209628
-1.0306800532475633
-0.08902649681035163
-0.7646642985209628
-1.0306800532475633
-0.08902649681035163
-0.7646642985209628
-1.0306800532475633
-0.08902649681035163
-0.7646642985209628
-1.0104557625087138
-0.0865692922667113
-0.7545856348228401
-1.0104557625087138
-0.0865692922667113
-0.7545856348228401
-1.0104557625087138
-0.0865692922667113
-0.7545856348228401
-1.0104557625087138
-0.0865692922667113
-0.7545856348228401
-1.0018602882790848
-0.0858558525062666
-0.7437761595723752
-1.0018602882790848
-0.0858558525062666
-0.7437761595723752
-1.0018602882790848
-0.0858558525062666
-0.7437761595723752
-1.0018602882790848
-0.0858558525062666
-0.7437761595723752
-1.0003412895190769
-0.0868366200406881
-0.7347570721943399
-1.0003412895190769
-0.0868366200406881
-0.7347570721943399
-1.0003412895190769
-0.0868366200406881
-0.7347570721943399
-1.0003412895190769
-0.0868366200406881
-0.7347570721943399
-1.0013417672256488
-0.08925643687283155
-0.7290881482058545
-1.0013417672256488
-0.08925643687283155
-0.7290881482058545
-1.0013417672256488
-0.08925643687283155
-0.7290881482058545
-1.0013417672256488
-0.08925643687283155
-0.7290881482058545
-0.9953392041824873
-0.09266574377584959
-0.7263153397883896
-0.9953392041824873
-0.09266574377584959
-0.7263153397883896
-0.9953392041824873
-0.09266574377584959
-0.7263153397883896
-0.9953392041824873
-0.09266574377584959
-0.7263153397883896
-0.9795897053600353
-0.09700000567467974
-0.7248254051175018
-0.9795897053600353
-0.09700000567467974
-0.7248254051175018
-0.9795897053600353
-0.09700000567467974
-0.7248254051175018
-0.9795897053600353
-0.09700000567467974
-0.7248254051175018
-0.9595901239138712
-0.10166862156316246
-0.7231156220682857
-0.9595901239138712
-0.10166862156316246
-0.7231156220682857
-0.9595901239138712
-0.10166862156316246
-0.7231156220682857
-0.9595901239138712
-0.10166862156316246
-0.7231156220682857
-0.9473138855977653
-0.10578565927664021
-0.7212101257611203
-0.9473138855977653
-0.10578565927664021
-0.7212101257611203
-0.9473138855977653
-0.10578565927664021
-0.7212101257611203
-0.9473138855977653
-0.10578565927664021
-0.7212101257611203
-0.9501941144979537
-0.10990500736216388
-0.7191359177148311
-0.9501941144979537
-0.10990500736216388
-0.7191359177148311
-0.9501941144979537
-0.10990500736216388
-0.7191359177148311
-0.9501941144979537
-0.10990500736216388
-0.7191359177148311
-0.959850865647185
-0.11349820976843301
-0.7164469701460942
-0.959850865647185
-0.11349820976843301
-0.7164469701460942
-0.959850865647185
-0.11349820976843301
-0.7164469701460942
-0.959850865647185
-0.11349820976843301
-0.7164469701460942
-0.9669543794038377
-0.1170027555544534
-0.714168385610412
-0.9669543794038377
-0.1170027555544534
-0.714168385610412
-0.9669543794038377
-0.1170027555544534
-0.714168385610412
-0.9669543794038377
-0.1170027555544534
-0.714168385610412
-0.9666845538910295
-0.12010749429362844
-0.7128103706745503
-0.9666845538910295
-0.12010749429362844
-0.7128103706745503
-0.9666845538910295
-0.12010749429362844
-0.7128103706745503
-0.9666845538910295
-0.12010749429362844
-0.7128103706745503
-0.96141203619069
-0.1223911914582393
-0.7125889331511462
-0.96141203619069
-0.1223911914582393
-0.7125889331511462
-0.96141203619069
-0.1223911914582393
-0.7125889331511462
-0.96141203619069
-0.1223911914582393
-0.7125889331511462
-0.9568203743794192
-0.12393651980431529
-0.7123800816992345
-0.9568203743794192
-0.12393651980431529
-0.7123800816992345
-0.9568203743794192
-0.12393651980431529
-0.7123800816992345
-0.9568203743794192
-0.12393651980431529
-0.7123800816992345
-0.9567985978804443
-0.1249782640364811
-0.7121992339967685
-0.9567985978804443
-0.1249782640364811
-0.7121992339967685
-0.9567985978804443
-0.1249782640364811
-0.7121992339967685
-0.9567985978804443
-0.1249782640364811
-0.7121992339967685
-0.9612612022174735
-0.12582785373152286
-0.712340731120939
-0.9612612022174735
-0.12582785373152286
-0.712340731120939
-0.9612612022174735
-0.12582785373152286
-0.712340731120939
-0.9612612022174735
-0.12582785373152286
-0.712340731120939
-0.9662837162002367
-0.1264763979581205
-0.7122609662705253
-0.9662837162002367
-0.1264763979581205
-0.7122609662705253
-0.9662837162002367
-0.1264763979581205
-0.7122609662705253
-0.9662837162002367
-0.1264763979581205
-0.7122609662705253
-0.9693735328767411
-0.1272706939459217
-0.7122213568116823
-0.9693735328767411
-0.1272706939459217
-0.7122213568116823
-0.9693735328767411
-0.1272706939459217
-0.7122213568116823
-0.9693735328767411
-0.1272706939459217
-0.7122213568116823
-0.969558387546358
-0.12816662020011022
-0.7124017633073898
-0.969558387546358
-0.12816662020011022
-0.7124017633073898
-0.969558387546358
-0.12816662020011022
-0.7124017633073898
-0.969558387546358
-0.12816662020011022
-0.7124017633073898
-0.9688750033070601
-0.12937511983095654
-0.7124587047549427
-0.9688750033070601
-0.12937511983095654
-0.7124587047549427
-0.9688750033070601
-0.12937511983095654
-0.7124587047549427
-0.9688750033070601
-0.12937511983095654
-0.7124587047549427
-0.9669438175819186
-0.1304250868891721
-0.7128766984432422
-0.9669438175819186
-0.1304250868891721
-0.7128766984432422
-0.9669438175819186
-0.1304250868891721
-0.7128766984432422
-0.9669438175819186
-0.1304250868891721
-0.7128766984432422
-0.9656914765478535
-0.1312036948761408
-0.7133597741019532
-0.9656914765478535
-0.1312036948761408
-0.7133597741019532
-0.9656914765478535
-0.1312036948761408
-0.7133597741019532
-0.9656914765478535
-0.1312036948761408
-0.7133597741019532
-0.9659097078286576
-0.13199711481483362
-0.7135925765975322
-0.9659097078286576
-0.13199711481483362
-0.7135925765975322
-0.9659097078286576
-0.13199711481483362
-0.7135925765975322
-0.9659097078286576
-0.13199711481483362
-0.7135925765975322
-0.9672002284404374
-0.13267444160345987
-0.7141341517664369
-0.9672002284404374
-0.13267444160345987
-0.7141341517664369
-0.9672002284404374
-0.13267444160345987
-0.7141341517664369
-0.9672002284404374
-0.13267444160345987
-0.7141341517664369
-0.9684407865109216
-0.13321704651919306
-0.7144952072827638
-0.9684407865109216
-0.13321704651919306
-0.7144952072827638
-0.9684407865109216
-0.13321704651919306
-0.7144952072827638
-0.9684407865109216
-0.13321704651919306
-0.7144952072827638
-0.9694732743489918
-0.13380065083738715
-0.7150544520446194
-0.9694732743489918
-0.13380065083738715
-0.7150544520446194
-0.9694732743489918
-0.13380065083738715
-0.7150544520446194
-0.9694732743489918
-0.13380065083738715
-0.7150544520446194
-0.9694891490549511
-0.13460265618035633
-0.7157346240579248
-0.9694891490549511
-0.13460265618035633
-0.7157346240579248
-0.9694891490549511
-0.13460265618035633
-0.7157346240579248
-0.9694891490549511
-0.13460265618035633
-0.7157346240579248
-0.9690103259310178
-0.1348553863121392
-0.7162804543844769
-0.9690103259310178
-0.1348553863121392
-0.7162804543844769
-0.9690103259310178
-0.1348553863121392
-0.7162804543844769
-0.9690103259310178
-0.1348553863121392
-0.7162804543844769
-0.9677270061992751
-0.1351381037568073
-0.7164126399662891
-0.9677270061992751
-0.1351381037568073
-0.7164126399662891
-0.9677270061992751
-0.1351381037568073
-0.7164126399662891
-0.9677270061992751
-0.1351381037568073
-0.7164126399662891
-0.9667356292037835
-0.13541344851811565
-0.7165767542966393
-0.9667356292037835
-0.13541344851811565
-0.7165767542966393
-0.9667356292037835
-0.13541344851811565
-0.7165767542966393
-0.9667356292037835
-0.13541344851811565
-0.7165767542966393
-0.9667622853591912
-0.135704230802468
-0.7162937829885856
-0.9667622853591912
-0.135704230802468
-0.7162937829885856
-0.9667622853591912
-0.135704230802468
-0.7162937829885856
-0.9667622853591912
-0.135704230802468
-0.7162937829885856
-0.9675078063014249
-0.13603998689157934
-0.71633877535678
-0.9675078063014249
-0.13603998689157934
-0.71633877535678
-0.9675078063014249
-0.13603998689157934
-0.71633877535678
-0.9675078063014249
-0.13603998689157934
-0.71633877535678
-0.9684649531873819
-0.13552570981150258
-0.7163034354960264
-0.9684649531873819
-0.13552570981150258
-0.7163034354960264
-0.9684649531873819
-0.13552570981150258
-0.7163034354960264
-0.9684649531873819
-0.13552570981150258
-0.7163034354960264
-0.9693634866363786
-0.13503633101892826
-0.7160798261452959
-0.9693634866363786
-0.13503633101892826
-0.7160798261452959
-0.9693634866363786
-0.13503633101892826
-0.7160798261452959
-0.9693634866363786
-0.13503633101892826
-0.7160798261452959
-0.9698498584033269
-0.1347318223458811
-0.7156882961555968
-0.9698498584033269
-0.1347318223458811
-0.7156882961555968
-0.9698498584033269
-0.1347318223458811
-0.7156882961555968
-0.9698498584033269
-0.1347318223458811
-0.7156882961555968
-0.969467940498985
-0.1340564573942848
-0.7155362010477297
-0.969467940498985
-0.1340564573942848
-0.7155362010477297
-0.969467940498985
-0.1340564573942848
-0.7155362010477297
-0.969467940498985
-0.1340564573942848
-0.7155362010477297
-0.9694073464677289
-0.1331953097642568
-0.7150716761125893
-0.9694073464677289
-0.1331953097642568
-0.7150716761125893
-0.9694073464677289
-0.1331953097642568
-0.7150716761125893
-0.9694073464677289
-0.1331953097642568
-0.7150716761125893
-0.9703368304258846
-0.13239854320048525
-0.7142646721010021
-0.9703368304258846
-0.13239854320048525
-0.7142646721010021
-0.9703368304258846
-0.13239854320048525
-0.7142646721010021
-0.9703368304258846
-0.13239854320048525
-0.7142646721010021
-0.9709201749042519
-0.1317101062844371
-0.7136326133321196
-0.9709201749042519
-0.1317101062844371
-0.7136326133321196
-0.9709201749042519
-0.1317101062844371
-0.7136326133321196
-0.9709201749042519
-0.1317101062844371
-0.7136326133321196
-0.9714019904551102
-0.13085911409623574
-0.7127870730047601
-0.9714019904551102
-0.13085911409623574
-0.7127870730047601
-0.9714019904551102
-0.13085911409623574
-0.7127870730047601
-0.9714019904551102
-0.13085911409623574
-0.7127870730047601
-0.9717914579226359
-0.1296659717461444
-0.7116418953962687
-0.9717914579226359
-0.1296659717461444
-0.7116418953962687
-0.9717914579226359
-0.1296659717461444
-0.7116418953962687
-0.9717914579226359
-0.1296659717461444
-0.7116418953962687
-0.9727897577293886
-0.12840565954722236
-0.7104596459812307
-0.9727897577293886
-0.12840565954722236
-0.7104596459812307
-0.9727897577293886
-0.12840565954722236
-0.7104596459812307
-0.9727897577293886
-0.12840565954722236
-0.7104596459812307
-0.9749033317641165
-0.12663537069789044
-0.7094119243638742
-0.9749033317641165
-0.12663537069789044
-0.7094119243638742
-0.9749033317641165
-0.12663537069789044
-0.7094119243638742
-0.9749033317641165
-0.12663537069789044
-0.7094119243638742
-0.9780619227772666
-0.12468673959681438
-0.7086398621476881
-0.9780619227772666
-0.12468673959681438
-0.7086398621476881
-0.9780619227772666
-0.12468673959681438
-0.7086398621476881
-0.9780619227772666
-0.12468673959681438
-0.7086398621476881
-0.9821628105156703
-0.12237803429490174
-0.7078390952039194
-0.9821628105156703
-0.12237803429490174
-0.7078390952039194
-0.9821628105156703
-0.12237803429490174
-0.7078390952039194
-0.9821628105156703
-0.12237803429490174
-0.7078390952039194
-0.9880548455057515
-0.11962450309697018
-0.7070752780878597
-0.9880548455057515
-0.11962450309697018
-0.7070752780878597
-0.9880548455057515
-0.11962450309697018
-0.7070752780878597
-0.9880548455057515
-0.11962450309697018
-0.7070752780878597
-0.9956000014566909
-0.11662322813605387
-0.7065719847253432
-0.9956000014566909
-0.11662322813605387
-0.7065719847253432
-0.9956000014566909
-0.11662322813605387
-0.7065719847253432
-0.9956000014566909
-0.11662322813605387
-0.7065719847253432
-1.0053725958930049
-0.11293866826752154
-0.7062022100611913
-1.0053725958930049
-0.11293866826752154
-0.7062022100611913
-1.0053725958930049
-0.11293866826752154
-0.7062022100611913
-1.0053725958930049
-0.11293866826752154
-0.7062022100611913
-1.017092757836831
-0.10893160487080224
-0.7068198183703164
-1.017092757836831
-0.10893160487080224
-0.7068198183703164
-1.017092757836831
-0.10893160487080224
-0.7068198183703164
-1.017092757836831
-0.10893160487080224
-0.7068198183703164
-1.031750977972603
-0.10433638287385401
-0.7083021127074962
-1.031750977972603
-0.10433638287385401
-0.7083021127074962
-1.031750977972603
-0.10433638287385401
-0.7083021127074962
-1.031750977972603
-0.10433638287385401
-0.7083021127074962
-1.0500110751249574
-0.09980449777067585
-0.7103023733973182
-1.0500110751249574
-0.09980449777067585
-0.7103023733973182
-1.0500110751249574
-0.09980449777067585
-0.7103023733973182
-1.0500110751249574
-0.09980449777067585
-0.7103023733973182
-1.0708129762001977
-0.09445320981185767
-0.7136070652359636
-1.0708129762001977
-0.09445320981185767
-0.7136070652359636
-1.0708129762001977
-0.09445320981185767
-0.7136070652359636
-1.0708129762001977
-0.09445320981185767
-0.7136070652359636
-1.0967066158457937
-0.08907540894519508
-0.7172903547360185
-1.0967066158457937
-0.08907540894519508
-0.7172903547360185
-1.0967066158457937
-0.08907540894519508
-0.7172903547360185
-1.0967066158457937
-0.08907540894519508
-0.7172903547360185
-1.127827224826632
-0.08378823648931931
-0.7215567828994739
-1.127827224826632
-0.08378823648931931
-0.7215567828994739
-1.127827224826632
-0.08378823648931931
-0.7215567828994739
-1.127827224826632
-0.08378823648931931
-0.7215567828994739
-1.1646178540414585
-0.07925180842151272
-0.7261899463961997
-1.1646178540414585
-0.07925180842151272
-0.7261899463961997
-1.1646178540414585
-0.07925180842151272
-0.7261899463961997
-1.1646178540414585
-0.07925180842151272
-0.7261899463961997
-1.202456401735717
-0.07507900298802571
-0.7315540339359905
-1.202456401735717
-0.07507900298802571
-0.7315540339359905
-1.202456401735717
-0.07507900298802571
-0.7315540339359905
-1.202456401735717
-0.07507900298802571
-0.7315540339359905
-1.2394131478236943
-0.07253927564420157
-0.7371590676572821
-1.2394131478236943
-0.07253927564420157
-0.7371590676572821
-1.2394131478236943
-0.07253927564420157
-0.7371590676572821
-1.2394131478236943
-0.07253927564420157
-0.7371590676572821
-1.274965524655665
-0.07226784815315529
-0.7442176058775543
-1.274965524655665
-0.07226784815315529
-0.7442176058775543
-1.3093302454279163
-0.0749361579564617
-0.7514234076207087
-1.3093302454279163
-0.0749361579564617
-0.7514234076207087
-1.3093302454279163
-0.0749361579564617
-0.7514234076207087
-1.3093302454279163
-0.0749361579564617
-0.7514234076207087
-1.3093302454279163
-0.0749361579564617
-0.7514234076207087
-1.3093302454279163
-0.0749361579564617
-0.7514234076207087
-1.3448192307598699
-0.07648950756460884
-0.7563943045611582
-1.3448192307598699
-0.07648950756460884
-0.7563943045611582
-1.3448192307598699
-0.07648950756460884
-0.7563943045611582
-1.3448192307598699
-0.07648950756460884
-0.7563943045611582
-1.379804629637114
-0.07492071869038307
-0.7598620627458322
-1.379804629637114
-0.07492071869038307
-0.7598620627458322
-1.405355384021607
-0.07091372105661808
-0.7629355510285427
-1.405355384021607
-0.07091372105661808
-0.7629355510285427
-1.405355384021607
-0.07091372105661808
-0.7629355510285427
-1.405355384021607
-0.07091372105661808
-0.7629355510285427
-1.416250217604814
-0.06861305535780557
-0.7659895401253669
-1.416250217604814
-0.06861305535780557
-0.7659895401253669
-1.416250217604814
-0.06861305535780557
-0.7659895401253669
-1.416250217604814
-0.06861305535780557
-0.7659895401253669
-1.420591317827003
-0.07038779178341058
-0.76848251520889
-1.420591317827003
-0.07038779178341058
-0.76848251520889
-1.420591317827003
-0.07038779178341058
-0.76848251520889
-1.420591317827003
-0.07038779178341058
-0.76848251520889
-1.4299850882477374
-0.07230150969732606
-0.7699726521111865
-1.4299850882477374
-0.07230150969732606
-0.7699726521111865
-1.4299850882477374
-0.07230150969732606
-0.7699726521111865
-1.4299850882477374
-0.07230150969732606
-0.7699726521111865
-1.4418827558049985
-0.073094045244347
-0.7715187877717491
-1.4418827558049985
-0.073094045244347
-0.7715187877717491
-1.4418827558049985
-0.073094045244347
-0.7715187877717491
-1.4418827558049985
-0.073094045244347
-0.7715187877717491
-1.4518938675907997
-0.07388176039658963
-0.7734141777232625
-1.4518938675907997
-0.07388176039658963
-0.7734141777232625
-1.4518938675907997
-0.07388176039658963
-0.7734141777232625
-1.4518938675907997
-0.07388176039658963
-0.7734141777232625
-1.4597824425468748
-0.07416560260922037
-0.7737942968228726
-1.4597824425468748
-0.07416560260922037
-0.7737942968228726
-1.4597824425468748
-0.07416560260922037
-0.7737942968228726
-1.4597824425468748
-0.07416560260922037
-0.7737942968228726
-1.4678634429439767
-0.07380206302461623
-0.7737783027281673
-1.4678634429439767
-0.07380206302461623
-0.7737783027281673
-1.4678634429439767
-0.07380206302461623
-0.7737783027281673
-1.4678634429439767
-0.07380206302461623
-0.7737783027281673
-1.4757863627015633
-0.07032134728178403
-0.7727066003685669
-1.4757863627015633
-0.07032134728178403
-0.7727066003685669
-1.4757863627015633
-0.07032134728178403
-0.7727066003685669
-1.4757863627015633
-0.07032134728178403
-0.7727066003685669
-1.484110547954129
-0.06397462061163602
-0.7699360335801168
-1.484110547954129
-0.06397462061163602
-0.7699360335801168
-1.484110547954129
-0.06397462061163602
-0.7699360335801168
-1.484110547954129
-0.06397462061163602
-0.7699360335801168
-1.4904543205711356
-0.057681301951124586
-0.7665253884199738
-1.4904543205711356
-0.057681301951124586
-0.7665253884199738
-1.4904543205711356
-0.057681301951124586
-0.7665253884199738
-1.4904543205711356
-0.057681301951124586
-0.7665253884199738
-1.4918685887926497
-0.05387765140912367
-0.7628998923067113
-1.4918685887926497
-0.05387765140912367
-0.7628998923067113
-1.4918685887926497
-0.05387765140912367
-0.7628998923067113
-1.4918685887926497
-0.05387765140912367
-0.7628998923067113
-1.4900844366127801
-0.05276782603468453
-0.7606084168305969
-1.4900844366127801
-0.05276782603468453
-0.7606084168305969
-1.4900844366127801
-0.05276782603468453
-0.7606084168305969
-1.4900844366127801
-0.05276782603468453
-0.7606084168305969
-1.4914222620368087
-0.05416266430377537
-0.7597780261142244
-1.4914222620368087
-0.05416266430377537
-0.7597780261142244
-1.4914222620368087
-0.05416266430377537
-0.7597780261142244
-1.4914222620368087
-0.05416266430377537
-0.7597780261142244
-1.4955511285610161
-0.05745877684568125
-0.7606889160148045
-1.4955511285610161
-0.05745877684568125
-0.7606889160148045
-1.4955511285610161
-0.05745877684568125
-0.7606889160148045
-1.4955511285610161
-0.05745877684568125
-0.7606889160148045
-1.5009185114665797
-0.06075961477661448
-0.7629445959104286
-1.5009185114665797
-0.06075961477661448
-0.7629445959104286
-1.5009185114665797
-0.06075961477661448
-0.7629445959104286
-1.5009185114665797
-0.06075961477661448
-0.7629445959104286
-1.5105141258830235
-0.06085451598546839
-0.7640031934070919
-1.5105141258830235
-0.06085451598546839
-0.7640031934070919
-1.5105141258830235
-0.06085451598546839
-0.7640031934070919
-1.5105141258830235
-0.06085451598546839
-0.7640031934070919
-1.5171074724194016
-0.05995880907140904
-0.7640669017652619
-1.5171074724194016
-0.05995880907140904
-0.7640669017652619
-1.5171074724194016
-0.05995880907140904
-0.7640669017652619
-1.5171074724194016
-0.05995880907140904
-0.7640669017652619
-1.5162297781312934
-0.060185313520978646
-0.7628161268815548
-1.5162297781312934
-0.060185313520978646
-0.7628161268815548
-1.5162297781312934
-0.060185313520978646
-0.7628161268815548
-1.5162297781312934
-0.060185313520978646
-0.7628161268815548
-1.5116432372419204
-0.06525960810972418
-0.761532304567011
-1.5116432372419204
-0.06525960810972418
-0.761532304567011
-1.5116432372419204
-0.06525960810972418
-0.761532304567011
-1.5116432372419204
-0.06525960810972418
-0.761532304567011
-1.509428257116515
-0.07073074808793153
-0.7600075994704264
-1.509428257116515
-0.07073074808793153
-0.7600075994704264
-1.509428257116515
-0.07073074808793153
-0.7600075994704264
-1.509428257116515
-0.07073074808793153
-0.7600075994704264
-1.5124993958299424
-0.07644342927438154
-0.7588457064324275
-1.5124993958299424
-0.07644342927438154
-0.7588457064324275
-1.5124993958299424
-0.07644342927438154
-0.7588457064324275
-1.5124993958299424
-0.07644342927438154
-0.7588457064324275
-1.5168511705193273
-0.08040487853731615
-0.7591712737966464
-1.5168511705193273
-0.08040487853731615
-0.7591712737966464
-1.5168511705193273
-0.08040487853731615
-0.7591712737966464
-1.5168511705193273
-0.08040487853731615
-0.7591712737966464
-1.51991348872189
-0.08199112989655766
-0.7596341151125033
-1.51991348872189
-0.08199112989655766
-0.7596341151125033
-1.51991348872189
-0.08199112989655766
-0.7596341151125033
-1.51991348872189
-0.08199112989655766
-0.7596341151125033
-1.5181607983661227
-0.08380539695249659
-0.7597055572221826
-1.5181607983661227
-0.08380539695249659
-0.7597055572221826
-1.5181607983661227
-0.08380539695249659
-0.7597055572221826
-1.5181607983661227
-0.08380539695249659
-0.7597055572221826
-1.5150363393779003
-0.08592029961102603
-0.7588362262594689
-1.5150363393779003
-0.08592029961102603
-0.7588362262594689
-1.5150363393779003
-0.08592029961102603
-0.7588362262594689
-1.5150363393779003
-0.08592029961102603
-0.7588362262594689
-1.512888947853141
-0.08832828074611601
-0.7584042828708847
-1.512888947853141
-0.08832828074611601
-0.7584042828708847
-1.512888947853141
-0.08832828074611601
-0.7584042828708847
-1.512888947853141
-0.08832828074611601
-0.7584042828708847
-1.5127062950923755
-0.09076415447978238
-0.7592051533559532
-1.5127062950923755
-0.09076415447978238
-0.7592051533559532
-1.5127062950923755
-0.09076415447978238
-0.7592051533559532
-1.5127062950923755
-0.09076415447978238
-0.7592051533559532
-1.514769018544554
-0.09259401778850909
-0.7607519051372648
-1.514769018544554
-0.09259401778850909
-0.7607519051372648
-1.514769018544554
-0.09259401778850909
-0.7607519051372648
-1.514769018544554
-0.09259401778850909
-0.7607519051372648
-1.5153587648026068
-0.09383146049736191
-0.7628938828614719
-1.5153587648026068
-0.09383146049736191
-0.7628938828614719
-1.5153587648026068
-0.09383146049736191
-0.7628938828614719
-1.5153587648026068
-0.09383146049736191
-0.7628938828614719
-1.5140381398217824
-0.09496594658216706
-0.7649145487495164
-1.5140381398217824
-0.09496594658216706
-0.7649145487495164
-1.5140381398217824
-0.09496594658216706
-0.7649145487495164
-1.5140381398217824
-0.09496594658216706
-0.7649145487495164
-1.5134244708555042
-0.09582409898958956
-0.7662848225284002
-1.5134244708555042
-0.09582409898958956
-0.7662848225284002
-1.5134244708555042
-0.09582409898958956
-0.7662848225284002
-1.5134244708555042
-0.09582409898958956
-0.7662848225284002
-1.5136108670947899
-0.09588966731475305
-0.7674015327227252
-1.5136108670947899
-0.09588966731475305
-0.7674015327227252
-1.5136108670947899
-0.09588966731475305
-0.7674015327227252
-1.5136108670947899
-0.09588966731475305
-0.7674015327227252
-1.5137077762352307
-0.09638621866763766
-0.7686473740860711
-1.5137077762352307
-0.09638621866763766
-0.7686473740860711
-1.5137077762352307
-0.09638621866763766
-0.7686473740860711
-1.5137077762352307
-0.09638621866763766
-0.7686473740860711
-1.5137328811228636
-0.09703487142915691
-0.7700614221907494
-1.5137328811228636
-0.09703487142915691
-0.7700614221907494
-1.5137328811228636
-0.09703487142915691
-0.7700614221907494
-1.5137328811228636
-0.09703487142915691
-0.7700614221907494
-1.514528374796334
-0.09733649973781466
-0.7718611034292185
-1.514528374796334
-0.09733649973781466
-0.7718611034292185
-1.514528374796334
-0.09733649973781466
-0.7718611034292185
-1.514528374796334
-0.09733649973781466
-0.7718611034292185
-1.5160377455983907
-0.0971005607794407
-0.7731776857942443
