-0.9758159307719714
0.1456984142361922
-0.4630612630597362
-0.9758159307719714
0.1456984142361922
-0.4630612630597362
-0.9757868951087972
0.14559469715597392
-0.46300330012180196
-0.9757868951087972
0.14559469715597392
-0.46300330012180196
-0.9757868951087972
0.14559469715597392
-0.46300330012180196
-0.9757868951087972
0.14559469715597392
-0.46300330012180196
-0.9756530320524663
0.14551969743619175
-0.4629508613051975
-0.9756530320524663
0.14551969743619175
-0.4629508613051975
-0.9756530320524663
0.14551969743619175
-0.4629508613051975
-0.9756530320524663
0.14551969743619175
-0.4629508613051975
-0.9761358320588212
0.14545671588090645
-0.46285296337259363
-0.9761358320588212
0.14545671588090645
-0.46285296337259363
-0.9761358320588212
0.14545671588090645
-0.46285296337259363
-0.9761358320588212
0.14545671588090645
-0.46285296337259363
-0.9764670167881386
0.14565860282827378
-0.46288209781382667
-0.9764670167881386
0.14565860282827378
-0.46288209781382667
-0.9764670167881386
0.14565860282827378
-0.46288209781382667
-0.9764670167881386
0.14565860282827378
-0.46288209781382667
-0.9760658681841244
0.14597534545949054
-0.4632587166090142
-0.9760658681841244
0.14597534545949054
-0.4632587166090142
-0.9760658681841244
0.14597534545949054
-0.4632587166090142
-0.9760658681841244
0.14597534545949054
-0.4632587166090142
-0.9752522812549845
0.14616563866263876
-0.4637743471705187
-0.9752522812549845
0.14616563866263876
-0.4637743471705187
-0.9752522812549845
0.14616563866263876
-0.4637743471705187
-0.9752522812549845
0.14616563866263876
-0.4637743471705187
-0.9745134509265915
0.14673568598399248
-0.4640911052367739
-0.9745134509265915
0.14673568598399248
-0.4640911052367739
-0.9745134509265915
0.14673568598399248
-0.4640911052367739
-0.9745134509265915
0.14673568598399248
-0.4640911052367739
-0.9748911828362979
0.1475421007530958
-0.46431061565515147
-0.9748911828362979
0.1475421007530958
-0.46431061565515147
-0.9748911828362979
0.1475421007530958
-0.46431061565515147
-0.9748911828362979
0.1475421007530958
-0.46431061565515147
-0.9751052310395752
0.14805366574812173
-0.4640596868903329
-0.9751052310395752
0.14805366574812173
-0.4640596868903329
-0.9751052310395752
0.14805366574812173
-0.4640596868903329
-0.9751052310395752
0.14805366574812173
-0.4640596868903329
-0.9754373502031705
0.1483715119433843
-0.464449404022745
-0.9754373502031705
0.1483715119433843
-0.464449404022745
-0.9754373502031705
0.1483715119433843
-0.464449404022745
-0.9754373502031705
0.1483715119433843
-0.464449404022745
-0.9747691848331238
0.1487519241651035
-0.4648069993702962
-0.9747691848331238
0.1487519241651035
-0.4648069993702962
-0.9747691848331238
0.1487519241651035
-0.4648069993702962
-0.9747691848331238
0.1487519241651035
-0.4648069993702962
-0.9723858531495759
0.14897153688781692
-0.465299034717082
-0.9723858531495759
0.14897153688781692
-0.465299034717082
-0.9723858531495759
0.14897153688781692
-0.465299034717082
-0.9723858531495759
0.14897153688781692
-0.465299034717082
-0.9703858605309722
0.1492142874541407
-0.4655939374833601
-0.9703858605309722
0.1492142874541407
-0.4655939374833601
-0.9703858605309722
0.1492142874541407
-0.4655939374833601
-0.9703858605309722
0.1492142874541407
-0.4655939374833601
-0.9700718234082487
0.14951408472452793
-0.4656960523657949
-0.9700718234082487
0.14951408472452793
-0.4656960523657949
-0.9700718234082487
0.14951408472452793
-0.4656960523657949
-0.9700718234082487
0.14951408472452793
-0.4656960523657949
-0.9700718234082487
0.14951408472452793
-0.4656960523657949
-0.9700718234082487
0.14951408472452793
-0.4656960523657949
-0.9700718234082487
0.14951408472452793
-0.4656960523657949
-0.9700718234082487
0.14951408472452793
-0.4656960523657949
-0.9700201861355007
0.14969359833387177
-0.46592179298877334
-0.9700201861355007
0.14969359833387177
-0.46592179298877334
-0.9700201861355007
0.14969359833387177
-0.46592179298877334
-0.9700201861355007
0.14969359833387177
-0.46592179298877334
-0.9690100344345332
0.14975999814071858
-0.4664587988268019
-0.9690100344345332
0.14975999814071858
-0.4664587988268019
-0.9690100344345332
0.14975999814071858
-0.4664587988268019
-0.9690100344345332
0.14975999814071858
-0.4664587988268019
-0.968801980003469
0.15014837282664414
-0.46691537760821145
-0.968801980003469
0.15014837282664414
-0.46691537760821145
-0.968801980003469
0.15014837282664414
-0.46691537760821145
-0.968801980003469
0.15014837282664414
-0.46691537760821145
-0.9681290399342699
0.15047378256886187
-0.4673762306359376
-0.9681290399342699
0.15047378256886187
-0.4673762306359376
-0.9681290399342699
0.15047378256886187
-0.4673762306359376
-0.9681290399342699
0.15047378256886187
-0.4673762306359376
-0.9668922742172393
0.15031112854129167
-0.46787848944590266
-0.9668922742172393
0.15031112854129167
-0.46787848944590266
-0.9668922742172393
0.15031112854129167
-0.46787848944590266
-0.9668922742172393
0.15031112854129167
-0.46787848944590266
-0.9655043717470388
0.1504151771683927
-0.46850647377874305
-0.9655043717470388
0.1504151771683927
-0.46850647377874305
-0.9655043717470388
0.1504151771683927
-0.46850647377874305
-0.9655043717470388
0.1504151771683927
-0.46850647377874305
-0.9642078462996143
0.15055732057163532
-0.4687563317683182
-0.9642078462996143
0.15055732057163532
-0.4687563317683182
-0.9642078462996143
0.15055732057163532
-0.4687563317683182
-0.9642078462996143
0.15055732057163532
-0.4687563317683182
-0.9629208992571618
0.15069473697201619
-0.46843594559905777
-0.9629208992571618
0.15069473697201619
-0.46843594559905777
-0.9629208992571618
0.15069473697201619
-0.46843594559905777
-0.9629208992571618
0.15069473697201619
-0.46843594559905777
-0.9612506187648943
0.150811103984411
-0.4683118048030051
-0.9612506187648943
0.150811103984411
-0.4683118048030051
-0.9612506187648943
0.150811103984411
-0.4683118048030051
-0.9612506187648943
0.150811103984411
-0.4683118048030051
-0.9598671577634827
0.15085472914419024
-0.4684743590164262
-0.9598671577634827
0.15085472914419024
-0.4684743590164262
-0.9598671577634827
0.15085472914419024
-0.4684743590164262
-0.9598671577634827
0.15085472914419024
-0.4684743590164262
-0.9581107960427326
0.1509912782689557
-0.46862273303707996
-0.9581107960427326
0.1509912782689557
-0.46862273303707996
-0.9581107960427326
0.1509912782689557
-0.46862273303707996
-0.9581107960427326
0.1509912782689557
-0.46862273303707996
-0.9559243515046226
0.1512258465759907
-0.4687270527551028
-0.9559243515046226
0.1512258465759907
-0.4687270527551028
-0.9559243515046226
0.1512258465759907
-0.4687270527551028
-0.9559243515046226
0.1512258465759907
-0.4687270527551028
-0.9547380252935317
0.15139638112417833
-0.46886525482264796
-0.9547380252935317
0.15139638112417833
-0.46886525482264796
-0.9547380252935317
0.15139638112417833
-0.46886525482264796
-0.9547380252935317
0.15139638112417833
-0.46886525482264796
-0.9551925546349134
0.15134645819070605
-0.46907150551881605
-0.9551925546349134
0.15134645819070605
-0.46907150551881605
-0.9551925546349134
0.15134645819070605
-0.46907150551881605
-0.9551925546349134
0.15134645819070605
-0.46907150551881605
-0.955688730210688
0.15112235086277023
-0.46962336255360854
-0.955688730210688
0.15112235086277023
-0.46962336255360854
-0.955688730210688
0.15112235086277023
-0.46962336255360854
-0.955688730210688
0.15112235086277023
-0.46962336255360854
-0.9564588450554827
0.1516147504128529
-0.47003386510746714
-0.9564588450554827
0.1516147504128529
-0.47003386510746714
-0.9564588450554827
0.1516147504128529
-0.47003386510746714
-0.9564588450554827
0.1516147504128529
-0.47003386510746714
-0.9579496279578003
0.1523840108600963
-0.47017167130685966
-0.9579496279578003
0.1523840108600963
-0.47017167130685966
-0.9579496279578003
0.1523840108600963
-0.47017167130685966
-0.9579496279578003
0.1523840108600963
-0.47017167130685966
-0.9595432759218087
0.15330549630944762
-0.47113024443183665
-0.9595432759218087
0.15330549630944762
-0.47113024443183665
-0.9595432759218087
0.15330549630944762
-0.47113024443183665
-0.9595432759218087
0.15330549630944762
-0.47113024443183665
-0.9589500981008084
0.15434427203569928
-0.4718317997086469
-0.9589500981008084
0.15434427203569928
-0.4718317997086469
-0.9589500981008084
0.15434427203569928
-0.4718317997086469
-0.9589500981008084
0.15434427203569928
-0.4718317997086469
-0.9598924490150964
0.15621151787012696
-0.4723313207472445
-0.9598924490150964
0.15621151787012696
-0.4723313207472445
-0.9598924490150964
0.15621151787012696
-0.4723313207472445
-0.9598924490150964
0.15621151787012696
-0.4723313207472445
-0.9624107802845441
0.15695984990632658
-0.4726737213794206
-0.9624107802845441
0.15695984990632658
-0.4726737213794206
-0.9624107802845441
0.15695984990632658
-0.4726737213794206
-0.9624107802845441
0.15695984990632658
-0.4726737213794206
-0.9629731253397458
0.15783956229136473
-0.4721350571177944
-0.9629731253397458
0.15783956229136473
-0.4721350571177944
-0.9629731253397458
0.15783956229136473
-0.4721350571177944
-0.9629731253397458
0.15783956229136473
-0.4721350571177944
-0.9676417634472215
0.15903471389409754
-0.47331042419519725
-0.9676417634472215
0.15903471389409754
-0.47331042419519725
-0.9676417634472215
0.15903471389409754
-0.47331042419519725
-0.9676417634472215
0.15903471389409754
-0.47331042419519725
-0.97335946941804
0.15850115449808128
-0.4751750206510371
-0.97335946941804
0.15850115449808128
-0.4751750206510371
-0.97335946941804
0.15850115449808128
-0.4751750206510371
-0.97335946941804
0.15850115449808128
-0.4751750206510371
-0.9795569125373051
0.15755181127471835
-0.4779010767447349
-0.9795569125373051
0.15755181127471835
-0.4779010767447349
-0.9795569125373051
0.15755181127471835
-0.4779010767447349
-0.9795569125373051
0.15755181127471835
-0.4779010767447349
-0.9875867072070601
0.15693524627818642
-0.4806414363078499
-0.9875867072070601
0.15693524627818642
-0.4806414363078499
-0.9875867072070601
0.15693524627818642
-0.4806414363078499
-0.9875867072070601
0.15693524627818642
-0.4806414363078499
-0.9964938152374838
0.1566158327783427
-0.48219312192224606
-0.9964938152374838
0.1566158327783427
-0.48219312192224606
-0.9964938152374838
0.1566158327783427
-0.48219312192224606
-0.9964938152374838
0.1566158327783427
-0.48219312192224606
-1.0027171679284408
0.15350725896304773
-0.4828964976661516
-1.0027171679284408
0.15350725896304773
-0.4828964976661516
-1.0027171679284408
0.15350725896304773
-0.4828964976661516
-1.0027171679284408
0.15350725896304773
-0.4828964976661516
-1.0003636344527789
0.14886539462573853
-0.48407531601565873
-1.0003636344527789
0.14886539462573853
-0.48407531601565873
-1.0003636344527789
0.14886539462573853
-0.48407531601565873
-1.0003636344527789
0.14886539462573853
-0.48407531601565873
-0.9943564578143036
0.14576428745863773
-0.48351180134943617
-0.9943564578143036
0.14576428745863773
-0.48351180134943617
-0.9943564578143036
0.14576428745863773
-0.48351180134943617
-0.9943564578143036
0.14576428745863773
-0.48351180134943617
-0.9906594914137452
0.14350517410028182
-0.4837820482123641
-0.9906594914137452
0.14350517410028182
-0.4837820482123641
-0.9906594914137452
0.14350517410028182
-0.4837820482123641
-0.9906594914137452
0.14350517410028182
-0.4837820482123641
-0.9945546066558272
0.1401154934400446
-0.484545811142138
-0.9945546066558272
0.1401154934400446
-0.484545811142138
-0.9945546066558272
0.1401154934400446
-0.484545811142138
-0.9945546066558272
0.1401154934400446
-0.484545811142138
-0.9981191461413844
0.13658318224430405
-0.48516219490172646
-0.9981191461413844
0.13658318224430405
-0.48516219490172646
-0.9981191461413844
0.13658318224430405
-0.48516219490172646
-0.9981191461413844
0.13658318224430405
-0.48516219490172646
-1.000534148931331
0.13280120140044002
-0.48637132967088215
-1.000534148931331
0.13280120140044002
-0.48637132967088215
-1.000534148931331
0.13280120140044002
-0.48637132967088215
-1.000534148931331
0.13280120140044002
-0.48637132967088215
-1.0027425459733195
0.12790111707276622
-0.48707697089881835
-1.0027425459733195
0.12790111707276622
-0.48707697089881835
-1.0027425459733195
0.12790111707276622
-0.48707697089881835
-1.0027425459733195
0.12790111707276622
-0.48707697089881835
-1.004218616413969
0.12181260523103263
-0.48809267792287625
-1.004218616413969
0.12181260523103263
-0.48809267792287625
-1.004218616413969
0.12181260523103263
-0.48809267792287625
-1.004218616413969
0.12181260523103263
-0.48809267792287625
-1.003892243697398
0.11614540919676984
-0.49013886297425263
-1.003892243697398
0.11614540919676984
-0.49013886297425263
-1.003892243697398
0.11614540919676984
-0.49013886297425263
-1.003892243697398
0.11614540919676984
-0.49013886297425263
-1.0024051789509816
0.11106833590630998
-0.4912948763539893
-1.0024051789509816
0.11106833590630998
-0.4912948763539893
-1.0024051789509816
0.11106833590630998
-0.4912948763539893
-1.0024051789509816
0.11106833590630998
-0.4912948763539893
-1.0020521632962476
0.10530718647264709
-0.4927181637453738
-1.0020521632962476
0.10530718647264709
-0.4927181637453738
-1.0020521632962476
0.10530718647264709
-0.4927181637453738
-1.0020521632962476
0.10530718647264709
-0.4927181637453738
-1.002117532285636
0.09870104756677607
-0.49447705101177186
-1.002117532285636
0.09870104756677607
-0.49447705101177186
-1.002117532285636
0.09870104756677607
-0.49447705101177186
-1.002117532285636
0.09870104756677607
-0.49447705101177186
-1.0048737555918676
0.09209416119892672
-0.49616025002807523
-1.0048737555918676
0.09209416119892672
-0.49616025002807523
-1.0048737555918676
0.09209416119892672
-0.49616025002807523
-1.0048737555918676
0.09209416119892672
-0.49616025002807523
-1.0097793944523836
0.08553527065689545
-0.4968316351997605
-1.0097793944523836
0.08553527065689545
-0.4968316351997605
-1.0097793944523836
0.08553527065689545
-0.4968316351997605
-1.0097793944523836
0.08553527065689545
-0.4968316351997605
-1.0120598023015543
0.07861380784595881
-0.4976696378649357
-1.0120598023015543
0.07861380784595881
-0.4976696378649357
-1.0120598023015543
0.07861380784595881
-0.4976696378649357
-1.0120598023015543
0.07861380784595881
-0.4976696378649357
-1.0096604651667347
0.07131102570175053
-0.49959339526694185
-1.0096604651667347
0.07131102570175053
-0.49959339526694185
-1.0096604651667347
0.07131102570175053
-0.49959339526694185
-1.0096604651667347
0.07131102570175053
-0.49959339526694185
-1.0059462156772856
0.06333233916795156
-0.5015180267578021
-1.0059462156772856
0.06333233916795156
-0.5015180267578021
-1.0059462156772856
0.06333233916795156
-0.5015180267578021
-1.0059462156772856
0.06333233916795156
-0.5015180267578021
-1.0063800414396724
0.055620075606549635
-0.5027633788507649
-1.0063800414396724
0.055620075606549635
-0.5027633788507649
-1.0063800414396724
0.055620075606549635
-0.5027633788507649
-1.0063800414396724
0.055620075606549635
-0.5027633788507649
-1.0094557262086274
0.04729486344818552
-0.5036727867037838
-1.0094557262086274
0.04729486344818552
-0.5036727867037838
-1.0094557262086274
0.04729486344818552
-0.5036727867037838
-1.0094557262086274
0.04729486344818552
-0.5036727867037838
-1.0090793021026407
0.03893716315266794
-0.5048311103483116
-1.0090793021026407
0.03893716315266794
-0.5048311103483116
-1.0090793021026407
0.03893716315266794
-0.5048311103483116
-1.0090793021026407
0.03893716315266794
-0.5048311103483116
-1.0082083633542471
0.03149410968527268
-0.5061820924248357
-1.0082083633542471
0.03149410968527268
-0.5061820924248357
-1.0082083633542471
0.03149410968527268
-0.5061820924248357
-1.0082083633542471
0.03149410968527268
-0.5061820924248357
-1.0083467519709364
0.025215897168324092
-0.5070151130493306
-1.0083467519709364
0.025215897168324092
-0.5070151130493306
-1.0083467519709364
0.025215897168324092
-0.5070151130493306
-1.0083467519709364
0.025215897168324092
-0.5070151130493306
-1.0091719320459442
0.02029017546458842
-0.50772485911097
-1.0091719320459442
0.02029017546458842
-0.50772485911097
-1.0091719320459442
0.02029017546458842
-0.50772485911097
-1.0091719320459442
0.02029017546458842
-0.50772485911097
-1.008879770544343
0.016498996566939803
-0.508468247664257
-1.008879770544343
0.016498996566939803
-0.508468247664257
-1.008879770544343
0.016498996566939803
-0.508468247664257
-1.008879770544343
0.016498996566939803
-0.508468247664257
-1.0077441601284347
0.012544858963165591
-0.5088422970456079
-1.0077441601284347
0.012544858963165591
-0.5088422970456079
-1.0077441601284347
0.012544858963165591
-0.5088422970456079
-1.0077441601284347
0.012544858963165591
-0.5088422970456079
-1.006635445785046
0.008462624491586768
-0.5094548476772554
-1.006635445785046
0.008462624491586768
-0.5094548476772554
-1.006635445785046
0.008462624491586768
-0.5094548476772554
-1.006635445785046
0.008462624491586768
-0.5094548476772554
-1.0065160594483646
0.004282600370324193
-0.5102954589402972
-1.0065160594483646
0.004282600370324193
-0.5102954589402972
-1.0065160594483646
0.004282600370324193
-0.5102954589402972
-1.0065160594483646
0.004282600370324193
-0.5102954589402972
-1.0086895144954562
2.609289664755508E-4
-0.5105615976601139
-1.0086895144954562
2.609289664755508E-4
-0.5105615976601139
-1.0086895144954562
2.609289664755508E-4
-0.5105615976601139
-1.0086895144954562
2.609289664755508E-4
-0.5105615976601139
-1.0105602501807118
-0.003179895667433307
-0.5109357196941495
-1.0105602501807118
-0.003179895667433307
-0.5109357196941495
-1.0105602501807118
-0.003179895667433307
-0.5109357196941495
-1.0105602501807118
-0.003179895667433307
-0.5109357196941495
-1.0105865901773412
-0.005698336993152581
-0.5115732374520654
-1.0105865901773412
-0.005698336993152581
-0.5115732374520654
-1.0105865901773412
-0.005698336993152581
-0.5115732374520654
-1.0105865901773412
-0.005698336993152581
-0.5115732374520654
-1.009973480595582
-0.008037380657160826
-0.5119011012275625
-1.009973480595582
-0.008037380657160826
-0.5119011012275625
-1.009973480595582
-0.008037380657160826
-0.5119011012275625
-1.009973480595582
-0.008037380657160826
-0.5119011012275625
-1.010067479448718
-0.01048876276712399
-0.5118659069055311
-1.010067479448718
-0.01048876276712399
-0.5118659069055311
-1.010067479448718
-0.01048876276712399
-0.5118659069055311
-1.010067479448718
-0.01048876276712399
-0.5118659069055311
-1.0115655180505088
-0.012964105378126345
-0.5117146586464103
-1.0115655180505088
-0.012964105378126345
-0.5117146586464103
-1.0115655180505088
-0.012964105378126345
-0.5117146586464103
-1.0115655180505088
-0.012964105378126345
-0.5117146586464103
-1.0122288990860537
-0.01562617575566196
-0.5117973396519944
-1.0122288990860537
-0.01562617575566196
-0.5117973396519944
-1.0122288990860537
-0.01562617575566196
-0.5117973396519944
-1.0122288990860537
-0.01562617575566196
-0.5117973396519944
-1.012327166374828
-0.017404155141181845
-0.511826644575342
-1.012327166374828
-0.017404155141181845
-0.511826644575342
-1.012327166374828
-0.017404155141181845
-0.511826644575342
-1.012327166374828
-0.017404155141181845
-0.511826644575342
-1.0132010434784147
-0.018601401663236625
-0.5120067051203289
-1.0132010434784147
-0.018601401663236625
-0.5120067051203289
-1.0132010434784147
-0.018601401663236625
-0.5120067051203289
-1.0132010434784147
-0.018601401663236625
-0.5120067051203289
-1.0143811041940947
-0.019707310214538948
-0.5121338140704154
-1.0143811041940947
-0.019707310214538948
-0.5121338140704154
-1.0143811041940947
-0.019707310214538948
-0.5121338140704154
-1.0143811041940947
-0.019707310214538948
-0.5121338140704154
-1.0148062412729624
-0.020456866579219624
-0.5124945296968492
-1.0148062412729624
-0.020456866579219624
-0.5124945296968492
-1.0148062412729624
-0.020456866579219624
-0.5124945296968492
-1.0148062412729624
-0.020456866579219624
-0.5124945296968492
-1.015341146713551
-0.021016023117766843
-0.5129956311225736
-1.015341146713551
-0.021016023117766843
-0.5129956311225736
-1.015341146713551
-0.021016023117766843
-0.5129956311225736
-1.015341146713551
-0.021016023117766843
-0.5129956311225736
-1.0173409676732843
-0.02178700319999292
-0.5134043444414301
-1.0173409676732843
-0.02178700319999292
-0.5134043444414301
-1.0173409676732843
-0.02178700319999292
-0.5134043444414301
-1.0173409676732843
-0.02178700319999292
-0.5134043444414301
-1.0180435833614836
-0.022783244001347774
-0.5138298794286907
-1.0180435833614836
-0.022783244001347774
-0.5138298794286907
-1.0180435833614836
-0.022783244001347774
-0.5138298794286907
-1.0180435833614836
-0.022783244001347774
-0.5138298794286907
-1.0179216716543062
-0.023686647946853278
-0.5144801915698465
-1.0179216716543062
-0.023686647946853278
-0.5144801915698465
-1.0179216716543062
-0.023686647946853278
-0.5144801915698465
-1.0179216716543062
-0.023686647946853278
-0.5144801915698465
-1.0161339544401613
-0.024665401627148167
-0.5152644841670492
-1.0161339544401613
-0.024665401627148167
-0.5152644841670492
-1.0161339544401613
-0.024665401627148167
-0.5152644841670492
-1.0161339544401613
-0.024665401627148167
-0.5152644841670492
-1.014963056547575
-0.025683973042829822
-0.5158573493345152
-1.014963056547575
-0.025683973042829822
-0.5158573493345152
-1.014963056547575
-0.025683973042829822
-0.5158573493345152
-1.014963056547575
-0.025683973042829822
-0.5158573493345152
-1.0160976995736892
-0.02674688601522403
-0.5164465716800295
-1.0160976995736892
-0.02674688601522403
-0.5164465716800295
-1.0160976995736892
-0.02674688601522403
-0.5164465716800295
-1.0160976995736892
-0.02674688601522403
-0.5164465716800295
-1.0179727710495634
-0.027991500381025353
-0.5167239343886852
-1.0179727710495634
-0.027991500381025353
-0.5167239343886852
-1.0179727710495634
-0.027991500381025353
-0.5167239343886852
-1.0179727710495634
-0.027991500381025353
-0.5167239343886852
-1.0183084709227754
-0.02906337139218304
-0.5171738802091077
-1.0183084709227754
-0.02906337139218304
-0.5171738802091077
-1.0183084709227754
-0.02906337139218304
-0.5171738802091077
-1.0183084709227754
-0.02906337139218304
-0.5171738802091077
-1.0163609966314544
-0.030219750873293497
-0.5178654503467756
-1.0163609966314544
-0.030219750873293497
-0.5178654503467756
-1.0163609966314544
-0.030219750873293497
-0.5178654503467756
-1.0163609966314544
-0.030219750873293497
-0.5178654503467756
-1.0142659545960673
-0.0315085538143303
-0.5186226375544363
-1.0142659545960673
-0.0315085538143303
-0.5186226375544363
-1.0142659545960673
-0.0315085538143303
-0.5186226375544363
-1.0142659545960673
-0.0315085538143303
-0.5186226375544363
-1.014632511162417
-0.032663942358588556
-0.5194675688574426
-1.014632511162417
-0.032663942358588556
-0.5194675688574426
-1.014632511162417
-0.032663942358588556
-0.5194675688574426
-1.014632511162417
-0.032663942358588556
-0.5194675688574426
-1.0161498419242696
-0.03332867767803021
-0.5201700700834375
-1.0161498419242696
-0.03332867767803021
-0.5201700700834375
-1.0161498419242696
-0.03332867767803021
-0.5201700700834375
-1.0161498419242696
-0.03332867767803021
-0.5201700700834375
-1.0179474673397686
-0.03400747869649267
-0.5207606036376307
-1.0179474673397686
-0.03400747869649267
-0.5207606036376307
-1.0179474673397686
-0.03400747869649267
-0.5207606036376307
-1.0179474673397686
-0.03400747869649267
-0.5207606036376307
-1.0195952929496455
-0.03526043724959361
-0.521167656067512
-1.0195952929496455
-0.03526043724959361
-0.521167656067512
-1.0195952929496455
-0.03526043724959361
-0.521167656067512
-1.0195952929496455
-0.03526043724959361
-0.521167656067512
-1.0207880071895796
-0.036279982952086974
-0.521602343454949
-1.0207880071895796
-0.036279982952086974
-0.521602343454949
-1.0207880071895796
-0.036279982952086974
-0.521602343454949
-1.0207880071895796
-0.036279982952086974
-0.521602343454949
-1.020082075131776
-0.03701546685539028
-0.5219788917628703
-1.020082075131776
-0.03701546685539028
-0.5219788917628703
-1.020082075131776
-0.03701546685539028
-0.5219788917628703
-1.020082075131776
-0.03701546685539028
-0.5219788917628703
-1.0188948981322885
-0.03807776834265222
-0.5224170371117085
-1.0188948981322885
-0.03807776834265222
-0.5224170371117085
-1.0188948981322885
-0.03807776834265222
-0.5224170371117085
-1.0188948981322885
-0.03807776834265222
-0.5224170371117085
-1.0186013688534543
-0.03937673392001788
-0.522813947948713
-1.0186013688534543
-0.03937673392001788
-0.522813947948713
-1.0186013688534543
-0.03937673392001788
-0.522813947948713
-1.0186013688534543
-0.03937673392001788
-0.522813947948713
-1.0194978864365951
-0.040241402174639535
-0.522861931013142
-1.0194978864365951
-0.040241402174639535
-0.522861931013142
-1.0194978864365951
-0.040241402174639535
-0.522861931013142
-1.0194978864365951
-0.040241402174639535
-0.522861931013142
-1.020468907365794
-0.04106654651738895
-0.5228322186913841
-1.020468907365794
-0.04106654651738895
-0.5228322186913841
-1.020468907365794
-0.04106654651738895
-0.5228322186913841
-1.020468907365794
-0.04106654651738895
-0.5228322186913841
-1.020592026678951
-0.04166356275930894
-0.5228018028199042
-1.020592026678951
-0.04166356275930894
-0.5228018028199042
-1.020592026678951
-0.04166356275930894
-0.5228018028199042
-1.020592026678951
-0.04166356275930894
-0.5228018028199042
-1.0200737016476513
-0.04254379398528863
-0.5228245361736462
-1.0200737016476513
-0.04254379398528863
-0.5228245361736462
-1.0200737016476513
-0.04254379398528863
-0.5228245361736462
-1.0200737016476513
-0.04254379398528863
-0.5228245361736462
-1.0203789226620987
-0.04331628257963144
-0.5230357479158093
-1.0203789226620987
-0.04331628257963144
-0.5230357479158093
-1.0203789226620987
-0.04331628257963144
-0.5230357479158093
-1.0203789226620987
-0.04331628257963144
-0.5230357479158093
-1.0215322092539803
-0.04385829563310705
-0.523157704628731
-1.0215322092539803
-0.04385829563310705
-0.523157704628731
-1.0215322092539803
-0.04385829563310705
-0.523157704628731
-1.0215322092539803
-0.04385829563310705
-0.523157704628731
-1.0227602743247994
-0.04436106792671605
-0.5232020526373747
-1.0227602743247994
-0.04436106792671605
-0.5232020526373747
-1.0227602743247994
-0.04436106792671605
-0.5232020526373747
-1.0227602743247994
-0.04436106792671605
-0.5232020526373747
-1.022749219030043
-0.04481092318992635
-0.5232193991528675
-1.022749219030043
-0.04481092318992635
-0.5232193991528675
-1.022749219030043
-0.04481092318992635
-0.5232193991528675
-1.022749219030043
-0.04481092318992635
-0.5232193991528675
-1.0230148828663597
-0.045508963663306534
-0.5232997625863777
-1.0230148828663597
-0.045508963663306534
-0.5232997625863777
-1.0230148828663597
-0.045508963663306534
-0.5232997625863777
-1.0230148828663597
-0.045508963663306534
-0.5232997625863777
-1.0242235205337544
-0.04650771157266658
-0.5231993292760572
-1.0242235205337544
-0.04650771157266658
-0.5231993292760572
-1.0242235205337544
-0.04650771157266658
-0.5231993292760572
-1.0242235205337544
-0.04650771157266658
-0.5231993292760572
-1.0244780129849906
-0.0476555662984522
-0.5232959278343502
-1.0244780129849906
-0.0476555662984522
-0.5232959278343502
-1.0244780129849906
-0.0476555662984522
-0.5232959278343502
-1.0244780129849906
-0.0476555662984522
-0.5232959278343502
-1.0246926520148085
-0.048121308989718406
-0.5235076716633936
-1.0246926520148085
-0.048121308989718406
-0.5235076716633936
-1.0246926520148085
-0.048121308989718406
-0.5235076716633936
-1.0246926520148085
-0.048121308989718406
-0.5235076716633936
-1.0257342048565066
-0.048683494767478554
-0.5234832577293267
-1.0257342048565066
-0.048683494767478554
-0.5234832577293267
-1.0257342048565066
-0.048683494767478554
-0.5234832577293267
-1.0257342048565066
-0.048683494767478554
-0.5234832577293267
-1.0272229660649497
-0.04906717581369804
-0.5231779447035575
-1.0272229660649497
-0.04906717581369804
-0.5231779447035575
-1.0272229660649497
-0.04906717581369804
-0.5231779447035575
-1.0272229660649497
-0.04906717581369804
-0.5231779447035575
-1.027165654208512
-0.04904915139484925
-0.5231518467932074
-1.027165654208512
-0.04904915139484925
-0.5231518467932074
-1.027165654208512
-0.04904915139484925
-0.5231518467932074
-1.027165654208512
-0.04904915139484925
-0.5231518467932074
-1.0263112789923363
-0.04949452447956255
-0.5230837750281883
-1.0263112789923363
-0.04949452447956255
-0.5230837750281883
-1.0263112789923363
-0.04949452447956255
-0.5230837750281883
-1.0263112789923363
-0.04949452447956255
-0.5230837750281883
-1.0247310862983203
-0.04970152221959097
-0.5232326814853705
-1.0247310862983203
-0.04970152221959097
-0.5232326814853705
-1.0247310862983203
-0.04970152221959097
-0.5232326814853705
-1.0247310862983203
-0.04970152221959097
-0.5232326814853705
-1.0242797507267722
-0.05012903137592732
-0.5229307770805358
-1.0242797507267722
-0.05012903137592732
-0.5229307770805358
-1.0242797507267722
-0.05012903137592732
-0.5229307770805358
-1.0242797507267722
-0.05012903137592732
-0.5229307770805358
-1.0246479024658557
-0.050698794899027
-0.5222317608309073
-1.0246479024658557
-0.050698794899027
-0.5222317608309073
-1.0246479024658557
-0.050698794899027
-0.5222317608309073
-1.0246479024658557
-0.050698794899027
-0.5222317608309073
-1.0246080482990427
-0.05106224331403123
-0.5218557107572662
-1.0246080482990427
-0.05106224331403123
-0.5218557107572662
-1.0246080482990427
-0.05106224331403123
-0.5218557107572662
-1.0246080482990427
-0.05106224331403123
-0.5218557107572662
-1.0238645678767255
-0.051334083503692424
-0.5211712707936761
-1.0238645678767255
-0.051334083503692424
-0.5211712707936761
-1.0238645678767255
-0.051334083503692424
-0.5211712707936761
-1.0238645678767255
-0.051334083503692424
-0.5211712707936761
-1.0225372133805593
-0.051469668951594404
-0.5208151381174477
-1.0225372133805593
-0.051469668951594404
-0.5208151381174477
-1.0225372133805593
-0.051469668951594404
-0.5208151381174477
-1.0225372133805593
-0.051469668951594404
-0.5208151381174477
-1.0213805237821743
-0.051771410997171405
-0.5206299121213346
-1.0213805237821743
-0.051771410997171405
-0.5206299121213346
-1.0213805237821743
-0.051771410997171405
-0.5206299121213346
-1.0213805237821743
-0.051771410997171405
-0.5206299121213346
-1.0216544954566724
-0.051830625070291354
-0.5203559404468364
-1.0216544954566724
-0.051830625070291354
-0.5203559404468364
-1.0216544954566724
-0.051830625070291354
-0.5203559404468364
-1.0216544954566724
-0.051830625070291354
-0.5203559404468364
-1.023146458019228
-0.05134949123472294
-0.5197838548116156
-1.023146458019228
-0.05134949123472294
-0.5197838548116156
-1.023146458019228
-0.05134949123472294
-0.5197838548116156
-1.023146458019228
-0.05134949123472294
-0.5197838548116156
-1.02471569588505
-0.05055795917308213
-0.5193841073487588
-1.02471569588505
-0.05055795917308213
-0.5193841073487588
-1.02471569588505
-0.05055795917308213
-0.5193841073487588
-1.02471569588505
-0.05055795917308213
-0.5193841073487588
-1.0270081315547395
-0.049382984286200075
-0.5197721583649054
-1.0270081315547395
-0.049382984286200075
-0.5197721583649054
-1.0270081315547395
-0.049382984286200075
-0.5197721583649054
-1.0270081315547395
-0.049382984286200075
-0.5197721583649054
-1.0325076171362657
-0.04781931760569528
-0.520158751329836
-1.0325076171362657
-0.04781931760569528
-0.520158751329836
-1.0325076171362657
-0.04781931760569528
-0.520158751329836
-1.0325076171362657
-0.04781931760569528
-0.520158751329836
-1.039442945054019
-0.046246027537950714
-0.5196230634890158
-1.039442945054019
-0.046246027537950714
-0.5196230634890158
-1.039442945054019
-0.046246027537950714
-0.5196230634890158
-1.039442945054019
-0.046246027537950714
-0.5196230634890158
-1.045051804288119
-0.044570901703215066
-0.5178053750182651
-1.045051804288119
-0.044570901703215066
-0.5178053750182651
-1.045051804288119
-0.044570901703215066
-0.5178053750182651
-1.045051804288119
-0.044570901703215066
-0.5178053750182651
-1.0465251315008508
-0.04397431535390543
-0.5148094089944469
-1.0465251315008508
-0.04397431535390543
-0.5148094089944469
-1.0465251315008508
-0.04397431535390543
-0.5148094089944469
-1.0465251315008508
-0.04397431535390543
-0.5148094089944469
-1.0461066975204458
-0.0453987107777408
-0.5132081175835438
-1.0461066975204458
-0.0453987107777408
-0.5132081175835438
-1.0461066975204458
-0.0453987107777408
-0.5132081175835438
-1.0461066975204458
-0.0453987107777408
-0.5132081175835438
-1.0458197728405714
-0.046740484827419944
-0.5124055319942634
-1.0458197728405714
-0.046740484827419944
-0.5124055319942634
-1.0458197728405714
-0.046740484827419944
-0.5124055319942634
-1.0458197728405714
-0.046740484827419944
-0.5124055319942634
-1.04420774580896
-0.04556537759217678
-0.5121529699541654
-1.04420774580896
-0.04556537759217678
-0.5121529699541654
-1.04420774580896
-0.04556537759217678
-0.5121529699541654
-1.04420774580896
-0.04556537759217678
-0.5121529699541654
-1.0393625251706695
-0.040749099370245845
-0.5106188483276364
-1.0393625251706695
-0.040749099370245845
-0.5106188483276364
-1.0393625251706695
-0.040749099370245845
-0.5106188483276364
-1.0393625251706695
-0.040749099370245845
-0.5106188483276364
-1.0275987363970567
-0.03320568117412868
-0.507529553049042
-1.0275987363970567
-0.03320568117412868
-0.507529553049042
-1.0275987363970567
-0.03320568117412868
-0.507529553049042
-1.0275987363970567
-0.03320568117412868
-0.507529553049042
-1.0097565245723508
-0.025121301801409302
-0.5062157914768571
-1.0097565245723508
-0.025121301801409302
-0.5062157914768571
-1.0097565245723508
-0.025121301801409302
-0.5062157914768571
-1.0097565245723508
-0.025121301801409302
-0.5062157914768571
-0.9930718921085976
-0.018923483816459245
-0.5074188485533518
-0.9930718921085976
-0.018923483816459245
-0.5074188485533518
-0.9930718921085976
-0.018923483816459245
-0.5074188485533518
-0.9930718921085976
-0.018923483816459245
-0.5074188485533518
-0.9845794888524518
-0.012288633251805745
-0.508296297462876
-0.9845794888524518
-0.012288633251805745
-0.508296297462876
-0.9845794888524518
-0.012288633251805745
-0.508296297462876
-0.9845794888524518
-0.012288633251805745
-0.508296297462876
-0.9850278762367328
-0.005315629517132113
-0.5070635190997793
-0.9850278762367328
-0.005315629517132113
-0.5070635190997793
-0.9850278762367328
-0.005315629517132113
-0.5070635190997793
-0.9850278762367328
-0.005315629517132113
-0.5070635190997793
-0.9802596329901436
-7.633812306037836E-4
-0.5032750977701674
-0.9802596329901436
-7.633812306037836E-4
-0.5032750977701674
-0.9802596329901436
-7.633812306037836E-4
-0.5032750977701674
-0.9802596329901436
-7.633812306037836E-4
-0.5032750977701674
-0.9757944643510733
9.888773529819423E-4
-0.5016102418674623
-0.9757944643510733
9.888773529819423E-4
-0.5016102418674623
-0.9757944643510733
9.888773529819423E-4
-0.5016102418674623
-0.9757944643510733
9.888773529819423E-4
-0.5016102418674623
-0.971409250560905
0.0010566406882803858
-0.5008934958320602
-0.971409250560905
0.0010566406882803858
-0.5008934958320602
-0.971409250560905
0.0010566406882803858
-0.5008934958320602
-0.971409250560905
0.0010566406882803858
-0.5008934958320602
-0.9656032857782948
1.982736275011643E-4
-0.4996548720464566
-0.9656032857782948
1.982736275011643E-4
-0.4996548720464566
-0.9656032857782948
1.982736275011643E-4
-0.4996548720464566
-0.9656032857782948
1.982736275011643E-4
-0.4996548720464566
-0.9629093090888724
-0.00105559811148961
-0.49792365326146054
-0.9629093090888724
-0.00105559811148961
-0.49792365326146054
-0.9629093090888724
-0.00105559811148961
-0.49792365326146054
-0.9629093090888724
-0.00105559811148961
-0.49792365326146054
-0.9635122483648363
-0.003988255784204959
-0.4959238938006173
-0.9635122483648363
-0.003988255784204959
-0.4959238938006173
-0.9635122483648363
-0.003988255784204959
-0.4959238938006173
-0.9635122483648363
-0.003988255784204959
-0.4959238938006173
-0.9628158281480911
-0.006956503599270152
-0.49540891075380933
-0.9628158281480911
-0.006956503599270152
-0.49540891075380933
-0.9628158281480911
-0.006956503599270152
-0.49540891075380933
-0.9628158281480911
-0.006956503599270152
-0.49540891075380933
-0.9621493562351839
-0.010044307964517784
-0.4948676050545721
-0.9621493562351839
-0.010044307964517784
-0.4948676050545721
-0.9621493562351839
-0.010044307964517784
-0.4948676050545721
-0.9621493562351839
-0.010044307964517784
-0.4948676050545721
-0.9628385181536102
-0.013345645450917244
-0.4935076216591968
-0.9628385181536102
-0.013345645450917244
-0.4935076216591968
-0.9628385181536102
-0.013345645450917244
-0.4935076216591968
-0.9628385181536102
-0.013345645450917244
-0.4935076216591968
-0.9638734321929351
-0.01685524366196452
-0.4926685425335842
-0.9638734321929351
-0.01685524366196452
-0.4926685425335842
-0.9638734321929351
-0.01685524366196452
-0.4926685425335842
-0.9638734321929351
-0.01685524366196452
-0.4926685425335842
-0.9643354606218559
-0.019949291711549483
-0.49238219402178185
-0.9643354606218559
-0.019949291711549483
-0.49238219402178185
-0.9643354606218559
-0.019949291711549483
-0.49238219402178185
-0.9643354606218559
-0.019949291711549483
-0.49238219402178185
-0.9637521900630132
-0.022276883425692572
-0.49223966365821015
-0.9637521900630132
-0.022276883425692572
-0.49223966365821015
-0.9637521900630132
-0.022276883425692572
-0.49223966365821015
-0.9637521900630132
-0.022276883425692572
-0.49223966365821015
-0.9625357967410747
-0.024216954776848827
-0.4919409228668632
-0.9625357967410747
-0.024216954776848827
-0.4919409228668632
-0.9625357967410747
-0.024216954776848827
-0.4919409228668632
-0.9625357967410747
-0.024216954776848827
-0.4919409228668632
-0.9609540449432475
-0.026282703795160053
-0.49124987458823627
-0.9609540449432475
-0.026282703795160053
-0.49124987458823627
-0.9609540449432475
-0.026282703795160053
-0.49124987458823627
-0.9609540449432475
-0.026282703795160053
-0.49124987458823627
-0.9602975877936649
-0.02757229980937477
-0.4907869294449426
-0.9602975877936649
-0.02757229980937477
-0.4907869294449426
-0.9602975877936649
-0.02757229980937477
-0.4907869294449426
-0.9602975877936649
-0.02757229980937477
-0.4907869294449426
-0.9590337756566809
-0.028370154929366436
-0.49022220034322
-0.9590337756566809
-0.028370154929366436
-0.49022220034322
-0.9590337756566809
-0.028370154929366436
-0.49022220034322
-0.9590337756566809
-0.028370154929366436
-0.49022220034322
-0.9576871742739843
-0.02859127635493901
-0.48995983347383815
-0.9576871742739843
-0.02859127635493901
-0.48995983347383815
-0.9576871742739843
-0.02859127635493901
-0.48995983347383815
-0.9576871742739843
-0.02859127635493901
-0.48995983347383815
-0.9568877864486787
-0.028395849385318115
-0.4902390080616943
-0.9568877864486787
-0.028395849385318115
-0.4902390080616943
-0.9568877864486787
-0.028395849385318115
-0.4902390080616943
-0.9568877864486787
-0.028395849385318115
-0.4902390080616943
-0.9554446186492226
-0.02786492812880378
-0.49020074921121315
-0.9554446186492226
-0.02786492812880378
-0.49020074921121315
-0.9554446186492226
-0.02786492812880378
-0.49020074921121315
-0.9554446186492226
-0.02786492812880378
-0.49020074921121315
-0.953125646469057
-0.027454280681617555
-0.4902780777787895
-0.953125646469057
-0.027454280681617555
-0.4902780777787895
-0.953125646469057
-0.027454280681617555
-0.4902780777787895
-0.953125646469057
-0.027454280681617555
-0.4902780777787895
-0.9516582786264018
-0.02657916281568862
-0.49014998707140445
-0.9516582786264018
-0.02657916281568862
-0.49014998707140445
-0.9516582786264018
-0.02657916281568862
-0.49014998707140445
-0.9516582786264018
-0.02657916281568862
-0.49014998707140445
-0.9510581044814631
-0.02558859432589583
-0.4904345676149648
-0.9510581044814631
-0.02558859432589583
-0.4904345676149648
-0.9510581044814631
-0.02558859432589583
-0.4904345676149648
-0.9510581044814631
-0.02558859432589583
-0.4904345676149648
-0.9512541173468557
-0.024346893676415723
-0.4906720579867665
-0.9512541173468557
-0.024346893676415723
-0.4906720579867665
-0.9512541173468557
-0.024346893676415723
-0.4906720579867665
-0.9512541173468557
-0.024346893676415723
-0.4906720579867665
-0.9509599311198325
-0.02326314993906547
-0.4909003116929107
-0.9509599311198325
-0.02326314993906547
-0.4909003116929107
-0.9509599311198325
-0.02326314993906547
-0.4909003116929107
-0.9509599311198325
-0.02326314993906547
-0.4909003116929107
-0.9499498598546804
-0.022339555634835313
-0.4912535567859594
-0.9499498598546804
-0.022339555634835313
-0.4912535567859594
-0.9499498598546804
-0.022339555634835313
-0.4912535567859594
-0.9499498598546804
-0.022339555634835313
-0.4912535567859594
-0.9501453982497834
-0.021325682068602688
-0.4916735204961356
-0.9501453982497834
-0.021325682068602688
-0.4916735204961356
-0.9501453982497834
-0.021325682068602688
-0.4916735204961356
-0.9501453982497834
-0.021325682068602688
-0.4916735204961356
-0.949865275971868
-0.020637725595934835
-0.49182984041291156
-0.949865275971868
-0.020637725595934835
-0.49182984041291156
-0.949865275971868
-0.020637725595934835
-0.49182984041291156
-0.949865275971868
-0.020637725595934835
-0.49182984041291156
-0.9491195434008359
-0.020007682403641282
-0.49236089054609816
-0.9491195434008359
-0.020007682403641282
-0.49236089054609816
-0.9491195434008359
-0.020007682403641282
-0.49236089054609816
-0.9491195434008359
-0.020007682403641282
-0.49236089054609816
-0.9489295822680719
-0.019404889564610256
-0.49293875807807525
-0.9489295822680719
-0.019404889564610256
-0.49293875807807525
-0.9489295822680719
-0.019404889564610256
-0.49293875807807525
-0.9489295822680719
-0.019404889564610256
-0.49293875807807525
-0.9483954032929547
-0.0188261567848731
-0.4934398839755018
-0.9483954032929547
-0.0188261567848731
-0.4934398839755018
-0.9483954032929547
-0.0188261567848731
-0.4934398839755018
-0.9483954032929547
-0.0188261567848731
-0.4934398839755018
-0.9481408286322595
-0.018260095214927063
-0.4938321084488789
-0.9481408286322595
-0.018260095214927063
-0.4938321084488789
-0.9481408286322595
-0.018260095214927063
-0.4938321084488789
-0.9481408286322595
-0.018260095214927063
-0.4938321084488789
-0.9488137054420591
-0.018040214900319037
-0.4941726644464533
-0.9488137054420591
-0.018040214900319037
-0.4941726644464533
-0.9488137054420591
-0.018040214900319037
-0.4941726644464533
-0.9488137054420591
-0.018040214900319037
-0.4941726644464533
-0.9488137054420591
-0.018040214900319037
-0.4941726644464533
-0.9488137054420591
-0.018040214900319037
-0.4941726644464533
-0.9488137054420591
-0.018040214900319037
-0.4941726644464533
-0.9488137054420591
-0.018040214900319037
-0.4941726644464533
-0.9489483024277493
-0.017958614947250887
-0.4939472273609401
-0.9489483024277493
-0.017958614947250887
-0.4939472273609401
-0.9489483024277493
-0.017958614947250887
-0.4939472273609401
-0.9489483024277493
-0.017958614947250887
-0.4939472273609401
-0.9497036898718857
-0.017867994988693684
-0.4939548116738869
-0.9497036898718857
-0.017867994988693684
-0.4939548116738869
-0.9497036898718857
-0.017867994988693684
-0.4939548116738869
-0.9497036898718857
-0.017867994988693684
-0.4939548116738869
-0.9509523172518982
-0.017839693336271487
-0.49356004981725327
-0.9509523172518982
-0.017839693336271487
-0.49356004981725327
-0.9509523172518982
-0.017839693336271487
-0.49356004981725327
-0.9509523172518982
-0.017839693336271487
-0.49356004981725327
-0.9509463798946138
-0.01743287871434386
-0.49277034294350996
-0.9509463798946138
-0.01743287871434386
-0.49277034294350996
-0.9509463798946138
-0.01743287871434386
-0.49277034294350996
-0.9509463798946138
-0.01743287871434386
-0.49277034294350996
-0.9528493766436624
-0.017049655145637957
-0.4916197852798888
-0.9528493766436624
-0.017049655145637957
-0.4916197852798888
-0.9528493766436624
-0.017049655145637957
-0.4916197852798888
-0.9528493766436624
-0.017049655145637957
-0.4916197852798888
-0.9540574853615215
-0.016536625327690225
-0.48977575562694153
-0.9540574853615215
-0.016536625327690225
-0.48977575562694153
-0.9540574853615215
-0.016536625327690225
-0.48977575562694153
-0.9540574853615215
-0.016536625327690225
-0.48977575562694153
-0.954230075383945
-0.015847560953185878
-0.4897306407594663
-0.954230075383945
-0.015847560953185878
-0.4897306407594663
-0.954230075383945
-0.015847560953185878
-0.4897306407594663
-0.954230075383945
-0.015847560953185878
-0.4897306407594663
-0.9554214192789081
-0.01445721414311562
-0.48974075382443105
-0.9554214192789081
-0.01445721414311562
-0.48974075382443105
-0.9554214192789081
-0.01445721414311562
-0.48974075382443105
-0.9554214192789081
-0.01445721414311562
-0.48974075382443105
-0.9578948181257345
-0.012213534273210062
-0.49022069234529747
-0.9578948181257345
-0.012213534273210062
-0.49022069234529747
-0.9578948181257345
-0.012213534273210062
-0.49022069234529747
-0.9578948181257345
-0.012213534273210062
-0.49022069234529747
-0.9604317384553621
-0.010389182163336298
-0.4911888819739467
-0.9604317384553621
-0.010389182163336298
-0.4911888819739467
-0.9604317384553621
-0.010389182163336298
-0.4911888819739467
-0.9604317384553621
-0.010389182163336298
-0.4911888819739467
-0.9646254872964113
-0.0066844950804357175
-0.49263993171399567
-0.9646254872964113
-0.0066844950804357175
-0.49263993171399567
-0.9646254872964113
-0.0066844950804357175
-0.49263993171399567
-0.9646254872964113
-0.0066844950804357175
-0.49263993171399567
-0.9692557538812423
-0.0025898764223267973
-0.4915716678678904
-0.9692557538812423
-0.0025898764223267973
-0.4915716678678904
-0.9692557538812423
-0.0025898764223267973
-0.4915716678678904
-0.9692557538812423
-0.0025898764223267973
-0.4915716678678904
-0.9688056371536463
-0.002353718634476002
-0.491060632440307
-0.9688056371536463
-0.002353718634476002
-0.491060632440307
-0.9688056371536463
-0.002353718634476002
-0.491060632440307
-0.9688056371536463
-0.002353718634476002
-0.491060632440307
-0.9661204324094684
-0.005024647121306786
-0.4950114305568504
-0.9661204324094684
-0.005024647121306786
-0.4950114305568504
-0.9661204324094684
-0.005024647121306786
-0.4950114305568504
-0.9661204324094684
-0.005024647121306786
-0.4950114305568504
-0.973682075526952
-0.011657460137721109
-0.5014745289498516
-0.973682075526952
-0.011657460137721109
-0.5014745289498516
-0.973682075526952
-0.011657460137721109
-0.5014745289498516
-0.973682075526952
-0.011657460137721109
-0.5014745289498516
-0.9859042888222281
-0.019154967374352398
-0.5057821647432812
-0.9859042888222281
-0.019154967374352398
-0.5057821647432812
-0.9859042888222281
-0.019154967374352398
-0.5057821647432812
-0.9859042888222281
-0.019154967374352398
-0.5057821647432812
-0.9934005264222165
-0.02461482385523204
-0.507969774869657
-0.9934005264222165
-0.02461482385523204
-0.507969774869657
-0.9934005264222165
-0.02461482385523204
-0.507969774869657
-0.9934005264222165
-0.02461482385523204
-0.507969774869657
-0.9941981127863425
-0.03059578499536685
-0.5114574980547635
-0.9941981127863425
-0.03059578499536685
-0.5114574980547635
-0.9941981127863425
-0.03059578499536685
-0.5114574980547635
-0.9941981127863425
-0.03059578499536685
-0.5114574980547635
-0.9956076039739162
-0.03829544242083161
-0.5141034403597734
-0.9956076039739162
-0.03829544242083161
-0.5141034403597734
-0.9956076039739162
-0.03829544242083161
-0.5141034403597734
-0.9956076039739162
-0.03829544242083161
-0.5141034403597734
-0.9949612088889189
-0.046874445234282615
-0.5167705934759245
-0.9949612088889189
-0.046874445234282615
-0.5167705934759245
-0.9949612088889189
-0.046874445234282615
-0.5167705934759245
-0.9949612088889189
-0.046874445234282615
-0.5167705934759245
-0.9942776557053352
-0.05464829695173586
-0.5192713298707504
-0.9942776557053352
-0.05464829695173586
-0.5192713298707504
-0.9942776557053352
-0.05464829695173586
-0.5192713298707504
-0.9942776557053352
-0.05464829695173586
-0.5192713298707504
-0.9952991827518859
-0.06110184554167562
-0.5211076053691938
-0.9952991827518859
-0.06110184554167562
-0.5211076053691938
-0.9952991827518859
-0.06110184554167562
-0.5211076053691938
-0.9952991827518859
-0.06110184554167562
-0.5211076053691938
-0.9988851391330511
-0.06727976361248239
-0.52269215718103
-0.9988851391330511
-0.06727976361248239
-0.52269215718103
-0.9988851391330511
-0.06727976361248239
-0.52269215718103
-0.9988851391330511
-0.06727976361248239
-0.52269215718103
-1.0032797851583943
-0.07187546820849548
-0.5243241918186772
-1.0032797851583943
-0.07187546820849548
-0.5243241918186772
-1.0032797851583943
-0.07187546820849548
-0.5243241918186772
-1.0032797851583943
-0.07187546820849548
-0.5243241918186772
-1.0043270047872856
-0.07559525416210537
-0.5263481646907465
-1.0043270047872856
-0.07559525416210537
-0.5263481646907465
-1.0043270047872856
-0.07559525416210537
-0.5263481646907465
-1.0043270047872856
-0.07559525416210537
-0.5263481646907465
-1.0057534907410637
-0.07891720782422235
-0.5284747230744735
-1.0057534907410637
-0.07891720782422235
-0.5284747230744735
-1.0057534907410637
-0.07891720782422235
-0.5284747230744735
-1.0057534907410637
-0.07891720782422235
-0.5284747230744735
-1.009484642685993
-0.08274394723196894
-0.5302845542735849
-1.009484642685993
-0.08274394723196894
-0.5302845542735849
-1.009484642685993
-0.08274394723196894
-0.5302845542735849
-1.009484642685993
-0.08274394723196894
-0.5302845542735849
-1.0115545581389496
-0.08641331800128677
-0.5321593142733091
-1.0115545581389496
-0.08641331800128677
-0.5321593142733091
-1.0115545581389496
-0.08641331800128677
-0.5321593142733091
-1.0115545581389496
-0.08641331800128677
-0.5321593142733091
-1.013204034832538
-0.08959412508289646
-0.533361579133957
-1.013204034832538
-0.08959412508289646
-0.533361579133957
-1.013204034832538
-0.08959412508289646
-0.533361579133957
-1.013204034832538
-0.08959412508289646
-0.533361579133957
-1.015156770498641
-0.0931760064765666
-0.5340906234499679
-1.015156770498641
-0.0931760064765666
-0.5340906234499679
-1.015156770498641
-0.0931760064765666
-0.5340906234499679
-1.015156770498641
-0.0931760064765666
-0.5340906234499679
-1.01681725700446
-0.09621133632257914
-0.534520580879806
-1.01681725700446
-0.09621133632257914
-0.534520580879806
-1.01681725700446
-0.09621133632257914
-0.534520580879806
-1.01681725700446
-0.09621133632257914
-0.534520580879806
-1.0177976813401055
-0.0989635257043483
-0.5352941628908898
-1.0177976813401055
-0.0989635257043483
-0.5352941628908898
-1.0177976813401055
-0.0989635257043483
-0.5352941628908898
-1.0177976813401055
-0.0989635257043483
-0.5352941628908898
-1.0170357172151592
-0.10119329994364167
-0.5363211042410311
-1.0170357172151592
-0.10119329994364167
-0.5363211042410311
-1.0170357172151592
-0.10119329994364167
-0.5363211042410311
-1.0170357172151592
-0.10119329994364167
-0.5363211042410311
-1.0167007061901139
-0.10291271179707051
-0.5372450884172075
-1.0167007061901139
-0.10291271179707051
-0.5372450884172075
-1.0167007061901139
-0.10291271179707051
-0.5372450884172075
-1.0167007061901139
-0.10291271179707051
-0.5372450884172075
-1.0187648182375062
-0.10406176678511059
-0.5374080425745366
-1.0187648182375062
-0.10406176678511059
-0.5374080425745366
-1.0187648182375062
-0.10406176678511059
-0.5374080425745366
-1.0187648182375062
-0.10406176678511059
-0.5374080425745366
-1.0202180310571798
-0.1049866713130407
-0.5375205418015978
-1.0202180310571798
-0.1049866713130407
-0.5375205418015978
-1.0202180310571798
-0.1049866713130407
-0.5375205418015978
-1.0202180310571798
-0.1049866713130407
-0.5375205418015978
-1.0185036189647414
-0.10537813866023597
-0.5378418549529767
-1.0185036189647414
-0.10537813866023597
-0.5378418549529767
-1.0185036189647414
-0.10537813866023597
-0.5378418549529767
-1.0185036189647414
-0.10537813866023597
-0.5378418549529767
-1.0147234982758304
-0.10605457902731306
-0.5382608635905937
-1.0147234982758304
-0.10605457902731306
-0.5382608635905937
-1.0147234982758304
-0.10605457902731306
-0.5382608635905937
-1.0147234982758304
-0.10605457902731306
-0.5382608635905937
-1.0126937145034192
-0.10657982374155615
-0.5384897659797638
-1.0126937145034192
-0.10657982374155615
-0.5384897659797638
-1.0126937145034192
-0.10657982374155615
-0.5384897659797638
-1.0126937145034192
-0.10657982374155615
-0.5384897659797638
-1.0130587176009336
-0.10709306620300121
-0.5387030674131451
-1.0130587176009336
-0.10709306620300121
-0.5387030674131451
-1.0130587176009336
-0.10709306620300121
-0.5387030674131451
-1.0130587176009336
-0.10709306620300121
-0.5387030674131451
-1.0127461655027907
-0.10812746639858635
-0.539434222937121
-1.0127461655027907
-0.10812746639858635
-0.539434222937121
-1.0127461655027907
-0.10812746639858635
-0.539434222937121
-1.0127461655027907
-0.10812746639858635
-0.539434222937121
-1.0112988954937914
-0.10890743474131204
-0.5403145468703451
-1.0112988954937914
-0.10890743474131204
-0.5403145468703451
-1.0112988954937914
-0.10890743474131204
-0.5403145468703451
-1.0112988954937914
-0.10890743474131204
-0.5403145468703451
-1.0110738180892127
-0.10976212245882867
-0.5414480736334611
-1.0110738180892127
-0.10976212245882867
-0.5414480736334611
-1.0110738180892127
-0.10976212245882867
-0.5414480736334611
-1.0110738180892127
-0.10976212245882867
-0.5414480736334611
-1.011656632138402
-0.11001891864737542
-0.5420965149479786
-1.011656632138402
-0.11001891864737542
-0.5420965149479786
-1.011656632138402
-0.11001891864737542
-0.5420965149479786
-1.011656632138402
-0.11001891864737542
-0.5420965149479786
-1.0116002621527986
-0.11036529927133606
-0.5424833617392266
-1.0116002621527986
-0.11036529927133606
-0.5424833617392266
-1.0116002621527986
-0.11036529927133606
-0.5424833617392266
-1.0116002621527986
-0.11036529927133606
-0.5424833617392266
-1.0099688180275495
-0.11062038344168175
-0.543052019419417
-1.0099688180275495
-0.11062038344168175
-0.543052019419417
-1.0099688180275495
-0.11062038344168175
-0.543052019419417
-1.0099688180275495
-0.11062038344168175
-0.543052019419417
-1.0088141362562346
-0.11122689007212136
-0.5434748161127286
-1.0088141362562346
-0.11122689007212136
-0.5434748161127286
-1.0088141362562346
-0.11122689007212136
-0.5434748161127286
-1.0088141362562346
-0.11122689007212136
-0.5434748161127286
-1.0086507818565327
-0.1120358825957646
-0.5434805117270881
-1.0086507818565327
-0.1120358825957646
-0.5434805117270881
-1.0086507818565327
-0.1120358825957646
-0.5434805117270881
-1.0086507818565327
-0.1120358825957646
-0.5434805117270881
-1.008548233307755
-0.11298058024703331
-0.5436732828602254
-1.008548233307755
-0.11298058024703331
-0.5436732828602254
-1.008548233307755
-0.11298058024703331
-0.5436732828602254
-1.008548233307755
-0.11298058024703331
-0.5436732828602254
-1.0081381696069127
-0.11424050114524602
-0.5438478833442528
-1.0081381696069127
-0.11424050114524602
-0.5438478833442528
-1.0081381696069127
-0.11424050114524602
-0.5438478833442528
-1.0081381696069127
-0.11424050114524602
-0.5438478833442528
-1.0078972895421037
-0.11508289825755061
-0.5439329609345029
-1.0078972895421037
-0.11508289825755061
-0.5439329609345029
-1.0078972895421037
-0.11508289825755061
-0.5439329609345029
-1.0078972895421037
-0.11508289825755061
-0.5439329609345029
-1.0074578422689955
-0.11568768306070615
-0.5437232573246024
-1.0074578422689955
-0.11568768306070615
-0.5437232573246024
-1.0074578422689955
-0.11568768306070615
-0.5437232573246024
-1.0074578422689955
-0.11568768306070615
-0.5437232573246024
-1.0065980706772792
-0.11612418183873775
-0.5436882498969119
-1.0065980706772792
-0.11612418183873775
-0.5436882498969119
-1.0065980706772792
-0.11612418183873775
-0.5436882498969119
-1.0065980706772792
-0.11612418183873775
-0.5436882498969119
-1.0062791219296003
-0.11630801841483367
-0.5434361095017793
-1.0062791219296003
-0.11630801841483367
-0.5434361095017793
-1.0062791219296003
-0.11630801841483367
-0.5434361095017793
-1.0062791219296003
-0.11630801841483367
-0.5434361095017793
-1.005549385048219
-0.11666622875991638
-0.543434972120344
-1.005549385048219
-0.11666622875991638
-0.543434972120344
-1.005549385048219
-0.11666622875991638
-0.543434972120344
-1.005549385048219
-0.11666622875991638
-0.543434972120344
-1.0046361866851814
-0.11686988633726063
-0.5435331596180702
-1.0046361866851814
-0.11686988633726063
-0.5435331596180702
-1.0046361866851814
-0.11686988633726063
-0.5435331596180702
-1.0046361866851814
-0.11686988633726063
-0.5435331596180702
-1.0049326064371267
-0.1175085349701163
-0.5432422831836526
-1.0049326064371267
-0.1175085349701163
-0.5432422831836526
-1.0049326064371267
-0.1175085349701163
-0.5432422831836526
-1.0049326064371267
-0.1175085349701163
-0.5432422831836526
-1.0049326064371267
-0.1175085349701163
-0.5432422831836526
-1.0049326064371267
-0.1175085349701163
-0.5432422831836526
-1.0049326064371267
-0.1175085349701163
-0.5432422831836526
-1.0049326064371267
-0.1175085349701163
-0.5432422831836526
-1.003083970921945
-0.117970646535515
-0.5435443480145223
-1.003083970921945
-0.117970646535515
-0.5435443480145223
-1.003083970921945
-0.117970646535515
-0.5435443480145223
-1.003083970921945
-0.117970646535515
-0.5435443480145223
-1.002924262911306
-0.11792349198346459
-0.5435407747325534
-1.002924262911306
-0.11792349198346459
-0.5435407747325534
-1.002924262911306
-0.11792349198346459
-0.5435407747325534
-1.002924262911306
-0.11792349198346459
-0.5435407747325534
-1.0034492965715764
-0.11811757983660995
-0.5433442636809608
-1.0034492965715764
-0.11811757983660995
-0.5433442636809608
-1.0034492965715764
-0.11811757983660995
-0.5433442636809608
-1.0034492965715764
-0.11811757983660995
-0.5433442636809608
-1.0033447150673764
-0.11809224667535645
-0.5433662278589815
-1.0033447150673764
-0.11809224667535645
-0.5433662278589815
-1.0033447150673764
-0.11809224667535645
-0.5433662278589815
-1.0033447150673764
-0.11809224667535645
-0.5433662278589815
-1.002075543090558
-0.11849128489432233
-0.543742490643205
-1.002075543090558
-0.11849128489432233
-0.543742490643205
-1.002075543090558
-0.11849128489432233
-0.543742490643205
-1.002075543090558
-0.11849128489432233
-0.543742490643205
-1.0009147868675004
-0.1191448653187822
-0.5440128230693437
-1.0009147868675004
-0.1191448653187822
-0.5440128230693437
-1.0009147868675004
-0.1191448653187822
-0.5440128230693437
-1.0009147868675004
-0.1191448653187822
-0.5440128230693437
-1.001164518922605
-0.11945244512165719
-0.5441741865368855
-1.001164518922605
-0.11945244512165719
-0.5441741865368855
-1.001164518922605
-0.11945244512165719
-0.5441741865368855
-1.001164518922605
-0.11945244512165719
-0.5441741865368855
-1.0009314391796666
-0.11998438521622276
-0.5447397613970574
-1.0009314391796666
-0.11998438521622276
-0.5447397613970574
-1.0009314391796666
-0.11998438521622276
-0.5447397613970574
-1.0009314391796666
-0.11998438521622276
-0.5447397613970574
-0.9995931548976252
-0.12038362698051845
-0.5454297210536526
-0.9995931548976252
-0.12038362698051845
-0.5454297210536526
-0.9995931548976252
-0.12038362698051845
-0.5454297210536526
-0.9995931548976252
-0.12038362698051845
-0.5454297210536526
-0.9980436744980018
-0.12094249915344463
-0.5460071212202358
-0.9980436744980018
-0.12094249915344463
-0.5460071212202358
-0.9980436744980018
-0.12094249915344463
-0.5460071212202358
-0.9980436744980018
-0.12094249915344463
-0.5460071212202358
-0.9996399873818074
-0.121510484314722
-0.5461301317166948
-0.9996399873818074
-0.121510484314722
-0.5461301317166948
-0.9996399873818074
-0.121510484314722
-0.5461301317166948
-0.9996399873818074
-0.121510484314722
-0.5461301317166948
-1.000309713180507
-0.12198799475947543
-0.546116462272446
-1.000309713180507
-0.12198799475947543
-0.546116462272446
-1.000309713180507
-0.12198799475947543
-0.546116462272446
-1.000309713180507
-0.12198799475947543
-0.546116462272446
-0.9990679751136958
-0.12223113729099859
-0.5467103013041298
-0.9990679751136958
-0.12223113729099859
-0.5467103013041298
-0.9990679751136958
-0.12223113729099859
-0.5467103013041298
-0.9990679751136958
-0.12223113729099859
-0.5467103013041298
-0.9970213639189212
-0.12271919267455841
-0.5474574760534646
-0.9970213639189212
-0.12271919267455841
-0.5474574760534646
-0.9970213639189212
-0.12271919267455841
-0.5474574760534646
-0.9970213639189212
-0.12271919267455841
-0.5474574760534646
-0.9965207132868129
-0.12366772275248503
-0.5476431010585292
-0.9965207132868129
-0.12366772275248503
-0.5476431010585292
-0.9965207132868129
-0.12366772275248503
-0.5476431010585292
-0.9965207132868129
-0.12366772275248503
-0.5476431010585292
-0.9972912320016366
-0.12469841945732625
-0.5480251366559641
-0.9972912320016366
-0.12469841945732625
-0.5480251366559641
-0.9972912320016366
-0.12469841945732625
-0.5480251366559641
-0.9972912320016366
-0.12469841945732625
-0.5480251366559641
-0.9978293679809725
-0.12573277380553277
-0.5485560952289681
-0.9978293679809725
-0.12573277380553277
-0.5485560952289681
-0.9978293679809725
-0.12573277380553277
-0.5485560952289681
-0.9978293679809725
-0.12573277380553277
-0.5485560952289681
-0.998207503472286
-0.12671966218794928
-0.5490834596409071
-0.998207503472286
-0.12671966218794928
-0.5490834596409071
-0.998207503472286
-0.12671966218794928
-0.5490834596409071
-0.998207503472286
-0.12671966218794928
-0.5490834596409071
-0.99852434498874
-0.12778366276384007
-0.5492658017645862
-0.99852434498874
-0.12778366276384007
-0.5492658017645862
-0.99852434498874
-0.12778366276384007
-0.5492658017645862
-0.99852434498874
-0.12778366276384007
-0.5492658017645862
-0.9978115633159953
-0.1288920052644917
-0.5493398244541998
-0.9978115633159953
-0.1288920052644917
-0.5493398244541998
-0.9978115633159953
-0.1288920052644917
-0.5493398244541998
-0.9978115633159953
-0.1288920052644917
-0.5493398244541998
-0.9955920785962082
-0.1291986388571571
-0.5498562392402394
-0.9955920785962082
-0.1291986388571571
-0.5498562392402394
-0.9955920785962082
-0.1291986388571571
-0.5498562392402394
-0.9955920785962082
-0.1291986388571571
-0.5498562392402394
-0.9950900492470743
-0.12965486156461273
-0.5504446341469045
-0.9950900492470743
-0.12965486156461273
-0.5504446341469045
-0.9950900492470743
-0.12965486156461273
-0.5504446341469045
-0.9950900492470743
-0.12965486156461273
-0.5504446341469045
-0.9961884965347058
-0.13015580366254462
-0.5507317616145093
-0.9961884965347058
-0.13015580366254462
-0.5507317616145093
-0.9961884965347058
-0.13015580366254462
-0.5507317616145093
-0.9961884965347058
-0.13015580366254462
-0.5507317616145093
-0.9976561730655937
-0.13075596174118154
-0.5509756732642301
-0.9976561730655937
-0.13075596174118154
-0.5509756732642301
-0.9976561730655937
-0.13075596174118154
-0.5509756732642301
-0.9976561730655937
-0.13075596174118154
-0.5509756732642301
-0.9977306354222778
-0.13120141368017119
-0.5514738685242819
-0.9977306354222778
-0.13120141368017119
-0.5514738685242819
-0.9977306354222778
-0.13120141368017119
-0.5514738685242819
-0.9977306354222778
-0.13120141368017119
-0.5514738685242819
-0.9966197250961237
-0.13138121393815164
-0.5521798426745623
-0.9966197250961237
-0.13138121393815164
-0.5521798426745623
-0.9966197250961237
-0.13138121393815164
-0.5521798426745623
-0.9966197250961237
-0.13138121393815164
-0.5521798426745623
-0.9969978374612555
-0.13161116930222608
-0.5523724768107576
-0.9969978374612555
-0.13161116930222608
-0.5523724768107576
-0.9969978374612555
-0.13161116930222608
-0.5523724768107576
-0.9969978374612555
-0.13161116930222608
-0.5523724768107576
-0.9969978374612555
-0.13161116930222608
-0.5523724768107576
-0.9969978374612555
-0.13161116930222608
-0.5523724768107576
-0.9969978374612555
-0.13161116930222608
-0.5523724768107576
-0.9969978374612555
-0.13161116930222608
-0.5523724768107576
-0.996272814272763
-0.1316546941638608
-0.5528549207984634
-0.996272814272763
-0.1316546941638608
-0.5528549207984634
-0.996272814272763
-0.1316546941638608
-0.5528549207984634
-0.996272814272763
-0.1316546941638608
-0.5528549207984634
-0.9962985520786978
-0.13155070709895142
-0.5529094564771614
-0.9962985520786978
-0.13155070709895142
-0.5529094564771614
-0.9962985520786978
-0.13155070709895142
-0.5529094564771614
-0.9962985520786978
-0.13155070709895142
-0.5529094564771614
-0.996272814272763
-0.1316546941638608
-0.5528549207984634
-0.996272814272763
-0.1316546941638608
-0.5528549207984634
-0.996272814272763
-0.1316546941638608
-0.5528549207984634
-0.996272814272763
-0.1316546941638608
-0.5528549207984634
-0.9974282411130685
-0.13114211237701673
-0.5530749271041427
-0.9974282411130685
-0.13114211237701673
-0.5530749271041427
-0.9974282411130685
-0.13114211237701673
-0.5530749271041427
-0.9974282411130685
-0.13114211237701673
-0.5530749271041427
-0.9975541096076196
-0.1306721908096738
-0.5531884906970439
-0.9975541096076196
-0.1306721908096738
-0.5531884906970439
-0.9975541096076196
-0.1306721908096738
-0.5531884906970439
-0.9975541096076196
-0.1306721908096738
-0.5531884906970439
-0.9973169039207029
-0.130003348057238
-0.5536636171618642
-0.9973169039207029
-0.130003348057238
-0.5536636171618642
-0.9973169039207029
-0.130003348057238
-0.5536636171618642
-0.9973169039207029
-0.130003348057238
-0.5536636171618642
-0.9969145206157484
-0.12938581816828246
-0.5538166765719046
-0.9969145206157484
-0.12938581816828246
-0.5538166765719046
-0.9969145206157484
-0.12938581816828246
-0.5538166765719046
-0.9969145206157484
-0.12938581816828246
-0.5538166765719046
-0.9969753540674524
-0.12860136623631893
-0.5536672461360208
-0.9969753540674524
-0.12860136623631893
-0.5536672461360208
-0.9969753540674524
-0.12860136623631893
-0.5536672461360208
-0.9969753540674524
-0.12860136623631893
-0.5536672461360208
-0.9982203674521096
-0.12808344280448447
-0.5533121779274245
-0.9982203674521096
-0.12808344280448447
-0.5533121779274245
-0.9982203674521096
-0.12808344280448447
-0.5533121779274245
-0.9982203674521096
-0.12808344280448447
-0.5533121779274245
-0.9985677234079807
-0.12731834528748107
-0.5530390800542299
-0.9985677234079807
-0.12731834528748107
-0.5530390800542299
-0.9985677234079807
-0.12731834528748107
-0.5530390800542299
-0.9985677234079807
-0.12731834528748107
-0.5530390800542299
-0.9973892615204869
-0.12624490981601658
-0.5530693348164757
-0.9973892615204869
-0.12624490981601658
-0.5530693348164757
-0.9973892615204869
-0.12624490981601658
-0.5530693348164757
-0.9973892615204869
-0.12624490981601658
-0.5530693348164757
-0.9964751233643313
-0.12524519104776796
-0.5530791747153988
-0.9964751233643313
-0.12524519104776796
-0.5530791747153988
-0.9964751233643313
-0.12524519104776796
-0.5530791747153988
-0.9964751233643313
-0.12524519104776796
-0.5530791747153988
-0.9966034506746028
-0.12401808772022253
-0.5528581805125626
-0.9966034506746028
-0.12401808772022253
-0.5528581805125626
-0.9966034506746028
-0.12401808772022253
-0.5528581805125626
-0.9966034506746028
-0.12401808772022253
-0.5528581805125626
-0.9969588031794674
-0.12239645508268002
-0.5525695317804282
-0.9969588031794674
-0.12239645508268002
-0.5525695317804282
-0.9969588031794674
-0.12239645508268002
-0.5525695317804282
-0.9969588031794674
-0.12239645508268002
-0.5525695317804282
-0.9983863939098546
-0.12138070896835146
-0.5525182033533906
-0.9983863939098546
-0.12138070896835146
-0.5525182033533906
-0.9983863939098546
-0.12138070896835146
-0.5525182033533906
-0.9983863939098546
-0.12138070896835146
-0.5525182033533906
-1.0010686566213824
-0.12126982202114711
-0.5541558516184886
-1.0010686566213824
-0.12126982202114711
-0.5541558516184886
-1.0010686566213824
-0.12126982202114711
-0.5541558516184886
-1.0010686566213824
-0.12126982202114711
-0.5541558516184886
-1.0097501568170482
-0.12067638897452737
-0.5559085665995526
-1.0097501568170482
-0.12067638897452737
-0.5559085665995526
-1.0097501568170482
-0.12067638897452737
-0.5559085665995526
-1.0097501568170482
-0.12067638897452737
-0.5559085665995526
-1.0238881294009943
-0.11878392718085438
-0.5561307396556113
-1.0238881294009943
-0.11878392718085438
-0.5561307396556113
-1.0238881294009943
-0.11878392718085438
-0.5561307396556113
-1.0238881294009943
-0.11878392718085438
-0.5561307396556113
-1.0363735230968008
-0.11553594522352868
-0.5534667334124685
-1.0363735230968008
-0.11553594522352868
-0.5534667334124685
-1.0363735230968008
-0.11553594522352868
-0.5534667334124685
-1.0363735230968008
-0.11553594522352868
-0.5534667334124685
-1.0428255387410597
-0.11242125846781627
-0.5508886684290327
-1.0428255387410597
-0.11242125846781627
-0.5508886684290327
-1.0428255387410597
-0.11242125846781627
-0.5508886684290327
-1.0428255387410597
-0.11242125846781627
-0.5508886684290327
-1.0359294463527655
-0.11088635078499239
-0.5489546153373714
-1.0359294463527655
-0.11088635078499239
-0.5489546153373714
-1.0359294463527655
-0.11088635078499239
-0.5489546153373714
-1.0359294463527655
-0.11088635078499239
-0.5489546153373714
-1.024756563575078
-0.10866391948896222
-0.5478434849575748
-1.024756563575078
-0.10866391948896222
-0.5478434849575748
-1.024756563575078
-0.10866391948896222
-0.5478434849575748
-1.024756563575078
-0.10866391948896222
-0.5478434849575748
-1.0105001766329589
-0.1057504363978806
-0.5476536783766978
-1.0105001766329589
-0.1057504363978806
-0.5476536783766978
-1.0105001766329589
-0.1057504363978806
-0.5476536783766978
-1.0105001766329589
-0.1057504363978806
-0.5476536783766978
-0.9953975283634132
-0.10079577765287684
-0.5475885281027143
-0.9953975283634132
-0.10079577765287684
-0.5475885281027143
-0.9953975283634132
-0.10079577765287684
-0.5475885281027143
-0.9953975283634132
-0.10079577765287684
-0.5475885281027143
-0.9805562007352947
-0.09366919040890356
-0.5493789392217019
-0.9805562007352947
-0.09366919040890356
-0.5493789392217019
-0.9805562007352947
-0.09366919040890356
-0.5493789392217019
-0.9805562007352947
-0.09366919040890356
-0.5493789392217019
-0.9732212439919622
-0.0838513127859046
-0.5503932921474468
-0.9732212439919622
-0.0838513127859046
-0.5503932921474468
-0.9732212439919622
-0.0838513127859046
-0.5503932921474468
-0.9732212439919622
-0.0838513127859046
-0.5503932921474468
-0.9742287023705876
-0.0735393448286891
-0.5492431254308803
-0.9742287023705876
-0.0735393448286891
-0.5492431254308803
-0.9742287023705876
-0.0735393448286891
-0.5492431254308803
-0.9742287023705876
-0.0735393448286891
-0.5492431254308803
-0.9709232166374842
-0.061332972993458724
-0.5461581887488183
-0.9709232166374842
-0.061332972993458724
-0.5461581887488183
-0.9709232166374842
-0.061332972993458724
-0.5461581887488183
-0.9709232166374842
-0.061332972993458724
-0.5461581887488183
-0.9560931854328798
-0.05158424358048721
-0.542127197848509
-0.9560931854328798
-0.05158424358048721
-0.542127197848509
-0.9560931854328798
-0.05158424358048721
-0.542127197848509
-0.9560931854328798
-0.05158424358048721
-0.542127197848509
-0.9455029761787249
-0.04577223717253026
-0.5401001212923483
-0.9455029761787249
-0.04577223717253026
-0.5401001212923483
-0.9455029761787249
-0.04577223717253026
-0.5401001212923483
-0.9455029761787249
-0.04577223717253026
-0.5401001212923483
-0.9453790054339704
-0.04345030046282523
-0.5386917148661751
-0.9453790054339704
-0.04345030046282523
-0.5386917148661751
-0.9453790054339704
-0.04345030046282523
-0.5386917148661751
-0.9453790054339704
-0.04345030046282523
-0.5386917148661751
-0.9431481309947011
-0.043036586721134494
-0.5369282845752253
-0.9431481309947011
-0.043036586721134494
-0.5369282845752253
-0.9431481309947011
-0.043036586721134494
-0.5369282845752253
-0.9431481309947011
-0.043036586721134494
-0.5369282845752253
-0.9379617570866237
-0.0423930604195047
-0.5360758659238428
-0.9379617570866237
-0.0423930604195047
-0.5360758659238428
-0.9379617570866237
-0.0423930604195047
-0.5360758659238428
-0.9379617570866237
-0.0423930604195047
-0.5360758659238428
-0.9383298110142305
-0.04112417162692511
-0.5350549457611004
-0.9383298110142305
-0.04112417162692511
-0.5350549457611004
-0.9383298110142305
-0.04112417162692511
-0.5350549457611004
-0.9383298110142305
-0.04112417162692511
-0.5350549457611004
-0.9419123050929199
-0.04162530714089685
-0.5329373729101801
-0.9419123050929199
-0.04162530714089685
-0.5329373729101801
-0.9419123050929199
-0.04162530714089685
-0.5329373729101801
-0.9419123050929199
-0.04162530714089685
-0.5329373729101801
-0.9446509848162995
-0.04331078636701961
-0.5313810792194369
-0.9446509848162995
-0.04331078636701961
-0.5313810792194369
-0.9446509848162995
-0.04331078636701961
-0.5313810792194369
-0.9446509848162995
-0.04331078636701961
-0.5313810792194369
-0.9466046459153884
-0.04615706811114921
-0.5309040940308257
-0.9466046459153884
-0.04615706811114921
-0.5309040940308257
-0.9466046459153884
-0.04615706811114921
-0.5309040940308257
-0.9466046459153884
-0.04615706811114921
-0.5309040940308257
-0.9459174250430494
-0.049756318080818616
-0.5305702524694265
-0.9459174250430494
-0.049756318080818616
-0.5305702524694265
-0.9459174250430494
-0.049756318080818616
-0.5305702524694265
-0.9459174250430494
-0.049756318080818616
-0.5305702524694265
-0.9420254148571325
-0.05332525892009436
-0.5297403082951092
-0.9420254148571325
-0.05332525892009436
-0.5297403082951092
-0.9420254148571325
-0.05332525892009436
-0.5297403082951092
-0.9420254148571325
-0.05332525892009436
-0.5297403082951092
-0.9410828871468359
-0.057302939856901346
-0.5289330614380251
-0.9410828871468359
-0.057302939856901346
-0.5289330614380251
-0.9410828871468359
-0.057302939856901346
-0.5289330614380251
-0.9410828871468359
-0.057302939856901346
-0.5289330614380251
-0.9423493544285285
-0.059961415576961996
-0.528718588023617
-0.9423493544285285
-0.059961415576961996
-0.528718588023617
-0.9423493544285285
-0.059961415576961996
-0.528718588023617
-0.9423493544285285
-0.059961415576961996
-0.528718588023617
-0.9439532846255463
-0.061979212268159375
-0.5287206624694035
-0.9439532846255463
-0.061979212268159375
-0.5287206624694035
-0.9439532846255463
-0.061979212268159375
-0.5287206624694035
-0.9439532846255463
-0.061979212268159375
-0.5287206624694035
-0.9432440900729736
-0.06332104918394922
-0.5289856750927369
-0.9432440900729736
-0.06332104918394922
-0.5289856750927369
-0.9432440900729736
-0.06332104918394922
-0.5289856750927369
-0.9432440900729736
-0.06332104918394922
-0.5289856750927369
-0.9420608636888035
-0.06440684455348905
-0.5284593486973975
-0.9420608636888035
-0.06440684455348905
-0.5284593486973975
-0.9420608636888035
-0.06440684455348905
-0.5284593486973975
-0.9420608636888035
-0.06440684455348905
-0.5284593486973975
-0.9418380673711106
-0.0652498398499835
-0.5283022169125213
-0.9418380673711106
-0.0652498398499835
-0.5283022169125213
-0.9418380673711106
-0.0652498398499835
-0.5283022169125213
-0.9418380673711106
-0.0652498398499835
-0.5283022169125213
-0.9424970931559333
-0.06548890540867651
-0.5286622319750792
-0.9424970931559333
-0.06548890540867651
-0.5286622319750792
-0.9424970931559333
-0.06548890540867651
-0.5286622319750792
-0.9424970931559333
-0.06548890540867651
-0.5286622319750792
-0.9435185744608443
-0.06521126151286297
-0.5292153955495591
-0.9435185744608443
-0.06521126151286297
-0.5292153955495591
-0.9435185744608443
-0.06521126151286297
-0.5292153955495591
-0.9435185744608443
-0.06521126151286297
-0.5292153955495591
-0.9428874734500579
-0.06436510268441058
-0.529558886670507
-0.9428874734500579
-0.06436510268441058
-0.529558886670507
-0.9428874734500579
-0.06436510268441058
-0.529558886670507
-0.9428874734500579
-0.06436510268441058
-0.529558886670507
-0.9422503676447671
-0.06294785077209647
-0.5296284129629156
-0.9422503676447671
-0.06294785077209647
-0.5296284129629156
-0.9422503676447671
-0.06294785077209647
-0.5296284129629156
-0.9422503676447671
-0.06294785077209647
-0.5296284129629156
-0.9426156659955831
-0.06185120718005591
-0.5292134197116929
-0.9426156659955831
-0.06185120718005591
-0.5292134197116929
-0.9426156659955831
-0.06185120718005591
-0.5292134197116929
-0.9426156659955831
-0.06185120718005591
-0.5292134197116929
-0.9423112454204362
-0.060743347706599886
-0.528622700196523
-0.9423112454204362
-0.060743347706599886
-0.528622700196523
-0.9423112454204362
-0.060743347706599886
-0.528622700196523
-0.9423112454204362
-0.060743347706599886
-0.528622700196523
-0.9419551374709024
-0.0593450046825798
-0.5285767793844416
-0.9419551374709024
-0.0593450046825798
-0.5285767793844416
-0.9419551374709024
-0.0593450046825798
-0.5285767793844416
-0.9419551374709024
-0.0593450046825798
-0.5285767793844416
-0.9421110334101395
-0.05751796597013767
-0.5285044246306294
-0.9421110334101395
-0.05751796597013767
-0.5285044246306294
-0.9421110334101395
-0.05751796597013767
-0.5285044246306294
-0.9421110334101395
-0.05751796597013767
-0.5285044246306294
-0.9433051990446352
-0.05563275195246126
-0.52831274617423
-0.9433051990446352
-0.05563275195246126
-0.52831274617423
-0.9433051990446352
-0.05563275195246126
-0.52831274617423
-0.9433051990446352
-0.05563275195246126
-0.52831274617423
-0.9439096924082327
-0.05381582911100015
-0.5282967598493596
-0.9439096924082327
-0.05381582911100015
-0.5282967598493596
-0.9439096924082327
-0.05381582911100015
-0.5282967598493596
-0.9439096924082327
-0.05381582911100015
-0.5282967598493596
-0.9433678805985812
-0.0524786116104063
-0.5281881267360281
-0.9433678805985812
-0.0524786116104063
-0.5281881267360281
-0.9433678805985812
-0.0524786116104063
-0.5281881267360281
-0.9433678805985812
-0.0524786116104063
-0.5281881267360281
-0.942905870641781
-0.05105332887764075
-0.5281586692497229
-0.942905870641781
-0.05105332887764075
-0.5281586692497229
-0.942905870641781
-0.05105332887764075
-0.5281586692497229
-0.942905870641781
-0.05105332887764075
-0.5281586692497229
-0.9427231332145811
-0.049866975687212794
-0.5278661257659134
-0.9427231332145811
-0.049866975687212794
-0.5278661257659134
-0.9427231332145811
-0.049866975687212794
-0.5278661257659134
-0.9427231332145811
-0.049866975687212794
-0.5278661257659134
-0.942160795105862
-0.04863514288586709
-0.527439063706528
-0.942160795105862
-0.04863514288586709
-0.527439063706528
-0.942160795105862
-0.04863514288586709
-0.527439063706528
-0.942160795105862
-0.04863514288586709
-0.527439063706528
-0.9419481846507464
-0.04737908944719674
-0.5267496099630763
-0.9419481846507464
-0.04737908944719674
-0.5267496099630763
-0.9419481846507464
-0.04737908944719674
-0.5267496099630763
-0.9419481846507464
-0.04737908944719674
-0.5267496099630763
-0.9417431356054233
-0.046921923446551564
-0.526254812315478
-0.9417431356054233
-0.046921923446551564
-0.526254812315478
-0.9417431356054233
-0.046921923446551564
-0.526254812315478
-0.9417431356054233
-0.046921923446551564
-0.526254812315478
-0.9415210115863466
-0.04651763736461407
-0.5258653903405421
-0.9415210115863466
-0.04651763736461407
-0.5258653903405421
-0.9415210115863466
-0.04651763736461407
-0.5258653903405421
-0.9415210115863466
-0.04651763736461407
-0.5258653903405421
-0.9417581556001235
-0.046070181806155346
-0.5256907212591944
-0.9417581556001235
-0.046070181806155346
-0.5256907212591944
-0.9417581556001235
-0.046070181806155346
-0.5256907212591944
-0.9417581556001235
-0.046070181806155346
-0.5256907212591944
-0.9416487851206359
-0.04608886541069203
-0.5252144967341205
-0.9416487851206359
-0.04608886541069203
-0.5252144967341205
-0.9416487851206359
-0.04608886541069203
-0.5252144967341205
-0.9416487851206359
-0.04608886541069203
-0.5252144967341205
-0.9409657041161579
-0.04595574379568781
-0.5245314157296427
-0.9409657041161579
-0.04595574379568781
-0.5245314157296427
-0.9409657041161579
-0.04595574379568781
-0.5245314157296427
-0.9409657041161579
-0.04595574379568781
-0.5245314157296427
-0.9421047287440668
-0.04596776890574626
-0.5239069544329044
-0.9421047287440668
-0.04596776890574626
-0.5239069544329044
-0.9421047287440668
-0.04596776890574626
-0.5239069544329044
-0.9421047287440668
-0.04596776890574626
-0.5239069544329044
-0.943479241869733
-0.045758623317664546
-0.523029337627214
-0.943479241869733
-0.045758623317664546
-0.523029337627214
-0.943479241869733
-0.045758623317664546
-0.523029337627214
-0.943479241869733
-0.045758623317664546
-0.523029337627214
-0.9456825618971914
-0.045476573026565284
-0.5213142526666784
-0.9456825618971914
-0.045476573026565284
-0.5213142526666784
-0.9456825618971914
-0.045476573026565284
-0.5213142526666784
-0.9456825618971914
-0.045476573026565284
-0.5213142526666784
-0.9458359560423273
-0.04566006690422388
-0.5196522795890602
-0.9458359560423273
-0.04566006690422388
-0.5196522795890602
-0.9458359560423273
-0.04566006690422388
-0.5196522795890602
-0.9458359560423273
-0.04566006690422388
-0.5196522795890602
-0.9450897034722885
-0.04521067638934834
-0.5178335052772903
-0.9450897034722885
-0.04521067638934834
-0.5178335052772903
-0.9450897034722885
-0.04521067638934834
-0.5178335052772903
-0.9450897034722885
-0.04521067638934834
-0.5178335052772903
-0.9450262711246394
-0.043065930868273206
-0.5153356198809407
-0.9450262711246394
-0.043065930868273206
-0.5153356198809407
-0.9450262711246394
-0.043065930868273206
-0.5153356198809407
-0.9450262711246394
-0.043065930868273206
-0.5153356198809407
-0.9483560175706677
-0.04059154192681355
-0.5139920008234423
-0.9483560175706677
-0.04059154192681355
-0.5139920008234423
-0.9483560175706677
-0.04059154192681355
-0.5139920008234423
-0.9483560175706677
-0.04059154192681355
-0.5139920008234423
-0.9493458431212368
-0.03768784781702323
-0.5138705378062137
-0.9493458431212368
-0.03768784781702323
-0.5138705378062137
-0.9493458431212368
-0.03768784781702323
-0.5138705378062137
-0.9493458431212368
-0.03768784781702323
-0.5138705378062137
-0.9528634908772877
-0.031609569206574026
-0.5136957734734509
-0.9528634908772877
-0.031609569206574026
-0.5136957734734509
-0.9528634908772877
-0.031609569206574026
-0.5136957734734509
-0.9528634908772877
-0.031609569206574026
-0.5136957734734509
-0.9551305776229513
-0.023437906091610675
-0.5126342595833463
-0.9551305776229513
-0.023437906091610675
-0.5126342595833463
-0.9551305776229513
-0.023437906091610675
-0.5126342595833463
-0.9551305776229513
-0.023437906091610675
-0.5126342595833463
-0.960344229073608
-0.017116405319772307
-0.5119884527254013
-0.960344229073608
-0.017116405319772307
-0.5119884527254013
-0.960344229073608
-0.017116405319772307
-0.5119884527254013
-0.960344229073608
-0.017116405319772307
-0.5119884527254013
-0.9666341801452623
-0.016800337411197935
-0.5125382095539174
-0.9666341801452623
-0.016800337411197935
-0.5125382095539174
-0.9666341801452623
-0.016800337411197935
-0.5125382095539174
-0.9666341801452623
-0.016800337411197935
-0.5125382095539174
-0.9698654076074777
-0.023747045387569492
-0.5173048252670316
-0.9698654076074777
-0.023747045387569492
-0.5173048252670316
-0.9698654076074777
-0.023747045387569492
-0.5173048252670316
-0.9698654076074777
-0.023747045387569492
-0.5173048252670316
-0.9742554764721781
-0.03091824835732567
-0.5221356194756755
-0.9742554764721781
-0.03091824835732567
-0.5221356194756755
-0.9742554764721781
-0.03091824835732567
-0.5221356194756755
-0.9742554764721781
-0.03091824835732567
-0.5221356194756755
-0.9813754120058412
-0.035469624463038356
-0.5253647447807649
-0.9813754120058412
-0.035469624463038356
-0.5253647447807649
-0.9813754120058412
-0.035469624463038356
-0.5253647447807649
-0.9813754120058412
-0.035469624463038356
-0.5253647447807649
-0.987172065142478
-0.039921704664820715
-0.5271593160753715
-0.987172065142478
-0.039921704664820715
-0.5271593160753715
-0.987172065142478
-0.039921704664820715
-0.5271593160753715
-0.987172065142478
-0.039921704664820715
-0.5271593160753715
-0.9892559351264744
-0.04487922698602229
-0.5296851451422984
-0.9892559351264744
-0.04487922698602229
-0.5296851451422984
-0.9892559351264744
-0.04487922698602229
-0.5296851451422984
-0.9892559351264744
-0.04487922698602229
-0.5296851451422984
-0.9883574282643077
-0.05120987645108618
-0.5315004020310803
-0.9883574282643077
-0.05120987645108618
-0.5315004020310803
-0.9883574282643077
-0.05120987645108618
-0.5315004020310803
-0.9883574282643077
-0.05120987645108618
-0.5315004020310803
-0.9864819798548249
-0.05778612675876334
-0.5332801740237186
-0.9864819798548249
-0.05778612675876334
-0.5332801740237186
-0.9864819798548249
-0.05778612675876334
-0.5332801740237186
-0.9864819798548249
-0.05778612675876334
-0.5332801740237186
-0.9879617734357717
-0.06454474664406626
-0.5364830212250428
-0.9879617734357717
-0.06454474664406626
-0.5364830212250428
-0.9879617734357717
-0.06454474664406626
-0.5364830212250428
-0.9879617734357717
-0.06454474664406626
-0.5364830212250428
-0.993758653058863
-0.07097378717064444
-0.5380821036324691
-0.993758653058863
-0.07097378717064444
-0.5380821036324691
-0.993758653058863
-0.07097378717064444
-0.5380821036324691
-0.993758653058863
-0.07097378717064444
-0.5380821036324691
-0.9987975482326241
-0.07667262762948282
-0.5392202843231265
-0.9987975482326241
-0.07667262762948282
-0.5392202843231265
-0.9987975482326241
-0.07667262762948282
-0.5392202843231265
-0.9987975482326241
-0.07667262762948282
-0.5392202843231265
-0.9995120204276294
-0.08135844561310805
-0.5405685811986287
-0.9995120204276294
-0.08135844561310805
-0.5405685811986287
-0.9995120204276294
-0.08135844561310805
-0.5405685811986287
-0.9995120204276294
-0.08135844561310805
-0.5405685811986287
-0.9958887123218628
-0.08630574110826553
-0.5418603014735555
-0.9958887123218628
-0.08630574110826553
-0.5418603014735555
-0.9958887123218628
-0.08630574110826553
-0.5418603014735555
-0.9958887123218628
-0.08630574110826553
-0.5418603014735555
-0.9945499161297574
-0.09174293156120408
-0.5436114227096968
-0.9945499161297574
-0.09174293156120408
-0.5436114227096968
-0.9945499161297574
-0.09174293156120408
-0.5436114227096968
-0.9945499161297574
-0.09174293156120408
-0.5436114227096968
-0.9971899162557252
-0.09693562421409281
-0.5453347909141425
-0.9971899162557252
-0.09693562421409281
-0.5453347909141425
-0.9971899162557252
-0.09693562421409281
-0.5453347909141425
-0.9971899162557252
-0.09693562421409281
-0.5453347909141425
-0.9992643069091254
-0.1013331462386383
-0.5466895989960291
-0.9992643069091254
-0.1013331462386383
-0.5466895989960291
-0.9992643069091254
-0.1013331462386383
-0.5466895989960291
-0.9992643069091254
-0.1013331462386383
-0.5466895989960291
-0.999189091602142
-0.10595446612448729
-0.5475555276692711
-0.999189091602142
-0.10595446612448729
-0.5475555276692711
-0.999189091602142
-0.10595446612448729
-0.5475555276692711
-0.999189091602142
-0.10595446612448729
-0.5475555276692711
-0.9978238170461475
-0.11213770946674995
-0.5483329312187869
-0.9978238170461475
-0.11213770946674995
-0.5483329312187869
-0.9978238170461475
-0.11213770946674995
-0.5483329312187869
-0.9978238170461475
-0.11213770946674995
-0.5483329312187869
-0.9969499769995436
-0.11814202331058496
-0.548291504635862
-0.9969499769995436
-0.11814202331058496
-0.548291504635862
-0.9969499769995436
-0.11814202331058496
-0.548291504635862
-0.9969499769995436
-0.11814202331058496
-0.548291504635862
-0.9974398557840519
-0.12368279241568508
-0.5484351350868373
-0.9974398557840519
-0.12368279241568508
-0.5484351350868373
-0.9974398557840519
-0.12368279241568508
-0.5484351350868373
-0.9974398557840519
-0.12368279241568508
-0.5484351350868373
-0.9955168132798213
-0.1287537704386432
-0.5493575975228226
-0.9955168132798213
-0.1287537704386432
-0.5493575975228226
-0.9955168132798213
-0.1287537704386432
-0.5493575975228226
-0.9955168132798213
-0.1287537704386432
-0.5493575975228226
-0.9927089807545245
-0.13378467756267487
-0.5499521658578342
-0.9927089807545245
-0.13378467756267487
-0.5499521658578342
-0.9927089807545245
-0.13378467756267487
-0.5499521658578342
-0.9927089807545245
-0.13378467756267487
-0.5499521658578342
-0.9907594744585064
-0.13887300161163751
-0.5501834930189622
-0.9907594744585064
-0.13887300161163751
-0.5501834930189622
-0.9907594744585064
-0.13887300161163751
-0.5501834930189622
-0.9907594744585064
-0.13887300161163751
-0.5501834930189622
-0.9899884867181916
-0.14344090604714496
-0.5493181943613226
-0.9899884867181916
-0.14344090604714496
-0.5493181943613226
-0.9899884867181916
-0.14344090604714496
-0.5493181943613226
-0.9899884867181916
-0.14344090604714496
-0.5493181943613226
-0.9883610572157701
-0.14693327050006136
-0.5488161828372514
-0.9883610572157701
-0.14693327050006136
-0.5488161828372514
-0.9883610572157701
-0.14693327050006136
-0.5488161828372514
-0.9883610572157701
-0.14693327050006136
-0.5488161828372514
-0.9870309503926449
-0.1499296907511801
-0.5493054645324308
-0.9870309503926449
-0.1499296907511801
-0.5493054645324308
-0.9870309503926449
-0.1499296907511801
-0.5493054645324308
-0.9870309503926449
-0.1499296907511801
-0.5493054645324308
-0.9858820132791017
-0.15265907782917773
-0.5500107553431203
-0.9858820132791017
-0.15265907782917773
-0.5500107553431203
-0.9858820132791017
-0.15265907782917773
-0.5500107553431203
-0.9858820132791017
-0.15265907782917773
-0.5500107553431203
-0.9864289983702085
-0.15465487610173828
-0.5504586523839308
-0.9864289983702085
-0.15465487610173828
-0.5504586523839308
-0.9864289983702085
-0.15465487610173828
-0.5504586523839308
-0.9864289983702085
-0.15465487610173828
-0.5504586523839308
-0.9866591767685883
-0.15600282654455203
-0.5499263676968779
-0.9866591767685883
-0.15600282654455203
-0.5499263676968779
-0.9866591767685883
-0.15600282654455203
-0.5499263676968779
-0.9866591767685883
-0.15600282654455203
-0.5499263676968779
-0.9846403328946131
-0.15700339797222868
-0.549551218506995
-0.9846403328946131
-0.15700339797222868
-0.549551218506995
-0.9846403328946131
-0.15700339797222868
-0.549551218506995
-0.9846403328946131
-0.15700339797222868
-0.549551218506995
-0.9804022595970457
-0.15768216730997167
-0.5496259767831877
-0.9804022595970457
-0.15768216730997167
-0.5496259767831877
-0.9804022595970457
-0.15768216730997167
-0.5496259767831877
-0.9804022595970457
-0.15768216730997167
-0.5496259767831877
-0.9766754209964849
-0.15868885806098795
-0.5500009780541655
-0.9766754209964849
-0.15868885806098795
-0.5500009780541655
-0.9766754209964849
-0.15868885806098795
-0.5500009780541655
-0.9766754209964849
-0.15868885806098795
-0.5500009780541655
-0.977186071098379
-0.1590692321546396
-0.5501388420129323
-0.977186071098379
-0.1590692321546396
-0.5501388420129323
-0.977186071098379
-0.1590692321546396
-0.5501388420129323
-0.977186071098379
-0.1590692321546396
-0.5501388420129323
-0.9791476543141221
-0.1593453500585696
-0.5502686300795429
-0.9791476543141221
-0.1593453500585696
-0.5502686300795429
-0.9791476543141221
-0.1593453500585696
-0.5502686300795429
-0.9791476543141221
-0.1593453500585696
-0.5502686300795429
-0.9802325717165048
-0.15927230603775608
-0.550545034196391
-0.9802325717165048
-0.15927230603775608
-0.550545034196391
-0.9802325717165048
-0.15927230603775608
-0.550545034196391
-0.9802325717165048
-0.15927230603775608
-0.550545034196391
-0.9795175604077299
-0.15918151467044248
-0.550536829375377
-0.9795175604077299
-0.15918151467044248
-0.550536829375377
-0.9795175604077299
-0.15918151467044248
-0.550536829375377
-0.9795175604077299
-0.15918151467044248
-0.550536829375377
-0.9789313556830719
-0.15880072778585594
-0.5507138936815992
-0.9789313556830719
-0.15880072778585594
-0.5507138936815992
-0.9789313556830719
-0.15880072778585594
-0.5507138936815992
-0.9789313556830719
-0.15880072778585594
-0.5507138936815992
-0.9778736850197699
-0.1583511834781935
-0.5512837241417204
-0.9778736850197699
-0.1583511834781935
-0.5512837241417204
-0.9778736850197699
-0.1583511834781935
-0.5512837241417204
-0.9778736850197699
-0.1583511834781935
-0.5512837241417204
-0.9792805179662628
-0.15853420089453082
-0.5515660523345852
-0.9792805179662628
-0.15853420089453082
-0.5515660523345852
-0.9792805179662628
-0.15853420089453082
-0.5515660523345852
-0.9792805179662628
-0.15853420089453082
-0.5515660523345852
-0.980944140272237
-0.15881675411655868
-0.5511100915201194
-0.980944140272237
-0.15881675411655868
-0.5511100915201194
-0.980944140272237
-0.15881675411655868
-0.5511100915201194
-0.980944140272237
-0.15881675411655868
-0.5511100915201194
-0.9803446627314829
-0.15937474540292768
-0.5509171742636776
-0.9803446627314829
-0.15937474540292768
-0.5509171742636776
-0.9803446627314829
-0.15937474540292768
-0.5509171742636776
-0.9803446627314829
-0.15937474540292768
-0.5509171742636776
-0.9793540421108748
-0.16006854718175784
-0.5509554935244864
-0.9793540421108748
-0.16006854718175784
-0.5509554935244864
-0.9793540421108748
-0.16006854718175784
-0.5509554935244864
-0.9793540421108748
-0.16006854718175784
-0.5509554935244864
-0.9804036205800781
-0.15984158335214185
-0.5507042396456343
-0.9804036205800781
-0.15984158335214185
-0.5507042396456343
-0.9804036205800781
-0.15984158335214185
-0.5507042396456343
-0.9804036205800781
-0.15984158335214185
-0.5507042396456343
-0.9819539364715795
-0.15937112217326102
-0.5507509948067034
-0.9819539364715795
-0.15937112217326102
-0.5507509948067034
-0.9819539364715795
-0.15937112217326102
-0.5507509948067034
-0.9819539364715795
-0.15937112217326102
-0.5507509948067034
-0.9818132149606469
-0.15882680068505525
-0.5508825512986519
-0.9818132149606469
-0.15882680068505525
-0.5508825512986519
-0.9818132149606469
-0.15882680068505525
-0.5508825512986519
-0.9818132149606469
-0.15882680068505525
-0.5508825512986519
-0.9818132149606469
-0.15882680068505525
-0.5508825512986519
-0.9818132149606469
-0.15882680068505525
-0.5508825512986519
-0.9818132149606469
-0.15882680068505525
-0.5508825512986519
-0.9818132149606469
-0.15882680068505525
-0.5508825512986519
-0.9817639773386634
-0.15898418985076956
-0.5509348444169002
-0.9817639773386634
-0.15898418985076956
-0.5509348444169002
-0.9817639773386634
-0.15898418985076956
-0.5509348444169002
-0.9817639773386634
-0.15898418985076956
-0.5509348444169002
-0.9812522995488309
-0.1586549837689346
-0.5506384295927438
-0.9812522995488309
-0.1586549837689346
-0.5506384295927438
-0.9812522995488309
-0.1586549837689346
-0.5506384295927438
-0.9812522995488309
-0.1586549837689346
-0.5506384295927438
-0.9806924033890224
-0.15811805364277357
-0.5510285286074874
-0.9806924033890224
-0.15811805364277357
-0.5510285286074874
-0.9806924033890224
-0.15811805364277357
-0.5510285286074874
-0.9806924033890224
-0.15811805364277357
-0.5510285286074874
-0.9805026756326558
-0.1577309798521639
-0.5512119855746226
-0.9805026756326558
-0.1577309798521639
-0.5512119855746226
-0.9805026756326558
-0.1577309798521639
-0.5512119855746226
-0.9805026756326558
-0.1577309798521639
-0.5512119855746226
-0.981558276956732
-0.1575819363489209
-0.551358319500731
-0.981558276956732
-0.1575819363489209
-0.551358319500731
-0.981558276956732
-0.1575819363489209
-0.551358319500731
-0.981558276956732
-0.1575819363489209
-0.551358319500731
-0.9813938372410493
-0.15709041212691266
-0.551595409259857
-0.9813938372410493
-0.15709041212691266
-0.551595409259857
-0.9813938372410493
-0.15709041212691266
-0.551595409259857
-0.9813938372410493
-0.15709041212691266
-0.551595409259857
-0.9795642856483233
-0.1564193189831501
-0.5519678632624235
-0.9795642856483233
-0.1564193189831501
-0.5519678632624235
-0.9795642856483233
-0.1564193189831501
-0.5519678632624235
-0.9795642856483233
-0.1564193189831501
-0.5519678632624235
-0.9786670131026493
-0.1560180784564434
-0.5525376828094637
-0.9786670131026493
-0.1560180784564434
-0.5525376828094637
-0.9786670131026493
-0.1560180784564434
-0.5525376828094637
-0.9786670131026493
-0.1560180784564434
-0.5525376828094637
-0.9785358554943303
-0.15609764785327523
-0.5525082674952801
-0.9785358554943303
-0.15609764785327523
-0.5525082674952801
-0.9785358554943303
-0.15609764785327523
-0.5525082674952801
-0.9785358554943303
-0.15609764785327523
-0.5525082674952801
-0.9782042062180378
-0.15631124042099453
-0.5530855347471082
-0.9782042062180378
-0.15631124042099453
-0.5530855347471082
-0.9782042062180378
-0.15631124042099453
-0.5530855347471082
-0.9782042062180378
-0.15631124042099453
-0.5530855347471082
-0.9785013040705871
-0.15635774399566793
-0.5535124923830297
-0.9785013040705871
-0.15635774399566793
-0.5535124923830297
-0.9785013040705871
-0.15635774399566793
-0.5535124923830297
-0.9785013040705871
-0.15635774399566793
-0.5535124923830297
-0.9791929241622968
-0.1561883669062754
-0.5541022767547181
-0.9791929241622968
-0.1561883669062754
-0.5541022767547181
-0.9791929241622968
-0.1561883669062754
-0.5541022767547181
-0.9791929241622968
-0.1561883669062754
-0.5541022767547181
-0.9789599755747682
-0.1560873623064703
-0.5545745800831211
-0.9789599755747682
-0.1560873623064703
-0.5545745800831211
-0.9789599755747682
-0.1560873623064703
-0.5545745800831211
-0.9789599755747682
-0.1560873623064703
-0.5545745800831211
-0.9791512696644292
-0.15610912872857746
-0.5550255854892856
-0.9791512696644292
-0.15610912872857746
-0.5550255854892856
-0.9791512696644292
-0.15610912872857746
-0.5550255854892856
-0.9791512696644292
-0.15610912872857746
-0.5550255854892856
-0.9791017854450902
-0.15626638641566262
-0.5550780099020726
-0.9791017854450902
-0.15626638641566262
-0.5550780099020726
-0.9791017854450902
-0.15626638641566262
-0.5550780099020726
-0.9791017854450902
-0.15626638641566262
-0.5550780099020726
-0.9804828998864297
-0.15655674525821806
-0.5553081693699486
-0.9804828998864297
-0.15655674525821806
-0.5553081693699486
-0.9804828998864297
-0.15655674525821806
-0.5553081693699486
-0.9804828998864297
-0.15655674525821806
-0.5553081693699486
-0.9817836173634448
-0.15671786562479556
-0.5556155730873563
-0.9817836173634448
-0.15671786562479556
-0.5556155730873563
-0.9817836173634448
-0.15671786562479556
-0.5556155730873563
-0.9817836173634448
-0.15671786562479556
-0.5556155730873563
-0.9821340631502977
-0.15678934489452565
-0.5560677991837246
-0.9821340631502977
-0.15678934489452565
-0.5560677991837246
-0.9821340631502977
-0.15678934489452565
-0.5560677991837246
-0.9821340631502977
-0.15678934489452565
-0.5560677991837246
-0.9826359004600331
-0.15654763614128936
-0.5563660919517024
-0.9826359004600331
-0.15654763614128936
-0.5563660919517024
-0.9826359004600331
-0.15654763614128936
-0.5563660919517024
-0.9826359004600331
-0.15654763614128936
-0.5563660919517024
-0.9826117431838448
-0.15660053097608723
-0.556471797459306
-0.9826117431838448
-0.15660053097608723
-0.556471797459306
-0.9826117431838448
-0.15660053097608723
-0.556471797459306
-0.9826117431838448
-0.15660053097608723
-0.556471797459306
-0.9829850911907205
-0.15693248524003242
-0.5563430554967277
-0.9829850911907205
-0.15693248524003242
-0.5563430554967277
-0.9829850911907205
-0.15693248524003242
-0.5563430554967277
-0.9829850911907205
-0.15693248524003242
-0.5563430554967277
-0.9836892708991176
-0.15676576547109314
-0.5558784110531985
-0.9836892708991176
-0.15676576547109314
-0.5558784110531985
-0.9836892708991176
-0.15676576547109314
-0.5558784110531985
-0.9836892708991176
-0.15676576547109314
-0.5558784110531985
-0.9831261135783211
-0.15669530345580293
-0.555315253732402
-0.9831261135783211
-0.15669530345580293
-0.555315253732402
-0.9831261135783211
-0.15669530345580293
-0.555315253732402
-0.9831261135783211
-0.15669530345580293
-0.555315253732402
-0.9821410887056753
-0.15639923741055398
-0.555092180171469
-0.9821410887056753
-0.15639923741055398
-0.555092180171469
-0.9821410887056753
-0.15639923741055398
-0.555092180171469
-0.9821410887056753
-0.15639923741055398
-0.555092180171469
-0.9816378027702477
-0.15609523858175436
-0.5553505571342345
-0.9816378027702477
-0.15609523858175436
-0.5553505571342345
-0.9816378027702477
-0.15609523858175436
-0.5553505571342345
-0.9816378027702477
-0.15609523858175436
-0.5553505571342345
-0.9879957953382068
-0.15581015380659533
-0.5552531792158908
-0.9879957953382068
-0.15581015380659533
-0.5552531792158908
-0.9879957953382068
-0.15581015380659533
-0.5552531792158908
-0.9879957953382068
-0.15581015380659533
-0.5552531792158908
-1.0009627791178097
-0.15404988213166668
-0.5538390327424876
-1.0009627791178097
-0.15404988213166668
-0.5538390327424876
-1.0009627791178097
-0.15404988213166668
-0.5538390327424876
-1.0009627791178097
-0.15404988213166668
-0.5538390327424876
-1.0150244749334552
-0.15107134429546196
-0.550219216548417
-1.0150244749334552
-0.15107134429546196
-0.550219216548417
-1.0150244749334552
-0.15107134429546196
-0.550219216548417
-1.0150244749334552
-0.15107134429546196
-0.550219216548417
-1.0187649827906564
-0.14808584954270212
-0.5474384670209601
-1.0187649827906564
-0.14808584954270212
-0.5474384670209601
-1.0187649827906564
-0.14808584954270212
-0.5474384670209601
-1.0187649827906564
-0.14808584954270212
-0.5474384670209601
-1.0084656174041087
-0.14463464730698505
-0.5443349879826003
-1.0084656174041087
-0.14463464730698505
-0.5443349879826003
-1.0084656174041087
-0.14463464730698505
-0.5443349879826003
-1.0084656174041087
-0.14463464730698505
-0.5443349879826003
-0.9887143205031781
-0.14221835496205448
-0.542415249299309
-0.9887143205031781
-0.14221835496205448
-0.542415249299309
-0.9887143205031781
-0.14221835496205448
-0.542415249299309
-0.9887143205031781
-0.14221835496205448
-0.542415249299309
-0.9633511586600029
-0.14176041735031059
-0.543602673870363
-0.9633511586600029
-0.14176041735031059
-0.543602673870363
-0.9633511586600029
-0.14176041735031059
-0.543602673870363
-0.9633511586600029
-0.14176041735031059
-0.543602673870363
-0.9432445231503057
-0.13892444939251855
-0.545822572644808
-0.9432445231503057
-0.13892444939251855
-0.545822572644808
-0.9432445231503057
-0.13892444939251855
-0.545822572644808
-0.9432445231503057
-0.13892444939251855
-0.545822572644808
-0.9292970318909116
-0.13263612253252097
-0.5461478824440227
-0.9292970318909116
-0.13263612253252097
-0.5461478824440227
-0.9292970318909116
-0.13263612253252097
-0.5461478824440227
-0.9292970318909116
-0.13263612253252097
-0.5461478824440227
-0.9182403440992587
-0.1235722432972745
-0.5455662766807338
-0.9182403440992587
-0.1235722432972745
-0.5455662766807338
-0.9182403440992587
-0.1235722432972745
-0.5455662766807338
-0.9182403440992587
-0.1235722432972745
-0.5455662766807338
-0.9163681344251982
-0.11468513657471252
-0.5443972580142951
-0.9163681344251982
-0.11468513657471252
-0.5443972580142951
-0.9163681344251982
-0.11468513657471252
-0.5443972580142951
-0.9163681344251982
-0.11468513657471252
-0.5443972580142951
-0.922168755354842
-0.1068542533695052
-0.5426507015562391
-0.922168755354842
-0.1068542533695052
-0.5426507015562391
-0.922168755354842
-0.1068542533695052
-0.5426507015562391
-0.922168755354842
-0.1068542533695052
-0.5426507015562391
-0.9188734654092323
-0.1023444621550227
-0.540706940703011
-0.9188734654092323
-0.1023444621550227
-0.540706940703011
-0.9188734654092323
-0.1023444621550227
-0.540706940703011
-0.9188734654092323
-0.1023444621550227
-0.540706940703011
-0.910378752340575
-0.09964920710862674
-0.5395801237188065
-0.910378752340575
-0.09964920710862674
-0.5395801237188065
-0.910378752340575
-0.09964920710862674
-0.5395801237188065
-0.910378752340575
-0.09964920710862674
-0.5395801237188065
-0.9068655865070657
-0.09662910901477502
-0.5381418779679427
-0.9068655865070657
-0.09662910901477502
-0.5381418779679427
-0.9068655865070657
-0.09662910901477502
-0.5381418779679427
-0.9068655865070657
-0.09662910901477502
-0.5381418779679427
-0.9062120880523155
-0.09327336294434628
-0.5368627134670522
-0.9062120880523155
-0.09327336294434628
-0.5368627134670522
-0.9062120880523155
-0.09327336294434628
-0.5368627134670522
-0.9062120880523155
-0.09327336294434628
-0.5368627134670522
-0.9055210923811481
-0.09019398283365807
-0.5358786182852358
-0.9055210923811481
-0.09019398283365807
-0.5358786182852358
-0.9055210923811481
-0.09019398283365807
-0.5358786182852358
-0.9055210923811481
-0.09019398283365807
-0.5358786182852358
-0.9071483408165817
-0.08802901490591918
-0.5356201479061126
-0.9071483408165817
-0.08802901490591918
-0.5356201479061126
-0.9071483408165817
-0.08802901490591918
-0.5356201479061126
-0.9071483408165817
-0.08802901490591918
-0.5356201479061126
-0.9070951618289339
-0.08687911787335342
-0.5350260668241993
-0.9070951618289339
-0.08687911787335342
-0.5350260668241993
-0.9070951618289339
-0.08687911787335342
-0.5350260668241993
-0.9070951618289339
-0.08687911787335342
-0.5350260668241993
-0.9052936874929908
-0.08627410586906872
-0.5334681853750624
-0.9052936874929908
-0.08627410586906872
-0.5334681853750624
-0.9052936874929908
-0.08627410586906872
-0.5334681853750624
-0.9052936874929908
-0.08627410586906872
-0.5334681853750624
-0.9030247178362469
-0.0857114707866275
-0.5319680872909698
-0.9030247178362469
-0.0857114707866275
-0.5319680872909698
-0.9030247178362469
-0.0857114707866275
-0.5319680872909698
-0.9030247178362469
-0.0857114707866275
-0.5319680872909698
-0.9046974416107487
-0.0858242116743802
-0.5306371951356391
-0.9046974416107487
-0.0858242116743802
-0.5306371951356391
-0.9046974416107487
-0.0858242116743802
-0.5306371951356391
-0.9046974416107487
-0.0858242116743802
-0.5306371951356391
-0.9059568191714917
-0.08610673186498304
-0.5298960578555099
-0.9059568191714917
-0.08610673186498304
-0.5298960578555099
-0.9059568191714917
-0.08610673186498304
-0.5298960578555099
-0.9059568191714917
-0.08610673186498304
-0.5298960578555099
-0.9055492653490007
-0.08651052441616153
-0.5289927429537719
-0.9055492653490007
-0.08651052441616153
-0.5289927429537719
-0.9055492653490007
-0.08651052441616153
-0.5289927429537719
-0.9055492653490007
-0.08651052441616153
-0.5289927429537719
-0.9035276281663661
-0.08618673110532292
-0.5280940548143184
-0.9035276281663661
-0.08618673110532292
-0.5280940548143184
-0.9035276281663661
-0.08618673110532292
-0.5280940548143184
-0.9035276281663661
-0.08618673110532292
-0.5280940548143184
-0.9029301530834375
-0.08602603912478579
-0.5272695379378979
-0.9029301530834375
-0.08602603912478579
-0.5272695379378979
-0.9029301530834375
-0.08602603912478579
-0.5272695379378979
-0.9029301530834375
-0.08602603912478579
-0.5272695379378979
-0.9041504129250557
-0.08545232822445574
-0.5262564917204564
-0.9041504129250557
-0.08545232822445574
-0.5262564917204564
-0.9041504129250557
-0.08545232822445574
-0.5262564917204564
-0.9041504129250557
-0.08545232822445574
-0.5262564917204564
-0.9049332621543699
-0.08492503162882185
-0.5258579279935499
-0.9049332621543699
-0.08492503162882185
-0.5258579279935499
-0.9049332621543699
-0.08492503162882185
-0.5258579279935499
-0.9049332621543699
-0.08492503162882185
-0.5258579279935499
-0.9058421539147132
-0.08398311679034777
-0.5251333708664421
-0.9058421539147132
-0.08398311679034777
-0.5251333708664421
-0.9058421539147132
-0.08398311679034777
-0.5251333708664421
-0.9058421539147132
-0.08398311679034777
-0.5251333708664421
-0.9046052429140824
-0.0828578676615548
-0.5241376249941007
-0.9046052429140824
-0.0828578676615548
-0.5241376249941007
-0.9046052429140824
-0.0828578676615548
-0.5241376249941007
-0.9046052429140824
-0.0828578676615548
-0.5241376249941007
-0.9038859319865671
-0.08186920626903524
-0.5233849231141751
-0.9038859319865671
-0.08186920626903524
-0.5233849231141751
-0.9038859319865671
-0.08186920626903524
-0.5233849231141751
-0.9038859319865671
-0.08186920626903524
-0.5233849231141751
-0.902889691908054
-0.08064552059687412
-0.5226294260831758
-0.902889691908054
-0.08064552059687412
-0.5226294260831758
-0.902889691908054
-0.08064552059687412
-0.5226294260831758
-0.902889691908054
-0.08064552059687412
-0.5226294260831758
-0.9015381005907944
-0.07921290203834987
-0.5222149624853616
-0.9015381005907944
-0.07921290203834987
-0.5222149624853616
-0.9015381005907944
-0.07921290203834987
-0.5222149624853616
-0.9015381005907944
-0.07921290203834987
-0.5222149624853616
-0.9008333195975017
-0.07772321692739634
-0.5215720444439118
-0.9008333195975017
-0.07772321692739634
-0.5215720444439118
-0.9008333195975017
-0.07772321692739634
-0.5215720444439118
-0.9008333195975017
-0.07772321692739634
-0.5215720444439118
-0.9000797303415716
-0.07616899592836983
-0.5211296662404732
-0.9000797303415716
-0.07616899592836983
-0.5211296662404732
-0.9000797303415716
-0.07616899592836983
-0.5211296662404732
-0.9000797303415716
-0.07616899592836983
-0.5211296662404732
-0.8992724928459271
-0.07476555481815964
-0.52100704298667
-0.8992724928459271
-0.07476555481815964
-0.52100704298667
-0.8992724928459271
-0.07476555481815964
-0.52100704298667
-0.8992724928459271
-0.07476555481815964
-0.52100704298667
-0.8993284202088632
-0.0733098596961664
-0.5208508826466645
-0.8993284202088632
-0.0733098596961664
-0.5208508826466645
-0.8993284202088632
-0.0733098596961664
-0.5208508826466645
-0.8993284202088632
-0.0733098596961664
-0.5208508826466645
-0.8996757625760075
-0.0722708918831309
-0.5205176739752175
-0.8996757625760075
-0.0722708918831309
-0.5205176739752175
-0.8996757625760075
-0.0722708918831309
-0.5205176739752175
-0.8996757625760075
-0.0722708918831309
-0.5205176739752175
-0.8986641107087996
-0.07121161865309315
-0.5203666429707102
-0.8986641107087996
-0.07121161865309315
-0.5203666429707102
-0.8986641107087996
-0.07121161865309315
-0.5203666429707102
-0.8986641107087996
-0.07121161865309315
-0.5203666429707102
-0.8984623603114484
-0.07031313050332319
-0.5200828348504912
-0.8984623603114484
-0.07031313050332319
-0.5200828348504912
-0.8984623603114484
-0.07031313050332319
-0.5200828348504912
-0.8984623603114484
-0.07031313050332319
-0.5200828348504912
-0.9006309138577894
-0.06941941927782906
-0.5198609812306185
-0.9006309138577894
-0.06941941927782906
-0.5198609812306185
-0.9006309138577894
-0.06941941927782906
-0.5198609812306185
-0.9006309138577894
-0.06941941927782906
-0.5198609812306185
-0.9019966288301677
-0.06899218154204725
-0.5196357228579549
-0.9019966288301677
-0.06899218154204725
-0.5196357228579549
-0.9019966288301677
-0.06899218154204725
-0.5196357228579549
-0.9019966288301677
-0.06899218154204725
-0.5196357228579549
-0.901286316304899
-0.06863980713210843
-0.5184767458354046
-0.901286316304899
-0.06863980713210843
-0.5184767458354046
-0.901286316304899
-0.06863980713210843
-0.5184767458354046
-0.901286316304899
-0.06863980713210843
-0.5184767458354046
-0.9007088265729155
-0.06758666626720448
-0.5172229044262707
-0.9007088265729155
-0.06758666626720448
-0.5172229044262707
-0.9007088265729155
-0.06758666626720448
-0.5172229044262707
-0.9007088265729155
-0.06758666626720448
-0.5172229044262707
-0.9018348597912035
-0.0677710209440892
-0.5175319840353042
-0.9018348597912035
-0.0677710209440892
-0.5175319840353042
-0.9018348597912035
-0.0677710209440892
-0.5175319840353042
-0.9018348597912035
-0.0677710209440892
-0.5175319840353042
-0.903479999509065
-0.06825893677415897
-0.5184357055858938
-0.903479999509065
-0.06825893677415897
-0.5184357055858938
-0.903479999509065
-0.06825893677415897
-0.5184357055858938
-0.903479999509065
-0.06825893677415897
-0.5184357055858938
-0.9056218443724269
-0.06854338484895522
-0.5180736546855974
-0.9056218443724269
-0.06854338484895522
-0.5180736546855974
-0.9056218443724269
-0.06854338484895522
-0.5180736546855974
-0.9056218443724269
-0.06854338484895522
-0.5180736546855974
-0.9061288494669899
-0.06811269625552673
-0.5166197350686438
-0.9061288494669899
-0.06811269625552673
-0.5166197350686438
-0.9061288494669899
-0.06811269625552673
-0.5166197350686438
-0.9061288494669899
-0.06811269625552673
-0.5166197350686438
-0.9068262760475941
-0.06700157309453411
-0.5148357542917905
-0.9068262760475941
-0.06700157309453411
-0.5148357542917905
-0.9068262760475941
-0.06700157309453411
-0.5148357542917905
-0.9068262760475941
-0.06700157309453411
-0.5148357542917905
-0.9055298430473129
-0.06547926479921932
-0.513338986861822
-0.9055298430473129
-0.06547926479921932
-0.513338986861822
-0.9055298430473129
-0.06547926479921932
-0.513338986861822
-0.9055298430473129
-0.06547926479921932
-0.513338986861822
-0.9052787578571451
-0.06394087265714347
-0.5143228906040703
-0.9052787578571451
-0.06394087265714347
-0.5143228906040703
-0.9052787578571451
-0.06394087265714347
-0.5143228906040703
-0.9052787578571451
-0.06394087265714347
-0.5143228906040703
-0.9091095585466611
-0.05963553000789416
-0.5164909020110348
-0.9091095585466611
-0.05963553000789416
-0.5164909020110348
-0.9091095585466611
-0.05963553000789416
-0.5164909020110348
-0.9091095585466611
-0.05963553000789416
-0.5164909020110348
-0.9183570112375813
-0.051118835064917614
-0.5167827574782874
-0.9183570112375813
-0.051118835064917614
-0.5167827574782874
-0.9183570112375813
-0.051118835064917614
-0.5167827574782874
-0.9183570112375813
-0.051118835064917614
-0.5167827574782874
-0.9286740701820327
-0.04248758145860644
-0.5160717165323403
-0.9286740701820327
-0.04248758145860644
-0.5160717165323403
-0.9286740701820327
-0.04248758145860644
-0.5160717165323403
-0.9286740701820327
-0.04248758145860644
-0.5160717165323403
-0.9409593757711974
-0.03827960077055721
-0.5164341188495696
-0.9409593757711974
-0.03827960077055721
-0.5164341188495696
-0.9409593757711974
-0.03827960077055721
-0.5164341188495696
-0.9409593757711974
-0.03827960077055721
-0.5164341188495696
-0.9465725203091558
-0.03929676069576211
-0.5192712871613163
-0.9465725203091558
-0.03929676069576211
-0.5192712871613163
-0.9465725203091558
-0.03929676069576211
-0.5192712871613163
-0.9465725203091558
-0.03929676069576211
-0.5192712871613163
-0.9529912654303283
-0.04218309049291481
-0.5219712497680336
-0.9529912654303283
-0.04218309049291481
-0.5219712497680336
-0.9529912654303283
-0.04218309049291481
-0.5219712497680336
-0.9529912654303283
-0.04218309049291481
-0.5219712497680336
-0.9588128449544359
-0.047704950519091384
-0.524839920418324
-0.9588128449544359
-0.047704950519091384
-0.524839920418324
-0.9588128449544359
-0.047704950519091384
-0.524839920418324
-0.9588128449544359
-0.047704950519091384
-0.524839920418324
-0.9633267309457914
-0.05210492278544394
-0.5256488534805828
-0.9633267309457914
-0.05210492278544394
-0.5256488534805828
-0.9633267309457914
-0.05210492278544394
-0.5256488534805828
-0.9633267309457914
-0.05210492278544394
-0.5256488534805828
-0.9631315068137919
-0.055471931744467365
-0.5267336182662686
-0.9631315068137919
-0.055471931744467365
-0.5267336182662686
-0.9631315068137919
-0.055471931744467365
-0.5267336182662686
-0.9631315068137919
-0.055471931744467365
-0.5267336182662686
-0.9566355661111101
-0.06031668112214144
-0.5283804501372502
-0.9566355661111101
-0.06031668112214144
-0.5283804501372502
-0.9566355661111101
-0.06031668112214144
-0.5283804501372502
-0.9566355661111101
-0.06031668112214144
-0.5283804501372502
-0.9516020721796735
-0.06653046224879197
-0.5308184374649164
-0.9516020721796735
-0.06653046224879197
-0.5308184374649164
-0.9516020721796735
-0.06653046224879197
-0.5308184374649164
-0.9516020721796735
-0.06653046224879197
-0.5308184374649164
-0.9570605747649629
-0.0738573315170377
-0.5334121469354941
-0.9570605747649629
-0.0738573315170377
-0.5334121469354941
-0.9570605747649629
-0.0738573315170377
-0.5334121469354941
-0.9570605747649629
-0.0738573315170377
-0.5334121469354941
-0.972188451269742
-0.08293926034465604
-0.5354727079878956
-0.972188451269742
-0.08293926034465604
-0.5354727079878956
-0.972188451269742
-0.08293926034465604
-0.5354727079878956
-0.972188451269742
-0.08293926034465604
-0.5354727079878956
-0.9833305891321097
-0.09169598718184614
-0.5373935575027939
-0.9833305891321097
-0.09169598718184614
-0.5373935575027939
-0.9833305891321097
-0.09169598718184614
-0.5373935575027939
-0.9833305891321097
-0.09169598718184614
-0.5373935575027939
-0.9801654824500515
-0.0990958646604492
-0.5401494131857905
-0.9801654824500515
-0.0990958646604492
-0.5401494131857905
-0.9801654824500515
-0.0990958646604492
-0.5401494131857905
-0.9801654824500515
-0.0990958646604492
-0.5401494131857905
-0.9715005105373866
-0.10614408623909877
-0.5429842376986155
-0.9715005105373866
-0.10614408623909877
-0.5429842376986155
-0.9715005105373866
-0.10614408623909877
-0.5429842376986155
-0.9715005105373866
-0.10614408623909877
-0.5429842376986155
-0.9677022383989736
-0.11363310030190454
-0.5455789530640777
-0.9677022383989736
-0.11363310030190454
-0.5455789530640777
-0.9677022383989736
-0.11363310030190454
-0.5455789530640777
-0.9677022383989736
-0.11363310030190454
-0.5455789530640777
-0.9724575584642161
-0.12097163359038095
-0.5480251730138131
-0.9724575584642161
-0.12097163359038095
-0.5480251730138131
-0.9724575584642161
-0.12097163359038095
-0.5480251730138131
-0.9724575584642161
-0.12097163359038095
-0.5480251730138131
-0.9792741552201396
-0.12734288683015274
-0.5508641429504
-0.9792741552201396
-0.12734288683015274
-0.5508641429504
-0.9792741552201396
-0.12734288683015274
-0.5508641429504
-0.9792741552201396
-0.12734288683015274
-0.5508641429504
-0.9862283591223742
-0.13271615850029847
-0.5530125609655951
-0.9862283591223742
-0.13271615850029847
-0.5530125609655951
-0.9862283591223742
-0.13271615850029847
-0.5530125609655951
-0.9862283591223742
-0.13271615850029847
-0.5530125609655951
-0.9871994107808162
-0.1380662732444031
-0.5543812370186474
-0.9871994107808162
-0.1380662732444031
-0.5543812370186474
-0.9871994107808162
-0.1380662732444031
-0.5543812370186474
-0.9871994107808162
-0.1380662732444031
-0.5543812370186474
-0.9841766891102034
-0.14235986145623167
-0.5551147304869973
-0.9841766891102034
-0.14235986145623167
-0.5551147304869973
-0.9841766891102034
-0.14235986145623167
-0.5551147304869973
-0.9841766891102034
-0.14235986145623167
-0.5551147304869973
-0.9794139796569967
-0.1453001939515052
-0.5559642564127828
-0.9794139796569967
-0.1453001939515052
-0.5559642564127828
-0.9794139796569967
-0.1453001939515052
-0.5559642564127828
-0.9794139796569967
-0.1453001939515052
-0.5559642564127828
-0.9775788401145118
-0.14751505101391232
-0.5561399131069769
-0.9775788401145118
-0.14751505101391232
-0.5561399131069769
-0.9775788401145118
-0.14751505101391232
-0.5561399131069769
-0.9775788401145118
-0.14751505101391232
-0.5561399131069769
-0.9772096888194353
-0.14895298636694818
-0.5563718890288768
-0.9772096888194353
-0.14895298636694818
-0.5563718890288768
-0.9772096888194353
-0.14895298636694818
-0.5563718890288768
-0.9772096888194353
-0.14895298636694818
-0.5563718890288768
-0.9773569119320117
-0.15007046902853777
-0.5562426413567126
-0.9773569119320117
-0.15007046902853777
-0.5562426413567126
-0.9773569119320117
-0.15007046902853777
-0.5562426413567126
-0.9773569119320117
-0.15007046902853777
-0.5562426413567126
-0.976916362208809
-0.1506243630712016
-0.5562093274349227
-0.976916362208809
-0.1506243630712016
-0.5562093274349227
-0.976916362208809
-0.1506243630712016
-0.5562093274349227
-0.976916362208809
-0.1506243630712016
-0.5562093274349227
-0.9761251401631261
-0.15084533321548363
-0.5560379822901659
-0.9761251401631261
-0.15084533321548363
-0.5560379822901659
-0.9761251401631261
-0.15084533321548363
-0.5560379822901659
-0.9761251401631261
-0.15084533321548363
-0.5560379822901659
-0.9742689445403622
-0.15064109357994196
-0.5557167208814582
-0.9742689445403622
-0.15064109357994196
-0.5557167208814582
-0.9742689445403622
-0.15064109357994196
-0.5557167208814582
-0.9742689445403622
-0.15064109357994196
-0.5557167208814582
-0.9720717869300721
-0.1501287742284672
-0.55581128930261
-0.9720717869300721
-0.1501287742284672
-0.55581128930261
-0.9720717869300721
-0.1501287742284672
-0.55581128930261
-0.9720717869300721
-0.1501287742284672
-0.55581128930261
-0.9716480926698667
-0.15000575954097148
-0.5558308020018483
-0.9716480926698667
-0.15000575954097148
-0.5558308020018483
-0.9716480926698667
-0.15000575954097148
-0.5558308020018483
-0.9716480926698667
-0.15000575954097148
-0.5558308020018483
-0.9720838303502461
-0.14981971198361282
-0.5552305831915478
-0.9720838303502461
-0.14981971198361282
-0.5552305831915478
-0.9720838303502461
-0.14981971198361282
-0.5552305831915478
-0.9720838303502461
-0.14981971198361282
-0.5552305831915478
-0.9715976678678473
-0.14938604854670018
-0.554983381931587
-0.9715976678678473
-0.14938604854670018
-0.554983381931587
-0.9715976678678473
-0.14938604854670018
-0.554983381931587
-0.9715976678678473
-0.14938604854670018
-0.554983381931587
-0.9682865218177319
-0.14860699335154598
-0.5549764522225303
-0.9682865218177319
-0.14860699335154598
-0.5549764522225303
-0.9682865218177319
-0.14860699335154598
-0.5549764522225303
-0.9682865218177319
-0.14860699335154598
-0.5549764522225303
-0.9668485220682307
-0.14813559324976028
-0.5547093771695959
-0.9668485220682307
-0.14813559324976028
-0.5547093771695959
-0.9668485220682307
-0.14813559324976028
-0.5547093771695959
-0.9668485220682307
-0.14813559324976028
-0.5547093771695959
-0.9679100497137414
-0.14755186505177204
-0.5540407830346366
-0.9679100497137414
-0.14755186505177204
-0.5540407830346366
-0.9679100497137414
-0.14755186505177204
-0.5540407830346366
-0.9679100497137414
-0.14755186505177204
-0.5540407830346366
-0.9678609158446208
-0.14770896100982706
-0.55409385290339
-0.9678609158446208
