3
2
7
3
5
1
1
0
2
1
5
2
3
1
1
1
1
1
5
3
4
3
1
1
1
1
5
3
3
2
1
1
1
1
4
2
3
2
1
1
1
1
4
2
3
2
1
1
1
1
4
2
3
2
1
2
1
1
4
2
3
2
1
2
1
1
4
2
3
2
1
2
1
1
6
2
3
2
1
1
1
1
7
2
3
2
1
1
1
1
7
2
2
2
1
1
1
1
7
3
2
2
1
1
1
1
7
4
2
2
1
1
1
1
6
4
2
2
1
1
1
1
6
4
2
2
1
1
1
1
6
4
2
2
1
1
1
1
6
3
2
2
1
1
1
1
6
3
2
2
1
1
1
1
6
3
2
2
1
1
1
1
6
3
2
2
1
1
1
1
6
3
2
2
1
1
1
1
6
3
2
2
1
1
1
1
5
3
2
2
1
1
1
1
6
3
2
2
1
1
1
1
5
3
2
2
1
1
1
1
6
3
2
2
1
1
1
1
6
3
2
2
1
1
1
1
7
3
2
2
1
1
1
1
7
3
2
2
1
1
1
1
7
3
2
2
1
1
1
1
7
3
2
2
1
1
1
1
7
3
2
2
1
1
1
1
7
3
2
2
1
1
1
1
7
3
2
2
1
1
1
1
6
3
2
2
1
1
1
1
6
3
2
2
1
1
1
1
6
3
2
2
1
1
1
1
6
3
2
2
1
1
1
1
6
3
2
2
1
1
1
1
6
3
2
2
1
1
1
1
6
3
2
2
1
1
1
1
6
3
2
2
1
1
1
2
6
3
2
2
1
1
1
1
6
3
2
2
1
1
1
1
6
3
2
2
1
1
1
1
6
3
2
2
1
1
1
1
6
3
2
2
1
1
1
1
6
3
2
2
1
1
1
1
6
3
2
2
1
1
1
1
6
3
2
2
1
1
1
1
6
3
2
2
1
1
1
1
6
3
2
2
1
1
1
1
6
3
2
2
1
1
1
1
6
3
2
2
1
1
1
1
7
3
2
2
1
1
1
2
7
3
3
2
1
1
1
2
7
3
3
2
1
1
1
2
7
3
3
2
1
1
1
2
7
3
3
2
1
1
1
2
7
3
3
2
1
1
1
2
7
3
3
2
1
1
1
2
7
3
3
2
1
1
1
2
7
3
3
2
1
1
1
2
7
3
3
2
1
1
1
2
7
3
3
2
1
1
1
2
7
3
3
2
1
1
1
2
7
3
3
2
1
1
1
2
7
3
3
2
1
1
1
2
7
3
3
2
1
1
1
2
7
3
3
2
1
1
2
2
7
3
3
2
1
1
2
2
8
3
3
2
1
1
2
2
8
3
3
2
1
1
2
2
8
3
3
2
1
1
2
2
9
3
3
2
1
2
2
2
9
3
3
2
1
2
2
2
9
3
3
2
1
2
2
2
8
3
3
2
1
2
2
2
8
3
3
2
1
3
3
3
8
3
3
2
1
3
3
3
8
3
3
2
1
3
3
3
8
3
3
2
1
5
3
3
9
3
3
2
1
9
3
3
11
3
3
2
1
9
3
3
11
3
3
2
1
9
4
4
12
3
3
2
1
9
4
4
12
3
3
2
1
9
4
4
12
3
3
2
1
9
4
4
13
3
3
2
1
10
4
4
12
3
3
2
1
10
4
4
12
3
3
2
1
10
4
4
13
3
3
2
1
10
4
4
13
3
3
2
1
10
4
4
13
4
3
2
1
10
4
4
14
4
3
2
1
10
4
4
15
4
3
2
1
10
4
4
15
4
3
2
1
10
4
4
14
4
3
2
1
10
5
4
15
4
3
2
1
10
5
4
15
5
3
2
1
10
5
4
16
5
3
2
1
10
5
4
16
5
3
2
1
10
6
4
16
5
3
2
1
10
7
5
16
5
3
2
1
10
7
5
16
5
3
2
1
11
7
5
16
5
3
2
1
12
7
5
16
5
3
2
1
13
8
5
16
6
3
2
1
13
8
5
17
6
3
2
1
13
8
5
17
6
3
2
1
14
8
5
17
6
3
2
1
14
8
5
17
6
3
2
1
14
8
5
17
6
3
2
1
14
8
6
18
6
3
2
1
14
9
6
18
6
3
2
1
14
11
7
18
6
3
2
1
14
11
7
18
6
3
2
1
14
11
7
18
6
3
2
1
14
11
7
18
6
3
2
1
14
12
7
18
8
3
2
2
14
15
7
18
8
3
2
2
14
15
7
18
8
3
2
2
14
15
7
18
8
3
2
2
14
15
7
18
8
3
2
2
14
15
8
18
8
3
2
2
14
15
8
18
8
3
2
2
14
15
7
18
8
3
2
2
14
15
11
19
8
3
2
2
14
16
14
22
9
4
3
2
14
15
14
22
9
4
3
2
14
17
14
22
9
4
3
2
15
17
14
23
9
4
3
2
15
17
14
23
9
4
2
2
13
18
14
22
9
4
2
2
12
18
14
22
9
4
2
2
12
18
15
23
9
4
3
2
13
18
15
23
9
4
3
2
13
18
15
23
9
4
3
2
13
18
15
23
9
4
3
2
12
19
15
25
9
4
3
2
12
19
16
26
9
4
3
2
12
19
16
26
9
4
3
2
12
19
17
26
10
4
3
2
12
20
17
27
10
4
3
2
12
20
17
28
10
4
3
2
12
20
17
30
10
4
3
2
12
21
17
30
11
4
3
2
12
21
17
32
11
4
3
2
12
26
18
33
11
4
3
2
12
26
18
34
11
4
3
2
13
28
18
34
11
4
3
2
13
31
18
34
12
4
3
2
13
31
18
34
12
4
3
2
13
31
18
36
13
4
3
3
13
31
18
35
13
5
3
3
13
31
18
35
13
5
3
3
12
32
19
37
13
5
3
3
11
32
19
37
13
5
3
3
11
33
19
37
14
5
3
3
11
34
19
39
15
6
4
3
10
35
20
39
15
6
4
3
10
36
20
40
15
6
4
3
10
36
21
40
15
6
4
4
11
36
21
39
15
6
4
4
11
36
21
40
15
6
4
4
11
35
21
41
15
6
4
5
11
35
21
41
15
6
4
5
11
36
21
42
15
6
4
6
11
36
21
42
15
6
4
6
12
37
21
42
14
6
4
6
12
38
21
42
14
6
4
6
12
38
22
43
14
6
4
6
12
39
23
44
14
6
4
6
12
40
24
44
15
6
4
7
14
44
25
43
15
6
4
7
14
48
25
44
15
6
4
7
16
49
25
44
16
7
4
7
16
49
24
44
16
7
4
8
16
50
22
42
17
7
4
8
16
51
22
42
17
8
4
8
16
53
23
42
17
8
5
8
17
54
27
42
17
8
5
9
18
54
27
42
17
8
5
11
18
54
28
42
17
8
5
11
18
54
28
43
17
8
5
11
18
55
28
43
18
8
5
11
19
55
28
44
18
8
5
11
20
56
29
44
18
8
5
11
20
56
29
44
21
9
6
11
20
56
29
43
21
9
6
11
20
56
30
43
21
9
6
12
20
57
30
43
22
9
6
12
20
57
30
43
23
9
6
12
20
56
31
42
23
9
6
12
20
57
31
41
23
9
6
12
20
56
35
41
23
9
6
12
24
58
35
41
23
9
6
13
27
60
35
41
23
9
6
14
30
58
35
41
23
10
6
14
30
58
37
40
23
10
6
14
30
57
37
39
23
10
6
14
30
57
41
40
23
10
6
14
31
57
41
40
25
10
6
14
31
57
41
39
25
10
6
14
31
57
42
39
25
10
6
15
31
58
42
39
26
10
6
14
32
58
42
38
28
10
6
15
35
58
43
39
30
10
6
15
36
57
43
39
30
10
6
15
36
57
43
36
33
10
6
15
36
59
44
36
34
10
6
15
36
60
44
36
34
10
6
15
36
60
44
36
34
10
6
15
37
60
44
36
35
10
6
16
38
60
44
35
35
10
6
16
38
61
44
34
35
10
6
16
39
64
44
34
35
11
6
16
39
64
45
33
35
11
6
16
40
65
46
33
36
11
6
16
41
64
47
34
37
11
6
17
41
63
47
34
39
11
7
18
41
64
48
33
40
11
7
18
42
63
48
32
40
11
7
19
42
62
48
32
40
11
7
18
42
60
48
32
42
11
7
19
43
58
48
33
44
11
7
20
43
58
48
33
47
11
7
20
43
58
48
33
47
11
7
21
43
58
48
33
48
11
7
21
43
58
48
33
48
11
7
21
43
56
49
33
48
11
7
21
43
56
47
33
48
11
7
21
42
57
47
33
48
12
7
20
42
57
47
32
48
12
7
20
43
57
48
31
49
12
7
20
43
59
48
32
49
12
7
21
43
60
48
34
49
12
7
20
43
59
49
34
50
12
7
20
44
60
50
34
50
12
7
21
44
60
51
33
50
11
7
21
44
61
50
35
50
11
7
20
45
61
52
36
50
11
7
20
46
61
52
37
49
11
7
20
46
63
52
36
49
11
7
21
49
63
51
36
50
12
8
22
49
63
51
36
51
12
8
22
47
61
51
36
52
12
8
22
46
60
51
34
52
13
8
21
44
60
51
33
52
13
8
21
45
63
50
33
52
13
8
21
45
62
52
33
52
13
8
21
45
64
49
33
54
13
8
23
45
64
49
34
55
13
8
23
45
65
49
35
55
13
8
22
45
66
48
35
58
14
8
22
47
65
48
34
57
14
8
23
47
66
49
35
57
14
8
23
45
66
48
34
56
14
8
24
46
68
48
35
56
14
8
24
46
69
50
36
54
14
9
24
47
67
50
36
54
13
9
24
46
67
50
36
54
13
9
24
46
67
50
36
54
13
9
24
46
67
50
36
55
14
9
24
46
67
50
36
55
14
9
24
46
68
50
35
56
14
9
24
45
66
50
35
56
13
9
24
45
65
52
36
56
13
9
25
46
66
50
36
55
13
9
25
46
66
51
36
57
13
9
25
46
66
51
36
56
13
9
24
46
67
49
38
57
13
9
24
47
69
49
38
59
13
9
24
48
69
49
39
60
13
10
25
48
69
49
39
59
13
10
24
47
69
49
38
60
13
9
23
47
68
49
39
57
13
10
23
48
68
49
39
58
13
10
23
48
67
50
40
57
13
10
23
48
67
50
40
57
13
10
23
48
66
51
41
57
13
10
23
48
68
50
41
58
13
10
23
49
68
51
40
58
13
10
25
49
69
51
41
58
13
10
25
48
69
50
41
58
13
10
25
49
66
50
41
58
13
10
25
48
67
51
39
59
13
10
25
49
68
51
40
58
13
10
25
49
67
51
40
57
13
10
26
49
68
51
40
57
14
10
26
49
67
52
38
57
14
10
26
48
67
51
38
58
14
10
27
48
68
52
37
59
14
10
26
49
67
51
37
59
14
10
26
46
68
51
38
58
13
10
26
47
68
50
38
58
13
10
27
47
70
50
37
58
13
10
27
47
70
50
37
58
13
10
27
47
70
51
38
58
14
10
27
48
71
52
39
58
14
10
27
48
71
49
39
58
13
10
27
48
70
50
39
56
13
10
26
48
72
52
40
54
13
10
26
48
72
52
39
54
14
10
26
49
72
54
40
51
14
11
26
47
73
54
40
51
13
11
26
46
73
54
40
51
13
11
26
46
73
54
41
52
13
11
25
47
72
54
41
53
13
11
26
47
72
52
41
53
14
11
25
47
71
52
41
53
14
11
25
47
71
52
41
54
16
11
25
49
71
51
41
54
16
11
25
49
73
51
41
54
16
11
25
49
73
52
41
54
17
11
25
51
74
52
41
54
17
11
25
51
74
52
41
54
17
11
26
51
74
50
40
53
17
11
25
49
73
49
40
53
17
11
25
50
73
51
40
51
17
11
26
50
73
50
41
51
17
11
26
52
72
51
39
50
17
11
28
51
71
51
38
48
17
11
28
50
71
51
38
48
17
10
28
50
71
52
40
47
17
10
28
51
71
51
41
45
18
10
28
50
71
51
41
46
19
10
28
50
71
52
40
46
19
10
28
50
71
52
40
47
19
10
27
50
71
51
40
47
20
11
27
51
72
51
40
49
20
10
29
52
70
51
41
49
21
10
29
53
71
50
41
49
21
10
27
52
71
51
41
48
22
10
27
52
71
52
40
50
22
11
27
53
71
51
39
50
22
11
27
54
69
51
39
49
22
11
28
53
71
50
38
49
22
11
28
53
71
48
38
48
22
11
28
53
71
50
38
48
22
11
28
54
70
49
38
49
22
11
30
55
72
48
38
50
22
11
30
56
71
48
38
49
22
11
30
55
71
49
37
50
22
11
30
55
70
49
37
50
22
10
30
55
70
49
37
49
22
10
30
54
68
49
36
48
23
10
31
54
68
49
36
48
24
10
31
54
67
48
36
48
23
10
32
53
66
48
35
48
23
10
32
53
66
49
35
48
23
10
32
56
65
48
36
51
24
10
32
56
62
47
34
53
23
10
33
56
62
47
34
53
23
10
33
55
61
45
33
55
23
10
33
55
60
46
34
55
23
10
33
55
62
47
34
55
23
10
33
56
62
47
35
54
24
10
33
54
62
46
34
53
24
9
33
54
61
49
33
54
24
10
33
55
61
49
33
55
24
10
33
55
62
49
32
54
22
10
33
54
61
49
33
54
22
10
33
55
59
49
33
55
22
10
33
55
59
49
33
56
22
10
33
53
57
49
33
55
22
10
33
53
57
49
33
55
22
10
33
53
57
49
33
56
22
10
33
54
56
49
33
56
22
10
33
54
57
48
34
56
22
10
33
54
59
52
33
57
22
10
33
55
62
51
33
56
22
10
31
54
61
51
34
56
23
10
31
54
61
51
35
55
23
10
31
54
60
50
34
56
23
10
31
53
60
50
33
56
22
10
31
53
62
50
33
55
21
10
31
52
63
50
33
56
21
10
32
53
65
49
33
56
21
10
33
53
65
50
34
56
20
10
32
52
64
50
34
54
20
10
31
51
64
50
34
53
19
10
31
51
63
50
34
53
19
10
31
51
63
49
34
53
19
10
31
51
63
49
34
52
18
9
31
50
63
50
35
52
18
9
31
49
64
50
37
52
18
9
31
49
62
50
37
53
18
9
31
50
62
50
37
53
18
9
30
49
61
47
37
53
18
9
30
49
62
47
38
53
18
9
28
48
61
48
38
52
17
9
29
49
60
48
38
52
17
9
30
49
60
47
38
51
17
9
29
49
60
47
38
51
17
9
29
50
61
47
40
54
18
9
29
50
61
47
40
54
17
9
28
50
61
47
40
55
16
9
27
50
61
46
40
56
15
9
27
52
60
46
42
58
16
9
27
52
60
45
43
58
16
9
26
49
60
44
43
55
16
9
26
49
60
43
43
53
16
9
25
49
61
43
43
53
16
9
25
49
61
43
43
51
16
9
25
49
60
42
41
53
16
9
25
49
58
41
41
52
16
9
25
48
58
41
40
52
15
9
25
49
57
40
40
52
15
10
25
49
57
37
40
51
14
9
24
48
58
37
41
50
14
9
24
48
57
37
41
51
14
9
24
47
59
37
41
52
15
9
25
46
61
38
41
50
15
9
26
47
60
37
41
51
15
10
27
47
60
38
41
51
15
10
27
47
60
38
42
50
15
10
26
47
61
38
42
50
15
10
27
46
61
38
42
50
15
10
27
46
61
36
42
50
15
10
26
46
59
32
41
50
16
11
27
43
59
32
41
50
15
10
27
44
60
32
41
49
15
11
27
45
60
34
40
49
15
11
27
45
63
34
39
48
15
11
28
48
63
35
39
48
15
11
28
48
61
34
39
48
15
11
28
49
63
34
38
47
15
11
27
48
61
34
38
45
15
11
28
48
61
33
37
45
16
11
28
48
61
33
37
49
17
11
28
48
61
33
36
49
17
12
28
48
60
33
38
49
17
11
28
50
61
33
37
49
17
11
28
50
61
32
38
49
17
11
29
50
61
30
38
49
17
11
29
50
60
33
36
49
17
11
29
50
62
35
36
48
16
11
28
51
62
35
36
48
16
11
28
51
65
37
36
49
18
11
28
49
64
37
38
50
18
11
30
49
65
37
38
51
18
12
31
49
66
37
38
51
18
12
30
49
66
38
38
51
18
12
31
49
66
38
38
53
18
12
31
49
65
38
37
52
18
12
31
49
65
38
37
52
18
13
31
49
65
38
37
51
18
12
32
49
66
39
37
51
18
13
32
48
65
39
35
50
17
13
32
48
65
40
33
49
18
13
33
51
65
40
33
50
18
13
35
51
65
43
33
50
19
13
35
51
64
43
34
49
19
13
35
51
64
44
34
50
19
13
35
51
65
45
34
49
19
13
36
52
65
45
35
49
19
13
36
51
65
46
35
51
19
13
36
51
67
47
35
51
19
13
36
51
68
48
35
51
20
13
36
52
68
50
36
51
20
13
38
52
68
50
36
51
20
13
39
52
66
50
35
53
20
13
40
53
65
53
36
52
20
13
39
51
65
53
36
52
20
13
38
52
68
53
37
52
21
13
38
52
67
53
36
53
21
13
39
52
68
53
37
55
21
13
38
54
67
55
37
55
21
13
39
55
67
56
38
54
21
13
39
54
67
56
38
54
21
12
38
55
65
56
38
54
20
12
38
54
65
56
38
54
21
12
38
54
67
55
38
54
21
12
39
54
65
55
39
55
20
12
38
51
65
56
38
55
21
12
38
52
65
56
39
56
21
12
39
54
63
56
39
55
21
12
41
54
63
57
39
56
21
12
41
56
64
59
39
56
21
12
41
56
65
59
38
53
21
11
41
57
66
58
38
53
21
11
42
57
66
58
37
53
21
11
42
56
64
58
37
52
21
11
42
56
66
58
38
53
22
12
41
56
66
59
38
53
22
12
41
56
65
57
38
53
22
12
42
56
64
57
39
53
22
12
42
55
64
56
40
53
22
12
42
55
63
55
39
52
21
12
42
55
63
55
37
53
21
12
40
56
62
54
36
51
21
11
39
54
62
54
36
51
21
11
39
54
62
54
36
50
21
11
39
54
61
54
37
48
21
11
39
54
61
54
37
47
21
11
39
55
61
54
37
47
20
10
39
55
61
54
36
47
20
10
39
54
61
53
36
45
20
10
38
53
61
53
36
45
20
10
38
53
61
53
36
45
20
10
37
50
61
52
36
45
20
10
36
50
60
50
35
44
19
9
36
50
60
50
35
45
19
9
35
49
60
49
36
44
19
9
35
49
59
49
36
44
19
9
35
48
59
49
35
44
18
10
35
49
59
47
35
40
18
10
35
48
56
47
34
40
18
10
35
48
55
46
34
40
18
10
35
47
54
43
33
40
18
10
34
47
54
43
33
39
17
10
32
47
54
42
33
36
17
9
32
46
54
38
33
36
17
9
31
46
53
39
33
36
16
9
31
45
50
38
32
35
16
9
32
45
50
38
32
36
15
9
31
45
49
38
31
32
15
8
31
42
49
34
30
32
15
8
31
41
49
32
33
32
14
9
33
41
48
33
33
32
14
9
33
41
47
33
33
32
14
9
32
40
46
32
32
32
14
8
32
40
43
32
32
32
14
8
35
39
43
32
32
30
14
8
35
39
41
30
32
30
13
8
35
38
41
30
32
28
12
8
34
34
40
29
32
28
12
8
31
34
40
28
32
28
12
8
30
31
38
24
32
28
11
8
29
30
36
24
32
28
11
8
29
26
33
24
33
27
11
9
29
25
34
24
33
27
10
9
29
25
34
24
33
27
10
8
29
26
30
23
30
24
9
8
29
26
29
21
30
25
9
8
29
25
29
20
31
25
9
8
28
24
29
20
31
24
8
8
28
24
29
19
29
24
7
8
28
24
25
20
29
24
7
8
28
25
24
20
29
22
7
8
28
24
24
20
29
22
7
8
28
23
23
19
29
22
7
8
27
23
23
19
30
22
6
8
27
23
23
19
29
21
6
8
27
22
22
19
29
21
6
8
28
20
22
18
30
21
6
8
28
20
22
18
31
21
6
8
28
20
19
17
31
21
6
8
29
20
19
17
34
21
6
8
30
20
20
17
38
22
6
8
30
23
21
17
38
22
6
9
31
23
20
17
38
22
6
9
32
24
20
17
38
22
6
9
32
24
21
17
37
21
6
9
32
24
21
17
41
23
6
9
32
24
21
16
42
23
6
8
31
23
21
16
43
23
6
8
32
24
21
16
43
24
6
8
32
24
21
16
43
24
6
8
32
24
21
15
43
24
6
8
33
24
21
15
43
22
6
8
33
24
21
15
43
22
6
8
33
24
21
15
43
22
6
8
33
24
21
15
43
22
6
8
33
24
21
15
43
22
6
8
33
24
21
14
43
20
6
8
33
23
21
14
43
20
6
8
33
22
20
14
43
20
6
8
33
22
19
14
40
20
6
7
30
22
19
13
40
20
6
7
30
22
20
12
40
20
6
7
30
22
20
12
42
20
6
7
30
22
19
12
42
20
6
7
28
22
19
12
42
20
5
7
27
22
19
12
42
20
5
7
27
22
19
12
42
20
6
7
27
22
19
12
42
20
6
7
27
22
20
12
42
20
6
7
27
22
20
12
42
20
6
7
28
22
20
12
42
20
6
7
28
22
19
11
41
20
5
7
28
22
18
11
41
20
5
7
28
22
18
11
42
20
5
7
28
22
17
11
42
21
5
7
28
22
17
11
42
21
5
7
28
21
17
11
41
21
5
7
28
21
17
11
42
21
5
7
27
21
17
11
42
21
6
6
27
21
17
11
42
21
6
6
27
19
17
10
42
21
6
6
27
19
18
9
43
21
6
6
27
19
18
9
43
21
6
6
27
19
18
9
43
21
6
6
27
19
17
9
44
21
6
6
28
19
18
9
45
22
5
6
27
19
18
9
46
23
5
6
27
21
18
9
46
23
5
6
27
21
18
9
46
24
5
6
26
21
18
9
45
24
5
6
24
20
17
9
41
23
4
5
24
18
15
9
41
22
4
4
23
17
15
9
41
22
4
4
24
16
15
9
41
23
4
4
24
16
15
9
41
23
4
4
24
16
14
8
38
22
4
4
23
16
14
8
37
21
4
4
23
15
14
8
36
21
4
4
22
15
14
7
36
20
4
4
22
15
14
8
36
20
5
4
22
15
14
8
36
20
5
4
21
15
14
8
37
20
5
4
20
15
14
8
37
21
5
4
21
16
14
8
37
20
5
4
21
16
14
8
37
20
5
4
21
16
13
8
37
21
5
4
23
15
13
8
38
20
5
4
23
16
13
8
38
20
5
4
23
16
13
8
38
22
5
4
23
16
13
8
38
21
5
5
23
16
12
8
37
21
5
5
24
16
12
8
38
21
5
5
24
16
12
8
37
21
5
5
26
15
12
8
37
21
5
5
26
15
12
8
37
21
6
5
26
15
13
8
37
21
6
5
28
15
13
8
37
21
6
5
30
16
13
8
37
22
6
5
30
16
12
8
37
22
6
5
30
16
12
8
37
21
7
5
30
16
12
8
37
22
7
5
30
16
12
8
37
22
7
5
29
16
12
8
38
22
7
5
29
16
12
8
39
22
7
5
30
15
12
8
39
21
7
5
30
15
12
8
39
21
7
5
30
15
12
8
39
21
7
5
30
15
12
8
39
20
7
5
30
15
12
8
39
20
7
5
30
15
12
8
39
20
7
5
30
15
13
8
38
20
7
5
30
15
11
8
37
19
7
5
30
15
11
8
38
19
7
5
30
15
12
8
37
19
7
5
30
15
12
8
36
19
7
5
29
15
12
8
35
18
7
5
29
15
11
8
33
16
7
5
29
11
12
8
32
16
7
5
29
11
12
8
32
16
7
5
29
11
11
8
31
16
7
5
29
11
11
8
31
16
7
5
29
11
11
8
31
16
7
5
29
11
11
8
31
16
7
5
28
10
11
8
31
15
7
5
28
10
11
8
31
15
7
5
28
10
11
8
32
15
7
5
28
10
11
8
32
15
7
5
28
10
11
8
32
15
7
5
28
10
11
8
32
15
7
5
29
10
11
8
31
14
6
5
28
9
11
8
31
14
6
5
28
9
11
8
32
14
6
5
28
9
11
7
31
14
6
5
28
8
11
7
31
14
6
5
28
8
11
7
31
14
6
5
27
8
11
7
30
13
6
5
26
8
11
7
30
13
6
5
26
7
11
7
30
13
6
5
26
7
11
7
30
10
6
5
26
7
11
7
30
10
6
5
26
7
11
7
30
10
6
5
25
7
11
7
29
9
6
5
25
7
11
7
28
9
5
5
22
7
11
7
28
9
5
5
22
7
10
7
28
9
5
5
21
7
10
7
28
8
5
5
18
6
10
7
29
8
5
5
15
3
9
7
29
8
4
4
15
3
9
7
28
8
4
4
15
3
9
7
29
8
4
4
15
3
9
7
29
8
4
4
15
3
9
7
29
8
4
4
15
3
8
7
28
7
4
4
15
3
8
7
26
8
3
4
15
3
7
7
25
8
3
4
14
2
7
7
25
8
3
4
14
2
7
7
25
7
3
4
14
2
7
6
24
7
3
4
14
2
7
6
24
7
3
4
14
2
7
6
24
7
3
4
14
2
6
6
24
7
3
4
14
2
6
5
24
7
3
4
14
2
6
5
23
7
3
4
13
2
5
5
23
7
3
4
12
2
5
5
23
7
3
4
12
2
5
5
23
7
3
4
12
2
4
5
23
7
3
4
12
2
4
5
23
6
3
4
11
2
4
5
22
7
3
4
11
2
4
5
22
6
3
4
11
2
4
5
22
6
3
4
11
2
4
5
22
6
3
4
11
2
4
5
22
6
3
4
11
2
4
5
21
6
3
4
11
2
4
4
21
6
3
3
11
2
4
4
19
5
3
4
11
2
4
4
19
5
3
3
10
1
3
4
19
5
3
3
9
1
3
4
19
5
3
3
8
1
3
4
19
5
3
3
7
1
3
4
18
5
3
3
7
1
2
4
16
5
3
3
7
1
2
4
16
5
3
3
7
1
2
4
16
5
3
3
7
1
2
4
16
5
3
3
6
1
2
4
16
5
3
3
6
1
2
4
16
5
3
3
6
1
2
4
16
5
3
3
5
1
2
4
16
5
3
3
5
1
2
4
16
5
3
3
4
1
1
4
16
5
3
3
4
1
1
4
16
5
3
3
4
1
1
4
16
5
3
3
4
1
1
4
16
5
3
3
4
1
1
4
16
5
3
3
4
1
1
4
15
5
3
3
4
1
1
4
13
5
3
2
3
1
1
4
13
5
3
2
3
1
1
4
13
5
3
2
3
1
2
4
11
4
3
2
3
1
2
4
10
5
3
2
3
1
2
4
10
5
3
2
3
1
2
4
10
5
3
2
2
1
2
4
9
5
3
2
2
1
2
4
9
5
3
2
2
1
2
3
9
5
3
2
2
1
2
4
9
5
3
2
2
1
2
4
9
5
3
2
2
1
4
4
9
5
3
2
2
1
4
4
9
5
3
2
2
1
4
4
8
5
3
2
2
1
4
4
8
5
3
2
2
1
4
4
8
5
3
2
2
1
5
5
8
5
3
2
2
1
5
5
8
5
3
2
2
1
5
5
8
5
3
2
2
1
5
5
7
5
3
2
2
2
5
5
8
5
3
2
2
2
5
5
8
5
2
2
2
2
5
5
8
5
3
2
2
2
6
5
9
5
3
2
2
2
6
5
9
5
3
2
2
2
6
5
9
5
3
2
2
2
6
5
9
5
3
2
2
2
7
5
9
5
3
2
2
2
7
5
10
5
3
2
2
2
7
5
10
5
3
2
2
2
7
5
10
5
3
2
2
2
7
6
10
5
3
2
2
2
7
6
10
5
3
2
2
2
7
6
10
5
3
2
2
2
8
6
10
5
3
2
2
2
8
6
10
5
3
2
2
2
8
6
10
5
3
2
2
2
8
6
11
5
2
2
2
2
9
6
10
5
2
2
1
2
9
7
10
5
2
2
1
2
10
7
11
5
2
2
2
2
10
7
11
5
2
2
2
3
10
7
11
5
2
2
2
3
10
7
11
5
2
2
2
3
10
7
11
5
2
2
2
3
10
7
11
5
3
2
2
3
10
8
10
5
3
2
2
3
10
8
11
5
3
2
2
3
10
8
11
5
3
2
2
3
12
9
12
6
3
2
2
3
12
9
13
6
3
2
2
4
12
9
13
6
3
2
2
4
12
9
13
6
3
2
2
4
12
9
14
5
3
2
2
5
14
9
14
5
3
2
2
5
15
10
14
5
3
2
2
6
15
10
14
5
3
2
2
6
15
10
14
5
3
2
2
6
15
10
14
5
3
2
2
6
15
10
14
5
2
2
2
6
15
11
14
5
2
2
2
6
15
11
14
5
2
2
2
6
15
11
14
5
2
2
2
6
15
13
15
5
2
2
2
6
15
14
15
5
3
2
2
6
16
14
15
5
3
2
2
6
16
14
15
5
3
2
2
6
16
14
15
5
3
2
2
6
16
14
16
6
3
3
2
6
17
14
16
6
3
3
3
6
18
14
16
6
3
3
3
6
18
14
16
6
3
3
3
6
19
14
16
7
3
3
3
6
19
14
17
7
3
3
3
6
19
16
17
7
3
3
3
6
20
16
20
7
3
3
3
6
20
16
20
7
3
3
3
6
19
16
20
7
3
3
3
6
20
16
21
8
3
3
3
10
21
16
21
8
3
3
3
15
21
17
21
8
3
3
3
15
21
17
24
8
3
3
3
15
22
18
25
8
3
3
4
15
25
18
28
9
4
3
4
16
25
18
29
9
4
3
4
16
26
18
29
9
4
3
4
16
26
18
30
10
4
3
5
17
26
18
30
10
4
3
6
19
26
19
30
10
4
3
6
20
28
21
30
10
4
3
6
20
29
24
30
11
4
3
6
20
29
25
31
11
4
3
6
20
32
25
34
11
4
3
6
20
33
25
34
11
4
3
6
20
33
25
35
12
4
4
6
20
33
25
35
12
4
4
7
20
34
25
37
12
5
4
7
20
34
25
39
13
5
4
7
20
35
26
40
13
5
4
7
20
34
25
40
12
4
4
9
22
34
25
40
14
4
4
9
23
34
25
40
14
5
4
9
23
36
26
41
14
5
4
9
23
37
26
41
14
5
4
9
23
37
26
41
15
5
4
9
23
37
26
41
15
5
4
9
23
38
27
41
15
5
4
9
23
39
27
41
16
5
4
9
23
39
28
41
16
6
4
9
23
41
29
41
21
6
5
10
23
42
29
41
21
6
5
10
23
43
29
41
22
6
5
10
24
44
29
41
22
6
5
10
24
45
29
42
25
7
5
10
25
45
29
42
25
7
5
10
25
45
34
42
25
7
5
10
25
45
34
42
25
7
6
11
25
45
35
43
26
7
6
11
26
45
35
43
26
7
5
11
26
46
35
43
26
7
5
11
26
48
36
43
26
7
5
11
28
49
37
43
27
7
5
11
28
49
39
43
28
7
6
11
29
50
40
43
28
7
6
12
31
49
41
43
28
7
6
12
31
53
41
42
29
7
6
12
31
53
42
42
29
7
6
12
32
53
42
43
30
7
6
12
32
54
42
45
30
8
6
12
31
57
42
45
30
8
6
12
29
59
43
45
31
8
6
15
30
59
43
44
32
8
6
15
30
60
43
43
33
8
6
15
31
59
43
42
34
8
6
15
31
60
43
42
34
9
6
15
33
61
43
42
34
9
6
16
36
61
43
41
34
9
6
16
37
61
43
41
35
9
6
16
36
61
43
41
37
9
6
16
36
61
43
41
37
9
6
16
36
61
42
41
38
9
6
16
36
61
43
40
38
9
6
16
35
61
42
38
38
9
6
16
36
60
45
38
38
10
6
16
37
63
46
38
37
10
7
16
40
63
46
38
38
10
7
16
42
63
46
36
39
10
7
16
42
63
46
33
39
10
7
18
44
63
46
33
38
10
7
18
44
63
46
35
39
10
7
17
44
65
47
35
38
10
7
17
44
66
47
36
38
10
7
17
44
66
48
36
38
11
7
17
44
66
48
36
41
11
7
17
44
66
48
36
42
11
7
17
44
66
48
37
45
11
7
17
44
66
48
37
46
11
7
18
46
67
49
38
46
11
7
17
46
67
49
39
47
11
7
18
48
66
48
39
46
12
7
18
48
66
49
39
46
11
7
18
48
66
49
39
48
11
7
18
49
66
49
40
48
11
7
18
49
65
49
38
47
11
7
18
50
66
48
38
47
11
7
18
50
66
45
38
47
11
7
18
50
66
45
38
47
12
7
18
50
67
46
38
48
12
7
21
51
69
47
38
50
12
7
21
50
70
47
37
50
14
8
21
51
69
47
37
50
14
8
21
52
68
46
37
50
15
8
21
52
69
45
37
50
15
8
21
52
71
43
37
50
15
8
21
52
71
42
37
50
15
8
21
52
69
43
37
50
15
8
21
52
69
43
37
50
15
8
21
51
69
43
35
50
15
8
21
51
69
44
33
50
15
8
21
53
67
44
33
50
15
8
21
53
67
44
32
49
15
8
20
53
67
44
32
49
15
8
20
53
69
45
32
49
15
8
19
53
68
45
32
51
15
8
19
52
68
45
32
51
15
8
19
51
67
48
33
53
15
8
19
50
68
48
35
53
15
8
20
52
69
48
37
52
15
8
20
52
69
49
38
51
15
8
20
52
69
48
38
52
15
8
20
52
70
49
39
52
15
8
20
55
70
51
39
52
15
8
21
55
69
51
39
52
15
8
21
55
69
50
39
52
15
8
21
55
69
51
39
53
16
8
22
53
69
50
39
53
16
8
22
53
70
51
39
54
16
9
23
53
70
52
39
54
16
9
22
52
70
52
38
54
16
9
22
52
71
53
37
54
17
9
23
53
68
52
37
55
17
10
23
54
68
53
39
57
17
10
23
54
67
52
40
58
17
10
23
54
67
53
40
58
17
10
23
54
68
54
40
59
18
10
23
54
67
54
39
58
18
10
23
54
67
54
39
57
17
10
23
53
67
54
39
59
19
10
23
53
67
54
37
59
18
10
23
52
67
54
37
58
18
10
24
53
67
54
37
58
18
10
24
53
67
54
37
57
18
10
23
53
67
54
37
57
18
10
23
53
67
54
37
57
18
10
23
51
67
55
37
58
18
10
24
51
68
55
38
58
18
10
25
51
70
55
38
58
18
10
25
51
71
55
38
58
18
10
23
51
70
53
38
56
18
10
23
52
70
53
38
56
17
10
23
51
71
53
38
57
16
9
24
52
71
53
38
56
16
9
24
52
70
53
38
57
16
9
24
53
69
54
38
58
16
9
24
52
71
54
38
60
15
10
24
54
71
53
39
59
15
10
24
54
71
52
39
60
15
10
24
55
72
52
39
60
15
10
25
55
71
52
39
60
16
10
25
54
72
52
39
61
17
10
25
54
71
52
39
61
17
10
25
54
70
52
39
60
17
10
25
54
69
52
39
59
17
10
26
54
70
52
38
58
17
10
26
54
70
52
39
57
17
10
26
55
71
50
38
56
17
10
25
54
69
50
36
56
17
10
26
53
68
51
34
56
16
9
26
53
68
50
33
56
17
9
26
54
69
50
34
55
17
10
26
55
68
48
33
56
16
10
26
53
67
46
33
57
16
10
26
53
68
46
33
59
16
10
26
52
69
43
33
61
17
10
26
52
67
43
33
61
16
9
25
52
68
46
32
61
16
9
25
50
67
47
33
60
15
9
25
51
67
48
33
60
15
9
25
51
69
48
33
60
15
8
27
51
68
47
31
60
14
8
27
52
70
47
31
60
14
7
27
52
70
46
28
58
14
8
27
52
71
49
28
57
14
8
27
53
70
48
28
55
14
8
27
53
70
48
33
54
14
8
27
53
71
48
36
53
14
8
27
53
71
48
40
53
14
8
27
52
70
47
43
51
13
8
28
53
70
47
43
51
13
8
29
53
70
48
46
52
13
8
29
53
70
48
47
52
13
8
29
53
70
47
49
52
13
7
29
53
70
48
51
53
13
8
29
53
70
49
53
53
13
7
29
53
70
51
55
52
13
7
28
54
69
51
55
52
14
8
27
54
67
51
55
52
14
7
30
54
68
51
55
53
14
8
30
54
67
51
55
56
14
8
30
53
65
53
55
57
14
7
30
53
64
54
55
57
14
7
29
53
64
54
55
59
14
7
29
53
65
54
55
59
14
7
29
53
64
53
55
58
14
7
29
53
63
54
55
56
14
7
29
52
63
54
55
58
15
8
29
53
62
55
55
57
15
8
29
52
62
55
55
57
16
8
29
52
63
55
55
58
15
7
29
52
62
55
55
58
14
7
30
52
62
54
55
58
15
8
30
52
62
54
55
58
15
7
30
52
62
54
56
59
15
8
29
53
61
54
56
58
15
8
30
53
63
54
56
59
15
8
30
53
62
54
56
59
15
8
30
53
63
55
56
59
15
8
29
53
63
54
56
60
15
8
30
54
63
54
56
60
15
8
30
54
63
54
56
60
15
8
30
54
65
54
56
59
15
8
31
53
66
54
57
58
15
8
31
53
68
54
57
56
15
8
31
53
67
54
57
55
15
8
31
53
68
53
57
54
16
8
31
53
69
51
58
54
16
8
31
53
68
50
57
55
16
8
30
52
69
49
57
55
16
8
29
52
68
48
57
55
16
9
28
52
69
50
57
54
16
9
28
50
67
50
58
55
16
9
28
51
68
51
58
55
16
8
29
52
67
49
57
55
16
8
29
53
68
48
57
55
16
8
29
52
68
47
54
56
16
8
30
52
68
47
52
56
15
8
30
52
68
47
49
57
15
8
29
52
68
47
46
58
15
8
29
52
68
48
46
58
15
8
27
52
68
47
43
58
15
8
27
52
67
46
42
57
15
8
27
53
68
46
40
57
15
8
27
52
67
48
37
56
15
8
27
54
67
47
35
56
15
8
27
53
68
44
32
56
15
8
27
53
68
46
30
55
15
8
27
53
67
46
30
56
15
8
25
54
65
46
30
54
15
8
27
55
67
46
30
51
15
8
28
55
68
44
30
50
15
8
28
55
67
43
29
49
15
8
28
52
67
44
29
48
15
8
28
53
66
44
29
48
15
8
28
53
66
45
29
48
16
8
28
55
66
45
29
49
15
8
29
55
66
45
29
47
15
9
29
55
67
44
29
49
15
9
29
55
67
45
29
49
15
9
29
54
68
45
29
48
15
9
28
54
68
45
29
47
15
9
27
54
68
46
29
46
15
9
27
54
67
46
29
46
15
9
27
54
67
45
27
46
15
10
28
53
68
46
27
47
15
10
28
53
66
47
26
46
15
9
28
53
67
47
26
46
16
10
29
53
67
45
26
46
17
10
29
53
68
45
25
45
17
9
28
51
69
46
25
44
17
10
28
51
70
46
24
44
17
9
28
50
70
46
23
45
18
9
27
50
69
46
23
45
18
10
27
51
68
46
23
45
18
10
28
51
69
47
22
46
18
10
28
52
68
47
21
45
17
10
28
52
68
48
20
45
17
10
28
52
68
49
20
47
17
10
29
53
67
49
23
47
17
10
30
55
68
49
24
47
18
10
30
54
67
47
25
47
18
10
30
55
67
48
25
45
18
10
30
54
66
47
24
46
19
10
29
54
68
48
24
46
20
10
29
52
68
48
24
46
19
10
29
54
68
48
24
45
20
10
29
54
67
48
24
46
20
10
28
54
67
50
24
45
20
11
29
54
67
52
24
44
20
11
29
54
68
53
23
43
20
11
29
53
68
53
23
43
20
11
29
53
69
53
24
45
20
10
28
55
69
53
24
45
20
10
28
56
69
51
24
45
20
11
29
54
69
54
25
45
20
12
29
55
68
54
25
45
20
12
29
55
70
53
25
47
20
12
30
55
72
53
25
48
20
12
30
54
72
53
25
47
20
12
28
53
70
53
25
49
20
12
27
53
71
54
25
49
20
12
27
53
73
53
25
49
20
12
27
54
73
53
26
48
20
12
27
55
74
53
25
48
20
12
27
54
74
53
26
47
20
12
27
53
73
52
26
46
20
12
26
54
73
53
27
46
20
11
26
54
73
53
27
45
20
11
26
54
72
52
27
45
19
11
26
54
71
52
27
45
19
11
26
54
71
52
27
46
20
12
28
55
71
50
27
46
21
12
28
55
73
51
27
46
20
11
28
56
74
51
28
46
20
12
28
56
74
50
29
48
20
12
28
56
74
50
29
48
20
12
27
57
74
49
28
48
20
12
27
58
73
50
28
49
19
12
27
58
74
51
28
49
18
14
27
59
72
51
28
49
18
13
27
58
71
52
28
49
18
13
27
59
70
52
28
48
19
14
27
61
72
53
29
48
20
14
27
62
71
52
29
48
19
13
26
62
70
52
29
48
19
13
27
62
70
52
29
48
19
13
27
62
70
52
29
49
19
13
28
62
69
50
29
47
19
14
27
61
70
51
27
47
19
13
26
59
69
51
28
47
19
14
26
60
69
51
27
47
19
14
26
59
70
51
26
47
19
14
26
57
70
51
26
47
18
15
27
57
71
50
29
47
18
15
27
57
69
50
29
47
19
15
28
57
70
50
30
47
18
15
28
58
70
50
31
46
19
15
28
58
70
48
31
46
19
15
28
58
72
47
31
46
20
15
29
60
72
45
31
48
21
16
29
61
71
48
33
48
21
16
30
61
70
49
33
46
21
16
30
59
70
49
32
46
21
16
30
58
70
49
32
47
21
16
29
59
71
48
32
46
22
16
29
58
72
50
32
46
24
16
30
59
71
50
33
44
24
16
31
60
69
50
33
43
25
16
30
60
69
50
34
43
25
16
30
61
69
50
34
41
25
16
30
61
69
49
34
41
25
16
30
61
68
49
34
41
24
16
30
61
68
49
34
41
24
16
30
60
69
49
34
41
24
16
31
60
70
49
34
42
24
16
31
59
70
49
33
42
25
16
31
58
69
48
32
44
25
16
31
59
69
48
33
44
26
16
31
59
70
48
33
44
26
17
31
62
70
48
33
45
26
17
32
62
69
48
33
44
27
18
33
62
70
48
33
44
27
18
34
64
68
47
34
44
27
18
34
63
67
48
33
43
27
18
34
63
66
48
32
41
28
18
34
63
66
49
34
42
28
18
35
64
67
50
34
41
28
18
35
64
68
50
35
41
28
18
35
63
68
48
35
40
28
17
36
62
68
47
36
40
28
17
36
62
68
46
37
41
28
17
36
62
67
46
37
40
28
17
36
60
66
45
37
40
27
17
36
58
66
45
37
40
27
17
37
58
65
45
37
40
27
17
37
57
65
44
38
40
27
17
37
57
66
44
38
40
27
17
36
58
66
44
38
42
27
17
36
58
65
43
38
42
27
17
36
58
65
43
37
42
27
16
36
58
65
43
37
42
27
16
36
58
65
43
37
42
27
16
36
59
66
43
37
41
27
16
37
59
64
43
35
41
27
16
37
58
63
43
35
41
27
16
35
59
63
43
34
42
27
16
36
58
62
42
33
42
26
16
36
57
62
41
33
40
26
16
36
57
59
42
33
40
26
15
35
55
59
41
33
38
24
14
35
54
59
38
32
38
24
14
35
53
60
36
31
39
24
14
35
53
60
36
31
39
24
14
35
53
60
36
32
39
24
14
35
53
59
33
32
39
23
14
35
53
58
30
32
38
21
14
34
52
57
30
32
38
21
14
33
50
57
31
32
38
20
14
33
50
58
31
31
38
20
14
35
49
58
30
30
38
20
14
36
48
56
31
30
38
20
14
36
48
55
31
30
38
20
14
36
47
55
30
30
37
19
13
36
47
52
30
30
38
19
13
36
46
50
30
30
37
19
13
36
46
50
30
30
37
19
13
36
46
50
29
30
34
19
13
36
44
50
29
30
34
17
13
36
44
48
29
29
34
17
13
35
40
48
29
29
32
17
12
35
40
48
29
29
32
13
10
32
39
48
29
29
32
13
10
31
34
48
29
28
32
12
10
31
34
47
27
28
32
12
9
31
34
46
28
29
32
10
9
31
33
46
26
27
30
10
9
30
28
44
24
27
30
10
9
29
28
43
23
26
29
10
9
29
27
40
23
26
29
9
9
28
27
39
23
25
29
9
9
28
28
38
23
23
29
9
8
28
27
37
23
23
29
9
9
28
27
36
23
23
29
9
9
28
27
36
23
23
28
9
9
27
27
36
23
22
26
9
9
26
27
36
23
23
26
9
9
26
27
33
23
22
24
8
10
26
25
32
23
22
22
8
10
26
26
32
23
22
22
8
10
26
26
31
23
21
21
8
10
26
26
31
23
22
21
8
10
26
26
31
21
21
21
7
9
26
24
27
21
21
21
6
9
26
23
27
21
21
19
6
9
25
23
27
21
21
18
6
9
25
20
27
21
24
16
6
9
25
19
26
22
25
16
6
9
25
19
27
22
27
16
6
8
26
19
27
21
27
16
6
8
27
19
26
21
27
15
6
9
27
17
27
21
27
16
6
9
27
19
26
21
29
15
6
9
27
19
26
21
32
14
7
9
27
19
25
21
32
14
7
9
27
20
23
21
32
14
7
9
27
20
22
21
33
14
7
9
27
21
23
19
33
14
7
9
27
21
24
17
32
14
7
9
26
21
19
17
33
14
7
9
23
21
17
17
33
15
7
9
23
21
17
16
33
16
7
9
26
20
18
15
34
16
7
9
26
20
18
15
35
16
7
9
26
20
18
15
35
15
7
9
26
21
18
14
35
15
7
9
25
21
18
14
35
15
7
9
28
23
18
14
36
18
7
10
30
23
18
14
39
18
7
10
30
23
18
15
39
18
7
10
30
23
17
15
40
19
7
10
30
23
18
15
39
19
7
10
30
23
18
15
39
18
7
10
30
23
18
15
41
20
7
10
31
23
18
14
41
20
7
10
31
23
18
14
40
20
7
10
31
23
18
14
40
20
7
10
33
23
18
14
41
21
7
10
34
23
18
14
41
21
7
10
35
23
18
14
40
21
7
10
35
23
18
13
41
21
7
9
35
22
18
13
41
21
7
9
35
22
18
13
42
21
7
9
35
22
18
13
42
21
7
8
34
21
18
12
43
22
7
8
34
21
18
12
43
23
7
8
34
21
18
12
43
23
7
8
34
22
18
12
43
23
7
7
34
22
17
12
43
23
7
7
34
21
17
12
44
24
7
7
34
21
17
12
44
24
7
7
34
21
17
12
46
24
7
7
34
21
17
12
46
24
7
7
34
22
17
12
46
24
7
8
34
21
17
11
47
24
7
8
34
21
17
11
47
24
7
8
34
21
16
11
45
24
7
8
34
21
16
9
45
24
7
8
34
21
15
9
44
24
7
8
33
21
15
9
44
24
7
7
32
21
15
8
44
24
7
7
32
21
15
8
44
23
7
7
32
20
14
8
43
23
7
7
32
19
14
8
41
23
6
7
32
19
14
8
41
23
6
7
32
17
14
7
41
23
6
7
32
17
14
8
40
23
6
7
32
16
13
8
40
23
6
6
32
16
12
7
40
23
6
6
32
16
12
7
39
23
6
6
33
16
11
7
40
23
6
6
32
15
11
7
39
22
6
6
30
15
11
7
39
22
6
6
29
15
11
7
38
22
6
6
29
15
11
7
38
22
6
5
29
15
10
7
38
22
5
5
29
13
10
7
39
22
5
5
27
11
10
8
39
20
5
5
25
11
10
7
38
20
5
5
25
11
10
7
38
20
5
5
25
11
10
7
37
20
5
5
25
11
9
7
38
20
5
5
24
11
8
7
38
20
5
5
24
11
8
6
37
17
5
5
23
10
7
7
37
17
4
5
23
10
7
7
37
18
4
5
23
10
7
7
37
18
4
5
21
10
7
7
37
17
4
5
19
9
7
8
36
17
4
5
17
9
7
8
37
17
4
5
17
9
7
8
37
17
4
5
17
9
7
8
36
17
4
5
17
9
7
7
36
17
4
5
17
9
7
8
35
16
4
5
18
9
6
8
34
16
4
5
18
9
6
8
34
15
4
5
17
9
5
7
33
15
4
5
17
9
5
7
33
15
4
4
17
9
6
7
33
15
4
4
17
9
6
7
33
15
4
4
17
7
5
7
34
15
4
4
17
5
5
7
33
16
4
4
17
5
4
7
33
15
4
4
16
5
4
7
32
15
4
4
16
5
4
7
32
15
4
4
17
5
4
7
32
15
4
4
16
5
4
7
32
15
4
4
16
5
4
7
31
15
4
4
16
4
4
7
31
15
4
4
16
4
4
7
31
15
4
4
17
4
4
7
31
15
4
4
18
4
4
7
31
15
4
4
18
4
4
7
31
14
4
4
18
4
4
7
32
14
4
4
18
3
3
7
31
14
5
4
17
3
3
7
32
14
5
4
17
3
3
7
32
14
4
4
17
3
3
7
32
14
4
4
17
3
3
7
32
14
4
4
17
3
3
7
32
14
4
3
16
2
3
7
33
14
4
3
16
2
3
7
33
14
4
3
15
2
3
7
32
14
4
3
15
2
3
7
33
14
4
3
16
2
3
8
33
14
4
3
16
2
3
8
32
14
4
3
16
2
3
9
30
14
4
3
16
2
2
8
30
14
4
3
16
2
2
8
29
13
4
3
16
2
2
8
29
13
4
3
16
2
2
8
28
13
4
3
16
2
3
9
31
14
4
3
18
2
3
9
31
14
4
3
18
2
2
9
31
14
4
3
18
2
2
9
30
13
4
3
18
2
2
8
30
13
4
2
18
2
2
8
30
13
4
2
18
2
2
8
30
13
4
2
17
2
2
8
31
13
4
2
17
2
2
8
30
13
4
2
17
2
2
8
30
13
4
2
17
2
2
8
29
13
4
2
17
2
2
8
29
13
4
2
17
2
2
8
29
13
4
2
17
2
2
8
29
13
4
2
16
2
2
8
29
13
4
2
16
2
2
8
29
11
4
2
16
2
2
8
29
11
4
2
16
2
2
8
29
11
4
2
16
2
2
8
29
11
4
2
16
2
2
8
27
11
4
2
16
2
2
8
26
10
3
2
16
2
2
8
26
11
4
2
16
2
2
8
26
11
4
2
16
2
2
8
26
11
4
2
16
2
2
8
26
11
3
2
16
2
2
8
26
11
3
2
16
2
2
8
26
11
3
2
15
2
2
8
26
11
3
2
15
2
2
8
25
11
3
2
15
2
2
8
25
11
3
2
13
2
2
8
25
11
3
2
13
2
2
8
24
10
3
2
13
2
2
8
24
10
3
2
13
2
2
8
23
10
3
2
13
2
2
8
23
10
3
2
13
2
2
7
23
10
3
2
13
2
2
7
22
10
3
2
12
2
2
7
23
10
3
2
12
2
2
7
22
10
3
2
12
2
2
7
22
9
3
2
12
2
2
7
22
9
3
2
12
2
2
7
22
9
3
2
12
2
2
7
21
9
3
2
11
2
2
6
21
9
3
2
11
2
2
5
21
9
3
2
11
2
2
5
21
9
3
2
11
2
2
5
21
9
3
2
11
2
2
5
21
9
3
2
10
2
2
5
20
9
3
2
9
2
2
5
20
9
3
2
9
2
2
3
15
8
3
2
7
2
2
3
15
7
3
2
6
1
2
3
15
7
3
2
6
1
2
3
15
7
3
2
6
1
2
3
15
7
3
2
6
1
2
3
15
7
3
2
6
1
2
3
15
7
3
2
6
1
2
3
14
7
3
2
6
1
2
3
14
7
3
2
5
1
2
3
13
7
3
2
5
1
2
3
13
7
3
2
4
1
2
3
13
7
3
2
4
1
2
3
13
7
3
2
4
1
2
3
13
7
3
2
4
1
2
3
13
7
3
2
4
1
2
3
13
7
3
2
4
1
2
3
13
7
3
2
4
1
2
3
13
6
3
2
4
1
2
3
13
6
3
2
4
1
2
3
12
6
3
2
4
1
1
3
12
6
3
2
4
1
1
2
12
6
3
2
4
1
1
2
12
5
3
2
4
1
1
2
12
5
3
2
4
1
1
3
12
5
3
2
4
1
1
3
12
5
3
2
4
1
1
3
12
5
3
2
4
1
1
4
12
5
3
2
4
1
1
4
12
5
3
2
4
1
1
4
11
5
3
2
4
1
1
4
11
6
3
2
4
1
1
4
11
6
3
2
4
1
1
4
10
6
3
2
4
1
1
4
10
6
3
2
4
1
1
4
11
6
3
2
4
1
1
4
10
6
2
2
4
1
1
4
10
6
2
2
4
1
1
4
10
6
2
2
4
1
1
4
10
6
3
2
4
1
1
4
10
6
3
2
4
1
1
4
10
6
3
2
4
1
1
4
9
5
2
2
4
1
1
4
10
5
2
2
4
1
1
4
10
5
2
2
3
1
1
4
10
5
2
2
3
1
1
5
10
5
2
2
3
1
2
5
10
5
2
2
3
1
1
5
10
5
2
2
3
1
1
5
10
5
2
2
3
1
1
5
10
5
2
2
3
1
1
5
10
5
2
2
3
1
1
5
10
5
2
2
3
1
2
5
10
5
2
2
3
1
2
5
10
5
2
2
3
1
2
5
10
5
2
2
2
1
2
5
9
5
2
2
2
1
2
5
8
5
2
2
2
1
2
6
8
5
2
2
2
1
2
6
8
5
2
2
2
1
2
6
8
5
2
2
2
1
2
5
8
5
2
2
2
1
2
6
8
5
2
2
2
1
3
6
8
5
2
2
2
1
4
6
8
5
2
2
2
1
4
6
8
5
2
2
1
1
4
6
8
5
2
2
1
1
4
6
8
5
2
2
1
1
4
6
8
5
2
2
1
1
4
6
8
5
2
2
1
1
4
6
8
5
2
2
1
1
4
6
8
5
2
2
1
2
4
6
7
5
2
2
1
1
4
6
7
5
2
2
1
1
4
6
8
5
2
2
1
1
4
6
8
5
2
2
1
1
4
6
8
5
2
2
1
1
4
6
8
5
2
2
1
2
4
6
8
5
2
2
1
2
4
6
8
5
2
2
1
2
4
6
8
5
2
2
1
2
4
6
8
4
2
2
1
2
4
6
8
4
2
2
1
2
4
7
8
4
2
2
1
2
4
7
8
4
2
2
1
2
4
7
8
4
2
2
1
2
4
7
8
4
2
2
1
3
4
7
8
4
2
2
1
3
4
7
8
4
2
2
1
3
4
7
8
4
2
2
1
3
6
7
8
4
2
1
1
3
6
8
8
4
2
1
1
3
6
8
8
4
2
2
1
3
6
8
8
4
2
2
2
3
6
8
8
4
2
2
2
3
6
8
8
4
2
2
2
3
7
7
8
4
2
2
2
3
8
7
8
4
2
2
2
3
9
7
9
4
2
2
1
3
9
7
8
4
2
2
1
3
9
8
11
6
2
2
2
4
9
8
11
6
2
2
2
4
10
8
11
6
2
2
2
4
10
8
12
6
3
2
2
4
10
8
12
6
3
2
2
4
10
8
12
6
3
2
2
4
10
8
12
6
2
2
2
4
10
8
12
7
3
2
2
4
10
8
12
7
3
2
2
4
11
8
13
7
2
2
2
4
11
9
13
7
3
2
2
4
11
10
13
7
3
2
2
4
11
10
13
7
3
2
3
4
11
9
14
7
3
2
3
4
11
10
14
7
3
2
3
4
11
10
14
7
3
2
3
4
11
10
14
7
3
2
3
4
12
10
14
7
3
2
3
4
12
10
14
7
3
2
3
5
13
10
14
7
3
2
3
5
13
10
14
7
3
2
3
5
13
10
15
8
3
2
3
5
14
10
15
8
3
2
3
6
17
11
17
9
3
2
4
7
18
11
19
8
3
2
4
7
19
11
19
9
3
2
4
7
19
12
19
9
3
2
4
8
19
12
21
9
3
2
4
8
19
12
21
9
3
2
4
8
19
12
21
10
3
3
4
9
20
12
22
10
3
3
4
9
20
13
22
10
3
3
4
9
20
13
22
10
3
3
10
9
20
13
23
10
3
3
13
9
20
15
23
10
3
3
13
9
20
16
24
10
3
3
13
9
20
16
24
10
3
3
13
11
22
16
24
10
3
3
13
14
24
17
24
11
3
3
13
15
26
17
24
11
3
3
13
15
26
17
24
11
3
3
13
15
27
17
24
11
3
3
13
15
29
17
25
11
3
3
13
15
29
18
25
12
3
3
13
15
29
18
25
12
4
3
13
16
29
18
25
12
4
3
14
16
33
18
26
13
4
3
14
16
38
20
26
13
4
3
14
16
38
20
26
13
4
3
14
16
38
20
26
14
4
3
14
17
39
20
26
13
4
3
14
18
41
20
27
13
4
3
14
18
41
20
27
13
4
3
14
18
41
20
27
13
4
3
14
19
41
26
27
13
4
4
14
20
41
26
27
14
4
4
14
21
44
27
27
14
4
4
14
22
44
27
28
14
4
4
14
22
45
32
28
14
5
4
15
24
46
32
28
15
5
4
15
25
46
33
28
15
5
4
16
25
47
33
28
15
5
4
17
29
48
33
28
15
5
4
16
29
49
35
28
18
5
4
16
29
49
36
28
18
5
4
16
29
49
36
28
18
5
4
16
29
49
36
28
18
5
4
16
29
50
39
28
21
6
4
16
29
52
40
28
22
6
4
16
30
52
40
29
22
6
5
16
30
53
41
29
22
6
4
16
30
53
40
28
22
7
5
17
31
53
40
28
23
7
5
17
31
53
40
27
23
7
5
17
31
53
43
27
23
7
5
17
32
54
44
27
23
7
5
18
33
54
45
27
23
7
5
18
33
54
45
26
23
7
5
18
33
57
45
26
24
7
5
18
33
58
45
27
24
7
5
18
33
58
45
28
24
7
5
18
33
59
47
28
24
7
6
19
35
59
50
28
25
7
6
20
39
59
50
28
25
7
6
19
39
60
50
29
25
8
6
19
39
61
50
28
25
8
6
19
41
61
52
30
25
8
6
19
42
61
52
30
25
8
6
19
41
60
52
29
26
8
7
19
41
60
53
30
27
8
7
20
41
60
53
30
27
9
7
21
41
59
53
31
27
9
7
21
41
59
53
32
27
10
7
23
41
59
53
32
27
10
7
23
41
59
53
32
27
11
8
23
42
59
53
32
27
11
8
23
42
57
54
32
27
11
8
25
43
57
53
34
27
11
8
25
43
58
53
36
27
11
8
25
43
58
54
37
27
11
9
26
45
60
54
37
28
11
9
26
45
60
54
36
28
12
9
27
46
60
54
36
29
12
9
27
46
59
54
36
29
12
9
27
46
60
52
36
29
12
9
27
47
60
53
36
29
12
9
27
46
61
53
36
29
12
9
27
46
62
53
36
30
13
9
27
46
63
50
36
30
13
9
27
45
62
50
38
29
12
9
27
45
62
49
38
29
13
9
30
45
61
49
38
29
13
9
29
43
60
50
40
29
13
10
30
44
61
51
40
28
13
10
31
44
61
50
40
28
13
10
31
44
61
52
40
30
13
10
31
44
64
52
40
31
13
10
31
44
63
50
40
30
13
10
31
44
62
50
42
31
13
10
31
44
62
50
43
31
13
10
32
44
62
50
44
30
14
10
32
46
62
50
44
32
13
10
33
45
62
50
44
31
13
10
34
45
62
51
45
31
14
10
34
45
64
50
44
34
13
10
35
46
63
50
44
34
14
10
36
46
63
48
44
34
14
10
36
46
64
48
44
36
14
10
36
47
62
50
44
36
14
10
37
47
63
50
44
36
14
10
37
48
63
51
44
37
14
10
37
48
64
50
44
37
14
10
37
47
65
49
44
37
14
10
36
44
65
49
44
37
14
10
36
47
64
49
44
38
16
10
36
48
66
50
44
38
16
10
40
47
66
50
43
39
15
10
40
47
66
50
43
39
17
10
40
46
66
51
43
39
17
10
40
46
66
51
43
39
18
10
40
47
67
50
43
39
17
10
39
47
67
50
42
39
17
10
40
47
66
52
42
39
17
10
39
48
67
52
42
39
17
10
40
51
68
52
43
39
17
10
40
51
70
52
44
40
17
9
41
51
71
52
43
40
17
9
40
50
70
53
43
40
17
9
40
50
72
54
42
40
17
9
42
51
72
54
41
41
17
9
43
50
71
54
41
41
17
9
43
49
71
55
41
41
16
9
43
49
72
56
41
40
17
9
43
49
73
56
41
41
17
9
43
49
74
56
41
41
17
10
44
52
75
55
41
42
17
11
45
52
72
54
41
43
17
12
45
52
71
54
41
42
17
12
45
53
70
55
43
42
17
13
45
53
72
56
40
43
18
13
45
54
72
56
40
44
18
13
43
53
72
56
41
44
19
13
43
53
73
55
40
45
20
13
43
53
73
54
40
47
20
14
43
52
73
54
41
47
20
14
43
53
72
55
41
46
20
15
43
55
70
55
41
45
21
16
43
55
71
55
41
45
21
17
43
57
71
55
40
44
21
17
43
56
71
55
41
44
21
17
43
57
71
55
40
44
21
18
43
56
70
55
39
43
22
18
42
57
71
56
40
44
22
18
42
58
70
58
39
45
23
18
42
58
68
57
39
43
23
18
41
56
69
57
39
43
23
19
40
56
68
57
40
43
24
19
40
56
67
57
40
41
25
19
40
56
68
57
40
41
26
19
39
55
66
57
40
42
27
19
39
55
67
57
42
41
27
19
40
55
66
58
42
41
28
20
40
55
65
57
42
41
28
20
39
55
66
59
43
41
28
20
39
53
66
59
43
40
28
20
39
52
63
58
43
42
28
21
36
54
66
56
43
40
28
22
36
54
67
56
42
42
27
22
37
55
68
56
42
41
27
22
38
55
69
57
42
43
27
22
37
56
68
56
42
43
27
22
37
56
68
57
44
43
27
23
41
56
68
56
44
45
28
23
40
55
67
56
45
45
28
23
40
53
66
56
43
45
28
24
39
54
64
57
43
45
28
24
39
53
63
58
43
44
29
25
39
53
61
58
42
45
29
25
39
54
59
56
42
45
29
25
37
53
61
57
41
45
29
25
35
54
60
56
41
46
30
25
35
55
61
55
41
45
30
25
35
57
59
55
41
45
30
25
35
57
59
54
41
44
30
25
35
56
61
54
41
44
30
25
36
54
60
54
41
43
30
24
36
56
60
55
41
43
30
24
36
55
60
55
42
44
30
24
36
57
61
54
40
44
30
24
36
57
60
53
41
46
30
24
36
58
61
54
42
47
30
24
36
60
60
54
41
47
29
24
36
60
60
54
41
47
29
24
36
61
62
54
41
45
29
24
36
61
62
54
41
46
29
23
36
61
62
52
41
46
29
23
35
59
62
52
41
46
29
23
36
60
62
51
41
47
29
22
36
59
63
51
41
47
29
22
36
60
63
51
41
47
29
23
38
60
63
51
41
47
29
22
38
60
63
51
41
47
29
22
38
60
63
51
41
46
29
22
38
60
63
48
41
46
29
22
38
60
65
50
42
47
29
22
38
61
65
49
42
49
29
22
38
61
66
50
42
49
29
22
38
61
66
50
42
50
29
22
38
61
66
49
42
50
27
22
39
61
66
48
42
50
27
22
39
63
65
48
38
50
26
22
38
64
65
45
38
50
26
22
39
64
65
45
39
50
26
21
39
63
65
42
37
50
25
21
40
63
65
41
37
53
25
21
40
63
66
41
37
53
25
21
40
61
63
42
37
53
25
20
40
61
62
42
37
54
25
20
39
60
61
43
37
54
25
21
39
61
60
41
38
55
26
21
39
60
61
41
38
55
26
21
39
61
61
40
36
55
26
21
35
61
62
41
37
54
25
20
35
61
62
40
37
54
25
20
35
61
63
40
37
54
26
21
35
60
63
40
37
54
26
20
35
61
63
40
37
54
25
20
35
61
62
39
37
53
27
20
35
61
63
39
36
54
27
20
36
63
62
39
37
54
26
20
35
62
62
39
37
53
27
20
35
63
62
39
37
55
27
21
35
62
63
39
37
56
28
21
36
62
62
39
37
56
28
21
35
62
60
41
37
57
28
21
35
62
60
43
37
57
29
21
34
61
60
42
37
57
29
21
36
61
60
43
36
58
29
21
36
59
59
44
37
59
29
21
35
59
59
44
36
58
29
21
35
58
58
43
35
56
28
21
35
56
58
44
35
56
28
21
35
56
58
44
34
56
29
21
35
57
56
44
34
55
29
21
36
57
56
45
33
55
29
21
36
57
56
44
34
55
29
21
36
57
57
44
34
55
29
21
35
58
55
44
34
55
29
21
35
58
54
44
33
57
29
21
35
57
54
44
32
57
29
20
32
57
54
45
31
57
29
20
32
57
54
47
32
57
29
21
32
56
56
46
32
57
29
21
32
56
55
46
31
57
28
21
32
56
53
44
29
59
28
21
31
56
55
45
29
57
30
21
31
56
55
44
30
57
29
21
31
56
55
45
30
56
29
21
32
56
55
46
30
56
29
21
31
55
55
46
30
56
29
21
31
53
56
45
30
55
29
21
31
53
55
45
30
55
29
21
32
53
55
46
29
55
29
21
31
53
56
46
29
56
30
21
32
56
57
47
29
54
29
21
31
57
56
47
29
53
30
21
32
57
56
47
29
53
30
21
32
57
56
47
29
51
30
21
32
58
56
47
29
51
30
21
31
57
56
48
28
50
30
21
31
57
56
48
28
51
30
21
31
56
56
48
27
52
33
21
32
56
55
49
25
51
33
20
32
56
57
49
26
51
33
20
33
56
58
50
26
54
33
20
34
56
60
50
26
55
32
20
34
55
60
49
28
55
32
21
34
56
60
49
28
54
31
20
34
54
60
49
28
54
32
22
33
52
59
49
28
56
32
22
33
52
60
50
30
56
31
22
33
49
60
50
30
54
31
22
33
49
58
50
31
55
30
22
32
51
58
50
31
55
30
21
32
50
58
48
31
54
30
21
32
49
58
49
31
54
30
22
32
49
58
48
31
54
30
21
30
49
58
50
31
52
30
21
30
50
58
49
31
51
30
21
29
50
59
49
30
50
31
22
29
52
61
49
30
52
31
22
30
53
62
48
31
53
31
22
30
51
62
48
31
53
30
22
29
51
63
48
31
53
31
22
30
50
64
48
31
55
31
22
30
50
64
48
30
55
31
22
29
50
63
51
32
55
31
22
29
49
63
51
32
54
31
23
29
48
63
51
32
53
31
23
30
47
63
51
32
54
33
23
30
48
63
50
32
54
33
23
30
48
63
48
33
54
34
22
30
48
61
50
33
54
33
23
30
48
61
52
33
55
33
23
30
48
61
52
34
54
36
24
30
48
59
53
34
53
35
23
32
49
59
52
34
53
35
23
33
49
59
53
35
53
35
23
33
49
59
53
35
53
35
23
34
49
60
53
34
53
35
23
33
48
60
53
35
54
35
23
33
47
61
54
35
55
35
23
32
47
61
54
35
56
35
23
33
47
59
54
35
55
34
23
31
44
59
54
35
56
34
23
31
43
60
54
35
56
35
24
31
44
61
54
36
58
38
25
30
44
61
54
37
59
38
25
31
43
61
55
38
59
39
25
31
43
62
54
38
58
38
24
31
43
62
55
40
60
39
24
31
43
63
55
41
59
36
24
30
43
66
54
41
59
37
24
32
44
65
54
41
59
37
24
32
46
63
53
40
56
36
24
33
48
61
52
41
56
37
24
32
48
62
51
40
56
37
23
32
48
62
52
40
56
36
23
32
48
62
52
41
56
36
22
32
48
61
52
41
55
36
22
32
48
61
51
39
55
36
22
32
48
61
52
39
54
36
21
32
48
61
52
40
53
36
21
32
46
60
52
41
53
36
21
32
46
60
52
41
53
36
21
31
46
60
50
40
54
36
21
31
46
60
50
40
55
35
21
31
46
59
49
41
55
35
21
31
45
59
49
41
55
35
21
31
44
57
48
41
55
35
20
31
41
55
48
41
54
35
20
30
41
54
48
41
53
34
20
31
41
54
48
41
52
35
20
31
40
53
48
41
52
34
20
30
40
51
48
40
50
33
19
30
40
51
47
40
50
33
19
30
40
51
44
39
50
33
19
30
40
50
44
39
50
33
19
30
39
51
44
38
48
33
19
30
39
50
44
38
48
31
18
30
38
50
44
38
47
30
18
30
38
50
44
37
47
30
18
30
38
50
42
37
46
29
17
30
38
50
39
37
45
29
17
29
37
50
38
37
45
26
16
29
37
50
37
36
44
25
16
27
34
50
37
36
44
25
16
25
34
49
35
35
44
25
16
25
34
48
34
35
44
25
16
25
34
46
34
35
44
25
16
25
34
45
35
34
43
25
15
25
34
44
35
33
41
25
15
25
34
44
34
34
40
25
15
25
33
44
33
34
40
24
15
25
32
42
33
34
38
24
15
24
32
40
33
34
38
23
13
24
32
39
33
33
34
17
10
24
31
39
34
32
34
17
10
24
31
39
31
32
32
16
10
24
30
37
31
31
32
16
10
25
30
36
29
29
27
12
9
25
30
32
29
28
27
12
9
25
30
27
29
28
26
10
9
24
27
24
29
28
26
10
9
24
24
24
29
27
26
10
9
21
19
23
29
26
25
10
10
23
19
22
29
28
25
10
9
24
19
22
28
28
24
10
9
25
18
21
27
27
24
9
10
25
18
20
27
27
22
9
9
26
18
20
26
28
22
8
10
28
17
19
25
28
21
8
10
28
18
19
24
26
22
8
10
28
18
19
24
25
21
8
8
29
17
19
24
27
22
8
8
29
17
19
24
28
18
8
8
29
17
19
24
29
16
8
8
31
18
19
24
28
19
8
8
31
21
19
24
30
19
7
8
31
21
19
24
32
19
7
8
31
21
19
23
35
19
7
8
33
22
19
23
35
19
7
8
34
22
17
23
35
20
6
7
34
21
17
23
35
20
6
7
35
21
17
23
35
22
6
8
35
21
17
22
35
22
6
8
36
21
16
22
35
23
6
8
36
21
16
22
35
23
6
8
36
21
16
23
36
23
6
8
36
21
16
23
36
26
6
8
37
21
16
23
36
29
6
8
37
21
16
23
36
31
7
8
37
21
16
22
36
31
7
8
37
21
16
22
38
32
6
8
38
21
16
22
40
32
6
8
39
21
16
21
41
33
6
8
39
21
16
21
41
33
6
8
39
25
16
21
44
35
6
8
39
25
16
21
44
35
6
9
38
25
16
20
44
35
6
8
38
25
16
20
44
37
6
8
38
25
16
18
44
37
6
8
38
25
16
17
44
37
6
8
39
25
16
17
44
37
6
8
39
25
16
17
45
37
6
8
39
25
15
16
45
37
6
8
39
24
15
15
45
36
6
9
39
24
14
14
45
37
6
8
39
24
14
13
44
37
6
8
39
24
13
11
44
37
6
8
38
24
13
11
44
37
6
8
38
23
13
10
44
37
6
8
38
23
14
9
43
37
6
8
37
23
14
9
44
37
6
8
37
23
14
10
45
37
6
8
37
23
14
10
45
37
6
7
37
22
13
10
44
37
6
7
37
22
13
9
44
37
6
7
37
22
13
9
44
37
6
7
37
22
12
9
44
37
6
7
36
22
12
10
44
37
6
7
35
22
11
10
44
37
6
7
34
22
10
9
44
36
6
7
34
22
10
9
44
36
6
7
35
22
10
9
42
36
6
7
35
22
10
9
42
36
6
7
35
22
10
9
42
36
6
7
33
20
9
9
42
34
6
7
33
18
9
9
42
34
5
6
33
18
9
9
40
34
5
6
34
17
9
9
38
34
5
6
33
16
9
9
38
34
5
6
31
16
9
9
40
34
5
6
31
16
9
8
40
33
5
6
30
16
9
8
40
32
5
5
30
15
9
8
40
32
5
5
30
15
9
8
40
31
5
5
30
15
9
8
40
31
5
5
30
15
8
8
40
31
5
5
29
15
8
8
40
28
4
5
29
15
8
7
40
25
4
5
29
15
8
7
40
23
4
5
29
14
8
7
40
22
4
5
29
14
7
7
39
22
4
5
27
14
7
7
38
21
4
5
26
14
7
7
37
19
4
5
26
14
7
7
36
19
4
5
26
6
7
7
34
15
4
5
26
5
7
6
35
15
3
4
26
5
7
6
34
15
3
4
26
5
7
6
34
11
3
4
26
5
7
6
34
11
3
4
26
5
7
6
34
11
3
4
24
4
7
6
34
11
3
4
25
4
7
6
33
11
3
4
25
4
7
6
33
11
3
4
27
4
6
6
33
11
3
4
26
4
6
7
33
11
4
4
26
4
6
7
33
11
4
4
26
4
6
7
33
12
4
4
27
4
6
7
33
12
4
4
27
4
6
7
33
12
4
4
26
4
5
7
33
12
4
4
26
4
4
7
33
12
4
4
25
4
4
7
32
12
4
4
25
4
4
7
32
12
4
4
24
4
4
7
32
12
4
4
23
4
4
7
32
12
4
4
22
3
4
7
31
12
4
4
22
3
4
7
31
12
4
4
22
3
4
7
31
12
3
4
21
3
4
6
30
12
3
4
21
3
4
6
30
12
3
4
21
3
4
6
31
12
3
4
20
3
4
6
31
12
4
4
19
3
4
6
30
12
4
4
19
3
4
7
30
12
4
4
19
3
3
7
29
11
4
4
19
3
3
6
29
11
4
4
19
2
3
6
29
11
4
4
17
2
3
6
28
11
4
4
17
2
3
6
28
11
3
4
17
2
2
6
24
10
3
4
17
2
2
6
24
10
3
4
18
2
2
6
24
10
3
4
17
2
2
6
23
10
3
4
17
2
2
6
23
10
3
4
17
2
2
6
23
10
3
4
17
2
2
6
23
10
3
4
17
2
3
6
23
10
3
3
16
2
3
6
22
10
3
3
16
2
2
6
22
10
3
3
16
2
2
6
21
10
3
3
16
2
2
6
21
10
3
3
16
2
2
6
20
10
3
3
16
2
2
6
19
10
3
3
15
2
2
6
19
10
3
3
15
2
2
6
19
10
3
3
15
2
2
6
18
10
3
3
16
2
2
6
18
10
3
3
16
2
2
6
18
10
3
3
16
2
2
5
18
10
3
3
16
2
2
5
18
10
3
3
16
2
2
5
18
10
3
3
15
2
2
5
18
9
3
3
14
1
2
5
19
9
3
3
11
1
2
5
18
9
3
3
11
1
2
4
18
8
3
3
11
1
2
4
18
8
3
3
11
1
2
4
18
7
3
3
11
1
2
4
18
7
3
3
11
1
2
3
18
7
3
3
11
1
2
3
18
7
3
3
11
1
2
3
18
7
3
3
11
1
2
3
17
7
3
3
11
1
2
3
17
7
3
3
11
1
2
3
17
7
3
2
11
1
2
3
18
6
3
2
11
1
2
3
18
6
3
3
11
1
2
3
18
6
3
3
11
1
2
3
18
7
3
3
11
1
2
3
17
6
3
3
11
1
2
3
17
6
3
3
11
1
1
3
16
6
3
3
11
1
1
3
15
6
3
3
11
1
2
3
15
6
3
3
11
1
1
3
15
6
2
2
11
1
1
3
15
6
2
2
11
1
1
3
15
6
2
2
10
1
1
3
15
6
3
2
10
1
1
3
15
6
3
2
10
1
1
3
15
6
3
2
10
1
1
3
15
6
3
2
10
1
1
3
15
6
3
2
9
1
1
3
14
6
2
2
9
1
1
3
15
6
2
2
8
1
1
3
15
6
2
2
8
1
1
3
15
6
2
2
8
1
1
3
15
6
2
2
8
1
1
3
14
6
2
2
7
1
1
3
14
6
2
2
7
1
1
3
14
6
2
2
7
1
1
3
14
5
2
2
7
1
1
2
13
5
2
2
7
1
1
2
13
5
2
2
7
1
1
2
13
5
2
2
7
1
1
2
13
5
2
2
7
1
1
2
13
5
2
2
7
1
1
2
13
5
2
2
7
1
1
2
12
5
2
2
7
1
1
2
12
5
2
2
6
1
1
3
12
5
2
2
6
1
1
3
12
5
2
2
6
1
1
3
12
5
2
2
6
1
1
3
12
5
2
2
6
1
1
3
10
5
2
2
6
1
1
3
10
5
2
2
6
1
1
3
10
5
2
2
6
1
1
3
10
5
2
2
6
1
1
4
10
5
2
2
6
1
1
4
10
5
2
2
6
1
1
4
10
5
2
2
5
1
1
4
10
5
2
2
5
1
1
4
10
5
2
2
5
1
2
4
10
5
2
2
5
1
3
5
10
5
2
2
5
2
3
5
8
5
2
2
5
2
3
6
8
5
2
2
5
2
3
6
8
4
2
2
4
2
3
6
8
4
2
2
4
2
3
6
8
4
2
2
4
2
3
7
8
4
2
2
4
2
3
7
8
4
2
2
4
2
3
7
7
4
2
2
4
2
3
7
7
4
3
2
4
2
3
7
7
4
3
2
4
2
4
7
7
3
3
2
4
2
4
7
7
3
3
2
4
2
4
7
7
3
2
2
3
2
4
7
6
3
2
2
3
2
4
7
6
3
2
2
3
2
4
7
5
3
2
2
3
2
4
7
5
3
2
2
3
2
4
7
5
3
2
2
3
2
4
7
5
3
2
2
2
2
4
8
4
3
2
2
2
2
4
8
4
3
2
2
2
2
4
8
5
3
2
2
2
2
4
8
5
3
2
2
2
2
4
8
5
3
2
2
2
3
5
8
5
3
3
2
2
3
5
8
5
3
2
2
2
3
5
8
5
3
3
2
4
3
5
8
5
3
2
2
4
4
5
8
5
3
2
2
4
4
5
8
5
3
3
2
4
4
5
9
5
3
3
3
4
4
5
9
5
3
3
3
4
4
6
9
6
3
3
3
4
4
6
9
7
3
3
3
4
4
6
9
7
3
3
3
4
4
6
9
7
3
3
3
4
4
6
9
7
3
3
3
4
4
6
9
8
3
3
3
4
4
6
9
8
3
3
3
4
4
6
9
8
3
3
3
4
4
7
9
8
3
3
3
4
4
7
9
8
3
2
3
4
4
7
9
10
3
2
3
4
4
7
9
11
4
2
3
4
4
7
9
12
4
3
3
4
4
7
9
12
4
3
3
4
4
7
9
12
4
3
3
4
4
7
9
13
4
3
3
4
4
7
9
13
4
3
3
4
4
7
8
13
4
3
3
4
4
7
8
13
4
3
3
4
4
7
8
13
4
3
3
4
4
7
8
13
5
3
3
4
4
7
8
13
5
3
3
4
4
7
8
14
5
3
3
4
4
7
7
14
5
3
4
4
4
7
8
14
5
3
4
4
5
7
8
14
5
3
4
4
4
7
8
15
5
3
4
4
5
8
8
15
5
3
4
4
5
7
7
15
6
3
4
4
5
8
7
15
6
3
4
4
5
8
7
16
6
3
4
4
5
8
7
16
6
3
4
5
5
8
7
16
6
3
4
5
5
9
7
16
7
3
4
5
5
9
7
17
7
3
4
5
5
9
7
19
7
3
4
5
5
10
7
19
7
3
4
5
5
10
7
19
7
3
4
5
5
11
7
19
7
3
4
5
5
16
7
19
7
3
4
5
5
18
7
19
7
4
4
5
5
18
7
19
7
4
4
5
7
18
7
19
8
4
4
5
11
18
7
20
8
4
4
5
11
19
7
22
8
4
4
3
11
19
7
22
8
4
4
3
11
20
7
22
8
4
4
4
11
21
7
23
8
4
4
4
11
21
8
24
9
4
4
4
11
22
8
25
11
5
4
4
11
22
8
25
11
5
4
4
12
22
8
25
12
4
4
4
12
22
8
26
12
4
4
4
12
22
8
26
13
5
4
4
13
22
9
29
13
5
4
4
15
22
9
29
14
5
4
4
16
22
9
33
15
6
4
5
17
24
10
33
15
6
4
5
17
25
9
34
15
6
4
5
17
27
10
34
16
6
4
5
17
27
10
35
16
6
5
5
18
27
12
34
16
6
5
6
18
27
12
35
16
7
5
6
18
27
12
37
16
7
5
7
19
27
12
37
16
7
5
7
19
27
12
38
16
7
5
7
19
27
13
38
16
7
5
7
19
27
13
38
16
7
5
7
19
28
13
39
17
7
5
7
19
30
13
39
17
7
5
7
20
31
13
41
17
7
5
7
20
32
13
41
17
7
5
8
20
32
13
44
17
7
5
8
21
32
13
44
18
7
5
8
21
32
13
45
18
8
6
8
21
33
13
45
18
8
5
8
22
33
14
45
18
8
6
8
22
33
14
46
18
8
6
9
22
33
14
45
20
8
6
9
23
34
14
46
20
8
6
9
23
35
15
46
22
8
6
9
23
35
17
49
22
8
6
9
23
35
17
49
22
9
6
9
23
37
17
51
22
9
6
9
23
37
17
51
22
9
6
9
23
37
19
50
23
9
6
9
23
38
19
51
23
9
6
9
23
40
19
53
23
9
6
9
23
42
19
53
23
9
6
10
24
44
21
54
23
9
6
10
24
45
21
54
23
9
6
10
24
45
21
54
24
10
7
10
23
45
21
54
24
10
7
10
22
46
21
55
24
9
7
10
22
47
21
54
24
10
7
10
22
49
23
54
24
10
7
11
23
50
25
54
25
10
7
11
23
50
25
54
25
10
7
11
23
50
25
54
25
10
7
11
24
53
25
55
25
10
7
11
24
54
28
55
26
10
7
11
24
55
29
55
26
10
7
11
24
57
30
55
27
10
7
11
24
58
31
55
27
10
7
11
23
58
31
54
28
10
7
11
22
58
31
55
28
11
8
11
22
59
31
52
27
11
8
11
22
59
33
52
29
12
8
12
22
59
33
53
28
12
8
12
22
59
34
55
32
12
8
12
22
59
38
54
35
12
8
12
22
59
37
54
34
12
8
12
22
59
38
55
36
12
8
12
23
60
39
54
36
12
8
11
23
60
40
54
36
12
8
11
23
60
41
53
36
12
8
11
23
61
41
54
36
12
8
11
24
63
41
54
38
12
8
12
24
63
41
54
38
12
8
13
24
62
42
55
38
12
8
13
24
62
42
55
39
12
8
14
25
62
42
55
39
12
8
14
24
62
44
53
39
12
8
14
24
63
46
54
39
12
8
14
24
63
47
53
38
12
8
14
24
63
47
54
39
12
8
14
23
63
47
55
39
12
8
15
23
64
48
56
40
12
8
15
27
63
48
56
39
12
8
15
26
63
49
56
39
12
8
15
26
62
48
56
38
12
8
15
26
63
48
53
38
12
8
16
27
65
48
54
38
12
8
16
27
65
49
52
39
12
8
16
27
65
50
53
38
12
8
17
28
66
49
53
39
13
8
18
28
66
50
52
39
13
8
18
28
65
49
51
39
13
8
18
28
63
50
51
41
13
8
18
27
61
49
51
41
13
8
19
28
60
49
52
41
13
8
19
28
60
50
53
41
13
8
19
29
63
50
53
41
13
8
19
28
62
50
53
41
12
8
19
29
62
50
53
42
13
8
20
30
61
50
54
42
13
9
19
30
60
49
55
42
13
9
21
30
59
51
55
43
13
9
21
30
61
51
55
42
13
9
21
30
58
51
54
41
14
9
20
30
58
50
55
44
14
9
23
30
60
51
54
45
14
9
23
30
59
53
54
44
16
10
23
30
58
52
54
44
16
11
23
31
58
55
55
44
16
11
23
35
59
55
55
45
16
11
26
40
61
55
58
45
16
11
27
40
63
55
58
44
15
11
27
40
63
56
57
44
16
11
27
40
64
55
55
42
16
11
29
41
65
52
55
40
16
12
29
42
65
53
55
40
17
12
29
42
67
53
54
39
17
12
29
42
67
52
54
39
17
12
29
44
67
52
54
40
17
13
29
46
67
51
54
40
17
13
29
47
69
52
54
40
17
13
33
48
69
52
54
38
17
13
34
49
69
52
54
38
17
13
34
49
69
51
53
38
17
13
35
50
69
52
53
37
19
14
34
51
68
51
53
38
19
14
34
51
70
52
53
38
20
15
34
51
69
50
53
39
20
15
34
51
71
50
52
39
21
16
34
52
72
50
52
39
20
16
34
52
73
51
51
39
20
16
35
53
73
54
50
38
21
16
35
51
74
53
50
40
20
16
35
51
74
53
50
40
21
17
35
52
74
54
50
41
21
17
35
52
74
54
50
41
21
17
35
52
72
54
49
43
21
17
35
53
72
54
50
43
21
17
35
53
72
53
49
43
21
18
34
54
72
53
49
42
21
18
34
55
72
53
49
42
21
18
34
55
72
53
49
44
21
18
34
55
73
54
49
44
21
18
34
56
73
54
48
45
21
18
35
57
73
55
47
45
21
18
36
57
73
55
47
45
21
18
36
57
73
55
46
45
21
18
36
57
73
57
46
45
23
19
36
57
72
57
46
44
23
20
36
57
72
57
44
44
23
19
35
57
72
58
44
45
23
19
35
58
73
57
44
47
23
19
35
58
73
57
43
51
24
19
35
58
73
58
43
51
23
19
36
58
73
59
43
48
23
20
34
59
71
58
43
48
24
20
34
60
71
57
43
48
23
19
34
60
73
58
43
49
23
19
34
60
74
56
43
49
24
19
35
58
74
56
42
50
24
20
33
55
72
56
38
49
23
19
32
55
71
56
39
49
23
20
33
55
71
56
39
49
23
19
33
55
70
56
39
49
23
19
33
55
69
55
39
49
23
19
34
54
69
55
40
49
22
19
34
53
67
55
40
50
23
19
34
55
67
56
40
51
23
19
34
55
68
57
40
52
23
18
34
54
67
57
40
52
23
18
34
53
65
58
39
53
23
19
30
51
66
58
41
53
23
18
28
50
66
58
42
53
23
18
28
50
67
58
41
53
23
18
28
50
66
58
40
54
22
18
28
48
66
58
39
54
22
18
28
49
65
56
39
54
21
17
28
48
65
56
40
55
20
17
29
48
63
56
41
55
20
17
29
47
62
56
41
55
20
17
29
47
62
54
40
55
20
17
29
47
61
52
39
55
20
17
29
47
60
52
40
54
20
17
29
47
60
52
40
54
20
16
29
47
61
54
40
53
19
16
29
48
62
54
40
53
19
16
29
47
62
53
40
52
19
16
30
47
62
55
40
53
20
16
29
46
61
55
40
53
20
16
29
45
61
55
41
55
20
16
29
44
61
55
41
57
20
16
29
44
61
56
41
56
20
16
30
44
60
55
42
55
20
16
29
43
60
55
42
55
20
17
28
41
60
55
42
54
21
17
27
41
62
54
41
54
21
17
27
41
60
54
41
54
21
17
30
42
60
53
40
54
20
16
30
41
60
53
41
54
19
16
30
42
60
52
41
55
19
16
30
42
62
51
41
54
19
16
30
41
61
51
41
52
19
16
29
41
60
51
41
49
18
16
30
41
62
50
41
49
19
15
29
43
60
47
41
49
18
16
30
42
62
47
41
49
18
16
31
41
64
48
40
51
18
16
32
42
61
48
42
51
18
16
32
40
60
48
43
51
18
16
31
41
61
48
42
50
18
15
31
42
60
48
42
51
18
15
31
41
61
46
41
51
18
15
31
41
62
46
42
51
18
15
32
42
64
46
42
51
18
15
30
41
64
46
42
51
18
15
30
41
64
47
42
53
18
15
30
41
66
46
41
54
19
17
30
40
67
44
41
54
19
17
30
38
66
44
42
53
18
17
30
38
66
44
42
52
18
17
30
38
66
42
42
52
18
17
30
38
65
46
39
51
18
17
30
40
65
46
40
52
18
17
29
40
64
46
42
52
18
17
30
41
65
46
42
52
18
17
30
45
65
46
42
53
19
17
30
45
65
46
42
52
19
17
30
45
65
45
41
53
19
17
29
45
65
47
41
53
20
18
31
45
65
48
40
54
21
18
31
45
65
48
41
53
21
18
31
45
64
48
41
53
22
18
31
44
64
50
41
54
23
18
31
44
64
51
41
54
23
18
31
44
63
49
42
54
23
19
31
42
62
49
42
54
24
19
31
43
61
48
42
55
24
19
31
44
61
49
41
55
24
19
32
44
61
48
41
56
24
20
32
44
62
49
40
53
24
20
32
44
61
48
40
51
24
20
34
46
61
48
42
51
24
20
35
47
62
48
43
52
24
20
35
47
62
49
43
52
24
20
35
47
63
48
43
52
24
19
35
47
61
48
43
52
24
20
36
47
62
48
43
52
23
19
34
46
62
48
43
53
24
19
34
46
62
48
45
53
24
19
34
45
62
50
45
53
24
19
34
46
60
52
46
53
24
19
34
45
60
51
45
55
24
19
34
45
60
52
45
54
24
19
34
45
58
53
44
56
23
19
34
43
58
53
44
56
23
19
34
43
58
53
44
56
24
19
32
43
57
52
45
54
24
19
32
43
59
51
46
52
23
19
34
44
59
51
46
53
23
19
34
44
57
51
45
52
23
19
34
43
57
51
46
51
23
19
33
43
57
52
46
52
23
19
34
43
57
52
45
52
22
19
33
42
56
52
45
52
23
19
33
42
54
52
45
52
23
19
33
44
57
53
45
51
23
19
33
44
54
53
45
49
22
18
33
45
54
53
45
48
22
17
33
44
54
54
45
50
24
18
33
44
54
53
45
50
24
18
33
44
54
53
45
51
25
18
33
44
54
52
45
52
25
18
33
43
54
52
44
52
25
18
33
43
55
52
42
52
25
18
33
42
55
52
43
52
25
17
33
38
56
52
43
50
25
17
32
38
56
52
43
53
26
18
33
38
57
52
43
51
26
18
32
38
57
51
45
51
25
17
32
38
57
51
45
50
24
16
33
39
58
53
45
51
24
16
33
40
58
52
45
51
23
16
32
43
59
51
45
51
23
16
32
43
60
51
44
51
22
16
32
43
60
51
44
51
22
15
33
43
60
51
44
53
21
15
32
42
60
53
44
52
21
15
32
42
62
51
44
51
22
15
32
43
61
53
44
50
22
14
32
43
61
53
43
53
22
14
32
44
62
54
43
54
22
13
30
42
62
54
40
53
23
14
28
41
62
53
39
53
22
14
28
41
62
53
39
52
22
14
28
41
63
53
39
52
21
14
28
40
64
53
39
52
21
14
28
40
63
54
39
52
21
14
27
40
63
54
40
51
21
14
27
40
64
55
37
52
21
15
26
40
65
54
37
51
21
15
26
39
66
56
37
52
22
15
27
40
66
56
37
50
22
15
27
40
65
55
38
51
22
14
27
39
65
55
38
49
22
14
27
39
66
55
39
50
23
15
27
39
64
54
43
51
23
14
27
40
64
54
42
51
24
15
27
40
62
54
39
51
25
15
23
39
63
55
38
51
25
15
24
39
64
55
38
51
25
16
24
39
64
55
37
51
25
16
24
39
63
54
37
50
25
16
23
39
61
55
37
50
25
16
23
39
61
54
37
50
25
16
23
39
61
54
38
53
25
16
23
37
59
54
40
55
25
16
23
37
61
54
42
55
26
17
23
37
61
53
42
56
26
18
23
37
60
53
42
54
25
18
23
37
62
53
43
54
24
18
23
39
63
53
43
53
24
18
24
41
63
51
43
52
26
20
28
41
63
51
43
52
26
20
29
41
64
51
43
52
26
21
29
43
65
51
43
52
26
21
31
44
65
51
43
55
26
21
32
44
65
52
43
52
26
21
31
47
64
52
43
52
26
22
32
50
64
52
41
52
27
22
31
49
63
51
40
52
27
22
29
50
63
49
41
52
27
22
29
50
64
50
41
53
27
22
29
49
63
49
40
54
27
22
29
49
62
49
42
54
27
22
29
49
63
49
42
54
27
22
29
49
63
50
42
52
27
22
29
49
63
49
43
52
28
24
29
49
63
49
43
52
27
25
28
49
65
48
43
53
28
25
28
50
65
48
44
51
27
25
28
49
64
48
44
50
28
25
29
50
63
48
44
51
28
25
29
50
64
48
47
51
28
25
29
49
63
47
47
51
28
26
29
49
62
48
47
52
29
26
28
50
61
48
47
52
29
26
28
50
61
48
46
52
29
26
28
50
61
48
46
51
29
26
28
50
61
46
48
52
29
26
28
52
60
44
48
52
29
26
28
52
60
41
48
52
29
25
27
52
60
41
48
52
30
25
27
53
60
41
47
51
30
26
28
53
60
41
47
51
30
26
29
53
60
41
46
50
29
26
29
53
60
40
44
51
29
26
29
54
60
42
44
51
28
26
29
54
61
42
44
51
28
26
30
55
60
42
44
51
28
26
29
55
59
42
44
50
28
26
29
55
61
41
44
50
28
26
29
55
60
41
44
50
31
26
29
55
60
41
44
50
32
26
30
55
60
41
44
50
32
26
30
55
61
40
43
47
33
26
31
55
61
40
41
46
32
26
31
56
59
41
40
48
32
25
31
56
60
40
39
47
31
26
32
58
60
41
40
46
31
26
32
60
58
41
40
47
31
25
32
59
58
42
40
46
31
25
30
58
56
42
40
46
30
24
27
57
56
42
40
46
30
24
27
57
54
41
41
47
30
24
26
56
51
41
40
48
30
23
23
56
52
41
40
48
30
24
24
57
52
41
40
48
29
24
24
54
52
42
40
48
28
22
23
52
51
43
40
48
28
22
23
52
53
44
40
47
30
22
23
50
53
45
39
47
31
23
23
50
52
44
39
47
32
23
23
49
53
45
39
46
32
23
23
49
53
43
38
47
32
23
24
50
53
43
37
47
33
23
24
50
53
42
37
46
33
23
24
50
53
41
36
46
32
21
24
50
51
42
36
47
32
20
24
50
49
39
36
46
32
19
25
49
49
39
35
45
32
19
25
49
49
39
35
47
31
19
25
48
49
39
35
47
31
19
25
48
49
39
32
47
31
18
25
49
49
40
32
47
31
18
24
49
48
39
32
47
30
18
24
48
48
39
33
47
30
18
25
49
48
38
33
47
30
18
25
49
47
38
33
47
30
18
25
48
47
39
29
45
30
17
25
47
47
39
28
46
30
17
25
46
46
39
28
46
30
18
25
46
45
38
28
46
29
18
25
46
46
38
29
46
29
17
27
46
45
38
29
46
29
17
27
45
45
38
28
46
29
16
27
45
44
38
27
44
29
16
27
44
44
35
27
44
29
16
27
43
43
35
27
44
29
15
26
42
43
34
27
44
28
15
26
42
43
34
26
44
28
15
26
42
40
34
26
44
28
15
26
41
40
34
26
43
24
14
26
41
40
34
26
43
23
14
26
41
39
34
26
43
22
14
25
40
38
35
25
43
22
14
24
40
36
35
25
42
22
14
24
40
36
34
25
39
22
14
24
38
35
34
25
39
22
12
23
34
35
34
22
39
22
12
23
31
35
33
22
38
21
12
23
30
35
32
22
38
21
12
23
29
35
32
21
38
21
12
22
29
35
32
21
38
21
12
24
29
34
32
19
36
21
12
24
29
34
33
19
35
21
12
24
29
32
34
19
32
21
12
23
27
32
33
19
32
21
12
24
27
32
32
18
32
21
11
24
29
32
30
18
32
20
11
24
29
28
30
18
31
17
11
24
28
28
29
18
30
15
9
24
28
28
29
18
29
14
9
24
27
26
28
18
29
14
9
25
26
27
27
17
27
11
9
24
26
27
27
17
26
11
9
24
26
26
26
18
26
11
9
24
25
25
26
21
26
11
9
24
23
24
26
20
25
10
9
24
22
24
26
20
24
10
9
23
21
24
25
20
24
9
9
24
21
23
25
20
20
8
9
24
22
23
24
22
19
9
9
24
22
21
24
25
16
8
9
24
23
21
22
27
17
8
9
25
23
22
22
29
17
8
9
25
23
21
22
29
17
8
9
24
22
21
22
29
16
8
9
25
22
20
24
29
15
8
9
26
22
20
23
30
14
7
9
29
23
20
23
30
14
7
9
29
25
20
23
30
13
6
9
29
25
20
23
31
14
7
9
29
25
19
23
32
16
7
9
27
25
18
24
32
15
7
9
25
24
18
24
32
15
7
9
25
25
18
24
32
15
7
9
27
25
18
24
33
16
7
9
28
25
18
24
33
15
6
9
28
25
18
24
35
15
7
9
28
25
17
24
36
15
7
9
29
25
17
24
37
16
7
9
30
26
18
24
37
16
7
9
30
27
18
23
37
16
7
9
30
27
18
23
37
16
7
10
30
27
18
23
38
16
7
10
30
26
18
22
39
17
7
10
30
26
18
22
40
18
7
10
30
26
18
22
40
19
7
10
30
26
18
22
41
19
7
10
30
26
18
22
41
19
7
10
31
26
18
22
41
19
7
10
31
26
18
22
41
19
7
9
30
26
18
22
42
20
7
9
29
26
18
21
45
22
7
9
30
27
18
20
46
24
8
9
30
27
18
19
46
25
8
9
29
27
17
18
46
25
7
9
29
27
17
18
46
25
7
9
29
24
16
17
46
25
7
9
29
24
16
17
46
25
7
9
29
24
17
16
46
25
7
9
29
24
17
16
47
25
7
9
29
24
17
16
47
25
7
9
29
25
16
16
47
25
8
9
29
25
15
16
47
26
8
9
29
25
15
16
47
27
8
9
29
25
15
16
46
28
8
9
29
25
15
16
47
29
8
8
29
24
15
16
47
29
8
8
29
24
14
16
47
29
8
8
28
24
14
16
46
29
8
8
28
24
15
16
45
29
7
8
28
24
14
16
44
29
7
8
28
22
15
16
43
29
7
8
29
22
14
16
41
29
7
8
28
22
13
16
41
29
7
8
28
22
13
15
41
29
7
8
28
22
13
12
42
29
7
8
27
22
13
12
42
29
7
8
24
21
13
12
42
28
7
8
25
19
13
12
42
28
7
7
25
19
13
12
42
28
7
7
25
19
13
11
41
27
7
7
25
18
13
10
42
27
7
7
24
18
12
10
41
27
7
7
24
18
12
10
42
27
7
7
22
18
12
10
41
27
7
7
21
18
12
9
41
27
6
7
21
17
12
9
39
27
6
7
21
17
12
9
38
27
6
6
20
17
12
9
38
27
6
6
19
16
11
8
38
27
6
6
20
15
11
8
38
27
6
6
21
14
11
8
38
27
6
6
20
14
11
8
37
26
6
6
20
14
11
8
36
26
6
6
20
13
10
7
35
25
6
5
20
14
10
7
35
25
6
6
21
13
10
7
35
25
6
6
21
13
10
7
34
25
6
6
20
13
10
7
34
25
6
6
21
13
10
7
34
25
6
6
21
13
10
7
34
24
6
6
21
13
10
7
29
22
6
5
20
13
10
7
26
20
5
5
20
12
10
7
26
19
5
5
20
12
10
6
26
19
5
5
20
12
10
6
26
19
5
5
20
12
10
6
26
19
5
5
20
12
10
7
28
19
5
5
20
11
8
7
28
19
5
5
19
11
8
7
29
19
5
5
19
11
8
7
28
18
4
5
19
10
8
7
28
18
4
5
20
10
8
7
28
18
4
5
20
10
7
7
28
16
4
5
20
10
7
7
27
14
4
5
20
9
7
7
27
13
4
5
20
9
7
6
26
12
4
5
20
9
6
6
26
12
4
5
21
9
6
6
27
12
4
5
23
9
5
6
26
12
4
5
23
9
5
6
26
12
4
5
22
8
4
6
26
12
4
5
22
5
4
6
26
12
4
5
22
5
4
6
26
12
4
5
22
5
4
6
26
12
4
5
22
5
4
6
26
12
4
5
22
5
4
6
25
12
4
5
22
5
4
6
25
12
4
5
21
5
4
5
24
12
4
5
21
4
4
5
23
11
4
4
22
4
4
5
23
11
4
4
22
4
4
5
22
11
4
4
22
4
4
5
23
11
4
4
22
4
4
5
24
11
4
4
22
4
4
5
24
11
4
4
23
3
4
5
25
10
3
4
23
3
4
5
25
10
3
4
23
3
4
5
25
11
3
4
23
3
4
5
25
11
3
4
23
3
4
4
24
11
3
4
22
3
4
4
24
11
3
4
21
3
3
4
24
12
3
4
21
3
4
4
23
12
3
4
21
3
3
4
23
11
3
4
21
3
4
4
23
11
3
4
21
3
3
4
23
11
3
4
20
3
3
4
23
11
3
4
20
3
3
4
23
11
3
4
20
3
3
4
23
11
3
4
20
2
3
4
23
11
3
4
20
2
3
4
23
11
3
4
20
2
3
4
24
11
3
4
20
2
3
4
24
11
3
4
20
2
3
4
24
11
3
4
20
2
3
4
24
11
3
4
20
2
3
4
24
11
3
3
20
2
3
4
24
11
3
3
20
2
3
4
22
11
3
3
20
2
2
4
21
11
3
3
20
2
2
4
20
11
3
3
20
2
2
4
20
11
3
3
20
2
3
4
21
11
3
3
19
2
2
3
21
11
3
3
18
2
2
3
21
11
3
3
18
2
2
3
21
10
3
3
18
2
2
3
21
10
3
3
18
2
2
3
20
10
3
3
18
2
2
3
20
10
3
3
16
2
2
4
20
10
3
3
14
2
2
4
20
10
3
3
14
2
2
4
20
10
3
3
14
2
2
4
20
10
3
3
14
2
2
4
20
10
3
3
13
2
2
4
20
10
3
3
13
2
2
4
19
10
3
3
13
2
2
4
19
9
3
3
13
2
2
4
19
9
3
3
13
2
2
4
19
9
3
3
13
1
2
4
19
9
3
3
13
1
2
4
19
9
3
3
12
1
2
4
19
9
3
3
11
1
2
4
19
9
3
3
11
1
2
4
18
9
3
3
11
1
2
4
15
9
3
3
11
1
2
4
15
9
3
3
9
1
2
4
14
9
3
3
9
1
2
4
14
9
3
3
9
1
2
4
13
7
3
3
9
1
2
4
14
8
3
3
9
1
2
4
14
7
3
3
9
1
2
4
14
7
3
3
9
1
2
4
14
7
3
3
9
1
2
4
14
7
3
3
8
1
2
4
14
7
3
3
8
1
2
4
14
7
3
3
8
1
2
4
14
7
3
3
8
1
2
4
14
7
3
3
8
1
2
3
14
8
3
3
7
1
2
4
14
7
3
3
6
1
2
4
14
7
3
3
6
1
2
4
14
7
3
3
6
1
2
4
13
8
3
3
6
1
2
4
13
7
3
3
6
1
2
3
13
7
3
3
6
1
2
3
13
7
3
3
6
1
2
4
13
7
3
3
6
1
2
3
13
7
3
3
6
1
2
3
13
7
3
3
6
1
2
3
12
7
3
3
6
1
2
3
12
7
3
3
6
1
2
3
12
7
3
3
5
1
2
3
10
6
3
2
5
1
2
3
10
7
3
2
6
1
3
3
10
7
3
2
5
1
4
4
10
7
3
2
5
1
4
5
10
7
3
2
5
2
4
4
10
7
3
2
5
2
4
5
10
6
3
2
5
2
4
5
10
6
3
2
5
2
4
4
10
6
3
2
5
2
4
4
10
6
3
2
5
2
4
5
10
6
3
2
5
2
4
4
10
6
3
2
5
2
4
5
10
6
3
2
5
2
4
5
9
6
3
2
5
2
4
5
9
6
3
2
5
2
5
5
9
6
3
2
4
2
5
7
9
5
3
2
4
2
5
8
9
5
3
2
4
2
6
8
9
5
3
2
4
2
6
10
9
5
3
2
4
2
6
11
9
5
3
2
4
2
6
11
9
5
3
2
4
2
6
11
9
5
3
2
4
2
6
11
8
5
3
2
4
3
6
11
9
5
3
2
4
3
6
11
9
5
3
2
4
3
7
11
9
5
3
2
4
3
7
11
8
5
3
2
4
4
7
11
8
5
2
2
4
4
7
11
8
5
2
2
4
4
7
11
8
5
2
2
4
4
7
11
7
5
2
2
4
4
7
11
7
5
2
2
4
4
7
11
7
4
2
2
4
4
7
11
7
4
2
2
4
5
7
11
6
4
2
2
5
5
7
11
6
4
2
2
5
5
7
11
6
4
2
2
5
5
7
11
6
4
2
2
5
5
8
11
6
4
2
2
5
5
8
11
5
3
2
2
5
5
8
11
6
3
2
2
5
5
8
11
6
3
2
3
5
5
8
11
5
3
2
3
5
5
9
11
6
3
2
3
5
5
9
11
7
3
2
3
5
5
9
11
8
3
2
3
5
6
9
11
8
3
2
3
5
9
9
11
9
3
2
3
5
11
10
11
9
3
2
3
5
11
10
11
9
3
2
3
5
11
10
11
9
3
2
3
5
11
9
11
10
3
2
3
5
11
9
11
10
2
2
3
5
11
9
11
10
3
2
3
5
11
9
11
10
3
2
3
5
11
9
11
10
3
2
3
5
11
9
11
10
3
2
3
5
11
9
11
11
4
2
3
5
11
10
11
12
4
2
3
5
11
10
12
12
4
2
3
4
11
10
12
12
4
2
3
4
11
10
12
12
4
2
3
4
11
10
12
12
4
2
3
4
11
10
12
12
4
2
3
4
11
10
11
13
4
2
3
4
11
10
10
15
4
2
3
4
11
10
10
15
4
2
3
4
12
10
10
15
4
2
3
4
12
10
8
15
4
2
3
4
12
10
7
16
4
2
3
4
12
10
7
16
4
2
3
4
12
10
7
16
4
2
3
4
12
10
7
16
4
2
3
4
12
10
7
16
4
2
3
4
11
10
7
16
4
2
3
4
11
10
7
16
4
2
3
4
11
10
7
16
4
2
3
4
11
10
7
16
4
2
3
4
11
10
7
17
5
2
3
4
11
10
7
18
5
2
3
4
11
11
7
18
5
2
2
4
11
10
7
18
5
2
2
4
11
10
7
19
5
3
2
3
11
10
7
19
5
2
2
3
11
10
7
19
5
3
2
3
11
13
7
20
5
3
2
3
11
15
8
20
6
3
2
3
11
15
9
20
6
3
2
3
11
14
9
20
6
3
2
3
11
15
9
21
6
3
2
3
11
15
9
21
6
3
2
3
11
15
9
23
7
3
3
3
11
14
9
23
7
3
3
3
11
14
9
23
7
3
3
3
11
14
9
23
7
3
2
3
11
14
9
23
7
3
3
3
11
14
10
23
7
3
2
3
8
14
10
23
7
3
2
3
5
14
10
23
7
3
3
3
5
14
11
23
7
4
3
3
5
14
11
23
7
4
3
3
5
15
11
24
7
4
3
3
5
15
12
25
7
4
3
3
5
15
12
25
7
4
3
3
5
15
13
25
7
4
3
3
5
15
15
25
7
4
3
3
4
15
15
25
7
4
3
4
5
15
15
25
7
4
3
4
5
15
16
25
7
4
3
4
6
16
16
25
7
4
3
4
6
16
18
25
8
4
3
4
10
17
18
25
10
4
3
4
11
17
18
25
10
4
3
4
11
17
18
26
11
4
3
5
12
19
19
28
11
4
3
7
16
20
19
26
12
4
3
7
16
20
19
26
12
4
3
7
16
21
19
26
13
4
3
7
16
21
19
26
13
4
3
7
17
21
19
26
13
4
3
7
17
21
20
26
13
4
3
8
17
21
20
28
14
5
3
8
18
23
20
31
14
5
3
8
18
23
20
31
15
5
3
8
18
23
21
32
15
5
3
8
19
24
21
32
15
5
3
8
19
24
21
32
15
5
3
9
19
24
21
33
15
5
3
9
19
24
22
32
15
5
3
9
19
25
22
33
16
5
3
9
19
25
22
34
17
6
3
10
20
25
23
33
17
6
3
11
20
25
23
33
17
6
3
11
20
26
23
34
17
6
3
11
21
26
24
34
18
6
3
11
21
25
24
33
19
6
4
13
23
24
26
34
19
6
4
14
24
25
28
36
19
6
4
14
25
25
28
36
22
6
3
14
25
25
28
36
23
7
3
14
25
26
28
37
23
7
3
14
25
27
29
36
24
7
3
14
25
28
29
36
25
7
3
14
25
28
29
36
27
7
3
14
25
28
29
36
28
7
3
15
26
28
30
37
28
8
4
15
26
28
29
37
29
8
4
15
26
29
29
36
29
8
4
15
28
29
30
37
29
8
4
15
29
30
29
38
32
8
4
15
29
30
30
38
32
8
4
15
29
29
30
37
33
8
4
15
30
30
30
38
35
9
5
15
30
31
30
38
37
9
5
17
31
32
31
38
38
9
5
17
31
33
31
39
40
9
5
17
32
33
31
38
41
9
5
17
32
33
31
38
41
9
5
18
32
37
31
38
42
9
5
19
33
38
31
38
43
10
6
19
33
38
31
39
43
10
6
19
32
38
31
40
43
10
6
19
32
38
31
41
43
10
6
19
32
38
31
41
43
10
6
19
32
37
31
40
47
10
6
18
31
37
31
40
47
10
6
18
31
38
31
40
47
11
6
19
31
37
31
40
47
12
6
19
31
38
32
40
50
13
6
19
31
38
32
40
51
13
6
19
33
38
32
40
51
13
7
20
33
39
33
39
53
13
7
19
34
37
36
37
54
13
7
20
34
38
36
38
55
13
7
20
34
38
37
38
55
13
7
20
34
37
37
38
55
13
7
20
34
37
37
39
55
13
7
20
35
38
38
39
55
13
7
20
36
38
38
39
55
13
7
20
36
38
38
38
55
13
7
20
36
39
38
38
55
13
7
20
35
39
39
38
55
14
8
19
37
40
39
38
55
14
8
19
38
39
38
38
55
14
8
19
38
39
39
38
55
14
8
20
39
39
39
38
55
14
8
18
38
39
38
37
54
14
8
18
37
39
37
37
55
14
8
18
37
41
37
37
57
15
8
18
37
44
37
38
57
15
8
18
38
44
36
36
58
15
8
18
38
44
36
36
58
15
9
18
39
43
36
36
57
15
10
18
39
45
36
36
57
15
10
20
40
45
37
37
57
16
10
22
44
45
36
37
57
16
10
22
45
45
37
37
58
16
10
22
45
46
38
37
58
16
10
23
44
47
38
36
58
16
10
24
43
47
38
35
56
16
11
24
43
47
38
35
58
16
11
24
43
47
38
36
58
17
10
24
43
47
38
35
56
17
10
24
43
46
38
35
56
17
11
23
42
46
38
35
55
17
11
23
43
45
38
34
54
17
11
24
43
45
38
34
54
17
11
24
42
46
38
34
54
16
11
24
43
44
38
34
53
16
11
25
42
44
38
34
53
16
11
25
43
43
38
34
53
16
11
25
43
44
38
32
53
16
11
25
43
45
38
31
53
16
11
25
43
45
38
32
53
17
11
25
43
44
41
31
51
17
11
25
43
47
41
31
51
17
11
26
43
48
41
32
53
16
12
26
44
50
45
33
53
16
12
28
44
50
45
33
51
16
12
28
44
50
44
33
50
16
12
28
43
50
45
34
50
18
13
28
43
50
44
33
47
19
13
30
42
51
42
33
46
19
13
30
43
52
44
31
46
19
13
30
43
53
43
31
47
19
13
30
44
54
45
31
47
20
13
30
44
54
45
33
47
21
13
31
43
53
44
36
47
21
13
31
44
53
44
37
47
22
14
31
46
56
44
37
48
22
14
31
46
56
45
37
48
22
14
31
46
55
45
36
48
22
14
30
44
55
47
36
49
22
14
30
44
55
47
37
49
23
14
30
44
55
47
36
51
23
15
30
43
55
47
36
52
24
15
31
44
55
47
36
52
24
15
32
46
55
48
35
54
25
15
35
48
54
48
35
51
24
15
36
49
51
50
34
51
24
15
36
48
52
51
34
52
24
16
36
51
53
51
35
53
25
15
36
50
53
51
35
53
24
15
36
51
54
51
36
53
25
15
35
50
53
52
39
55
24
15
34
46
53
52
39
56
25
15
34
45
54
51
39
55
25
15
34
46
54
51
40
55
25
16
34
46
53
51
40
55
25
16
34
47
52
51
40
55
25
15
35
47
52
50
40
54
25
15
35
47
52
50
40
54
25
15
35
48
53
50
40
55
24
16
34
49
53
51
40
56
25
16
35
52
53
49
40
57
25
16
35
51
53
49
40
58
25
16
34
51
53
50
40
58
25
16
34
51
52
50
40
58
27
16
34
51
51
53
40
57
27
16
33
52
51
55
40
57
29
16
33
51
52
55
40
57
29
16
33
51
52
55
40
57
29
16
33
51
53
55
40
57
29
17
33
50
53
55
40
57
29
16
34
51
53
53
41
58
29
17
34
50
50
54
41
57
29
17
33
50
50
54
40
57
29
17
33
51
47
51
40
58
29
16
32
51
46
52
41
57
29
16
31
51
47
51
41
57
29
16
31
50
47
51
40
58
28
16
31
51
46
51
41
58
26
16
31
52
47
51
41
59
26
16
30
53
48
49
41
59
26
16
30
53
47
49
41
58
26
16
30
53
47
49
41
58
26
16
30
53
49
49
38
58
26
17
30
53
49
49
35
57
26
17
30
52
49
48
35
59
26
16
32
51
46
48
35
58
26
16
32
51
45
48
35
58
26
17
32
51
45
47
36
59
26
17
32
51
46
46
36
59
26
17
32
52
47
46
35
59
26
17
32
52
47
46
35
58
25
17
32
52
49
46
35
57
25
17
31
51
50
45
35
58
25
17
30
50
49
44
35
56
24
16
28
48
50
44
35
57
24
16
27
47
51
42
35
56
24
16
26
47
50
41
35
54
24
17
26
44
50
41
34
55
23
16
26
45
50
41
34
54
23
16
26
44
48
42
33
55
23
16
26
45
49
40
29
55
24
16
26
45
50
40
29
54
24
16
26
45
48
40
29
54
24
16
26
44
48
40
28
55
24
16
26
46
48
40
28
56
25
16
25
46
48
40
29
55
25
16
25
45
48
40
30
55
25
16
25
45
49
39
30
55
25
16
25
44
48
40
32
54
26
16
25
44
48
40
32
55
26
16
25
40
48
40
32
54
26
16
25
40
49
40
32
54
26
16
26
40
49
39
32
55
26
16
26
40
49
38
32
55
24
15
26
40
49
36
33
55
24
15
26
39
49
32
35
55
22
15
26
39
49
32
36
55
22
15
25
39
49
32
36
55
22
15
25
39
47
32
36
54
22
15
25
39
48
31
35
56
22
15
25
39
50
31
35
55
23
14
25
39
50
29
34
55
23
14
25
39
50
29
34
55
23
14
25
38
50
29
34
54
23
14
25
38
50
30
34
53
23
14
25
38
50
30
34
54
23
14
25
39
50
29
35
53
23
14
27
38
50
29
34
53
23
14
26
37
49
29
35
55
23
14
26
35
49
29
34
55
23
14
26
34
49
30
35
57
23
14
26
34
48
28
35
57
23
14
26
34
46
28
35
60
23
13
25
33
46
28
34
60
22
13
24
32
47
28
34
58
22
13
23
32
47
28
35
59
22
13
23
32
47
28
35
59
22
12
23
32
47
28
34
59
21
12
23
31
47
27
34
59
21
12
23
31
46
26
35
60
21
13
23
31
46
28
35
60
22
13
23
31
44
28
37
62
22
13
23
30
43
27
38
61
22
13
23
31
44
27
38
62
21
13
22
31
43
27
39
61
21
13
22
30
43
28
38
63
21
12
22
30
42
28
38
63
21
11
22
30
42
28
38
62
22
12
22
30
42
28
39
62
22
12
22
30
42
26
39
61
23
12
22
29
41
26
39
60
22
12
22
29
40
26
39
60
22
12
22
29
40
26
39
60
23
13
22
29
40
27
39
59
22
13
22
26
40
27
39
61
21
13
22
28
40
27
38
61
21
13
22
30
40
28
37
61
21
13
22
29
39
28
37
63
21
13
23
29
39
28
36
63
20
13
23
29
39
27
35
62
20
13
22
28
38
27
35
62
20
13
22
28
38
27
35
60
21
13
21
28
38
28
37
60
20
13
20
28
37
27
37
61
20
13
20
28
38
26
37
61
21
13
20
28
37
26
35
62
21
13
20
28
37
26
34
64
21
13
20
28
37
26
33
64
21
13
20
28
38
26
33
64
20
12
20
28
36
26
34
63
21
13
22
28
34
26
35
62
21
13
22
27
34
26
35
61
21
13
22
28
34
26
36
63
20
13
22
27
34
25
36
65
21
14
23
29
33
23
35
65
24
14
23
30
33
23
35
65
25
14
23
29
33
22
35
64
25
14
21
29
34
23
35
66
26
14
21
29
33
23
35
64
26
14
21
30
30
23
35
64
27
15
21
30
30
22
35
64
27
14
21
30
30
22
35
64
27
14
21
30
30
22
35
62
27
14
21
31
30
22
35
62
27
15
21
31
30
22
35
64
27
15
21
31
30
23
35
64
27
15
21
31
30
23
35
63
27
15
21
30
30
23
35
63
27
15
21
30
30
23
35
62
27
15
21
31
33
23
33
61
28
15
21
31
33
22
34
62
27
15
21
31
33
22
32
60
28
15
21
31
34
22
31
62
28
15
21
30
32
22
32
63
28
15
21
31
32
22
32
63
28
15
21
31
32
21
32
61
28
15
21
31
32
21
34
61
28
15
21
32
32
21
34
60
28
15
21
32
32
21
33
60
28
15
21
32
32
22
34
60
28
16
21
32
32
22
36
60
28
16
21
32
34
23
36
59
28
16
21
32
35
24
36
60
28
15
21
33
35
24
35
59
28
15
20
33
35
24
36
57
28
15
20
32
35
24
36
58
28
15
19
31
35
23
37
57
28
14
20
30
35
22
37
56
28
14
19
33
35
23
37
55
28
15
19
35
35
22
37
55
29
15
19
35
35
22
37
55
29
15
20
35
35
22
38
56
28
15
19
35
35
21
36
58
28
15
20
35
35
21
35
57
28
15
20
35
35
22
35
57
28
15
20
36
36
24
36
55
28
15
19
36
35
24
36
54
28
16
21
37
35
24
36
54
28
16
21
37
34
25
37
54
29
16
20
37
34
25
36
54
28
16
18
37
38
25
35
55
28
16
18
38
38
26
35
56
28
15
18
39
37
26
34
55
28
15
18
39
37
26
34
52
28
15
17
38
37
26
34
53
26
16
17
37
37
26
34
53
24
16
17
37
37
26
33
54
26
16
17
37
37
26
34
54
25
16
17
37
37
26
34
56
26
16
16
36
37
25
34
55
25
15
17
36
36
25
34
55
24
16
17
36
36
26
34
54
24
16
17
36
36
26
34
54
24
16
17
36
36
26
34
54
24
16
17
36
36
27
34
51
25
15
17
37
36
27
34
51
25
15
17
38
36
27
35
52
25
15
17
38
35
27
35
53
25
15
17
37
35
27
36
52
25
14
17
37
32
27
36
55
25
14
16
36
32
27
36
54
25
14
16
36
33
27
36
53
25
14
18
38
32
27
36
51
25
15
19
40
32
27
35
49
25
15
19
39
33
27
36
50
25
15
19
40
32
27
35
50
25
15
19
40
33
27
33
51
25
16
19
41
33
27
34
52
25
16
19
41
33
28
33
52
25
16
19
41
32
27
32
53
25
16
18
41
32
27
31
54
25
16
18
41
30
27
31
56
25
16
19
41
29
28
34
57
26
16
19
41
27
30
34
57
26
16
18
40
28
29
35
57
26
16
19
40
29
29
34
59
26
16
19
40
29
29
33
59
26
16
19
41
29
29
33
59
26
16
20
39
30
29
33
59
26
16
20
39
30
29
33
59
26
16
19
39
31
29
33
59
26
16
19
39
31
29
33
59
26
16
19
39
31
30
34
57
26
16
19
39
31
30
34
57
26
16
20
39
31
29
34
57
27
17
20
39
31
28
33
58
27
17
20
39
31
28
32
58
27
16
18
38
31
28
33
57
27
16
18
38
31
27
34
57
26
16
18
38
31
27
34
59
26
16
18
38
26
27
34
59
28
17
18
37
26
27
34
58
28
17
18
36
26
27
34
58
27
16
18
36
25
29
35
61
27
16
19
36
26
29
34
60
29
17
19
38
26
29
35
60
29
17
18
38
25
29
36
59
28
17
18
38
25
29
35
59
28
17
19
38
25
29
34
57
27
16
19
38
26
29
34
57
27
16
19
38
26
29
35
57
27
16
18
38
26
29
35
57
27
15
18
38
26
29
35
58
27
15
18
38
26
29
35
58
26
15
19
38
25
28
35
58
26
15
19
37
25
28
35
59
26
16
19
37
26
28
35
58
26
16
20
41
26
27
34
58
26
16
20
42
26
27
34
58
26
16
20
42
27
27
33
56
26
15
20
42
26
26
33
56
26
15
20
41
24
26
33
56
26
15
19
40
24
26
33
57
26
15
18
38
24
26
32
57
26
15
18
38
24
26
31
56
25
15
18
37
24
26
32
56
25
15
18
37
23
26
32
55
25
13
18
36
23
26
32
55
25
13
19
36
22
25
32
54
23
13
19
35
22
24
32
53
23
13
19
35
23
24
32
52
23
13
19
35
23
23
31
50
23
13
19
35
23
22
28
48
22
13
19
35
23
19
27
48
22
13
19
35
22
19
27
48
22
13
19
35
20
19
27
46
22
13
18
34
19
19
27
46
21
12
18
33
19
19
27
45
21
12
18
33
18
19
26
45
21
12
18
31
18
19
25
45
21
12
17
31
17
19
25
45
21
12
17
31
17
19
25
44
21
12
17
31
16
20
25
44
20
12
17
31
16
20
24
44
19
12
17
31
17
19
24
44
18
11
17
30
17
19
24
42
18
11
16
30
17
19
24
42
17
11
18
30
17
20
23
42
17
10
20
30
17
19
21
41
17
9
20
30
16
19
21
39
17
9
20
29
16
19
21
38
14
8
20
29
16
19
21
38
14
8
20
29
15
19
20
38
14
8
20
29
15
17
19
33
14
8
20
29
15
16
19
32
9
6
20
27
15
16
17
31
9
6
20
26
14
16
17
31
9
5
24
26
15
15
17
29
8
6
28
25
14
16
17
28
8
5
28
26
14
16
17
28
8
5
28
26
14
15
15
28
8
5
28
26
14
15
16
26
8
5
29
26
14
15
16
24
8
6
29
26
14
16
16
24
8
6
29
26
14
16
15
24
8
6
29
25
14
15
17
20
8
6
29
24
14
15
18
20
6
5
29
18
13
15
19
19
6
5
29
16
12
15
19
19
6
5
29
16
12
15
19
18
6
5
29
16
12
15
19
18
6
5
29
16
12
15
20
17
6
5
29
16
14
16
20
14
6
5
30
16
14
16
20
13
6
5
30
16
14
15
22
12
6
5
31
16
14
15
22
12
6
5
31
17
13
15
22
12
6
6
31
18
13
15
22
11
6
6
32
20
14
15
22
11
6
5
32
20
14
16
22
11
5
5
33
20
14
16
22
10
6
5
33
20
13
16
22
11
5
6
34
21
13
16
26
10
4
6
34
22
13
16
26
10
4
6
34
22
13
16
27
10
4
6
35
22
13
16
28
10
4
7
38
22
15
16
28
9
4
7
38
22
15
16
28
10
4
7
38
22
15
15
28
10
4
7
38
22
15
15
28
11
4
8
38
22
15
15
30
10
4
8
38
22
16
15
30
11
4
8
40
22
18
13
32
12
5
7
40
22
18
13
34
12
5
8
40
22
16
13
35
12
5
8
40
22
16
13
36
12
5
8
40
22
16
13
36
12
5
8
40
22
16
12
36
12
5
8
39
23
17
12
37
14
5
8
39
23
17
13
40
14
5
8
39
23
17
13
41
14
5
8
40
23
18
14
44
18
6
8
40
23
18
14
45
18
6
8
40
22
18
13
46
18
6
8
40
22
18
13
46
18
6
8
40
22
18
13
46
18
6
8
40
22
18
13
47
18
6
8
37
22
18
13
47
19
6
8
35
21
18
12
48
19
6
8
35
21
18
12
48
19
6
8
37
21
18
12
48
19
6
8
37
21
18
12
48
19
6
8
36
21
18
12
48
19
6
8
36
20
18
12
48
20
7
8
36
20
19
12
48
20
7
8
36
20
19
12
47
20
7
8
36
20
18
12
47
20
7
8
36
19
18
12
47
20
7
8
36
19
18
12
47
20
7
8
36
19
18
11
48
20
7
8
36
19
18
11
48
20
7
8
36
19
18
11
48
21
7
8
36
19
17
10
49
21
7
8
35
18
17
10
49
21
7
8
35
18
17
10
48
21
7
8
34
18
17
10
49
21
7
8
34
17
17
10
49
21
7
8
36
16
17
11
50
21
7
8
36
14
17
11
50
22
7
8
35
13
16
10
50
22
7
8
34
13
16
10
50
22
7
8
34
13
16
10
50
22
7
8
33
11
16
10
48
22
7
8
33
8
16
10
48
22
7
8
33
8
17
9
48
23
7
8
32
8
18
9
47
23
6
7
29
8
16
9
47
23
7
7
29
8
16
9
47
23
7
6
29
8
16
9
47
22
6
6
29
8
16
9
47
22
6
6
28
8
16
9
46
22
6
6
28
8
15
9
46
22
6
6
26
8
13
9
45
22
6
6
25
8
13
9
43
22
6
6
25
8
13
9
43
22
6
6
25
8
13
9
42
22
6
6
25
7
13
9
42
22
6
6
25
7
13
9
42
22
6
6
25
7
12
9
42
21
6
6
26
7
12
9
38
22
6
5
26
7
12
8
37
22
5
5
25
7
11
7
34
19
4
5
26
7
11
7
32
18
4
5
26
7
11
7
32
18
5
5
25
7
11
7
32
18
4
5
25
7
11
7
32
18
4
5
25
7
11
7
29
18
4
5
25
7
10
7
29
17
4
5
24
7
10
7
29
17
5
5
24
7
10
7
27
17
4
5
21
6
10
7
28
17
5
5
21
6
10
7
28
17
5
5
22
6
10
7
28
18
5
5
22
6
10
7
28
17
4
5
22
6
9
6
28
17
4
5
23
6
8
6
28
17
4
5
23
5
8
6
26
17
4
5
22
5
8
6
27
17
4
5
22
5
8
6
25
17
4
5
22
4
8
6
24
16
4
5
22
4
8
6
24
16
4
5
22
4
8
6
24
16
4
5
22
4
8
6
23
17
4
5
22
4
8
6
23
17
4
5
22
4
8
6
23
17
4
5
22
4
8
6
22
16
4
5
22
4
8
6
21
16
4
5
18
4
7
5
19
16
4
5
17
4
7
5
19
16
4
5
17
3
8
5
19
16
4
4
17
3
8
5
20
16
4
4
17
3
8
6
20
16
4
5
17
3
8
6
20
16
4
4
17
3
8
6
20
15
4
4
17
3
5
6
20
14
4
4
17
2
4
6
20
14
4
4
17
2
4
6
20
14
4
4
17
2
4
5
20
14
4
4
17
2
4
5
20
14
4
4
17
2
4
5
20
14
4
4
17
2
4
5
20
14
4
4
17
2
4
5
20
14
4
4
17
2
4
5
19
13
4
4
17
2
4
5
20
12
4
4
17
2
4
6
20
12
4
4
17
2
4
5
19
12
4
4
16
2
4
6
19
12
4
4
16
2
4
5
19
12
4
4
16
2
3
5
19
11
4
4
15
2
3
5
18
11
4
4
15
1
3
5
18
11
4
4
14
1
3
5
19
10
4
4
14
1
3
5
19
10
4
4
14
1
3
4
19
11
4
4
14
1
3
4
19
11
4
4
14
1
3
4
19
11
4
4
14
1
2
4
19
10
4
4
14
1
2
4
19
10
4
4
14
1
3
4
19
10
4
4
14
1
2
4
19
10
4
4
14
1
2
4
19
10
4
4
14
1
2
4
18
10
4
4
14
1
2
4
18
10
4
4
13
1
2
4
18
9
4
4
13
1
2
4
18
9
4
3
11
1
2
4
18
9
4
3
11
1
2
4
18
9
4
3
11
1
2
4
18
9
4
3
11
1
2
4
18
9
4
3
11
1
2
3
18
9
4
3
11
1
2
3
17
9
4
3
11
1
2
3
17
9
4
3
11
1
2
3
16
8
3
3
11
1
2
3
16
7
3
3
10
1
2
3
15
7
3
3
10
1
2
3
15
7
3
2
10
1
2
3
15
7
3
2
10
1
2
3
15
7
3
2
10
1
2
3
13
7
3
2
10
1
2
3
13
6
3
2
10
1
2
3
12
6
3
2
10
1
2
3
12
6
3
2
10
1
2
2
11
6
3
2
10
1
2
2
11
5
3
2
10
1
2
2
11
5
3
2
10
1
2
2
11
5
3
2
9
1
2
3
9
5
3
2
9
1
2
3
9
5
3
2
9
1
1
3
9
5
3
2
9
1
1
3
9
5
3
2
9
1
1
3
9
5
3
2
9
1
2
3
9
5
3
2
9
1
1
3
9
5
3
2
9
1
1
3
9
4
3
2
9
1
1
3
9
4
2
2
9
1
1
3
9
4
2
2
9
1
1
3
9
4
2
2
9
1
1
4
9
4
2
2
5
1
1
4
9
4
2
2
5
1
1
4
9
4
2
2
5
1
1
4
9
4
2
2
5
1
1
4
8
4
2
2
4
1
1
4
8
4
2
2
4
1
1
4
8
4
2
2
4
1
2
4
7
4
2
2
4
2
2
4
7
4
2
2
4
2
2
4
6
4
2
2
4
2
2
5
6
3
2
2
3
2
2
5
5
3
2
2
3
2
3
5
5
3
2
2
3
2
3
5
5
3
2
2
3
2
3
5
5
3
2
2
3
2
3
5
5
3
2
2
3
2
3
5
5
3
2
2
3
2
3
5
5
3
2
2
2
2
3
5
5
3
2
2
3
2
3
5
6
3
2
2
2
2
3
6
6
3
2
2
2
3
3
6
6
3
2
2
2
3
4
6
6
3
2
2
2
3
4
6
6
2
2
2
2
3
4
6
6
2
2
2
2
3
4
6
5
2
2
2
2
3
4
6
6
2
2
2
2
3
4
6
6
2
2
2
2
3
4
6
6
2
2
2
2
3
4
6
6
2
2
2
2
3
4
6
6
2
2
2
2
3
4
6
6
2
2
2
2
3
5
6
6
2
2
2
2
4
5
6
7
2
2
2
2
4
5
6
7
2
2
2
2
4
6
6
7
2
2
2
2
4
6
6
7
2
2
2
2
4
6
6
7
2
2
2
2
4
6
6
8
2
2
2
2
4
6
6
8
2
2
2
2
4
6
6
8
2
2
2
2
4
6
6
8
2
2
2
2
4
6
6
8
2
2
2
2
4
6
6
7
2
2
2
2
4
6
6
7
2
2
2
2
4
6
6
7
2
2
2
2
4
6
6
7
2
2
2
2
4
6
6
8
3
2
2
2
4
6
6
8
3
2
3
3
4
6
6
8
4
2
3
3
4
8
6
8
4
2
3
3
4
8
6
8
4
2
2
3
4
8
6
8
4
2
2
3
4
8
6
8
4
2
2
3
4
9
6
10
4
2
2
3
4
9
8
10
4
2
2
3
4
9
8
10
4
2
2
3
5
9
9
10
4
2
2
3
5
9
9
10
4
2
2
3
4
9
8
10
4
2
2
3
4
9
8
11
4
2
2
3
4
9
8
11
4
2
2
3
4
8
8
11
4
2
3
3
4
8
8
11
6
2
3
3
4
8
8
14
8
2
3
3
4
9
9
16
8
2
3
3
4
9
9
16
8
2
3
3
4
9
8
16
8
2
3
3
4
11
8
16
8
2
3
3
4
11
8
16
8
2
3
3
4
11
8
16
9
3
3
3
4
11
8
16
9
3
3
3
5
11
8
16
9
3
3
4
5
11
8
17
9
3
3
4
5
11
8
17
9
3
3
3
5
11
9
17
9
3
3
3
5
11
9
17
9
3
3
4
6
11
9
17
9
3
3
4
6
11
9
17
9
2
3
4
6
11
9
17
9
3
3
4
7
11
9
17
9
3
3
4
7
12
11
17
9
3
3
4
7
13
11
17
9
3
3
4
8
13
12
16
9
3
3
4
8
13
12
17
9
3
3
4
8
13
12
17
9
3
3
4
9
14
13
17
9
3
3
4
9
14
13
17
9
3
3
4
9
14
13
18
10
3
3
5
9
14
13
18
10
3
3
5
9
14
13
19
10
3
3
5
10
15
13
19
11
3
3
5
11
15
13
19
11
4
3
5
13
15
13
21
12
4
3
9
15
15
16
22
12
5
3
9
15
15
17
23
12
6
4
9
15
15
17
23
13
6
4
10
17
16
17
23
13
6
4
10
17
16
17
24
13
6
4
10
17
16
17
25
13
6
4
10
17
16
17
28
13
6
4
10
17
16
17
29
14
7
4
10
18
16
17
29
14
7
4
10
18
16
17
31
14
7
4
10
18
16
17
30
14
7
4
10
18
16
17
31
14
7
4
10
18
16
17
31
15
8
4
10
18
16
17
31
15
8
4
10
18
16
17
31
15
8
4
10
18
16
18
32
15
8
4
10
18
16
18
32
15
8
4
11
18
16
18
32
15
8
4
11
18
16
18
32
15
8
4
11
18
17
18
33
15
8
4
11
19
17
18
32
14
8
4
11
19
18
18
34
14
8
4
11
19
18
18
33
14
8
4
11
19
18
19
33
14
8
4
11
19
19
20
34
14
8
4
11
19
19
20
34
14
8
4
11
20
19
20
34
14
8
4
11
20
19
20
38
15
8
4
11
19
19
20
39
16
8
4
11
19
19
21
39
16
8
4
11
19
19
21
39
17
8
4
11
20
19
21
39
17
8
4
14
20
19
20
40
17
8
4
15
19
19
20
40
17
8
4
15
19
19
20
40
17
8
4
15
19
19
20
40
17
8
4
15
19
19
20
41
17
8
4
15
19
19
20
41
17
8
5
15
19
19
19
43
18
8
5
15
19
19
19
43
17
8
5
16
19
20
19
43
17
8
5
16
19
22
19
43
17
8
5
16
19
21
19
43
17
8
5
16
19
21
18
43
18
8
5
16
19
21
19
44
19
9
5
16
19
22
19
44
18
9
5
17
22
22
19
44
18
9
5
17
22
22
19
44
18
9
5
18
21
24
19
44
18
8
5
18
19
24
19
43
18
8
5
19
18
25
18
43
18
8
5
20
18
25
17
42
18
8
5
20
18
25
16
42
18
7
5
20
17
25
16
43
18
7
5
21
17
25
18
43
17
7
5
21
17
25
18
43
17
7
5
21
17
26
18
41
17
7
5
21
17
26
18
40
17
6
5
20
17
26
18
41
17
6
5
21
16
27
18
41
18
7
5
21
16
28
18
41
18
7
6
21
17
29
18
40
18
7
6
21
17
30
17
40
18
7
6
21
17
30
17
40
18
7
6
21
17
30
17
41
18
7
6
21
17
33
17
41
19
7
6
21
17
37
17
41
19
7
5
21
18
37
17
42
19
7
5
22
18
37
17
42
19
7
5
24
18
39
18
44
19
7
5
24
18
40
19
43
19
7
5
24
19
40
19
45
20
7
5
24
19
40
22
47
23
8
6
24
19
42
21
47
22
8
6
24
19
43
21
48
22
8
6
24
19
43
21
48
22
8
6
24
18
43
20
48
22
8
6
24
19
43
20
45
22
8
6
25
19
43
25
44
23
8
6
25
22
47
25
44
23
9
6
25
23
50
25
45
23
9
6
25
24
51
26
45
24
9
6
24
24
51
26
46
24
10
6
23
24
51
26
48
24
11
6
24
25
52
28
48
25
11
6
24
25
52
29
48
25
11
6
24
26
52
30
47
28
11
6
24
26
52
30
48
30
12
7
24
27
52
31
47
31
12
7
24
27
52
34
47
31
12
6
24
27
52
34
49
32
13
7
24
27
51
35
49
32
14
7
24
28
51
37
49
32
14
7
25
28
51
38
49
32
14
7
25
28
51
38
49
32
14
7
25
28
52
40
49
32
14
7
25
27
54
40
49
32
14
7
24
27
54
40
50
34
14
7
24
28
54
40
49
34
15
7
24
30
54
40
49
34
15
7
22
30
55
40
50
35
15
7
20
30
55
41
50
35
15
7
21
30
56
42
50
37
15
7
20
31
56
42
50
37
15
7
20
31
56
43
49
40
15
7
20
32
56
43
49
40
15
7
20
33
57
44
49
40
15
7
22
33
57
45
49
40
15
8
23
33
57
48
49
40
15
8
22
33
59
50
48
40
15
8
23
34
61
50
48
44
15
8
24
34
61
50
48
45
15
8
25
34
61
51
49
45
15
8
25
34
61
51
49
46
15
8
25
34
62
51
48
46
16
9
26
35
60
51
47
46
16
9
26
36
58
51
47
47
16
9
25
35
58
53
47
48
17
9
24
35
59
52
47
49
18
9
24
36
58
53
45
50
18
9
24
36
59
52
45
51
18
9
25
37
60
54
42
51
18
9
28
39
59
52
40
52
18
9
28
39
59
52
40
52
18
9
29
39
58
52
39
52
18
9
29
40
58
53
39
52
18
10
32
43
58
53
38
53
20
10
34
45
58
54
39
53
20
10
33
45
58
55
39
52
20
10
33
44
57
55
39
53
20
10
33
44
55
55
39
53
20
10
33
43
55
56
39
53
20
10
33
44
54
56
38
53
20
10
34
44
54
57
36
54
19
10
34
44
56
58
36
53
19
10
34
45
56
58
36
54
20
11
34
45
57
58
37
54
20
11
35
45
57
58
37
52
20
11
35
47
58
57
36
52
20
11
35
47
60
56
36
52
20
11
35
47
60
57
36
51
19
11
35
50
60
56
36
54
19
11
36
50
60
56
35
54
20
11
36
51
61
55
35
54
19
11
36
51
61
56
35
55
20
11
36
51
60
57
34
55
20
12
36
51
59
57
34
55
21
12
39
52
61
58
34
56
21
12
39
51
61
59
35
57
21
12
39
50
60
59
35
57
21
12
39
50
60
59
38
56
21
12
39
50
59
59
39
56
21
12
40
52
59
59
40
55
23
12
41
55
59
59
40
56
23
12
42
56
59
60
39
54
23
12
43
56
61
60
39
55
23
12
43
58
61
60
39
55
23
12
42
58
61
60
39
58
24
12
43
58
61
58
39
58
24
12
43
59
59
56
41
58
24
12
43
58
58
58
43
55
24
12
42
58
56
59
43
54
24
13
45
60
58
59
42
54
24
13
45
61
58
59
42
55
24
12
45
61
58
59
42
54
24
12
45
60
59
59
42
55
24
12
45
61
59
60
42
55
24
13
45
61
59
58
42
55
24
14
46
61
58
58
42
54
24
13
45
61
58
60
41
54
24
13
46
63
56
61
42
54
24
14
46
63
56
60
42
54
24
14
44
62
56
61
42
54
25
14
44
64
58
62
42
54
25
14
44
67
57
62
43
54
25
14
44
67
58
62
42
55
25
14
42
64
58
62
43
55
24
14
41
63
59
62
43
54
24
14
41
63
59
60
43
54
24
14
42
64
57
60
42
54
24
14
43
64
57
60
42
55
24
14
42
65
57
59
43
55
25
14
42
67
57
59
42
57
26
14
42
69
57
59
42
56
26
14
42
69
55
58
42
58
26
14
42
68
56
57
42
58
26
14
42
68
57
58
40
57
26
14
42
68
57
58
40
58
26
14
44
67
58
57
40
57
25
14
44
67
57
58
40
57
26
15
45
67
58
57
38
57
26
15
45
65
60
57
38
57
26
15
45
65
59
57
38
58
26
16
44
64
59
57
38
58
26
16
44
64
60
56
38
60
26
16
45
65
60
55
38
60
26
16
45
65
60
56
38
61
26
16
42
64
58
54
38
59
25
16
42
64
58
54
38
59
25
16
42
64
58
54
37
62
25
16
43
65
59
55
34
63
25
16
43
65
59
54
34
63
26
16
41
63
59
54
34
64
25
16
40
61
60
54
34
63
25
16
40
62
60
52
34
64
25
16
42
64
58
52
34
63
25
16
42
62
58
51
34
63
26
16
44
62
58
51
34
62
25
16
44
62
59
51
35
62
25
17
43
62
59
51
34
62
25
17
44
62
58
49
32
62
26
18
44
62
58
48
33
62
26
17
41
61
57
47
33
64
26
18
41
60
56
47
33
63
26
18
41
60
56
47
34
63
26
17
41
60
55
47
33
62
27
17
41
59
55
47
34
62
29
17
41
59
55
47
35
61
29
16
40
59
55
48
35
61
29
16
41
60
55
45
36
60
29
16
40
57
55
44
36
61
29
16
40
57
56
44
35
61
29
16
40
56
56
43
36
61
28
16
40
54
54
42
35
60
28
16
41
54
54
42
35
62
28
16
41
54
54
40
35
62
28
16
40
54
54
40
36
62
28
16
40
55
53
40
35
62
28
16
40
55
53
39
36
64
29
16
40
53
54
39
35
65
29
16
39
53
54
40
35
64
30
16
39
52
55
40
34
63
29
16
40
49
55
38
34
63
30
16
39
47
55
38
34
64
31
16
39
47
56
39
34
64
31
16
39
47
54
40
34
65
31
16
38
48
51
39
34
66
31
16
39
48
51
40
35
66
31
16
37
47
50
41
35
66
31
16
37
48
51
40
35
66
31
17
35
49
51
41
36
66
31
17
35
49
49
42
36
64
30
17
35
50
49
41
36
64
31
16
35
50
50
43
36
63
31
17
34
50
49
42
36
61
32
17
34
49
49
41
36
63
34
17
35
49
48
42
36
63
34
18
35
52
48
42
35
62
34
17
35
52
47
42
35
62
34
17
35
52
47
42
37
59
34
17
34
52
46
41
37
59
36
17
34
52
46
40
37
58
36
17
34
53
47
40
35
59
36
18
34
54
46
40
36
59
36
17
34
54
49
40
36
58
37
19
31
51
49
40
36
58
38
19
31
52
48
41
35
57
37
19
28
51
48
40
35
56
37
19
27
52
47
40
34
57
37
19
28
53
47
40
33
57
39
20
27
52
47
40
34
57
39
20
27
53
47
40
34
57
41
20
27
53
49
40
35
55
42
20
27
55
49
40
34
54
42
21
27
55
49
41
34
55
42
21
27
55
49
41
34
55
42
21
27
55
49
41
33
55
40
21
26
55
48
41
32
55
41
21
26
55
49
40
32
56
40
21
25
54
49
41
31
55
40
21
25
54
49
40
31
54
40
21
25
54
48
41
31
54
40
21
25
55
49
41
33
53
41
21
24
55
51
41
35
53
41
22
23
53
51
41
34
51
41
22
23
55
51
41
35
50
41
22
24
55
51
41
34
50
41
22
26
54
51
41
35
49
41
23
28
55
50
41
34
47
40
23
27
55
50
41
35
47
41
24
27
55
51
41
36
48
41
23
27
55
49
42
36
48
41
24
26
54
49
42
36
47
40
24
27
54
49
43
36
48
40
24
27
54
49
43
37
46
41
24
26
54
49
42
38
45
40
24
26
54
49
42
38
45
41
24
26
53
49
42
38
46
42
24
26
54
48
41
38
45
41
24
26
54
47
41
38
45
42
23
26
52
45
40
37
46
42
23
26
51
46
40
37
46
42
23
26
52
45
40
38
46
42
23
26
52
44
39
39
47
42
23
26
51
44
39
39
46
41
23
26
51
44
39
39
43
40
23
25
51
44
37
40
43
40
23
25
48
45
37
42
44
39
23
25
48
45
38
41
46
40
24
25
49
45
38
40
47
40
24
25
49
46
38
40
47
39
24
25
50
46
38
39
48
39
24
25
49
45
39
39
48
38
24
27
47
46
38
39
48
38
24
26
46
42
39
40
48
37
23
26
46
41
39
40
48
37
23
25
44
41
39
40
48
37
23
26
44
41
39
40
48
37
24
26
43
42
39
40
47
37
24
26
45
41
39
39
47
35
23
26
46
41
41
39
47
34
22
26
45
41
41
38
48
32
22
26
45
39
41
38
49
31
22
26
43
39
41
38
49
30
22
26
44
40
40
38
49
30
22
27
46
40
40
39
49
30
22
26
46
40
39
39
49
30
22
27
45
41
39
39
51
30
21
27
45
41
39
39
50
30
21
30
48
41
42
40
50
33
23
31
48
41
42
40
51
33
24
30
48
41
42
40
51
33
24
30
51
39
42
38
51
31
24
30
50
36
42
39
51
31
24
30
49
36
42
39
51
32
24
29
47
37
42
38
51
32
25
29
48
40
42
38
52
32
25
27
47
40
44
38
53
33
24
28
48
40
45
38
53
33
24
29
49
40
45
38
53
32
24
30
49
40
43
37
52
32
24
30
50
39
43
37
54
32
24
32
51
39
43
37
53
32
24
32
52
40
42
38
52
30
24
32
51
41
41
39
52
30
24
32
51
41
42
38
51
30
24
32
52
41
42
38
50
28
24
33
52
41
41
37
51
28
23
33
51
41
42
37
51
29
24
33
51
42
42
37
51
29
24
33
51
42
42
37
50
28
25
33
51
41
41
36
51
28
25
33
51
42
42
38
51
30
27
33
52
42
42
37
52
30
27
33
53
43
42
37
52
30
27
33
53
43
43
37
53
29
27
33
53
43
42
37
52
30
27
34
53
43
42
36
51
30
27
36
53
43
41
36
49
29
27
36
53
42
41
36
49
29
27
36
53
41
42
37
48
28
27
36
52
42
42
37
48
28
27
36
51
42
42
37
47
28
27
35
51
42
42
37
47
28
27
36
52
43
41
36
48
29
26
36
53
43
41
36
48
29
26
36
53
43
40
36
48
32
29
36
54
44
40
38
49
32
28
36
54
43
42
38
50
33
30
36
52
43
41
39
51
33
30
37
54
43
40
40
52
36
31
37
55
43
40
40
51
36
31
38
55
43
40
40
51
37
31
38
55
43
40
40
51
37
31
38
54
42
42
40
52
37
31
38
55
41
42
40
51
37
31
38
55
42
42
39
51
37
31
38
56
40
42
39
50
37
31
39
56
40
42
39
50
37
32
36
55
40
40
40
49
34
30
36
54
40
40
39
49
35
29
36
55
40
40
39
48
35
29
36
53
40
40
40
49
35
29
36
53
40
40
38
50
35
29
36
53
40
40
38
50
35
29
36
53
40
40
38
51
35
28
36
52
37
40
38
50
35
28
37
52
37
38
38
50
36
29
35
51
36
37
38
51
36
29
35
51
36
38
39
50
36
29
36
51
36
38
39
49
36
29
36
50
38
37
39
49
36
29
34
49
38
37
38
48
36
29
34
49
37
37
38
48
36
29
35
49
35
37
37
48
36
29
36
49
35
36
37
48
36
29
36
49
35
35
37
49
36
29
36
49
36
35
37
47
36
29
37
50
36
35
37
47
35
28
37
50
35
35
37
47
35
29
37
51
37
35
37
47
35
28
37
51
38
36
38
46
36
27
37
51
37
36
36
46
34
25
37
50
37
35
35
46
35
25
37
49
36
35
35
46
35
25
37
49
37
36
35
45
35
26
37
51
38
36
35
45
35
25
37
53
37
36
34
45
36
25
35
52
37
36
34
47
36
25
34
52
36
36
34
47
36
25
34
52
36
36
34
47
36
25
35
52
35
36
34
46
36
25
35
54
38
36
35
46
36
26
35
54
38
36
35
47
36
25
34
53
37
36
35
46
36
25
34
52
37
37
36
48
36
25
34
52
37
37
36
48
33
22
34
51
36
37
35
46
33
22
34
51
36
35
35
45
31
19
35
50
36
35
36
45
32
19
34
47
36
34
35
44
29
18
33
46
36
34
35
44
28
18
32
47
36
34
35
44
28
18
32
46
36
34
35
44
27
18
32
47
36
32
35
43
27
18
31
45
36
32
34
43
27
18
31
45
36
32
34
43
27
18
31
43
37
32
34
43
27
18
30
43
37
32
33
43
27
18
30
42
37
32
34
43
27
18
30
42
36
30
33
43
27
18
30
41
36
30
33
42
26
18
30
40
36
30
32
42
27
18
30
40
36
30
32
41
26
18
30
40
38
29
32
40
25
18
30
41
37
29
31
39
25
18
30
41
37
29
32
39
25
18
29
41
37
29
32
39
21
16
29
41
37
29
31
37
21
16
28
41
37
29
30
37
21
16
27
40
36
29
30
37
21
16
28
39
35
30
30
35
21
15
28
39
34
30
30
35
21
15
28
39
34
30
29
35
21
15
27
39
34
30
29
35
21
15
25
38
34
30
29
35
21
15
25
38
34
30
28
34
21
15
25
38
33
30
28
34
21
15
24
36
33
30
28
34
20
14
24
36
32
30
28
34
20
13
24
35
30
29
28
33
20
13
25
35
29
28
28
33
19
13
25
34
29
27
28
33
18
13
25
34
29
27
27
32
17
13
25
33
29
26
27
32
17
13
25
33
29
25
27
31
17
12
24
30
27
25
26
31
15
12
24
28
27
25
28
31
13
11
24
28
27
25
27
29
13
11
27
28
27
25
27
28
13
11
28
28
28
24
27
27
13
11
27
28
28
23
27
27
12
11
28
25
23
22
26
27
11
10
28
25
23
22
26
26
11
9
28
25
23
22
25
26
11
9
28
24
22
21
24
21
11
9
27
24
23
21
23
21
11
9
27
25
22
22
24
22
10
9
27
25
22
22
24
20
10
9
26
25
22
21
23
20
9
8
26
25
21
21
23
18
9
8
26
24
21
21
22
18
8
8
28
23
21
21
23
16
8
8
28
23
22
21
26
16
8
8
28
23
22
21
26
15
7
8
28
23
22
20
27
15
7
7
28
22
22
20
27
15
7
7
28
22
21
20
27
15
7
7
28
23
20
24
27
17
7
7
28
22
20
24
27
17
7
7
28
22
20
24
27
17
6
7
29
22
20
24
27
17
6
7
30
22
20
25
28
17
6
7
32
23
20
25
28
17
6
8
33
22
17
25
28
17
5
8
33
20
17
24
28
17
6
8
33
20
17
24
28
16
6
8
33
20
17
25
31
15
6
8
33
20
16
25
34
16
6
8
33
20
17
25
34
16
6
8
34
20
17
25
34
16
6
8
35
20
17
25
35
16
6
8
36
21
17
24
35
16
6
8
37
21
17
24
35
16
6
8
38
21
17
24
38
19
6
8
38
21
18
24
40
22
7
8
38
22
17
23
41
22
7
8
38
22
17
23
41
22
7
8
39
22
17
23
41
22
7
8
39
21
17
23
42
22
7
8
39
21
17
22
42
22
7
8
38
21
17
22
43
22
7
8
38
21
17
22
44
23
7
8
38
21
17
22
44
24
7
8
38
21
17
23
45
25
7
8
38
21
17
22
46
26
7
8
38
21
17
22
46
26
7
8
38
20
17
22
45
26
7
8
39
20
17
22
47
26
7
8
38
20
16
22
47
26
7
8
37
19
14
22
47
26
7
8
37
19
14
22
48
26
7
8
38
19
14
22
48
26
7
8
38
19
14
21
48
27
7
8
38
18
13
21
48
27
7
8
38
18
13
21
48
27
7
8
38
18
13
21
48
27
7
8
38
18
13
20
47
27
7
8
38
17
14
20
48
27
7
8
38
15
14
20
47
27
7
8
38
15
14
20
47
27
7
8
38
15
14
19
47
27
7
8
37
16
13
19
47
27
7
8
37
15
13
19
46
27
7
8
37
15
12
19
47
27
7
8
37
15
12
19
46
27
7
8
37
15
12
19
47
27
7
8
38
15
12
19
47
27
7
8
38
14
12
14
47
26
7
8
38
14
12
13
47
26
7
8
38
14
12
13
47
26
7
8
36
14
12
13
46
26
7
7
36
14
11
12
47
26
7
7
35
13
11
12
47
26
7
7
33
13
11
12
48
26
7
7
33
13
11
12
48
26
7
7
33
13
11
11
48
26
7
6
33
12
11
11
46
26
7
6
32
12
11
11
44
26
7
6
32
11
11
10
44
26
6
6
31
11
11
9
44
26
6
6
29
11
10
9
45
26
6
6
27
9
10
9
44
26
6
6
27
8
9
9
44
26
6
6
25
8
9
9
41
24
6
6
24
8
8
9
40
21
5
6
26
8
8
9
39
21
5
6
30
8
8
9
39
21
5
6
29
7
8
9
39
21
5
6
29
7
8
9
38
21
5
5
29
7
8
9
38
21
5
5
29
6
8
9
38
21
5
5
29
6
8
9
37
20
5
5
29
6
8
9
37
19
5
5
29
6
8
8
36
18
4
5
29
6
8
8
35
17
4
5
29
6
8
8
34
17
4
5
29
6
8
9
34
18
4
5
28
6
8
8
32
17
4
5
28
6
8
8
31
17
4
4
28
6
8
8
32
17
4
4
28
6
8
8
30
18
4
4
27
6
8
8
30
17
4
4
28
5
7
8
30
16
3
4
28
5
7
8
30
16
3
4
28
5
7
8
30
16
3
4
28
5
8
8
31
17
3
4
28
5
8
9
31
17
3
4
28
5
6
9
31
17
3
4
28
5
6
8
31
17
3
4
28
5
6
8
32
17
3
4
28
5
6
8
32
17
3
4
28
4
6
8
31
16
3
3
28
4
6
8
31
16
3
3
28
4
6
8
30
17
3
3
28
4
6
8
31
16
3
3
28
4
6
8
30
15
3
3
27
4
6
8
30
15
3
3
27
4
5
7
30
15
3
3
27
3
5
7
30
15
3
3
26
3
5
7
30
15
3
3
26
3
5
7
30
15
3
3
26
3
5
6
29
15
3
3
26
3
5
6
28
15
3
3
26
3
5
6
26
15
3
3
26
3
5
6
26
15
3
3
27
3
5
6
27
15
3
3
27
3
5
6
27
14
3
3
27
3
5
6
27
14
3
3
27
3
5
6
26
14
3
3
27
3
5
6
26
14
3
2
27
3
5
5
25
14
3
2
27
3
5
5
25
14
3
2
26
3
5
5
25
14
3
2
26
3
5
5
25
13
3
2
26
3
5
5
25
14
3
2
24
3
5
5
25
14
3
2
19
3
5
5
25
14
3
2
19
3
5
5
24
14
3
2
19
3
5
5
24
13
3
2
19
2
5
5
24
13
3
2
19
2
5
5
23
13
3
2
19
2
5
5
23
13
3
2
19
2
5
5
23
13
3
2
19
2
5
5
23
11
3
2
18
3
5
5
23
11
3
2
18
3
5
5
23
11
3
2
17
3
5
4
23
11
2
2
17
2
5
4
22
11
2
2
16
2
5
4
22
10
2
2
16
2
5
4
22
10
2
2
16
2
5
4
22
10
2
2
16
2
5
4
22
11
2
2
13
2
5
4
22
11
2
2
13
2
5
4
21
10
2
2
13
2
5
4
21
10
2
2
13
2
3
3
20
10
2
2
12
2
3
3
20
9
2
2
12
2
3
3
20
9
2
2
11
2
3
3
19
9
2
2
11
2
3
3
17
9
2
2
11
2
3
3
17
9
2
2
11
2
3
3
17
9
2
2
10
2
3
3
17
9
2
2
10
2
3
3
16
8
2
2
10
2
3
3
14
8
2
2
10
2
3
3
14
8
2
2
10
2
3
3
14
8
2
2
10
2
3
3
14
8
2
2
10
2
3
3
14
8
2
2
9
2
3
3
14
8
2
2
9
2
3
3
13
8
2
2
9
2
3
3
13
7
2
2
9
2
3
3
13
7
2
2
9
2
3
3
13
7
2
2
9
2
3
4
13
7
2
2
7
2
3
4
12
7
2
2
7
2
3
3
12
7
2
2
7
1
3
3
12
7
2
2
7
2
5
4
12
7
2
1
7
2
5
4
11
7
2
2
6
2
5
4
11
7
2
2
6
2
5
4
11
7
2
2
6
2
5
4
11
7
2
2
6
2
5
4
11
6
2
2
6
2
5
4
11
6
2
2
6
2
5
5
11
6
2
2
6
2
5
5
11
6
2
2
6
2
5
5
11
6
2
2
6
2
5
5
11
6
2
2
6
2
5
5
11
6
2
2
6
2
5
5
10
6
2
2
6
2
6
5
10
6
2
2
6
2
6
5
9
6
2
2
6
2
6
5
9
5
2
2
6
2
6
6
9
5
2
2
6
2
6
6
9
5
2
2
5
2
6
6
9
5
2
2
5
2
7
6
9
5
2
2
5
2
7
6
9
5
2
2
5
2
7
6
9
5
2
2
5
2
7
6
9
5
2
2
5
2
7
6
9
4
2
2
4
2
7
6
9
4
2
2
4
4
7
7
9
4
2
2
4
4
7
7
9
4
2
2
4
4
7
7
8
4
2
2
3
4
7
7
8
4
2
2
3
5
7
7
8
4
2
2
3
5
7
7
8
4
2
2
3
5
7
7
8
4
2
2
3
5
9
8
8
4
2
2
3
5
9
8
8
4
2
2
3
5
9
8
8
4
2
2
3
5
10
8
8
4
2
2
3
5
10
8
8
4
2
2
3
5
10
8
8
4
2
2
3
5
10
8
8
4
2
2
3
5
10
8
8
4
2
2
3
5
10
8
8
4
2
2
2
5
10
8
8
4
2
2
2
5
10
8
8
4
2
2
2
5
10
8
8
4
2
2
2
5
10
8
8
4
2
2
2
5
10
8
8
4
2
2
2
5
10
8
8
4
2
3
2
5
10
8
8
4
2
3
2
5
10
8
8
4
2
3
2
5
10
8
9
4
2
3
3
5
10
9
9
4
2
3
3
6
10
9
9
5
2
3
3
6
10
9
9
6
2
3
3
6
10
9
9
6
2
3
3
6
10
9
9
6
2
2
3
6
10
9
9
6
2
2
3
6
10
9
9
6
2
2
3
6
10
9
9
6
2
2
3
6
10
9
9
6
2
3
3
6
10
9
10
6
2
3
3
6
10
9
10
6
2
3
3
6
10
9
10
6
2
3
3
6
10
9
10
6
2
3
3
6
10
9
10
6
3
3
3
6
11
9
10
7
2
3
3
6
11
9
11
7
3
3
3
6
11
9
11
7
3
3
3
6
11
9
12
7
3
3
3
6
11
9
12
7
3
3
3
6
11
9
12
7
3
3
3
6
11
9
12
7
3
3
3
6
11
8
12
7
3
3
3
6
11
8
12
7
3
3
5
6
11
8
12
7
2
3
6
6
11
8
11
7
2
3
6
6
11
8
11
7
3
3
6
8
12
8
11
8
2
3
6
8
12
8
11
8
3
3
6
8
12
8
11
8
3
3
6
8
13
8
11
8
3
3
6
8
15
8
13
10
3
3
7
8
15
8
14
10
3
3
7
8
14
8
14
11
3
3
7
8
14
8
14
11
3
3
7
9
13
8
14
11
3
3
7
9
13
8
14
11
3
3
7
9
13
10
16
12
4
3
7
10
14
10
16
12
4
3
7
11
13
10
17
12
4
3
11
13
13
11
17
12
4
3
11
13
13
11
17
12
4
3
11
13
14
11
17
12
4
3
12
16
14
11
18
13
4
3
12
16
15
11
18
13
4
3
12
17
15
11
18
13
5
3
12
17
15
12
20
15
5
3
12
17
15
12
20
16
6
3
12
18
15
13
20
18
6
3
12
18
16
12
27
19
6
3
13
18
17
13
30
20
6
3
13
18
17
13
30
20
6
4
13
18
17
13
30
20
6
4
13
18
17
13
30
20
6
4
13
19
17
14
31
21
6
4
13
19
17
14
31
21
6
4
13
19
18
14
32
21
6
4
13
19
17
15
34
21
6
5
16
19
21
16
34
22
6
5
16
21
25
16
34
22
6
5
16
22
25
17
34
22
7
5
16
23
26
17
35
23
7
5
16
23
27
17
35
24
7
5
17
26
28
18
35
25
7
6
17
28
28
18
35
26
7
6
17
28
28
18
35
26
7
6
17
28
28
18
35
26
7
6
17
29
28
19
35
26
7
6
19
31
28
20
35
26
7
6
19
31
30
20
35
26
7
7
19
31
30
20
35
26
9
7
19
32
30
20
37
27
9
7
19
32
31
21
37
27
9
7
19
32
31
21
37
27
9
7
19
32
33
21
37
27
9
7
19
32
33
21
38
27
9
7
19
32
33
23
38
27
9
7
19
32
33
23
38
27
9
7
19
32
34
23
38
27
9
7
19
32
36
24
38
27
9
8
19
32
35
24
39
28
9
8
19
32
35
26
39
28
10
8
19
32
35
28
40
29
10
8
19
32
37
28
40
29
10
8
19
32
37
29
40
29
10
8
19
32
37
29
40
29
10
8
19
32
38
30
41
29
10
8
19
32
38
29
40
29
10
8
19
32
40
29
40
30
10
8
19
32
41
30
40
30
10
8
17
31
42
30
40
30
11
8
17
32
42
30
41
30
11
8
17
34
42
31
41
30
11
8
17
33
42
31
42
30
11
8
20
35
42
31
41
30
11
8
21
35
42
32
42
30
11
9
22
36
42
31
41
29
10
9
22
37
42
31
42
29
10
9
22
36
43
31
42
28
10
9
23
38
43
32
38
28
10
9
23
40
42
33
36
28
10
9
23
41
43
33
37
28
10
9
25
41
44
33
37
27
10
9
25
42
44
34
37
27
10
9
25
42
47
33
36
28
11
9
25
42
48
33
35
28
11
10
26
42
48
33
35
28
11
10
26
45
49
33
33
27
12
11
25
46
47
33
33
28
12
11
25
47
47
33
34
28
13
11
25
46
47
32
35
29
13
11
25
46
47
35
36
30
13
11
26
47
47
35
35
29
13
12
27
47
47
34
36
28
13
12
27
47
47
35
35
27
12
12
27
47
46
35
35
27
13
12
29
47
47
35
35
27
16
12
29
47
48
34
35
27
16
12
28
47
49
35
36
30
16
13
29
46
49
37
36
30
16
13
29
47
49
38
35
31
16
13
30
47
49
38
34
32
17
13
30
49
51
38
34
32
17
14
30
49
52
38
34
33
17
14
30
49
51
38
34
33
17
14
30
51
51
39
33
34
18
14
30
53
52
38
33
38
18
14
30
54
52
39
33
38
18
14
30
54
53
40
34
38
18
15
31
56
55
40
34
39
17
15
31
56
57
40
33
39
17
15
31
58
57
38
33
40
18
15
31
58
58
37
32
40
18
15
32
59
56
37
31
40
18
15
32
60
56
38
32
40
18
15
32
60
56
38
32
40
18
15
32
60
57
38
31
40
19
15
32
60
57
38
31
39
19
16
32
60
56
38
32
39
19
16
32
60
56
37
31
41
20
16
33
60
56
37
32
44
19
16
33
60
55
37
32
45
20
16
33
60
56
37
32
46
20
16
34
60
56
37
31
47
20
16
32
59
56
37
31
47
20
16
32
59
56
37
30
47
20
16
31
59
56
37
31
49
20
17
32
61
56
37
31
49
21
17
32
61
55
37
31
49
21
17
32
62
55
38
31
49
21
17
32
60
55
40
30
49
21
17
32
60
55
40
30
51
21
17
33
60
56
40
30
52
21
17
33
60
56
41
30
54
21
17
32
60
54
42
31
54
21
17
33
61
54
42
32
54
21
17
33
61
55
42
32
56
21
17
32
59
55
42
32
58
20
18
33
60
55
42
32
58
20
17
33
59
53
42
31
59
20
17
34
59
54
42
31
58
19
17
34
60
54
41
29
58
20
19
33
60
53
41
30
59
20
19
32
58
53
41
30
61
21
19
34
59
54
41
30
61
22
19
35
59
54
42
30
61
22
19
34
59
56
42
30
61
20
19
35
59
55
42
31
63
20
19
35
61
55
42
30
62
20
19
34
62
54
40
30
62
20
19
34
63
54
41
31
61
19
19
33
64
54
41
30
61
19
19
34
62
54
40
30
61
21
19
34
62
54
42
31
61
21
18
34
63
54
43
31
61
21
18
34
61
54
42
30
60
20
18
35
59
54
42
30
58
20
19
35
60
54
42
30
58
20
18
35
60
53
41
30
58
20
18
35
58
52
41
30
59
21
18
35
59
50
41
30
59
23
19
35
58
50
41
30
58
24
19
36
60
49
41
30
58
24
19
36
60
49
42
31
58
24
20
36
58
51
41
30
58
24
20
37
59
51
40
30
58
24
19
40
59
50
40
30
59
24
19
40
59
51
40
30
59
24
19
41
60
53
40
30
59
24
19
41
61
53
40
30
57
24
19
41
61
54
41
29
58
24
19
41
60
54
42
29
58
24
20
41
59
54
42
28
57
25
20
40
59
54
42
28
56
25
20
40
59
54
42
28
57
25
20
40
59
54
41
27
58
25
20
40
59
55
41
26
58
25
19
40
57
57
41
26
59
25
19
41
57
57
41
26
61
25
19
41
55
57
40
26
60
26
20
41
56
57
37
26
60
25
20
42
57
58
38
28
59
26
20
40
57
56
38
28
57
26
20
40
56
56
37
28
56
26
20
41
56
56
37
28
57
26
21
41
55
56
39
26
58
27
25
42
56
54
39
27
55
30
26
42
58
54
40
27
54
31
26
41
58
55
39
26
56
32
26
41
58
55
40
26
55
32
26
40
58
56
40
26
56
32
26
41
58
57
39
25
57
32
25
40
59
57
39
25
56
32
25
40
60
57
40
26
54
32
25
38
58
56
39
26
55
31
25
38
58
57
40
26
55
32
25
37
57
54
39
26
55
32
25
37
57
54
39
25
52
32
25
37
55
55
39
25
52
32
25
37
55
55
39
25
52
32
25
37
55
55
39
25
52
32
25
37
55
54
39
25
53
32
25
36
55
53
42
25
55
33
26
36
55
52
41
25
55
33
26
36
54
51
41
25
55
33
27
36
54
51
40
25
56
33
27
36
54
50
41
25
56
33
27
36
56
49
41
25
56
33
27
36
57
49
40
26
56
33
28
36
57
48
40
25
55
34
29
36
56
49
40
25
55
32
28
36
56
48
42
24
55
32
28
36
55
48
43
24
55
32
28
37
55
48
42
23
55
32
28
37
55
46
42
23
55
32
28
36
55
47
42
23
55
32
29
33
56
47
43
24
55
33
29
33
57
45
43
23
56
33
29
31
56
43
43
23
56
33
29
31
56
43
43
23
56
33
29
31
56
45
43
23
54
33
29
31
56
45
43
23
56
33
29
31
56
45
42
23
56
33
29
32
56
46
43
23
57
33
29
34
56
45
43
23
57
34
29
35
56
46
43
23
57
34
30
37
57
45
43
23
56
34
30
36
58
43
43
23
55
33
30
36
58
43
43
24
53
33
30
36
59
43
43
24
54
34
30
35
59
43
43
23
53
34
30
34
58
42
43
21
55
34
30
34
58
42
42
21
58
33
30
35
59
42
42
21
58
33
30
34
59
42
43
21
58
33
29
33
59
42
40
21
56
33
26
33
57
42
40
21
58
31
24
32
56
42
40
21
59
30
24
32
55
42
40
21
57
30
24
32
54
42
40
21
57
30
24
32
55
40
39
21
57
30
24
33
55
40
39
21
56
30
25
33
53
40
39
21
56
30
25
33
53
40
39
19
56
30
25
34
53
38
39
19
55
30
25
35
52
38
37
19
56
30
25
35
53
38
37
19
56
30
25
35
53
38
37
19
56
30
25
35
53
38
37
20
56
30
25
35
53
37
37
20
56
30
25
35
51
37
36
19
56
30
25
35
52
37
36
20
55
29
25
35
53
37
34
20
53
29
23
36
53
38
34
20
52
28
23
35
54
38
32
20
53
28
23
35
55
38
32
20
52
28
23
36
55
38
32
20
54
29
23
35
53
38
35
21
53
29
23
35
51
39
35
20
53
31
24
35
52
39
35
20
53
30
23
35
52
38
36
21
53
30
23
35
51
38
34
21
53
30
22
33
49
38
33
20
53
30
22
33
49
38
33
20
53
30
23
32
49
37
33
20
52
30
22
32
49
37
33
20
52
30
22
33
48
37
32
20
52
29
22
33
47
36
32
20
51
29
23
36
50
37
32
20
51
30
23
36
50
36
33
19
50
30
23
36
50
32
31
19
49
30
23
36
49
32
30
19
47
29
23
36
50
32
30
19
48
29
23
36
51
30
30
20
47
30
24
33
51
30
31
20
47
31
24
32
50
29
31
20
45
31
23
30
48
29
30
19
45
30
23
30
48
29
31
20
46
31
24
30
48
30
31
20
48
31
24
30
46
30
31
20
47
30
25
30
45
29
31
20
48
31
25
30
45
29
30
20
47
31
25
30
45
29
30
20
44
32
26
30
47
29
30
19
43
32
26
30
47
30
29
19
43
32
26
30
47
30
29
19
42
32
26
31
47
31
30
19
40
31
26
31
46
30
30
19
39
31
26
31
46
30
30
20
39
30
26
31
48
32
30
20
39
30
26
32
47
33
31
20
39
31
26
31
48
33
31
20
39
32
26
31
47
33
31
20
39
32
26
31
47
33
31
21
40
32
26
30
47
33
31
22
40
35
27
30
47
32
31
22
39
35
27
30
47
33
31
23
39
35
27
30
48
33
31
23
39
36
27
29
48
32
31
23
39
36
27
30
47
33
31
23
39
37
29
29
47
33
30
23
39
38
30
30
45
33
30
23
39
38
30
30
44
33
31
23
39
37
30
30
44
32
30
23
38
37
30
30
42
32
30
23
38
37
31
32
41
34
30
22
38
37
31
33
41
35
31
22
39
37
31
33
41
35
28
22
39
37
32
33
42
35
27
22
39
35
31
33
41
35
27
22
38
36
30
33
42
36
27
22
39
36
30
33
42
36
26
23
39
36
31
35
43
36
27
23
39
36
31
36
45
36
28
23
39
37
31
35
44
35
27
23
40
37
31
35
44
35
28
23
40
37
31
36
44
35
28
23
40
37
31
36
43
35
28
23
41
37
30
33
41
36
28
23
41
36
29
33
41
35
27
23
41
36
29
33
41
35
27
23
41
36
30
33
40
35
27
23
41
36
30
32
39
36
27
23
39
36
30
33
40
36
26
22
39
35
30
33
40
36
26
23
39
34
30
33
40
36
25
23
39
36
30
34
40
36
25
23
40
38
31
34
40
37
25
23
39
38
30
34
40
36
26
23
38
38
30
33
40
36
26
24
38
38
29
33
43
37
26
25
40
38
29
33
45
37
26
25
39
38
29
34
45
37
26
25
39
38
29
33
43
37
27
26
39
38
29
33
43
37
27
26
39
39
29
33
43
36
27
26
39
39
29
33
43
35
27
25
40
39
29
32
43
35
27
25
40
39
29
32
43
35
27
25
40
39
29
32
41
34
27
25
39
39
29
32
40
32
27
25
39
39
29
32
41
33
26
25
39
38
28
31
40
33
26
25
39
37
28
31
40
33
26
24
39
37
28
31
41
33
26
23
40
34
27
31
42
33
26
23
40
34
27
31
42
33
27
22
42
34
27
31
41
32
27
22
42
33
27
31
41
32
27
22
42
33
27
31
41
32
27
21
42
32
25
31
41
32
27
22
42
33
24
31
41
32
27
22
43
36
26
30
41
32
25
22
43
36
26
29
41
32
25
22
43
37
26
29
42
31
25
22
44
37
26
27
45
29
25
22
47
37
26
26
46
27
23
22
45
37
26
27
45
27
24
22
45
36
24
28
45
29
24
22
45
36
24
28
45
29
24
22
45
36
24
28
45
29
24
22
45
35
24
28
45
29
24
22
45
35
24
26
43
29
23
21
45
35
24
25
42
29
22
21
45
35
24
25
42
29
22
21
44
34
24
25
42
29
21
21
44
34
24
24
42
30
21
22
44
34
24
23
41
30
21
22
43
34
23
23
41
29
21
22
43
34
23
23
41
29
21
21
45
34
23
23
40
29
21
21
47
34
23
23
40
29
22
22
47
34
23
23
40
29
22
22
48
34
22
23
40
28
22
22
49
33
22
23
40
28
22
21
49
34
22
22
40
28
23
21
51
33
21
22
41
28
24
22
50
29
21
22
41
27
23
22
50
29
20
23
41
27
23
22
50
29
20
23
42
27
23
20
50
29
20
23
39
26
22
19
48
29
20
23
36
26
23
19
48
29
20
22
36
26
23
19
48
28
20
22
36
26
24
19
48
28
20
22
36
25
23
18
47
26
20
24
39
26
23
19
47
26
20
24
41
26
22
19
46
26
20
24
41
26
23
19
47
27
20
24
41
26
23
19
47
27
20
24
41
27
23
19
48
28
20
24
41
26
22
19
48
28
20
23
41
26
22
18
47
28
19
23
41
25
22
18
48
28
19
23
41
25
22
18
47
28
19
23
40
25
22
18
46
28
19
23
38
25
22
17
46
28
19
23
39
25
21
18
44
27
19
23
39
25
21
18
45
27
19
23
38
25
21
18
45
27
18
24
39
25
21
17
45
26
18
24
39
25
20
17
44
24
17
24
41
25
20
16
44
20
14
23
41
25
20
15
44
20
14
23
41
25
21
15
44
19
14
23
40
25
21
15
42
19
13
23
37
25
21
15
39
18
13
23
36
25
21
15
38
18
13
22
36
25
20
15
38
18
13
19
35
23
20
14
38
18
13
19
35
23
20
14
38
18
13
19
35
22
20
14
38
18
13
19
35
21
21
14
37
18
12
19
35
21
22
14
37
17
12
19
34
21
22
14
37
17
12
19
34
21
22
14
37
17
12
19
34
21
22
14
37
17
12
19
34
19
22
13
37
17
12
18
34
18
22
13
36
17
12
20
34
18
22
13
36
16
12
20
34
18
22
13
32
16
12
19
34
18
22
13
30
16
12
19
34
18
22
12
29
16
11
20
34
17
22
12
28
16
11
20
33
17
22
12
26
16
11
20
33
17
22
12
26
15
10
19
31
17
20
12
22
14
10
19
30
17
20
10
22
14
10
19
31
17
20
10
21
14
10
19
31
17
20
11
21
14
10
19
30
16
20
12
20
14
10
19
30
15
20
12
20
14
9
19
30
15
18
12
20
14
9
19
30
15
18
13
20
13
9
20
30
15
16
14
20
13
9
20
30
14
16
19
21
12
8
18
25
13
16
19
21
12
8
19
22
13
16
19
20
12
8
19
22
14
15
22
20
11
8
18
22
16
16
24
18
11
8
18
24
14
15
24
16
9
7
20
22
15
15
25
16
8
7
20
22
15
15
27
18
7
7
20
22
15
15
27
17
7
7
20
22
15
16
28
17
6
7
20
22
15
16
29
16
6
7
20
22
15
16
30
17
6
7
20
22
15
16
30
17
6
7
21
26
16
16
31
18
6
7
26
26
18
16
31
18
6
8
28
24
18
18
32
18
6
8
29
25
18
18
33
18
6
8
30
21
18
19
33
18
6
8
30
21
18
19
34
19
6
8
33
22
19
19
34
19
6
8
33
22
19
19
36
19
6
9
33
23
19
19
36
19
6
9
34
24
19
19
37
19
6
9
36
24
19
19
37
21
7
9
40
24
19
19
37
21
7
9
41
24
19
18
37
21
7
9
41
25
20
18
40
22
7
9
41
25
20
17
40
24
7
9
41
25
20
17
40
24
7
9
41
26
20
17
41
24
7
10
41
26
21
17
42
24
7
10
41
26
21
18
46
25
7
10
42
26
21
18
46
25
7
11
42
26
21
18
47
25
7
11
42
26
21
18
48
26
7
11
42
26
21
18
48
26
7
11
42
26
22
17
49
26
7
11
42
26
22
17
49
27
7
11
42
26
22
17
49
28
7
11
42
26
22
17
49
28
7
11
42
26
22
17
49
28
7
11
42
26
22
17
49
28
7
11
42
26
22
17
49
28
7
11
42
25
22
17
49
28
7
11
42
25
22
17
50
28
7
11
42
25
22
17
51
27
7
11
42
25
22
17
51
28
7
11
42
25
23
17
52
28
7
11
42
25
23
18
52
29
7
11
42
28
23
18
52
29
7
11
42
28
23
17
51
28
7
12
42
28
23
18
52
28
7
11
42
28
23
18
52
29
7
12
42
28
22
18
51
29
7
12
42
28
20
18
50
28
7
11
41
27
20
18
50
28
7
11
41
27
19
17
50
28
7
11
41
27
19
17
49
28
7
11
41
27
19
17
49
28
7
11
41
27
19
16
48
28
7
11
41
27
19
16
48
28
7
11
41
27
19
16
48
27
7
11
41
27
19
16
48
27
7
11
41
23
19
16
48
27
6
11
37
22
17
16
48
27
6
10
35
22
17
14
48
27
6
10
34
22
17
14
47
27
6
10
34
22
16
13
47
27
6
9
33
22
16
13
46
27
6
9
31
21
15
12
46
27
6
9
31
21
15
12
45
27
6
9
30
20
15
12
46
27
6
9
30
18
15
12
46
27
6
9
28
18
15
12
47
26
6
8
21
18
15
12
46
25
6
8
20
18
14
12
46
25
6
8
19
17
13
12
44
25
6
8
18
17
13
11
44
23
5
8
18
17
13
11
45
23
5
8
19
16
13
11
45
23
6
7
19
15
13
11
44
23
5
6
19
15
12
10
41
23
5
6
18
15
12
10
41
23
5
6
17
15
12
10
40
22
5
6
17
15
12
9
38
21
5
5
15
15
12
9
38
21
5
5
15
15
11
9
38
21
5
5
15
15
11
9
38
20
5
5
15
15
11
9
38
19
4
5
14
15
11
9
38
19
4
5
14
15
11
9
38
19
5
5
16
15
11
9
38
19
5
5
17
15
11
9
38
19
5
5
17
15
11
9
38
19
5
5
17
15
11
9
37
19
5
5
19
15
11
9
36
19
5
5
18
15
11
8
36
19
5
5
18
15
8
8
34
19
4
5
18
15
8
7
34
17
4
4
18
8
8
7
34
17
4
4
18
7
7
7
33
17
4
4
18
6
7
7
32
17
4
4
18
6
7
7
32
17
5
4
18
5
6
7
32
16
5
4
17
5
6
6
32
16
4
4
17
5
6
6
31
16
4
4
17
5
6
6
31
16
4
4
17
5
6
6
31
16
4
4
17
5
6
6
31
16
4
4
17
4
6
6
31
16
4
4
16
4
6
6
31
16
5
4
16
4
6
6
30
15
4
4
16
4
6
6
30
15
4
4
16
4
6
6
29
13
4
4
16
4
6
6
29
13
4
4
16
4
6
5
28
13
4
4
16
4
6
5
28
13
4
4
15
4
5
5
29
12
4
4
15
4
5
5
29
12
4
4
15
4
5
5
29
12
4
4
15
4
5
5
28
11
4
4
16
5
5
5
27
10
4
4
15
5
5
5
27
10
4
4
15
5
5
5
25
10
4
4
15
5
5
5
25
10
4
4
15
5
5
5
25
11
4
4
15
5
5
5
25
11
4
4
15
5
5
5
25
10
4
4
15
5
4
5
25
11
4
4
14
5
4
4
24
11
4
4
14
5
4
4
22
9
4
4
14
5
4
4
22
9
4
4
14
5
3
4
21
9
4
4
14
5
3
3
21
9
4
4
14
5
3
3
22
9
4
4
14
5
3
3
22
9
4
4
14
5
3
3
22
9
4
4
14
4
3
3
21
9
4
4
14
4
3
3
21
9
4
4
14
4
3
3
21
9
4
3
14
4
3
3
18
9
4
3
12
4
3
3
18
9
3
3
10
4
3
3
18
9
3
3
10
4
3
3
18
9
3
3
10
4
3
3
18
9
3
3
6
4
2
3
18
9
3
3
6
4
2
3
18
9
3
3
6
4
2
3
17
9
3
3
6
4
2
3
17
9
3
3
6
4
2
3
17
8
3
2
6
4
2
3
16
8
3
2
5
4
2
2
16
8
3
2
5
4
2
2
16
8
3
2
5
4
2
2
16
8
3
2
5
4
2
2
16
8
3
2
5
4
2
2
16
8
3
2
5
4
2
2
16
8
3
2
5
4
2
2
16
8
3
2
4
4
2
2
16
8
3
2
4
4
2
2
16
8
3
2
4
4
2
2
16
8
2
2
4
4
2
2
16
8
2
2
4
4
2
2
16
8
2
2
4
4
2
2
16
7
2
2
4
4
2
2
16
8
2
2
4
4
2
2
16
7
2
2
4
4
2
2
15
7
2
2
4
4
2
2
15
8
2
2
4
3
2
2
14
8
2
2
3
3
2
2
13
8
2
2
3
3
2
2
13
8
2
2
3
3
3
2
13
7
2
2
3
2
3
2
13
8
2
2
3
2
2
2
12
8
2
2
3
2
2
2
12
8
3
2
3
2
2
2
12
7
3
2
3
2
2
2
12
7
2
2
3
2
2
2
12
7
3
2
3
2
2
2
12
6
2
2
3
2
3
3
12
6
2
2
2
2
3
3
12
6
2
2
2
2
3
4
12
6
2
2
2
2
3
4
12
6
2
2
2
2
3
4
12
6
2
2
2
2
3
4
11
6
2
2
2
1
3
4
11
5
2
2
2
1
3
5
10
5
2
2
1
2
3
5
10
5
2
2
1
2
3
5
10
5
2
2
1
2
3
5
11
5
2
2
1
2
3
5
11
5
2
2
2
2
3
5
11
5
2
2
2
2
3
6
11
5
2
2
2
2
4
6
10
5
2
2
2
2
5
8
10
5
2
2
2
2
5
8
10
5
2
2
2
2
6
8
10
5
2
2
2
2
6
9
10
5
2
2
2
2
6
9
10
5
2
2
2
2
6
10
10
5
2
2
2
2
6
10
10
5
2
2
2
2
6
10
9
5
2
2
2
2
6
10
9
5
2
2
2
2
6
10
9
5
2
2
2
2
6
10
9
5
2
2
2
2
6
10
9
5
2
2
2
2
6
10
9
6
2
2
2
2
6
10
9
6
2
2
2
2
6
10
9
6
2
2
2
2
6
10
9
6
2
2
2
2
6
10
8
5
2
2
2
2
6
10
8
5
2
2
2
2
6
10
8
5
2
2
2
2
6
10
8
5
2
2
2
2
6
11
8
5
2
2
2
2
7
11
8
5
2
2
2
2
7
11
8
5
2
2
2
2
7
11
7
5
2
2
2
2
7
11
7
5
2
2
2
2
7
11
7
5
2
2
2
2
7
11
8
5
2
2
2
2
7
11
8
5
2
2
2
3
7
11
8
4
2
2
2
3
7
11
8
5
2
2
2
3
7
11
8
5
2
2
2
3
7
11
8
5
2
2
2
3
7
11
8
5
2
2
2
3
7
11
8
5
2
2
3
3
7
11
8
5
2
2
3
3
7
11
9
5
2
2
3
3
7
10
8
5
2
2
3
3
8
10
8
5
2
2
3
3
8
10
8
6
2
2
3
4
9
10
8
6
2
2
3
4
9
10
8
6
2
2
3
4
9
10
8
6
2
2
3
4
9
10
8
6
2
2
3
4
10
10
8
6
2
2
3
4
10
10
8
6
2
2
3
4
10
10
8
6
2
2
3
4
10
10
8
6
2
2
3
4
10
10
8
6
2
2
3
4
11
9
8
6
2
2
3
4
11
9
10
7
2
2
3
4
10
7
10
7
2
2
4
5
10
7
10
7
2
2
4
4
10
7
10
7
2
2
4
4
10
6
12
7
2
2
4
5
10
6
12
7
2
2
4
5
11
6
12
7
2
2
4
5
11
6
12
8
2
2
4
5
11
6
13
8
2
2
4
9
12
6
13
9
2
2
4
9
12
6
13
9
2
2
4
9
12
6
13
9
2
2
4
9
12
6
13
8
2
2
7
9
12
6
13
8
2
2
9
9
12
6
14
8
3
2
9
9
14
6
14
8
3
2
9
11
18
7
18
9
3
3
9
15
19
7
18
9
3
3
9
15
20
6
18
9
3
3
9
15
20
6
19
9
3
3
10
15
21
7
19
9
3
3
10
15
21
8
20
9
3
3
10
15
21
8
21
9
3
3
10
15
21
9
21
9
3
3
11
15
21
9
21
9
3
3
14
15
21
9
23
9
3
3
14
15
21
9
23
10
3
3
14
15
22
9
24
11
4
3
14
16
22
9
25
11
4
3
15
18
22
9
25
11
4
4
15
19
22
9
25
11
4
4
15
19
22
10
26
11
4
4
15
19
22
10
25
11
4
4
15
19
22
10
26
11
4
4
16
19
22
10
27
11
4
4
16
19
23
10
27
11
4
4
16
20
23
10
27
11
4
4
16
20
23
11
27
11
4
4
16
20
23
13
27
12
4
4
16
20
23
13
27
11
4
4
16
20
23
13
27
11
4
4
17
20
23
14
27
12
4
4
17
20
23
14
28
13
4
4
17
20
24
14
30
13
4
4
17
21
24
14
31
13
4
4
17
21
26
15
31
13
5
4
17
21
26
15
33
13
5
4
17
21
26
16
33
13
5
4
18
21
26
16
33
13
5
5
18
21
26
16
33
13
5
5
18
21
27
16
35
14
5
5
17
21
27
16
36
14
5
5
17
21
27
16
36
14
5
5
17
21
27
17
37
15
5
5
17
22
27
17
37
15
5
5
18
22
28
17
37
15
5
5
18
23
28
17
37
16
5
5
18
23
28
17
37
15
6
6
18
23
28
17
37
15
6
6
18
21
28
17
38
15
6
6
18
21
29
17
39
15
6
6
18
22
31
19
40
15
6
6
18
22
31
20
40
15
7
6
17
22
31
20
40
15
7
6
17
22
32
20
40
16
7
6
17
22
33
20
42
15
7
6
17
21
31
20
40
15
6
6
20
19
31
20
40
15
6
6
20
19
31
20
40
15
7
6
20
19
31
20
40
15
6
6
21
19
31
20
40
17
6
6
21
21
31
20
39
17
6
7
22
22
32
20
39
17
6
7
22
22
32
20
41
18
7
7
21
22
32
20
41
22
7
7
19
23
33
21
41
23
7
7
19
23
33
21
41
23
7
7
20
23
33
21
41
26
8
7
20
23
33
21
40
26
8
7
20
21
34
22
41
26
8
7
19
20
34
22
42
26
8
7
19
21
36
22
41
27
8
7
19
20
37
22
42
27
8
7
19
22
40
22
42
28
8
7
19
23
40
24
42
28
8
7
19
23
41
24
42
32
8
7
20
23
41
24
42
33
8
7
20
23
42
24
42
33
8
7
20
23
41
23
43
33
8
7
20
23
43
24
42
34
8
7
21
23
43
24
42
34
8
7
20
23
44
27
42
34
8
8
21
23
45
28
43
34
8
8
21
25
45
28
42
34
8
8
21
25
45
28
43
35
8
8
21
26
45
28
43
36
8
8
21
26
45
28
41
36
8
8
21
26
47
28
42
36
9
8
21
27
47
28
42
36
9
8
22
27
47
28
42
36
9
8
22
27
46
28
39
37
9
8
22
27
46
28
39
37
8
8
22
29
47
29
39
39
8
8
22
30
47
29
37
38
8
8
22
30
47
29
38
40
10
8
22
30
48
29
37
41
10
8
23
31
48
30
37
41
10
8
23
31
49
31
37
42
10
8
23
32
51
31
37
42
10
9
24
33
52
31
37
42
10
9
24
34
51
32
36
42
9
9
24
34
50
31
35
42
10
9
24
36
53
31
35
43
10
9
24
36
53
31
35
43
10
8
24
36
52
31
35
43
10
9
24
36
52
31
34
44
10
8
23
36
51
31
34
45
11
9
21
36
52
33
34
45
13
9
22
36
54
36
34
45
13
9
24
36
54
37
34
47
14
10
24
38
55
37
34
47
14
10
23
37
54
37
35
47
15
11
23
36
56
37
35
47
15
11
24
37
56
39
34
46
16
11
27
36
56
40
34
45
16
11
27
38
56
41
33
44
16
11
27
38
55
43
33
44
16
11
27
39
55
44
32
43
16
12
27
39
55
44
32
44
16
12
27
39
55
44
33
47
16
12
27
40
55
44
34
47
16
12
28
40
56
44
33
47
16
12
28
40
56
44
33
47
16
12
28
39
53
45
32
48
16
12
28
39
53
46
34
47
16
12
28
39
55
46
34
46
16
12
28
40
58
47
34
45
17
12
28
41
58
47
34
45
17
12
28
41
58
47
33
47
16
12
28
42
57
47
33
47
17
12
29
43
57
47
34
48
17
13
29
43
56
45
34
49
17
13
29
43
56
45
33
49
18
13
29
43
56
44
33
49
18
13
29
44
55
44
32
48
18
13
29
44
57
45
31
48
18
13
29
44
57
46
31
48
21
13
29
44
56
46
31
49
22
14
29
44
56
46
31
49
22
14
28
44
56
46
31
49
22
14
28
44
56
47
32
48
22
14
28
45
58
48
32
49
22
16
32
44
59
48
31
48
22
16
32
44
60
48
32
49
22
16
32
46
60
48
31
48
22
16
32
46
59
48
31
47
22
16
32
45
60
48
31
47
22
16
32
45
60
48
31
47
23
16
32
46
58
48
32
47
23
15
32
46
57
48
32
48
23
15
32
46
58
49
32
48
23
15
32
46
58
50
33
48
23
16
33
44
55
50
33
48
23
16
33
45
55
50
32
49
23
16
34
45
56
50
32
49
23
16
34
45
56
50
32
49
23
16
35
45
57
51
32
49
23
17
35
45
57
49
33
48
22
17
34
46
55
47
32
48
22
17
34
47
55
47
32
47
22
16
35
47
55
47
32
47
22
16
35
47
55
48
30
47
21
16
35
47
54
48
31
47
21
16
34
47
56
46
31
48
21
16
31
47
56
48
31
48
21
15
31
46
56
47
31
49
21
15
31
47
56
46
31
49
22
15
31
47
57
44
33
49
21
15
31
48
56
45
35
48
21
15
31
47
56
45
33
45
22
15
33
47
57
45
32
45
22
15
33
47
56
46
32
46
22
15
33
47
56
46
32
46
22
15
34
47
56
46
33
45
23
16
34
48
56
44
31
45
23
16
36
48
54
44
31
45
23
17
37
47
51
43
31
45
23
17
37
46
51
43
31
45
23
17
37
47
52
45
31
43
24
17
37
46
52
46
31
44
25
18
35
45
53
46
30
42
25
18
35
46
53
46
30
42
26
18
35
46
53
46
29
42
25
20
35
44
54
46
29
44
26
20
35
43
55
46
29
44
26
20
35
43
56
45
30
44
26
20
35
43
56
45
30
45
24
19
35
43
55
45
29
44
23
19
35
43
55
44
29
43
24
19
35
43
56
44
29
44
24
19
36
45
56
44
29
44
24
19
38
46
56
42
29
44
23
18
35
47
55
42
29
44
23
18
36
47
55
42
29
43
23
18
36
45
55
42
29
43
23
18
37
46
55
42
29
43
23
18
38
47
54
42
29
43
23
19
37
47
55
42
29
43
23
19
37
46
55
42
29
42
23
19
37
45
55
41
28
42
23
19
37
46
55
41
27
42
23
19
37
47
55
40
27
43
23
19
37
47
55
40
27
44
23
20
36
46
55
41
27
42
23
20
36
46
53
40
28
42
23
20
36
46
56
40
28
42
23
19
35
47
55
40
28
42
23
19
35
47
55
40
28
42
23
19
35
46
54
40
29
42
23
19
34
45
54
40
29
41
23
19
34
46
54
39
29
41
23
19
34
46
54
38
29
41
23
19
34
46
53
38
29
41
23
19
34
47
51
39
28
40
24
19
35
47
52
36
28
40
24
19
35
47
52
36
28
39
24
19
35
46
53
36
29
41
23
19
36
45
54
36
27
40
23
19
37
45
54
36
24
40
23
19
37
45
56
36
25
40
23
20
35
44
55
35
26
40
24
20
35
45
55
34
26
40
23
20
35
45
55
35
28
40
23
20
35
44
55
35
27
40
22
19
35
44
56
35
27
39
22
19
33
45
55
35
27
40
22
19
31
45
55
35
27
40
22
19
32
45
55
37
28
40
22
19
32
45
54
35
28
40
21
19
32
45
54
33
28
39
20
18
32
47
53
34
28
39
20
18
32
47
54
37
28
38
19
18
32
49
54
37
28
39
18
16
32
50
54
37
29
35
18
16
32
50
53
37
29
36
18
16
32
51
52
37
28
36
18
16
32
51
52
37
28
36
18
16
32
51
52
37
28
36
18
16
32
50
52
37
28
39
18
16
32
52
51
37
30
38
19
17
32
51
51
37
30
38
20
17
30
50
49
37
30
37
20
17
29
48
51
37
30
37
20
17
29
47
50
38
30
38
20
17
29
47
50
39
30
39
20
17
28
46
50
38
30
40
20
17
27
46
50
39
30
40
21
16
27
47
49
39
30
40
20
16
26
47
49
39
30
41
20
16
27
48
49
39
31
41
20
16
27
48
49
39
33
41
20
16
28
48
49
38
33
40
20
15
27
49
49
38
33
39
20
15
27
49
49
38
33
38
20
15
26
49
49
38
33
39
21
15
28
49
48
38
32
39
22
15
27
49
48
38
32
39
22
15
28
49
48
38
32
39
25
16
28
49
49
38
31
39
26
16
28
49
49
38
32
41
26
16
28
49
48
39
32
41
26
17
29
51
48
40
32
41
26
17
29
51
48
40
33
41
26
17
29
51
48
40
33
41
25
16
29
52
47
41
33
41
25
17
29
51
47
40
33
40
25
17
29
51
47
41
33
39
25
17
29
52
45
40
33
39
26
17
29
53
46
39
33
40
26
18
29
53
44
39
32
40
26
18
30
54
43
39
32
40
26
19
30
53
43
39
31
41
26
19
30
53
42
38
30
42
26
20
30
53
42
38
30
42
26
20
33
55
40
39
30
42
26
20
33
54
40
39
29
42
26
20
33
54
40
39
29
41
28
20
32
54
40
38
29
41
30
20
32
56
40
39
28
42
31
20
33
57
40
39
28
41
32
20
34
55
40
40
28
41
32
21
34
54
38
36
28
42
33
21
36
55
38
36
28
41
33
21
36
56
38
38
28
41
32
21
37
55
38
38
28
41
32
21
37
55
35
37
29
40
32
21
37
55
35
38
29
42
33
21
37
55
36
37
29
42
33
21
37
55
36
37
29
40
33
22
36
55
36
38
27
40
33
22
36
54
36
38
27
40
32
22
36
54
35
38
27
40
34
22
37
54
32
38
27
41
35
22
37
54
32
38
28
40
38
23
37
55
33
37
28
39
38
23
37
55
34
37
28
40
39
24
37
55
34
37
28
40
39
24
38
55
34
37
28
41
39
24
38
55
34
36
28
41
39
24
38
55
34
36
27
41
39
24
37
53
34
36
24
40
39
24
37
54
33
36
25
40
39
24
37
53
33
37
25
41
39
24
37
53
33
37
24
42
39
24
37
53
33
36
25
41
38
24
36
53
32
37
24
41
38
24
36
52
32
37
27
41
38
24
36
52
31
37
27
41
36
24
36
52
30
36
26
41
35
24
35
52
31
36
25
39
36
24
36
51
30
36
25
39
36
24
35
50
32
34
25
39
36
25
35
50
32
33
23
42
38
27
36
49
32
35
23
41
37
27
35
48
33
34
23
42
37
27
35
48
34
35
23
42
38
27
35
48
37
35
23
42
38
27
35
50
37
35
23
42
38
27
35
51
36
35
23
41
37
27
35
51
36
35
23
41
37
26
34
50
37
35
23
41
37
25
34
50
37
35
24
40
37
25
34
50
37
34
24
39
37
25
35
50
37
35
25
39
37
24
31
49
38
34
25
39
37
24
31
49
38
34
25
40
37
24
31
49
38
34
25
40
36
24
31
49
38
32
25
39
34
24
31
47
40
30
25
39
33
24
31
45
40
30
25
40
33
24
29
45
40
30
25
40
32
23
29
44
40
30
24
39
32
23
27
41
41
32
25
39
32
23
27
40
40
30
25
39
32
23
26
40
42
30
25
39
32
23
26
41
42
30
25
39
32
23
27
41
42
30
26
38
31
23
28
42
42
30
26
38
31
23
28
42
42
30
26
38
31
22
28
40
42
30
26
38
31
22
28
41
42
29
26
38
31
22
28
40
42
29
26
37
28
21
27
40
41
28
25
37
27
21
26
40
41
27
24
37
23
21
26
39
40
27
24
40
22
20
26
39
39
28
24
38
21
20
26
39
39
28
24
39
21
19
26
38
39
28
24
37
20
19
26
37
38
28
26
37
21
20
26
37
38
27
26
37
21
19
25
37
39
26
26
38
22
19
25
36
39
26
27
38
21
20
25
37
40
26
27
38
22
20
25
37
40
25
27
37
22
20
26
38
40
25
26
36
22
20
26
37
39
26
26
36
22
20
26
37
39
25
24
36
22
20
27
37
39
25
24
37
22
20
27
37
39
25
24
37
22
19
27
37
39
25
24
37
21
18
26
38
39
25
23
37
20
17
27
38
38
25
24
37
20
17
27
38
37
25
24
34
18
14
26
37
37
22
24
34
17
13
25
38
37
23
24
34
18
12
25
38
36
22
24
33
17
12
25
37
31
22
24
33
16
12
24
34
31
23
24
33
16
12
23
32
31
23
25
33
16
12
23
32
32
23
25
34
16
12
23
33
31
23
24
34
16
12
22
32
31
23
23
34
16
12
22
32
31
23
23
34
16
11
22
32
31
23
22
34
16
11
22
33
30
23
22
34
16
12
22
35
30
23
22
32
16
12
22
34
29
23
22
32
16
12
22
34
30
23
22
33
16
11
22
34
27
23
22
33
15
11
22
34
27
23
22
31
15
11
22
35
27
23
22
31
15
11
22
35
27
22
22
31
14
11
21
34
26
20
21
31
14
11
20
34
26
19
21
31
14
11
20
34
24
19
21
31
14
11
20
34
22
19
20
31
14
10
19
34
22
19
20
31
14
10
17
32
21
18
19
30
14
10
17
31
21
18
20
30
14
10
17
32
20
19
20
30
14
10
17
31
20
20
19
30
14
10
16
30
20
22
19
30
14
10
16
30
20
22
19
28
14
10
17
30
20
22
19
28
14
10
17
30
20
22
20
24
14
10
17
30
20
21
20
24
13
10
17
29
20
21
20
22
13
10
19
29
20
21
20
22
13
10
19
29
20
22
17
22
11
9
19
29
19
22
17
21
10
9
19
30
18
22
17
20
10
8
19
29
18
22
18
20
10
7
19
28
16
22
17
18
9
7
19
28
16
22
17
18
8
7
18
27
15
22
18
18
8
8
21
27
16
21
18
18
8
8
22
27
16
21
19
18
8
8
21
27
16
22
20
18
8
8
21
27
17
22
21
17
8
8
21
26
17
22
24
17
8
8
21
24
18
22
24
17
8
8
21
27
18
22
25
17
8
8
21
27
18
22
24
17
7
8
22
26
18
21
25
16
7
8
22
26
18
21
25
16
6
8
22
26
18
21
26
17
6
8
22
26
18
21
25
16
6
8
22
26
18
19
25
16
6
8
23
25
18
20
25
15
6
9
23
25
17
20
27
15
6
9
23
24
17
20
29
15
6
9
23
24
17
20
30
14
6
9
25
25
17
20
30
14
6
9
27
25
17
20
30
14
6
9
27
24
17
20
30
14
6
9
27
21
17
20
30
15
6
9
28
21
16
20
31
15
6
9
28
21
15
20
31
15
6
9
29
22
16
20
31
16
6
9
30
22
16
21
33
17
6
9
31
22
16
21
35
18
6
10
34
23
16
21
36
18
6
9
34
23
16
21
36
18
6
10
37
23
16
21
36
18
6
10
38
23
17
21
37
18
6
10
39
23
17
21
37
18
6
10
39
23
17
21
37
18
6
10
39
23
17
21
37
18
6
10
39
23
17
21
37
18
7
10
39
23
16
19
37
18
6
10
40
23
16
19
41
19
7
10
40
23
17
16
42
19
7
10
40
23
17
16
42
21
7
10
40
23
17
16
44
24
7
10
40
23
17
16
44
24
7
10
40
23
18
16
44
25
7
10
40
23
18
16
44
25
7
10
40
23
18
16
44
25
7
10
40
23
18
16
46
25
7
10
40
23
18
16
46
26
7
10
41
22
18
16
47
26
7
10
40
22
18
16
47
26
7
10
41
22
18
16
47
27
7
10
41
23
18
15
47
27
7
10
41
24
18
15
47
27
7
10
39
24
18
15
47
27
7
10
39
24
18
15
47
27
7
10
39
25
18
15
47
27
6
10
39
25
16
15
48
27
7
10
39
25
16
15
46
27
7
10
39
23
15
15
46
27
6
10
39
20
15
15
46
27
6
10
39
20
15
15
46
27
6
10
39
20
15
15
46
28
6
10
39
20
15
15
48
29
6
10
39
20
14
14
49
28
6
9
39
20
14
14
49
28
6
9
39
20
14
15
49
29
6
9
39
20
13
13
49
28
6
8
39
20
13
12
49
29
6
8
39
20
13
12
48
29
6
8
39
20
13
13
47
28
6
8
38
18
13
13
47
29
6
8
37
19
13
12
47
29
6
8
37
18
13
12
48
29
6
8
37
18
13
12
49
28
6
8
36
18
13
12
49
28
6
8
36
18
13
12
48
27
6
8
36
18
12
12
48
27
6
7
36
17
12
12
47
26
5
7
35
16
12
11
46
26
5
7
31
16
12
11
45
26
5
7
31
16
11
11
46
26
5
7
27
16
11
11
46
26
5
7
27
16
11
11
46
26
5
7
25
15
11
11
46
26
5
7
25
15
11
11
46
26
5
6
25
15
10
11
46
26
5
6
24
15
10
11
46
26
5
6
24
15
10
11
46
26
5
5
24
15
10
11
42
26
4
5
24
15
10
11
42
26
4
5
23
15
10
10
42
24
4
5
24
15
9
10
40
22
4
5
24
15
9
10
40
21
4
5
24
15
9
10
41
20
4
5
27
15
9
10
41
20
4
5
29
15
9
9
42
20
3
5
28
15
9
9
40
20
3
5
28
15
9
8
39
19
3
5
28
15
9
8
38
18
3
5
29
15
9
8
38
18
3
4
28
14
9
8
39
18
3
4
28
13
9
8
39
17
3
4
27
9
8
8
39
17
3
4
27
9
8
8
39
17
3
4
27
9
8
8
38
17
3
4
27
9
8
8
38
17
3
4
27
9
8
8
37
16
3
4
27
8
8
8
37
17
3
4
26
8
8
8
37
16
3
4
27
8
8
8
37
16
3
4
27
8
7
8
37
16
3
4
26
8
7
8
36
14
3
4
26
8
7
8
34
12
3
4
26
8
7
8
32
12
3
4
26
8
7
7
32
12
3
3
26
8
7
7
32
11
3
3
26
8
7
7
32
