0
-2
-33
-8
-1
-2
1
0
1
1
32
2
1
1
0
1
-5
-11
-63
-20
-4
-4
-2
0
-2
5
-5
0
-4
-2
-1
-1
-1
-2
33
5
-1
-3
-5
0
-1
-2
-2
7
-2
0
3
-1
2
-4
22
1
-2
2
2
0
-1
6
-24
-3
-1
0
0
-1
-2
1
39
3
-2
-4
-2
-3
-3
-6
-15
-4
-1
-1
-3
-2
3
-4
-1
0
-1
-3
-3
0
2
3
12
-4
-1
0
1
0
-3
0
1
2
0
-2
-2
-1
-2
-5
-1
-2
0
3
0
-5
-2
1
-14
-3
-2
-1
-1
-3
0
0
40
5
0
2
1
-1
0
-1
-41
1
1
1
1
1
-3
-2
-7
-9
-4
-8
-2
-1
0
6
15
3
1
2
-1
0
-2
-10
-24
-8
-4
-2
-2
-2
2
3
4
0
0
1
0
-1
-1
-4
1
0
1
-2
-2
0
1
4
21
1
2
1
0
1
-5
-5
-3
1
-1
-4
-3
-2
1
3
13
6
-1
0
0
-1
0
-1
-41
-3
0
1
-1
1
-2
-2
27
-2
-2
-1
0
-4
-1
-2
5
-4
-2
-2
-2
-1
1
6
20
0
-2
5
5
-3
-4
-7
-33
-8
-5
-5
-4
1
-2
-8
-37
-1
-1
0
1
0
-2
-3
-8
1
-2
-1
-1
0
-1
-3
-2
-5
-1
-3
-3
-2
5
8
3
-1
1
4
1
-1
-1
1
34
5
0
-3
-3
-2
-4
-2
-15
0
0
-3
-3
2
0
-3
12
2
1
-1
1
0
0
8
27
3
-1
-1
-1
1
0
1
-10
-3
-2
-1
0
1
1
-8
-34
-3
-1
0
-1
-2
2
1
48
0
0
0
1
-2
-5
-9
-44
-3
-1
-2
-2
0
-1
5
20
-3
-1
-1
0
-3
1
2
-15
8
-1
1
0
1
-3
-2
-6
-1
-1
-3
-3
-1
1
-3
-6
-3
-1
-1
0
-3
1
2
22
3
-2
2
3
2
1
5
26
4
3
0
1
-1
-2
-9
-56
-9
-3
-1
-4
-1
-2
1
27
4
-1
-1
-1
0
-4
-4
-26
-5
-1
-2
-2
-3
3
4
28
2
1
-1
1
1
4
4
3
5
0
-1
-1
1
3
0
0
-1
-2
-5
-4
-1
-5
-4
-24
-6
-1
0
-3
0
-2
-2
-6
-2
-2
2
3
-3
-9
-6
-3
1
-1
-3
-3
-1
2
5
13
3
0
1
2
-1
4
-3
-14
-1
-2
-4
-2
1
0
-2
-21
-13
-1
-3
-4
-2
0
0
-22
-4
-1
2
1
0
-3
3
30
7
-1
-3
-2
-1
-3
-5
-8
-4
-3
-2
-2
-2
-4
-2
0
-2
0
1
-5
-3
1
-6
-15
-5
-1
-3
-3
0
1
2
13
9
3
3
-1
-2
0
10
41
2
1
1
1
1
-2
-6
-9
-6
-3
-4
-1
-1
-6
-6
-59
-16
-2
-3
-2
-4
-5
-9
-4
-7
-2
0
0
-2
4
0
8
4
-1
1
1
2
6
7
67
6
0
0
1
0
0
3
-30
2
0
0
1
1
-4
-3
8
-1
-1
-2
-1
-3
-4
-1
-6
2
0
-3
-1
-2
-2
0
0
-1
0
0
-1
-1
2
1
34
3
-1
1
-1
-2
-2
3
-11
-4
1
1
-1
0
-4
-3
-11
-1
-1
-1
0
-1
-2
-1
5
-6
-5
-1
-2
-3
-2
4
49
17
7
3
6
6
2
3
-31
-4
1
1
2
5
14
-6
-2
-14
-3
-4
-4
-1
-20
-7
5
19
5
-2
-3
-6
1
2
-24
-33
-11
-3
-5
-7
11
2
-19
11
7
2
2
1
-1
-4
-3
-29
-4
1
6
3
17
17
4
-1
-2
-1
3
8
-13
0
17
35
19
5
-2
-3
-19
-42
-5
26
0
0
3
-3
-2
54
10
-6
-10
-7
-10
-9
-7
-18
-11
-31
-23
-12
-4
-9
1
19
4
-12
4
0
5
1
62
31
18
-19
-1
4
2
26
-41
-40
-17
50
14
10
14
9
-49
9
-4
-14
-11
-21
-31
-47
21
-1
-1
-25
-13
-9
1
3
-23
-63
-26
-41
-5
6
4
-11
45
78
25
19
6
1
-22
11
15
-2
12
39
11
9
26
9
-18
-11
-1
-6
-14
-19
-23
-23
14
26
-6
-27
-15
-8
1
4
-4
-74
-17
-40
-24
1
13
19
-21
-50
-34
-8
33
22
41
22
25
21
29
52
25
-2
-35
-15
-67
2
-32
-25
-16
-21
-37
-35
-96
-7
11
-5
-10
16
33
-26
92
0
-22
29
-10
-5
-9
18
36
-27
12
-5
2
7
22
33
-14
24
19
-13
-1
1
-14
-22
28
-20
-27
9
7
-1
10
29
11
9
67
-60
-18
10
25
29
-22
-14
-93
16
-5
-1
5
-7
7
19
2
40
5
2
-1
-2
-14
-57
-19
19
-5
1
2
-16
24
50
24
-46
-9
-19
-50
-7
-37
-16
23
-76
-19
-5
-8
15
-101
7
17
33
27
-4
-19
-43
43
-22
-3
68
12
2
19
23
37
15
-16
-5
-5
14
46
53
-7
-3
27
-60
-46
-14
28
7
14
-28
-28
56
46
-8
-24
-17
-30
9
15
-28
9
-5
-29
-32
-67
-29
-15
26
12
-2
-34
-41
3
74
7
-70
-5
27
76
22
-37
-32
7
5
-9
-4
-17
-23
45
12
0
8
8
-14
-31
0
-31
27
-7
-21
12
8
24
21
-3
1
9
-3
-8
1
0
11
47
17
1
-37
-20
7
29
62
1
-14
-7
-46
5
-6
-12
-60
11
13
-17
28
-1
8
-21
-24
21
-57
-6
24
6
16
45
77
-54
-5
-12
-20
-16
-6
-1
-40
39
-9
11
-37
-24
-27
0
-21
54
23
11
6
19
-9
-8
-14
-83
-21
16
-30
-24
-13
-28
-80
54
50
4
17
3
2
11
103
-23
-41
-21
-50
-2
6
6
-3
1
-34
-15
-69
-6
-3
-6
-33
28
25
24
59
7
-14
-54
7
-64
-50
4
51
29
62
77
-24
5
57
-2
9
-18
-35
-64
-6
-9
-16
23
7
-30
-24
12
91
-3
-28
-25
-80
3
-10
-57
-76
85
18
17
80
24
-7
-12
-10
-5
58
0
7
14
16
19
18
-61
-89
-34
-9
-8
20
17
-3
32
40
25
-1
15
18
35
-35
-19
20
-5
-68
-7
-23
-33
-18
-35
-26
-1
8
-20
-11
-11
-10
39
86
4
75
16
2
6
14
-68
23
8
64
29
9
24
42
51
-9
-8
-73
-37
-27
-69
-29
73
57
9
-128
-20
11
51
18
-49
53
-20
-4
23
-2
-48
-30
59
-30
2
-7
0
-1
8
63
-26
-16
18
61
37
14
43
26
-21
7
7
-30
-3
8
-11
-11
-32
-9
-1
-67
-23
-8
-11
-49
-43
-74
-32
53
20
4
-36
-59
8
-29
-11
-35
-11
-6
-19
2
6
8
11
16
1
-4
51
50
-13
-77
2
-38
-5
17
48
-7
36
46
-5
33
17
-34
-62
-5
-82
-21
8
38
-3
8
23
-33
53
60
0
57
17
17
8
14
-34
-39
-4
-26
-22
-29
-52
-1
37
30
-9
-60
-19
18
42
-34
42
-5
1
17
12
10
6
29
-16
-14
13
54
5
-15
-29
18
-23
-12
-2
68
18
-15
6
-8
-11
-39
-39
-90
-11
16
-2
34
6
31
14
41
-14
-10
-20
-55
10
7
-5
-105
-12
-4
-6
-4
8
37
19
58
6
10
18
20
-13
11
3
21
-5
16
75
54
5
-13
-10
-95
-17
-3
-20
-19
1
-54
-22
-17
6
-3
-30
-24
-15
26
9
-18
-8
-27
-47
-51
74
-23
11
-94
-48
9
72
54
-3
27
-11
38
13
-6
-30
13
8
0
13
-4
-7
-15
21
42
-17
-28
-14
-48
4
9
19
61
12
17
0
-37
-7
7
-11
-120
68
40
4
-21
-21
-17
21
47
-5
-46
6
6
15
2
-45
-37
51
-34
-22
-42
-11
10
10
21
-49
3
13
22
33
-5
-9
40
-12
42
2
-64
-24
16
42
-2
-35
40
6
14
10
-5
9
-16
-16
-10
-6
-45
-6
6
-5
-32
-6
-22
13
13
-18
-30
-57
-25
2
-15
-10
-91
12
23
48
2
-49
-73
-8
-19
1
-6
-25
7
71
60
3
35
10
27
92
94
-39
18
-4
29
-11
-41
-102
-115
12
-79
-11
32
1
-21
-22
10
-81
30
8
-3
-6
22
37
-25
70
41
-4
50
33
19
9
78
-88
-39
10
1
-8
-26
-49
-4
-5
10
13
-103
-24
-6
10
28
-10
6
-14
89
6
-4
-38
-61
-23
7
-1
-75
-12
11
12
-53
43
50
4
64
13
4
27
88
-39
-72
8
46
9
-11
-16
-11
-36
34
-15
-103
-23
11
17
-27
18
-1
-20
-26
20
9
-11
22
60
58
17
-36
0
-1
7
-31
12
22
10
13
-12
-14
-60
9
0
-38
-10
43
44
18
27
-33
-54
-17
-9
1
-16
-18
-34
-46
0
3
-4
15
18
17
10
-9
34
6
13
-65
-18
-24
7
41
-13
-22
3
93
19
12
37
45
6
-56
-9
35
-17
-23
-40
-86
20
42
24
15
8
16
36
37
22
66
4
-77
-49
-10
-21
-29
3
-84
3
84
82
27
-17
21
-34
-38
-13
-94
-4
-12
16
41
-10
-2
-11
-20
-7
6
-2
-34
39
25
2
-29
7
3
3
-42
38
-5
11
-86
-58
-12
18
36
-38
-19
-2
6
14
4
-50
-68
-23
27
-25
-13
1
-2
21
69
-27
38
0
3
3
7
26
0
30
42
-17
-34
-27
-1
-38
-61
-23
37
44
46
-5
-4
56
87
33
18
-12
20
1
-16
-56
-23
8
-3
-10
-36
21
11
12
80
12
3
6
-42
5
6
0
-18
-5
-7
23
-109
-20
-12
-30
-64
-66
-26
-4
-66
-9
19
78
104
-29
-4
-17
98
46
6
-13
-109
91
84
29
-88
4
-23
-36
56
-19
46
8
17
-3
1
-13
44
4
-20
10
-100
-42
-16
-3
5
-30
-28
-11
24
-3
9
17
-35
-4
-30
-29
6
15
12
28
37
24
-5
2
4
-14
-24
-34
-50
-12
-50
4
-4
3
16
12
24
-7
-41
9
87
-14
2
31
64
-26
-19
-15
-40
-16
-5
-17
-95
11
39
10
-12
-7
-3
-15
-12
-42
-32
-16
23
17
-17
-29
-53
5
5
1
-94
-5
19
40
105
59
56
25
28
-30
-39
-17
-35
-21
-112
-38
40
40
21
21
-4
13
-32
5
8
19
-3
-39
-39
-24
20
13
-25
-23
15
33
-2
-16
0
-36
-44
-16
12
34
52
34
6
17
-73
-20
-27
-32
-50
-53
-26
23
93
8
8
1
-31
35
-11
-6
48
13
-9
-20
13
1
-24
-17
22
20
29
61
37
-28
37
3
-35
-8
-23
-41
4
-8
-3
-7
-69
-5
-2
-7
1
-19
-17
-9
40
8
2
-19
-48
28
57
11
-12
-4
-7
34
81
9
-27
-29
62
1
34
90
25
51
42
12
-22
11
-31
-86
2
-25
22
9
-3
-1
-18
-49
-39
-8
-10
-6
24
-7
-3
-30
-26
19
40
-4
-121
-35
2
12
4
7
-6
0
39
8
14
31
20
24
10
0
-43
11
-7
22
10
-69
5
30
121
32
10
5
-29
55
33
10
-49
-7
-8
-53
0
-12
-54
-29
-93
-25
-4
9
-15
-11
-12
13
4
21
9
18
31
-11
12
24
21
-14
-15
-34
-1
12
17
-13
-1
23
11
-2
-22
-8
-4
-15
0
8
25
32
-11
49
7
-13
-65
-17
-1
8
9
-27
-36
-16
-94
-40
-46
-55
23
-1
-32
-5
48
6
-22
-20
-25
2
70
8
-92
-17
-4
4
-14
-24
-80
-14
84
22
29
27
-60
-5
78
25
-36
18
16
48
63
-45
7
5
-79
-30
-22
-13
3
39
68
-8
32
9
15
16
1
-64
-60
-3
-101
-28
-3
39
40
28
3
-16
-43
-22
-34
-71
-42
34
18
19
0
-1
9
-8
8
-5
-36
9
96
2
8
26
24
19
-5
-12
86
33
13
-5
-57
-39
37
-6
-24
-8
2
-3
46
5
-17
-1
-19
-18
-7
-3
-33
24
-100
-14
-29
15
14
5
-44
-28
39
-4
-29
-1
-11
-12
-29
-22
-76
-19
-65
-8
-2
-15
-30
-43
-16
7
127
20
16
29
74
40
47
-1
-21
1
4
30
-57
-34
10
5
-111
-51
-23
-87
-41
12
-5
-18
6
50
30
65
-28
-19
-2
13
65
14
-11
-14
27
-81
10
-7
28
10
3
16
59
114
16
-28
-102
-33
-12
8
36
-65
-45
19
5
-17
-19
-68
-73
13
-12
0
-42
-3
9
31
-14
-5
33
6
-37
-14
-12
-24
27
-5
2
-10
29
20
14
4
-25
16
-66
-11
4
-19
7
36
64
18
-41
-13
-60
-25
-9
6
-4
-52
24
8
97
19
-3
-21
29
-27
-32
-7
-14
-2
-7
-39
-47
79
8
-3
5
10
42
85
32
-27
2
1
-18
-6
-27
-39
-19
25
6
23
91
-11
-28
-33
9
-45
-24
-6
22
40
23
29
64
54
51
-14
-20
2
-17
-56
9
-12
-46
-12
-66
-9
5
32
-5
-11
-81
-39
-118
-34
-10
-8
-10
24
80
22
90
39
1
5
4
-35
-15
-16
-75
-27
-11
-11
-52
-19
3
2
127
51
4
-15
-16
95
29
-11
-119
-7
-9
-10
13
-17
-24
14
-63
-26
-1
28
78
-4
12
-1
-3
16
26
11
-30
17
52
11
-12
-6
-16
-47
-67
-41
-66
-5
106
14
-1
-3
-20
44
-31
6
1
1
-4
3
-17
-21
-63
-1
57
-7
6
2
4
-21
9
-7
-2
-1
-1
3
-8
-6
10
6
13
9
7
-3
-13
22
10
-5
-50
-38
-10
17
-12
-57
1
3
2
-6
3
0
-28
-10
3
33
113
21
14
45
78
-23
72
16
-84
9
-10
-29
-23
-45
-73
-17
-31
-30
-3
-11
-23
-56
53
10
6
27
27
67
101
107
49
-29
-104
-70
-26
-56
-93
-21
-63
-9
55
60
8
-5
11
-19
9
9
-26
-7
-18
-38
-33
39
83
24
-73
-27
3
15
70
-25
30
-2
14
-7
15
29
12
-10
-87
-35
-4
-21
2
14
0
-24
70
13
-33
-20
-24
-17
-69
39
-54
2
-2
55
-2
-71
-22
-27
23
-3
-10
-12
-6
4
35
58
24
-4
30
-55
-28
54
-61
-22
-80
-34
5
20
7
-76
28
-3
18
6
-10
14
44
99
-25
32
45
5
3
74
19
29
-5
-24
-6
16
85
1
30
54
-7
46
-3
-18
-83
-79
-52
-22
74
2
23
8
-45
4
-51
-49
-46
4
-66
-28
-34
33
40
-20
34
-1
90
9
70
5
0
25
1
-30
-46
-11
112
3
10
32
-32
-22
-127
-12
27
21
-3
-47
15
-28
-49
8
-43
-10
-2
18
-7
4
65
-7
-73
-42
-23
-57
-1
2
53
11
95
-7
5
28
13
45
100
10
41
10
7
17
-36
-20
-16
20
11
64
24
29
55
1
-39
10
-44
-2
-30
-55
-19
36
51
6
21
0
23
-23
29
-20
-31
-5
-8
-53
-18
42
8
0
-59
-30
-2
-46
6
40
15
16
60
37
-24
54
-17
-59
-1
0
75
21
-12
36
22
22
35
10
5
-6
55
-59
-15
-46
-30
-34
3
-8
2
-38
-25
-48
-28
-6
-30
-14
-72
29
22
63
33
-12
-8
8
-10
63
8
0
-32
7
0
1
81
21
-17
0
21
-1
10
9
19
-16
-19
-14
-8
15
-8
-13
-10
-44
-30
-7
-3
16
16
4
-45
-14
-28
29
5
-16
-58
-20
-44
-7
-65
-31
-1
-8
5
8
3
2
73
0
-18
-9
-20
0
-6
11
36
8
5
9
-36
10
-4
12
8
30
7
-4
-12
-2
-9
-8
-6
-20
23
-4
-11
-1
9
6
-25
2
-29
-10
-17
-1
-5
0
6
-16
-44
11
-9
-9
9
6
17
18
17
16
-12
4
-16
-2
-16
13
-7
3
15
12
-10
5
-20
-1
16
21
-44
27
11
1
-10
6
27
-4
-30
-65
-10
-6
-49
-43
-22
-7
2
-5
-11
2
-7
-89
-14
26
0
22
-4
3
52
74
30
-14
47
11
3
-3
62
65
21
-12
2
6
-8
-3
23
-3
-10
16
10
6
-3
-3
6
18
4
2
17
-27
-5
-9
-10
-56
-22
16
-11
4
-7
-4
-30
-8
5
18
21
20
2
8
-9
-2
29
-18
7
-6
-10
1
14
13
13
6
19
25
9
-1
-27
-14
-60
-20
21
17
11
0
31
2
11
-1
34
-88
-11
-4
11
-9
6
-4
28
32
-11
-7
10
26
12
-6
54
13
12
6
4
10
-11
13
28
28
-6
-5
-2
-38
-17
-2
20
76
13
-6
-6
21
-3
-3
-7
-94
-28
-9
27
15
-30
12
8
33
-11
-2
-17
-15
9
-51
7
10
4
4
3
-3
-16
16
-3
12
-7
5
15
4
36
-11
-1
-10
24
11
39
-30
7
5
-26
-72
-29
-7
-16
28
-16
5
-12
75
15
-10
-26
21
26
-8
4
44
-5
0
-25
-25
-67
-11
-13
23
-26
-3
4
-12
18
29
-15
-84
-1
5
-43
6
51
4
-26
-117
-15
-12
25
-31
27
-3
16
104
17
5
-11
92
-17
19
-14
-80
17
-2
-9
-3
-24
-24
-14
9
15
-2
39
0
-4
1
-4
1
-18
-15
-34
4
-9
3
7
-15
-16
8
17
-41
4
-10
8
112
25
5
-34
-6
-46
3
15
82
70
4
0
27
29
28
-9
-78
-64
-6
-11
-16
12
-14
-27
30
41
9
18
-10
-13
-10
-7
34
-29
-18
4
-15
-1
-8
1
63
-46
-1
8
27
21
0
-15
74
54
8
8
10
-26
-3
27
14
-46
-10
-21
-37
-13
20
4
9
89
17
-26
10
24
-38
-5
43
-48
-22
6
-30
5
-12
-5
-55
-26
-3
-9
48
-18
0
-29
-56
6
1
26
-106
31
20
12
-6
-47
2
38
105
39
1
6
-23
48
5
14
34
-3
2
32
39
8
5
-11
-16
-11
-29
-21
-57
2
-10
-22
31
-6
-13
-27
-20
-13
-3
-3
-40
-14
6
-2
43
6
1
-19
-28
4
6
22
10
-25
2
0
-1
4
6
-12
-19
32
10
14
7
-7
-4
13
-4
-32
-1
-5
-16
-4
-3
-43
-52
18
0
-19
6
-14
-2
26
74
-11
-9
-15
-52
-9
12
4
10
-13
-12
2
6
0
3
12
30
30
11
14
23
-1
-12
8
1
-17
-3
-33
-27
-5
16
-2
-44
27
3
17
-28
4
-1
3
4
-32
-2
-3
20
13
-4
21
16
-3
-5
1
33
-30
2
22
-41
-21
3
4
-28
27
-3
-68
16
34
-1
-14
7
26
-19
-12
18
-20
-8
-22
-1
-5
-5
41
12
8
0
11
-26
-18
4
9
-18
-7
1
20
29
1
1
-16
-17
10
5
6
-23
-37
2
-1
-49
-6
-1
9
25
22
-6
-8
24
21
-4
-21
-11
-4
4
-8
13
-6
2
-6
-10
-16
5
16
-21
-17
0
5
28
19
14
30
80
32
-1
-7
-29
-16
-8
-39
-4
-29
-7
-9
-5
0
-9
-5
-71
-8
11
10
-1
-4
3
8
-7
-7
-5
-3
-7
8
0
-8
5
5
-2
1
3
-5
0
8
14
12
-1
-2
0
8
6
-6
25
1
-2
-4
-2
-1
-4
4
5
4
-2
-5
-9
-12
-1
-23
-58
-19
-7
-11
-5
5
2
-6
16
1
2
34
11
8
8
34
20
10
-4
-4
-14
-5
-14
-30
-57
-6
1
7
24
-6
8
15
27
11
0
-3
0
1
-9
-1
-46
-39
-5
-13
-15
-3
6
-16
13
17
-2
1
2
-4
0
4
9
-3
1
-5
6
9
-9
3
-33
5
0
3
18
-4
10
-10
-39
-13
-5
-10
-28
2
-1
13
77
15
-3
-5
-4
-4
2
4
-54
-8
-2
5
9
4
5
-13
-21
2
2
1
3
-3
-5
-24
-5
-14
1
0
3
0
-3
5
-26
-15
-5
-10
-10
-2
3
17
16
9
4
22
6
5
-8
-25
-48
-45
-2
2
5
-6
-7
16
13
19
-3
-6
-3
1
-4
-21
10
-2
-2
-2
-2
-9
-3
-3
52
3
4
-6
-2
3
-2
-1
-34
-4
-5
-3
-2
-5
-3
-8
-1
-3
0
-2
13
-1
-3
4
-23
7
-2
3
-19
-2
-2
-8
16
1
-3
-11
6
5
16
6
-27
-10
0
10
2
-2
-1
10
-14
-9
-1
-5
-2
-1
-8
-23
-9
-15
-4
2
3
-6
-1
3
-17
1
-4
-2
-7
-4
-5
5
56
30
9
0
1
6
2
-13
-4
12
-2
-4
0
-3
0
-4
9
-5
-2
2
3
-1
3
-12
-8
-22
-2
-1
1
3
5
38
42
6
3
0
6
1
-20
-27
-5
-24
-11
-6
-10
-6
17
4
-18
25
-1
0
-3
-3
-12
-17
6
-21
-5
-1
9
0
4
-1
17
53
15
7
5
8
14
31
40
41
19
8
16
7
-8
61
-23
-32
-6
-9
-18
17
-18
-8
-15
13
3
-1
19
0
36
-11
9
-59
-18
-5
-12
-46
50
49
2
16
-1
2
-13
4
-7
-11
3
1
-3
3
15
9
-45
-29
-11
-36
-13
-19
-38
3
-41
10
1
45
8
-12
-17
-5
48
19
14
12
-1
-14
-32
-36
-17
14
-24
-81
-21
-6
-19
-15
68
-35
2
68
19
32
69
57
-6
-28
19
-59
-38
-3
60
81
-29
-45
-4
28
26
-5
-21
-81
76
11
54
41
20
-4
-52
-23
-9
53
-55
13
-2
-1
43
-4
-54
-33
-85
-74
-5
-8
-56
-20
-16
14
-17
-40
-31
25
46
30
46
-37
19
78
35
8
-19
2
50
34
53
-61
-33
-24
-40
-10
26
9
43
87
26
7
15
54
1
-31
-46
-7
-24
2
37
46
-104
-9
6
-82
-28
-25
-69
-41
-13
-24
15
81
43
9
8
-85
-37
-13
-11
-24
2
5
12
-18
-71
-21
-5
18
8
4
23
28
-48
-26
-23
-21
-10
-1
12
35
5
2
-3
-48
-3
3
69
88
-6
1
-3
-57
-30
-20
-105
-93
26
62
22
47
19
-11
36
50
28
-8
-11
-42
-7
22
46
-34
-42
24
26
2
-23
-27
-53
-8
55
-11
-1
127
49
35
61
43
50
-28
24
-84
-49
-27
-27
10
9
-9
9
20
18
-15
-44
-58
7
75
-5
-17
10
-1
-77
-13
-54
-42
-3
-122
-52
0
42
22
43
54
1
36
20
-7
-3
-17
-19
-51
-11
84
24
10
55
16
1
-75
-4
-41
-9
1
10
-17
24
63
-4
33
-1
-7
-40
-15
-28
-21
-9
19
-23
-15
10
36
33
8
-24
-14
-6
-1
-16
11
-16
39
12
-37
10
14
36
85
-8
-29
-7
-24
8
-6
-8
-75
-14
-13
0
-105
-7
-23
-25
11
-37
7
-2
111
33
15
-12
10
-31
-2
2
-27
-20
7
-16
-15
-15
-20
2
-1
5
-17
-25
-21
32
-6
-6
-28
1
-16
-3
6
-7
-7
-8
-112
-36
-8
31
18
29
-37
0
112
8
24
-18
-33
-17
35
31
-27
6
18
-8
61
-15
-18
-12
-23
45
2
-33
-69
0
10
0
15
8
18
70
14
-5
-42
-31
-18
-29
-25
-48
-39
30
1
-3
25
-4
9
33
-4
-24
-17
8
-40
1
-3
-14
73
-17
27
-4
-44
-2
-13
-7
-19
-16
11
-18
-94
-44
-10
9
26
85
38
15
27
17
-1
9
47
-29
-17
-1
-34
-34
-11
-39
-81
-30
-10
-23
-78
15
26
27
-31
14
16
17
-73
-4
2
28
47
30
30
3
27
-7
-39
-74
-17
-23
-11
10
41
9
31
-1
-9
81
48
2
7
4
-27
-7
14
-75
-65
-20
-47
-2
20
15
-18
12
20
3
-3
0
11
68
35
10
17
-4
6
-2
1
6
12
-22
-68
-21
3
-29
-3
-4
-9
-25
59
-9
-8
16
-9
-11
6
65
0
-4
-35
-17
10
42
-22
31
26
18
-26
21
12
-20
-51
-12
13
5
65
1
-20
6
53
-14
-11
18
0
-11
2
3
-56
-85
-29
-4
-13
16
-4
2
-10
67
27
-8
-73
-37
-4
36
73
-7
11
15
48
5
9
-7
-56
55
-6
-25
123
39
-2
69
100
-43
41
22
-12
23
-1
-79
-40
-85
-127
-44
-4
17
8
9
62
47
73
8
-115
-23
-16
24
-52
0
-16
7
34
-34
-43
-46
-10
16
25
15
5
-17
-19
30
-10
-55
4
2
56
40
3
-18
-32
9
0
8
-4
-11
11
5
38
11
-8
-2
-4
-4
27
2
-4
-16
-51
-34
-23
-14
-18
-26
-44
20
32
24
19
4
11
-24
5
-16
-61
-12
-4
1
11
8
30
19
2
-3
-79
16
6
-7
-52
-69
-4
11
120
14
12
37
20
68
25
-13
-37
-40
-16
-49
-16
-14
-4
-2
-78
-6
1
-12
-3
6
42
21
49
35
9
-29
30
-28
12
-1
-125
-17
8
24
2
-32
-26
-5
64
6
21
51
-39
8
11
-7
-11
-40
-42
-58
-29
41
-12
-5
13
12
-18
-71
-9
24
-13
7
15
43
12
2
3
-30
31
6
-38
-28
0
-4
-21
0
-29
-15
-1
17
34
63
47
-3
58
3
9
-41
-25
-5
6
5
-46
-13
-59
-16
-17
-6
13
-22
-15
22
-19
37
7
4
-17
-12
22
-14
62
9
16
16
44
-44
-29
-6
-8
-3
3
29
-14
48
-13
-2
-2
-9
1
-28
-5
-7
64
23
-6
-32
3
28
-1
-79
-31
-2
-19
17
-16
-71
-82
74
4
-1
53
29
13
13
18
-22
-6
-2
-28
12
1
-12
6
-13
-45
-31
2
-22
6
39
-2
-6
28
3
-89
-39
-23
-32
-4
-60
-27
0
52
67
29
59
13
5
5
11
33
10
-8
-58
-31
9
18
5
18
17
2
-1
8
1
-21
6
-17
-28
-19
-40
-14
-45
-46
-5
-24
-20
3
-1
-65
64
32
5
25
0
18
50
50
19
43
26
50
14
-15
-13
1
-11
-19
-11
-8
-2
8
14
11
20
-11
-4
-24
-20
-4
10
27
-48
-86
-14
91
54
12
11
-24
70
43
1
-34
-10
-20
-34
17
-27
-1
17
10
30
17
14
-7
25
17
-1
-27
-25
-17
-18
16
-73
-20
-15
-67
-36
4
35
19
2
-9
-21
16
4
-1
5
37
4
-8
5
2
-5
-10
-29
-26
3
69
27
-32
-2
-10
-27
-31
-14
-63
-18
17
-12
15
53
34
-33
24
-27
44
19
-7
-38
-97
73
59
22
45
-2
-17
33
49
-10
-30
-7
-26
-5
-6
-10
-24
-8
38
-2
5
-6
-23
-41
-42
-38
-49
-9
-6
4
32
68
59
71
2
-4
33
26
13
6
-11
12
-14
-2
69
-5
-13
-3
0
10
24
13
-26
-5
3
6
17
3
36
19
-15
-23
11
15
12
-37
-47
7
92
56
21
17
-7
19
41
-8
-56
-17
-9
-8
45
-7
5
6
19
-25
9
36
-58
25
45
0
-25
10
-21
-38
-43
-34
-16
7
-22
-11
-7
-18
6
28
19
-2
-22
6
11
4
-32
-5
16
-11
-42
-28
-2
-1
73
-31
-41
-8
40
12
-18
-6
-43
24
-18
-10
-43
-10
3
17
21
-47
-51
-11
11
27
-7
-21
-23
41
60
9
28
4
2
-1
-9
-15
-64
-2
-2
-13
8
26
4
6
-31
-19
2
-19
-8
5
19
17
86
11
-28
16
6
2
7
-11
21
4
-116
-17
-13
-18
29
-52
-84
-13
80
45
-3
-14
-12
53
3
5
-6
-30
-3
-4
-21
-11
37
15
-74
-15
-12
-18
-26
-24
-13
-18
-44
0
38
40
2
14
-64
-14
40
-6
-41
-83
39
-57
107
15
-56
-25
-4
9
72
23
-95
-27
85
29
13
-5
-70
60
2
9
-39
14
-19
-5
3
21
6
10
-14
-15
18
35
2
-38
20
0
7
0
-5
-23
-18
-12
-21
-5
-18
-11
12
2
25
0
23
1
111
11
-3
-17
1
-1
-29
-20
-42
-21
5
0
-28
5
-41
-15
86
34
8
22
8
42
11
6
-71
-3
12
40
40
-16
34
18
1
-11
-18
-30
-28
-28
32
11
-4
6
-4
-11
-27
11
-17
-6
48
-51
-12
4
11
8
-48
-13
10
36
10
54
76
18
-14
0
34
30
-6
-56
-72
-54
12
18
-57
-12
-3
-26
3
-15
14
-2
-70
-13
-13
5
-40
-2
-1
-8
66
19
15
-31
-6
22
48
26
-47
-18
5
51
59
12
-17
-17
-25
-12
9
4
-13
-18
7
-9
-91
10
3
4
-16
-26
32
7
-36
-47
-34
-15
-12
-32
-36
-25
13
25
-1
-5
20
48
1
-1
-55
-10
-1
-15
-43
28
11
22
107
66
16
17
23
-47
-46
-5
9
-6
4
7
1
17
-31
-27
7
-7
-5
-18
-23
5
50
23
-66
-24
-7
33
37
-14
4
-13
15
-5
-1
6
-1
-31
12
8
-36
-7
10
-18
-18
-7
-26
21
74
23
0
19
35
21
4
-13
0
15
15
43
37
27
50
9
-26
-16
-13
-26
14
-10
-15
-6
-6
7
-2
-3
-45
5
20
6
-65
-45
-4
5
75
-15
-20
-6
25
6
5
-15
-98
-17
-34
1
-35
28
21
15
49
25
-7
-20
-14
-23
-15
-18
-9
-10
-9
12
-43
-11
-15
-9
-9
-28
16
10
7
11
24
25
16
-1
-22
-15
0
-10
-22
-47
-30
23
4
3
14
14
-4
-1
68
27
8
-4
-30
-17
-7
-25
-65
3
32
3
-3
-6
-7
-4
3
-15
-63
-12
4
6
7
16
-22
-63
32
-6
-36
-20
0
-6
-14
59
-10
5
4
-13
-15
-2
1
-5
8
3
8
-2
-6
-8
24
12
24
2
-47
-14
18
38
-2
-18
-11
-20
38
-29
-3
-9
-56
18
10
15
-42
12
-24
-64
26
25
-7
18
-41
-14
-51
-54
14
-32
4
-1
20
33
-2
-12
3
-36
3
-3
-28
4
60
67
11
18
-9
-6
-2
-13
12
0
-75
20
-53
-20
36
12
9
8
40
-3
76
19
-4
-15
-11
-3
-7
22
-33
-4
74
32
-7
-10
-4
-69
-17
-28
-71
-14
2
3
-19
24
-22
4
2
-8
-9
31
44
10
-42
-4
-27
-23
4
-1
-7
9
57
-4
44
-8
-10
27
34
13
-9
5
11
25
-3
-21
-12
-35
3
-13
17
12
12
9
7
4
8
2
-16
-3
-16
5
0
77
32
49
6
-23
-4
-16
35
-51
-14
-25
14
23
33
18
1
-3
26
3
31
0
-5
-3
-45
5
6
-11
26
-6
9
27
67
17
-58
-2
1
6
-21
-22
-56
-8
-2
0
-25
-10
-10
5
10
3
46
9
-19
-4
10
-11
-21
16
-17
-11
87
37
-3
-18
-12
14
-22
-5
-45
-32
-32
-13
47
10
-63
-10
33
1
8
20
-28
-56
15
2
-42
-1
22
26
17
44
-17
-4
-72
1
-5
-21
-40
-3
49
17
19
17
-23
-13
41
-11
34
-1
-2
-18
-12
-30
-31
-13
-20
-5
12
-15
23
45
-1
4
-16
-12
-96
-33
-13
-36
27
15
63
25
77
38
54
70
-28
-11
-33
-6
15
47
-5
19
51
12
-19
-15
-35
11
-2
-6
40
-23
9
4
-39
-39
-1
-31
-58
-21
-40
10
-128
-50
-34
-76
-43
-40
-42
-28
54
63
46
72
-19
62
47
21
-37
-2
-9
1
15
-2
61
8
-59
-23
-47
-31
-4
1
34
-8
-58
-39
-51
-41
-11
11
-18
-2
-73
-40
34
-31
15
-68
23
-6
43
-14
-32
51
-31
45
-25
1
99
100
109
110
23
-17
-6
-20
-36
3
-19
8
-13
-3
-12
-9
-22
-31
-29
-49
8
-2
57
-9
-128
1
14
-30
-5
-20
3
53
30
-24
-8
37
4
1
-25
-28
77
69
21
-15
31
-29
24
4
12
-30
-57
24
-20
76
-75
-37
-14
-16
-26
0
15
-20
-17
-6
-45
-9
-28
-18
13
-46
-37
5
38
30
40
44
-60
-4
24
8
-1
-23
27
-52
-30
-7
22
13
76
-6
-28
-43
35
-5
7
-2
5
-19
-3
8
-9
-9
-29
-14
9
-5
-23
-5
-10
-2
-8
-6
-7
-3
11
5
14
6
24
9
35
16
27
55
8
6
-51
-11
-43
-25
-4
-52
11
15
36
21
-8
-2
-10
-4
-1
1
12
13
38
13
-9
8
-9
1
-14
-4
-17
13
13
-15
23
-8
7
-25
-36
-26
-4
11
-27
-7
-20
1
51
6
-12
-12
-18
11
25
11
15
8
-4
6
21
1
-10
-2
-5
5
-30
-27
-15
-12
-18
-9
13
5
21
8
-16
4
3
0
-35
-13
54
7
31
15
22
0
-9
0
-11
11
13
-3
-25
24
19
-1
2
-16
-18
-15
8
-14
-20
10
-1
7
-9
5
-7
-11
11
-2
-4
-15
0
10
8
7
-16
-12
-5
12
7
-12
-39
-36
-27
-8
-15
-17
-17
6
2
2
13
12
-14
-7
28
11
0
0
-28
-5
16
10
-27
-23
0
42
-2
7
-14
-4
-14
1
-18
-76
-13
-11
8
4
4
1
0
-17
12
4
-6
4
4
0
-14
5
-7
-2
10
-6
8
4
12
14
-6
-4
16
4
-1
-9
-4
47
9
1
4
-10
-11
6
23
99
29
4
-17
0
-6
-8
-13
-103
-46
-9
1
3
14
7
26
38
-7
-8
5
1
-1
-3
23
4
-4
0
11
0
-3
-6
-3
2
-1
1
18
-3
-8
7
14
6
1
-11
14
6
-1
1
10
0
8
1
-26
3
2
-3
-6
28
1
-8
16
-4
-10
1
7
25
19
3
44
3
2
1
5
-36
-17
2
38
-3
4
9
2
-32
11
2
12
6
10
1
11
27
6
6
-13
0
1
-1
4
-70
7
-3
-29
-5
-2
14
-7
-21
-36
-9
-38
2
2
-24
-12
16
-8
0
-17
-8
-7
4
3
18
-9
2
-32
5
3
-9
1
20
1
4
-32
-17
-2
14
6
-35
9
2
-14
4
15
12
-3
11
6
-2
14
5
1
8
-4
10
15
4
6
-16
1
-3
-7
-14
1
-2
-12
4
11
-11
2
49
-9
-4
-19
0
-22
-2
-3
-15
-17
-5
-4
1
-4
-6
0
65
9
0
8
8
-3
6
-8
-59
-7
-6
-10
-10
-1
-22
1
-2
-17
-6
2
-6
-10
13
-1
-11
-19
-7
-9
1
18
-3
-18
-119
-18
-3
-4
-5
-6
0
-1
90
18
2
5
7
3
3
15
44
48
8
-12
-4
8
-22
-29
-92
-28
-7
-8
2
-6
-8
6
-8
-1
-4
10
-12
-10
-7
-9
-11
-12
-1
5
1
-9
2
2
39
-5
-4
-8
0
6
10
20
59
31
12
4
2
-5
1
-6
-24
-19
-5
-9
-2
-1
-3
3
-27
-3
1
11
2
0
-17
0
30
18
-2
-11
-12
2
-9
-7
42
-8
-3
8
6
-1
7
10
57
28
0
8
1
-6
12
-2
-76
-23
7
5
-1
-1
4
-12
87
-10
-11
-52
-10
8
-13
-12
-9
-13
-4
61
8
2
-3
9
75
11
1
8
7
0
-1
7
72
20
2
-8
-6
-4
11
2
-30
19
6
22
16
-1
15
26
38
-11
4
-13
-3
1
-5
-34
-78
-17
-4
-5
1
15
-4
-7
20
-16
2
10
-8
12
-22
7
94
43
2
-8
-8
-26
7
18
71
2
5
-5
10
-12
6
-13
-93
-26
-8
-11
12
-6
3
4
66
-10
0
13
5
8
-4
-37
-96
-54
-6
8
6
12
5
12
6
20
6
-5
-4
1
-4
15
69
62
2
-1
-18
-9
-2
-10
4
-33
-10
-13
-11
-12
9
19
79
12
6
28
13
4
-3
-26
-127
11
-1
-5
-4
-9
-1
-18
37
-10
1
-7
-3
9
-13
23
-69
-7
-6
-19
-1
7
17
20
13
-4
3
23
3
-16
2
-15
35
-14
1
-36
-3
10
-3
-9
37
2
-3
10
-1
-3
8
22
-22
52
0
-21
-13
4
-16
7
-39
-12
4
8
0
8
0
1
-19
-24
-9
8
0
-45
9
31
95
-1
6
17
3
7
-13
-49
-123
-39
-10
-22
5
-8
1
-11
-78
-8
-1
1
-2
3
4
-3
14
23
-1
9
-15
12
-12
-9
-57
3
-2
1
1
-5
-2
3
69
-5
2
0
5
-7
2
-3
24
21
-1
-25
-6
-2
-6
1
-21
13
2
9
2
9
-4
-11
-34
-25
-3
-8
-1
-9
8
15
105
40
8
12
-1
2
-2
-9
-30
-12
-5
0
2
-1
-2
-11
36
-9
-6
-8
-10
8
1
14
-91
2
2
-5
0
1
-4
3
82
-9
-3
18
6
-3
-1
-5
-8
-20
-4
-3
-2
-4
7
9
31
17
-1
-12
1
3
-4
-7
-52
1
0
2
-9
-1
-1
5
-43
10
-1
1
3
2
-3
-3
7
-10
-5
-6
-1
-8
1
-3
-21
-7
-1
8
3
4
1
13
49
15
5
5
1
0
0
-4
-15
-6
0
9
2
-9
-2
-15
-17
-14
-3
0
0
1
-1
9
16
22
0
-9
-3
4
7
6
18
-37
-5
-10
-2
0
2
-4
-2
10
2
12
7
5
-8
-9
-18
-26
-3
-16
-20
-12
-9
-4
-14
-2
2
16
16
-3
1
2
45
17
1
3
-3
0
-6
-15
-97
-15
-9
-15
-9
2
4
11
-7
4
1
6
25
6
-1
-6
-51
-17
-3
-11
-27
3
-2
1
40
-3
-2
12
8
-6
3
9
31
14
3
2
3
-1
-1
-6
-36
7
1
-2
-4
1
1
-7
-41
-23
-4
-5
-1
2
-6
6
33
17
-4
-3
-1
1
4
-11
-1
3
3
1
-3
-6
1
4
-11
5
-1
-1
-1
0
-1
-10
-5
-17
-4
-10
-3
3
0
17
-22
-8
0
1
0
-3
-2
0
2
-2
-2
1
3
-3
-1
1
59
15
2
0
-3
0
4
7
-25
7
4
-3
-2
3
-3
-11
-20
-29
-5
-4
0
-1
-7
-21
21
-8
-12
-4
-4
-4
8
15
-11
10
10
4
2
7
7
-3
-11
11
6
-1
1
-3
-3
0
-10
-18
-9
-6
-2
0
7
10
4
-33
-20
-4
-3
-3
0
19
1
25
14
2
1
4
-18
-53
-4
9
-4
1
3
-2
-1
31
3
24
6
0
-5
-8
2
-73
-31
-26
-21
-6
3
3
5
29
33
-16
-6
-5
-11
0
24
34
21
35
3
6
8
9
-21
-26
7
-16
7
-1
6
12
-3
0
-4
-20
5
-4
-3
-6
-13
-14
0
-39
-19
-13
-6
-28
35
47
14
14
-7
-1
-17
2
11
-46
-3
-37
-16
-2
11
20
-83
-13
-21
120
36
1
6
3
-22
6
-11
-33
-4
-19
-25
-38
-8
-42
25
-24
-8
5
5
-9
69
75
-15
17
6
10
-5
-1
92
-7
-58
-83
-10
-6
26
22
26
25
-1
54
7
-13
8
13
-49
-44
-6
-32
-17
-23
-46
-36
-59
-35
29
86
29
23
61
8
-26
12
5
-11
7
-6
-30
-18
-39
-43
-17
-46
-18
11
-44
-24
-40
36
28
-36
-12
17
39
70
26
-46
-41
-17
-11
-1
31
-30
35
40
23
19
14
7
-25
-49
45
-7
7
2
7
-1
32
3
-51
3
-22
31
6
-6
-55
-26
71
-16
-24
-37
-32
3
17
34
-40
11
27
53
1
9
41
36
38
-7
-8
-46
-7
-4
-22
45
-23
-29
-7
37
17
5
26
-29
-30
19
-8
-13
-2
-8
-9
-19
26
13
14
-112
-25
-17
-65
-72
-25
-28
18
73
19
13
38
67
4
42
12
-13
2
-11
-11
24
20
-26
-8
56
-1
-7
2
-5
19
13
38
47
7
15
26
-27
23
16
15
-59
0
3
15
45
-3
5
-26
3
18
1
4
-36
-69
21
20
33
14
-5
-25
1
-11
-34
11
12
-23
-8
-18
19
-17
-42
-24
-14
31
23
7
21
74
39
1
-25
-12
3
39
30
-6
-19
4
-22
-5
-17
-31
-3
-29
21
-7
-13
-8
-23
-16
-19
37
-19
-12
-10
-33
12
17
21
25
-45
-7
85
43
30
-5
-20
-56
-6
-11
-80
-9
-20
13
-35
27
15
28
28
7
15
-4
61
-36
-13
8
55
-3
-1
24
-23
62
-6
-37
-65
-26
-11
-1
-8
36
51
13
30
7
-11
-40
-31
-25
-1
-11
-52
-11
-7
4
35
-34
18
25
38
-7
-8
-17
-24
-32
-54
13
12
3
3
-3
-20
12
14
2
-54
-8
9
-14
6
-27
1
-16
-32
23
-1
7
-2
-13
2
4
81
3
1
-6
-19
-42
4
-3
-25
-19
-20
18
31
82
33
-1
-67
-32
-2
1
46
-47
-11
5
39
39
25
-3
-29
-17
14
-5
-50
1
-4
-27
-42
-47
-33
-13
-39
-13
-2
5
-7
-3
0
-21
48
25
17
4
43
50
27
12
3
-28
-33
-6
-1
-10
-9
14
-12
15
-6
-16
-24
7
-7
5
-5
-21
-23
-47
-4
-74
-38
-17
-37
17
7
21
-14
51
8
-15
46
-12
17
10
-1
-4
-35
0
-57
-55
-24
-18
12
62
33
15
81
73
10
15
6
-30
-17
3
25
2
11
13
25
-32
19
1
-3
12
-9
-27
-51
19
20
-6
-48
-29
-5
-10
-8
-3
8
16
-11
-31
13
35
20
27
6
-16
36
24
-10
-4
11
-45
5
-4
-56
-26
-10
0
42
27
0
-10
72
45
32
28
-4
28
42
14
-9
-8
-2
20
-51
-77
6
-4
-99
-41
-26
-53
-30
77
-59
-6
45
-7
5
8
2
-3
46
27
8
33
0
-1
-17
-4
-4
-2
48
35
17
2
14
12
21
6
-38
-36
11
-1
-34
-35
19
-10
-72
-22
3
43
25
-31
-41
-4
47
3
-13
9
19
21
-4
6
-33
-3
-19
-31
8
15
5
12
31
3
30
47
45
16
0
-11
-38
37
6
-32
-13
21
-53
-10
-31
-37
-34
-48
-45
-71
3
-11
-2
-6
-4
2
-32
50
10
2
76
16
-7
-23
52
-10
-31
8
19
39
27
27
-48
13
33
8
-46
14
17
42
34
-60
-29
-26
7
-27
-16
-54
-43
39
-37
3
10
-33
-12
30
32
6
-9
-9
23
3
22
75
96
13
-25
6
36
-21
-25
-67
-50
-8
42
21
-4
36
-10
-31
-12
-35
44
7
-21
6
-15
-15
-42
-46
-17
-9
9
-10
-6
2
1
-42
-22
-13
-11
-48
4
20
-17
72
-15
4
6
1
38
47
48
-41
-48
17
34
43
2
2
-7
-3
62
0
-47
-7
-7
-40
-8
-21
29
-9
34
17
18
22
1
14
-30
-1
-28
-43
-12
4
-37
-7
11
8
37
11
7
14
-16
1
-52
-19
-42
-26
-25
-27
6
-4
36
-9
1
25
4
-7
-7
-1
27
8
13
10
5
18
16
43
-18
0
-5
-19
11
2
-23
-10
-6
14
10
5
-11
4
32
-11
-2
-15
-52
30
21
11
16
-20
15
-1
41
-2
-8
-16
-19
-58
-72
-7
-20
-5
-21
-19
-19
-4
27
-13
-43
-40
3
4
11
58
-1
10
32
1
-15
-20
-34
11
16
13
-4
6
-9
-31
-10
-14
27
5
25
9
5
-3
-4
-2
9
-4
20
-12
1
12
-20
-5
-9
-13
19
2
0
59
38
17
22
0
-61
13
10
-21
65
35
-27
-15
42
-20
-27
-28
-32
-43
-16
8
15
49
-1
-31
-18
-26
32
22
1
-28
-6
-23
-18
-17
-46
-21
-9
2
5
23
-33
43
-23
-11
-1
14
10
32
72
5
-64
0
-2
-18
-23
-39
-43
0
17
-16
-7
28
8
18
13
-1
67
10
-26
-21
-2
9
47
-6
11
-2
-39
-21
3
-14
-48
-20
-25
-17
4
5
-7
6
-19
39
18
20
-26
-13
3
-11
19
37
-38
-8
28
26
15
19
40
-70
31
7
-36
-3
1
14
-52
25
29
-4
11
0
-4
-30
-9
-64
-6
12
41
4
-6
-3
-17
-1
-28
-13
35
-25
-6
40
41
45
-13
-13
-11
52
14
-4
28
-7
5
17
12
8
8
11
7
2
-8
-20
-24
4
10
7
3
-4
-14
1
-29
-22
3
-1
-5
-28
10
-5
-38
-32
-20
-40
-32
24
11
-8
-33
-32
-9
11
6
16
5
7
8
23
17
-3
21
-49
-10
-8
7
13
-12
-22
-54
-22
17
-11
-3
-1
2
30
2
4
13
10
21
-19
-14
-12
29
38
20
18
35
1
-14
1
20
8
-31
-5
-70
-7
5
4
14
-8
39
16
-52
-10
-16
-34
-36
35
17
10
58
31
25
24
-4
32
5
8
55
17
-9
-5
22
-14
59
2
-15
3
-6
-8
2
-33
-16
0
-60
0
14
15
-29
9
-25
-9
90
21
11
4
-2
24
-63
-16
-83
-31
-35
-23
8
17
26
5
-52
-2
-3
-69
-24
-8
10
6
51
23
-2
4
8
29
19
-14
-8
-21
1
-3
-35
-80
-26
-5
-34
-17
16
16
-13
46
-55
-4
-9
-24
-21
10
5
7
13
-18
-1
-33
0
-1
21
-54
-14
5
26
19
-4
-20
-35
24
74
11
-49
39
36
48
41
-22
-8
11
-3
-15
-25
5
28
-11
-6
-2
35
14
-6
-24
37
-5
-24
-19
-44
-11
30
50
-24
-21
-10
-2
0
-20
-21
-41
-46
-16
37
-11
58
-2
10
19
-5
8
-73
5
-18
-6
-11
13
-1
5
36
-5
-51
11
-5
-10
31
-7
-14
-11
-81
-58
9
4
-15
14
21
20
79
66
16
28
-11
15
-51
12
62
41
0
24
56
-10
56
2
-21
1
-4
7
22
-41
-26
2
-11
-2
-5
-2
1
81
63
10
31
-50
-1
-12
0
-24
42
5
-23
5
11
-9
-53
43
-36
2
21
9
-10
6
26
1
25
-6
18
1
10
3
-22
-50
-17
2
-38
-25
-15
14
45
18
33
3
-7
-10
-7
-4
7
-14
-7
6
-14
-3
6
-1
-27
0
-3
-17
-38
-22
-13
-41
-25
-13
-13
-6
-53
-29
7
35
-28
42
75
12
49
43
7
7
52
-25
-30
-11
-31
-10
-11
-2
18
-30
-19
-1
54
18
-10
-6
-59
-25
-40
-7
-38
-5
33
25
64
2
52
12
-11
-2
-14
-39
-51
9
-55
-8
2
-4
-2
6
33
25
8
0
4
23
5
2
21
-47
-75
-26
14
14
-2
-11
-70
19
34
24
7
-33
20
42
16
61
-2
14
-15
5
-17
-2
70
23
39
3
-39
-78
-36
-38
-9
-38
-46
0
48
81
14
6
-30
6
-45
-28
-58
-16
25
56
54
-20
7
16
107
45
-3
-40
-74
-4
-7
7
-3
0
6
19
4
-12
54
4
47
2
-6
-45
-47
48
-54
-16
-68
-8
6
31
45
-2
48
21
46
-15
-18
-20
-2
-15
-13
-14
-18
-8
-19
-27
3
12
15
-2
-32
5
23
14
9
-22
11
-6
-36
-1
-2
-16
-35
31
0
-1
-25
-28
-25
14
22
-38
-103
-3
15
18
-3
-23
-32
38
-20
-17
-43
-8
-32
10
15
-29
63
5
24
-5
42
35
13
35
50
-5
-75
-18
-42
-47
-11
32
-33
0
7
9
63
25
38
-23
-6
18
84
-7
-8
-26
-10
11
-33
-26
-96
-8
3
-13
-33
-35
19
14
97
47
38
66
-9
10
-12
-11
66
34
-20
-7
57
20
-6
8
-43
-11
-26
-27
5
-49
-27
-5
88
-19
-40
-59
-45
-44
-16
2
-106
-32
25
34
-28
16
43
11
76
59
0
19
-5
55
10
7
-41
9
29
16
21
1
35
-6
-44
-10
-41
-38
-3
-20
-80
-15
41
14
33
27
-24
-31
15
8
-2
-5
-23
-35
14
62
65
7
-9
-11
-24
-9
23
21
-67
11
27
26
44
20
10
-28
16
-24
-16
-16
-35
-78
-25
-19
-18
-1
-44
-26
4
56
-12
13
-1
0
83
-12
-14
11
58
18
-3
-13
-27
15
-20
-38
-23
-15
6
6
-48
-15
20
8
-26
48
68
5
36
-3
-2
5
33
-37
-44
3
-50
10
3
0
2
-6
40
25
127
42
3
-6
2
-21
-12
-2
-6
-7
14
4
18
-5
3
-12
-77
-2
-9
-2
-46
-11
11
0
24
-1
-2
6
11
-26
-32
-3
2
-9
0
3
14
14
14
-12
-5
-25
-22
-33
-46
4
-32
-2
-90
-43
-12
8
14
-16
31
-8
39
35
20
-8
-15
20
-4
-7
-47
-11
-13
5
-3
-12
9
-3
-35
-2
-13
18
25
42
-7
9
89
22
35
25
39
-15
-11
5
-74
-12
-4
-12
-15
11
26
2
-10
-37
-29
-19
-18
27
-25
-12
-25
25
2
33
9
-28
65
13
43
21
12
-18
-32
-79
-26
-25
9
8
30
24
-52
91
36
31
-39
-40
-14
3
88
-38
-16
-2
-15
-8
-9
-6
34
-6
-57
-15
-49
-20
-3
13
-37
-13
-6
-1
-11
-21
-5
-2
8
-43
-47
-16
-47
-5
0
-2
-82
-18
39
9
24
22
-3
-43
-3
7
-7
-2
-4
-3
-18
11
51
5
-21
-23
-55
-36
17
30
-22
29
-13
-2
32
25
-3
-46
-20
35
37
20
-21
-6
-19
-27
11
-24
-26
-9
68
32
-29
-34
-19
26
50
10
-57
-23
-10
2
11
-36
-50
0
85
14
17
32
0
24
9
-2
23
14
37
52
-8
-17
9
-7
-40
-25
-27
-23
-10
-3
-18
-2
-21
-10
-6
-29
-14
-1
5
-10
-60
-23
-1
-14
35
0
-17
-8
6
41
11
15
14
6
28
12
32
18
22
20
-9
3
18
13
25
21
-27
-19
-7
-5
10
-13
-20
-25
41
10
-23
-12
-4
-5
7
-15
-44
-3
18
6
-5
-11
-38
-4
6
4
21
1
-4
-2
6
3
20
-3
-5
-6
-17
-5
9
8
-25
-9
-12
6
-4
-2
-2
-17
31
7
-21
-7
3
-3
-18
1
-1
-1
9
11
0
3
-2
-3
-18
-2
1
-17
-5
4
13
6
-26
-10
-4
-2
-9
-8
-12
-7
-12
8
5
0
-1
6
11
1
24
1
-3
8
-14
-2
6
0
-24
-11
37
-17
-5
-16
-1
9
27
-2
-42
-10
-12
-1
6
1
0
-2
-13
3
-8
3
-14
-9
-7
-4
-17
-2
-5
23
4
-1
-18
-7
33
-12
-6
-29
4
10
-26
2
1
6
-7
-14
-18
-15
5
6
0
-5
2
6
-1
-3
36
-2
0
0
3
3
6
19
-5
-6
0
-10
8
19
12
8
6
3
2
4
2
3
12
-9
3
-8
-2
-3
15
44
-9
-7
-7
4
-2
1
5
-13
-10
-9
6
3
-23
-5
-8
-11
4
-3
-2
-3
11
-10
-4
-76
-2
1
11
-3
-17
7
-1
9
-1
-4
-6
1
-5
0
2
24
5
0
8
4
-19
19
11
27
4
0
-10
4
22
-29
2
-14
12
-1
14
5
-10
15
8
26
6
-1
-37
-5
-18
-11
-28
-73
-29
-14
4
4
-12
-6
13
69
6
3
14
4
0
16
7
-28
-2
-2
35
1
18
0
1
-38
-7
7
19
7
5
-15
-4
-29
0
3
0
-6
-19
-2
-5
17
7
-5
-42
-5
-1
5
4
86
32
5
30
-3
-3
-26
-1
55
-20
-9
-17
-9
-3
17
7
-45
-7
-3
-2
-3
24
-20
-14
-30
-39
-5
-8
-8
-8
11
-15
-25
-27
-3
-37
6
8
-11
-7
-73
7
4
-9
-1
11
-6
8
127
44
-1
28
12
18
26
10
17
25
8
14
-5
-49
3
0
-84
10
2
-21
-1
16
33
14
73
5
0
27
5
30
-12
-12
-128
-65
-13
-23
-6
-20
2
-10
27
-30
-8
22
5
16
2
0
61
-8
-6
-6
-5
-14
3
4
60
37
-1
-9
0
20
-14
1
6
54
11
-5
-2
-13
-1
15
-37
-11
9
3
6
15
-17
3
57
-62
-9
-27
-17
12
2
-13
-121
29
-3
-39
-19
4
32
-15
-44
-44
-6
19
8
-2
-19
-8
20
-5
1
26
12
-10
10
-6
-35
52
11
14
6
-15
5
26
98
-17
-7
-19
8
32
-16
-26
-62
-42
-9
-9
-15
-6
-1
-6
-18
-5
5
-23
-15
19
15
21
126
39
17
47
9
19
1
-22
-51
5
8
11
7
-33
7
33
-17
59
8
-8
11
-2
-12
5
-14
-23
-9
-16
-17
0
0
-30
-122
-7
-11
-36
-32
2
2
33
83
-25
-9
-24
-5
-16
-13
-46
-20
-7
2
66
42
-5
-7
4
-14
7
-2
0
12
5
0
8
27
-13
-4
0
-5
-6
-8
-20
-70
-46
-3
-1
-3
-11
6
27
65
52
2
-30
-9
-1
-11
-51
-56
-14
-9
-2
-22
2
2
1
-26
-22
1
-7
2
0
-11
2
39
15
3
-7
3
-11
-2
24
106
-3
1
-9
-8
8
8
-6
-28
42
7
27
-18
-7
-1
-10
-65
-41
-11
-15
11
-7
0
-6
-32
-12
4
26
10
-1
-2
3
45
19
4
-14
-10
-3
9
5
-27
3
1
-12
6
5
0
35
75
19
2
-13
-5
8
-5
-53
-109
-13
-2
6
-8
-9
-1
3
64
-5
-7
-10
-4
-6
-4
11
42
-18
-3
-9
4
-7
5
4
-33
-13
0
5
4
3
2
2
17
16
5
8
8
-5
-3
-20
-83
-20
-5
-2
-14
1
2
19
21
22
-2
-4
7
5
-5
-5
77
42
4
17
10
-1
3
4
-24
-22
-6
-8
-13
-1
-6
-15
-12
-17
3
10
6
-9
-4
4
-32
21
1
4
10
4
-3
4
26
-14
-9
-9
-16
-5
-12
-3
28
41
4
-4
3
1
13
13
-34
2
7
7
7
7
1
5
62
31
0
-10
-4
-3
-4
-17
-42
-47
-3
32
15
-1
3
7
-11
-16
1
6
3
2
5
13
37
13
-2
-7
-8
-3
0
-10
-21
-26
-2
2
9
5
-1
-6
60
36
0
-18
-10
-6
-5
-12
-60
-27
-8
5
4
1
-7
2
15
-11
-2
-4
-4
-10
-1
8
25
-4
1
8
-2
-4
-6
-8
9
17
2
-4
-3
1
-5
3
13
1
-1
-5
-5
-5
12
5
1
24
2
-3
1
4
-5
0
38
-11
-3
-16
-20
-8
10
6
-46
18
1
-1
11
4
-18
-2
63
-1
0
27
4
-6
-1
-13
-58
-8
-3
-11
-10
0
5
19
51
-5
-2
0
5
3
-3
-25
-76
-35
-6
-11
-7
-2
-1
3
-1
-6
-1
-3
2
-5
4
-1
18
3
2
0
3
8
3
5
-8
10
0
1
17
0
-3
-7
14
9
1
6
-7
-1
-1
3
-46
-1
2
4
2
0
-4
1
42
1
-4
-11
-13
-3
8
-13
-23
8
1
10
8
-1
2
10
23
6
-1
-1
1
-2
7
7
-11
6
-1
3
1
1
-4
-3
40
5
0
-4
-1
-3
-6
10
-1
-20
0
-6
-7
5
2
6
6
-9
0
3
3
-1
-3
-4
-55
-14
-4
-2
-5
-6
-2
-13
7
-4
-2
-6
-2
-4
0
13
1
6
-4
-2
0
-1
-4
-1
-7
-6
0
6
5
2
4
5
50
12
5
-2
-2
-1
-4
-3
-44
-15
0
2
-3
1
-2
-27
-13
20
3
2
2
-4
6
36
8
-12
-7
-5
-1
0
-5
-8
38
28
6
2
17
5
-3
-11
13
-18
1
5
-8
-2
-5
34
23
10
0
-11
-24
-5
4
-13
-54
-18
-3
-8
-8
-4
-8
53
-5
-8
-6
-2
-1
-5
-8
-55
-18
10
-7
11
19
9
13
35
-5
-12
14
11
26
22
-20
-22
11
15
-3
-13
-17
-18
-9
5
0
-9
-3
-16
-23
-17
24
-10
-2
-20
-11
-3
10
-14
-19
21
-3
-8
-7
3
-9
0
-1
-26
14
-12
2
6
-17
-4
-15
-6
-49
48
22
-8
-11
19
-12
-3
59
-2
-10
-23
-24
-20
5
-11
-20
3
-8
-11
8
-12
17
21
13
14
-9
25
63
21
-27
-37
-2
-35
2
13
8
19
-5
50
-17
-14
-14
-37
-76
-29
46
-29
-8
-22
17
7
0
-5
19
0
56
-36
-19
-25
-21
-20
-29
-24
-87
21
-9
13
31
-4
65
23
-5
61
36
20
46
65
-2
-30
-6
-16
-26
-26
-22
-21
-29
37
23
48
20
-28
-19
-32
14
-15
55
-34
-24
42
38
-6
-20
0
-47
-74
-22
-3
-22
-36
17
-11
-65
59
45
17
23
24
-22
-14
33
14
-1
2
-23
10
65
-2
26
2
-13
-23
-4
35
7
17
21
29
19
18
35
3
-24
21
8
-62
-25
12
22
74
-25
-53
-52
-22
-6
-15
-39
-94
-31
-10
19
7
-5
-8
1
-16
47
54
19
0
-9
-15
-13
15
-21
-10
2
-22
-16
-12
-14
-17
28
11
-8
27
19
40
56
66
-29
-38
0
28
11
-16
-57
-23
-5
-12
-3
-76
-15
-5
21
-1
-30
-22
-4
101
8
-8
3
2
74
40
-7
-18
-4
16
-4
22
-53
5
3
-1
8
-15
-26
-33
-23
-12
35
-7
11
5
6
11
-37
-13
-16
-2
-4
5
4
-45
-12
-31
-19
-40
-14
5
4
29
59
31
8
33
9
-13
1
5
5
-4
4
-60
-31
-4
-18
-3
-51
40
19
38
12
-6
-2
-6
31
-10
-5
27
9
11
24
9
-5
-19
-14
-48
-4
3
-7
-14
-34
28
-8
22
-10
-7
-3
-3
61
24
9
0
15
16
6
7
-19
-29
-8
-18
9
-14
-22
-16
12
22
20
-12
0
-2
8
11
-19
-74
-35
48
22
33
33
16
-8
44
6
-76
-25
-9
-40
-54
-59
18
3
23
-3
-3
4
7
99
55
18
19
-16
0
8
40
18
-40
10
64
17
-1
-12
-24
-3
-18
-2
-36
-3
2
4
34
-13
7
-7
-5
-2
-3
0
-31
-37
-52
-26
-70
-18
-13
-20
-13
-1
29
-13
-3
-22
-15
40
84
-20
-37
3
-8
-36
1
-15
-79
30
-4
0
32
56
2
18
32
-11
-5
3
-9
30
23
15
22
11
23
11
76
33
5
-29
-15
-14
-22
-10
4
-19
-22
-19
-9
-8
6
4
-24
-49
-26
-7
9
-33
-3
-5
46
23
32
-11
-40
-1
29
6
-31
-4
3
25
5
28
-33
-7
-2
2
13
35
26
-1
-8
-10
-35
-22
-24
-46
5
54
16
17
47
4
-10
15
25
-12
-3
-19
-5
4
13
-17
-37
11
-20
-17
88
19
-4
-22
0
-19
67
22
-18
12
7
6
8
7
-15
-2
-61
-17
-3
22
0
-15
22
5
-23
4
0
-13
6
2
-15
-7
-6
-1
-17
-14
-19
9
-2
-6
-15
-42
6
33
-17
0
-7
-9
6
2
-3
-17
0
36
13
4
6
18
-8
6
42
18
-4
-11
-75
-25
-16
-7
-26
16
-10
9
7
14
-7
-40
-27
-20
-18
-6
58
0
10
19
-23
-5
-36
-21
-1
13
3
22
24
-30
-11
-2
-28
15
3
-12
7
8
-15
-6
-22
-37
9
32
47
-16
6
-4
-24
1
-15
-8
-62
-9
30
-2
-21
-16
-6
10
-4
16
-45
7
70
14
10
-12
6
-46
16
6
-34
2
4
-11
16
-43
-8
-8
-46
-15
-16
-27
-15
42
5
4
-40
-29
-8
-15
-21
-4
16
8
62
42
15
13
20
18
-19
-8
24
10
-11
3
-9
-1
26
13
6
-6
0
4
21
-20
-9
-3
20
8
21
49
31
26
6
4
-24
-17
-20
-68
-44
-11
3
3
-50
-7
-9
-21
-21
36
22
-3
107
15
-8
4
37
-80
-14
-10
-20
-27
-6
1
-4
41
-40
-1
-50
5
-11
-8
-18
-32
-3
1
22
16
17
-3
5
-23
0
-9
-40
-3
3
-2
-5
-37
-17
1
0
9
5
-35
-52
-15
20
-11
24
-23
19
46
6
97
-23
3
-19
-1
-11
13
37
13
35
10
9
-5
-7
-2
16
-14
-10
9
-61
-15
-5
-15
-39
-31
20
0
52
35
27
26
15
-17
-26
-21
4
-11
-13
33
-27
48
35
19
-47
-31
-17
-18
11
-3
-33
-12
11
-5
-13
-35
12
9
-6
19
-14
0
8
20
-27
-51
6
-15
41
38
7
-10
2
24
8
1
-33
-15
16
17
20
27
9
-2
46
8
-15
3
30
9
3
-1
-16
-2
5
23
18
-15
29
16
25
16
3
-21
-37
-17
-65
-13
-8
13
-3
-9
-21
-9
7
3
-8
-17
2
-18
9
39
6
-17
-9
-11
-12
16
9
-19
0
12
-10
-21
5
-2
-21
12
12
-3
-3
5
-4
-8
5
33
-3
6
11
-2
24
47
5
-33
10
-11
-68
-9
-21
-1
27
22
3
-6
-35
3
28
2
-14
-47
-10
9
82
60
11
-4
-29
-14
-30
-13
-2
6
3
-12
-14
37
46
15
-43
-6
-13
18
63
23
-2
-5
-45
-14
-13
-1
10
-24
11
-6
-4
-8
-5
-6
-4
-47
-29
0
19
-18
-4
3
-54
19
10
-8
10
23
-10
-22
2
4
-20
-9
14
9
14
30
20
-14
0
15
37
-10
-8
-1
16
-22
9
-17
-28
-2
-10
-37
-59
-33
0
0
-4
-33
1
-3
59
39
1
16
42
4
-8
13
-38
3
-39
-8
-38
-15
3
24
-9
5
1
-8
-37
21
11
-1
-1
-21
-8
-5
18
5
14
8
-5
2
-5
-1
-13
-1
-17
-43
-8
37
50
3
24
2
-2
8
43
-10
-28
9
25
-1
-19
-19
-21
-7
9
-1
-83
-19
-5
-10
-13
-103
-20
-7
84
15
8
21
-18
73
-45
-39
-112
-45
-15
-32
-2
25
19
28
45
23
-6
-10
0
-27
22
6
32
15
2
-7
-13
-16
-20
-5
-14
-3
9
1
-11
22
11
-11
-61
-8
-7
2
40
2
-1
-8
3
-3
9
9
-2
28
14
7
45
0
4
15
28
-67
-57
-15
-15
-18
-23
-27
-27
-35
-10
2
-3
2
19
31
3
17
19
0
-19
-2
-8
-14
7
-16
-11
-6
-97
-44
-15
-1
-31
4
18
9
66
45
19
2
29
-4
3
5
-47
4
6
7
-7
18
7
11
-4
-24
-10
8
10
-29
-19
-24
-23
30
5
9
-5
23
9
-8
-35
-37
-8
17
24
-16
-2
5
0
-10
-17
-59
-44
-22
5
-2
15
35
6
20
41
-14
3
1
-21
-23
5
-15
-34
58
24
3
23
10
-4
-16
9
-20
-6
7
27
19
3
22
-7
-10
-17
-9
-43
-20
-17
-13
-9
-30
-5
-5
41
-19
19
16
-29
87
23
-7
-29
3
-23
-3
103
3
-23
-9
-24
-18
-10
-44
-88
-18
72
17
30
13
4
0
-2
1
-25
-5
-32
-23
-17
0
19
-88
-13
-1
51
3
14
7
-38
16
-25
-4
45
22
6
11
18
13
22
1
-29
-7
-5
-4
-13
-4
-29
6
58
18
3
5
7
-25
18
1
-70
-13
23
13
3
-4
-10
-6
9
9
-37
-35
14
16
-7
-2
-23
-22
2
-14
-43
28
59
22
68
21
3
1
27
9
-48
-14
-63
-10
-8
-4
-28
-49
-9
3
43
17
15
26
-3
31
-5
-9
-16
6
12
33
38
12
-14
6
-19
-3
-12
-24
-7
-36
14
5
-16
-21
4
4
2
15
21
-1
28
8
22
31
-9
-25
-13
2
-17
-8
-47
-45
6
-4
-15
0
21
30
17
10
-9
-28
8
9
73
-25
2
8
-26
14
3
-16
-57
-6
-14
-7
62
28
24
8
34
6
25
35
8
-9
-10
-2
-73
6
-20
-34
-45
21
-9
-6
-8
1
-5
-14
-17
-9
-11
-2
46
-10
10
14
-7
13
20
0
-39
-1
1
-4
13
24
-19
-3
50
4
4
9
20
8
-4
-7
10
9
-3
-16
-4
-5
42
7
-35
5
5
17
4
13
-43
-2
41
5
-3
0
-9
-8
34
9
3
-18
-8
-12
-31
0
-22
-14
-45
-13
-38
-20
-7
34
29
4
-9
-5
36
42
10
-10
-15
-5
-20
-9
7
-5
29
-19
-13
-2
-10
-15
-2
-12
-8
-3
9
19
59
26
4
10
-5
-26
-3
-4
-28
-4
-16
-19
3
7
5
-8
9
21
22
25
-1
-2
-4
-3
-27
-6
4
-19
-10
21
-13
-2
-5
8
16
11
11
-10
20
8
4
-11
-6
1
-5
-9
5
2
23
5
10
15
-5
-30
-7
-6
-78
-32
-19
-7
-13
-7
-9
-6
62
14
-3
35
42
42
-26
-5
-20
-30
-2
-6
-9
8
0
-5
16
10
-9
-23
1
23
3
8
9
28
-13
-7
6
-23
6
4
-20
15
29
9
-3
-11
6
2
17
-3
4
6
-20
9
-6
-9
-71
-65
-8
19
3
2
-21
0
96
67
9
21
43
44
39
9
-18
23
8
-14
4
-83
3
3
-9
-8
-18
-15
8
49
-11
-1
-19
-4
14
10
1
-3
2
-12
-46
-43
-9
-7
-65
3
-25
7
45
16
-10
-8
-3
-30
21
3
-23
7
6
-3
-9
9
-25
-10
-5
-2
-25
-11
16
-8
34
-1
6
4
31
43
32
50
-1
-1
-13
-40
-15
1
1
1
-25
7
34
-4
-28
-24
3
-25
-14
3
3
29
19
-1
-1
-23
-55
-4
-24
23
17
0
-4
-39
27
-7
-20
-10
1
-1
7
-3
-22
-15
4
-11
-2
-11
-44
1
34
24
12
-3
-28
3
-19
33
-6
-16
3
17
6
18
43
3
29
-1
-7
22
21
-7
-17
6
-33
-6
-31
-22
-1
-8
-15
-44
-14
7
28
-13
-11
6
12
15
57
8
-43
-15
-18
-39
-25
-3
-7
-3
-60
-9
5
12
6
37
-26
-15
2
38
13
3
43
-35
42
15
-40
-11
-12
-17
-41
-23
-30
-9
60
22
27
25
5
39
-8
0
-15
-22
-22
8
76
-6
7
-5
8
2
3
-60
-100
5
3
-2
-18
-5
3
18
5
-25
-2
-5
-75
-49
-17
1
23
75
29
2
37
3
-3
-44
-26
-43
-5
15
4
20
8
33
11
49
-23
-23
-3
10
0
-4
10
-16
13
11
27
-15
-20
-12
-43
-18
-5
-8
31
16
-2
-2
9
3
8
-13
-36
-2
19
37
58
-14
-24
-6
4
7
-12
-34
-47
52
-29
1
-35
-17
3
10
29
-26
22
0
-53
-50
-32
-26
-9
1
-29
-11
65
32
0
0
-36
-25
-12
-6
-59
-10
31
36
42
20
60
14
89
40
-5
-16
-5
-10
8
11
7
-2
4
-10
-25
-17
21
3
-34
-37
-11
6
66
36
-20
-15
-14
13
-9
-13
-56
-1
-1
4
16
-2
16
-14
43
-9
-28
-5
18
21
-2
-32
-7
42
21
16
-6
-9
-15
-17
-17
-25
7
-4
30
0
-8
1
29
-2
8
-3
-2
-20
3
3
-49
-30
-21
-10
-34
-1
2
3
3
13
-12
-3
-28
-17
-1
19
22
-4
12
-6
35
19
-5
-21
8
6
6
7
7
6
-9
-1
-33
-10
-19
-5
-12
-18
8
22
1
7
0
-1
-5
-2
-16
-3
-8
-13
5
2
-8
-6
-68
-10
-9
-23
7
-6
-1
6
-3
-15
21
3
2
3
-3
5
31
17
-10
5
12
1
-1
1
10
2
31
-10
-4
-3
5
-4
74
11
-65
8
-22
0
6
-1
-17
11
19
-5
3
2
-7
-2
-26
-10
-15
-3
5
6
5
4
-25
-13
-4
-3
4
-1
18
4
2
0
19
-2
-12
-5
-10
-3
0
0
-7
7
3
-9
-2
0
5
13
-4
-6
2
0
-4
5
1
11
3
-6
-1
1
13
2
1
-8
12
5
-7
1
-6
-5
0
3
-2
-2
6
28
-2
-1
-9
-6
-8
3
-4
21
11
1
-39
-20
-3
-15
-17
-86
-15
-2
43
16
-14
-2
-6
9
-5
2
13
2
4
-2
3
7
-5
-1
-7
19
-1
-1
7
12
4
2
17
-6
-8
-1
8
29
24
5
-15
0
-6
-2
-8
-6
-12
-5
-4
9
6
4
-3
-19
-7
-1
-10
2
1
0
11
54
16
1
-6
4
-13
-8
-3
4
6
0
-26
-3
10
-22
-12
-79
-13
-2
33
-22
-14
16
6
11
-7
-5
-3
-4
7
2
0
-48
-14
-1
53
-7
11
15
10
49
13
3
-4
7
16
-7
0
3
1
0
-17
4
-8
7
2
-15
-8
-4
-16
-2
-14
9
-3
28
19
2
-12
-2
4
-10
4
-13
4
-3
-28
-7
-7
15
-4
31
2
-1
19
0
-5
-4
2
19
1
1
2
-1
-12
4
-3
-4
-15
-1
-22
0
-5
-5
-4
0
11
1
34
5
3
-2
11
53
13
-2
-18
9
0
3
-1
3
6
0
-3
-10
15
-25
-8
14
-10
-5
-2
-2
-45
-11
-4
70
-5
-6
-4
1
14
1
4
-30
-22
-7
-26
-20
-1
-2
14
100
52
1
10
8
-2
0
13
-64
6
6
-21
3
29
-7
-21
-69
-45
-11
34
-12
33
18
9
31
8
-2
-3
7
6
-10
-1
-14
-13
-1
-8
5
-4
-5
-1
-14
23
4
3
-2
-24
18
9
23
3
3
-7
10
12
2
-14
-47
-15
-2
11
-12
18
-16
-5
-41
-8
-3
2
17
-12
-5
11
85
-6
6
28
22
-6
20
8
-42
11
3
-37
2
33
-10
20
51
69
12
16
-20
1
-13
-38
-68
-13
-5
-21
-26
3
7
-7
31
-95
-12
6
-2
-16
15
37
29
59
20
39
31
-10
-21
-56
-69
-76
-16
-18
-31
21
19
35
73
47
8
10
9
23
8
-58
-128
-65
-9
-21
1
18
-39
21
127
61
-10
-28
-53
-2
-2
14
-37
-14
-6
12
19
2
-3
-10
40
23
3
27
2
-4
2
11
-37
-16
-7
-2
7
1
6
0
-18
-26
3
0
-8
-29
-2
0
25
15
-3
-26
-6
3
20
20
59
7
19
45
26
-12
-9
1
-53
92
-3
8
-7
-4
-12
-17
52
-53
-13
-28
-16
-12
0
16
58
15
11
7
7
-17
15
0
5
-70
-6
-45
-5
21
-5
14
-49
39
18
43
9
-10
-10
-21
-34
-16
-3
47
18
-18
7
-18
-57
-13
-4
-11
5
11
-14
3
21
13
-1
-14
-8
-14
-1
1
1
23
-1
-23
-13
5
3
-9
-44
-8
3
14
-10
3
2
11
55
-40
1
17
40
1
-15
-21
-82
-4
-9
-9
-25
-11
-2
-8
15
-17
-9
-33
-17
-2
7
-4
-57
-16
-3
-12
-5
-7
7
8
83
58
11
7
10
9
-9
1
-99
-11
-4
-11
-2
-4
-9
-3
36
-17
-9
6
-5
5
7
11
71
33
7
-6
8
2
-3
-25
21
-11
-5
-12
-3
-15
-1
4
-14
-7
-1
4
1
-7
6
8
17
1
5
6
4
-2
0
-5
-15
17
-1
-15
2
-1
-2
11
50
22
1
-18
0
-4
-23
-28
-42
-26
-12
-16
-15
-16
25
0
-39
-59
-3
36
7
19
-3
-13
40
7
-2
-13
9
-10
-11
-17
-45
-21
-4
9
6
4
-7
2
-81
20
1
-11
-4
0
-6
-1
59
-3
-2
13
7
0
0
24
41
4
2
1
-1
0
-5
-23
-86
-8
-6
-9
-11
-7
4
13
109
7
3
9
7
5
-7
-13
-62
-14
-7
-17
-4
-6
12
11
20
-6
3
7
5
3
-6
-10
-48
20
-2
-2
-13
-6
3
10
6
-52
-4
3
-2
2
-3
1
24
38
6
-10
-3
0
0
-2
-1
5
3
-1
-3
-5
1
-1
-8
-25
-5
-8
9
7
-3
-6
18
9
-4
0
1
-10
2
24
76
46
7
9
-1
-1
-6
-16
-69
-35
-8
-16
-7
-3
1
-5
-20
-23
-2
6
9
0
11
10
-6
14
6
17
1
1
-8
-5
-11
28
4
-1
5
-1
2
-5
16
-32
-5
2
2
0
2
12
26
-10
-8
-8
-10
-4
2
12
6
-5
-3
-2
-1
-2
-1
-10
35
25
-6
-6
1
8
-4
-13
-52
11
-2
2
-8
-3
3
-3
-24
7
1
-1
-3
-8
0
-2
-43
-14
-2
-2
2
-1
3
5
82
7
2
-2
1
-1
-9
-11
-65
-17
-4
2
-3
-3
2
11
6
4
-1
-8
-6
-3
-5
-9
32
5
1
6
6
2
2
9
19
-11
2
1
2
-3
-5
-10
15
12
0
-1
-6
1
1
19
8
18
3
0
-10
-4
-3
-18
-17
-1
-1
2
3
2
-1
5
20
7
-4
-2
-1
-4
0
1
-30
16
0
2
3
-1
6
-2
4
-6
0
-2
3
0
-8
-7
10
-10
0
3
-5
5
1
31
3
-4
-2
-4
1
-3
-1
-34
-5
11
-1
-1
2
0
-4
8
-15
-11
0
0
-3
-1
8
9
34
1
1
-1
1
0
-9
-13
-21
3
3
1
5
0
2
33
30
13
-2
-4
-9
-1
-2
-14
0
-21
-5
1
3
-1
-8
-7
-31
-11
-2
0
-1
-2
4
-7
-27
-19
-5
-4
-1
0
13
3
10
-1
-4
3
4
4
-14
-7
4
8
0
-3
-1
-5
-11
12
9
7
-9
-8
-9
-6
-3
8
12
-15
-3
1
-2
-3
-1
3
-54
6
8
3
4
3
27
16
18
4
-3
6
5
7
-7
-32
-9
-18
-4
-1
6
4
-12
11
9
17
6
3
-4
-1
12
-12
12
-16
-15
-2
2
3
0
17
-9
16
6
-5
13
3
-15
-57
5
-11
-5
-13
-41
-17
-6
-20
-42
3
-5
-5
7
-5
-3
11
12
-34
6
8
5
12
21
6
28
18
10
9
6
-2
34
37
-13
-10
-14
6
28
24
-29
-81
-25
11
-19
-38
-31
-35
12
51
10
-31
1
-2
2
24
37
18
12
-2
-3
17
38
23
-66
-75
8
32
8
-18
-56
-56
12
-50
3
-54
-9
-19
-14
-42
-1
12
-1
14
4
4
48
7
12
-14
28
10
0
-1
-42
-14
75
30
-8
54
19
19
43
49
-17
34
-34
-35
-2
2
34
0
-48
-67
-19
-84
-26
-6
-12
8
-53
0
-50
30
13
18
79
31
53
31
15
96
23
26
29
-8
-13
39
53
-36
-28
-46
-92
-22
-68
-74
-3
56
21
-4
3
-76
-23
-31
11
23
-4
-2
-67
-28
-34
-7
-7
-57
0
9
69
42
86
50
-20
-24
-15
4
-28
57
28
23
10
-48
-15
0
-17
22
46
-4
-25
52
22
8
5
-74
-35
19
-1
-74
-25
-34
-54
27
8
20
21
51
26
26
21
27
-28
-12
-2
-3
-19
-21
-22
-34
37
-12
25
-40
-15
-11
-37
20
30
28
24
31
-20
0
-27
-3
-13
-21
-28
-86
26
44
65
14
6
-47
0
17
21
-5
-34
0
11
51
15
-17
-7
-31
-26
-23
4
28
-4
-4
-3
-5
5
-14
-24
-31
14
-16
-26
-17
-7
0
22
52
-22
-21
6
4
-9
-28
24
5
2
36
-3
18
56
70
-14
-16
0
-14
-2
-6
-9
-1
-13
-38
-19
8
22
7
-8
-17
-76
30
4
-67
-14
25
68
74
62
17
0
28
9
-8
-46
-96
39
37
10
37
19
-40
-24
-6
-23
-13
2
40
5
66
50
5
-7
-4
-1
-33
-2
12
-25
-15
-29
-5
-12
-90
-24
2
37
32
10
-29
0
24
10
14
-11
7
2
2
16
-20
-11
-29
-6
-30
34
14
5
-11
-29
-19
-22
-10
-103
-7
-10
36
37
24
3
-39
34
10
-6
57
18
17
29
62
-22
-64
-5
2
-15
-39
-32
-12
-21
28
3
15
21
5
-2
1
4
-20
-15
-56
-24
-24
-22
-16
-52
-19
-15
-76
0
34
62
21
101
72
17
58
22
-7
5
49
26
8
19
51
-1
-28
-26
-5
-66
-15
-13
-55
-9
6
-3
-18
-64
-3
-8
-72
-33
-16
-40
-98
55
28
0
57
14
23
31
51
37
-8
8
8
21
1
22
-9
0
18
24
31
13
0
20
41
-62
-21
-14
14
-19
37
75
24
41
4
-25
1
-13
-18
-72
-47
32
3
9
0
4
-25
-55
-8
-9
-26
0
20
-11
-16
-7
30
-16
10
7
-94
-34
-32
-51
-59
-77
-60
-29
20
8
16
30
-25
21
51
18
103
9
15
66
53
-11
26
6
-27
-9
-22
-23
-4
-4
-30
3
-15
15
13
1
13
-22
32
-27
-7
-18
-12
-6
-53
30
-63
-9
-19
-2
10
8
-8
1
23
10
-5
19
-8
-20
0
12
25
15
1
-5
-32
-34
-1
-48
43
1
44
-12
39
80
46
-51
-69
-24
9
9
-13
-40
-67
66
54
25
-56
-10
-7
-30
14
-12
-18
16
56
-7
-10
-2
-9
11
-13
-9
-74
-23
-36
-48
-18
21
50
-9
-12
28
23
43
3
-22
-57
-3
50
26
30
43
34
18
-20
-8
-57
6
-6
-23
-11
-63
-30
-16
31
10
4
-3
-35
-33
-26
-23
-49
-64
-5
-13
76
84
19
9
-47
-3
-27
-6
-56
47
29
3
-58
-1
-4
11
9
-15
19
10
-18
-8
-20
-34
-28
-70
-15
-45
-64
-44
4
24
-40
-2
-5
-16
79
23
15
-15
51
31
12
13
27
14
-6
-15
-10
-3
-42
-10
-69
-5
-6
-6
-16
-34
2
-8
46
6
29
46
28
-41
-39
-20
94
-49
-19
77
-31
64
67
45
26
77
-30
-65
-40
-27
-6
28
-20
8
-32
-32
23
-14
-7
42
-33
-4
-7
-56
-64
-92
-66
-53
77
55
41
20
-1
32
18
-18
14
-15
32
61
80
15
6
18
-31
-6
-12
6
6
29
28
5
-11
-7
-4
-17
1
-52
-16
-18
-128
-64
35
65
-69
11
-85
-12
77
59
-37
-93
48
18
34
31
-56
17
0
-5
38
9
9
16
-19
32
-1
-19
-2
-6
3
1
-26
-4
-9
-35
26
-38
-42
-37
-31
-40
17
59
-76
18
-23
14
-13
-33
10
9
-15
11
8
-7
41
1
-1
-8
-18
-33
-34
-5
-41
-13
-25
-13
-53
69
54
-7
-97
-15
3
-15
56
5
-3
7
-1
12
3
24
19
10
37
6
106
30
3
9
-11
-4
19
2
-54
-57
-19
-5
71
-93
-104
-38
-2
17
-10
4
-40
24
49
9
-28
32
25
-17
-2
112
43
15
-75
0
4
0
38
1
-4
24
80
75
23
-3
24
-46
-18
-13
-99
-59
11
46
-22
-12
2
1
117
1
-2
-39
-4
64
39
18
-3
-8
-11
7
28
47
0
6
-33
-22
-25
-22
39
-39
19
2
40
20
34
27
-11
-65
-8
-22
21
2
11
-1
-37
-34
-24
-3
-40
-20
-17
-5
33
52
3
0
-106
-35
-9
-7
-12
66
16
16
127
31
6
-15
-45
-44
-80
-22
-77
0
59
127
38
27
5
-12
-41
2
-46
-94
2
-22
31
22
0
27
-36
-64
-3
-48
20
11
-104
-83
-7
2
18
123
66
3
44
11
13
14
57
-41
-22
7
12
40
18
23
-48
-35
16
1
-3
-7
-7
10
6
-58
49
-11
-97
-56
9
36
-34
7
-60
-17
95
14
-28
-75
-13
48
41
32
69
41
1
18
54
-7
-66
-4
-46
8
-6
-32
-35
-14
21
10
17
39
8
-25
5
-105
-17
-29
-128
-102
-2
66
80
54
-17
-57
36
13
23
-23
-35
-3
39
40
-21
15
-51
-62
-90
-4
21
25
62
26
15
0
-9
-53
-43
-10
-90
-1
-27
-36
-34
-98
-47
-30
82
17
30
59
-30
66
-40
-15
-14
1
37
61
104
19
10
-1
-35
9
-19
-11
16
12
27
6
-42
-22
-3
-20
-46
-81
-63
7
-49
-16
-3
27
-14
12
43
-30
-59
-37
13
1
-31
14
-1
13
127
41
-3
31
21
48
-41
29
31
39
-1
-19
40
-4
35
25
-79
-46
-21
-32
-34
-69
-20
-18
104
26
28
64
35
23
8
-5
-51
-20
-19
-39
-27
30
61
14
-23
-4
0
14
1
-19
-17
4
-107
-36
-4
-21
-31
-48
-11
-12
38
25
14
20
36
68
29
5
-56
-17
-3
11
7
16
17
9
24
24
-2
12
-2
16
6
-6
-30
37
-1
-6
18
-2
52
11
7
-24
8
4
-12
-76
-95
-43
33
-13
7
3
-39
81
70
20
-25
23
-4
22
69
-34
15
20
-11
-24
-32
-3
1
3
-52
-18
-1
-12
10
-12
-18
-47
3
6
-41
-12
-8
-19
-9
-47
-1
0
97
-9
29
36
-48
29
0
-5
-31
28
-9
-53
2
11
-40
2
28
3
-5
-21
-18
5
46
16
94
20
-6
-5
19
8
-31
-16
-10
34
16
41
41
11
-2
-3
-12
-25
1
31
23
-31
-35
3
-29
-11
-37
-54
-53
-13
34
-15
-112
-26
7
-15
25
1
-5
-5
27
-23
-20
-4
-12
5
-6
4
32
3
-23
-23
22
-11
30
5
-53
2
7
-25
-15
7
-27
-1
16
14
35
59
-10
-1
-14
5
-99
-27
-22
14
-46
16
47
6
20
24
58
-12
10
11
-8
4
-11
7
-12
2
20
-14
-15
-22
-2
8
6
8
27
-17
4
1
-7
-8
1
-33
-14
-19
-83
-7
-4
-72
-36
22
-7
48
30
-29
-105
36
9
40
30
-5
5
14
92
66
19
-25
-15
-14
45
13
-3
16
0
-15
0
-29
-45
-19
54
-2
3
9
-49
37
68
31
15
-21
13
42
95
30
-51
-12
-81
-44
-44
-53
-48
-26
9
-5
8
23
-18
-26
-30
4
2
-10
-6
-2
27
64
11
45
22
-4
-51
-15
-22
-30
22
-19
-4
9
103
17
-35
-65
-45
16
7
19
29
2
-17
23
8
-25
-33
-5
9
-8
29
-19
-59
-27
31
-8
-70
-47
36
79
63
34
38
17
32
53
2
0
21
9
-49
-19
-3
1
-13
-73
-47
10
91
1
-58
-12
-8
28
31
13
-64
10
49
9
-3
-5
-24
9
17
12
-57
-59
-5
-5
-19
8
35
0
-24
-5
6
-9
-11
18
27
2
-76
3
-10
-8
10
-72
-6
-16
14
-6
2
-26
-37
-3
3
-10
-61
-34
-16
17
-5
11
-41
-3
59
24
1
3
12
13
-10
1
49
6
4
1
5
-16
33
5
9
12
-13
-19
-46
-33
-32
-23
-47
-61
21
99
22
55
-34
1
77
57
-3
-74
-11
-5
-12
22
-63
-5
-18
-1
22
-20
44
-11
-22
29
5
-3
-39
7
-43
8
77
0
-18
6
27
-42
-7
-12
-49
-25
25
30
-18
-10
-8
5
-40
-27
-20
-27
-19
15
10
29
113
53
5
-6
12
-93
-22
-17
-91
-25
57
-3
-42
65
46
-3
74
11
24
75
38
18
-7
18
31
30
-58
-11
53
-1
-1
3
-76
-39
-49
-39
-8
31
-43
-10
84
22
63
10
70
-72
23
-4
12
5
-31
-7
-72
7
-4
-35
-29
-3
-21
-37
-3
8
-67
-9
0
-16
58
12
-37
52
62
14
-3
-34
-17
12
4
-23
-24
8
37
56
35
-47
26
9
-10
-6
59
27
4
62
70
45
26
-5
-22
2
-58
-32
-48
-6
11
1
-124
-42
1
8
-9
9
-25
6
21
-3
-21
-8
3
-48
47
2
66
57
12
-24
-30
30
-48
0
16
-11
-6
13
33
-10
17
3
-29
20
-9
-10
-19
8
16
-14
-101
-61
-49
14
36
-20
-13
11
14
-28
42
6
-16
33
27
-13
18
6
-2
-11
9
-38
-26
12
-39
24
21
-11
-17
-36
-16
-22
-20
-23
-6
2
-1
26
0
0
-70
-46
-15
76
20
-22
-15
9
59
36
37
-20
-61
1
-38
-13
91
48
-44
-25
21
-47
50
14
-39
4
-6
-18
-28
-23
4
-17
-103
-60
41
6
-9
31
-5
5
96
29
-25
32
43
3
57
12
-43
34
-4
-3
38
26
-42
-3
-11
11
26
-3
-10
-30
-53
-6
-61
-31
-23
-18
-36
-58
-6
-21
-13
-11
10
-26
-35
66
7
13
9
-1
22
61
103
-8
22
4
-68
-40
-34
-11
-38
49
14
7
-17
25
23
-17
-11
-68
20
1
-76
-22
5
11
9
25
-37
-23
43
15
55
41
-78
5
-1
10
-13
-8
-12
-24
14
20
9
4
40
17
-43
-18
-6
6
13
17
-8
-7
31
10
24
-43
10
-13
-61
-54
-44
-11
-45
42
-32
-10
75
50
33
49
24
-16
-23
-3
-36
15
-18
-20
19
-16
16
9
-45
8
-5
6
-1
8
9
5
-79
-27
-26
-24
7
-30
29
-7
-95
-45
-7
-17
-25
-10
51
11
18
60
28
-13
-8
-1
-68
-17
72
4
-8
14
20
3
-36
-5
-20
2
-10
-12
-12
-10
31
-4
-17
-32
40
7
-15
3
-27
-13
32
-15
5
2
3
-29
9
-6
-81
-27
18
18
-5
-12
6
1
14
4
0
-40
-47
29
-19
11
42
17
-29
-3
58
-2
3
-4
-6
-7
19
20
7
9
-15
-3
-15
-10
-20
-41
-21
-11
11
-1
43
8
-21
-8
66
-23
-25
-9
-61
-12
8
1
-52
0
8
4
77
14
-1
5
-14
14
22
7
-28
35
-9
1
6
-4
-11
-6
-17
-3
4
-5
0
-2
9
-2
-21
-22
0
1
18
2
-6
3
33
-7
-17
-5
-9
7
-24
-13
30
15
6
14
67
-2
11
1
-21
-1
-35
-23
-44
-6
8
6
8
7
3
14
-21
-1
-13
-6
-10
-16
50
4
-10
9
9
9
-16
-13
5
-3
9
5
-1
-5
-3
12
-25
-12
8
-1
4
0
-1
-8
-29
-4
17
-5
-4
-1
8
4
28
-15
-15
16
15
4
-18
-13
13
2
0
0
-2
0
21
11
10
-1
18
7
-8
1
19
7
6
-1
-9
-3
-7
-16
-13
0
-12
4
8
19
-8
4
3
-4
-31
-1
-13
-3
-8
9
13
5
17
-1
3
-5
9
0
-7
0
3
11
25
6
8
11
-5
2
-12
4
-4
-3
11
-13
-6
-7
3
-7
-19
-2
-2
-3
3
2
1
3
3
0
3
-27
-9
6
-6
-1
2
4
4
18
10
3
0
-2
-3
-5
3
37
14
-2
5
-5
-22
4
-2
-11
-2
-3
-2
4
6
-1
-8
-4
-1
-5
9
5
2
-1
-1
4
-16
-8
2
-14
0
0
9
4
10
0
11
0
5
-3
5
21
3
5
33
-1
-7
-1
3
39
3
-5
11
2
-2
9
1
-6
5
-1
-10
5
5
1
-6
-24
-15
-12
-11
-4
-4
-13
-6
-30
-5
-1
-26
-6
-8
-1
0
39
12
1
-5
-1
-1
3
8
29
2
0
-20
4
3
3
1
23
3
1
-20
-2
2
-1
-1
-24
-2
1
-12
2
-6
-4
-6
1
-1
3
7
3
36
-8
-3
21
11
2
0
-1
-2
-14
-17
-72
-14
-6
-6
-1
-15
-2
-1
14
-12
-3
-4
3
11
-3
12
-23
-4
3
6
0
-10
1
-14
-30
-15
-3
-10
-2
-20
-12
2
75
13
1
-6
-2
16
-14
-3
9
18
0
-9
-3
-12
-6
6
90
5
0
1
2
11
0
8
-65
4
4
-4
-1
-1
4
-2
-40
-11
-2
-15
-7
8
-6
-26
-97
-13
2
-15
-6
-36
18
-2
13
34
2
74
36
31
-22
11
75
-22
-11
-9
-14
27
18
4
-11
-9
-2
6
3
-6
15
0
9
-24
1
-8
5
17
-22
4
10
23
9
-18
-8
-59
-5
-21
-105
7
-4
0
-3
59
-10
8
102
-47
-11
-1
-6
-4
-5
17
112
33
6
0
6
-5
12
-19
-90
-33
-5
-4
-5
22
5
3
19
31
9
6
15
-25
-27
-6
-49
-7
-6
-17
-13
-7
27
-12
-25
20
-2
-11
3
43
-1
17
-12
-47
3
8
-22
-8
8
15
-26
58
23
27
24
6
-23
-44
-21
-81
-28
-25
-26
-30
7
44
127
125
17
48
14
18
-9
-35
-80
-86
-22
-31
4
4
-30
-17
-75
-79
-19
-16
-33
-73
27
29
69
-13
6
12
37
6
4
-13
-25
-44
3
1
5
5
2
-2
-19
53
3
-14
-14
15
-10
7
127
69
7
-12
-43
-38
16
5
65
-15
3
21
48
39
-25
21
-4
-16
-13
-18
-20
-46
-9
24
-7
15
8
-3
-29
-10
14
4
84
41
9
19
42
-3
-2
-1
-60
-7
-7
-12
-22
-6
8
-21
-20
-28
-10
-16
0
2
-8
-25
20
58
2
-17
-25
28
-10
19
-43
-66
-5
12
-16
-9
-25
-37
-25
-42
-8
-1
13
-12
1
-2
-15
6
3
36
38
26
-1
58
88
43
2
-2
4
2
20
-57
-56
-59
-12
-16
-30
-12
6
-16
-29
46
18
11
38
14
-9
-29
-16
-11
-5
-25
-28
-16
4
-6
100
-14
0
4
10
-12
13
25
12
-20
-8
-10
9
26
-7
7
23
41
7
4
-18
4
1
9
-57
-20
-6
-9
-6
-25
17
9
25
13
1
-12
-24
-10
7
22
-10
-12
2
15
61
23
0
15
8
45
0
-5
-23
-6
-1
17
71
-11
3
10
-10
16
-2
-36
-30
-22
-3
2
33
-12
10
-20
26
18
-3
-10
-8
18
-23
21
28
36
8
3
1
-20
24
4
-8
-2
2
-3
0
1
-14
-3
8
-20
-11
4
-15
-15
-5
-17
-17
-13
-3
-11
-7
2
21
25
22
56
2
-54
-30
-15
-16
-19
-32
-47
-4
62
25
9
-11
-57
-17
-25
-3
2
8
-6
3
12
6
2
4
10
7
-6
10
18
61
33
7
12
-7
13
-3
-25
-49
-31
-11
-37
-26
-6
1
19
-2
-7
-2
-8
4
-2
-2
-4
52
34
5
10
12
6
-3
12
-4
8
2
-6
-11
-13
-9
-19
21
-1
-1
9
-3
4
16
-7
-32
-10
5
10
22
-2
-13
-7
-37
-50
-13
-31
-27
-6
1
-12
0
-5
-2
21
0
-5
19
28
12
25
6
-1
6
10
-25
-20
-70
-12
-6
-2
-5
-11
-12
33
0
-1
-4
-11
-8
0
7
-7
2
-3
2
10
11
3
-2
8
18
29
9
7
4
-3
13
4
78
-20
-5
-10
-4
7
-16
-13
-25
-11
-6
-8
-2
-4
9
-19
-56
-17
-4
6
7
-5
-4
34
97
25
4
-26
-29
-3
4
25
-15
31
5
26
32
1
-2
-46
-62
-39
-3
-4
-3
6
1
-15
-1
-20
-1
5
-1
2
-3
10
-1
-1
-3
-12
-7
-3
-12
-24
-45
-5
-2
-6
-9
-6
2
5
34
17
1
6
7
2
0
30
36
25
-3
1
-3
-5
-14
-84
-92
-46
-15
-14
-4
-2
2
13
-58
-4
2
-1
-2
-4
5
-3
35
26
4
6
1
2
-3
-18
-8
-28
-6
-4
-2
2
6
47
40
33
11
10
13
0
3
-11
-11
-14
-2
-5
-3
-1
-9
-4
-39
-26
-3
-5
-6
-3
0
12
7
-2
2
2
0
1
3
-12
2
-1
-6
4
5
-3
13
31
21
-8
-5
-4
-5
8
-4
25
45
29
11
-3
-2
1
-8
4
0
2
-2
1
0
-11
2
4
-10
9
5
6
4
-1
-6
-19
2
-22
-12
-10
-10
-2
12
23
32
11
-4
3
6
5
3
-11
-8
-14
-3
1
6
9
4
-2
18
-13
-2
-1
-1
1
-11
25
-29
7
0
-3
-3
-6
-7
32
34
-23
-6
2
-9
1
27
3
-8
21
17
15
43
42
-11
-1
-15
37
3
7
-13
-34
15
-22
13
-8
2
-13
-6
-14
-18
-12
16
17
0
-8
-25
-15
55
53
-6
-36
-9
8
32
19
29
-26
-13
-36
-7
20
49
65
-97
-46
19
50
7
-28
-53
-59
-13
-50
13
10
-8
-20
-17
-46
75
-7
-23
10
-3
2
14
-3
-28
33
-57
-80
-19
-4
-26
0
-18
23
14
77
21
25
58
72
57
14
-15
-4
-8
-9
-24
-69
-33
-19
8
-35
-26
-43
-75
-4
44
9
48
13
0
3
19
-54
95
51
-28
38
26
33
59
76
-17
-10
-11
9
17
6
17
46
-90
-75
-87
-11
-1
2
-52
-60
-102
-45
95
6
-16
-26
-15
-51
-39
13
-92
-4
3
5
-27
-43
109
57
25
3
-2
33
66
96
-36
-25
-54
-51
-9
-15
-37
-25
32
16
0
97
39
0
15
77
-34
-9
32
-30
7
6
-15
-52
-44
-27
-12
-23
-22
-19
-14
-37
66
67
11
7
-10
14
0
32
-67
-39
-30
-56
-5
1
11
-16
84
8
37
-70
-32
-36
-20
12
-37
-37
-25
49
35
20
29
43
-70
-10
19
11
-11
-11
-25
-66
45
54
14
52
5
-8
-2
3
20
-69
9
-58
-18
2
8
30
-21
-16
7
-35
-15
-14
-41
-19
5
26
37
123
32
19
25
21
22
-1
-30
57
40
16
31
-26
-25
-54
-7
-32
-14
-13
-1
-4
21
63
4
-15
-8
-5
0
23
-49
3
16
-33
-2
-5
-7
-1
-15
-58
-32
-1
-31
-22
-38
-15
-20
-5
14
-63
0
12
-4
-13
-20
20
20
62
15
7
30
-3
11
16
-11
1
9
29
56
33
-81
-43
-16
-118
-14
5
-46
16
20
35
16
32
-2
-19
-24
-26
-13
-10
-2
-9
-8
-16
-20
4
-35
-4
-13
3
-6
10
10
-58
62
49
6
13
9
28
56
75
-44
-79
-10
-51
-13
-8
-41
-72
9
-14
-10
-97
-23
-23
-29
-6
-12
67
51
109
38
-2
0
-1
-27
-46
-25
-42
-19
-8
-4
-16
42
105
10
7
7
11
37
81
-9
-26
-2
113
20
9
-4
-37
1
-40
-11
-39
5
-2
-4
-27
26
45
-3
-61
7
5
14
60
-15
-25
-7
4
-11
-16
5
-28
-5
3
-11
-61
-16
-3
-9
42
15
-5
-5
-56
-11
8
35
-4
-14
-30
1
127
35
1
21
-42
24
49
24
-14
-14
-28
-91
21
-12
-10
8
-19
-17
7
3
-4
-5
-46
-25
-68
1
-26
-5
13
-60
12
6
10
8
27
-10
-37
7
-6
-24
39
14
54
82
10
47
-24
16
10
-8
-14
1
38
-10
45
6
-40
-22
-26
-39
14
-13
2
-11
-111
-28
-10
-10
12
-25
-43
-8
20
-9
30
54
35
36
45
16
109
67
7
-28
-45
-8
-45
5
9
-8
-9
4
-3
-14
69
6
-32
-45
-40
-38
-10
53
56
14
33
25
24
25
-11
19
-18
-35
-86
-7
1
5
39
10
-34
-3
-3
17
7
-8
-9
15
-3
-4
57
31
17
18
-28
-42
8
16
1
-52
-29
5
-16
-48
-97
-32
7
11
-4
-32
-12
74
74
20
-37
-10
-7
-28
12
2
24
7
-2
-10
-12
2
20
-4
-38
-8
-71
11
-4
-7
3
3
49
1
-22
-17
12
14
-62
8
-27
6
52
15
18
19
23
32
-27
7
-41
-7
-15
-19
-12
4
49
-4
-77
-16
-14
-45
-19
9
29
9
-2
12
9
36
22
-10
-23
-9
-32
-6
-3
5
18
-21
-11
-3
80
1
-12
-3
31
24
-48
-1
-6
10
-3
-11
-76
-10
54
12
-6
-23
-7
-9
43
-21
-12
-25
93
40
33
19
-32
71
13
9
-1
3
-35
-58
-28
-4
9
20
15
3
-21
-28
32
-39
-40
-21
-12
-2
5
-12
-40
-38
-19
6
45
-14
15
57
65
21
-16
-9
-80
8
4
2
22
-20
-37
-15
58
-3
5
5
-17
4
55
24
-62
-35
-5
-12
-42
12
63
-20
-24
30
15
25
33
-19
-90
-7
-60
-20
13
41
51
0
23
-5
76
32
-38
-65
-42
24
-5
-3
-36
-24
-15
23
24
-17
-17
1
-49
-33
-18
-37
-49
27
-5
-16
-12
7
31
41
23
18
38
12
45
64
11
12
50
-42
33
17
14
0
-1
-17
2
-1
-34
1
-35
-9
-22
-48
-18
46
38
7
15
-28
5
-27
-45
-29
-7
9
-23
8
-8
58
35
32
6
-11
9
20
64
52
37
8
-28
8
18
4
-16
-1
-14
-43
-6
8
69
-22
5
8
-89
-51
37
-8
-3
-26
7
33
39
86
11
9
-46
-5
-28
4
8
16
-10
8
54
23
6
-25
-25
7
99
24
3
21
6
1
4
-25
-68
-9
28
-14
4
-21
-35
-23
10
-16
-31
0
-7
14
-20
23
-46
-1
-40
-46
-8
28
83
-28
7
10
15
2
-28
-24
-22
1
-29
-5
9
31
16
8
24
-69
-10
-6
18
22
42
14
-54
-52
36
-10
-10
-36
-22
-8
2
82
34
23
0
10
-31
-26
-20
7
-8
-3
-2
-2
-23
-17
3
-24
-40
-5
-20
-8
36
14
-24
-22
-3
-4
4
19
28
22
-9
-46
27
-11
51
29
22
33
33
-28
-53
-9
-67
-25
-16
-43
-34
26
-2
13
7
-9
-47
-12
47
8
57
5
-43
-12
6
16
10
-9
-20
-16
-44
0
10
-9
12
-66
54
7
-19
8
22
10
-32
4
34
-6
33
10
-24
-19
-13
-10
-91
-4
10
-23
-5
-8
-27
-11
16
3
10
9
-1
-3
-20
17
-62
-14
-17
-14
3
-11
3
-35
-46
-16
-38
-5
22
30
-8
34
114
13
-10
-5
-33
-11
32
36
-29
9
-10
8
-13
-15
-10
32
12
10
42
-3
14
37
47
-10
-15
-4
34
7
-10
-20
-45
-22
-37
2
1
8
2
1
4
-42
-25
-24
-44
-22
5
4
13
5
15
14
15
-3
0
-7
-10
37
28
9
35
-3
-12
4
65
-4
-26
-12
1
1
-12
-16
-16
-23
24
1
-55
-7
18
11
23
13
88
10
60
0
-20
-33
-42
47
-4
4
49
23
-16
-9
14
14
-6
-14
6
-6
1
-2
-6
-3
5
-1
-25
-5
-4
-8
-3
-31
-3
-8
-50
-21
17
43
-1
-62
-46
-14
12
13
22
6
-33
50
51
22
-16
18
-10
-16
52
-7
-73
-18
3
-29
-15
6
-29
51
29
-7
-48
-20
-40
-50
-4
-1
15
5
10
-14
7
3
1
9
27
5
-3
1
46
56
30
13
-24
-13
-27
3
-24
-63
-65
44
-21
17
-73
-18
-14
-19
-2
-1
1
-10
59
4
-17
-23
3
-42
-22
-3
-74
-4
12
10
-42
3
-68
-23
60
31
25
63
115
4
64
16
-54
3
-10
-21
-9
21
12
-7
-16
-10
-9
-17
-13
-2
-38
-14
-13
-32
-10
-10
-32
-40
24
15
31
0
-12
-10
-8
-5
1
-8
39
17
33
50
13
4
-21
10
-20
38
27
22
41
12
32
11
35
12
-20
-49
-38
11
1
11
-7
-19
0
5
-9
-77
-83
-19
44
-35
-3
-8
-9
56
91
14
-60
-7
-20
5
28
39
8
-5
-36
12
1
23
-3
-2
18
-4
-59
-28
4
3
17
-27
25
14
86
55
35
-1
-53
-31
-43
-17
-2
-8
-13
4
-23
-16
-3
3
-9
-16
-26
-27
-10
10
62
20
10
6
11
7
15
13
-52
-12
-79
23
18
29
11
-80
-45
-39
-97
-43
-6
30
62
53
25
36
99
30
-2
-7
-54
15
69
8
8
14
-4
-12
-35
12
-36
0
-52
-43
-14
-21
20
-26
-3
0
33
14
23
26
-30
-15
-2
-12
-42
3
-18
-7
76
-11
3
11
7
3
6
-18
-44
34
8
3
25
15
10
29
22
13
-24
-7
-30
-18
-10
-59
-26
-13
-15
6
14
-12
36
39
25
-2
23
7
45
7
-33
-16
0
-20
17
-15
-8
11
11
24
14
9
10
7
10
-8
-14
-3
-10
18
18
-1
-4
-9
-6
-11
1
-75
-77
-18
66
43
27
-11
-2
49
58
-10
-3
-11
-42
-27
-31
13
-22
16
-82
-44
-12
21
47
17
9
-27
-75
-27
-16
-25
-87
8
23
14
3
29
14
43
13
-28
4
-1
-16
31
19
-18
2
0
24
18
22
24
28
18
24
-17
-32
-28
-8
-14
-14
-43
-38
21
-52
-4
-46
-33
-12
2
33
-7
-21
-2
6
-33
-24
-16
4
-4
33
11
12
28
-1
-12
-45
-38
-9
-1
16
3
10
-4
-10
12
2
-17
-17
-35
-4
-15
-27
41
1
20
51
23
36
71
71
-16
-33
-9
-2
-10
-8
-11
-16
36
38
9
-41
-6
5
39
22
1
50
8
22
21
9
6
-6
14
41
3
14
-15
-13
-23
8
-24
-105
-56
-62
1
0
8
-44
0
53
21
28
30
2
-42
12
3
6
5
32
1
14
1
9
-45
37
7
-55
-36
-16
-4
-25
17
12
-8
31
-3
-17
18
38
-21
2
3
-30
-23
-19
-66
-59
31
-26
5
3
20
-2
4
14
18
-13
11
23
0
0
5
-3
-7
9
-5
-3
-13
-10
-39
-8
16
8
-18
-10
5
3
51
45
85
-18
6
-7
-33
-9
13
-16
-31
22
18
2
32
-10
-34
-19
-14
36
30
47
11
4
-6
-12
-79
-37
-14
-91
-22
17
22
-15
-15
-36
-27
12
28
-22
-38
-43
56
26
7
9
13
6
29
17
-10
25
10
-28
17
4
-13
-21
-26
22
9
-53
-9
3
-14
-1
-26
-88
-35
35
-12
7
27
39
-4
-24
-6
-65
-50
-32
-23
56
14
-25
15
81
67
6
-27
-60
5
-38
-7
31
6
2
19
29
-29
80
1
-15
-3
9
4
-26
-18
-39
-16
24
0
12
8
-15
54
-12
2
-7
-24
-4
12
50
-2
-4
0
40
14
-15
-17
-3
-30
-5
-13
-55
-21
-5
14
-34
-3
-19
-24
6
25
0
-1
27
0
39
8
-26
-20
25
9
-22
14
-66
-11
32
17
9
7
2
16
44
25
0
-21
-27
-20
26
-34
1
1
-58
-8
27
4
-36
6
7
13
119
36
13
-2
-18
46
2
3
-24
7
-19
-37
-5
-14
21
1
-40
-17
-18
-19
3
-15
-20
-12
-18
-8
-2
-9
-15
-46
4
-9
-102
-46
-14
6
-13
13
-57
-9
119
58
25
44
37
38
-37
-10
-32
3
-3
7
18
-2
11
12
-10
-16
-1
0
-4
-1
33
-22
-45
-18
-10
-5
55
-31
-36
-9
-2
-7
-9
15
-87
9
66
19
-37
-7
-5
9
-13
26
-3
2
64
17
12
17
33
-19
-14
0
-20
-7
-32
-21
-3
-19
-29
-3
-16
-7
57
41
34
16
-13
-16
46
21
14
-53
-25
22
30
6
-1
18
-1
1
-2
28
28
17
26
22
-12
13
25
-29
-3
4
72
-7
-25
-25
11
-10
-17
-17
-34
-14
1
16
2
-25
-40
-12
-52
-35
1
2
11
-11
5
-1
-23
-2
-4
-2
-12
54
4
3
31
25
-4
13
18
-21
-42
-7
-13
-25
-5
-4
-1
15
33
1
-18
-13
-24
-22
-16
-18
-59
-1
-3
-8
14
19
-29
4
13
7
-13
-4
-5
-7
28
1
31
10
-8
-2
-7
9
36
-32
-44
-6
6
27
-42
-32
-46
14
4
-12
-8
-25
52
31
62
-16
76
5
-17
-8
17
-4
-66
1
-113
-10
9
12
-2
-39
-30
28
47
7
-38
4
-19
-8
-6
-3
-19
-6
21
-10
7
-55
1
25
71
22
-25
19
20
41
40
11
14
-18
-20
38
19
5
4
-23
32
23
33
-5
18
37
-2
-7
12
3
-13
-13
-38
-34
-15
-5
-31
-25
-57
-56
-24
4
31
1
44
11
-12
-5
11
9
-3
-5
-13
-5
-14
-10
-7
-12
-22
7
7
2
19
-2
-14
-15
-6
-22
-2
-9
-10
-28
-28
-6
-26
26
34
19
25
28
31
63
54
14
-34
1
28
22
31
-8
-9
-2
-1
3
12
17
0
14
35
-17
-24
-2
9
-31
-36
-46
-49
-11
-1
-12
-23
-6
15
-18
1
16
6
-9
-6
-14
-33
29
-8
13
-23
-2
3
28
52
26
22
3
26
15
19
22
-21
5
20
-15
7
-3
-10
-10
-4
-5
5
1
-12
-8
13
-8
23
3
9
-8
18
3
20
-12
-35
-8
-31
5
-13
-12
-76
-4
9
-1
25
-15
1
21
84
9
-4
-7
-16
-1
-26
-20
-13
3
-5
0
1
9
-8
-11
-26
-14
-16
-4
-21
-1
9
8
7
9
6
-7
-8
-1
-11
1
-27
-9
-27
-7
2
7
-13
0
-1
-8
30
9
13
0
7
2
11
6
4
11
-7
6
-10
-1
2
9
22
0
10
-18
-11
-8
-13
-7
-26
-1
-6
24
12
-4
15
0
-19
-7
9
-14
2
2
-14
-1
6
-1
7
-8
-2
15
18
10
-12
-1
2
-11
3
-17
-4
-8
8
3
18
-1
-2
-17
1
-3
1
-4
-24
1
-3
3
-4
2
0
-1
-14
-8
-1
7
12
5
4
2
6
-2
-2
11
-5
-6
-9
-2
-3
-13
-7
-70
-10
-2
5
-3
1
-1
1
23
-1
-1
-11
-1
-24
6
15
51
11
1
4
1
22
-7
3
-4
-14
-6
4
-1
-17
-7
-8
-34
-69
-21
7
-6
-1
2
2
24
75
30
22
5
-26
14
-2
-58
8
0
17
0
19
-15
1
76
-2
-12
7
-2
5
8
-2
0
-14
2
-4
0
2
-4
-2
1
-6
-20
-18
2
21
-2
-2
9
-3
-1
-11
2
-11
12
-3
-17
6
6
-6
2
-23
3
8
28
28
-2
-4
0
17
-10
-3
-11
-23
-2
-7
1
2
0
5
43
14
6
-11
-4
-35
14
-8
-80
-3
-4
-10
6
28
-20
-2
54
14
0
0
-15
2
9
1
18
-7
-2
5
-1
-5
-17
7
31
2
2
6
1
10
-12
-1
-66
1
2
2
9
7
-7
-18
-10
2
-6
-3
-8
-12
0
1
6
-8
0
3
-5
-2
2
-3
-12
-10
-3
13
0
4
-3
9
52
1
2
2
-5
-2
15
0
-30
15
8
-12
10
45
10
-4
15
-12
-7
3
-4
-44
2
-7
-27
0
2
5
-2
-12
10
1
9
-6
-3
-1
3
-3
2
4
29
7
7
6
2
12
-4
-5
-25
-18
-3
-7
3
16
-8
-4
-40
-7
1
-1
-7
-24
-11
-7
49
25
-5
-12
-18
11
0
4
62
4
-3
2
2
0
1
-12
-87
-32
-3
-9
-4
2
6
8
27
2
7
4
11
4
0
0
-19
6
3
1
-1
15
-2
6
51
3
-4
-16
-10
-39
-9
-1
12
6
-1
-12
4
-8
-4
-18
-63
-20
-4
19
6
15
16
3
8
-4
1
3
3
5
1
3
14
35
10
6
6
-1
2
1
-17
2
1
-16
-6
7
4
1
-24
-11
-3
0
6
2
0
-12
3
-17
-7
4
-11
-8
-8
-8
-105
-9
2
5
3
-3
-18
3
-8
-6
-2
-5
-9
-5
3
6
59
77
6
-18
-11
-16
-21
-18
-104
-84
-13
-1
0
8
4
14
122
10
-3
-19
-13
11
5
-6
13
-1
-6
33
8
5
-2
10
66
-12
-2
-4
-1
2
8
3
-20
19
2
-33
-19
-16
-6
5
69
12
-1
20
8
-17
12
6
-46
-11
8
30
8
21
-12
-10
9
-11
-9
-15
-9
-19
9
16
54
25
4
4
6
-9
4
12
16
-17
-2
-15
-1
4
-3
-16
-36
11
5
-5
6
-7
0
1
57
23
4
4
5
8
-16
-44
-125
-82
-21
-20
-15
-13
1
-3
5
-18
-3
3
2
-1
-4
32
127
19
-2
-3
2
-4
24
5
-58
6
9
-7
4
31
-24
-19
30
2
-5
3
5
-33
0
-4
-100
-13
-9
7
3
0
9
8
34
-23
-5
17
4
1
-7
-12
-19
-44
-7
-10
3
4
17
27
127
79
14
2
0
0
-7
-15
-104
-18
1
-16
12
-2
-11
-10
-48
-1
0
14
-10
5
-4
-4
-2
11
-1
15
-3
-1
1
6
-19
-26
0
16
14
4
4
4
53
25
-2
-15
-6
-7
3
-2
0
23
0
-8
-4
2
8
14
-4
0
-5
-40
-5
0
-15
-9
-12
-7
2
16
-4
-11
-10
-9
35
5
-2
28
0
1
12
12
61
26
0
-60
-25
4
-25
-27
-47
-25
-7
24
15
-7
17
29
40
8
8
33
14
-4
-6
-31
-32
1
2
8
-5
7
-12
-9
3
-9
-6
6
-1
-10
0
-1
11
22
-2
-28
-10
3
5
15
37
0
-3
-20
-10
2
4
3
31
30
10
19
2
-3
3
-12
-10
-24
1
-11
6
5
6
6
30
-48
-7
-9
-8
1
13
17
-11
11
1
8
6
8
-10
-21
-105
-38
-7
-9
-8
-4
-7
-10
-14
2
-4
-14
3
-2
0
5
3
20
0
8
-17
-2
-3
-4
13
-2
-4
-28
-18
-2
5
27
127
18
7
36
25
6
-1
-22
-128
-21
-1
-2
-5
-9
8
0
49
11
2
17
1
-1
-6
-4
10
-3
-3
-33
-8
4
-10
-9
11
30
-1
-1
-3
-8
-1
2
16
0
0
22
15
4
-2
-8
-95
-42
-2
5
-1
0
14
6
-50
-1
-1
-20
-4
-3
12
6
-37
-14
-1
1
4
-1
-8
2
38
10
-3
5
1
-3
-2
-10
32
9
1
-4
0
0
3
7
14
18
7
3
7
5
-10
-1
22
3
-4
-8
-15
-11
8
7
-30
21
1
-4
-1
6
1
3
-1
-7
-4
-6
-2
1
-8
-11
-68
-7
1
17
6
1
2
15
11
-8
0
-8
-5
-2
-5
1
20
-26
-6
-12
-5
-3
-6
9
5
4
2
13
12
-3
-2
-16
7
7
-2
1
-21
-2
7
3
-1
-17
-1
-8
-5
4
1
7
10
14
4
1
1
-1
-5
-4
-13
3
0
4
1
0
-6
-11
-15
-21
-3
2
4
-4
-5
0
1
-8
-11
-30
-16
1
-2
2
35
-1
4
25
11
-1
1
-1
10
10
-2
-2
-3
-2
-1
1
20
11
0
6
9
0
-6
-8
-40
-20
-2
-10
-4
-1
-2
-1
-38
9
-1
-4
-4
-1
-3
-7
-17
-12
-7
-2
1
-3
-3
-4
14
-4
-15
-3
-2
-1
2
5
40
24
17
9
6
2
1
8
-6
-8
-5
-6
-2
-3
-10
-29
-18
2
5
1
-3
-1
1
10
18
-40
-19
-6
-4
0
1
14
-23
34
7
2
1
0
3
-5
21
6
4
-1
0
-1
9
-22
-33
-3
4
-2
-2
1
-17
27
9
-6
-2
3
2
-3
-4
2
1
-16
-6
1
3
-2
-9
3
-4
9
-1
-6
-3
-2
-1
8
24
-1
-2
-1
-1
-2
1
-39
7
19
5
4
7
2
-2
-9
-39
-33
-8
-6
-7
-3
6
17
2
9
-4
-4
-4
1
2
6
20
-3
4
-5
-2
-3
0
3
8
2
-3
9
8
2
-7
-9
2
-8
4
6
4
7
13
5
-7
8
3
3
10
13
-6
16
5
1
-22
-9
-7
-7
20
-31
-10
18
21
-4
-12
-13
-13
-1
-8
-13
-10
-12
-12
-15
-16
-9
16
-9
4
-1
-2
4
11
18
-3
6
-1
4
15
9
-9
-7
-12
-28
-4
0
11
11
-9
-6
6
20
0
-3
-10
-2
-4
-33
-4
-9
-8
-13
-2
-14
5
3
-45
6
12
8
-26
-4
-7
-23
-23
-12
-1
2
21
18
21
-10
28
1
5
-10
5
-11
-21
12
17
3
-12
11
-17
-19
27
-21
-3
-6
-5
-4
25
-7
-41
24
10
12
6
-1
-33
-9
30
21
-25
-12
-1
5
31
49
61
20
-7
-19
-4
-16
-20
-2
-67
-12
8
23
2
-8
-22
-25
-38
-21
51
-17
-7
9
23
-10
-5
13
12
68
14
14
-8
-29
43
-2
38
-11
-7
-7
-13
19
83
39
-78
-68
-2
5
4
33
-21
2
-34
39
5
-3
35
68
-24
-64
-15
-46
-6
-6
-35
-88
39
-2
7
-19
-6
21
27
-5
-33
6
28
-37
-8
-16
-41
-6
46
20
19
66
34
4
-2
30
-9
8
-11
29
-5
11
-23
-59
-31
3
-15
-5
8
-1
12
5
-18
-11
22
-6
-17
5
33
-16
4
7
-3
-21
-2
-21
-46
-6
-12
27
5
-12
-13
-7
2
30
-43
-7
-4
-4
7
-8
-2
-15
26
-32
-11
7
-13
5
25
25
-10
26
11
-14
-33
2
9
-9
29
-1
-4
-38
6
-10
1
40
4
-1
28
52
-12
-1
12
19
-1
-17
-31
-15
13
-2
-5
14
-10
22
-2
-49
-24
20
10
-41
9
-81
-3
42
19
11
4
-2
-34
26
2
35
31
-8
-29
21
-2
10
19
25
12
-8
4
18
53
32
4
2
4
-1
2
-37
-23
-30
-10
5
15
8
35
30
-44
-25
-16
-75
-48
6
-14
-60
-29
-20
11
85
40
-10
-22
-26
35
21
6
-4
9
4
25
92
7
18
-4
-4
-31
-11
-34
-40
2
-52
-17
29
15
23
17
-9
22
13
3
-74
-8
2
5
-8
3
-19
1
36
4
-12
-36
-30
-14
54
10
-16
-21
-20
5
41
-3
-6
0
51
21
21
16
11
-58
22
4
-51
-5
12
25
-21
48
-20
-4
-28
-12
-8
-3
-10
15
4
-6
-16
10
-15
-29
-5
-23
33
15
7
-22
-15
-24
-32
4
-10
0
35
30
-3
2
19
-75
-11
-13
-33
-14
-4
0
-1
34
14
-5
8
-17
12
26
2
43
14
-6
-75
-34
-5
14
31
1
30
33
114
60
9
-6
-6
-45
-27
-9
6
-15
-12
-23
-54
10
-1
-7
44
24
30
36
31
-28
11
-7
-83
-11
-21
-27
23
-3
4
14
-5
-10
7
-7
-5
14
-33
-10
33
37
-16
10
7
-69
5
-1
-47
-31
-16
-9
-24
29
69
1
-47
-18
-12
-2
19
17
-39
-8
40
18
4
16
12
-8
30
24
23
11
-3
-28
-25
-2
29
0
1
-1
12
2
34
-12
-21
-7
-3
-11
-2
-8
-48
-10
9
-16
-39
-37
-2
4
13
37
-68
-6
25
5
18
11
15
-22
-23
2
9
28
-11
-13
-22
-19
3
5
20
-3
-17
-8
7
17
-1
-2
-16
-20
14
18
-3
29
42
-6
-87
-12
15
24
46
1
-2
0
64
37
13
-28
-38
-21
-22
10
27
43
15
33
19
-28
-14
-8
-7
-34
-16
-35
-25
48
-9
-9
-5
-19
-4
9
31
37
-12
-8
-28
-18
-8
10
32
3
-9
-16
-3
-13
-1
12
-13
-8
28
18
33
16
-8
-17
-8
-62
-18
-11
-31
-35
-8
-22
-49
-4
-20
-8
-77
3
20
54
17
79
-2
4
67
22
-14
-7
5
-3
16
-4
-2
7
1
0
1
8
40
19
77
44
6
-22
-11
-47
-91
-18
-26
-60
-23
17
8
29
29
-13
-69
-36
-2
3
-32
21
-42
12
31
47
19
15
12
-6
10
-6
-18
4
-5
-2
-14
2
98
20
-1
13
-5
-34
-13
-27
-74
-16
5
12
18
48
62
42
6
1
-7
-52
-12
-21
-6
-33
-21
-3
-50
-16
-20
-20
-31
-7
14
7
-20
16
2
-19
-1
-37
5
12
127
39
10
3
3
-27
-18
-12
-58
-15
35
65
2
43
-36
-7
12
21
-13
-8
-1
49
45
22
21
-27
-17
-33
-2
-24
7
6
-16
11
-6
-13
-19
-48
3
6
-28
-34
-6
-12
27
-39
1
-16
22
13
25
15
-71
101
-6
7
-1
6
-14
39
71
11
-44
-10
-17
14
4
-14
0
-9
-23
10
-53
-51
-20
-22
-3
-41
52
-1
-35
-23
2
2
-1
13
10
-11
85
45
28
-7
-33
-45
-23
-4
-48
-12
-15
-9
27
0
-12
3
-27
14
-18
-2
4
25
52
19
64
-17
-13
20
15
-28
-3
-9
-22
-5
-6
-12
-19
24
20
-10
-22
-8
-10
-15
-2
5
5
-4
66
47
10
-2
-11
20
-24
4
-21
-16
4
-2
24
-23
8
-4
20
8
-8
19
4
-18
-51
-14
-31
-27
-7
9
2
-37
35
9
55
-19
-6
-17
13
66
26
-3
-22
-6
6
34
11
11
-49
-1
-56
31
10
-19
-5
-11
-4
-2
-10
10
12
-3
-14
25
14
4
58
-11
-10
1
-4
-32
10
-11
0
10
17
27
3
-80
25
-3
-50
-32
-4
-3
5
33
-35
-6
11
-12
-10
-39
-23
62
28
2
-47
-3
-23
-26
-8
-27
-14
4
74
40
10
-8
15
-30
12
2
20
12
19
46
7
-16
19
13
-34
10
5
10
9
3
-1
-22
-57
7
1
12
11
10
-10
16
21
-20
-5
-15
7
-6
-13
-13
-29
-27
-17
-2
-31
-20
49
9
-22
-32
2
10
7
-47
-8
-12
2
13
9
-30
-70
67
-4
17
3
22
-22
-19
60
22
10
7
2
-16
13
19
32
15
-21
-10
2
11
1
-8
-8
-6
12
3
20
7
6
18
2
4
-8
-32
-67
-25
-6
2
-32
-32
-13
15
0
0
-9
-33
-24
41
4
4
45
-10
-3
16
33
-43
-23
-2
-34
2
-4
2
-14
-17
17
-5
10
7
7
-22
12
50
2
6
21
-7
-6
-12
6
12
20
-3
-9
-3
-2
33
4
25
10
5
4
-12
10
-13
37
-42
-42
-1
-6
0
-20
-12
-40
-66
8
1
28
11
15
5
8
-2
-32
-11
27
8
5
-9
-3
2
-22
3
0
12
2
5
-10
-26
-8
-7
15
8
-3
0
2
44
7
-11
-61
-63
-8
21
13
-39
-17
-10
57
56
-12
-11
-11
55
4
2
-21
-11
-7
-21
-6
-50
-7
19
20
38
26
10
-2
32
-24
-12
37
-23
-16
-13
-33
3
64
7
-29
-33
-4
-21
-2
7
-21
-9
-14
0
3
15
17
1
1
-7
-15
-21
-6
-19
-30
26
-1
-5
-40
-13
-3
9
25
-24
15
3
33
2
-9
-2
-14
-22
30
13
-32
-20
-4
-6
-26
49
-18
2
46
20
18
38
67
-41
-16
-2
-46
3
2
-27
-35
22
20
7
51
16
1
-25
-4
-89
3
-9
-41
16
8
17
-32
29
-47
-6
66
0
-2
15
89
41
2
-3
-16
2
-15
-42
-80
18
11
5
-19
-6
5
4
-16
-16
-46
-5
33
-27
-16
-7
3
-62
12
-13
-12
-6
9
11
-28
33
-2
1
-2
15
1
8
23
-33
-14
3
10
11
-15
-13
-5
18
1
-1
11
-11
12
-1
3
0
-11
-14
-128
-31
-18
-4
-28
-41
12
6
110
47
24
16
-23
54
7
1
-77
-32
-30
-2
83
24
49
11
7
9
-18
-12
-33
6
-42
-16
44
7
10
-8
-24
-13
-39
-16
-25
-12
10
32
19
0
-12
-3
-47
-8
21
35
38
16
-1
4
-50
-10
-13
-7
6
-4
57
19
45
10
1
-3
-48
-93
-40
-16
43
7
3
-29
-32
39
-3
5
45
34
5
0
14
29
35
3
-35
-24
-17
23
61
-5
-11
2
-40
-20
-10
-11
7
8
67
5
-19
-11
-4
5
27
-69
-92
-14
2
24
12
-12
-54
-8
27
12
51
8
-9
-37
-47
10
-20
-5
-50
-27
2
14
28
-14
15
1
-3
46
17
26
18
-4
-5
-6
-6
-19
6
8
-28
23
19
-12
64
29
9
-23
-26
32
33
7
9
-6
-2
-16
26
15
-33
6
-50
-26
-24
-13
26
-4
41
18
-2
0
-6
-5
-24
-77
-68
-28
-38
-44
3
28
10
35
25
-6
-15
4
7
-11
-42
72
43
11
7
8
-11
-5
12
-11
-15
5
-75
-17
-6
5
-28
12
-56
-20
25
19
12
-4
0
-75
15
12
56
9
-5
0
10
50
22
18
46
7
4
23
36
44
70
5
9
5
3
-4
-15
-26
-8
3
-31
-56
-16
0
-1
-12
-40
-6
-10
42
7
-3
-12
5
-9
-5
-17
9
30
13
26
-20
10
6
1
43
7
24
8
45
4
3
12
8
11
-8
20
-33
-24
1
-35
-17
-17
-6
-22
-16
19
-5
-4
-13
-15
-3
22
-28
-31
-9
31
-7
0
-12
-27
40
44
10
2
8
8
24
3
0
-13
-16
-44
-28
-8
-8
16
31
-62
-7
11
1
-24
-39
-24
13
19
-4
-33
-4
-3
19
27
-19
17
7
-28
22
0
-21
-36
23
23
4
-16
9
8
41
15
-10
23
11
-5
-36
-3
1
-16
-27
3
-11
50
0
-20
-26
-1
8
-29
-4
2
-34
-10
-2
7
3
49
13
16
35
19
8
13
-49
2
5
41
5
-15
-14
24
10
-11
1
3
8
17
-10
-45
26
4
2
-3
37
15
21
44
-24
-6
-2
3
-42
-10
-12
-6
-17
31
10
-33
-20
-19
-3
-38
-12
-32
-6
41
8
-22
-33
-25
-36
-11
-3
-44
12
12
19
36
67
-2
-9
25
-45
-23
-55
-47
-22
-38
-19
-61
7
36
43
5
22
14
6
-12
-9
-4
-9
26
-14
-11
-3
-2
9
-18
-2
12
-19
13
8
-46
-4
3
4
-4
-1
-38
-24
65
11
9
14
0
-4
20
-7
-31
-46
-16
-27
-29
0
20
13
34
-5
2
3
-25
-9
-25
-11
-57
9
-18
-8
-10
-5
0
14
76
30
3
-30
-8
-18
-15
4
-62
-7
-22
27
42
14
-26
-11
93
21
29
10
-46
18
28
14
9
-20
-32
1
33
-41
-57
-8
-29
27
-43
16
35
14
-2
0
19
20
-12
-71
-23
9
9
-6
-30
-5
33
22
-18
-8
-16
-6
4
12
99
25
-1
14
8
-3
-17
-27
-56
-40
6
-5
7
-6
-2
-27
-23
66
4
-7
-10
-3
-23
-4
-28
-29
3
-2
-8
2
24
12
-53
-29
-6
11
20
0
-12
-10
8
-17
-21
-4
-3
22
6
2
-9
-2
2
2
-1
-24
-5
-7
-17
-2
27
5
6
-25
-41
-9
13
18
4
-5
-11
-4
17
7
8
0
-26
0
-3
-8
-3
-3
25
14
6
14
15
16
15
5
0
7
12
-14
-7
7
-1
9
3
-8
0
0
-5
-3
-25
-8
7
-24
-27
7
-4
10
11
-2
23
17
18
-7
11
-8
-11
-13
24
-6
1
0
-2
1
-42
7
-20
5
-17
0
0
16
67
23
19
8
-13
6
6
27
7
-12
8
7
22
-15
-6
-38
-20
10
-18
-7
-11
-3
-13
-21
-15
-17
24
8
-1
5
-1
-12
-30
16
19
13
12
2
2
15
-17
-34
-2
-12
-8
2
-1
33
22
30
-16
-6
6
2
-1
17
34
13
-19
3
-10
-11
10
-12
-20
-12
5
12
-10
18
-4
-18
7
9
-8
-8
7
-16
-7
3
-21
-21
8
-3
1
1
10
19
32
8
-2
-1
3
7
7
23
-7
-1
0
8
16
-27
-18
-94
-17
-2
9
-3
-33
26
-6
11
-10
-8
-5
2
20
-9
-2
6
4
6
5
1
-19
-2
6
8
-12
-17
-13
-1
-8
0
10
42
13
7
19
5
1
-5
-3
-52
-2
3
-35
-4
-6
-3
5
29
20
1
0
3
4
7
5
16
-11
-8
11
-3
3
-3
1
-3
3
6
0
-2
4
-2
-6
5
-4
-1
-22
-3
0
-1
-7
-44
-9
-5
-4
-5
6
-3
0
25
-11
-8
11
-2
2
-1
-1
-22
5
7
35
2
-2
-8
-15
16
0
-8
3
-7
-1
-7
-6
-15
-8
-3
-10
-4
2
1
1
15
-6
-6
1
-5
-1
1
3
20
19
12
-1
-1
1
10
11
19
8
4
-1
2
4
-1
-1
-26
1
1
-3
-1
4
-3
9
66
14
-5
-10
-3
-4
-2
0
-54
-1
-3
-7
1
0
7
-7
0
-10
-6
1
-4
3
-6
1
-21
18
6
4
2
-7
1
-4
-75
-37
-6
-16
3
3
3
-6
19
-9
2
27
8
3
-2
12
10
26
2
-3
-2
0
8
6
43
-7
-7
-6
1
0
2
-11
-3
-2
-4
-2
-2
0
-4
-5
-30
0
0
-13
-4
-3
4
0
-11
-15
-1
3
-1
0
3
-2
14
11
2
-12
-14
-2
-1
4
52
12
6
0
7
1
6
7
-30
-1
2
10
-1
1
-9
-19
-56
-28
-9
11
3
-6
-7
-8
-25
-7
-5
0
5
7
-6
-8
-77
-21
-8
-6
-17
-9
2
3
89
3
-4
-13
-3
1
1
10
16
7
3
-3
1
1
-3
-2
-24
1
2
6
5
2
3
6
39
15
1
-5
3
4
-5
-14
-5
-10
-5
-2
1
-1
1
8
28
21
1
-2
-7
-2
-2
-6
-53
-15
-1
-4
-5
0
1
4
4
-2
1
5
3
1
1
13
46
23
6
-10
-1
0
-1
-6
-26
-5
0
6
2
0
2
4
70
2
3
-1
5
-2
-6
3
57
7
-7
0
-12
-6
5
6
31
-14
-3
-4
2
2
-9
-11
-14
12
0
1
-1
-1
2
1
5
-17
0
-2
-5
-2
-1
-7
-46
-5
3
-3
4
-4
0
9
85
6
-3
-11
0
-4
1
-4
-74
-14
-2
4
-2
0
7
6
53
27
4
-11
-13
-2
-9
-14
-108
-40
-4
19
14
7
3
2
-1
17
-1
4
-13
-14
3
12
80
11
1
6
13
5
7
-1
-16
26
-2
-13
-4
-14
-2
-6
-71
-30
5
17
4
-2
-1
-20
-68
-17
-10
-7
-5
3
8
4
-10
-16
3
4
7
2
6
18
72
35
5
4
-1
6
-2
-1
-48
18
-4
-22
-13
-4
-3
-2
43
-4
0
-8
-8
-1
6
6
-54
1
-2
-23
-1
2
-34
-44
-74
-33
0
29
23
-7
12
20
34
19
-8
-16
-17
3
-27
-20
-30
-41
-8
-10
0
-19
4
9
-10
1
-3
-3
-14
-2
2
21
110
23
7
-4
-9
-1
-3
-15
-103
-17
-7
10
4
22
-4
-5
-9
-2
0
-17
-10
-8
-3
-2
70
1
2
-1
-12
-4
7
-2
-79
-11
-4
13
12
7
-6
-11
64
11
-1
-10
-4
-12
6
17
1
11
2
-10
4
16
1
-2
40
14
1
10
7
0
-1
-6
-39
-3
-4
-12
-14
0
-2
-4
10
-26
-1
-5
14
0
2
2
9
6
2
21
17
6
-9
-9
-23
-9
-2
3
1
-4
6
11
13
-22
-7
-2
2
0
9
12
69
21
3
-8
-4
-3
4
-11
-64
-10
-3
2
-4
-3
-4
-6
-2
15
2
2
-2
-3
2
-3
-32
-22
-3
-12
-1
3
2
9
22
11
2
0
-6
-3
5
11
63
10
6
6
3
0
0
-13
-60
-15
-4
-10
-3
4
-1
-6
-56
-11
-4
-2
1
-3
-11
-6
-9
-15
-1
5
1
-6
-7
-2
28
1
-3
6
6
1
5
11
81
35
1
-20
-11
-5
3
-1
-13
-4
-3
3
5
1
-1
-6
-30
-10
-1
19
2
-2
-3
4
-23
-2
-2
6
5
3
-3
4
19
-19
-2
-4
0
-7
-3
-2
-22
7
-1
-6
-2
-3
1
0
76
11
1
2
4
0
-1
-8
-26
-3
3
1
-2
1
-1
5
21
-4
3
9
2
1
2
1
25
-6
-4
-9
-5
-1
-2
-2
-6
-2
-5
-13
-3
-1
1
2
-13
2
0
6
2
0
-1
2
-9
-8
-1
1
5
4
-6
-7
77
24
2
3
-3
1
-2
1
-40
-22
-6
-18
-11
-1
1
2
39
18
-1
-3
-1
-2
0
-2
-81
-17
-1
1
1
-2
0
-1
-26
-4
-1
-1
1
-2
-6
-9
10
13
0
2
-2
-3
-2
-4
-18
-8
-6
-8
-4
-1
-1
4
38
19
2
0
-1
-5
-1
1
11
-10
-1
-3
-4
3
1
-4
-35
3
3
4
4
-3
0
3
7
4
0
2
3
-2
-2
-15
-13
-7
-4
-4
-4
-3
3
16
54
-1
-15
-3
-4
-2
-4
-17
-7
25
24
10
2
0
-4
19
-8
-32
-19
-11
-3
-4
5
3
8
46
26
15
5
7
-1
-24
16
-12
-7
-4
-1
-1
1
15
-41
-11
-7
-3
-1
-2
6
-14
-28
0
0
2
-3
-3
-4
17
14
-31
-17
-7
-3
-4
-7
-2
2
-3
1
3
1
5
6
12
65
41
10
1
3
5
3
-12
-56
0
3
-1
-4
2
-15
-2
11
-17
-5
-1
-4
-6
-3
-6
-22
-7
-1
0
-1
-4
-7
6
15
-22
-11
1
-2
-5
17
9
9
-20
-15
-4
0
5
-4
2
12
55
22
9
4
4
-8
-11
-10
-1
-2
-8
-7
-8
-7
8
0
19
5
2
3
-2
-14
-13
19
-21
2
4
-3
-3
0
-3
-7
-7
-10
-4
-1
2
24
20
6
3
8
9
8
11
-7
-15
-5
-1
-8
-9
-6
-2
-2
11
-2
-7
0
-6
-1
-7
7
-27
-6
2
-1
-1
-5
1
-10
14
-5
-20
-2
-3
8
2
20
-16
4
3
-2
0
2
0
13
52
-7
-5
-2
0
2
7
-16
-23
19
-3
-5
-5
-5
-12
-3
-17
-18
11
5
-3
-14
-10
17
8
1
-20
-6
-3
0
4
-30
-24
-7
20
5
-9
-11
-11
24
-2
-8
-14
-9
11
15
5
-1
11
4
-12
-5
1
-7
0
-4
-18
3
0
-5
-9
-10
-15
-8
-10
-4
30
15
-2
-1
17
6
12
-13
-12
-6
11
22
0
-14
-18
3
-1
-8
-12
-22
-18
4
16
34
12
7
-4
-5
-2
3
-10
1
22
-2
-16
-2
0
-5
15
-14
-41
-2
3
36
22
0
-7
-10
29
8
44
19
8
-16
-17
-17
-44
-18
-15
-36
-18
-18
-17
-27
11
3
-3
-16
-15
-2
-2
26
-2
-7
-22
-19
-17
5
21
5
-12
-3
6
42
6
-31
-2
2
2
2
14
14
27
25
-41
4
16
0
-6
-32
-39
-12
5
-8
-16
-3
-4
-8
-10
16
22
-5
-12
6
-13
-19
12
-29
5
4
-50
-16
-1
8
14
36
-10
-8
50
10
-2
18
14
-43
-9
5
16
2
28
-51
-54
19
8
17
44
3
-12
-11
-23
49
-4
-5
58
14
17
29
60
-52
6
-5
-45
-4
-21
11
13
26
-3
-4
-80
-13
3
-15
-3
-62
-21
1
-27
-31
-10
-1
-46
7
22
11
26
-1
-3
-11
-10
-20
-23
-23
24
6
4
-31
-12
-8
38
11
-9
-2
-6
48
51
18
9
-5
-13
-3
-3
-13
8
5
41
14
-99
-17
5
7
2
-23
-33
36
95
40
33
43
8
59
20
5
36
-2
-27
-70
30
30
-6
-23
-62
-17
-11
-3
6
-12
-55
-18
52
2
-6
-9
-27
17
43
-1
-58
-16
-2
-27
-19
-37
-6
4
37
17
15
18
-46
-21
-10
6
13
36
4
17
43
-6
1
-5
6
10
3
4
-8
16
2
-7
-36
-25
8
18
-4
-13
-29
-16
-46
-24
-16
1
17
8
4
5
107
18
-6
-19
6
-11
3
-13
-93
-34
-20
7
-7
19
-17
-9
-5
4
1
-7
-14
-11
-14
9
-3
-4
-26
4
-18
-16
-7
-14
-1
36
74
19
15
26
7
10
65
29
8
23
-10
38
16
0
-37
-33
-7
-50
27
5
-28
-14
4
12
-21
-15
-19
3
22
4
-56
-25
-11
15
5
-48
-9
-5
-11
-7
10
-3
-1
-11
10
3
-21
4
7
26
-19
-13
4
6
49
9
5
11
53
10
-31
-16
-33
-25
-13
-6
-50
4
34
7
-40
8
0
-6
-8
-4
1
14
37
-4
-9
1
3
7
15
1
5
-8
3
-9
-12
-17
-52
-11
-66
-6
-1
15
33
38
-15
-7
73
-3
-3
-3
9
-35
-55
-1
-25
8
1
1
-21
36
7
-6
-2
2
15
24
29
-20
29
10
-3
-8
-5
-4
16
58
-8
-12
-18
-12
-16
-59
-49
0
24
0
-28
11
12
13
14
-70
9
0
60
11
5
-2
-16
36
-10
-3
6
-18
-20
19
21
14
4
6
-9
2
-21
-2
-6
-2
-28
-4
23
-1
12
7
29
20
26
-6
-35
13
12
-6
-30
-2
34
16
85
16
-4
-30
-66
-10
-18
-6
-1
6
11
30
60
23
23
8
-93
-50
-45
-38
-8
-18
-35
-1
90
7
21
23
17
18
-1
-1
-18
39
-4
-8
30
-7
8
0
-12
16
14
3
-30
-9
42
7
-31
-12
13
32
29
10
-10
-4
-1
-5
-9
-14
-7
4
-28
-4
22
-8
-7
-5
-7
22
16
2
-36
-19
2
20
10
-73
-13
-7
36
19
3
-1
38
59
15
-10
-50
-21
-5
-10
-62
-2
-22
1
-16
-22
-8
-10
-25
-57
18
1
-51
-5
-15
-21
-32
15
-6
15
115
23
11
-2
9
31
-11
-15
-40
8
-17
41
81
1
8
-11
4
4
37
-20
-22
-39
-10
2
77
17
0
-3
-11
15
-4
-9
-42
-21
21
17
-3
12
-20
3
-55
-19
-20
-12
12
-17
36
11
6
3
0
30
76
10
-34
-7
-2
19
-5
-25
-66
27
20
0
47
21
-1
-1
-28
22
30
19
33
3
7
19
-1
-20
25
1
-26
-6
-10
3
3
-17
-10
-9
-33
-22
2
-22
2
6
16
4
39
6
0
10
-17
-12
2
-1
-36
4
3
-20
2
13
-23
-6
-23
16
4
18
22
8
-43
2
36
-9
-8
4
28
-5
42
1
-34
-7
-21
-14
-45
-58
-26
-19
-11
-29
13
14
10
47
21
8
-19
-5
-22
-22
-9
-5
27
9
28
21
4
8
5
10
-44
-17
9
21
-1
14
109
-88
14
-10
-31
-33
0
2
-115
5
10
-7
-50
5
-9
-15
-26
-9
1
12
28
17
10
-4
16
-17
-32
-10
-12
-19
-5
-1
-8
-22
12
-2
37
7
7
9
22
29
-7
1
-53
-22
-11
-13
6
-2
-38
-17
-2
4
0
7
-10
-7
47
17
26
12
-17
-4
3
-25
-15
-1
-51
20
11
19
41
-125
-43
-4
127
-6
57
76
-110
108
53
18
-76
-18
-56
-38
97
-11
0
-1
-43
-18
-30
-10
0
20
-25
5
-39
-24
-37
-20
-7
-30
45
3
50
14
11
6
26
-65
-29
-31
9
9
23
-5
-43
-52
-13
-4
-14
-5
21
11
-53
58
22
21
11
-8
-5
9
42
22
-12
0
-27
12
-1
7
25
-22
-24
-9
7
-17
3
-13
-20
-19
-18
0
46
31
1
-22
-17
29
39
-5
26
25
-1
-17
-24
27
-59
-10
-7
-11
-12
2
40
-4
32
12
-69
-26
-19
-3
-20
-22
14
-16
-56
-36
8
48
16
-25
-16
-4
20
5
18
-27
3
68
-13
2
-12
11
-2
-29
-24
1
67
27
45
-8
7
24
25
9
-12
3
-29
8
1
-21
-8
-7
-18
8
41
9
19
55
-16
-39
5
-22
-8
-14
-55
-52
-22
0
-11
-12
-44
-22
10
10
40
51
37
5
54
6
-14
-5
-35
2
-38
-3
62
36
15
12
-6
29
59
25
-21
-10
-4
10
101
-73
-14
-21
-8
-10
13
7
-74
41
-42
-16
-79
3
-16
-8
14
-9
27
-13
-34
-50
-13
-32
3
-29
14
-1
-33
12
-5
-3
-50
-8
-21
3
127
65
15
-7
25
5
16
-4
-35
3
23
3
-8
2
-18
1
-20
-19
-23
-19
41
12
-12
1
-4
-15
2
18
16
0
16
12
-100
-24
-5
-3
-20
5
-5
23
109
15
25
28
2
-55
-50
-20
-35
24
-9
-17
-5
-8
16
-9
19
-4
-23
-18
0
20
-22
1
-16
-5
-12
-3
-4
9
-10
-3
-74
-24
32
41
22
21
47
8
75
17
-12
7
-9
-30
-24
13
32
-7
-10
-9
51
29
-7
-12
2
16
24
12
-37
-9
-7
-5
-42
1
9
-2
1
-8
33
4
-52
-14
-5
-8
-38
-6
-59
-10
56
54
20
9
-14
-1
30
5
-6
-27
-16
5
32
-3
-24
-8
29
1
-4
4
30
5
-15
-11
-66
-32
-11
3
2
-18
33
12
2
-14
-8
-40
-59
10
11
-3
-59
5
-5
-25
-21
-13
-31
-11
95
14
8
5
16
63
-38
-1
-12
-9
-18
-22
-4
-17
53
17
23
4
12
6
-4
-14
-38
-28
25
14
3
41
108
20
3
1
-4
8
-20
-79
-112
8
32
3
-6
0
15
7
9
-16
-38
-10
-32
-25
-6
3
0
25
77
19
35
10
6
-11
20
-9
-13
-17
-35
-7
8
20
24
-41
36
16
91
32
1
-11
-13
-4
16
3
-61
-30
-13
-38
-53
32
-11
11
17
-3
4
47
3
7
17
-14
-46
-41
-15
-33
-6
-5
-19
11
9
18
-3
-12
16
22
3
-10
-4
20
31
33
26
-50
0
6
35
-1
-19
-13
-69
48
24
7
-23
2
-3
18
39
-31
-36
-1
-17
-34
0
-20
-46
-8
-4
-1
31
11
-10
-9
-29
67
-9
1
-59
43
32
28
71
-68
11
1
78
28
1
-37
-88
41
13
5
-47
-7
-16
31
52
-6
-51
0
14
-21
-6
6
15
-17
7
-9
19
-32
-28
-9
-22
-14
-21
0
-39
-9
-7
10
-2
50
28
-7
-11
17
26
15
44
-3
49
5
-31
-22
-7
-5
-15
-4
-24
13
8
-1
24
39
-1
11
27
16
93
12
-30
-46
31
-21
-31
-9
-14
-12
-7
39
37
50
12
-14
-3
9
-4
-39
-1
-21
14
9
-32
5
-4
-20
-37
-32
-27
-2
15
4
14
10
19
-6
-5
-7
-22
-13
7
-8
-45
37
16
18
48
-13
-16
22
90
-28
-15
-18
5
16
30
15
-55
5
6
-1
-59
-2
1
2
-31
2
8
4
13
2
5
-10
15
-71
-49
-9
-1
-13
8
50
-29
82
12
2
119
45
-5
-90
25
38
-16
7
-63
-19
-15
4
39
-13
-8
4
-14
-3
-2
-9
-24
-9
56
-5
-13
41
-8
-1
-2
-34
-32
-9
-45
-43
7
29
-3
-25
-26
-3
57
10
19
14
-5
5
-19
10
24
6
-17
-27
-27
-1
-13
-16
-35
-62
-13
-11
44
-3
11
3
-35
31
6
2
-58
-20
5
-3
-53
8
11
50
9
-14
-11
7
77
16
12
-5
43
64
29
3
-15
23
-38
-44
-12
2
-12
1
-14
-34
-7
8
25
-8
-6
-1
-57
-16
12
1
-18
-1
55
-3
-34
9
33
69
1
9
-72
-14
21
9
11
-16
-45
5
-28
2
-22
-3
-32
-38
36
-4
-11
0
-33
-11
-10
-3
-9
5
49
-15
33
5
-5
-14
17
-37
-55
-7
15
3
34
113
-5
3
15
5
-7
-26
-41
-68
-23
14
10
-3
-14
-2
-13
-27
-27
10
-16
6
-22
2
-14
-27
10
-19
27
-7
-57
-14
20
47
-17
39
-36
-14
20
2
5
-12
16
-28
30
21
-7
-3
-28
12
5
34
7
-8
-32
7
-15
-25
20
14
22
10
-13
-18
-15
-24
5
-19
-23
4
74
26
57
48
22
1
5
-5
15
4
20
-15
-6
-1
4
-3
-59
-13
-14
10
-76
8
-19
-7
-73
-2
-3
4
-16
-49
40
2
87
12
-29
-64
-15
52
14
10
18
8
-13
9
52
-53
-23
5
46
25
27
26
14
-8
14
8
-61
-17
9
-19
5
-29
6
2
61
11
12
68
-12
38
30
-11
-49
-12
-32
-14
5
-2
-51
-12
-19
-25
-21
-60
-40
-18
28
-12
12
8
40
-2
20
-4
-50
-12
-59
-16
-13
54
3
-13
23
-3
21
-28
0
-20
-6
-25
-17
9
-15
31
-18
-10
0
-36
-13
-6
76
31
37
11
-29
57
-7
-2
-74
-27
-23
-20
39
-2
3
1
35
34
34
17
5
16
4
0
11
-5
-22
-4
-18
-21
19
1
-92
-21
11
42
2
4
8
4
55
8
43
11
23
-14
-35
-9
-44
-32
-38
-31
-29
-4
29
1
-29
-15
6
9
11
-4
-33
-6
-24
-3
-20
-19
0
2
55
6
19
-4
-25
-7
-19
11
12
-13
-13
-1
-2
1
22
-15
-54
-6
15
9
8
5
-4
21
-4
-1
31
7
-43
-27
46
-22
-13
-12
-46
-25
-9
-18
-71
-19
9
10
31
20
70
26
0
12
16
-7
-9
-24
-56
5
30
20
-10
7
37
10
41
-11
-22
-14
-4
-3
-14
26
9
14
15
-10
-12
-3
2
-26
-11
6
12
17
1
-3
8
21
28
-1
-7
-9
-5
7
18
-5
-31
-23
7
-12
3
0
-26
-14
-7
2
-2
3
-2
-26
-12
-9
-10
-2
-21
-2
-7
-11
-2
1
0
-3
7
3
8
15
21
12
-3
-8
-8
-5
1
4
-27
-7
7
5
-8
0
-13
-8
-5
4
-15
-4
6
-2
7
8
0
-7
13
1
3
10
3
33
14
12
0
-4
-9
17
1
-46
-5
-4
2
11
15
-12
-16
6
-2
5
-17
-10
-2
-8
0
4
-6
-6
-2
2
-16
6
10
32
18
3
-2
-2
-11
-11
-1
2
-3
-6
-22
-3
8
0
5
-26
2
8
34
6
0
0
6
-6
7
1
13
1
-15
2
-12
4
3
-2
-7
-2
9
3
0
-6
0
5
30
8
5
-2
-4
4
8
8
-9
6
1
2
2
41
1
-15
-23
-2
-6
5
0
4
17
6
66
10
-1
-3
-10
3
-17
-9
9
-11
-4
11
-5
-9
-9
-23
9
-2
2
-11
0
-1
8
28
3
-7
-12
-8
5
-95
-3
-3
-36
-5
-4
-10
-3
18
0
-10
-7
-1
-16
2
-8
16
1
2
-8
1
17
10
7
21
-5
-8
-3
0
8
4
7
26
30
6
-3
5
7
-17
-17
-67
-24
-4
-9
-12
-7
1
-1
29
-15
-5
-21
-4
11
0
3
17
-5
-11
-15
-15
0
2
0
-26
-18
4
5
7
-14
6
3
38
26
1
9
5
21
-1
12
40
26
7
-19
3
-14
15
-17
-59
-11
-1
47
16
1
7
-7
20
12
-1
-11
0
37
2
5
48
-9
-5
-25
-7
-51
-6
-12
-4
19
5
-23
-5
-17
-7
0
-61
-48
-12
9
0
10
-3
-2
-29
-27
-8
14
-18
-23
3
11
75
-11
1
7
14
-15
4
2
44
19
8
4
6
-2
-4
-26
-84
-8
-13
-26
-24
3
-2
-1
64
38
5
3
-9
-4
-2
11
56
-3
6
2
-3
-9
4
-5
-81
10
7
0
-3
44
6
2
127
-34
-15
-15
3
17
-10
12
9
12
5
1
5
-12
-2
-16
0
-21
-2
-9
-5
20
-1
7
-9
22
11
-10
2
-16
-17
22
23
80
14
52
29
18
-17
-22
-10
-61
-20
-51
-43
-15
-16
-2
-9
3
-6
15
26
43
29
-2
7
14
-1
1
-9
-16
-32
-9
-61
-58
-9
10
-28
-26
9
2
127
32
7
7
26
-9
15
5
-97
46
1
1
-5
27
-11
9
29
-73
-7
8
3
7
-5
-26
-35
69
-3
-36
-33
-4
2
9
36
18
-3
19
0
-1
15
6
-2
-35
0
11
30
5
-15
-28
-56
-74
-14
7
1
4
7
9
14
46
12
20
38
-21
7
-9
-59
-7
3
6
-20
8
-5
14
90
-8
0
-8
-7
6
-9
5
23
-13
-2
-3
-5
-13
7
2
-80
-5
2
2
-5
-9
-12
-6
-52
29
-8
-42
-13
0
-8
-16
-27
-30
-4
18
-4
-18
-2
7
0
12
1
9
-2
3
1
4
50
12
0
-2
6
8
3
-5
31
2
3
2
3
4
-5
3
-23
25
3
-2
4
-7
1
1
-63
-60
-8
-11
-12
0
11
7
36
58
15
24
62
37
-15
5
-16
-54
-11
-22
-3
-12
0
-4
1
26
-4
-10
-11
-9
-6
-9
28
32
0
-8
7
-5
11
1
39
-19
-4
0
-21
3
2
3
-45
-5
5
12
7
15
-4
-14
-29
7
-4
-16
-19
2
3
16
43
28
4
-2
-2
-13
5
6
-34
-28
-4
-14
-21
-17
4
-10
-7
18
1
0
3
7
4
-2
12
19
3
-6
-3
-7
2
6
1
-3
-6
-21
-3
8
-7
-5
57
-24
0
14
12
-10
-3
-12
-36
-27
-1
4
14
-4
3
-3
4
7
1
-5
0
6
2
-4
17
1
0
6
3
-4
6
11
22
19
4
-5
-2
-7
10
13
63
-18
-8
-19
-15
-5
-9
-4
-34
19
-1
-7
5
-2
1
7
69
33
4
14
11
5
-6
-12
-82
-23
-5
-20
-15
-5
-7
-6
-17
-1
4
19
11
-6
4
6
-4
-32
-6
-13
-10
-3
-6
-11
-16
25
2
28
7
-2
2
-1
27
28
1
-9
-6
-1
-5
-2
-64
-30
-7
-28
-14
-7
-11
3
44
-58
-1
21
-6
1
0
2
11
6
-3
-7
-2
1
-2
6
56
1
2
4
-1
-8
1
-12
-75
-24
-4
-1
14
4
5
1
16
2
0
-4
1
2
-11
-9
-31
-25
-9
-5
-5
-6
-6
-12
-16
-18
-7
-5
-5
-3
8
11
49
13
6
0
-2
2
4
-10
-68
2
1
-2
8
-1
-6
1
17
-9
0
9
0
1
-3
-12
-57
-11
-6
-9
-4
0
-3
1
13
17
0
6
-2
-3
2
-1
-8
-1
-3
-12
-15
-1
2
10
30
18
4
11
11
-3
0
5
-2
-12
-2
5
4
0
0
8
71
37
6
5
4
1
2
-3
-52
-44
-5
-3
-5
-1
-4
-18
-59
0
0
-8
-8
-1
3
12
20
0
3
0
0
0
1
1
13
10
-1
6
2
1
-3
4
37
33
4
-6
0
2
3
-4
-19
-17
-3
2
2
-3
-3
-2
-26
-27
-7
-2
-1
-4
4
-12
-25
0
-1
1
-2
-1
-7
9
67
14
-1
-1
-2
2
1
-7
-15
7
3
1
-1
1
2
3
30
6
1
-3
-2
-1
-8
-8
-21
-21
-7
-7
-4
-4
2
-14
-20
-20
-8
0
2
-3
1
39
12
9
6
0
-2
5
2
-2
47
16
1
2
-1
0
-3
5
-73
-15
1
2
2
-3
-7
-6
-15
-1
-6
-1
2
-2
-1
-17
8
11
-3
-4
-6
-2
4
8
14
-17
-3
0
2
2
-5
0
-4
2
-2
-3
-5
3
-7
-37
4
5
2
3
4
0
11
32
-3
12
-10
-4
-2
-4
-8
22
7
0
10
1
-3
2
0
-3
23
7
5
3
4
-3
2
-18
-21
14
0
-2
1
1
8
35
15
-33
-8
-4
-1
1
-6
-59
-30
-11
-6
2
5
-3
2
33
30
43
18
7
-5
3
7
-9
-15
17
-1
-3
-6
-5
2
-18
0
2
-2
1
-7
13
0
-4
-4
-52
-20
-8
15
-4
-33
-44
-14
21
8
0
-17
-32
5
38
12
-14
2
2
13
3
0
11
-3
53
16
-10
-19
6
13
17
-1
-2
-5
4
15
10
20
6
0
-13
-9
-2
-13
-14
11
-5
4
-38
-14
-12
-23
-2
-3
-28
-20
8
2
5
19
5
-55
-17
2
18
23
-1
-29
-21
33
35
1
0
-5
3
29
11
0
-9
1
-8
-4
3
11
26
13
8
2
-24
2
-1
0
-44
68
9
25
14
-2
-1
-21
-1
-33
24
8
25
1
0
28
-9
-32
-36
-22
-50
-8
6
40
26
36
-3
8
23
1
4
-1
-7
-33
-40
-24
24
15
3
-2
-2
11
14
-34
-28
-9
2
-10
-15
-19
27
95
26
-4
-16
-31
-12
-89
-40
-31
-94
-18
30
57
-4
18
40
35
102
21
1
-21
5
55
-82
-52
-53
-12
-2
-8
43
6
3
-21
-34
7
17
22
-25
0
-20
-6
10
12
0
1
34
-23
45
14
6
-14
-2
0
-24
-12
-35
1
11
-7
-11
1
20
23
21
-11
-55
-28
-21
-50
-2
-9
9
14
46
19
-2
-20
-46
-2
-19
-49
-56
-16
-10
20
40
-44
15
38
42
11
-2
14
5
33
26
0
-23
-8
-9
4
-11
20
-31
-6
-9
-19
-20
-38
22
0
-12
-11
18
-5
4
29
0
-13
-41
15
-5
-4
-5
-46
-68
-7
10
7
31
12
5
7
11
9
21
-10
-9
2
7
14
24
8
34
-4
-93
-17
-4
-2
-19
0
-7
15
53
11
-4
-5
36
-22
18
-16
48
8
-20
10
12
6
0
10
25
9
34
12
-11
49
-53
-8
-41
-11
-5
5
22
0
50
18
-39
-20
11
53
21
9
-47
-30
-4
22
-26
-85
-41
-33
-4
12
8
-8
-7
-6
-1
-35
17
2
-5
-6
2
6
20
53
29
1
-7
0
0
14
6
-55
-16
-4
-4
-17
5
-5
-38
-27
-11
1
-45
5
2
2
-24
53
27
-9
-26
-11
3
-9
-6
-58
-31
-3
43
4
6
-1
42
20
50
8
21
8
6
24
-10
-15
-17
1
16
8
2
-13
-15
-70
-34
-2
26
15
8
11
-14
91
25
0
-35
7
-8
-10
97
8
-10
8
36
-6
8
13
-29
12
-5
4
-6
-23
-19
-29
-24
0
0
-4
-10
17
-3
-4
17
-47
14
4
11
18
16
5
-60
-27
-37
-19
-21
-2
20
40
52
73
36
-13
-37
-33
-52
-65
-19
-12
5
11
76
-13
-22
-5
-19
-15
-1
-2
-62
9
34
7
-15
-40
19
28
90
38
14
11
-4
3
-36
-18
6
6
23
29
24
34
42
4
-34
-15
-30
-17
15
12
-10
1
-41
-32
-26
-31
-24
11
16
-9
-21
8
18
28
16
-33
-4
-1
47
24
5
14
-18
12
24
15
60
18
15
-12
-12
13
-10
0
8
-3
-12
7
-15
-10
-25
-20
-78
-27
-6
-25
-27
-5
-16
12
51
5
10
25
45
14
25
-14
-65
-30
4
17
-1
-16
-5
0
56
30
-10
-26
-2
45
-6
-6
3
5
3
9
-1
-24
-31
0
-19
-30
-25
-36
-28
13
2
12
-2
27
25
20
46
-29
23
-11
-43
-15
-42
11
-21
-3
-46
-11
-21
7
44
-13
3
-15
9
2
18
20
-3
21
12
27
-10
-8
-19
-19
-6
-16
-23
-29
5
0
-54
-22
9
-4
-8
27
13
7
99
10
-9
8
-10
-6
30
10
-74
-12
-2
-3
-12
-19
-51
-19
58
10
3
23
3
18
17
29
-31
14
15
-2
8
-11
34
-2
50
3
-12
-22
-13
4
1
-13
-5
-8
13
25
37
32
7
6
84
15
-19
-16
-1
11
-47
-13
-21
11
1
0
-14
-12
18
19
-51
2
10
-1
11
-32
-3
3
22
8
7
20
3
-23
37
-2
-48
-1
13
0
-28
52
30
7
66
-18
-19
-17
25
2
-62
-14
-10
-5
-18
-5
4
-4
19
-10
-76
-16
3
-6
30
40
-50
-10
37
-1
-11
-19
-22
-53
-26
0
-8
-4
19
-9
-30
-4
45
11
-21
-36
-24
-1
-2
-6
-3
3
50
39
13
0
-4
-45
-15
-2
-49
-1
22
-5
-32
-2
-15
-3
28
36
-4
37
54
18
58
15
15
-1
-5
-1
26
12
29
8
15
-10
-13
-8
-16
-39
-7
-2
-77
-39
-12
-22
-8
8
-74
-28
31
3
-1
9
1
9
-2
-11
-36
-7
0
-5
-16
13
12
-2
-31
-24
-8
13
-10
-18
-51
8
95
60
31
33
23
18
23
6
-28
-49
-40
-63
-3
-11
29
-9
-8
20
-3
20
2
14
-9
7
14
5
-1
-13
-49
-17
39
-8
-15
-12
-11
6
-20
-22
-9
17
-5
-18
3
-11
-12
-20
-21
1
11
6
-9
-10
22
15
-21
-17
-32
5
21
16
-6
-5
11
2
-13
-15
-20
-13
4
-10
36
3
28
27
19
16
-15
42
-48
-11
-21
-13
-10
-24
20
1
3
7
-32
-10
0
7
17
2
-16
-11
-4
19
14
11
9
-27
14
-12
-3
-5
8
3
-41
8
-20
-7
-52
-15
-8
15
13
-10
-17
-6
-20
-12
-12
-15
19
15
22
26
80
14
-1
2
-9
22
41
12
-35
-22
6
5
35
-24
-13
-7
-4
-2
0
15
-47
14
11
6
1
2
-9
6
43
-21
21
11
-32
16
7
0
41
-12
-32
-10
24
16
-1
-27
-60
-21
-11
-1
35
-14
11
0
-18
-32
-14
-3
26
-4
-18
-28
-20
22
-27
-19
-75
-3
-3
30
45
-3
22
-6
-64
-12
-7
-6
-19
30
13
16
48
-8
12
22
30
11
-29
1
31
10
-12
-8
13
-12
14
-21
-114
-44
-16
-4
-20
-52
-22
1
90
38
28
25
10
9
-18
-1
-8
22
-3
9
14
11
43
20
-7
10
3
-11
35
-22
-45
-2
-41
-42
-13
-13
-46
59
60
3
-27
15
5
17
-14
-12
9
1
32
12
-2
-15
-9
5
12
-2
-19
-3
10
-12
-19
-34
-18
-21
58
-4
-1
25
13
-5
-31
-4
-31
-30
-43
-41
-3
33
29
9
-13
12
19
10
45
15
-10
3
10
1
-7
9
12
6
38
1
-7
-10
-3
-36
-44
-8
-37
-10
-71
-24
27
31
-19
5
-38
-6
70
11
-47
-49
-2
11
11
-3
0
29
10
8
34
-11
1
6
22
23
11
-6
-40
17
-23
-5
-39
-23
-17
-6
27
-14
4
-11
-9
-17
13
14
-33
19
-13
0
4
-3
10
19
10
-1
13
22
32
7
-11
-13
19
-27
-31
-15
-53
-25
-9
6
-15
12
60
8
18
28
23
3
12
-26
-40
-17
-14
-11
-21
-45
-30
43
24
20
33
19
-15
-18
7
-22
-23
-15
-7
-26
-7
1
-1
-27
15
-1
2
-15
-15
-15
-7
-12
5
3
-3
-12
15
32
-23
-11
-30
-18
-32
4
12
4
26
38
36
35
58
46
12
22
49
-18
-25
-3
-12
4
-5
-1
-19
5
68
13
-16
-4
31
22
-36
-23
-36
-27
-34
-12
-14
-28
6
78
32
6
7
-26
-19
3
30
-15
4
1
-11
35
15
-27
-8
-29
8
-1
-71
-38
-18
21
17
59
31
7
25
-6
21
24
35
16
-5
-4
42
31
7
2
-27
-10
1
13
-26
-11
-27
-11
-9
-3
-12
-17
34
3
3
-16
-31
-22
-29
1
17
17
23
21
22
-35
-24
-15
6
-11
-18
-22
22
7
22
0
-30
-45
2
29
-4
-19
-41
-7
6
47
7
-17
-1
29
23
19
33
-12
-19
-15
-12
-17
-13
-21
-8
22
20
39
39
-20
-20
-12
-38
-41
-25
-49
-48
-4
19
9
43
13
-3
2
11
16
20
11
-1
-16
-9
8
9
-25
28
-5
-69
-25
9
-28
-22
-20
-27
-3
100
34
13
15
-33
17
6
11
21
31
9
3
5
-19
-2
-7
-55
-2
-8
-11
-22
27
19
3
11
5
5
19
36
-9
21
-4
-36
-19
11
36
7
41
-8
1
13
-34
-39
-61
-3
-28
0
-9
16
20
-10
0
-16
7
-9
5
-5
27
15
4
-28
14
17
0
-51
3
19
-1
10
-17
-49
-6
2
-6
1
12
-16
18
9
-10
-21
-30
-2
46
72
31
39
14
37
-12
-31
-39
-74
4
-18
-13
-43
5
9
9
22
3
35
19
-20
-3
17
29
-12
-19
-17
-7
18
4
-4
-8
-1
-43
-27
-13
-23
5
23
3
-7
77
-21
-1
47
16
-12
-5
45
-13
13
2
6
-15
5
20
14
-4
35
2
-78
-23
3
-2
15
2
-28
-6
44
-13
-19
-5
-42
10
-1
0
30
30
4
-3
17
23
-11
-5
16
15
-2
-7
49
-3
34
18
-9
-5
7
-17
-51
-43
-30
-20
-61
-11
-3
-15
3
-48
3
-18
40
16
18
31
-11
30
-22
-4
-9
-16
-37
-24
-21
2
20
10
3
14
11
-20
-15
-10
-1
0
13
7
-5
9
-1
-7
-81
-14
-33
-19
-8
1
39
-21
56
-8
13
-4
-10
6
-13
-15
1
7
56
1
31
62
-1
-16
-32
8
-25
2
-16
-48
26
-36
12
8
-5
-2
-13
-3
-9
21
-1
-2
-21
0
8
-13
-1
17
-39
-13
16
1
-6
-3
-5
-8
-20
6
38
-6
11
4
-6
8
44
7
-92
-32
-11
22
13
-26
-26
-22
-27
-9
-8
-28
-30
46
5
34
96
55
10
6
-27
2
25
1
56
9
2
-28
9
8
-9
4
-33
-3
8
10
-33
-1
-35
-6
-4
2
-3
-20
16
15
37
3
-35
-4
0
-4
5
-13
13
1
-9
8
-10
15
-10
2
-1
13
-12
-26
-4
34
77
31
-34
-31
69
16
4
-39
-88
-5
-73
-14
-37
-11
-16
-19
19
19
3
-3
11
21
18
4
45
-49
25
3
-24
-36
-17
55
-62
8
4
0
-63
-29
11
30
32
18
11
10
-83
-5
-8
-14
13
-11
-40
-14
29
9
-5
-50
31
18
-18
0
25
24
18
6
-8
-41
19
15
34
31
-7
-15
-7
-16
-40
-21
10
-21
-16
-21
-52
13
72
16
-115
-47
-7
27
12
-13
-25
-2
51
18
-5
-62
-42
6
-2
8
-24
-5
-5
40
92
-28
18
-2
-90
-19
-30
-67
-98
9
53
13
102
22
24
15
10
24
12
2
48
37
14
36
29
-16
-57
-13
-21
-29
-20
-42
4
-8
-6
-5
-7
9
-23
43
33
-12
24
10
-54
-19
50
28
13
16
13
-1
-25
-26
9
12
36
-19
14
4
8
2
0
2
-88
14
-29
-6
42
8
-29
-87
27
-6
28
-9
-20
4
19
62
-4
2
26
3
2
-5
-5
-26
-6
3
-23
-7
-59
-10
3
33
23
-1
-32
-6
76
17
-7
20
5
10
6
3
-12
19
-8
-13
-28
-4
-23
-4
-30
-4
-12
-38
0
15
40
-6
-31
-13
-11
12
24
1
12
-2
-22
-14
-9
-48
-44
11
-11
8
37
-2
44
59
37
-8
-9
-16
-51
-10
1
-42
-55
11
39
17
-1
-16
-26
19
-18
-25
-41
-15
44
26
43
29
32
4
6
0
0
-7
-14
-11
-1
10
-12
-6
-7
-11
-18
-23
-30
0
7
0
29
17
2
-18
40
-22
-1
-3
-2
4
31
35
5
5
-12
-1
-4
4
-13
-18
-35
-4
-1
0
4
3
6
5
8
-9
1
1
11
1
-37
-20
-6
4
16
-1
-15
-8
31
21
21
-1
-21
-4
-15
-13
-39
-21
-17
-8
2
-4
9
8
7
-2
7
8
4
3
4
6
14
15
-10
0
7
-4
-12
-5
-3
0
3
-7
-9
-3
1
0
-12
-1
-23
-6
-2
3
4
0
-13
-17
11
-5
0
4
1
6
5
4
5
-1
-1
0
-10
-8
-1
16
6
6
-1
52
13
1
-8
-14
-5
6
-6
-38
-6
1
-2
-5
-5
-26
-12
-44
-18
-1
19
4
-18
-4
0
-16
-4
-4
-24
-9
-7
-5
-9
-2
-2
-3
-2
1
-5
15
9
22
13
8
10
1
9
-4
9
8
10
3
5
2
25
-3
3
24
-2
-6
-2
1
2
10
7
21
5
-1
-5
-1
15
-11
3
-9
5
3
7
6
9
5
-13
-61
-7
-1
-3
-4
-35
-15
-1
-3
-5
-5
-2
-1
3
-6
-4
54
-1
-2
-4
-5
-4
-10
2
7
-12
-3
-15
-7
-5
14
3
26
8
-1
21
11
60
-4
-1
-56
-12
-2
3
-3
-25
-3
6
25
14
3
-6
2
-9
8
11
37
-6
2
-8
-4
10
0
-19
-53
-18
0
-11
2
-21
-9
-4
-35
11
1
31
4
3
-7
-12
-52
-10
-7
-18
-5
13
2
-1
41
10
-1
-15
-10
-12
6
5
38
12
1
3
-1
-20
-1
5
-12
12
3
-13
1
16
3
1
-1
-4
-2
0
-4
-9
14
8
12
0
0
25
10
14
-3
5
-21
-8
-6
-15
0
-1
5
-24
-38
-29
-3
-2
-10
1
-5
-1
-47
-8
5
-10
-7
-9
-8
-14
-19
-19
-8
-5
-7
-10
-6
13
63
17
4
7
-4
-9
12
11
68
31
2
-1
7
6
0
-4
49
-2
-2
-1
-4
13
-9
-8
26
7
1
3
1
6
-1
2
-73
-2
5
3
-2
-9
2
9
24
-16
-11
-6
-13
-1
8
-4
51
-1
-1
-1
8
5
-18
-14
-93
-14
-5
-23
5
-10
-13
-19
70
-4
-12
14
-6
-6
6
5
6
-37
4
16
11
-1
5
2
-38
27
6
3
4
-8
16
21
-17
2
7
-14
1
20
-20
-15
-19
6
-3
-12
-20
-9
5
5
33
51
10
17
7
-8
-4
-12
24
-18
-4
-3
0
1
-2
-16
-48
-30
-6
-7
5
17
6
15
0
-33
0
9
0
26
3
3
-47
60
7
-15
12
-10
-15
-40
-57
-19
-17
-2
-1
3
-3
11
83
-4
-1
-5
-48
-8
9
-6
-35
-21
17
57
40
-10
-12
-9
3
-32
-27
-23
-14
-5
6
5
-1
-15
-1
-27
-7
3
-4
-20
-25
34
2
51
15
-6
8
16
38
10
4
0
12
7
8
13
68
12
4
-1
-2
10
7
7
-118
-11
3
4
8
19
-24
-19
-3
5
-6
-7
-12
-26
19
24
-51
1
8
-3
8
0
-1
-13
9
11
2
-7
12
11
-20
-16
-62
-63
-18
-47
-29
-13
11
15
111
44
12
58
32
4
-10
-5
33
25
0
6
3
-7
-11
-15
-99
-46
-12
-40
-25
-8
4
19
86
44
11
31
2
-1
0
-1
-34
-1
0
-34
-4
-5
-10
-8
66
14
-4
14
2
-5
3
2
2
-27
2
6
-4
2
14
11
-23
28
8
-7
-10
-10
3
0
-14
5
1
3
7
3
0
18
71
-21
-11
-24
-11
-9
-7
-15
-25
2
3
-1
0
3
2
7
-11
-7
4
18
11
-5
-3
-6
61
5
-6
-23
-11
-2
2
2
-38
7
0
-5
-6
2
2
-4
-27
-18
-3
6
6
5
-12
-8
-32
3
-2
-5
-12
-12
17
19
80
26
4
8
11
7
-11
-12
13
17
-4
-8
-4
-9
8
2
-7
-30
-1
5
5
4
-1
-7
5
-24
-8
8
7
0
1
6
16
1
1
-20
-14
0
-6
-6
-93
-11
0
12
10
-1
-7
5
117
44
1
-3
-3
-5
2
0
35
23
3
3
1
2
1
8
-30
-31
-7
-7
2
-3
-3
-14
-24
-9
-4
-27
-31
0
3
17
15
0
2
15
6
-2
-8
-7
-12
1
3
11
5
2
-3
3
-23
-5
5
6
8
1
6
-3
2
-1
-2
-12
-4
0
-9
-5
9
18
-5
-26
-2
-11
0
8
36
-2
1
32
14
8
-10
-8
-28
-10
-4
0
-6
-12
1
14
35
10
2
3
2
10
-3
-4
-6
-20
-4
-4
-3
-10
1
-5
-39
-2
0
4
5
-5
-3
-2
-49
-16
-6
-4
-8
0
1
-7
79
2
2
-3
0
0
8
-2
-79
22
5
6
-2
5
-9
-6
18
-5
-5
-15
-11
0
3
0
-1
-13
-4
9
2
1
5
4
-51
5
-4
-2
-4
-2
-1
-14
-8
-17
-1
4
1
3
1
1
14
0
-1
-6
-4
-6
0
2
-12
10
-2
-1
-1
1
6
6
-20
-8
1
-1
6
1
-5
-3
73
3
1
5
-1
1
2
-1
-5
3
2
-7
-2
-1
-5
-3
0
-7
-2
4
9
-2
5
-4
20
8
0
0
-1
-1
-3
2
-26
-2
1
5
-2
2
4
8
-20
-4
-4
-7
-7
0
0
-6
-3
-10
-2
-3
-1
-2
-7
0
16
4
-2
-4
-1
1
4
3
-4
1
2
2
-1
2
1
-4
2
2
0
1
7
-2
-1
2
37
4
1
-2
-4
6
-11
-14
-47
-6
-23
-9
-4
-7
-2
6
14
26
26
9
3
-1
1
8
7
12
3
1
3
0
3
-4
-1
-8
7
1
1
-5
-1
-2
-22
-9
-5
-4
-4
18
3
2
13
-15
-14
-5
0
-6
-1
0
-6
1
3
3
0
1
-2
7
52
1
0
-5
-3
-2
0
-10
-32
-2
4
1
3
2
-9
-8
-2
-16
-6
-2
-6
-4
-3
3
0
-16
-3
-3
0
0
3
-16
-28
-15
-17
-8
-6
-5
3
24
55
9
13
7
9
-3
16
13
13
54
13
2
0
9
-2
-4
9
-12
-2
-3
-1
2
-16
-32
-38
-12
-12
-10
-9
-10
-5
0
-5
9
-6
0
2
-4
-8
-5
-16
-28
3
4
11
15
11
-12
1
1
-4
2
-1
-8
4
27
-36
-9
-5
-8
-10
-2
-1
-5
16
-12
-7
-5
-11
-6
-12
21
13
39
3
-1
0
-3
-18
-12
1
-1
-5
-4
-3
5
7
-12
-11
31
31
10
14
17
-33
7
24
-16
-2
-1
-5
-31
4
-38
-35
-9
-6
-2
-4
-11
8
35
4
6
9
5
11
25
18
28
10
-2
-7
-1
15
-16
-12
-26
-14
-24
-6
-15
-29
-6
17
-2
6
21
11
-6
-16
-1
-13
2
-4
3
-6
-5
7
-19
4
-6
8
-15
-2
12
1
21
-28
6
-4
42
18
8
28
8
13
-22
16
-26
-16
-3
5
-14
0
-34
-97
-34
-5
-23
-46
-7
56
36
58
3
-7
-12
-21
-2
-42
-15
40
3
-12
0
-13
11
-6
30
18
21
25
25
50
-12
31
-28
6
42
-2
-6
-7
3
-10
11
-55
-19
8
14
22
-41
-36
-11
-42
-50
0
6
-9
5
26
-44
27
22
-17
-29
-68
-40
19
37
37
15
10
10
19
25
-11
-20
-30
11
-13
-1
19
24
76
15
-33
-28
-10
-2
13
75
-53
18
45
-40
-28
5
7
-43
-37
-13
-9
-60
-15
-2
-44
-82
17
-13
50
74
4
3
5
41
-9
17
-13
38
39
8
-4
-19
-6
5
-36
-49
-4
4
7
56
-27
-32
4
-35
-10
-20
-11
-9
18
-1
-46
26
-5
1
17
-10
21
22
41
-8
-8
-8
10
-3
19
34
-3
20
6
2
5
39
-42
7
29
5
-8
-3
6
-39
-11
-60
-33
-9
5
2
-24
-10
10
-34
15
75
25
-1
33
26
-6
19
4
-40
-26
-24
-34
-33
-5
25
5
-30
-4
15
42
41
-31
-54
-21
0
-11
-6
-5
-5
17
48
27
41
11
-3
-31
-5
-36
-40
-28
-23
-16
2
12
-3
46
39
14
18
20
3
-19
-26
8
-1
11
-11
18
0
1
15
-11
-22
-8
-27
-5
7
16
-7
6
11
-12
-13
-11
-6
28
46
4
-16
1
50
-1
4
-25
-10
-31
-13
1
-18
-2
-4
-7
-19
-14
23
-7
-63
-33
-5
4
1
-11
-11
-5
43
42
25
17
-18
55
21
10
-27
-17
-19
-22
14
-13
16
-3
11
-5
-22
-41
-10
-13
-17
-12
-23
2
9
-8
-16
-15
-32
-7
26
9
16
-8
-32
21
20
0
-8
-5
7
38
70
-6
6
6
-42
0
-17
-30
-11
1
0
3
39
2
-14
-10
-10
-25
-22
-5
-66
-40
-15
-16
-6
15
0
-9
72
13
29
58
33
-28
34
15
-32
33
-3
-16
-22
20
-43
-7
-47
-17
-11
-24
-34
-26
31
14
84
24
5
18
38
-7
-106
-22
-54
-27
-5
-11
-14
-10
100
27
2
-20
1
28
22
9
-18
-9
6
6
0
-11
-20
5
45
0
-42
-16
1
0
-4
-41
-23
-13
3
-9
-34
-35
-21
20
-18
-4
44
-5
11
15
9
9
25
-1
-33
-8
-2
5
-17
63
9
0
-71
-5
4
20
26
-5
24
5
57
12
1
-6
-7
-17
-35
-19
17
-4
10
12
0
89
7
-1
31
-3
-2
56
13
6
54
31
3
20
5
-32
-45
8
-37
-2
52
65
21
14
5
-17
15
0
-24
-7
-11
-15
-1
-14
-41
-10
8
-3
16
37
54
6
3
-1
-4
-18
-26
-3
8
13
45
11
-23
-13
22
22
-6
10
-15
-1
-41
-20
-3
7
19
-17
9
-2
-24
-2
-2
-28
-29
-29
-32
-22
26
12
-14
-2
-12
36
41
22
-56
-31
-1
15
41
11
-40
-2
91
64
12
-9
-35
1
15
18
-55
-19
0
-10
1
-20
-36
-18
-10
10
0
-14
-16
-36
-3
3
6
4
1
-4
3
17
17
-8
-19
-32
-13
-13
-31
-14
-11
8
14
-1
8
0
8
45
15
3
13
13
-2
21
-2
-11
13
0
15
14
19
0
-11
-4
21
15
-24
-10
7
26
18
-37
-29
-19
-8
-2
-11
-39
-25
16
-42
-4
28
5
6
10
27
16
48
11
-1
-6
-15
18
22
-34
-7
0
-28
-9
6
-6
38
35
24
-12
-76
-11
-19
-16
-7
-3
3
-6
-11
-13
-1
-17
-12
3
-31
2
-5
2
-10
-17
-22
-27
-22
-9
-27
-26
-5
4
-11
-6
1
3
19
15
13
23
18
-16
7
4
15
8
0
-14
26
-21
-33
-14
-30
-27
-12
-4
-44
-6
-12
-6
-32
6
-1
-24
2
16
3
5
5
-2
6
3
-4
-23
1
-2
2
-4
2
-1
-2
1
2
-4
-22
-1
3
22
-4
-7
64
7
-30
-8
15
9
38
-17
-57
-12
24
15
-16
-45
-17
0
34
16
4
-15
-6
-17
-40
-10
-15
-4
13
-12
-15
-23
-1
13
27
3
15
22
1
3
-6
-56
-13
-7
-7
-22
4
31
32
47
12
-5
-12
-11
-11
-38
-15
33
5
18
-10
4
-9
3
28
9
-25
-20
29
16
-4
10
25
-22
22
9
14
3
9
-6
-49
-24
-28
-22
-95
-19
-1
9
28
-8
19
4
98
17
-7
-16
-71
30
-11
6
-21
3
1
-9
9
9
-4
-16
-1
21
3
4
-12
-29
2
-2
9
-5
8
11
-11
-7
-2
-10
-31
1
0
12
23
23
11
10
1
1
-1
6
20
-25
26
20
-7
17
10
3
-12
24
-16
-7
59
21
1
31
45
-23
-10
-7
-36
-21
-15
-38
-23
-38
0
-10
4
-12
3
-11
-78
-45
-16
1
10
-6
-3
13
53
65
-3
-4
-28
-17
-20
1
-10
-3
5
8
31
6
9
9
28
-3
-3
-12
13
15
0
-12
-1
-25
-3
0
75
3
16
17
-38
-31
42
4
-54
-26
-9
-12
57
31
5
18
8
30
-1
0
19
-8
-6
-13
0
-9
0
5
4
23
20
-18
-41
-8
-7
4
3
-37
-22
-11
27
-1
10
2
-37
-24
-9
-8
-15
1
6
-5
25
83
16
23
-42
0
7
10
7
16
2
7
-5
-17
-10
1
-1
21
11
8
29
-1
-7
-24
-5
-26
9
-6
-48
4
6
26
-31
-58
-45
-24
-29
-6
2
-19
3
80
3
-1
-2
-11
-30
-19
17
-6
9
3
-31
0
-7
-10
20
-18
-13
-6
41
-4
4
32
47
-42
-38
-4
26
-12
5
14
-37
22
14
-10
-17
10
5
-15
4
-17
4
12
14
15
17
20
-14
28
-28
-9
-78
-33
-16
-35
24
-18
29
22
24
3
-15
-8
-61
32
53
25
70
27
8
7
23
0
-57
3
-9
14
16
20
3
-20
-19
-17
47
13
4
-14
-19
16
2
1
-13
-16
-7
-4
15
-46
34
-3
-64
-11
-8
-17
-34
-38
-33
-5
51
3
13
25
-4
33
10
-10
-9
-14
-8
15
25
-2
6
23
-3
9
-8
-20
5
-13
-20
-2
0
-11
-3
-10
-15
-32
-22
-6
-55
11
8
3
-2
1
9
-3
49
15
12
6
-18
2
36
-7
-25
-16
-18
7
13
-25
-34
21
70
18
-2
-22
-22
12
9
-1
-62
0
-9
-16
-18
-16
-7
5
1
4
5
2
-2
29
-21
-5
0
-1
0
23
14
16
19
-12
-61
-17
6
-3
-2
9
38
20
102
14
-6
12
-6
5
10
0
-5
-5
-2
8
16
-19
-14
-7
-38
-3
5
3
-14
-22
-44
0
-42
-13
-17
-32
-7
81
-1
-17
48
-5
5
28
43
-3
56
9
-33
-13
-8
-10
-25
6
-6
-13
4
22
7
38
38
-10
-22
6
41
-6
-4
-39
-40
-11
-1
4
-38
-16
-8
-10
-10
-7
2
1
22
11
9
-28
-15
-11
-30
-13
62
1
-9
-34
-28
19
14
10
45
25
23
48
38
5
-10
-30
-55
-17
-7
-14
-7
-7
6
15
-25
-21
-15
-6
6
18
-23
-3
-12
0
2
11
19
30
11
-11
-43
-4
5
6
9
-57
-34
3
118
36
24
1
-40
-14
-21
-7
-40
6
-17
-30
-31
44
10
2
-7
-14
-8
-11
0
40
-14
-3
-32
-17
-7
24
40
-40
12
-6
-63
-27
-13
-18
-29
21
2
-13
-5
-2
11
40
70
-79
-3
6
17
-28
-27
-68
-88
3
-5
-11
37
26
27
56
3
42
-3
15
-10
9
-14
-8
37
1
-13
6
3
11
6
13
22
-7
9
-1
-51
-14
-1
-1
-46
-58
12
-14
-62
-13
10
10
-2
84
57
-9
55
1
-21
-12
26
11
-40
1
-33
27
15
-7
-13
2
-36
-4
2
20
19
33
50
-12
14
12
-63
-24
1
-14
-44
-46
-21
-10
1
-10
-20
-30
13
-13
-19
-6
20
-5
-21
-21
-30
-1
31
0
48
2
2
-7
-8
-15
-17
-10
-48
-20
-12
-4
-7
-12
27
0
60
15
17
-2
-26
-18
-21
6
-18
-7
14
52
11
102
77
30
-24
12
-20
-10
43
5
3
10
58
14
-6
7
19
-18
-14
-3
-53
-26
-7
-16
-27
-69
-6
-11
61
4
0
-19
-23
-8
-21
-22
-34
-8
27
40
29
52
29
17
61
40
11
-9
20
11
-9
0
-6
-18
-2
13
34
-18
42
12
-84
-16
8
-3
-25
-78
-66
-43
34
37
-5
-27
-35
70
49
25
-10
6
-17
-34
-5
-25
-11
11
-27
0
5
-1
-10
24
-44
-23
7
-21
-11
-28
-20
-54
-9
-7
-34
-26
3
22
4
-51
1
-10
4
-19
-13
12
16
48
18
8
37
24
-6
-12
22
55
34
12
-4
2
-3
3
-17
10
-3
18
-34
-20
-5
-14
-11
-31
-38
-36
-4
-8
6
10
-24
-30
20
17
-26
-10
-16
-10
34
1
-23
-11
8
18
-26
12
18
11
15
12
-63
14
13
-21
38
-10
-20
3
49
-11
47
10
-20
-12
3
-31
-72
-15
-8
24
-39
-20
-6
16
96
10
29
10
-12
36
6
10
30
19
-13
-18
18
4
-13
-19
-18
-14
-38
-22
6
0
-2
3
5
-1
17
-2
-12
-23
3
0
-12
-12
-14
1
39
35
37
-3
-26
7
15
11
-38
-17
-30
4
44
13
-10
-23
2
4
-3
1
-49
-31
-11
-4
-25
-28
31
-17
-36
17
-50
-2
9
-31
-24
-9
76
-17
24
-4
4
4
-3
7
-28
-18
32
7
-5
37
32
11
-66
-2
-10
-3
-5
-7
-17
6
86
19
18
-6
4
22
52
-3
-77
-16
-11
18
55
-46
-13
-28
38
41
-7
-3
-9
17
22
-4
-34
3
1
6
-18
-14
-72
9
-30
-19
14
-19
-46
14
40
3
42
13
5
15
-4
-13
-7
15
12
-21
-31
15
-1
1
-17
-4
-15
20
2
-5
54
20
29
-9
18
7
20
-27
-43
19
-31
7
-7
-6
-38
-25
-12
1
17
0
-24
-21
2
9
0
-16
-32
7
97
42
23
15
3
-15
26
-2
-113
-70
19
15
8
-9
-29
-4
34
39
3
12
-3
30
3
-12
-34
-5
-25
-22
36
-16
-63
15
84
3
-6
31
-34
-5
-9
-10
-57
2
0
-5
-9
9
70
10
6
2
11
-4
25
-10
-42
-5
-14
-27
-5
0
-57
46
9
-17
-2
14
-24
-46
48
20
27
26
29
35
25
2
1
-50
-47
5
29
-46
-22
1
-25
1
7
-18
-84
14
5
-13
-2
-21
1
-14
-6
4
26
25
9
-49
-42
-8
70
-7
-31
-5
1
53
22
13
-27
-21
-19
14
30
5
-2
26
14
9
13
13
17
-32
15
-19
-50
-22
7
-25
-45
-22
5
-21
-70
-12
-2
10
-15
33
-52
-10
5
5
-16
-3
53
1
34
21
-2
-39
-30
-34
-29
-27
60
25
-98
-50
-24
-16
-79
83
-7
-16
26
96
41
16
54
-43
-12
10
-16
2
24
32
66
26
11
-14
40
18
11
12
-4
-14
-19
-3
-80
-85
-9
-14
0
-5
32
0
12
-19
17
41
-18
-16
-47
-11
10
69
-11
46
-23
14
18
29
42
69
1
22
58
6
34
-5
22
37
-13
-37
-16
-6
23
-6
-61
-66
-62
-39
-16
-47
-28
-18
77
-21
35
-21
-32
-7
-10
-7
66
5
52
-12
-7
11
-3
29
47
11
24
47
40
24
39
11
-19
-2
9
1
21
-12
-17
-5
-46
-15
-30
-36
-48
-8
-3
-14
-59
-31
2
-14
-2
-20
-41
-3
66
41
27
28
39
11
-15
8
10
4
-11
-28
-12
-6
31
5
-18
5
-11
22
-33
3
-23
-14
22
6
-16
-17
-1
7
10
-8
2
3
26
16
3
-1
4
1
-65
-50
-39
-15
13
7
1
-4
64
31
20
-4
-32
2
-10
0
-7
1
-18
14
10
5
-8
-10
-13
4
-50
-21
8
-7
-2
0
-2
-3
50
9
-2
6
15
-5
-13
-23
-7
-2
-7
0
2
-1
-12
7
50
7
-24
0
-20
-9
2
4
-22
1
13
-9
-9
6
24
4
-4
-11
-10
13
11
-3
-13
-9
-7
-17
0
-2
8
1
-7
1
-37
-3
10
-2
-14
-10
2
-8
12
1
-12
5
-4
0
2
3
-18
7
6
8
5
2
-18
-3
20
-1
12
-13
-3
6
-14
-8
-15
1
-3
8
-4
-13
2
-5
9
11
3
-4
-16
10
7
22
-1
-4
-6
7
3
0
-6
-13
-2
-16
-8
6
-2
-6
-8
-6
-5
6
8
-4
-1
9
3
-1
5
-14
-20
-7
3
22
15
-4
-18
14
-17
16
6
8
-7
-4
-17
-34
29
8
1
-7
-6
16
30
50
15
2
-6
1
1
8
-26
-2
-32
-4
-7
-46
2
2
15
-2
-1
-3
6
40
1
-16
-9
-2
-21
-15
-4
-25
-2
-16
-23
-21
9
-2
-3
-7
-11
-3
14
9
3
12
1
26
9
-5
15
7
4
-4
12
-42
-6
0
17
2
-2
-11
3
13
-8
0
2
-1
-6
6
15
70
6
0
15
1
-1
-11
-6
-90
-8
-1
-8
-5
-6
3
-15
16
-4
-1
4
5
5
-5
-3
-37
-8
-3
-10
-2
-5
-2
-7
14
2
-1
-7
0
7
10
12
36
5
2
-11
3
26
2
6
-19
6
2
-1
2
-41
0
-3
53
2
-7
-8
-4
-5
-6
1
-60
-10
2
-4
-17
0
0
-12
-39
2
-1
-7
-5
2
-4
-1
-39
-40
-12
-1
5
8
7
7
50
13
1
-3
1
-21
-5
4
9
27
5
-8
-16
8
-8
-4
12
-18
-2
20
10
8
0
-5
-22
-5
4
32
8
25
-2
10
60
5
-2
-3
-7
-5
4
6
11
5
1
-22
4
-2
4
-5
-1
19
0
16
7
-7
-16
-14
-16
-2
-3
-15
-5
-5
2
11
27
-7
-3
1
-2
11
2
-6
39
5
4
11
9
-2
0
1
-54
-16
-2
-17
-11
-9
-2
0
22
15
-2
5
6
7
5
-8
-14
-20
-9
-5
-13
6
1
-2
25
3
0
2
4
5
17
7
39
18
7
-1
-4
-5
-20
12
59
18
10
-6
3
-11
-5
-30
-128
-31
-10
-17
-27
-1
-3
-8
-8
-22
-1
27
7
-1
5
12
80
19
1
-38
-1
7
-7
-3
-58
-21
0
62
16
4
0
5
40
14
-1
8
1
0
-4
-12
-43
-14
-3
7
1
-2
0
6
15
27
4
0
-4
0
9
27
99
20
0
-36
-8
-3
-15
-19
-77
5
2
-3
-2
-5
4
10
75
-1
2
5
-5
7
-4
-4
-77
-3
-2
-5
-1
5
-2
-1
58
-48
-8
-15
-10
-3
13
20
38
39
9
19
13
15
-2
-10
-109
-8
-9
-10
-4
-7
-7
-12
127
35
-1
0
-4
-2
3
0
-128
15
1
-7
0
-2
-7
-17
-35
-57
-8
-21
-14
-4
1
-10
5
-18
-4
9
14
-3
9
10
30
14
6
50
18
6
9
-7
0
-4
-9
-7
3
1
-11
-3
3
-8
-9
-25
-6
-8
-6
0
-24
-9
0
-8
-10
-6
7
8
-12
-3
2
18
-2
-1
-4
-7
33
32
4
-1
4
-4
0
12
37
22
9
8
6
7
-7
-6
-29
-13
-5
-10
-11
-4
-2
-15
-50
-25
-2
-8
-1
1
0
2
-10
-11
-1
-7
-10
-1
-2
3
1
2
-4
-9
-3
-6
4
8
-6
0
2
0
6
1
-4
-4
25
-16
-4
-1
7
-9
-3
-9
-24
11
1
-3
-1
-1
-1
-2
-29
-23
-5
6
1
2
8
25
87
23
3
-6
-2
4
-1
7
18
10
-3
-15
0
-1
-2
-13
-6
1
0
-1
-7
-5
7
-1
11
5
5
20
13
0
-7
-22
-10
-10
-2
-5
-3
1
-1
3
-42
-6
-7
-32
-4
-4
4
0
13
5
0
23
-1
1
0
3
-1
11
4
3
0
2
-4
-3
-8
5
-2
-3
-6
-5
-2
0
-52
-37
-4
3
-9
1
0
-1
42
-1
-3
-21
-8
-4
-2
-5
11
20
1
7
3
-1
2
-1
-27
16
0
5
4
0
-2
-2
-20
-33
-1
-6
-10
-1
-5
-4
-11
-26
-7
-4
-3
-3
6
17
57
20
-3
-3
8
1
-3
-8
-23
8
3
3
6
3
-4
-7
-44
-7
-2
1
1
-5
-1
-8
-8
-10
-1
-1
1
-2
5
12
12
0
-3
-7
-2
-1
1
1
86
18
-3
-10
-7
1
-2
-1
-34
-4
-2
10
2
-1
2
-8
10
11
-1
-2
4
-1
-9
-6
-39
-10
-1
-1
11
-3
1
0
-36
-11
1
-10
-1
0
4
7
82
27
7
45
12
8
1
-2
-53
-7
-2
-2
4
0
1
1
37
0
0
3
1
-3
-4
1
-27
-2
-4
-6
-2
2
-6
-6
16
-20
-4
-12
-7
-3
1
13
-6
-9
3
2
5
1
-1
-16
-15
-5
1
-6
-13
1
-5
-7
-40
-4
-4
6
5
-2
-2
-8
22
15
-1
-8
-8
-2
-4
2
11
40
-1
-2
5
-1
1
11
-11
-43
-2
-7
-9
0
0
0
1
-2
-1
3
-2
2
0
-3
-4
-11
-2
-10
-7
-4
1
-8
13
-2
-3
-1
6
-3
-6
-9
-26
11
3
1
-2
-1
7
21
108
28
3
12
5
2
-6
-15
-99
-33
-8
-10
4
2
1
6
32
-11
-1
13
-10
3
-3
-8
7
7
-2
-2
-1
1
-4
-10
-6
-4
0
1
-1
-1
1
13
14
4
1
-15
0
-1
2
-3
-22
2
-2
-15
-13
-5
-3
-7
31
-2
-3
2
3
0
2
1
3
2
0
1
-1
1
1
-3
-9
4
0
1
0
-2
-6
-12
-75
-26
-3
-6
-2
-2
-2
7
44
41
1
-6
-11
-2
0
0
-5
-46
-3
-1
9
0
-2
0
16
5
0
4
-2
1
-4
-6
-30
-12
-3
-8
-2
-2
0
6
-15
5
1
-4
-2
-1
-3
-9
-48
-1
-3
-5
-3
-2
1
-1
39
8
1
2
-1
-2
-1
15
48
13
3
7
4
2
-1
-8
-32
-21
-5
-2
-1
2
0
-3
1
1
0
5
-7
-1
-3
11
-2
-2
-2
-12
-12
-4
-1
-4
31
-1
3
23
12
-2
3
-1
-29
-8
0
7
5
-4
-1
2
31
13
3
1
3
-2
-1
5
65
17
2
-5
4
-3
-5
-12
-87
-17
-5
-12
-13
-2
0
1
7
-8
-3
-10
5
-1
1
-3
-11
-3
-1
10
2
-1
2
1
23
1
-1
5
5
-1
-2
8
-19
9
2
-2
1
1
-1
-12
-7
-7
2
11
1
0
1
12
-40
-6
-3
-15
-4
-2
-2
-8
5
-3
-2
-2
-7
0