-1
3
9
0
-2
-2
0
0
-1
-2
7
4
0
-2
0
0
-4
-4
-36
-7
0
-2
-2
0
0
6
13
-1
-2
-2
0
-3
1
-9
-37
-3
-2
1
-1
0
2
5
28
1
2
0
0
0
-3
-7
-14
0
0
-2
-1
-1
0
0
17
1
1
-2
0
-1
-2
2
-14
-4
0
-1
-1
0
0
1
34
4
0
0
-1
-2
0
-2
17
-1
-3
-2
0
0
-3
-4
-50
-16
-3
-2
-1
1
-1
-2
5
7
-1
-2
-1
-2
1
2
7
4
-1
1
2
0
-2
-4
-1
-3
-4
-1
-3
-2
0
0
22
2
-1
-1
-2
-2
-1
3
2
0
1
0
-1
0
-2
-3
-29
-5
-3
-1
-1
-1
-2
-3
-2
2
-2
-1
-1
0
-2
-3
3
0
0
0
0
1
-1
3
13
10
-2
0
-1
-2
-4
-6
-65
-23
-4
0
-4
0
0
-3
-14
-5
1
0
-1
0
-2
-5
9
0
-2
0
-3
-3
-1
-2
11
2
0
-1
1
-3
0
-1
10
6
-2
-1
0
-2
0
4
23
3
0
0
0
-1
2
8
-4
1
1
-2
1
-1
-3
-14
-93
-13
0
0
-1
0
-1
2
62
10
-1
-3
-2
1
-1
-4
-4
-5
-3
0
-2
0
2
4
58
13
0
0
1
-2
-2
1
-12
-5
-1
0
0
0
0
5
3
1
-1
-1
0
-1
2
-1
5
1
-2
1
0
0
-4
-5
-23
-8
-3
-3
-1
-1
0
4
36
5
0
0
-2
0
1
-3
-6
-2
1
-1
-1
-1
-2
5
7
2
-2
1
1
-2
1
-2
-8
-3
0
-1
0
0
-2
0
-1
-5
-3
-2
0
-2
-2
0
-2
5
4
0
-2
-1
1
-2
-27
-5
1
1
1
2
-2
0
29
-3
-1
-2
0
0
1
6
48
10
1
0
-1
-1
-3
-9
-82
-13
-5
-2
-1
1
0
-2
-1
-5
-4
-4
-1
-3
-3
-4
-17
1
-2
-1
-1
1
-2
0
23
0
-4
-1
0
0
2
4
17
7
3
0
2
-4
-2
0
-6
-9
-3
-2
-3
-1
-2
-3
-4
7
-4
-2
-1
-1
1
1
4
10
5
1
0
-1
-1
-1
45
-3
-3
-1
-3
-1
1
1
-38
-5
0
-2
-1
-1
1
0
27
0
1
2
0
-2
-3
-4
-40
-11
-1
-1
-2
-1
0
0
1
-2
0
1
0
0
-1
-2
14
1
-3
-3
-1
-2
-1
-2
-19
-6
0
-2
-1
-2
1
0
-11
-5
-3
-2
0
-1
-2
-1
16
1
-2
-1
-1
-1
0
-1
15
-13
-4
-1
-1
-2
-3
-6
-35
-5
-5
-4
-2
-2
-2
-6
-5
6
1
-1
-1
0
-2
0
-2
1
0
0
1
1
-2
2
9
9
-2
-1
-1
0
0
-1
13
0
2
-1
-2
1
1
1
22
-23
-8
-4
-2
-1
0
-2
-4
14
2
-1
-1
-2
-1
0
-19
3
3
2
-1
-1
-1
0
5
8
1
1
-1
-2
0
1
-13
-13
-2
-1
-1
1
0
0
11
-15
-13
-3
-1
-2
-1
-1
0
37
20
5
2
-1
-2
1
-10
-4
-3
-2
1
0
-3
-3
-3
4
-1
-1
-1
1
0
-1
-8
-33
-8
-2
0
-1
-1
-2
14
2
-6
-3
-1
0
0
3
-9
25
0
-1
-1
-2
0
0
-6
0
9
3
1
1
0
2
15
12
3
0
-1
0
-1
-3
-25
-23
-7
-3
-3
-1
0
1
43
-7
-3
-1
-2
-1
0
-2
-44
-8
-4
-1
-1
-2
-2
-2
-32
25
15
4
1
1
1
6
10
4
-1
-2
0
0
2
-5
-15
-10
-1
-2
0
0
1
2
25
1
-4
-2
0
-3
0
-2
5
-16
-4
-3
-1
-2
0
-1
8
8
-2
0
1
0
-1
0
-27
-19
-3
-3
-2
0
0
1
6
16
1
1
1
-2
-4
-2
-13
1
1
0
-1
1
-2
-2
7
-12
-5
-2
-2
-2
0
0
1
-5
3
1
-1
-2
-1
1
4
4
3
-1
1
0
2
5
33
-1
-3
0
2
0
-1
-3
-10
10
1
-2
-3
-1
0
4
51
0
2
1
1
0
3
4
-71
-3
5
4
2
0
-2
-15
40
27
2
3
3
0
-10
-1
33
-50
-16
-14
-13
-3
-1
-7
33
-2
-2
-2
-4
-2
7
7
58
1
-1
2
2
3
9
19
66
34
11
9
9
2
12
20
14
11
4
0
1
43
-22
-5
-43
-8
-14
-11
-16
-55
10
13
94
40
8
-3
6
-30
10
-19
-49
-51
-8
-1
-82
43
5
5
70
-14
-6
-28
91
-6
-18
-36
-112
43
3
-11
-12
-8
-2
28
-35
27
3
56
39
47
33
-14
4
-34
-2
1
26
-9
-26
-41
28
-8
-6
13
-35
-35
12
14
92
0
0
-22
-1
-1
-34
-52
-36
-35
-12
-21
-14
-36
-23
31
83
22
1
5
-8
2
-14
-74
-118
-54
-8
1
-24
-7
25
56
127
84
23
22
33
-10
-18
-27
-97
-103
-23
-25
-37
14
5
56
102
96
5
-9
7
38
11
18
38
52
18
15
19
-18
-46
-40
-122
-15
-10
-6
-27
30
19
18
52
-72
-3
-9
4
-21
-7
5
65
19
8
4
17
-47
6
15
-87
-39
-15
6
-30
18
24
37
103
102
11
5
26
14
-11
-31
33
60
3
-37
-12
17
12
-36
-124
-85
-12
68
49
-19
-16
76
112
37
3
-1
-15
-13
18
-17
53
-21
11
33
18
6
0
11
-86
-44
-11
-21
-8
29
-17
-3
89
-12
-13
-38
-29
-14
1
-17
-6
27
8
9
3
6
21
49
86
31
19
14
13
9
-11
-33
15
20
-14
-12
-12
-27
4
20
-4
24
0
-32
-6
4
22
0
60
38
17
29
5
21
-56
-15
-98
-113
-30
-26
-16
-16
13
25
77
55
11
2
-26
-6
4
37
31
36
11
18
8
-15
-29
-81
-78
-101
-39
-41
2
28
53
35
-66
-4
15
21
6
0
-27
11
118
57
-5
0
3
0
-21
-75
0
-31
-17
-19
-2
-27
-24
22
89
71
9
-38
-45
25
21
-45
-37
-49
-18
19
-5
-8
10
39
65
14
13
47
82
9
15
45
-87
-50
-1
-16
-20
8
21
-4
32
127
26
50
22
-23
-29
0
59
-78
-21
-25
3
54
27
-31
71
11
-5
-23
-23
-18
-26
-8
-113
-38
-7
-2
5
-8
3
1
78
-23
-7
-19
-21
-10
4
-13
-1
0
-4
-21
-46
-27
10
38
-37
2
11
16
2
3
6
7
70
38
8
2
6
37
-3
20
14
-36
-9
-12
-1
-28
-1
-70
97
40
-5
-13
21
8
-20
-36
-2
-84
-2
47
13
14
-13
-41
101
84
3
8
-11
-15
4
26
-78
-30
5
-5
33
7
-25
-4
12
54
12
-13
-27
8
15
-13
7
-12
-14
-31
-14
-30
23
0
-128
61
9
24
9
-14
6
36
13
-62
-11
-1
13
-14
-9
-36
-128
-79
-10
-13
-14
14
2
-8
17
25
0
12
43
23
-41
-13
48
44
1
-3
-27
22
31
48
43
22
-1
3
24
-62
-3
-2
59
29
-2
1
4
-15
9
16
88
-75
6
-18
-24
1
-23
-60
-47
-9
-10
-17
-4
-12
0
18
80
-14
2
0
-29
8
23
47
-22
61
8
8
12
6
23
79
8
101
12
1
20
-16
-56
-87
-101
-128
-44
-39
-60
11
15
13
49
45
12
20
9
9
-6
-31
-23
7
-3
18
-23
-10
-27
-36
-57
-63
2
-1
58
20
45
71
60
58
12
-7
28
9
-24
-27
-45
29
-1
1
-38
-37
25
43
88
12
9
0
14
-2
0
2
-126
-36
-3
30
2
14
-51
-74
-59
-80
-23
-43
-42
-17
10
-12
126
33
0
8
17
20
5
-60
-11
78
25
34
38
11
-10
14
-64
-45
-21
-25
-64
2
-8
-45
-14
0
1
-6
-19
-55
11
17
-42
9
1
-19
5
23
56
110
44
79
36
57
38
-1
-34
-31
110
-40
-45
-47
-28
-4
30
38
98
-17
14
-5
-30
19
-13
-43
-96
25
12
13
65
0
-9
-43
-75
-73
-18
-17
-23
-18
4
47
126
122
26
30
0
-38
27
-1
-53
-23
-5
15
12
21
-11
8
52
2
-4
-7
-21
-11
-5
72
124
24
-6
-22
25
53
2
9
49
-61
-9
-2
-22
-25
-20
8
-4
16
2
-9
-10
-15
31
-10
-10
52
14
27
39
37
-71
-49
42
45
-22
-41
-53
-44
-9
22
-35
-24
4
9
0
11
25
46
65
-46
10
-2
-15
-19
-10
-41
-119
-30
0
15
20
48
-10
43
-49
-35
-21
-9
-4
-7
4
-55
-46
3
-3
-36
0
6
12
28
25
47
5
29
-1
12
-12
5
-81
24
11
10
39
-9
-30
-78
-96
-20
-24
-21
-54
4
13
-21
10
109
17
12
20
12
9
-26
-33
-84
-2
-3
64
-6
-52
6
33
-2
-24
-36
-80
50
36
29
127
90
26
30
42
-25
-27
-30
-62
-104
-19
-3
-14
-36
7
-3
-43
8
3
5
-11
13
35
41
16
-72
-5
2
0
33
-9
55
1
-79
-14
-4
80
13
39
34
-29
78
24
11
-48
18
-18
26
13
-11
10
16
29
25
9
-50
-90
-111
-30
-42
-43
-88
-10
-23
-12
24
5
4
-30
-14
5
-59
82
6
-7
-11
26
-57
18
20
-31
10
-18
-31
-49
74
3
25
97
63
17
60
83
2
-1
-84
-122
-111
-8
-9
14
46
-41
-7
55
127
20
-1
-35
-1
-1
33
82
-42
-11
9
32
-28
18
-1
-3
21
8
-8
-14
10
-20
36
98
61
-10
-25
-31
-28
6
37
-92
-51
11
38
-1
18
-16
-24
-28
93
2
3
14
-13
0
-13
9
-108
-17
-23
-33
-14
18
42
96
96
22
5
-52
-12
31
-9
-97
-80
-17
-8
-57
65
-16
-29
127
57
2
34
112
26
-12
9
-128
-72
3
12
2
-54
27
68
37
-47
-3
-19
-29
-6
-20
-41
-21
-17
-6
-14
-37
-7
-10
-48
-2
50
0
-7
-37
-16
8
20
127
127
20
-6
-52
15
-45
-90
-91
-128
-55
-32
39
6
14
72
116
123
11
-6
-13
-15
27
-9
-7
-18
11
41
-52
-47
14
0
4
113
0
1
65
-13
-10
27
-1
-64
-6
1
-37
7
-13
-65
-72
25
17
-3
87
-61
-53
-17
22
-104
-33
-9
-57
88
5
-12
48
16
-10
-24
-8
-37
5
-88
-62
-11
23
10
-42
-34
0
20
28
27
6
21
-36
84
2
40
-45
-12
-13
-21
78
-61
0
-12
8
-37
3
24
-30
16
7
39
22
67
15
19
89
13
-27
-40
73
-26
-29
-43
-85
-24
10
-38
-72
-12
13
-18
-20
-13
-12
-22
68
29
2
9
-46
63
3
-12
-107
-76
2
30
65
-44
36
31
123
84
14
17
15
-15
31
57
-20
-30
-9
-1
34
21
-5
1
-71
24
2
-21
-61
19
-30
19
127
27
6
4
27
42
4
-54
-110
-107
-30
-4
-22
-44
13
15
28
2
4
-28
93
17
16
7
-94
31
27
52
-9
-37
8
-7
-65
46
8
10
-22
34
-56
-4
-93
-101
-35
-28
0
-2
-26
-39
-18
27
5
-27
-128
-70
-12
-1
-15
-70
-10
-4
38
31
30
58
22
40
20
29
40
6
-19
19
-15
68
12
-8
49
12
33
93
61
-36
-10
-15
-102
-23
1
10
32
-48
-6
-22
75
-4
23
116
90
71
4
39
-57
23
-32
-64
-27
-88
-21
-10
99
51
-13
-28
70
85
8
12
-21
-28
-6
-14
4
34
4
-13
-43
-25
30
3
-4
-17
-12
-25
-46
36
25
10
31
-54
0
9
-18
-90
-29
-35
-26
-5
5
0
3
8
-13
-20
-38
-31
-9
2
15
-2
0
-20
31
-8
21
9
48
30
14
-37
-7
-8
-11
-19
-69
-41
-8
22
13
12
0
23
80
15
68
89
127
106
32
12
36
-20
-92
-128
-106
-128
-63
-43
-126
-57
32
95
109
58
7
-10
87
119
18
65
105
73
16
37
43
3
-22
-29
-45
20
5
20
-9
5
23
-26
113
34
14
13
64
-5
-10
54
38
50
-5
-37
-64
2
28
-11
42
-45
2
2
-18
-14
-21
-55
-121
-91
-4
19
-11
29
9
3
84
-25
-26
-39
10
11
-14
0
34
34
12
11
-51
-10
15
21
-70
73
19
30
105
16
-10
39
127
-94
-40
-35
-50
-15
-48
-71
-128
-43
-6
-19
30
-48
22
4
71
1
13
14
-45
26
-16
13
24
52
0
4
6
28
2
10
-38
21
7
-1
9
-11
6
34
109
45
-18
-10
-3
-17
9
54
-13
25
13
12
40
-3
-8
-88
-120
54
3
-9
-83
29
-7
-35
114
-14
-22
-25
15
77
17
-11
-39
41
18
7
-68
-88
30
-21
19
29
25
58
72
-12
-6
-9
126
27
-11
-29
-23
5
-27
-66
-58
-12
-14
-17
-10
-49
31
62
4
-11
7
16
-12
15
-45
-4
-53
-8
6
12
25
-26
-3
-34
-42
-90
-16
-3
-8
14
13
-31
26
88
19
1
-12
-23
-11
70
20
-98
-14
-35
-128
4
-21
-96
-120
-11
-9
4
46
-17
14
101
54
-25
6
5
25
-8
-31
-35
-101
-37
-20
-17
-48
3
21
15
8
45
10
10
84
20
-10
23
51
94
15
10
-14
-13
-4
-47
-73
-97
-26
-15
-8
43
11
79
55
-28
-3
-7
-62
10
-56
-75
-90
18
-9
-10
-21
-36
-4
9
23
-49
-16
-12
1
-19
-2
-28
11
62
18
19
58
-16
39
64
41
-83
6
22
20
37
-34
-33
-38
17
-12
-25
-62
-54
-6
-12
-2
-17
-2
-8
-84
25
5
4
73
88
18
36
72
5
-37
-15
-66
-3
2
2
46
10
26
36
55
-55
-8
4
25
10
33
17
33
-47
-11
-36
-80
-15
-24
-35
-34
-12
-7
-4
-80
-43
-25
17
5
-22
-9
-2
-40
-15
-5
-36
-86
15
4
12
82
49
7
21
-121
18
11
7
32
-11
25
45
41
-108
-18
-16
-24
34
-32
6
34
74
-2
-8
-10
-46
10
71
3
-61
1
-12
-45
1
-9
-2
102
34
-14
-2
8
44
-4
-24
-31
9
-3
-13
-8
-36
21
29
71
87
8
8
26
6
-3
-98
-32
-12
1
15
36
62
6
7
-7
41
8
-16
-29
0
9
51
36
-2
1
5
-17
28
14
-4
-1
4
-11
22
53
-19
-14
-53
-3
9
5
14
8
4
9
-1
-78
-43
3
9
-5
5
-22
-39
-10
-8
-7
-22
44
-37
-2
-15
25
-28
-10
-26
-41
48
35
-16
-64
21
1
-1
-5
-51
32
107
127
6
1
-4
-18
-13
-14
-80
-60
-61
-6
1
-19
-17
-19
-10
83
-13
-14
-20
-45
-34
9
19
106
37
8
9
29
51
-16
-42
-50
-12
-3
-1
24
12
24
7
-17
71
6
3
-14
1
-21
-14
-107
-88
-4
-5
-5
-14
20
31
89
42
12
-3
-26
-1
3
-54
-63
-20
-13
-2
7
0
-7
50
-3
5
3
0
4
2
-16
-25
29
40
-3
-9
-9
-23
4
21
38
27
3
-17
-39
4
-2
-29
-24
-19
4
39
64
29
1
26
43
18
-6
-1
5
-5
15
6
5
-55
-4
-3
-4
-4
7
12
-77
-17
8
5
9
0
-7
-10
64
5
-1
1
3
-8
1
31
78
47
4
-8
-25
-5
12
-17
-25
28
0
5
16
4
10
17
81
-1
-2
6
-1
6
-5
-10
-12
-38
9
-1
-2
8
-13
17
75
36
9
-2
-9
-11
5
-11
7
4
-1
-4
-5
0
-3
6
-12
4
-8
-2
7
0
0
-4
-17
-4
-6
-2
-2
0
10
-2
-31
-19
-4
-6
-3
0
-4
22
30
25
6
1
3
-2
-7
6
-7
-4
-5
-4
-3
-3
9
-25
59
39
5
7
-1
-2
-9
17
-40
-42
-9
-5
0
6
-2
-13
-32
-3
2
-1
3
4
3
18
28
8
1
3
1
-6
3
17
-64
-8
2
1
4
4
-6
-15
-74
-6
-5
-3
-11
-5
5
5
14
17
3
0
-1
-1
-6
0
-2
-6
-2
1
0
-2
1
9
-11
-9
-5
-2
4
-5
-2
-13
-19
-16
-2
-4
-8
-2
-2
10
20
25
6
1
5
0
-7
-15
-17
18
-9
-4
4
0
-4
11
49
-11
2
1
-5
1
0
0
-22
-10
6
-2
-1
-2
-3
-5
21
-8
-2
6
4
2
-1
-3
15
-1
-4
0
-3
-1
-1
2
4
23
6
-2
4
3
-1
7
27
13
-4
-5
-7
-6
5
4
9
5
-1
-11
-10
-7
-7
-13
-36
-14
-4
6
-4
-4
-4
7
7
-13
-6
-3
4
1
3
1
51
0
5
7
1
3
2
12
-20
7
0
-2
1
0
-7
-15
-32
-12
-2
-5
3
-7
2
3
10
-3
-2
3
-1
-2
5
-3
18
3
1
2
1
0
-5
0
8
0
-1
2
2
0
-3
2
23
1
6
-3
3
6
12
4
-11
10
-4
-4
-11
-9
-2
-3
-40
-12
-4
1
1
-4
9
1
1
-8
0
11
17
4
-1
3
7
5
2
4
-7
-3
-5
-3
-2
7
-2
-5
6
5
-3
-4
10
11
0
-8
-9
1
-1
-3
-21
-18
-6
-17
-20
-6
1
5
11
6
3
11
-19
4
-7
-7
6
-5
-2
6
14
-2
-2
-5
-4
2
1
3
6
-2
-5
-10
24
0
0
-6
-2
-2
-3
1
-23
-10
-2
-8
-20
-5
0
-4
19
8
-3
-16
9
5
-1
0
-5
-1
5
30
16
0
5
6
70
9
1
5
-56
2
10
13
-24
-3
4
11
85
8
-26
-16
-56
-4
-3
-41
-37
-3
0
-19
36
-23
-11
-13
-53
-7
9
1
16
3
7
64
87
-5
8
1
14
0
2
-4
-29
0
2
16
35
14
3
27
63
14
3
5
-57
-15
-5
-40
-47
-4
-8
-7
-12
-6
-8
-26
-12
-3
-12
5
25
14
0
10
-29
3
-2
-5
17
-1
0
4
11
-9
-10
-6
-14
-4
3
1
-7
2
4
2
-58
-11
-6
-14
-3
-2
-3
-8
12
-3
0
-14
-1
-2
5
10
8
-4
0
0
-22
-2
-1
2
7
-11
1
9
22
-2
4
6
1
16
4
-5
3
9
-3
-7
25
20
-1
-2
4
-6
-2
-7
-30
-15
-5
0
-14
-2
2
3
33
-2
1
-7
21
1
-7
-5
-4
-8
3
14
2
0
-1
-12
-40
-6
-4
0
-4
-4
6
15
74
14
2
5
-2
-2
-1
-3
-30
11
-2
-6
3
5
-4
-2
10
-6
-4
-11
-12
-3
-2
-3
-1
-19
-4
-4
2
-4
7
-1
-17
-1
-2
5
-5
-1
6
14
54
20
0
-5
-1
1
-7
-10
-67
-9
-3
-5
-7
-1
-2
-2
-14
-4
4
9
17
0
-3
-6
-18
-4
0
-14
-10
-1
0
-1
-3
-4
1
26
16
1
3
4
43
10
-1
-4
1
0
-5
-3
6
4
-4
-12
-20
-3
4
13
33
5
0
-9
-18
-3
-5
-11
-12
-9
-4
1
1
-1
4
-6
-99
-13
1
-5
0
1
-4
-2
18
0
-1
-7
0
1
-1
1
37
6
-1
0
-6
-2
-1
0
-29
1
0
-3
8
1
-2
-4
8
-8
-1
5
-10
-2
2
0
11
-1
0
-1
0
-2
-2
-6
-17
-3
0
7
3
-1
-1
3
-26
-8
0
-1
6
1
-1
3
16
8
-1
-5
0
1
1
2
7
5
-2
3
2
1
-5
-9
-6
-5
-3
2
-2
-1
-1
-1
-8
-2
-1
-2
-2
-5
2
3
47
-2
2
-1
2
-1
-1
-1
-34
14
-2
1
-1
1
-3
-5
-8
-12
-5
-2
-2
-2
0
3
5
2
0
-1
-2
0
-4
-5
10
-2
1
0
1
1
3
2
-3
-6
-1
-3
4
-4
1
2
23
10
-3
-2
-2
0
-3
-2
8
0
2
3
0
1
0
-1
-7
8
-4
-3
1
-2
-1
-3
-9
-17
6
0
-2
-1
-1
-3
1
-5
-3
1
-2
-1
-1
2
-9
-2
-3
-3
-2
-1
-3
0
9
4
-1
-2
-1
-1
1
-3
-11
-4
-1
-2
-2
-2
-1
-1
-11
-7
-2
0
0
-1
1
2
8
-7
-5
-1
2
-3
-1
-1
10
16
4
1
-1
0
-1
1
-12
-17
-5
-1
-1
-1
-1
-6
11
6
-4
-3
0
1
-3
-4
-29
8
-1
-2
-1
0
-1
-4
0
-2
-2
-1
-1
-1
-3
2
24
-7
0
-2
-1
0
0
-3
-7
5
3
3
3
0
2
1
9
-11
-3
-1
1
-1
-1
-8
1
-10
-6
-5
-4
1
2
3
25
15
1
1
0
0
0
2
41
-11
0
0
-2
-1
-2
-9
-77
11
2
1
1
2
-2
0
-35
-31
-1
-1
-1
1
0
-1
16
-4
-6
-2
-2
0
1
-1
-32
-3
-2
-1
-1
0
-1
4
96
-16
-10
-1
-3
-2
0
2
3
39
26
8
3
1
0
2
41
31
-4
-5
-1
-1
-1
6
-12
-5
-1
-1
0
-2
-3
-10
45
2
0
1
1
-2
1
4
-29
-13
-7
-2
0
-2
3
-4
98
11
-1
2
3
-2
0
-3
-78
7
8
4
4
2
-6
1
-37
5
-8
-6
-11
-2
-3
-2
45
-35
-12
-7
-4
-1
2
5
11
12
5
1
2
1
4
-4
-8
-30
3
6
6
2
12
14
64
91
21
10
8
5
-11
5
-41
-30
-17
-15
-17
4
-11
-18
-6
-33
-7
-7
-2
-17
-9
9
45
19
2
1
0
-8
0
3
15
-53
1
7
6
-1
-6
-33
-93
46
6
5
6
3
-7
-11
17
-24
-12
-24
-19
-8
8
-10
38
-10
-8
7
0
6
1
37
-43
-1
6
3
10
3
19
15
4
18
11
11
11
-2
-12
9
1
21
5
-9
4
70
10
16
-88
-21
-17
-9
-22
-45
7
-20
-13
-27
-6
5
1
0
3
-31
73
-14
1
5
13
-6
-6
5
-41
-19
-1
6
3
-1
8
26
85
55
16
-4
1
17
-23
-17
-30
-32
-12
-9
-10
-9
-30
-47
6
-74
-25
-20
-15
-11
23
6
-82
-10
-1
3
3
-8
-5
6
127
17
-1
-5
-2
26
26
16
-76
101
24
13
1
-44
-10
-36
-99
-14
1
-12
7
-36
-40
0
-39
-64
-19
-19
-101
37
-9
-2
61
81
13
35
81
6
1
-5
-1
-33
4
-1
56
58
-22
-54
63
25
-7
16
-4
-36
17
49
-50
0
17
26
32
-40
34
2
-88
-54
2
0
-15
21
-22
-10
120
-44
-29
-35
-35
34
-2
69
58
4
13
4
11
6
-5
-37
127
42
-9
-12
-17
-10
8
44
-75
42
19
6
-18
-34
-35
-83
-69
-63
-17
-8
0
35
23
25
85
78
-5
-11
-9
12
52
71
44
119
45
35
25
-28
-85
-108
-39
-71
-49
-49
-54
77
22
35
122
1
-3
1
22
-56
55
80
109
79
36
32
29
47
-83
-115
-85
-128
-61
-30
-6
-38
-7
63
127
121
13
0
-5
-24
62
99
78
-57
24
21
-9
-17
-85
-61
-57
-119
-59
-43
-39
-20
36
30
97
87
28
-1
27
33
17
-53
-128
-85
9
2
-42
-10
-17
-48
8
48
-17
27
-48
9
45
54
-7
54
12
16
94
30
-17
-39
-22
-63
-6
6
-1
-18
-1
55
40
3
-2
-20
24
27
61
62
-39
13
22
3
-4
-72
-4
-1
112
36
-1
-5
-98
6
-10
-102
-55
-34
-13
-9
58
7
46
68
16
33
10
6
-9
-10
-66
-85
-9
75
11
11
12
-33
-7
88
24
51
-3
-10
-2
-7
-9
-11
106
-51
-28
-24
-36
-10
10
-22
57
6
20
26
29
-5
8
45
72
115
22
7
6
57
-6
-61
5
-115
-30
-33
-70
-35
18
44
60
83
28
37
77
18
6
-10
-76
46
14
20
38
-18
-32
-60
99
-109
-47
-49
-31
6
9
33
-36
13
10
21
31
23
24
-6
-24
42
15
10
-23
6
-28
-92
-11
-55
-12
1
-2
-19
-2
72
-27
12
-13
-26
-24
9
7
-3
6
-8
9
-3
9
0
1
-4
23
48
13
29
10
-29
4
21
9
-77
-29
-16
-9
-14
-26
-67
23
56
-5
-1
-6
10
14
-44
35
12
5
1
0
10
-1
49
29
-22
6
2
7
-10
8
18
111
-3
-4
-11
-27
35
-47
-91
-14
-32
-8
-4
13
-31
1
-1
-108
-51
-6
0
35
27
8
49
-64
-3
5
-5
-18
0
-20
-17
-59
86
16
11
8
-10
4
-50
28
-29
-31
-27
-10
-18
4
77
127
63
20
9
3
2
-1
-43
-128
-40
-5
1
-4
11
-22
2
127
81
2
-8
-8
-32
-9
-16
-10
-70
1
-4
-8
39
20
2
-67
-28
-5
20
-55
-3
26
108
127
48
10
3
37
7
-21
-25
-95
-33
-28
-33
-19
46
25
32
37
20
16
23
53
36
-27
-86
-52
88
-1
-13
-24
-31
-15
4
-90
-99
-17
-16
-48
-20
62
103
96
108
25
24
18
30
-17
19
70
-11
-32
-35
-13
-15
-20
-28
-29
-12
6
-7
-6
-16
18
58
123
84
17
5
1
0
-18
-25
-101
-120
-18
6
-1
-16
-7
-67
-66
-29
-10
-5
0
24
14
40
34
14
-3
6
19
-5
2
7
37
13
0
-4
-2
14
-26
-64
-14
13
-5
-7
-11
-48
22
101
60
-68
12
22
-2
28
-10
-55
-108
-56
-19
-21
-9
-21
-22
-44
-41
-18
-10
-11
-45
8
-5
-88
2
45
10
6
49
-6
8
46
-50
-10
26
30
28
-15
-26
20
-37
-25
-20
-17
-14
5
-8
-19
25
41
3
-4
-3
20
17
66
19
20
10
11
16
-3
25
25
28
-40
6
-3
-40
-29
15
-25
94
-6
-9
-13
15
55
6
-8
64
64
5
8
46
-16
16
22
-69
-39
1
11
6
46
-59
3
97
58
-11
-9
6
-23
-3
38
109
30
9
11
-24
-33
-3
-13
-62
-74
-18
-12
-29
-3
18
115
127
24
14
0
24
21
1
5
-8
55
10
4
-3
-1
-1
-78
73
-39
-16
-14
6
4
-14
-7
56
51
4
-7
2
-12
0
12
20
-18
13
18
-13
6
8
-6
45
33
-24
-20
-8
-61
-3
20
127
45
5
7
-1
21
19
-6
-17
28
11
13
58
-3
-26
15
18
-50
-14
-25
-63
5
24
5
-60
-48
-14
-2
-14
-7
7
41
80
72
13
10
17
-15
28
48
80
54
4
5
-4
31
-76
-115
-48
-108
-32
-21
-5
-42
10
43
93
117
12
-21
-30
25
-14
-15
-128
-51
4
29
9
-26
-16
-9
127
13
-10
-13
-19
2
22
22
36
57
6
2
11
-48
27
101
66
98
40
30
-3
46
-26
-37
-42
-109
-24
-22
11
-47
10
10
77
-4
-11
0
12
-39
0
-31
-35
28
-3
-3
-1
0
30
21
-59
-92
22
15
10
1
-49
-40
-82
-7
-30
-32
-41
56
-4
-8
32
-29
-6
0
11
-13
-7
-68
113
64
-7
-4
20
-39
13
27
-104
-26
8
5
-10
10
48
112
91
-42
15
23
0
21
-21
-35
-116
19
-2
-9
9
25
-3
-18
31
-42
-15
-15
-34
7
5
-5
70
91
20
21
29
0
30
23
-69
3
9
8
37
4
-15
-57
-61
-119
-30
-25
-100
-61
13
78
39
-8
4
5
29
6
-9
-61
27
40
-7
-10
11
-20
3
-38
-11
-9
9
22
-17
13
7
27
102
114
15
9
57
6
-15
-41
-114
-93
-15
-8
-14
16
-15
-49
55
-9
-26
-22
3
2
-29
-37
-28
52
10
-11
-46
-52
6
65
69
107
38
34
55
25
-48
-85
31
-118
-52
-38
-88
-27
8
-22
27
28
-8
-6
43
11
31
74
127
79
21
10
25
0
-7
56
-114
-38
-3
-4
-96
-17
39
24
2
48
26
33
108
44
-39
-3
91
-104
-31
-27
-29
-28
-11
-38
33
13
-2
-3
1
-6
20
31
7
-47
21
22
36
22
27
47
-25
14
-11
-23
-85
-16
-29
-84
-86
27
-12
8
24
-24
26
52
33
24
10
2
49
19
7
-4
61
78
-4
1
-2
21
13
-6
-43
-48
12
11
15
-18
-15
45
82
55
1
-10
-32
-27
-21
-66
-71
-35
-19
-34
-45
27
-13
-55
-94
-29
-5
5
-12
19
1
0
5
24
5
10
60
21
37
36
-59
-45
16
24
28
20
-41
23
40
71
-1
-5
1
6
-13
10
-85
-72
-29
-34
-28
-23
-17
-5
45
27
6
1
-42
-21
38
36
-109
56
27
24
50
18
5
69
67
-20
-3
1
8
9
-2
-40
-32
-63
-8
-2
12
36
-17
38
-43
-41
-17
-17
-8
-22
49
34
0
85
20
-1
-12
32
-33
1
-54
20
12
24
-32
-19
16
-22
110
-91
-23
-10
30
3
-14
-29
-57
57
3
5
-20
8
-12
16
61
-33
-12
-13
-27
-7
31
0
-5
67
15
6
23
-4
-19
-18
-33
-33
-4
2
-27
-21
-5
34
3
9
-3
4
37
11
-25
-26
-109
-31
-3
-5
9
-17
35
37
32
-32
-12
-15
-24
39
51
88
67
116
33
33
-7
-15
-41
-38
64
-6
-18
-25
29
8
-42
-10
105
-29
-16
-8
-20
-20
18
-26
39
-11
7
8
38
12
17
66
102
54
7
-3
4
-48
26
2
-33
-34
14
15
-6
7
21
-33
70
6
-17
-12
-20
28
-5
17
52
65
14
12
-22
-34
-21
-12
-6
-30
-8
-8
11
-33
3
-20
-66
-28
2
3
-10
-30
-5
-65
-80
39
6
14
36
7
-15
45
-12
-80
-8
-18
-25
3
35
36
-58
-29
-13
-9
-48
-18
-26
-33
79
19
4
11
53
40
-34
-66
-87
-88
-8
-5
21
-15
19
15
90
95
4
2
5
-21
-40
-91
1
-70
-12
-7
13
35
35
74
61
38
8
-6
-46
-12
-2
-26
4
-66
-7
-6
-49
17
4
11
61
70
4
20
5
19
-12
-70
-68
-70
-5
5
69
41
19
-37
54
57
-3
-13
-25
-26
2
49
29
7
7
5
-23
-15
35
-11
23
-12
-6
-8
40
-17
-39
-80
-30
57
-4
-9
-63
18
16
39
-28
-91
-8
5
58
12
-14
-9
30
44
0
0
-18
-14
5
-12
-8
21
-3
-5
12
49
-8
-67
-55
-48
-13
-7
10
-19
11
30
75
55
1
-13
-54
0
-15
-19
-79
-50
-12
0
10
-27
15
20
-14
42
7
1
-15
22
-30
14
-19
37
2
-10
23
-14
-27
-26
23
-41
-9
-6
-35
-23
-2
-44
-60
-8
6
10
-15
13
21
17
-81
-55
11
10
-8
-29
3
23
-14
-63
-15
-5
94
27
3
17
127
74
-1
-10
-36
0
-3
27
15
34
5
3
-10
-17
-26
-41
-42
13
-4
2
8
-8
33
56
-16
30
33
15
-2
3
4
75
65
-40
-6
-4
-13
20
-41
-54
35
-22
-14
-18
-19
16
3
39
-43
-68
-11
-6
-47
-36
39
58
113
63
12
9
10
-11
-48
-7
-11
-14
-3
11
46
-43
8
10
-39
14
5
2
20
53
2
-17
-6
-29
-2
-9
29
-9
-16
-31
3
6
-9
-8
-94
7
15
9
50
39
12
6
37
28
36
8
40
-29
-4
2
-13
-18
-72
-50
47
9
-11
-6
20
-38
10
1
9
4
6
-4
-30
-3
10
40
51
90
16
23
9
7
30
87
-44
16
5
7
18
31
-35
-87
5
-109
-35
-30
-15
15
-16
-21
20
-20
-9
-6
-8
7
17
-82
-97
14
10
3
-4
-27
55
91
117
46
3
7
-6
35
-48
20
-93
24
11
8
52
-77
-25
1
-12
-82
-23
-18
-46
-21
-1
-55
-113
-33
-12
-12
-20
72
7
67
40
15
8
5
18
-30
11
-9
-47
-2
0
-3
-6
10
-5
-45
127
67
0
2
-19
38
-4
-4
44
-18
1
1
26
-16
-6
57
31
74
6
-1
24
-1
4
-46
-40
13
2
-3
-31
4
-35
4
1
-26
-11
-1
-3
-38
21
20
126
56
2
2
10
12
-36
-26
-32
-14
-8
-6
-36
-11
32
20
72
60
5
2
23
4
-1
78
-28
2
5
-3
-41
-19
-4
-11
-67
-9
-7
-6
12
9
-2
-52
-34
14
8
13
40
-10
14
38
-70
-95
-7
4
-21
21
15
-11
13
14
-5
-6
28
29
-1
33
7
1
2
-4
-24
-29
-14
-46
-67
-24
-3
-6
-23
-24
9
-33
38
-5
-5
6
13
15
4
33
-65
64
8
0
22
44
-8
-27
-35
-27
-3
2
-3
-10
1
-27
-33
-28
-8
-14
-18
-13
-3
-19
89
15
3
2
2
25
-5
-48
-44
-13
2
6
-11
-29
2
14
1
-5
-3
1
18
2
-5
-9
-26
-15
-1
-1
5
-3
9
18
-21
41
6
3
14
11
1
7
56
-6
1
0
9
0
5
-6
-43
1
-5
-8
-20
-3
1
1
57
-4
-6
1
-2
2
-6
-3
-3
-12
0
3
10
-6
1
-3
30
27
8
1
3
-2
7
7
-5
-22
-1
1
-15
-7
-2
12
28
-3
2
-3
12
2
8
2
14
-42
-20
-8
-19
-4
5
-4
-58
11
11
5
12
-3
-2
7
7
23
6
-1
-1
6
-3
-4
21
7
-3
-1
-3
-4
-5
-8
-60
-19
-3
0
-2
-4
3
3
3
-2
-4
-5
6
-3
-3
-1
-26
-6
-1
1
1
-3
4
5
74
13
3
1
-4
-1
2
-1
-77
-8
4
0
0
0
0
4
5
-5
-8
-4
11
-1
0
3
-1
-7
-1
1
-7
-3
-4
-5
-15
-45
-12
-5
-1
-3
0
5
69
15
0
-2
0
1
-1
-4
-15
31
7
3
5
2
0
-6
-57
-9
0
2
-1
0
-5
2
43
15
3
-4
-4
-1
-4
-6
3
-14
-1
0
-4
-3
0
2
7
-15
-2
0
7
4
-3
5
25
2
-2
0
-5
0
-3
2
-23
-5
-2
-1
1
0
-1
3
28
4
2
2
-7
-2
-3
-1
30
-10
-3
0
-2
-1
-2
1
25
9
0
1
-1
0
-5
-5
-13
1
-2
-2
-1
1
0
-1
26
5
3
2
3
-1
0
0
27
7
4
2
3
-1
-9
-8
-11
-7
-7
-5
-2
-3
5
-3
7
3
-1
-1
-5
0
0
3
-21
2
0
0
4
1
9
26
104
7
-2
0
8
-1
-4
-29
-94
-16
-1
-2
-5
15
-15
-12
-15
-12
-12
-15
-21
-11
3
-3
41
0
2
5
8
-7
-2
-2
-10
-4
-3
-3
-2
-6
5
9
15
4
3
1
3
-1
0
3
5
9
1
-1
-1
7
6
-4
-17
-13
-1
2
-1
3
-5
11
25
4
-2
-13
0
-20
-5
-8
-51
-3
-4
-14
-48
-14
6
-9
-44
-6
0
21
-3
6
-8
4
-3
0
-3
0
45
6
18
2
-5
-3
4
2
-7
27
8
10
8
6
1
-6
29
-45
-11
-2
58
6
-6
-14
-32
-9
22
1
13
-4
3
12
-9
-4
-28
-12
-47
-5
-3
14
7
17
-12
1
86
0
3
1
-5
6
-3
-13
-78
-5
-1
-10
0
-4
2
11
-13
-3
3
1
-1
2
21
-9
3
-1
-2
-9
0
1
9
17
18
6
0
8
2
16
-37
-2
-2
3
-1
-1
15
-18
-16
-21
50
-1
-3
-15
-12
-6
-9
-15
-56
1
-5
-10
-12
-8
10
-7
-32
-4
-1
11
4
2
19
13
-5
-14
3
8
20
19
8
38
96
36
5
-6
-12
-3
-12
-49
-89
-54
-10
-9
-14
-4
2
8
37
7
-1
-2
10
3
1
-3
-2
-3
-4
0
8
-2
-2
5
42
1
-2
0
-20
-3
5
4
-13
16
4
1
11
-5
-11
-1
-12
2
-4
-14
-1
6
1
-4
-11
-19
-1
6
3
-1
5
9
12
12
2
-4
-8
1
2
3
-27
-2
1
10
11
1
-6
-9
-6
-15
-3
-8
-7
1
4
3
32
18
4
2
3
1
-1
-8
-67
-12
-1
-2
-3
2
-5
11
52
6
-3
-10
0
0
3
0
38
14
-1
10
-5
-8
11
7
25
11
2
-6
7
1
-9
-11
-61
-7
0
6
-1
0
-10
4
35
-10
-1
0
-2
-7
1
-8
-6
-11
-1
0
7
6
3
-3
-8
-3
0
-5
-2
5
-1
-6
9
2
0
-4
-3
-5
3
16
9
5
1
1
-4
0
-7
9
-2
8
-3
-3
1
3
4
-9
-49
-11
-3
0
-1
-3
-3
-9
-36
-11
-5
-1
3
0
7
7
-5
6
2
6
3
3
-1
11
64
13
-1
0
1
-3
-7
-16
-31
-3
-1
-3
-4
2
-3
-2
-17
-7
-3
-1
0
-2
0
-8
-27
-6
2
1
-1
-2
2
3
29
-3
-2
-5
-7
1
-5
-1
-24
5
4
3
7
2
-2
-4
-29
-8
-4
3
-1
0
-1
4
27
10
-2
-1
-3
0
-3
-9
-22
-10
-2
0
0
-1
2
8
51
9
-1
-2
-3
-2
-3
-4
0
-2
-1
-5
-1
1
1
-1
-20
-2
-3
1
-1
-3
1
0
11
-18
0
-1
0
1
-3
-3
4
12
4
0
-2
-3
0
-2
-7
1
0
-2
0
1
-1
6
26
9
-1
-2
-3
-2
-2
-9
-10
-20
-14
-3
-1
0
0
6
18
2
-3
0
-4
-3
0
-3
-13
-9
15
5
5
0
0
0
7
47
10
3
1
0
0
2
12
11
4
2
0
1
-1
-2
-72
-19
-5
-2
-2
-1
-1
2
39
0
-8
-5
-5
-2
-2
-8
-13
-22
-6
-2
0
-1
-3
0
-7
0
3
2
0
-1
1
-2
32
-19
-7
-2
-4
-1
0
0
-10
-4
-6
-5
-2
-2
0
-1
-13
5
4
0
-1
0
-1
0
14
9
0
1
1
0
0
5
-30
0
2
2
2
-2
0
2
34
6
-1
-1
1
2
-3
-6
6
-19
-8
-2
-2
1
-2
-1
-48
-1
0
-2
-2
0
1
4
97
11
2
-1
1
-2
5
5
-80
-3
3
6
4
-2
-9
-22
-77
-3
1
0
-3
-1
-11
-10
28
-55
-22
-16
-16
0
1
-2
5
-14
-4
-2
-2
-3
14
10
51
13
4
4
8
2
1
23
18
28
9
7
3
1
3
-21
41
66
8
1
0
-12
-19
-2
-57
-60
-24
-17
-17
8
5
-12
-1
-10
-2
-6
-7
-10
27
26
84
24
18
18
18
27
-5
9
-38
44
14
11
13
-27
7
-7
39
-33
-3
-12
-12
20
-9
44
0
-60
-13
3
20
1
-10
-23
27
38
-1
-10
-26
66
1
-41
-37
-61
-25
-33
-47
-1
41
54
127
117
45
43
42
-7
-7
-61
-128
-93
-11
-6
1
-10
-5
-14
127
-75
-27
2
15
20
-7
28
108
42
17
-29
-14
-63
-22
-20
-23
69
0
18
14
21
14
-29
106
-41
-9
-14
-42
33
-8
51
11
-17
5
10
-35
-47
15
-8
26
9
2
21
45
60
-22
-18
-53
-46
-10
-35
-8
-27
-1
34
29
75
14
21
-15
-36
10
-13
10
55
11
11
61
-14
-7
20
-50
-108
-23
-18
-7
2
23
24
90
127
27
13
10
2
-28
4
37
-102
-34
-20
-25
46
-16
-31
72
-7
-19
-29
-46
-37
18
-5
-106
17
15
25
21
13
14
33
123
63
12
11
13
-3
-13
-53
-82
-24
-12
-15
-22
-24
7
0
22
-67
-10
-14
-11
-24
-13
16
55
95
28
33
42
25
-32
-8
-126
-95
-25
-16
-33
-2
-7
12
14
-10
-7
-34
-16
-30
5
23
13
3
1
24
-33
2
32
-60
-44
58
13
37
74
7
-11
28
27
-29
-8
-1
-3
23
13
30
126
71
31
3
28
12
-31
35
-30
49
-4
-30
-102
-12
10
13
50
-96
-30
-21
-10
59
14
21
-7
-9
10
49
59
8
17
-2
-36
-20
1
26
30
21
-2
39
55
99
10
-1
53
-61
-30
-8
127
37
-2
-20
-79
11
-23
-72
-29
-81
-29
-28
-23
24
3
-41
56
81
12
-1
17
20
-7
-5
38
-83
-2
9
12
-33
6
92
77
92
-2
-17
-23
-62
-18
-66
-71
-124
-25
-37
-36
-13
11
37
126
60
13
18
1
-18
49
-2
-33
27
21
13
36
27
-76
-84
4
-99
-29
-22
-43
0
38
31
-50
43
-7
-24
-39
-3
4
-19
-42
47
5
33
23
-29
28
109
66
55
18
15
41
33
-42
-65
-118
-92
-21
-29
-25
18
20
20
127
47
0
-13
-24
-28
-1
3
9
5
-3
-22
-23
-2
23
-87
-58
77
23
37
-17
32
-22
67
-108
-67
-3
40
11
3
-4
3
74
6
-2
-10
72
-13
26
66
-7
32
1
19
37
16
-22
-63
29
-26
-4
-26
4
-5
6
-34
65
-56
-3
-3
-22
-4
13
66
56
59
8
-1
-26
5
-53
-63
-60
-52
-20
-33
-31
-26
0
3
-31
-11
-8
1
-6
-14
31
-13
-35
88
28
16
-1
4
-22
27
-3
-24
10
7
14
-7
5
33
126
-1
-14
-13
-15
12
-18
-22
15
-30
-16
-27
-31
11
35
-33
103
69
22
23
19
-5
-28
-92
-104
-52
-8
14
1
-2
15
37
50
50
-2
-20
7
37
1
6
41
-36
-17
-22
-41
-56
14
8
28
94
25
43
51
-8
15
-20
96
-7
-7
-11
-27
-2
-84
-88
6
-34
-16
-8
-42
-16
-3
-26
-30
-47
-8
10
84
22
29
73
9
75
27
18
-2
-9
-7
8
16
-19
5
9
-1
-13
-22
-60
-90
-61
-27
-43
-32
-28
2
-8
8
22
4
13
19
1
19
57
-26
59
17
8
6
10
10
50
26
-53
-33
-23
-30
-18
11
-4
-15
8
-5
-4
-2
1
-3
4
-44
-7
-6
-16
-29
-4
1
-36
61
45
5
-3
2
0
16
65
-44
3
4
10
5
-8
-8
-11
-7
-14
3
13
33
81
-36
-66
-123
-70
-27
-30
-7
-5
-6
6
56
-13
0
-23
-18
-15
19
48
94
31
23
64
20
-48
12
-32
63
-31
-18
-15
-13
26
3
59
31
-67
-6
3
34
23
7
31
6
23
-2
-22
-27
0
-1
-66
-16
-7
16
22
14
-15
31
96
40
95
19
13
18
45
-15
-47
-39
-25
-14
-10
8
10
18
67
-12
-25
-10
-17
-10
-18
4
43
55
52
25
4
5
33
-7
-58
25
-72
-30
-2
-4
19
-1
-18
42
15
-9
-10
-15
-27
-15
-33
-111
-95
-17
-1
11
-19
-5
22
86
77
8
-4
-16
30
-10
11
-38
0
4
-14
0
-16
25
-7
1
30
8
11
-1
-4
19
47
58
-14
-10
4
-12
6
-30
-80
-89
-67
-20
-30
22
-6
9
10
-80
-2
18
17
-31
-62
8
-36
43
-5
-4
-5
-11
75
-49
-2
18
-55
-15
-8
-37
-31
-3
-61
-107
10
0
1
97
24
7
29
-26
58
24
30
7
-21
-18
-34
-93
-57
-2
5
24
-12
11
-6
-27
-73
-19
-32
-90
64
-27
-15
56
8
-11
-13
31
-33
37
19
13
29
10
14
-35
-43
-2
-14
48
11
2
12
110
16
-2
-5
94
49
8
-7
51
39
-10
-93
-116
2
-5
-10
-128
-34
-8
-8
-57
-30
5
17
86
-27
-14
3
-26
58
-2
-3
-29
4
-25
-20
-46
-43
-4
-2
71
-5
46
94
98
30
11
10
-16
-21
-61
-86
11
92
11
-3
-25
2
15
102
77
2
-8
-5
-45
-7
-19
-40
-19
-21
-11
-6
-35
-75
32
-6
73
30
6
10
49
63
-2
18
17
117
28
20
15
-31
-6
-12
95
-72
-22
-22
-31
-6
16
-15
74
25
2
11
86
-1
-4
21
-40
40
17
5
-32
18
15
52
127
-15
-6
-22
-20
-29
-24
-77
-127
-54
-20
-17
-70
45
-1
-45
4
11
5
31
49
8
39
46
94
76
23
19
30
15
3
74
43
-70
-2
7
11
30
-35
-1
17
-16
-15
-41
-58
-69
-2
-6
20
27
-2
11
86
2
-14
-46
-59
-48
-5
1
0
-2
23
62
127
92
3
-7
-28
8
14
58
-66
114
36
35
21
-3
-26
40
-40
-100
-43
-47
-89
15
-15
38
25
12
-8
-7
36
6
39
68
78
61
31
35
43
1
12
-59
3
-56
-18
-4
16
4
-80
-25
-45
-13
-15
-19
-20
-27
26
16
61
10
-7
-23
-110
-29
8
-18
-17
40
3
10
12
-3
21
43
-8
-47
12
35
49
77
12
-24
30
46
11
2
-7
-72
-37
-94
-87
-49
-25
-30
28
36
8
6
26
5
10
19
28
-42
24
58
126
32
1
-1
-11
46
-1
-43
-49
-30
-5
-1
-41
14
-9
-2
-16
-19
0
-5
-21
-42
18
42
35
-67
-16
-23
-33
26
-26
21
-44
20
17
13
20
-14
26
45
127
52
7
5
-3
15
-13
-15
-35
-19
-11
0
28
1
-13
-67
-128
-58
-10
-12
-7
1
2
-3
-66
95
18
10
-58
-12
20
114
-26
-19
-5
-7
32
-41
-52
-117
-93
-82
-23
-18
-29
9
-6
3
-7
-33
-8
-14
-26
-20
-1
-26
26
103
25
19
22
-16
15
-11
-59
-47
4
10
16
3
-3
51
-15
1
-6
2
-3
40
-21
-30
-48
-38
-12
-8
-25
31
50
36
90
72
19
6
-5
-25
-69
-53
16
-69
-22
-30
-102
-43
26
84
127
49
2
15
77
27
-6
-55
-21
27
0
-14
35
44
-27
-23
-40
-30
-2
12
-29
-55
9
-43
16
51
9
10
82
61
17
16
-39
-21
2
-8
-59
47
-39
-4
-28
50
-2
-5
-23
-85
18
96
114
-87
-20
-14
2
4
7
21
23
57
-5
-8
-25
3
-29
-37
70
10
-8
-18
-51
-37
31
17
2
11
5
13
-17
12
-4
-5
-23
-36
3
11
36
7
24
12
112
69
12
22
71
18
-1
33
93
88
16
10
19
0
-36
-90
-50
-95
-29
-40
-41
13
-13
-50
8
-23
-13
-17
-112
-63
28
43
22
6
8
16
82
41
-10
-38
-34
47
5
-1
-42
-43
-7
25
-35
-36
0
22
24
39
15
7
-15
23
9
-2
-13
-22
-12
-44
-127
-48
-8
-9
3
9
25
84
86
1
-5
-1
-1
3
-1
27
112
25
-4
-4
-19
-8
-7
-61
-74
-29
-9
-6
46
35
-3
-10
-56
12
13
6
-40
-24
10
41
48
19
9
7
-7
28
10
-32
-60
-78
-3
10
39
-6
3
29
10
-14
-14
-17
-22
36
11
-23
75
21
-4
-5
-9
12
-10
-9
3
0
2
2
20
-37
11
-14
-38
7
9
2
-17
-17
6
-9
93
66
12
8
34
-24
-29
13
-49
27
-10
-20
-31
31
-6
-55
-128
-128
-21
6
-8
22
18
31
30
6
24
31
77
15
-5
16
90
49
-6
-11
0
31
-16
1
-12
-2
-15
-22
-101
-56
-1
3
20
41
14
-1
49
-39
1
6
43
74
0
-3
-25
-4
18
40
36
-27
3
12
49
-8
19
-23
-32
-12
11
11
-17
6
5
23
99
-10
-11
-6
-1
6
-17
-86
-70
-6
-12
-24
-51
40
-13
14
-20
31
-4
3
51
6
21
3
95
127
48
46
22
1
-24
-9
-81
-119
-43
-36
-34
-21
-17
-54
7
-16
-17
-16
-17
20
-18
22
-16
26
0
-10
-46
-16
31
23
55
-7
11
16
43
4
-11
-37
-107
3
17
15
2
8
-16
20
127
40
-16
-27
-27
-66
-10
-40
35
-23
-8
1
-13
-3
29
24
27
38
5
22
13
24
-28
-11
42
-52
5
7
5
-30
-9
-19
-69
-14
-6
2
-27
8
13
24
60
-35
4
-23
49
5
5
24
-4
-34
-11
-3
-16
30
-7
10
-44
36
2
10
-10
19
13
16
-8
-21
9
11
49
2
-20
-21
38
32
-1
-2
-17
-5
-3
-17
35
76
0
-11
-34
6
10
29
32
-47
-7
-7
-3
7
9
72
-4
23
-4
0
0
-14
-25
-42
-48
3
-7
-6
-25
-8
-3
-7
14
-17
0
1
20
-2
16
2
0
47
14
16
41
-24
5
-13
-12
-3
4
4
10
18
-8
20
7
-19
-6
-7
-22
-16
-10
-16
-15
-23
-6
-11
-31
-23
5
-18
30
25
4
4
-4
12
7
13
-59
-39
4
2
27
1
-14
-7
-9
36
0
-2
-62
-10
7
-11
3
-40
-7
1
34
1
-4
-12
-24
28
0
-3
15
9
-10
-12
-20
-11
3
6
6
3
5
-3
-15
-33
-6
-1
7
-9
-6
7
28
-45
-7
-15
-31
-3
4
-5
30
51
3
-6
-4
-1
6
-1
58
17
-1
1
-3
-4
-1
5
-77
-18
1
3
10
5
3
26
55
4
3
3
2
-7
-3
-38
-34
-16
-5
-8
-6
4
-11
7
22
13
-1
1
-1
-9
8
5
-3
-1
-4
3
13
2
-1
5
1
-4
1
-2
3
-2
14
18
49
28
3
3
-6
-3
-5
-1
-9
-6
-1
-1
1
2
-1
-11
-35
6
-1
2
16
-2
1
-6
-67
-33
-9
-9
-21
-4
-4
-3
27
10
-1
1
10
7
4
0
-25
15
4
3
6
2
12
4
53
-9
2
-1
3
5
-17
-7
-24
0
-3
-5
5
-4
1
-4
-15
-27
-12
-5
-16
-10
-2
12
25
31
9
3
6
1
-6
-14
-75
-10
0
1
3
1
3
5
-32
14
-2
-4
-10
-2
-1
-4
20
-12
-2
-1
-2
4
-1
1
-17
-25
-8
-2
2
0
7
1
0
27
-3
-1
-2
2
-6
-5
12
-52
-2
-1
0
-3
-10
1
-23
19
4
-1
2
1
4
7
53
9
2
2
-3
-3
-2
2
-14
11
3
0
5
3
-5
-1
11
-25
-12
-5
-3
-5
2
3
6
43
13
5
-6
0
1
1
-3
-4
-2
-2
-2
1
-1
0
-4
-8
-5
-6
3
-1
-4
-9
-31
-6
2
4
0
-4
6
7
19
-9
3
0
-7
-2
0
-1
-10
4
-3
-2
-1
-1
-4
-9
-47
-25
-1
2
6
4
-4
-4
15
11
-3
-5
-6
-5
0
-1
-4
-4
-1
2
-1
-2
0
3
4
-4
-3
0
3
2
0
-7
-8
-12
-2
1
0
-2
3
4
-6
6
5
-3
0
2
-1
-7
-22
-1
-2
-3
-1
0
-2
1
19
-9
-3
-1
-1
-2
-4
-4
-1
-10
1
-7
-15
-2
-6
0
1
10
-1
2
11
0
5
-1
-10
-7
-2
0
1
-1
-1
-3
-11
-15
-1
0
-2
-1
-2
-4
28
10
0
-2
1
-1
1
0
6
13
-3
-16
-4
-2
-4
-3
-1
-5
-4
16
-15
-4
2
4
10
-1
2
2
5
4
-4
4
55
9
3
4
13
0
-4
-10
-47
-18
-2
-4
-6
-3
0
3
-4
5
0
-12
5
4
9
10
35
0
-3
-8
-10
-3
0
2
11
9
5
10
11
3
1
-2
-12
-4
-2
18
5
-4
0
-2
-3
-5
0
0
9
-1
-2
-2
-1
-2
-1
-9
-1
0
3
5
19
1
0
-1
0
2
0
1
3
6
1
0
2
1
-1
-4
7
-2
-1
3
1
0
-5
4
5
-2
-2
-6
-10
-5
2
3
-20
0
2
-3
-2
1
-6
-17
-34
-3
-5
-1
-10
-2
1
-4
5
-6
-3
-8
0
-1
-9
-6
3
-7
-4
-2
1
-2
7
9
37
17
8
0
1
-2
1
4
-40
-10
2
3
-4
1
3
2
-39
-5
2
-6
-4
0
-3
-3
5
7
-3
0
3
-1
-8
0
25
0
-4
6
4
-5
2
-18
-36
-6
-2
-3
0
3
-3
-7
12
3
-2
-2
-5
-3
6
3
-2
-14
0
-1
2
1
-3
-7
-55
-15
-5
-5
-10
-2
-1
9
43
1
-1
-5
-1
-1
2
5
9
1
-1
4
3
-2
0
-3
-12
3
0
-8
-8
-2
-2
-1
2
-2
-1
5
11
-1
0
5
10
4
2
5
3
-2
-4
-2
-14
-10
-4
-7
-6
1
-1
-2
36
3
-1
4
-7
0
-1
-2
-43
1
2
-3
-4
-3
0
7
-8
-2
-3
-8
-17
0
-6
-14
-11
-4
-2
-2
5
1
-3
-4
-17
-2
2
8
5
0
2
-2
-19
-9
-2
0
-1
-2
0
2
58
10
0
-2
1
-2
-4
7
-18
-2
-3
-6
-3
-1
-2
2
8
0
-3
0
-2
-1
-2
-11
-13
-6
-1
-2
-2
0
1
4
-1
2
1
0
4
-1
0
-1
28
0
-1
-1
-1
-1
0
-4
-44
-5
-2
2
3
-1
-1
-2
18
6
-4
-4
-6
-1
-1
-2
3
-3
-2
-3
2
-2
1
2
10
0
1
4
0
-1
0
1
25
4
3
2
1
1
1
-1
-38
-13
-3
-2
-2
0
-1
-1
25
-3
-2
-6
-1
-2
-3
-1
-13
-1
3
1
0
-1
3
2
2
8
0
0
2
0
1
-1
49
5
-2
-2
-1
0
0
0
-47
-3
2
2
0
1
1
2
14
-3
0
1
-2
0
-3
-2
17
-3
-2
-2
-1
0
-1
-2
2
1
-1
-1
-2
-2
0
-4
-11
-6
-2
-1
-4
0
2
2
12
4
-1
-2
7
-1
2
-1
-18
-9
-2
0
0
-1
-6
-3
-1
14
2
0
0
-1
-2
0
20
1
2
0
-2
0
-1
-1
-11
-1
1
-2
-4
-1
0
0
11
-1
-7
-2
-1
0
4
6
37
-1
-3
-1
-2
-2
-3
-7
-69
-8
2
1
0
0
-1
0
7
-8
1
0
-2
0
0
-5
-15
1
0
-1
2
-3
0
1
-1
-19
-11
-4
-2
-1
3
7
63
11
-1
0
3
-2
-1
2
25
20
0
-2
-1
1
-10
-17
-65
-26
-7
-5
-9
-3
0
2
11
2
4
-1
1
0
1
-8
16
10
-1
0
2
-1
-1
6
18
-25
-2
0
-1
-3
7
14
61
26
4
3
4
1
-11
-25
-85
-33
-10
-6
-5
0
2
10
1
3
2
-3
-2
0
3
-6
56
30
2
3
2
-1
-2
-3
-91
-41
2
-1
0
2
-1
-9
24
2
5
1
0
0
-4
5
-6
-5
-9
-8
-10
0
-1
-6
111
32
0
-2
-2
2
-15
-30
-54
-88
-16
-7
-7
-9
11
22
82
75
14
4
1
-7
2
11
109
38
-3
-4
2
-1
4
-7
-29
-41
-2
6
4
1
-2
15
1
2
-3
-3
-4
3
4
7
-13
-11
2
3
9
-1
-5
-31
-64
4
9
10
6
1
13
28
76
12
-3
-8
-5
14
-20
-48
-90
-45
-6
-15
-8
-15
-8
41
117
34
-5
6
1
3
9
6
-49
-28
13
7
4
75
-20
-32
-68
-71
-29
-30
-27
-43
5
23
69
78
10
-1
2
-61
62
61
-68
7
17
38
42
87
-60
-87
81
-52
-37
-35
-59
-81
12
20
-15
-18
7
22
22
8
16
49
42
100
23
11
28
4
-33
-43
-44
-56
-12
-18
-7
28
9
-1
-20
34
-7
-21
-6
-42
-10
-51
-40
46
2
6
-14
-1
-7
-33
-23
-53
-4
-10
-16
-6
9
11
111
110
22
28
8
-17
8
62
71
-35
3
15
43
28
-45
-111
-80
-75
-30
-45
-41
-25
47
91
127
63
12
14
2
36
-37
-40
-89
-35
0
-5
-17
-33
-13
-6
119
-2
-13
-12
26
-5
7
13
-93
-42
8
11
20
-13
5
-45
62
-14
9
21
17
34
14
16
-122
49
-1
-22
-20
-24
-37
-39
25
-47
-27
-21
-37
-17
19
20
33
34
18
15
24
35
6
61
7
-5
-7
-9
-9
38
15
-10
127
79
37
28
21
-45
0
-28
-2
-50
-25
-27
-23
-21
0
69
90
118
-5
-24
-39
21
4
2
38
24
5
-1
-27
14
20
-3
103
96
8
42
46
6
2
11
-3
-78
-8
18
48
37
-11
15
75
-21
0
0
11
-18
-23
-37
-1
14
-3
-8
-15
-13
30
46
-23
-94
-1
-17
-20
-32
-26
19
-90
108
3
-9
-31
15
13
-2
-3
-23
-3
2
14
-18
7
-9
74
88
10
9
8
-5
-22
-38
-128
-128
-35
-25
-22
18
-3
19
63
11
-3
-2
-23
-29
15
48
20
16
8
7
11
-2
-15
-55
-47
-12
-13
-5
-2
9
8
-5
-26
41
18
10
6
2
37
84
39
35
22
17
16
25
-33
-35
-27
1
-24
-32
-31
-26
10
-17
-22
-25
1
10
25
-13
-8
33
6
-56
-10
-8
-1
30
-6
-81
-128
50
9
1
3
5
5
23
42
-45
-5
11
-7
-42
-2
-15
16
23
-4
-6
-1
-10
18
62
30
-26
-1
-6
0
-4
-26
-41
-101
-67
-11
-4
0
4
3
-11
61
66
10
4
-9
15
-14
-45
-27
-32
-13
-6
-7
-13
-23
-32
-46
-50
-17
-11
-8
-4
27
24
-59
-11
23
20
10
-28
17
20
-4
-16
-1
-8
-3
26
-16
49
75
106
22
14
16
5
-48
-91
-59
-80
-38
-14
-1
-21
12
-8
97
29
-4
-9
-54
-37
5
-40
-38
63
7
2
-2
11
-5
37
6
-75
-5
7
42
-24
4
71
127
96
2
-9
2
3
11
-53
16
-8
5
10
30
-3
-2
10
93
94
18
20
4
6
9
79
-2
6
10
0
-18
22
-21
-71
102
-61
-28
-30
-31
-39
7
-16
45
-25
1
-2
-7
10
7
10
-24
24
15
9
19
1
3
-7
-18
-24
-4
10
-7
-8
24
-14
-71
96
32
28
40
15
-11
113
106
26
-6
-11
-11
32
14
-46
63
-65
-7
-8
7
48
-34
-30
-64
-105
-28
-17
-19
-76
-12
-30
-56
45
1
-5
-29
6
19
12
3
17
14
20
43
-3
0
49
-62
0
0
10
-14
1
44
6
11
47
15
7
66
76
-28
-1
122
-8
-22
-17
-26
-15
36
61
81
110
9
-6
9
17
-49
-59
-75
16
0
11
-22
-15
11
-57
63
32
-7
-6
-44
17
-15
112
25
-128
-27
-22
6
46
2
-45
-51
-54
-6
-21
-3
-44
6
52
30
31
8
8
24
-16
19
-47
-42
89
45
37
19
-14
-31
-5
-7
-50
-42
-38
-39
4
4
44
54
62
10
11
-16
-1
33
12
18
46
29
26
46
11
-56
-20
-30
-96
-42
-48
-24
-5
15
-32
46
-39
3
8
-5
-11
5
50
-3
28
10
13
0
28
7
-39
23
39
19
24
19
2
-16
100
-15
-89
-44
-32
17
25
5
-18
55
33
14
-14
-18
34
24
-2
11
-10
6
11
-28
-12
-42
-16
45
-45
-17
11
35
-29
37
77
127
95
4
-5
-21
20
-42
-100
-120
-34
-9
-9
-9
-25
-6
-26
-52
11
6
8
30
19
-1
10
-38
60
12
7
-13
-1
31
40
95
-81
-8
-9
-22
-24
-10
-77
-21
68
-6
-15
-34
-28
17
13
8
-17
-2
7
45
27
-16
-27
10
-20
-4
-18
-19
-19
2
38
18
15
10
16
15
-22
40
65
-15
11
27
22
19
47
-41
-81
-71
-71
-23
-22
-37
-17
14
-27
72
-44
-20
-27
-9
36
10
35
55
95
26
27
-1
-8
-29
-59
-85
-87
-17
10
57
-9
17
-31
54
96
6
9
-8
-11
-3
2
-73
-64
-22
-27
-9
15
-10
-58
-8
36
6
-5
-8
-9
47
45
112
127
61
51
45
-37
-48
-28
51
-22
-35
-48
-92
16
-10
-13
-8
-107
-31
-14
-26
-19
-1
-2
-23
2
5
11
35
3
44
81
127
104
44
34
19
27
-13
7
38
-29
-31
-16
10
-1
8
-26
83
8
-12
-20
-1
4
-27
-48
1
-36
-7
-5
-8
-18
48
32
127
83
22
13
-9
47
-27
-20
-127
-86
8
15
27
-88
5
23
81
66
-13
-23
-45
27
-17
1
-18
-21
-4
1
40
-10
-18
-33
-101
40
0
-2
-28
-27
29
68
117
-42
1
14
5
11
-38
-16
-128
0
-16
-6
-2
-27
13
-67
-27
0
-3
-16
-17
18
28
106
50
18
12
18
4
-41
-27
-90
-94
-56
-15
-11
-5
30
0
0
28
14
7
22
79
-5
19
72
69
12
1
-12
-51
6
2
-82
-128
-84
-5
-5
7
-8
-24
58
-12
41
-7
-2
-1
-4
14
72
-18
-37
3
-6
5
-7
-17
-107
-115
50
6
-1
5
-18
-6
10
44
-120
-36
-53
-48
3
36
54
9
48
25
70
65
32
5
24
54
38
19
20
-35
29
-10
48
115
7
-9
0
44
15
-20
34
49
87
-3
-19
-17
-70
26
-35
121
-74
-9
-15
-28
97
4
-7
-71
-4
0
5
8
6
12
26
-80
-18
7
14
8
-17
-13
-44
10
-18
-19
-17
7
6
-22
-17
-10
33
2
-19
-33
-7
10
-15
-98
-86
-2
19
14
-45
-28
-51
41
-23
-21
-32
-59
0
8
16
38
37
-6
7
9
14
20
-1
-78
61
30
17
25
-42
0
4
86
43
-6
-27
-46
60
-21
-20
-61
-18
2
11
4
-25
-16
-28
-84
-9
1
13
-13
0
15
37
27
12
6
7
52
1
-1
44
114
5
-1
-14
-27
-17
7
-15
-28
49
7
11
28
7
-16
-40
-27
-93
-30
-9
-35
27
4
44
72
77
17
-9
53
17
-12
-24
-36
-44
1
9
-31
-43
11
10
-15
113
22
23
-6
11
-14
6
-123
-96
-10
-1
36
-14
-22
-108
-99
-55
-19
-13
-34
-3
20
74
124
25
6
0
39
3
-47
-88
-60
-9
-1
-4
-8
-7
39
57
127
35
2
5
9
-42
-33
-41
-47
-19
-5
-24
-77
-35
8
-13
-103
86
22
19
65
2
30
54
98
-81
-7
-3
-29
18
-71
-85
-47
99
-10
-17
-9
-5
53
79
56
-68
-14
-12
-31
-27
16
2
1
18
28
36
41
13
-13
10
122
64
-31
-24
-37
-3
-21
-66
-45
-13
5
-4
40
21
21
16
-29
31
26
37
61
11
-18
88
34
52
-25
-36
-58
-15
-9
-63
56
-46
-27
-22
-36
3
14
85
101
19
6
7
-3
15
-1
-19
-21
127
18
7
33
-38
-46
-76
-23
-84
-37
-27
-58
21
12
69
70
33
3
7
88
8
3
-46
7
7
-3
-14
-46
-3
-22
-28
58
109
37
26
33
-24
42
-9
49
-73
-15
-8
-44
79
-6
-39
-115
-123
-14
-15
-34
-2
9
9
-22
8
4
4
15
8
19
8
43
-15
0
16
52
14
-25
-56
38
3
10
11
-4
-55
-28
-26
-27
33
-21
-33
-25
22
58
127
127
37
17
18
33
7
13
8
95
84
27
20
-67
21
-60
-79
21
-23
-32
-37
19
-11
13
37
-11
-103
-12
-8
-26
-62
-3
43
0
8
7
5
53
7
18
7
-96
-47
4
26
20
-11
-12
-40
55
26
0
-10
-27
-24
11
36
-57
40
26
14
-31
53
5
8
55
-3
-5
7
-19
16
22
31
-70
-50
-9
2
79
35
13
-26
38
-56
-4
2
1
10
-21
6
25
-26
-7
-7
-8
11
18
-35
-24
39
8
-10
5
-44
-24
108
70
0
-4
-5
-47
-3
-15
-4
-128
-35
4
5
42
18
-2
-1
98
33
-3
-7
-3
-42
8
24
46
61
15
10
-16
23
-8
-2
-9
-83
-15
-20
-26
-15
-13
-8
12
41
0
6
2
-38
33
41
55
34
18
1
-13
-7
-29
-78
-39
-1
-4
19
23
65
10
15
83
-87
-29
-21
-3
-6
49
31
81
45
14
21
32
2
-23
-43
-46
-9
14
8
8
-13
32
20
81
2
7
4
8
-22
-50
-65
14
-4
-21
-31
-49
35
27
68
-68
-16
8
14
9
-14
-42
-31
112
94
-4
-4
7
-35
-4
10
-70
35
2
-4
-5
16
-22
6
56
-105
-26
-12
-27
-2
10
28
-41
67
18
1
-10
0
13
-8
45
4
-2
11
49
10
-19
-36
-5
-76
-15
-12
-50
-19
13
-47
-91
62
33
16
21
-36
1
52
66
112
2
-8
37
62
-2
-65
-128
-70
-9
-2
6
-14
-14
16
16
40
-14
-16
-30
-3
36
-9
19
95
32
26
36
-4
-23
33
45
-22
-20
-23
-50
-78
6
-1
-45
-54
-2
-4
-28
29
2
-5
-44
28
14
21
41
-16
28
21
114
5
5
8
-14
-16
11
-61
28
-46
-14
-21
-31
52
-17
-29
-13
-16
-7
5
-13
9
-4
-14
-24
0
3
7
53
-9
11
44
38
18
-5
-9
8
8
-18
-27
-80
-55
-6
-9
-18
-11
-9
33
15
-9
-1
-1
-7
-12
-2
-22
0
34
1
-3
-51
-2
-27
-25
-82
-47
-27
-19
-7
19
37
105
74
65
23
26
20
-9
-4
-36
-102
73
-2
-4
12
51
-20
-63
-73
-22
-12
-12
-31
-50
-4
23
103
49
1
-10
23
-6
-17
-58
-121
-80
-9
8
-9
13
39
35
61
-2
19
34
54
0
-7
43
95
7
1
-4
-19
11
-27
-61
-96
1
-16
-15
-28
-6
-6
-10
32
33
11
-7
-12
-10
18
37
29
8
5
8
11
-8
-6
-27
-35
-28
-7
-6
16
8
-9
-11
67
20
-5
-10
-18
-9
-23
4
73
-4
3
3
8
-25
9
-33
3
43
0
0
-6
5
22
38
42
-45
-8
-6
8
12
-15
-3
-88
-10
-6
-6
-12
-8
-5
-11
6
19
5
3
9
-4
4
2
11
-23
0
1
-2
-9
0
4
-7
-67
-12
-8
-9
-1
-7
-46
28
73
4
-5
-1
-1
12
36
-30
1
-4
3
7
5
4
1
-55
-19
-5
-1
-3
-17
-23
6
69
-5
9
2
7
-2
3
20
32
12
-7
-2
-15
1
1
-25
-31
-5
1
0
8
-6
1
36
9
-12
-5
-4
0
4
5
8
98
35
-4
-2
-4
1
6
-3
-2
-25
7
6
-2
3
0
-5
60
-3
-4
-1
1
-3
1
-2
22
33
7
-2
4
-3
-4
3
-31
-19
-3
-6
-7
-1
-3
-4
-20
-13
-5
0
-4
-2
9
-3
-68
7
-4
2
9
1
-9
7
-19
2
10
3
-3
-3
-9
-21
-54
-36
-6
-3
-3
-2
-2
11
5
-14
-3
-3
-2
0
1
-10
-3
2
-13
-4
0
1
4
4
-14
1
16
5
3
1
-2
-1
-17
-15
-9
-9
-6
0
1
1
-12
-2
0
4
2
0
-2
-10
-35
7
5
2
0
-2
1
0
-17
-28
-18
-9
-4
-3
3
-8
-61
33
16
5
6
1
-3
15
26
9
5
1
-3
2
-3
-1
1
-13
-2
-1
0
-2
-4
10
23
-6
-5
0
0
2
-3
-4
-22
-12
-5
-2
-3
1
-3
6
7
-4
-7
-4
-5
-1
-1
-1
-4
1
5
0
-1
-2
-5
-3
10
7
-5
-4
-2
-2
4
6
34
-3
-5
-1
-1
-1
-7
-5
-29
-2
-1
-2
1
-4
4
5
2
-2
2
2
1
0
-5
5
34
1
0
4
2
-3
-8
-12
-79
-15
-4
-1
-6
-1
-3
2
-9
1
-1
0
7
1
2
11
47
20
6
3
2
0
-4
-11
-42
-16
-6
-7
-6
-2
2
0
13
2
-3
-2
1
-2
1
-4
-12
2
0
-1
-3
1
0
4
-6
-4
1
0
0
0
1
0
8
9
1
0
0
-1
-1
-1
10
-6
-2
-7
4
-1
2
3
-4
-2
0
-2
-9
-1
-2
-4
3
4
0
11
4
-1
3
3
10
6
-1
0
-1
4
-1
-10
-44
-13
-3
-4
-1
-2
1
1
21
1
-2
-4
-5
0
-4
-6
2
-5
-3
-6
2
-2
-1
0
-7
1
2
1
4
-1
-1
5
6
-1
-1
-1
-1
1
3
7
9
5
2
1
2
-1
-2
2
-1
13
1
-2
-5
-1
-5
-14
-19
-20
-7
-7
-6
-4
-3
1
48
0
0
1
1
0
-5
-8
-33
-6
1
-1
-2
-3
2
6
21
0
2
0
4
0
2
7
7
10
0
1
0
1
-5
-5
-11
0
-3
-3
-5
-3
-1
-2
10
-5
-4
5
3
-1
-2
-3
-9
-5
-2
-1
-2
-1
2
5
19
4
1
2
0
1
1
0
-10
-4
-1
-3
-5
-1
2
0
-30
-2
-1
-2
2
0
-3
2
68
-6
-3
1
4
-2
-3
-8
-84
-4
0
-3
-5
2
0
8
44
16
0
2
1
-1
-8
-13
-5
-6
-2
-2
-1
-4
2
-6
-16
-6
0
0
-1
-2
-1
3
-31
-11
-3
-10
2
-2
4
5
14
7
-1
3
0
-1
0
-4
-29
-8
3
8
-3
1
0
-5
-38
-9
-3
3
-3
-1
-6
0
52
6
-1
3
-4
-1
0
-1
-59
-10
-3
-3
9
1
-6
-10
38
-3
-8
-8
-9
-1
1
-4
-2
0
1
3
2
-1
-4
1
18
3
1
-3
-2
-3
1
0
17
0
1
3
-4
-3
3
3
-3
-1
-1
-2
0
1
-5
0
-25
-5
-3
-5
-1
0
2
0
28
4
-1
1
0
-2
5
-3
6
-5
0
-2
-3
0
-2
7
-6
7
2
4
4
1
-3
-7
1
-1
-2
-9
-7
-1
-2
0
33
4
-1
0
-1
-1
-5
-7
-37
-10
0
5
-1
-1
4
3
-7
-3
1
-2
2
0
1
4
13
5
2
-2
-3
-1
1
1
15
6
-1
-3
-1
-2
-2
-3
-10
-3
-2
-2
-3
1
1
1
-23
2
-2
-2
1
-3
-1
10
2
4
0
0
-1
1
0
-13
-34
-6
-2
3
0
-3
-2
-4
25
-3
-3
-6
-3
-3
-1
0
7
0
0
0
3
0
0
-4
-15
-2
-3
-2
-1
-2
2
3
3
3
-1
-1
1
-2
-1
2
-2
-11
-1
1
-3
0
1
-1
-11
5
0
-3
-1
-2
-2
-5
-2
-8
-2
-3
-2
1
-3
-2
10
9
-5
-2
-2
0
0
1
2
1
1
-1
0
-2
2
6
24
1
5
1
-1
-1
0
-6
-29
-5
0
-1
0
-2
0
0
-50
-9
-2
0
1
2
-2
-4
27
3
-2
-2
-1
0
2
-1
-3
2
-5
-1
-1
-3
2
9
30
1
2
0
1
2
-6
-14
-8
-6
-2
-6
-7
-3
-2
-1
-18
-2
-1
2
0
-3
-1
-1
22
4
1
-1
-1
-3
-3
-3
-14
-5
-1
3
1
-3
2
6
9
2
1
0
0
0
-1
-2
13
0
0
-1
-3
0
-1
-3
11
-12
-6
0
-2
0
-2
-4
-19
9
5
0
-1
1
-1
3
-3
6
6
3
0
-1
0
1
40
1
0
-2
-2
-1
-6
-7
-54
-30
-6
-5
-5
0
1
1
10
11
-5
-2
0
-1
0
-1
23
-7
-3
2
3
-2
1
2
27
15
-1
-2
2
-1
-2
-5
-45
19
3
2
1
1
0
-2
37
-28
-6
0
1
-3
4
2
0
2
-3
0
1
-1
-5
-3
0
8
0
-1
-4
2
1
6
30
10
1
3
-1
-2
2
4
38
20
1
1
-1
-1
-3
-7
32
-7
-3
-1
-3
-2
4
6
28
3
5
3
2
0
-1
-3
-70
-10
0
-2
1
1
-5
-7
42
-13
-3
-4
-5
-4
3
1
-69
27
2
2
3
-2
-6
-15
-95
-99
-10
-1
1
2
-5
1
112
19
-7
-10
-7
-2
15
29
52
36
14
10
10
2
-9
-17
-73
10
-1
-3
-4
9
-9
-5
-63
-26
-11
-8
-8
-8
0
-8
23
-17
-2
0
0
-7
7
23
90
34
-2
-2
5
5
2
-13
-44
26
12
3
1
-3
6
16
116
-1
-2
-17
-3
9
6
17
6
76
28
19
9
-74
-23
-53
-89
-92
-38
-10
-10
71
18
38
127
44
8
8
10
-51
7
15
-124
87
39
26
20
40
-41
-36
55
-68
-56
-62
-51
-69
19
31
61
-12
4
20
6
21
-5
-35
52
-32
-3
5
9
9
12
-24
13
-49
-9
1
1
13
3
35
67
24
9
-12
-16
-29
-19
-36
-113
71
9
3
-5
-53
-4
36
-21
-58
-4
5
-5
-9
42
82
113
127
27
17
10
20
-45
-109
-128
-98
-32
-14
-8
81
3
1
29
-24
-10
-37
-22
-63
16
39
69
107
24
37
19
2
-24
-29
-125
-69
-7
5
14
15
2
27
101
-24
-12
-19
-22
-20
33
60
-1
60
22
27
28
25
12
9
6
-25
6
-1
27
19
-21
-23
32
25
-17
-21
-25
-31
1
-24
9
3
5
1
13
28
-16
29
-41
51
16
7
-3
-33
16
36
-93
-77
-8
-1
-21
53
-21
-68
-12
-16
-32
-25
-21
-72
3
-2
21
34
12
0
10
18
26
23
10
45
14
15
22
-19
-38
-2
-20
91
5
7
2
7
-17
10
24
-95
-36
-17
-20
-38
41
-39
52
58
17
1
-5
21
-26
-51
33
-78
-16
14
5
3
5
25
127
11
-17
-33
-34
-1
14
-74
113
77
22
31
65
-7
-40
22
-37
4
-26
-11
-5
12
1
35
67
-1
-3
-17
-20
13
-7
-47
70
42
7
4
-13
-38
15
7
-24
21
0
-2
-6
27
-1
5
56
27
-1
9
7
2
20
-7
-27
33
-7
-14
-3
-14
-23
-35
-45
-1
-15
-19
-25
22
40
83
3
37
42
37
34
-3
6
70
103
91
4
-6
-2
1
-11
0
-18
-39
-26
-25
-10
27
34
57
53
49
26
21
-4
-10
24
37
-2
4
19
42
15
27
-43
-71
-128
-90
-14
-6
5
36
-18
-51
127
42
-13
-65
-28
12
12
34
63
-14
3
9
-29
-15
-9
-31
-18
22
2
18
17
27
-25
0
57
-49
-6
2
-15
-49
5
-14
-128
31
13
16
21
5
15
-34
23
-59
-21
-32
7
40
-35
80
127
48
5
-19
-37
-18
23
34
14
13
11
20
-12
-18
-14
-39
58
-31
-3
4
47
22
-2
52
93
31
-6
-6
-8
-39
0
-22
-4
-63
-27
-31
-55
58
26
97
0
83
40
41
84
-10
-28
11
-113
-71
-7
2
-28
12
17
2
62
-13
-22
-17
2
-13
-3
-20
34
63
10
-5
-1
-26
18
6
-45
-49
-5
-3
-11
4
29
19
41
-5
14
29
1
33
-40
-2
-79
-88
-15
-5
29
0
-32
-114
-123
-56
-20
-35
-6
-19
67
102
127
61
23
19
3
-16
-18
-78
-54
101
25
24
16
3
-10
-61
-128
-95
-41
-16
-15
30
9
44
82
104
0
7
6
-28
-13
-20
-85
16
5
-9
-7
4
50
40
113
126
27
23
16
39
-55
-33
-90
-79
-15
-9
-4
-27
-4
37
103
34
-12
-14
-6
1
16
20
79
51
29
27
21
17
-16
-37
-66
-103
-35
-22
-56
-47
0
-50
62
4
-4
-10
36
59
3
89
1
-87
-10
-30
-54
-17
4
-8
-66
40
13
31
35
-6
-17
53
35
-44
4
7
7
-36
15
9
100
118
7
-2
-69
12
-13
-57
-96
-65
-11
-10
80
-1
-2
-58
-128
7
5
8
0
22
-6
4
-38
0
-2
3
17
-11
-13
0
-28
30
1
-1
-12
2
27
41
73
12
-5
-14
-44
17
-8
-70
-30
19
-1
0
0
-17
-4
3
15
26
17
8
7
-22
-8
43
106
47
-12
-7
-8
-15
10
-57
16
71
0
6
1
-14
3
-17
-59
-114
-11
-9
1
14
6
-2
127
7
-20
-14
-30
-8
-40
-1
-13
90
25
4
23
-16
25
-10
-19
-29
1
10
0
-15
18
99
99
30
-10
-1
4
18
-29
-87
-123
-120
-16
-27
-33
-1
28
-21
-96
-28
22
30
48
-18
-22
-2
-48
-61
-13
7
9
-12
-31
-57
-70
59
-14
-21
-54
14
22
4
-3
80
17
17
46
-11
31
66
53
-113
3
6
17
41
-49
-49
-83
-83
-21
-21
-48
-63
8
-2
95
39
3
-5
-1
10
-12
33
20
-7
-7
1
15
-18
46
-13
63
127
52
30
11
-7
1
-7
54
-49
-31
-32
-40
62
-25
11
70
-26
-18
-8
-2
-7
13
-15
-28
4
-8
12
14
14
-21
18
-4
18
12
16
-8
-17
-33
53
16
-4
6
7
52
-70
36
15
-3
73
20
5
2
-1
-15
-8
-11
-91
-34
-38
-30
0
0
-54
-5
-2
-13
-17
-20
-14
-4
-31
-1
39
15
13
-4
47
7
42
53
-29
-5
5
15
-27
24
48
-86
83
45
42
17
-19
-70
-112
-57
-121
-64
-62
-54
44
-5
45
127
101
6
1
-2
-13
5
-18
14
-15
3
9
10
2
-2
-8
9
54
8
0
-12
5
9
16
-16
-40
-1
-2
16
-1
11
-6
7
18
13
8
7
-18
-5
-51
-49
-16
-6
-2
-25
4
-29
-53
-41
-56
-20
-22
-34
8
21
-1
-58
107
24
5
33
-10
4
42
107
-47
-17
-5
-1
8
-10
-78
-22
27
-8
4
-4
-6
9
70
47
-1
-8
-19
3
13
19
61
9
78
23
35
11
-18
1
-59
-103
-30
14
18
22
-5
-59
-63
41
7
-37
-47
-71
75
1
3
-8
52
-10
-7
27
-4
27
50
127
73
15
15
9
-25
26
37
-50
19
12
14
6
73
-21
6
24
-99
-15
3
37
-69
-5
11
92
82
8
3
19
-19
-20
-33
-90
-78
-7
-18
-3
-11
29
29
44
64
22
11
0
-52
-12
-33
-89
-62
-3
9
-100
69
3
-39
115
-59
-15
-1
57
38
-10
32
60
2
2
10
39
-20
-3
-32
-65
7
6
0
3
20
-16
-23
-86
36
5
-15
-2
-44
10
59
65
54
2
-4
-51
-3
-8
-39
76
15
-12
-8
-18
12
-8
-28
-36
-4
-1
-2
0
-7
22
-1
52
-3
13
10
9
34
-21
-38
4
17
-11
-17
-15
-65
8
-7
-32
-94
-13
-9
3
-17
-17
18
-20
66
9
1
-30
-6
55
50
9
52
15
17
40
31
-19
39
-128
-96
1
1
-32
9
16
48
85
79
-11
2
49
25
-11
-62
12
23
5
-8
-17
-4
-31
23
28
28
3
5
15
-10
31
-42
-17
45
23
29
36
-43
0
77
80
-28
0
-22
-58
-16
4
-15
-24
-51
-30
5
-20
69
1
43
7
12
-1
-32
6
-98
20
3
-4
83
28
39
-2
-24
17
28
26
20
18
18
-32
54
-4
-34
100
-21
-34
-23
48
23
4
17
100
-10
-8
-32
36
13
-3
28
31
-39
-10
8
-21
9
-2
-23
-40
6
5
8
-7
-23
13
28
-49
48
24
13
-17
-6
12
36
68
-12
0
6
-14
9
-27
-86
-81
-115
-47
-62
-27
-4
-3
-58
35
18
-10
-3
-33
23
9
53
77
98
24
13
39
-4
-33
-33
-62
-70
-1
7
13
6
-20
-60
-29
-44
-27
-20
-11
11
1
19
36
15
-7
-9
3
-11
-3
-18
-21
15
4
-4
-38
-28
22
-46
6
68
9
16
13
25
27
116
127
-58
18
44
21
53
-26
-81
-25
-31
-27
-24
26
-58
8
51
-8
12
10
4
-1
-11
19
-1
-41
110
29
23
29
-16
49
82
126
-51
-5
1
25
62
-41
-33
66
56
-8
-18
-15
-25
-32
-33
-23
-59
-21
-25
-13
12
3
59
19
-36
-7
0
-20
-4
0
-61
-30
57
13
8
7
-6
8
19
-99
-34
12
18
0
11
15
56
111
49
2
3
-8
-23
-26
-94
-117
-82
-26
-24
-48
-16
-16
-35
-10
81
18
-4
19
2
6
21
-40
49
-18
-5
-2
24
-21
-22
-40
-9
-10
-4
12
-15
14
5
-10
-32
-3
9
7
32
-1
10
-8
58
8
-3
-20
-12
-9
-18
-75
-48
3
-7
-14
-28
33
64
60
4
14
14
-7
30
-40
9
36
-32
-30
-11
26
17
-34
-99
-57
-92
-31
-20
-50
-39
11
-1
32
8
8
-5
12
15
7
0
32
1
2
22
20
-23
-2
20
-59
68
16
1
-66
17
0
97
19
-57
-10
-3
65
26
-31
-94
-128
-112
-25
-21
-23
-7
4
-32
20
27
-5
-20
12
-9
7
-38
1
13
12
17
-28
-26
11
28
-35
55
9
12
37
12
5
32
-45
-42
2
10
19
0
-12
-46
-67
1
-6
-13
-34
25
6
-1
76
-35
-2
0
65
9
-22
-2
-12
9
-4
-14
-64
-78
-16
-37
-38
-77
-20
-9
5
17
-11
7
52
11
1
0
-8
-44
46
123
30
44
10
6
25
-5
-23
-50
12
-6
-3
-14
-21
33
9
29
-60
27
3
-2
1
20
-33
-53
-85
-29
-9
-5
-8
-34
12
61
127
10
2
16
3
-12
12
46
-30
-15
5
-5
11
-13
10
10
95
127
20
27
4
-4
-27
-21
-27
-101
-24
-27
-25
30
-16
-27
-32
-9
-6
-3
-12
-13
7
10
83
103
22
27
72
15
3
-32
-62
-96
1
-3
-5
-22
-7
16
-35
2
-12
-5
-18
12
2
32
79
52
-4
-15
-2
-13
7
22
49
-3
-2
-11
-67
22
50
82
127
113
47
45
78
38
-44
-53
-83
-88
-52
-33
-35
-37
-13
-41
58
-27
-18
-10
-3
-2
-2
-16
1
6
2
-7
-11
3
14
-12
-74
32
13
8
-2
-19
15
15
90
74
29
29
-39
-4
0
6
8
-72
-11
-14
77
12
-13
-61
-35
22
-1
5
-9
-11
3
-8
-22
8
8
8
-26
-11
11
76
89
35
-23
-33
-11
67
-6
-7
-41
-21
-6
-3
-22
-68
13
13
21
17
7
7
11
8
-16
-12
1
-22
-12
-6
-8
-32
27
16
49
29
24
22
29
27
10
59
83
63
11
1
-10
4
-32
-98
-91
-57
-20
-21
-42
10
1
19
67
38
-3
-14
-55
-8
14
55
-15
-84
-7
8
88
12
-15
-63
-65
34
-4
-9
4
25
10
8
-14
2
5
4
12
-17
-6
0
28
-3
-8
-2
-6
2
-3
-27
-75
-12
10
10
-1
-15
24
5
78
58
9
6
-6
-4
-22
-6
-2
-91
-22
-19
-16
2
-4
2
67
-30
-14
-10
-2
10
11
18
29
29
8
9
15
-14
-4
-24
-23
-17
4
3
0
18
-7
11
49
76
14
3
-6
-45
-13
-23
-33
-42
-12
-5
6
9
-7
-60
-74
-18
1
6
1
-9
-8
-26
-59
-58
-8
-6
-4
6
13
36
-4
15
4
2
2
16
8
15
25
14
5
3
15
-2
-2
-10
-41
7
-2
-4
-4
-5
-8
-2
-26
0
0
-3
-20
-5
1
4
25
-13
-18
-6
-1
2
5
-8
-73
84
41
15
19
-3
-2
-9
126
-44
-7
-4
-6
7
3
4
-25
11
3
2
-6
-1
1
0
-17
-15
2
3
8
2
3
-9
-11
-1
-12
-6
-4
4
8
1
2
20
9
5
5
-1
-14
-13
-23
-36
-3
-2
-5
-6
2
3
-46
6
-6
-3
-3
4
-5
-12
-30
-33
-10
-5
-3
-2
3
6
13
37
6
3
4
-5
2
1
24
-18
-9
-1
2
1
3
0
19
27
6
3
0
4
-2
11
-2
-4
-7
1
1
4
2
-5
-24
-6
1
-2
3
-2
0
-2
1
14
2
-2
-8
-2
2
6
4
0
2
-2
-1
3
1
-1
6
-18
-8
-4
0
-3
1
4
60
20
5
4
3
-2
-7
-13
-90
-6
1
0
-6
0
-2
-1
-11
-2
0
1
2
-2
-4
1
3
-24
-13
-6
-2
-1
0
-6
-42
20
-5
-2
-1
-2
6
10
16
20
22
6
2
1
-2
3
2
4
3
-2
0
2
-4
-5
-19
-11
-1
-2
-3
-1
3
0
-5
-19
-3
-1
2
1
2
-1
-7
-17
-17
-7
-2
-3
-4
4
10
40
17
6
2
-1
-5
-3
21
-2
-6
-6
-4
-2
-4
-6
7
17
6
0
-2
0
-3
-2
7
-19
-11
-2
-2
-1
6
3
-4
-7
-2
-2
-1
1
-3
3
46
5
-5
-2
-1
1
0
-4
-17
-12
-3
-3
-1
-2
-1
3
5
3
1
-1
-2
-1
-2
0
11
-3
-5
-1
-2
-2
-1
2
4
-2
2
-1
1
0
3
4
1
2
1
2
2
0
-5
-8
-21
5
2
-1
-4
-2
5
9
23
4
-2
-4
-1
2
-5
-21
-45
-17
-7
-6
-2
-1
-3
11
-10
1
2
2
-1
-4
3
3
9
5
-1
-1
1
2
2
4
44
7
2
3
-2
-2
-8
-8
-64
0
1
-13
-8
5
-6
-13
-68
-17
-5
-14
-4
-8
1
-2
46
5
2
24
5
-1
-5
-2
-4
-6
-3
-1
4
-1
5
15
43
10
0
7
5
-1
2
-3
8
12
2
-5
0
1
-4
-4
-53
-9
-4
-12
-7
-3
2
-2
-13
-1
-1
0
0
-1
1
5
47
-1
-1
-2
-1
1
-1
-3
-8
-5
0
0
-3
1
-5
4
14
2
1
-4
0
-1
-3
-7
-24
-12
1
6
3
-1
-1
3
6
2
0
-3
-7
-3
-1
-7
-32
-4
-1
6
-2
1
0
3
54
13
2
-2
3
1
-4
-2
13
-1
-2
-6
-3
-5
1
4
-10
1
-2
1
1
-2
6
8
15
10
2
5
2
2
-11
-31
-37
-29
-6
-3
-3
0
-2
-4
-43
-8
-2
-5
-2
-1
1
-3
16
-6
-2
6
3
-4
-2
3
40
7
2
3
2
-1
6
15
5
16
3
-2
2
-2
-2
-16
-22
-8
-3
-1
-3
-2
-3
0
-6
-6
-1
1
0
1
1
4
58
12
1
-4
0
1
-4
3
-12
0
-5
-2
-3
0
-1
1
-2
-1
-3
-2
-2
1
-3
0
-26
-3
-3
-13
-5
-3
-3
-4
-17
-5
0
7
-4
-4
4
-1
24
-1
0
6
2
0
-1
0
0
-7
0
2
0
0
-2
4
67
12
-2
1
-1
0
-8
-17
-81
-20
-6
-9
-7
-2
5
9
12
2
-4
-7
-1
-3
-4
-9
-3
-6
-3
1
-5
-1
1
0
2
-6
1
-1
2
-1
-1
-1
-24
5
1
4
4
-1
1
5
29
3
-1
-2
-3
1
2
5
9
1
-3
-4
-1
0
0
-5
-34
-5
0
0
0
-1
1
0
35
5
0
2
1
0
-3
-2
-34
-10
-5
-2
0
-3
-2
-1
10
11
7
0
0
0
-5
-4
-25
-5
-5
-1
0
-1
-1
0
34
3
-1
-2
2
-2
0
-1
15
-4
4
0
0
-1
-1
4
-1
13
-4
0
-1
1
-1
-6
-36
-7
0
0
-2
-3
2
0
-14
-6
-1
0
2
-1
0
-4
-17
-5
-3
-2
-1
-1
4
12
102
7
0
1
3
0
-10
-18
-83
-12
-5
-3
-5
-1
-1
4
19
0
-3
-2
-1
0
0
-2
-16
4
-1
-2
0
-3
1
-2
-4
-4
-1
0
-1
-2
1
5
42
0
-3
0
2
1
-2
-2
15
6
3
1
-2
-1
-3
-5
-17
-5
-4
-3
-1
1
-1
1
-2
-5
-3
-2
0
-1
1
4
50
7
-1
2
2
-1
4
2
-69
3
7
6
4
1
-9
-16
-42
-6
-5
-7
-7
0
0
-1
19
-5
-5
-2
-3
-1
2
1
-24
-15
0
0
1
-1
2
3
59
-3
-2
-2
-1
0
4
14
41
28
4
2
3
-3
-5
-14
-80
-13
-3
-1
0
2
1
4
111
10
-1
-3
-2
-3
-2
-4
-100
-7
2
-1
1
1
-2
-3
-7
0
-1
-1
-4
-2
1
5
-17
-19
-5
-1
0
-2
2
0
35
13
2
0
-1
-1
-3
4
-17
24
-3
-5
-4
-1
-10
-29
-98
-50
-10
-6
-4
1
-2
1
-4
7
-1
-1
-1
-2
9
18
37
0
4
6
7
2
-3
-2
4
17
6
0
-1
10
-11
-10
39
-20
-15
-14
-11
-13
14
17
63
-2
10
11
15
-18
-10
-21
-92
24
9
5
-3
58
-4
3
127
-38
-35
-29
-25
-20
18
40
127
49
18
12
13
13
-13
-25
-50
60
34
22
9
-65
-1
17
-48
-75
-43
-35
-23
80
25
55
92
103
24
14
8
11
-4
-54
-128
-107
-5
11
21
33
-12
28
127
64
-35
-48
-35
-26
-6
14
56
67
27
23
-25
-76
8
-8
-114
30
28
39
86
-13
-35
-72
-5
-21
-31
-29
-24
31
33
69
80
-47
4
11
13
57
-10
-62
9
4
-1
-12
-8
-43
-6
-64
-67
16
-4
5
-19
24
12
67
-29
-16
8
11
4
-37
-18
-10
-15
-24
-7
-7
0
-1
24
-41
19
57
23
14
14
68
-31
-16
90
-88
-47
-45
-45
-14
-36
64
103
84
5
2
9
-38
-16
-84
-81
-31
-21
-15
-30
7
30
85
98
54
28
24
36
-62
-14
1
33
9
-3
-9
-6
42
42
12
-53
33
7
1
1
27
-4
-89
-53
-55
-7
-6
-6
-10
-3
46
38
26
3
7
18
-7
-12
7
-42
-52
4
7
3
49
-16
25
-7
-40
-30
-33
-35
-81
27
35
83
125
42
41
35
10
-23
-85
-128
-7
-20
-18
-15
-7
19
45
97
-6
1
4
-1
-19
9
-15
8
113
18
15
12
43
-19
-31
-114
-124
-36
-27
-20
4
-3
-15
-13
10
-5
-16
-6
4
-3
8
-27
-24
-1
15
-5
-71
62
20
10
84
57
54
47
36
-1
56
37
74
-7
-13
-9
20
-33
-49
99
-128
-42
-27
-24
-7
19
-2
104
53
23
13
18
-23
11
-46
-47
-57
-3
6
4
35
-17
-31
-87
-20
-3
-9
-21
23
15
41
48
-28
-9
-10
7
-10
15
21
7
26
5
-6
-3
15
-6
12
127
23
14
24
15
-11
-21
8
74
-29
-32
-27
-33
-42
3
1
5
-11
-9
-5
7
-17
-17
-44
-57
5
2
8
8
13
-8
-3
40
-27
-15
-33
-14
-2
17
27
-1
-2
21
30
23
-7
25
16
-121
60
28
31
18
11
-53
-22
-76
-42
-39
-45
-53
-26
-5
-53
-67
-109
-22
-14
-10
14
-1
-3
50
56
25
19
22
36
-31
15
-87
-36
-17
-15
-24
-65
9
7
-86
-37
3
1
4
-6
-8
11
9
-15
-4
-2
-6
-13
2
0
-24
62
14
7
13
-13
6
-44
-56
-70
-7
6
4
23
31
49
89
67
-8
-15
3
23
-29
53
94
30
-7
-4
-17
-46
11
25
-8
0
3
15
8
1
-5
-14
37
7
16
14
6
11
22
37
103
25
16
22
26
-7
-5
-74
-90
73
-3
-25
-31
5
6
-17
40
-55
-13
-11
0
22
16
13
54
57
9
2
0
0
-13
6
-89
7
23
23
17
15
8
-40
52
30
-16
-16
-14
-52
-8
25
48
36
6
2
8
-8
10
41
-18
0
-7
-8
-10
-3
-25
-91
-41
-34
-3
-12
-23
12
11
56
-18
12
4
14
28
-7
13
34
-113
-78
0
5
6
-6
-44
-39
-10
111
-8
-7
-17
6
16
41
106
-58
-5
-5
-14
10
-12
-9
-69
-51
7
6
-1
7
-2
-78
107
16
-16
-15
-7
-19
-2
94
88
97
14
6
15
69
-18
-64
-21
-68
-18
-19
-23
-28
-9
-20
2
-41
-14
-9
-10
1
40
127
105
127
44
33
35
13
6
-62
-58
-93
-5
11
-1
-13
-18
-23
-7
-1
-25
-28
-28
-12
4
17
83
23
9
13
32
5
5
21
15
78
8
-1
-2
9
-5
-22
-47
-68
-5
4
8
-21
-15
-1
-125
22
-13
-4
-11
15
-2
-23
0
51
-6
-8
-15
-32
-8
-22
4
-22
-3
-5
10
-20
-6
78
20
-12
7
11
-2
-10
50
-37
-10
104
29
32
41
9
2
40
26
-77
-6
-4
-18
26
-50
-50
12
100
-25
-36
-36
-4
9
-45
96
5
6
-1
3
-15
10
4
90
84
28
19
20
20
-5
11
-83
-56
-41
-14
-9
-25
-14
-49
68
3
-26
-15
-19
0
10
8
-6
4
1
-3
9
-6
-14
74
74
107
-1
-12
-14
-25
27
24
-32
-45
24
16
13
28
12
-34
-128
-128
1
9
9
24
-31
-36
93
-27
-32
-26
-25
-34
-15
-67
-86
-116
-11
-7
-4
-14
5
5
63
52
14
9
7
19
4
-5
28
-53
12
14
12
-10
8
-6
-102
-30
-3
-11
-8
13
0
64
91
-22
-9
-4
-3
-7
-24
-65
22
34
2
-4
-7
-1
12
21
21
-79
-11
-2
0
13
9
34
85
119
23
9
4
0
16
36
77
-77
-5
6
13
19
8
-4
-105
-89
-7
-1
1
-15
-14
1
-50
97
4
-4
-9
-18
-7
18
-82
-48
-9
-10
-14
-3
-15
71
11
66
-14
-14
-15
-16
11
16
-30
44
16
10
14
15
-11
-99
-128
-34
3
8
1
14
1
26
121
68
1
-8
-5
-31
25
2
0
-14
-3
4
11
-23
-18
82
101
37
9
3
-1
38
-45
-6
60
-40
-33
-31
-35
-19
8
-20
16
46
18
15
10
-5
18
-26
107
-80
-1
7
19
16
-31
1
-11
105
-13
-24
-26
15
20
49
62
24
7
6
3
-49
28
34
107
80
22
18
17
33
-59
-97
-128
-113
-27
-27
-35
-31
10
-8
90
-11
-4
4
-11
5
17
5
2
39
4
8
28
22
-25
-34
60
-60
-20
-17
-14
-4
9
-7
-90
75
25
19
15
-1
25
63
121
68
12
4
8
-14
-28
-1
68
-7
-10
-11
-21
17
16
68
120
-4
-4
-4
8
-16
5
-19
3
-11
6
4
1
-8
4
-10
-6
28
9
5
8
-16
4
-42
-78
-8
12
11
7
16
-36
-55
-116
-128
-42
-24
-16
18
3
42
43
124
3
-5
-12
-17
-5
-44
-76
-55
-7
-1
2
9
13
41
7
127
28
14
9
-30
15
-27
-116
-103
5
15
17
20
5
39
-114
11
-7
1
4
47
-33
-23
95
-53
-16
-22
-16
-39
31
56
59
-19
9
14
16
25
-13
16
-39
24
20
20
10
-34
-15
5
73
-43
-17
-24
-20
55
31
17
-75
-9
-7
-1
7
-4
-26
-4
-21
-39
-11
-9
-11
-1
22
-51
-99
100
25
19
15
-31
27
93
5
-56
5
10
18
21
-37
-85
-66
-99
-34
-39
-44
1
1
72
40
-34
-15
-10
-9
-18
17
58
73
27
-1
3
9
40
18
42
55
48
27
23
21
-35
-4
-32
74
101
37
31
20
10
14
51
86
-25
-36
-30
-17
6
10
21
84
51
1
-4
-3
-5
-12
-94
9
15
8
7
-3
9
-28
107
-3
67
-12
-8
-8
28
-3
-77
43
-45
-8
-12
-14
-23
-6
38
10
-4
-7
-6
9
11
16
-21
27
16
3
-2
-5
-29
22
25
106
44
16
17
21
13
10
58
-69
22
17
9
5
17
-24
-17
54
-37
-37
-36
-34
-8
-2
-12
71
4
2
3
7
1
13
28
-9
56
14
12
8
-31
31
16
14
-82
11
16
16
69
-20
-61
91
64
12
-2
-13
-68
-29
-92
-53
-71
-18
-7
1
-9
-1
-35
37
6
-2
1
5
-19
39
9
-103
53
25
19
14
-27
-18
-11
38
-104
-14
-7
-10
92
-28
-28
10
92
-10
-13
-16
-28
4
-7
16
-7
-5
-5
-4
-11
-3
18
102
80
20
22
22
7
-14
-62
-128
-75
-18
-7
-9
-16
10
50
18
20
1
-8
-15
3
29
-11
59
-6
18
15
27
34
-31
-4
33
-54
-25
-19
-12
-15
-5
36
84
91
8
6
5
19
-17
69
-35
-9
2
3
-9
-32
-22
-51
24
-42
-26
-28
-22
-19
3
-37
-36
10
-1
-4
-1
-2
16
29
-60
5
6
2
-4
15
41
21
124
112
31
19
22
-20
-42
-52
-128
-95
-60
-22
-30
-8
-31
-22
63
106
-12
-13
-43
-71
22
31
127
78
10
9
58
20
-20
-110
-40
-22
-3
12
14
-8
8
44
-34
-6
32
24
36
5
29
48
73
-65
-30
-25
-19
50
-4
-19
-99
7
1
1
-16
-30
34
59
-4
-4
9
3
5
21
9
68
86
97
38
25
-8
-32
-54
-117
-104
-112
-55
-45
-75
14
19
6
44
37
6
11
68
-12
-12
-45
-10
-36
-11
-9
35
26
25
0
119
103
37
21
17
-40
-35
-38
-99
-15
-23
-6
-29
2
-39
11
-48
24
-13
-20
-51
-27
-8
-25
-18
4
-18
-8
-16
9
50
-30
-23
127
24
13
31
15
-66
-58
115
-43
12
0
-16
-64
44
-42
49
-103
-29
-13
-2
-16
-1
23
19
-23
-10
-11
-17
-4
-14
7
-104
-56
1
-2
-44
8
35
36
52
81
27
18
67
11
-7
-54
-32
-6
5
8
-57
5
2
26
42
-26
2
0
44
33
21
35
-53
-54
-1
9
13
29
28
47
70
65
9
4
75
24
-43
-76
-58
14
-5
-17
-50
-37
1
-21
-106
-4
-5
-1
-47
7
-17
-27
6
-88
-22
-5
37
16
15
67
59
-24
1
1
-10
12
19
41
-32
79
23
10
11
10
-15
16
2
10
9
0
-42
15
-32
-61
-108
39
-35
-33
-30
-63
9
46
32
0
3
8
6
-49
32
-15
-29
-35
-4
1
-14
40
-15
-8
-50
-36
-16
-7
17
47
12
46
62
116
27
9
14
16
32
-24
-5
-15
23
24
34
14
-47
0
26
-50
-43
-44
-37
-6
20
16
94
23
-2
-5
-67
-33
-11
13
29
-26
-4
6
30
10
50
-33
-52
127
40
34
64
17
-13
126
97
-28
-1
10
57
34
-35
-11
40
-38
-19
-18
-9
-41
12
56
21
8
17
8
-39
-8
-42
10
-5
-70
-31
-35
-54
5
-2
-27
-88
-50
-4
0
-25
-14
13
-28
-31
27
5
6
17
-20
15
15
56
44
7
1
-1
8
7
-20
-101
-62
7
18
43
21
-22
-2
79
120
-4
-16
1
-50
27
-22
18
49
6
11
9
-34
-18
-100
-70
-42
-14
-7
-26
28
-9
64
-33
-7
-10
-8
-9
3
12
42
66
-6
12
9
10
17
-4
50
34
20
-7
-15
-23
-38
-5
20
-3
-37
5
-6
-44
9
6
-58
-80
2
-7
5
52
6
14
-26
-81
-11
8
9
-56
51
21
88
49
33
10
25
120
53
-27
-77
44
25
-14
-15
-42
-23
-14
14
-67
48
-1
-9
-11
11
0
34
57
0
14
4
18
-7
3
15
122
-39
-1
-3
-31
11
3
10
108
-31
-18
-16
-13
-17
-10
-1
54
38
4
-4
-17
-5
32
-21
23
51
21
28
45
-7
-22
-89
-93
12
-15
-18
-60
6
2
43
-59
-98
-28
-21
50
23
23
25
64
63
16
18
-34
-20
-1
-2
-67
-19
18
23
48
-1
5
-10
-44
-59
-15
-3
18
25
-18
-44
-59
-55
-27
-36
-34
-19
21
37
56
23
14
5
-8
-5
0
7
13
29
10
8
-2
10
-10
-11
-27
3
9
8
3
-24
7
-5
15
32
9
9
16
3
-13
-4
-29
-12
-5
-14
-12
6
2
-35
18
11
-4
6
-3
-10
-8
-5
-17
-52
0
3
27
-4
-1
2
31
-46
-13
-6
-10
17
-42
-42
28
-11
-6
-6
-28
-21
1
12
-23
-32
-12
-12
16
-1
2
-9
14
56
10
6
1
-8
9
17
1
13
7
4
10
-2
-5
-30
-36
-27
-12
-11
-14
-3
0
4
-16
-11
-4
1
1
4
-3
18
14
70
10
3
-6
-7
-1
11
6
-34
3
4
11
-1
14
16
17
-26
-1
2
0
-3
-2
3
58
35
-7
-12
-25
-2
0
-4
10
12
-1
-3
17
3
0
1
-11
11
1
2
0
-1
2
-22
-41
-8
2
5
5
-3
-11
-5
45
-24
0
-7
-7
-6
-4
0
7
0
3
-2
-11
-3
6
7
-7
12
1
4
6
0
1
-1
-17
-7
-9
-4
1
4
1
1
-57
-10
1
-1
1
-1
-2
3
17
-10
-2
-4
-6
1
2
4
17
1
-1
3
4
-1
-3
-4
1
27
-1
-2
-8
-1
0
2
-22
-11
-7
-4
-5
0
2
-2
-3
-11
4
3
1
-1
-2
5
-32
11
1
1
0
0
-3
-3
17
-1
-1
-2
-6
-3
0
-3
-42
-5
-2
-2
2
1
-2
7
-4
-3
-1
-2
-5
-2
-3
-2
42
7
-2
1
3
-2
-3
-6
-6
5
0
-3
-5
2
0
-3
4
-8
0
-2
3
1
-4
-10
-6
-9
-4
-4
-3
-2
2
3
8
5
-10
-2
1
-1
0
-10
21
21
14
6
3
0
-5
-1
56
-14
-5
-6
-7
-3
-6
-7
-14
-7
-2
-3
-7
-5
1
3
7
10
3
2
6
3
-4
0
-3
-6
-3
-5
-3
0
1
1
26
7
-2
0
3
1
-4
3
-35
-4
3
-6
-7
0
-6
-2
-52
-11
1
-11
-11
-5
-3
-9
-12
-5
-5
11
2
2
0
1
-12
-2
-3
1
1
-3
-1
0
22
-2
-2
8
4
2
-1
1
-27
-2
1
-3
3
1
-3
-12
-20
-5
-4
-9
-7
19
-32
-8
-42
-9
-5
-14
-11
-15
3
5
13
1
-1
5
2
-4
1
0
-15
-1
0
2
-5
2
0
5
27
1
-1
-5
6
-3
13
11
96
15
3
7
10
15
-18
-29
-100
-20
-9
-8
-7
13
-1
-1
12
-9
-4
-9
-3
-9
-5
-2
7
-7
-1
12
-2
-1
4
-5
-27
-9
-4
1
21
-1
5
8
58
9
1
0
-12
-8
7
1
-28
5
4
2
1
2
-1
3
48
5
-4
-12
-4
-2
5
6
23
3
0
-4
-3
-2
2
0
-19
-6
-2
4
-1
-1
-8
-8
2
4
0
8
7
2
6
-1
-23
-11
-1
-10
-10
-7
-12
-7
-29
2
2
8
-5
-4
1
0
24
-2
-3
-7
3
5
0
2
41
9
0
5
3
-4
2
0
-6
-1
-2
-2
-1
-2
7
13
1
3
0
-2
0
-1
0
-3
-1
13
3
-2
4
-2
-9
-12
-47
-26
-5
-2
-3
-2
0
1
20
4
-1
-3
-5
-2
6
-6
-23
-2
-3
-6
-6
3
3
17
34
5
1
6
11
-5
6
5
68
11
1
0
-7
-3
-9
-12
-82
-5
-1
-2
2
0
-7
-13
-36
-24
-5
-5
-8
-5
2
0
0
-4
-2
-6
3
2
2
9
49
11
3
3
1
2
3
6
30
-1
-1
4
2
-2
4
1
-3
11
3
5
4
4
2
-4
-16
-1
0
0
-2
-5
-4
-3
-26
-15
-6
-8
-4
3
-4
-1
41
7
-2
-2
3
-3
3
-1
-27
-4
-2
2
-2
0
-3
2
34
4
2
-2
-1
-2
-3
-13
-79
-3
2
1
5
-3
-2
-3
7
-5
-1
6
-7
-2
2
0
-1
3
2
0
-1
-1
2
8
29
0
-1
-2
-3
-2
-3
-12
-7
2
-3
-5
-2
-1
-1
-1
-7
9
0
-4
-2
-1
-3
-1
-10
-5
1
-1
-3
0
-2
-2
-14
-18
-1
-1
-1
-1
-1
3
26
-1
-4
1
-1
-1
-1
-3
-12
-6
0
1
3
1
-1
-7
13
4
2
-1
-1
-1
0
5
-51
-1
-1
0
-2
0
-1
0
1
6
1
1
0
-2
-10
4
-2
-3
-2
-1
1
-3
0
0
16
-3
-2
-6
-4
-1
-2
-5
2
-2
-1
-2
-2
1
5
7
12
1
-2
-1
2
1
1
1
-5
1
0
-2
-1
-1
-2
-4
3
1
3
2
2
-2
-6
-8
-12
-2
-6
-4
-4
-1
1
8
11
-4
1
2
2
3
1
-1
16
-4
2
0
0
-2
4
4
-2
2
1
2
3
-1
2
1
-9
-15
0
1
1
1
-4
-3
67
10
0
-1
-4
-1
0
-6
-60
-10
-4
-1
-3
0
-2
5
43
-4
-6
-3
-2
-1
-5
-16
-20
3
-4
-3
-5
-1
-3
4
46
12
-1
-3
-3
0
-1
-1
-16
-10
-2
-2
-2
-3
1
1
6
2
-1
-1
-1
-2
2
2
11
-11
-5
0
-1
0
-1
-3
-18
22
13
6
1
0
0
-4
28
2
0
0
1
0
1
-1
-28
-3
0
-2
0
1
-3
-1
-14
-3
1
-1
-2
-4
-2
-1
-31
-9
-8
-5
-2
0
0
4
8
-2
-3
-2
3
-2
0
-3
-2
3
-1
-2
0
0
1
4
13
7
0
-1
-1
-4
0
-3
-17
-11
1
-1
-1
-2
-1
1
10
2
-3
-3
-5
0
0
1
-25
-8
-3
2
1
0
-1
-2
28
-3
-4
-1
-1
-1
0
-3
-14
-7
-6
-1
-1
-2
1
1
18
13
-1
0
1
-1
0
-7
-39
10
13
6
3
0
-1
5
-26
4
0
0
0
1
-1
-6
8
-3
0
0
1
-1
-1
-3
-12
-11
-6
-4
-2
-1
1
-3
47
20
1
1
0
0
0
0
-61
-29
-9
-6
-1
-1
-3
-8
19
-15
-4
-7
-6
-1
3
7
22
9
4
5
1
5
0
2
-20
-10
0
0
5
-3
3
-7
116
32
5
3
-3
-27
4
-5
-112
-14
-8
-7
5
55
-9
0
-10
-13
-4
-10
-8
-7
-1
9
119
21
0
2
-24
16
26
-1
-66
30
20
26
48
8
-23
-17
32
-62
-17
-21
-16
-49
19
36
110
81
2
-9
17
-20
-4
2
-128
-110
-10
4
-5
-1
-13
-28
125
9
-1
-4
1
36
53
12
-8
95
28
17
16
3
-27
-34
-119
-104
-22
-14
-47
-9
9
18
59
17
-7
-9
32
38
-24
33
-2
-5
0
-10
-5
-3
-5
15
18
66
23
32
-74
-24
6
-37
-27
-23
-13
-1
79
-59
9
5
75
115
22
20
36
-10
4
4
-107
-112
-20
-11
28
24
-31
4
127
-72
-28
-46
-78
53
-29
21
45
117
54
37
60
52
-7
-80
84
-128
-70
-28
-17
-97
26
-4
86
123
18
17
-9
14
27
78
65
33
22
20
42
8
-26
-43
-97
-42
-23
-31
-70
-10
-14
-10
11
62
19
6
17
-16
-6
-35
-61
27
8
8
-31
-9
-4
68
80
38
4
13
42
-33
-20
-47
-37
-30
-35
-27
-29
30
11
-4
-26
48
12
4
-14
31
-15
14
-28
-6
-9
-21
-38
-86
-1
-68
55
29
7
17
18
80
32
34
-56
25
12
-3
67
38
-8
54
-98
-42
-9
-9
-55
-61
16
31
14
-59
10
26
7
51
-15
-44
29
87
-19
-22
38
-8
18
13
8
-25
2
8
-21
-24
15
41
-34
4
16
11
26
45
-35
5
-33
-51
-2
-6
-5
-63
10
42
-50
-35
-14
-9
-14
52
-3
-43
-2
-14
-8
-8
-48
-8
7
70
63
37
20
9
-28
35
-10
-80
75
-23
-21
-35
31
-17
-14
36
42
15
1
26
43
14
12
7
86
4
22
40
11
-83
-12
-26
-45
-55
-24
-17
28
6
-11
-39
22
12
-10
-10
-37
-8
19
-49
-32
5
10
-5
-8
-7
-21
79
-16
-86
-11
-6
-48
42
7
-48
-1
127
7
12
56
-50
-7
76
-20
2
-16
-20
-49
91
9
1
-25
19
13
0
34
-23
-12
22
-28
-29
5
12
-2
-29
15
-16
-21
-72
-15
-19
-29
-8
-30
11
73
61
1
-3
14
-20
30
4
-124
-33
7
8
17
-13
11
6
-10
34
13
6
-1
29
-77
-68
-64
-62
-43
-43
-106
-32
7
4
78
31
-5
1
58
17
-16
-63
-52
-19
-9
-7
-19
-43
4
-9
64
31
-5
-7
3
-11
28
103
49
120
47
35
-1
18
10
-47
-66
-76
-14
7
50
30
-37
-17
-14
-14
-39
-32
-50
-15
16
-39
41
85
4
5
80
8
57
97
83
54
37
29
15
68
-35
-14
-36
-30
-22
-29
-96
-33
4
-64
61
-35
-10
-3
33
-30
-14
-34
-3
5
-8
1
15
-16
7
-5
12
2
6
2
26
14
26
5
12
93
20
11
-10
1
-18
-20
-55
-44
2
-11
-42
40
24
32
84
-59
-5
-10
-43
-78
-14
-24
30
21
-24
-4
-41
40
20
-23
53
78
20
2
55
26
-26
-41
-25
-43
-22
-1
-24
-11
24
67
87
5
13
6
38
-42
-1
-44
-127
-117
-1
-2
8
-16
19
88
116
70
5
1
-44
-24
-15
-25
-61
-18
-5
-4
8
-2
-5
-38
-96
68
6
3
-2
38
3
30
-27
45
12
12
20
-1
-19
-28
20
-46
-30
-25
-17
-14
16
19
112
69
12
3
-9
-7
1
71
81
67
10
5
-44
-51
-7
-102
-44
25
1
1
53
81
-5
64
-60
-73
-1
23
-29
-2
-10
121
83
44
-9
-13
23
-24
-19
-75
-108
-19
-13
-21
-64
6
16
55
73
77
16
8
3
0
32
-3
7
-42
9
29
79
-10
-43
-74
-128
-112
-15
-7
-10
1
-7
-13
123
5
-4
0
52
47
-23
-58
50
-5
-8
-25
-31
-28
6
24
13
46
11
8
-16
-25
5
-4
-60
-51
-12
-14
-14
19
23
-21
16
-36
-16
-11
-15
38
-28
28
5
-51
-17
-13
-16
-13
67
12
79
89
47
39
47
-6
-55
-14
0
-24
-27
-25
-31
13
-14
-3
-36
10
-13
-13
-18
-16
-6
-52
-3
-20
-15
-26
-42
-10
21
28
-27
13
10
18
80
19
37
56
40
69
35
30
7
22
-28
-61
-128
-28
2
27
8
57
-5
38
94
-98
-27
-15
38
-46
-11
-3
8
88
5
-11
14
59
38
-2
67
45
12
5
14
-55
-21
77
-19
13
2
-9
-38
56
31
1
-5
48
26
15
-14
0
-37
-36
33
-41
-23
-25
-29
0
2
-61
-8
7
-7
-1
-21
-12
20
31
-26
-20
16
13
8
-5
19
79
72
83
16
12
24
15
-39
-44
-128
-55
-36
-33
-55
-5
15
71
72
-6
6
18
37
-14
-3
-57
21
50
8
3
-10
-15
-9
-104
-128
-128
-13
-6
-19
-23
6
62
100
85
18
12
57
48
-26
-66
-115
-5
-10
-17
-23
-1
28
3
58
3
-9
-5
41
15
-32
-63
-32
15
4
14
-33
-35
29
68
61
35
8
9
-16
-5
15
-20
-41
11
22
24
19
11
-66
78
127
62
-15
-29
-50
-74
15
-105
-101
-76
-33
-38
-31
-24
5
-31
-33
-19
15
5
-19
-11
24
115
-10
80
20
19
20
-50
23
-59
15
-25
-23
23
122
41
-24
63
-20
44
-1
-3
-7
15
-9
-15
-3
-12
-3
-3
-29
-16
6
23
-118
4
33
17
48
-1
-4
-70
29
-24
-10
-25
-110
16
4
85
92
29
-7
-5
-16
-34
-10
-58
-60
-53
-10
-12
-13
-4
-17
-41
34
30
4
-12
-48
-25
26
25
-17
23
7
23
57
47
-8
-20
-24
89
24
19
67
50
-7
-10
30
-123
-45
-22
-34
-27
26
46
127
118
-12
-35
-70
50
-21
12
-52
53
17
28
-40
-87
29
8
39
63
15
28
89
100
-37
-54
-7
-21
-19
-16
36
-43
-2
-8
68
-41
-14
-21
1
-5
14
11
0
-10
-6
-34
-120
-39
14
64
22
85
35
50
17
2
6
3
-114
-44
2
19
96
76
-11
-72
-21
-40
-15
-1
43
14
32
51
-23
88
15
-25
-15
-12
-78
-80
-64
-40
-19
-37
-128
-82
28
6
37
90
29
25
-22
24
-3
-5
-82
-128
-43
5
44
-16
-2
-2
73
53
12
39
82
91
5
-60
-69
26
7
-2
78
-17
-8
39
79
-11
-14
-34
-128
-26
-19
-43
0
90
13
11
-12
12
-9
-15
-60
-128
-22
-11
27
-3
6
30
86
13
-4
-16
-55
-12
10
44
8
23
18
10
-23
-73
-5
-15
4
-39
-8
-9
-64
17
-40
14
25
-71
-33
-37
-109
39
19
53
52
-25
-4
17
106
13
-9
-36
-107
43
23
21
23
-31
11
1
-35
26
-7
5
22
50
2
37
58
41
14
3
26
2
-48
-48
-88
-65
-29
-31
-128
-60
-3
-51
-67
-60
-21
-5
37
-14
20
33
5
62
18
32
5
29
20
-10
-70
75
43
34
120
5
-8
101
127
11
-39
-36
-78
15
11
-77
-88
-48
-24
-24
25
2
-10
13
63
-25
-1
-9
30
-31
24
20
38
58
17
9
-34
-20
25
65
74
98
48
58
28
2
-50
-86
-29
-79
-60
-55
-72
32
-12
28
78
8
-8
-15
-26
-40
15
-1
57
-3
4
8
51
14
28
-17
3
33
14
-7
-33
9
4
55
-28
77
29
39
32
5
-28
-33
99
57
-10
-16
31
15
-16
-19
-128
-110
-38
-54
-98
27
25
37
-11
-2
1
46
83
39
-20
0
-49
77
32
16
-6
-69
-5
82
14
-74
1
7
-23
31
-21
-68
-72
-28
-15
-15
49
-23
1
-45
-44
-6
-11
-28
-12
-4
27
62
45
-16
10
18
-41
17
16
0
12
105
30
22
20
31
13
89
58
-51
-11
2
25
-38
-41
-123
-108
-128
-45
-21
-75
59
2
12
127
110
6
-6
92
0
12
0
-33
34
4
8
-49
-12
33
86
121
58
35
24
26
19
-29
-56
-62
-81
-30
-23
5
-81
-19
-3
33
0
-8
-15
-14
32
13
23
-30
21
0
-10
-6
-32
26
-30
-5
102
15
9
14
24
-27
30
-22
-86
3
8
-23
-44
1
-21
-60
-7
-4
1
-4
56
-5
21
92
-28
-3
-6
63
-57
-26
-119
-54
-14
-12
1
-11
12
24
47
12
79
26
12
44
107
1
89
102
-69
-4
-10
-65
-78
-15
-46
5
-43
-10
-19
-51
10
-9
-25
-42
-65
-9
1
20
5
-7
-19
34
71
7
-2
-79
-74
20
31
21
107
26
29
42
11
-5
-30
39
-51
-14
1
-48
-4
-12
-1
110
65
-11
-12
59
8
13
18
52
18
4
-4
34
9
37
65
-78
9
18
13
-6
18
-68
-102
-123
-115
-38
-28
-56
-50
-19
2
-56
10
-15
-20
-70
-20
34
64
41
22
4
-9
60
24
-1
-20
14
50
21
30
-7
23
22
27
15
31
30
25
24
-7
-27
-3
3
-72
-43
-30
-128
-67
14
-28
-44
-38
1
-3
115
31
-6
27
60
19
-3
-21
-32
-24
30
33
107
51
28
26
48
9
-22
-59
-77
6
-17
-2
-78
40
0
73
86
-17
-11
-15
53
-34
-7
-55
17
-28
-13
-8
5
24
18
38
-51
127
42
28
-3
-6
-21
-21
8
-39
-10
-14
-11
-22
-9
4
-59
-21
-14
-10
-54
4
-13
-15
-12
-5
-7
-9
-14
-12
18
44
-39
-13
5
-1
-17
-2
17
-2
-45
60
34
25
-4
-20
-53
35
-66
-66
-37
-37
-71
30
-11
-109
83
24
1
10
72
-8
-3
19
15
-10
-10
-8
-53
29
39
37
67
97
20
39
127
50
-25
-37
-38
-27
-12
-5
44
-10
-9
-7
-68
28
-6
-16
-120
30
17
3
-62
-30
-8
-14
61
-31
18
34
127
95
21
12
1
-2
-20
-100
-55
-40
-17
-14
-63
-40
2
4
50
-42
-13
1
-6
17
17
45
99
80
2
5
11
10
9
34
-6
-71
1
-4
-13
3
19
8
106
92
29
22
26
-15
-1
39
31
1
1
-4
-23
17
-51
3
-25
4
-30
-41
-50
-76
42
30
29
37
16
24
31
12
-9
-36
-28
-13
6
14
4
20
-16
-36
-122
-45
-3
2
28
8
18
40
70
52
10
13
37
2
-29
-13
-12
-38
-8
-19
-28
-23
14
-11
28
43
3
3
-27
-1
24
44
1
20
12
9
26
-6
-31
-110
-121
-127
-33
-23
-24
30
-13
4
-24
-30
-5
-12
-28
-31
27
11
28
21
9
25
75
53
1
1
-15
3
-2
-2
24
-16
-3
4
-16
-41
2
6
-19
21
-8
-4
38
25
0
-11
-19
-1
7
15
-19
27
8
9
8
-14
-8
11
37
-18
-12
-8
-6
-11
-1
-11
-56
-13
6
9
13
14
-2
8
-75
-4
-1
1
6
-8
5
2
68
40
8
-11
-28
-20
-6
-12
-6
-11
-9
-6
-33
-6
12
-3
-5
-14
-17
2
39
17
-11
-4
-43
41
35
15
35
6
-1
8
0
-33
-9
-9
-21
-4
1
-5
76
47
1
-6
-6
-11
-3
-14
-81
-82
-9
-5
-9
2
-3
-7
62
-22
-18
-6
0
4
8
1
32
-34
-15
-5
-14
-6
-13
-10
-46
24
15
4
4
-8
6
9
61
65
10
2
11
0
-2
6
30
11
-6
-1
1
3
-2
-1
-31
-6
3
-1
-8
-5
4
-2
-6
-33
-17
-7
6
-2
-3
-4
-5
0
-2
1
1
4
-5
-2
-22
-27
-5
-2
0
-1
0
9
22
36
0
-2
-9
-5
4
-3
-3
-26
-8
-3
4
-1
-6
-3
34
8
14
6
2
1
-12
-5
1
-9
-5
-1
-3
-3
6
3
10
28
10
6
2
-3
1
2
9
-27
-12
-8
-3
-2
3
-3
19
5
-6
-5
-3
1
0
2
-17
-8
6
3
2
0
-3
9
-16
38
14
6
1
2
-6
-6
-7
-1
2
-2
-2
-1
-1
1
-5
16
-8
-3
-1
1
-5
-5
-28
-20
-8
-3
0
0
-3
4
15
9
-2
-1
-4
-3
0
-2
-1
-1
0
0
0
-4
2
4
0
-9
-2
1
1
1
1
1
58
-5
-5
-2
-1
-2
-3
-6
-86
-7
0
-2
-3
-1
-4
-7
-7
-12
-5
-5
1
-4
-5
-6
13
5
3
1
1
-1
6
2
-24
-8
1
2
0
-1
3
13
88
35
3
6
0
-1
-9
-18
-61
-30
-10
-16
-10
-1
-3
-2
5
13
5
19
14
-1
0
-1
-21
-1
-2
-3
-5
-3
0
-2
14
-8
-3
3
1
-1
0
9
22
8
4
-4
1
0
-5
-6
-12
7
-1
-27
-14
-2
0
0
-8
-10
1
35
6
3
-3
-5
46
12
1
5
18
3
1
-2
22
-3
4
9
4
-1
-2
0
3
6
1
-8
2
3
-7
-2
-30
-5
-8
-21
-6
-6
-3
4
25
-3
-3
-6
-15
-6
-5
-6
-39
7
3
2
5
-1
1
-3
1
-5
-1
-3
-7
-4
0
-4
-1
-5
-3
-2
0
1
5
7
44
2
2
1
-3
-1
4
12
-50
8
4
2
2
4
-9
-21
-40
-21
-4
-2
-8
-2
0
0
1
-6
1
-2
1
-1
-3
-7
-24
-6
-3
-6
-3
-2
3
10
53
13
-1
-3
1
-2
1
7
23
2
1
9
4
0
-4
-16
-14
-2
-1
0
-2
-1
-1
-1
-30
-11
-1
-1
6
-3
-3
-1
55
12
0
-2
-16
-1
3
12
36
10
-4
-5
-5
0
-3
1
13
-1
-3
-8
4
0
-2
-9
-47
-16
-1
-1
-7
-1
2
-4
-7
-7
0
2
2
-2
0
2
21
2
-1
1
3
1
-1
12
-13
1
-1
-3
-3
2
-6
-21
-55
-11
-7
-4
-3
0
-2
-2
-15
1
4
4
2
-2
2
1
28
9
-2
-3
0
0
3
1
-2
-14
0
0
2
-1
1
7
17
3
2
-2
-1
0
-2
-5
1
0
-3
-1
-1
-1
2
-3
-18
2
0
-2
-4
-1
0
-4
-5
-1
-4
2
5
-2
-2
-2
0
-2
0
4
9
1
2
11
45
10
-1
-7
-11
-2
-5
-13
-50
-8
0
5
2
-1
-1
-3
-33
-6
-2
-2
-7
-1
-1
1
21
-3
3
0
-4
0
-3
2
36
21
3
2
6
-1
5
8
8
0
0
-2
3
0
-1
-1
0
8
-3
-8
-4
-1
2
2
16
-1
-3
-2
-2
-2
1
-2
-44
-7
-4
1
2
0
1
1
-18
-4
3
-1
0
-1
-2
-2
11
7
0
3
2
-2
-2
6
14
3
0
-4
-6
-2
-3
-16
-3
-10
-5
-1
3
0
1
2
6
0
-2
2
2
-1
1
2
23
12
-2
-4
-4
0
1
2
18
3
4
-2
0
-1
-2
-7
-59
-27
-3
1
-2
-1
-2
-1
5
2
2
-5
-4
-1
-2
-1
54
2
-1
6
1
-1
-3
-8
-88
-14
-4
-2
-2
-3
-1
-2
53
4
0
-1
2
0
-6
2
6
0
-1
-3
-6
-1
1
-3
-1
-3
3
2
2
-1
-2
-5
5
-2
-5
-4
-3
-2
1
4
-13
2
-2
2
1
-1
0
-2
-18
3
-2
-2
-1
-1
-1
2
31
-10
-4
-5
-3
0
0
-1
-8
11
8
4
2
0
0
1
-5
5
1
-1
0
0
1
3
60
9
0
3
0
0
1
1
-27
-5
-2
-3
-3
0
0
-3
-14
-5
-3
-2
-1
0
-1
1
-6
-4
-3
-3
-2
-1
-2
0
15
-1
3
4
3
-2
0
-3
-8
-2
-2
-4
-1
-1
-1
0
-34
-3
0
-3
-2
0
-1
0
0
19
2
1
-2
0
2
-2
12
-12
2
5
5
-2
-2
8
34
17
1
-2
-4
2
-8
-12
-82
-48
-9
-8
-8
0
-5
-12
-5
-28
-7
-6
-4
-6
1
-2
49
10
3
7
6
-26
9
-16
-80
-7
3
1
-3
85
-3
20
32
67
-4
-6
-7
-67
1
10
3
-37
2
1
7
-1
-10
-2
18
1
-10
-14
-20
-36
11
9
-15
-23
2
0
-95
2
-6
-40
6
-25
-6
7
91
50
18
37
127
67
6
8
-50
91
1
9
-18
43
13
3
82
-28
-55
-9
24
-66
-23
-32
-102
61
14
-58
73
45
-3
21
79
-28
-1
38
64
-25
7
13
110
-18
6
30
-56
100
16
11
-72
5
-13
-52
9
-41
-28
-18
61
1
5
-47
61
-2
15
-3
-51
8
-42
-31
-26
-37
-26
-22
-67
-20
-13
11
9
-86
-21
-18
-16
-24
11
46
71
112
30
16
3
-63
17
32
127
-52
-4
-2
-33
32
13
4
-50
32
2
-3
14
-92
-15
-60
41
-42
-8
1
-23
3
6
-1
5
9
4
4
13
44
5
66
86
80
9
6
34
0
11
-30
-128
-53
8
6
11
10
-2
45
78
-5
-11
-18
-36
16
0
-34
-64
-68
-4
4
30
-36
12
19
59
77
19
17
4
17
-44
-45
-70
-62
-23
-15
-34
0
29
-64
47
24
0
12
34
2
6
61
48
62
32
20
58
38
-14
103
5
17
-23
-40
-87
27
14
-48
-25
-74
-31
-8
13
-7
-7
-20
-9
43
8
3
15
-4
31
64
70
23
14
13
14
-16
-48
-90
-122
-73
-19
-19
-34
-16
17
41
127
85
13
0
25
11
5
2
-24
-3
2
2
-39
65
9
-6
113
70
9
10
-8
-37
-27
-12
1
-50
-18
-17
-37
-3
17
-1
121
61
7
11
73
14
0
21
-47
37
11
8
-25
-10
2
8
-80
-73
-27
-13
5
-21
2
-4
10
35
-3
-5
-52
37
-11
-26
-56
7
6
3
28
3
11
-1
-19
61
16
16
3
-26
-2
-20
61
-44
-6
-9
47
-40
-12
-34
-128
-56
-11
-6
-65
19
0
-35
-3
-15
-2
12
27
28
4
11
-80
-56
-10
-6
43
44
-14
-18
-20
61
1
-9
-20
-23
1
31
13
-95
2
7
12
-16
42
47
95
66
12
2
-13
61
-28
-56
-10
-76
-24
-17
-43
-20
-1
43
-8
2
-7
-9
-52
4
16
-39
59
95
29
33
127
-19
-3
41
-53
-76
1
4
-52
-35
-16
-77
54
-65
-21
-13
61
55
-6
-15
-66
8
-3
-9
-20
-14
31
89
57
56
14
6
-14
-19
-18
-8
2
51
11
-6
-49
38
-11
-43
-63
-47
-14
5
6
-84
-16
-13
70
44
-5
-3
16
0
8
1
44
26
-1
-14
-2
-23
1
4
-62
36
2
-2
-22
34
10
34
26
-33
11
16
-1
18
-4
24
1
73
10
-11
17
3
-44
-70
-128
-119
-36
-9
-94
-37
-11
-25
26
59
11
8
60
-22
29
37
-29
-2
3
-8
-3
87
3
5
79
-48
-6
5
-24
36
33
24
95
6
23
26
99
-43
-51
-49
14
-93
-44
-48
-91
-35
3
46
13
77
1
-1
1
-22
-17
-51
-82
-46
-12
-17
-38
5
36
115
79
123
39
27
9
-23
-15
-54
17
-67
-17
-4
-3
-19
-13
-29
24
-68
-24
-19
-7
-12
23
62
60
-5
0
2
-9
9
-1
-40
-13
41
13
1
-4
17
1
41
3
110
21
19
27
-17
-17
31
-39
-62
-22
9
61
27
-2
-73
-46
52
-7
3
46
2
-20
-41
-23
-50
-14
-3
14
-31
22
50
20
19
11
-6
-52
67
30
19
67
75
20
-4
-78
1
-25
-40
-128
-109
-14
6
41
-6
-37
-51
-39
12
-26
-25
43
-5
11
32
0
-14
-3
-8
-16
-17
-10
-16
-2
44
13
4
-63
-41
32
22
89
18
24
18
53
22
4
-23
-80
-10
-3
12
16
36
-31
58
79
-24
-31
-21
-26
-8
7
27
62
12
3
-8
-30
-56
-5
-40
-58
1
-1
6
-16
-32
18
56
-33
34
14
4
-11
42
-14
2
-48
-3
8
11
-21
-10
26
28
72
11
3
8
105
77
-1
20
25
2
-6
-23
-72
-81
-14
-27
-35
37
6
3
-16
-12
30
20
28
-5
8
20
3
15
-33
-10
26
-24
-20
-30
-41
13
8
10
19
2
1
-10
-48
4
16
19
-17
-23
-2
5
35
20
4
25
67
121
44
25
40
-24
-35
23
5
-74
-35
-16
-55
-53
-1
-66
96
26
-8
21
100
80
-11
-12
7
-17
-12
-18
-26
-23
32
-13
59
52
16
2
-21
9
17
50
-98
101
37
28
48
-55
-20
-3
-70
-19
0
-6
-27
28
-21
8
127
-47
-39
-45
-88
-26
16
-72
-32
-10
-3
-8
-31
17
-30
0
-6
58
26
16
-4
6
11
71
-4
-87
-7
21
25
-31
1
-63
-128
-53
15
28
77
27
9
25
27
36
-15
-25
-21
-21
-26
-58
3
-31
-9
-16
-43
-18
19
50
127
123
27
24
13
48
-5
-33
-59
-71
4
20
53
17
-12
-25
67
-121
-37
-39
-60
-31
25
28
34
23
5
-2
9
46
-7
-36
-28
37
7
-2
23
-58
32
87
127
53
12
5
-50
-2
-25
-44
-49
-11
5
12
54
-69
-26
-59
-25
-71
-36
-30
-45
-2
12
-44
-112
-128
-24
-16
-6
-30
-8
-11
43
56
-4
-25
-48
23
10
43
-54
-63
9
23
7
-4
-16
2
78
70
20
28
69
-27
25
20
9
60
0
1
10
52
26
-24
-123
6
-6
-19
-14
39
-15
12
10
-75
-25
2
-10
-18
27
26
-19
12
13
0
77
11
-41
-72
1
43
-3
6
-82
-22
6
10
3
-106
4
10
42
34
-26
2
-84
37
-2
-8
-6
3
23
-3
46
62
12
2
1
30
-20
-25
-98
-77
-10
-23
-63
-39
11
0
99
114
10
14
21
-10
-35
-7
-34
-63
-12
-8
14
70
47
-36
78
11
-3
8
4
-24
-20
25
10
119
28
4
18
-22
-11
5
-68
-34
-21
-6
-41
-9
-31
-76
-79
-2
-8
-4
33
-7
7
40
60
66
-6
-21
-52
20
19
-33
20
8
0
3
42
29
24
16
15
82
26
15
17
-3
-15
-34
-60
-56
-3
3
-27
-6
-3
-4
30
-22
-26
-30
-27
22
-50
-2
44
21
-1
10
-52
-55
-19
-5
-42
-61
-3
9
97
-7
21
51
73
73
9
1
0
1
31
7
-75
67
24
31
-6
15
17
56
33
-74
-18
-17
16
31
0
60
45
-53
-18
-7
16
-19
3
-9
-42
46
-8
-19
1
-15
-7
-61
21
-37
7
7
-5
-14
51
58
1
127
31
15
12
59
-48
38
73
-93
-47
-38
-82
-27
21
-30
4
52
13
6
1
-6
4
43
61
45
4
6
-14
-4
-21
-61
-116
5
8
4
3
-53
-3
-29
99
-16
-10
1
-77
-11
16
69
102
49
5
2
65
27
-30
-72
-72
-2
5
6
29
1
30
0
-44
-96
-26
-6
11
27
-48
-26
92
49
7
-18
-27
-31
4
4
63
39
3
4
-51
-30
-7
49
-128
-111
-5
-2
11
16
5
-4
110
35
3
-3
10
7
12
-60
-106
-14
-5
-7
-36
29
8
47
70
6
9
11
20
-17
-10
-15
-53
-56
2
9
39
19
21
73
63
-27
-14
-18
-5
19
-8
-36
23
72
15
5
-26
-14
-5
7
9
32
-19
-2
-1
-43
18
-17
33
3
-3
2
68
5
1
18
34
12
-8
-10
16
11
-4
48
-73
79
37
12
-47
-47
15
23
100
-60
-16
-12
-4
25
-41
-62
-111
-45
-21
-10
-37
-27
0
8
25
38
7
5
21
-11
1
1
-35
-28
1
-8
20
-29
3
-6
-65
-3
4
-1
-61
53
14
48
75
65
18
32
33
-56
-25
42
86
-9
-7
-16
-19
7
-1
-34
-16
-40
-22
-12
1
5
8
24
4
17
4
-4
-15
-26
15
10
109
94
32
20
3
46
-14
-18
-46
-42
-26
-17
-1
-23
13
24
47
32
-7
-3
-16
18
5
-2
-23
-1
7
-5
27
-7
9
29
-4
79
20
10
-36
-10
8
4
-104
-99
2
23
58
60
19
24
-57
49
-1
2
19
30
-12
-36
-48
4
-3
5
38
33
-23
76
15
-3
-9
-25
-42
-46
-27
13
-105
-41
8
6
-32
-56
47
38
67
47
12
22
84
-39
-13
-22
26
56
11
11
28
32
23
15
6
-73
-35
-40
-86
64
-3
24
114
63
14
15
56
28
-8
-23
44
71
16
26
-8
66
11
-3
54
-35
0
-3
29
-61
-17
-60
-12
-87
-32
-25
-80
-16
6
-30
-2
13
1
0
-5
-32
23
4
67
25
14
4
-3
67
-33
-62
-119
-15
17
23
17
-2
10
29
108
-62
-28
-22
-33
-26
-9
-37
111
17
-10
-15
-3
-8
-11
-22
10
-9
-6
-1
-1
-20
11
25
-28
3
7
2
-15
-4
0
-23
-53
33
10
8
2
-2
-4
1
-60
7
2
9
18
14
13
39
-98
42
14
6
25
8
-18
1
48
-77
-28
-43
-70
-17
-10
12
-96
-18
-16
5
55
17
-15
-47
-58
-27
-5
10
-26
-8
2
33
-9
-19
-2
4
19
-1
2
-38
-43
28
11
19
58
31
-10
-25
-21
3
8
-3
2
-38
5
33
60
20
-5
-18
-49
-5
-14
-42
-34
-33
-6
-6
-10
6
30
23
-88
61
25
22
-5
-5
-31
17
76
89
-3
-48
-27
-19
23
-40
-122
-71
-25
10
-85
-10
37
11
79
-25
-7
17
85
21
0
12
66
6
-6
4
1
30
-20
6
43
-4
16
27
70
-3
13
15
20
91
21
-9
-16
-7
-26
-13
-128
-116
-15
-18
-62
-35
21
52
127
89
-10
-12
-30
-18
-6
-56
-119
8
-2
-8
-26
6
-10
-6
-21
31
3
-1
-28
19
-6
34
16
1
-8
5
37
5
-2
-67
-128
-108
-5
2
24
44
-10
-12
62
-54
-6
4
35
-46
-10
-24
78
38
4
-15
7
3
5
16
30
47
21
11
-36
20
7
62
78
-14
-9
4
-12
14
-22
-66
-78
-58
-20
-15
-29
8
20
-5
-51
-31
6
16
71
30
-8
-32
-30
26
2
-5
15
17
9
61
27
114
23
3
-9
-89
20
69
80
-80
-33
-18
-52
59
-33
-22
34
-11
-11
-14
5
-28
1
-7
-2
-9
-5
-8
-3
-16
-9
-46
-13
22
6
5
-6
-16
27
77
16
62
22
25
18
49
40
90
50
37
10
10
-11
-26
-64
-105
-75
-103
-39
-49
-24
-14
14
2
68
54
2
-6
-54
-7
6
15
2
15
24
39
104
-5
-21
-67
-48
-24
-10
4
-62
17
7
2
65
13
5
13
79
-2
3
-16
-25
-46
-14
-14
-39
18
1
-8
-6
45
11
-9
-5
-24
25
20
46
-61
7
10
-3
-6
-31
-26
-83
-23
-25
-24
-39
-56
0
-52
-51
8
-6
-12
26
27
12
31
85
47
16
17
21
14
17
2
-100
-46
-4
-4
-13
10
4
-29
17
60
2
-4
-24
-33
-21
7
-14
-75
-11
-3
-11
-3
-6
-2
10
43
13
19
-3
-11
14
17
127
-16
6
-1
49
40
9
1
-8
-38
-12
-20
-54
-11
-25
-30
5
-1
-12
-16
-22
-7
11
-30
22
5
1
15
49
7
-25
20
102
50
5
-2
-15
-5
-5
-14
-7
-31
-13
-3
5
23
0
-12
-4
-30
-6
-3
-4
-11
19
28
23
14
-1
-11
-33
4
-41
-31
2
22
-10
-3
22
10
52
33
26
53
23
19
-8
53
10
68
-14
-63
-10
-2
46
7
-37
-81
-79
-72
-23
-17
-22
4
7
-26
-38
9
6
4
34
-26
3
21
52
44
16
3
-34
-20
-27
-12
26
23
-6
0
3
19
27
-4
-62
74
14
10
25
2
-11
57
-34
-87
-11
-13
-32
-33
-18
-40
82
-29
-22
-19
-31
6
5
2
18
-18
3
14
43
23
-12
-11
-37
-3
2
-2
-3
6
13
-2
-96
14
1
-1
-2
-24
-16
13
125
21
-1
-8
-31
1
-11
-14
-18
-36
1
1
-10
-1
17
32
39
4
-5
-10
16
1
-3
8
10
-8
0
12
-8
17
-4
42
58
16
8
14
32
3
-18
-49
-30
20
0
-8
-42
-33
19
-4
3
-41
-4
-7
-28
18
6
4
-21
28
10
3
18
-1
-12
7
3
12
-8
-5
-9
-7
-6
-56
-29
-61
-8
-2
11
-29
-7
23
70
-10
-4
-5
-27
37
-8
-16
28
22
-3
-9
5
-1
4
2
-28
21
9
9
7
-7
11
18
-25
34
11
7
26
15
-7
-1
0
-5
-3
1
-3
-18
13
-32
16
-8
-4
-2
-11
5
-32
0
-65
-29
-8
-7
9
-2
4
5
9
16
9
-3
-3
0
-6
-13
-36
-22
-1
7
-13
-16
0
11
14
27
-5
-4
26
6
15
7
5
-6
1
1
-5
10
10
21
18
-3
-5
-3
-1
2
-14
-18
-25
-10
-4
-1
-9
-14
-6
-9
7
-2
-4
-5
-2
1
1
9
-14
11
7
5
8
-2
-1
-11
35
16
-3
-2
-16
-5
4
1
14
-1
1
-6
12
0
-8
-4
16
3
-2
12
10
2
11
2
-22
-23
-3
2
6
1
9
14
12
22
7
5
7
4
-5
-7
-12
-7
-10
-2
0
-4
-6
3
6
5
7
-8
-16
-5
6
2
-21
-19
-4
2
1
-2
2
11
2
12
-3
3
10
3
-6
-2
-27
2
8
0
0
-6
-1
-6
-1
-2
-2
-5
-8
-3
7
2
-15
-2
6
5
4
3
3
5
0
1
-4
-3
-1
0
-3
-3
-6
-29
-10
-2
-1
-5
-5
0
12
25
1
-5
-6
-1
5
1
-8
-6
0
1
5
3
-4
2
16
30
7
-1
0
1
-7
-9
-10
4
-2
0
-1
-4
-9
-4
1
0
-2
-4
-1
-3
-1
0
6
0
-3
-5
-4
-1
12
1
0
-13
-9
0
2
2
-6
-3
-9
-1
11
5
4
-2
-7
1
46
-16
-7
-5
-7
-2
-4
-2
-2
2
2
0
-3
-3
-3
1
-5
-5
-6
1
6
2
3
4
11
7
-4
0
2
1
1
-4
-57
-10
-3
0
-1
0
0
-6
2
2
-2
-3
-2
-1
-5
-3
7
-4
-1
-1
-3
-4
2
3
15
4
-1
-1
-2
-1
-1
2
8
-1
2
-2
-4
0
0
-2
24
8
0
3
6
0
4
4
-20
-12
4
-5
-1
-1
-4
-17
-21
-3
-4
-15
-10
-1
4
3
15
11
-1
27
11
2
-3
-2
-16
2
2
3
2
1
-5
-3
8
-5
2
6
0
-1
3
3
-3
-2
-1
-3
2
-1
0
-8
5
-2
-3
-17
-12
-3
3
3
-12
-2
-1
5
0
-1
-1
1
-5
-3
1
3
5
1
-2
1
27
8
-3
-1
-1
-1
0
-4
33
1
-4
-6
-6
-1
1
3
28
4
2
0
1
1
-4
-2
-74
-13
-2
-6
-8
-1
-1
-17
-35
-20
-6
0
-2
-1
-2
-8
-15
-10
-3
-4
-5
-1
-9
-2
47
2
-1
-5
-1
-5
3
7
30
14
2
1
4
0
1
9
15
-3
-2
4
2
-2
3
0
11
7
0
-2
2
1
3
6
1
-15
-2
-3
-1
0
2
-1
4
0
1
0
1
-1
2
12
16
5
3
4
3
1
-2
-2
-20
-2
-2
-4
-3
0
-3
-6
-34
-2
-3
-12
-8
-5
-2
-1
12
-1
-3
7
3
-3
0
-4
6
-2
-1
-1
0
-1
4
9
25
6
1
0
1
-1
-4
-7
-36
0
2
3
-1
2
2
-6
-13
-9
-2
-4
-2
-2
7
10
45
13
0
0
0
0
-4
-12
-49
-6
-2
-4
-2
0
-2
1
5
-4
-2
1
-4
-3
2
-2
0
-2
0
1
6
0
-4
1
8
5
0
2
0
-2
4
2
3
-11
2
-1
0
0
3
2
15
1
0
-1
-1
1
-9
-4
0
1
-1
-1
-2
-1
-4
-4
-14
-5
-5
-3
-2
-1
1
5
40
4
-1
-2
3
-2
2
1
-30
10
6
1
1
3
-2
-2
27
-5
-2
-2
-6
-2
-3
-4
-9
-4
-1
-2
1
0
-1
2
-1
-10
-6
-2
-2
-1
-1
-2
29
19
3
3
4
-5
4
8
12
7
1
-1
0
0
-11
-20
-61
-14
-1
-2
-3
-3
-3
-1
10
2
-6
-2
0
0
2
0
-11
-7
-4
0
-2
1
-1
-4
3
-2
-3
-4
-1
-2
4
8
42
6
-1
2
1
0
-2
0
-20
5
5
3
2
0
0
-1
20
-10
-3
-2
1
0
-4
-3
26
-1
-2
-3
-5
0
0
-3
0
0
-1
1
1
1
-2
-3
6
3
-3
0
-2
-4
1
3
-6
-4
-2
-1
2
-1
-2
-7
-50
-7
-2
0
-1
-2
-1
3
10
0
1
0
0
0
-2
-4
-20
-3
3
0
-1
-2
-3
-2
-3
-10
-8
-4
-2
-3
-3
-3
9
17
3
0
0
-2
-2
0
-18
-8
-2
-1
-2
0
-4
-5
-3
-5
-1
-3
-3
-2
-1
0
-2
-4
-7
-1
-3
0
2
3
5
13
8
0
1
-2
-3
-4
23
19
11
5
1
-1
2
0
-6
1
-1
-2
0
0
0
-3
3
-5
0
0
-1
-2
0
1
-8
-8
-6
-2
-1
0
1
2
-1
0
-3
-1
-1
-2
-1
12
49
4
-2
0
0
0
2
-16
-3
1
4
2
2
9
-17
-4
-78
-4
-5
-6
-6
-17
-4
-7
3
-45
-7
-8
-6
1
6
7
77
26
6
4
5
-35
-10
-39
-51
-4
-1
-2
-1
78
8
8
-40
-20
-16
-11
-14
-60
-7
9
-90
-60
-8
-9
-13
-51
-1
-13
-14
-9
-10
-5
0
11
13
71
89
59
13
1
4
-5
12
9
110
5
5
-1
-3
81
-19
-13
-43
-16
-1
4
17
-21
30
35
78
8
-3
-14
-37
9
-14
-15
18
35
8
11
-12
-25
12
13
7
-12
7
17
81
-12
10
31
90
25
-1
-2
1
21
-22
-49
-72
-103
-19
-8
12
28
10
27
79
42
7
-13
-42
-40
-30
-54
-13
37
5
-3
-10
-5
24
46
-23
-55
-12
-2
-54
33
-32
-43
-128
17
7
0
46
-13
-25
-53
77
35
-7
3
-89
-39
18
-55
114
87
11
7
32
-74
-10
-31
-84
-75
-22
-9
69
2
8
27
61
10
-2
-6
-28
12
2
-21
-73
-39
-1
2
53
20
15
30
20
64
24
6
-45
-42
-18
-35
107
-15
-12
-14
-33
-15
10
43
15
65
5
11
2
-1
17
-32
71
-58
1
-2
14
13
-9
45
-109
-121
-20
-12
-26
60
-25
11
66
127
12
-8
-17
-17
2
10
9
-44
3
3
11
-9
27
67
68
46
4
11
24
11
-24
-67
-113
-116
-31
-14
-7
9
10
24
61
42
9
-15
-11
0
25
5
-3
17
9
20
-93
30
-22
-14
-37
-62
-15
-3
83
-24
-2
-12
87
25
-3
-2
-39
38
16
37
53
61
17
25
73
44
-18
14
8
59
12
-1
38
-36
7
0
-118
-118
-23
-16
-16
14
28
47
127
74
10
5
9
28
-9
-34
12
-51
9
4
-33
-46
-24
-72
-71
17
-24
-28
-46
-9
-4
59
-1
-6
3
-2
3
-17
1
16
-33
9
1
3
21
-7
26
29
14
65
20
14
-8
26
-7
-17
-73
-87
-13
2
-45
-4
-9
-35
-1
33
-8
-12
31
-36
1
-7
-4
41
7
8
-10
5
3
-28
26
6
3
11
53
-9
3
60
5
7
6
-7
7
-18
-36
-62
-35
-9
-19
-23
-128
2
-13
17
-42
-67
9
25
115
34
14
43
25
11
11
9
-25
-54
-13
-71
8
-99
-32
-23
20
45
15
30
-11
9
4
4
-12
-42
10
18
40
69
6
-10
-15
43
11
-37
-9
27
5
13
-45
-1
4
41
56
-12
2
10
66
-7
-11
21
13
-26
1
5
31
15
5
43
29
25
0
-3
-35
-73
-9
-99
71
-79
-39
-26
-36
97
37
60
127
36
11
1
20
-33
20
23
-82
37
8
11
-14
68
-8
7
-17
-25
3
3
50
14
4
9
-36
42
12
0
-18
-19
-22
-27
26
59
-6
-2
-67
-30
-15
-62
6
-54
-13
-9
54
15
6
-5
43
-14
-1
-2
-26
-12
2
-5
-4
22
15
12
63
10
12
89
-68
0
11
25
-3
-2
-34
-62
-54
-18
-38
-46
-30
-31
-9
-13
52
-7
-9
-3
-26
-8
-9
16
-35
30
12
8
-1
-7
62
-19
63
9
20
26
61
-5
-36
27
43
2
-20
-15
-64
-34
-17
-14
-18
-53
-15
-17
9
4
-2
23
-52
7
3
-4
-10
-21
11
13
-41
7
7
-7
13
20
56
103
119
82
26
47
15
3
-63
-115
-128
-128
-43
-40
-128
20
-6
23
53
-4
-4
17
109
40
-21
-15
50
95
15
10
5
-11
14
1
51
-95
-5
-10
-2
26
-8
59
-10
127
19
7
3
-28
17
-8
-62
-61
-10
-7
-22
13
-24
-7
-66
-31
-5
-9
28
33
-18
-2
-51
48
7
4
20
-10
34
-13
-5
-10
15
13
-18
30
-17
-18
-116
-40
-30
-37
-76
-41
-2
-4
11
11
1
3
59
-1
27
-46
18
102
26
7
7
37
-42
113
127
-11
-7
2
-38
-56
3
-17
-66
-6
-7
-1
-23
-12
-22
-48
-64
-77
-13
-4
22
-2
-4
33
67
59
10
-5
3
37
79
20
-13
10
6
12
30
-60
14
-45
52
-26
4
11
20
-13
-18
53
31
95
22
13
-18
5
-4
-39
18
-47
-46
-47
-46
1
-9
-46
23
34
0
-8
-4
27
-11
26
81
15
-3
-3
-6
-10
18
-30
-71
27
3
-4
-26
22
-10
-5
-128
-81
11
23
69
-9
-1
-8
31
55
-7
-4
-4
-18
6
50
98
-51
-3
-14
-33
-24
-37
-79
-30
-2
-6
-14
-53
12
-9
-42
-40
21
10
28
13
29
-4
-72
64
-107
-5
8
37
12
-17
9
-88
33
-11
-14
37
28
-44
31
49
-42
-13
-16
-86
-45
28
89
40
12
18
4
52
-47
-11
-76
-93
-32
-7
-5
-76
12
-21
25
64
52
-10
8
77
-28
2
-7
-24
-39
-5
-19
-31
25
10
12
45
88
14
19
13
-8
-4
-60
-18
6
-2
-2
21
-45
15
30
-25
10
-2
-10
-55
68
-9
-59
55
48
-6
3
35
-30
3
-31
-72
-41
13
4
-71
16
15
109
88
0
0
-5
59
22
16
-26
-42
-21
0
1
-6
30
-28
-1
21
19
-8
1
42
6
0
-15
-110
-83
-6
-5
-13
-28
4
89
53
101
23
3
-21
-8
-18
-108
-80
-16
-11
3
17
-73
15
72
5
-104
-20
-12
-28
31
10
24
5
24
7
10
-5
10
-13
26
18
12
0
7
13
27
5
-10
10
33
14
4
38
-36
18
36
-88
-60
8
7
-32
-27
-16
37
114
75
-8
-7
30
20
0
-18
1
-15
-2
-16
-12
35
-4
41
8
41
8
12
19
-27
5
16
81
-15
-7
8
5
25
-3
-7
18
26
3
-12
-35
-5
-35
-74
-95
28
3
8
-6
-25
-36
18
13
-33
-1
9
11
28
50
37
78
-81
-8
-13
-35
-11
-18
-54
-35
17
-2
-2
32
-4
9
1
-98
0
-8
-12
-5
-6
18
9
40
-69
-6
-14
-70
16
-3
47
7
45
15
22
54
31
-19
-31
-38
26
-12
-13
-14
11
-18
-42
-107
-44
-10
-7
-17
-12
1
13
37
24
-3
-9
-23
-12
6
-93
-80
15
4
1
16
39
-3
22
52
27
-7
-9
-65
-74
0
-15
-104
-71
0
12
71
10
-16
-16
86
47
-6
-5
-58
-11
4
33
11
80
14
10
82
-15
7
-7
-59
30
13
13
-8
5
31
29
100
-50
-19
-26
-36
20
0
32
-22
19
5
5
21
-30
-10
-38
1
8
-2
-6
-52
-92
5
-32
49
-9
11
18
0
-22
60
127
127
111
27
20
56
32
-66
-103
-109
-119
-38
-29
-24
1
-18
14
104
91
-10
-23
-28
9
14
32
62
-30
-4
-6
-2
39
6
-15
44
23
6
5
41
-15
8
5
-70
51
20
20
37
18
-24
-111
-111
-58
-20
-2
9
-15
-4
55
127
35
1
-2
-23
-16
-17
41
-4
-10
-16
-9
-34
43
35
-21
-59
-11
-3
-13
-32
-14
-14
-48
50
6
10
3
-16
-3
23
18
-36
-48
2
4
79
23
20
20
104
80
19
17
-15
48
8
6
-20
18
-3
4
19
-10
5
-14
22
-89
-17
-13
10
14
-1
23
33
-43
-12
-18
-8
-23
-12
-81
-56
27
13
33
36
-17
-2
3
-86
23
11
5
-11
5
20
23
111
66
1
4
-9
80
6
-37
-68
-67
-10
-26
-23
-43
-6
11
-16
-19
-4
6
-11
-33
6
-28
44
29
20
16
17
-16
-13
10
19
-42
-20
-4
4
37
-14
-26
-4
3
-4
0
-8
6
-14
-21
8
-12
-5
-17
-14
-20
17
30
73
70
13
-1
-8
-20
20
57
-60
19
10
9
-42
-17
13
-49
-14
50
18
43
110
87
-40
-7
45
-20
-37
-49
-64
-62
-14
45
122
-71
-12
-7
20
7
-1
-57
22
13
8
-14
-23
-28
13
70
-24
-24
-8
1
-24
-11
12
-5
-36
74
22
19
-18
35
-9
11
-11
36
19
13
25
-11
-28
-65
-128
-113
-40
-27
-32
-46
49
39
110
89
7
0
-3
-11
32
43
-49
61
22
39
65
17
-51
36
68
-78
-37
-31
-51
2
8
-12
38
23
10
9
32
-10
-29
-29
-11
-12
-1
0
-16
30
4
25
-14
-102
-12
-20
22
-30
19
-15
-61
8
9
5
-18
93
3
-41
-75
-10
16
22
28
-39
-72
56
123
42
-17
-26
-30
-22
26
-59
-62
-17
-12
-9
-35
-12
0
-8
-79
-31
-6
-7
37
57
8
14
11
37
7
15
-2
-52
-9
-46
-110
-68
2
4
20
-16
0
4
74
56
2
2
-5
0
12
-4
73
60
5
-8
-28
1
18
85
95
65
12
9
11
19
-12
-11
5
-81
-15
-3
32
29
-30
-67
-80
-69
-14
-13
19
-26
38
-17
57
59
10
15
-11
-2
-19
9
-43
-42
-7
-14
-8
-11
3
36
9
5
10
9
-18
48
-21
-29
-49
26
-4
-4
18
24
15
35
75
-82
-16
-21
12
-51
-25
-2
22
57
9
14
-72
3
1
-39
-33
-7
-6
6
70
10
-22
17
-10
-33
-6
0
-47
0
22
13
-12
54
15
15
66
-19
-9
-4
-49
-48
0
-6
-31
5
-8
-37
14
56
-7
-18
-15
-25
-10
-45
-12
-24
-2
-1
14
7
8
43
-13
-71
-4
2
-18
-2
0
-10
-32
27
4
-6
28
9
-15
-52
1
18
-4
-4
-42
-22
15
6
69
61
10
0
18
33
-23
-53
-106
-62
-7
9
-2
-23
12
14
26
64
2
1
-10
11
15
51
6
33
7
12
55
28
17
19
77
4
-8
-12
-89
-25
-18
-44
16
2
-6
-4
49
-18
23
39
-25
-33
8
18
52
27
-38
-86
68
4
-13
-8
4
-23
-2
7
-24
-69
6
6
19
-22
9
69
127
122
4
-4
-4
32
-3
-4
49
20
-9
-10
1
-19
22
17
-103
-57
3
1
-29
6
-4
-31
30
-28
3
1
4
-6
-7
55
54
36
5
-5
-32
-1
9
-9
-56
-64
-22
-23
23
32
22
80
19
32
9
12
-94
28
-1
-2
-18
-2
5
9
77
-63
-5
9
52
41
11
1
-9
10
-11
-21
-13
16
-13
-6
-28
3
3
-5
-7
-43
-1
-8
25
-7
-5
21
19
100
14
12
-34
-19
1
-49
-105
-99
-19
-4
32
8
6
47
96
54
-11
-10
-46
-18
-9
-128
-83
-79
-6
-4
-5
-26
13
100
17
0
-7
-4
3
35
5
12
12
11
12
9
-16
-16
-6
9
-66
-15
0
-2
9
-20
16
13
83
52
10
5
-37
10
-4
-4
18
46
-1
-4
43
20
-1
-27
-5
-68
-12
2
-23
1
0
-40
6
25
4
-2
58
10
-7
46
56
66
3
-6
2
-22
-5
7
-1
-22
-6
-8
-56
10
-16
-45
-126
-33
-1
2
-8
-8
10
15
89
-21
7
16
64
-22
18
29
28
-8
-6
-13
-9
-13
-3
-29
-68
-46
-14
-9
-38
-9
-16
-16
-31
29
3
7
14
4
-3
-21
63
40
15
-2
-11
23
-14
5
-66
9
3
-4
1
-10
7
-28
20
-77
-8
-4
-3
26
14
64
110
40
-3
0
-39
19
-1
-17
10
8
3
8
58
3
-9
69
47
25
3
-4
-9
-13
4
-15
-16
-32
7
8
23
2
-29
-42
-85
-39
-21
-19
-10
-8
-18
-39
-7
-11
-3
-3
-48
-1
13
-2
-44
-27
-2
10
-7
-10
4
26
49
77
11
3
55
10
13
13
-32
-52
7
0
-8
-4
5
49
-17
28
-1
-5
-14
13
-11
-8
-21
-20
-12
-14
-48
-49
-10
-29
12
-11
-9
8
30
0
17
-5
5
27
4
1
1
12
-33
20
-11
37
2
-3
-12
-6
22
0
14
-19
2
5
30
13
3
25
32
19
1
-7
-25
6
-2
-6
-39
10
-2
-3
-5
-1
12
-20
-50
-46
-3
-3
5
7
-3
-6
20
22
-1
2
0
7
-21
-15
-21
4
-1
-1
-17
-21
-3
-20
18
23
-8
-7
10
0
8
7
-50
-29
-3
-4
-24
-2
1
-8
-45
-40
-3
9
47
8
7
-1
14
30
3
-2
-7
6
-3
4
53
75
7
1
1
-10
8
10
-45
-44
4
5
3
-4
-7
-10
68
0
-6
-5
-7
11
-4
0
29
-30
-8
-6
-6
-4
4
-3
34
13
0
1
-6
1
3
3
23
24
4
2
2
-4
3
2
1
22
7
1
-2
5
-11
8
-16
-7
-9
-26
-24
-11
-3
-15
-14
-58
-7
22
24
4
6
3
28
12
1
1
6
1
-8
-5
-18
-23
-2
4
3
1
-4
-10
-85
-20
-4
-9
0
4
-2
-1
80
24
-2
-24
-27
-4
0
0
14
1
-3
-4
-45
-4
2
4
-3
-4
0
12
40
9
1
2
2
-2
4
8
6
-3
-10
-8
-34
-7
-3
1
15
1
0
-1
-2
-11
0
-2
5
-1
-4
-1
-5
11
5
-6
-22
-5
-1
-7
-1
-8
-6
4
-7
1
-6
0
-11
4
-3
-2
4
-3
-7
-4
20
3
0
-7
-5
3
4
8
-3
7
1
1
-11
0
0
5
3
-5
-2
2
24
5
-1
-5
-2
-16
-5
-1
-5
1
-1
-1
-1
6
-4
1
6
0
2
-6
-3
5
6
3
9
2
-1
0
3
-11
-5
-5
-25
-6
-2
1
-5
8
3
-2
-13
0
1
0
12
2
-7
1
22
28
7
-2
-15
-19
-3
-4
7
-29
-5
-2
4
4
1
-3
-17
-11
-1
2
-9
7
1
-2
-1
-9
-5
-6
2
-4
0
5
17
2
-2
-1
-5
0
-4
-5
-7
13
4
2
-4
-19
-7
1
-1
1
5
8
28
39
13
3
1
3
-6
-14
-22
-8
-2
-2
-1
2
-8
-9
-67
-11
-1
-4
-9
-2
2
2
20
4
-3
-10
3
0
2
-1
-5
-9
-1
15
8
4
5
7
29
8
-1
-1
-1
-6
-2
0
14
4
-2
2
2
-3
2
-5
-28
-6
-1
-3
-7
2
2
7
-9
-4
-5
-7
-1
3
-3
-12
-13
-2
-3
-2
-5
-6
-3
-5
0
-3
-2
1
1
0
1
-1
56
3
1
3
3
2
1
-2
-18
20
2
-7
-5
-1
-1
7
81
-18
-2
0
5
-6
-3
-8
24
-7
-1
-5
-10
0
7
2
-1
1
1
3
1
2
-14
-1
15
-6
-1
3
0
-3
-4
-5
-31
-1
-4
-2
-2
-5
-2
8
25
5
0
0
-2
-1
3
-5
15
3
5
8
3
5
5
-5
-16
-14
-2
-6
-6
-1
8
7
-18
0
0
-1
0
3
-5
1
9
0
-2
-1
2
-1
2
22
26
23
6
5
1
-3
-1
-29
-50
-16
-5
-2
2
2
-6
-10
-48
-5
-2
-3
-2
-1
7
10
1
6
0
-3
-3
-3
-5
-11
24
-5
-4
-4
-8
-3
1
12
40
8
-1
-4
-4
0
5
-3
17
10
3
7
0
-1
0
1
-88
-14
-2
-4
3
3
-4
4
19
8
-4
-2
0
-1
1
-2
33
1
1
3
0
-1
-3
-2
-13
-4
0
1
2
-2
-1
-2
3
4
-2
-3
-3
1
-2
-12
-46
-21
-2
0
0
0
4
7
4
8
1
0
-1
0
-3
5
5
0
0
-6
-5
-2
-2
-7
29
-4
-3
1
-1
0
0
3
-14
2
-2
2
0
-1
2
-1
-8
-4
-2
-3
-4
0
-3
-2
-4
2
1
-2
-5
-3
-7
-8
2
3
-1
-1
6
-2
-3
-2
0
-1
-1
-1
-1
-1
-2
-4
-5
-3
-1
1
-1
-4
0
4
13
4
2
-1
-1
-1
1
-7
0
-1
-1
-1
1
-2
-3
-4
-48
-6
-2
-2
-2
0
2
5
21
5
-4
0
-2
0
5
2
22
4
1
0
5
-1
1
1
-26
-10
5
2
3
1
-7
-7
28
4
1
-1
-3
-2
-2
-4
-5
-4
-4
-8
-4
-3
2
2
17
8
-2
5
1
-1
3
3
14
7
-2
3
-1
0
0
0
-14
-13
3
-2
0
-1
-1
-1
-17
-7
-2
-1
-1
-2
0
0
10
0
-3
-4
-3
-2
-1
-2
-9
-1
-4
-1
-3
-1
0
2
-8
6
-1
-1
0
0
-2
1
18
2
2
0
0
-1
-2
-9
-36
-7
-4
-4
-1
-2
-2
-1
2
3
-1
1
0
-3
1
-4
6
-1
0
-1
-1
-1
-2
-1
-14
-1
1
1
1
-1
0
-1
-15
-4
-1
-2
-1
0
-1
2
16
3
-2
-2
-1
0
-1
0
-1
2
-2
-3
0
-3
0
-5
-14
-6
-2
-1
-1
-1
-1
2
32
0
0
0
-1
2
-1
3
-23
-5
-1
-2
-2
1
0
-7
-18
0
0
-1
0
-1
0
3
14
8
-4
-1
-1
-1
-3
-3
-43
-10
0
1
1
-1
1
-4
46
12
-4
0
-1
-1
-2
1
-46
-9
0
-2
-1
1
-1
-3
-47
-13
0
-1
1
0
-2
-21
-6
-3
-4
-3
-1
-4
-2
13
27
-13
-6
-4
-2
-2
1
1
8
15
-2
0
0
0
-1
-10
23
-14
-4
-2
-1
-1
2
7
-39
4
2
-2
-2
1
0
4
24
8
-3
-1
-1
-3
-2
-13
33
0
-4
-2
0
-2
-4
-7
-25
-1
2
0
-2
-3
2
6
40
-6
-1
0
1
-1
-3
-15
-65
-6
-1
-4
0
0
1
15
64
16
-3
0
-1
-1
1
-11
4
-16
-2
0
-1
1
-8
-5
-1
-13
0
0
-2
-3
-4
-6
-99
-10
3
2
1
10
-16
-15
27
9
-12
-16
-18
41
2
-2
6
61
7
5
7
3
8
25
-9
-63
-6
-1
9
36
-24
-3
98
76
7
-4
-20
-79
7
37
-53
-6
18
23
43
32
22
-28
25
-45
-28
-25
-31
-24
2
6
105
31
-2
-4
-2
36
7
-34
51
50
18
10
15
28
12
8
-77
-74
-13
-20
-26
-12
-17
25
39
88
-5
-1
49
-30
14
21
32
79
23
53
14
-8
6
-16
-51
-116
-14
1
32
19
-33
-50
114
64
2
-11
-49
-25
-7
-14
-74
-49
-2
2
48
47
15
26
21
99
15
-2
19
-1
-5
-2
-12
-60
-20
-14
-32
-43
-22
-34
35
32
-11
-15
-46
2
-27
-11
-72
-45
-3
-7
-17
3
38
42
104
127
20
28
-2
-8
-1
-23
-100
-81
-11
-19
3
-38
10
5
-49
-47
-10
-11
-7
-7
7
-7
105
48
7
12
-11
-19
36
12
-93
-48
20
19
65
66
-43
-14
-22
7
-20
-18
-34
24
18
90
72
2
-12
-11
20
-64
4
19
-6
12
13
6
-52
5
-14
-9
-105
-53
-13
-9
-19
-27
20
-33
-65
53
30
16
-17
16
-25
14
74
4
-16
-17
10
-1
9
1
-68
-9
-6
-14
-25
8
-22
-40
15
-28
-23
-33
-57
-33
-5
31
40
22
4
6
-29
-21
18
-39
-128
-18
15
45
87
40
13
18
-16
-24
9
15
90
13
-10
12
111
48
-18
-30
-79
-34
1
40
-50
9
8
-1
32
25
9
3
23
-55
-5
-16
-112
32
-12
-3
59
41
8
16
42
-62
-14
-17
46
-84
-3
3
86
13
2
2
127
65
-16
-8
7
-15
23
-21
18
103
15
5
19
1
-14
-20
-54
-32
-13
-23
-128
-9
-19
-15
-68
53
14
3
73
-12
35
19
55
50
16
17
-62
77
1
-2
72
-76
-18
23
109
-3
-7
-51
-24
11
2
-4
1
-3
0
45
98
-1
-5
-8
-62
-21
-2
-34
36
54
3
-6
-40
-25
7
-2
-50
-35
-3
-1
83
36
10
92
93
34
11
3
-75
-4
6
-73
35
66
15
9
18
-38
5
31
-73
-128
-31
-7
8
35
-19
6
36
25
-6
-1
-2
-19
14
82
101
-3
6
-4
14
48
-15
-58
-55
17
-8
-8
-56
-28
16
64
88
127
28
13
22
-28
-3
18
57
-89
-20
-2
7
15
-28
-68
18
-13
-16
-17
-63
-25
26
20
-53
57
15
2
30
53
3
33
-19
-65
-15
1
-4
-9
-3
-5
-32
25
8
13
57
-23
-21
-46
-69
25
3
-12
26
39
-10
32
-15
-97
-15
-19
-106
-60
5
-18
46
21
5
27
88
-1
5
-10
-47
0
7
-1
-16
-1
10
24
72
53
11
3
-47
-27
-6
-19
-128
-84
-3
12
-54
12
-25
-11
103
8
-24
-26
72
21
-6
-36
26
45
1
-8
-93
-10
21
8
1
28
8
29
107
40
-14
2
25
29
2
-6
-8
-13
12
-68
-121
-45
15
14
-12
16
-8
88
92
105
6
-19
-86
-81
10
-37
-86
-92
-24
-17
23
-2
-3
-18
-123
-43
-8
-8
-56
7
25
17
0
1
9
28
79
36
2
-25
-87
103
28
14
10
49
35
71
28
-107
-1
19
-3
15
-54
-56
61
2
-46
-46
-26
-25
-9
-4
-10
16
1
-17
-32
19
-3
-31
-49
16
15
17
-15
-2
12
67
21
127
20
13
13
-71
4
-71
77
-119
-27
-8
-55
62
-21
-7
31
-31
-12
-17
19
-47
-7
-16
8
7
0
6
16
-16
0
-29
-31
-3
2
-13
-39
16
19
67
48
75
17
39
47
56
-4
36
105
118
22
16
31
-36
-1
-29
-94
-118
-24
-14
-24
16
-14
5
-80
-82
-14
-9
53
-23
0
4
34
60
12
-6
-23
-35
-5
105
-70
48
22
6
-49
21
-35
-81
44
-26
-33
-21
-27
-3
-9
27
78
8
-6
-14
-59
-29
-8
5
-76
-25
5
13
52
66
4
-11
41
76
10
19
83
-15
23
99
61
-84
6
-15
-18
-70
-19
-36
51
55
-17
-26
-95
-12
1
-36
18
-42
-1
21
127
-8
22
20
65
45
11
-34
-128
-8
-21
2
43
-6
-10
40
81
60
-7
-63
-113
-64
-8
17
91
62
15
37
77
60
6
3
-19
18
-11
-12
12
19
-5
-1
41
-27
21
35
-67
-27
5
-39
-128
-34
-14
-4
105
103
4
19
-12
55
-16
-36
-42
-27
-13
-10
86
-41
9
39
14
22
7
-4
-61
-22
21
34
-102
-34
6
10
-63
31
-5
-68
61
34
-3
10
66
-16
0
17
-92
20
1
-13
-15
-1
-10
-52
-8
-104
-25
-26
-22
-9
-7
-11
-16
104
19
10
-47
-20
5
50
19
-28
-4
22
48
30
-1
19
31
-14
-1
-9
-5
-40
8
-48
-47
16
-5
-10
-33
76
-28
-52
-28
-36
-19
-18
8
-57
2
-28
-128
58
23
8
-36
-5
26
95
107
50
5
6
-4
-23
-12
-4
-55
-84
-22
-15
-78
4
-6
-55
9
11
-9
-14
44
33
24
50
50
65
15
-11
-87
-48
-33
-22
-82
-45
-5
22
67
70
-6
-16
-33
-71
-6
21
117
8
23
57
36
29
17
16
25
40
42
57
70
4
-4
-20
-20
-29
-40
-60
-40
-16
-23
-53
-128
-88
-2
6
-1
-27
-3
3
-60
32
24
35
21
51
6
29
8
-34
-17
-31
21
-68
-2
5
92
15
34
78
116
47
13
-6
-34
4
-36
-81
-93
-26
-16
5
92
-52
-7
-24
92
9
-3
-20
-25
-26
-33
-30
17
-33
-6
-7
-50
-16
12
9
-21
0
-5
4
0
17
-9
-14
13
35
11
7
-4
11
12
26
-39
72
18
18
22
-22
-16
-18
-54
2
-16
-2
17
61
-32
-77
-98
-103
-23
-24
50
6
1
0
83
34
-10
-19
-128
-29
5
12
-50
45
13
5
82
-11
-9
-16
-26
-38
-1
10
-28
8
19
-57
32
-64
-5
-3
-5
17
-19
44
60
50
12
-17
-49
-37
11
5
-22
-52
-5
18
-3
-27
-18
19
18
35
9
-8
20
-23
-18
-2
-70
-14
-6
4
5
32
8
-7
70
-27
-10
8
-6
-49
6
-31
-6
59
7
-1
46
44
22
35
-26
-64
-9
-15
-16
6
10
21
-41
-7
19
4
5
-44
16
21
8
-63
0
9
-21
3
-51
-2
-27
-4
7
-12
-70
14
30
-93
-55
-73
-41
-7
47
37
7
46
108
82
15
0
-17
-10
13
-9
3
17
3
4
-27
-2
-5
-27
9
2
8
23
70
41
-4
12
-3
46
12
12
43
4
3
-4
6
19
0
0
-36
11
21
44
62
-13
11
1
64
-52
3
30
85
-29
-35
-39
-81
48
-71
-33
-58
-50
-3
-7
-61
-4
13
-3
55
4
-2
5
109
9
-12
-37
-65
4
-1
-18
-111
-18
47
25
17
108
27
47
127
107
-9
-11
3
-69
-23
-15
-78
-9
-12
8
-36
78
11
6
-39
-27
7
-81
-109
15
-2
0
11
69
17
63
86
38
-6
-14
-48
-92
-30
-68
-92
18
-5
-17
-30
-25
2
6
-55
-49
-7
-1
6
-4
-21
-77
-45
25
1
-8
-4
-3
3
-16
-19
44
6
7
14
-6
18
46
41
-49
2
5
26
1
2
44
38
35
-1
-5
-24
-18
1
-27
-34
-5
4
4
18
0
-23
-74
-83
-36
-15
0
-38
53
30
105
86
100
17
16
49
29
-1
-75
-92
-2
4
-9
-20
4
-7
47
17
-24
-17
-2
14
-4
9
-54
-52
-25
6
13
32
23
-20
-40
43
55
11
3
-16
-34
10
46
31
-110
-15
8
29
3
19
54
21
87
15
5
28
-4
-22
33
58
-33
-8
-29
-128
4
20
-60
-122
-80
-9
21
85
-36
-3
8
78
127
14
-4
-35
-26
9
113
35
-85
-11
-12
-37
50
-27
-29
-91
-22
-3
4
52
-78
8
13
9
2
11
-3
-13
31
14
67
74
89
20
29
18
17
-20
-106
-85
-104
-20
-16
1
5
-10
9
-23
-58
-21
-22
-57
-69
24
22
40
19
-4
-15
-87
44
0
-45
-27
39
1
3
66
42
-17
17
-30
1
1
7
-6
-24
15
33
47
37
8
25
77
9
-12
-25
-8
19
0
-25
-88
-36
-2
-22
-62
-46
-6
15
-27
78
30
12
103
76
12
5
77
-22
-10
15
-39
-117
-26
-32
-68
8
-13
-17
70
-55
-10
11
39
-8
10
-2
61
65
13
-6
-11
5
-9
-34
-2
-52
-21
-18
-22
-14
-4
-30
-56
29
11
7
30
-9
17
8
-6
55
10
11
-26
3
-10
46
1
-63
-8
-6
-2
-20
-11
22
-55
32
16
8
30
-2
-7
-22
104
-33
-19
-25
-54
-26
2
16
-67
18
9
4
9
8
18
6
-61
-48
-7
19
44
44
-15
-31
-4
51
-5
3
-15
-58
-8
-19
-5
-1
5
-9
30
10
12
26
45
6
-11
-1
36
-23
-6
-24
-44
-76
-16
-31
-118
-29
27
20
-36
57
25
44
69
57
-25
-6
99
6
-9
-9
10
-3
-23
-12
-61
-39
-16
-35
-86
-16
14
-8
36
-10
-6
4
30
25
-2
-24
-48
10
0
-5
2
3
13
-3
-54
39
19
12
-46
-17
2
18
112
-33
0
16
96
83
-5
12
15
45
-2
-17
-20
-64
-9
25
127
3
5
10
40
26
31
-29
-100
10
-7
-21
-85
-16
18
38
60
100
16
17
19
-41
-48
-96
-100
-118
-40
-32
-31
34
-2
11
-20
-31
-13
-7
-80
0
14
-5
10
40
22
26
110
25
2
-20
-22
0
-6
4
-93
6
25
59
10
42
24
24
90
22
-23
-77
-9
7
-1
-1
45
-53
-17
77
68
4
-16
-42
-106
26
-22
-91
-127
-50
-5
9
38
-9
-5
10
0
-4
6
17
64
-17
19
31
12
66
12
-4
-31
-15
-4
-52
5
-18
2
2
43
14
-18
19
34
16
0
-23
-87
-100
14
-75
-72
18
-1
20
-43
54
13
89
-45
-3
-1
11
72
25
2
-41
95
-37
-8
8
-10
7
9
96
-57
-35
5
-10
13
24
-44
-97
-17
15
-6
-26
-56
-64
7
44
-36
-24
-4
-6
-37
-19
0
-9
-13
-13
11
28
59
5
12
20
16
91
6
-4
-13
-12
-3
83
122
-3
-6
-17
-25
6
2
-47
10
14
-8
-12
-14
35
-4
38
6
13
3
1
-18
-17
11
1
-2
-17
3
6
22
47
6
64
79
69
4
-13
-4
-24
-42
-96
-69
-71
-23
-4
-51
-43
17
-21
-88
-17
-1
24
114
52
6
5
89
72
25
17
16
-14
-1
-8
-114
-76
-7
-7
1
-11
4
8
91
-1
-13
-23
-43
23
-6
34
43
6
7
0
-51
-34
-7
-42
-29
-29
-8
1
26
33
11
35
22
84
12
-4
-15
-22
-5
-33
62
3
6
13
33
32
-10
-8
-128
-60
-1
-5
-9
-11
-5
5
85
21
-16
-14
18
12
-5
-29
2
-9
1
11
-14
-17
11
18
-41
0
2
2
4
3
6
29
107
62
7
-13
-14
5
-24
-39
-127
-75
-13
5
21
-20
8
-12
72
8
3
4
-28
-6
11
18
-9
37
0
10
61
22
-10
3
-15
-76
-11
-9
-27
-7
9
25
-16
21
8
-10
-7
8
-5
-6
-62
0
2
19
28
-25
1
21
-49
5
10
14
10
53
-23
25
106
-9
-18
-23
-53
-46
15
2
17
-18
-4
10
32
48
1
-8
-21
-30
-2
-12
21
-2
13
10
10
11
5
-11
-25
-6
1
-5
-48
47
7
14
38
-3
-5
5
44
65
7
-3
-23
-2
-2
-11
34
-62
-14
-6
-20
-5
-6
-5
6
-25
-3
0
5
6
7
-1
-3
10
-3
-4
7
-5
-2
3
22
11
3
1
-5
-20
0
3
-10
27
3
-10
1
-1
-10
0
22
-34
-7
20
-35
-9
4
-13
-25
-7
1
3
35
15
0
-8
-23
0
3
0
1
-12
-8
-1
-10
-4
0
1
-8
-6
-5
1
14
-17
-9
-12
4
-2
5
-3
70
70
10
1
-9
30
-4
-11
-69
-72
-16
-24
-6
-71
-4
-13
-5
-7
3
25
-1
3
-1
-5
29
-12
-3
-3
33
4
3
-3
-55
3
-1
3
2
7
-3
-4
42
20
0
-8
6
1
1
10
-4
-5
-2
-10
-29
-4
-4
-2
-18
-8
-6
-7
-13
-9
-1
-7
-29
8
3
3
20
-1
-3
2
25
0
0
1
-18
7
-2
-13
-24
5
0
0
7
-5
1
11
-1
-9
-10
-3
2
10
-6
-8
4
10
10
-7
-7
-10
1
4
23
18
2
7
-5
2
1
-3
-3
7
0
5
9
6
-6
0
4
-10
-5
-12
-2
-7
0
2
-4
-47
-14
-6
-15
-8
-2
-7
-18
50
13
10
5
2
-3
2
14
1
-5
-1
12
3
-4
-2
-8
8
-1
-7
-17
-4
0
-10
1
-9
-5
-1
-2
-5
0
3
1
-14
1
6
5
5
5
13
6
7
-2
-5
1
-2
-3
-12
-8
-2
4
-1
-7
-2
1
-4
-6
0
0
-8
-2
1
-2
-6
20
-8
-3
8
6
-1
0
3
1
-4
-3
-3
-5
-1
7
18
22
-22
-9
-5
0
0
-7
-20
-35
31
18
5
3
0
-3
0
19
2
5
-14
-22
1
-1
-6
-3
-5
0
21
7
-2
5
4
8
8
7
-1
1
3
0
3
-3
-7
-7
8
13
3
2
-6
-11
-17
-6
-7
-2
-2
0
5
-1
-4
-1
-8
-3
-2
-5
-11
33
6
0
-8
-5
-3
-2
-7
-31
-8
-5
-4
-6
-4
-2
-4
-26
-6
0
8
8
1
-7
-5
13
-15
-2
-4
3
0
5
16
23
31
6
8
3
-1
-8
-22
-42
-25
-8
-6
-5
1
2
-4
2
-3
-1
-4
-1
2
4
3
-12
7
4
-2
2
0
-3
1
30
-2
1
7
-4
-4
-2
4
-36
2
0
0
2
1
-3
-3
-16
-1
-7
-5
-3
-1
-2
-6
28
-16
-5
-7
-4
-2
0
2
27
3
2
1
-2
0
-1
6
79
9
-1
1
-1
0
0
-15
-91
-24
-3
4
-1
2
-3
-7
-16
1
-2
-11
1
-3
-1
0
-26
-4
0
9
4
-2
2
6
22
9
-3
2
5
-3
-4
12
65
9
3
0
0
-1
-2
-11
-27
5
-1
-5
-13
-1
1
-8
-23
-6
1
11
13
-1
2
5
3
-2
-1
-10
-14
0
5
5
41
1
-1
2
4
1
-4
4
-10
-2
-2
0
0
-1
-5
-4
-7
2
1
-6
-6
-1
0
1
36
5
-3
0
-6
-7
-5
-7
-48
-7
-3
-4
3
0
3
4
27
4
2
1
-1
1
-2
-7
-59
-10
0
-4
-3
0
-1
0
11
6
-2
-6
0
-1
-1
5
22
-2
-4
6
-1
-2
1
0
-23
-1
-1
0
1
-1
0
-5
5
-1
-2
1
2
-1
3
3
9
4
4
2
-2
1
-2
-4
-12
-7
-2
-1
-3
0
-2
-3
-5
5
0
1
2
1
-1
2
7
-6
-4
-9
-7
-1
-2
-3
22
-5
-3
1
1
-1
-2
0
-46
-3
-2
-2
-1
-2
-2
-7
-25
-3
-1
-8
-5
-2
0
1
6
1
-4
9
6
1
0
0
-3
-2
1
7
2
-2
-2
0
31
3
0
-1
1
-2
0
2
18
6
-1
0
0
1
2
6
-18
0
0
-6
-2
0
0
-3
-8
-4
-1
-3
2
2
-3
-4
19
-1
-3
3
-4
-2
0
-1
-11
1
0
2
1
-1
-1
-4
-7
-8
-2
-7
-8
-1
-1
-1
-49
-3
-2
2
4
0
3
7
21
7
-3
-8
0
1
-3
-2
33
-6
-1
0
-3
-2
0
3
-24
0
4
3
7
1
1
0
-8
-1
1
-4
-3
1
-1
-1
5
-2
0
-4
1
0
-2
1
-4
6
-2
2
1
1
-2
-5
18
-1
-3
-5
-7
-3
-1
-3
-11
-6
-3
-11
-6
-3
-3
-5
-5
-6
0
8
-3
-1
2
5
9
2
0
2
3
0
1
0
-6
-6
0
-2
-1
1
-2
0
13
-1
0
1
-1
-1
-7
-3
-11
6
1
-5
2
0
-4
-7
-7
-5
-2
-3
-1
0
0
-4
0
4
-2
-3
-4
-1
1
11
11
-5
-1
1
4
-4
1
-1
-25
-12
-4
-5
-1
-1
0
-6
3
-7
2
5
-2
0
3
4
4
1
2
-10
-5
-1
-6
-6
-17
1
-2
6
3
-2
2
4
5
4
2
0
-4
-1
3
9
9
9
-1
-7
1
-1
0
-8
13
-1
-1
10
4
-2
5
-2
-48
-5
-1
1
1
1
-11
-4
6
-2
-1
0
0
-2
-2
-2
14
3
1
-2
-2
-2
-2
1
1
1
-1
-3
-2
-2
1
2
26
0
1
-4
-3
0
2
-1
0
2
-2
0
-1
0
3
-1
-41
-3
0
2
0
-3
-3
3
43
3
2
-1
-1
2
-4
-1
35
11
-1
-2
-3
-2
1
-5
-5
-10
-5
-7
-7
-1
-3
1
-26
-5
-4
-4
0
-1
2
6
30
7
1
4
2
-2
1
-4
-28
-9
0
0
-2
-1
1
2
26
1
0
1
1
-2
0
-1
14
6
1
0
3
4
-4
-8
-50
-12
-8
-9
-6
-4
0
4
16
-4
-1
-5
-3
0
1
-2
3
6
1
2
1
-2
-2
4
18
4
1
6
2
-2