-0.24668324835271138
-0.20915897323856655
2.300502671285615
-0.24668324835271138
-0.20915897323856655
2.300502671285615
-0.24668324835271138
-0.20915897323856655
2.300502671285615
-0.24668324835271138
-0.20915897323856655
2.300502671285615
-0.24668324835271138
-0.20915897323856655
2.300502671285615
-0.24668324835271138
-0.20915897323856655
2.300502671285615
-0.24668324835271138
-0.20915897323856655
2.300502671285615
-0.24668324835271138
-0.20915897323856655
2.300502671285615
-0.24629864279535515
-0.20944532451375786
2.3009380874080687
-0.24629864279535515
-0.20944532451375786
2.3009380874080687
-0.24629864279535515
-0.20944532451375786
2.3009380874080687
-0.24629864279535515
-0.20944532451375786
2.3009380874080687
-0.24613345046698445
-0.20957590170134105
2.3013254249640416
-0.24613345046698445
-0.20957590170134105
2.3013254249640416
-0.24613345046698445
-0.20957590170134105
2.3013254249640416
-0.24613345046698445
-0.20957590170134105
2.3013254249640416
-0.24613345046698445
-0.20957590170134105
2.3013254249640416
-0.24613345046698445
-0.20957590170134105
2.3013254249640416
-0.24613345046698445
-0.20957590170134105
2.3013254249640416
-0.24613345046698445
-0.20957590170134105
2.3013254249640416
-0.24608467226719313
-0.20968654395862715
2.3013340491043404
-0.24608467226719313
-0.20968654395862715
2.3013340491043404
-0.24608467226719313
-0.20968654395862715
2.3013340491043404
-0.24608467226719313
-0.20968654395862715
2.3013340491043404
-0.24560841195447658
-0.2098492855756004
2.3014676291126688
-0.24560841195447658
-0.2098492855756004
2.3014676291126688
-0.24560841195447658
-0.2098492855756004
2.3014676291126688
-0.24560841195447658
-0.2098492855756004
2.3014676291126688
-0.2457395901457746
-0.20988857909102948
2.301598807303967
-0.2457395901457746
-0.20988857909102948
2.301598807303967
-0.2457395901457746
-0.20988857909102948
2.301598807303967
-0.2457395901457746
-0.20988857909102948
2.301598807303967
-0.2465277312586521
-0.2096498674322006
2.3019295767956227
-0.2465277312586521
-0.2096498674322006
2.3019295767956227
-0.2465277312586521
-0.2096498674322006
2.3019295767956227
-0.2465277312586521
-0.2096498674322006
2.3019295767956227
-0.2465363837919735
-0.20966752668787775
2.3018808353182902
-0.2465363837919735
-0.20966752668787775
2.3018808353182902
-0.2465363837919735
-0.20966752668787775
2.3018808353182902
-0.2465363837919735
-0.20966752668787775
2.3018808353182902
-0.2465363837919735
-0.20966752668787775
2.3018808353182902
-0.2465363837919735
-0.20966752668787775
2.3018808353182902
-0.2465363837919735
-0.20966752668787775
2.3018808353182902
-0.2465363837919735
-0.20966752668787775
2.3018808353182902
-0.24613335511066312
-0.2093224210974545
2.3020106415793133
-0.24613335511066312
-0.2093224210974545
2.3020106415793133
-0.24613335511066312
-0.2093224210974545
2.3020106415793133
-0.24613335511066312
-0.2093224210974545
2.3020106415793133
-0.24577263571756192
-0.20925556295619677
2.30224021366348
-0.24577263571756192
-0.20925556295619677
2.30224021366348
-0.24577263571756192
-0.20925556295619677
2.30224021366348
-0.24577263571756192
-0.20925556295619677
2.30224021366348
-0.24565950165294917
-0.209207895203808
2.3022222056789765
-0.24565950165294917
-0.209207895203808
2.3022222056789765
-0.24565950165294917
-0.209207895203808
2.3022222056789765
-0.24565950165294917
-0.209207895203808
2.3022222056789765
-0.24577263571756192
-0.20925556295619677
2.30224021366348
-0.24577263571756192
-0.20925556295619677
2.30224021366348
-0.24577263571756192
-0.20925556295619677
2.30224021366348
-0.24577263571756192
-0.20925556295619677
2.30224021366348
-0.2457239064678903
-0.20936622894868012
2.3022488332949336
-0.2457239064678903
-0.20936622894868012
2.3022488332949336
-0.2457239064678903
-0.20936622894868012
2.3022488332949336
-0.2457239064678903
-0.20936622894868012
2.3022488332949336
-0.24509527813387227
-0.20956621089446445
2.3025349009990936
-0.24509527813387227
-0.20956621089446445
2.3025349009990936
-0.24509527813387227
-0.20956621089446445
2.3025349009990936
-0.24509527813387227
-0.20956621089446445
2.3025349009990936
-0.24437784214716773
-0.2100053299920515
2.302789196814173
-0.24437784214716773
-0.2100053299920515
2.302789196814173
-0.24437784214716773
-0.2100053299920515
2.302789196814173
-0.24437784214716773
-0.2100053299920515
2.302789196814173
-0.24437784214716773
-0.2100053299920515
2.302789196814173
-0.24437784214716773
-0.2100053299920515
2.302789196814173
-0.24437784214716773
-0.2100053299920515
2.302789196814173
-0.24437784214716773
-0.2100053299920515
2.302789196814173
-0.24437784214716773
-0.2100053299920515
2.302789196814173
-0.24437784214716773
-0.2100053299920515
2.302789196814173
-0.24437784214716773
-0.2100053299920515
2.302789196814173
-0.24437784214716773
-0.2100053299920515
2.302789196814173
-0.24430795579316703
-0.21019239141378965
2.3030812983516165
-0.24430795579316703
-0.21019239141378965
2.3030812983516165
-0.24430795579316703
-0.21019239141378965
2.3030812983516165
-0.24430795579316703
-0.21019239141378965
2.3030812983516165
-0.244473028371594
-0.21049232147964747
2.303360797189467
-0.244473028371594
-0.21049232147964747
2.303360797189467
-0.244473028371594
-0.21049232147964747
2.303360797189467
-0.244473028371594
-0.21049232147964747
2.303360797189467
-0.24446780900756498
-0.2108376707847804
2.303679501024962
-0.24446780900756498
-0.2108376707847804
2.303679501024962
-0.24446780900756498
-0.2108376707847804
2.303679501024962
-0.24446780900756498
-0.2108376707847804
2.303679501024962
-0.24487762760728762
-0.2112243200042261
2.3041085445929124
-0.24487762760728762
-0.2112243200042261
2.3041085445929124
-0.24487762760728762
-0.2112243200042261
2.3041085445929124
-0.24487762760728762
-0.2112243200042261
2.3041085445929124
-0.24593295353923242
-0.21163537673814928
2.3044981113387872
-0.24593295353923242
-0.21163537673814928
2.3044981113387872
-0.24593295353923242
-0.21163537673814928
2.3044981113387872
-0.24593295353923242
-0.21163537673814928
2.3044981113387872
-0.2462900297813168
-0.21247733478414457
2.305255421154874
-0.2462900297813168
-0.21247733478414457
2.305255421154874
-0.2462900297813168
-0.21247733478414457
2.305255421154874
-0.2462900297813168
-0.21247733478414457
2.305255421154874
-0.2450338593955914
-0.21196144197759903
2.3057114017031246
-0.2450338593955914
-0.21196144197759903
2.3057114017031246
-0.2450338593955914
-0.21196144197759903
2.3057114017031246
-0.2450338593955914
-0.21196144197759903
2.3057114017031246
-0.25036544726508053
-0.2095622739263026
2.3071575025694164
-0.25036544726508053
-0.2095622739263026
2.3071575025694164
-0.25036544726508053
-0.2095622739263026
2.3071575025694164
-0.25036544726508053
-0.2095622739263026
2.3071575025694164
-0.25808205093740655
-0.2072221841524137
2.310580662928444
-0.25808205093740655
-0.2072221841524137
2.310580662928444
-0.25808205093740655
-0.2072221841524137
2.310580662928444
-0.25808205093740655
-0.2072221841524137
2.310580662928444
-0.2593400981712834
-0.20409399983107807
2.3178795045869887
-0.2593400981712834
-0.20409399983107807
2.3178795045869887
-0.2593400981712834
-0.20409399983107807
2.3178795045869887
-0.2593400981712834
-0.20409399983107807
2.3178795045869887
-0.24744128735930385
-0.2004549194361864
2.3230876516750625
-0.24744128735930385
-0.2004549194361864
2.3230876516750625
-0.24744128735930385
-0.2004549194361864
2.3230876516750625
-0.24744128735930385
-0.2004549194361864
2.3230876516750625
-0.23499493974012864
-0.1959081774234996
2.322850319336198
-0.23499493974012864
-0.1959081774234996
2.322850319336198
-0.23499493974012864
-0.1959081774234996
2.322850319336198
-0.23499493974012864
-0.1959081774234996
2.322850319336198
-0.2418811193705811
-0.19047138655032658
2.3223296802809585
-0.2418811193705811
-0.19047138655032658
2.3223296802809585
-0.2418811193705811
-0.19047138655032658
2.3223296802809585
-0.2418811193705811
-0.19047138655032658
2.3223296802809585
-0.2597420843359533
-0.18860137979172345
2.325567480302433
-0.2597420843359533
-0.18860137979172345
2.325567480302433
-0.2597420843359533
-0.18860137979172345
2.325567480302433
-0.2597420843359533
-0.18860137979172345
2.325567480302433
-0.2757294477027052
-0.18875238178876413
2.3275507296570632
-0.2757294477027052
-0.18875238178876413
2.3275507296570632
-0.2757294477027052
-0.18875238178876413
2.3275507296570632
-0.2757294477027052
-0.18875238178876413
2.3275507296570632
-0.28715955645903996
-0.18878423052746257
2.324957949742529
-0.28715955645903996
-0.18878423052746257
2.324957949742529
-0.28715955645903996
-0.18878423052746257
2.324957949742529
-0.28715955645903996
-0.18878423052746257
2.324957949742529
-0.2921373765832009
-0.18732890283100181
2.3208676227848533
-0.2921373765832009
-0.18732890283100181
2.3208676227848533
-0.2921373765832009
-0.18732890283100181
2.3208676227848533
-0.2921373765832009
-0.18732890283100181
2.3208676227848533
-0.291907619910988
-0.186319526822552
2.317086049714249
-0.291907619910988
-0.186319526822552
2.317086049714249
-0.291907619910988
-0.186319526822552
2.317086049714249
-0.291907619910988
-0.186319526822552
2.317086049714249
-0.29181123138430626
-0.18537386954448473
2.3139937996105577
-0.29181123138430626
-0.18537386954448473
2.3139937996105577
-0.29181123138430626
-0.18537386954448473
2.3139937996105577
-0.29181123138430626
-0.18537386954448473
2.3139937996105577
-0.29584949680387085
-0.18313725106475334
2.3119487131701413
-0.29584949680387085
-0.18313725106475334
2.3119487131701413
-0.29584949680387085
-0.18313725106475334
2.3119487131701413
-0.29584949680387085
-0.18313725106475334
2.3119487131701413
-0.3029515811105243
-0.1804560384363941
2.3103444587221347
-0.3029515811105243
-0.1804560384363941
2.3103444587221347
-0.3029515811105243
-0.1804560384363941
2.3103444587221347
-0.3029515811105243
-0.1804560384363941
2.3103444587221347
-0.3121679192618427
-0.17798887723247486
2.30846264613679
-0.3121679192618427
-0.17798887723247486
2.30846264613679
-0.3121679192618427
-0.17798887723247486
2.30846264613679
-0.3121679192618427
-0.17798887723247486
2.30846264613679
-0.31546686287908043
-0.17622532701595608
2.305163449299326
-0.31546686287908043
-0.17622532701595608
2.305163449299326
-0.31546686287908043
-0.17622532701595608
2.305163449299326
-0.31546686287908043
-0.17622532701595608
2.305163449299326
-0.3183563788615406
-0.17506956022367112
2.3019709252880896
-0.3183563788615406
-0.17506956022367112
2.3019709252880896
-0.3183563788615406
-0.17506956022367112
2.3019709252880896
-0.3183563788615406
-0.17506956022367112
2.3019709252880896
-0.32092368469360555
-0.1757177601733827
2.299879665491435
-0.32092368469360555
-0.1757177601733827
2.299879665491435
-0.32092368469360555
-0.1757177601733827
2.299879665491435
-0.32092368469360555
-0.1757177601733827
2.299879665491435
-0.32255324034473803
-0.1759478614644942
2.2970728239611327
-0.32255324034473803
-0.1759478614644942
2.2970728239611327
-0.32255324034473803
-0.1759478614644942
2.2970728239611327
-0.32255324034473803
-0.1759478614644942
2.2970728239611327
-0.3236076552979094
-0.17629771131583205
2.295065773644531
-0.3236076552979094
-0.17629771131583205
2.295065773644531
-0.3236076552979094
-0.17629771131583205
2.295065773644531
-0.3236076552979094
-0.17629771131583205
2.295065773644531
-0.32456811929983487
-0.17657742066038726
2.2938711764696365
-0.32456811929983487
-0.17657742066038726
2.2938711764696365
-0.32456811929983487
-0.17657742066038726
2.2938711764696365
-0.32456811929983487
-0.17657742066038726
2.2938711764696365
-0.3254840415378287
-0.17693694009397923
2.2928509303164026
-0.3254840415378287
-0.17693694009397923
2.2928509303164026
-0.3254840415378287
-0.17693694009397923
2.2928509303164026
-0.3254840415378287
-0.17693694009397923
2.2928509303164026
-0.32508954815911106
-0.1768765829715568
2.2915823675119085
-0.32508954815911106
-0.1768765829715568
2.2915823675119085
-0.32508954815911106
-0.1768765829715568
2.2915823675119085
-0.32508954815911106
-0.1768765829715568
2.2915823675119085
-0.324784801859704
-0.1766364094168112
2.2914026127936866
-0.324784801859704
-0.1766364094168112
2.2914026127936866
-0.324784801859704
-0.1766364094168112
2.2914026127936866
-0.324784801859704
-0.1766364094168112
2.2914026127936866
-0.32195484903487515
-0.17710894048038345
2.290601542690931
-0.32195484903487515
-0.17710894048038345
2.290601542690931
-0.32195484903487515
-0.17710894048038345
2.290601542690931
-0.32195484903487515
-0.17710894048038345
2.290601542690931
-0.3208813529925486
-0.17669935240992748
2.2901528990371895
-0.3208813529925486
-0.17669935240992748
2.2901528990371895
-0.3208813529925486
-0.17669935240992748
2.2901528990371895
-0.3208813529925486
-0.17669935240992748
2.2901528990371895
-0.31883323600362196
-0.17549186161908661
2.290762033233449
-0.31883323600362196
-0.17549186161908661
2.290762033233449
-0.31883323600362196
-0.17549186161908661
2.290762033233449
-0.31883323600362196
-0.17549186161908661
2.290762033233449
-0.3160075416618005
-0.17416966260383793
2.2915031697126227
-0.3160075416618005
-0.17416966260383793
2.2915031697126227
-0.3160075416618005
-0.17416966260383793
2.2915031697126227
-0.3160075416618005
-0.17416966260383793
2.2915031697126227
-0.314422461723569
-0.17279152700981845
2.2920189584296615
-0.314422461723569
-0.17279152700981845
2.2920189584296615
-0.314422461723569
-0.17279152700981845
2.2920189584296615
-0.314422461723569
-0.17279152700981845
2.2920189584296615
-0.31041751109084165
-0.17133679523821382
2.2927465984301683
-0.31041751109084165
-0.17133679523821382
2.2927465984301683
-0.31041751109084165
-0.17133679523821382
2.2927465984301683
-0.31041751109084165
-0.17133679523821382
2.2927465984301683
-0.3092866778223998
-0.17019487733157934
2.293846332725944
-0.3092866778223998
-0.17019487733157934
2.293846332725944
-0.3092866778223998
-0.17019487733157934
2.293846332725944
-0.3092866778223998
-0.17019487733157934
2.293846332725944
-0.31015430710650815
-0.16886986542159887
2.2943801050848545
-0.31015430710650815
-0.16886986542159887
2.2943801050848545
-0.31015430710650815
-0.16886986542159887
2.2943801050848545
-0.31015430710650815
-0.16886986542159887
2.2943801050848545
-0.3085697951137159
-0.1678534069390807
2.2944655667010254
-0.3085697951137159
-0.1678534069390807
2.2944655667010254
-0.3085697951137159
-0.1678534069390807
2.2944655667010254
-0.3085697951137159
-0.1678534069390807
2.2944655667010254
-0.30545634235985913
-0.16682262694570538
2.2944644185737637
-0.30545634235985913
-0.16682262694570538
2.2944644185737637
-0.30545634235985913
-0.16682262694570538
2.2944644185737637
-0.30545634235985913
-0.16682262694570538
2.2944644185737637
-0.3027296350302805
-0.16589818012333746
2.2948525381817766
-0.3027296350302805
-0.16589818012333746
2.2948525381817766
-0.3027296350302805
-0.16589818012333746
2.2948525381817766
-0.3027296350302805
-0.16589818012333746
2.2948525381817766
-0.30219160346323226
-0.16497887539588013
2.2955489412470897
-0.30219160346323226
-0.16497887539588013
2.2955489412470897
-0.30219160346323226
-0.16497887539588013
2.2955489412470897
-0.30219160346323226
-0.16497887539588013
2.2955489412470897
-0.30276078921636285
-0.1637084654028173
2.2965096397183022
-0.30276078921636285
-0.1637084654028173
2.2965096397183022
-0.30276078921636285
-0.1637084654028173
2.2965096397183022
-0.30276078921636285
-0.1637084654028173
2.2965096397183022
-0.3027196397553037
-0.16223617991169592
2.297050669608063
-0.3027196397553037
-0.16223617991169592
2.297050669608063
-0.3027196397553037
-0.16223617991169592
2.297050669608063
-0.3027196397553037
-0.16223617991169592
2.297050669608063
-0.30146461735231833
-0.1607577110472998
2.2975427775864414
-0.30146461735231833
-0.1607577110472998
2.2975427775864414
-0.30146461735231833
-0.1607577110472998
2.2975427775864414
-0.30146461735231833
-0.1607577110472998
2.2975427775864414
-0.2997950367720137
-0.1595965877969863
2.2982154012956038
-0.2997950367720137
-0.1595965877969863
2.2982154012956038
-0.2997950367720137
-0.1595965877969863
2.2982154012956038
-0.2997950367720137
-0.1595965877969863
2.2982154012956038
-0.2999596931051059
-0.15830612618546233
2.2990273488552626
-0.2999596931051059
-0.15830612618546233
2.2990273488552626
-0.2999596931051059
-0.15830612618546233
2.2990273488552626
-0.2999596931051059
-0.15830612618546233
2.2990273488552626
-0.3008356055651914
-0.1572499523290566
2.299603271187219
-0.3008356055651914
-0.1572499523290566
2.299603271187219
-0.3008356055651914
-0.1572499523290566
2.299603271187219
-0.3008356055651914
-0.1572499523290566
2.299603271187219
-0.29832862928415765
-0.15617628625867283
2.2999482128869264
-0.29832862928415765
-0.15617628625867283
2.2999482128869264
-0.29832862928415765
-0.15617628625867283
2.2999482128869264
-0.29832862928415765
-0.15617628625867283
2.2999482128869264
-0.2974779664531974
-0.1553283651700197
2.3002452222042873
-0.2974779664531974
-0.1553283651700197
2.3002452222042873
-0.2974779664531974
-0.1553283651700197
2.3002452222042873
-0.2974779664531974
-0.1553283651700197
2.3002452222042873
-0.29463186196455043
-0.15495621150655722
2.300334952798268
-0.29463186196455043
-0.15495621150655722
2.300334952798268
-0.29463186196455043
-0.15495621150655722
2.300334952798268
-0.29463186196455043
-0.15495621150655722
2.300334952798268
-0.29518155338708824
-0.15433587394353607
2.3006748017964846
-0.29518155338708824
-0.15433587394353607
2.3006748017964846
-0.29518155338708824
-0.15433587394353607
2.3006748017964846
-0.29518155338708824
-0.15433587394353607
2.3006748017964846
-0.2945057727373767
-0.15369494162850153
2.301018384151701
-0.2945057727373767
-0.15369494162850153
2.301018384151701
-0.2945057727373767
-0.15369494162850153
2.301018384151701
-0.2945057727373767
-0.15369494162850153
2.301018384151701
-0.29509496655047923
-0.153583299470014
2.3008838661280198
-0.29509496655047923
-0.153583299470014
2.3008838661280198
-0.29509496655047923
-0.153583299470014
2.3008838661280198
-0.29509496655047923
-0.153583299470014
2.3008838661280198
-0.29531374382897096
-0.1533815732347024
2.300317692402236
-0.29531374382897096
-0.1533815732347024
2.300317692402236
-0.29531374382897096
-0.1533815732347024
2.300317692402236
-0.29531374382897096
-0.1533815732347024
2.300317692402236
-0.29634792126935305
-0.15320879164241502
2.3001569172132084
-0.29634792126935305
-0.15320879164241502
2.3001569172132084
-0.29634792126935305
-0.15320879164241502
2.3001569172132084
-0.29634792126935305
-0.15320879164241502
2.3001569172132084
-0.29475245214190876
-0.15309748268849874
2.2997298433914333
-0.29475245214190876
-0.15309748268849874
2.2997298433914333
-0.29475245214190876
-0.15309748268849874
2.2997298433914333
-0.29475245214190876
-0.15309748268849874
2.2997298433914333
-0.29624638376659534
-0.15313247222902868
2.299584239305981
-0.29624638376659534
-0.15313247222902868
2.299584239305981
-0.29624638376659534
-0.15313247222902868
2.299584239305981
-0.29624638376659534
-0.15313247222902868
2.299584239305981
-0.29783613532529135
-0.15322831682799737
2.2993429527933555
-0.29783613532529135
-0.15322831682799737
2.2993429527933555
-0.29783613532529135
-0.15322831682799737
2.2993429527933555
-0.29783613532529135
-0.15322831682799737
2.2993429527933555
-0.2989776809462365
-0.15341427779625477
2.298967826753267
-0.2989776809462365
-0.15341427779625477
2.298967826753267
-0.2989776809462365
-0.15341427779625477
2.298967826753267
-0.2989776809462365
-0.15341427779625477
2.298967826753267
-0.29913205199841525
-0.153336985391834
2.2983024911080583
-0.29913205199841525
-0.153336985391834
2.2983024911080583
-0.29913205199841525
-0.153336985391834
2.2983024911080583
-0.29913205199841525
-0.153336985391834
2.2983024911080583
-0.3002914321369395
-0.15315752263856622
2.297760875655947
-0.3002914321369395
-0.15315752263856622
2.297760875655947
-0.3002914321369395
-0.15315752263856622
2.297760875655947
-0.3002914321369395
-0.15315752263856622
2.297760875655947
-0.3028074622767091
-0.153673474527603
2.296834689397991
-0.3028074622767091
-0.153673474527603
2.296834689397991
-0.3028074622767091
-0.153673474527603
2.296834689397991
-0.3028074622767091
-0.153673474527603
2.296834689397991
-0.3041172694140765
-0.1540549356911628
2.295837335356463
-0.3041172694140765
-0.1540549356911628
2.295837335356463
-0.3041172694140765
-0.1540549356911628
2.295837335356463
-0.3041172694140765
-0.1540549356911628
2.295837335356463
-0.30319085817188307
-0.15489656940656438
2.2948384384743044
-0.30319085817188307
-0.15489656940656438
2.2948384384743044
-0.30319085817188307
-0.15489656940656438
2.2948384384743044
-0.30319085817188307
-0.15489656940656438
2.2948384384743044
-0.30401552300267054
-0.1554947048186437
2.2936720016920984
-0.30401552300267054
-0.1554947048186437
2.2936720016920984
-0.30401552300267054
-0.1554947048186437
2.2936720016920984
-0.30401552300267054
-0.1554947048186437
2.2936720016920984
-0.3064415084163265
-0.15589778290378423
2.293165022069323
-0.3064415084163265
-0.15589778290378423
2.293165022069323
-0.3064415084163265
-0.15589778290378423
2.293165022069323
-0.3064415084163265
-0.15589778290378423
2.293165022069323
-0.30598602843557204
-0.15597404090335165
2.292362092143368
-0.30598602843557204
-0.15597404090335165
2.292362092143368
-0.30598602843557204
-0.15597404090335165
2.292362092143368
-0.30598602843557204
-0.15597404090335165
2.292362092143368
-0.30573493192238693
-0.15526921296542048
2.2918960339649272
-0.30573493192238693
-0.15526921296542048
2.2918960339649272
-0.30573493192238693
-0.15526921296542048
2.2918960339649272
-0.30573493192238693
-0.15526921296542048
2.2918960339649272
-0.30685938455969736
-0.15430166572769413
2.291894909122339
-0.30685938455969736
-0.15430166572769413
2.291894909122339
-0.30685938455969736
-0.15430166572769413
2.291894909122339
-0.30685938455969736
-0.15430166572769413
2.291894909122339
-0.30706326091418074
-0.15352071277141888
2.292231030588759
-0.30706326091418074
-0.15352071277141888
2.292231030588759
-0.30706326091418074
-0.15352071277141888
2.292231030588759
-0.30706326091418074
-0.15352071277141888
2.292231030588759
-0.3061386900985761
-0.15224118573233034
2.292453562066447
-0.3061386900985761
-0.15224118573233034
2.292453562066447
-0.3061386900985761
-0.15224118573233034
2.292453562066447
-0.3061386900985761
-0.15224118573233034
2.292453562066447
-0.30804184311799987
-0.15069085111706768
2.293138402004941
-0.30804184311799987
-0.15069085111706768
2.293138402004941
-0.30804184311799987
-0.15069085111706768
2.293138402004941
-0.30804184311799987
-0.15069085111706768
2.293138402004941
-0.31022848180426316
-0.14914146685336216
2.2937899199997553
-0.31022848180426316
-0.14914146685336216
2.2937899199997553
-0.31022848180426316
-0.14914146685336216
2.2937899199997553
-0.31022848180426316
-0.14914146685336216
2.2937899199997553
-0.31187053570364076
-0.14761850751467412
2.2944011037114236
-0.31187053570364076
-0.14761850751467412
2.2944011037114236
-0.31187053570364076
-0.14761850751467412
2.2944011037114236
-0.31187053570364076
-0.14761850751467412
2.2944011037114236
-0.3103993940808956
-0.1469019893286525
2.2946105137437014
-0.3103993940808956
-0.1469019893286525
2.2946105137437014
-0.3103993940808956
-0.1469019893286525
2.2946105137437014
-0.3103993940808956
-0.1469019893286525
2.2946105137437014
-0.3111731411687172
-0.14609471371282814
2.2950431175602137
-0.3111731411687172
-0.14609471371282814
2.2950431175602137
-0.3111731411687172
-0.14609471371282814
2.2950431175602137
-0.3111731411687172
-0.14609471371282814
2.2950431175602137
-0.31633104805085877
-0.14464372144137025
2.2959399145034682
-0.31633104805085877
-0.14464372144137025
2.2959399145034682
-0.31633104805085877
-0.14464372144137025
2.2959399145034682
-0.31633104805085877
-0.14464372144137025
2.2959399145034682
-0.3205491787396056
-0.1431368730540907
2.2969683878254132
-0.3205491787396056
-0.1431368730540907
2.2969683878254132
-0.3205491787396056
-0.1431368730540907
2.2969683878254132
-0.3205491787396056
-0.1431368730540907
2.2969683878254132
-0.3230744971051106
-0.14202186067341716
2.2975340158235174
-0.3230744971051106
-0.14202186067341716
2.2975340158235174
-0.3230744971051106
-0.14202186067341716
2.2975340158235174
-0.3230744971051106
-0.14202186067341716
2.2975340158235174
-0.3259465524298248
-0.1407764554844091
2.2974941936921214
-0.3259465524298248
-0.1407764554844091
2.2974941936921214
-0.3259465524298248
-0.1407764554844091
2.2974941936921214
-0.3259465524298248
-0.1407764554844091
2.2974941936921214
-0.3280381290790431
-0.13976653570148617
2.2978757594827526
-0.3280381290790431
-0.13976653570148617
2.2978757594827526
-0.3280381290790431
-0.13976653570148617
2.2978757594827526
-0.3280381290790431
-0.13976653570148617
2.2978757594827526
-0.3272481693136315
-0.13907143105734765
2.298197533256827
-0.3272481693136315
-0.13907143105734765
2.298197533256827
-0.3272481693136315
-0.13907143105734765
2.298197533256827
-0.3272481693136315
-0.13907143105734765
2.298197533256827
-0.33128532373750924
-0.13760492978289854
2.299920435296498
-0.33128532373750924
-0.13760492978289854
2.299920435296498
-0.33128532373750924
-0.13760492978289854
2.299920435296498
-0.33128532373750924
-0.13760492978289854
2.299920435296498
-0.3396486293488003
-0.13501308726449154
2.302216706484456
-0.3396486293488003
-0.13501308726449154
2.302216706484456
-0.3396486293488003
-0.13501308726449154
2.302216706484456
-0.3396486293488003
-0.13501308726449154
2.302216706484456
-0.34959573018487744
-0.13098760728573372
2.3043574979359813
-0.34959573018487744
-0.13098760728573372
2.3043574979359813
-0.34959573018487744
-0.13098760728573372
2.3043574979359813
-0.34959573018487744
-0.13098760728573372
2.3043574979359813
-0.3592439583702903
-0.12918129016523133
2.306126066057015
-0.3592439583702903
-0.12918129016523133
2.306126066057015
-0.3592439583702903
-0.12918129016523133
2.306126066057015
-0.3592439583702903
-0.12918129016523133
2.306126066057015
-0.3721518733872017
-0.12294159028656149
2.308214566266191
-0.3721518733872017
-0.12294159028656149
2.308214566266191
-0.3721518733872017
-0.12294159028656149
2.308214566266191
-0.3721518733872017
-0.12294159028656149
2.308214566266191
-0.3791069029977978
-0.11714931078572301
2.3113123193236134
-0.3791069029977978
-0.11714931078572301
2.3113123193236134
-0.3791069029977978
-0.11714931078572301
2.3113123193236134
-0.3791069029977978
-0.11714931078572301
2.3113123193236134
-0.3770089783377914
-0.11528952565554357
2.312425401570495
-0.3770089783377914
-0.11528952565554357
2.312425401570495
-0.3770089783377914
-0.11528952565554357
2.312425401570495
-0.3770089783377914
-0.11528952565554357
2.312425401570495
-0.38120165785569043
-0.11599806560131212
2.312845159962223
-0.38120165785569043
-0.11599806560131212
2.312845159962223
-0.38120165785569043
-0.11599806560131212
2.312845159962223
-0.38120165785569043
-0.11599806560131212
2.312845159962223
-0.38901189603580605
-0.11940845132083186
2.313888588400286
-0.38901189603580605
-0.11940845132083186
2.313888588400286
-0.38901189603580605
-0.11940845132083186
2.313888588400286
-0.38901189603580605
-0.11940845132083186
2.313888588400286
-0.38573131711706493
-0.12188135883044382
2.314426826637147
-0.38573131711706493
-0.12188135883044382
2.314426826637147
-0.38573131711706493
-0.12188135883044382
2.314426826637147
-0.38573131711706493
-0.12188135883044382
2.314426826637147
-0.3838540728859
-0.12433451823953905
2.3142190499193105
-0.3838540728859
-0.12433451823953905
2.3142190499193105
-0.3838540728859
-0.12433451823953905
2.3142190499193105
-0.3838540728859
-0.12433451823953905
2.3142190499193105
-0.3828578531723581
-0.12403753934469754
2.316602077613119
-0.3828578531723581
-0.12403753934469754
2.316602077613119
-0.3828578531723581
-0.12403753934469754
2.316602077613119
-0.3828578531723581
-0.12403753934469754
2.316602077613119
-0.3754863228128225
-0.12163783073732
2.3187260087037522
-0.3754863228128225
-0.12163783073732
2.3187260087037522
-0.3754863228128225
-0.12163783073732
2.3187260087037522
-0.3754863228128225
-0.12163783073732
2.3187260087037522
-0.36284322462883256
-0.11966950763475112
2.3186387493631084
-0.36284322462883256
-0.11966950763475112
2.3186387493631084
-0.36284322462883256
-0.11966950763475112
2.3186387493631084
-0.36284322462883256
-0.11966950763475112
2.3186387493631084
-0.3499992439004271
-0.11721575969422997
2.317861054754648
-0.3499992439004271
-0.11721575969422997
2.317861054754648
-0.3499992439004271
-0.11721575969422997
2.317861054754648
-0.3499992439004271
-0.11721575969422997
2.317861054754648
-0.3428218880272397
-0.11490068640219614
2.318189599675042
-0.3428218880272397
-0.11490068640219614
2.318189599675042
-0.3428218880272397
-0.11490068640219614
2.318189599675042
-0.3428218880272397
-0.11490068640219614
2.318189599675042
-0.34469652015739255
-0.11205338314424394
2.3197557211720135
-0.34469652015739255
-0.11205338314424394
2.3197557211720135
-0.34469652015739255
-0.11205338314424394
2.3197557211720135
-0.34469652015739255
-0.11205338314424394
2.3197557211720135
-0.34282884474018765
-0.10766643114823488
2.3234724685380685
-0.34282884474018765
-0.10766643114823488
2.3234724685380685
-0.34282884474018765
-0.10766643114823488
2.3234724685380685
-0.34282884474018765
-0.10766643114823488
2.3234724685380685
-0.3339262078625649
-0.10415474561041457
2.326966575095308
-0.3339262078625649
-0.10415474561041457
2.326966575095308
-0.3339262078625649
-0.10415474561041457
2.326966575095308
-0.3339262078625649
-0.10415474561041457
2.326966575095308
-0.31926336036306263
-0.09976941901565477
2.3275672088888752
-0.31926336036306263
-0.09976941901565477
2.3275672088888752
-0.31926336036306263
-0.09976941901565477
2.3275672088888752
-0.31926336036306263
-0.09976941901565477
2.3275672088888752
-0.3060498218826235
-0.0958981944109409
2.3274030560281984
-0.3060498218826235
-0.0958981944109409
2.3274030560281984
-0.3060498218826235
-0.0958981944109409
2.3274030560281984
-0.3060498218826235
-0.0958981944109409
2.3274030560281984
-0.30140906518443095
-0.09467851875846527
2.328944511513181
-0.30140906518443095
-0.09467851875846527
2.328944511513181
-0.30140906518443095
-0.09467851875846527
2.328944511513181
-0.30140906518443095
-0.09467851875846527
2.328944511513181
-0.298735916055906
-0.09217483301352432
2.333666844798678
-0.298735916055906
-0.09217483301352432
2.333666844798678
-0.298735916055906
-0.09217483301352432
2.333666844798678
-0.298735916055906
-0.09217483301352432
2.333666844798678
-0.2892742162059035
-0.08988783626477205
2.336511851541287
-0.2892742162059035
-0.08988783626477205
2.336511851541287
-0.2892742162059035
-0.08988783626477205
2.336511851541287
-0.2892742162059035
-0.08988783626477205
2.336511851541287
-0.2795852234224566
-0.08963336831771293
2.3354050717983976
-0.2795852234224566
-0.08963336831771293
2.3354050717983976
-0.2795852234224566
-0.08963336831771293
2.3354050717983976
-0.2795852234224566
-0.08963336831771293
2.3354050717983976
-0.2744848726843942
-0.09033012230716578
2.333133284457851
-0.2744848726843942
-0.09033012230716578
2.333133284457851
-0.2744848726843942
-0.09033012230716578
2.333133284457851
-0.2744848726843942
-0.09033012230716578
2.333133284457851
-0.2707349634917588
-0.09147009390454561
2.336017485397662
-0.2707349634917588
-0.09147009390454561
2.336017485397662
-0.2707349634917588
-0.09147009390454561
2.336017485397662
-0.2707349634917588
-0.09147009390454561
2.336017485397662
-0.2642585691980438
-0.09392871161752
2.341906011564954
-0.2642585691980438
-0.09392871161752
2.341906011564954
-0.2642585691980438
-0.09392871161752
2.341906011564954
-0.2642585691980438
-0.09392871161752
2.341906011564954
-0.26858743416836794
-0.09598787420289591
2.3474591420913833
-0.26858743416836794
-0.09598787420289591
2.3474591420913833
-0.26858743416836794
-0.09598787420289591
2.3474591420913833
-0.26858743416836794
-0.09598787420289591
2.3474591420913833
-0.275596362011117
-0.09680865448096622
2.350963178966603
-0.275596362011117
-0.09680865448096622
2.350963178966603
-0.275596362011117
-0.09680865448096622
2.350963178966603
-0.275596362011117
-0.09680865448096622
2.350963178966603
-0.27296727441546426
-0.09727384554236865
2.3528075595736437
-0.27296727441546426
-0.09727384554236865
2.3528075595736437
-0.27296727441546426
-0.09727384554236865
2.3528075595736437
-0.27296727441546426
-0.09727384554236865
2.3528075595736437
-0.27192874127698513
-0.09684952734072595
2.3535718162842496
-0.27192874127698513
-0.09684952734072595
2.3535718162842496
-0.27192874127698513
-0.09684952734072595
2.3535718162842496
-0.27192874127698513
-0.09684952734072595
2.3535718162842496
-0.27461032796158
-0.0962259348547284
2.3537007166164923
-0.27461032796158
-0.0962259348547284
2.3537007166164923
-0.27461032796158
-0.0962259348547284
2.3537007166164923
-0.27461032796158
-0.0962259348547284
2.3537007166164923
-0.28089647368561543
-0.0965509840820715
2.3548856980685313
-0.28089647368561543
-0.0965509840820715
2.3548856980685313
-0.28089647368561543
-0.0965509840820715
2.3548856980685313
-0.28089647368561543
-0.0965509840820715
2.3548856980685313
-0.28659943413387917
-0.09634204638562073
2.3553509650901683
-0.28659943413387917
-0.09634204638562073
2.3553509650901683
-0.28659943413387917
-0.09634204638562073
2.3553509650901683
-0.28659943413387917
-0.09634204638562073
2.3553509650901683
-0.2925541844071554
-0.0965670057136079
2.3546273622353335
-0.2925541844071554
-0.0965670057136079
2.3546273622353335
-0.2925541844071554
-0.0965670057136079
2.3546273622353335
-0.2925541844071554
-0.0965670057136079
2.3546273622353335
-0.2980894515959725
-0.0971665263874485
2.3538262757756416
-0.2980894515959725
-0.0971665263874485
2.3538262757756416
-0.2980894515959725
-0.0971665263874485
2.3538262757756416
-0.2980894515959725
-0.0971665263874485
2.3538262757756416
-0.2995448819524684
-0.09700230598153568
2.3505639659292275
-0.2995448819524684
-0.09700230598153568
2.3505639659292275
-0.2995448819524684
-0.09700230598153568
2.3505639659292275
-0.2995448819524684
-0.09700230598153568
2.3505639659292275
-0.29901433006052075
-0.09715188222992041
2.3452373932106108
-0.29901433006052075
-0.09715188222992041
2.3452373932106108
-0.29901433006052075
-0.09715188222992041
2.3452373932106108
-0.29901433006052075
-0.09715188222992041
2.3452373932106108
-0.30099179743296617
-0.09744752721055622
2.339862299131023
-0.30099179743296617
-0.09744752721055622
2.339862299131023
-0.30099179743296617
-0.09744752721055622
2.339862299131023
-0.30099179743296617
-0.09744752721055622
2.339862299131023
-0.3066639487653841
-0.09800816919068625
2.3337500758740166
-0.3066639487653841
-0.09800816919068625
2.3337500758740166
-0.3066639487653841
-0.09800816919068625
2.3337500758740166
-0.3066639487653841
-0.09800816919068625
2.3337500758740166
-0.31592009502354984
-0.09802372274903509
2.3291383593174455
-0.31592009502354984
-0.09802372274903509
2.3291383593174455
-0.31592009502354984
-0.09802372274903509
2.3291383593174455
-0.31592009502354984
-0.09802372274903509
2.3291383593174455
-0.32029688436232434
-0.09839308169842058
2.325072193778969
-0.32029688436232434
-0.09839308169842058
2.325072193778969
-0.32029688436232434
-0.09839308169842058
2.325072193778969
-0.32029688436232434
-0.09839308169842058
2.325072193778969
-0.3208773518835381
-0.09796821340753999
2.319942046981822
-0.3208773518835381
-0.09796821340753999
2.319942046981822
-0.3208773518835381
-0.09796821340753999
2.319942046981822
-0.3208773518835381
-0.09796821340753999
2.319942046981822
-0.31791796077591267
-0.09941431551393025
2.3144083101264172
-0.31791796077591267
-0.09941431551393025
2.3144083101264172
-0.31791796077591267
-0.09941431551393025
2.3144083101264172
-0.31791796077591267
-0.09941431551393025
2.3144083101264172
-0.31939712478176324
-0.10131725341621785
2.307600523161881
-0.31939712478176324
-0.10131725341621785
2.307600523161881
-0.31939712478176324
-0.10131725341621785
2.307600523161881
-0.31939712478176324
-0.10131725341621785
2.307600523161881
-0.32758791900451606
-0.10441991006495291
2.300617701107309
-0.32758791900451606
-0.10441991006495291
2.300617701107309
-0.32758791900451606
-0.10441991006495291
2.300617701107309
-0.32758791900451606
-0.10441991006495291
2.300617701107309
-0.3344188794048217
-0.10771948187621522
2.295373949309335
-0.3344188794048217
-0.10771948187621522
2.295373949309335
-0.3344188794048217
-0.10771948187621522
2.295373949309335
-0.3344188794048217
-0.10771948187621522
2.295373949309335
-0.33686071500478126
-0.11109287116121375
2.290723648352177
-0.33686071500478126
-0.11109287116121375
2.290723648352177
-0.33686071500478126
-0.11109287116121375
2.290723648352177
-0.33686071500478126
-0.11109287116121375
2.290723648352177
-0.3409336153689901
-0.11260559007723044
2.2856884820017087
-0.3409336153689901
-0.11260559007723044
2.2856884820017087
-0.3409336153689901
-0.11260559007723044
2.2856884820017087
-0.3409336153689901
-0.11260559007723044
2.2856884820017087
-0.34613840535845747
-0.11475217569588614
2.280232392153378
-0.34613840535845747
-0.11475217569588614
2.280232392153378
-0.34613840535845747
-0.11475217569588614
2.280232392153378
-0.34613840535845747
-0.11475217569588614
2.280232392153378
-0.35229415333115455
-0.11740820405326916
2.27665462049378
-0.35229415333115455
-0.11740820405326916
2.27665462049378
-0.35229415333115455
-0.11740820405326916
2.27665462049378
-0.35229415333115455
-0.11740820405326916
2.27665462049378
-0.35410107328841894
-0.1208234518647659
2.2741095410868235
-0.35410107328841894
-0.1208234518647659
2.2741095410868235
-0.35410107328841894
-0.1208234518647659
2.2741095410868235
-0.35410107328841894
-0.1208234518647659
2.2741095410868235
-0.35396030834921094
-0.12427041001040708
2.271610856031759
-0.35396030834921094
-0.12427041001040708
2.271610856031759
-0.35396030834921094
-0.12427041001040708
2.271610856031759
-0.35396030834921094
-0.12427041001040708
2.271610856031759
-0.3555430496647619
-0.12603120570832843
2.269368938582075
-0.3555430496647619
-0.12603120570832843
2.269368938582075
-0.3555430496647619
-0.12603120570832843
2.269368938582075
-0.3555430496647619
-0.12603120570832843
2.269368938582075
-0.3541507270406711
-0.12762092521224966
2.2677268724813606
-0.3541507270406711
-0.12762092521224966
2.2677268724813606
-0.3541507270406711
-0.12762092521224966
2.2677268724813606
-0.3541507270406711
-0.12762092521224966
2.2677268724813606
-0.35310820046779484
-0.1290568965639765
2.2663025478343766
-0.35310820046779484
-0.1290568965639765
2.2663025478343766
-0.35310820046779484
-0.1290568965639765
2.2663025478343766
-0.35310820046779484
-0.1290568965639765
2.2663025478343766
-0.3532933399805636
-0.13021751666843587
2.265079965233999
-0.3532933399805636
-0.13021751666843587
2.265079965233999
-0.3532933399805636
-0.13021751666843587
2.265079965233999
-0.3532933399805636
-0.13021751666843587
2.265079965233999
-0.35653783097782454
-0.1310028637377752
2.26417048976936
-0.35653783097782454
-0.1310028637377752
2.26417048976936
-0.35653783097782454
-0.1310028637377752
2.26417048976936
-0.35653783097782454
-0.1310028637377752
2.26417048976936
-0.36107888982645425
-0.1313919430674607
2.2635602370139614
-0.36107888982645425
-0.1313919430674607
2.2635602370139614
-0.36107888982645425
-0.1313919430674607
2.2635602370139614
-0.36107888982645425
-0.1313919430674607
2.2635602370139614
-0.36160553745039087
-0.13210539500458832
2.2626725410252417
-0.36160553745039087
-0.13210539500458832
2.2626725410252417
-0.36160553745039087
-0.13210539500458832
2.2626725410252417
-0.36160553745039087
-0.13210539500458832
2.2626725410252417
-0.36171554548834656
-0.13215505926495907
2.2626891798940685
-0.36171554548834656
-0.13215505926495907
2.2626891798940685
-0.36171554548834656
-0.13215505926495907
2.2626891798940685
-0.36171554548834656
-0.13215505926495907
2.2626891798940685
-0.36157226296491335
-0.1321382886241842
2.262452534428882
-0.36157226296491335
-0.1321382886241842
2.262452534428882
-0.36157226296491335
-0.1321382886241842
2.262452534428882
-0.36157226296491335
-0.1321382886241842
2.262452534428882
-0.3613090337354565
-0.1318308596152002
2.262656182184111
-0.3613090337354565
-0.1318308596152002
2.262656182184111
-0.3613090337354565
-0.1318308596152002
2.262656182184111
-0.3613090337354565
-0.1318308596152002
2.262656182184111
-0.3577218253094129
-0.13153031846008292
2.2624045385110385
-0.3577218253094129
-0.13153031846008292
2.2624045385110385
-0.3577218253094129
-0.13153031846008292
2.2624045385110385
-0.3577218253094129
-0.13153031846008292
2.2624045385110385
-0.3584058193683349
-0.1300093888834886
2.2633980274299956
-0.3584058193683349
-0.1300093888834886
2.2633980274299956
-0.3584058193683349
-0.1300093888834886
2.2633980274299956
-0.3584058193683349
-0.1300093888834886
2.2633980274299956
-0.3600087841850052
-0.12857327441810396
2.2641350132984286
-0.3600087841850052
-0.12857327441810396
2.2641350132984286
-0.3600087841850052
-0.12857327441810396
2.2641350132984286
-0.3600087841850052
-0.12857327441810396
2.2641350132984286
-0.3638396233985684
-0.12719481562087825
2.2638104155715464
-0.3638396233985684
-0.12719481562087825
2.2638104155715464
-0.3638396233985684
-0.12719481562087825
2.2638104155715464
-0.3638396233985684
-0.12719481562087825
2.2638104155715464
-0.36292103323009695
-0.12560164113426614
2.2634528795402855
-0.36292103323009695
-0.12560164113426614
2.2634528795402855
-0.36292103323009695
-0.12560164113426614
2.2634528795402855
-0.36292103323009695
-0.12560164113426614
2.2634528795402855
-0.3586262497262029
-0.12408167447143435
2.2641640115258057
-0.3586262497262029
-0.12408167447143435
2.2641640115258057
-0.3586262497262029
-0.12408167447143435
2.2641640115258057
-0.3586262497262029
-0.12408167447143435
2.2641640115258057
-0.3584578477209604
-0.12200494412384409
2.2652189825050053
-0.3584578477209604
-0.12200494412384409
2.2652189825050053
-0.3584578477209604
-0.12200494412384409
2.2652189825050053
-0.3584578477209604
-0.12200494412384409
2.2652189825050053
-0.3597200229997331
-0.12034791033350394
2.2668874153964143
-0.3597200229997331
-0.12034791033350394
2.2668874153964143
-0.3597200229997331
-0.12034791033350394
2.2668874153964143
-0.3597200229997331
-0.12034791033350394
2.2668874153964143
-0.36013130183770353
-0.1181354973403152
2.268619781434448
-0.36013130183770353
-0.1181354973403152
2.268619781434448
-0.36013130183770353
-0.1181354973403152
2.268619781434448
-0.36013130183770353
-0.1181354973403152
2.268619781434448
-0.3621243328216517
-0.11556253268693656
2.269775103672498
-0.3621243328216517
-0.11556253268693656
2.269775103672498
-0.3621243328216517
-0.11556253268693656
2.269775103672498
-0.3621243328216517
-0.11556253268693656
2.269775103672498
-0.36305631138169087
-0.11344126563393263
2.2709418462303033
-0.36305631138169087
-0.11344126563393263
2.2709418462303033
-0.36305631138169087
-0.11344126563393263
2.2709418462303033
-0.36305631138169087
-0.11344126563393263
2.2709418462303033
-0.36481381926428674
-0.11191322519557534
2.2724348489318444
-0.36481381926428674
-0.11191322519557534
2.2724348489318444
-0.36481381926428674
-0.11191322519557534
2.2724348489318444
-0.36481381926428674
-0.11191322519557534
2.2724348489318444
-0.3681699679506499
-0.11080900632410844
2.273545490959863
-0.3681699679506499
-0.11080900632410844
2.273545490959863
-0.3681699679506499
-0.11080900632410844
2.273545490959863
-0.3681699679506499
-0.11080900632410844
2.273545490959863
-0.3704657545419838
-0.10967045287925013
2.274361649159947
-0.3704657545419838
-0.10967045287925013
2.274361649159947
-0.3704657545419838
-0.10967045287925013
2.274361649159947
-0.3704657545419838
-0.10967045287925013
2.274361649159947
-0.37233363951425785
-0.10908768454289478
2.2754755618992175
-0.37233363951425785
-0.10908768454289478
2.2754755618992175
-0.37233363951425785
-0.10908768454289478
2.2754755618992175
-0.37233363951425785
-0.10908768454289478
2.2754755618992175
-0.3746649962856467
-0.1084624611012449
2.27650005265427
-0.3746649962856467
-0.1084624611012449
2.27650005265427
-0.3746649962856467
-0.1084624611012449
2.27650005265427
-0.3746649962856467
-0.1084624611012449
2.27650005265427
-0.37847170894236565
-0.10787674221987507
2.2773946585606155
-0.37847170894236565
-0.10787674221987507
2.2773946585606155
-0.37847170894236565
-0.10787674221987507
2.2773946585606155
-0.37847170894236565
-0.10787674221987507
2.2773946585606155
-0.3795959858816152
-0.10678583981235353
2.27858539904368
-0.3795959858816152
-0.10678583981235353
2.27858539904368
-0.3795959858816152
-0.10678583981235353
2.27858539904368
-0.3795959858816152
-0.10678583981235353
2.27858539904368
-0.3812808471242264
-0.10575359432958072
2.279432520856772
-0.3812808471242264
-0.10575359432958072
2.279432520856772
-0.3812808471242264
-0.10575359432958072
2.279432520856772
-0.3812808471242264
-0.10575359432958072
2.279432520856772
-0.3848435654122948
-0.10509994995304103
2.28068586019406
-0.3848435654122948
-0.10509994995304103
2.28068586019406
-0.3848435654122948
-0.10509994995304103
2.28068586019406
-0.3848435654122948
-0.10509994995304103
2.28068586019406
-0.3852997902028581
-0.10463677046240204
2.2812895820681014
-0.3852997902028581
-0.10463677046240204
2.2812895820681014
-0.3852997902028581
-0.10463677046240204
2.2812895820681014
-0.3852997902028581
-0.10463677046240204
2.2812895820681014
-0.3845709847760617
-0.10344439913146342
2.2820710954710823
-0.3845709847760617
-0.10344439913146342
2.2820710954710823
-0.3845709847760617
-0.10344439913146342
2.2820710954710823
-0.3845709847760617
-0.10344439913146342
2.2820710954710823
-0.3821508754300744
-0.10295568523696598
2.2828932246974256
-0.3821508754300744
-0.10295568523696598
2.2828932246974256
-0.3821508754300744
-0.10295568523696598
2.2828932246974256
-0.3821508754300744
-0.10295568523696598
2.2828932246974256
-0.3785289667461709
-0.1029391559108915
2.2840142068041733
-0.3785289667461709
-0.1029391559108915
2.2840142068041733
-0.3785289667461709
-0.1029391559108915
2.2840142068041733
-0.3785289667461709
-0.1029391559108915
2.2840142068041733
-0.3762824537600833
-0.10237633425452489
2.2849452010925373
-0.3762824537600833
-0.10237633425452489
2.2849452010925373
-0.3762824537600833
-0.10237633425452489
2.2849452010925373
-0.3762824537600833
-0.10237633425452489
2.2849452010925373
-0.3772558537871122
-0.1016443540956487
2.2860292207642514
-0.3772558537871122
-0.1016443540956487
2.2860292207642514
-0.3772558537871122
-0.1016443540956487
2.2860292207642514
-0.3772558537871122
-0.1016443540956487
2.2860292207642514
-0.3779959617445798
-0.10054672426591069
2.2870303504006184
-0.3779959617445798
-0.10054672426591069
2.2870303504006184
-0.3779959617445798
-0.10054672426591069
2.2870303504006184
-0.3779959617445798
-0.10054672426591069
2.2870303504006184
-0.37558035054967576
-0.09972609251317756
2.287567391753264
-0.37558035054967576
-0.09972609251317756
2.287567391753264
-0.37558035054967576
-0.09972609251317756
2.287567391753264
-0.37558035054967576
-0.09972609251317756
2.287567391753264
-0.374136354547122
-0.09982365904433774
2.288450501396294
-0.374136354547122
-0.09982365904433774
2.288450501396294
-0.374136354547122
-0.09982365904433774
2.288450501396294
-0.374136354547122
-0.09982365904433774
2.288450501396294
-0.373809906327316
-0.10057220986322069
2.2886882631043757
-0.373809906327316
-0.10057220986322069
2.2886882631043757
-0.373809906327316
-0.10057220986322069
2.2886882631043757
-0.373809906327316
-0.10057220986322069
2.2886882631043757
-0.3749102807768557
-0.10114528647389458
2.2890275876773742
-0.3749102807768557
-0.10114528647389458
2.2890275876773742
-0.3749102807768557
-0.10114528647389458
2.2890275876773742
-0.3749102807768557
-0.10114528647389458
2.2890275876773742
-0.3722918109813098
-0.10116845568390972
2.288992002805991
-0.3722918109813098
-0.10116845568390972
2.288992002805991
-0.3722918109813098
-0.10116845568390972
2.288992002805991
-0.3722918109813098
-0.10116845568390972
2.288992002805991
-0.37224074469995067
-0.1015636472725959
2.288951186303107
-0.37224074469995067
-0.1015636472725959
2.288951186303107
-0.37224074469995067
-0.1015636472725959
2.288951186303107
-0.37224074469995067
-0.1015636472725959
2.288951186303107
-0.3729864800727112
-0.10177483923810991
2.288925350242202
-0.3729864800727112
-0.10177483923810991
2.288925350242202
-0.3729864800727112
-0.10177483923810991
2.288925350242202
-0.3729864800727112
-0.10177483923810991
2.288925350242202
-0.37432840497372316
-0.10208585669290654
2.289115410440238
-0.37432840497372316
-0.10208585669290654
2.289115410440238
-0.37432840497372316
-0.10208585669290654
2.289115410440238
-0.37432840497372316
-0.10208585669290654
2.289115410440238
-0.37197431926125263
-0.10307467898830634
2.288944222124444
-0.37197431926125263
-0.10307467898830634
2.288944222124444
-0.37197431926125263
-0.10307467898830634
2.288944222124444
-0.37197431926125263
-0.10307467898830634
2.288944222124444
-0.37268100289376566
-0.10363007449383904
2.2891471511799137
-0.37268100289376566
-0.10363007449383904
2.2891471511799137
-0.37268100289376566
-0.10363007449383904
2.2891471511799137
-0.37268100289376566
-0.10363007449383904
2.2891471511799137
-0.373378112961592
-0.10395083007162283
2.2891402693284246
-0.373378112961592
-0.10395083007162283
2.2891402693284246
-0.373378112961592
-0.10395083007162283
2.2891402693284246
-0.373378112961592
-0.10395083007162283
2.2891402693284246
-0.37163423252456484
-0.10447849710604139
2.2886346748167457
-0.37163423252456484
-0.10447849710604139
2.2886346748167457
-0.37163423252456484
-0.10447849710604139
2.2886346748167457
-0.37163423252456484
-0.10447849710604139
2.2886346748167457
-0.3716263601489958
-0.10542378148056789
2.288647140758566
-0.3716263601489958
-0.10542378148056789
2.288647140758566
-0.3716263601489958
-0.10542378148056789
2.288647140758566
-0.3716263601489958
-0.10542378148056789
2.288647140758566
-0.37065549919896734
-0.10673026493452144
2.288058335892165
-0.37065549919896734
-0.10673026493452144
2.288058335892165
-0.37065549919896734
-0.10673026493452144
2.288058335892165
-0.37065549919896734
-0.10673026493452144
2.288058335892165
-0.37251662683642867
-0.10686617881723985
2.287638350776861
-0.37251662683642867
-0.10686617881723985
2.287638350776861
-0.37251662683642867
-0.10686617881723985
2.287638350776861
-0.37251662683642867
-0.10686617881723985
2.287638350776861
-0.37173996340639226
-0.10773433891658939
2.2869776426574964
-0.37173996340639226
-0.10773433891658939
2.2869776426574964
-0.37173996340639226
-0.10773433891658939
2.2869776426574964
-0.37173996340639226
-0.10773433891658939
2.2869776426574964
-0.3736923519759938
-0.10863092345627925
2.2863769813938863
-0.3736923519759938
-0.10863092345627925
2.2863769813938863
-0.3736923519759938
-0.10863092345627925
2.2863769813938863
-0.3736923519759938
-0.10863092345627925
2.2863769813938863
-0.37513158801819196
-0.10976955339093396
2.2860728941707174
-0.37513158801819196
-0.10976955339093396
2.2860728941707174
-0.37513158801819196
-0.10976955339093396
2.2860728941707174
-0.37513158801819196
-0.10976955339093396
2.2860728941707174
-0.37316087377709994
-0.11140004233545711
2.2862623805319604
-0.37316087377709994
-0.11140004233545711
2.2862623805319604
-0.37316087377709994
-0.11140004233545711
2.2862623805319604
-0.37316087377709994
-0.11140004233545711
2.2862623805319604
-0.3755055798829323
-0.11319875953532967
2.2867547359085125
-0.3755055798829323
-0.11319875953532967
2.2867547359085125
-0.3755055798829323
-0.11319875953532967
2.2867547359085125
-0.3755055798829323
-0.11319875953532967
2.2867547359085125
-0.3817348947332814
-0.11329495693186264
2.287724264014326
-0.3817348947332814
-0.11329495693186264
2.287724264014326
-0.3817348947332814
-0.11329495693186264
2.287724264014326
-0.3817348947332814
-0.11329495693186264
2.287724264014326
-0.3862711530529609
-0.11177138008125609
2.288105101812457
-0.3862711530529609
-0.11177138008125609
2.288105101812457
-0.3862711530529609
-0.11177138008125609
2.288105101812457
-0.3862711530529609
-0.11177138008125609
2.288105101812457
-0.3842405395133173
-0.11105316403315123
2.288336595202391
-0.3842405395133173
-0.11105316403315123
2.288336595202391
-0.3842405395133173
-0.11105316403315123
2.288336595202391
-0.3842405395133173
-0.11105316403315123
2.288336595202391
-0.38871098228574696
-0.11061653618340363
2.2879732612437564
-0.38871098228574696
-0.11061653618340363
2.2879732612437564
-0.38871098228574696
-0.11061653618340363
2.2879732612437564
-0.38871098228574696
-0.11061653618340363
2.2879732612437564
-0.39530200850084873
-0.11194892814248752
2.287149892740085
-0.39530200850084873
-0.11194892814248752
2.287149892740085
-0.39530200850084873
-0.11194892814248752
2.287149892740085
-0.39530200850084873
-0.11194892814248752
2.287149892740085
-0.3947426577311052
-0.11388368943356629
2.285886172693547
-0.3947426577311052
-0.11388368943356629
2.285886172693547
-0.3947426577311052
-0.11388368943356629
2.285886172693547
-0.3947426577311052
-0.11388368943356629
2.285886172693547
-0.39321911185246305
-0.11693003305578097
2.2831133187734625
-0.39321911185246305
-0.11693003305578097
2.2831133187734625
-0.39321911185246305
-0.11693003305578097
2.2831133187734625
-0.39321911185246305
-0.11693003305578097
2.2831133187734625
-0.39134189713354417
-0.11999108913377238
2.2813721870884907
-0.39134189713354417
-0.11999108913377238
2.2813721870884907
-0.39134189713354417
-0.11999108913377238
2.2813721870884907
-0.39134189713354417
-0.11999108913377238
2.2813721870884907
-0.39168510489205643
-0.12385948471798422
2.2806635642504403
-0.39168510489205643
-0.12385948471798422
2.2806635642504403
-0.39168510489205643
-0.12385948471798422
2.2806635642504403
-0.39168510489205643
-0.12385948471798422
2.2806635642504403
-0.38694631917101263
-0.12553859289021768
2.2808963140342837
-0.38694631917101263
-0.12553859289021768
2.2808963140342837
-0.38694631917101263
-0.12553859289021768
2.2808963140342837
-0.38694631917101263
-0.12553859289021768
2.2808963140342837
-0.3754016845123274
-0.12503558775904897
2.282784148664374
-0.3754016845123274
-0.12503558775904897
2.282784148664374
-0.3754016845123274
-0.12503558775904897
2.282784148664374
-0.3754016845123274
-0.12503558775904897
2.282784148664374
-0.362949623435281
-0.12510221766759239
2.2839389524774116
-0.362949623435281
-0.12510221766759239
2.2839389524774116
-0.362949623435281
-0.12510221766759239
2.2839389524774116
-0.362949623435281
-0.12510221766759239
2.2839389524774116
-0.3524881492734432
-0.12943378283730914
2.2841103444618054
-0.3524881492734432
-0.12943378283730914
2.2841103444618054
-0.3524881492734432
-0.12943378283730914
2.2841103444618054
-0.3524881492734432
-0.12943378283730914
2.2841103444618054
-0.3379653259725695
-0.13164409810163868
2.280634058400989
-0.3379653259725695
-0.13164409810163868
2.280634058400989
-0.3379653259725695
-0.13164409810163868
2.280634058400989
-0.3379653259725695
-0.13164409810163868
2.280634058400989
-0.32114382146544185
-0.13364359913247612
2.280148264495119
-0.32114382146544185
-0.13364359913247612
2.280148264495119
-0.32114382146544185
-0.13364359913247612
2.280148264495119
-0.32114382146544185
-0.13364359913247612
2.280148264495119
-0.31067293708205823
-0.13406429994631666
2.28217451578202
-0.31067293708205823
-0.13406429994631666
2.28217451578202
-0.31067293708205823
-0.13406429994631666
2.28217451578202
-0.31067293708205823
-0.13406429994631666
2.28217451578202
-0.30571796786608196
-0.13133944278189305
2.2866495676461334
-0.30571796786608196
-0.13133944278189305
2.2866495676461334
-0.30571796786608196
-0.13133944278189305
2.2866495676461334
-0.30571796786608196
-0.13133944278189305
2.2866495676461334
-0.30502961193262923
-0.12823794096975952
2.29226247697916
-0.30502961193262923
-0.12823794096975952
2.29226247697916
-0.30502961193262923
-0.12823794096975952
2.29226247697916
-0.30502961193262923
-0.12823794096975952
2.29226247697916
-0.3064554269038794
-0.12523941158351973
2.2974832198759247
-0.3064554269038794
-0.12523941158351973
2.2974832198759247
-0.3064554269038794
-0.12523941158351973
2.2974832198759247
-0.3064554269038794
-0.12523941158351973
2.2974832198759247
-0.30257908087956514
-0.12254803309390797
2.3011160030862747
-0.30257908087956514
-0.12254803309390797
2.3011160030862747
-0.30257908087956514
-0.12254803309390797
2.3011160030862747
-0.30257908087956514
-0.12254803309390797
2.3011160030862747
-0.2936620581340955
-0.11991579803276632
2.303822403293547
-0.2936620581340955
-0.11991579803276632
2.303822403293547
-0.2936620581340955
-0.11991579803276632
2.303822403293547
-0.2936620581340955
-0.11991579803276632
2.303822403293547
-0.2836209165889128
-0.11741192625434242
2.3053339759499294
-0.2836209165889128
-0.11741192625434242
2.3053339759499294
-0.2836209165889128
-0.11741192625434242
2.3053339759499294
-0.2836209165889128
-0.11741192625434242
2.3053339759499294
-0.2806668681340581
-0.11607845427340087
2.307767945490691
-0.2806668681340581
-0.11607845427340087
2.307767945490691
-0.2806668681340581
-0.11607845427340087
2.307767945490691
-0.2806668681340581
-0.11607845427340087
2.307767945490691
-0.28141078368926015
-0.11464477494709502
2.31192110792676
-0.28141078368926015
-0.11464477494709502
2.31192110792676
-0.28131998247946643
-0.11385326127294593
2.3164426610623083
-0.28131998247946643
-0.11385326127294593
2.3164426610623083
-0.28131998247946643
-0.11385326127294593
2.3164426610623083
-0.28131998247946643
-0.11385326127294593
2.3164426610623083
-0.2805577791711143
-0.11275074731173985
2.319439413087107
-0.2805577791711143
-0.11275074731173985
2.319439413087107
-0.2805577791711143
-0.11275074731173985
2.319439413087107
-0.2805577791711143
-0.11275074731173985
2.319439413087107
-0.2773519448727992
-0.1120228811349529
2.321785426474788
-0.2773519448727992
-0.1120228811349529
2.321785426474788
-0.2773519448727992
-0.1120228811349529
2.321785426474788
-0.2773519448727992
-0.1120228811349529
2.321785426474788
-0.2711498821314539
-0.11164553378438431
2.323821848445913
-0.2711498821314539
-0.11164553378438431
2.323821848445913
-0.2711498821314539
-0.11164553378438431
2.323821848445913
-0.2711498821314539
-0.11164553378438431
2.323821848445913
-0.27203710262011793
-0.11113719450375663
2.325243471785892
-0.27203710262011793
-0.11113719450375663
2.325243471785892
-0.27203710262011793
-0.11113719450375663
2.325243471785892
-0.27203710262011793
-0.11113719450375663
2.325243471785892
-0.2785331333513553
-0.10982113687948995
2.3261306503947767
-0.2785331333513553
-0.10982113687948995
2.3261306503947767
-0.2785331333513553
-0.10982113687948995
2.3261306503947767
-0.2785331333513553
-0.10982113687948995
2.3261306503947767
-0.2804072228756934
-0.10762666623516193
2.3265396537688945
-0.2804072228756934
-0.10762666623516193
2.3265396537688945
-0.2804072228756934
-0.10762666623516193
2.3265396537688945
-0.2804072228756934
-0.10762666623516193
2.3265396537688945
-0.27829338632032186
-0.10595549403114833
2.3270024702222596
-0.27829338632032186
-0.10595549403114833
2.3270024702222596
-0.27829338632032186
-0.10595549403114833
2.3270024702222596
-0.27829338632032186
-0.10595549403114833
2.3270024702222596
-0.27755473267269926
-0.10545588250422491
2.3264407432505223
-0.27755473267269926
-0.10545588250422491
2.3264407432505223
-0.27755473267269926
-0.10545588250422491
2.3264407432505223
-0.27755473267269926
-0.10545588250422491
2.3264407432505223
-0.28371939015304115
-0.10399336246249066
2.325663196300087
-0.28371939015304115
-0.10399336246249066
2.325663196300087
-0.28371939015304115
-0.10399336246249066
2.325663196300087
-0.28371939015304115
-0.10399336246249066
2.325663196300087
-0.28539055909535416
-0.10296533767498976
2.3249526089912234
-0.28539055909535416
-0.10296533767498976
2.3249526089912234
-0.28539055909535416
-0.10296533767498976
2.3249526089912234
-0.28539055909535416
-0.10296533767498976
2.3249526089912234
-0.28883484418834615
-0.10250193482392117
2.323926127097074
-0.28883484418834615
-0.10250193482392117
2.323926127097074
-0.28883484418834615
-0.10250193482392117
2.323926127097074
-0.28883484418834615
-0.10250193482392117
2.323926127097074
-0.2965193673802352
-0.10256498689160498
2.3228974799389386
-0.2965193673802352
-0.10256498689160498
2.3228974799389386
-0.2965193673802352
-0.10256498689160498
2.3228974799389386
-0.2965193673802352
-0.10256498689160498
2.3228974799389386
-0.29544349044807555
-0.10103335082288656
2.320441769018836
-0.29544349044807555
-0.10103335082288656
2.320441769018836
-0.29544349044807555
-0.10103335082288656
2.320441769018836
-0.29544349044807555
-0.10103335082288656
2.320441769018836
-0.29224403200859767
-0.09865412313735884
2.314206002382641
-0.29224403200859767
-0.09865412313735884
2.314206002382641
-0.29224403200859767
-0.09865412313735884
2.314206002382641
-0.29224403200859767
-0.09865412313735884
2.314206002382641
-0.2946877095615601
-0.09671962863136703
2.307417319253831
-0.2946877095615601
-0.09671962863136703
2.307417319253831
-0.2946877095615601
-0.09671962863136703
2.307417319253831
-0.2946877095615601
-0.09671962863136703
2.307417319253831
-0.3085804570134372
-0.09702832993360169
2.3043608766375083
-0.3085804570134372
-0.09702832993360169
2.3043608766375083
-0.3085804570134372
-0.09702832993360169
2.3043608766375083
-0.3085804570134372
-0.09702832993360169
2.3043608766375083
-0.32117607165872225
-0.098485956583629
2.302366748722857
-0.32117607165872225
-0.098485956583629
2.302366748722857
-0.32117607165872225
-0.098485956583629
2.302366748722857
-0.32117607165872225
-0.098485956583629
2.302366748722857
-0.3227231389649115
-0.09835450897111839
2.2966131803966197
-0.3227231389649115
-0.09835450897111839
2.2966131803966197
-0.3227231389649115
-0.09835450897111839
2.2966131803966197
-0.3227231389649115
-0.09835450897111839
2.2966131803966197
-0.32354608692150466
-0.09664364001971475
2.2888425537867896
-0.32354608692150466
-0.09664364001971475
2.2888425537867896
-0.32354608692150466
-0.09664364001971475
2.2888425537867896
-0.32354608692150466
-0.09664364001971475
2.2888425537867896
-0.32715074031098124
-0.0962843452527166
2.2829400502156694
-0.32715074031098124
-0.0962843452527166
2.2829400502156694
-0.32715074031098124
-0.0962843452527166
2.2829400502156694
-0.32715074031098124
-0.0962843452527166
2.2829400502156694
-0.3317469784062848
-0.09629389536346357
2.279807750189578
-0.3317469784062848
-0.09629389536346357
2.279807750189578
-0.3317469784062848
-0.09629389536346357
2.279807750189578
-0.3317469784062848
-0.09629389536346357
2.279807750189578
-0.33894944400079574
-0.0957434284925068
2.276105546362445
-0.33894944400079574
-0.0957434284925068
2.276105546362445
-0.33894944400079574
-0.0957434284925068
2.276105546362445
-0.33894944400079574
-0.0957434284925068
2.276105546362445
-0.3511464741633843
-0.09489749272215411
2.27210916256137
-0.3511464741633843
-0.09489749272215411
2.27210916256137
-0.3511464741633843
-0.09489749272215411
2.27210916256137
-0.3511464741633843
-0.09489749272215411
2.27210916256137
-0.36009364154797313
-0.09453779094174974
2.2684576508676124
-0.36009364154797313
-0.09453779094174974
2.2684576508676124
-0.36009364154797313
-0.09453779094174974
2.2684576508676124
-0.36009364154797313
-0.09453779094174974
2.2684576508676124
-0.3622908537371016
-0.09603292857157954
2.2649026645173254
-0.3622908537371016
-0.09603292857157954
2.2649026645173254
-0.3622908537371016
-0.09603292857157954
2.2649026645173254
-0.3622908537371016
-0.09603292857157954
2.2649026645173254
-0.36370201192195095
-0.09801619908052593
2.261843366329755
-0.36370201192195095
-0.09801619908052593
2.261843366329755
-0.36370201192195095
-0.09801619908052593
2.261843366329755
-0.36370201192195095
-0.09801619908052593
2.261843366329755
-0.3658389795711343
-0.10082926554531924
2.2584790544872733
-0.3658389795711343
-0.10082926554531924
2.2584790544872733
-0.3658389795711343
-0.10082926554531924
2.2584790544872733
-0.3658389795711343
-0.10082926554531924
2.2584790544872733
-0.36810514828522634
-0.10243679185430088
2.2553449854937586
-0.36810514828522634
-0.10243679185430088
2.2553449854937586
-0.36810514828522634
-0.10243679185430088
2.2553449854937586
-0.36810514828522634
-0.10243679185430088
2.2553449854937586
-0.36534465483761874
-0.10462215359507133
2.253597486433949
-0.36534465483761874
-0.10462215359507133
2.253597486433949
-0.36534465483761874
-0.10462215359507133
2.253597486433949
-0.36534465483761874
-0.10462215359507133
2.253597486433949
-0.3645287798407309
-0.10820112458127326
2.2529368441176683
-0.3645287798407309
-0.10820112458127326
2.2529368441176683
-0.3645287798407309
-0.10820112458127326
2.2529368441176683
-0.3645287798407309
-0.10820112458127326
2.2529368441176683
-0.36813170581270466
-0.1106177100684381
2.251705955675518
-0.36813170581270466
-0.1106177100684381
2.251705955675518
-0.36813170581270466
-0.1106177100684381
2.251705955675518
-0.36813170581270466
-0.1106177100684381
2.251705955675518
-0.36931710374822313
-0.1122824992870757
2.251087455126187
-0.36931710374822313
-0.1122824992870757
2.251087455126187
-0.36931710374822313
-0.1122824992870757
2.251087455126187
-0.36931710374822313
-0.1122824992870757
2.251087455126187
-0.3693017632228012
-0.11411424382713543
2.250818809831711
-0.3693017632228012
-0.11411424382713543
2.250818809831711
-0.3693017632228012
-0.11411424382713543
2.250818809831711
-0.3693017632228012
-0.11411424382713543
2.250818809831711
-0.36795167047273075
-0.11577832667316333
2.2508811330093548
-0.36795167047273075
-0.11577832667316333
2.2508811330093548
-0.36795167047273075
-0.11577832667316333
2.2508811330093548
-0.36795167047273075
-0.11577832667316333
2.2508811330093548
-0.3668524703415583
-0.11750919434372045
2.2511921673308777
-0.3668524703415583
-0.11750919434372045
2.2511921673308777
-0.3668524703415583
-0.11750919434372045
2.2511921673308777
-0.3668524703415583
-0.11750919434372045
2.2511921673308777
-0.3673683646415138
-0.1181122011834424
2.25211539179777
-0.3673683646415138
-0.1181122011834424
2.25211539179777
-0.3673683646415138
-0.1181122011834424
2.25211539179777
-0.3673683646415138
-0.1181122011834424
2.25211539179777
-0.36381722903240016
-0.11947588791091242
2.252423563788124
-0.36381722903240016
-0.11947588791091242
2.252423563788124
-0.36381722903240016
-0.11947588791091242
2.252423563788124
-0.36381722903240016
-0.11947588791091242
2.252423563788124
-0.3643919987403085
-0.11965367141488767
2.2535492869028033
-0.3643919987403085
-0.11965367141488767
2.2535492869028033
-0.3643919987403085
-0.11965367141488767
2.2535492869028033
-0.3643919987403085
-0.11965367141488767
2.2535492869028033
-0.36438008632628305
-0.11993093951668615
2.2541558160581476
-0.36438008632628305
-0.11993093951668615
2.2541558160581476
-0.36438008632628305
-0.11993093951668615
2.2541558160581476
-0.36438008632628305
-0.11993093951668615
2.2541558160581476
-0.36507577867711855
-0.11932849554551966
2.2547005423749007
-0.36507577867711855
-0.11932849554551966
2.2547005423749007
-0.36507577867711855
-0.11932849554551966
2.2547005423749007
-0.36507577867711855
-0.11932849554551966
2.2547005423749007
-0.36220542887113727
-0.11891562003669676
2.2552761847633245
-0.36220542887113727
-0.11891562003669676
2.2552761847633245
-0.36220542887113727
-0.11891562003669676
2.2552761847633245
-0.36220542887113727
-0.11891562003669676
2.2552761847633245
-0.36127307632371986
-0.11793993145451853
2.2558166216397915
-0.36127307632371986
-0.11793993145451853
2.2558166216397915
-0.36127307632371986
-0.11793993145451853
2.2558166216397915
-0.36127307632371986
-0.11793993145451853
2.2558166216397915
-0.36503730610343216
-0.11721518944758212
2.256195649684119
-0.36503730610343216
-0.11721518944758212
2.256195649684119
-0.36503730610343216
-0.11721518944758212
2.256195649684119
-0.36503730610343216
-0.11721518944758212
2.256195649684119
-0.36575263363080596
-0.11660267524411541
2.2561826864175325
-0.36575263363080596
-0.11660267524411541
2.2561826864175325
-0.36575263363080596
-0.11660267524411541
2.2561826864175325
-0.36575263363080596
-0.11660267524411541
2.2561826864175325
-0.3679228312852529
-0.116055094590597
2.256604157663716
-0.3679228312852529
-0.116055094590597
2.256604157663716
-0.3679228312852529
-0.116055094590597
2.256604157663716
-0.3679228312852529
-0.116055094590597
2.256604157663716
-0.3676865243241443
-0.11541926661396315
2.256471345945103
-0.3676865243241443
-0.11541926661396315
2.256471345945103
-0.3676865243241443
-0.11541926661396315
2.256471345945103
-0.3676865243241443
-0.11541926661396315
2.256471345945103
-0.3682216240294835
-0.11426370158321325
2.256677328177953
-0.3682216240294835
-0.11426370158321325
2.256677328177953
-0.3682216240294835
-0.11426370158321325
2.256677328177953
-0.3682216240294835
-0.11426370158321325
2.256677328177953
-0.3703025396586773
-0.11268677695339473
2.257229617770573
-0.3703025396586773
-0.11268677695339473
2.257229617770573
-0.3703025396586773
-0.11268677695339473
2.257229617770573
-0.3703025396586773
-0.11268677695339473
2.257229617770573
-0.37155475534170296
-0.11150373609892934
2.2572490078284067
-0.37155475534170296
-0.11150373609892934
2.2572490078284067
-0.37155475534170296
-0.11150373609892934
2.2572490078284067
-0.37155475534170296
-0.11150373609892934
2.2572490078284067
-0.37251787189245894
-0.11028031355592224
2.2574634300470744
-0.37251787189245894
-0.11028031355592224
2.2574634300470744
-0.37251787189245894
-0.11028031355592224
2.2574634300470744
-0.37251787189245894
-0.11028031355592224
2.2574634300470744
-0.37307460686565486
-0.10911691969835646
2.2571087768873133
-0.37307460686565486
-0.10911691969835646
2.2571087768873133
-0.37307460686565486
-0.10911691969835646
2.2571087768873133
-0.37307460686565486
-0.10911691969835646
2.2571087768873133
-0.3747819484706958
-0.10814997955599898
2.2571364583617943
-0.3747819484706958
-0.10814997955599898
2.2571364583617943
-0.3747819484706958
-0.10814997955599898
2.2571364583617943
-0.3747819484706958
-0.10814997955599898
2.2571364583617943
-0.37557478493113217
-0.10762263566411297
2.2569141247250126
-0.37557478493113217
-0.10762263566411297
2.2569141247250126
-0.37557478493113217
-0.10762263566411297
2.2569141247250126
-0.37557478493113217
-0.10762263566411297
2.2569141247250126
-0.37647808277734196
-0.10662597577484524
2.256553421336462
-0.37647808277734196
-0.10662597577484524
2.256553421336462
-0.37647808277734196
-0.10662597577484524
2.256553421336462
-0.37647808277734196
-0.10662597577484524
2.256553421336462
-0.3780003404037684
-0.10637409105069094
2.2560358169894443
-0.3780003404037684
-0.10637409105069094
2.2560358169894443
-0.3780003404037684
-0.10637409105069094
2.2560358169894443
-0.3780003404037684
-0.10637409105069094
2.2560358169894443
-0.38008231420583244
-0.10670896280103961
2.255328856852474
-0.38008231420583244
-0.10670896280103961
2.255328856852474
-0.38008231420583244
-0.10670896280103961
2.255328856852474
-0.38008231420583244
-0.10670896280103961
2.255328856852474
-0.38026599326065325
-0.10664543597881937
2.2547701255144728
-0.38026599326065325
-0.10664543597881937
2.2547701255144728
-0.38026599326065325
-0.10664543597881937
2.2547701255144728
-0.38026599326065325
-0.10664543597881937
2.2547701255144728
-0.3813734645455462
-0.10696355593287177
2.2545055242999967
-0.3813734645455462
-0.10696355593287177
2.2545055242999967
-0.3813734645455462
-0.10696355593287177
2.2545055242999967
-0.3813734645455462
-0.10696355593287177
2.2545055242999967
-0.38206024314314646
-0.10761595515011343
2.2542826102528033
-0.38206024314314646
-0.10761595515011343
2.2542826102528033
-0.38206024314314646
-0.10761595515011343
2.2542826102528033
-0.38206024314314646
-0.10761595515011343
2.2542826102528033
-0.38167189345335273
-0.10782559276289838
2.2543561349383863
-0.38167189345335273
-0.10782559276289838
2.2543561349383863
-0.38167189345335273
-0.10782559276289838
2.2543561349383863
-0.38167189345335273
-0.10782559276289838
2.2543561349383863
-0.37802551519193833
-0.10786081548634238
2.2549310685635757
-0.37802551519193833
-0.10786081548634238
2.2549310685635757
-0.37802551519193833
-0.10786081548634238
2.2549310685635757
-0.37802551519193833
-0.10786081548634238
2.2549310685635757
-0.37632697705025026
-0.10763507458222968
2.255346618925566
-0.37632697705025026
-0.10763507458222968
2.255346618925566
-0.37632697705025026
-0.10763507458222968
2.255346618925566
-0.37632697705025026
-0.10763507458222968
2.255346618925566
-0.37942636645891487
-0.10773510394705497
2.256101253564567
-0.37942636645891487
-0.10773510394705497
2.256101253564567
-0.37942636645891487
-0.10773510394705497
2.256101253564567
-0.37942636645891487
-0.10773510394705497
2.256101253564567
-0.37746748574672895
-0.10808358421993092
2.2558318091895506
-0.37746748574672895
-0.10808358421993092
2.2558318091895506
-0.37746748574672895
-0.10808358421993092
2.2558318091895506
-0.37746748574672895
-0.10808358421993092
2.2558318091895506
-0.37788813008956657
-0.1083907801466131
2.255971698910691
-0.37788813008956657
-0.1083907801466131
2.255971698910691
-0.37788813008956657
-0.1083907801466131
2.255971698910691
-0.37788813008956657
-0.1083907801466131
2.255971698910691
-0.3757133179590789
-0.10828628287784468
2.2560474324072115
-0.3757133179590789
-0.10828628287784468
2.2560474324072115
-0.3757133179590789
-0.10828628287784468
2.2560474324072115
-0.3757133179590789
-0.10828628287784468
2.2560474324072115
-0.37762800236374505
-0.10828057069619901
2.2565469535262097
-0.37762800236374505
-0.10828057069619901
2.2565469535262097
-0.37762800236374505
-0.10828057069619901
2.2565469535262097
-0.37762800236374505
-0.10828057069619901
2.2565469535262097
-0.3786986838533579
-0.10865446733412296
2.2565700375038693
-0.3786986838533579
-0.10865446733412296
2.2565700375038693
-0.3786986838533579
-0.10865446733412296
2.2565700375038693
-0.3786986838533579
-0.10865446733412296
2.2565700375038693
-0.38006739823431984
-0.10933692420902069
2.256449020111414
-0.38006739823431984
-0.10933692420902069
2.256449020111414
-0.38006739823431984
-0.10933692420902069
2.256449020111414
-0.38006739823431984
-0.10933692420902069
2.256449020111414
-0.3772004435345518
-0.10983969614105098
2.2559866118603966
-0.3772004435345518
-0.10983969614105098
2.2559866118603966
-0.3772004435345518
-0.10983969614105098
2.2559866118603966
-0.3772004435345518
-0.10983969614105098
2.2559866118603966
-0.3788656519022847
-0.11041088937253503
2.2564180161791754
-0.3788656519022847
-0.11041088937253503
2.2564180161791754
-0.3788656519022847
-0.11041088937253503
2.2564180161791754
-0.3788656519022847
-0.11041088937253503
2.2564180161791754
-0.37858373477427065
-0.1110239090143636
2.256129450787528
-0.37858373477427065
-0.1110239090143636
2.256129450787528
-0.37858373477427065
-0.1110239090143636
2.256129450787528
-0.37858373477427065
-0.1110239090143636
2.256129450787528
-0.3790842450005769
-0.11145072343086344
2.255907567474184
-0.3790842450005769
-0.11145072343086344
2.255907567474184
-0.3790842450005769
-0.11145072343086344
2.255907567474184
-0.3790842450005769
-0.11145072343086344
2.255907567474184
-0.3776566907217812
-0.11219010363792202
2.2556311039505825
-0.3776566907217812
-0.11219010363792202
2.2556311039505825
-0.3776566907217812
-0.11219010363792202
2.2556311039505825
-0.3776566907217812
-0.11219010363792202
2.2556311039505825
-0.3770357301274366
-0.1123511207234781
2.255402046942992
-0.3770357301274366
-0.1123511207234781
2.255402046942992
-0.3770357301274366
-0.1123511207234781
2.255402046942992
-0.3770357301274366
-0.1123511207234781
2.255402046942992
-0.3770357301274366
-0.1123511207234781
2.255402046942992
-0.3770357301274366
-0.1123511207234781
2.255402046942992
-0.3770357301274366
-0.1123511207234781
2.255402046942992
-0.3770357301274366
-0.1123511207234781
2.255402046942992
-0.3775921422670032
-0.11235025583973386
2.2553797414111876
-0.3775921422670032
-0.11235025583973386
2.2553797414111876
-0.3775921422670032
-0.11235025583973386
2.2553797414111876
-0.3775921422670032
-0.11235025583973386
2.2553797414111876
-0.37851531347887246
-0.11269801415197774
2.255835989162547
-0.37851531347887246
-0.11269801415197774
2.255835989162547
-0.37851531347887246
-0.11269801415197774
2.255835989162547
-0.37851531347887246
-0.11269801415197774
2.255835989162547
-0.380615126165831
-0.11349042930849094
2.256840724229998
-0.380615126165831
-0.11349042930849094
2.256840724229998
-0.380615126165831
-0.11349042930849094
2.256840724229998
-0.380615126165831
-0.11349042930849094
2.256840724229998
-0.38293831512241716
-0.11402699334425861
2.2582560346544
-0.38293831512241716
-0.11402699334425861
2.2582560346544
-0.38293831512241716
-0.11402699334425861
2.2582560346544
-0.38293831512241716
-0.11402699334425861
2.2582560346544
-0.387137191129929
-0.11267443467787655
2.2592501241164444
-0.387137191129929
-0.11267443467787655
2.2592501241164444
-0.387137191129929
-0.11267443467787655
2.2592501241164444
-0.387137191129929
-0.11267443467787655
2.2592501241164444
-0.39427990202351254
-0.10919911736514444
2.259488189100221
-0.39427990202351254
-0.10919911736514444
2.259488189100221
-0.39427990202351254
-0.10919911736514444
2.259488189100221
-0.39427990202351254
-0.10919911736514444
2.259488189100221
-0.3935544892124296
-0.10596445340460162
2.2595209706174044
-0.3935544892124296
-0.10596445340460162
2.2595209706174044
-0.3935544892124296
-0.10596445340460162
2.2595209706174044
-0.3935544892124296
-0.10596445340460162
2.2595209706174044
-0.39221552211445926
-0.1052458696376744
2.259857935026201
-0.39221552211445926
-0.1052458696376744
2.259857935026201
-0.39221552211445926
-0.1052458696376744
2.259857935026201
-0.39221552211445926
-0.1052458696376744
2.259857935026201
-0.3987805962051709
-0.10563434177498679
2.2611499317956496
-0.3987805962051709
-0.10563434177498679
2.2611499317956496
-0.3987805962051709
-0.10563434177498679
2.2611499317956496
-0.3987805962051709
-0.10563434177498679
2.2611499317956496
-0.40406756387149406
-0.10738683747299493
2.260978184448722
-0.40406756387149406
-0.10738683747299493
2.260978184448722
-0.40406756387149406
-0.10738683747299493
2.260978184448722
-0.40406756387149406
-0.10738683747299493
2.260978184448722
-0.4069911712475256
-0.10896438248258174
2.259634075320494
-0.4069911712475256
-0.10896438248258174
2.259634075320494
-0.4069911712475256
-0.10896438248258174
2.259634075320494
-0.4069911712475256
-0.10896438248258174
2.259634075320494
-0.4088093974579644
-0.10990367906355933
2.2587648475527695
-0.4088093974579644
-0.10990367906355933
2.2587648475527695
-0.4088093974579644
-0.10990367906355933
2.2587648475527695
-0.4088093974579644
-0.10990367906355933
2.2587648475527695
-0.4078229000727695
-0.10972809646000838
2.25805599399986
-0.4078229000727695
-0.10972809646000838
2.25805599399986
-0.4078229000727695
-0.10972809646000838
2.25805599399986
-0.4078229000727695
-0.10972809646000838
2.25805599399986
-0.40688996566709124
-0.11045060570846395
2.258931746886798
-0.40688996566709124
-0.11045060570846395
2.258931746886798
-0.40688996566709124
-0.11045060570846395
2.258931746886798
-0.40688996566709124
-0.11045060570846395
2.258931746886798
-0.40489026661965616
-0.11027012380533707
2.2591099546430695
-0.40489026661965616
-0.11027012380533707
2.2591099546430695
-0.40489026661965616
-0.11027012380533707
2.2591099546430695
-0.40489026661965616
-0.11027012380533707
2.2591099546430695
-0.39988648990529096
-0.10935913374068057
2.2591825814077873
-0.39988648990529096
-0.10935913374068057
2.2591825814077873
-0.39988648990529096
-0.10935913374068057
2.2591825814077873
-0.39988648990529096
-0.10935913374068057
2.2591825814077873
-0.3969594750317126
-0.10915882986989661
2.258690336711981
-0.3969594750317126
-0.10915882986989661
2.258690336711981
-0.3969594750317126
-0.10915882986989661
2.258690336711981
-0.3969594750317126
-0.10915882986989661
2.258690336711981
-0.38993958782076404
-0.10753332793732984
2.258844328274361
-0.38993958782076404
-0.10753332793732984
2.258844328274361
-0.38993958782076404
-0.10753332793732984
2.258844328274361
-0.38993958782076404
-0.10753332793732984
2.258844328274361
-0.3784764412945644
-0.10637737324905938
2.2583464298344818
-0.3784764412945644
-0.10637737324905938
2.2583464298344818
-0.3784764412945644
-0.10637737324905938
2.2583464298344818
-0.3784764412945644
-0.10637737324905938
2.2583464298344818
-0.3826143521390452
-0.1048140240843367
2.2589465969792206
-0.3826143521390452
-0.1048140240843367
2.2589465969792206
-0.3826143521390452
-0.1048140240843367
2.2589465969792206
-0.3826143521390452
-0.1048140240843367
2.2589465969792206
-0.39337099845691853
-0.10212268121643858
2.260357489413297
-0.39337099845691853
-0.10212268121643858
2.260357489413297
-0.39337099845691853
-0.10212268121643858
2.260357489413297
-0.39337099845691853
-0.10212268121643858
2.260357489413297
-0.386405852092085
-0.09729542955182562
2.2646998142394135
-0.386405852092085
-0.09729542955182562
2.2646998142394135
-0.386405852092085
-0.09729542955182562
2.2646998142394135
-0.386405852092085
-0.09729542955182562
2.2646998142394135
-0.3744422076990604
-0.09431123897203599
2.2667728210622764
-0.3744422076990604
-0.09431123897203599
2.2667728210622764
-0.3744422076990604
-0.09431123897203599
2.2667728210622764
-0.3744422076990604
-0.09431123897203599
2.2667728210622764
-0.3653326559095099
-0.09204936615377221
2.266046109401359
-0.3653326559095099
-0.09204936615377221
2.266046109401359
-0.3653326559095099
-0.09204936615377221
2.266046109401359
-0.3653326559095099
-0.09204936615377221
2.266046109401359
-0.36302243039049903
-0.08942571015398036
2.2681677720056372
-0.36302243039049903
-0.08942571015398036
2.2681677720056372
-0.36302243039049903
-0.08942571015398036
2.2681677720056372
-0.36302243039049903
-0.08942571015398036
2.2681677720056372
-0.36101684811540974
-0.08691751103486152
2.271162212609196
-0.36101684811540974
-0.08691751103486152
2.271162212609196
-0.36101684811540974
-0.08691751103486152
2.271162212609196
-0.36101684811540974
-0.08691751103486152
2.271162212609196
-0.36128715803285893
-0.08391390814818546
2.274511816083955
-0.36128715803285893
-0.08391390814818546
2.274511816083955
-0.36128715803285893
-0.08391390814818546
2.274511816083955
-0.36128715803285893
-0.08391390814818546
2.274511816083955
-0.3656906335168487
-0.08076955651987358
2.2759710232160284
-0.3656906335168487
-0.08076955651987358
2.2759710232160284
-0.3656906335168487
-0.08076955651987358
2.2759710232160284
-0.3656906335168487
-0.08076955651987358
2.2759710232160284
-0.36778505545936074
-0.07900637309254961
2.2774031591730357
-0.36778505545936074
-0.07900637309254961
2.2774031591730357
-0.36778505545936074
-0.07900637309254961
2.2774031591730357
-0.36778505545936074
-0.07900637309254961
2.2774031591730357
-0.36573389033103054
-0.07923589424839782
2.28096523217932
-0.36573389033103054
-0.07923589424839782
2.28096523217932
-0.36573389033103054
-0.07923589424839782
2.28096523217932
-0.36573389033103054
-0.07923589424839782
2.28096523217932
-0.3633519175110961
-0.07961161210408896
2.2844262232596604
-0.3633519175110961
-0.07961161210408896
2.2844262232596604
-0.3633519175110961
-0.07961161210408896
2.2844262232596604
-0.3633519175110961
-0.07961161210408896
2.2844262232596604
-0.36508093668232944
-0.07863109328968992
2.2864927069983816
-0.36508093668232944
-0.07863109328968992
2.2864927069983816
-0.36508093668232944
-0.07863109328968992
2.2864927069983816
-0.36508093668232944
-0.07863109328968992
2.2864927069983816
-0.3681864583988575
-0.0770060018610558
2.2881633704197113
-0.3681864583988575
-0.0770060018610558
2.2881633704197113
-0.3681864583988575
-0.0770060018610558
2.2881633704197113
-0.3681864583988575
-0.0770060018610558
2.2881633704197113
-0.3668247888246152
-0.07467096515864935
2.289888388128677
-0.3668247888246152
-0.07467096515864935
2.289888388128677
-0.3668247888246152
-0.07467096515864935
2.289888388128677
-0.3668247888246152
-0.07467096515864935
2.289888388128677
-0.36214406276466654
-0.07331453270812631
2.292043774179782
-0.36214406276466654
-0.07331453270812631
2.292043774179782
-0.36214406276466654
-0.07331453270812631
2.292043774179782
-0.36214406276466654
-0.07331453270812631
2.292043774179782
-0.35668744776001754
-0.07180339345219057
2.294640598554605
-0.35668744776001754
-0.07180339345219057
2.294640598554605
-0.35668744776001754
-0.07180339345219057
2.294640598554605
-0.35668744776001754
-0.07180339345219057
2.294640598554605
-0.3547282009291646
-0.07242751450940262
2.295892725067576
-0.3547282009291646
-0.07242751450940262
2.295892725067576
-0.3547282009291646
-0.07242751450940262
2.295892725067576
-0.3547282009291646
-0.07242751450940262
2.295892725067576
-0.3547122020439084
-0.07238105412431647
2.293326836116374
-0.3547122020439084
-0.07238105412431647
2.293326836116374
-0.3547122020439084
-0.07238105412431647
2.293326836116374
-0.3547122020439084
-0.07238105412431647
2.293326836116374
-0.3641864863651412
-0.07436955274382194
2.290772017087373
-0.3641864863651412
-0.07436955274382194
2.290772017087373
-0.3641864863651412
-0.07436955274382194
2.290772017087373
-0.3641864863651412
-0.07436955274382194
2.290772017087373
-0.3656439895608895
-0.07477399837910942
2.288022637570692
-0.3656439895608895
-0.07477399837910942
2.288022637570692
-0.3656439895608895
-0.07477399837910942
2.288022637570692
-0.3656439895608895
-0.07477399837910942
2.288022637570692
-0.36274891552626926
-0.07512033884311349
2.285069328820707
-0.36274891552626926
-0.07512033884311349
2.285069328820707
-0.36274891552626926
-0.07512033884311349
2.285069328820707
-0.36274891552626926
-0.07512033884311349
2.285069328820707
-0.3593777524251069
-0.07595594266157438
2.2819094943529863
-0.3593777524251069
-0.07595594266157438
2.2819094943529863
-0.3593777524251069
-0.07595594266157438
2.2819094943529863
-0.3593777524251069
-0.07595594266157438
2.2819094943529863
-0.3601160105376716
-0.075500981825581
2.2790802875859475
-0.3601160105376716
-0.075500981825581
2.2790802875859475
-0.3601160105376716
-0.075500981825581
2.2790802875859475
-0.3601160105376716
-0.075500981825581
2.2790802875859475
-0.3654250824568464
-0.07615534505198503
2.2766004132396565
-0.3654250824568464
-0.07615534505198503
2.2766004132396565
-0.3654250824568464
-0.07615534505198503
2.2766004132396565
-0.3654250824568464
-0.07615534505198503
2.2766004132396565
-0.3766765319929943
-0.07631511856131633
2.275513264193899
-0.3766765319929943
-0.07631511856131633
2.275513264193899
-0.3766765319929943
-0.07631511856131633
2.275513264193899
-0.3766765319929943
-0.07631511856131633
2.275513264193899
-0.37907517514183875
-0.07519826539639171
2.2731758304213265
-0.37907517514183875
-0.07519826539639171
2.2731758304213265
-0.37907517514183875
-0.07519826539639171
2.2731758304213265
-0.37907517514183875
-0.07519826539639171
2.2731758304213265
-0.3769453344763729
-0.07391719174505074
2.267276124983735
-0.3769453344763729
-0.07391719174505074
2.267276124983735
-0.3769453344763729
-0.07391719174505074
2.267276124983735
-0.3769453344763729
-0.07391719174505074
2.267276124983735
-0.3793889476414542
-0.07240021645534876
2.2630250390814206
-0.3793889476414542
-0.07240021645534876
2.2630250390814206
-0.3793889476414542
-0.07240021645534876
2.2630250390814206
-0.3793889476414542
-0.07240021645534876
2.2630250390814206
-0.3842273825902447
-0.0722839929152871
2.2614757978242057
-0.3842273825902447
-0.0722839929152871
2.2614757978242057
-0.3842273825902447
-0.0722839929152871
2.2614757978242057
-0.3842273825902447
-0.0722839929152871
2.2614757978242057
-0.38792910535658104
-0.07353286674743242
2.258754442840922
-0.38792910535658104
-0.07353286674743242
2.258754442840922
-0.38792910535658104
-0.07353286674743242
2.258754442840922
-0.38792910535658104
-0.07353286674743242
2.258754442840922
-0.394664359116292
-0.07460004924141214
2.255401520464498
-0.394664359116292
-0.07460004924141214
2.255401520464498
-0.394664359116292
-0.07460004924141214
2.255401520464498
-0.394664359116292
-0.07460004924141214
2.255401520464498
-0.3948106413731547
-0.07414766250124365
2.252086524868535
-0.3948106413731547
-0.07414766250124365
2.252086524868535
-0.3948106413731547
-0.07414766250124365
2.252086524868535
-0.3948106413731547
-0.07414766250124365
2.252086524868535
-0.39455699662915283
-0.07481534071639108
2.250984260525545
-0.39455699662915283
-0.07481534071639108
2.250984260525545
-0.39455699662915283
-0.07481534071639108
2.250984260525545
-0.39455699662915283
-0.07481534071639108
2.250984260525545
-0.39971709687238866
-0.07595498419595964
2.2508711101405052
-0.39971709687238866
-0.07595498419595964
2.2508711101405052
-0.39971709687238866
-0.07595498419595964
2.2508711101405052
-0.39971709687238866
-0.07595498419595964
2.2508711101405052
-0.40308755213937264
-0.07687146061674803
2.249749457407383
-0.40308755213937264
-0.07687146061674803
2.249749457407383
-0.40308755213937264
-0.07687146061674803
2.249749457407383
-0.40308755213937264
-0.07687146061674803
2.249749457407383
-0.40491249148501723
-0.07781825119320351
2.2488499698908457
-0.40491249148501723
-0.07781825119320351
2.2488499698908457
-0.40491249148501723
-0.07781825119320351
2.2488499698908457
-0.40491249148501723
-0.07781825119320351
2.2488499698908457
-0.4032083641126739
-0.0793679390782102
2.2487046424404027
-0.4032083641126739
-0.0793679390782102
2.2487046424404027
-0.4032083641126739
-0.0793679390782102
2.2487046424404027
-0.4032083641126739
-0.0793679390782102
2.2487046424404027
-0.4014375657631485
-0.0819154124443739
2.248869248158772
-0.4014375657631485
-0.0819154124443739
2.248869248158772
-0.4014375657631485
-0.0819154124443739
2.248869248158772
-0.4014375657631485
-0.0819154124443739
2.248869248158772
-0.4037093512735654
-0.08391482166720676
2.2485445678185965
-0.4037093512735654
-0.08391482166720676
2.2485445678185965
-0.4037093512735654
-0.08391482166720676
2.2485445678185965
-0.4037093512735654
-0.08391482166720676
2.2485445678185965
-0.40808983902907514
-0.08469159110354035
2.248403678123552
-0.40808983902907514
-0.08469159110354035
2.248403678123552
-0.40808983902907514
-0.08469159110354035
2.248403678123552
-0.40808983902907514
-0.08469159110354035
2.248403678123552
-0.40634526959079437
-0.0866514670477561
2.2481709181529275
-0.40634526959079437
-0.0866514670477561
2.2481709181529275
-0.40634526959079437
-0.0866514670477561
2.2481709181529275
-0.40634526959079437
-0.0866514670477561
2.2481709181529275
-0.40476655464781397
-0.08755207994722186
2.2487282570751352
-0.40476655464781397
-0.08755207994722186
2.2487282570751352
-0.40476655464781397
-0.08755207994722186
2.2487282570751352
-0.40476655464781397
-0.08755207994722186
2.2487282570751352
-0.40856988143769885
-0.08874441549032733
2.2503843774077312
-0.40856988143769885
-0.08874441549032733
2.2503843774077312
-0.40856988143769885
-0.08874441549032733
2.2503843774077312
-0.40856988143769885
-0.08874441549032733
2.2503843774077312
-0.4140151225058251
-0.09048158862181649
2.25252005178579
-0.4140151225058251
-0.09048158862181649
2.25252005178579
-0.4140151225058251
-0.09048158862181649
2.25252005178579
-0.4140151225058251
-0.09048158862181649
2.25252005178579
-0.416459762740852
-0.09192297036441252
2.253783869149753
-0.416459762740852
-0.09192297036441252
2.253783869149753
-0.416459762740852
-0.09192297036441252
2.253783869149753
-0.416459762740852
-0.09192297036441252
2.253783869149753
-0.41329547434895586
-0.09355332465396618
2.254414877611414
-0.41329547434895586
-0.09355332465396618
2.254414877611414
-0.41329547434895586
-0.09355332465396618
2.254414877611414
-0.41329547434895586
-0.09355332465396618
2.254414877611414
-0.4086184065907264
-0.09434373641732541
2.25490006343288
-0.4086184065907264
-0.09434373641732541
2.25490006343288
-0.4086184065907264
-0.09434373641732541
2.25490006343288
-0.4086184065907264
-0.09434373641732541
2.25490006343288
-0.4064677815222608
-0.09468001789233893
2.255527890583029
-0.4064677815222608
-0.09468001789233893
2.255527890583029
-0.4064677815222608
-0.09468001789233893
2.255527890583029
-0.4064677815222608
-0.09468001789233893
2.255527890583029
-0.4067747111121567
-0.09454144369057288
2.256184537027557
-0.4067747111121567
-0.09454144369057288
2.256184537027557
-0.4067747111121567
-0.09454144369057288
2.256184537027557
-0.4067747111121567
-0.09454144369057288
2.256184537027557
-0.40575490906827566
-0.09405919112539686
2.256143915761357
-0.40575490906827566
-0.09405919112539686
2.256143915761357
-0.40575490906827566
-0.09405919112539686
2.256143915761357
-0.40575490906827566
-0.09405919112539686
2.256143915761357
-0.40261769824739146
-0.09271951249907355
2.2566008846429684
-0.40261769824739146
-0.09271951249907355
2.2566008846429684
-0.40261769824739146
-0.09271951249907355
2.2566008846429684
-0.40261769824739146
-0.09271951249907355
2.2566008846429684
-0.39865088940762466
-0.09258705254198739
2.256651421606411
-0.39865088940762466
-0.09258705254198739
2.256651421606411
-0.39865088940762466
-0.09258705254198739
2.256651421606411
-0.39865088940762466
-0.09258705254198739
2.256651421606411
-0.4016779340452239
-0.09173294191413275
2.2571329468776766
-0.4016779340452239
-0.09173294191413275
2.2571329468776766
-0.4016779340452239
-0.09173294191413275
2.2571329468776766
-0.4016779340452239
-0.09173294191413275
2.2571329468776766
-0.401995394781461
-0.0910624647702227
2.2571234400466658
-0.401995394781461
-0.0910624647702227
2.2571234400466658
-0.401995394781461
-0.0910624647702227
2.2571234400466658
-0.401995394781461
-0.0910624647702227
2.2571234400466658
-0.4016349673477698
-0.0912730773322638
2.256646091871679
-0.4016349673477698
-0.0912730773322638
2.256646091871679
-0.4016349673477698
-0.0912730773322638
2.256646091871679
-0.4016349673477698
-0.0912730773322638
2.256646091871679
-0.39809329475386035
-0.09119789576013367
2.2561194707951158
-0.39809329475386035
-0.09119789576013367
2.2561194707951158
-0.39809329475386035
-0.09119789576013367
2.2561194707951158
-0.39809329475386035
-0.09119789576013367
2.2561194707951158
-0.39775456924308455
-0.0915818708575795
2.25673834273021
-0.39775456924308455
-0.0915818708575795
2.25673834273021
-0.39775456924308455
-0.0915818708575795
2.25673834273021
-0.39775456924308455
-0.0915818708575795
2.25673834273021
-0.3964131186196719
-0.09173553853828684
2.256868503404127
-0.3964131186196719
-0.09173553853828684
2.256868503404127
-0.3964131186196719
-0.09173553853828684
2.256868503404127
-0.3964131186196719
-0.09173553853828684
2.256868503404127
-0.3955509799118241
-0.091871720038639
2.2562396703402716
-0.3955509799118241
-0.091871720038639
2.2562396703402716
-0.3955509799118241
-0.091871720038639
2.2562396703402716
-0.3955509799118241
-0.091871720038639
2.2562396703402716
-0.39410609145952574
-0.09208094688591117
2.255261310913495
-0.39410609145952574
-0.09208094688591117
2.255261310913495
-0.39410609145952574
-0.09208094688591117
2.255261310913495
-0.39410609145952574
-0.09208094688591117
2.255261310913495
-0.3927611090280193
-0.09116300522587589
2.254620160850471
-0.3927611090280193
-0.09116300522587589
2.254620160850471
-0.3927611090280193
-0.09116300522587589
2.254620160850471
-0.3927611090280193
-0.09116300522587589
2.254620160850471
-0.3917462543046841
-0.09071388978551698
2.25442519950353
-0.3917462543046841
-0.09071388978551698
2.25442519950353
-0.3917462543046841
-0.09071388978551698
2.25442519950353
-0.3917462543046841
-0.09071388978551698
2.25442519950353
-0.3906176202535043
-0.09101853667997707
2.2549318088650803
-0.3906176202535043
-0.09101853667997707
2.2549318088650803
-0.3906176202535043
-0.09101853667997707
2.2549318088650803
-0.3906176202535043
-0.09101853667997707
2.2549318088650803
-0.3905086476800595
-0.09096819660172314
2.2549166766359483
-0.3905086476800595
-0.09096819660172314
2.2549166766359483
-0.3905086476800595
-0.09096819660172314
2.2549166766359483
-0.3905086476800595
-0.09096819660172314
2.2549166766359483
-0.39173306649461004
-0.09069668304407007
2.2550902493885783
-0.39173306649461004
-0.09069668304407007
2.2550902493885783
-0.39173306649461004
-0.09069668304407007
2.2550902493885783
-0.39173306649461004
-0.09069668304407007
2.2550902493885783
-0.3874366401687719
-0.09073069790825247
2.254884876818945
-0.3874366401687719
-0.09073069790825247
2.254884876818945
-0.3874366401687719
-0.09073069790825247
2.254884876818945
-0.3874366401687719
-0.09073069790825247
2.254884876818945
-0.38440269851654363
-0.09092355498338553
2.2554961845356667
-0.38440269851654363
-0.09092355498338553
2.2554961845356667
-0.38440269851654363
-0.09092355498338553
2.2554961845356667
-0.38440269851654363
-0.09092355498338553
2.2554961845356667
-0.38519085360737965
-0.09149098284166636
2.256536953250284
-0.38519085360737965
-0.09149098284166636
2.256536953250284
-0.38519085360737965
-0.09149098284166636
2.256536953250284
-0.38519085360737965
-0.09149098284166636
2.256536953250284
-0.3853472695674877
-0.09175261444218197
2.256317183506532
-0.3853472695674877
-0.09175261444218197
2.256317183506532
-0.3853472695674877
-0.09175261444218197
2.256317183506532
-0.3853472695674877
-0.09175261444218197
2.256317183506532
-0.38502812519635127
-0.09186924058739024
2.256324755963205
-0.38502812519635127
-0.09186924058739024
2.256324755963205
-0.38502812519635127
-0.09186924058739024
2.256324755963205
-0.38502812519635127
-0.09186924058739024
2.256324755963205
-0.3819756950184541
-0.09220244795521923
2.2562370150549653
-0.3819756950184541
-0.09220244795521923
2.2562370150549653
-0.3819756950184541
-0.09220244795521923
2.2562370150549653
-0.3819756950184541
-0.09220244795521923
2.2562370150549653
-0.38554210194346517
-0.09308415298976509
2.2569229704049816
-0.38554210194346517
-0.09308415298976509
2.2569229704049816
-0.38554210194346517
-0.09308415298976509
2.2569229704049816
-0.38554210194346517
-0.09308415298976509
2.2569229704049816
-0.3841352998834077
-0.09400601161358797
2.2571432270969236
-0.3841352998834077
-0.09400601161358797
2.2571432270969236
-0.3841352998834077
-0.09400601161358797
2.2571432270969236
-0.3841352998834077
-0.09400601161358797
2.2571432270969236
-0.38430668204556784
-0.09424880834584805
2.257032605850127
-0.38430668204556784
-0.09424880834584805
2.257032605850127
-0.38430668204556784
-0.09424880834584805
2.257032605850127
-0.38430668204556784
-0.09424880834584805
2.257032605850127
-0.38414681484419616
-0.09395370664708177
2.2574119342504715
-0.38414681484419616
-0.09395370664708177
2.2574119342504715
-0.38414681484419616
-0.09395370664708177
2.2574119342504715
-0.38414681484419616
-0.09395370664708177
2.2574119342504715
-0.3847648642099436
-0.09379129432149455
2.2576344489851525
-0.3847648642099436
-0.09379129432149455
2.2576344489851525
-0.3847648642099436
-0.09379129432149455
2.2576344489851525
-0.3847648642099436
-0.09379129432149455
2.2576344489851525
-0.3847648642099436
-0.09379129432149455
2.2576344489851525
-0.3847648642099436
-0.09379129432149455
2.2576344489851525
-0.3847648642099436
-0.09379129432149455
2.2576344489851525
-0.3847648642099436
-0.09379129432149455
2.2576344489851525
-0.38453976148896213
-0.09397705139851897
2.257547688702478
-0.38453976148896213
-0.09397705139851897
2.257547688702478
-0.38453976148896213
-0.09397705139851897
2.257547688702478
-0.38453976148896213
-0.09397705139851897
2.257547688702478
-0.3821170617199075
-0.09445107522107823
2.257572165775083
-0.3821170617199075
-0.09445107522107823
2.257572165775083
-0.3821170617199075
-0.09445107522107823
2.257572165775083
-0.3821170617199075
-0.09445107522107823
2.257572165775083
-0.3809826526548653
-0.09539896142497588
2.2576419950822983
-0.3809826526548653
-0.09539896142497588
2.2576419950822983
-0.3809826526548653
-0.09539896142497588
2.2576419950822983
-0.3809826526548653
-0.09539896142497588
2.2576419950822983
-0.38365564221658766
-0.0955416686884759
2.2578633547863154
-0.38365564221658766
-0.0955416686884759
2.2578633547863154
-0.38365564221658766
-0.0955416686884759
2.2578633547863154
-0.38365564221658766
-0.0955416686884759
2.2578633547863154
-0.3823802690380902
-0.09627607057729383
2.25732819420229
-0.3823802690380902
-0.09627607057729383
2.25732819420229
-0.3823802690380902
-0.09627607057729383
2.25732819420229
-0.3823802690380902
-0.09627607057729383
2.25732819420229
-0.3833343409480445
-0.09688536345087162
2.257273747811203
-0.3833343409480445
-0.09688536345087162
2.257273747811203
-0.3833343409480445
-0.09688536345087162
2.257273747811203
-0.3833343409480445
-0.09688536345087162
2.257273747811203
-0.38183288242534746
-0.0978048492571437
2.256650071007686
-0.38183288242534746
-0.0978048492571437
2.256650071007686
-0.38183288242534746
-0.0978048492571437
2.256650071007686
-0.38183288242534746
-0.0978048492571437
2.256650071007686
-0.38354479447060386
-0.09797867647018677
2.2564957371053165
-0.38354479447060386
-0.09797867647018677
2.2564957371053165
-0.38354479447060386
-0.09797867647018677
2.2564957371053165
-0.38354479447060386
-0.09797867647018677
2.2564957371053165
-0.3810709213825042
-0.09856021381014858
2.256533486992021
-0.3810709213825042
-0.09856021381014858
2.256533486992021
-0.3810709213825042
-0.09856021381014858
2.256533486992021
-0.3810709213825042
-0.09856021381014858
2.256533486992021
-0.38136335818553274
-0.0988012249104092
2.256707041116981
-0.38136335818553274
-0.0988012249104092
2.256707041116981
-0.38136335818553274
-0.0988012249104092
2.256707041116981
-0.38136335818553274
-0.0988012249104092
2.256707041116981
-0.38274220425548466
-0.09904410411355694
2.257384837103031
-0.38274220425548466
-0.09904410411355694
2.257384837103031
-0.38274220425548466
-0.09904410411355694
2.257384837103031
-0.38274220425548466
-0.09904410411355694
2.257384837103031
-0.3832616481371714
-0.09965263978296314
2.25764189226379
-0.3832616481371714
-0.09965263978296314
2.25764189226379
-0.3832616481371714
-0.09965263978296314
2.25764189226379
-0.3832616481371714
-0.09965263978296314
2.25764189226379
-0.3791439148980704
-0.10058744934362505
2.2568216171141406
-0.3791439148980704
-0.10058744934362505
2.2568216171141406
-0.3791439148980704
-0.10058744934362505
2.2568216171141406
-0.3791439148980704
-0.10058744934362505
2.2568216171141406
-0.37695059311923707
-0.10091768276902899
2.2554848744781424
-0.37695059311923707
-0.10091768276902899
2.2554848744781424
-0.37695059311923707
-0.10091768276902899
2.2554848744781424
-0.37695059311923707
-0.10091768276902899
2.2554848744781424
-0.3841715863511578
-0.10235273801493128
2.255434891464568
-0.3841715863511578
-0.10235273801493128
2.255434891464568
-0.3841715863511578
-0.10235273801493128
2.255434891464568
-0.3841715863511578
-0.10235273801493128
2.255434891464568
-0.39074676002554
-0.1011936270214895
2.257016778476417
-0.39074676002554
-0.1011936270214895
2.257016778476417
-0.39074676002554
-0.1011936270214895
2.257016778476417
-0.39074676002554
-0.1011936270214895
2.257016778476417
-0.39569723636155396
-0.10175519626712408
2.258405605964407
-0.39569723636155396
-0.10175519626712408
2.258405605964407
-0.39569723636155396
-0.10175519626712408
2.258405605964407
-0.39569723636155396
-0.10175519626712408
2.258405605964407
-0.3982954030261728
-0.10246824422834651
2.257745616471215
-0.3982954030261728
-0.10246824422834651
2.257745616471215
-0.3982954030261728
-0.10246824422834651
2.257745616471215
-0.3982954030261728
-0.10246824422834651
2.257745616471215
-0.40135066993091084
-0.10365413167342435
2.254755845141186
-0.40135066993091084
-0.10365413167342435
2.254755845141186
-0.40135066993091084
-0.10365413167342435
2.254755845141186
-0.40135066993091084
-0.10365413167342435
2.254755845141186
-0.40291129304129025
-0.10545924774852525
2.2537630684045906
-0.40291129304129025
-0.10545924774852525
2.2537630684045906
-0.40291129304129025
-0.10545924774852525
2.2537630684045906
-0.40291129304129025
-0.10545924774852525
2.2537630684045906
-0.40420504067289637
-0.10585863488658334
2.254755687874675
-0.40420504067289637
-0.10585863488658334
2.254755687874675
-0.40420504067289637
-0.10585863488658334
2.254755687874675
-0.40420504067289637
-0.10585863488658334
2.254755687874675
-0.3955690663713395
-0.10667731334714209
2.2563794558633523
-0.3955690663713395
-0.10667731334714209
2.2563794558633523
-0.3955690663713395
-0.10667731334714209
2.2563794558633523
-0.3955690663713395
-0.10667731334714209
2.2563794558633523
-0.3810148153442164
-0.10551108688705008
2.2565979547411987
-0.3810148153442164
-0.10551108688705008
2.2565979547411987
-0.3810148153442164
-0.10551108688705008
2.2565979547411987
-0.3810148153442164
-0.10551108688705008
2.2565979547411987
-0.37202094895957283
-0.10520627539007583
2.256362523322848
-0.37202094895957283
-0.10520627539007583
2.256362523322848
-0.37202094895957283
-0.10520627539007583
2.256362523322848
-0.37202094895957283
-0.10520627539007583
2.256362523322848
-0.3695407579935784
-0.10426498697151713
2.257102517433888
-0.3695407579935784
-0.10426498697151713
2.257102517433888
-0.3695407579935784
-0.10426498697151713
2.257102517433888
-0.3695407579935784
-0.10426498697151713
2.257102517433888
-0.36768963307630886
-0.10324939596985698
2.2603118233954307
-0.36768963307630886
-0.10324939596985698
2.2603118233954307
-0.36768963307630886
-0.10324939596985698
2.2603118233954307
-0.36768963307630886
-0.10324939596985698
2.2603118233954307
-0.3640959944139101
-0.10188013548578359
2.262580458729281
-0.3640959944139101
-0.10188013548578359
2.262580458729281
-0.3640959944139101
-0.10188013548578359
2.262580458729281
-0.3640959944139101
-0.10188013548578359
2.262580458729281
-0.3570689477327445
-0.09904750444525619
2.2640643935899263
-0.3570689477327445
-0.09904750444525619
2.2640643935899263
-0.3570689477327445
-0.09904750444525619
2.2640643935899263
-0.3570689477327445
-0.09904750444525619
2.2640643935899263
-0.34577642311307727
-0.09431931721726629
2.264234547939018
-0.34577642311307727
-0.09431931721726629
2.264234547939018
-0.34577642311307727
-0.09431931721726629
2.264234547939018
-0.34577642311307727
-0.09431931721726629
2.264234547939018
-0.3397196431833556
-0.09329176504627777
2.2659624881561005
-0.3397196431833556
-0.09329176504627777
2.2659624881561005
-0.3397196431833556
-0.09329176504627777
2.2659624881561005
-0.3397196431833556
-0.09329176504627777
2.2659624881561005
-0.33678907794876345
-0.09043653461840018
2.269369907028508
-0.33678907794876345
-0.09043653461840018
2.269369907028508
-0.33678907794876345
-0.09043653461840018
2.269369907028508
-0.33678907794876345
-0.09043653461840018
2.269369907028508
-0.3355507578585615
-0.08908241973624438
2.276285895865346
-0.3355507578585615
-0.08908241973624438
2.276285895865346
-0.3355507578585615
-0.08908241973624438
2.276285895865346
-0.3355507578585615
-0.08908241973624438
2.276285895865346
-0.3281430784956477
-0.08656551912978884
2.2821999990691517
-0.3281430784956477
-0.08656551912978884
2.2821999990691517
-0.3281430784956477
-0.08656551912978884
2.2821999990691517
-0.3281430784956477
-0.08656551912978884
2.2821999990691517
-0.31883541158678735
-0.08271715961606284
2.2856592535054543
-0.31883541158678735
-0.08271715961606284
2.2856592535054543
-0.31883541158678735
-0.08271715961606284
2.2856592535054543
-0.31883541158678735
-0.08271715961606284
2.2856592535054543
-0.31537950081428073
-0.07876049812955375
2.2875188503327664
-0.31537950081428073
-0.07876049812955375
2.2875188503327664
-0.31537950081428073
-0.07876049812955375
2.2875188503327664
-0.31537950081428073
-0.07876049812955375
2.2875188503327664
-0.31683040167205634
-0.07561607669862674
2.2906770030456003
-0.31683040167205634
-0.07561607669862674
2.2906770030456003
-0.31683040167205634
-0.07561607669862674
2.2906770030456003
-0.31683040167205634
-0.07561607669862674
2.2906770030456003
-0.31743024034759254
-0.07428295603241471
2.294417762634681
-0.31743024034759254
-0.07428295603241471
2.294417762634681
-0.31743024034759254
-0.07428295603241471
2.294417762634681
-0.31743024034759254
-0.07428295603241471
2.294417762634681
-0.31605346332403295
-0.07353088069411312
2.2966720784841983
-0.31605346332403295
-0.07353088069411312
2.2966720784841983
-0.31605346332403295
-0.07353088069411312
2.2966720784841983
-0.31605346332403295
-0.07353088069411312
2.2966720784841983
-0.3164011593628362
-0.07359042648659807
2.297247503694188
-0.3164011593628362
-0.07359042648659807
2.297247503694188
-0.3164011593628362
-0.07359042648659807
2.297247503694188
-0.3164011593628362
-0.07359042648659807
2.297247503694188
-0.3149079194375741
-0.0726293126988772
2.298082646941081
-0.3149079194375741
-0.0726293126988772
2.298082646941081
-0.3149079194375741
-0.0726293126988772
2.298082646941081
-0.3149079194375741
-0.0726293126988772
2.298082646941081
-0.3091380676385476
-0.07350578777785655
2.300573325769199
-0.3091380676385476
-0.07350578777785655
2.300573325769199
-0.3091380676385476
-0.07350578777785655
2.300573325769199
-0.3091380676385476
-0.07350578777785655
2.300573325769199
-0.30985859495317974
-0.07466069288454347
2.30438266635273
-0.30985859495317974
-0.07466069288454347
2.30438266635273
-0.30985859495317974
-0.07466069288454347
2.30438266635273
-0.30985859495317974
-0.07466069288454347
2.30438266635273
-0.31588884012861035
-0.07524979008037691
2.3072381270495725
-0.31588884012861035
-0.07524979008037691
2.3072381270495725
-0.31588884012861035
-0.07524979008037691
2.3072381270495725
-0.31588884012861035
-0.07524979008037691
2.3072381270495725
-0.3162389116405723
-0.0733151098483018
2.3099318386876386
-0.3162389116405723
-0.0733151098483018
2.3099318386876386
-0.3162389116405723
-0.0733151098483018
2.3099318386876386
-0.3162389116405723
-0.0733151098483018
2.3099318386876386
-0.3128540873340577
-0.07090013291079966
2.3128278184670483
-0.3128540873340577
-0.07090013291079966
2.3128278184670483
-0.3128540873340577
-0.07090013291079966
2.3128278184670483
-0.3128540873340577
-0.07090013291079966
2.3128278184670483
-0.3121295073009832
-0.06769294977457896
2.31549777433373
-0.3121295073009832
-0.06769294977457896
2.31549777433373
-0.3121295073009832
-0.06769294977457896
2.31549777433373
-0.3121295073009832
-0.06769294977457896
2.31549777433373
-0.31584647430046336
-0.06619885563221789
2.3165186160451623
-0.31584647430046336
-0.06619885563221789
2.3165186160451623
-0.31584647430046336
-0.06619885563221789
2.3165186160451623
-0.31584647430046336
-0.06619885563221789
2.3165186160451623
-0.3207671896131673
-0.06555570428677461
2.3156774709122687
-0.3207671896131673
-0.06555570428677461
2.3156774709122687
-0.3207671896131673
-0.06555570428677461
2.3156774709122687
-0.3207671896131673
-0.06555570428677461
2.3156774709122687
-0.32175774913848565
-0.06665647398654105
2.3126860245456777
-0.32175774913848565
-0.06665647398654105
2.3126860245456777
-0.32175774913848565
-0.06665647398654105
2.3126860245456777
-0.32175774913848565
-0.06665647398654105
2.3126860245456777
-0.3217721473742624
-0.06822115695420934
2.3084555814196133
-0.3217721473742624
-0.06822115695420934
2.3084555814196133
-0.3217721473742624
-0.06822115695420934
2.3084555814196133
-0.3217721473742624
-0.06822115695420934
2.3084555814196133
-0.320505273383344
-0.07053874033352801
2.304351972366625
-0.320505273383344
-0.07053874033352801
2.304351972366625
-0.320505273383344
-0.07053874033352801
2.304351972366625
-0.320505273383344
-0.07053874033352801
2.304351972366625
-0.31843507857733466
-0.07372935064534947
2.3001309189237498
-0.31843507857733466
-0.07372935064534947
2.3001309189237498
-0.31843507857733466
-0.07372935064534947
2.3001309189237498
-0.31843507857733466
-0.07372935064534947
2.3001309189237498
-0.32069796085427804
-0.07616034576012554
2.2937591409390246
-0.32069796085427804
-0.07616034576012554
2.2937591409390246
-0.32069796085427804
-0.07616034576012554
2.2937591409390246
-0.32069796085427804
-0.07616034576012554
2.2937591409390246
-0.3240087421475696
-0.07742500037550445
2.2883567080781004
-0.3240087421475696
-0.07742500037550445
2.2883567080781004
-0.3240087421475696
-0.07742500037550445
2.2883567080781004
-0.3240087421475696
-0.07742500037550445
2.2883567080781004
-0.32589406900553725
-0.07818695326483677
2.282971483551546
-0.32589406900553725
-0.07818695326483677
2.282971483551546
-0.32589406900553725
-0.07818695326483677
2.282971483551546
-0.32589406900553725
-0.07818695326483677
2.282971483551546
-0.33007046008845775
-0.07907057539416504
2.2776013251150173
-0.33007046008845775
-0.07907057539416504
2.2776013251150173
-0.33007046008845775
-0.07907057539416504
2.2776013251150173
-0.33007046008845775
-0.07907057539416504
2.2776013251150173
-0.33492589966119035
-0.08096215819192688
2.2708796131601137
-0.33492589966119035
-0.08096215819192688
2.2708796131601137
-0.33492589966119035
-0.08096215819192688
2.2708796131601137
-0.33492589966119035
-0.08096215819192688
2.2708796131601137
-0.3409786760120261
-0.08232755983463702
2.265070198101083
-0.3409786760120261
-0.08232755983463702
2.265070198101083
-0.3409786760120261
-0.08232755983463702
2.265070198101083
-0.3409786760120261
-0.08232755983463702
2.265070198101083
-0.3468860185010402
-0.0849078102035544
2.259192193094289
-0.3468860185010402
-0.0849078102035544
2.259192193094289
-0.3468860185010402
-0.0849078102035544
2.259192193094289
-0.3468860185010402
-0.0849078102035544
2.259192193094289
-0.3479368311351726
-0.08870982071372412
2.254198741061753
-0.3479368311351726
-0.08870982071372412
2.254198741061753
-0.3479368311351726
-0.08870982071372412
2.254198741061753
-0.3479368311351726
-0.08870982071372412
2.254198741061753
-0.3494986599108826
-0.09220415537985431
2.249343139421761
-0.3494986599108826
-0.09220415537985431
2.249343139421761
-0.3494986599108826
-0.09220415537985431
2.249343139421761
-0.3494986599108826
-0.09220415537985431
2.249343139421761
-0.3559397912368814
-0.09576865980330444
2.24647307863399
-0.3559397912368814
-0.09576865980330444
2.24647307863399
-0.3559397912368814
-0.09576865980330444
2.24647307863399
-0.3559397912368814
-0.09576865980330444
2.24647307863399
-0.36240201964965174
-0.09922825377287155
2.244938235037445
-0.36240201964965174
-0.09922825377287155
2.244938235037445
-0.36240201964965174
-0.09922825377287155
2.244938235037445
-0.36240201964965174
-0.09922825377287155
2.244938235037445
-0.36821426436044397
-0.10145836070527904
2.242602118121431
-0.36821426436044397
-0.10145836070527904
2.242602118121431
-0.36821426436044397
-0.10145836070527904
2.242602118121431
-0.36821426436044397
-0.10145836070527904
2.242602118121431
-0.3724976171697709
-0.10364678138077747
2.2415207683663874
-0.3724976171697709
-0.10364678138077747
2.2415207683663874
-0.3724976171697709
-0.10364678138077747
2.2415207683663874
-0.3724976171697709
-0.10364678138077747
2.2415207683663874
-0.36863594558180013
-0.10570998338934784
2.240362052553321
-0.36863594558180013
-0.10570998338934784
2.240362052553321
-0.36863594558180013
-0.10570998338934784
2.240362052553321
-0.36863594558180013
-0.10570998338934784
2.240362052553321
-0.36668916158627407
-0.10784704036567402
2.239373403071308
-0.36668916158627407
-0.10784704036567402
2.239373403071308
-0.36668916158627407
-0.10784704036567402
2.239373403071308
-0.36668916158627407
-0.10784704036567402
2.239373403071308
-0.36560415860890055
-0.10897726677323005
2.239299709238024
-0.36560415860890055
-0.10897726677323005
2.239299709238024
-0.36560415860890055
-0.10897726677323005
2.239299709238024
-0.36560415860890055
-0.10897726677323005
2.239299709238024
-0.3699251456336456
-0.1097826472834369
2.239696655235294
-0.3699251456336456
-0.1097826472834369
2.239696655235294
-0.3699251456336456
-0.1097826472834369
2.239696655235294
-0.3699251456336456
-0.1097826472834369
2.239696655235294
-0.37069046253972093
-0.11108358515492558
2.2398741072403965
-0.37069046253972093
-0.11108358515492558
2.2398741072403965
-0.37069046253972093
-0.11108358515492558
2.2398741072403965
-0.37069046253972093
-0.11108358515492558
2.2398741072403965
-0.3725863152034488
-0.11290359093460224
2.239604845263517
-0.3725863152034488
-0.11290359093460224
2.239604845263517
-0.3725863152034488
-0.11290359093460224
2.239604845263517
-0.3725863152034488
-0.11290359093460224
2.239604845263517
-0.36968564325408376
-0.114649867674548
2.239539427698819
-0.36968564325408376
-0.114649867674548
2.239539427698819
-0.36968564325408376
-0.114649867674548
2.239539427698819
-0.36968564325408376
-0.114649867674548
2.239539427698819
-0.3644343077253288
-0.11660850958913907
2.240144210106856
-0.3644343077253288
-0.11660850958913907
2.240144210106856
-0.3644343077253288
-0.11660850958913907
2.240144210106856
-0.3644343077253288
-0.11660850958913907
2.240144210106856
-0.36421982124171354
-0.1175546795259714
2.241028742411084
-0.36421982124171354
-0.1175546795259714
2.241028742411084
-0.36421982124171354
-0.1175546795259714
2.241028742411084
-0.36421982124171354
-0.1175546795259714
2.241028742411084
-0.3656355814018168
-0.11774752045159646
2.2420968255558194
-0.3656355814018168
-0.11774752045159646
2.2420968255558194
-0.3656355814018168
-0.11774752045159646
2.2420968255558194
-0.3656355814018168
-0.11774752045159646
2.2420968255558194
-0.36491456981104975
-0.11737107069801725
2.2441511981284297
-0.36491456981104975
-0.11737107069801725
2.2441511981284297
-0.36491456981104975
-0.11737107069801725
2.2441511981284297
-0.36491456981104975
-0.11737107069801725
2.2441511981284297
-0.3602113123677648
-0.11698911329333044
2.2454598059089794
-0.3602113123677648
-0.11698911329333044
2.2454598059089794
-0.3602113123677648
-0.11698911329333044
2.2454598059089794
-0.3602113123677648
-0.11698911329333044
2.2454598059089794
-0.3571104987227104
-0.11615756417176955
2.2467858656428947
-0.3571104987227104
-0.11615756417176955
2.2467858656428947
-0.3571104987227104
-0.11615756417176955
2.2467858656428947
-0.3571104987227104
-0.11615756417176955
2.2467858656428947
-0.3537941930887098
-0.11458444769388922
2.247911299500527
-0.3537941930887098
-0.11458444769388922
2.247911299500527
-0.3537941930887098
-0.11458444769388922
2.247911299500527
-0.3537941930887098
-0.11458444769388922
2.247911299500527
-0.353381731052924
-0.11243628264430361
2.2493893095400503
-0.353381731052924
-0.11243628264430361
2.2493893095400503
-0.353381731052924
-0.11243628264430361
2.2493893095400503
-0.353381731052924
-0.11243628264430361
2.2493893095400503
-0.35004946602080794
-0.11094885289142137
2.2500929397195106
-0.35004946602080794
-0.11094885289142137
2.2500929397195106
-0.35004946602080794
-0.11094885289142137
2.2500929397195106
-0.35004946602080794
-0.11094885289142137
2.2500929397195106
-0.34675379046306914
-0.10940221030935983
2.250515215048307
-0.34675379046306914
-0.10940221030935983
2.250515215048307
-0.34675379046306914
-0.10940221030935983
2.250515215048307
-0.34675379046306914
-0.10940221030935983
2.250515215048307
-0.34712589108496283
-0.10862423008032042
2.2505108929903104
-0.34712589108496283
-0.10862423008032042
2.2505108929903104
-0.34712589108496283
-0.10862423008032042
2.2505108929903104
-0.34712589108496283
-0.10862423008032042
2.2505108929903104
-0.3477864168485026
-0.10659427241360518
2.250633821312627
-0.3477864168485026
-0.10659427241360518
2.250633821312627
-0.3477864168485026
-0.10659427241360518
2.250633821312627
-0.3477864168485026
-0.10659427241360518
2.250633821312627
-0.3445517713819881
-0.10527034992553198
2.2507749621487068
-0.3445517713819881
-0.10527034992553198
2.2507749621487068
-0.3445517713819881
-0.10527034992553198
2.2507749621487068
-0.3445517713819881
-0.10527034992553198
2.2507749621487068
-0.34261892230469876
-0.10408029529211588
2.250681499188114
-0.34261892230469876
-0.10408029529211588
2.250681499188114
-0.34261892230469876
-0.10408029529211588
2.250681499188114
-0.34261892230469876
-0.10408029529211588
2.250681499188114
-0.3443333887920038
-0.10277293297814437
2.2511028842554364
-0.3443333887920038
-0.10277293297814437
2.2511028842554364
-0.3443333887920038
-0.10277293297814437
2.2511028842554364
-0.3443333887920038
-0.10277293297814437
2.2511028842554364
-0.34542344694167165
-0.10100617034142576
2.251629439751046
-0.34542344694167165
-0.10100617034142576
2.251629439751046
-0.34542344694167165
-0.10100617034142576
2.251629439751046
-0.34542344694167165
-0.10100617034142576
2.251629439751046
-0.3477702783336148
-0.09919639698814302
2.251990628182952
-0.3477702783336148
-0.09919639698814302
2.251990628182952
-0.3477702783336148
-0.09919639698814302
2.251990628182952
-0.3477702783336148
-0.09919639698814302
2.251990628182952
-0.3479424469140896
-0.09765648349262186
2.251894062783806
-0.3479424469140896
-0.09765648349262186
2.251894062783806
-0.3479424469140896
-0.09765648349262186
2.251894062783806
-0.3479424469140896
