-0.17493259980240314
-0.09017235171879442
2.289529963748035
-0.17493259980240314
-0.09017235171879442
2.289529963748035
-0.17493259980240314
-0.09017235171879442
2.289529963748035
-0.17493259980240314
-0.09017235171879442
2.289529963748035
-0.17444449342028395
-0.09125634076979157
2.289876874856895
-0.17444449342028395
-0.09125634076979157
2.289876874856895
-0.17444449342028395
-0.09125634076979157
2.289876874856895
-0.17444449342028395
-0.09125634076979157
2.289876874856895
-0.17412723879654946
-0.09256758096138575
2.290088473168407
-0.17412723879654946
-0.09256758096138575
2.290088473168407
-0.17412723879654946
-0.09256758096138575
2.290088473168407
-0.17412723879654946
-0.09256758096138575
2.290088473168407
-0.17387162555454688
-0.09403945655395286
2.29031661289795
-0.17387162555454688
-0.09403945655395286
2.29031661289795
-0.17387162555454688
-0.09403945655395286
2.29031661289795
-0.17387162555454688
-0.09403945655395286
2.29031661289795
-0.17426075590501242
-0.09556230754666212
2.2903057590625506
-0.17426075590501242
-0.09556230754666212
2.2903057590625506
-0.17426075590501242
-0.09556230754666212
2.2903057590625506
-0.17426075590501242
-0.09556230754666212
2.2903057590625506
-0.17348892584594153
-0.09755160597092953
2.2897821874820816
-0.17348892584594153
-0.09755160597092953
2.2897821874820816
-0.17348892584594153
-0.09755160597092953
2.2897821874820816
-0.17348892584594153
-0.09755160597092953
2.2897821874820816
-0.17283307004195517
-0.09989533891584794
2.2889683619291055
-0.17283307004195517
-0.09989533891584794
2.2889683619291055
-0.17283307004195517
-0.09989533891584794
2.2889683619291055
-0.17283307004195517
-0.09989533891584794
2.2889683619291055
-0.17377047017730807
-0.1019965278387463
2.2884367859401333
-0.17377047017730807
-0.1019965278387463
2.2884367859401333
-0.17377047017730807
-0.1019965278387463
2.2884367859401333
-0.17377047017730807
-0.1019965278387463
2.2884367859401333
-0.17612798281020628
-0.10394145476958998
2.287916489411226
-0.17612798281020628
-0.10394145476958998
2.287916489411226
-0.17612798281020628
-0.10394145476958998
2.287916489411226
-0.17612798281020628
-0.10394145476958998
2.287916489411226
-0.17764179419259776
-0.10567460683559202
2.2870623715509018
-0.17764179419259776
-0.10567460683559202
2.2870623715509018
-0.17764179419259776
-0.10567460683559202
2.2870623715509018
-0.17764179419259776
-0.10567460683559202
2.2870623715509018
-0.17702895024378962
-0.10698080393141565
2.286100264464593
-0.17702895024378962
-0.10698080393141565
2.286100264464593
-0.17702895024378962
-0.10698080393141565
2.286100264464593
-0.17702895024378962
-0.10698080393141565
2.286100264464593
-0.17564592096945433
-0.10793005265329053
2.285175242195736
-0.17564592096945433
-0.10793005265329053
2.285175242195736
-0.17564592096945433
-0.10793005265329053
2.285175242195736
-0.17564592096945433
-0.10793005265329053
2.285175242195736
-0.17531723714272993
-0.10892120561031711
2.284584789290833
-0.17531723714272993
-0.10892120561031711
2.284584789290833
-0.17531723714272993
-0.10892120561031711
2.284584789290833
-0.17531723714272993
-0.10892120561031711
2.284584789290833
-0.1767754992564955
-0.1098868835555935
2.2843733766332885
-0.1767754992564955
-0.1098868835555935
2.2843733766332885
-0.1767754992564955
-0.1098868835555935
2.2843733766332885
-0.1767754992564955
-0.1098868835555935
2.2843733766332885
-0.17847424109515253
-0.11030670450862617
2.2840163988604285
-0.17847424109515253
-0.11030670450862617
2.2840163988604285
-0.17847424109515253
-0.11030670450862617
2.2840163988604285
-0.17847424109515253
-0.11030670450862617
2.2840163988604285
-0.17955122478146857
-0.10973165082855377
2.283972830738064
-0.17955122478146857
-0.10973165082855377
2.283972830738064
-0.17955122478146857
-0.10973165082855377
2.283972830738064
-0.17955122478146857
-0.10973165082855377
2.283972830738064
-0.17946121425084313
-0.10901801744429841
2.2839550338385552
-0.17946121425084313
-0.10901801744429841
2.2839550338385552
-0.17946121425084313
-0.10901801744429841
2.2839550338385552
-0.17946121425084313
-0.10901801744429841
2.2839550338385552
-0.17906933130573086
-0.10841150211774027
2.284153197252391
-0.17906933130573086
-0.10841150211774027
2.284153197252391
-0.17906933130573086
-0.10841150211774027
2.284153197252391
-0.17906933130573086
-0.10841150211774027
2.284153197252391
-0.17898555667986932
-0.10738415726315158
2.2845449573701178
-0.17898555667986932
-0.10738415726315158
2.2845449573701178
-0.17898555667986932
-0.10738415726315158
2.2845449573701178
-0.17898555667986932
-0.10738415726315158
2.2845449573701178
-0.17817552286333768
-0.10652863798716229
2.2852473284663093
-0.17817552286333768
-0.10652863798716229
2.2852473284663093
-0.17817552286333768
-0.10652863798716229
2.2852473284663093
-0.17817552286333768
-0.10652863798716229
2.2852473284663093
-0.17896663973967228
-0.10536839589932047
2.285622621403854
-0.17896663973967228
-0.10536839589932047
2.285622621403854
-0.17896663973967228
-0.10536839589932047
2.285622621403854
-0.17896663973967228
-0.10536839589932047
2.285622621403854
-0.18042198978576138
-0.10339255067234378
2.2864036296259096
-0.18042198978576138
-0.10339255067234378
2.2864036296259096
-0.18042198978576138
-0.10339255067234378
2.2864036296259096
-0.18042198978576138
-0.10339255067234378
2.2864036296259096
-0.18119173401111427
-0.10081748794698472
2.2873064161622603
-0.18119173401111427
-0.10081748794698472
2.2873064161622603
-0.18119173401111427
-0.10081748794698472
2.2873064161622603
-0.18119173401111427
-0.10081748794698472
2.2873064161622603
-0.18217147478450704
-0.09834880375533392
2.2881158530037222
-0.18217147478450704
-0.09834880375533392
2.2881158530037222
-0.18217147478450704
-0.09834880375533392
2.2881158530037222
-0.18217147478450704
-0.09834880375533392
2.2881158530037222
-0.18330871699972634
-0.09553941431777911
2.289010535487249
-0.18330871699972634
-0.09553941431777911
2.289010535487249
-0.18330871699972634
-0.09553941431777911
2.289010535487249
-0.18330871699972634
-0.09553941431777911
2.289010535487249
-0.18438341253707338
-0.09284771650533982
2.2897984304383616
-0.18438341253707338
-0.09284771650533982
2.2897984304383616
-0.18438341253707338
-0.09284771650533982
2.2897984304383616
-0.18438341253707338
-0.09284771650533982
2.2897984304383616
-0.18692376385976636
-0.09020086839418055
2.2901661855778332
-0.18692376385976636
-0.09020086839418055
2.2901661855778332
-0.18692376385976636
-0.09020086839418055
2.2901661855778332
-0.18692376385976636
-0.09020086839418055
2.2901661855778332
-0.1914117713456415
-0.08683892846975517
2.290442298494337
-0.1914117713456415
-0.08683892846975517
2.290442298494337
-0.1914117713456415
-0.08683892846975517
2.290442298494337
-0.1914117713456415
-0.08683892846975517
2.290442298494337
-0.19621637864274552
-0.0827634252708566
2.2899861374318635
-0.19621637864274552
-0.0827634252708566
2.2899861374318635
-0.19621637864274552
-0.0827634252708566
2.2899861374318635
-0.19621637864274552
-0.0827634252708566
2.2899861374318635
-0.20053681524165679
-0.07742517833270707
2.2869456022515027
-0.20053681524165679
-0.07742517833270707
2.2869456022515027
-0.20053681524165679
-0.07742517833270707
2.2869456022515027
-0.20053681524165679
-0.07742517833270707
2.2869456022515027
-0.20934026798281993
-0.0721304793862505
2.2816988937981213
-0.20934026798281993
-0.0721304793862505
2.2816988937981213
-0.20934026798281993
-0.0721304793862505
2.2816988937981213
-0.20934026798281993
-0.0721304793862505
2.2816988937981213
-0.22589448292756362
-0.06728975772701373
2.274874864469372
-0.22589448292756362
-0.06728975772701373
2.274874864469372
-0.22589448292756362
-0.06728975772701373
2.274874864469372
-0.22589448292756362
-0.06728975772701373
2.274874864469372
-0.24879401991217273
-0.06223541246588992
2.267274837527041
-0.24879401991217273
-0.06223541246588992
2.267274837527041
-0.24879401991217273
-0.06223541246588992
2.267274837527041
-0.24879401991217273
-0.06223541246588992
2.267274837527041
-0.27528536691822275
-0.05793049050798114
2.2605900671866666
-0.27528536691822275
-0.05793049050798114
2.2605900671866666
-0.27528536691822275
-0.05793049050798114
2.2605900671866666
-0.27528536691822275
-0.05793049050798114
2.2605900671866666
-0.30142354226463086
-0.05561661431025586
2.2532371926183994
-0.30142354226463086
-0.05561661431025586
2.2532371926183994
-0.30142354226463086
-0.05561661431025586
2.2532371926183994
-0.30142354226463086
-0.05561661431025586
2.2532371926183994
-0.3243207388936291
-0.05205462258065594
2.246499185235935
-0.3243207388936291
-0.05205462258065594
2.246499185235935
-0.3243207388936291
-0.05205462258065594
2.246499185235935
-0.3243207388936291
-0.05205462258065594
2.246499185235935
-0.33866075084691705
-0.04691484616951651
2.2405449078939643
-0.33866075084691705
-0.04691484616951651
2.2405449078939643
-0.33866075084691705
-0.04691484616951651
2.2405449078939643
-0.33866075084691705
-0.04691484616951651
2.2405449078939643
-0.3506323609630884
-0.042164777319310294
2.2360742123889317
-0.3506323609630884
-0.042164777319310294
2.2360742123889317
-0.3506323609630884
-0.042164777319310294
2.2360742123889317
-0.3506323609630884
-0.042164777319310294
2.2360742123889317
-0.3602221543757481
-0.03753727277533391
2.233675659237299
-0.3602221543757481
-0.03753727277533391
2.233675659237299
-0.3602221543757481
-0.03753727277533391
2.233675659237299
-0.3602221543757481
-0.03753727277533391
2.233675659237299
-0.36995982198719496
-0.033033595527368634
2.232476716219155
-0.36995982198719496
-0.033033595527368634
2.232476716219155
-0.36995982198719496
-0.033033595527368634
2.232476716219155
-0.36995982198719496
-0.033033595527368634
2.232476716219155
-0.3760306882531711
-0.029071008797499298
2.2326667285006603
-0.3760306882531711
-0.029071008797499298
2.2326667285006603
-0.3760306882531711
-0.029071008797499298
2.2326667285006603
-0.3760306882531711
-0.029071008797499298
2.2326667285006603
-0.3818472907664363
-0.023840185183777087
2.2350865712545223
-0.3818472907664363
-0.023840185183777087
2.2350865712545223
-0.3818472907664363
-0.023840185183777087
2.2350865712545223
-0.3818472907664363
-0.023840185183777087
2.2350865712545223
-0.3828994861161765
-0.016636663900126646
2.239208987589545
-0.3828994861161765
-0.016636663900126646
2.239208987589545
-0.3828994861161765
-0.016636663900126646
2.239208987589545
-0.3828994861161765
-0.016636663900126646
2.239208987589545
-0.3785205142010963
-0.010706545664382021
2.243140128271417
-0.3785205142010963
-0.010706545664382021
2.243140128271417
-0.3785205142010963
-0.010706545664382021
2.243140128271417
-0.3785205142010963
-0.010706545664382021
2.243140128271417
-0.3706112028290326
-0.008037231187437287
2.2457976570853737
-0.3706112028290326
-0.008037231187437287
2.2457976570853737
-0.3706112028290326
-0.008037231187437287
2.2457976570853737
-0.3706112028290326
-0.008037231187437287
2.2457976570853737
-0.36332150183799994
-0.007108560572228963
2.2475183194473405
-0.36332150183799994
-0.007108560572228963
2.2475183194473405
-0.36332150183799994
-0.007108560572228963
2.2475183194473405
-0.36332150183799994
-0.007108560572228963
2.2475183194473405
-0.3575172608331573
-0.007509451708022584
2.2488847128672207
-0.3575172608331573
-0.007509451708022584
2.2488847128672207
-0.3575172608331573
-0.007509451708022584
2.2488847128672207
-0.3575172608331573
-0.007509451708022584
2.2488847128672207
-0.3522084001838206
-0.007393336587210922
2.250658282495394
-0.3522084001838206
-0.007393336587210922
2.250658282495394
-0.3522084001838206
-0.007393336587210922
2.250658282495394
-0.3522084001838206
-0.007393336587210922
2.250658282495394
-0.3486159131330101
-0.0075098183695694095
2.251929130005333
-0.3486159131330101
-0.0075098183695694095
2.251929130005333
-0.3486159131330101
-0.0075098183695694095
2.251929130005333
-0.3486159131330101
-0.0075098183695694095
2.251929130005333
-0.34630175900045473
-0.007934014292736609
2.2525968423253238
-0.34630175900045473
-0.007934014292736609
2.2525968423253238
-0.34630175900045473
-0.007934014292736609
2.2525968423253238
-0.34630175900045473
-0.007934014292736609
2.2525968423253238
-0.3465394061727732
-0.008509030809240889
2.2530873628155703
-0.3465394061727732
-0.008509030809240889
2.2530873628155703
-0.3465394061727732
-0.008509030809240889
2.2530873628155703
-0.3465394061727732
-0.008509030809240889
2.2530873628155703
-0.34877755754959977
-0.009550527733298692
2.2532324856031063
-0.34877755754959977
-0.009550527733298692
2.2532324856031063
-0.34877755754959977
-0.009550527733298692
2.2532324856031063
-0.34877755754959977
-0.009550527733298692
2.2532324856031063
-0.3506131709857497
-0.009663224297498841
2.2536557017480687
-0.3506131709857497
-0.009663224297498841
2.2536557017480687
-0.3506131709857497
-0.009663224297498841
2.2536557017480687
-0.3506131709857497
-0.009663224297498841
2.2536557017480687
-0.35425795680367717
-0.009099617178939938
2.2542498346886273
-0.35425795680367717
-0.009099617178939938
2.2542498346886273
-0.35425795680367717
-0.009099617178939938
2.2542498346886273
-0.35425795680367717
-0.009099617178939938
2.2542498346886273
-0.3555253416220244
-0.008771139961259822
2.2540901152037867
-0.3555253416220244
-0.008771139961259822
2.2540901152037867
-0.3555253416220244
-0.008771139961259822
2.2540901152037867
-0.3555253416220244
-0.008771139961259822
2.2540901152037867
-0.3557410648482428
-0.008317684044727252
2.254121542456052
-0.3557410648482428
-0.008317684044727252
2.254121542456052
-0.3557410648482428
-0.008317684044727252
2.254121542456052
-0.3557410648482428
-0.008317684044727252
2.254121542456052
-0.3557410648482428
-0.008317684044727252
2.254121542456052
-0.3557410648482428
-0.008317684044727252
2.254121542456052
-0.3557410648482428
-0.008317684044727252
2.254121542456052
-0.3557410648482428
-0.008317684044727252
2.254121542456052
-0.3546321265164232
-0.008080805176786785
2.254015694149274
-0.3546321265164232
-0.008080805176786785
2.254015694149274
-0.3546321265164232
-0.008080805176786785
2.254015694149274
-0.3546321265164232
-0.008080805176786785
2.254015694149274
-0.35316732229604963
-0.007094334931022574
2.2541054642331484
-0.35316732229604963
-0.007094334931022574
2.2541054642331484
-0.35316732229604963
-0.007094334931022574
2.2541054642331484
-0.35316732229604963
-0.007094334931022574
2.2541054642331484
-0.35312958590883853
-0.005578508695334064
2.254831725074302
-0.35312958590883853
-0.005578508695334064
2.254831725074302
-0.35312958590883853
-0.005578508695334064
2.254831725074302
-0.35312958590883853
-0.005578508695334064
2.254831725074302
-0.35028678803952495
-0.004361617021680187
2.2548211498751396
-0.35028678803952495
-0.004361617021680187
2.2548211498751396
-0.35028678803952495
-0.004361617021680187
2.2548211498751396
-0.35028678803952495
-0.004361617021680187
2.2548211498751396
-0.349759673768883
-0.003179858478444581
2.2546643857810267
-0.349759673768883
-0.003179858478444581
2.2546643857810267
-0.349759673768883
-0.003179858478444581
2.2546643857810267
-0.349759673768883
-0.003179858478444581
2.2546643857810267
-0.3507262933265631
-0.0017053348378492756
2.2547405915921197
-0.3507262933265631
-0.0017053348378492756
2.2547405915921197
-0.3507262933265631
-0.0017053348378492756
2.2547405915921197
-0.3507262933265631
-0.0017053348378492756
2.2547405915921197
-0.35009173717253256
-9.81145103767889E-4
2.2548303136757273
-0.35009173717253256
-9.81145103767889E-4
2.2548303136757273
-0.35009173717253256
-9.81145103767889E-4
2.2548303136757273
-0.35009173717253256
-9.81145103767889E-4
2.2548303136757273
-0.3482671383788869
-8.503511663812918E-4
2.2545237094042214
-0.3482671383788869
-8.503511663812918E-4
2.2545237094042214
-0.3482671383788869
-8.503511663812918E-4
2.2545237094042214
-0.3482671383788869
-8.503511663812918E-4
2.2545237094042214
-0.3486590221085567
-6.842134251284277E-4
2.254164325688705
-0.3486590221085567
-6.842134251284277E-4
2.254164325688705
-0.3486590221085567
-6.842134251284277E-4
2.254164325688705
-0.3486590221085567
-6.842134251284277E-4
2.254164325688705
-0.35010350715474997
-6.429824000190893E-4
2.253608774576217
-0.35010350715474997
-6.429824000190893E-4
2.253608774576217
-0.35010350715474997
-6.429824000190893E-4
2.253608774576217
-0.35010350715474997
-6.429824000190893E-4
2.253608774576217
-0.3511323411234438
-5.377320071525399E-4
2.2531480935114896
-0.3511323411234438
-5.377320071525399E-4
2.2531480935114896
-0.3511323411234438
-5.377320071525399E-4
2.2531480935114896
-0.3511323411234438
-5.377320071525399E-4
2.2531480935114896
-0.3499630824885565
-4.2766571377279947E-4
2.25295774240249
-0.3499630824885565
-4.2766571377279947E-4
2.25295774240249
-0.3499630824885565
-4.2766571377279947E-4
2.25295774240249
-0.3499630824885565
-4.2766571377279947E-4
2.25295774240249
-0.34951371740197434
7.602458264620364E-5
2.2530339106811423
-0.34951371740197434
7.602458264620364E-5
2.2530339106811423
-0.34951371740197434
7.602458264620364E-5
2.2530339106811423
-0.34951371740197434
7.602458264620364E-5
2.2530339106811423
-0.34940518204880167
1.27690966395921E-4
2.2530247957190768
-0.34940518204880167
1.27690966395921E-4
2.2530247957190768
-0.34940518204880167
1.27690966395921E-4
2.2530247957190768
-0.34940518204880167
1.27690966395921E-4
2.2530247957190768
-0.35007330622031596
4.1274810856682843E-4
2.2533101229571852
-0.35007330622031596
4.1274810856682843E-4
2.2533101229571852
-0.35007330622031596
4.1274810856682843E-4
2.2533101229571852
-0.35007330622031596
4.1274810856682843E-4
2.2533101229571852
-0.35012495968663193
5.212851953179839E-4
2.253290914677127
-0.35012495968663193
5.212851953179839E-4
2.253290914677127
-0.35012495968663193
5.212851953179839E-4
2.253290914677127
-0.35012495968663193
5.212851953179839E-4
2.253290914677127
-0.34986335679422187
1.5232647739315752E-4
2.2528019254279172
-0.34986335679422187
1.5232647739315752E-4
2.2528019254279172
-0.34986335679422187
1.5232647739315752E-4
2.2528019254279172
-0.34986335679422187
1.5232647739315752E-4
2.2528019254279172
-0.3510648025411227
6.688412619237456E-4
2.252768859101077
-0.3510648025411227
6.688412619237456E-4
2.252768859101077
-0.3510648025411227
6.688412619237456E-4
2.252768859101077
-0.3510648025411227
6.688412619237456E-4
2.252768859101077
-0.35183734409294387
0.0011233346136477788
2.252746449214207
-0.35183734409294387
0.0011233346136477788
2.252746449214207
-0.35183734409294387
0.0011233346136477788
2.252746449214207
-0.35183734409294387
0.0011233346136477788
2.252746449214207
-0.3522621856583099
0.001406149963373702
2.2524186868444094
-0.3522621856583099
0.001406149963373702
2.2524186868444094
-0.3522621856583099
0.001406149963373702
2.2524186868444094
-0.3522621856583099
0.001406149963373702
2.2524186868444094
-0.3522621856583099
0.001406149963373702
2.2524186868444094
-0.3522621856583099
0.001406149963373702
2.2524186868444094
-0.3522621856583099
0.001406149963373702
2.2524186868444094
-0.3522621856583099
0.001406149963373702
2.2524186868444094
-0.35247810102434235
0.0018594504532886238
2.2524497432107657
-0.35247810102434235
0.0018594504532886238
2.2524497432107657
-0.35247810102434235
0.0018594504532886238
2.2524497432107657
-0.35247810102434235
0.0018594504532886238
2.2524497432107657
-0.35269506709216414
0.0017560512673010227
2.2524679606960016
-0.35269506709216414
0.0017560512673010227
2.2524679606960016
-0.35269506709216414
0.0017560512673010227
2.2524679606960016
-0.35269506709216414
0.0017560512673010227
2.2524679606960016
-0.35351704972951137
0.002923598003505884
2.252706484320054
-0.35351704972951137
0.002923598003505884
2.252706484320054
-0.35351704972951137
0.002923598003505884
2.252706484320054
-0.35351704972951137
0.002923598003505884
2.252706484320054
-0.3536139842449525
0.0034571834283850986
2.2528882181755496
-0.3536139842449525
0.0034571834283850986
2.2528882181755496
-0.3536139842449525
0.0034571834283850986
2.2528882181755496
-0.3536139842449525
0.0034571834283850986
2.2528882181755496
-0.35310772426066894
0.00412125851477007
2.2529358802561896
-0.35310772426066894
0.00412125851477007
2.2529358802561896
-0.35310772426066894
0.00412125851477007
2.2529358802561896
-0.35310772426066894
0.00412125851477007
2.2529358802561896
-0.35248241214015824
0.004865418135912952
2.2531351296246838
-0.35248241214015824
0.004865418135912952
2.2531351296246838
-0.35248241214015824
0.004865418135912952
2.2531351296246838
-0.35248241214015824
0.004865418135912952
2.2531351296246838
-0.3517137272026767
0.004698829211145858
2.2532198943306465
-0.3517137272026767
0.004698829211145858
2.2532198943306465
-0.3517137272026767
0.004698829211145858
2.2532198943306465
-0.3517137272026767
0.004698829211145858
2.2532198943306465
-0.35242020950047476
0.004785309161572742
2.2533147587733877
-0.35242020950047476
0.004785309161572742
2.2533147587733877
-0.35242020950047476
0.004785309161572742
2.2533147587733877
-0.35242020950047476
0.004785309161572742
2.2533147587733877
-0.3539080061709475
0.005346135052950673
2.2534935426729725
-0.3539080061709475
0.005346135052950673
2.2534935426729725
-0.3539080061709475
0.005346135052950673
2.2534935426729725
-0.3539080061709475
0.005346135052950673
2.2534935426729725
-0.3540681583740681
0.005402941939918342
2.2534829376551153
-0.3540681583740681
0.005402941939918342
2.2534829376551153
-0.3540681583740681
0.005402941939918342
2.2534829376551153
-0.3540681583740681
0.005402941939918342
2.2534829376551153
-0.35246000777693864
0.005478959925597111
2.2534683178213397
-0.35246000777693864
0.005478959925597111
2.2534683178213397
-0.35246000777693864
0.005478959925597111
2.2534683178213397
-0.35246000777693864
0.005478959925597111
2.2534683178213397
-0.3512535787789331
0.005230881099618135
2.2534569802983055
-0.3512535787789331
0.005230881099618135
2.2534569802983055
-0.3512535787789331
0.005230881099618135
2.2534569802983055
-0.3512535787789331
0.005230881099618135
2.2534569802983055
-0.3512535787789331
0.005230881099618135
2.2534569802983055
-0.3512535787789331
0.005230881099618135
2.2534569802983055
-0.3512535787789331
0.005230881099618135
2.2534569802983055
-0.3512535787789331
0.005230881099618135
2.2534569802983055
-0.3513052654766729
0.005339387418299796
2.2534375828375435
-0.3513052654766729
0.005339387418299796
2.2534375828375435
-0.3513052654766729
0.005339387418299796
2.2534375828375435
-0.3513052654766729
0.005339387418299796
2.2534375828375435
-0.3513052654766729
0.005339387418299796
2.2534375828375435
-0.3513052654766729
0.005339387418299796
2.2534375828375435
-0.3513052654766729
0.005339387418299796
2.2534375828375435
-0.3513052654766729
0.005339387418299796
2.2534375828375435
-0.35153631768000054
0.004986734147848044
2.2536115559173555
-0.35153631768000054
0.004986734147848044
2.2536115559173555
-0.35153631768000054
0.004986734147848044
2.2536115559173555
-0.35153631768000054
0.004986734147848044
2.2536115559173555
-0.3506006668890316
0.005079376206213963
2.2539279035622313
-0.3506006668890316
0.005079376206213963
2.2539279035622313
-0.3506006668890316
0.005079376206213963
2.2539279035622313
-0.3506006668890316
0.005079376206213963
2.2539279035622313
-0.34953014739642785
0.005548381760270452
2.254508479745796
-0.34953014739642785
0.005548381760270452
2.254508479745796
-0.34953014739642785
0.005548381760270452
2.254508479745796
-0.34953014739642785
0.005548381760270452
2.254508479745796
-0.34930782482562417
0.005411021913507465
2.2546984748815797
-0.34930782482562417
0.005411021913507465
2.2546984748815797
-0.34930782482562417
0.005411021913507465
2.2546984748815797
-0.34930782482562417
0.005411021913507465
2.2546984748815797
-0.34893230962656585
0.0049005681511446915
2.254677509546036
-0.34893230962656585
0.0049005681511446915
2.254677509546036
-0.34893230962656585
0.0049005681511446915
2.254677509546036
-0.34893230962656585
0.0049005681511446915
2.254677509546036
-0.3496581130470905
0.00497858373193763
2.2547207490673538
-0.3496581130470905
0.00497858373193763
2.2547207490673538
-0.3496581130470905
0.00497858373193763
2.2547207490673538
-0.3496581130470905
0.00497858373193763
2.2547207490673538
-0.35053880439799573
0.005382287352153174
2.2547058604758194
-0.35053880439799573
0.005382287352153174
2.2547058604758194
-0.35053880439799573
0.005382287352153174
2.2547058604758194
-0.35053880439799573
0.005382287352153174
2.2547058604758194
-0.3501796916880218
0.005795353680243305
2.254574921473014
-0.3501796916880218
0.005795353680243305
2.254574921473014
-0.3501796916880218
0.005795353680243305
2.254574921473014
-0.3501796916880218
0.005795353680243305
2.254574921473014
-0.34486387128555107
0.005496353713717324
2.2541248381870993
-0.34486387128555107
0.005496353713717324
2.2541248381870993
-0.34486387128555107
0.005496353713717324
2.2541248381870993
-0.34486387128555107
0.005496353713717324
2.2541248381870993
-0.3413969018254205
0.004872716498977028
2.252846256988264
-0.3413969018254205
0.004872716498977028
2.252846256988264
-0.3413969018254205
0.004872716498977028
2.252846256988264
-0.3413969018254205
0.004872716498977028
2.252846256988264
-0.3466584779385487
0.0020885121539610248
2.2512323932743046
-0.3466584779385487
0.0020885121539610248
2.2512323932743046
-0.3466584779385487
0.0020885121539610248
2.2512323932743046
-0.3466584779385487
0.0020885121539610248
2.2512323932743046
-0.3553861450270351
4.77565252878939E-4
2.2509302386630172
-0.3553861450270351
4.77565252878939E-4
2.2509302386630172
-0.3553861450270351
4.77565252878939E-4
2.2509302386630172
-0.3553861450270351
4.77565252878939E-4
2.2509302386630172
-0.36455004013166115
5.947056065509948E-4
2.252158993733316
-0.36455004013166115
5.947056065509948E-4
2.252158993733316
-0.36455004013166115
5.947056065509948E-4
2.252158993733316
-0.36455004013166115
5.947056065509948E-4
2.252158993733316
-0.37367169212122997
-3.768846860663036E-4
2.2540378603245688
-0.37367169212122997
-3.768846860663036E-4
2.2540378603245688
-0.37367169212122997
-3.768846860663036E-4
2.2540378603245688
-0.37367169212122997
-3.768846860663036E-4
2.2540378603245688
-0.379080207560094
-9.421945086132955E-4
2.2551686320265416
-0.379080207560094
-9.421945086132955E-4
2.2551686320265416
-0.379080207560094
-9.421945086132955E-4
2.2551686320265416
-0.379080207560094
-9.421945086132955E-4
2.2551686320265416
-0.3783352363109251
3.797608171824553E-4
2.256635536706151
-0.3783352363109251
3.797608171824553E-4
2.256635536706151
-0.3783352363109251
3.797608171824553E-4
2.256635536706151
-0.3783352363109251
3.797608171824553E-4
2.256635536706151
-0.37051337103907206
9.484934812824139E-4
2.259667362173747
-0.37051337103907206
9.484934812824139E-4
2.259667362173747
-0.37051337103907206
9.484934812824139E-4
2.259667362173747
-0.37051337103907206
9.484934812824139E-4
2.259667362173747
-0.3631921610132499
0.0011001208799407084
2.2626104681996586
-0.3631921610132499
0.0011001208799407084
2.2626104681996586
-0.3631921610132499
0.0011001208799407084
2.2626104681996586
-0.3631921610132499
0.0011001208799407084
2.2626104681996586
-0.36005147244189306
6.34416703901992E-4
2.2677881388631773
-0.36005147244189306
6.34416703901992E-4
2.2677881388631773
-0.36005147244189306
6.34416703901992E-4
2.2677881388631773
-0.36005147244189306
6.34416703901992E-4
2.2677881388631773
-0.34736973413251765
0.002057946430658952
2.2702532548780106
-0.34736973413251765
0.002057946430658952
2.2702532548780106
-0.34736973413251765
0.002057946430658952
2.2702532548780106
-0.34736973413251765
0.002057946430658952
2.2702532548780106
-0.32896032720754725
0.0026393317867734224
2.268206741945495
-0.32896032720754725
0.0026393317867734224
2.268206741945495
-0.32896032720754725
0.0026393317867734224
2.268206741945495
-0.32896032720754725
0.0026393317867734224
2.268206741945495
-0.3088390391853471
0.0017667789615117713
2.267175229841369
-0.3088390391853471
0.0017667789615117713
2.267175229841369
-0.3088390391853471
0.0017667789615117713
2.267175229841369
-0.3088390391853471
0.0017667789615117713
2.267175229841369
-0.29440976241170635
-0.0019098824501286716
2.267674779296987
-0.29440976241170635
-0.0019098824501286716
2.267674779296987
-0.29440976241170635
-0.0019098824501286716
2.267674779296987
-0.29440976241170635
-0.0019098824501286716
2.267674779296987
-0.2911000281813881
-0.0070121579496105
2.271497770401715
-0.2911000281813881
-0.0070121579496105
2.271497770401715
-0.2911000281813881
-0.0070121579496105
2.271497770401715
-0.2911000281813881
-0.0070121579496105
2.271497770401715
-0.2887331950091777
-0.008310955350372231
2.2801132637051156
-0.2887331950091777
-0.008310955350372231
2.2801132637051156
-0.2887331950091777
-0.008310955350372231
2.2801132637051156
-0.2887331950091777
-0.008310955350372231
2.2801132637051156
-0.2815436134658381
-0.008666681751475
2.288596509171291
-0.2815436134658381
-0.008666681751475
2.288596509171291
-0.2815436134658381
-0.008666681751475
2.288596509171291
-0.2815436134658381
-0.008666681751475
2.288596509171291
-0.26430507186503743
-0.009936790857439187
2.2912483894337297
-0.26430507186503743
-0.009936790857439187
2.2912483894337297
-0.26430507186503743
-0.009936790857439187
2.2912483894337297
-0.26430507186503743
-0.009936790857439187
2.2912483894337297
-0.2446880235421829
-0.015288631783808898
2.286431039813876
-0.2446880235421829
-0.015288631783808898
2.286431039813876
-0.2446880235421829
-0.015288631783808898
2.286431039813876
-0.2446880235421829
-0.015288631783808898
2.286431039813876
-0.23121514692807282
-0.02153051785118955
2.282212981872643
-0.23121514692807282
-0.02153051785118955
2.282212981872643
-0.23121514692807282
-0.02153051785118955
2.282212981872643
-0.23121514692807282
-0.02153051785118955
2.282212981872643
-0.22608726447751376
-0.02704724540433659
2.283040054512587
-0.22608726447751376
-0.02704724540433659
2.283040054512587
-0.22608726447751376
-0.02704724540433659
2.283040054512587
-0.22608726447751376
-0.02704724540433659
2.283040054512587
-0.22788907584736284
-0.03229647341644469
2.2866441100510393
-0.22788907584736284
-0.03229647341644469
2.2866441100510393
-0.22788907584736284
-0.03229647341644469
2.2866441100510393
-0.22788907584736284
-0.03229647341644469
2.2866441100510393
-0.2275861354078099
-0.034858714803368
2.2888542393716147
-0.2275861354078099
-0.034858714803368
2.2888542393716147
-0.2275861354078099
-0.034858714803368
2.2888542393716147
-0.2275861354078099
-0.034858714803368
2.2888542393716147
-0.2225353800258699
-0.036000245357862753
2.287114457227655
-0.2225353800258699
-0.036000245357862753
2.287114457227655
-0.2225353800258699
-0.036000245357862753
2.287114457227655
-0.2225353800258699
-0.036000245357862753
2.287114457227655
-0.22224134512792004
-0.037014088875319574
2.2865103665998925
-0.22224134512792004
-0.037014088875319574
2.2865103665998925
-0.22224134512792004
-0.037014088875319574
2.2865103665998925
-0.22224134512792004
-0.037014088875319574
2.2865103665998925
-0.2218150449021522
-0.03777682971676916
2.2886718158545496
-0.2218150449021522
-0.03777682971676916
2.2886718158545496
-0.2218150449021522
-0.03777682971676916
2.2886718158545496
-0.2218150449021522
-0.03777682971676916
2.2886718158545496
-0.22121231984962517
-0.03957407103918957
2.290506963148221
-0.22121231984962517
-0.03957407103918957
2.290506963148221
-0.22121231984962517
-0.03957407103918957
2.290506963148221
-0.22121231984962517
-0.03957407103918957
2.290506963148221
-0.2278263541875942
-0.040726655074003894
2.2913502306736775
-0.2278263541875942
-0.040726655074003894
2.2913502306736775
-0.2278263541875942
-0.040726655074003894
2.2913502306736775
-0.2278263541875942
-0.040726655074003894
2.2913502306736775
-0.232918516846502
-0.04105137183329569
2.2921744424127675
-0.232918516846502
-0.04105137183329569
2.2921744424127675
-0.232918516846502
-0.04105137183329569
2.2921744424127675
-0.232918516846502
-0.04105137183329569
2.2921744424127675
-0.23232084311550216
-0.04172923468055327
2.2931770508000193
-0.23232084311550216
-0.04172923468055327
2.2931770508000193
-0.23232084311550216
-0.04172923468055327
2.2931770508000193
-0.23232084311550216
-0.04172923468055327
2.2931770508000193
-0.23071588863410616
-0.04068819413798909
2.2946092565289344
-0.23071588863410616
-0.04068819413798909
2.2946092565289344
-0.23071588863410616
-0.04068819413798909
2.2946092565289344
-0.23071588863410616
-0.04068819413798909
2.2946092565289344
-0.2307048275577873
-0.038523698054115235
2.295731276077839
-0.2307048275577873
-0.038523698054115235
2.295731276077839
-0.2307048275577873
-0.038523698054115235
2.295731276077839
-0.2307048275577873
-0.038523698054115235
2.295731276077839
-0.2341255499777634
-0.03667554966877925
2.2948792030263885
-0.2341255499777634
-0.03667554966877925
2.2948792030263885
-0.2341255499777634
-0.03667554966877925
2.2948792030263885
-0.2341255499777634
-0.03667554966877925
2.2948792030263885
-0.24074763342866798
-0.035190616879735126
2.290945937520324
-0.24074763342866798
-0.035190616879735126
2.290945937520324
-0.24074763342866798
-0.035190616879735126
2.290945937520324
-0.24074763342866798
-0.035190616879735126
2.290945937520324
-0.24908403048254646
-0.03221068254754118
2.2850290485423312
-0.24908403048254646
-0.03221068254754118
2.2850290485423312
-0.24908403048254646
-0.03221068254754118
2.2850290485423312
-0.24908403048254646
-0.03221068254754118
2.2850290485423312
-0.26046113863339
-0.02937538614482249
2.2776752146989216
-0.26046113863339
-0.02937538614482249
2.2776752146989216
-0.26046113863339
-0.02937538614482249
2.2776752146989216
-0.26046113863339
-0.02937538614482249
2.2776752146989216
-0.2789497345259443
-0.028237338164665053
2.268876953299117
-0.2789497345259443
-0.028237338164665053
2.268876953299117
-0.2789497345259443
-0.028237338164665053
2.268876953299117
-0.2789497345259443
-0.028237338164665053
2.268876953299117
-0.305649805156425
-0.029000837616827396
2.263126887750945
-0.305649805156425
-0.029000837616827396
2.263126887750945
-0.305649805156425
-0.029000837616827396
2.263126887750945
-0.305649805156425
-0.029000837616827396
2.263126887750945
-0.3190024669190593
-0.028553170900233567
2.2626905416231518
-0.3190024669190593
-0.028553170900233567
2.2626905416231518
-0.3190024669190593
-0.028553170900233567
2.2626905416231518
-0.3190024669190593
-0.028553170900233567
2.2626905416231518
-0.3141984475655386
-0.026119492780984997
2.2637097684315615
-0.3141984475655386
-0.026119492780984997
2.2637097684315615
-0.3141984475655386
-0.026119492780984997
2.2637097684315615
-0.3141984475655386
-0.026119492780984997
2.2637097684315615
-0.3107652873591941
-0.022324371309744517
2.2662069955739077
-0.3107652873591941
-0.022324371309744517
2.2662069955739077
-0.3107652873591941
-0.022324371309744517
2.2662069955739077
-0.3107652873591941
-0.022324371309744517
2.2662069955739077
-0.3148928483652508
-0.013820500114038315
2.2717719794342885
-0.3148928483652508
-0.013820500114038315
2.2717719794342885
-0.3148928483652508
-0.013820500114038315
2.2717719794342885
-0.3148928483652508
-0.013820500114038315
2.2717719794342885
-0.3221176554063111
-0.005207334011619072
2.279972441922599
-0.3221176554063111
-0.005207334011619072
2.279972441922599
-0.3221176554063111
-0.005207334011619072
2.279972441922599
-0.3221176554063111
-0.005207334011619072
2.279972441922599
-0.33029348631840827
0.0015894129495266562
2.286935933415796
-0.33029348631840827
0.0015894129495266562
2.286935933415796
-0.33029348631840827
0.0015894129495266562
2.286935933415796
-0.33029348631840827
0.0015894129495266562
2.286935933415796
-0.3309508258943127
0.006554547006496372
2.2916471439313018
-0.3309508258943127
0.006554547006496372
2.2916471439313018
-0.3309508258943127
0.006554547006496372
2.2916471439313018
-0.3309508258943127
0.006554547006496372
2.2916471439313018
-0.3249016754481535
0.009958629827661651
2.2949463371355114
-0.3249016754481535
0.009958629827661651
2.2949463371355114
-0.3249016754481535
0.009958629827661651
2.2949463371355114
-0.3249016754481535
0.009958629827661651
2.2949463371355114
-0.31732573056339225
0.012623469396061343
2.2997100564070396
-0.31732573056339225
0.012623469396061343
2.2997100564070396
-0.31732573056339225
0.012623469396061343
2.2997100564070396
-0.31732573056339225
0.012623469396061343
2.2997100564070396
-0.3094963573005652
0.014414425648743765
2.3045135054372694
-0.3094963573005652
0.014414425648743765
2.3045135054372694
-0.3094963573005652
0.014414425648743765
2.3045135054372694
-0.3094963573005652
0.014414425648743765
2.3045135054372694
-0.3047540662363054
0.01548074703573303
2.3092745868373283
-0.3047540662363054
0.01548074703573303
2.3092745868373283
-0.3047540662363054
0.01548074703573303
2.3092745868373283
-0.3047540662363054
0.01548074703573303
2.3092745868373283
-0.3035730054293174
0.0172480179099597
2.3121605374022454
-0.3035730054293174
0.0172480179099597
2.3121605374022454
-0.3035730054293174
0.0172480179099597
2.3121605374022454
-0.3035730054293174
0.0172480179099597
2.3121605374022454
-0.3019219939182785
0.018037689826424782
2.3135329253515104
-0.3019219939182785
0.018037689826424782
2.3135329253515104
-0.3019219939182785
0.018037689826424782
2.3135329253515104
-0.3019219939182785
0.018037689826424782
2.3135329253515104
-0.30125966212694105
0.018025947347164794
2.3133146106669398
-0.30125966212694105
0.018025947347164794
2.3133146106669398
-0.30125966212694105
0.018025947347164794
2.3133146106669398
-0.30125966212694105
0.018025947347164794
2.3133146106669398
-0.30143061211821803
0.01666066921062093
2.3119155827163476
-0.30143061211821803
0.01666066921062093
2.3119155827163476
-0.30143061211821803
0.01666066921062093
2.3119155827163476
-0.30143061211821803
0.01666066921062093
2.3119155827163476
-0.30258892598363557
0.01470834544646801
2.3103364378105553
-0.30258892598363557
0.01470834544646801
2.3103364378105553
-0.30258892598363557
0.01470834544646801
2.3103364378105553
-0.30258892598363557
0.01470834544646801
2.3103364378105553
-0.3027124840900314
0.013347980767881004
2.3097156409691424
-0.3027124840900314
0.013347980767881004
2.3097156409691424
-0.3027124840900314
0.013347980767881004
2.3097156409691424
-0.3027124840900314
0.013347980767881004
2.3097156409691424
-0.3018330550422674
0.011901961399066248
2.309213800580902
-0.3018330550422674
0.011901961399066248
2.309213800580902
-0.3018330550422674
0.011901961399066248
2.309213800580902
-0.3018330550422674
0.011901961399066248
2.309213800580902
-0.3015489158135912
0.010813650524475716
2.3083276363241834
-0.3015489158135912
0.010813650524475716
2.3083276363241834
-0.3015489158135912
0.010813650524475716
2.3083276363241834
-0.3015489158135912
0.010813650524475716
2.3083276363241834
-0.30157612276059015
0.009937242762940486
2.3061914709740616
-0.30157612276059015
0.009937242762940486
2.3061914709740616
-0.30157612276059015
0.009937242762940486
2.3061914709740616
-0.30157612276059015
0.009937242762940486
2.3061914709740616
-0.30163371660303906
0.009727175111213616
2.3040668893994884
-0.30163371660303906
0.009727175111213616
2.3040668893994884
-0.30163371660303906
0.009727175111213616
2.3040668893994884
-0.30163371660303906
0.009727175111213616
2.3040668893994884
-0.30429231223757675
0.009585537850013405
2.3019940350805594
-0.30429231223757675
0.009585537850013405
2.3019940350805594
-0.30429231223757675
0.009585537850013405
2.3019940350805594
-0.30429231223757675
0.009585537850013405
2.3019940350805594
-0.30645482534577817
0.009608900094820634
2.300449452288461
-0.30645482534577817
0.009608900094820634
2.300449452288461
-0.30645482534577817
0.009608900094820634
2.300449452288461
-0.30645482534577817
0.009608900094820634
2.300449452288461
-0.3079771728123447
0.011338518339936196
2.2994080774102157
-0.3079771728123447
0.011338518339936196
2.2994080774102157
-0.3079771728123447
0.011338518339936196
2.2994080774102157
-0.3079771728123447
0.011338518339936196
2.2994080774102157
-0.31000824494974755
0.012971600601201864
2.298325083619918
-0.31000824494974755
0.012971600601201864
2.298325083619918
-0.31000824494974755
0.012971600601201864
2.298325083619918
-0.31000824494974755
0.012971600601201864
2.298325083619918
-0.3105534372447555
0.01329751069116531
2.296727088756406
-0.3105534372447555
0.01329751069116531
2.296727088756406
-0.3105534372447555
0.01329751069116531
2.296727088756406
-0.3105534372447555
0.01329751069116531
2.296727088756406
-0.31045019863068635
0.014677995545735558
2.2956836466787496
-0.31045019863068635
0.014677995545735558
2.2956836466787496
-0.31045019863068635
0.014677995545735558
2.2956836466787496
-0.31045019863068635
0.014677995545735558
2.2956836466787496
-0.31135890079235584
0.016834346861427478
2.2947356447560896
-0.31135890079235584
0.016834346861427478
2.2947356447560896
-0.31135890079235584
0.016834346861427478
2.2947356447560896
-0.31135890079235584
0.016834346861427478
2.2947356447560896
-0.31238954896327387
0.01739845322213519
2.293482943629036
-0.31238954896327387
0.01739845322213519
2.293482943629036
-0.31238954896327387
0.01739845322213519
2.293482943629036
-0.31238954896327387
0.01739845322213519
2.293482943629036
-0.3147397019657721
0.018200309410078688
2.292354201350138
-0.3147397019657721
0.018200309410078688
2.292354201350138
-0.3147397019657721
0.018200309410078688
2.292354201350138
-0.3147397019657721
0.018200309410078688
2.292354201350138
-0.3165209499436606
0.01954316935692988
2.291305856133272
-0.3165209499436606
0.01954316935692988
2.291305856133272
-0.3165209499436606
0.01954316935692988
2.291305856133272
-0.3165209499436606
0.01954316935692988
2.291305856133272
-0.31649422428213575
0.02006383584363668
2.2911103372141253
-0.31649422428213575
0.02006383584363668
2.2911103372141253
-0.31649422428213575
0.02006383584363668
2.2911103372141253
-0.31649422428213575
0.02006383584363668
2.2911103372141253
-0.3162504869154711
0.020745174689519537
2.2912803785194282
-0.3162504869154711
0.020745174689519537
2.2912803785194282
-0.3162504869154711
0.020745174689519537
2.2912803785194282
-0.3162504869154711
0.020745174689519537
2.2912803785194282
-0.31478316843765297
0.021450059905038364
2.2915618462237037
-0.31478316843765297
0.021450059905038364
2.2915618462237037
-0.31478316843765297
0.021450059905038364
2.2915618462237037
-0.31478316843765297
0.021450059905038364
2.2915618462237037
-0.31430827165868913
0.022255612532684543
2.291879003382305
-0.31430827165868913
0.022255612532684543
2.291879003382305
-0.31430827165868913
0.022255612532684543
2.291879003382305
-0.31430827165868913
0.022255612532684543
2.291879003382305
-0.3143581692885659
0.02236535950183589
2.2918610386538645
-0.3143581692885659
0.02236535950183589
2.2918610386538645
-0.3143581692885659
0.02236535950183589
2.2918610386538645
-0.3143581692885659
0.02236535950183589
2.2918610386538645
-0.31444182472641774
0.02180859237351894
2.2911199203704666
-0.31444182472641774
0.02180859237351894
2.2911199203704666
-0.31543450504750103
0.021909341600364632
2.291154686973201
-0.31543450504750103
0.021909341600364632
2.291154686973201
-0.31543450504750103
0.021909341600364632
2.291154686973201
-0.31543450504750103
0.021909341600364632
2.291154686973201
-0.31543450504750103
0.021909341600364632
2.291154686973201
-0.31543450504750103
0.021909341600364632
2.291154686973201
-0.31744689211197746
0.023046753081716845
2.291186513910738
-0.31744689211197746
0.023046753081716845
2.291186513910738
-0.31744689211197746
0.023046753081716845
2.291186513910738
-0.31744689211197746
0.023046753081716845
2.291186513910738
-0.3172738338800361
0.022950697250794325
2.29097850812697
-0.3172738338800361
0.022950697250794325
2.29097850812697
-0.3172738338800361
0.022950697250794325
2.29097850812697
-0.3172738338800361
0.022950697250794325
2.29097850812697
-0.3169221752251602
0.022121765990211126
2.2907262210470254
-0.3169221752251602
0.022121765990211126
2.2907262210470254
-0.3169221752251602
0.022121765990211126
2.2907262210470254
-0.3169221752251602
0.022121765990211126
2.2907262210470254
-0.3163948356913873
0.021300819750576676
2.29091400249054
-0.3163948356913873
0.021300819750576676
2.29091400249054
-0.3163948356913873
0.021300819750576676
2.29091400249054
-0.3163948356913873
0.021300819750576676
2.29091400249054
-0.3162918609527406
0.02136878420246845
2.291016977229187
-0.3162918609527406
0.02136878420246845
2.291016977229187
-0.3162918609527406
0.02136878420246845
2.291016977229187
-0.3162918609527406
0.02136878420246845
2.291016977229187
-0.3156185070413216
0.021387682613804925
2.2909594696425284
-0.3156185070413216
0.021387682613804925
2.2909594696425284
-0.3156185070413216
0.021387682613804925
2.2909594696425284
-0.3156185070413216
0.021387682613804925
2.2909594696425284
-0.31533323208397934
0.020417252320224226
2.2908407231104273
-0.31533323208397934
0.020417252320224226
2.2908407231104273
-0.31533323208397934
0.020417252320224226
2.2908407231104273
-0.31533323208397934
0.020417252320224226
2.2908407231104273
-0.31534496954320407
0.019615959392133304
2.2910188351232197
-0.31534496954320407
0.019615959392133304
2.2910188351232197
-0.31534496954320407
0.019615959392133304
2.2910188351232197
-0.31534496954320407
0.019615959392133304
2.2910188351232197
-0.3147608244900999
0.019015010628079098
2.2915597206022884
-0.3147608244900999
0.019015010628079098
2.2915597206022884
-0.3147608244900999
0.019015010628079098
2.2915597206022884
-0.3147608244900999
0.019015010628079098
2.2915597206022884
-0.3147776954301948
0.018763533348662122
2.291712150068877
-0.3147776954301948
0.018763533348662122
2.291712150068877
-0.3147776954301948
0.018763533348662122
2.291712150068877
-0.3147776954301948
0.018763533348662122
2.291712150068877
-0.315354806565945
0.017890062090223036
2.2912931726838455
-0.315354806565945
0.017890062090223036
2.2912931726838455
-0.315354806565945
0.017890062090223036
2.2912931726838455
-0.315354806565945
0.017890062090223036
2.2912931726838455
-0.31450675092163244
0.01713322099869581
2.2909194852729926
-0.31450675092163244
0.01713322099869581
2.2909194852729926
-0.31450675092163244
0.01713322099869581
2.2909194852729926
-0.31450675092163244
0.01713322099869581
2.2909194852729926
-0.3150440852155094
0.01612504073107866
2.290359081462621
-0.3150440852155094
0.01612504073107866
2.290359081462621
-0.3150440852155094
0.01612504073107866
2.290359081462621
-0.3150440852155094
0.01612504073107866
2.290359081462621
-0.31710316775628855
0.015853881591896088
2.2902327257926682
-0.31710316775628855
0.015853881591896088
2.2902327257926682
-0.31710316775628855
0.015853881591896088
2.2902327257926682
-0.31710316775628855
0.015853881591896088
2.2902327257926682
-0.317525531924658
0.014693529937486466
2.2901388703906127
-0.317525531924658
0.014693529937486466
2.2901388703906127
-0.317525531924658
0.014693529937486466
2.2901388703906127
-0.317525531924658
0.014693529937486466
2.2901388703906127
-0.3164836726927857
0.014727872978888118
2.289915955057435
-0.3164836726927857
0.014727872978888118
2.289915955057435
-0.3164836726927857
0.014727872978888118
2.289915955057435
-0.3164836726927857
0.014727872978888118
2.289915955057435
-0.31637394321407747
0.014777796167624984
2.28990881952404
-0.31637394321407747
0.014777796167624984
2.28990881952404
-0.31637394321407747
0.014777796167624984
2.28990881952404
-0.31637394321407747
0.014777796167624984
2.28990881952404
-0.3173124021384435
0.014463067827878099
2.28978849429954
-0.3173124021384435
0.014463067827878099
2.28978849429954
-0.3173124021384435
0.014463067827878099
2.28978849429954
-0.3173124021384435
0.014463067827878099
2.28978849429954
-0.3193443175820772
0.01481633155220373
2.2901161923231133
-0.3193443175820772
0.01481633155220373
2.2901161923231133
-0.3193443175820772
0.01481633155220373
2.2901161923231133
-0.3193443175820772
0.01481633155220373
2.2901161923231133
-0.31931870415013275
0.014368811199008524
2.2897485910525575
-0.31931870415013275
0.014368811199008524
2.2897485910525575
-0.31931870415013275
0.014368811199008524
2.2897485910525575
-0.31931870415013275
0.014368811199008524
2.2897485910525575
-0.31722327801113653
0.014218561177843808
2.2896646838980974
-0.31722327801113653
0.014218561177843808
2.2896646838980974
-0.31722327801113653
0.014218561177843808
2.2896646838980974
-0.31722327801113653
0.014218561177843808
2.2896646838980974
-0.3174952869387685
0.01394115853336227
2.2895944810456315
-0.3174952869387685
0.01394115853336227
2.2895944810456315
-0.3174952869387685
0.01394115853336227
2.2895944810456315
-0.3174952869387685
0.01394115853336227
2.2895944810456315
-0.3188253595418727
0.014153488046024657
2.2895615458343896
-0.3188253595418727
0.014153488046024657
2.2895615458343896
-0.3188253595418727
0.014153488046024657
2.2895615458343896
-0.3188253595418727
0.014153488046024657
2.2895615458343896
-0.3188253595418727
0.014153488046024657
2.2895615458343896
-0.3188253595418727
0.014153488046024657
2.2895615458343896
-0.3188253595418727
0.014153488046024657
2.2895615458343896
-0.3188253595418727
0.014153488046024657
2.2895615458343896
-0.31927840578148786
0.013885233962457595
2.2891615686984754
-0.31927840578148786
0.013885233962457595
2.2891615686984754
-0.3185219809192897
0.014646302384483995
2.289259308600599
-0.3185219809192897
0.014646302384483995
2.289259308600599
-0.3185219809192897
0.014646302384483995
2.289259308600599
-0.3185219809192897
0.014646302384483995
2.289259308600599
-0.31849984054699887
0.0154722275023859
2.289239452524722
-0.31849984054699887
0.0154722275023859
2.289239452524722
-0.31849984054699887
0.0154722275023859
2.289239452524722
-0.31849984054699887
0.0154722275023859
2.289239452524722
-0.3175275547542214
0.015077956578815142
2.289085030936438
-0.3175275547542214
0.015077956578815142
2.289085030936438
-0.3175275547542214
0.015077956578815142
2.289085030936438
-0.3175275547542214
0.015077956578815142
2.289085030936438
-0.3178397383749916
0.015179420920307777
2.28895372898569
-0.3178397383749916
0.015179420920307777
2.28895372898569
-0.3178397383749916
0.015179420920307777
2.28895372898569
-0.3178397383749916
0.015179420920307777
2.28895372898569
-0.3191467448614992
0.015973218958459642
2.289102710543123
-0.3191467448614992
0.015973218958459642
2.289102710543123
-0.3191467448614992
0.015973218958459642
2.289102710543123
-0.3191467448614992
0.015973218958459642
2.289102710543123
-0.3204232085522288
0.017331064701241218
2.2893234369764732
-0.3204232085522288
0.017331064701241218
2.2893234369764732
-0.3204232085522288
0.017331064701241218
2.2893234369764732
-0.3204232085522288
0.017331064701241218
2.2893234369764732
-0.3197743465686624
0.01701269651810899
2.2888789483926995
-0.3197743465686624
0.01701269651810899
2.2888789483926995
-0.3197743465686624
0.01701269651810899
2.2888789483926995
-0.3197743465686624
0.01701269651810899
2.2888789483926995
-0.31910472791505134
0.016989087750169947
2.2885506685640786
-0.31910472791505134
0.016989087750169947
2.2885506685640786
-0.31910472791505134
0.016989087750169947
2.2885506685640786
-0.31910472791505134
0.016989087750169947
2.2885506685640786
-0.32069474996520947
0.01747967498880968
2.2884680999220124
-0.32069474996520947
0.01747967498880968
2.2884680999220124
-0.32069474996520947
0.01747967498880968
2.2884680999220124
-0.32069474996520947
0.01747967498880968
2.2884680999220124
-0.32085440942002186
0.01753929170799493
2.288457020203018
-0.32085440942002186
0.01753929170799493
2.288457020203018
-0.32085440942002186
0.01753929170799493
2.288457020203018
-0.32085440942002186
0.01753929170799493
2.288457020203018
-0.318451823549387
0.01671442812531595
2.2883752140873677
-0.318451823549387
0.01671442812531595
2.2883752140873677
-0.318451823549387
0.01671442812531595
2.2883752140873677
-0.318451823549387
0.01671442812531595
2.2883752140873677
-0.31128452286098723
0.01616027233132829
2.2865995191080986
-0.31128452286098723
0.01616027233132829
2.2865995191080986
-0.31128452286098723
0.01616027233132829
2.2865995191080986
-0.31128452286098723
0.01616027233132829
2.2865995191080986
-0.30891146510734374
0.014614696526204158
2.2836390546469616
-0.30891146510734374
0.014614696526204158
2.2836390546469616
-0.30891146510734374
0.014614696526204158
2.2836390546469616
-0.30891146510734374
0.014614696526204158
2.2836390546469616
-0.315016872991196
0.01260282441957094
2.280740603364964
-0.315016872991196
0.01260282441957094
2.280740603364964
-0.315016872991196
0.01260282441957094
2.280740603364964
-0.315016872991196
0.01260282441957094
2.280740603364964
-0.3305926111049555
0.010048370304824493
2.2788261758215036
-0.3305926111049555
0.010048370304824493
2.2788261758215036
-0.3305926111049555
0.010048370304824493
2.2788261758215036
-0.3305926111049555
0.010048370304824493
2.2788261758215036
-0.34639208808770644
0.007784274600100911
2.2777866972746135
-0.34639208808770644
0.007784274600100911
2.2777866972746135
-0.34639208808770644
0.007784274600100911
2.2777866972746135
-0.34639208808770644
0.007784274600100911
2.2777866972746135
-0.3578113240823547
0.006476198638419905
2.2777112651437843
-0.3578113240823547
0.006476198638419905
2.2777112651437843
-0.3578113240823547
0.006476198638419905
2.2777112651437843
-0.3578113240823547
0.006476198638419905
2.2777112651437843
-0.361768204219604
0.005673778486079175
2.2780881399367914
-0.361768204219604
0.005673778486079175
2.2780881399367914
-0.361768204219604
0.005673778486079175
2.2780881399367914
-0.361768204219604
0.005673778486079175
2.2780881399367914
-0.36005358988556463
0.006113202979015159
2.2798933863352087
-0.36005358988556463
0.006113202979015159
2.2798933863352087
-0.36005358988556463
0.006113202979015159
2.2798933863352087
-0.36005358988556463
0.006113202979015159
2.2798933863352087
-0.3532134158661221
0.006775953941383419
2.283639276911751
-0.3532134158661221
0.006775953941383419
2.283639276911751
-0.3532134158661221
0.006775953941383419
2.283639276911751
-0.3532134158661221
0.006775953941383419
2.283639276911751
-0.3471112546495845
0.0072533584696244935
2.2907480729684084
-0.3471112546495845
0.0072533584696244935
2.2907480729684084
-0.3471112546495845
0.0072533584696244935
2.2907480729684084
-0.3471112546495845
0.0072533584696244935
2.2907480729684084
-0.3317038262866237
0.007773285001417357
2.2961016868975013
-0.3317038262866237
0.007773285001417357
2.2961016868975013
-0.3317038262866237
0.007773285001417357
2.2961016868975013
-0.3317038262866237
0.007773285001417357
2.2961016868975013
-0.31469739552874293
0.008274780671696692
2.298133618486277
-0.31469739552874293
0.008274780671696692
2.298133618486277
-0.31469739552874293
0.008274780671696692
2.298133618486277
-0.31469739552874293
0.008274780671696692
2.298133618486277
-0.2969574216315267
0.00673340663263197
2.298046108022807
-0.2969574216315267
0.00673340663263197
2.298046108022807
-0.2969574216315267
0.00673340663263197
2.298046108022807
-0.2969574216315267
0.00673340663263197
2.298046108022807
-0.28634267935768676
0.0029813633351247286
2.2981148941130813
-0.28634267935768676
0.0029813633351247286
2.2981148941130813
-0.28634267935768676
0.0029813633351247286
2.2981148941130813
-0.28634267935768676
0.0029813633351247286
2.2981148941130813
-0.27813831703124064
0.0014360502585833294
2.2993987437152708
-0.27813831703124064
0.0014360502585833294
2.2993987437152708
-0.27813831703124064
0.0014360502585833294
2.2993987437152708
-0.27813831703124064
0.0014360502585833294
2.2993987437152708
-0.2709744572514578
-0.00163247209088919
2.2989496473826847
-0.2709744572514578
-0.00163247209088919
2.2989496473826847
-0.2709744572514578
-0.00163247209088919
2.2989496473826847
-0.2709744572514578
-0.00163247209088919
2.2989496473826847
-0.27087883711915484
-0.005152431762283788
2.29661502910144
-0.27087883711915484
-0.005152431762283788
2.29661502910144
-0.27087883711915484
-0.005152431762283788
2.29661502910144
-0.27087883711915484
-0.005152431762283788
2.29661502910144
-0.2664508890230123
-0.010455360991358204
2.2945905874644645
-0.2664508890230123
-0.010455360991358204
2.2945905874644645
-0.2664508890230123
-0.010455360991358204
2.2945905874644645
-0.2664508890230123
-0.010455360991358204
2.2945905874644645
-0.26053346454626586
-0.014324910202216087
2.297132798836528
-0.26053346454626586
-0.014324910202216087
2.297132798836528
-0.26053346454626586
-0.014324910202216087
2.297132798836528
-0.26053346454626586
-0.014324910202216087
2.297132798836528
-0.2434719004522894
-0.017327324519303484
2.3011953156834863
-0.2434719004522894
-0.017327324519303484
2.3011953156834863
-0.2434719004522894
-0.017327324519303484
2.3011953156834863
-0.2434719004522894
-0.017327324519303484
2.3011953156834863
-0.22130046780263737
-0.01927305888085335
2.298580613813706
-0.22130046780263737
-0.01927305888085335
2.298580613813706
-0.22130046780263737
-0.01927305888085335
2.298580613813706
-0.22130046780263737
-0.01927305888085335
2.298580613813706
-0.21267912891355045
-0.01887862908846388
2.2926998488020436
-0.21267912891355045
-0.01887862908846388
2.2926998488020436
-0.21267912891355045
-0.01887862908846388
2.2926998488020436
-0.21267912891355045
-0.01887862908846388
2.2926998488020436
-0.20762727429313052
-0.018287359301294777
2.2944380848159374
-0.20762727429313052
-0.018287359301294777
2.2944380848159374
-0.20762727429313052
-0.018287359301294777
2.2944380848159374
-0.20762727429313052
-0.018287359301294777
2.2944380848159374
-0.20126944362832835
-0.020607180990182127
2.296237020736309
-0.20126944362832835
-0.020607180990182127
2.296237020736309
-0.20126944362832835
-0.020607180990182127
2.296237020736309
-0.20126944362832835
-0.020607180990182127
2.296237020736309
-0.20664694119091787
-0.023746474470282955
2.294609096110637
-0.20664694119091787
-0.023746474470282955
2.294609096110637
-0.20664694119091787
-0.023746474470282955
2.294609096110637
-0.20664694119091787
-0.023746474470282955
2.294609096110637
-0.2177752531268294
-0.025640663576381634
2.29494197439996
-0.2177752531268294
-0.025640663576381634
2.29494197439996
-0.2177752531268294
-0.025640663576381634
2.29494197439996
-0.2177752531268294
-0.025640663576381634
2.29494197439996
-0.2220220084713317
-0.02804534661265598
2.2965469037128203
-0.2220220084713317
-0.02804534661265598
2.2965469037128203
-0.2220220084713317
-0.02804534661265598
2.2965469037128203
-0.2220220084713317
-0.02804534661265598
2.2965469037128203
-0.21774648499802368
-0.03163415613801097
2.2999980372378723
-0.21774648499802368
-0.03163415613801097
2.2999980372378723
-0.21774648499802368
-0.03163415613801097
2.2999980372378723
-0.21774648499802368
-0.03163415613801097
2.2999980372378723
-0.21617254699025507
-0.03502585634992803
2.301763125045521
-0.21617254699025507
-0.03502585634992803
2.301763125045521
-0.21617254699025507
-0.03502585634992803
2.301763125045521
-0.21617254699025507
-0.03502585634992803
2.301763125045521
-0.2184352980586441
-0.03664604413413565
2.301169251533965
-0.2184352980586441
-0.03664604413413565
2.301169251533965
-0.2184352980586441
-0.03664604413413565
2.301169251533965
-0.2184352980586441
-0.03664604413413565
2.301169251533965
-0.22034966032136782
-0.03689860349622026
2.300633541023265
-0.22034966032136782
-0.03689860349622026
2.300633541023265
-0.22034966032136782
-0.03689860349622026
2.300633541023265
-0.22034966032136782
-0.03689860349622026
2.300633541023265
-0.2235500912890496
-0.038197986080018974
2.3006377110017313
-0.2235500912890496
-0.038197986080018974
2.3006377110017313
-0.2235500912890496
-0.038197986080018974
2.3006377110017313
-0.2235500912890496
-0.038197986080018974
2.3006377110017313
-0.22496896086308169
-0.03852034267147758
2.3021357254477737
-0.22496896086308169
-0.03852034267147758
2.3021357254477737
-0.22496896086308169
-0.03852034267147758
2.3021357254477737
-0.22496896086308169
-0.03852034267147758
2.3021357254477737
-0.22446442229954186
-0.03847676946239045
2.3017344014719185
-0.22446442229954186
-0.03847676946239045
2.3017344014719185
-0.22446442229954186
-0.03847676946239045
2.3017344014719185
-0.22446442229954186
-0.03847676946239045
2.3017344014719185
-0.22800941909015798
-0.037947512084634365
2.2992834509933275
-0.22800941909015798
-0.037947512084634365
2.2992834509933275
-0.22800941909015798
-0.037947512084634365
2.2992834509933275
-0.22800941909015798
-0.037947512084634365
2.2992834509933275
-0.23550187718933518
-0.03825401060434072
2.2969129518886526
-0.23550187718933518
-0.03825401060434072
2.2969129518886526
-0.23550187718933518
-0.03825401060434072
2.2969129518886526
-0.23550187718933518
-0.03825401060434072
2.2969129518886526
-0.24594642891391896
-0.037716219699307975
2.2948425540000104
-0.24594642891391896
-0.037716219699307975
2.2948425540000104
-0.24594642891391896
-0.037716219699307975
2.2948425540000104
-0.24594642891391896
-0.037716219699307975
2.2948425540000104
-0.25732966589102446
-0.03522954265934905
2.2915411212272914
-0.25732966589102446
-0.03522954265934905
2.2915411212272914
-0.25732966589102446
-0.03522954265934905
2.2915411212272914
-0.25732966589102446
-0.03522954265934905
2.2915411212272914
-0.2694369435489712
-0.03276719384447635
2.2877323374968443
-0.2694369435489712
-0.03276719384447635
2.2877323374968443
-0.2694369435489712
-0.03276719384447635
2.2877323374968443
-0.2694369435489712
-0.03276719384447635
2.2877323374968443
-0.27583010021050863
-0.029274797565101346
2.283466021280002
-0.27583010021050863
-0.029274797565101346
2.283466021280002
-0.27583010021050863
-0.029274797565101346
2.283466021280002
-0.27583010021050863
-0.029274797565101346
2.283466021280002
-0.27432370899829545
-0.025271460723831293
2.2772615489684247
-0.27432370899829545
-0.025271460723831293
2.2772615489684247
-0.27432370899829545
-0.025271460723831293
2.2772615489684247
-0.27432370899829545
-0.025271460723831293
2.2772615489684247
-0.28140182034641703
-0.0224191736951701
2.270962670752025
-0.28140182034641703
-0.0224191736951701
2.270962670752025
-0.28140182034641703
-0.0224191736951701
2.270962670752025
-0.28140182034641703
-0.0224191736951701
2.270962670752025
-0.29927579505830915
-0.021206084087288142
2.2685150122908544
-0.29927579505830915
-0.021206084087288142
2.2685150122908544
-0.29927579505830915
-0.021206084087288142
2.2685150122908544
-0.29927579505830915
-0.021206084087288142
2.2685150122908544
-0.3136006416544129
-0.01818713584043205
2.2688545168538647
-0.3136006416544129
-0.01818713584043205
2.2688545168538647
-0.3136006416544129
-0.01818713584043205
2.2688545168538647
-0.3136006416544129
-0.01818713584043205
2.2688545168538647
-0.31615369863983706
-0.015003329142583188
2.2714245097623995
-0.31615369863983706
-0.015003329142583188
2.2714245097623995
-0.31615369863983706
-0.015003329142583188
2.2714245097623995
-0.31615369863983706
-0.015003329142583188
2.2714245097623995
-0.3168121835072823
-0.010295879512723068
2.273776815989701
-0.3168121835072823
-0.010295879512723068
2.273776815989701
-0.3168121835072823
-0.010295879512723068
2.273776815989701
-0.3168121835072823
-0.010295879512723068
2.273776815989701
-0.316691319258043
-0.003951887068362899
2.2764670877650754
-0.316691319258043
-0.003951887068362899
2.2764670877650754
-0.316691319258043
-0.003951887068362899
2.2764670877650754
-0.316691319258043
-0.003951887068362899
2.2764670877650754
-0.3181256282301111
0.002007772710063
2.2812730596685826
-0.3181256282301111
0.002007772710063
2.2812730596685826
-0.3181256282301111
0.002007772710063
2.2812730596685826
-0.3181256282301111
0.002007772710063
2.2812730596685826
-0.32233462023051684
0.008704267868145259
2.285847872494495
-0.32233462023051684
0.008704267868145259
2.285847872494495
-0.32233462023051684
0.008704267868145259
2.285847872494495
-0.32233462023051684
0.008704267868145259
2.285847872494495
-0.327904069178552
0.012805832930992567
2.2906632898009054
-0.327904069178552
0.012805832930992567
2.2906632898009054
-0.327904069178552
0.012805832930992567
2.2906632898009054
-0.327904069178552
0.012805832930992567
2.2906632898009054
-0.3287795879515812
0.01723838985151848
2.294469488213887
-0.3287795879515812
0.01723838985151848
2.294469488213887
-0.3287795879515812
0.01723838985151848
2.294469488213887
-0.3287795879515812
0.01723838985151848
2.294469488213887
-0.3271452505293217
0.020403084823289962
2.296939976605394
-0.3271452505293217
0.020403084823289962
2.296939976605394
-0.3271452505293217
0.020403084823289962
2.296939976605394
-0.3271452505293217
0.020403084823289962
2.296939976605394
-0.3237777265839369
0.022891107433740187
2.298818128682062
-0.3237777265839369
0.022891107433740187
2.298818128682062
-0.3237777265839369
0.022891107433740187
2.298818128682062
-0.3237777265839369
0.022891107433740187
2.298818128682062
-0.32052688686663766
0.02487179340789335
2.301336722578046
-0.32052688686663766
0.02487179340789335
2.301336722578046
-0.32052688686663766
0.02487179340789335
2.301336722578046
-0.32052688686663766
0.02487179340789335
2.301336722578046
-0.3182855311114683
0.025487835769822848
2.302358578014434
-0.3182855311114683
0.025487835769822848
2.302358578014434
-0.3182855311114683
0.025487835769822848
2.302358578014434
-0.3182855311114683
0.025487835769822848
2.302358578014434
-0.31831418727064437
0.02343182006559753
2.302299086607187
-0.31831418727064437
0.02343182006559753
2.302299086607187
-0.31831418727064437
0.02343182006559753
2.302299086607187
-0.31831418727064437
0.02343182006559753
2.302299086607187
-0.3196297657769683
0.021094550537617118
2.3015051133292186
-0.3196297657769683
0.021094550537617118
2.3015051133292186
-0.3196297657769683
0.021094550537617118
2.3015051133292186
-0.3196297657769683
0.021094550537617118
2.3015051133292186
-0.3209839700558496
0.01919715144925328
2.3010317142803007
-0.3209839700558496
0.01919715144925328
2.3010317142803007
-0.3209839700558496
0.01919715144925328
2.3010317142803007
-0.3209839700558496
0.01919715144925328
2.3010317142803007
-0.31910262488888386
0.01793227976529061
2.300576039196012
-0.31910262488888386
0.01793227976529061
2.300576039196012
-0.31910262488888386
0.01793227976529061
2.300576039196012
-0.31910262488888386
0.01793227976529061
2.300576039196012
-0.3187701136944191
0.018019047726739124
2.3001760147144417
-0.3187701136944191
0.018019047726739124
2.3001760147144417
-0.3187701136944191
0.018019047726739124
2.3001760147144417
-0.3187701136944191
0.018019047726739124
2.3001760147144417
-0.3202558241800529
0.0179934246155148
2.2999528058156313
-0.3202558241800529
0.0179934246155148
2.2999528058156313
-0.3202558241800529
0.0179934246155148
2.2999528058156313
-0.3202558241800529
0.0179934246155148
2.2999528058156313
-0.32027122137979713
0.017680836272879936
2.299726934069314
-0.32027122137979713
0.017680836272879936
2.299726934069314
-0.32027122137979713
0.017680836272879936
2.299726934069314
-0.32027122137979713
0.017680836272879936
2.299726934069314
-0.31717481960967797
0.017580446210603964
2.298918217520086
-0.31717481960967797
0.017580446210603964
2.298918217520086
-0.31717481960967797
0.017580446210603964
2.298918217520086
-0.31717481960967797
0.017580446210603964
2.298918217520086
-0.31832942424016286
0.016716588013871717
2.2983932896461314
-0.31832942424016286
0.016716588013871717
2.2983932896461314
-0.31832942424016286
0.016716588013871717
2.2983932896461314
-0.31832942424016286
0.016716588013871717
2.2983932896461314
-0.3197933789210964
0.01747226892790619
2.297881729990012
-0.3197933789210964
0.01747226892790619
2.297881729990012
-0.3197933789210964
0.01747226892790619
2.297881729990012
-0.3197933789210964
0.01747226892790619
2.297881729990012
-0.319682663702171
0.018690429783831
2.2975734409839133
-0.319682663702171
0.018690429783831
2.2975734409839133
-0.319682663702171
0.018690429783831
2.2975734409839133
-0.319682663702171
0.018690429783831
2.2975734409839133
-0.3189346006405548
0.01966737270980153
2.2973106023427485
-0.3189346006405548
0.01966737270980153
2.2973106023427485
-0.3189346006405548
0.01966737270980153
2.2973106023427485
-0.3189346006405548
0.01966737270980153
2.2973106023427485
-0.3188459811580624
0.020347136515035898
2.297089321661985
-0.3188459811580624
0.020347136515035898
2.297089321661985
-0.3188459811580624
0.020347136515035898
2.297089321661985
-0.3188459811580624
0.020347136515035898
2.297089321661985
-0.3179702891365716
0.021380770210258804
2.296870338469234
-0.3179702891365716
0.021380770210258804
2.296870338469234
-0.3179702891365716
0.021380770210258804
2.296870338469234
-0.3179702891365716
0.021380770210258804
2.296870338469234
-0.3164737629029194
0.022846854801907283
2.296753732262554
-0.3164737629029194
0.022846854801907283
2.296753732262554
-0.3164737629029194
0.022846854801907283
2.296753732262554
-0.3164737629029194
0.022846854801907283
2.296753732262554
-0.31746789034597295
0.024363726191446392
2.2962854226895644
-0.31746789034597295
0.024363726191446392
2.2962854226895644
-0.31746789034597295
0.024363726191446392
2.2962854226895644
-0.31746789034597295
0.024363726191446392
2.2962854226895644
-0.31736442559917993
0.025539186573937046
2.295709556970361
-0.31736442559917993
0.025539186573937046
2.295709556970361
-0.31736442559917993
0.025539186573937046
2.295709556970361
-0.31736442559917993
0.025539186573937046
2.295709556970361
-0.3176379195004289
0.02628323679502351
2.295096699015645
-0.3176379195004289
0.02628323679502351
2.295096699015645
-0.3176379195004289
0.02628323679502351
2.295096699015645
-0.3176379195004289
0.02628323679502351
2.295096699015645
-0.31789090981556495
0.02672782346664164
2.294356766531587
-0.31789090981556495
0.02672782346664164
2.294356766531587
-0.31789090981556495
0.02672782346664164
2.294356766531587
-0.31789090981556495
0.02672782346664164
2.294356766531587
-0.31754009908127034
0.02735452393114234
2.2938721942685087
-0.31754009908127034
0.02735452393114234
2.2938721942685087
-0.31754009908127034
0.02735452393114234
2.2938721942685087
-0.31754009908127034
0.02735452393114234
2.2938721942685087
-0.31776036569544547
0.02743820598676756
2.2933032733140006
-0.31776036569544547
0.02743820598676756
2.2933032733140006
-0.31776036569544547
0.02743820598676756
2.2933032733140006
-0.31776036569544547
0.02743820598676756
2.2933032733140006
-0.3199478051072086
0.027051920550463
2.292743169733386
-0.3199478051072086
0.027051920550463
2.292743169733386
-0.3199478051072086
0.027051920550463
2.292743169733386
-0.3199478051072086
0.027051920550463
2.292743169733386
-0.32046054890930536
0.026318560784452286
2.292189259939443
-0.32046054890930536
0.026318560784452286
2.292189259939443
-0.32046054890930536
0.026318560784452286
2.292189259939443
-0.32046054890930536
0.026318560784452286
2.292189259939443
-0.31865849238962046
0.0261260185214179
2.291793461248687
-0.31865849238962046
0.0261260185214179
2.291793461248687
-0.31865849238962046
0.0261260185214179
2.291793461248687
-0.31865849238962046
0.0261260185214179
2.291793461248687
-0.32108591848577145
0.02584113737207388
2.2918183569752526
-0.32108591848577145
0.02584113737207388
2.2918183569752526
-0.32108591848577145
0.02584113737207388
2.2918183569752526
-0.32108591848577145
0.02584113737207388
2.2918183569752526
-0.3214117660531164
0.025979110645140115
2.2919044424000905
-0.3214117660531164
0.025979110645140115
2.2919044424000905
-0.3214117660531164
0.025979110645140115
2.2919044424000905
-0.3214117660531164
0.025979110645140115
2.2919044424000905
-0.319532969093033
0.026014387601287107
2.2919124927986836
-0.319532969093033
0.026014387601287107
2.2919124927986836
-0.319532969093033
0.026014387601287107
2.2919124927986836
-0.319532969093033
0.026014387601287107
2.2919124927986836
-0.3183872658401382
0.025871666097796262
2.292001425091862
-0.3183872658401382
0.025871666097796262
2.292001425091862
-0.3183872658401382
0.025871666097796262
2.292001425091862
-0.3183872658401382
0.025871666097796262
2.292001425091862
-0.3189772929485289
0.026062648655138375
2.292351873554178
-0.3189772929485289
0.026062648655138375
2.292351873554178
-0.3189772929485289
0.026062648655138375
2.292351873554178
-0.3189772929485289
0.026062648655138375
2.292351873554178
-0.3199599450724473
0.02643334352523057
2.29234098355464
-0.3199599450724473
0.02643334352523057
2.29234098355464
-0.3199599450724473
0.02643334352523057
2.29234098355464
-0.3199599450724473
0.02643334352523057
2.29234098355464
-0.3211400345744248
0.026136478554801758
2.2929370430845037
-0.3211400345744248
0.026136478554801758
2.2929370430845037
-0.3211400345744248
0.026136478554801758
2.2929370430845037
-0.3211400345744248
0.026136478554801758
2.2929370430845037
-0.31994180021665647
0.02691255700070142
2.2935945494576595
-0.31994180021665647
0.02691255700070142
2.2935945494576595
-0.31994180021665647
0.02691255700070142
2.2935945494576595
-0.31994180021665647
0.02691255700070142
2.2935945494576595
-0.31928275654968674
0.027769745659011878
2.2946211987430365
-0.31928275654968674
0.027769745659011878
2.2946211987430365
-0.31928275654968674
0.027769745659011878
2.2946211987430365
-0.31928275654968674
0.027769745659011878
2.2946211987430365
-0.318199534402126
0.028512758745115073
2.295396584812712
-0.318199534402126
0.028512758745115073
2.295396584812712
-0.318199534402126
0.028512758745115073
2.295396584812712
-0.318199534402126
0.028512758745115073
2.295396584812712
-0.31645851122034513
0.028959752466028773
2.295891203269769
-0.31645851122034513
0.028959752466028773
2.295891203269769
-0.31645851122034513
0.028959752466028773
2.295891203269769
-0.31645851122034513
0.028959752466028773
2.295891203269769
-0.3163486687889285
0.02900946618029342
2.295884903061764
-0.3163486687889285
0.02900946618029342
2.295884903061764
-0.3163486687889285
0.02900946618029342
2.295884903061764
-0.3163486687889285
0.02900946618029342
2.295884903061764
-0.31718781569509436
0.029070840358865816
2.2960378495312947
-0.31718781569509436
0.029070840358865816
2.2960378495312947
-0.31718781569509436
0.029070840358865816
2.2960378495312947
-0.31718781569509436
0.029070840358865816
2.2960378495312947
-0.3181745464517476
0.02921712905022368
2.29633828241153
-0.3181745464517476
0.02921712905022368
2.29633828241153
-0.3181745464517476
0.02921712905022368
2.29633828241153
-0.3181745464517476
0.02921712905022368
2.29633828241153
-0.31745419125477836
0.030415307602616036
2.296760069989423
-0.31745419125477836
0.030415307602616036
2.296760069989423
-0.31745419125477836
0.030415307602616036
2.296760069989423
-0.31745419125477836
0.030415307602616036
2.296760069989423
-0.31748324213913204
0.031124968694437767
2.297035068648109
-0.31748324213913204
0.031124968694437767
2.297035068648109
-0.31748324213913204
0.031124968694437767
2.297035068648109
-0.31748324213913204
0.031124968694437767
2.297035068648109
-0.317800876199519
0.031061921235128465
2.2975924827647933
-0.317800876199519
0.031061921235128465
2.2975924827647933
-0.317800876199519
0.031061921235128465
2.2975924827647933
-0.317800876199519
0.031061921235128465
2.2975924827647933
-0.31593233051059405
0.03082259263110641
2.2976481823007786
-0.31593233051059405
0.03082259263110641
2.2976481823007786
-0.31593233051059405
0.03082259263110641
2.2976481823007786
-0.31593233051059405
0.03082259263110641
2.2976481823007786
-0.31454238929809164
0.029779056241413363
2.2973841209671564
-0.31454238929809164
0.029779056241413363
2.2973841209671564
-0.31454238929809164
0.029779056241413363
2.2973841209671564
-0.31454238929809164
0.029779056241413363
2.2973841209671564
-0.3158869598216126
0.029440220646216275
2.29731681599615
-0.3158869598216126
0.029440220646216275
2.29731681599615
-0.3158869598216126
0.029440220646216275
2.29731681599615
-0.3158869598216126
0.029440220646216275
2.29731681599615
-0.3163761469605404
0.029351494253187522
2.2973235883555003
-0.3163761469605404
0.029351494253187522
2.2973235883555003
-0.3163761469605404
0.029351494253187522
2.2973235883555003
-0.3163761469605404
0.029351494253187522
2.2973235883555003
-0.3152000815127209
0.028251457217156075
2.2973407689755247
-0.3152000815127209
0.028251457217156075
2.2973407689755247
-0.3152000815127209
0.028251457217156075
2.2973407689755247
-0.3152000815127209
0.028251457217156075
2.2973407689755247
-0.3144308139782726
0.02859891181065535
2.297296819267037
-0.3144308139782726
0.02859891181065535
2.297296819267037
-0.3144308139782726
0.02859891181065535
2.297296819267037
-0.3144308139782726
0.02859891181065535
2.297296819267037
-0.31484319613700895
0.027996721407259204
2.297223118771895
-0.31484319613700895
0.027996721407259204
2.297223118771895
-0.31484319613700895
0.027996721407259204
2.297223118771895
-0.31484319613700895
0.027996721407259204
2.297223118771895
-0.31515622059626425
0.02717479085044868
2.297185978969669
-0.31515622059626425
0.02717479085044868
2.297185978969669
-0.31515622059626425
0.02717479085044868
2.297185978969669
-0.31515622059626425
0.02717479085044868
2.297185978969669
-0.31438363831409744
0.02697176366114717
2.2971664736963735
-0.31438363831409744
0.02697176366114717
2.2971664736963735
-0.31438363831409744
0.02697176366114717
2.2971664736963735
-0.31438363831409744
0.02697176366114717
2.2971664736963735
-0.3140800507283294
0.02727935981643838
2.297448468069958
-0.3140800507283294
0.02727935981643838
2.297448468069958
-0.3140800507283294
0.02727935981643838
2.297448468069958
-0.3140800507283294
0.02727935981643838
2.297448468069958
-0.3133492875401692
0.02782140797549106
2.297925243887581
-0.3133492875401692
0.02782140797549106
2.297925243887581
-0.3133492875401692
0.02782140797549106
2.297925243887581
-0.3133492875401692
0.02782140797549106
2.297925243887581
-0.3111492051620808
0.02742512811199575
2.2977809175524557
-0.3111492051620808
0.02742512811199575
2.2977809175524557
-0.3111492051620808
0.02742512811199575
2.2977809175524557
-0.3111492051620808
0.02742512811199575
2.2977809175524557
-0.30834889742247135
0.027107903907041493
2.297242991715585
-0.30834889742247135
0.027107903907041493
2.297242991715585
-0.30834889742247135
0.027107903907041493
2.297242991715585
-0.30834889742247135
0.027107903907041493
2.297242991715585
-0.30663118251302474
0.025436078661668124
2.297287622637193
-0.30663118251302474
0.025436078661668124
2.297287622637193
-0.30663118251302474
0.025436078661668124
2.297287622637193
-0.30663118251302474
0.025436078661668124
2.297287622637193
-0.3099844520248603
0.023494275557361444
2.2970193486594255
-0.3099844520248603
0.023494275557361444
2.2970193486594255
-0.3099844520248603
0.023494275557361444
2.2970193486594255
-0.3099844520248603
0.023494275557361444
2.2970193486594255
-0.3223561685155193
0.021317190183398865
2.2976971311167262
-0.3223561685155193
0.021317190183398865
2.2976971311167262
-0.3223561685155193
0.021317190183398865
2.2976971311167262
-0.3223561685155193
0.021317190183398865
2.2976971311167262
-0.3349577181012471
0.020542163460714167
2.2983899930163014
-0.3349577181012471
0.020542163460714167
2.2983899930163014
-0.3349577181012471
0.020542163460714167
2.2983899930163014
-0.3349577181012471
0.020542163460714167
2.2983899930163014
-0.34190614754287374
0.019692601014666307
2.299731755110427
-0.34190614754287374
0.019692601014666307
2.299731755110427
-0.34190614754287374
0.019692601014666307
2.299731755110427
-0.34190614754287374
0.019692601014666307
2.299731755110427
-0.346810544953961
0.02014894750527835
2.3033006158395213
-0.346810544953961
0.02014894750527835
2.3033006158395213
-0.346810544953961
0.02014894750527835
2.3033006158395213
-0.346810544953961
0.02014894750527835
2.3033006158395213
-0.3458830619750442
0.021189748445318762
2.3069534488219032
-0.3458830619750442
0.021189748445318762
2.3069534488219032
-0.3458830619750442
0.021189748445318762
2.3069534488219032
-0.3458830619750442
0.021189748445318762
2.3069534488219032
-0.34259199896714276
0.021381997458867187
2.311533366922978
-0.34259199896714276
0.021381997458867187
2.311533366922978
-0.34259199896714276
0.021381997458867187
2.311533366922978
-0.34259199896714276
0.021381997458867187
2.311533366922978
-0.33624833910031887
0.020509284446366474
2.3148008475494515
-0.33624833910031887
0.020509284446366474
2.3148008475494515
-0.33624833910031887
0.020509284446366474
2.3148008475494515
-0.33624833910031887
0.020509284446366474
2.3148008475494515
-0.32436812419587174
0.021528593261898408
2.3183627511385545
-0.32436812419587174
0.021528593261898408
2.3183627511385545
-0.32436812419587174
0.021528593261898408
2.3183627511385545
-0.32436812419587174
0.021528593261898408
2.3183627511385545
-0.3111323387252967
0.021540110519000108
2.320496918649874
-0.3111323387252967
0.021540110519000108
2.320496918649874
-0.3111323387252967
0.021540110519000108
2.320496918649874
-0.3111323387252967
0.021540110519000108
2.320496918649874
-0.2986207060892327
0.019756506584260376
2.320910649682426
-0.2986207060892327
0.019756506584260376
2.320910649682426
-0.2986207060892327
0.019756506584260376
2.320910649682426
-0.2986207060892327
0.019756506584260376
2.320910649682426
-0.2901255142963504
0.018347435686818982
2.3238963254191383
-0.2901255142963504
0.018347435686818982
2.3238963254191383
-0.2901255142963504
0.018347435686818982
2.3238963254191383
-0.2901255142963504
0.018347435686818982
2.3238963254191383
-0.2733518438767262
0.01573409481806677
2.328577268437085
-0.2733518438767262
0.01573409481806677
2.328577268437085
-0.2733518438767262
0.01573409481806677
2.328577268437085
-0.2733518438767262
0.01573409481806677
2.328577268437085
-0.24916060586109218
0.011617912045714367
2.331581815086866
-0.24916060586109218
0.011617912045714367
2.331581815086866
-0.24916060586109218
0.011617912045714367
2.331581815086866
-0.24916060586109218
0.011617912045714367
2.331581815086866
-0.23693577073450148
0.0068107283095449455
2.3315310869551418
-0.23693577073450148
0.0068107283095449455
2.3315310869551418
-0.23693577073450148
0.0068107283095449455
2.3315310869551418
-0.23693577073450148
0.0068107283095449455
2.3315310869551418
-0.23384200093327004
0.004019336990771991
2.3294810814215703
-0.23384200093327004
0.004019336990771991
2.3294810814215703
-0.23384200093327004
0.004019336990771991
2.3294810814215703
-0.23384200093327004
0.004019336990771991
2.3294810814215703
-0.23458362957385814
0.001534981455953917
2.3281260388680645
-0.23458362957385814
0.001534981455953917
2.3281260388680645
-0.23458362957385814
0.001534981455953917
2.3281260388680645
-0.23458362957385814
0.001534981455953917
2.3281260388680645
-0.22968826571305068
-0.0033901914261560153
2.3274565359611383
-0.22968826571305068
-0.0033901914261560153
2.3274565359611383
-0.22968826571305068
-0.0033901914261560153
2.3274565359611383
-0.22968826571305068
-0.0033901914261560153
2.3274565359611383
-0.2238893396741661
-0.006669217954941979
2.3237039492462683
-0.2238893396741661
-0.006669217954941979
2.3237039492462683
-0.2238893396741661
-0.006669217954941979
2.3237039492462683
-0.2238893396741661
-0.006669217954941979
2.3237039492462683
-0.2175220462101207
-0.008831313902836438
2.3191492982448922
-0.2175220462101207
-0.008831313902836438
2.3191492982448922
-0.2175220462101207
-0.008831313902836438
2.3191492982448922
-0.2175220462101207
-0.008831313902836438
2.3191492982448922
-0.21562096396100522
-0.012075620362790076
2.314978253651085
-0.21562096396100522
-0.012075620362790076
2.314978253651085
-0.21562096396100522
-0.012075620362790076
2.314978253651085
-0.21562096396100522
-0.012075620362790076
2.314978253651085
-0.22372477142985076
-0.0155378489887307
2.312377020952642
-0.22372477142985076
-0.0155378489887307
2.312377020952642
-0.22372477142985076
-0.0155378489887307
2.312377020952642
-0.22372477142985076
-0.0155378489887307
2.312377020952642
-0.23158086636960232
-0.019003267766414113
2.3100871278098274
-0.23158086636960232
-0.019003267766414113
2.3100871278098274
-0.23158086636960232
-0.019003267766414113
2.3100871278098274
-0.23158086636960232
-0.019003267766414113
2.3100871278098274
-0.23506788573802626
-0.022606527662176717
2.307538860834674
-0.23506788573802626
-0.022606527662176717
2.307538860834674
-0.23506788573802626
-0.022606527662176717
2.307538860834674
-0.23506788573802626
-0.022606527662176717
2.307538860834674
-0.2409087270796728
-0.027217541339001797
2.305442156896638
-0.2409087270796728
-0.027217541339001797
2.305442156896638
-0.2409087270796728
-0.027217541339001797
2.305442156896638
-0.2409087270796728
-0.027217541339001797
2.305442156896638
-0.24559967448570222
-0.03099596671014619
2.3048482507605588
-0.24559967448570222
-0.03099596671014619
2.3048482507605588
-0.24559967448570222
-0.03099596671014619
2.3048482507605588
-0.24559967448570222
-0.03099596671014619
2.3048482507605588
-0.24755254213815608
-0.034572234330588446
2.3037371737453824
-0.24755254213815608
-0.034572234330588446
2.3037371737453824
-0.24755254213815608
-0.034572234330588446
2.3037371737453824
-0.24755254213815608
-0.034572234330588446
2.3037371737453824
-0.25166105699262503
-0.035731450865222
2.302767457420556
-0.25166105699262503
-0.035731450865222
2.302767457420556
-0.25166105699262503
-0.035731450865222
2.302767457420556
-0.25166105699262503
-0.035731450865222
2.302767457420556
-0.26186101486549146
-0.036191274335471084
2.3022961830259008
-0.26186101486549146
-0.036191274335471084
2.3022961830259008
-0.26186101486549146
-0.036191274335471084
2.3022961830259008
-0.26186101486549146
-0.036191274335471084
2.3022961830259008
-0.281180777407668
-0.03616742421368727
2.3026511974607904
-0.281180777407668
-0.03616742421368727
2.3026511974607904
-0.281180777407668
-0.03616742421368727
2.3026511974607904
-0.281180777407668
-0.03616742421368727
2.3026511974607904
-0.2981248480852304
-0.03477483645978875
2.300589813663391
-0.2981248480852304
-0.03477483645978875
2.300589813663391
-0.2981248480852304
-0.03477483645978875
2.300589813663391
-0.2981248480852304
-0.03477483645978875
2.300589813663391
-0.30240244806426425
-0.03237134160998177
2.2963466259798544
-0.30240244806426425
-0.03237134160998177
2.2963466259798544
-0.30240244806426425
-0.03237134160998177
2.2963466259798544
-0.30240244806426425
-0.03237134160998177
2.2963466259798544
-0.29583567873772176
-0.028100556516246895
2.2925761662045936
-0.29583567873772176
-0.028100556516246895
2.2925761662045936
-0.29583567873772176
-0.028100556516246895
2.2925761662045936
-0.29583567873772176
-0.028100556516246895
2.2925761662045936
-0.2943585621625916
-0.022645102392808546
2.290244691674359
-0.2943585621625916
-0.022645102392808546
2.290244691674359
-0.2943585621625916
-0.022645102392808546
2.290244691674359
-0.2943585621625916
-0.022645102392808546
2.290244691674359
-0.30429643128162964
-0.017762796466082215
2.2880054034620025
-0.30429643128162964
-0.017762796466082215
2.2880054034620025
-0.30429643128162964
-0.017762796466082215
2.2880054034620025
-0.30429643128162964
-0.017762796466082215
2.2880054034620025
-0.31609052455510095
-0.011390784242485097
2.2868284343156695
-0.31609052455510095
-0.011390784242485097
2.2868284343156695
-0.31609052455510095
-0.011390784242485097
2.2868284343156695
-0.31609052455510095
-0.011390784242485097
2.2868284343156695
-0.3260355317449128
-0.005048947410876804
2.286895333649606
-0.3260355317449128
-0.005048947410876804
2.286895333649606
-0.3260355317449128
-0.005048947410876804
2.286895333649606
-0.3260355317449128
-0.005048947410876804
2.286895333649606
-0.33277684664134866
-2.616309551824289E-5
2.28732796119375
-0.33277684664134866
-2.616309551824289E-5
2.28732796119375
-0.33277684664134866
-2.616309551824289E-5
2.28732796119375
-0.33277684664134866
-2.616309551824289E-5
2.28732796119375
-0.33492724524123985
0.0035375097569127763
2.287626961013338
-0.33492724524123985
0.0035375097569127763
2.287626961013338
-0.33492724524123985
0.0035375097569127763
2.287626961013338
-0.33492724524123985
0.0035375097569127763
2.287626961013338
-0.3353814119864921
0.008404303600881026
2.291075018340719
-0.3353814119864921
0.008404303600881026
2.291075018340719
-0.3353814119864921
0.008404303600881026
2.291075018340719
-0.3353814119864921
0.008404303600881026
2.291075018340719
-0.33080894723380805
0.01609107655166087
2.298034674532048
-0.33080894723380805
0.01609107655166087
2.298034674532048
-0.33080894723380805
0.01609107655166087
2.298034674532048
-0.33080894723380805
0.01609107655166087
2.298034674532048
-0.32939120252098836
0.02636296821279143
2.3081880433243356
-0.32939120252098836
0.02636296821279143
2.3081880433243356
-0.32939120252098836
0.02636296821279143
2.3081880433243356
-0.32939120252098836
0.02636296821279143
2.3081880433243356
-0.3318802071829011
0.03502021765970432
2.3157683371264515
-0.3318802071829011
0.03502021765970432
2.3157683371264515
-0.3318802071829011
0.03502021765970432
2.3157683371264515
-0.3318802071829011
0.03502021765970432
2.3157683371264515
-0.3372858643816767
0.041881267590531485
2.3191643275520937
-0.3372858643816767
0.041881267590531485
2.3191643275520937
-0.3372858643816767
0.041881267590531485
2.3191643275520937
-0.3372858643816767
0.041881267590531485
2.3191643275520937
-0.3293860729780851
0.04537750151267137
2.3205118617532707
-0.3293860729780851
0.04537750151267137
2.3205118617532707
-0.3293860729780851
0.04537750151267137
2.3205118617532707
-0.3293860729780851
0.04537750151267137
2.3205118617532707
-0.3168588924662984
0.045806312337548394
2.3224437789542134
-0.3168588924662984
0.045806312337548394
2.3224437789542134
-0.3168588924662984
0.045806312337548394
2.3224437789542134
-0.3168588924662984
0.045806312337548394
2.3224437789542134
-0.30978553990907354
0.04672199132979659
2.326281170307813
-0.30978553990907354
0.04672199132979659
2.326281170307813
-0.30978553990907354
0.04672199132979659
2.326281170307813
-0.30978553990907354
0.04672199132979659
2.326281170307813
-0.3120941986593577
0.04812765798267415
2.3297378526486154
-0.3120941986593577
0.04812765798267415
2.3297378526486154
-0.3120941986593577
0.04812765798267415
2.3297378526486154
-0.3120941986593577
0.04812765798267415
2.3297378526486154
-0.3150935984526345
0.04931163895678186
2.3318308230135747
-0.3150935984526345
0.04931163895678186
2.3318308230135747
-0.3150935984526345
0.04931163895678186
2.3318308230135747
-0.3150935984526345
0.04931163895678186
2.3318308230135747
-0.31145399757430126
0.04978357391580626
2.3327553352238426
-0.31145399757430126
0.04978357391580626
2.3327553352238426
-0.31145399757430126
0.04978357391580626
2.3327553352238426
-0.31145399757430126
0.04978357391580626
2.3327553352238426
-0.3054212296311813
0.049414908131434676
2.333902648224719
-0.3054212296311813
0.049414908131434676
2.333902648224719
-0.3054212296311813
0.049414908131434676
2.333902648224719
-0.3054212296311813
0.049414908131434676
2.333902648224719
-0.30317582660197073
0.04856993447975357
2.3354492035909526
-0.30317582660197073
0.04856993447975357
2.3354492035909526
-0.30317582660197073
0.04856993447975357
2.3354492035909526
-0.30317582660197073
0.04856993447975357
2.3354492035909526
-0.3044038627708752
0.0472399074867881
2.336353673344638
-0.3044038627708752
0.0472399074867881
2.336353673344638
-0.3044038627708752
0.0472399074867881
2.336353673344638
-0.3044038627708752
0.0472399074867881
2.336353673344638
-0.3041399117446801
0.046077345858587
2.3368139522571347
-0.3041399117446801
0.046077345858587
2.3368139522571347
-0.3041399117446801
0.046077345858587
2.3368139522571347
-0.3041399117446801
0.046077345858587
2.3368139522571347
-0.3016703655529668
0.04566376148030325
2.3369651593377774
-0.3016703655529668
0.04566376148030325
2.3369651593377774
-0.3016703655529668
0.04566376148030325
2.3369651593377774
-0.3016703655529668
0.04566376148030325
2.3369651593377774
-0.300866879622876
0.04604222147138477
2.337250054658444
-0.300866879622876
0.04604222147138477
2.337250054658444
-0.300866879622876
0.04604222147138477
2.337250054658444
-0.300866879622876
0.04604222147138477
2.337250054658444
-0.3022601838423634
0.045635730969114684
2.3376206211271846
-0.3022601838423634
0.045635730969114684
2.3376206211271846
-0.3022601838423634
0.045635730969114684
2.3376206211271846
-0.3022601838423634
0.045635730969114684
2.3376206211271846
-0.30210157049161246
0.04557245506875251
2.337633960967087
-0.30210157049161246
0.04557245506875251
2.337633960967087
-0.30210157049161246
0.04557245506875251
2.337633960967087
-0.30210157049161246
0.04557245506875251
2.337633960967087
-0.30293776743176504
0.04649286758423232
2.3371503775198557
-0.30293776743176504
0.04649286758423232
2.3371503775198557
-0.30293776743176504
0.04649286758423232
2.3371503775198557
-0.30293776743176504
0.04649286758423232
2.3371503775198557
-0.30455046504098615
0.04667183547291224
2.336551180703026
-0.30455046504098615
0.04667183547291224
2.336551180703026
-0.30455046504098615
0.04667183547291224
2.336551180703026
-0.30455046504098615
0.04667183547291224
2.336551180703026
-0.3045082206626626
0.04742059511778818
2.3360477690635495
-0.3045082206626626
0.04742059511778818
2.3360477690635495
-0.3045082206626626
0.04742059511778818
2.3360477690635495
-0.3045082206626626
0.04742059511778818
2.3360477690635495
-0.3050198530449083
0.04744596775156778
2.3349288359192104
-0.3050198530449083
0.04744596775156778
2.3349288359192104
-0.3050198530449083
0.04744596775156778
2.3349288359192104
-0.3050198530449083
0.04744596775156778
2.3349288359192104
-0.30558564324260956
0.04735330773463856
2.3341023603430675
-0.30558564324260956
0.04735330773463856
2.3341023603430675
-0.30558564324260956
0.04735330773463856
2.3341023603430675
-0.30558564324260956
0.04735330773463856
2.3341023603430675
-0.3066009758638317
0.048329612899711646
2.3335548488176787
-0.3066009758638317
0.048329612899711646
2.3335548488176787
-0.3066009758638317
0.048329612899711646
2.3335548488176787
-0.3066009758638317
0.048329612899711646
2.3335548488176787
-0.30710110968554644
0.05035047048333303
2.33318137207288
-0.30710110968554644
0.05035047048333303
2.33318137207288
-0.30710110968554644
0.05035047048333303
2.33318137207288
-0.30710110968554644
0.05035047048333303
2.33318137207288
-0.30825533072105843
0.04974308750374677
2.332370615380653
-0.30825533072105843
0.04974308750374677
2.332370615380653
-0.30825533072105843
0.04974308750374677
2.332370615380653
-0.30825533072105843
0.04974308750374677
2.332370615380653
-0.30851705504849336
0.05121010349228253
2.3320874860742298
-0.30851705504849336
0.05121010349228253
2.3320874860742298
-0.30851705504849336
0.05121010349228253
2.3320874860742298
-0.30851705504849336
0.05121010349228253
2.3320874860742298
-0.3104541806876723
0.052180873007513416
2.3315124146987936
-0.3104541806876723
0.052180873007513416
2.3315124146987936
-0.3104541806876723
0.052180873007513416
2.3315124146987936
-0.3104541806876723
0.052180873007513416
2.3315124146987936
-0.31027555317095584
0.05261490568920664
2.3311734479780926
-0.31027555317095584
0.05261490568920664
2.3311734479780926
-0.31027555317095584
0.05261490568920664
2.3311734479780926
-0.31027555317095584
0.05261490568920664
2.3311734479780926
-0.3105537316821969
0.05356625015898541
2.331130711512894
-0.3105537316821969
0.05356625015898541
2.331130711512894
-0.3105537316821969
0.05356625015898541
2.331130711512894
-0.3105537316821969
0.05356625015898541
2.331130711512894
-0.311158823888236
0.054434016548406086
2.331481321200423
-0.311158823888236
0.054434016548406086
2.331481321200423
-0.311158823888236
0.054434016548406086
2.331481321200423
-0.311158823888236
0.054434016548406086
2.331481321200423
-0.31175447632583453
0.05485726435235706
2.331463731987067
-0.31175447632583453
0.05485726435235706
2.331463731987067
-0.31175447632583453
0.05485726435235706
2.331463731987067
-0.31175447632583453
0.05485726435235706
2.331463731987067
-0.3127012350700293
0.05578538987687957
2.331356297285886
-0.3127012350700293
0.05578538987687957
2.331356297285886
-0.3127012350700293
0.05578538987687957
2.331356297285886
-0.3127012350700293
0.05578538987687957
2.331356297285886
-0.3135228938788927
0.05613148691529022
2.331457507138296
-0.3135228938788927
0.05613148691529022
2.331457507138296
-0.3135228938788927
0.05613148691529022
2.331457507138296
-0.3135228938788927
0.05613148691529022
2.331457507138296
-0.31364672860102843
0.05679321938805836
2.331738979078758
-0.31364672860102843
0.05679321938805836
2.331738979078758
-0.31364672860102843
0.05679321938805836
2.331738979078758
-0.31364672860102843
0.05679321938805836
2.331738979078758
-0.3142425820385763
0.05697078108528371
2.3319211966730427
-0.3142425820385763
0.05697078108528371
2.3319211966730427
-0.3142425820385763
0.05697078108528371
2.3319211966730427
-0.3142425820385763
0.05697078108528371
2.3319211966730427
-0.3142425820385763
0.05697078108528371
2.3319211966730427
-0.3142425820385763
0.05697078108528371
2.3319211966730427
-0.3142425820385763
0.05697078108528371
2.3319211966730427
-0.3142425820385763
0.05697078108528371
2.3319211966730427
-0.31467535373631317
0.05682114704941575
2.332208225830567
-0.31467535373631317
0.05682114704941575
2.332208225830567
-0.31467535373631317
0.05682114704941575
2.332208225830567
-0.31467535373631317
0.05682114704941575
2.332208225830567
-0.314749448340838
0.05720682592569887
2.3332003087357953
-0.314749448340838
0.05720682592569887
2.3332003087357953
-0.314749448340838
0.05720682592569887
2.3332003087357953
-0.314749448340838
0.05720682592569887
2.3332003087357953
-0.31279526769746313
0.05765005583000815
2.333283878630749
-0.31279526769746313
0.05765005583000815
2.333283878630749
-0.31279526769746313
0.05765005583000815
2.333283878630749
-0.31279526769746313
0.05765005583000815
2.333283878630749
-0.31141225765648634
0.05660594141568206
2.333195246420563
-0.31141225765648634
0.05660594141568206
2.333195246420563
-0.31141225765648634
0.05660594141568206
2.333195246420563
-0.31141225765648634
0.05660594141568206
2.333195246420563
-0.31056792384531695
0.055837773252464806
2.3328846618149175
-0.31056792384531695
0.055837773252464806
2.3328846618149175
-0.31056792384531695
0.055837773252464806
2.3328846618149175
-0.31056792384531695
0.055837773252464806
2.3328846618149175
-0.3108941516073384
0.05600057546902302
2.333077494893612
-0.3108941516073384
0.05600057546902302
2.333077494893612
-0.3108941516073384
0.05600057546902302
2.333077494893612
-0.3108941516073384
0.05600057546902302
2.333077494893612
-0.312594642831573
0.05519385819229804
2.3325560901803293
-0.312594642831573
0.05519385819229804
2.3325560901803293
-0.312594642831573
0.05519385819229804
2.3325560901803293
-0.312594642831573
0.05519385819229804
2.3325560901803293
-0.31408165730827126
0.054765642905059274
2.332047615732196
-0.31408165730827126
0.054765642905059274
2.332047615732196
-0.31408165730827126
0.054765642905059274
2.332047615732196
-0.31408165730827126
0.054765642905059274
2.332047615732196
-0.3142212358705052
0.05507850581654946
2.3318802467299387
-0.3142212358705052
0.05507850581654946
2.3318802467299387
-0.3142212358705052
0.05507850581654946
2.3318802467299387
-0.3142212358705052
0.05507850581654946
2.3318802467299387
-0.31488555978792176
0.05438327979207342
2.3317616714968983
-0.31488555978792176
0.05438327979207342
2.3317616714968983
-0.31488555978792176
0.05438327979207342
2.3317616714968983
-0.31488555978792176
0.05438327979207342
2.3317616714968983
-0.31319867708744265
0.05359912440148049
2.3316875195122893
-0.31319867708744265
0.05359912440148049
2.3316875195122893
-0.31319867708744265
0.05359912440148049
2.3316875195122893
-0.31319867708744265
0.05359912440148049
2.3316875195122893
-0.3131795828460904
0.05319612960801015
2.3315896606254993
-0.3131795828460904
0.05319612960801015
2.3315896606254993
-0.3131795828460904
0.05319612960801015
2.3315896606254993
-0.3131795828460904
0.05319612960801015
2.3315896606254993
-0.31523821463654444
0.053010232362121545
2.331694293900212
-0.31523821463654444
0.053010232362121545
2.331694293900212
-0.31523821463654444
0.053010232362121545
2.331694293900212
-0.31523821463654444
0.053010232362121545
2.331694293900212
-0.31744511581001844
0.053828407209653914
2.3317965918126595
-0.31744511581001844
0.053828407209653914
2.3317965918126595
-0.31744511581001844
0.053828407209653914
2.3317965918126595
-0.31744511581001844
0.053828407209653914
2.3317965918126595
-0.3170267598201891
0.05370857070966122
2.331551347931242
-0.3170267598201891
0.05370857070966122
2.331551347931242
-0.3170267598201891
0.05370857070966122
2.331551347931242
-0.3170267598201891
0.05370857070966122
2.331551347931242
-0.31544496316611526
0.05318341336965046
2.331661112028453
-0.31544496316611526
0.05318341336965046
2.331661112028453
-0.31544496316611526
0.05318341336965046
2.331661112028453
-0.31544496316611526
0.05318341336965046
2.331661112028453
-0.31528622873860457
0.053120798022766494
2.331675401029134
-0.31528622873860457
0.053120798022766494
2.331675401029134
-0.31528622873860457
0.053120798022766494
2.331675401029134
-0.31528622873860457
0.053120798022766494
2.331675401029134
-0.31609917518668207
0.05318370744481497
2.331757074300449
-0.31609917518668207
0.05318370744481497
2.331757074300449
-0.31609917518668207
0.05318370744481497
2.331757074300449
-0.31609917518668207
0.05318370744481497
2.331757074300449
-0.3164297704886533
0.054264478293855174
2.331803218857381
-0.3164297704886533
0.054264478293855174
2.331803218857381
-0.3164297704886533
0.054264478293855174
2.331803218857381
-0.3164297704886533
0.054264478293855174
2.331803218857381
-0.3149730836589488
0.05366773344756352
2.331759090960321
-0.3149730836589488
0.05366773344756352
2.331759090960321
-0.3149730836589488
0.05366773344756352
2.331759090960321
-0.3149730836589488
0.05366773344756352
2.331759090960321
-0.3144730329908552
0.05371128314176135
2.3315382555243787
-0.3144730329908552
0.05371128314176135
2.3315382555243787
-0.3144730329908552
0.05371128314176135
2.3315382555243787
-0.3144730329908552
0.05371128314176135
2.3315382555243787
-0.3154009543452441
0.053990619154811986
2.3315338596857913
-0.3154009543452441
0.053990619154811986
2.3315338596857913
-0.3154009543452441
0.053990619154811986
2.3315338596857913
-0.3154009543452441
0.053990619154811986
2.3315338596857913
-0.31584687256186794
0.05504234386443769
2.3316954747703864
-0.31584687256186794
0.05504234386443769
2.3316954747703864
-0.31584687256186794
0.05504234386443769
2.3316954747703864
-0.31584687256186794
0.05504234386443769
2.3316954747703864
-0.3146435183211492
0.0557083446509091
2.331833987891719
-0.3146435183211492
0.0557083446509091
2.331833987891719
-0.3146435183211492
0.0557083446509091
2.331833987891719
-0.3146435183211492
0.0557083446509091
2.331833987891719
-0.3149843486642113
0.05625542748142882
2.3320132223295316
-0.3149843486642113
0.05625542748142882
2.3320132223295316
-0.3149843486642113
0.05625542748142882
2.3320132223295316
-0.3149843486642113
0.05625542748142882
2.3320132223295316
-0.31619901673660766
0.05752430324746122
2.3321830638177956
-0.31619901673660766
0.05752430324746122
2.3321830638177956
-0.31619901673660766
0.05752430324746122
2.3321830638177956
-0.31619901673660766
0.05752430324746122
2.3321830638177956
-0.31468175028075496
0.05898259122607261
2.33220647739065
-0.31468175028075496
0.05898259122607261
2.33220647739065
-0.31468175028075496
0.05898259122607261
2.33220647739065
-0.31468175028075496
0.05898259122607261
2.33220647739065
-0.31289444378766745
0.05993416493638337
2.3326444812019043
-0.31289444378766745
0.05993416493638337
2.3326444812019043
-0.31289444378766745
0.05993416493638337
2.3326444812019043
-0.31289444378766745
0.05993416493638337
2.3326444812019043
-0.3118945793278103
0.060852096211491076
2.333244464550818
-0.3118945793278103
0.060852096211491076
2.333244464550818
-0.3118945793278103
0.060852096211491076
2.333244464550818
-0.3118945793278103
0.060852096211491076
2.333244464550818
-0.3098837892015475
0.06114714780353987
2.3331294153124027
-0.3098837892015475
0.06114714780353987
2.3331294153124027
-0.3098837892015475
0.06114714780353987
2.3331294153124027
-0.3098837892015475
0.06114714780353987
2.3331294153124027
-0.3063084695655696
0.06081488595600923
2.3324781455222934
-0.3063084695655696
0.06081488595600923
2.3324781455222934
-0.3063084695655696
0.06081488595600923
2.3324781455222934
-0.3063084695655696
0.06081488595600923
2.3324781455222934
-0.3028545080042164
0.060643394561255635
2.331360208034074
-0.3028545080042164
0.060643394561255635
2.331360208034074
-0.3028545080042164
0.060643394561255635
2.331360208034074
-0.3028545080042164
0.060643394561255635
2.331360208034074
-0.3019742971726389
0.05899585280739287
2.330356443769956
-0.3019742971726389
0.05899585280739287
2.330356443769956
-0.3019742971726389
0.05899585280739287
2.330356443769956
-0.3019742971726389
0.05899585280739287
2.330356443769956
-0.30639673972264286
0.0561591397026743
2.3302580259696457
-0.30639673972264286
0.0561591397026743
2.3302580259696457
-0.30639673972264286
0.0561591397026743
2.3302580259696457
-0.30639673972264286
0.0561591397026743
2.3302580259696457
-0.31470479875106777
0.054150207997427986
2.3296928549074054
-0.31470479875106777
0.054150207997427986
2.3296928549074054
-0.31470479875106777
0.054150207997427986
2.3296928549074054
-0.31470479875106777
0.054150207997427986
2.3296928549074054
-0.31974509027873416
0.05272961075591653
2.3282255991825247
-0.31974509027873416
0.05272961075591653
2.3282255991825247
-0.31974509027873416
0.05272961075591653
2.3282255991825247
-0.31974509027873416
0.05272961075591653
2.3282255991825247
-0.3252157839219436
0.0511525921468368
2.327054821543519
-0.3252157839219436
0.0511525921468368
2.327054821543519
-0.3252157839219436
0.0511525921468368
2.327054821543519
-0.3252157839219436
0.0511525921468368
2.327054821543519
-0.33057344081391365
0.049617492532814965
2.325887629916688
-0.33057344081391365
0.049617492532814965
2.325887629916688
-0.33057344081391365
0.049617492532814965
2.325887629916688
-0.33057344081391365
0.049617492532814965
2.325887629916688
-0.3331157367279564
0.04761532146118235
2.326907953841386
-0.3331157367279564
0.04761532146118235
2.326907953841386
-0.3331157367279564
0.04761532146118235
2.326907953841386
-0.3331157367279564
0.04761532146118235
2.326907953841386
-0.3348279029285469
0.0458649995869621
2.3306745791078365
-0.3348279029285469
0.0458649995869621
2.3306745791078365
-0.3348279029285469
0.0458649995869621
2.3306745791078365
-0.3348279029285469
0.0458649995869621
2.3306745791078365
-0.3325589895656248
0.04450281008825331
2.3355883686283874
-0.3325589895656248
0.04450281008825331
2.3355883686283874
-0.3325589895656248
0.04450281008825331
2.3355883686283874
-0.3325589895656248
0.04450281008825331
2.3355883686283874
-0.32669907726946507
0.04392825934690771
2.3410759150649727
-0.32669907726946507
0.04392825934690771
2.3410759150649727
-0.32669907726946507
0.04392825934690771
2.3410759150649727
-0.32669907726946507
0.04392825934690771
2.3410759150649727
-0.3097875929524731
0.04075946303746762
2.3443144326888454
-0.3097875929524731
0.04075946303746762
2.3443144326888454
-0.3097875929524731
0.04075946303746762
2.3443144326888454
-0.3097875929524731
0.04075946303746762
2.3443144326888454
-0.288752092832685
0.036804293207678015
2.347095466026474
-0.288752092832685
0.036804293207678015
2.347095466026474
-0.288752092832685
0.036804293207678015
2.347095466026474
-0.288752092832685
0.036804293207678015
2.347095466026474
-0.2705925078867538
0.031014603359675142
2.350252244866746
-0.2705925078867538
0.031014603359675142
2.350252244866746
-0.2705925078867538
0.031014603359675142
2.350252244866746
-0.2705925078867538
0.031014603359675142
2.350252244866746
-0.25121168160408336
0.022815954113942025
2.3493659263931184
-0.25121168160408336
0.022815954113942025
2.3493659263931184
-0.25121168160408336
0.022815954113942025
2.3493659263931184
-0.25121168160408336
0.022815954113942025
2.3493659263931184
-0.2443864587614687
0.016832141223618896
2.3480228104398293
-0.2443864587614687
0.016832141223618896
2.3480228104398293
-0.2443864587614687
0.016832141223618896
2.3480228104398293
-0.2443864587614687
0.016832141223618896
2.3480228104398293
-0.2400424515205745
0.012653164180657681
2.3514491283207883
-0.2400424515205745
0.012653164180657681
2.3514491283207883
-0.2400424515205745
0.012653164180657681
2.3514491283207883
-0.2400424515205745
0.012653164180657681
2.3514491283207883
-0.2467711788418415
0.009555979145778408
2.35559401429374
-0.2467711788418415
0.009555979145778408
2.35559401429374
-0.2467711788418415
0.009555979145778408
2.35559401429374
-0.2467711788418415
0.009555979145778408
2.35559401429374
-0.2499715630022039
0.006491182232145845
2.35659855888805
-0.2499715630022039
0.006491182232145845
2.35659855888805
-0.2499715630022039
0.006491182232145845
2.35659855888805
-0.2499715630022039
0.006491182232145845
2.35659855888805
-0.25042396980365633
0.0019102996039731047
2.352375634373509
-0.25042396980365633
0.0019102996039731047
2.352375634373509
-0.25042396980365633
0.0019102996039731047
2.352375634373509
-0.25042396980365633
0.0019102996039731047
2.352375634373509
-0.2427769832320846
-0.001673479411751386
2.350388887599882
-0.2427769832320846
-0.001673479411751386
2.350388887599882
-0.2427769832320846
-0.001673479411751386
2.350388887599882
-0.2427769832320846
-0.001673479411751386
2.350388887599882
-0.22978625696002125
-0.0076930828650816005
2.3493158315615124
-0.22978625696002125
-0.0076930828650816005
2.3493158315615124
-0.22978625696002125
-0.0076930828650816005
2.3493158315615124
-0.22978625696002125
-0.0076930828650816005
2.3493158315615124
-0.2177351193815828
-0.015674362276420307
2.347130622353671
-0.2177351193815828
-0.015674362276420307
2.347130622353671
-0.2177351193815828
-0.015674362276420307
2.347130622353671
-0.2177351193815828
-0.015674362276420307
2.347130622353671
-0.21942441077714886
-0.02329230319373352
2.344921366482948
-0.21942441077714886
-0.02329230319373352
2.344921366482948
-0.21942441077714886
-0.02329230319373352
2.344921366482948
-0.21942441077714886
-0.02329230319373352
2.344921366482948
-0.2237534685104472
-0.029148526254662497
2.341261973617982
-0.2237534685104472
-0.029148526254662497
2.341261973617982
-0.2237534685104472
-0.029148526254662497
2.341261973617982
-0.2237534685104472
-0.029148526254662497
2.341261973617982
-0.23112608464369755
-0.03438307498586653
2.338237503430884
-0.23112608464369755
-0.03438307498586653
2.338237503430884
-0.23112608464369755
-0.03438307498586653
2.338237503430884
-0.23112608464369755
-0.03438307498586653
2.338237503430884
-0.24230686665142603
-0.038014841570244214
2.3377460124534646
-0.24230686665142603
-0.038014841570244214
2.3377460124534646
-0.24230686665142603
-0.038014841570244214
2.3377460124534646
-0.24230686665142603
-0.038014841570244214
2.3377460124534646
-0.24813867862215597
-0.04230887466847459
2.337231595186482
-0.24813867862215597
-0.04230887466847459
2.337231595186482
-0.24813867862215597
-0.04230887466847459
2.337231595186482
-0.24813867862215597
-0.04230887466847459
2.337231595186482
-0.25248069113735444
-0.045577496607810464
2.333748335156315
-0.25248069113735444
-0.045577496607810464
2.333748335156315
-0.25248069113735444
-0.045577496607810464
2.333748335156315
-0.25248069113735444
-0.045577496607810464
2.333748335156315
-0.25811544063974456
-0.04906246512998989
2.329027100625501
-0.25811544063974456
-0.04906246512998989
2.329027100625501
-0.25811544063974456
-0.04906246512998989
2.329027100625501
-0.25811544063974456
-0.04906246512998989
2.329027100625501
-0.2633109966904888
-0.0505829727516299
2.326638020048664
-0.2633109966904888
-0.0505829727516299
2.326638020048664
-0.2633109966904888
-0.0505829727516299
2.326638020048664
-0.2633109966904888
-0.0505829727516299
2.326638020048664
-0.2677961318667663
-0.05154701820722312
2.325099646963638
-0.2677961318667663
-0.05154701820722312
2.325099646963638
-0.2677961318667663
-0.05154701820722312
2.325099646963638
-0.2677961318667663
-0.05154701820722312
2.325099646963638
-0.2776370544211526
-0.051981494535626824
2.323061817878059
-0.2776370544211526
-0.051981494535626824
2.323061817878059
-0.2776370544211526
-0.051981494535626824
2.323061817878059
-0.2776370544211526
-0.051981494535626824
2.323061817878059
-0.29090451890470287
-0.0503797125157711
2.3214468912905004
-0.29090451890470287
-0.0503797125157711
2.3214468912905004
-0.29090451890470287
-0.0503797125157711
2.3214468912905004
-0.29090451890470287
-0.0503797125157711
2.3214468912905004
-0.293085370128101
-0.04659430849287615
2.31825092961519
-0.293085370128101
-0.04659430849287615
2.31825092961519
-0.293085370128101
-0.04659430849287615
2.31825092961519
-0.293085370128101
-0.04659430849287615
2.31825092961519
-0.2905625661304203
-0.04140925861279889
2.3133209139208537
-0.2905625661304203
-0.04140925861279889
2.3133209139208537
-0.2905625661304203
-0.04140925861279889
2.3133209139208537
-0.2905625661304203
-0.04140925861279889
2.3133209139208537
-0.2921311496463946
-0.03575316005468732
2.309151418502944
-0.2921311496463946
-0.03575316005468732
2.309151418502944
-0.2921311496463946
-0.03575316005468732
2.309151418502944
-0.2921311496463946
-0.03575316005468732
2.309151418502944
-0.29623176949902463
-0.02926102788226241
2.3062392947117454
-0.29623176949902463
-0.02926102788226241
2.3062392947117454
-0.29623176949902463
-0.02926102788226241
2.3062392947117454
-0.29623176949902463
-0.02926102788226241
2.3062392947117454
-0.3063918654560557
-0.023100686663569497
2.30384485751156
-0.3063918654560557
-0.023100686663569497
2.30384485751156
-0.3063918654560557
-0.023100686663569497
2.30384485751156
-0.3063918654560557
-0.023100686663569497
2.30384485751156
-0.31538174683102205
-0.016449632065241998
2.304609706873498
-0.31538174683102205
-0.016449632065241998
2.304609706873498
-0.31538174683102205
-0.016449632065241998
2.304609706873498
-0.31538174683102205
-0.016449632065241998
2.304609706873498
-0.31821868491224126
-0.008868343414178251
2.3065921743944506
-0.31821868491224126
-0.008868343414178251
2.3065921743944506
-0.31821868491224126
-0.008868343414178251
2.3065921743944506
-0.31821868491224126
-0.008868343414178251
2.3065921743944506
-0.3213018850608375
-0.0020373461865415368
2.3096175476089993
-0.3213018850608375
-0.0020373461865415368
2.3096175476089993
-0.3213018850608375
-0.0020373461865415368
2.3096175476089993
-0.3213018850608375
-0.0020373461865415368
2.3096175476089993
-0.32577282178337985
0.004723093632401089
2.3150818145519074
-0.32577282178337985
0.004723093632401089
2.3150818145519074
-0.32577282178337985
0.004723093632401089
2.3150818145519074
-0.32577282178337985
0.004723093632401089
2.3150818145519074
-0.32358981166648887
0.01312632072714697
2.322780667099611
-0.32358981166648887
0.01312632072714697
2.322780667099611
-0.32358981166648887
0.01312632072714697
2.322780667099611
-0.32358981166648887
0.01312632072714697
2.322780667099611
-0.31799719673865584
0.02128056604831053
2.3292731802252815
-0.31799719673865584
0.02128056604831053
2.3292731802252815
-0.31799719673865584
0.02128056604831053
2.3292731802252815
-0.31799719673865584
0.02128056604831053
2.3292731802252815
-0.3184211639065651
0.02812380672068818
2.3354915679547417
-0.3184211639065651
0.02812380672068818
2.3354915679547417
-0.3184211639065651
0.02812380672068818
2.3354915679547417
-0.3184211639065651
0.02812380672068818
2.3354915679547417
-0.3247196834900712
0.03685538397530861
2.3430227562060333
-0.3247196834900712
0.03685538397530861
2.3430227562060333
-0.3247196834900712
0.03685538397530861
2.3430227562060333
-0.3247196834900712
0.03685538397530861
2.3430227562060333
-0.32901036491586805
0.0455230767716846
2.3496695154309033
-0.32901036491586805
0.0455230767716846
2.3496695154309033
-0.32901036491586805
0.0455230767716846
2.3496695154309033
-0.32901036491586805
0.0455230767716846
2.3496695154309033
-0.3222205920619561
0.049736827165878426
2.3553351426645994
-0.3222205920619561
0.049736827165878426
2.3553351426645994
-0.3222205920619561
0.049736827165878426
2.3553351426645994
-0.3222205920619561
0.049736827165878426
2.3553351426645994
-0.31272020774883713
0.05314307787430772
2.359253694898686
-0.31272020774883713
0.05314307787430772
2.359253694898686
-0.31272020774883713
0.05314307787430772
2.359253694898686
-0.31272020774883713
0.05314307787430772
2.359253694898686
-0.3089094674365665
0.05539242066515067
2.363072152034567
-0.3089094674365665
0.05539242066515067
2.363072152034567
-0.3089094674365665
0.05539242066515067
2.363072152034567
-0.3089094674365665
0.05539242066515067
2.363072152034567
-0.3088499883907545
0.058574029855781994
2.3664104792515053
-0.3088499883907545
0.058574029855781994
2.3664104792515053
-0.3088499883907545
0.058574029855781994
2.3664104792515053
-0.3088499883907545
0.058574029855781994
2.3664104792515053
-0.30860876992801783
0.060461778582539275
2.3686713380006923
-0.30860876992801783
0.060461778582539275
2.3686713380006923
-0.30860876992801783
0.060461778582539275
2.3686713380006923
-0.30860876992801783
0.060461778582539275
2.3686713380006923
-0.3082313510834133
0.06095080746520994
2.3691578201689363
-0.3082313510834133
0.06095080746520994
2.3691578201689363
-0.3082313510834133
0.06095080746520994
2.3691578201689363
-0.3082313510834133
0.06095080746520994
2.3691578201689363
-0.3042199394804838
0.060588010780274634
2.369293333538573
-0.3042199394804838
0.060588010780274634
2.369293333538573
-0.3042199394804838
0.060588010780274634
2.369293333538573
-0.3042199394804838
0.060588010780274634
2.369293333538573
-0.3037777902286326
0.06052485001099693
2.369477384102454
-0.3037777902286326
0.06052485001099693
2.369477384102454
-0.3037777902286326
0.06052485001099693
2.369477384102454
-0.3037777902286326
0.06052485001099693
2.369477384102454
-0.30501774115105396
0.059535671829568794
2.3688797973437867
-0.30501774115105396
0.059535671829568794
2.3688797973437867
-0.30501774115105396
0.059535671829568794
2.3688797973437867
-0.30501774115105396
0.059535671829568794
2.3688797973437867
-0.3029111580388124
0.05815564225067107
2.3682377107976387
-0.3029111580388124
0.05815564225067107
2.3682377107976387
-0.3029111580388124
0.05815564225067107
2.3682377107976387
-0.3029111580388124
0.05815564225067107
2.3682377107976387
-0.30396375106456053
0.056889467132405946
2.3670238600925275
-0.30396375106456053
0.056889467132405946
2.3670238600925275
-0.30396375106456053
0.056889467132405946
2.3670238600925275
-0.30396375106456053
0.056889467132405946
2.3670238600925275
-0.30613866318177607
0.056171914974486634
2.3662674307232994
-0.30613866318177607
0.056171914974486634
2.3662674307232994
-0.30613866318177607
0.056171914974486634
2.3662674307232994
-0.30613866318177607
0.056171914974486634
2.3662674307232994
-0.3050380188453255
0.05572796406434364
2.364692972132656
-0.3050380188453255
0.05572796406434364
2.364692972132656
-0.3050380188453255
0.05572796406434364
2.364692972132656
-0.3050380188453255
0.05572796406434364
2.364692972132656
-0.30539892121321704
0.054739913701562934
2.3635041965963457
-0.30539892121321704
0.054739913701562934
2.3635041965963457
-0.30539892121321704
0.054739913701562934
2.3635041965963457
-0.30539892121321704
0.054739913701562934
2.3635041965963457
-0.305186562461947
0.054005268967996206
2.362453498712375
-0.305186562461947
0.054005268967996206
2.362453498712375
-0.305186562461947
0.054005268967996206
2.362453498712375
-0.305186562461947
0.054005268967996206
2.362453498712375
-0.30477182409474746
0.05380303899920493
2.3617162858770113
-0.30477182409474746
0.05380303899920493
2.3617162858770113
-0.30477182409474746
0.05380303899920493
2.3617162858770113
-0.30477182409474746
0.05380303899920493
2.3617162858770113
-0.30532288477162967
0.05398702059410429
2.360846525528602
-0.30532288477162967
0.05398702059410429
2.360846525528602
-0.30532288477162967
0.05398702059410429
2.360846525528602
-0.30532288477162967
0.05398702059410429
2.360846525528602
-0.3073127738871525
0.05413821993170312
2.3601240672406703
-0.3073127738871525
0.05413821993170312
2.3601240672406703
-0.3073127738871525
0.05413821993170312
2.3601240672406703
-0.3073127738871525
0.05413821993170312
2.3601240672406703
-0.3088467850190256
0.054779889600571174
2.3595662852697035
-0.3088467850190256
0.054779889600571174
2.3595662852697035
-0.3088467850190256
0.054779889600571174
2.3595662852697035
-0.3088467850190256
0.054779889600571174
2.3595662852697035
-0.3089453855504713
0.05563301048628979
2.359316123821017
-0.3089453855504713
0.05563301048628979
2.359316123821017
-0.3089453855504713
0.05563301048628979
2.359316123821017
-0.3089453855504713
0.05563301048628979
2.359316123821017
-0.30957750341281237
0.0561571228947151
2.3591696442049073
-0.30957750341281237
0.0561571228947151
2.3591696442049073
-0.30957750341281237
0.0561571228947151
2.3591696442049073
-0.30957750341281237
0.0561571228947151
2.3591696442049073
-0.30826495621877337
0.056120864343471
2.35886969350361
-0.30826495621877337
0.056120864343471
2.35886969350361
