-0.2700090738426713
-0.050412432384533995
2.800417841824163
-0.2700090738426713
-0.050412432384533995
2.800417841824163
-0.2700090738426713
-0.050412432384533995
2.800417841824163
-0.2700090738426713
-0.050412432384533995
2.800417841824163
-0.26967566355871236
-0.04939184349970883
2.801041569216521
-0.26967566355871236
-0.04939184349970883
2.801041569216521
-0.26967566355871236
-0.04939184349970883
2.801041569216521
-0.26967566355871236
-0.04939184349970883
2.801041569216521
-0.2698662905839341
-0.04830679940420408
2.8018912304669787
-0.2698662905839341
-0.04830679940420408
2.8018912304669787
-0.2698662905839341
-0.04830679940420408
2.8018912304669787
-0.2698662905839341
-0.04830679940420408
2.8018912304669787
-0.2705672230171407
-0.04781431152491811
2.8027123134247205
-0.2705672230171407
-0.04781431152491811
2.8027123134247205
-0.2705672230171407
-0.04781431152491811
2.8027123134247205
-0.2705672230171407
-0.04781431152491811
2.8027123134247205
-0.2697526149622809
-0.047502337934643195
2.8030354576059286
-0.2697526149622809
-0.047502337934643195
2.8030354576059286
-0.2697526149622809
-0.047502337934643195
2.8030354576059286
-0.2697526149622809
-0.047502337934643195
2.8030354576059286
-0.2683766817920859
-0.04742175541073565
2.802790832496021
-0.2683766817920859
-0.04742175541073565
2.802790832496021
-0.2683766817920859
-0.04742175541073565
2.802790832496021
-0.2683766817920859
-0.04742175541073565
2.802790832496021
-0.26634930432543386
-0.04758305835556498
2.8026844615655837
-0.26634930432543386
-0.04758305835556498
2.8026844615655837
-0.26634930432543386
-0.04758305835556498
2.8026844615655837
-0.26634930432543386
-0.04758305835556498
2.8026844615655837
-0.264426842504821
-0.04786809975844609
2.802718147413975
-0.264426842504821
-0.04786809975844609
2.802718147413975
-0.264426842504821
-0.04786809975844609
2.802718147413975
-0.264426842504821
-0.04786809975844609
2.802718147413975
-0.26501052974256895
-0.04818154586456053
2.8029957155542484
-0.26501052974256895
-0.04818154586456053
2.8029957155542484
-0.26501052974256895
-0.04818154586456053
2.8029957155542484
-0.26501052974256895
-0.04818154586456053
2.8029957155542484
-0.2655332794989521
-0.048743261795438766
2.8032049532339243
-0.2655332794989521
-0.048743261795438766
2.8032049532339243
-0.2655332794989521
-0.048743261795438766
2.8032049532339243
-0.2655332794989521
-0.048743261795438766
2.8032049532339243
-0.2645079659094719
-0.04892033185407051
2.8033455735397754
-0.2645079659094719
-0.04892033185407051
2.8033455735397754
-0.2645079659094719
-0.04892033185407051
2.8033455735397754
-0.2645079659094719
-0.04892033185407051
2.8033455735397754
-0.2627449483839563
-0.04898738636690962
2.8033528002284656
-0.2627449483839563
-0.04898738636690962
2.8033528002284656
-0.2627449483839563
-0.04898738636690962
2.8033528002284656
-0.2627449483839563
-0.04898738636690962
2.8033528002284656
-0.2611977522313869
-0.04928757750209393
2.803759916178032
-0.2611977522313869
-0.04928757750209393
2.803759916178032
-0.2611977522313869
-0.04928757750209393
2.803759916178032
-0.2611977522313869
-0.04928757750209393
2.803759916178032
-0.2602719280306623
-0.04960453798599963
2.8039206322934183
-0.2602719280306623
-0.04960453798599963
2.8039206322934183
-0.2602719280306623
-0.04960453798599963
2.8039206322934183
-0.2602719280306623
-0.04960453798599963
2.8039206322934183
-0.26025759243665203
-0.049708777836652944
2.804055249074171
-0.26025759243665203
-0.049708777836652944
2.804055249074171
-0.26025759243665203
-0.049708777836652944
2.804055249074171
-0.26025759243665203
-0.049708777836652944
2.804055249074171
-0.26056186036941786
-0.05011148797513186
2.804237070355519
-0.26056186036941786
-0.05011148797513186
2.804237070355519
-0.26056186036941786
-0.05011148797513186
2.804237070355519
-0.26056186036941786
-0.05011148797513186
2.804237070355519
-0.26155856564751945
-0.05014197758404741
2.8043667586516925
-0.26155856564751945
-0.05014197758404741
2.8043667586516925
-0.26155856564751945
-0.05014197758404741
2.8043667586516925
-0.26155856564751945
-0.05014197758404741
2.8043667586516925
-0.2623249047374241
-0.050043652944326465
2.804230912595662
-0.2623249047374241
-0.050043652944326465
2.804230912595662
-0.2623249047374241
-0.050043652944326465
2.804230912595662
-0.2623249047374241
-0.050043652944326465
2.804230912595662
-0.26234484747060544
-0.04992432132890973
2.8042156673025795
-0.26234484747060544
-0.04992432132890973
2.8042156673025795
-0.26234484747060544
-0.04992432132890973
2.8042156673025795
-0.26234484747060544
-0.04992432132890973
2.8042156673025795
-0.2623647919124667
-0.04980498998162056
2.8042004197129935
-0.2623647919124667
-0.04980498998162056
2.8042004197129935
-0.2623647919124667
-0.04980498998162056
2.8042004197129935
-0.2623647919124667
-0.04980498998162056
2.8042004197129935
-0.26255818721017404
-0.0500987229636696
2.8041227830710156
-0.26255818721017404
-0.0500987229636696
2.8041227830710156
-0.26255818721017404
-0.0500987229636696
2.8041227830710156
-0.26255818721017404
-0.0500987229636696
2.8041227830710156
-0.26311672085371224
-0.05054670597829151
2.8042966028083134
-0.26311672085371224
-0.05054670597829151
2.8042966028083134
-0.26311672085371224
-0.05054670597829151
2.8042966028083134
-0.26311672085371224
-0.05054670597829151
2.8042966028083134
-0.2632361991456919
-0.05056661217115335
2.804302312845981
-0.2632361991456919
-0.05056661217115335
2.804302312845981
-0.2632361991456919
-0.05056661217115335
2.804302312845981
-0.2632361991456919
-0.05056661217115335
2.804302312845981
-0.26290624613562563
-0.05029874561022474
2.804015682087762
-0.26290624613562563
-0.05029874561022474
2.804015682087762
-0.26290624613562563
-0.05029874561022474
2.804015682087762
-0.26290624613562563
-0.05029874561022474
2.804015682087762
-0.2627867692701979
-0.05027881911545413
2.8040099891885255
-0.2627867692701979
-0.05027881911545413
2.8040099891885255
-0.2627867692701979
-0.05027881911545413
2.8040099891885255
-0.2627867692701979
-0.05027881911545413
2.8040099891885255
-0.2632420116220295
-0.04981546938301224
2.804324314848059
-0.2632420116220295
-0.04981546938301224
2.804324314848059
-0.2632420116220295
-0.04981546938301224
2.804324314848059
-0.2632420116220295
-0.04981546938301224
2.804324314848059
-0.2640498682085339
-0.04942698545238224
2.804535891431356
-0.2640498682085339
-0.04942698545238224
2.804535891431356
-0.2640498682085339
-0.04942698545238224
2.804535891431356
-0.2640498682085339
-0.04942698545238224
2.804535891431356
-0.26418925602807214
-0.04932756551882798
2.8045261799748715
-0.26418925602807214
-0.04932756551882798
2.8045261799748715
-0.26418925602807214
-0.04932756551882798
2.8045261799748715
-0.26418925602807214
-0.04932756551882798
2.8045261799748715
-0.2632779834336871
-0.04880474326125005
2.80445509725668
-0.2632779834336871
-0.04880474326125005
2.80445509725668
-0.2632779834336871
-0.04880474326125005
2.80445509725668
-0.2632779834336871
-0.04880474326125005
2.80445509725668
-0.263391841851307
-0.04883995481476896
2.80434123883906
-0.263391841851307
-0.04883995481476896
2.80434123883906
-0.263391841851307
-0.04883995481476896
2.80434123883906
-0.263391841851307
-0.04883995481476896
2.80434123883906
-0.2634117829112411
-0.048720634240165435
2.804325918470669
-0.2634117829112411
-0.048720634240165435
2.804325918470669
-0.2634117829112411
-0.048720634240165435
2.804325918470669
-0.2634117829112411
-0.048720634240165435
2.804325918470669
-0.2634317256898041
-0.04860131394496131
2.804310595805802
-0.2634317256898041
-0.04860131394496131
2.804310595805802
-0.2634317256898041
-0.04860131394496131
2.804310595805802
-0.2634317256898041
-0.04860131394496131
2.804310595805802
-0.26357112957027173
-0.048501915355354724
2.8043008602500827
-0.26357112957027173
-0.048501915355354724
2.8043008602500827
-0.26357112957027173
-0.048501915355354724
2.8043008602500827
-0.26357112957027173
-0.048501915355354724
2.8043008602500827
-0.2646913127163819
-0.048588441178499045
2.8041765388359634
-0.2646913127163819
-0.048588441178499045
2.8041765388359634
-0.2646913127163819
-0.048588441178499045
2.8041765388359634
-0.2646913127163819
-0.048588441178499045
2.8041765388359634
-0.26570222924087605
-0.04851482288562099
2.8041706189631603
-0.26570222924087605
-0.04851482288562099
2.8041706189631603
-0.26570222924087605
-0.04851482288562099
2.8041706189631603
-0.26570222924087605
-0.04851482288562099
2.8041706189631603
-0.26572217679891275
-0.04839551913932923
2.8041551576220147
-0.26572217679891275
-0.04839551913932923
2.8041551576220147
-0.26572217679891275
-0.04839551913932923
2.8041551576220147
-0.26572217679891275
-0.04839551913932923
2.8041551576220147
-0.26637046888563765
-0.04822557555304697
2.8043910932498273
-0.26637046888563765
-0.04822557555304697
2.8043910932498273
-0.26637046888563765
-0.04822557555304697
2.8043910932498273
-0.26637046888563765
-0.04822557555304697
2.8043910932498273
-0.2680252001607957
-0.04810654133375682
2.8046163163532873
-0.2680252001607957
-0.04810654133375682
2.8046163163532873
-0.2680252001607957
-0.04810654133375682
2.8046163163532873
-0.2680252001607957
-0.04810654133375682
2.8046163163532873
-0.26921212284395074
-0.04776706261454909
2.8049425547926967
-0.26921212284395074
-0.04776706261454909
2.8049425547926967
-0.26921212284395074
-0.04776706261454909
2.8049425547926967
-0.26921212284395074
-0.04776706261454909
2.8049425547926967
-0.2701189088107931
-0.04751689946988931
2.8051734268040525
-0.2701189088107931
-0.04751689946988931
2.8051734268040525
-0.2701189088107931
-0.04751689946988931
2.8051734268040525
-0.2701189088107931
-0.04751689946988931
2.8051734268040525
-0.27276759562384684
-0.04737020552552627
2.8050328861668543
-0.27276759562384684
-0.04737020552552627
2.8050328861668543
-0.27276759562384684
-0.04737020552552627
2.8050328861668543
-0.27276759562384684
-0.04737020552552627
2.8050328861668543
-0.28029030111341824
-0.04577664850660576
2.8043142178785683
-0.28029030111341824
-0.04577664850660576
2.8043142178785683
-0.28029030111341824
-0.04577664850660576
2.8043142178785683
-0.28029030111341824
-0.04577664850660576
2.8043142178785683
-0.2942928680513395
-0.04216546758164708
2.80289590527709
-0.2942928680513395
-0.04216546758164708
2.80289590527709
-0.2942928680513395
-0.04216546758164708
2.80289590527709
-0.2942928680513395
-0.04216546758164708
2.80289590527709
-0.3137722511682162
-0.03752199192327253
2.8014422891502617
-0.3137722511682162
-0.03752199192327253
2.8014422891502617
-0.3137722511682162
-0.03752199192327253
2.8014422891502617
-0.3137722511682162
-0.03752199192327253
2.8014422891502617
-0.335917235832762
-0.03143366106201146
2.8002180669605297
-0.335917235832762
-0.03143366106201146
2.8002180669605297
-0.335917235832762
-0.03143366106201146
2.8002180669605297
-0.335917235832762
-0.03143366106201146
2.8002180669605297
-0.360302357554882
-0.02444851403902151
2.7984694557764724
-0.360302357554882
-0.02444851403902151
2.7984694557764724
-0.360302357554882
-0.02444851403902151
2.7984694557764724
-0.360302357554882
-0.02444851403902151
2.7984694557764724
-0.3891339123931186
-0.017894685457795774
2.7953277984801645
-0.3891339123931186
-0.017894685457795774
2.7953277984801645
-0.3891339123931186
-0.017894685457795774
2.7953277984801645
-0.3891339123931186
-0.017894685457795774
2.7953277984801645
-0.4253134028794508
-0.009973400681069734
2.791254851134159
-0.4253134028794508
-0.009973400681069734
2.791254851134159
-0.4253134028794508
-0.009973400681069734
2.791254851134159
-0.4253134028794508
-0.009973400681069734
2.791254851134159
-0.46972507170216643
-6.190493538747856E-4
2.7873213566873565
-0.46972507170216643
-6.190493538747856E-4
2.7873213566873565
-0.46972507170216643
-6.190493538747856E-4
2.7873213566873565
-0.46972507170216643
-6.190493538747856E-4
2.7873213566873565
-0.5227026659095879
0.00987725771188851
2.7839115129814327
-0.5227026659095879
0.00987725771188851
2.7839115129814327
-0.5227026659095879
0.00987725771188851
2.7839115129814327
-0.5227026659095879
0.00987725771188851
2.7839115129814327
-0.5792848687101418
0.0206071544187833
2.7802329879808196
-0.5792848687101418
0.0206071544187833
2.7802329879808196
-0.5792848687101418
0.0206071544187833
2.7802329879808196
-0.5792848687101418
0.0206071544187833
2.7802329879808196
-0.637821926685749
0.03120564675237011
2.7749506754031765
-0.637821926685749
0.03120564675237011
2.7749506754031765
-0.637821926685749
0.03120564675237011
2.7749506754031765
-0.637821926685749
0.03120564675237011
2.7749506754031765
-0.6935518895760395
0.0414615426341692
2.767562276289187
-0.6935518895760395
0.0414615426341692
2.767562276289187
-0.6935518895760395
0.0414615426341692
2.767562276289187
-0.6935518895760395
0.0414615426341692
2.767562276289187
-0.7408461192617385
0.05072743310345645
2.759569468975837
-0.7408461192617385
0.05072743310345645
2.759569468975837
-0.7408461192617385
0.05072743310345645
2.759569468975837
-0.7408461192617385
0.05072743310345645
2.759569468975837
-0.7777742034642136
0.057886722524934126
2.752813968837804
-0.7777742034642136
0.057886722524934126
2.752813968837804
-0.7777742034642136
0.057886722524934126
2.752813968837804
-0.7777742034642136
0.057886722524934126
2.752813968837804
-0.8052172908333873
0.06405253733648714
2.746693075704848
-0.8052172908333873
0.06405253733648714
2.746693075704848
-0.8052172908333873
0.06405253733648714
2.746693075704848
-0.8052172908333873
0.06405253733648714
2.746693075704848
-0.8291836901217158
0.06851621980240645
2.7409216689679763
-0.8291836901217158
0.06851621980240645
2.7409216689679763
-0.8291836901217158
0.06851621980240645
2.7409216689679763
-0.8291836901217158
0.06851621980240645
2.7409216689679763
-0.8501405728599887
0.07274436292616121
2.736498516655778
-0.8501405728599887
0.07274436292616121
2.736498516655778
-0.8501405728599887
0.07274436292616121
2.736498516655778
-0.8501405728599887
0.07274436292616121
2.736498516655778
-0.8688789602504041
0.07639273147186806
2.7323348566547883
-0.8688789602504041
0.07639273147186806
2.7323348566547883
-0.8688789602504041
0.07639273147186806
2.7323348566547883
-0.8688789602504041
0.07639273147186806
2.7323348566547883
-0.8865122349139873
0.08108439927938373
2.72852213828653
-0.8865122349139873
0.08108439927938373
2.72852213828653
-0.8865122349139873
0.08108439927938373
2.72852213828653
-0.8865122349139873
0.08108439927938373
2.72852213828653
-0.9016859092157373
0.0862838819739148
2.725347289488005
-0.9016859092157373
0.0862838819739148
2.725347289488005
-0.9016859092157373
0.0862838819739148
2.725347289488005
-0.9016859092157373
0.0862838819739148
2.725347289488005
-0.9119951060532214
0.09146419334839752
2.7227857056122184
-0.9119951060532214
0.09146419334839752
2.7227857056122184
-0.9119951060532214
0.09146419334839752
2.7227857056122184
-0.9119951060532214
0.09146419334839752
2.7227857056122184
-0.9218790323690147
0.09620400797559113
2.7205866656210977
-0.9218790323690147
0.09620400797559113
2.7205866656210977
-0.9218790323690147
0.09620400797559113
2.7205866656210977
-0.9218790323690147
0.09620400797559113
2.7205866656210977
-0.9314703184526422
0.10087640669081352
2.7186760325482666
-0.9314703184526422
0.10087640669081352
2.7186760325482666
-0.9314703184526422
0.10087640669081352
2.7186760325482666
-0.9314703184526422
0.10087640669081352
2.7186760325482666
-0.9395591142014031
0.10474610618019557
2.7167814709518106
-0.9395591142014031
0.10474610618019557
2.7167814709518106
-0.9395591142014031
0.10474610618019557
2.7167814709518106
-0.9395591142014031
0.10474610618019557
2.7167814709518106
-0.9478492784338087
0.10894636539668358
2.714798807953103
-0.9478492784338087
0.10894636539668358
2.714798807953103
-0.9478492784338087
0.10894636539668358
2.714798807953103
-0.9478492784338087
0.10894636539668358
2.714798807953103
-0.9556782331853129
0.11284989731710274
2.713120222093699
-0.9556782331853129
0.11284989731710274
2.713120222093699
-0.9556782331853129
0.11284989731710274
2.713120222093699
-0.9556782331853129
0.11284989731710274
2.713120222093699
-0.9607162817464941
0.11611625101171588
2.7119514428871585
-0.9607162817464941
0.11611625101171588
2.7119514428871585
-0.9607162817464941
0.11611625101171588
2.7119514428871585
-0.9607162817464941
0.11611625101171588
2.7119514428871585
-0.9642283710743558
0.11887933800127658
2.711133722923546
-0.9642283710743558
0.11887933800127658
2.711133722923546
-0.9642283710743558
0.11887933800127658
2.711133722923546
-0.9642283710743558
0.11887933800127658
2.711133722923546
-0.9673853471469778
0.12109764287514041
2.7105339450151544
-0.9673853471469778
0.12109764287514041
2.7105339450151544
-0.9673853471469778
0.12109764287514041
2.7105339450151544
-0.9673853471469778
0.12109764287514041
2.7105339450151544
-0.9699087169814208
0.12351471241554052
2.710057208851221
-0.9699087169814208
0.12351471241554052
2.710057208851221
-0.9699087169814208
0.12351471241554052
2.710057208851221
-0.9699087169814208
0.12351471241554052
2.710057208851221
-0.9719097590860697
0.12514971683374135
2.7098084070180346
-0.9719097590860697
0.12514971683374135
2.7098084070180346
-0.9719097590860697
0.12514971683374135
2.7098084070180346
-0.9719097590860697
0.12514971683374135
2.7098084070180346
-0.9732550793183475
0.12592566041431164
2.7098432567101387
-0.9732550793183475
0.12592566041431164
2.7098432567101387
-0.9732550793183475
0.12592566041431164
2.7098432567101387
-0.9732550793183475
0.12592566041431164
2.7098432567101387
-0.9742941062307972
0.12636907483742452
2.709992740603929
-0.9742941062307972
0.12636907483742452
2.709992740603929
-0.9742941062307972
0.12636907483742452
2.709992740603929
-0.9742941062307972
0.12636907483742452
2.709992740603929
-0.9758632148283786
0.12765045181137394
2.710010918775658
-0.9758632148283786
0.12765045181137394
2.710010918775658
-0.9758632148283786
0.12765045181137394
2.710010918775658
-0.9758632148283786
0.12765045181137394
2.710010918775658
-0.9791146940097658
0.12857402279752309
2.710474059833334
-0.9791146940097658
0.12857402279752309
2.710474059833334
-0.9791146940097658
0.12857402279752309
2.710474059833334
-0.9791146940097658
0.12857402279752309
2.710474059833334
-0.9793368906410559
0.1288078300977255
2.7104420200199018
-0.9793368906410559
0.1288078300977255
2.7104420200199018
-0.9793368906410559
0.1288078300977255
2.7104420200199018
-0.9793368906410559
0.1288078300977255
2.7104420200199018
-0.9789091509552932
0.12850175139296136
2.7099846738707907
-0.9789091509552932
0.12850175139296136
2.7099846738707907
-0.9789091509552932
0.12850175139296136
2.7099846738707907
-0.9789091509552932
0.12850175139296136
2.7099846738707907
-0.9804506076711459
0.12839499040833663
2.710037071508763
-0.9804506076711459
0.12839499040833663
2.710037071508763
-0.9804506076711459
0.12839499040833663
2.710037071508763
-0.9804506076711459
0.12839499040833663
2.710037071508763
-0.9827602087579996
0.1273231788474955
2.709650975629822
-0.9827602087579996
0.1273231788474955
2.709650975629822
-0.9827602087579996
0.1273231788474955
2.709650975629822
-0.9827602087579996
0.1273231788474955
2.709650975629822
-0.9848461592803075
0.1267579416576302
2.7092854335046415
-0.9848461592803075
0.1267579416576302
2.7092854335046415
-0.9848461592803075
0.1267579416576302
2.7092854335046415
-0.9848461592803075
0.1267579416576302
2.7092854335046415
-0.9850945635049742
0.12608302408482924
2.709193941015842
-0.9850945635049742
0.12608302408482924
2.709193941015842
-0.9850945635049742
0.12608302408482924
2.709193941015842
-0.9850945635049742
0.12608302408482924
2.709193941015842
-0.9852811892771328
0.12554071997544472
2.709607142626789
-0.9852811892771328
0.12554071997544472
2.709607142626789
-0.9852811892771328
0.12554071997544472
2.709607142626789
-0.9852811892771328
0.12554071997544472
2.709607142626789
-0.9860316147328392
0.12515607088659386
2.7096782231892895
-0.9860316147328392
0.12515607088659386
2.7096782231892895
-0.9860316147328392
0.12515607088659386
2.7096782231892895
-0.9860316147328392
0.12515607088659386
2.7096782231892895
-0.9870729726318528
0.12520146099402518
2.7093325652765183
-0.9870729726318528
0.12520146099402518
2.7093325652765183
-0.9870729726318528
0.12520146099402518
2.7093325652765183
-0.9870729726318528
0.12520146099402518
2.7093325652765183
-0.9882029642789384
0.12580169964764185
2.7094990436830213
-0.9882029642789384
0.12580169964764185
2.7094990436830213
-0.9882029642789384
0.12580169964764185
2.7094990436830213
-0.9882029642789384
0.12580169964764185
2.7094990436830213
-0.9872019816539775
0.12641871629829987
2.7097574900230517
-0.9872019816539775
0.12641871629829987
2.7097574900230517
-0.9872019816539775
0.12641871629829987
2.7097574900230517
-0.9872019816539775
0.12641871629829987
2.7097574900230517
-0.9855796409377133
0.12705470677519795
2.7101322750659254
-0.9855796409377133
0.12705470677519795
2.7101322750659254
-0.9855796409377133
0.12705470677519795
2.7101322750659254
-0.9855796409377133
0.12705470677519795
2.7101322750659254
-0.9862557619559418
0.1275288693399439
2.710751759249151
-0.9862557619559418
0.1275288693399439
2.710751759249151
-0.9862557619559418
0.1275288693399439
2.710751759249151
-0.9862557619559418
0.1275288693399439
2.710751759249151
-0.9881494181817276
0.12830409027272
2.710958253667694
-0.9881494181817276
0.12830409027272
2.710958253667694
-0.9881494181817276
0.12830409027272
2.710958253667694
-0.9881494181817276
0.12830409027272
2.710958253667694
-0.9886474356667326
0.12796687124291356
2.710776160100597
-0.9886474356667326
0.12796687124291356
2.710776160100597
-0.9886474356667326
0.12796687124291356
2.710776160100597
-0.9886474356667326
0.12796687124291356
2.710776160100597
-0.9885689388415823
0.12708483691128952
2.710712959514864
-0.9885689388415823
0.12708483691128952
2.710712959514864
-0.9885689388415823
0.12708483691128952
2.710712959514864
-0.9885689388415823
0.12708483691128952
2.710712959514864
-0.9898802545701334
0.12624496272912897
2.7109348528612274
-0.9898802545701334
0.12624496272912897
2.7109348528612274
-0.9898802545701334
0.12624496272912897
2.7109348528612274
-0.9898802545701334
0.12624496272912897
2.7109348528612274
-0.990492431888564
0.12555494724776928
2.7112086130811686
-0.990492431888564
0.12555494724776928
2.7112086130811686
-0.990492431888564
0.12555494724776928
2.7112086130811686
-0.990492431888564
0.12555494724776928
2.7112086130811686
-0.9911772903985231
0.1256891850728805
2.7114402220351854
-0.9911772903985231
0.1256891850728805
2.7114402220351854
-0.9911772903985231
0.1256891850728805
2.7114402220351854
-0.9911772903985231
0.1256891850728805
2.7114402220351854
-0.9920339409128262
0.12544935950299851
2.7112639317032525
-0.9920339409128262
0.12544935950299851
2.7112639317032525
-0.9920339409128262
0.12544935950299851
2.7112639317032525
-0.9920339409128262
0.12544935950299851
2.7112639317032525
-0.9929159386085551
0.12514302034277708
2.7112836351148175
-0.9929159386085551
0.12514302034277708
2.7112836351148175
-0.9929159386085551
0.12514302034277708
2.7112836351148175
-0.9929159386085551
0.12514302034277708
2.7112836351148175
-0.9927111698235791
0.12508373678766607
2.711630931401786
-0.9927111698235791
0.12508373678766607
2.711630931401786
-0.9927111698235791
0.12508373678766607
2.711630931401786
-0.9927111698235791
0.12508373678766607
2.711630931401786
-0.992634528122647
0.12523044285947102
2.7124029418585223
-0.992634528122647
0.12523044285947102
2.7124029418585223
-0.992634528122647
0.12523044285947102
2.7124029418585223
-0.992634528122647
0.12523044285947102
2.7124029418585223
-0.9913125918370237
0.12495638335349374
2.7128083567581043
-0.9913125918370237
0.12495638335349374
2.7128083567581043
-0.9913125918370237
0.12495638335349374
2.7128083567581043
-0.9913125918370237
0.12495638335349374
2.7128083567581043
-0.9902921970166174
0.12495590727134576
2.7129907934142112
-0.9902921970166174
0.12495590727134576
2.7129907934142112
-0.9902921970166174
0.12495590727134576
2.7129907934142112
-0.9902921970166174
0.12495590727134576
2.7129907934142112
-0.9895169376850834
0.12542094539497595
2.713559781861202
-0.9895169376850834
0.12542094539497595
2.713559781861202
-0.9895169376850834
0.12542094539497595
2.713559781861202
-0.9895169376850834
0.12542094539497595
2.713559781861202
-0.9885911663884956
0.12529253214642735
2.714374971333601
-0.9885911663884956
0.12529253214642735
2.714374971333601
-0.9885911663884956
0.12529253214642735
2.714374971333601
-0.9885911663884956
0.12529253214642735
2.714374971333601
-0.9866206685000334
0.12524218982655744
2.716013702598417
-0.9866206685000334
0.12524218982655744
2.716013702598417
-0.9866206685000334
0.12524218982655744
2.716013702598417
-0.9866206685000334
0.12524218982655744
2.716013702598417
-0.9825941987845358
0.12590711944675412
2.7180632392152524
-0.9825941987845358
0.12590711944675412
2.7180632392152524
-0.9825941987845358
0.12590711944675412
2.7180632392152524
-0.9825941987845358
0.12590711944675412
2.7180632392152524
-0.9744616057206056
0.1280078338325891
2.720888202694423
-0.9744616057206056
0.1280078338325891
2.720888202694423
-0.9744616057206056
0.1280078338325891
2.720888202694423
-0.9744616057206056
0.1280078338325891
2.720888202694423
-0.9571291586562287
0.13130438634589767
2.725374077669343
-0.9571291586562287
0.13130438634589767
2.725374077669343
-0.9571291586562287
0.13130438634589767
2.725374077669343
-0.9571291586562287
0.13130438634589767
2.725374077669343
-0.937693628980406
0.1330010163305709
2.7303570765525196
-0.937693628980406
0.1330010163305709
2.7303570765525196
-0.937693628980406
0.1330010163305709
2.7303570765525196
-0.937693628980406
0.1330010163305709
2.7303570765525196
-0.9189199140207125
0.1346162896531051
2.737010964840647
-0.9189199140207125
0.1346162896531051
2.737010964840647
-0.9189199140207125
0.1346162896531051
2.737010964840647
-0.9189199140207125
0.1346162896531051
2.737010964840647
-0.8984305754962967
0.13738627586026525
2.744558957506027
-0.8984305754962967
0.13738627586026525
2.744558957506027
-0.8984305754962967
0.13738627586026525
2.744558957506027
-0.8984305754962967
0.13738627586026525
2.744558957506027
-0.8729366326067054
0.13964641705376374
2.7528158600076744
-0.8729366326067054
0.13964641705376374
2.7528158600076744
-0.8729366326067054
0.13964641705376374
2.7528158600076744
-0.8729366326067054
0.13964641705376374
2.7528158600076744
-0.8436899034385842
0.13970093938573058
2.759206595788927
-0.8436899034385842
0.13970093938573058
2.759206595788927
-0.8436899034385842
0.13970093938573058
2.759206595788927
-0.8436899034385842
0.13970093938573058
2.759206595788927
-0.8136525011256643
0.1357331006638027
2.76340165067009
-0.8136525011256643
0.1357331006638027
2.76340165067009
-0.8136525011256643
0.1357331006638027
2.76340165067009
-0.8136525011256643
0.1357331006638027
2.76340165067009
-0.7781704716241186
0.1328582219805064
2.767166518351678
-0.7781704716241186
0.1328582219805064
2.767166518351678
-0.7781704716241186
0.1328582219805064
2.767166518351678
-0.7781704716241186
0.1328582219805064
2.767166518351678
-0.7373001759300238
0.1304618396802816
2.772667702099053
-0.7373001759300238
0.1304618396802816
2.772667702099053
-0.7373001759300238
0.1304618396802816
2.772667702099053
-0.7373001759300238
0.1304618396802816
2.772667702099053
-0.6980414896295506
0.1282573370725558
2.7811235502414546
-0.6980414896295506
0.1282573370725558
2.7811235502414546
-0.6980414896295506
0.1282573370725558
2.7811235502414546
-0.6980414896295506
0.1282573370725558
2.7811235502414546
-0.6616593546069008
0.12448023987585277
2.7895997548603555
-0.6616593546069008
0.12448023987585277
2.7895997548603555
-0.6616593546069008
0.12448023987585277
2.7895997548603555
-0.6616593546069008
0.12448023987585277
2.7895997548603555
-0.6276141548587857
0.11929249156770776
2.7964833699923637
-0.6276141548587857
0.11929249156770776
2.7964833699923637
-0.6276141548587857
0.11929249156770776
2.7964833699923637
-0.6276141548587857
0.11929249156770776
2.7964833699923637
-0.592986857023804
0.11300140782987028
2.801894407373021
-0.592986857023804
0.11300140782987028
2.801894407373021
-0.592986857023804
0.11300140782987028
2.801894407373021
-0.592986857023804
0.11300140782987028
2.801894407373021
-0.556984228196226
0.10656375351452929
2.8080118740625024
-0.556984228196226
0.10656375351452929
2.8080118740625024
-0.556984228196226
0.10656375351452929
2.8080118740625024
-0.556984228196226
0.10656375351452929
2.8080118740625024
-0.5212183153762585
0.09988511225291621
2.813665726403462
-0.5212183153762585
0.09988511225291621
2.813665726403462
-0.5212183153762585
0.09988511225291621
2.813665726403462
-0.5212183153762585
0.09988511225291621
2.813665726403462
-0.49039697086241923
0.09505901415719971
2.8176234636586908
-0.49039697086241923
0.09505901415719971
2.8176234636586908
-0.49039697086241923
0.09505901415719971
2.8176234636586908
-0.49039697086241923
0.09505901415719971
2.8176234636586908
-0.46009009736852663
0.0901477159385896
2.8200440868410013
-0.46009009736852663
0.0901477159385896
2.8200440868410013
-0.46009009736852663
0.0901477159385896
2.8200440868410013
-0.46009009736852663
0.0901477159385896
2.8200440868410013
-0.43130398668308395
0.08559746817021344
2.8216496186176183
-0.43130398668308395
0.08559746817021344
2.8216496186176183
-0.43130398668308395
0.08559746817021344
2.8216496186176183
-0.43130398668308395
0.08559746817021344
2.8216496186176183
-0.4054094811660902
0.0807592579390479
2.8226361027079045
-0.4054094811660902
0.0807592579390479
2.8226361027079045
-0.4054094811660902
0.0807592579390479
2.8226361027079045
-0.4054094811660902
0.0807592579390479
2.8226361027079045
-0.3805878572014331
0.07680040739583094
2.823715949407379
-0.3805878572014331
0.07680040739583094
2.823715949407379
-0.3805878572014331
0.07680040739583094
2.823715949407379
-0.3805878572014331
0.07680040739583094
2.823715949407379
-0.35805667607923986
0.07378800571875359
2.824180787652564
-0.35805667607923986
0.07378800571875359
2.824180787652564
-0.35805667607923986
0.07378800571875359
2.824180787652564
-0.35805667607923986
0.07378800571875359
2.824180787652564
-0.3407353998863186
0.0708394273740398
2.824450803201612
-0.3407353998863186
0.0708394273740398
2.824450803201612
-0.3407353998863186
0.0708394273740398
2.824450803201612
-0.3407353998863186
0.0708394273740398
2.824450803201612
-0.3288274208397617
0.06822149342808928
2.825639324110562
-0.3288274208397617
0.06822149342808928
2.825639324110562
-0.3288274208397617
0.06822149342808928
2.825639324110562
-0.3288274208397617
0.06822149342808928
2.825639324110562
-0.3216802686031095
0.06584369378199051
2.8274795968812936
-0.3216802686031095
0.06584369378199051
2.8274795968812936
-0.3216802686031095
0.06584369378199051
2.8274795968812936
-0.3216802686031095
0.06584369378199051
2.8274795968812936
-0.3188415406823223
0.06424694955031869
2.8289042114682568
-0.3188415406823223
0.06424694955031869
2.8289042114682568
-0.3188415406823223
0.06424694955031869
2.8289042114682568
-0.3188415406823223
0.06424694955031869
2.8289042114682568
-0.31801383161433494
0.06245978760783709
2.8295001689563666
-0.31801383161433494
0.06245978760783709
2.8295001689563666
-0.31801383161433494
0.06245978760783709
2.8295001689563666
-0.31801383161433494
0.06245978760783709
2.8295001689563666
-0.31451180738174045
0.06083965538471537
2.829332697108341
-0.31451180738174045
0.06083965538471537
2.829332697108341
-0.31451180738174045
0.06083965538471537
2.829332697108341
-0.31451180738174045
0.06083965538471537
2.829332697108341
-0.3117220256725082
0.0592005671342285
2.829752018025359
-0.3117220256725082
0.0592005671342285
2.829752018025359
-0.3117220256725082
0.0592005671342285
2.829752018025359
-0.3117220256725082
0.0592005671342285
2.829752018025359
-0.3140916165362672
0.05707085583285179
2.830469274708014
-0.3140916165362672
0.05707085583285179
2.830469274708014
-0.3140916165362672
0.05707085583285179
2.830469274708014
-0.3140916165362672
0.05707085583285179
2.830469274708014
-0.31631792303962186
0.0561123088971293
2.830501302960625
-0.31631792303962186
0.0561123088971293
2.830501302960625
-0.31631792303962186
0.0561123088971293
2.830501302960625
-0.31631792303962186
0.0561123088971293
2.830501302960625
-0.315168074503835
0.05604641951664882
2.8305820833427573
-0.315168074503835
0.05604641951664882
2.8305820833427573
-0.315168074503835
0.05604641951664882
2.8305820833427573
-0.315168074503835
0.05604641951664882
2.8305820833427573
-0.3143721763243828
0.05653733223791659
2.8305456924189283
-0.3143721763243828
0.05653733223791659
2.8305456924189283
-0.3143721763243828
0.05653733223791659
2.8305456924189283
-0.3143721763243828
0.05653733223791659
2.8305456924189283
-0.31698606493586967
0.05726410036652725
2.8305423461412915
-0.31698606493586967
0.05726410036652725
2.8305423461412915
-0.31698606493586967
0.05726410036652725
2.8305423461412915
-0.31698606493586967
0.05726410036652725
2.8305423461412915
-0.32284621907609834
0.05884035202733568
2.8310839018387384
-0.32284621907609834
0.05884035202733568
2.8310839018387384
-0.32284621907609834
0.05884035202733568
2.8310839018387384
-0.32284621907609834
0.05884035202733568
2.8310839018387384
-0.3354196428619137
0.06186871869767426
2.8321163487892225
-0.3354196428619137
0.06186871869767426
2.8321163487892225
-0.3354196428619137
0.06186871869767426
2.8321163487892225
-0.3354196428619137
0.06186871869767426
2.8321163487892225
-0.3538236093538686
0.06464150188179514
2.833675423560247
-0.3538236093538686
0.06464150188179514
2.833675423560247
-0.3538236093538686
0.06464150188179514
2.833675423560247
-0.3538236093538686
0.06464150188179514
2.833675423560247
-0.3782055432919861
0.06874548619733432
2.834014085215288
-0.3782055432919861
0.06874548619733432
2.834014085215288
-0.3782055432919861
0.06874548619733432
2.834014085215288
-0.3782055432919861
0.06874548619733432
2.834014085215288
-0.40786614845097036
0.07369538912248894
2.8334315106990293
-0.40786614845097036
0.07369538912248894
2.8334315106990293
-0.40786614845097036
0.07369538912248894
2.8334315106990293
-0.40786614845097036
0.07369538912248894
2.8334315106990293
-0.44101091952703153
0.07877773997294688
2.8320762697715436
-0.44101091952703153
0.07877773997294688
2.8320762697715436
-0.44101091952703153
0.07877773997294688
2.8320762697715436
-0.44101091952703153
0.07877773997294688
2.8320762697715436
-0.47785239413139147
0.08406768111147996
2.827831983641181
-0.47785239413139147
0.08406768111147996
2.827831983641181
-0.47785239413139147
0.08406768111147996
2.827831983641181
-0.47785239413139147
0.08406768111147996
2.827831983641181
-0.5192996681266702
0.08959376992145988
2.821897928364652
-0.5192996681266702
0.08959376992145988
2.821897928364652
-0.5192996681266702
0.08959376992145988
2.821897928364652
-0.5192996681266702
0.08959376992145988
2.821897928364652
-0.5670540259050358
0.09303029406389146
2.816832719195897
-0.5670540259050358
0.09303029406389146
2.816832719195897
-0.5670540259050358
0.09303029406389146
2.816832719195897
-0.5670540259050358
0.09303029406389146
2.816832719195897
-0.612309519401206
0.09436767126114136
2.812037562326125
-0.612309519401206
0.09436767126114136
2.812037562326125
-0.612309519401206
0.09436767126114136
2.812037562326125
-0.612309519401206
0.09436767126114136
2.812037562326125
-0.6507095429400693
0.0955212015423092
2.8061666538234777
-0.6507095429400693
0.0955212015423092
2.8061666538234777
-0.6507095429400693
0.0955212015423092
2.8061666538234777
-0.6507095429400693
0.0955212015423092
2.8061666538234777
-0.6861631613698921
0.09595929381129324
2.7996063270846476
-0.6861631613698921
0.09595929381129324
2.7996063270846476
-0.6861631613698921
0.09595929381129324
2.7996063270846476
-0.6861631613698921
0.09595929381129324
2.7996063270846476
-0.7288713688456872
0.09818667916030878
2.792777055433831
-0.7288713688456872
0.09818667916030878
2.792777055433831
-0.7288713688456872
0.09818667916030878
2.792777055433831
-0.7288713688456872
0.09818667916030878
2.792777055433831
-0.7756469004131399
0.101769441106716
2.7869221052912
-0.7756469004131399
0.101769441106716
2.7869221052912
-0.7756469004131399
0.101769441106716
2.7869221052912
-0.7756469004131399
0.101769441106716
2.7869221052912
-0.813262711598411
0.10507803828399385
2.780317325480629
-0.813262711598411
0.10507803828399385
2.780317325480629
-0.813262711598411
0.10507803828399385
2.780317325480629
-0.813262711598411
0.10507803828399385
2.780317325480629
-0.8337104027030139
0.10849605260519207
2.772838770142027
-0.8337104027030139
0.10849605260519207
2.772838770142027
-0.8337104027030139
0.10849605260519207
2.772838770142027
-0.8337104027030139
0.10849605260519207
2.772838770142027
-0.84761926842413
0.11168818192686868
2.7656488121821785
-0.84761926842413
0.11168818192686868
2.7656488121821785
-0.84761926842413
0.11168818192686868
2.7656488121821785
-0.84761926842413
0.11168818192686868
2.7656488121821785
-0.8667982786990495
0.11562549381018115
2.7603785302715242
-0.8667982786990495
0.11562549381018115
2.7603785302715242
-0.8667982786990495
0.11562549381018115
2.7603785302715242
-0.8667982786990495
0.11562549381018115
2.7603785302715242
-0.8886941303483001
0.12117637643435021
2.7566421773678265
-0.8886941303483001
0.12117637643435021
2.7566421773678265
-0.8886941303483001
0.12117637643435021
2.7566421773678265
-0.8886941303483001
0.12117637643435021
2.7566421773678265
-0.9075169624863717
0.12699481373738802
2.752650710125785
-0.9075169624863717
0.12699481373738802
2.752650710125785
-0.9075169624863717
0.12699481373738802
2.752650710125785
-0.9075169624863717
0.12699481373738802
2.752650710125785
-0.9200704347680961
0.1331171177311505
2.748785328602122
-0.9200704347680961
0.1331171177311505
2.748785328602122
-0.9200704347680961
0.1331171177311505
2.748785328602122
-0.9200704347680961
0.1331171177311505
2.748785328602122
-0.9279938635853598
0.13861217803359693
2.745239876448276
-0.9279938635853598
0.13861217803359693
2.745239876448276
-0.9279938635853598
0.13861217803359693
2.745239876448276
-0.9279938635853598
0.13861217803359693
2.745239876448276
-0.9360202819212937
0.1428966753027422
2.742624147721294
-0.9360202819212937
0.1428966753027422
2.742624147721294
-0.9360202819212937
0.1428966753027422
2.742624147721294
-0.9360202819212937
0.1428966753027422
2.742624147721294
-0.9444221162993057
0.14690938109042337
2.740473990660918
-0.9444221162993057
0.14690938109042337
2.740473990660918
-0.9444221162993057
0.14690938109042337
2.740473990660918
-0.9444221162993057
0.14690938109042337
2.740473990660918
-0.9520079879331408
0.15056461837498486
2.7401487441975885
-0.9520079879331408
0.15056461837498486
2.7401487441975885
-0.9520079879331408
0.15056461837498486
2.7401487441975885
-0.9520079879331408
0.15056461837498486
2.7401487441975885
-0.9556760563298632
0.152899073507469
2.7400635770141673
-0.9556760563298632
0.152899073507469
2.7400635770141673
-0.9556760563298632
0.152899073507469
2.7400635770141673
-0.9556760563298632
0.152899073507469
2.7400635770141673
-0.9561327632474259
0.1543149914102165
2.7393742271370236
-0.9561327632474259
0.1543149914102165
2.7393742271370236
-0.9561327632474259
0.1543149914102165
2.7393742271370236
-0.9561327632474259
0.1543149914102165
2.7393742271370236
-0.9574013429288921
0.155120564702221
2.7388556085202413
-0.9574013429288921
0.155120564702221
2.7388556085202413
-0.9574013429288921
0.155120564702221
2.7388556085202413
-0.9574013429288921
0.155120564702221
2.7388556085202413
-0.9592775701319436
0.15630919782653702
2.7387116344792335
-0.9592775701319436
0.15630919782653702
2.7387116344792335
-0.9592775701319436
0.15630919782653702
2.7387116344792335
-0.9592775701319436
0.15630919782653702
2.7387116344792335
-0.961591967995232
0.15717598901108645
2.7392349044018593
-0.961591967995232
0.15717598901108645
2.7392349044018593
-0.961591967995232
0.15717598901108645
2.7392349044018593
-0.961591967995232
0.15717598901108645
2.7392349044018593
-0.96361109400718
0.15816941445705948
2.7395836334860837
-0.96361109400718
0.15816941445705948
2.7395836334860837
-0.96361109400718
0.15816941445705948
2.7395836334860837
-0.96361109400718
0.15816941445705948
2.7395836334860837
-0.9661945086339064
0.15865711852238729
2.7399598370475773
-0.9661945086339064
0.15865711852238729
2.7399598370475773
-0.9661945086339064
0.15865711852238729
2.7399598370475773
-0.9661945086339064
0.15865711852238729
2.7399598370475773
-0.9688377716834476
0.15784358781486196
2.739766632046991
-0.9688377716834476
0.15784358781486196
2.739766632046991
-0.9688377716834476
0.15784358781486196
2.739766632046991
-0.9688377716834476
0.15784358781486196
2.739766632046991
-0.9706861218250009
0.15662498162345542
2.7393893994828047
-0.9706861218250009
0.15662498162345542
2.7393893994828047
-0.9706861218250009
0.15662498162345542
2.7393893994828047
-0.9706861218250009
0.15662498162345542
2.7393893994828047
-0.9749744901122659
0.15676977097705425
2.7399191080878174
-0.9749744901122659
0.15676977097705425
2.7399191080878174
-0.9749744901122659
0.15676977097705425
2.7399191080878174
-0.9749744901122659
0.15676977097705425
2.7399191080878174
-0.9786762860154989
0.15770357517735065
2.74069961664719
-0.9786762860154989
0.15770357517735065
2.74069961664719
-0.9786762860154989
0.15770357517735065
2.74069961664719
-0.9786762860154989
0.15770357517735065
2.74069961664719
-0.981946944594521
0.15845414828931764
2.7415052996458775
-0.981946944594521
0.15845414828931764
2.7415052996458775
-0.981946944594521
0.15845414828931764
2.7415052996458775
-0.981946944594521
0.15845414828931764
2.7415052996458775
-0.9843324973696915
0.15792802773299547
2.741760580627093
-0.9843324973696915
0.15792802773299547
2.741760580627093
-0.9843324973696915
0.15792802773299547
2.741760580627093
-0.9843324973696915
0.15792802773299547
2.741760580627093
-0.986644582999943
0.16043623544266689
2.742920844603007
-0.986644582999943
0.16043623544266689
2.742920844603007
-0.986644582999943
0.16043623544266689
2.742920844603007
-0.986644582999943
0.16043623544266689
2.742920844603007
-0.9902667475346633
0.16287306713480912
2.7442611031092876
-0.9902667475346633
0.16287306713480912
2.7442611031092876
-0.9902667475346633
0.16287306713480912
2.7442611031092876
-0.9902667475346633
0.16287306713480912
2.7442611031092876
-0.9923122237951809
0.1639803551525241
2.744530841778602
-0.9923122237951809
0.1639803551525241
2.744530841778602
-0.9923122237951809
0.1639803551525241
2.744530841778602
-0.9923122237951809
0.1639803551525241
2.744530841778602
-0.9929487990809464
0.1654762520664463
2.7445689660928347
-0.9929487990809464
0.1654762520664463
2.7445689660928347
-0.9929487990809464
0.1654762520664463
2.7445689660928347
-0.9929487990809464
0.1654762520664463
2.7445689660928347
-0.9934790396730963
0.16688424752639297
2.744961882863672
-0.9934790396730963
0.16688424752639297
2.744961882863672
-0.9934790396730963
0.16688424752639297
2.744961882863672
-0.9934790396730963
0.16688424752639297
2.744961882863672
-0.9958025926668674
0.1681145072180134
2.7455207983101917
-0.9958025926668674
0.1681145072180134
2.7455207983101917
-0.9958025926668674
0.1681145072180134
2.7455207983101917
-0.9958025926668674
0.1681145072180134
2.7455207983101917
-0.9959105294391778
0.1681474157631416
2.745628735082502
-0.9959105294391778
0.1681474157631416
2.745628735082502
-0.9959105294391778
0.1681474157631416
2.745628735082502
-0.9959105294391778
0.1681474157631416
2.745628735082502
-0.9948473578032282
0.16790581550310735
2.7451138752552113
-0.9948473578032282
0.16790581550310735
2.7451138752552113
-0.9948473578032282
0.16790581550310735
2.7451138752552113
-0.9948473578032282
0.16790581550310735
2.7451138752552113
-0.9952062949066959
0.1688389548736238
2.7450948439055995
-0.9952062949066959
0.1688389548736238
2.7450948439055995
-0.9975013538160868
0.16946641430221757
2.7458462356341853
-0.9975013538160868
0.16946641430221757
2.7458462356341853
-0.9975013538160868
0.16946641430221757
2.7458462356341853
-0.9975013538160868
0.16946641430221757
2.7458462356341853
-0.9982605271340548
0.1690420747884738
2.7463665227407676
-0.9982605271340548
0.1690420747884738
2.7463665227407676
-0.9982605271340548
0.1690420747884738
2.7463665227407676
-0.9982605271340548
0.1690420747884738
2.7463665227407676
-0.9971560407320909
0.16921372357438516
2.7466155319560785
-0.9971560407320909
0.16921372357438516
2.7466155319560785
-0.9971560407320909
0.16921372357438516
2.7466155319560785
-0.9971560407320909
0.16921372357438516
2.7466155319560785
-0.9981129482278752
0.16992325566710537
2.746885488471351
-0.9981129482278752
0.16992325566710537
2.746885488471351
-0.9981129482278752
0.16992325566710537
2.746885488471351
-0.9981129482278752
0.16992325566710537
2.746885488471351
-0.9975757121625382
0.17003594120910417
2.7474969704083163
-0.9975757121625382
0.17003594120910417
2.7474969704083163
-0.9975757121625382
0.17003594120910417
2.7474969704083163
-0.9975757121625382
0.17003594120910417
2.7474969704083163
-0.9971328362759521
0.16856021566954058
2.747844118488189
-0.9971328362759521
0.16856021566954058
2.747844118488189
-0.9971328362759521
0.16856021566954058
2.747844118488189
-0.9971328362759521
0.16856021566954058
2.747844118488189
-0.9983249392347789
0.16705514923447065
2.7485924222865714
-0.9983249392347789
0.16705514923447065
2.7485924222865714
-0.9983249392347789
0.16705514923447065
2.7485924222865714
-0.9983249392347789
0.16705514923447065
2.7485924222865714
-0.9986742377470561
0.16554462379233448
2.748789364777191
-0.9986742377470561
0.16554462379233448
2.748789364777191
-0.9986742377470561
0.16554462379233448
2.748789364777191
-0.9986742377470561
0.16554462379233448
2.748789364777191
-0.9961409444677549
0.16424780868136532
2.748581740405507
-0.9961409444677549
0.16424780868136532
2.748581740405507
-0.9961409444677549
0.16424780868136532
2.748581740405507
-0.9961409444677549
0.16424780868136532
2.748581740405507
-0.9942525405032102
0.16231835712170142
2.748468154455737
-0.9942525405032102
0.16231835712170142
2.748468154455737
-0.9942525405032102
0.16231835712170142
2.748468154455737
-0.9942525405032102
0.16231835712170142
2.748468154455737
-0.995825327138672
0.16090510362226537
2.748947704686222
-0.995825327138672
0.16090510362226537
2.748947704686222
-0.995825327138672
0.16090510362226537
2.748947704686222
-0.995825327138672
0.16090510362226537
2.748947704686222
-0.9965484819330983
0.1597560393998206
2.7488861557831044
-0.9965484819330983
0.1597560393998206
2.7488861557831044
-0.9965484819330983
0.1597560393998206
2.7488861557831044
-0.9965484819330983
0.1597560393998206
2.7488861557831044
-0.9950874093566896
0.15856822800929726
2.7481402387482277
-0.9950874093566896
0.15856822800929726
2.7481402387482277
-0.9950874093566896
0.15856822800929726
2.7481402387482277
-0.9950874093566896
0.15856822800929726
2.7481402387482277
-0.9941562111853943
0.15796243930086537
2.7478045921146688
-0.9941562111853943
0.15796243930086537
2.7478045921146688
-0.9941562111853943
0.15796243930086537
2.7478045921146688
-0.9941562111853943
0.15796243930086537
2.7478045921146688
-0.9962452374105132
0.15783640368514032
2.7479016780828087
-0.9962452374105132
0.15783640368514032
2.7479016780828087
-0.9962452374105132
0.15783640368514032
2.7479016780828087
-0.9962452374105132
0.15783640368514032
2.7479016780828087
-0.9982779573481939
0.15777244690117959
2.748129940688101
-0.9982779573481939
0.15777244690117959
2.748129940688101
-0.9982779573481939
0.15777244690117959
2.748129940688101
-0.9982779573481939
0.15777244690117959
2.748129940688101
-0.9988067417004519
0.15710097137407253
2.7475534649104647
-0.9988067417004519
0.15710097137407253
2.7475534649104647
-0.9988067417004519
0.15710097137407253
2.7475534649104647
-0.9988067417004519
0.15710097137407253
2.7475534649104647
-0.9994596475374535
0.15819678548188623
2.7470972928598716
-0.9994596475374535
0.15819678548188623
2.7470972928598716
-0.9994596475374535
0.15819678548188623
2.7470972928598716
-0.9994596475374535
0.15819678548188623
2.7470972928598716
-1.0025620655633554
0.16048648214162822
2.7469370399796817
-1.0025620655633554
0.16048648214162822
2.7469370399796817
-1.0025620655633554
0.16048648214162822
2.7469370399796817
-1.0025620655633554
0.16048648214162822
2.7469370399796817
-1.0054032351166051
0.16250809718231957
2.747242355559944
-1.0054032351166051
0.16250809718231957
2.747242355559944
-1.0054032351166051
0.16250809718231957
2.747242355559944
-1.0054032351166051
0.16250809718231957
2.747242355559944
-1.0038174703218876
0.1639413335209416
2.7475959439456594
-1.0038174703218876
0.1639413335209416
2.7475959439456594
-1.0038174703218876
0.1639413335209416
2.7475959439456594
-1.0038174703218876
0.1639413335209416
2.7475959439456594
-0.9967710600396005
0.1651865277096895
2.7486477815724326
-0.9967710600396005
0.1651865277096895
2.7486477815724326
-0.9967710600396005
0.1651865277096895
2.7486477815724326
-0.9967710600396005
0.1651865277096895
2.7486477815724326
-0.9879207096370461
0.16723249462526082
2.7510271221069287
-0.9879207096370461
0.16723249462526082
2.7510271221069287
-0.9879207096370461
0.16723249462526082
2.7510271221069287
-0.9879207096370461
0.16723249462526082
2.7510271221069287
-0.9755605656875317
0.17141015232021325
2.754295078097391
-0.9755605656875317
0.17141015232021325
2.754295078097391
-0.9755605656875317
0.17141015232021325
2.754295078097391
-0.9755605656875317
0.17141015232021325
2.754295078097391
-0.9575787730700711
0.17567314279512738
2.7593009180186296
-0.9575787730700711
0.17567314279512738
2.7593009180186296
-0.9575787730700711
0.17567314279512738
2.7593009180186296
-0.9575787730700711
0.17567314279512738
2.7593009180186296
-0.9344776956608523
0.1776295536012798
2.7665738900290613
-0.9344776956608523
0.1776295536012798
2.7665738900290613
-0.9344776956608523
0.1776295536012798
2.7665738900290613
-0.9344776956608523
0.1776295536012798
2.7665738900290613
-0.9091951745059716
0.175800155073063
2.77496633609098
-0.9091951745059716
0.175800155073063
2.77496633609098
-0.9091951745059716
0.175800155073063
2.77496633609098
-0.9091951745059716
0.175800155073063
2.77496633609098
-0.8809622953208149
0.1722899678960627
2.7829757321316952
-0.8809622953208149
0.1722899678960627
2.7829757321316952
-0.8809622953208149
0.1722899678960627
2.7829757321316952
-0.8809622953208149
0.1722899678960627
2.7829757321316952
-0.8474972503914051
0.16698476678976118
2.7898372595371708
-0.8474972503914051
0.16698476678976118
2.7898372595371708
-0.8474972503914051
0.16698476678976118
2.7898372595371708
-0.8474972503914051
0.16698476678976118
2.7898372595371708
-0.8084881504956141
0.16215907433062646
2.7989957345164145
-0.8084881504956141
0.16215907433062646
2.7989957345164145
-0.8084881504956141
0.16215907433062646
2.7989957345164145
-0.8084881504956141
0.16215907433062646
2.7989957345164145
-0.7656000257798617
0.15854323379639285
2.808605770121889
-0.7656000257798617
0.15854323379639285
2.808605770121889
-0.7656000257798617
0.15854323379639285
2.808605770121889
-0.7656000257798617
0.15854323379639285
2.808605770121889
-0.7199453261057571
0.15575829450025344
2.815569763294599
-0.7199453261057571
0.15575829450025344
2.815569763294599
-0.7199453261057571
0.15575829450025344
2.815569763294599
-0.7199453261057571
0.15575829450025344
2.815569763294599
-0.6735802141327125
0.15180052584521378
2.8215021482852753
-0.6735802141327125
0.15180052584521378
2.8215021482852753
-0.6735802141327125
0.15180052584521378
2.8215021482852753
-0.6735802141327125
0.15180052584521378
2.8215021482852753
-0.627816311663955
0.14506328709918218
2.8294239367254552
-0.627816311663955
0.14506328709918218
2.8294239367254552
-0.627816311663955
0.14506328709918218
2.8294239367254552
-0.627816311663955
0.14506328709918218
2.8294239367254552
-0.5823908047607288
0.13627170516030251
2.837504892813233
-0.5823908047607288
0.13627170516030251
2.837504892813233
-0.5823908047607288
0.13627170516030251
2.837504892813233
-0.5823908047607288
0.13627170516030251
2.837504892813233
-0.5429269105067213
0.1267157148809732
2.8427536728859235
-0.5429269105067213
0.1267157148809732
2.8427536728859235
-0.5429269105067213
0.1267157148809732
2.8427536728859235
-0.5429269105067213
0.1267157148809732
2.8427536728859235
-0.5126791880715597
0.11720408657546068
2.8459039625873133
-0.5126791880715597
0.11720408657546068
2.8459039625873133
-0.5126791880715597
0.11720408657546068
2.8459039625873133
-0.5126791880715597
0.11720408657546068
2.8459039625873133
-0.4929126467548697
0.10895387930345798
2.8509703267088393
-0.4929126467548697
0.10895387930345798
2.8509703267088393
-0.4929126467548697
0.10895387930345798
2.8509703267088393
-0.4929126467548697
0.10895387930345798
2.8509703267088393
-0.4763295802188985
0.10177922837789041
2.856048575448596
-0.4763295802188985
0.10177922837789041
2.856048575448596
-0.4763295802188985
0.10177922837789041
2.856048575448596
-0.4763295802188985
0.10177922837789041
2.856048575448596
-0.46267105313617785
0.09591279240195705
2.858626096570746
-0.46267105313617785
0.09591279240195705
2.858626096570746
-0.46267105313617785
0.09591279240195705
2.858626096570746
-0.46267105313617785
0.09591279240195705
2.858626096570746
-0.45527379227189824
0.08978550233938967
2.8586609709403614
-0.45527379227189824
0.08978550233938967
2.8586609709403614
-0.45527379227189824
0.08978550233938967
2.8586609709403614
-0.45527379227189824
0.08978550233938967
2.8586609709403614
-0.44889613765723807
0.08323550806641564
2.8579075599370927
-0.44889613765723807
0.08323550806641564
2.8579075599370927
-0.44889613765723807
0.08323550806641564
2.8579075599370927
-0.44889613765723807
0.08323550806641564
2.8579075599370927
-0.4402150826747461
0.0775425380873083
2.857825601359124
-0.4402150826747461
0.0775425380873083
2.857825601359124
-0.4402150826747461
0.0775425380873083
2.857825601359124
-0.4402150826747461
0.0775425380873083
2.857825601359124
-0.4328042565158902
0.07352854366773486
2.859259985409255
-0.4328042565158902
0.07352854366773486
2.859259985409255
-0.4328042565158902
0.07352854366773486
2.859259985409255
-0.4328042565158902
0.07352854366773486
2.859259985409255
-0.43557851622653787
0.07083682808819995
2.8608154797991436
-0.43557851622653787
0.07083682808819995
2.8608154797991436
-0.43557851622653787
0.07083682808819995
2.8608154797991436
-0.43557851622653787
0.07083682808819995
2.8608154797991436
-0.4438525233313765
0.06817118928430582
2.86174695855026
-0.4438525233313765
0.06817118928430582
2.86174695855026
-0.4438525233313765
0.06817118928430582
2.86174695855026
-0.4438525233313765
0.06817118928430582
2.86174695855026
-0.4482028056507591
0.06692702500839777
2.8616351159338858
-0.4482028056507591
0.06692702500839777
2.8616351159338858
-0.4482028056507591
0.06692702500839777
2.8616351159338858
-0.4482028056507591
0.06692702500839777
2.8616351159338858
-0.4476487842023681
0.06716772262472416
2.8612272849663527
-0.4476487842023681
0.06716772262472416
2.8612272849663527
-0.4476487842023681
0.06716772262472416
2.8612272849663527
-0.4476487842023681
0.06716772262472416
2.8612272849663527
-0.4469492872334781
0.06745335509023195
2.860955265850495
-0.4469492872334781
0.06745335509023195
2.860955265850495
-0.4469492872334781
0.06745335509023195
2.860955265850495
-0.4469492872334781
0.06745335509023195
2.860955265850495
-0.4465202703442017
0.06802131891984782
2.8609820988427113
-0.4465202703442017
0.06802131891984782
2.8609820988427113
-0.4465202703442017
0.06802131891984782
2.8609820988427113
-0.4465202703442017
0.06802131891984782
2.8609820988427113
-0.4465376205451517
0.06816630209348981
2.861072666314597
-0.4465376205451517
0.06816630209348981
2.861072666314597
-0.4465376205451517
0.06816630209348981
2.861072666314597
-0.4465376205451517
0.06816630209348981
2.861072666314597
-0.4469416844844687
0.06907277332254341
2.8608353888605196
-0.4469416844844687
0.06907277332254341
2.8608353888605196
-0.4469416844844687
0.06907277332254341
2.8608353888605196
-0.4469416844844687
0.06907277332254341
2.8608353888605196
-0.4493657404124581
0.07068494808493192
2.8604198299834156
-0.4493657404124581
0.07068494808493192
2.8604198299834156
-0.4493657404124581
0.07068494808493192
2.8604198299834156
-0.4493657404124581
0.07068494808493192
2.8604198299834156
-0.45460092143021663
0.07316445425308726
2.859360848606831
-0.45460092143021663
0.07316445425308726
2.859360848606831
-0.45460092143021663
0.07316445425308726
2.859360848606831
-0.45460092143021663
0.07316445425308726
2.859360848606831
-0.46280787697979336
0.07636713356224072
2.8576331544382554
-0.46280787697979336
0.07636713356224072
2.8576331544382554
-0.46280787697979336
0.07636713356224072
2.8576331544382554
-0.46280787697979336
0.07636713356224072
2.8576331544382554
-0.47420676954282487
0.07966480896431279
2.855991658838637
-0.47420676954282487
0.07966480896431279
2.855991658838637
-0.47420676954282487
0.07966480896431279
2.855991658838637
-0.47420676954282487
0.07966480896431279
2.855991658838637
-0.4891455078914931
0.08323612099069327
2.855355729570633
-0.4891455078914931
0.08323612099069327
2.855355729570633
-0.4891455078914931
0.08323612099069327
2.855355729570633
-0.4891455078914931
0.08323612099069327
2.855355729570633
-0.5107396112907197
0.08680163671916384
2.854624422323653
-0.5107396112907197
0.08680163671916384
2.854624422323653
-0.5107396112907197
0.08680163671916384
2.854624422323653
-0.5107396112907197
0.08680163671916384
2.854624422323653
-0.5388616082587134
0.09055524514916238
2.8534274190577085
-0.5388616082587134
0.09055524514916238
2.8534274190577085
-0.5388616082587134
0.09055524514916238
2.8534274190577085
-0.5388616082587134
0.09055524514916238
2.8534274190577085
-0.5679586407802535
0.0941000186996145
2.8522951460048978
-0.5679586407802535
0.0941000186996145
2.8522951460048978
-0.5679586407802535
0.0941000186996145
2.8522951460048978
-0.5679586407802535
0.0941000186996145
2.8522951460048978
-0.5981130727374354
0.09662867939796126
2.849398650995555
-0.5981130727374354
0.09662867939796126
2.849398650995555
-0.5981130727374354
0.09662867939796126
2.849398650995555
-0.5981130727374354
0.09662867939796126
2.849398650995555
-0.6276082895705795
0.09807752789118425
2.8449520499669516
-0.6276082895705795
0.09807752789118425
2.8449520499669516
-0.6276082895705795
0.09807752789118425
2.8449520499669516
-0.6276082895705795
0.09807752789118425
2.8449520499669516
-0.660771640047328
0.09866572653659542
2.8392466898935735
-0.660771640047328
0.09866572653659542
2.8392466898935735
-0.660771640047328
0.09866572653659542
2.8392466898935735
-0.660771640047328
0.09866572653659542
2.8392466898935735
-0.7006838675185482
0.10001743174100422
2.833828059352459
-0.7006838675185482
0.10001743174100422
2.833828059352459
-0.7006838675185482
0.10001743174100422
2.833828059352459
-0.7006838675185482
0.10001743174100422
2.833828059352459
-0.7458166867779552
0.1011938825538362
2.8280539962935136
-0.7458166867779552
0.1011938825538362
2.8280539962935136
-0.7458166867779552
0.1011938825538362
2.8280539962935136
-0.7458166867779552
0.1011938825538362
2.8280539962935136
-0.7930647472773852
0.10105863588352253
2.8210749832668873
-0.7930647472773852
0.10105863588352253
2.8210749832668873
-0.7930647472773852
0.10105863588352253
2.8210749832668873
-0.7930647472773852
0.10105863588352253
2.8210749832668873
-0.8309505145943833
0.10057501897235904
2.8144567734155514
-0.8309505145943833
0.10057501897235904
2.8144567734155514
-0.8309505145943833
0.10057501897235904
2.8144567734155514
-0.8309505145943833
0.10057501897235904
2.8144567734155514
-0.859849671307047
0.09979442034091426
2.8052422714518235
-0.859849671307047
0.09979442034091426
2.8052422714518235
-0.859849671307047
0.09979442034091426
2.8052422714518235
-0.859849671307047
0.09979442034091426
2.8052422714518235
-0.8781298609690852
0.09946391310237823
2.7960894236743887
-0.8781298609690852
0.09946391310237823
2.7960894236743887
-0.8781298609690852
0.09946391310237823
2.7960894236743887
-0.8781298609690852
0.09946391310237823
2.7960894236743887
-0.8930194654525692
0.1008603860482237
2.7891901077219425
-0.8930194654525692
0.1008603860482237
2.7891901077219425
-0.8930194654525692
0.1008603860482237
2.7891901077219425
-0.8930194654525692
0.1008603860482237
2.7891901077219425
-0.9082888094804672
0.10166714252509497
2.784231480687346
-0.9082888094804672
0.10166714252509497
2.784231480687346
-0.9082888094804672
0.10166714252509497
2.784231480687346
-0.9082888094804672
0.10166714252509497
2.784231480687346
-0.9251662540708799
0.10364798881048458
2.780607545390252
-0.9251662540708799
0.10364798881048458
2.780607545390252
-0.9251662540708799
0.10364798881048458
2.780607545390252
-0.9251662540708799
0.10364798881048458
2.780607545390252
-0.93779599994653
0.10614402337953205
2.776403920949194
-0.93779599994653
0.10614402337953205
2.776403920949194
-0.93779599994653
0.10614402337953205
2.776403920949194
-0.93779599994653
0.10614402337953205
2.776403920949194
-0.9475840521920084
0.10606065445163564
2.770985114300638
-0.9475840521920084
0.10606065445163564
2.770985114300638
-0.9475840521920084
0.10606065445163564
2.770985114300638
-0.9475840521920084
0.10606065445163564
2.770985114300638
-0.9608797417053325
0.10773289526836904
2.7676817354308376
-0.9608797417053325
0.10773289526836904
2.7676817354308376
-0.9608797417053325
0.10773289526836904
2.7676817354308376
-0.9608797417053325
0.10773289526836904
2.7676817354308376
-0.9758016252549193
0.1106897449081335
2.765769769085359
-0.9758016252549193
0.1106897449081335
2.765769769085359
-0.9758016252549193
0.1106897449081335
2.765769769085359
-0.9758016252549193
0.1106897449081335
2.765769769085359
-0.9871330681968966
0.11461264732465942
2.7656718140545236
-0.9871330681968966
0.11461264732465942
2.7656718140545236
-0.9871330681968966
0.11461264732465942
2.7656718140545236
-0.9871330681968966
0.11461264732465942
2.7656718140545236
-0.991849431559161
0.11801868988684543
2.765713754034205
-0.991849431559161
0.11801868988684543
2.765713754034205
-0.991849431559161
0.11801868988684543
2.765713754034205
-0.991849431559161
0.11801868988684543
2.765713754034205
-0.9935303191895407
0.12083218378736829
2.766145873320908
-0.9935303191895407
0.12083218378736829
2.766145873320908
-0.9935303191895407
0.12083218378736829
2.766145873320908
-0.9935303191895407
0.12083218378736829
2.766145873320908
-0.9958355123263761
0.122504526276131
2.7680867288980475
-0.9958355123263761
0.122504526276131
2.7680867288980475
-0.9958355123263761
0.122504526276131
2.7680867288980475
-0.9958355123263761
0.122504526276131
2.7680867288980475
-1.0002272044259728
0.12388897381504893
2.769571881609009
-1.0002272044259728
0.12388897381504893
2.769571881609009
-1.0002272044259728
0.12388897381504893
2.769571881609009
-1.0002272044259728
0.12388897381504893
2.769571881609009
-1.005200730539599
0.12518751928569014
2.7712672186460385
-1.005200730539599
0.12518751928569014
2.7712672186460385
-1.005200730539599
0.12518751928569014
2.7712672186460385
-1.005200730539599
0.12518751928569014
2.7712672186460385
-1.010120165472583
0.12558608078943498
2.772062390815182
-1.010120165472583
0.12558608078943498
2.772062390815182
-1.010120165472583
0.12558608078943498
2.772062390815182
-1.010120165472583
0.12558608078943498
2.772062390815182
-1.0133499491795448
0.1257280938732325
2.7724351873731803
-1.0133499491795448
0.1257280938732325
2.7724351873731803
-1.0133499491795448
0.1257280938732325
2.7724351873731803
-1.0133499491795448
0.1257280938732325
2.7724351873731803
-1.014884965888524
0.12675227723952495
2.7731549452719517
-1.014884965888524
0.12675227723952495
2.7731549452719517
-1.014884965888524
0.12675227723952495
2.7731549452719517
-1.014884965888524
0.12675227723952495
2.7731549452719517
-1.0177989000067926
0.12878320117735526
2.7750712685528462
-1.0177989000067926
0.12878320117735526
2.7750712685528462
-1.0177989000067926
0.12878320117735526
2.7750712685528462
-1.0177989000067926
0.12878320117735526
2.7750712685528462
-1.0215708359027864
0.1272924872683068
2.775995265295476
-1.0215708359027864
0.1272924872683068
2.775995265295476
-1.0215708359027864
0.1272924872683068
2.775995265295476
-1.0215708359027864
0.1272924872683068
2.775995265295476
-1.0217543079986549
0.1257112192416225
2.7762936780868364
-1.0217543079986549
0.1257112192416225
2.7762936780868364
-1.0217543079986549
0.1257112192416225
2.7762936780868364
-1.0217543079986549
0.1257112192416225
2.7762936780868364
-1.0212345322542815
0.12588403907890477
2.776994195100094
-1.0212345322542815
0.12588403907890477
2.776994195100094
-1.0212345322542815
0.12588403907890477
2.776994195100094
-1.0212345322542815
0.12588403907890477
2.776994195100094
-1.0227592567170027
0.12808805360073242
2.7793100517633427
-1.0227592567170027
0.12808805360073242
2.7793100517633427
-1.0227592567170027
0.12808805360073242
2.7793100517633427
-1.0227592567170027
0.12808805360073242
2.7793100517633427
-1.0243245235531275
0.12712926232773009
2.7805885736764817
-1.0243245235531275
0.12712926232773009
2.7805885736764817
-1.0243245235531275
0.12712926232773009
2.7805885736764817
-1.0243245235531275
0.12712926232773009
2.7805885736764817
-1.0237695866083871
0.12432228414393895
2.780294240618528
-1.0237695866083871
0.12432228414393895
2.780294240618528
-1.0237695866083871
0.12432228414393895
2.780294240618528
-1.0237695866083871
0.12432228414393895
2.780294240618528
-1.0249965113713089
0.12512205487484288
2.7807713589978693
-1.0249965113713089
0.12512205487484288
2.7807713589978693
-1.0249965113713089
0.12512205487484288
2.7807713589978693
-1.0249965113713089
0.12512205487484288
2.7807713589978693
-1.0267036841042345
0.12780201613181988
2.783220199837293
-1.0267036841042345
0.12780201613181988
2.783220199837293
-1.0267036841042345
0.12780201613181988
2.783220199837293
-1.0267036841042345
0.12780201613181988
2.783220199837293
-1.025553063225154
0.12704028495729025
2.784124855139746
-1.025553063225154
0.12704028495729025
2.784124855139746
-1.025553063225154
0.12704028495729025
2.784124855139746
-1.025553063225154
0.12704028495729025
2.784124855139746
-1.0222707961716437
0.12379449365702161
2.782817565295821
-1.0222707961716437
0.12379449365702161
2.782817565295821
-1.0222707961716437
0.12379449365702161
2.782817565295821
-1.0222707961716437
0.12379449365702161
2.782817565295821
-1.022379576709555
0.12487178556264167
2.7824802008869316
-1.022379576709555
0.12487178556264167
2.7824802008869316
-1.022379576709555
0.12487178556264167
2.7824802008869316
-1.022379576709555
0.12487178556264167
2.7824802008869316
-1.024445591981919
0.12574820227105538
2.783062718972972
-1.024445591981919
0.12574820227105538
2.783062718972972
-1.024445591981919
0.12574820227105538
2.783062718972972
-1.024445591981919
0.12574820227105538
2.783062718972972
-1.0240443111178206
0.12565641165408103
2.783028987775669
-1.0240443111178206
0.12565641165408103
2.783028987775669
-1.0240443111178206
0.12565641165408103
2.783028987775669
-1.0240443111178206
0.12565641165408103
2.783028987775669
-1.022140278690885
0.12511600916990737
2.781807800832466
-1.022140278690885
0.12511600916990737
2.781807800832466
-1.022140278690885
0.12511600916990737
2.781807800832466
-1.022140278690885
0.12511600916990737
2.781807800832466
-1.0228322902258384
0.1281838892151401
2.7823622111615482
-1.0228322902258384
0.1281838892151401
2.7823622111615482
-1.0228322902258384
0.1281838892151401
2.7823622111615482
-1.0228322902258384
0.1281838892151401
2.7823622111615482
-1.0246677273887568
0.1304928541326259
2.782866810104364
-1.0246677273887568
0.1304928541326259
2.782866810104364
-1.0246677273887568
0.1304928541326259
2.782866810104364
-1.0246677273887568
0.1304928541326259
2.782866810104364
-1.0224552673640002
0.13030496387982748
2.782211890022653
-1.0224552673640002
0.13030496387982748
2.782211890022653
-1.0224552673640002
0.13030496387982748
2.782211890022653
-1.0224552673640002
0.13030496387982748
2.782211890022653
-1.019595518627906
0.12956303586913884
2.781408980457065
-1.019595518627906
0.12956303586913884
2.781408980457065
-1.019595518627906
0.12956303586913884
2.781408980457065
-1.019595518627906
0.12956303586913884
2.781408980457065
-1.0208835053801608
0.12971280479713912
2.7809561467885073
-1.0208835053801608
0.12971280479713912
2.7809561467885073
-1.0208835053801608
0.12971280479713912
2.7809561467885073
-1.0208835053801608
0.12971280479713912
2.7809561467885073
-1.0203552409402084
0.12973662535699826
2.780612068876418
-1.0203552409402084
0.12973662535699826
2.780612068876418
-1.0203552409402084
0.12973662535699826
2.780612068876418
-1.0203552409402084
0.12973662535699826
2.780612068876418
-1.0215441660875748
0.1295465208482901
2.779823575970968
-1.0215441660875748
0.1295465208482901
2.779823575970968
-1.0215441660875748
0.1295465208482901
2.779823575970968
-1.0215441660875748
0.1295465208482901
2.779823575970968
-1.0231753560658696
0.13063402748317193
2.779347159021698
-1.0231753560658696
0.13063402748317193
2.779347159021698
-1.0231753560658696
0.13063402748317193
2.779347159021698
-1.0231753560658696
0.13063402748317193
2.779347159021698
-1.025591103966905
0.1312408635824888
2.7790315861567945
-1.025591103966905
0.1312408635824888
2.7790315861567945
-1.025591103966905
0.1312408635824888
2.7790315861567945
-1.025591103966905
0.1312408635824888
2.7790315861567945
-1.02584926256194
0.13286445784114428
2.778905055604473
-1.02584926256194
0.13286445784114428
2.778905055604473
-1.02584926256194
0.13286445784114428
2.778905055604473
-1.02584926256194
0.13286445784114428
2.778905055604473
-1.0267657299765132
0.13291806127936662
2.7787140205978713
-1.0267657299765132
0.13291806127936662
2.7787140205978713
-1.0267657299765132
0.13291806127936662
2.7787140205978713
-1.0267657299765132
0.13291806127936662
2.7787140205978713
-1.024908197687561
0.13261720001866034
2.7782155139503755
-1.024908197687561
0.13261720001866034
2.7782155139503755
-1.024908197687561
0.13261720001866034
2.7782155139503755
-1.024908197687561
0.13261720001866034
2.7782155139503755
-1.0262244656171573
0.13230965773788667
2.777736661577922
-1.0262244656171573
0.13230965773788667
2.777736661577922
-1.0262244656171573
0.13230965773788667
2.777736661577922
-1.0262244656171573
0.13230965773788667
2.777736661577922
-1.0285069623204701
0.13280464545197918
2.7782067951441514
-1.0285069623204701
0.13280464545197918
2.7782067951441514
-1.0285069623204701
0.13280464545197918
2.7782067951441514
-1.0285069623204701
0.13280464545197918
2.7782067951441514
-1.0303835919353401
0.13253155753670673
2.7784732245046553
-1.0303835919353401
0.13253155753670673
2.7784732245046553
-1.0303835919353401
0.13253155753670673
2.7784732245046553
-1.0303835919353401
0.13253155753670673
2.7784732245046553
-1.03070378340323
0.13274887389395626
2.7784406234898675
-1.03070378340323
0.13274887389395626
2.7784406234898675
-1.03070378340323
0.13274887389395626
2.7784406234898675
-1.03070378340323
0.13274887389395626
2.7784406234898675
-1.0316648599970655
0.13427756206875396
2.779095477158976
-1.0316648599970655
0.13427756206875396
2.779095477158976
-1.0316648599970655
0.13427756206875396
2.779095477158976
-1.0316648599970655
0.13427756206875396
2.779095477158976
-1.0306369595879652
0.13590739364351734
2.78046700170363
-1.0306369595879652
0.13590739364351734
2.78046700170363
-1.0306369595879652
0.13590739364351734
2.78046700170363
-1.0306369595879652
0.13590739364351734
2.78046700170363
-1.0294846942231675
0.13449939578701497
2.780475473267845
-1.0294846942231675
0.13449939578701497
2.780475473267845
-1.0294846942231675
0.13449939578701497
2.780475473267845
-1.0294846942231675
0.13449939578701497
2.780475473267845
-1.0273414337965874
0.13355380436050196
2.7792560963862676
-1.0273414337965874
0.13355380436050196
2.7792560963862676
-1.0273414337965874
0.13355380436050196
2.7792560963862676
-1.0273414337965874
0.13355380436050196
2.7792560963862676
-1.0295568063349367
0.13432644329106566
2.7791369264911667
-1.0295568063349367
0.13432644329106566
2.7791369264911667
-1.0295568063349367
0.13432644329106566
2.7791369264911667
-1.0295568063349367
0.13432644329106566
2.7791369264911667
-1.0309220049644447
0.1347701935978163
2.77979604617513
-1.0309220049644447
0.1347701935978163
2.77979604617513
-1.0309220049644447
0.1347701935978163
2.77979604617513
-1.0309220049644447
0.1347701935978163
2.77979604617513
-1.0274071679838064
0.13344381822139897
2.7795904114378263
-1.0274071679838064
0.13344381822139897
2.7795904114378263
-1.0274071679838064
0.13344381822139897
2.7795904114378263
-1.0274071679838064
0.13344381822139897
2.7795904114378263
-1.0231126731840794
0.13302018705545435
2.778702682981776
-1.0231126731840794
0.13302018705545435
2.778702682981776
-1.0231126731840794
0.13302018705545435
2.778702682981776
-1.0231126731840794
0.13302018705545435
2.778702682981776
-1.0213840165687944
0.13412458409940567
2.779226238320681
-1.0213840165687944
0.13412458409940567
2.779226238320681
-1.0213840165687944
0.13412458409940567
2.779226238320681
-1.0213840165687944
0.13412458409940567
2.779226238320681
-1.0189554526670828
0.13564118962891333
2.7797607938792623
-1.0189554526670828
0.13564118962891333
2.7797607938792623
-1.0189554526670828
0.13564118962891333
2.7797607938792623
-1.0189554526670828
0.13564118962891333
2.7797607938792623
-1.0118590050838747
0.13708980647208296
2.7800053101931157
-1.0118590050838747
0.13708980647208296
2.7800053101931157
-1.0118590050838747
0.13708980647208296
2.7800053101931157
-1.0118590050838747
0.13708980647208296
2.7800053101931157
-1.000656812379967
0.1396298148516966
2.7806031813254166
-1.000656812379967
0.1396298148516966
2.7806031813254166
-1.000656812379967
0.1396298148516966
2.7806031813254166
-1.000656812379967
0.1396298148516966
2.7806031813254166
-0.987006968187262
0.14374078716842797
2.7827427500951467
-0.987006968187262
0.14374078716842797
2.7827427500951467
-0.987006968187262
0.14374078716842797
2.7827427500951467
-0.987006968187262
0.14374078716842797
2.7827427500951467
-0.9665958000201346
0.14698595664140163
2.78749269451291
-0.9665958000201346
0.14698595664140163
2.78749269451291
-0.9665958000201346
0.14698595664140163
2.78749269451291
-0.9665958000201346
0.14698595664140163
2.78749269451291
-0.939906237507073
0.14574389007710337
2.793493254046292
-0.939906237507073
0.14574389007710337
2.793493254046292
-0.939906237507073
0.14574389007710337
2.793493254046292
-0.939906237507073
0.14574389007710337
2.793493254046292
-0.9079590920047942
0.14328134459806008
2.80226316348611
-0.9079590920047942
0.14328134459806008
2.80226316348611
-0.9079590920047942
0.14328134459806008
2.80226316348611
-0.9079590920047942
0.14328134459806008
2.80226316348611
-0.869398464472187
0.1380052779056469
2.814424831463593
-0.869398464472187
0.1380052779056469
2.814424831463593
-0.869398464472187
0.1380052779056469
2.814424831463593
-0.869398464472187
0.1380052779056469
2.814424831463593
-0.8206733856789337
0.13076546589577204
2.8273618794022437
-0.8206733856789337
0.13076546589577204
2.8273618794022437
-0.8206733856789337
0.13076546589577204
2.8273618794022437
-0.8206733856789337
0.13076546589577204
2.8273618794022437
-0.7647635492725444
0.1228406050560852
2.839373277423252
-0.7647635492725444
0.1228406050560852
2.839373277423252
-0.7647635492725444
0.1228406050560852
2.839373277423252
-0.7647635492725444
0.1228406050560852
2.839373277423252
-0.706440288030571
0.11514885702184295
2.8479001504607786
-0.706440288030571
0.11514885702184295
2.8479001504607786
-0.706440288030571
0.11514885702184295
2.8479001504607786
-0.706440288030571
0.11514885702184295
2.8479001504607786
-0.647266044808169
0.10852062193067238
2.8549151452951556
-0.647266044808169
0.10852062193067238
2.8549151452951556
-0.647266044808169
0.10852062193067238
2.8549151452951556
-0.647266044808169
0.10852062193067238
2.8549151452951556
-0.5918246190273346
0.10242238259282681
2.862995966622342
-0.5918246190273346
0.10242238259282681
2.862995966622342
-0.5918246190273346
0.10242238259282681
2.862995966622342
-0.5918246190273346
0.10242238259282681
2.862995966622342
-0.543780457980073
0.09714508289412326
2.8705630677826277
-0.543780457980073
0.09714508289412326
2.8705630677826277
-0.543780457980073
0.09714508289412326
2.8705630677826277
-0.543780457980073
0.09714508289412326
2.8705630677826277
-0.5036693949934358
0.09274027863984045
2.876015852465305
-0.5036693949934358
0.09274027863984045
2.876015852465305
-0.5036693949934358
0.09274027863984045
2.876015852465305
-0.5036693949934358
0.09274027863984045
2.876015852465305
-0.47297373253380504
0.08920671125692609
2.8807237434751634
-0.47297373253380504
0.08920671125692609
2.8807237434751634
-0.47297373253380504
0.08920671125692609
2.8807237434751634
-0.47297373253380504
0.08920671125692609
2.8807237434751634
-0.44800996213139826
0.08542559764865056
2.8848636100290497
-0.44800996213139826
0.08542559764865056
2.8848636100290497
-0.44800996213139826
0.08542559764865056
2.8848636100290497
-0.44800996213139826
0.08542559764865056
2.8848636100290497
-0.43237030935252696
0.08323630505661994
2.8895014918080357
-0.43237030935252696
0.08323630505661994
2.8895014918080357
-0.43237030935252696
0.08323630505661994
2.8895014918080357
-0.43237030935252696
0.08323630505661994
2.8895014918080357
-0.42172995185538664
0.08319154397531668
2.8941420838536622
-0.42172995185538664
0.08319154397531668
2.8941420838536622
-0.42172995185538664
0.08319154397531668
2.8941420838536622
-0.42172995185538664
0.08319154397531668
2.8941420838536622
-0.4160194838604792
0.08477967990960103
2.8961967240325928
-0.4160194838604792
0.08477967990960103
2.8961967240325928
-0.4160194838604792
0.08477967990960103
2.8961967240325928
-0.4160194838604792
0.08477967990960103
2.8961967240325928
-0.4173791462659325
0.08668922117579245
2.896447495148048
-0.4173791462659325
0.08668922117579245
2.896447495148048
-0.4173791462659325
0.08668922117579245
2.896447495148048
-0.4173791462659325
0.08668922117579245
2.896447495148048
-0.4234683335643454
0.08819010599793109
2.89670011780383
-0.4234683335643454
0.08819010599793109
2.89670011780383
-0.4234683335643454
0.08819010599793109
2.89670011780383
-0.4234683335643454
0.08819010599793109
2.89670011780383
-0.4269095440320637
0.08718123523114646
2.8979320347463067
-0.4269095440320637
0.08718123523114646
2.8979320347463067
-0.4269095440320637
0.08718123523114646
2.8979320347463067
-0.4269095440320637
0.08718123523114646
2.8979320347463067
-0.425070538635153
0.08600999198802489
2.898573654840352
-0.425070538635153
0.08600999198802489
2.898573654840352
-0.425070538635153
0.08600999198802489
2.898573654840352
-0.425070538635153
0.08600999198802489
2.898573654840352
-0.4233774523427684
0.08553687910181619
2.8984211951147962
-0.4233774523427684
0.08553687910181619
2.8984211951147962
-0.4233774523427684
0.08553687910181619
2.8984211951147962
-0.4233774523427684
0.08553687910181619
2.8984211951147962
-0.4222731799477124
0.08443924104450365
2.8979753423780763
-0.4222731799477124
0.08443924104450365
2.8979753423780763
-0.4222731799477124
0.08443924104450365
2.8979753423780763
-0.4222731799477124
0.08443924104450365
2.8979753423780763
-0.41893485074995823
0.08247263955926525
2.8969984527348847
-0.41893485074995823
0.08247263955926525
2.8969984527348847
-0.41893485074995823
0.08247263955926525
2.8969984527348847
-0.41893485074995823
0.08247263955926525
2.8969984527348847
-0.4164450085792468
0.08050409939786583
2.8964624524996365
-0.4164450085792468
0.08050409939786583
2.8964624524996365
-0.4164450085792468
0.08050409939786583
2.8964624524996365
-0.4164450085792468
0.08050409939786583
2.8964624524996365
-0.41626088673933714
0.08040937933272954
2.8971246645904176
-0.41626088673933714
0.08040937933272954
2.8971246645904176
-0.41626088673933714
0.08040937933272954
2.8971246645904176
-0.41626088673933714
0.08040937933272954
2.8971246645904176
-0.42073146474141304
0.08240869454182652
2.898271647473117
-0.42073146474141304
0.08240869454182652
2.898271647473117
-0.42073146474141304
0.08240869454182652
2.898271647473117
-0.42073146474141304
0.08240869454182652
2.898271647473117
-0.4286450579302632
0.08555797630817072
2.898924173691638
-0.4286450579302632
0.08555797630817072
2.898924173691638
-0.4286450579302632
0.08555797630817072
2.898924173691638
-0.4286450579302632
0.08555797630817072
2.898924173691638
-0.439228042837545
0.08919566845887582
2.898489515829418
-0.439228042837545
0.08919566845887582
2.898489515829418
-0.439228042837545
0.08919566845887582
2.898489515829418
-0.439228042837545
0.08919566845887582
2.898489515829418
-0.44990984608302065
0.09142516799354308
2.8974612766069043
-0.44990984608302065
0.09142516799354308
2.8974612766069043
-0.44990984608302065
0.09142516799354308
2.8974612766069043
-0.44990984608302065
0.09142516799354308
2.8974612766069043
-0.4622980895525439
0.09452278539880554
2.8960475700944723
-0.4622980895525439
0.09452278539880554
2.8960475700944723
-0.4622980895525439
0.09452278539880554
2.8960475700944723
-0.4622980895525439
0.09452278539880554
2.8960475700944723
-0.47947395855449754
0.09757266353535281
2.8951040787858653
-0.47947395855449754
0.09757266353535281
2.8951040787858653
-0.47947395855449754
0.09757266353535281
2.8951040787858653
-0.47947395855449754
0.09757266353535281
2.8951040787858653
-0.5033785684138647
0.1008849950385878
2.8935912453815695
-0.5033785684138647
0.1008849950385878
2.8935912453815695
-0.5033785684138647
0.1008849950385878
2.8935912453815695
-0.5033785684138647
0.1008849950385878
2.8935912453815695
-0.5341448805300139
0.10400569674978254
2.889894572163348
-0.5341448805300139
0.10400569674978254
2.889894572163348
-0.5341448805300139
0.10400569674978254
2.889894572163348
-0.5341448805300139
0.10400569674978254
2.889894572163348
-0.5738596838593865
0.10646837866425522
2.8857814913010786
-0.5738596838593865
0.10646837866425522
2.8857814913010786
-0.5738596838593865
0.10646837866425522
2.8857814913010786
-0.5738596838593865
0.10646837866425522
2.8857814913010786
-0.6212829914460449
0.11040399919080036
2.881881849520178
-0.6212829914460449
0.11040399919080036
2.881881849520178
-0.6212829914460449
0.11040399919080036
2.881881849520178
-0.6212829914460449
0.11040399919080036
2.881881849520178
-0.6739208771353296
0.11668074278127846
2.877416396733328
-0.6739208771353296
0.11668074278127846
2.877416396733328
-0.6739208771353296
0.11668074278127846
2.877416396733328
-0.6739208771353296
0.11668074278127846
2.877416396733328
-0.7267899049744612
0.12177829142339408
2.871882187954085
-0.7267899049744612
0.12177829142339408
2.871882187954085
-0.7267899049744612
0.12177829142339408
2.871882187954085
-0.7267899049744612
0.12177829142339408
2.871882187954085
-0.769889213695606
0.12270470928102356
2.865237779995436
-0.769889213695606
0.12270470928102356
2.865237779995436
-0.769889213695606
0.12270470928102356
2.865237779995436
-0.769889213695606
0.12270470928102356
2.865237779995436
-0.794997589100659
0.1197422049981787
2.8581830010767693
-0.794997589100659
0.1197422049981787
2.8581830010767693
-0.794997589100659
0.1197422049981787
2.8581830010767693
-0.794997589100659
0.1197422049981787
2.8581830010767693
-0.8101218965931705
0.11626005308673652
2.850658474258431
-0.8101218965931705
0.11626005308673652
2.850658474258431
-0.8101218965931705
0.11626005308673652
2.850658474258431
-0.8101218965931705
0.11626005308673652
2.850658474258431
-0.8291378215094877
0.1139428514418555
2.8434575053246127
-0.8291378215094877
0.1139428514418555
2.8434575053246127
-0.8291378215094877
0.1139428514418555
2.8434575053246127
-0.8291378215094877
0.1139428514418555
2.8434575053246127
-0.8504565812477478
0.11495207966490141
2.837634466134123
-0.8504565812477478
0.11495207966490141
2.837634466134123
-0.8504565812477478
0.11495207966490141
2.837634466134123
-0.8504565812477478
0.11495207966490141
2.837634466134123
-0.8689188888900747
0.11701604737011359
2.831732462023741
-0.8689188888900747
0.11701604737011359
2.831732462023741
-0.8689188888900747
0.11701604737011359
2.831732462023741
-0.8689188888900747
0.11701604737011359
2.831732462023741
-0.8843959899002038
0.11742761628593466
2.82540853949023
-0.8843959899002038
0.11742761628593466
2.82540853949023
-0.8843959899002038
0.11742761628593466
2.82540853949023
-0.8843959899002038
0.11742761628593466
2.82540853949023
-0.9002040252738083
0.11713656110208691
2.8193125168282522
-0.9002040252738083
0.11713656110208691
2.8193125168282522
-0.9002040252738083
0.11713656110208691
2.8193125168282522
-0.9002040252738083
0.11713656110208691
2.8193125168282522
-0.9145853042663286
0.11809115382118826
2.8138357798372122
-0.9145853042663286
0.11809115382118826
2.8138357798372122
-0.9145853042663286
0.11809115382118826
2.8138357798372122
-0.9145853042663286
0.11809115382118826
2.8138357798372122
-0.9244547935094891
0.11988250866630094
2.809487843101418
-0.9244547935094891
0.11988250866630094
2.809487843101418
-0.9244547935094891
0.11988250866630094
2.809487843101418
-0.9244547935094891
0.11988250866630094
2.809487843101418
-0.9305365964757749
0.12033549443536354
2.80644269292183
-0.9305365964757749
0.12033549443536354
2.80644269292183
-0.9305365964757749
0.12033549443536354
2.80644269292183
-0.9305365964757749
0.12033549443536354
2.80644269292183
-0.9368067234083053
0.11995506359369243
2.8035224808425574
-0.9368067234083053
0.11995506359369243
2.8035224808425574
-0.9368067234083053
0.11995506359369243
2.8035224808425574
-0.9368067234083053
0.11995506359369243
2.8035224808425574
-0.9441052679688593
0.11982831685381276
2.800855221274092
-0.9441052679688593
0.11982831685381276
2.800855221274092
-0.9441052679688593
0.11982831685381276
2.800855221274092
-0.9441052679688593
0.11982831685381276
2.800855221274092
-0.9501702544028983
0.12139770947304544
2.7987189634491245
-0.9501702544028983
0.12139770947304544
2.7987189634491245
-0.9501702544028983
0.12139770947304544
2.7987189634491245
-0.9501702544028983
0.12139770947304544
2.7987189634491245
-0.954591506523815
0.12301828724836456
2.797348069578784
-0.954591506523815
0.12301828724836456
2.797348069578784
-0.954591506523815
0.12301828724836456
2.797348069578784
-0.954591506523815
0.12301828724836456
2.797348069578784
-0.9580547803697267
0.12380191190247361
2.796555647710654
-0.9580547803697267
0.12380191190247361
2.796555647710654
-0.9580547803697267
0.12380191190247361
2.796555647710654
-0.9580547803697267
0.12380191190247361
2.796555647710654
-0.9603320384501044
0.12479646252627985
2.796658142014507
-0.9603320384501044
0.12479646252627985
2.796658142014507
-0.9603320384501044
0.12479646252627985
2.796658142014507
-0.9603320384501044
0.12479646252627985
2.796658142014507
-0.9648194107626038
0.1269108943724353
2.797362097073832
-0.9648194107626038
0.1269108943724353
2.797362097073832
-0.9648194107626038
0.1269108943724353
2.797362097073832
-0.9648194107626038
0.1269108943724353
2.797362097073832
-0.9709520076533981
0.12963221690019017
2.797468511851775
-0.9709520076533981
0.12963221690019017
2.797468511851775
-0.9709520076533981
0.12963221690019017
2.797468511851775
-0.9709520076533981
0.12963221690019017
2.797468511851775
-0.9759177434018669
0.13304624397829362
2.79695296157378
-0.9759177434018669
0.13304624397829362
2.79695296157378
-0.9759177434018669
0.13304624397829362
2.79695296157378
-0.9759177434018669
0.13304624397829362
2.79695296157378
-0.9795591634644104
0.13506429231975942
2.79527902191692
-0.9795591634644104
0.13506429231975942
2.79527902191692
-0.9795591634644104
0.13506429231975942
2.79527902191692
-0.9795591634644104
0.13506429231975942
2.79527902191692
-0.9829583998755482
0.13735712096921418
2.794605168563107
-0.9829583998755482
0.13735712096921418
2.794605168563107
-0.9829583998755482
0.13735712096921418
2.794605168563107
-0.9829583998755482
0.13735712096921418
2.794605168563107
-0.9861199463019082
0.13881063264222857
2.794415048333237
-0.9861199463019082
0.13881063264222857
2.794415048333237
-0.9861199463019082
0.13881063264222857
2.794415048333237
-0.9861199463019082
0.13881063264222857
2.794415048333237
-0.9881760241254606
0.13889761296699488
2.794602338257343
-0.9881760241254606
0.13889761296699488
2.794602338257343
-0.9881760241254606
0.13889761296699488
2.794602338257343
-0.9881760241254606
0.13889761296699488
2.794602338257343
-0.9900830106340535
0.13872420040206268
2.7939614908506623
-0.9900830106340535
0.13872420040206268
2.7939614908506623
-0.9900830106340535
0.13872420040206268
2.7939614908506623
-0.9900830106340535
0.13872420040206268
2.7939614908506623
-0.9931298556176681
0.1399648251440543
2.7933380793333127
-0.9931298556176681
0.1399648251440543
2.7933380793333127
-0.9931298556176681
0.1399648251440543
2.7933380793333127
-0.9931298556176681
0.1399648251440543
2.7933380793333127
-0.9951880341210234
0.14311104634831506
2.7933725551678674
-0.9951880341210234
0.14311104634831506
2.7933725551678674
-0.9951880341210234
0.14311104634831506
2.7933725551678674
-0.9951880341210234
0.14311104634831506
2.7933725551678674
-0.9952100635887395
0.1437203344762797
2.7937465796025407
-0.9952100635887395
0.1437203344762797
2.7937465796025407
-0.9952100635887395
0.1437203344762797
2.7937465796025407
-0.9952100635887395
0.1437203344762797
2.7937465796025407
-0.9953749854159747
0.14369522693705153
2.793726208829821
-0.9953749854159747
0.14369522693705153
2.793726208829821
-0.9953749854159747
0.14369522693705153
2.793726208829821
-0.9953749854159747
0.14369522693705153
2.793726208829821
-0.9995152582709312
0.14491881510865312
2.793336697043231
-0.9995152582709312
0.14491881510865312
2.793336697043231
-0.9995152582709312
0.14491881510865312
2.793336697043231
-0.9995152582709312
0.14491881510865312
2.793336697043231
-1.00407293154804
0.14689620775828421
2.7928823181389983
-1.00407293154804
0.14689620775828421
2.7928823181389983
-1.00407293154804
0.14689620775828421
2.7928823181389983
-1.00407293154804
0.14689620775828421
2.7928823181389983
-1.0063780035382015
0.14686014608551443
2.7918034918405086
-1.0063780035382015
0.14686014608551443
2.7918034918405086
-1.0063780035382015
0.14686014608551443
2.7918034918405086
-1.0063780035382015
0.14686014608551443
2.7918034918405086
-1.0072110609729192
0.14729679907133633
2.7907155161769746
-1.0072110609729192
0.14729679907133633
2.7907155161769746
-1.0072110609729192
0.14729679907133633
2.7907155161769746
-1.0072110609729192
0.14729679907133633
2.7907155161769746
-1.0131848691947078
0.1484885449589694
2.7910039713999812
-1.0131848691947078
0.1484885449589694
2.7910039713999812
-1.0131848691947078
0.1484885449589694
2.7910039713999812
-1.0131848691947078
0.1484885449589694
2.7910039713999812
-1.01897016198564
0.1518163619036987
2.79220829559757
-1.01897016198564
0.1518163619036987
2.79220829559757
-1.01897016198564
0.1518163619036987
2.79220829559757
-1.01897016198564
0.1518163619036987
2.79220829559757
-1.022078462839559
0.1546809156382769
2.7924455507469776
-1.022078462839559
0.1546809156382769
2.7924455507469776
-1.022078462839559
0.1546809156382769
2.7924455507469776
-1.022078462839559
0.1546809156382769
2.7924455507469776
-1.0213825352148393
0.15534428027195782
2.7921981008554124
-1.0213825352148393
0.15534428027195782
2.7921981008554124
-1.0213825352148393
0.15534428027195782
2.7921981008554124
-1.0213825352148393
0.15534428027195782
2.7921981008554124
-1.020618992202679
0.15575645943199595
2.7922382926080336
-1.020618992202679
0.15575645943199595
2.7922382926080336
-1.020618992202679
0.15575645943199595
2.7922382926080336
-1.020618992202679
0.15575645943199595
2.7922382926080336
-1.0233542612030033
0.15525710738428325
2.7930301736449024
-1.0233542612030033
0.15525710738428325
2.7930301736449024
-1.0233542612030033
0.15525710738428325
2.7930301736449024
-1.0233542612030033
0.15525710738428325
2.7930301736449024
-1.0263187280619994
0.1550324748639612
2.793052463990384
-1.0263187280619994
0.1550324748639612
2.793052463990384
-1.0263187280619994
0.1550324748639612
2.793052463990384
-1.0263187280619994
0.1550324748639612
2.793052463990384
-1.0263931636406678
0.15570349518954477
2.792247507938278
-1.0263931636406678
0.15570349518954477
2.792247507938278
-1.0263931636406678
0.15570349518954477
2.792247507938278
-1.0263931636406678
0.15570349518954477
2.792247507938278
-1.027343468311793
0.15702622182769213
2.791745117110861
-1.027343468311793
0.15702622182769213
2.791745117110861
-1.027343468311793
0.15702622182769213
2.791745117110861
-1.027343468311793
0.15702622182769213
2.791745117110861
-1.0293793216016969
0.15860916384009213
2.792736617953071
-1.0293793216016969
0.15860916384009213
2.792736617953071
-1.0293793216016969
0.15860916384009213
2.792736617953071
-1.0293793216016969
0.15860916384009213
2.792736617953071
-1.0310234382396386
0.15886444577885458
2.793565072969423
-1.0310234382396386
0.15886444577885458
2.793565072969423
-1.0310234382396386
0.15886444577885458
2.793565072969423
-1.0310234382396386
0.15886444577885458
2.793565072969423
-1.0310382797605473
0.15872572491338163
2.793084718286485
-1.0310382797605473
0.15872572491338163
2.793084718286485
-1.0310382797605473
0.15872572491338163
2.793084718286485
-1.0310382797605473
0.15872572491338163
2.793084718286485
-1.030297620987593
0.15860870143502426
2.7924287121823714
-1.030297620987593
0.15860870143502426
2.7924287121823714
-1.030297620987593
0.15860870143502426
2.7924287121823714
-1.030297620987593
0.15860870143502426
2.7924287121823714
-1.0299246488112896
0.15800119001297283
2.79227367025715
-1.0299246488112896
0.15800119001297283
2.79227367025715
-1.0299246488112896
0.15800119001297283
2.79227367025715
-1.0299246488112896
0.15800119001297283
2.79227367025715
-1.0326555803874566
0.15836093305314686
2.7922987017241243
-1.0326555803874566
0.15836093305314686
2.7922987017241243
-1.0326555803874566
0.15836093305314686
2.7922987017241243
-1.0326555803874566
0.15836093305314686
2.7922987017241243
-1.0352628826422363
0.15876201772304638
2.7925912976548664
-1.0352628826422363
0.15876201772304638
2.7925912976548664
-1.0352628826422363
0.15876201772304638
2.7925912976548664
-1.0352628826422363
0.15876201772304638
2.7925912976548664
-1.0350869214119887
0.15791025416334079
2.791561352731504
-1.0350869214119887
0.15791025416334079
2.791561352731504
-1.0350869214119887
0.15791025416334079
2.791561352731504
-1.0350869214119887
0.15791025416334079
2.791561352731504
-1.0339399402574152
0.15626582336576514
2.7898660790274072
-1.0339399402574152
0.15626582336576514
2.7898660790274072
-1.0339399402574152
0.15626582336576514
2.7898660790274072
-1.0339399402574152
0.15626582336576514
2.7898660790274072
-1.035012478979834
0.1552549042496008
2.7888454492724115
-1.035012478979834
0.1552549042496008
2.7888454492724115
-1.035012478979834
0.1552549042496008
2.7888454492724115
-1.035012478979834
0.1552549042496008
2.7888454492724115
-1.0381280445213872
0.15520753728574233
2.788748323251676
-1.0381280445213872
0.15520753728574233
2.788748323251676
-1.0381280445213872
0.15520753728574233
2.788748323251676
-1.0381280445213872
0.15520753728574233
2.788748323251676
-1.040414264367777
0.1539660019023319
2.7886407077987694
-1.040414264367777
0.1539660019023319
2.7886407077987694
-1.040414264367777
0.1539660019023319
2.7886407077987694
-1.040414264367777
0.1539660019023319
2.7886407077987694
-1.0407204094067313
0.1537503801852338
2.788556516796982
-1.0407204094067313
0.1537503801852338
2.788556516796982
-1.0407204094067313
0.1537503801852338
2.788556516796982
-1.0407204094067313
0.1537503801852338
2.788556516796982
-1.042067366599073
0.15406356762190632
2.7884249350666934
-1.042067366599073
0.15406356762190632
2.7884249350666934
-1.042067366599073
0.15406356762190632
2.7884249350666934
-1.042067366599073
0.15406356762190632
2.7884249350666934
-1.0418002862426599
0.1547486938656744
2.7890732881395297
-1.0418002862426599
0.1547486938656744
2.7890732881395297
-1.0418002862426599
0.1547486938656744
2.7890732881395297
-1.0418002862426599
0.1547486938656744
2.7890732881395297
-1.0418219020503927
0.15387761285788787
2.7895728667822435
-1.0418219020503927
0.15387761285788787
2.7895728667822435
-1.0418219020503927
0.15387761285788787
2.7895728667822435
-1.0418219020503927
0.15387761285788787
2.7895728667822435
-1.0426983577462137
0.15436523136624514
2.7901252154369987
-1.0426983577462137
0.15436523136624514
2.7901252154369987
-1.0426983577462137
0.15436523136624514
2.7901252154369987
-1.0426983577462137
0.15436523136624514
2.7901252154369987
-1.044220864022533
0.15615424032764896
2.791081473067657
-1.044220864022533
0.15615424032764896
2.791081473067657
-1.044220864022533
0.15615424032764896
2.791081473067657
-1.044220864022533
0.15615424032764896
2.791081473067657
-1.0421231591120097
0.1557122978888911
2.791858774622972
-1.0421231591120097
0.1557122978888911
2.791858774622972
-1.0421231591120097
0.1557122978888911
2.791858774622972
-1.0421231591120097
0.1557122978888911
2.791858774622972
-1.038356863398035
0.15335796778731398
2.7918993283131295
-1.038356863398035
0.15335796778731398
2.7918993283131295
-1.038356863398035
0.15335796778731398
2.7918993283131295
-1.038356863398035
0.15335796778731398
2.7918993283131295
-1.0373581489656074
0.15406022292465485
2.792667833096969
-1.0373581489656074
0.15406022292465485
2.792667833096969
-1.0373581489656074
0.15406022292465485
2.792667833096969
-1.0373581489656074
0.15406022292465485
2.792667833096969
-1.037588141522561
0.15587635943509617
2.794414677760266
-1.037588141522561
0.15587635943509617
2.794414677760266
-1.037588141522561
0.15587635943509617
2.794414677760266
-1.037588141522561
0.15587635943509617
2.794414677760266
-1.0341636385323576
0.15824291154685793
2.7957817457500673
-1.0341636385323576
0.15824291154685793
2.7957817457500673
-1.0341636385323576
0.15824291154685793
2.7957817457500673
-1.0341636385323576
0.15824291154685793
2.7957817457500673
-1.0249096872800272
0.16055598863159004
2.7962426854979987
-1.0249096872800272
0.16055598863159004
2.7962426854979987
-1.0249096872800272
0.16055598863159004
2.7962426854979987
-1.0249096872800272
0.16055598863159004
2.7962426854979987
-1.0058722509580915
0.16153677285881202
2.7984616781840836
-1.0058722509580915
0.16153677285881202
2.7984616781840836
-1.0058722509580915
0.16153677285881202
2.7984616781840836
-1.0058722509580915
0.16153677285881202
2.7984616781840836
-0.979756624445763
0.1578476155639735
2.8012104729403866
-0.979756624445763
0.1578476155639735
2.8012104729403866
-0.979756624445763
0.1578476155639735
2.8012104729403866
-0.979756624445763
0.1578476155639735
2.8012104729403866
-0.948492413384841
0.15409843768876527
2.806877256701713
-0.948492413384841
0.15409843768876527
2.806877256701713
-0.948492413384841
0.15409843768876527
2.806877256701713
-0.948492413384841
0.15409843768876527
2.806877256701713
-0.9226838332486351
0.15010560709736656
2.8155300120382796
-0.9226838332486351
0.15010560709736656
2.8155300120382796
-0.9226838332486351
0.15010560709736656
2.8155300120382796
-0.9226838332486351
0.15010560709736656
2.8155300120382796
-0.9008334588512315
0.14737895188306388
2.8246335347530986
-0.9008334588512315
0.14737895188306388
2.8246335347530986
-0.9008334588512315
0.14737895188306388
2.8246335347530986
-0.9008334588512315
0.14737895188306388
2.8246335347530986
-0.8753801616878356
0.1453275119692299
2.8336090472081885
-0.8753801616878356
0.1453275119692299
2.8336090472081885
-0.8753801616878356
0.1453275119692299
2.8336090472081885
-0.8753801616878356
0.1453275119692299
2.8336090472081885
-0.8355280688500435
0.14287339267714466
2.843086061285506
-0.8355280688500435
0.14287339267714466
2.843086061285506
-0.8355280688500435
0.14287339267714466
2.843086061285506
-0.8355280688500435
0.14287339267714466
2.843086061285506
-0.7841572492925923
0.1394015939791718
2.853190700271381
-0.7841572492925923
0.1394015939791718
2.853190700271381
-0.7841572492925923
0.1394015939791718
2.853190700271381
-0.7841572492925923
0.1394015939791718
2.853190700271381
-0.7259414661747293
0.1322308330919796
2.864114802102751
-0.7259414661747293
0.1322308330919796
2.864114802102751
-0.7259414661747293
0.1322308330919796
2.864114802102751
-0.7259414661747293
0.1322308330919796
2.864114802102751
-0.6659336334910365
0.12362931145201529
2.875916458549095
-0.6659336334910365
0.12362931145201529
2.875916458549095
-0.6659336334910365
0.12362931145201529
2.875916458549095
-0.6659336334910365
0.12362931145201529
2.875916458549095
-0.6095773982348116
0.1136771447302944
2.8890527479010726
-0.6095773982348116
0.1136771447302944
2.8890527479010726
-0.6095773982348116
0.1136771447302944
2.8890527479010726
-0.6095773982348116
0.1136771447302944
2.8890527479010726
-0.5594225569316663
0.10275246375121694
2.900063768957201
-0.5594225569316663
0.10275246375121694
2.900063768957201
-0.5594225569316663
0.10275246375121694
2.900063768957201
-0.5594225569316663
0.10275246375121694
2.900063768957201
-0.52055155395584
0.09321732433264904
2.907724783715088
-0.52055155395584
0.09321732433264904
2.907724783715088
-0.52055155395584
0.09321732433264904
2.907724783715088
-0.52055155395584
0.09321732433264904
2.907724783715088
-0.4911807140856431
0.0846178884709281
2.9107822476333776
-0.4911807140856431
0.0846178884709281
2.9107822476333776
-0.4911807140856431
0.0846178884709281
2.9107822476333776
-0.4911807140856431
0.0846178884709281
2.9107822476333776
-0.46421401622607283
0.07762550570296459
2.9131074785265993
-0.46421401622607283
0.07762550570296459
2.9131074785265993
-0.46421401622607283
0.07762550570296459
2.9131074785265993
-0.46421401622607283
0.07762550570296459
2.9131074785265993
-0.43078630455377676
0.06829972197377936
2.915960870726125
-0.43078630455377676
0.06829972197377936
2.915960870726125
-0.43078630455377676
0.06829972197377936
2.915960870726125
-0.43078630455377676
0.06829972197377936
2.915960870726125
-0.3939520405311276
0.0577529092954253
2.917096957644335
-0.3939520405311276
0.0577529092954253
2.917096957644335
-0.3939520405311276
0.0577529092954253
2.917096957644335
-0.3939520405311276
0.0577529092954253
2.917096957644335
-0.36784250473462266
0.046640062595262856
2.917648704365765
-0.36784250473462266
0.046640062595262856
2.917648704365765
-0.36784250473462266
0.046640062595262856
2.917648704365765
-0.36784250473462266
0.046640062595262856
2.917648704365765
-0.364270765100117
0.036317034329408526
2.9178522662890756
-0.364270765100117
0.036317034329408526
2.9178522662890756
-0.364270765100117
0.036317034329408526
2.9178522662890756
-0.364270765100117
0.036317034329408526
2.9178522662890756
-0.3687050263273196
0.028413537416071583
2.9182982585474955
-0.3687050263273196
0.028413537416071583
2.9182982585474955
-0.3687050263273196
0.028413537416071583
2.9182982585474955
-0.3687050263273196
0.028413537416071583
2.9182982585474955
-0.3718638519783661
0.02439233077976204
2.918693816394919
-0.3718638519783661
0.02439233077976204
2.918693816394919
-0.3718638519783661
0.02439233077976204
2.918693816394919
-0.3718638519783661
0.02439233077976204
2.918693816394919
-0.3734932463910972
0.022398605156931314
2.9190229300446053
-0.3734932463910972
0.022398605156931314
2.9190229300446053
-0.3734932463910972
0.022398605156931314
2.9190229300446053
-0.3734932463910972
0.022398605156931314
2.9190229300446053
-0.37638679015147297
0.022695281052769436
2.91961986319955
-0.37638679015147297
0.022695281052769436
2.91961986319955
-0.37638679015147297
0.022695281052769436
2.91961986319955
-0.37638679015147297
0.022695281052769436
2.91961986319955
-0.3773456965741702
0.02326711414273583
2.9192252935561345
-0.3773456965741702
0.02326711414273583
2.9192252935561345
-0.3773456965741702
0.02326711414273583
2.9192252935561345
-0.3773456965741702
0.02326711414273583
2.9192252935561345
-0.3771692699539224
0.024078824360689113
2.9194566171621705
-0.3771692699539224
0.024078824360689113
2.9194566171621705
-0.3771692699539224
0.024078824360689113
2.9194566171621705
-0.3771692699539224
0.024078824360689113
2.9194566171621705
-0.37656739351825386
0.02433546462259634
2.9197993221364147
-0.37656739351825386
0.02433546462259634
2.9197993221364147
-0.37656739351825386
0.02433546462259634
2.9197993221364147
-0.37656739351825386
0.02433546462259634
2.9197993221364147
-0.3771692699539224
0.024078824360689113
2.9194566171621705
-0.3771692699539224
0.024078824360689113
2.9194566171621705
-0.3771692699539224
0.024078824360689113
2.9194566171621705
-0.3771692699539224
0.024078824360689113
2.9194566171621705
-0.3801559801640399
0.024859876976081642
2.918707257372427
-0.3801559801640399
0.024859876976081642
2.918707257372427
-0.3801559801640399
0.024859876976081642
2.918707257372427
-0.3801559801640399
0.024859876976081642
2.918707257372427
-0.3850581926466763
0.026000044563286456
2.9183134421265002
-0.3850581926466763
0.026000044563286456
2.9183134421265002
-0.3850581926466763
0.026000044563286456
2.9183134421265002
-0.3850581926466763
0.026000044563286456
2.9183134421265002
-0.3920404068028666
0.02675985393073858
2.9177954648262556
-0.3920404068028666
0.02675985393073858
2.9177954648262556
-0.3920404068028666
0.02675985393073858
2.9177954648262556
-0.3920404068028666
0.02675985393073858
2.9177954648262556
-0.40221501009696925
0.028867853275209302
2.9169930727883586
-0.40221501009696925
0.028867853275209302
2.9169930727883586
-0.40221501009696925
0.028867853275209302
2.9169930727883586
-0.40221501009696925
0.028867853275209302
2.9169930727883586
-0.4143611803937729
0.032524602977101434
2.915631499273201
-0.4143611803937729
0.032524602977101434
2.915631499273201
-0.4143611803937729
0.032524602977101434
2.915631499273201
-0.4143611803937729
0.032524602977101434
2.915631499273201
-0.4271877310020249
0.036381723356471204
2.9143865228498176
-0.4271877310020249
0.036381723356471204
2.9143865228498176
-0.4271877310020249
0.036381723356471204
2.9143865228498176
-0.4271877310020249
0.036381723356471204
2.9143865228498176
-0.4390402132077634
0.040852341738890276
2.9137592188491257
-0.4390402132077634
0.040852341738890276
2.9137592188491257
-0.4390402132077634
0.040852341738890276
2.9137592188491257
-0.4390402132077634
0.040852341738890276
2.9137592188491257
-0.45272129114232196
0.0458342763366972
2.913981967162325
-0.45272129114232196
0.0458342763366972
2.913981967162325
-0.45272129114232196
0.0458342763366972
2.913981967162325
-0.45272129114232196
0.0458342763366972
2.913981967162325
-0.47132557352029397
0.05232245711110766
2.9136193065633265
-0.47132557352029397
0.05232245711110766
2.9136193065633265
-0.47132557352029397
0.05232245711110766
2.9136193065633265
-0.47132557352029397
0.05232245711110766
2.9136193065633265
-0.49237806934550676
0.06067329766662023
2.912508367952691
-0.49237806934550676
0.06067329766662023
2.912508367952691
-0.49237806934550676
0.06067329766662023
2.912508367952691
-0.49237806934550676
0.06067329766662023
2.912508367952691
-0.5161813117896984
0.07041685773425359
2.9103734802432237
-0.5161813117896984
0.07041685773425359
2.9103734802432237
-0.5161813117896984
0.07041685773425359
2.9103734802432237
-0.5161813117896984
0.07041685773425359
2.9103734802432237
-0.5447094856691683
0.08084064249877346
2.907297199888785
-0.5447094856691683
0.08084064249877346
2.907297199888785
-0.5447094856691683
0.08084064249877346
2.907297199888785
-0.5447094856691683
0.08084064249877346
2.907297199888785
-0.5835854995766445
0.09121024548646436
2.903289819189687
-0.5835854995766445
0.09121024548646436
2.903289819189687
-0.5835854995766445
0.09121024548646436
2.903289819189687
-0.5835854995766445
0.09121024548646436
2.903289819189687
-0.6295773368804122
0.10134239955502213
2.898296820276313
-0.6295773368804122
0.10134239955502213
2.898296820276313
-0.6295773368804122
0.10134239955502213
2.898296820276313
-0.6295773368804122
0.10134239955502213
2.898296820276313
-0.6820964773097995
0.11197700989725672
2.8902539877940194
-0.6820964773097995
0.11197700989725672
2.8902539877940194
-0.6820964773097995
0.11197700989725672
2.8902539877940194
-0.6820964773097995
0.11197700989725672
2.8902539877940194
-0.7445708052003331
0.12165151896850937
2.8812757680504433
-0.7445708052003331
0.12165151896850937
2.8812757680504433
-0.7445708052003331
0.12165151896850937
2.8812757680504433
-0.7445708052003331
0.12165151896850937
2.8812757680504433
-0.8121812933804818
0.12970965954808794
2.8734509828094392
-0.8121812933804818
0.12970965954808794
2.8734509828094392
-0.8121812933804818
0.12970965954808794
2.8734509828094392
-0.8121812933804818
0.12970965954808794
2.8734509828094392
-0.8656615644824598
0.1334428088292664
2.8651385248848453
-0.8656615644824598
0.1334428088292664
2.8651385248848453
-0.8656615644824598
0.1334428088292664
2.8651385248848453
-0.8656615644824598
0.1334428088292664
2.8651385248848453
-0.8864821714440559
0.13357491727294854
2.857015152323183
-0.8864821714440559
0.13357491727294854
2.857015152323183
-0.8864821714440559
0.13357491727294854
2.857015152323183
-0.8864821714440559
0.13357491727294854
2.857015152323183
-0.8868943448037943
0.13070756052447563
2.849214354244634
-0.8868943448037943
0.13070756052447563
2.849214354244634
-0.8868943448037943
0.13070756052447563
2.849214354244634
-0.8868943448037943
0.13070756052447563
2.849214354244634
-0.8947869462030346
0.13290437505733516
2.8450348170830018
-0.8947869462030346
0.13290437505733516
2.8450348170830018
-0.8947869462030346
0.13290437505733516
2.8450348170830018
-0.8947869462030346
0.13290437505733516
2.8450348170830018
-0.9158554411462849
0.13846728957581605
2.8427498039073344
-0.9158554411462849
0.13846728957581605
2.8427498039073344
-0.9158554411462849
0.13846728957581605
2.8427498039073344
-0.9158554411462849
0.13846728957581605
2.8427498039073344
-0.9329198157784614
0.1438855749320695
2.8400082512727605
-0.9329198157784614
0.1438855749320695
2.8400082512727605
-0.9329198157784614
0.1438855749320695
2.8400082512727605
-0.9329198157784614
0.1438855749320695
2.8400082512727605
-0.9410887567292531
0.14693177186837358
2.8354244619845534
-0.9410887567292531
0.14693177186837358
2.8354244619845534
-0.9410887567292531
0.14693177186837358
2.8354244619845534
-0.9410887567292531
0.14693177186837358
2.8354244619845534
-0.9474100209452558
0.1493977092823612
2.832353685990128
-0.9474100209452558
0.1493977092823612
2.832353685990128
-0.9474100209452558
0.1493977092823612
2.832353685990128
-0.9474100209452558
0.1493977092823612
2.832353685990128
-0.9546092456139516
0.15233136021952345
2.8326067036244007
-0.9546092456139516
0.15233136021952345
2.8326067036244007
-0.9546092456139516
0.15233136021952345
2.8326067036244007
-0.9546092456139516
0.15233136021952345
2.8326067036244007
-0.9606592876763377
0.15356117727271473
2.8328110502703217
-0.9606592876763377
0.15356117727271473
2.8328110502703217
-0.9606592876763377
0.15356117727271473
2.8328110502703217
-0.9606592876763377
0.15356117727271473
2.8328110502703217
-0.9637469448761529
0.15351638462120834
2.83152091320294
-0.9637469448761529
0.15351638462120834
2.83152091320294
-0.9637469448761529
0.15351638462120834
2.83152091320294
-0.9637469448761529
0.15351638462120834
2.83152091320294
-0.9686409573530465
0.15252012098792597
2.8293289354395825
-0.9686409573530465
0.15252012098792597
2.8293289354395825
-0.9686409573530465
0.15252012098792597
2.8293289354395825
-0.9686409573530465
0.15252012098792597
2.8293289354395825
-0.973649153466126
0.15351722025357276
2.8296720069598824
-0.973649153466126
0.15351722025357276
2.8296720069598824
-0.973649153466126
0.15351722025357276
2.8296720069598824
-0.973649153466126
0.15351722025357276
2.8296720069598824
-0.9805655919874854
0.15679826328634466
2.8320997550391733
-0.9805655919874854
0.15679826328634466
2.8320997550391733
-0.9805655919874854
0.15679826328634466
2.8320997550391733
-0.9805655919874854
0.15679826328634466
2.8320997550391733
-0.98221230622228
0.1574141836822203
2.8341440531967304
-0.98221230622228
0.1574141836822203
2.8341440531967304
-0.98221230622228
0.1574141836822203
2.8341440531967304
-0.98221230622228
0.1574141836822203
2.8341440531967304
-0.9808086155194895
0.15524942942535386
2.8342837951957125
-0.9808086155194895
0.15524942942535386
2.8342837951957125
-0.9808086155194895
0.15524942942535386
2.8342837951957125
-0.9808086155194895
0.15524942942535386
2.8342837951957125
-0.9827525254499602
0.15227794790768753
2.8339236176414895
-0.9827525254499602
0.15227794790768753
2.8339236176414895
-0.9827525254499602
0.15227794790768753
2.8339236176414895
-0.9827525254499602
0.15227794790768753
2.8339236176414895
-0.9885567038226433
0.1519631626962922
2.834852061108371
-0.9885567038226433
0.1519631626962922
2.834852061108371
-0.9885567038226433
0.1519631626962922
2.834852061108371
-0.9885567038226433
0.1519631626962922
2.834852061108371
-0.9933503576651197
0.15169218547399727
2.8353540105239827
-0.9933503576651197
0.15169218547399727
2.8353540105239827
-0.9933503576651197
0.15169218547399727
2.8353540105239827
-0.9933503576651197
0.15169218547399727
2.8353540105239827
-0.992031009884241
0.14928454930705734
2.8353490400472596
-0.992031009884241
0.14928454930705734
2.8353490400472596
-0.992031009884241
0.14928454930705734
2.8353490400472596
-0.992031009884241
0.14928454930705734
2.8353490400472596
-0.9906220494886759
0.14797326344747305
2.8365662061165
-0.9906220494886759
0.14797326344747305
2.8365662061165
-0.9906220494886759
0.14797326344747305
2.8365662061165
-0.9906220494886759
0.14797326344747305
2.8365662061165
-0.9917400073878557
0.14779287145852643
2.8388749927233707
-0.9917400073878557
0.14779287145852643
2.8388749927233707
-0.9917400073878557
0.14779287145852643
2.8388749927233707
-0.9917400073878557
0.14779287145852643
2.8388749927233707
-0.9933321259759711
0.1467277784950662
2.8390713085840007
-0.9933321259759711
0.1467277784950662
2.8390713085840007
-0.9933321259759711
0.1467277784950662
2.8390713085840007
-0.9933321259759711
0.1467277784950662
2.8390713085840007
-0.9947151100540723
0.14703646243113955
2.837572530546993
-0.9947151100540723
0.14703646243113955
2.837572530546993
-0.9947151100540723
0.14703646243113955
2.837572530546993
-0.9947151100540723
0.14703646243113955
2.837572530546993
-0.9960390127530017
0.1478670735513601
2.836484665096656
-0.9960390127530017
0.1478670735513601
2.836484665096656
-0.9960390127530017
0.1478670735513601
2.836484665096656
-0.9960390127530017
0.1478670735513601
2.836484665096656
-0.9970123890818702
0.14713291878113902
2.837437595558637
-0.9970123890818702
0.14713291878113902
2.837437595558637
-0.9970123890818702
0.14713291878113902
2.837437595558637
-0.9970123890818702
0.14713291878113902
2.837437595558637
-0.9959727538044709
0.14569725106171907
2.8379674678267377
-0.9959727538044709
0.14569725106171907
2.8379674678267377
-0.9959727538044709
0.14569725106171907
2.8379674678267377
-0.9959727538044709
0.14569725106171907
2.8379674678267377
-0.996498970214929
0.14496278766371937
2.8382876805660575
-0.996498970214929
0.14496278766371937
2.8382876805660575
-0.996498970214929
0.14496278766371937
2.8382876805660575
-0.996498970214929
0.14496278766371937
2.8382876805660575
-0.9977331129399929
0.1464289703988047
2.8381378908365797
-0.9977331129399929
0.1464289703988047
2.8381378908365797
-0.9977331129399929
0.1464289703988047
2.8381378908365797
-0.9977331129399929
0.1464289703988047
2.8381378908365797
-0.9987306393002279
0.14759542128975198
2.8376191588976263
-0.9987306393002279
0.14759542128975198
2.8376191588976263
-0.9987306393002279
0.14759542128975198
2.8376191588976263
-0.9987306393002279
0.14759542128975198
2.8376191588976263
-0.9971237690445911
0.14884977678623987
2.838010897046337
-0.9971237690445911
0.14884977678623987
2.838010897046337
-0.9971237690445911
0.14884977678623987
2.838010897046337
-0.9971237690445911
0.14884977678623987
2.838010897046337
-0.9983010467889528
0.149572810346688
2.8385472224056727
-0.9983010467889528
0.149572810346688
2.8385472224056727
-0.9983010467889528
0.149572810346688
2.8385472224056727
-0.9983010467889528
0.149572810346688
2.8385472224056727
-1.00108734879309
0.15132593676305706
2.8389611709624614
-1.00108734879309
0.15132593676305706
2.8389611709624614
-1.00108734879309
0.15132593676305706
2.8389611709624614
-1.00108734879309
0.15132593676305706
2.8389611709624614
-1.0001501010546279
0.15165712323108674
2.8375167164328143
-1.0001501010546279
0.15165712323108674
2.8375167164328143
-1.0001501010546279
0.15165712323108674
2.8375167164328143
-1.0001501010546279
0.15165712323108674
2.8375167164328143
-0.9985448157663339
0.1529094394445783
2.8358195523229397
-0.9985448157663339
0.1529094394445783
2.8358195523229397
-0.9985448157663339
0.1529094394445783
2.8358195523229397
-0.9985448157663339
0.1529094394445783
2.8358195523229397
-1.0013896455378823
0.15436311315815535
2.835676884120748
-1.0013896455378823
0.15436311315815535
2.835676884120748
-1.0013896455378823
0.15436311315815535
2.835676884120748
-1.0013896455378823
0.15436311315815535
2.835676884120748
-1.0034027311368234
0.15560880363716753
2.835790153783795
-1.0034027311368234
0.15560880363716753
2.835790153783795
-1.0034027311368234
0.15560880363716753
2.835790153783795
-1.0034027311368234
0.15560880363716753
2.835790153783795
-1.0023713278412023
0.15548164866617759
2.8353172998125613
-1.0023713278412023
0.15548164866617759
2.8353172998125613
-1.0023713278412023
0.15548164866617759
2.8353172998125613
-1.0023713278412023
0.15548164866617759
2.8353172998125613
-1.0023209826783561
0.15462249179960075
2.83427017533672
-1.0023209826783561
0.15462249179960075
2.83427017533672
-1.0023209826783561
0.15462249179960075
2.83427017533672
-1.0023209826783561
0.15462249179960075
2.83427017533672
-1.0053319824861044
0.15647793096758353
2.8335892694051745
-1.0053319824861044
0.15647793096758353
2.8335892694051745
-1.0053319824861044
0.15647793096758353
2.8335892694051745
-1.0053319824861044
0.15647793096758353
2.8335892694051745
-1.0092500171876346
0.1589780769915509
2.8332373860954605
-1.0092500171876346
0.1589780769915509
2.8332373860954605
-1.0092500171876346
0.1589780769915509
2.8332373860954605
-1.0092500171876346
0.1589780769915509
2.8332373860954605
-1.0112085762795735
0.15921336338515557
2.83220885766897
-1.0112085762795735
0.15921336338515557
2.83220885766897
-1.0112085762795735
0.15921336338515557
2.83220885766897
-1.0112085762795735
0.15921336338515557
2.83220885766897
-1.0113577130618905
0.1594607762264381
2.8321947318087264
-1.0113577130618905
0.1594607762264381
2.8321947318087264
-1.0113577130618905
0.1594607762264381
2.8321947318087264
-1.0113577130618905
0.1594607762264381
2.8321947318087264
-1.0118375708664413
0.15906186106004117
2.83233586333289
-1.0118375708664413
0.15906186106004117
2.83233586333289
-1.0118375708664413
0.15906186106004117
2.83233586333289
-1.0118375708664413
0.15906186106004117
2.83233586333289
-1.0128825315523284
0.15868189171706723
2.832377179714263
-1.0128825315523284
0.15868189171706723
2.832377179714263
-1.0128825315523284
0.15868189171706723
2.832377179714263
-1.0128825315523284
0.15868189171706723
2.832377179714263
-1.0148732981111779
0.16035330123840263
2.8316700633174077
-1.0148732981111779
0.16035330123840263
2.8316700633174077
-1.0148732981111779
0.16035330123840263
2.8316700633174077
-1.0148732981111779
0.16035330123840263
2.8316700633174077
-1.0163865412562485
0.16205906982713247
2.831438625675364
-1.0163865412562485
0.16205906982713247
2.831438625675364
-1.0163865412562485
0.16205906982713247
2.831438625675364
-1.0163865412562485
0.16205906982713247
2.831438625675364
-1.0162783382435325
0.1618409505611215
2.8310153550726227
-1.0162783382435325
0.1618409505611215
2.8310153550726227
-1.0162783382435325
0.1618409505611215
2.8310153550726227
-1.0162783382435325
0.1618409505611215
2.8310153550726227
-1.0158225803286618
0.1600331325157266
2.829724053346591
-1.0158225803286618
0.1600331325157266
2.829724053346591
-1.0158225803286618
0.1600331325157266
2.829724053346591
-1.0158225803286618
0.1600331325157266
2.829724053346591
-1.0154287728437825
0.15888734577941752
2.828318662764317
-1.0154287728437825
0.15888734577941752
2.828318662764317
-1.0154287728437825
0.15888734577941752
2.828318662764317
-1.0154287728437825
0.15888734577941752
2.828318662764317
-1.0174852104511285
0.1599014580239633
2.8282460263759552
-1.0174852104511285
0.1599014580239633
2.8282460263759552
-1.0174852104511285
0.1599014580239633
2.8282460263759552
-1.0174852104511285
0.1599014580239633
2.8282460263759552
-1.0192112985853354
0.16071734669389007
2.8290450186884764
-1.0192112985853354
0.16071734669389007
2.8290450186884764
-1.0192112985853354
0.16071734669389007
2.8290450186884764
-1.0192112985853354
0.16071734669389007
2.8290450186884764
-1.0156846713694447
0.15874983850763616
2.828925365527606
