0
2
20
1
1
1
1
0
0
1
14
0
0
1
1
1
2
1
14
1
1
1
1
1
2
2
16
1
1
1
1
1
2
3
15
4
1
2
1
1
2
3
19
4
1
2
1
2
2
3
19
3
1
1
1
1
2
3
21
3
1
1
1
1
2
3
20
3
1
2
1
1
1
3
19
3
1
1
1
1
1
4
18
3
1
1
1
2
1
4
19
3
1
1
1
2
1
4
19
3
1
1
1
1
1
4
18
3
1
1
1
1
2
4
19
3
1
1
1
1
2
4
18
3
1
1
1
1
1
3
18
3
1
1
1
1
1
4
17
3
1
1
1
1
2
3
17
3
1
1
1
1
1
3
17
3
1
1
1
1
2
4
16
3
1
1
1
1
2
4
16
3
1
1
1
1
2
4
16
3
1
1
1
1
2
4
16
3
1
1
1
1
2
4
22
3
1
1
1
1
2
4
26
4
1
1
1
1
2
4
26
4
1
1
1
1
2
4
26
4
1
1
1
1
2
4
25
4
1
1
1
1
2
4
25
4
1
1
1
1
2
4
25
4
1
1
1
1
2
4
25
4
1
1
1
1
2
4
25
4
1
1
1
1
2
4
25
4
1
1
1
1
2
4
25
4
1
1
1
1
2
5
27
4
1
1
1
1
2
5
26
4
1
1
1
1
2
5
26
5
1
1
1
1
2
6
27
5
1
1
1
1
2
6
27
5
1
1
1
1
2
6
26
5
1
1
1
1
2
6
27
5
1
1
1
1
2
6
26
5
1
1
1
1
2
6
26
5
1
1
1
1
2
5
28
5
1
1
1
1
2
5
29
5
1
1
1
1
2
5
29
5
1
1
1
1
2
5
29
5
1
1
1
1
2
5
29
5
1
1
1
1
2
5
29
5
1
1
1
1
2
5
31
5
2
1
1
1
2
5
31
5
2
1
1
1
2
5
32
5
1
1
1
1
2
5
32
5
1
1
1
1
2
5
32
5
1
1
1
1
2
5
31
5
1
1
1
1
2
5
31
5
1
1
1
1
2
5
32
5
1
1
1
1
2
6
33
6
2
1
1
1
2
6
33
6
2
1
1
1
2
5
33
6
2
1
1
1
2
5
33
6
2
1
1
1
2
5
33
6
2
1
1
1
2
5
33
6
2
1
1
1
2
6
33
6
2
1
1
1
2
6
34
6
2
1
1
1
2
6
34
6
2
1
1
1
2
6
34
6
2
1
1
1
2
6
34
6
2
1
1
1
2
6
35
6
2
2
1
1
2
6
36
6
2
2
1
1
2
6
36
6
2
2
1
1
2
6
37
6
2
2
1
1
2
6
37
6
2
2
1
1
2
6
36
6
2
2
1
1
2
6
34
5
2
2
1
1
3
6
34
5
2
2
1
1
3
6
35
5
2
2
1
1
3
6
37
5
2
2
1
1
3
6
39
6
2
2
2
1
3
6
39
6
2
2
2
1
3
6
39
6
2
2
2
1
3
6
40
6
2
2
2
1
3
6
40
6
2
2
2
1
3
6
39
6
2
2
2
1
2
6
39
5
2
2
2
1
2
6
39
5
2
2
2
1
2
6
39
5
2
2
2
1
2
5
39
5
2
3
2
1
2
5
39
5
2
3
2
1
2
5
39
5
2
3
2
1
2
5
39
5
2
3
2
1
2
5
39
5
2
4
2
1
2
5
39
5
2
4
2
1
2
5
37
5
2
4
2
1
2
5
36
5
2
4
2
1
2
5
36
5
2
4
2
1
2
5
36
5
2
4
2
1
2
5
36
5
2
4
2
1
2
5
36
5
2
4
2
1
2
5
34
4
2
4
2
1
2
5
34
4
2
4
2
1
2
5
33
4
2
4
3
1
2
5
33
4
2
4
3
1
2
5
34
4
2
4
3
1
2
5
34
4
2
5
3
1
2
5
34
4
2
5
3
1
2
5
33
4
2
5
3
1
2
5
32
4
2
5
4
1
2
5
32
4
2
5
6
1
2
5
32
4
2
5
6
1
2
5
32
4
2
5
6
1
2
5
32
4
2
5
6
2
2
5
32
4
2
6
12
3
2
5
31
4
2
6
12
3
3
5
31
4
2
7
16
3
3
5
31
4
2
7
16
3
3
5
31
4
2
8
16
4
3
5
31
4
2
8
17
4
3
5
29
4
2
8
17
5
3
5
29
4
2
8
20
5
3
5
29
4
2
8
21
5
3
5
28
4
2
8
22
5
3
5
27
4
2
9
27
8
3
5
26
4
2
9
27
9
3
5
27
4
2
9
29
9
3
5
27
4
2
9
29
9
4
6
26
4
2
9
29
10
4
6
23
3
2
10
34
10
4
5
19
3
2
11
35
12
4
5
19
3
2
11
36
12
4
5
18
3
2
11
36
13
4
6
17
3
2
12
36
13
4
6
17
3
2
12
38
13
5
6
17
3
2
13
39
15
5
6
17
3
2
15
40
15
5
6
16
4
2
15
40
15
6
6
14
4
2
17
42
15
6
6
15
4
2
17
42
15
6
6
15
4
2
17
43
15
6
6
15
4
2
17
43
15
6
6
15
4
2
17
43
16
6
6
15
4
2
20
44
16
7
6
15
4
3
20
47
17
7
6
15
4
5
27
50
18
7
6
15
4
5
30
54
20
9
7
16
5
6
30
54
21
11
10
16
5
6
30
56
22
12
11
16
5
6
35
59
25
15
11
16
5
7
39
60
28
16
11
16
5
7
42
60
30
16
11
16
6
7
43
61
31
17
11
16
6
7
43
61
31
21
12
16
6
7
43
63
32
24
12
16
6
7
45
65
32
24
12
16
6
7
47
66
33
24
13
16
6
7
49
66
34
26
13
16
6
7
51
67
34
26
13
16
6
7
52
68
35
27
13
16
6
8
53
69
36
27
13
16
6
8
54
70
36
27
13
16
6
8
55
70
37
28
14
16
6
8
57
72
37
29
14
16
6
8
58
71
37
29
14
17
6
8
59
72
40
31
14
19
6
8
60
71
39
32
15
23
8
10
62
71
42
32
15
24
8
10
64
72
43
32
15
24
8
10
65
71
46
32
15
24
9
11
66
71
47
34
15
24
9
11
66
71
47
36
15
26
9
12
68
71
47
38
15
26
9
12
70
71
48
38
15
26
9
12
70
70
48
38
15
26
9
12
71
70
48
38
15
25
9
12
71
69
48
39
15
25
9
13
73
70
49
40
15
26
9
13
73
70
50
41
16
27
9
13
73
69
50
41
16
27
10
13
74
69
52
41
16
27
10
13
75
69
51
41
16
28
10
13
75
68
51
42
17
28
10
13
77
68
52
43
17
29
10
13
78
69
52
43
17
29
10
13
78
70
54
44
17
29
10
13
77
69
54
44
18
30
10
13
79
71
54
44
18
30
10
13
79
71
54
45
18
30
10
13
80
72
55
45
18
30
10
14
80
72
55
46
18
31
10
14
81
74
55
47
19
32
10
14
82
74
55
47
19
32
10
14
82
75
55
47
19
32
10
14
82
73
55
47
19
32
10
13
80
70
55
48
19
32
10
13
79
68
54
47
19
32
10
13
81
68
54
47
18
32
10
13
80
66
55
48
17
33
10
13
80
66
55
47
17
34
10
13
79
64
54
47
17
34
10
13
78
65
54
47
17
35
10
13
78
65
53
47
17
35
10
13
79
66
53
46
17
35
10
13
79
66
52
45
17
34
10
13
78
65
52
46
17
34
10
13
77
66
54
45
17
34
10
13
78
66
54
44
17
34
10
13
77
64
53
46
17
34
11
13
76
64
53
46
17
34
11
13
75
63
52
46
17
35
11
13
76
62
52
47
17
35
11
13
77
62
53
47
17
36
11
13
78
61
53
46
17
37
11
13
78
61
54
46
17
38
11
13
77
63
52
45
17
37
11
13
77
63
53
45
16
35
9
12
76
65
51
45
16
35
9
12
74
67
50
45
16
35
9
12
74
67
48
46
16
35
9
12
73
68
48
46
16
34
9
12
73
67
49
44
16
33
9
11
71
69
50
42
16
33
9
10
69
69
50
43
16
33
9
10
69
69
52
43
16
33
9
10
70
69
53
43
16
33
9
10
70
70
53
42
16
33
9
10
68
69
54
42
16
32
8
10
68
70
52
41
16
31
8
10
69
69
52
41
16
31
8
10
69
69
52
41
16
32
8
10
68
70
52
41
16
31
8
11
70
70
53
40
15
31
8
11
68
70
53
40
15
31
8
11
67
69
54
40
15
30
8
11
68
70
52
39
14
30
8
10
68
70
52
38
14
30
8
10
67
69
52
38
14
30
8
10
68
67
52
37
14
29
8
10
68
68
52
37
14
29
7
10
67
68
53
37
14
28
7
10
67
66
54
36
13
27
7
10
65
65
54
36
13
27
7
10
66
65
54
39
13
27
7
10
67
65
54
38
13
27
8
10
68
66
54
38
12
27
8
10
67
66
57
39
12
27
8
10
66
66
58
38
12
27
8
10
66
66
56
37
12
26
7
10
64
64
55
37
12
25
7
10
63
64
54
37
12
25
7
9
62
64
55
37
12
25
7
9
62
64
55
37
13
26
7
9
61
64
55
38
14
27
7
9
62
61
55
37
13
28
7
9
63
60
55
37
14
28
7
9
63
59
53
37
14
28
7
9
61
59
53
37
14
28
7
9
63
59
53
34
14
27
7
9
63
59
53
36
13
27
7
9
64
59
53
37
13
27
7
9
61
58
54
35
13
27
7
9
60
58
54
35
13
26
7
9
61
57
54
35
13
25
7
9
62
58
54
35
13
23
7
9
62
55
54
35
13
23
7
9
61
58
54
35
13
23
7
9
61
56
54
35
14
23
7
9
61
54
56
35
14
23
6
9
64
53
56
33
14
23
7
9
64
52
54
33
14
23
7
9
65
53
53
33
14
23
6
9
65
50
52
33
14
23
6
9
65
50
52
33
14
23
6
9
66
51
50
33
15
23
6
9
64
52
49
33
14
23
6
9
64
51
49
33
14
23
6
9
64
50
48
33
14
23
6
9
64
50
48
32
14
23
6
9
63
50
50
33
14
23
6
9
63
50
50
33
14
22
6
9
62
49
51
34
14
22
6
8
60
49
51
35
14
22
6
8
61
49
51
35
14
22
6
8
61
49
50
35
14
22
6
8
61
46
51
35
14
22
6
8
61
45
51
35
14
22
7
8
60
46
52
35
14
22
7
8
57
47
53
36
14
22
6
8
57
43
53
36
14
22
6
8
58
43
52
35
14
23
7
8
60
43
51
38
14
23
7
8
59
43
52
40
15
23
6
8
59
43
52
38
15
22
7
8
58
42
52
38
15
23
6
8
57
42
53
38
15
23
6
8
57
43
50
38
15
23
6
8
58
43
49
38
15
23
6
8
58
42
51
40
15
23
6
8
59
42
51
39
15
21
6
8
59
43
53
40
16
22
7
8
59
42
52
40
16
21
6
8
59
43
52
40
16
23
7
8
61
43
52
39
15
24
6
8
59
43
54
39
15
24
6
8
58
45
54
39
15
24
6
8
58
45
54
40
15
23
6
8
59
45
56
41
16
24
6
7
56
45
56
41
16
25
6
7
57
45
56
40
16
25
6
7
56
45
56
41
16
25
6
7
56
48
55
41
16
24
6
7
56
48
54
41
16
23
6
6
54
49
55
41
17
23
7
6
52
49
57
41
16
24
7
6
52
49
57
41
17
24
6
6
52
46
56
41
17
24
7
6
52
45
56
41
17
23
7
6
51
46
55
40
17
24
7
6
48
48
55
40
17
24
7
6
48
48
55
40
17
24
7
6
51
48
55
41
16
24
7
6
51
48
56
41
16
25
7
6
52
48
56
43
16
25
7
6
52
46
56
44
16
24
7
6
52
47
58
44
17
25
7
6
52
46
58
44
17
25
7
6
51
46
58
46
17
25
7
6
53
46
58
46
17
25
7
6
53
48
56
46
17
25
7
6
53
48
55
46
17
25
7
6
54
48
54
46
17
25
7
6
54
49
54
45
17
25
7
6
55
50
54
45
17
25
7
7
55
51
54
46
17
25
7
7
55
51
52
46
17
24
7
7
55
51
52
46
18
25
6
7
56
50
51
46
17
25
7
7
57
50
50
45
17
25
6
7
58
51
50
45
17
26
7
7
56
51
50
45
17
25
7
7
55
52
50
43
17
25
7
7
55
53
49
40
17
25
7
7
55
53
48
40
17
25
7
7
56
53
49
41
17
25
7
7
56
53
48
40
17
25
7
7
57
52
48
41
17
25
7
7
57
52
48
40
17
25
7
7
57
54
48
39
16
25
7
8
58
53
49
39
16
26
7
8
58
52
50
40
16
25
6
8
58
52
51
40
16
25
6
8
58
52
50
40
16
23
7
8
58
52
50
39
16
21
8
8
58
54
49
39
16
20
8
8
59
52
49
39
17
21
8
8
59
53
50
39
17
21
8
8
59
53
48
37
17
19
8
8
59
54
48
37
17
19
8
9
59
54
48
38
18
19
8
9
60
56
48
36
17
19
8
9
60
56
48
36
18
21
8
9
62
56
49
36
17
21
8
9
62
56
48
36
17
21
8
9
61
55
45
36
17
21
8
9
61
57
45
37
17
21
8
9
61
57
45
37
17
21
7
9
61
57
45
37
17
21
7
9
61
58
47
37
17
20
7
9
61
56
46
37
17
20
7
9
60
58
46
37
16
20
7
9
59
60
47
36
16
20
7
9
60
60
46
37
16
20
7
9
58
60
46
33
16
20
7
9
58
61
45
33
16
20
7
9
58
60
43
33
16
20
7
9
58
60
44
33
16
20
7
9
58
60
45
30
16
20
7
8
56
63
46
30
16
20
7
8
56
61
46
31
17
20
7
9
57
61
47
30
17
20
7
9
57
62
47
28
17
20
8
9
58
61
46
29
17
20
8
9
57
60
46
29
17
20
7
8
56
61
46
28
16
20
7
8
56
63
47
30
16
20
7
8
55
63
50
30
16
19
7
8
54
63
50
30
16
19
7
8
53
63
50
30
16
19
7
8
52
63
49
30
16
19
7
8
52
63
49
30
16
20
7
8
52
62
48
30
16
19
7
8
52
61
48
30
16
20
7
8
51
61
48
30
16
20
7
8
51
62
48
29
16
20
7
8
51
62
48
29
16
20
7
8
50
62
47
29
16
20
7
7
49
63
47
29
16
19
7
7
48
62
46
29
16
19
7
7
46
62
44
29
16
19
7
7
45
62
41
28
16
20
7
7
45
62
40
27
16
20
7
7
45
62
40
27
16
19
6
6
43
61
40
27
15
18
6
6
43
60
40
27
15
18
6
6
41
60
39
26
13
18
6
6
41
59
37
26
13
20
6
6
41
59
37
26
13
20
5
6
41
58
37
26
12
20
5
5
40
58
37
24
12
20
5
4
37
56
37
23
12
20
5
4
37
53
37
23
11
23
6
4
34
52
35
23
11
27
6
4
32
52
35
23
11
28
6
4
32
52
35
22
11
28
6
4
31
50
35
22
11
28
6
4
31
50
35
22
11
29
6
4
31
50
35
22
11
28
6
4
31
48
32
22
11
29
6
4
30
48
32
22
11
29
6
4
30
45
32
21
11
29
6
4
27
43
30
21
11
29
6
4
25
43
30
20
11
29
6
4
25
43
30
20
10
31
6
4
24
41
29
20
10
31
6
4
24
41
29
20
10
33
6
4
24
41
28
19
10
33
6
4
24
40
26
19
10
33
6
4
23
36
25
18
9
34
6
4
22
35
23
17
8
38
6
3
22
35
20
17
8
42
7
4
20
33
20
17
9
41
7
4
16
33
20
16
9
44
7
4
16
33
20
16
9
46
7
4
16
29
20
15
9
47
7
4
16
25
18
10
10
49
8
4
15
24
9
10
11
51
9
4
15
23
7
9
11
52
9
4
15
23
7
9
10
52
9
4
14
23
7
9
11
54
10
4
14
21
7
8
11
54
10
4
14
21
7
8
11
54
10
4
14
20
7
8
11
54
10
4
14
20
6
7
11
54
10
4
13
17
6
7
11
54
10
4
12
16
6
7
11
54
11
4
12
16
5
6
11
56
11
4
13
12
5
6
12
57
11
4
15
12
5
6
12
57
11
4
15
11
5
6
12
57
11
4
15
11
5
6
12
57
11
4
15
11
5
6
12
59
11
4
14
11
5
6
12
59
11
4
14
10
4
6
12
60
11
4
14
10
4
5
12
60
11
4
14
10
4
5
12
60
11
4
14
10
4
5
12
61
11
4
13
10
4
5
12
61
11
4
13
10
4
5
12
61
11
4
13
8
4
5
12
61
11
4
13
8
3
5
12
64
12
4
13
8
3
5
12
63
12
4
13
8
3
5
13
62
13
3
13
8
3
5
14
62
13
4
13
8
3
5
14
63
13
3
13
8
3
5
15
63
13
4
13
7
3
5
15
63
13
4
13
7
3
5
15
63
13
4
13
7
3
5
15
64
13
4
13
7
3
5
15
64
13
4
13
7
3
5
15
64
13
4
13
7
3
5
15
64
13
4
13
7
3
5
15
64
13
4
13
7
3
5
15
63
13
4
13
7
3
5
16
63
13
4
13
6
3
5
16
63
13
4
13
6
3
5
16
63
13
4
13
6
3
5
16
63
13
4
13
6
3
5
16
63
14
4
13
6
3
5
16
61
13
4
13
6
3
5
16
59
13
3
11
6
3
5
16
59
13
3
11
6
3
4
15
57
13
4
11
6
3
4
15
56
14
4
11
6
3
4
15
55
14
4
11
6
3
4
15
54
13
4
11
5
3
4
14
52
12
3
11
5
3
4
14
52
12
3
11
5
3
4
14
52
12
3
11
5
3
4
14
51
12
3
11
5
3
4
14
51
12
3
11
5
3
4
14
51
12
3
10
5
3
4
14
51
12
3
11
5
3
4
14
50
12
3
11
5
3
4
14
51
12
3
11
5
2
4
14
52
11
3
11
5
2
4
14
53
11
3
9
5
2
4
14
52
11
3
7
5
2
4
14
52
11
3
7
5
2
4
14
52
11
3
7
5
2
4
14
52
11
3
7
5
2
4
14
52
12
3
7
4
2
4
16
52
12
3
7
5
2
4
16
52
12
3
7
5
2
4
16
55
12
3
7
5
2
4
16
56
12
3
7
5
2
4
16
56
12
4
7
5
2
4
16
57
12
4
7
5
2
4
16
56
12
4
7
5
2
4
16
56
12
4
7
5
2
4
16
53
11
4
7
5
2
4
16
53
11
4
7
6
2
4
15
52
10
4
7
6
2
4
14
51
10
4
8
6
2
4
14
50
10
4
8
6
2
4
14
50
10
3
8
6
2
4
13
50
10
3
8
6
2
4
13
49
10
3
8
6
2
4
13
49
10
3
8
6
2
4
13
49
10
3
8
6
2
4
13
48
10
3
8
6
2
4
13
48
10
3
8
6
2
4
12
48
10
3
8
6
2
4
12
49
9
3
7
7
2
4
12
49
9
3
7
7
2
4
12
48
9
3
8
7
2
4
12
48
9
3
8
7
2
4
12
48
9
3
8
7
2
4
12
48
9
3
8
7
2
4
12
48
9
3
8
9
2
4
12
47
9
3
8
9
2
4
12
47
9
3
8
11
2
4
12
47
9
3
9
12
3
4
12
47
9
3
9
12
3
4
12
47
9
3
9
13
3
4
12
46
8
3
9
19
4
4
12
46
8
3
9
19
4
5
12
46
8
3
10
21
5
5
11
46
8
3
10
25
5
5
11
45
8
3
11
27
9
5
11
44
8
3
11
28
10
5
11
44
8
3
11
28
10
6
11
44
8
3
10
28
12
6
11
44
8
3
10
28
15
6
11
44
8
3
10
28
16
6
11
43
8
3
10
30
19
6
10
39
8
3
14
33
20
8
11
40
8
3
14
38
21
8
11
38
8
3
14
39
24
8
11
38
8
3
14
42
24
9
11
39
8
3
14
42
25
9
11
36
8
3
15
43
25
8
9
34
7
3
16
44
25
11
9
34
7
3
16
44
25
14
9
30
7
3
18
48
25
14
9
27
7
3
19
50
26
14
9
24
6
3
19
50
26
14
9
23
6
2
19
50
27
14
9
23
6
3
19
51
27
15
9
22
6
3
19
53
28
15
9
22
6
3
19
54
29
15
9
22
6
3
19
55
29
15
9
22
6
3
19
57
29
16
9
22
6
3
21
57
29
16
10
22
6
3
23
57
30
16
10
22
6
3
25
57
30
17
10
21
6
3
27
57
31
17
10
22
6
3
27
57
32
19
10
22
6
3
30
58
35
19
10
22
6
3
30
58
38
19
10
22
6
3
32
58
38
19
11
22
6
3
32
58
39
19
13
22
6
3
32
58
39
21
14
21
7
4
32
59
41
23
15
21
7
4
33
59
42
23
15
20
7
4
34
60
43
24
16
20
7
4
38
62
46
24
16
18
7
5
38
62
47
25
16
18
7
5
38
64
47
25
16
18
8
5
38
65
47
26
16
18
8
5
39
65
47
26
16
19
8
5
40
67
49
29
16
18
8
5
40
68
50
30
16
18
8
5
41
68
50
30
16
18
8
5
42
68
51
31
16
19
8
6
43
69
51
31
16
19
8
6
43
70
51
32
16
19
8
6
46
70
51
32
16
19
8
6
46
69
53
34
16
19
8
6
46
68
53
34
17
18
8
6
49
69
53
35
17
19
8
6
52
69
54
35
17
19
8
6
52
69
54
35
18
19
8
7
54
69
53
35
18
18
8
7
55
69
55
35
17
18
8
7
56
68
54
36
17
18
8
7
56
67
55
37
17
17
8
7
56
65
54
37
17
17
8
7
56
64
53
39
17
17
7
7
56
63
55
39
17
16
7
7
56
63
55
39
17
16
7
7
57
62
56
39
17
16
7
7
56
62
56
40
17
16
8
7
57
61
58
39
17
16
8
7
56
59
58
39
17
15
8
7
56
57
58
39
17
15
8
7
56
57
60
39
17
15
8
7
56
58
61
40
18
15
8
7
56
57
62
40
18
15
8
7
56
56
63
40
19
18
8
7
57
56
64
40
19
18
8
7
57
54
65
41
19
18
8
7
57
53
65
41
19
18
8
7
58
53
66
41
19
18
8
7
57
52
66
41
19
18
8
7
57
52
67
41
19
18
8
7
56
52
67
41
19
19
8
7
56
54
67
40
19
19
8
7
54
54
66
41
20
20
8
7
55
54
64
41
20
23
8
7
54
54
64
41
20
23
8
7
54
54
63
42
18
22
8
8
55
54
63
41
17
22
7
7
55
54
62
42
17
24
7
7
56
53
61
42
17
24
7
7
55
53
62
41
16
24
7
7
53
52
61
41
16
25
7
7
54
52
61
43
17
25
7
7
54
49
61
44
17
25
7
7
53
49
61
44
17
25
7
7
53
49
61
44
17
25
7
7
52
46
62
42
17
25
7
7
53
45
62
42
17
25
7
7
52
46
62
41
17
25
7
7
51
46
62
41
18
24
7
7
50
43
62
41
18
24
7
7
50
42
62
41
18
24
7
7
47
45
62
41
18
24
8
7
49
45
61
39
18
24
8
7
49
46
61
39
18
24
8
7
46
45
61
39
17
24
8
7
43
45
61
39
17
24
8
7
43
45
62
42
17
24
8
6
41
45
62
42
17
24
8
6
39
45
60
42
17
24
8
6
39
45
61
41
17
24
8
7
38
44
60
40
17
24
8
7
38
45
60
40
17
25
8
7
38
44
60
39
17
25
8
7
38
44
58
39
17
25
8
7
40
44
58
41
17
25
8
7
41
44
58
42
17
25
8
7
41
45
58
41
17
25
8
7
40
46
58
40
17
25
8
7
41
46
58
40
18
26
8
7
42
46
58
41
18
26
8
7
42
46
55
41
18
26
9
7
42
45
54
40
17
26
8
7
42
45
54
40
17
26
8
7
42
48
54
40
16
25
8
7
43
49
52
40
16
25
8
7
43
50
51
40
16
25
8
7
42
50
51
40
16
25
8
7
41
50
50
40
16
25
8
7
41
50
50
40
16
25
9
7
40
50
49
42
16
25
9
7
40
50
48
43
17
25
9
7
40
49
48
43
17
25
9
7
40
50
48
42
17
23
9
7
40
50
48
42
17
21
9
7
40
49
48
43
17
22
9
7
40
51
49
42
17
22
9
7
38
51
50
42
17
22
9
7
38
51
50
41
17
19
9
7
36
51
50
42
17
19
9
7
40
51
51
42
17
19
9
7
42
51
49
42
17
19
9
7
42
51
49
39
17
19
9
7
41
50
50
38
18
21
10
7
42
50
50
38
18
21
10
7
42
50
50
38
18
21
10
7
42
50
49
38
18
21
10
7
44
49
48
38
19
21
10
7
45
48
48
38
19
21
10
8
48
48
48
39
18
21
10
8
50
49
47
39
18
22
10
8
53
49
47
39
18
22
9
8
52
46
47
39
18
22
9
8
53
44
45
39
18
22
9
8
53
44
46
40
18
22
9
8
53
44
46
39
18
22
9
8
53
44
45
40
18
22
9
8
53
44
44
38
18
22
9
8
53
45
44
38
19
22
9
8
53
45
43
39
19
23
9
8
54
46
43
39
19
23
9
8
54
46
43
39
19
23
9
8
57
46
43
39
19
23
9
8
57
47
44
40
18
22
9
8
57
47
45
40
19
22
9
8
55
49
45
38
19
22
9
8
55
52
44
37
19
22
9
8
55
53
44
37
19
22
9
8
54
54
41
38
19
22
9
8
54
54
42
38
18
21
9
8
55
54
42
38
19
21
9
8
55
54
42
38
18
21
9
8
55
54
42
38
18
21
9
7
55
57
42
38
19
21
9
7
55
55
40
38
19
21
8
7
55
55
40
38
19
21
9
8
55
54
39
38
19
21
9
9
56
57
39
37
20
21
9
9
56
57
39
37
20
21
9
9
56
57
40
37
20
21
9
9
56
58
40
35
19
21
9
9
56
58
40
34
18
20
8
9
56
59
40
34
18
20
8
9
58
59
40
35
18
20
8
10
58
59
40
35
18
20
8
10
59
59
40
34
18
19
8
10
59
58
40
34
18
19
9
10
60
59
39
34
18
19
9
10
60
59
39
33
18
19
9
10
60
59
39
33
18
19
9
10
57
61
37
33
19
19
9
10
57
60
40
33
19
19
9
10
57
60
40
34
20
19
9
10
57
61
39
35
20
17
8
10
59
61
40
35
20
17
8
10
60
61
40
35
20
17
8
10
61
61
40
35
19
17
8
10
59
62
40
36
19
17
8
10
59
62
40
36
19
16
8
10
57
62
40
35
19
16
8
9
56
61
40
35
20
15
8
9
56
61
40
35
20
15
8
9
58
61
44
36
20
15
8
9
58
62
44
37
21
15
7
9
59
61
43
38
21
15
7
9
62
61
43
38
21
16
7
9
62
61
43
37
21
16
7
9
62
61
43
37
21
16
7
9
62
60
43
37
21
17
7
9
62
62
43
36
21
17
7
9
61
62
43
36
20
17
7
9
61
63
44
36
20
17
8
9
58
65
44
36
21
17
8
9
59
65
44
35
20
17
8
9
59
65
44
35
20
18
8
9
58
63
44
37
21
18
8
9
58
61
44
37
20
18
8
9
61
59
43
37
20
18
8
9
62
59
45
37
21
19
8
9
62
59
45
37
21
21
8
9
60
59
45
37
21
21
8
9
61
59
46
37
21
21
9
9
62
59
46
38
23
23
9
10
62
57
47
37
23
23
9
10
62
57
46
37
23
23
9
10
61
56
46
39
23
23
9
9
61
56
46
40
23
23
9
9
62
53
47
40
23
23
9
9
62
53
48
40
23
23
9
9
62
53
47
40
23
23
9
9
62
53
48
40
23
23
9
9
63
54
48
40
23
24
9
9
64
53
49
40
23
24
9
9
63
52
49
40
23
24
9
8
63
53
49
39
23
24
9
8
64
53
50
39
23
24
9
9
66
54
49
40
23
24
9
8
65
54
49
40
23
24
9
8
66
55
50
40
23
24
9
8
67
54
50
40
24
24
10
9
67
53
49
40
23
24
10
8
66
53
47
40
23
24
10
8
67
53
46
42
23
24
10
8
67
52
50
42
21
24
10
8
65
53
49
42
21
24
10
8
64
53
48
42
21
24
10
8
65
54
48
41
21
25
10
8
66
54
47
41
22
25
10
9
66
55
48
41
22
25
10
9
65
54
47
41
22
26
10
9
67
54
47
42
21
26
10
8
65
54
47
42
21
25
10
8
64
54
44
41
21
25
10
8
62
55
44
40
21
25
11
8
63
55
44
39
22
25
11
8
61
55
45
39
22
25
11
8
62
58
45
39
22
25
11
8
63
58
45
39
22
24
11
9
63
60
46
39
21
24
11
9
63
61
45
39
22
23
11
9
63
61
45
39
22
24
11
9
63
60
44
40
23
24
10
9
64
58
44
39
23
24
10
9
64
57
43
39
23
24
10
9
64
57
43
39
23
23
10
9
64
57
44
37
23
23
10
9
64
57
45
37
23
23
10
9
61
58
45
37
23
23
10
9
60
56
43
37
23
22
10
9
60
57
43
38
23
21
10
9
62
58
44
37
23
20
10
9
62
58
43
37
23
20
10
9
64
59
43
37
21
21
10
9
65
61
42
37
21
22
10
9
64
61
45
37
21
22
10
9
64
61
44
35
21
22
11
10
65
64
44
34
21
22
11
9
63
64
44
34
21
22
11
9
63
64
44
34
21
22
11
9
63
65
44
34
21
22
11
9
63
65
44
34
21
22
11
9
63
64
44
34
20
22
11
9
63
64
43
34
20
22
10
9
62
64
46
33
20
22
10
9
63
63
45
34
20
21
10
10
62
64
45
34
20
21
10
9
61
63
46
33
21
22
10
9
61
62
47
32
21
22
10
9
61
62
46
32
21
23
10
9
63
62
46
32
21
23
10
9
63
63
49
32
21
23
10
9
63
63
49
31
21
23
10
9
62
62
49
29
21
23
9
9
64
63
47
27
21
23
9
10
64
64
47
28
21
23
9
10
65
64
47
28
21
23
9
9
63
64
47
28
21
23
9
9
62
64
48
28
21
24
9
9
62
64
49
28
21
24
9
9
63
64
50
28
21
23
9
9
61
64
50
26
21
23
9
9
61
64
50
26
21
24
9
9
61
64
50
27
21
24
9
9
61
64
50
26
21
24
9
9
59
65
50
27
20
24
9
10
60
66
49
26
20
24
9
9
58
63
48
26
20
24
9
9
58
63
48
25
20
24
8
9
57
61
48
25
20
24
8
9
57
58
48
25
19
25
8
9
57
58
48
25
19
25
8
9
57
58
48
24
18
25
8
9
57
58
48
24
18
25
8
9
56
58
48
24
17
25
8
9
56
58
47
23
17
25
8
9
56
58
46
23
17
28
8
9
56
58
46
23
17
28
8
9
56
57
45
23
17
30
8
9
56
57
45
23
17
31
8
9
56
56
44
21
16
30
8
8
53
55
43
21
16
31
8
8
52
55
43
21
16
31
8
8
49
54
43
20
15
30
8
8
48
51
43
20
15
29
7
8
49
49
41
20
15
30
7
8
48
49
41
19
15
30
6
7
48
47
40
19
15
30
6
7
48
45
40
19
15
31
7
7
48
45
38
19
15
31
7
7
47
43
38
19
15
31
7
7
47
43
37
19
15
33
8
7
46
43
37
18
15
34
8
7
46
43
36
18
15
34
9
6
44
42
33
18
15
34
9
6
43
41
33
17
14
34
8
6
42
39
32
17
14
34
8
6
39
39
31
17
13
34
9
6
39
38
29
17
13
34
8
6
38
38
29
16
12
33
8
5
34
37
28
16
12
33
8
5
33
36
23
16
12
34
9
5
33
36
23
16
12
34
9
5
33
35
22
16
12
35
9
4
28
35
19
16
12
35
9
4
27
30
19
14
12
35
9
4
25
29
18
14
11
36
9
4
25
28
18
14
11
38
9
4
23
25
17
13
10
39
10
4
23
25
12
11
10
40
10
4
22
24
8
11
10
40
10
4
22
24
7
11
10
40
12
4
20
23
7
11
10
40
12
4
20
22
6
9
10
41
12
4
18
21
5
8
9
41
12
4
17
18
5
5
9
41
12
4
12
13
5
5
9
42
12
4
10
12
5
5
9
42
13
4
10
12
5
5
9
43
13
5
10
10
4
5
9
43
13
5
9
10
4
4
9
43
13
4
9
10
3
4
9
43
13
4
9
10
3
4
10
43
13
5
8
10
3
4
10
44
14
5
8
10
3
5
10
44
14
5
8
10
3
5
10
45
14
5
8
8
3
5
10
44
14
5
7
7
3
5
10
44
14
5
7
8
3
5
11
43
14
5
7
8
3
5
12
42
14
5
7
8
2
5
12
43
14
5
7
6
2
5
13
42
15
5
7
6
2
5
13
45
15
5
7
6
2
5
14
48
15
5
6
6
2
5
14
48
16
5
4
5
2
5
13
49
16
5
4
5
2
5
14
49
17
5
4
5
2
5
14
49
17
5
5
5
2
5
14
52
17
5
7
5
2
5
15
53
18
5
7
5
2
5
15
53
18
5
7
6
2
5
15
52
17
5
7
6
2
5
15
51
17
5
7
5
2
5
15
53
17
5
7
5
2
5
15
53
18
5
7
5
2
5
15
54
18
5
7
5
2
5
16
54
19
5
7
4
2
5
16
56
19
5
7
5
2
5
16
55
19
5
7
5
2
5
16
56
19
5
7
5
2
6
19
58
19
5
7
5
2
6
19
60
19
5
7
5
2
6
19
60
20
5
7
5
2
6
19
62
20
5
7
5
2
6
19
62
20
5
7
5
2
6
19
62
21
5
7
5
2
6
19
62
21
6
7
5
2
6
19
61
21
6
7
5
2
6
20
60
21
5
7
5
2
6
20
61
21
5
7
5
2
6
20
61
21
5
7
5
2
6
21
61
21
5
9
6
2
6
24
61
21
5
9
6
2
7
24
61
20
5
9
6
2
7
25
62
20
5
9
10
2
7
26
63
20
5
9
11
2
8
27
64
21
5
9
11
2
8
27
65
21
5
9
11
2
8
27
65
21
5
10
12
2
8
27
65
21
5
10
12
3
9
27
65
21
5
10
12
3
10
27
65
21
5
10
14
3
10
27
65
21
4
10
14
3
10
27
65
21
4
16
17
3
10
27
66
21
4
16
17
3
10
27
65
21
4
16
18
5
10
27
65
21
4
16
21
5
10
28
65
21
4
17
24
5
10
28
65
21
4
17
28
6
10
28
66
21
4
17
28
6
10
28
66
21
4
17
29
6
10
28
66
21
4
17
30
6
10
29
67
22
5
17
31
6
10
28
67
22
5
18
31
6
10
28
67
21
5
18
31
6
10
28
66
21
5
18
31
6
10
28
65
20
5
18
31
6
10
28
65
20
5
17
31
6
10
28
65
20
5
17
31
6
10
27
64
20
4
17
31
6
10
27
64
20
5
17
31
6
10
27
64
20
5
17
31
7
10
27
64
20
5
17
31
7
10
28
63
20
5
18
32
7
10
28
64
20
5
18
33
7
10
28
63
19
5
18
33
7
10
27
63
19
5
18
33
7
11
27
62
19
5
18
33
8
11
27
62
19
5
18
33
8
11
27
62
19
5
18
33
8
11
25
60
19
4
18
33
8
11
25
58
19
4
18
33
8
11
26
58
17
4
18
34
8
11
25
57
17
4
18
34
8
11
25
58
17
4
18
34
8
11
25
58
16
4
18
34
8
11
25
58
16
4
18
34
8
11
25
58
16
4
19
35
8
11
25
58
15
4
19
35
8
11
25
56
15
4
20
35
8
11
25
56
15
4
20
35
8
10
24
56
15
4
19
35
8
10
21
56
15
4
19
35
8
10
20
55
15
4
19
35
8
10
20
53
15
4
19
35
8
10
19
53
15
4
20
35
8
9
17
51
14
4
20
35
8
9
17
50
14
4
20
35
8
9
17
50
14
4
20
35
8
9
17
49
14
4
20
36
8
8
16
49
13
4
20
36
8
7
16
49
13
4
20
36
8
7
16
49
13
4
20
36
8
7
16
48
13
4
16
38
8
7
16
47
12
3
16
38
8
7
16
47
12
3
16
40
7
7
15
46
12
4
16
39
7
6
14
46
12
4
16
37
7
6
13
45
11
4
16
34
7
7
13
45
11
4
16
35
7
7
13
45
11
3
16
34
8
7
12
44
11
3
16
34
8
7
10
40
10
3
17
33
7
7
11
37
8
3
18
33
7
6
11
37
8
3
18
33
7
7
11
37
8
3
18
35
8
9
11
37
8
3
18
36
8
9
11
37
8
3
18
39
8
9
11
33
8
3
19
41
12
9
11
33
8
3
20
41
13
10
11
33
7
2
20
43
13
10
11
33
7
2
20
44
16
10
11
33
7
2
20
45
16
9
11
31
7
3
21
45
18
10
11
30
6
3
24
45
20
10
10
29
6
2
24
45
21
10
10
29
6
2
24
45
21
9
10
29
6
3
26
48
22
9
10
29
6
3
27
49
22
10
10
31
7
3
27
51
22
10
10
30
6
4
29
54
24
11
11
30
6
4
30
54
25
11
11
30
6
4
30
55
25
11
10
27
6
4
30
57
25
11
10
24
5
4
34
59
25
11
10
25
6
4
37
60
25
11
10
23
6
4
37
61
25
11
10
24
6
4
38
61
25
13
10
23
6
4
38
61
25
13
10
23
6
4
39
60
25
14
10
23
6
5
42
61
27
18
10
23
5
6
46
61
31
19
10
23
5
6
46
63
32
20
10
23
6
6
48
63
33
21
10
23
6
6
48
63
35
21
10
22
5
6
48
64
35
21
10
21
5
6
49
64
35
23
10
21
5
6
49
66
37
26
10
21
5
6
49
66
39
26
10
20
5
6
51
68
39
26
11
23
5
6
52
68
39
27
11
26
5
6
53
68
40
27
11
26
5
7
54
68
40
27
11
26
5
7
56
67
40
27
11
27
5
7
56
67
41
27
11
27
6
7
57
66
42
29
12
27
6
7
58
66
44
29
12
27
6
7
58
67
44
29
12
27
6
7
58
67
44
29
12
27
6
7
58
67
44
30
12
28
6
7
58
67
47
31
13
28
6
7
58
67
48
31
12
28
6
7
58
67
49
31
11
27
6
7
58
68
50
32
12
27
6
8
59
69
50
32
12
27
6
8
60
68
50
32
12
27
6
8
60
68
50
32
12
27
6
8
60
67
53
33
12
27
6
8
60
66
53
33
12
27
6
8
60
66
53
33
12
27
6
8
60
64
53
33
12
27
6
8
60
65
52
33
12
28
6
8
61
65
52
34
12
28
6
8
61
64
52
36
12
27
6
8
59
66
52
36
12
27
6
8
60
67
52
36
12
27
6
8
61
68
53
36
12
27
6
8
61
65
55
36
12
27
6
9
62
68
55
37
12
25
6
8
62
65
55
37
12
25
6
8
62
63
55
37
12
25
6
8
62
64
56
38
12
25
6
8
64
63
56
38
12
25
6
8
64
62
56
38
12
25
6
9
64
60
56
38
12
25
5
9
64
59
57
38
12
25
5
9
65
59
57
38
12
25
5
9
64
60
57
38
12
25
6
9
64
61
58
38
12
25
6
9
64
61
59
37
12
25
6
8
62
61
57
36
12
25
6
8
60
61
56
37
12
25
7
9
60
59
56
37
12
25
7
9
59
59
56
36
12
25
7
9
59
61
56
37
12
25
7
9
60
61
57
37
12
25
6
9
61
61
57
37
13
26
7
9
60
59
56
35
12
26
7
9
61
59
55
35
13
26
7
9
60
57
55
35
13
25
7
10
61
56
55
34
14
22
7
9
60
58
54
34
14
22
7
9
59
59
54
36
14
22
7
9
58
59
55
36
13
21
7
9
58
61
55
36
13
20
7
9
57
61
54
35
13
20
7
9
56
61
53
37
13
21
7
10
57
59
53
38
13
20
7
9
57
60
53
38
13
20
7
9
57
61
53
38
13
20
7
9
57
61
51
37
12
19
7
9
57
60
49
38
12
24
7
9
58
61
49
37
12
24
7
9
58
62
48
37
12
24
7
9
57
61
48
37
12
25
7
9
56
60
48
37
12
25
7
9
57
60
49
38
12
25
7
9
57
60
46
37
12
25
7
9
56
60
45
37
13
25
7
9
57
60
45
37
13
24
7
9
57
61
46
38
13
25
7
10
59
61
47
38
14
25
7
10
61
60
48
37
14
25
7
10
61
61
48
35
14
25
7
10
61
59
48
35
14
25
7
10
61
58
47
35
15
25
7
11
62
57
47
36
16
26
7
12
64
58
43
37
16
26
7
12
63
56
43
37
16
25
7
12
63
55
43
36
16
25
7
12
62
55
43
37
16
25
7
12
62
55
42
36
16
25
7
12
60
55
42
39
16
25
7
12
59
55
42
39
16
25
7
12
57
55
42
39
16
25
8
12
57
55
41
40
17
25
8
12
57
54
41
40
17
25
8
12
57
53
41
39
17
25
8
12
56
52
39
39
17
26
7
12
56
53
40
40
17
27
8
12
57
54
42
40
17
27
8
13
57
54
42
40
17
27
8
12
56
54
41
40
18
27
7
12
56
54
42
40
18
27
7
12
59
51
41
39
18
27
7
12
58
53
40
39
19
27
8
12
57
52
41
39
19
27
8
12
57
51
41
39
19
28
8
12
57
52
41
39
18
27
8
12
56
52
41
40
18
26
8
11
54
53
42
40
18
26
7
11
54
51
42
40
17
26
7
11
55
50
43
38
18
26
8
12
55
50
42
39
18
26
8
12
55
50
42
39
18
26
8
12
55
50
42
40
18
26
8
12
56
51
43
38
17
27
8
12
56
51
45
37
17
27
8
12
56
49
45
37
17
29
8
12
56
49
45
36
17
29
8
12
56
50
46
36
17
29
8
12
56
50
46
36
17
25
8
12
56
48
46
35
18
27
8
12
57
47
47
35
18
28
8
12
57
48
48
35
19
28
8
12
57
48
48
34
19
28
8
12
56
48
47
34
19
31
8
12
57
48
47
34
19
32
8
12
59
48
47
34
19
33
9
12
59
49
47
36
19
33
9
12
58
48
47
35
19
33
9
12
57
48
48
37
19
34
9
12
56
48
49
37
19
34
9
12
56
47
48
37
19
34
9
12
56
47
48
38
19
34
9
12
56
48
48
37
19
35
9
11
54
47
48
37
18
34
9
10
51
46
48
36
18
35
9
10
54
47
49
36
18
34
9
11
56
48
49
37
18
34
9
11
57
49
50
36
18
34
9
11
57
49
50
36
18
34
9
11
60
50
50
33
18
34
9
11
60
50
51
33
18
34
9
11
61
51
51
33
18
34
9
11
62
51
51
35
17
34
9
11
61
52
51
35
17
34
9
11
61
51
51
35
17
34
9
11
64
52
51
35
17
34
9
11
64
51
52
35
18
34
9
10
63
49
51
35
18
34
9
10
63
49
51
33
18
34
9
10
65
49
52
33
18
34
9
11
65
49
51
32
18
33
9
10
63
49
52
36
18
33
9
11
63
47
52
36
16
33
9
11
63
48
52
36
17
33
9
11
63
49
52
36
16
33
9
11
63
48
52
35
16
33
9
11
63
47
52
35
16
34
9
11
63
49
52
37
16
33
9
11
63
52
54
37
16
33
9
11
64
52
54
38
17
33
8
10
64
52
54
38
17
34
8
10
64
49
55
38
17
33
8
10
64
49
55
37
17
33
8
10
64
51
55
38
17
33
8
10
64
52
53
38
17
33
8
10
64
54
55
40
17
31
8
10
64
54
56
40
17
31
8
10
64
53
54
41
18
31
8
10
64
53
55
41
18
32
8
11
63
53
57
41
17
29
8
10
63
53
56
41
17
30
8
10
64
53
56
41
17
30
8
10
65
54
56
41
17
30
8
10
64
54
57
42
16
27
8
10
64
53
57
42
17
26
8
10
62
54
57
42
18
28
8
10
63
55
58
40
18
28
8
10
63
54
57
40
18
27
8
9
63
54
58
39
16
25
8
9
62
55
57
39
17
26
8
9
62
57
59
40
17
26
8
9
62
57
59
40
17
26
8
9
62
57
59
43
17
26
8
9
62
57
60
43
17
27
8
9
61
58
60
42
17
27
8
9
60
59
59
42
19
30
9
9
57
59
59
42
19
30
9
8
56
58
58
42
19
30
9
9
58
58
58
44
20
32
9
8
57
57
58
44
20
32
9
8
56
57
60
44
20
33
9
8
55
56
60
45
20
33
9
8
54
57
59
44
20
33
9
8
56
57
60
44
20
33
9
8
57
58
60
43
20
33
9
8
54
57
60
45
20
33
9
8
54
59
59
45
20
33
9
8
54
59
59
45
20
33
9
8
54
59
59
45
20
33
9
7
51
59
58
46
20
33
9
7
51
59
58
46
20
33
9
7
52
59
58
43
20
33
9
7
52
59
56
44
20
34
9
7
54
59
56
44
19
34
9
7
54
58
56
46
19
34
9
7
54
59
56
46
20
34
9
8
55
60
58
46
20
33
9
7
55
58
57
45
20
33
9
7
56
56
55
45
20
33
9
8
55
55
55
43
20
34
9
8
56
55
56
43
20
34
9
8
56
57
54
44
20
34
9
8
56
57
54
44
20
34
9
8
55
56
53
44
21
34
9
8
55
54
53
43
21
33
9
8
55
52
51
41
21
33
9
8
55
53
51
42
21
33
9
8
55
53
52
42
21
34
10
8
55
53
51
42
21
34
10
8
55
53
49
42
22
34
10
8
55
53
49
42
21
33
10
8
53
52
48
42
21
33
9
8
52
52
49
43
21
33
9
8
52
53
48
43
21
33
9
8
52
53
49
42
20
32
9
8
51
53
50
42
20
30
9
8
51
51
50
42
20
30
9
8
51
51
50
42
20
30
9
8
50
51
48
42
20
31
9
8
50
49
47
41
19
30
9
8
50
47
44
40
20
30
9
8
50
47
44
40
20
30
9
8
49
46
43
37
20
29
8
7
49
46
42
37
19
29
8
7
49
45
43
37
19
28
8
7
48
45
42
37
17
25
7
7
50
46
42
37
18
25
7
8
50
44
42
37
18
25
7
7
48
45
42
34
16
22
7
7
46
45
42
34
16
22
7
7
46
45
39
34
16
22
7
7
46
45
39
34
16
22
7
7
46
44
39
32
15
21
7
7
43
43
37
32
15
24
7
7
42
41
37
32
15
27
7
7
42
41
36
30
15
27
7
7
42
40
36
29
15
26
7
7
42
40
36
28
15
26
7
7
42
39
35
28
15
28
7
7
42
39
35
28
15
28
7
7
41
39
35
27
15
28
7
7
40
39
35
27
15
28
7
7
39
39
35
26
15
28
7
6
35
38
35
26
15
28
7
6
35
37
34
22
15
29
6
6
35
36
34
21
15
29
6
6
33
35
31
20
15
29
6
6
33
35
31
20
14
29
8
6
31
34
31
20
14
29
8
6
28
33
29
20
14
29
11
5
25
33
29
20
13
30
11
5
24
29
28
20
13
30
11
5
24
29
28
19
13
30
12
5
23
29
28
18
11
31
12
5
23
29
28
18
11
31
13
5
23
29
28
18
11
31
13
5
22
27
27
15
11
32
13
5
22
26
25
15
10
31
12
5
22
26
25
15
10
32
12
5
22
26
25
14
10
32
12
4
22
26
25
13
10
32
15
4
22
26
25
12
10
32
15
5
22
26
23
11
10
33
16
5
22
25
22
7
10
33
16
5
22
24
19
7
10
37
16
5
22
23
17
7
10
39
16
5
20
22
14
7
10
39
16
5
19
22
14
7
10
39
16
5
18
22
14
7
9
39
16
5
18
21
14
7
9
41
16
5
18
21
13
6
9
41
17
5
18
20
13
6
9
40
17
5
17
20
13
6
9
40
18
5
17
19
13
6
9
43
19
5
17
19
12
6
9
46
19
5
17
19
12
6
9
46
19
5
12
12
11
6
9
46
19
5
8
12
9
6
9
47
19
5
7
10
9
6
9
47
19
5
7
9
9
4
9
47
19
5
6
9
8
4
9
47
19
5
6
8
7
4
11
47
19
5
6
6
7
4
11
50
20
5
5
6
7
4
11
50
20
5
5
6
7
4
12
49
20
5
5
6
6
4
11
50
21
5
5
5
6
4
12
50
21
6
5
5
5
4
12
51
22
6
4
5
4
4
14
53
25
6
4
4
4
4
14
53
25
6
4
4
4
5
14
54
25
7
4
4
4
5
14
54
26
7
4
3
4
5
14
54
26
7
4
3
4
5
14
56
26
7
4
4
3
5
15
56
26
7
4
4
3
5
15
58
26
7
4
3
3
5
15
58
26
7
4
3
3
5
16
58
26
7
4
4
3
5
16
59
26
7
4
4
3
5
16
60
25
7
4
4
3
5
16
59
25
6
4
4
3
5
16
59
25
7
4
4
3
5
16
59
25
7
4
4
3
5
16
60
25
7
5
4
3
5
16
61
25
6
5
4
3
5
16
61
25
6
5
4
3
5
16
61
26
7
5
4
3
5
16
63
26
6
5
4
3
5
17
63
26
6
5
4
3
5
17
64
26
6
5
4
2
6
18
65
25
6
6
4
3
6
18
65
25
6
5
4
3
6
18
65
25
6
5
4
3
5
18
65
25
6
7
4
3
6
18
64
25
6
9
5
3
5
18
63
25
6
9
5
3
6
19
63
25
6
9
5
3
6
19
64
25
6
9
5
3
6
19
64
25
6
9
6
3
7
19
63
25
6
10
6
3
7
19
63
24
6
10
7
3
7
19
65
24
6
10
7
3
7
19
66
24
6
10
8
3
7
19
65
23
6
11
13
5
7
19
63
23
6
11
13
5
7
20
62
23
6
12
19
6
7
20
64
23
6
12
19
6
7
21
64
23
6
12
19
6
7
21
64
23
7
13
20
6
7
21
65
23
7
13
21
6
8
21
65
23
7
13
21
6
7
20
66
23
7
13
22
6
8
21
64
23
7
14
22
6
8
20
63
22
7
14
22
7
7
20
63
22
7
15
24
10
7
20
62
22
7
16
26
10
7
20
62
22
6
16
26
10
7
20
61
21
6
16
26
10
7
19
59
17
6
16
27
10
7
19
58
17
6
16
28
10
7
19
57
17
6
17
28
10
7
18
57
17
6
17
29
10
7
18
57
16
6
17
32
10
8
18
55
16
6
17
34
11
8
18
54
15
6
17
34
11
8
17
53
15
6
18
34
11
9
17
53
15
6
18
35
11
9
17
52
15
6
19
36
11
9
16
51
15
6
19
37
11
9
16
51
15
6
19
37
11
10
16
51
15
6
19
38
12
10
16
51
15
6
19
39
16
10
16
51
15
6
19
40
18
9
16
50
14
6
19
41
18
9
16
49
14
6
19
42
20
10
16
48
14
5
19
44
23
10
16
49
13
5
21
45
23
10
16
45
12
5
25
45
23
10
16
45
12
5
25
45
23
10
16
44
12
5
25
45
23
10
15
42
12
5
25
46
24
10
15
42
12
5
25
46
24
10
15
42
11
5
25
46
24
10
15
41
10
5
25
46
24
10
14
40
10
5
25
48
24
10
14
39
10
5
25
48
24
10
13
39
10
5
25
49
24
10
13
38
10
5
25
49
24
10
13
38
10
5
26
52
24
10
13
39
10
5
26
52
24
10
13
38
10
5
27
52
26
10
13
36
10
5
28
54
26
10
13
33
10
5
28
54
26
10
13
33
10
5
28
53
26
10
12
32
9
5
28
55
27
11
12
33
9
5
28
53
27
10
11
29
9
4
28
54
27
10
10
28
9
4
28
55
27
10
9
28
8
4
28
55
28
10
9
27
8
4
28
55
28
10
8
26
8
4
28
55
28
10
8
23
8
4
28
56
28
10
8
23
8
4
30
56
29
11
8
22
8
4
30
59
29
11
8
22
8
4
30
59
29
11
8
23
8
4
30
58
29
11
8
23
8
4
30
58
29
11
9
22
8
4
30
58
29
11
8
22
8
4
30
59
29
11
8
22
7
4
30
59
31
11
9
22
7
4
29
59
31
11
11
22
7
4
31
59
32
11
12
23
8
4
34
58
32
11
12
23
8
4
35
60
32
11
12
23
8
4
35
62
32
11
12
24
8
4
34
62
32
10
12
24
8
4
35
61
32
12
12
24
8
4
36
61
34
11
14
24
8
4
36
62
36
12
14
22
8
4
36
62
39
11
14
23
7
4
37
62
39
11
14
23
7
4
37
61
38
12
14
24
7
4
38
61
39
13
15
24
8
4
38
60
40
16
15
25
8
4
40
61
43
16
16
25
8
5
42
60
42
16
16
25
8
5
43
60
42
18
16
25
8
5
41
60
42
18
17
25
9
5
42
60
44
18
17
25
9
5
43
60
44
18
17
25
8
5
43
62
45
21
18
26
9
6
44
64
46
21
18
26
8
6
46
66
47
23
19
26
9
6
46
67
47
23
19
27
9
6
48
66
49
24
19
30
9
6
48
68
49
26
20
31
9
6
49
67
52
27
20
30
9
6
49
68
51
27
20
29
8
6
49
67
51
27
20
29
8
7
52
68
51
27
20
29
8
7
51
68
51
27
20
29
8
7
51
67
52
28
20
29
8
7
52
67
52
28
20
29
8
7
51
67
51
29
20
29
8
7
52
66
51
29
20
29
8
7
52
66
51
30
20
29
9
7
53
65
52
30
20
30
9
7
54
64
53
32
20
30
9
8
55
64
52
32
20
30
9
8
55
64
52
32
20
29
9
8
55
64
52
33
20
29
9
8
56
62
53
33
20
29
9
8
55
65
54
33
20
29
9
8
55
64
55
33
20
28
9
8
56
65
55
33
20
29
9
8
57
65
55
33
20
29
9
8
57
65
55
34
20
29
9
8
57
66
55
34
21
30
9
8
57
65
55
35
21
30
9
9
59
65
56
35
21
29
9
9
60
65
56
36
20
29
9
9
60
65
56
37
20
29
9
9
58
65
56
37
20
29
9
9
59
64
56
37
20
29
9
9
60
61
56
37
20
28
9
9
62
61
56
37
20
28
9
10
62
62
56
37
20
28
9
9
61
61
55
38
19
28
9
10
62
61
55
39
20
29
9
11
62
62
54
40
20
29
9
11
62
63
54
40
20
28
9
11
62
63
54
41
20
27
9
11
63
63
53
41
19
27
9
11
63
65
53
40
20
28
9
11
62
64
50
41
19
28
9
11
61
63
49
40
20
29
9
11
60
63
49
40
20
29
9
11
60
63
51
40
21
29
9
11
59
64
50
40
20
29
9
11
59
64
50
41
20
28
9
11
60
62
49
39
20
27
9
10
58
60
48
39
20
27
9
10
57
59
48
39
19
28
9
10
57
58
48
39
19
27
9
10
55
58
46
40
19
24
9
10
56
56
46
40
18
23
9
10
56
56
43
39
18
23
9
10
57
56
44
39
18
23
9
10
57
55
44
40
18
23
9
10
56
55
46
41
18
23
9
10
57
55
47
42
18
23
9
10
58
55
47
41
18
23
9
10
58
54
48
42
18
23
9
10
58
54
48
42
18
23
9
10
57
55
48
42
18
23
9
10
57
55
48
42
19
22
9
10
56
55
48
42
19
22
9
11
58
56
47
41
19
22
9
11
58
56
47
41
19
22
9
11
58
56
47
41
19
22
9
11
58
56
48
40
20
24
10
11
57
56
47
40
20
24
10
11
57
53
46
40
20
24
10
11
57
52
45
41
20
24
10
10
56
50
46
42
20
22
9
11
59
50
46
43
20
22
9
11
59
51
45
42
20
22
9
11
59
49
45
42
19
22
9
11
58
49
45
41
19
22
9
10
56
49
43
41
19
22
9
10
56
50
43
41
19
22
9
10
55
49
45
41
20
23
9
10
55
49
45
41
20
23
9
10
54
48
46
41
20
23
9
10
52
51
46
40
19
22
9
10
50
51
46
40
20
23
9
10
51
50
46
40
20
23
9
10
51
50
46
39
19
23
9
9
49
50
45
39
19
23
9
9
52
48
45
41
19
23
9
9
54
48
45
42
19
23
9
9
56
48
44
40
19
23
9
9
54
47
44
40
19
23
9
9
54
45
44
40
18
21
9
9
55
45
45
40
17
20
8
9
55
44
45
40
16
19
8
9
55
44
45
40
16
19
8
9
55
44
42
39
16
19
9
9
55
43
44
39
16
19
10
10
55
43
44
39
17
19
9
10
55
44
44
39
17
19
9
10
55
44
44
39
17
20
10
10
58
45
43
39
17
19
9
10
58
45
43
38
17
19
9
10
58
45
43
37
17
19
9
10
57
45
43
36
17
19
10
10
58
46
44
35
17
19
10
10
58
47
43
36
17
19
10
10
59
47
43
35
17
19
9
10
56
45
40
33
17
19
9
10
58
45
40
33
17
19
10
10
57
45
40
33
18
19
10
10
56
46
39
32
18
19
10
10
56
46
39
31
18
19
10
10
56
44
38
32
19
20
10
11
58
47
38
32
19
20
10
11
59
50
38
32
19
20
10
10
57
50
38
31
19
21
10
10
57
50
38
31
19
21
10
10
58
51
39
31
19
21
10
10
58
51
39
31
18
19
10
10
58
51
39
31
18
19
10
10
59
51
40
35
18
19
10
10
59
52
40
34
18
19
10
10
59
52
39
32
18
19
10
9
56
52
39
32
18
20
10
9
56
51
41
32
19
20
10
9
56
52
41
33
19
20
10
10
57
52
41
33
19
20
10
10
57
52
41
35
19
20
10
10
58
52
41
35
21
21
11
10
57
52
40
35
23
21
11
10
57
53
39
35
23
21
11
10
57
54
38
35
23
21
11
10
59
52
38
36
23
23
11
10
60
52
38
36
24
22
11
10
60
53
38
36
24
22
11
10
60
53
38
36
23
22
11
10
60
53
38
34
23
22
11
10
58
53
41
32
23
22
11
10
55
54
41
33
23
22
11
10
54
56
41
33
23
22
11
10
53
58
41
33
23
22
11
10
54
59
41
34
23
22
11
10
55
60
41
35
23
22
11
9
54
60
41
35
23
22
11
9
55
60
42
36
24
23
11
10
55
61
42
36
25
26
11
9
56
61
41
36
26
27
10
9
55
61
40
37
25
27
10
9
55
62
41
37
25
27
10
9
57
61
41
37
25
27
10
8
54
60
41
38
26
28
11
8
55
60
41
38
26
29
12
9
55
60
41
38
26
30
12
9
56
63
41
38
26
30
12
9
54
62
40
38
26
30
12
9
54
60
41
38
26
31
12
9
53
60
41
38
26
31
12
9
54
60
41
38
26
31
12
8
52
60
41
38
26
31
12
8
53
60
40
40
26
30
12
8
54
60
41
40
26
30
12
8
54
61
41
40
26
30
12
8
56
61
41
40
25
32
11
8
56
60
42
40
25
32
11
8
55
58
41
40
25
31
11
8
54
58
41
40
24
31
11
8
53
58
41
41
24
31
11
8
53
58
40
42
24
31
11
7
53
58
41
41
24
31
11
7
55
58
40
43
24
31
11
7
53
58
40
40
25
31
11
8
53
58
40
40
25
32
11
8
53
58
41
40
25
32
12
8
53
58
41
40
25
31
12
8
53
59
40
40
25
32
12
8
53
59
40
40
25
31
12
8
52
60
41
40
25
31
12
8
51
59
41
38
24
31
11
7
51
59
41
38
22
31
11
7
51
59
40
38
21
30
11
7
51
58
41
37
21
30
11
7
51
58
40
39
21
30
11
7
50
58
40
39
20
30
10
7
50
58
40
39
20
30
10
7
50
57
40
39
20
30
10
7
50
57
40
39
20
30
10
7
50
57
42
40
20
30
11
7
51
58
40
40
20
30
11
7
51
56
40
38
20
30
11
7
51
55
40
38
20
30
11
7
52
53
43
38
20
29
11
7
51
51
43
37
20
29
11
6
49
51
44
37
21
30
11
7
51
53
44
40
21
30
11
7
52
55
48
40
20
29
10
7
51
54
48
39
19
27
10
7
51
54
48
40
18
25
10
7
54
53
48
39
22
27
12
8
54
55
47
39
22
27
12
8
52
56
47
39
22
27
12
8
52
56
47
39
20
26
11
8
51
56
47
39
20
25
10
8
52
55
47
40
20
25
10
8
53
55
47
40
20
25
10
8
54
55
47
40
21
25
10
9
55
57
46
40
21
27
10
9
54
58
46
40
21
27
10
9
55
57
46
40
21
27
10
9
55
58
46
40
21
27
10
9
54
58
46
37
22
27
10
9
53
58
45
37
22
27
10
9
53
57
45
38
22
28
10
9
52
57
45
37
22
26
10
9
50
56
44
37
22
26
10
9
50
56
45
40
22
26
11
9
53
56
46
40
23
26
11
9
53
56
46
38
23
26
11
9
53
56
45
38
23
26
11
9
53
57
44
38
23
26
11
9
52
58
45
36
24
27
11
9
53
57
44
36
24
27
11
9
53
57
44
37
23
25
11
9
54
57
44
36
23
25
11
9
53
57
44
36
23
25
11
9
53
56
43
36
23
25
11
9
55
56
43
36
23
26
11
9
55
55
42
35
23
26
11
9
56
55
43
36
23
26
11
9
56
54
43
37
24
26
12
9
56
54
43
37
24
26
12
9
57
54
42
37
24
26
12
9
57
53
42
36
24
26
12
9
57
53
42
35
24
25
11
9
56
53
42
35
24
25
11
9
56
53
42
35
23
25
11
9
57
53
42
35
23
24
11
9
57
52
40
33
23
24
11
9
55
53
39
33
23
24
11
9
56
53
40
34
23
24
11
9
56
52
40
34
23
24
11
9
55
52
38
34
23
24
11
9
56
52
38
34
23
24
11
9
55
52
35
33
23
24
11
9
54
51
34
29
23
24
11
8
53
48
31
29
23
24
11
8
54
48
31
29
23
24
11
8
54
48
31
28
23
24
10
8
51
48
31
27
19
22
9
8
50
46
31
27
19
22
9
8
50
46
31
27
19
21
9
8
50
45
31
27
19
22
9
8
50
46
31
27
19
22
9
8
49
46
31
25
19
21
9
7
46
43
31
25
19
21
8
7
45
42
31
25
18
20
8
6
45
39
31
25
17
18
8
6
45
39
31
25
17
18
8
6
44
40
30
25
17
19
8
6
44
40
31
24
17
19
8
6
43
40
31
24
16
19
8
6
43
40
31
24
16
20
8
6
43
40
31
23
16
19
8
6
42
40
31
23
16
19
8
6
42
40
31
24
16
19
7
6
41
40
30
19
16
19
7
5
38
40
29
19
14
19
7
5
37
39
29
19
14
19
7
5
37
39
29
19
14
19
7
5
37
37
29
18
14
19
7
5
37
35
28
18
12
19
6
5
35
35
28
18
12
19
6
4
34
35
27
17
12
20
5
4
33
34
27
17
12
20
5
4
33
34
27
17
11
20
5
4
33
34
27
17
11
19
5
4
30
34
27
16
11
19
6
4
29
34
27
16
11
21
6
4
29
34
25
15
11
21
6
4
29
34
25
14
9
21
5
4
29
34
24
13
9
22
6
4
26
34
24
12
9
22
6
4
25
33
24
12
9
22
6
4
23
33
23
12
9
22
8
5
23
33
23
12
9
23
8
5
23
33
23
12
8
23
8
6
23
32
22
11
8
23
8
6
22
32
22
11
8
24
9
6
22
30
21
11
8
24
10
6
21
30
19
10
8
24
10
6
20
29
16
10
8
25
10
6
19
29
16
10
8
27
11
6
19
29
16
9
9
30
11
7
18
28
16
9
9
33
13
7
18
27
15
8
9
34
13
7
17
26
9
8
9
34
14
7
15
26
9
8
7
34
15
7
14
26
9
7
7
34
15
7
14
25
9
7
7
34
15
7
14
24
9
8
9
34
15
7
14
23
9
8
9
34
15
7
13
23
8
7
9
35
16
7
12
22
8
7
9
37
16
7
12
21
7
7
10
37
16
7
12
21
7
7
10
39
16
7
12
21
7
7
10
40
16
7
10
21
7
6
11
41
16
7
10
21
7
6
11
42
17
8
9
18
7
6
11
41
18
8
9
16
5
6
11
41
18
8
8
16
5
6
11
41
18
8
8
16
4
6
11
45
18
8
8
13
4
6
11
45
20
8
8
13
4
6
11
49
21
8
7
13
4
5
12
49
21
8
6
10
3
5
12
50
22
9
5
10
3
5
12
53
22
9
5
9
3
5
12
54
23
9
5
8
3
5
12
54
23
9
5
8
3
5
13
56
23
9
5
8
3
6
13
56
23
9
6
7
3
6
13
57
23
9
6
7
3
6
13
56
23
9
6
7
3
6
13
56
24
9
6
7
2
6
13
57
25
9
5
7
2
6
13
58
25
9
5
7
2
6
14
61
26
9
5
6
2
6
14
63
27
9
5
6
2
6
15
63
27
9
5
6
2
6
15
63
27
9
5
5
2
6
15
63
28
9
5
5
2
6
15
63
28
9
5
5
2
6
15
64
28
9
5
5
2
6
15
65
28
8
5
5
2
6
15
66
28
8
5
5
2
6
15
67
30
8
5
5
2
6
15
67
30
8
5
5
2
6
15
67
29
8
5
5
2
6
16
67
29
8
5
5
2
6
16
69
29
8
6
5
2
6
16
69
29
8
6
5
2
6
16
68
30
8
6
5
2
6
16
67
30
8
6
5
2
6
17
66
31
8
6
5
3
6
17
67
31
8
6
5
3
6
17
67
30
7
6
5
3
6
18
67
31
7
6
5
3
7
21
67
32
8
6
5
3
8
21
67
33
8
7
5
3
8
21
67
33
8
7
5
3
8
21
68
33
8
7
5
3
8
21
70
33
8
7
5
3
8
21
71
33
8
7
5
3
8
21
73
34
8
7
5
3
8
21
72
34
8
7
5
3
8
21
73
34
8
7
7
3
8
22
73
36
9
7
7
3
9
22
73
36
9
8
7
4
9
22
73
35
8
9
7
4
9
22
73
35
8
9
7
4
9
22
73
35
8
9
7
4
9
22
71
36
9
9
7
4
9
22
70
35
8
10
7
4
9
22
69
34
8
9
7
4
9
22
69
34
8
9
7
4
9
23
70
34
8
9
7
4
9
23
68
33
8
9
7
4
9
23
67
33
8
10
8
4
9
23
68
34
8
12
8
4
9
23
67
34
8
12
9
4
9
23
66
34
8
12
9
4
9
23
66
34
8
12
13
4
9
23
66
34
8
12
14
4
9
23
66
33
8
12
16
5
9
23
65
33
8
13
17
5
9
23
64
33
8
13
17
5
9
22
62
32
8
14
17
5
9
22
59
31
8
14
18
5
9
22
59
31
8
16
18
5
9
22
59
31
8
16
19
5
9
22
59
30
7
16
20
5
9
22
59
30
7
17
21
5
9
22
57
30
7
17
21
5
9
22
56
30
7
18
25
6
9
22
55
29
7
18
25
6
9
21
54
28
7
18
25
6
9
21
53
28
7
18
27
6
9
21
53
28
7
18
28
6
9
21
53
28
7
18
28
6
9
21
51
28
7
18
29
7
9
21
51
28
7
18
29
7
9
21
51
26
7
18
31
7
9
21
50
26
7
18
31
7
9
20
51
24
6
20
31
7
9
19
49
24
6
20
32
7
9
19
48
24
6
20
36
8
9
19
48
23
6
20
37
9
8
15
48
22
6
20
38
9
7
15
48
20
5
21
39
9
6
15
47
20
5
21
39
10
6
15
47
19
5
21
41
10
6
15
43
19
5
21
42
10
6
14
39
18
5
24
43
10
6
14
37
17
5
25
44
11
6
14
37
17
5
25
45
11
6
14
33
16
5
26
45
11
6
12
31
13
5
26
45
11
6
12
30
12
5
26
48
15
6
11
30
12
5
26
48
15
6
12
30
12
5
26
48
16
6
12
30
11
4
26
49
16
6
12
30
11
4
27
52
17
6
12
30
11
4
27
52
17
6
12
28
11
4
27
52
17
6
12
28
10
4
27
53
18
6
9
22
10
4
27
53
18
7
9
22
9
4
28
54
18
7
9
22
10
4
28
54
18
7
9
20
7
4
28
54
19
7
9
20
7
3
28
56
19
7
9
20
7
3
28
58
21
8
9
20
6
3
30
58
24
8
9
20
7
3
30
59
26
8
9
20
7
3
30
61
26
8
9
20
6
3
30
60
26
9
9
20
6
3
30
61
27
9
9
20
6
3
32
63
29
9
9
20
5
3
32
64
29
9
9
20
5
3
33
65
29
10
9
20
6
4
37
66
29
10
9
20
6
4
37
67
30
10
9
22
6
4
37
68
30
10
9
22
6
4
37
68
30
9
9
21
5
4
38
67
30
10
9
21
5
5
38
69
30
10
9
22
5
5
39
70
31
10
10
22
6
5
39
70
31
11
10
23
6
5
40
72
31
11
10
23
6
5
40
72
31
11
10
23
6
5
40
72
31
11
10
23
6
5
41
72
31
12
10
22
6
5
41
72
31
12
10
25
6
5
44
72
32
14
10
27
6
5
44
72
32
15
10
27
6
5
45
72
32
15
10
26
6
5
45
71
36
16
10
26
7
5
45
71
40
17
10
26
7
6
46
70
40
17
11
26
7
6
48
70
41
22
11
26
7
6
49
71
42
22
11
26
7
6
50
72
43
22
11
27
7
6
51
71
43
25
11
27
7
6
50
71
44
25
11
27
7
6
49
71
44
25
11
27
7
6
49
70
44
25
11
27
7
6
49
70
44
26
11
27
7
6
50
71
45
26
13
27
7
6
50
70
44
26
14
27
7
6
50
70
44
26
13
27
7
6
50
70
44
27
13
27
7
6
51
70
46
27
13
27
7
7
51
68
46
27
13
27
7
7
53
68
46
27
13
27
7
7
54
68
46
28
13
27
7
7
53
67
46
32
14
27
7
7
53
69
50
32
14
27
7
7
53
70
51
32
14
27
7
7
53
71
51
32
14
27
7
7
53
70
52
34
14
27
6
7
54
70
53
34
14
27
6
7
54
68
52
34
15
26
7
7
53
69
51
36
15
26
6
7
53
68
50
36
15
26
6
7
53
66
50
36
15
27
6
7
53
67
50
35
15
28
7
8
53
67
50
35
15
28
7
8
54
64
49
35
15
28
7
8
54
64
52
35
15
28
7
8
53
62
52
37
15
28
7
7
50
62
53
38
16
29
7
7
50
60
55
38
15
27
7
7
50
61
54
38
16
27
7
8
51
61
54
38
16
27
8
7
50
61
54
38
17
28
8
7
50
59
54
38
17
28
8
7
50
58
54
38
16
27
7
7
51
57
54
38
16
27
7
8
53
55
55
38
16
27
7
8
54
54
55
38
17
27
7
7
53
54
55
39
17
27
7
7
53
54
55
39
17
27
7
7
53
53
55
39
17
24
7
7
50
53
57
38
17
21
7
7
50
53
57
38
17
21
7
7
49
53
57
38
17
21
7
7
49
54
54
40
17
21
7
7
49
54
51
39
17
21
7
7
48
54
51
39
17
21
7
7
47
55
51
38
17
21
7
8
49
53
51
37
17
22
6
7
49
51
50
38
17
21
7
7
48
52
50
37
17
21
7
7
48
54
51
36
17
21
6
7
48
53
52
36
17
21
6
7
49
53
52
36
18
21
6
7
49
54
52
36
18
21
6
7
48
53
52
36
16
21
7
7
47
52
52
36
16
21
7
7
48
52
52
36
16
21
7
7
48
52
52
36
16
21
7
7
47
53
51
36
16
21
7
7
47
53
51
36
16
20
7
7
46
55
50
36
16
20
7
7
46
55
51
35
16
20
7
7
46
55
52
32
15
20
7
7
46
53
49
32
15
20
7
7
47
50
48
32
15
20
7
7
46
50
48
32
15
20
7
7
46
50
47
32
15
20
7
6
45
50
46
32
15
20
7
7
47
50
46
32
15
20
7
6
47
50
46
30
15
20
7
7
47
51
48
31
15
20
7
7
47
51
49
31
15
19
7
7
47
52
49
32
15
17
6
6
47
51
49
32
15
17
6
6
47
52
48
32
15
18
6
6
47
52
47
33
15
18
6
6
47
52
49
30
16
18
6
6
47
52
48
30
15
18
6
6
47
52
47
30
15
18
6
6
47
51
48
30
15
17
6
6
46
51
48
29
15
18
5
6
47
52
49
29
14
18
5
6
47
52
49
29
14
18
5
6
47
52
49
29
14
17
5
6
48
53
50
29
14
17
5
6
45
53
49
29
15
18
6
6
44
53
50
30
15
18
6
6
45
53
50
31
15
18
6
6
45
53
50
30
15
18
6
6
46
53
50
30
16
18
6
6
46
52
49
30
16
18
6
6
46
52
51
30
16
19
6
6
47
52
50
30
16
22
6
6
47
50
51
29
16
22
6
6
46
49
52
29
16
22
6
7
47
50
52
30
16
21
7
7
46
49
52
29
16
21
7
6
43
51
52
29
16
21
7
6
42
51
52
29
16
22
7
6
42
51
53
30
16
22
7
6
45
50
53
30
16
22
7
6
47
50
52
30
16
22
7
6
47
49
52
30
16
22
8
6
47
49
52
30
16
22
8
6
50
49
52
31
16
22
7
7
51
49
52
30
16
22
7
7
51
49
52
30
16
22
7
7
52
48
52
32
16
22
7
7
52
51
52
32
16
22
7
7
51
52
52
32
16
22
7
7
52
49
52
33
16
22
7
7
53
49
52
34
16
22
7
7
52
49
52
34
16
22
7
7
52
49
51
34
16
22
7
7
52
49
51
34
16
22
7
7
53
49
52
33
16
22
7
7
53
49
52
32
16
22
7
7
53
50
54
33
16
23
7
7
51
49
54
33
15
24
7
7
52
49
54
33
15
24
7
7
52
50
53
32
16
24
8
7
53
50
53
33
16
24
8
7
53
50
53
33
16
25
8
7
53
50
53
33
16
25
7
6
52
51
53
33
16
25
7
6
52
51
51
33
16
24
7
6
52
52
49
33
16
24
7
6
52
53
49
33
16
24
8
7
52
53
49
34
16
24
8
7
52
53
49
34
16
24
8
7
52
54
50
37
16
25
9
7
51
52
49
37
16
25
9
7
51
53
48
37
16
25
9
7
51
52
48
37
16
25
9
7
50
53
47
37
16
26
9
7
50
53
48
38
15
25
8
7
50
53
49
38
15
25
8
7
49
53
48
38
15
27
8
7
49
53
48
39
15
27
8
7
48
53
48
39
15
27
8
7
48
54
48
38
14
27
8
6
48
54
46
38
15
26
8
7
48
55
47
39
15
25
8
7
48
56
46
39
14
25
8
7
48
56
45
39
14
25
8
7
48
56
45
39
14
26
8
6
48
56
45
38
14
26
8
6
47
55
44
38
14
26
8
6
47
55
44
39
14
25
7
6
48
55
45
38
14
25
7
6
46
54
45
39
14
25
7
6
43
54
45
39
14
25
8
6
43
55
45
39
14
25
8
7
43
56
44
39
14
25
8
7
39
56
44
38
14
25
8
6
38
56
44
38
14
25
8
6
38
56
44
39
15
26
8
6
37
57
45
37
15
26
8
6
36
54
44
38
15
26
8
6
36
53
46
37
15
26
8
6
36
53
46
36
15
26
8
6
34
53
46
36
15
26
8
6
34
53
45
36
15
26
8
6
34
53
46
35
15
26
8
6
35
53
48
38
16
26
8
6
35
52
47
40
16
26
8
6
36
54
47
40
16
26
8
6
36
51
44
39
15
25
8
6
36
51
44
40
15
24
8
6
35
51
44
40
15
24
8
6
35
50
44
40
15
24
8
6
35
49
43
39
15
24
8
6
34
48
42
39
15
22
8
6
34
49
42
40
15
22
8
6
34
47
43
39
15
22
8
6
34
47
43
39
15
23
8
6
34
46
43
39
15
23
8
6
33
45
44
39
15
23
7
6
35
44
44
38
15
23
7
6
35
44
44
38
15
23
7
6
35
43
43
35
15
21
7
6
35
43
42
35
15
21
7
6
35
42
42
35
15
21
7
6
34
42
42
36
15
21
7
5
34
41
43
37
15
20
7
5
34
41
43
36
15
19
7
6
34
43
44
35
14
19
7
6
34
44
44
35
15
18
7
6
34
44
45
33
14
18
7
6
34
45
47
33
14
18
7
6
34
44
47
33
14
18
7
6
34
44
47
34
14
18
7
5
34
43
46
34
14
16
7
5
33
42
46
33
14
16
7
5
34
42
46
33
14
16
7
5
34
42
46
33
14
15
7
5
34
42
47
33
14
14
7
5
34
40
48
33
14
15
7
5
34
40
47
31
14
15
7
5
34
40
45
32
14
14
6
5
34
40
45
31
14
15
6
5
34
40
45
30
13
14
6
5
34
38
44
30
13
14
6
4
34
41
44
31
14
14
6
4
34
42
44
32
14
14
6
4
34
42
44
32
13
13
6
4
34
43
45
31
12
12
5
4
34
42
44
31
12
12
5
4
34
43
44
32
12
12
5
4
35
46
43
32
11
12
5
4
34
47
43
32
12
11
5
4
33
48
43
32
12
11
5
4
34
48
42
32
12
11
5
4
33
48
42
32
12
12
5
4
32
48
40
29
10
12
5
4
31
49
40
26
10
12
5
4
30
47
40
26
11
12
5
4
30
47
40
26
11
12
5
4
30
47
42
25
11
12
5
4
30
47
42
25
11
12
5
4
29
47
42
25
11
12
5
4
28
47
42
25
11
12
5
4
28
47
42
24
11
12
5
4
28
46
42
23
10
12
5
4
28
47
41
23
11
13
5
4
28
48
41
24
11
13
5
4
28
47
41
24
11
13
5
4
28
47
40
24
11
13
5
4
25
48
40
23
11
13
5
4
25
48
40
25
10
14
4
4
24
47
40
25
10
15
4
4
23
47
40
25
10
15
4
4
23
47
40
24
10
22
5
4
23
47
40
23
10
22
5
4
23
47
39
22
10
23
5
4
23
46
38
22
10
24
5
4
22
44
34
22
10
30
5
4
22
43
34
22
10
33
6
4
22
42
34
22
10
33
6
4
22
42
31
22
10
33
6
4
22
42
31
21
10
33
6
4
22
42
30
21
10
33
6
4
22
42
30
19
9
33
6
4
21
41
29
19
9
34
6
3
20
41
29
19
9
34
6
3
20
41
29
19
9
34
6
4
20
41
25
19
9
35
6
3
20
41
25
19
9
35
6
3
19
40
25
19
9
35
6
3
19
40
25
18
9
35
6
3
17
40
25
18
9
36
6
4
17
40
25
18
9
40
8
3
17
40
24
18
9
43
8
3
16
36
24
16
8
43
8
3
16
34
24
16
9
45
10
4
16
34
24
16
9
45
10
4
15
32
22
16
9
45
11
4
14
32
22
16
9
46
11
4
14
31
22
15
9
47
12
4
12
26
19
14
9
49
12
4
11
25
19
14
9
51
13
5
11
23
19
14
9
51
13
5
10
22
19
13
9
51
13
5
10
22
19
13
9
51
14
5
9
21
18
13
9
52
14
5
9
20
17
13
9
54
14
5
9
19
17
12
9
56
14
5
9
18
15
12
9
58
16
5
8
18
8
12
10
59
16
5
8
18
8
12
10
61
19
5
8
17
7
11
10
62
19
5
8
17
7
11
10
62
19
5
8
17
7
11
10
63
20
5
6
17
7
11
10
63
21
6
6
11
7
11
10
64
20
6
6
11
6
9
12
64
21
6
6
11
6
9
12
64
21
6
6
10
6
9
12
65
21
6
6
7
6
9
12
65
21
6
5
7
5
5
12
65
21
6
5
5
4
5
12
65
21
6
5
5
4
5
12
66
21
6
5
5
4
5
13
65
22
7
5
5
4
5
13
67
23
7
5
5
4
5
13
66
23
7
5
4
4
5
13
66
23
7
5
4
4
6
14
66
23
7
5
5
4
6
14
65
23
7
5
4
4
6
14
67
23
7
5
4
3
6
14
66
23
7
5
4
3
6
14
67
23
7
5
4
3
6
14
68
24
7
4
4
3
5
15
70
25
7
4
4
3
5
15
72
25
7
4
4
3
5
15
72
25
7
4
4
3
5
15
72
25
7
4
4
3
5
15
72
25
7
4
4
3
5
15
73
25
7
4
4
3
6
17
74
27
7
5
4
3
6
17
74
27
7
5
4
3
6
17
74
27
7
5
5
3
6
17
72
28
7
5
5
3
7
17
71
28
8
5
5
4
7
18
71
28
8
5
5
4
7
18
70
27
7
5
5
4
7
18
70
28
7
5
5
4
7
18
71
29
7
5
5
4
8
19
70
29
7
5
5
4
8
19
70
28
8
6
5
4
8
19
69
29
8
6
5
4
8
19
67
28
7
6
5
4
8
19
68
28
7
6
5
4
8
20
68
29
7
6
5
4
8
20
68
29
7
6
5
4
8
21
68
30
7
6
5
4
9
21
66
31
7
6
5
4
9
20
65
31
7
6
5
4
9
20
64
32
8
7
6
4
9
20
63
32
8
7
6
4
9
20
62
30
7
7
6
4
9
20
61
30
7
8
6
4
9
20
62
31
8
8
6
4
9
20
62
30
7
8
6
4
9
20
61
30
7
8
6
4
9
20
61
30
7
8
6
4
8
19
61
30
7
7
5
4
8
19
62
30
7
7
5
4
8
19
61
30
7
7
5
4
9
19
61
30
7
8
6
4
9
19
60
30
7
9
6
4
9
19
60
30
7
9
6
4
9
19
60
30
7
9
6
4
9
19
59
30
7
9
6
4
9
19
58
30
7
10
7
4
9
19
58
29
7
13
7
4
9
19
58
29
7
13
8
4
9
19
56
29
6
13
8
4
9
19
55
29
6
13
8
4
9
19
53
29
6
13
8
4
9
19
53
29
7
15
9
4
9
19
53
29
7
15
9
4
9
18
52
29
7
16
9
4
9
18
49
28
7
16
9
4
8
18
46
28
6
16
10
4
8
18
47
28
6
16
11
4
9
18
47
28
6
16
11
4
9
18
47
28
6
16
11
4
9
17
46
27
6
16
12
4
8
16
44
26
6
16
11
4
8
16
44
26
6
16
11
4
8
16
44
26
6
16
12
4
8
15
43
25
6
16
12
4
7
15
43
24
6
16
12
3
7
15
42
24
6
16
12
3
7
15
42
24
6
17
12
4
7
15
42
23
5
16
14
4
7
15
41
22
5
17
17
4
6
14
40
22
5
17
17
4
6
13
40
22
5
17
17
4
6
12
40
22
5
17
18
4
6
12
39
22
5
17
20
4
6
12
39
22
5
17
21
5
6
11
38
20
4
17
21
5
6
11
38
20
4
17
22
5
6
10
38
19
4
17
25
5
5
10
38
17
4
17
29
5
5
10
37
17
4
17
29
5
5
10
35
14
4
17
29
5
5
10
36
13
4
17
29
5
5
9
36
13
4
17
31
9
5
9
36
13
3
17
31
9
6
9
33
11
3
17
32
9
5
8
33
11
3
17
32
9
6
8
32
11
3
17
33
11
6
8
32
11
3
17
35
11
6
8
32
10
3
17
36
12
7
8
29
9
3
17
38
12
7
8
29
9
3
17
38
12
7
8
29
9
3
17
38
13
7
8
30
9
3
17
40
13
7
8
30
8
3
17
40
13
7
8
29
8
3
17
41
14
6
7
26
6
3
17
41
14
6
6
26
6
3
17
41
14
7
6
26
6
3
15
42
14
7
6
26
5
3
15
42
14
7
6
25
5
3
15
42
15
7
6
25
5
3
15
42
15
7
6
24
5
3
15
43
15
7
6
24
5
2
14
42
15
7
6
24
5
2
14
42
15
7
6
24
5
2
13
42
15
7
6
24
4
2
13
43
15
8
6
23
4
2
14
43
16
8
6
21
4
2
15
43
16
8
6
18
4
2
15
44
16
8
7
18
4
2
15
44
17
8
6
18
4
2
15
44
17
8
6
18
4
2
16
44
17
9
7
18
4
2
16
44
21
11
7
17
3
2
16
46
24
12
7
17
3
2
16
46
24
12
7
16
3
2
16
46
25
12
7
16
3
2
16
46
26
13
7
16
3
2
16
46
31
15
8
16
3
2
18
46
33
15
8
16
3
3
22
47
33
15
8
16
3
3
22
47
33
16
8
16
3
3
23
47
33
16
9
20
5
3
23
48
33
17
9
20
5
3
23
49
33
19
9
20
5
3
24
49
33
24
9
20
5
3
25
49
35
24
9
20
5
3
25
49
36
24
9
20
5
3
26
48
38
25
9
20
5
4
27
45
38
25
9
20
5
4
30
45
38
25
9
19
5
4
30
46
38
26
9
18
5
4
31
49
38
26
9
18
5
5
31
49
38
26
9
18
5
5
32
49
39
27
9
18
5
5
32
50
43
27
9
17
5
5
32
51
43
27
10
17
5
5
32
50
43
27
10
18
5
5
32
49
43
29
10
18
5
5
32
49
43
29
10
19
5
5
32
47
43
29
10
19
5
5
32
48
43
29
10
19
5
5
32
48
44
30
11
19
5
5
32
46
44
30
10
19
5
5
32
47
45
30
11
19
5
5
33
47
45
30
11
19
5
5
33
47
45
30
11
20
5
5
35
47
46
31
11
20
5
5
36
46
47
31
11
20
5
5
36
46
50
31
11
19
5
5
36
47
50
31
11
19
5
5
36
47
51
31
11
22
6
6
36
47
51
32
11
25
6
6
36
47
51
32
11
25
6
6
36
47
51
35
11
25
6
6
37
47
53
37
11
25
6
6
38
48
53
38
11
26
6
6
39
49
54
38
11
26
6
6
38
49
54
38
11
26
6
6
38
48
54
38
11
26
6
6
39
51
54
38
11
26
6
6
38
51
55
38
11
26
7
6
38
54
55
38
11
26
7
6
39
53
54
38
11
26
7
6
39
54
53
38
11
27
7
6
40
55
53
39
12
27
7
6
41
55
53
40
12
27
6
6
41
55
53
39
12
27
7
6
42
55
51
39
12
27
7
6
41
55
50
39
12
28
7
6
41
55
50
39
13
27
7
6
44
55
51
39
13
27
7
6
44
54
51
38
12
25
6
6
45
54
52
39
12
25
6
6
45
52
51
38
12
25
7
6
44
53
51
35
13
25
7
6
44
53
51
35
13
25
7
6
44
55
51
35
13
25
7
6
44
57
49
36
12
25
7
6
45
59
50
36
12
25
7
6
44
59
50
35
13
26
8
6
44
58
50
35
13
25
8
6
44
57
50
36
13
25
8
6
45
56
51
36
13
25
8
6
45
56
50
35
13
25
8
6
45
54
47
35
13
25
8
6
45
55
47
36
14
25
8
6
45
55
47
36
14
25
8
6
45
55
47
34
14
25
8
6
45
56
47
34
14
24
8
6
46
56
48
34
14
25
8
6
46
55
48
34
14
25
8
6
48
55
48
34
14
24
8
7
49
57
47
34
14
24
8
7
49
56
47
35
14
24
8
6
48
56
47
34
14
24
8
6
49
56
48
34
14
24
8
6
48
55
47
34
14
24
8
6
47
57
50
34
14
25
9
7
48
57
47
35
15
25
9
7
49
57
46
35
15
25
9
7
50
56
46
34
15
22
8
6
50
56
47
34
15
18
8
6
50
56
46
33
14
18
8
6
50
56
46
30
14
18
8
6
50
56
45
28
14
18
8
6
49
55
45
29
14
17
8
6
50
55
46
31
15
18
8
6
51
55
47
31
15
18
8
6
52
55
47
30
15
18
8
6
53
56
47
30
16
18
8
6
54
57
47
30
16
17
8
6
54
55
47
30
16
17
8
6
54
55
46
30
16
17
8
6
53
53
46
30
16
17
8
6
53
52
46
28
16
17
8
6
53
52
46
28
16
17
9
6
53
53
45
28
17
17
9
6
52
55
46
29
16
16
9
6
52
55
46
29
16
15
8
6
51
54
45
29
16
15
8
6
48
54
45
29
16
15
8
6
48
54
46
29
16
15
8
6
47
55
46
28
16
15
8
6
47
55
47
28
16
16
8
6
47
53
47
27
16
16
8
6
47
54
46
27
17
16
8
6
47
53
46
27
17
16
8
6
47
51
46
27
17
16
8
6
48
49
45
27
17
16
8
6
48
49
45
27
17
15
7
6
48
48
45
27
17
15
7
6
48
48
45
27
17
15
8
6
48
48
43
27
17
15
7
6
49
48
43
26
18
15
7
6
49
48
44
26
18
15
7
6
48
47
44
25
17
15
8
6
48
47
45
25
17
16
8
6
48
47
44
25
18
16
8
6
48
47
44
25
18
15
7
6
48
46
47
25
17
14
7
6
47
47
47
25
18
14
7
6
45
46
46
25
18
14
7
6
45
47
47
26
18
14
7
6
45
48
49
26
18
14
7
6
45
48
48
25
19
14
7
6
45
49
49
25
18
14
7
6
45
50
48
25
18
14
7
6
47
51
45
25
18
14
7
6
48
52
45
24
18
14
7
6
47
52
45
25
19
16
7
6
46
52
45
25
19
16
7
6
47
52
44
25
19
16
7
6
48
51
44
26
19
16
7
6
49
51
45
26
19
16
7
6
49
52
45
26
19
16
7
6
50
52
45
25
19
16
7
6
48
52
43
23
18
16
7
6
46
52
42
23
19
17
7
6
46
51
43
23
19
17
7
6
44
49
42
22
19
17
7
6
44
46
41
22
18
17
7
6
44
46
41
22
18
17
7
6
44
46
42
23
18
18
7
6
44
46
42
23
18
18
7
6
44
46
43
23
18
18
7
6
44
47
43
23
18
18
7
6
44
47
42
23
17
19
6
5
43
45
42
23
17
18
6
5
44
45
44
23
17
19
6
6
45
45
44
23
17
19
6
6
45
45
44
23
17
19
6
6
46
46
42
23
17
18
6
6
47
46
42
25
17
19
6
6
47
47
41
25
17
18
6
6
47
47
41
25
17
18
6
6
47
46
41
25
16
18
6
6
47
45
41
25
16
18
6
6
47
46
42
25
16
18
6
6
44
46
42
25
16
17
6
6
44
46
42
25
16
17
6
6
44
47
42
26
16
18
6
6
43
48
42
25
15
18
6
6
43
47
42
25
15
18
6
6
42
48
42
25
15
18
6
5
42
48
42
27
14
18
6
5
43
48
41
27
14
17
6
6
43
48
41
27
14
17
6
6
43
48
41
27
14
17
6
6
43
48
41
27
14
17
6
6
43
48
37
27
14
17
6
6
43
48
37
27
14
17
5
6
43
48
38
27
13
17
5
6
43
47
37
27
12
17
5
6
44
46
36
26
12
17
5
6
44
49
37
27
12
17
6
6
43
48
36
27
12
17
6
6
42
47
37
27
12
17
5
5
40
44
37
27
12
17
6
5
37
44
37
27
11
16
5
5
37
44
37
27
10
15
5
5
36
44
37
27
11
15
5
5
37
44
37
26
10
15
5
5
39
44
36
25
10
15
5
5
38
45
37
26
11
15
5
5
38
45
37
26
11
15
5
5
38
45
37
26
11
15
5
6
38
46
36
25
10
15
5
6
38
46
35
26
10
14
5
6
38
46
35
26
11
14
6
6
38
47
35
26
10
14
6
6
38
47
36
26
10
14
6
6
38
47
35
26
10
14
6
6
38
48
36
26
10
12
6
6
40
50
35
26
10
12
6
6
40
52
36
26
10
12
6
6
40
51
36
26
10
12
5
6
41
51
36
26
10
11
6
7
41
51
37
25
11
11
6
7
41
52
34
24
11
11
6
6
39
53
34
26
11
11
6
6
39
53
35
26
11
11
6
6
39
52
35
25
11
11
6
6
38
51
35
24
10
10
6
6
37
51
35
24
10
10
5
6
37
51
35
24
10
11
6
6
37
51
35
24
10
12
6
6
38
51
35
25
10
11
6
6
37
51
36
25
11
11
6
6
38
51
36
25
11
12
6
6
38
52
38
25
11
11
6
6
38
51
40
24
11
11
5
6
39
50
39
26
11
11
5
6
41
50
40
26
11
11
5
6
43
50
41
26
11
11
5
6
43
50
41
24
11
11
5
6
42
49
41
24
11
11
5
6
42
49
41
25
11
11
5
6
41
50
43
26
11
11
6
6
41
50
42
26
11
11
6
6
42
50
43
26
11
11
6
6
42
49
43
26
12
12
6
6
42
50
44
26
12
12
6
6
42
49
43
26
13
13
6
6
42
50
43
26
12
13
6
6
44
47
42
26
13
13
6
6
44
47
41
25
13
13
6
6
44
48
41
25
13
13
6
6
44
48
41
25
12
13
6
6
44
48
40
27
12
12
6
6
45
48
41
27
12
12
6
6
45
48
40
27
12
12
6
6
44
48
41
27
12
12
6
6
41
48
41
27
12
12
6
5
40
47
40
26
12
12
6
5
40
46
40
26
11
12
6
5
40
46
40
26
12
12
6
5
40
46
40
26
12
12
6
5
40
46
39
26
12
12
6
5
39
46
39
25
11
12
5
4
39
45
39
25
11
13
5
4
39
45
38
25
11
13
5
4
39
45
38
25
11
13
5
4
38
44
38
25
11
14
5
4
36
42
38
25
11
14
5
4
36
39
36
25
11
15
5
4
36
39
36
24
11
16
6
4
34
39
36
24
11
16
6
4
34
38
35
24
10
18
6
4
34
36
35
25
10
18
7
4
34
34
34
23
10
20
7
4
34
33
34
23
11
21
7
4
34
33
34
23
11
21
8
4
33
33
34
22
11
21
8
4
33
33
33
22
11
21
8
4
33
33
33
22
11
22
9
4
33
32
33
22
11
23
9
4
32
33
33
21
11
25
9
4
32
31
31
21
11
27
9
4
31
31
31
21
11
28
9
4
31
29
28
21
11
28
9
4
31
28
25
20
11
28
10
4
28
28
25
18
12
31
10
4
26
28
23
18
12
33
10
4
22
28
23
18
12
34
10
4
22
28
23
18
12
34
11
4
22
28
21
17
12
35
11
4
22
27
20
15
12
35
12
4
22
27
16
13
13
40
12
4
22
26
16
13
13
40
12
4
21
26
16
13
12
43
12
4
21
25
16
12
12
43
12
4
20
24
10
12
11
43
13
4
19
24
10
12
11
43
13
4
18
22
9
12
11
46
13
4
13
22
8
12
11
47
13
4
13
22
7
12
10
47
13
4
13
19
7
12
11
48
13
4
13
19
7
11
11
49
13
4
12
18
7
7
11
49
13
4
8
17
6
7
12
52
14
4
8
16
6
7
12
52
14
4
7
16
6
7
12
52
15
4
7
16
6
6
12
53
15
4
7
16
4
6
12
55
15
4
6
15
4
6
12
56
15
5
6
14
4
6
13
58
15
5
6
11
3
7
15
58
16
5
5
10
3
7
15
58
16
5
5
10
3
6
15
59
16
5
5
10
3
6
15
59
16
6
5
9
3
6
15
59
17
6
5
8
3
6
16
61
17
6
5
7
3
6
16
61
17
6
5
6
3
6
16
61
17
6
5
6
3
6
16
63
18
6
5
6
3
7
16
64
18
6
5
7
3
7
16
64
18
6
5
7
3
6
16
64
18
6
5
6
3
6
16
65
17
6
5
6
3
6
16
64
18
6
5
6
3
7
16
65
19
7
6
7
3
6
16
65
19
7
6
7
3
7
18
67
19
7
7
7
3
7
18
68
19
7
7
7
3
7
18
68
19
7
7
7
3
7
18
68
21
7
8
8
3
7
18
67
21
7
10
8
3
7
18
66
21
7
10
8
3
7
18
66
21
7
10
8
4
8
18
66
21
7
10
8
7
8
18
66
21
7
10
8
7
8
18
65
21
6
10
8
7
8
17
65
22
6
10
8
7
8
20
66
23
7
10
8
7
8
20
69
23
7
11
9
7
8
20
69
22
7
11
9
7
8
20
69
22
7
12
9
7
8
19
66
22
7
12
9
7
8
19
66
22
7
12
9
7
8
19
65
23
7
13
9
7
8
19
67
23
7
15
10
7
8
19
67
23
7
17
10
7
8
19
68
23
7
18
10
7
8
19
65
23
7
18
10
7
8
19
65
23
7
18
10
7
8
19
65
23
7
19
10
7
8
19
64
23
7
19
10
7
8
19
64
23
7
19
10
7
8
19
64
23
7
19
10
7
8
19
63
23
7
19
11
7
8
19
65
23
7
20
11
7
8
20
68
23
7
20
11
7
8
20
68
23
7
20
11
7
8
20
66
23
7
21
11
7
8
20
65
22
7
21
12
7
8
19
64
22
7
21
12
7
7
18
64
22
6
21
11
7
7
18
64
22
6
21
12
7
7
18
64
22
6
21
12
7
7
18
63
21
6
21
12
7
7
17
64
21
6
23
12
7
7
17
62
21
6
23
12
7
7
17
62
21
6
24
13
7
7
17
62
21
6
24
13
7
7
17
60
21
6
24
14
7
7
17
59
20
5
24
14
7
7
17
59
20
5
24
14
7
7
17
58
20
6
24
14
7
7
17
57
20
6
24
14
7
7
17
58
19
5
24
15
7
7
16
57
19
5
24
14
7
7
16
57
18
5
24
14
7
7
15
55
18
5
24
14
7
7
14
53
17
5
24
14
7
7
14
53
18
5
24
14
7
7
14
53
16
5
25
14
7
7
14
54
16
4
27
14
7
7
14
54
16
5
27
19
7
7
14
54
15
5
27
19
7
6
14
54
15
5
27
18
4
6
14
53
15
5
28
19
4
6
14
53
14
5
28
19
4
6
14
52
14
5
28
20
4
6
10
50
11
4
28
20
4
6
10
47
11
4
28
22
5
6
10
46
11
4
28
22
6
6
10
46
11
4
28
24
6
6
10
46
10
4
28
25
6
6
10
46
10
4
28
27
6
7
10
44
8
4
28
32
6
7
10
43
8
4
27
32
10
7
10
42
8
3
26
31
10
7
10
41
7
3
26
34
10
7
10
41
7
3
26
34
10
7
10
40
7
3
26
34
10
7
10
40
7
3
26
34
10
8
10
40
7
3
26
35
10
8
10
40
6
3
26
36
10
8
10
40
6
3
26
36
12
8
10
37
6
3
26
40
12
10
9
32
6
3
26
40
16
11
8
27
6
3
26
43
16
11
7
26
5
3
26
43
16
11
7
28
5
3
26
43
17
11
7
28
5
3
27
45
18
11
7
28
5
3
27
45
18
11
7
26
5
3
27
47
18
11
7
26
5
3
27
49
19
11
7
29
5
3
27
50
21
11
7
29
5
3
27
51
21
12
8
28
5
3
25
51
21
12
7
27
5
3
25
52
21
12
7
27
5
3
25
52
21
12
7
27
5
3
25
53
21
13
8
27
5
3
25
53
21
13
8
27
5
3
25
53
22
13
8
27
5
3
25
54
22
13
8
27
5
3
26
54
23
13
8
27
5
3
27
55
23
14
9
26
5
3
28
55
24
14
9
25
4
3
29
55
26
14
9
25
4
3
29
55
26
15
9
25
4
3
29
55
27
15
9
25
5
3
30
56
32
15
9
25
4
3
33
57
32
15
9
25
4
4
34
57
32
15
9
24
4
4
32
57
33
15
9
24
4
4
32
56
37
15
10
24
4
4
32
56
37
16
10
24
4
4
32
56
40
15
10
24
4
4
32
56
40
16
10
24
4
4
32
57
43
17
10
24
4
4
32
58
43
17
10
24
4
4
32
58
44
17
10
23
4
4
32
57
45
17
10
24
4
4
32
57
44
17
10
24
4
5
34
57
45
17
10
24
4
5
34
56
45
18
10
24
4
5
34
56
46
18
10
23
4
5
34
54
47
18
10
24
4
5
34
55
47
19
10
24
4
5
34
55
47
19
10
24
5
5
34
54
47
19
10
24
5
5
34
55
50
19
10
24
5
5
35
55
50
19
10
24
5
5
36
58
51
19
11
24
5
5
37
57
51
19
11
24
5
5
37
57
51
19
11
24
5
5
37
57
51
22
11
25
5
5
38
55
52
22
11
27
5
5
37
54
52
21
11
27
5
5
37
53
52
21
11
26
5
5
37
56
52
22
11
24
5
5
38
56
53
22
11
25
5
5
37
55
53
23
11
24
5
5
38
55
53
23
12
25
5
6
38
55
53
23
12
24
5
6
38
54
54
24
12
20
5
6
38
53
54
24
12
20
5
6
38
52
54
24
11
20
5
6
38
53
54
24
11
20
5
6
38
54
54
24
12
20
5
6
38
54
57
24
12
20
5
6
38
53
57
24
12
20
5
6
38
53
57
23
13
20
5
6
39
53
58
24
13
20
5
6
40
54
58
24
13
20
5
6
40
54
58
24
12
20
5
6
39
54
58
24
12
20
5
6
38
55
58
25
12
20
5
6
38
55
57
25
12
20
5
6
38
57
57
26
12
20
5
6
38
57
59
28
12
20
5
6
40
57
56
30
13
20
5
6
37
56
57
30
13
20
5
5
36
57
57
30
13
20
5
6
38
58
58
30
13
19
5
6
38
57
58
30
13
19
5
6
38
58
59
30
13
19
5
6
38
58
57
30
13
19
5
6
37
58
57
30
14
19
6
6
38
58
55
30
14
19
6
6
39
57
54
30
13
20
6
6
39
57
54
30
13
19
6
6
39
57
54
30
13
18
6
7
40
57
54
30
13
18
6
6
39
57
54
30
13
18
6
6
39
57
53
30
13
18
6
6
39
56
53
32
13
18
6
6
39
56
53
32
13
18
6
6
39
56
52
31
13
18
6
6
39
56
52
33
14
18
6
6
39
55
52
33
14
18
6
6
39
55
50
33
14
18
6
6
38
56
50
33
14
18
6
6
38
53
50
33
13
17
6
6
37
54
50
33
13
17
6
6
37
55
50
33
13
17
6
6
37
54
49
31
13
15
6
6
38
55
49
32
13
12
6
6
41
55
47
31
13
12
6
6
40
54
47
31
13
12
6
6
41
51
47
31
13
13
7
6
41
51
47
35
13
13
7
6
43
52
47
35
13
13
7
6
43
52
47
35
13
12
6
6
43
53
46
35
13
12
6
6
44
51
45
35
13
12
7
6
44
51
47
35
14
13
7
6
44
51
47
35
14
13
7
6
44
53
47
35
14
13
7
6
44
51
47
36
14
13
7
6
45
51
45
36
14
13
7
7
45
51
48
36
14
14
7
7
45
53
48
36
13
14
7
6
44
56
47
36
13
14
7
6
44
54
46
36
13
14
7
6
44
54
48
36
14
14
7
6
44
54
48
36
14
14
7
6
44
53
48
35
14
14
7
6
44
53
48
37
15
14
7
6
45
50
48
36
15
14
7
6
46
52
46
35
15
14
7
6
45
53
46
34
14
14
7
6
45
53
46
33
14
14
7
7
44
52
46
33
15
15
7
6
44
51
44
33
15
15
7
6
44
51
40
33
15
15
7
6
44
50
40
33
15
15
7
6
45
50
41
33
15
15
7
6
46
50
42
33
15
14
6
6
46
50
42
34
17
15
8
6
46
49
42
35
17
15
8
6
46
49
42
34
17
15
8
6
46
50
42
34
18
15
8
6
45
49
42
35
18
15
8
6
45
50
42
35
18
15
8
6
45
50
42
34
18
15
8
6
46
50
43
34
18
15
8
6
46
49
43
35
18
15
8
7
48
49
45
35
18
16
8
7
48
49
45
34
18
16
8
7
49
51
45
34
18
16
8
7
50
50
45
34
18
17
8
7
50
50
45
34
18
17
8
7
49
50
46
35
18
17
8
6
49
49
46
35
18
17
8
6
49
49
46
35
18
17
8
6
49
49
47
37
18
17
8
7
49
49
47
37
18
17
8
7
47
51
47
37
18
17
8
7
50
51
48
38
18
17
8
8
49
51
48
38
18
18
8
8
51
54
48
34
18
17
8
8
52
55
48
35
18
17
8
8
52
56
48
35
18
17
8
8
52
54
48
35
18
18
8
8
51
54
48
36
18
18
8
8
54
54
49
36
18
17
8
8
55
53
49
36
18
17
8
8
55
51
49
36
18
17
8
8
55
51
49
36
18
17
8
8
54
51
48
36
18
17
8
8
55
51
46
36
18
16
8
8
56
51
46
39
18
17
8
8
59
50
47
38
18
17
9
8
59
50
46
38
18
17
8
8
59
49
44
38
18
17
8
8
60
49
44
39
18
17
9
8
60
49
45
39
18
17
9
8
60
49
47
37
17
17
8
8
60
50
47
37
17
18
8
8
59
48
47
37
17
18
8
8
60
47
47
37
18
18
9
8
60
47
47
38
17
18
9
8
60
49
47
38
17
18
8
8
60
49
47
38
17
18
9
8
60
49
46
38
17
18
9
8
60
49
47
39
17
19
9
9
59
49
46
39
17
19
9
8
61
49
47
38
17
19
9
8
60
49
47
39
15
18
9
8
59
50
48
38
16
19
8
8
60
50
48
38
15
19
9
8
60
51
48
38
15
19
9
8
61
51
48
38
15
18
9
8
63
51
48
39
15
18
9
9
65
52
48
39
15
18
9
9
64
52
47
39
15
18
9
9
64
52
47
38
15
18
9
8
62
52
45
38
15
18
9
8
63
53
45
39
15
18
9
8
62
52
46
39
15
18
9
8
62
53
45
39
15
17
9
8
62
56
45
38
15
17
9
9
63
58
43
38
15
17
9
9
64
59
45
38
15
17
8
9
65
58
45
38
15
17
9
9
65
59
44
36
15
17
8
8
64
58
45
36
15
17
8
8
64
56
44
36
15
17
8
8
62
57
44
36
15
17
8
8
62
57
43
36
15
17
8
8
61
55
43
37
15
17
8
8
60
55
43
36
15
17
8
8
59
55
43
37
14
17
8
8
59
55
43
37
14
17
8
8
59
55
46
36
14
17
8
8
58
55
43
36
14
17
8
8
57
55
42
36
14
17
8
8
57
55
42
36
14
17
8
8
57
55
42
36
14
17
8
8
58
56
42
36
14
17
8
8
57
55
41
36
15
17
8
8
57
53
41
33
14
17
8
8
55
52
43
34
14
18
8
8
55
52
43
34
14
17
8
8
55
52
43
34
14
17
8
8
53
52
43
34
13
17
7
7
53
53
42
34
13
17
7
7
52
53
40
34
13
16
7
7
53
55
40
34
13
15
7
7
53
54
40
34
13
15
7
7
52
54
41
34
13
15
7
7
53
57
41
33
14
16
7
7
54
55
41
33
14
17
8
7
54
55
42
33
14
16
8
7
54
55
43
33
14
16
8
7
53
55
42
33
14
16
7
7
56
55
42
33
14
16
7
7
55
55
42
33
14
16
7
7
55
56
42
31
13
15
7
7
55
55
41
31
13
14
7
8
54
55
40
31
13
15
7
8
56
55
40
31
13
15
7
8
55
55
42
31
13
15
7
8
52
54
42
30
13
15
7
7
50
53
42
29
13
15
7
7
53
54
42
29
13
15
7
7
54
55
41
29
13
15
7
8
54
55
43
29
13
15
6
8
54
54
43
27
12
15
6
8
56
54
46
28
13
15
7
8
57
51
46
29
14
15
7
8
58
48
47
30
14
15
7
7
57
46
47
30
14
15
7
8
56
46
45
30
14
16
7
8
57
45
46
30
14
16
7
8
57
46
46
30
14
16
7
8
56
46
45
29
14
16
7
8
56
46
45
29
14
16
7
8
56
45
45
29
14
17
7
8
56
46
46
29
14
17
7
8
56
46
46
28
14
17
7
8
57
43
47
28
14
16
7
8
58
43
47
27
14
16
7
8
58
43
47
25
14
16
7
8
58
43
45
26
14
16
7
8
59
43
45
27
14
16
7
8
60
43
46
30
15
16
7
8
60
44
46
30
15
16
7
8
60
44
46
29
15
16
7
9
59
44
46
29
15
17
7
9
60
45
46
29
15
17
7
9
59
46
46
29
15
17
7
9
59
46
46
29
15
17
7
9
62
48
45
28
15
16
7
9
61
48
45
29
15
16
7
9
61
47
46
29
15
16
7
9
62
47
46
29
15
16
7
9
63
47
46
29
15
16
7
10
63
45
45
29
15
16
7
10
65
45
45
30
15
16
7
10
65
46
44
30
15
16
7
10
65
43
44
30
13
15
7
10
64
43
44
30
13
14
6
10
65
43
43
30
13
14
6
10
65
42
42
30
13
14
6
10
65
43
42
30
13
14
6
9
62
42
42
30
13
14
6
9
62
42
40
30
13
14
6
9
62
42
40
30
12
15
6
9
62
42
40
29
12
15
6
9
61
42
40
29
12
14
6
9
60
41
40
29
12
15
6
9
60
41
39
29
12
14
6
9
60
41
39
29
12
14
6
9
60
42
39
29
12
14
6
9
57
40
38
29
12
14
6
8
57
39
38
29
12
15
6
8
56
39
36
29
12
16
6
8
56
39
36
29
12
17
6
8
53
39
31
28
11
19
6
8
52
39
31
27
10
19
6
8
51
39
30
25
10
19
6
8
50
39
29
25
10
20
5
8
50
38
29
25
10
22
6
8
48
38
28
25
10
22
7
7
48
36
28
25
10
27
8
7
48
36
28
25
10
27
8
8
48
36
28
25
10
28
9
8
48
36
28
25
10
28
9
7
47
35
26
25
10
28
9
7
47
35
26
24
10
30
9
7
45
34
23
24
9
30
9
7
44
34
23
24
9
30
10
7
43
34
23
24
9
30
10
7
43
34
23
24
10
34
10
7
41
33
22
22
9
35
10
6
39
33
21
17
9
35
10
6
39
32
21
17
9
36
10
6
39
31
21
17
9
36
10
6
39
29
21
17
9
36
11
5
36
28
21
17
9
38
11
5
36
27
20
17
9
38
12
5
35
26
14
17
9
38
14
5
31
23
14
15
9
38
14
5
30
22
14
14
9
39
14
5
30
22
11
13
9
42
14
5
29
20
11
13
9
42
14
5
27
20
11
13
10
43
14
5
25
20
11
12
10
43
14
5
17
20
10
8
10
43
15
5
17
17
9
9
12
43
15
6
13
17
9
8
11
43
15
6
13
16
8
8
12
43
15
6
12
16
8
7
12
44
15
6
9
16
8
7
12
46
15
6
9
16
8
7
13
46
15
6
9
15
8
7
13
46
15
6
8
15
8
6
13
47
15
6
8
14
7
6
14
50
16
6
7
14
7
6
14
51
16
6
6
14
6
6
14
52
17
7
6
13
6
6
14
53
17
7
6
13
4
6
14
53
17
7
6
13
4
6
14
53
17
7
6
11
4
6
16
54
18
7
5
9
4
6
16
54
18
7
5
9
4
6
17
57
20
7
5
9
4
6
17
58
20
7
5
9
4
7
18
58
21
8
5
8
4
6
18
57
21
8
5
8
3
6
18
58
21
8
5
6
3
6
18
59
21
8
5
4
3
7
19
59
21
8
5
4
3
7
19
59
21
8
5
5
3
7
20
61
22
8
5
5
3
7
20
60
22
8
5
5
3
7
21
61
22
9
5
5
3
7
23
61
22
8
5
5
3
7
23
61
22
9
5
5
3
7
23
61
22
9
5
5
3
7
23
61
23
9
4
4
3
8
24
61
24
9
5
4
3
8
25
61
24
9
5
4
3
8
25
62
24
9
5
4
3
8
25
60
24
9
5
4
3
8
25
59
24
9
5
4
3
8
25
59
24
9
5
4
3
9
26
60
24
9
5
4
3
9
26
60
25
9
5
4
3
9
26
61
26
9
5
4
3
9
26
63
26
9
5
4
3
9
26
63
26
9
5
4
3
9
26
63
27
9
5
4
3
9
26
63
27
9
5
4
3
9
26
64
27
9
5
4
3
8
26
62
27
9
5
4
3
8
26
62
27
9
5
4
3
8
26
62
27
9
5
4
3
8
26
62
27
9
4
4
3
8
26
62
27
9
4
4
3
8
25
62
27
8
4
4
3
8
25
62
27
8
4
4
3
8
25
62
27
8
5
5
3
8
25
61
27
8
5
5
3
8
25
61
27
8
5
5
3
8
25
61
27
8
5
5
3
8
25
61
27
8
5
5
3
8
25
60
27
8
6
5
3
8
24
58
27
8
7
7
3
8
24
58
27
8
7
7
3
8
24
57
27
8
9
7
3
8
24
56
27
8
9
7
3
8
24
56
27
8
9
8
3
8
24
56
27
8
9
8
3
8
23
56
27
8
9
8
3
8
23
56
27
8
13
9
3
8
22
53
25
7
16
10
3
8
22
51
25
7
17
11
3
8
21
52
24
7
17
11
4
8
21
52
24
7
17
16
4
8
21
50
24
7
22
18
4
8
21
49
24
7
22
21
4
7
21
49
24
7
23
21
5
7
21
48
24
6
23
21
6
7
20
45
23
6
23
28
7
7
19
44
23
6
23
28
7
7
18
42
22
6
23
29
7
6
15
42
22
6
23
30
7
6
15
42
22
6
23
31
9
6
15
42
21
6
23
33
9
6
15
42
21
6
23
34
9
6
13
41
20
6
23
34
9
6
13
41
20
6
24
34
10
6
11
40
20
5
24
35
11
7
11
40
20
5
24
35
12
8
11
40
20
5
24
37
12
8
11
42
20
5
24
37
13
7
10
40
20
5
25
38
13
7
10
40
19
5
25
38
13
7
10
38
17
5
25
38
13
7
8
34
16
5
27
39
13
7
8
34
16
5
27
41
14
8
8
33
13
5
28
42
16
8
8
33
13
5
29
45
16
8
8
31
13
5
29
45
17
8
8
30
12
5
30
45
17
8
8
30
12
5
31
47
20
9
8
29
12
5
31
48
20
10
8
29
12
5
33
49
23
10
8
29
12
5
33
50
23
11
8
29
12
5
33
50
24
11
8
29
12
5
33
50
29
11
9
29
11
5
33
50
29
11
9
28
11
5
33
50
29
11
9
27
10
5
33
50
29
12
9
28
9
5
34
50
29
12
9
28
9
5
34
50
30
12
9
29
9
5
36
51
30
12
9
27
9
5
35
51
31
12
9
26
8
5
36
51
32
12
9
27
8
5
35
51
32
12
10
27
8
5
38
51
34
12
10
27
8
5
39
54
35
14
10
27
8
6
43
54
35
15
10
27
7
6
43
55
35
15
10
27
7
7
43
55
36
16
11
27
7
7
43
58
36
17
10
26
7
7
45
58
38
18
11
26
7
7
45
58
38
18
11
26
7
7
47
57
40
18
10
26
7
7
45
57
40
18
10
26
7
7
45
56
44
24
10
26
7
7
46
59
47
24
10
25
7
7
46
61
49
24
10
25
7
7
46
59
50
24
10
25
7
7
46
60
50
25
10
25
7
7
46
59
50
25
10
25
7
7
46
59
50
25
11
25
7
7
46
59
51
26
11
25
7
7
46
60
51
25
11
25
7
7
46
59
51
26
11
25
7
7
47
61
51
26
12
24
7
7
47
63
51
26
12
24
7
7
50
63
52
27
12
24
6
7
50
63
52
26
12
24
6
8
52
62
53
28
12
20
6
8
52
64
52
28
12
20
6
8
52
65
52
28
12
20
6
8
52
65
52
28
12
20
7
9
54
65
54
29
12
19
7
9
54
66
54
29
12
19
7
9
54
65
55
30
13
19
7
9
54
65
54
30
13
19
7
9
56
62
55
31
13
19
7
9
56
62
55
31
13
19
7
9
56
63
55
32
13
20
7
10
58
61
54
33
13
22
7
10
59
61
54
33
13
22
7
10
58
61
53
34
13
23
7
10
60
60
53
33
13
23
7
10
61
61
54
33
13
23
7
10
64
61
52
33
13
22
7
10
65
61
52
33
13
23
7
10
66
61
53
36
13
23
7
10
66
61
53
35
12
21
7
10
66
61
56
35
12
20
7
10
66
61
55
36
12
20
7
10
65
61
56
36
12
20
7
10
65
61
56
36
12
20
7
10
65
60
55
37
12
19
7
11
67
60
56
37
11
19
7
12
67
61
55
37
11
19
7
11
66
58
55
37
12
19
7
11
64
58
56
37
12
19
7
11
65
58
57
37
12
19
7
11
65
58
57
36
11
19
7
11
64
55
58
36
11
20
7
11
62
57
59
36
12
20
7
11
63
57
60
36
13
20
7
11
61
60
59
36
13
20
7
11
61
59
59
36
13
20
7
11
63
59
57
32
13
20
7
11
64
57
55
32
13
19
7
11
64
55
53
32
13
20
7
11
64
54
54
32
13
20
7
11
64
53
54
32
13
20
7
11
64
53
54
32
13
20
7
11
64
53
54
33
14
21
8
11
64
53
53
34
14
20
8
11
67
53
53
34
14
20
8
11
67
53
53
35
14
20
8
11
67
51
54
35
13
21
8
11
67
49
53
35
13
21
8
11
66
49
52
35
13
21
8
11
66
48
54
35
13
21
9
11
65
49
54
34
13
21
8
11
65
48
54
34
13
21
8
11
64
46
54
34
13
21
8
11
66
45
54
34
13
21
8
10
65
45
53
34
13
21
8
10
64
44
53
34
13
21
8
10
64
43
53
33
12
21
8
10
64
43
52
33
12
21
8
10
62
43
52
33
13
21
8
10
64
43
53
33
13
21
8
10
66
43
54
31
13
21
8
9
66
43
54
30
13
18
8
9
65
43
54
31
13
18
8
9
65
42
54
30
13
17
8
9
64
42
54
30
13
17
8
9
63
41
53
30
13
17
8
9
60
42
53
31
13
17
8
9
58
42
53
31
13
17
8
9
58
42
51
28
13
17
8
9
58
43
52
29
14
16
8
9
60
45
50
31
14
17
8
9
61
46
52
30
14
17
8
9
61
46
51
30
14
17
8
9
61
46
52
30
14
16
8
9
62
46
52
30
14
16
8
9
59
46
51
29
14
16
8
8
58
46
51
29
14
16
8
8
58
46
50
29
14
16
8
8
58
47
50
30
14
15
8
7
57
48
49
31
15
15
8
7
57
50
49
31
15
15
8
7
57
52
48
31
15
15
8
7
58
50
45
32
14
15
8
7
58
50
44
32
14
14
7
7
58
47
43
32
14
15
8
7
58
47
43
32
14
15
8
7
56
47
42
32
15
15
8
7
56
47
42
33
16
15
9
7
56
48
42
33
16
15
9
8
57
48
44
34
17
15
9
8
57
48
44
34
17
15
9
8
57
48
44
34
17
15
9
8
57
48
45
33
16
14
8
8
56
47
45
30
16
14
8
7
55
46
46
31
16
14
8
7
56
46
46
31
16
14
8
7
56
46
46
31
16
14
8
7
55
46
46
30
16
15
8
7
54
46
47
30
16
15
8
7
54
46
45
30
16
15
8
7
54
45
44
30
16
14
8
7
54
47
44
30
16
14
8
7
54
47
44
30
16
14
8
7
54
47
45
31
16
14
8
7
55
46
45
31
16
14
8
8
55
47
45
31
16
14
8
8
55
47
45
31
16
14
8
8
55
48
45
31
17
15
8
8
57
48
46
31
16
15
8
8
55
48
45
31
16
15
8
8
53
47
43
31
16
15
8
8
50
48
43
31
16
15
8
8
49
48
43
31
16
15
8
8
49
48
43
31
16
15
8
8
49
48
43
31
16
15
8
8
49
48
43
31
16
15
8
8
51
48
44
31
17
15
8
8
51
48
45
31
16
15
8
8
52
48
45
32
16
15
8
8
52
48
44
31
16
15
8
8
49
45
44
31
16
15
8
8
48
44
43
30
16
15
8
8
48
44
44
30
16
15
8
8
51
44
43
31
16
15
8
8
51
45
43
31
16
16
8
7
51
44
43
31
16
16
8
8
51
48
43
31
16
16
8
7
51
48
42
31
16
17
8
7
51
47
43
30
16
17
9
7
51
45
42
29
16
17
8
7
51
43
42
29
16
17
9
8
52
41
42
30
17
17
9
8
52
42
42
31
17
17
9
8
52
42
42
30
17
18
9
8
52
42
42
30
17
17
8
7
52
42
43
30
17
18
8
7
53
41
43
30
16
18
8
7
52
43
43
29
15
17
8
7
51
42
44
28
15
17
8
7
51
42
40
28
14
17
7
7
53
42
40
28
14
17
7
7
53
42
39
28
14
17
7
7
53
42
39
29
16
17
8
8
54
45
39
30
16
16
8
9
54
46
39
29
15
16
8
10
53
46
39
29
15
16
8
9
55
47
39
29
15
16
8
9
55
47
39
29
16
18
9
9
56
47
39
29
15
18
9
9
56
47
39
28
15
18
9
9
56
47
39
28
15
18
8
9
57
49
39
29
15
18
8
9
57
50
39
29
16
18
8
9
55
50
37
28
16
18
9
9
55
50
37
28
16
18
8
9
54
50
37
28
16
19
8
9
54
50
38
28
16
19
8
9
54
50
38
27
16
18
8
9
52
50
37
27
16
18
8
9
52
50
39
27
17
19
8
9
52
50
39
27
17
19
8
9
52
50
39
27
17
19
8
9
52
51
39
30
17
19
9
9
53
52
39
30
17
19
9
9
53
52
40
31
17
19
9
9
53
52
41
31
16
19
9
9
53
52
40
30
16
19
9
9
53
53
39
31
16
20
9
9
55
53
39
29
16
19
9
9
55
54
40
30
16
19
9
9
54
54
39
28
16
19
9
9
55
54
37
28
16
19
9
9
55
54
38
28
16
19
9
9
52
55
38
28
16
19
8
9
53
58
38
28
16
18
8
9
53
59
38
28
17
18
8
9
53
56
38
28
17
19
8
9
56
58
38
28
17
18
8
9
58
58
38
28
16
18
8
9
58
58
39
28
16
18
8
9
58
58
39
28
16
18
8
9
58
58
39
28
15
18
8
9
59
57
40
26
16
17
8
9
58
58
40
26
15
17
8
9
58
58
40
27
15
17
8
9
58
59
39
27
15
17
8
9
58
59
39
27
15
17
8
9
58
58
39
27
15
17
8
9
58
58
39
27
15
17
8
9
58
58
41
28
15
16
8
9
57
58
42
28
15
17
8
9
58
58
42
28
15
17
8
9
59
60
42
27
13
17
8
9
59
60
42
27
13
17
7
8
59
60
42
27
13
17
7
8
59
60
42
27
13
17
7
8
59
61
42
27
13
17
7
8
59
62
41
27
13
15
6
8
58
62
41
28
13
15
6
8
58
62
42
28
13
15
6
8
58
63
42
28
13
15
6
8
57
61
42
27
13
15
7
8
57
61
42
27
12
15
6
8
57
60
42
27
12
15
6
8
58
60
42
27
12
15
6
8
58
61
43
28
11
14
6
8
58
60
42
28
11
14
6
8
59
61
42
28
11
14
6
8
58
61
42
28
11
14
7
8
58
62
39
28
9
13
6
8
59
63
39
28
10
13
6
8
59
62
39
28
11
13
6
8
59
62
39
25
10
13
6
8
59
61
39
25
11
13
6
8
59
61
39
24
10
13
6
8
58
61
38
24
10
12
6
8
57
61
38
24
10
12
6
8
57
60
38
24
10
11
6
7
54
60
37
24
10
11
6
7
54
59
37
24
10
11
6
7
54
59
37
24
10
11
6
7
53
58
37
24
10
11
6
7
53
58
36
24
10
11
6
7
53
57
36
24
10
11
6
7
53
54
36
24
10
12
6
7
52
53
35
24
10
12
6
7
52
53
35
24
9
12
6
7
49
50
35
24
9
12
6
7
46
50
33
22
9
13
6
7
46
50
33
22
9
13
6
7
45
50
33
22
9
13
6
7
44
50
32
21
9
13
6
7
43
50
31
21
9
18
6
6
42
48
31
21
9
20
6
6
42
48
31
21
9
20
6
7
42
47
31
21
9
20
6
7
41
47
31
20
9
20
6
6
41
46
30
19
9
20
8
6
40
46
29
19
9
22
9
6
40
46
25
18
9
22
10
6
38
46
24
18
9
23
10
7
36
45
24
18
9
23
11
6
35
42
23
18
9
24
11
5
33
40
22
17
9
29
11
5
30
37
19
17
9
33
11
5
30
37
19
16
9
33
11
5
27
34
19
16
9
33
11
5
26
32
19
16
9
33
12
5
26
31
19
15
9
33
12
5
26
31
18
15
9
34
12
5
25
30
18
15
9
34
12
5
24
28
17
15
9
35
12
6
23
25
17
15
9
34
12
6
23
25
16
15
9
35
13
6
21
24
16
14
9
38
14
6
21
23
13
12
9
41
14
6
20
22
13
12
9
42
15
6
18
20
12
11
9
42
15
6
18
19
12
10
9
42
15
6
18
17
9
10
9
42
15
6
15
13
9
9
8
43
17
7
14
13
9
9
8
44
17
7
13
11
9
9
8
46
17
7
13
11
9
9
8
48
17
7
11
9
8
9
8
48
18
7
11
9
5
8
8
48
18
7
11
8
5
8
9
49
18
7
11
8
5
7
9
49
18
7
11
8
5
7
9
49
18
7
10
7
5
7
9
49
20
8
10
6
5
7
9
49
22
9
9
6
5
6
9
51
22
9
9
5
4
6
9
51
22
10
9
5
4
6
9
52
22
10
9
5
4
5
9
54
23
10
8
5
4
5
8
55
23
10
8
5
4
4
8
57
23
10
8
5
4
4
8
58
23
10
7
5
3
4
8
59
23
10
8
5
3
4
9
59
23
10
6
5
3
4
9
59
24
10
6
5
3
4
9
60
24
10
6
5
3
4
9
61
24
10
6
5
3
4
10
60
24
10
6
5
3
4
10
61
25
10
6
5
2
4
10
61
25
10
6
5
2
4
10
61
25
10
6
5
2
4
10
61
25
10
6
5
2
4
12
62
27
10
6
5
2
4
12
62
28
10
6
5
2
4
12
62
28
10
6
5
2
4
12
63
29
10
5
4
2
4
12
62
29
10
5
4
2
4
12
60
29
10
5
4
2
4
14
59
29
10
5
4
2
4
16
60
29
10
5
4
2
4
16
60
30
10
5
4
2
4
16
61
30
10
5
4
2
4
16
61
30
10
5
4
2
4
17
61
31
10
5
4
2
4
17
62
34
11
5
4
2
4
17
63
35
11
5
4
2
4
17
63
35
11
5
4
2
4
17
63
35
11
5
4
2
4
17
63
36
11
5
4
2
4
17
61
36
11
5
4
2
4
17
60
37
11
5
4
2
4
17
61
37
11
5
4
2
4
17
61
37
11
5
4
2
4
17
61
37
11
5
4
2
4
17
62
36
11
5
4
2
4
17
61
36
11
5
4
2
4
17
60
35
11
5
4
2
4
17
59
35
11
5
4
2
4
17
59
35
11
5
4
2
4
17
61
35
11
6
5
2
4
17
61
35
11
6
5
2
4
17
61
36
11
6
5
2
4
17
61
35
11
7
5
3
4
17
60
35
10
7
6
2
4
17
60
33
8
8
7
2
4
17
59
34
8
8
7
2
4
17
60
33
8
8
7
2
4
18
60
33
8
8
7
2
4
17
57
33
8
8
7
3
4
18
57
33
8
9
7
3
4
18
54
33
8
9
7
2
4
18
53
33
8
10
7
3
4
18
53
33
7
10
8
3
4
17
53
32
7
11
9
2
4
17
53
32
7
11
10
2
4
17
51
32
7
12
10
2
4
17
49
32
7
13
10
2
4
17
49
32
7
13
12
3
4
17
48
32
7
13
12
3
4
17
48
31
7
14
12
3
4
17
48
31
7
14
12
3
4
16
48
31
7
15
13
6
4
15
45
29
7
15
13
6
4
15
46
27
7
15
14
7
5
15
45
27
7
16
18
7
5
15
44
27
7
16
18
7
5
15
44
26
7
16
19
8
5
15
44
26
7
16
20
8
5
13
44
26
7
17
21
8
5
11
43
26
7
17
21
8
5
11
42
25
7
17
23
9
5
11
42
24
7
17
24
9
5
11
42
24
7
17
30
10
5
9
41
23
6
17
30
10
5
9
39
17
5
17
30
10
5
10
37
16
5
17
31
10
5
10
36
16
5
17
31
10
5
10
36
16
5
17
31
11
5
10
34
13
4
17
31
11
5
10
34
11
3
18
31
12
6
10
33
9
3
19
31
13
6
9
32
9
3
21
32
13
6
9
32
9
3
21
32
13
6
9
31
9
3
21
32
13
6
9
29
8
3
22
34
15
6
9
29
8
3
22
34
15
7
9
28
8
3
22
35
15
7
9
28
8
3
22
38
15
7
9
28
8
3
22
40
15
7
9
24
7
3
22
41
15
7
9
21
7
3
23
41
15
7
8
21
7
3
23
42
17
7
8
21
7
3
22
42
17
9
8
21
7
3
22
43
17
9
8
21
7
3
22
44
18
10
8
21
5
3
22
44
18
10
8
18
5
3
22
44
19
10
7
16
5
3
22
44
20
10
7
16
5
3
22
44
22
10
7
16
5
3
22
44
28
11
7
16
5
4
26
45
29
11
7
17
5
4
27
45
29
11
7
17
5
4
30
45
29
16
7
17
5
4
30
46
32
18
8
17
4
4
30
47
34
18
8
17
4
4
31
47
34
18
8
17
4
4
30
47
34
20
9
17
5
4
32
48
34
23
9
17
5
4
33
49
35
23
9
16
4
5
33
49
36
23
9
16
4
5
33
49
36
23
9
16
4
5
36
52
36
25
10
16
4
5
37
54
37
26
10
16
4
6
39
55
37
26
10
16
4
6
38
54
37
27
10
16
4
6
38
54
37
28
10
16
3
6
42
54
37
28
11
15
3
6
43
54
41
29
11
14
3
6
43
53
43
29
11
13
3
6
43
53
43
29
11
13
3
7
47
53
44
29
11
13
4
7
49
55
47
29
12
13
4
7
51
54
49
29
12
13
4
7
51
54
49
30
12
13
3
7
51
53
50
30
12
13
4
8
54
54
50
32
12
12
3
8
55
54
51
32
12
13
4
8
56
54
51
32
12
13
3
8
56
54
51
32
13
13
4
8
56
54
51
32
13
13
4
8
59
54
52
36
13
13
4
9
61
55
52
36
13
13
4
9
61
55
53
36
13
13
4
9
61
55
53
36
13
13
4
9
61
54
53
39
15
13
5
9
61
56
54
39
15
13
5
9
61
56
55
39
15
13
5
9
61
55
55
40
15
13
5
10
61
53
55
40
14
13
5
10
63
54
55
42
14
13
5
10
63
54
55
42
14
13
5
10
63
55
55
42
14
13
5
10
63
55
55
42
15
13
5
10
64
56
55
43
15
14
5
10
66
55
57
43
15
14
5
10
67
55
58
43
15
14
5
10
68
55
58
43
15
14
5
10
68
56
58
43
15
14
5
10
69
56
58
43
16
14
6
10
69
56
56
43
16
14
6
10
68
56
56
43
16
13
6
10
68
58
59
46
17
13
6
10
67
61
59
46
17
13
6
10
67
63
58
45
17
13
6
10
67
62
57
45
17
13
6
10
66
62
57
45
16
12
6
10
66
62
57
45
16
12
6
10
66
61
57
43
16
12
6
10
65
60
56
43
16
12
6
10
65
60
56
43
16
12
6
10
65
60
56
44
16
11
6
10
64
58
56
43
16
11
6
10
65
56
55
42
18
12
6
10
64
55
56
42
18
12
6
10
65
55
57
42
18
12
6
10
66
55
56
41
18
12
6
9
63
55
57
41
18
12
6
10
64
55
54
41
17
12
6
10
64
55
53
41
17
12
6
9
63
55
53
41
18
12
6
9
61
55
52
41
17
11
6
9
61
53
50
43
17
12
6
9
60
52
49
44
17
12
6
9
60
53
49
43
17
12
6
9
60
53
47
43
17
12
6
9
58
53
47
42
17
13
6
9
57
53
46
42
17
13
6
9
58
53
47
43
18
15
6
9
57
52
47
45
17
14
6
9
58
53
47
45
17
14
6
9
55
53
47
42
17
14
6
8
52
52
49
42
17
14
6
8
53
53
48
42
17
14
6
8
53
53
48
42
17
14
6
8
53
53
47
39
16
14
5
8
53
51
46
39
18
15
6
8
53
49
46
40
20
16
6
8
53
50
46
41
20
16
6
8
54
51
46
41
20
16
6
8
53
51
46
39
20
17
6
8
53
51
46
39
20
17
6
8
53
49
45
40
20
17
6
8
53
48
45
40
20
16
6
8
53
48
45
39
20
16
6
8
50
47
42
39
20
16
6
8
49
47
41
40
20
16
6
8
49
49
41
41
20
16
6
8
48
51
40
41
20
16
6
8
47
51
41
41
20
15
5
8
47
50
40
42
19
15
5
8
48
50
40
42
20
16
5
8
48
48
36
38
19
16
6
8
48
45
36
38
19
16
6
8
47
41
35
38
19
16
6
8
47
41
35
38
19
16
6
8
47
41
35
37
19
16
5
8
47
41
35
37
19
16
6
9
49
42
37
38
19
16
6
10
50
42
39
38
19
16
6
10
50
43
38
38
19
16
6
10
51
43
39
39
19
16
6
10
50
43
40
39
19
17
6
10
50
44
41
39
18
16
6
9
49
43
39
39
17
16
6
9
47
44
39
39
17
16
6
9
47
44
39
39
17
16
6
9
47
45
41
39
17
16
6
9
46
45
41
39
17
16
6
9
47
45
42
40
17
16
6
9
47
45
42
41
18
16
6
9
45
45
42
41
18
16
6
9
45
44
41
38
18
16
6
9
43
43
41
38
17
15
6
9
42
42
41
39
18
16
6
9
44
42
41
40
18
16
6
9
44
42
41
40
18
15
6
9
43
42
42
42
18
15
6
9
42
43
41
41
18
15
6
9
43
43
41
39
18
15
6
9
42
42
41
39
18
15
6
9
43
43
44
39
18
15
7
9
43
42
44
39
18
15
7
9
43
42
44
39
18
15
7
9
43
44
44
39
18
15
7
9
44
45
44
39
18
15
7
9
44
45
44
39
16
14
6
9
44
46
44
39
13
13
6
9
44
45
45
37
13
13
6
8
42
43
45
37
13
13
6
8
42
43
45
37
13
13
6
8
42
42
45
37
13
13
6
8
44
43
46
37
14
13
6
8
44
44
46
38
14
13
6
8
44
44
46
37
14
13
6
8
44
46
48
38
15
13
6
8
44
46
49
37
15
13
6
8
45
45
49
35
15
13
6
8
45
46
49
36
15
13
7
8
45
46
48
36
15
13
7
8
46
46
48
35
15
13
7
8
46
46
49
35
14
13
7
8
47
46
49
35
14
13
7
8
49
46
49
36
14
13
7
8
51
47
49
35
15
13
7
8
51
47
49
36
15
13
7
8
51
47
49
36
15
13
7
8
51
47
49
35
15
13
7
8
50
47
49
35
15
13
7
8
52
48
48
35
15
13
7
8
52
47
48
35
15
13
7
8
52
47
48
35
15
13
7
8
52
47
47
35
15
13
7
8
51
47
47
35
15
13
7
8
52
47
47
35
15
13
7
8
52
46
46
35
15
13
7
8
52
46
47
34
15
13
7
8
52
45
44
35
15
13
7
8
52
46
45
36
15
13
7
8
53
47
45
36
15
13
7
8
53
47
45
35
14
13
6
8
54
48
46
35
15
13
6
8
54
48
46
34
15
13
6
8
54
48
46
34
15
13
6
8
55
48
46
33
15
14
7
8
56
50
46
33
15
14
8
8
57
51
46
33
15
14
8
8
57
51
47
31
15
14
8
8
57
51
47
31
15
13
8
8
58
50
47
31
15
12
8
8
58
51
47
31
15
12
7
8
56
50
44
31
14
12
7
8
57
50
41
31
15
12
7
8
56
51
42
33
15
12
7
8
57
48
43
33
15
12
7
8
56
48
43
34
15
12
7
8
56
48
43
34
15
12
7
8
55
48
43
33
15
12
7
8
56
48
42
33
15
12
7
8
57
47
42
34
15
12
7
8
57
49
45
34
15
12
7
8
57
49
45
33
15
12
7
8
56
48
44
32
15
13
7
8
55
47
44
31
15
13
7
8
55
46
45
31
14
13
7
8
56
45
43
31
14
12
7
8
55
45
42
31
14
13
7
8
54
44
41
31
14
13
7
8
54
41
41
31
14
13
7
8
55
41
42
31
14
13
7
8
55
40
41
31
14
13
7
8
54
40
41
32
14
13
7
8
54
40
41
32
14
13
7
8
52
39
41
31
14
13
7
8
50
38
41
31
13
12
7
8
51
38
43
31
13
13
7
8
52
38
43
32
13
13
7
8
52
39
43
32
14
13
7
7
50
39
42
31
14
15
7
7
48
39
42
31
14
15
7
7
48
39
42
32
14
15
7
7
49
39
45
31
14
15
7
7
50
38
46
31
14
16
7
7
51
40
46
31
14
16
7
7
51
40
46
31
14
16
7
7
51
40
46
31
14
16
7
7
53
42
47
31
14
16
7
7
53
43
47
31
14
16
7
7
53
42
46
29
14
17
7
7
51
41
45
31
15
17
7
7
52
41
46
31
15
17
7
7
52
41
46
31
15
17
7
7
52
43
46
32
15
18
7
7
53
43
45
32
15
18
7
7
51
43
46
31
15
17
6
7
50
40
47
30
15
17
5
6
49
41
47
31
15
17
5
6
49
41
46
30
15
17
5
7
49
41
46
30
15
17
5
6
48
41
46
30
14
17
5
6
49
43
46
31
15
18
6
7
50
43
46
31
15
18
6
7
50
45
46
30
14
18
6
7
50
44
45
28
14
18
6
7
53
44
44
30
14
18
6
7
54
45
44
31
14
18
6
7
54
45
44
31
14
18
6
7
54
45
44
31
14
18
6
7
55
45
45
31
14
18
6
7
54
46
45
30
13
18
6
7
56
44
42
29
13
18
6
7
55
44
42
29
13
18
6
8
56
46
42
33
13
18
6
8
56
47
43
33
13
18
6
8
56
48
42
34
13
18
6
8
56
48
44
34
13
18
6
8
56
48
44
34
13
17
6
8
56
48
44
34
13
17
6
8
55
48
44
33
13
17
5
7
55
48
44
33
13
17
5
7
55
48
44
33
13
17
5
7
55
49
44
33
13
17
6
8
54
49
43
33
13
17
6
8
54
49
43
33
13
17
6
8
54
50
43
33
13
17
5
7
53
50
41
33
13
16
5
7
53
50
41
32
13
16
5
7
53
49
41
32
12
16
5
7
53
48
40
32
12
14
5
7
53
48
40
32
12
14
5
7
53
48
40
31
12
14
5
7
52
47
37
31
12
14
5
7
50
47
35
31
12
13
5
7
49
46
35
31
12
14
5
7
48
45
35
30
12
14
5
6
48
45
35
30
12
14
5
6
46
43
32
30
12
15
5
6
46
42
32
30
12
16
5
6
46
42
32
30
12
16
5
6
46
41
32
28
10
16
5
6
45
41
31
28
10
19
10
6
44
40
30
28
10
19
10
7
44
39
30
28
10
19
11
8
43
39
30
28
10
20
13
8
43
38
29
28
10
23
14
9
43
38
27
27
10
23
14
9
43
35
27
27
10
24
14
10
43
35
26
27
10
24
14
10
42
35
26
27
10
24
14
10
41
35
25
26
10
24
14
10
39
32
25
26
9
23
15
9
39
32
25
26
10
23
15
9
38
30
25
25
10
24
16
10
38
30
25
25
10
26
16
10
34
30
24
22
10
26
17
10
30
29
24
21
10
27
17
10
30
28
23
21
10
27
17
10
30
27
22
21
10
28
18
10
28
27
21
21
10
29
21
11
27
26
21
21
10
30
21
10
23
26
21
21
9
31
21
11
23
26
21
21
9
32
22
10
22
22
21
14
9
32
22
10
20
20
18
14
9
32
22
10
20
17
17
12
9
32
23
10
19
17
13
11
9
33
24
10
19
17
13
10
8
33
24
10
18
16
12
10
8
34
24
10
18
15
11
9
8
34
24
10
17
15
11
9
8
34
24
10
16
14
11
9
9
35
25
10
15
11
7
9
10
37
25
10
14
10
7
7
11
39
25
10
13
9
7
6
11
42
25
10
13
9
7
6
11
42
26
10
13
8
6
6
11
42
27
11
10
8
6
6
11
43
28
11
10
8
6
6
11
45
29
11
9
8
6
6
11
45
29
11
9
6
6
6
11
45
32
11
7
6
5
5
11
45
33
11
7
6
5
5
11
47
33
11
7
6
5
5
11
47
33
11
7
5
4
4
11
49
33
11
7
5
4
4
11
49
33
12
6
5
4
4
11
49
34
12
6
5
4
4
12
49
34
12
6
5
4
4
12
50
34
12
6
5
3
4
12
51
34
12
6
5
3
4
12
52
34
12
6
5
3
4
12
53
33
11
6
4
3
4
12
54
33
11
5
4
3
4
12
54
32
11
5
4
3
4
12
54
32
10
5
4
3
4
12
53
31
10
4
4
3
4
11
53
31
10
4
4
3
4
12
55
32
9
4
4
3
4
13
55
31
9
4
4
3
4
13
55
31
9
4
4
3
4
13
55
31
9
4
4
3
4
15
55
31
9
4
4
3
4
15
55
31
9
4
4
3
4
15
57
31
9
4
3
3
4
15
57
31
9
4
3
3
4
15
58
31
8
4
3
3
4
15
59
31
9
4
3
3
4
16
59
31
9
4
3
3
5
18
59
32
11
5
4
3
5
18
59
30
10
5
4
3
5
18
58
30
11
6
5
3
5
18
58
30
11
6
5
3
6
18
58
30
11
6
5
3
6
20
58
30
11
6
5
3
6
20
58
30
11
6
5
3
6
21
59
30
11
6
5
3
6
22
58
32
13
6
5
4
6
25
58
35
15
6
5
4
6
25
58
36
15
6
5
4
6
25
61
36
15
6
5
4
6
25
61
36
15
6
5
4
6
26
60
37
15
6
5
4
7
29
62
37
15
6
5
4
7
29
63
39
15
6
5
4
7
29
61
39
15
6
5
4
7
31
64
39
15
6
5
4
7
32
64
38
15
6
5
4
7
33
64
38
15
6
5
4
8
34
64
37
15
6
5
4
8
34
66
37
15
6
5
4
8
34
66
35
15
6
5
4
8
34
66
33
14
6
5
4
8
34
65
34
14
6
5
4
8
35
65
34
14
7
5
4
8
35
63
34
14
7
5
4
9
35
63
34
14
7
5
4
9
35
65
34
14
7
5
4
9
35
65
34
14
7
5
4
9
35
64
34
14
7
5
4
9
35
64
34
14
7
6
4
9
35
63
34
14
7
6
4
9
35
62
34
14
8
6
4
9
35
62
34
14
8
6
4
9
35
64
34
14
9
9
4
9
35
63
34
14
9
9
4
9
35
64
34
14
9
9
4
9
35
64
34
14
9
9
4
9
35
63
34
14
11
11
4
8
34
62
34
14
11
13
4
8
34
62
34
14
11
13
4
9
34
62
34
14
11
13
4
8
34
62
34
14
11
14
4
8
33
62
34
14
14
14
4
8
33
60
34
14
15
16
4
8
34
60
34
14
15
17
6
9
34
59
34
14
18
19
6
9
34
58
33
14
18
19
6
9
33
58
34
14
18
19
6
8
32
57
32
12
18
19
6
8
32
57
32
12
18
20
6
9
32
58
32
12
19
20
7
9
32
58
32
12
18
20
7
9
32
57
32
11
20
21
7
9
31
57
31
11
22
21
7
8
31
56
31
11
24
21
7
8
30
56
31
11
24
22
7
9
29
56
28
9
24
23
10
9
27
56
25
6
24
24
11
9
27
56
22
6
25
29
12
9
27
54
22
6
25
29
12
9
27
54
22
6
25
29
13
9
26
54
21
5
25
29
13
9
22
51
20
5
25
30
13
9
22
48
17
5
25
30
13
9
22
48
16
5
25
30
13
9
18
45
14
5
25
31
13
9
17
44
14
4
26
33
14
9
14
43
13
4
26
35
14
9
13
41
13
4
26
36
14
9
13
39
13
4
26
38
14
9
13
38
13
4
26
38
14
9
12
38
13
4
26
41
14
9
12
38
13
4
27
43
15
9
11
38
12
4
27
43
15
9
10
38
12
4
27
43
15
9
11
38
12
4
27
43
15
9
10
35
12
3
29
45
15
9
10
34
10
3
29
46
15
9
10
34
10
3
29
46
16
10
10
34
10
3
29
46
20
10
10
33
10
4
30
49
20
10
10
31
9
4
32
50
22
10
10
31
9
4
32
50
25
11
10
26
8
4
32
50
25
11
10
26
7
4
32
52
26
11
11
26
7
4
32
52
26
13
13
24
8
4
34
53
26
13
13
24
7
4
36
52
26
13
12
24
7
4
36
52
27
13
12
25
6
4
38
53
27
13
12
26
6
4
39
54
30
13
12
26
7
4
39
54
31
13
12
26
7
5
40
56
31
14
12
26
6
5
41
56
33
14
12
25
6
5
41
57
35
14
12
24
6
5
40
56
37
14
12
24
6
5
40
57
37
14
14
24
6
5
40
57
37
15
14
24
7
6
40
57
37
15
14
24
7
6
41
57
38
14
14
24
7
5
41
57
38
14
14
24
7
5
41
57
38
16
14
24
7
5
42
57
40
19
15
24
7
6
42
57
40
19
15
24
7
6
41
57
41
19
16
23
6
6
41
57
41
19
16
26
6
6
41
57
42
19
16
28
6
6
41
57
44
20
16
28
6
6
41
55
43
20
17
27
7
6
41
55
43
23
17
25
7
6
41
55
45
24
18
25
7
6
41
56
46
24
18
25
7
6
41
58
46
25
18
25
7
6
41
60
46
25
18
25
7
6
41
60
46
25
18
26
7
6
42
60
47
26
19
26
7
6
42
60
47
30
20
26
7
6
42
59
48
30
20
27
7
6
42
59
48
30
20
27
7
6
42
58
49
30
20
27
7
6
44
59
49
30
20
27
7
6
44
60
49
31
20
27
7
6
44
58
50
31
20
27
7
7
45
58
52
31
20
26
7
7
45
59
52
33
20
26
7
7
45
61
52
33
20
26
7
7
44
59
52
33
20
26
7
7
44
58
52
33
20
26
7
7
44
58
51
33
20
26
7
7
45
58
50
33
20
27
7
6
45
57
50
33
20
27
7
6
44
56
50
33
20
27
8
6
44
57
49
34
20
27
8
7
46
57
49
34
21
27
8
7
46
57
48
34
20
27
7
7
46
57
49
35
19
27
7
7
45
57
49
35
20
27
8
7
45
59
49
35
20
27
8
7
45
59
49
36
20
27
8
7
44
60
50
36
20
25
8
7
45
60
48
35
20
25
8
7
44
59
48
36
20
25
8
7
43
57
48
37
20
26
8
6
41
59
47
37
20
26
8
6
41
57
46
37
20
26
8
6
43
57
45
37
20
25
8
6
44
58
47
38
19
25
8
6
44
59
48
39
19
25
7
6
46
59
50
39
19
25
7
7
48
59
51
39
19
25
7
7
49
58
52
39
19
25
7
7
50
58
51
40
19
25
7
7
50
58
51
38
19
25
7
7
49
58
51
39
18
25
7
7
49
58
50
40
19
26
7
7
49
58
50
40
18
23
7
7
49
58
49
41
19
20
7
7
50
57
48
42
19
21
7
7
50
59
48
42
18
20
7
7
50
59
48
40
18
20
7
7
50
58
46
41
18
19
7
7
50
60
46
41
18
19
7
7
51
58
47
41
17
19
7
7
51
55
46
41
17
19
7
7
51
55
46
41
17
19
7
7
50
55
46
41
17
18
7
7
50
55
47
38
16
18
7
7
51
54
46
38
15
17
7
7
50
53
46
39
15
17
7
7
50
53
46
39
16
17
7
7
49
52
46
38
15
17
7
7
49
50
46
38
16
17
7
7
49
50
45
38
15
17
7
6
49
50
43
38
15
18
7
6
50
49
43
37
15
18
7
6
51
48
43
38
15
18
7
6
51
49
44
38
15
18
7
6
51
49
45
38
15
18
7
6
51
50
45
37
15
18
7
6
51
49
45
38
15
18
7
6
51
49
45
39
15
17
7
6
51
48
45
39
15
17
7
6
51
48
45
38
15
17
7
6
49
48
45
38
16
18
8
7
49
46
45
38
16
18
8
7
49
47
44
37
16
19
8
7
51
46
44
36
16
18
8
7
50
44
44
36
15
18
8
7
50
44
44
36
15
17
7
6
50
45
43
36
15
17
7
6
49
44
43
36
15
17
8
6
50
45
43
36
15
17
8
6
50
48
43
35
15
17
8
7
51
46
43
35
14
17
8
7
51
47
42
35
15
17
8
7
50
47
41
34
14
17
8
7
50
47
39
34
15
17
8
6
50
47
38
34
15
17
8
7
48
47
38
33
14
17
8
6
46
47
36
34
15
17
8
6
44
47
35
36
17
17
8
7
44
47
35
36
17
17
8
7
44
47
35
36
17
17
8
7
44
48
35
36
17
17
8
7
45
48
35
37
17
17
8
7
45
48
35
36
17
17
8
7
45
49
35
35
16
17
8
7
46
49
34
34
16
16
8
7
46
48
38
35
16
17
8
8
47
49
40
35
16
17
8
8
48
49
40
33
16
17
8
8
48
47
40
36
16
17
9
9
49
47
41
36
16
17
9
9
50
47
41
35
16
17
9
9
50
49
42
35
16
17
9
9
50
49
42
35
16
18
9
9
51
49
41
35
17
19
9
9
51
48
41
37
17
19
9
9
53
51
42
38
17
19
9
9
53
52
41
40
17
19
9
9
53
51
41
40
18
20
9
9
53
51
41
40
18
20
9
9
53
52
44
41
18
20
9
9
52
51
44
42
18
21
10
9
53
54
45
42
19
21
10
9
52
54
45
42
19
21
10
10
53
52
44
42
19
21
10
10
53
53
43
42
19
21
10
10
55
53
44
43
19
21
10
10
54
53
44
42
19
21
10
10
54
52
46
43
19
21
9
10
54
53
45
43
19
21
9
10
54
56
46
43
19
21
9
10
54
58
46
43
18
20
9
10
54
57
47
43
18
20
9
10
55
56
47
43
18
20
9
10
54
56
48
43
18
20
9
10
54
56
48
43
18
20
9
9
54
56
48
44
18
19
8
10
54
55
48
44
18
19
8
10
56
55
48
44
18
19
8
10
54
54
47
44
18
19
8
10
56
52
47
44
18
19
8
10
55
52
47
44
18
19
8
10
55
52
47
44
18
19
8
10
55
52
47
44
18
19
8
10
55
52
48
43
18
19
8
10
55
52
47
45
18
19
8
10
55
53
48
45
18
19
8
10
55
54
48
45
18
19
8
10
55
54
48
43
17
19
8
10
55
54
48
42
16
19
8
9
55
55
48
42
16
19
8
10
55
57
48
43
16
19
8
10
55
57
48
41
17
19
8
10
55
57
49
42
17
20
8
10
57
57
48
42
19
22
9
10
56
57
48
42
19
22
9
10
56
58
46
41
19
22
9
9
55
56
44
41
19
22
9
9
54
57
44
41
18
23
9
9
55
57
44
40
18
23
8
9
56
57
42
41
18
23
9
8
56
57
42
41
18
23
9
8
56
56
42
41
18
23
9
8
56
57
42
41
18
23
9
8
54
57
42
41
17
22
8
8
57
57
42
39
17
21
8
8
55
56
43
38
17
21
8
8
55
55
43
35
17
21
8
8
55
55
43
36
17
21
8
8
55
55
43
36
17
21
8
8
56
56
42
34
19
22
9
8
56
56
42
34
19
21
8
8
54
54
41
33
18
20
8
8
54
53
41
33
18
20
8
8
55
53
42
33
19
21
9
8
55
53
43
33
19
20
9
8
54
53
42
32
19
20
9
8
54
54
43
34
19
21
9
8
55
55
42
33
19
21
9
8
56
56
42
33
19
21
9
8
55
54
41
33
19
21
9
8
55
52
41
33
19
21
9
8
55
52
41
33
19
21
9
8
54
52
40
33
19
21
9
8
54
52
39
33
19
21
9
8
53
53
39
33
19
21
9
8
53
53
40
32
19
21
9
8
53
53
40
32
19
21
9
8
52
53
40
32
19
21
9
8
52
53
41
33
19
21
9
7
50
52
41
33
19
21
9
7
50
53
41
33
19
21
9
7
50
55
41
33
19
21
9
7
49
54
41
33
19
21
9
7
49
55
40
33
20
21
9
7
49
54
42
29
20
21
9
7
48
53
40
30
20
22
9
7
48
52
41
30
20
22
9
7
49
53
40
31
20
22
9
7
48
53
40
33
20
22
9
7
48
52
40
37
21
22
9
7
50
51
41
37
21
22
9
6
49
50
43
36
21
22
9
6
49
51
42
36
21
21
9
6
48
50
42
36
19
20
8
6
48
52
42
37
19
20
8
7
49
50
43
37
19
20
8
7
50
50
43
37
19
19
8
7
51
52
43
37
19
19
9
8
50
53
43
35
19
19
9
8
48
54
44
35
18
19
9
8
47
54
44
35
18
18
9
8
47
54
44
35
18
18
9
8
47
52
43
35
18
18
9
8
48
52
44
34
19
18
9
8
45
52
46
34
19
18
9
8
45
52
45
34
19
18
9
9
45
52
45
35
18
18
9
9
45
52
46
35
18
18
9
9
45
52
46
34
18
17
9
9
44
52
44
34
16
16
8
9
44
54
44
34
16
16
8
9
44
55
44
34
16
16
8
9
45
55
45
35
16
16
8
9
45
55
46
35
15
15
7
9
44
55
45
35
15
15
7
9
44
55
45
34
15
15
7
9
44
54
44
32
15
15
7
9
43
53
44
32
15
15
7
9
42
52
44
32
15
14
7
9
42
52
45
31
15
15
7
8
42
52
45
31
14
15
7
8
41
52
45
31
14
15
7
8
41
52
45
31
14
14
7
8
41
52
45
31
14
14
7
8
41
51
45
31
14
15
7
8
41
51
44
31
14
14
7
8
40
51
44
31
14
14
7
8
40
51
44
30
14
14
7
8
40
51
43
30
14
14
7
8
40
51
43
30
14
14
7
8
40
49
42
30
14
14
6
8
40
48
42
30
14
14
6
8
41
47
42
30
14
14
6
8
40
46
42
30
12
15
6
8
40
46
41
30
11
16
6
8
40
46
40
29
11
15
6
8
40
46
39
29
11
16
6
8
38
46
39
27
11
15
6
8
38
46
39
25
11
15
6
8
38
45
39
19
10
15
6
8
35
43
38
18
10
16
6
8
35
43
35
18
9
15
6
8
35
42
35
17
9
16
6
8
34
42
35
17
8
17
6
7
33
40
34
15
8
17
6
7
30
40
34
15
8
18
7
7
29
40
34
15
8
18
7
7
27
37
33
15
8
19
7
5
27
35
33
14
8
21
6
5
27
33
32
14
8
21
8
5
26
33
31
13
8
21
8
5
26
33
31
13
8
21
8
5
25
33
31
13
8
21
8
5
24
32
30
13
8
21
8
5
24
32
27
12
8
21
8
5
24
31
25
12
8
22
9
5
24
31
25
10
8
22
9
5
23
31
22
10
8
23
10
5
22
30
22
10
8
24
11
5
21
28
22
10
8
24
11
5
20
24
22
10
7
25
11
4
19
21
21
10
7
27
11
4
17
21
19
6
6
29
11
4
15
21
14
4
6
30
11
4
13
21
14
5
6
30
11
4
11
20
14
5
6
31
11
4
10
20
14
4
6
31
12
5
10
20
13
4
7
32
12
4
9
15
13
4
7
33
12
4
9
14
7
4
6
33
12
5
9
14
6
3
6
33
12
5
9
13
5
3
7
34
12
5
9
13
4
3
7
34
12
5
8
12
4
3
8
35
13
5
8
9
4
3
8
35
13
5
8
8
4
3
8
35
13
5
8
8
3
3
8
36
13
5
8
8
3
3
8
36
13
5
8
8
3
3
8
37
13
5
8
7
2
3
8
37
14
5
8
7
2
3
8
38
14
5
7
7
2
3
8
40
14
5
7
7
2
3
8
40
14
6
6
7
2
3
8
40
14
6
6
6
2
3
9
39
14
6
5
6
2
3
9
40
15
6
5
6
2
3
9
40
15
6
5
5
2
3
9
41
15
6
5
5
2
3
9
41
15
6
5
4
2
3
9
41
15
6
5
4
2
3
9
41
15
6
4
4
2
3
9
42
15
6
4
4
2
3
9
41
15
6
4
4
2
3
10
43
15
6
4
4
2
3
10
43
15
6
4
3
2
3
11
42
15
6
4
3
2
3
12
42
15
6
3
3
2
3
12
43
15
6
3
3
2
3
12
42
15
6
3
3
2
3
12
43
14
6
3
3
2
3
12
43
14
6
3
3
2
4
12
43
14
6
3
3
2
4
12
43
14
6
3
3
2
4
12
43
15
6
3
3
2
4
12
44
15
6
3
3
2
4
12
44
15
6
3
3
2
4
12
45
15
6
3
3
2
4
12
45
14
6
3
3
2
4
12
46
14
6
3
3
2
4
12
46
14
6
3
3
2
4
12
45
15
6
3
3
2
4
12
44
15
6
3
3
2
4
12
43
16
6
3
3
2
4
12
43
16
6
3
3
2
4
12
42
16
5
3
3
2
4
12
41
15
5
3
3
2
4
12
44
15
5
3
3
2
4
12
43
15
5
3
3
2
4
12
44
15
5
3
3
2
4
12
44
15
5
3
3
2
4
12
44
15
5
3
3
2
4
12
44
15
5
3
3
2
4
12
44
15
5
3
3
2
4
12
43
15
5
3
3
2
4
12
46
16
5
3
3
2
4
12
47
15
5
3
3
2
4
12
46
15
5
3
2
2
4
11
46
15
5
3
2
2
4
11
45
15
5
3
2
2
4
11
46
15
5
3
2
2
4
11
45
15
5
3
2
2
4
11
45
15
5
3
2
2
4
12
45
14
4
3
2
2
4
12
46
14
4
3
2
2
4
12
46
14
4
3
2
2
4
12
46
14
4
3
2
2
4
12
46
14
4
3
2
2
4
12
46
14
4
3
2
2
4
12
46
14
4
3
2
2
4
12
46
14
4
3
2
2
4
12
47
14
4
3
2
2
4
11
48
14
4
3
2
2
4
12
48
14
4
3
2
2
4
11
49
14
4
3
2
2
4
12
51
14
4
3
2
2
3
10
52
13
4
3
2
2
3
10
52
13
4
3
2
2
3
10
52
14
4
3
2
2
3
10
52
13
4
3
2
2
3
10
51
13
4
3
2
2
3
10
51
13
4
3
2
2
3
10
51
13
4
3
2
2
3
10
51
13
3
3
2
2
3
10
51
13
3
3
2
2
3
10
50
12
3
3
2
2
3
10
51
12
3
3
2
2
3
10
52
12
3
3
2
2
3
10
51
12
3
3
2
2
3
10
50
12
3
3
2
2
3
10
50
12
3
3
2
2
3
10
50
10
3
3
2
2
3
9
51
10
3
3
2
1
3
9
51
10
3
3
2
2
3
9
51
10
3
3
2
2
3
9
51
9
3
3
2
2
3
9
51
10
3
3
2
2
3
9
50
9
3
3
2
1
3
9
51
9
3
3
2
1
3
9
50
9
3
3
2
1
3
9
50
9
3
3
2
1
3
9
50
9
3
2
2
1
3
10
50
9
3
2
2
1
3
9
50
9
3
2
2
1
2
9
50
9
2
2
2
1
3
9
47
8
2
2
2
1
3
9
47
8
2
2
1
1
3
9
47
8
2
2
1
1
3
9
47
8
2
2
1
1
3
9
47
8
2
2
1
1
3
9
47
7
2
2
1
1
3
9
47
7
2
2
1
1
3
9
46
7
2
2
1
1
3
9
45
7
2
2
2
1
3
9
45
7
2
2
2
1
3
8
44
7
2
2
1
1
3
8
44
7
2
2
1
1
3
8
44
7
2
2
1
1
3
8
44
7
2
2
1
1
3
8
47
7
2
1
1
1
2
8
47
7
2
1
1
1
3
8
45
7
2
1
1
1
3
8
44
7
2
1
1
1
2
7
44
7
2
1
1
1
2
7
41
6
2
1
1
1
2
7
38
6
2
1
1
1
2
7
37
6
2
1
1
1
2
7
37
6
2
1
1
1
2
7
38
6
2
1
1
1
2
7
37
6
2
1
1
1
2
6
38
6
2
1
1
1
2
6
38
6
2
1
1
1
2
6
38
6
2
1
1
1
2
6
38
6
2
1
1
1
2
6
38
7
2
1
1
1
2
6
40
7
2
1
1
1
2
7
40
7
2
1
1
1
2
6
38
7
2
1
1
1
2
6
38
7
2
1
1
1
2
6
38
6
2
1
1
1
2
6
38
7
2
1
1
1
2
6
38
6
2
1
1
1
2
6
37
6
2
1
1
1
2
6
37
6
2
1
1
1
2
6
37
6
2
1
1
1
2
6
37
6
2
1
1
1
2
6
37
6
2
1
1
1
2
6
37
6
2
1
1
1
2
6
36
6
2
1
1
1
2
6
36
6
2
1
1
1
2
6
36
6
2
1
1
1
2
5
35
6
2
1
1
1