-2
-1
-10
-4
-3
0
-1
-1
0
0
-6
-1
-5
-1
-2
-1
0
-4
4
0
1
-1
-3
-4
0
1
2
-2
0
-1
1
0
-1
0
6
3
1
-2
-2
-1
-1
1
-9
-4
-2
-1
3
0
-1
-2
-8
-12
-2
1
-1
-2
-1
0
11
9
1
0
0
-1
0
-2
-8
7
3
0
2
-2
0
-1
16
6
-2
-1
-2
-1
0
0
-7
-2
-1
-1
0
0
-2
-3
-11
-7
-1
-1
-2
-1
-1
0
-1
-1
-2
0
1
0
0
2
9
-3
1
2
-2
0
-2
-3
-9
-1
-2
-2
-1
-3
-1
0
4
-1
0
-2
-1
0
2
-3
-15
-11
-4
-4
-3
-2
1
0
0
3
0
0
0
0
-4
-5
10
2
-4
-2
-3
-2
-2
1
-8
-4
-1
-1
-2
0
-1
0
-5
0
-2
0
1
0
1
-2
-3
-4
-5
-4
2
0
0
2
5
6
6
2
0
-1
-4
-1
12
1
-3
-4
-3
-1
-1
0
3
-8
0
-2
-2
-1
0
-2
-20
-11
-3
-2
-3
-2
-1
0
3
5
-4
-1
0
-1
-1
-5
-14
-10
-1
1
1
-1
0
-2
14
5
-1
-2
1
-2
-4
-2
8
5
0
-1
1
-5
2
-1
1
-2
1
-1
1
3
1
1
-7
3
0
-1
-1
0
-2
0
-3
-2
-4
-3
-1
-2
-2
0
-10
-2
2
-1
-2
-2
-1
0
9
0
-3
-2
2
-1
1
0
-2
-4
-2
-3
-1
0
-1
-2
-4
-2
-3
0
-1
0
-2
-1
-2
2
-1
-2
-1
-1
-1
-1
-10
-5
0
0
-1
-1
1
0
11
1
0
-1
0
-1
-1
-4
-2
-6
-2
1
0
-1
-2
-1
-6
7
1
1
-1
2
-1
2
4
-3
-2
-2
-2
0
-1
-2
5
3
-4
-2
-1
-1
2
1
4
9
5
0
1
0
1
-1
4
0
0
-1
-2
-2
0
-3
-6
0
-2
0
1
0
-1
0
1
-6
1
1
-2
-1
-2
0
-3
-8
-3
-1
0
-1
-2
-2
7
5
0
-2
-5
-2
-1
0
1
-4
-2
-1
-6
-2
0
0
-4
-1
-2
0
6
1
-2
-2
-3
1
-2
-2
0
0
0
-3
-4
-8
0
1
1
0
0
-2
0
5
-3
-4
-6
0
1
0
0
4
1
0
-1
-1
0
-1
0
-2
-1
0
1
0
-1
-1
-3
-2
-1
0
0
-2
-2
1
1
-1
-1
0
2
-1
-3
-2
0
1
-1
-1
0
-4
-1
0
0
-1
0
-1
-1
2
-1
0
-13
-4
-2
0
-1
-1
0
0
14
0
1
0
1
-2
-2
-1
-4
-2
-2
-3
-1
-1
0
0
-1
-6
-3
-1
1
-3
-2
-3
-6
7
-1
-1
-2
1
0
0
12
2
-1
0
3
1
-1
0
0
1
0
-2
-3
0
0
-2
-5
-2
-1
1
-3
0
1
-2
-3
1
0
1
0
-1
-3
-3
-10
1
2
0
0
-1
-2
-1
3
-3
-3
-2
-5
-3
0
-2
-3
-2
-1
0
1
-2
0
1
2
-3
-4
0
1
0
-1
1
-8
-7
-1
0
-2
0
0
-1
1
2
-1
-3
-2
0
-2
0
-2
3
0
0
-3
-2
1
-2
4
-4
-2
0
4
-1
-1
1
0
3
0
0
-2
-3
0
0
-8
-4
-2
0
4
1
0
2
6
2
-3
-3
-3
-2
0
0
1
-2
-1
-1
0
0
0
-2
-15
-5
0
2
2
-1
0
-1
-1
-4
0
3
-1
-1
-2
1
9
7
-1
0
-3
0
0
1
2
-3
-2
-3
-5
0
-1
-2
-3
-3
0
-3
-1
-2
-1
-1
-7
5
0
1
-1
-1
-1
-2
4
0
0
-1
0
-1
-1
0
-12
-4
0
-1
-1
-2
1
1
4
7
-1
0
1
-2
0
0
5
0
-1
-2
-3
1
-2
-1
0
-2
-1
-1
-1
-4
2
-1
-4
-2
2
1
-1
2
-2
-4
-10
-3
3
-1
-1
-2
-3
-3
-6
0
-2
-2
-1
-2
-1
0
0
0
-3
0
-1
0
-1
-1
5
-1
-1
-1
-1
-1
-2
-2
-2
-2
-3
-1
-3
-3
-2
-6
-1
-7
-3
-3
-3
-1
0
-3
-8
-9
-1
-1
-3
0
0
-2
-6
8
1
-2
0
0
0
1
-4
0
-3
0
0
0
-2
-1
17
10
-4
-1
-2
-2
0
-1
-5
-2
0
2
1
0
-1
-2
0
-9
0
-1
0
-1
-1
0
-3
-2
-2
-1
-1
-1
-1
0
-11
-3
-3
-1
-2
-3
1
1
-3
-2
-5
-1
0
0
-2
-1
2
-2
2
-1
-1
-2
0
0
2
-1
-1
0
2
0
-2
0
-4
-6
-1
-2
0
-1
0
-1
4
1
-6
-3
0
-1
-1
-1
-5
2
-3
-1
0
-2
-1
0
4
1
-1
-2
1
-2
1
-1
-1
-2
-1
2
1
2
-2
-3
-7
-4
-1
-2
0
1
-2
1
17
17
-3
-3
-2
-3
0
-1
0
-1
-10
-7
-2
0
1
3
-1
-3
15
6
2
1
-2
0
-1
4
3
3
-1
0
0
0
-3
-5
2
0
-2
-1
-4
-2
11
13
-1
-1
-2
-2
-1
-3
-9
-7
-8
-4
0
-1
1
-1
0
-8
-4
0
0
-8
-2
-1
-1
0
5
1
-1
7
0
-3
-12
-5
0
-1
-1
0
2
1
1
4
-1
1
0
0
-2
-1
-2
3
5
0
0
-3
-2
0
0
-9
-14
-3
0
-4
-2
-2
-3
-3
4
1
-4
-2
1
-1
-1
1
-1
-2
-1
1
0
2
-8
-2
0
0
1
1
-2
-3
11
11
0
0
-2
-3
-1
-1
-7
-9
-1
2
1
1
-2
0
1
0
-3
-2
-1
-1
0
-2
-4
1
3
-1
-1
2
1
-1
-10
-12
0
0
1
1
0
0
6
-5
3
1
-1
0
-2
-1
0
7
-3
-3
-2
-2
-3
-2
0
1
-5
-1
-1
-9
-1
0
-1
8
-8
-4
-3
6
-2
0
-3
-5
13
1
2
1
1
-10
-1
-4
-3
2
3
0
3
2
1
0
4
0
-2
1
0
2
2
1
-1
-1
-3
-9
-1
0
-2
-3
-11
-5
1
1
-5
-1
2
0
-13
-5
-9
5
-3
-2
-7
-6
12
3
4
5
2
8
3
18
13
5
0
-1
5
-5
-3
1
1
1
1
-1
-3
-2
0
-1
2
-1
1
-9
-3
-3
-2
-5
-14
-5
-7
-4
-6
-1
-2
-14
-3
-1
2
-6
4
3
-11
-8
-4
2
0
10
8
6
-5
-6
-1
0
4
5
1
5
17
17
1
-1
-4
1
-3
-2
10
11
2
-1
0
-4
-8
-2
3
-1
-3
-2
3
-7
-5
-3
-9
-6
6
-1
-9
-2
0
1
-18
-15
-1
-1
1
3
3
-3
4
5
5
-2
-2
-2
-1
-4
17
7
-4
-1
-4
-1
-3
5
0
5
3
-1
1
-4
-6
-2
3
-5
-3
-2
-3
-16
-3
-4
-27
-18
-5
1
-3
6
-3
6
18
4
0
0
14
0
-4
-24
-37
-2
1
0
-3
5
6
-2
15
-1
-1
-1
-8
3
11
-1
-36
-9
-6
1
-2
-17
1
8
53
-2
-1
1
3
13
-18
-7
-10
8
-11
-8
-11
6
-3
12
-13
-4
1
-1
-3
7
5
-11
-1
-4
-4
-2
-1
2
18
3
-14
-2
7
1
-7
-9
-2
5
28
5
-2
5
18
-6
-9
-1
14
-2
-15
-1
9
-4
5
12
-7
-14
0
-4
-4
-1
-6
2
2
10
-2
-1
-11
8
-10
-23
-29
-16
7
-4
-2
-24
10
5
7
11
1
-1
-28
23
-9
1
0
-2
-3
3
8
5
1
1
5
9
-29
-1
3
1
19
-43
-5
39
52
10
23
5
-2
0
-4
-22
-31
-15
-10
-31
-32
-17
-7
-7
-1
2
2
-25
29
43
-35
13
43
8
-3
36
-13
-47
23
11
-15
2
-14
0
-19
19
-10
-24
10
-3
10
-31
-67
6
10
20
-8
11
14
-57
25
-34
-1
16
-14
-28
-72
73
109
105
23
-34
17
-8
9
51
0
-7
1
6
2
-16
-15
-40
-55
-34
-10
-50
-47
-4
52
10
49
76
-8
6
20
26
94
-61
-110
-90
-1
9
-36
-18
-84
-84
24
65
10
-13
-34
10
29
9
47
-25
12
1
37
5
-32
98
-92
-97
-22
-77
-49
-8
-10
-37
7
20
-23
79
-11
-22
0
-1
20
26
6
-19
17
19
79
2
-11
12
1
59
58
-10
-80
-47
39
21
7
-24
-4
4
18
35
-49
-11
15
-18
-16
2
-35
-119
-53
-35
18
45
-24
-20
-17
78
112
35
7
66
52
15
63
112
32
99
5
-68
-92
-3
15
-65
13
-59
-8
38
101
44
98
-106
69
24
-16
-6
1
-77
-99
104
7
-97
-16
10
25
37
18
-15
-86
55
17
-36
-32
5
8
-29
48
46
43
-25
-43
54
117
-10
21
-39
-78
-50
4
26
66
-50
52
27
53
-9
11
-54
-73
89
-20
-62
25
-69
-84
-28
31
-98
4
93
-16
75
88
-12
-85
-29
-65
19
5
63
63
38
20
74
1
-2
-7
-92
-19
3
-3
47
-88
-121
6
32
17
11
26
-44
-26
21
9
-91
-87
-21
45
43
85
-81
-30
68
60
28
-71
-80
-100
-73
-78
-86
-78
-26
-83
-64
76
55
19
101
37
10
28
92
-4
-92
-40
-114
-49
-53
-73
23
53
57
62
35
28
10
63
30
-66
79
8
0
-26
13
-5
24
-120
-110
-57
-59
-46
16
-24
-86
100
98
26
88
68
34
81
127
-77
-30
19
43
-70
28
123
-128
14
127
14
67
104
-23
-67
-40
18
0
6
14
-22
-6
50
-118
-47
-47
-27
11
14
-25
-42
-103
-67
-32
-10
-93
-24
4
-65
-41
87
45
13
-4
-10
-14
54
23
-59
-23
-22
-14
-9
-15
37
-33
83
71
-46
-7
45
9
-51
114
-81
20
-25
-92
-66
-37
-22
-111
-40
-116
49
-47
-45
-14
-50
-28
23
63
-8
1
43
1
-61
127
7
-70
11
-99
-53
-10
60
58
-4
-34
-36
-15
-1
11
81
-71
-47
-99
-27
32
0
37
-22
47
-5
16
7
-35
12
-49
-128
-110
-11
-36
34
-19
-45
-7
82
18
-34
-54
16
91
9
24
52
127
72
55
4
-9
-23
10
41
-128
18
107
6
31
111
25
-72
-56
18
-6
-5
13
2
10
-53
63
-9
34
8
-52
27
-22
-12
-73
-56
-50
25
52
-39
-14
-20
-125
114
3
-25
30
18
14
56
127
-127
-14
14
-77
-82
-3
58
-128
86
-49
-4
-72
70
-13
11
127
-59
76
18
52
-14
26
94
-92
41
17
2
27
-34
-6
56
-103
-43
6
-1
11
-6
10
-29
-128
44
20
4
-8
-75
-16
-41
87
-41
-43
-33
-53
-22
15
56
-106
-51
-81
-8
52
82
-17
-40
127
69
96
21
2
-13
1
5
-46
-27
-80
-6
9
-19
-1
-44
-95
92
111
-6
-19
10
21
90
127
-15
-15
-29
-89
-123
-22
16
-128
48
-14
-20
95
94
9
-1
127
-8
29
47
32
-18
-34
-64
-55
31
17
12
-34
-44
15
36
-92
-64
-71
-14
-77
-80
-21
27
29
-118
-6
-34
-54
38
-9
-24
-25
22
75
2
80
37
-1
-53
114
32
35
17
-12
-2
-14
35
49
81
-25
-36
7
20
17
21
-69
-11
-61
0
-21
-44
-3
-15
90
-62
75
-8
0
6
32
14
-112
-57
-67
22
34
-12
-40
35
127
37
98
-7
12
38
23
-12
-74
-82
-40
4
66
-6
0
20
57
18
-12
18
-86
-128
-25
-46
-101
78
51
23
87
94
73
-26
51
-94
-53
17
-17
32
17
116
27
94
-25
-55
104
-19
-7
-13
16
-97
45
19
-31
-8
-11
-83
-96
44
-23
-12
-100
-8
-25
61
67
-42
68
30
101
29
5
-23
-1
57
17
32
-54
-66
-47
-86
-23
89
-66
-28
104
78
37
106
108
-7
-23
-28
-99
-47
2
-39
-128
31
40
58
87
86
0
-120
73
-100
-112
1
-16
-27
-4
-24
-128
37
93
-5
1
25
5
50
115
-19
-20
-3
-2
-25
-16
51
84
-14
-19
-16
17
-115
-40
29
-72
1
-32
-15
67
84
33
-55
-57
30
11
28
59
52
49
78
50
-61
-48
-23
60
-49
-6
55
-113
-13
12
-21
89
106
21
-84
-6
25
28
41
-26
-24
-9
91
-8
5
48
-21
-52
-110
-21
-5
-50
-10
37
-4
33
94
8
-44
-85
3
-39
10
-61
-97
-1
39
63
57
127
40
61
80
34
29
-61
-38
-74
-37
-38
26
-15
13
18
-24
-51
-13
-15
-39
-36
-69
-52
-10
-2
-17
3
16
8
-55
-128
-102
-58
1
-86
-76
-13
32
-43
76
31
15
59
49
-3
50
69
-35
23
-12
-109
-32
-7
-15
-128
61
31
0
11
37
-8
-50
127
-60
-85
-22
-50
-105
-41
-24
-106
10
46
4
19
58
17
24
-2
-39
-103
-17
-12
-19
5
-24
-36
70
-5
16
31
81
45
127
110
-14
117
4
-80
-68
-11
34
-95
-9
-30
16
-1
-38
-88
-111
57
31
32
3
58
36
29
-14
-19
-7
19
3
1
-64
-1
19
-113
68
-51
29
12
55
0
-27
104
-59
-87
-29
-9
-77
-30
-61
-85
71
89
19
92
16
-10
15
127
-41
-117
-44
66
16
-40
-10
-128
5
26
-5
-75
4
64
8
127
-47
-14
21
-48
-52
-2
-86
-128
21
11
21
-23
29
22
-34
-60
36
74
14
-85
-36
13
35
101
-47
-37
-12
-16
-41
7
50
-102
110
63
18
9
11
15
94
118
-128
-65
-31
18
2
-33
-36
-125
-61
-46
-17
-35
-38
-28
-74
-107
50
-10
-10
54
72
2
45
118
-44
-67
0
-20
-38
45
64
-103
66
63
15
-5
3
-6
-60
108
24
45
12
-19
11
-14
47
-3
-88
12
-40
-51
-38
10
-78
-121
32
15
5
-85
28
-13
62
56
38
-64
-8
62
-46
19
34
-56
-94
-94
-19
11
-54
-22
1
-89
118
96
47
94
82
20
76
103
-55
26
9
42
-62
-26
36
-102
-11
-25
-21
37
-10
20
27
-71
-40
-43
3
-19
0
30
-84
-29
-57
-58
21
80
-69
-44
-31
-109
57
-50
-42
-47
9
33
42
29
-77
11
-11
81
18
-15
-31
115
-60
-45
-14
22
-57
-38
-107
-120
32
111
-19
36
99
25
37
127
-82
10
-3
-47
-34
7
59
-128
-57
-109
13
-128
-128
-70
-96
10
127
110
19
76
127
76
82
122
6
66
-3
-103
-60
60
53
-93
114
54
110
61
51
-4
-1
127
-85
-54
-91
-57
-22
9
-31
-95
-49
-65
16
70
-112
-56
-104
-99
84
11
35
-35
-27
-63
8
101
-2
14
-54
88
127
98
22
21
-6
50
29
-15
-7
-8
9
-67
-26
-56
-14
-121
39
3
-28
-28
-127
-120
-73
-61
-85
-52
-128
-128
-15
-45
43
10
-52
-34
15
-12
127
119
-22
-44
-48
-69
-7
127
30
-53
-8
42
85
75
15
-79
-81
-60
19
43
-71
18
-8
-88
-104
-18
-40
-69
-3
3
-32
-125
108
87
13
25
56
22
-15
-51
-37
-25
-24
-109
-54
-27
25
-47
127
125
50
54
76
20
58
98
-122
-86
-70
-38
-20
-40
-128
-47
-45
-31
78
13
-10
-17
24
-51
-11
30
16
27
19
20
127
127
-38
6
-93
-56
-81
-26
15
-89
108
93
21
-37
8
-8
-90
51
-8
-80
40
58
41
32
49
-12
-77
-41
31
-24
1
-23
24
-32
-16
4
20
20
-109
-40
-30
-128
59
62
-45
9
29
11
-49
-72
-26
49
-8
-56
35
82
60
-84
124
19
37
-49
-39
-26
76
127
-30
-57
-11
3
43
-24
-114
-65
-36
-17
23
65
-18
-13
76
-61
-51
15
-24
57
103
-6
-10
-28
32
2
-53
-59
-25
-21
-67
-112
-19
40
44
-22
-14
18
-26
-31
38
-106
8
-23
-38
-29
23
94
-47
64
-20
-4
-8
2
72
-112
-122
-63
-38
-68
-128
-40
-100
33
87
117
64
90
127
71
60
113
-119
-15
-35
-6
-60
5
-30
-128
14
-30
-5
-80
-62
-27
-13
58
-31
72
21
-87
-6
15
-7
-57
-72
61
-22
74
50
-15
64
-42
74
-7
-28
-51
-12
-1
-105
-84
23
-16
21
-59
-33
26
56
79
21
62
-16
19
78
28
21
-70
-13
-72
-2
-12
17
-32
-17
3
61
40
19
-28
-13
10
52
84
-128
-97
-30
33
-14
-1
25
-34
99
127
38
41
-30
5
-63
62
-3
-53
-8
-42
5
-25
11
-33
-86
-39
7
58
8
9
-42
-128
72
-50
-1
80
-55
-13
102
95
29
-46
-15
108
30
-8
33
98
-19
-77
-35
-26
34
42
31
24
8
46
45
-3
-37
-4
40
-65
82
51
-20
75
91
33
29
-19
-121
-69
-56
-104
-116
-87
-79
-128
91
-24
7
62
52
17
32
109
58
58
37
115
43
30
73
-30
-30
28
-27
64
93
18
-97
-128
-56
-4
19
93
-64
-23
-40
-86
-36
-7
-50
-97
-11
-4
-42
62
23
-48
19
20
24
-11
22
127
-35
-54
-63
47
24
9
-45
-107
60
127
63
-4
28
6
112
106
-36
-98
16
-30
-50
20
88
-87
-35
-13
-18
-80
-25
-37
-19
107
73
16
6
-128
-47
-10
54
83
-94
-46
-2
-104
-29
-1
-30
-63
-26
89
25
77
46
48
9
-13
-128
-97
-20
-87
-112
-38
-128
-113
50
25
21
98
-105
-41
14
25
109
33
-35
59
127
40
25
127
-74
-63
-13
-67
-64
-23
-34
-92
-38
-14
4
17
9
18
33
-128
-17
9
18
21
2
-12
-78
73
24
3
42
60
-84
17
20
-128
-8
2
-51
103
80
33
10
76
107
44
5
23
-1
31
76
114
-82
0
27
-100
-64
-17
-47
-128
17
44
-32
-72
-65
-17
-34
-9
5
28
-12
-43
35
6
-65
-65
-7
27
-17
27
16
3
66
48
17
30
31
-58
-15
-28
-37
-30
-18
-57
6
74
29
42
74
72
-85
15
-22
46
15
4
-16
-102
115
67
2
56
11
-20
-1
127
-33
-31
-5
3
-56
6
-77
-113
30
17
89
103
107
109
127
123
20
68
-5
-106
-88
-22
-15
-94
-76
-59
-30
-58
-2
3
-31
-128
23
-35
9
-128
-57
-25
21
101
49
12
-41
-60
80
-15
-60
-57
4
5
9
-48
-14
-19
46
23
-46
-10
24
-10
-3
20
-54
-128
13
38
-11
64
-36
-44
-85
69
39
26
5
14
34
-1
48
4
40
12
26
-1
-21
3
-6
-83
-68
58
-26
-43
-34
-12
13
-102
-5
-88
16
-64
-84
-31
29
9
-20
74
-62
37
90
48
-4
29
37
64
-1
12
-58
37
-62
101
65
42
60
58
41
3
61
100
3
27
12
51
51
51
102
-65
-4
10
7
-92
-70
-26
-64
-62
-10
-30
-15
10
-55
-53
-50
-2
52
40
-19
-115
-10
2
-48
127
-54
-35
29
-19
51
13
58
-78
-3
-62
-15
98
55
20
-1
-110
3
28
-5
-23
-23
4
75
68
13
-48
-5
17
-46
3
35
-57
41
84
-1
-37
-58
-50
-100
-34
-18
-115
-7
-92
40
8
58
58
2
32
-21
-60
-46
-8
13
-94
-113
-13
10
103
75
19
40
-43
-26
12
-14
-35
0
21
-72
79
15
35
15
30
-7
18
48
59
-9
31
20
-102
-64
-54
-58
-12
-128
-83
-34
47
20
5
-41
-128
99
80
-6
23
117
56
112
47
-46
1
7
-119
-111
-44
-3
-93
28
-36
45
87
-7
-26
73
-8
-69
27
-9
88
13
-4
-112
-128
-5
-29
-13
-56
65
30
67
40
44
127
8
-99
-77
-59
-94
46
-76
-115
-60
-16
-77
-30
-10
-110
97
60
26
-128
36
27
53
110
74
-22
4
127
127
49
31
119
-28
56
14
-22
-50
-24
-19
-73
-84
-90
27
-45
-49
-11
-66
-118
84
40
-69
-55
-62
-21
-11
121
26
48
22
-39
-53
-10
74
33
-43
-124
17
37
5
2
-63
-18
-41
46
-5
-20
-22
-9
36
17
-8
-24
-32
-98
-26
7
-93
-120
9
81
49
60
43
55
111
77
-41
-17
21
38
-81
-32
8
6
-2
9
-1
80
34
6
24
-47
-62
-91
-8
30
24
12
75
-67
-113
14
-38
-128
-66
-32
-128
-128
61
-36
-50
80
79
35
89
51
40
7
73
8
-13
-38
-53
126
53
26
-8
-86
-59
-23
-18
54
-101
-123
-45
70
-6
-1
32
-128
12
24
30
102
64
38
45
60
124
67
-3
-22
50
12
-14
75
-125
-84
-27
-36
-51
-53
-107
2
36
98
20
-15
-6
-57
89
66
-18
-10
0
-102
-75
-52
-47
-55
-36
-55
-3
-27
-43
38
47
-23
21
39
-30
127
127
79
-8
-117
-45
-67
-43
-106
-101
-26
-63
61
15
59
8
77
20
-4
-8
-80
76
-33
-4
2
22
-14
-67
53
-7
-48
24
-71
-85
-20
79
-24
-69
-20
-22
23
-60
-91
-128
-128
-82
-101
-94
-34
-19
-15
80
-60
70
79
49
-83
1
26
10
73
35
35
-5
-91
-56
-11
39
18
-45
-41
-23
101
83
50
-31
-12
25
48
15
-23
-64
-14
36
57
-13
-34
-2
8
57
-13
-12
-128
-7
-65
14
67
2
-3
15
127
100
33
27
3
-56
14
8
87
-30
48
7
23
32
2
-102
-83
-11
46
8
82
47
35
53
-75
83
6
31
91
58
2
36
95
-38
-23
-17
-53
-11
10
43
-111
-6
-24
14
-18
-62
6
74
11
-21
62
12
102
17
-19
-99
-94
-14
30
-5
-108
-50
0
2
-111
43
44
-6
127
107
52
115
98
-28
44
-11
36
81
-11
-23
-40
79
52
6
-42
-96
-2
35
-45
-33
-50
-17
-87
-13
-37
-103
-128
-71
32
-6
-17
-109
49
34
-128
23
-42
48
-99
-74
-37
-107
0
64
38
-12
81
127
80
101
127
-25
21
13
47
-66
-17
75
-101
-62
-88
-10
-58
-95
-23
-17
-95
-33
30
-18
-52
-35
9
-50
-128
-18
-4
-10
-128
-64
30
86
81
116
20
17
6
19
-25
96
127
-39
-14
36
-6
6
-11
-79
-108
75
-38
19
52
48
23
62
64
-100
-30
-17
0
0
-30
12
-87
-29
-51
-22
37
17
13
-7
-15
42
21
11
-83
-68
-18
14
-42
-66
35
5
27
-69
-13
-83
-69
93
1
-3
127
120
47
87
127
-45
8
58
3
-70
-50
13
-16
70
89
15
73
88
18
-61
-47
-2
-113
-40
35
2
47
-23
98
-102
-58
-20
-75
-102
-77
-126
-4
-19
12
63
24
-19
13
-12
-59
-43
40
-51
-113
-128
-45
-23
-23
119
113
14
88
127
55
127
96
-38
-15
-1
-11
-69
-5
-59
-122
-37
14
-29
97
101
10
-99
-29
41
34
-1
-74
-34
-9
73
46
-81
-87
-69
4
70
27
96
-128
-74
-43
-29
-88
-48
-63
-91
102
28
28
32
-16
-29
11
59
-101
-97
-80
-34
-57
-13
-28
-20
-79
81
-39
-9
-29
-30
18
-47
-22
7
33
-22
-13
48
-16
70
46
-77
6
-12
-61
10
-10
15
-64
73
6
35
70
50
16
0
127
71
12
26
-112
-35
-41
24
-100
-77
-115
-31
38
-17
19
9
-128
52
55
16
42
32
29
40
127
-18
-17
-25
-63
-87
-43
-12
25
-10
-14
1
52
23
-6
-55
28
95
111
15
-23
38
41
63
-67
-68
-39
-38
6
-20
-8
-103
-15
51
41
16
-45
-7
3
52
-58
-21
-15
24
61
-12
1
82
114
-11
-69
47
-11
-78
-13
43
-100
-12
-15
-68
-35
-54
4
73
-98
114
-35
36
113
115
67
2
95
-99
29
10
-116
-110
-42
-120
-128
-12
-52
-4
-18
-27
-20
-17
127
11
24
37
-108
-43
5
8
-87
-50
-31
4
74
36
-9
44
-41
-57
-47
-65
-105
-90
-48
-104
-41
96
55
32
105
64
30
67
45
28
26
16
58
57
-22
-48
127
5
-52
4
8
40
-5
-62
-53
-97
-2
0
-67
-43
-9
22
-128
-44
-45
18
-112
-93
-43
-103
7
-12
-19
-86
68
2
11
62
-39
39
4
19
-3
2
-1
112
-119
93
22
11
64
93
47
127
109
-104
-31
-21
-87
-78
-28
-7
-117
-40
-35
26
61
78
33
-41
-43
82
104
26
37
-6
-14
63
92
-43
-3
33
8
-35
-6
-16
-128
25
-34
-73
-83
-13
-30
-49
-48
37
-1
60
50
44
80
74
88
-95
-63
-25
-50
-68
-15
-77
-88
27
-7
-5
2
7
-6
-31
76
19
78
8
-22
-13
-6
-55
-110
-90
-56
0
-124
-128
-65
-128
-86
60
61
4
112
106
43
92
108
-50
-48
49
-61
-112
-40
-38
-72
11
-56
-43
127
127
58
-98
32
25
-31
-17
0
-15
-4
70
-10
-7
24
30
-81
-39
10
-13
-66
5
-38
7
-29
-44
-28
-24
-12
-32
39
0
38
8
6
-7
-39
-25
-36
-56
7
-29
11
56
-33
58
-38
32
89
39
-25
-51
103
-31
39
-58
18
3
14
-42
17
-7
-33
27
42
46
2
25
-17
60
73
0
54
29
26
54
-39
-58
-69
8
-15
-19
-14
-69
-20
-1
-5
-20
-49
-26
18
21
-21
87
-7
9
24
30
10
109
127
-3
63
20
-92
-43
-31
-95
-67
-128
-80
-43
-79
-63
17
-55
-128
125
31
8
-67
-11
-17
72
127
-9
45
18
64
20
37
0
-101
14
-44
21
-55
-21
-21
-42
-51
-16
-25
9
-25
-7
30
-61
-78
-45
10
19
-24
-56
-27
-8
-110
-10
34
18
-8
-6
-6
39
-72
7
-9
-62
-9
-35
-20
-49
127
22
97
35
47
32
-18
23
7
-52
-28
-74
-19
12
14
-28
-120
-25
-28
31
-24
-44
-21
55
3
23
28
34
-35
3
-25
-69
69
-56
-11
-38
-2
-38
22
75
-86
113
88
47
66
72
55
97
127
-82
6
-63
-102
-53
-54
-76
-125
106
-66
26
15
-44
-11
69
122
-32
17
-16
60
5
-34
1
-79
-42
-71
15
3
36
29
62
-117
-1
-4
32
-68
-68
0
-46
-57
-3
7
-5
48
34
22
23
-25
25
25
-13
6
31
8
44
32
-28
34
-37
23
20
-27
-115
-40
26
5
22
-57
-67
-11
49
63
-32
9
38
18
10
42
-4
-120
103
3
-9
66
81
-2
62
110
-59
11
5
12
7
7
31
-36
116
26
-7
-6
-20
17
15
-25
-48
-67
-32
0
-1
-5
21
-70
-50
-35
-13
-82
-45
-11
-35
-54
35
41
18
11
-4
17
19
49
8
-26
-22
38
38
6
12
77
-6
39
-17
-23
-10
-9
-8
11
-4
-7
-34
-110
-18
-25
-55
20
-3
-26
63
74
7
-9
-27
-29
-59
-23
-14
27
-9
12
14
-7
28
49
-9
76
97
35
28
32
-7
8
33
-32
-71
-35
-44
13
6
-4
-5
10
-6
5
-12
-11
-17
-11
-33
-88
-11
-13
-37
-31
10
17
38
-4
-28
-6
25
1
-8
-24
-14
30
13
-15
-48
-36
-17
-25
59
8
9
48
-26
-19
4
0
-55
37
20
-18
4
83
-33
15
-22
-35
-9
-15
-33
-63
0
-12
7
-3
-2
1
-2
16
0
-10
-26
-16
9
13
18
-13
9
5
32
27
6
13
0
40
3
2
11
14
9
-8
-8
-16
-3
-1
-3
-13
-14
1
-19
-20
-4
-30
-10
-11
-8
-6
63
8
-10
-15
-3
20
16
0
-52
-41
-12
-5
-17
-39
-34
4
27
-1
17
21
0
21
7
-2
9
10
1
-4
13
33
40
-1
16
38
-6
9
27
45
15
1
1
-33
-3
-1
-5
-58
-17
-20
-2
-1
-11
2
58
27
-27
8
-4
9
6
5
-43
-16
-15
-23
-22
11
-9
-1
2
34
11
-3
-11
-25
-6
-19
-23
6
19
6
-23
-5
11
3
4
-15
1
7
51
16
-3
-13
-7
5
-3
-19
-24
-2
-5
4
-4
3
6
14
1
-23
2
-4
7
3
-6
5
113
28
-1
-5
-30
-19
-3
21
-31
1
2
7
-4
-7
0
-1
28
8
-4
-3
-5
-6
-8
-12
-22
-18
-3
-3
15
14
9
13
-18
-4
1
2
-7
-9
-3
-7
13
2
-2
-2
10
1
-8
-9
-1
3
0
-7
-11
-8
4
7
26
-1
-6
-2
-11
26
8
-5
-25
-3
2
-6
33
-4
-3
-5
-18
0
0
-4
-36
-10
-5
-3
-17
5
-8
-5
6
4
1
6
20
-3
-7
1
-22
-11
-6
-13
-22
-6
-1
2
-4
-1
-3
7
8
3
-1
-1
24
4
2
-9
-18
-8
1
1
-17
-6
2
1
8
7
0
2
9
5
-1
3
10
-1
-2
-6
-3
-7
-8
-3
-9
0
-2
-2
-11
1
5
-1
-15
2
0
2
5
2
-3
-3
14
-9
-2
0
25
6
-7
-21
-14
-4
3
-1
-29
-13
0
13
-4
7
-3
-3
-35
-3
-3
-4
-3
0
-3
-4
6
-10
-10
-4
-11
-7
2
4
13
4
6
6
1
2
0
2
-19
2
1
-2
17
-3
5
7
36
6
-4
-16
-50
1
-1
-5
-35
4
7
23
53
0
-2
-2
-12
-11
-4
-13
-36
-8
-1
9
1
21
-2
10
41
11
1
-2
-17
-36
-3
-4
0
7
-7
-7
-3
5
-7
-19
-35
-12
2
-2
29
19
-1
3
-2
2
-2
-3
-23
-7
2
6
-6
-4
-12
-3
6
8
-3
-3
-2
2
3
0
29
-11
-5
-3
4
-5
-4
-1
-69
-41
-4
7
-6
1
7
6
12
-5
-6
-12
-3
-2
0
-4
37
23
2
-3
2
-3
-6
-5
8
10
5
4
-8
0
1
3
-3
31
6
3
-2
1
-3
-6
7
-32
-1
-5
13
-8
8
3
-39
-7
-4
-3
14
10
1
-1
29
15
3
10
-2
3
-1
2
-17
10
1
-2
6
2
-1
1
26
1
-2
-1
-10
-5
-1
-5
-26
-11
-1
-8
-12
-6
2
5
36
16
6
8
14
2
-5
-1
-37
-19
-8
-8
9
-2
-5
-6
-9
-5
-3
2
-62
-3
3
-2
9
-7
-6
6
13
1
13
4
-26
-8
-3
-16
4
-1
-19
-4
17
-7
-3
-14
-24
-2
-6
7
35
38
5
10
22
1
-8
-2
-26
6
-2
-5
-1
-5
-8
-6
-20
-11
3
6
-6
-3
4
1
36
13
-4
-22
-10
-7
9
-3
-38
-11
1
11
-1
5
-5
-2
20
0
-1
13
18
9
14
1
-23
8
-3
-9
6
3
-37
-7
-15
-19
-4
2
-3
-2
8
7
26
15
9
0
-7
1
1
2
13
9
-3
-1
7
-8
-20
-7
-20
-2
-2
-3
-10
-3
19
5
14
-3
0
1
4
-1
-16
-3
-4
-15
-3
-4
13
-7
46
-1
-34
-10
-1
-5
-9
7
-22
2
-24
-13
-2
3
15
9
29
4
43
8
7
16
24
7
-22
-6
-21
29
-4
-14
4
-6
-8
2
35
2
-6
-4
3
-5
2
-10
17
-37
-5
-9
-17
1
19
6
-40
45
5
26
51
5
1
-9
-51
-80
-8
-6
-12
-1
-5
-2
17
20
0
-4
1
2
5
8
29
1
2
2
0
-1
-12
-12
-14
-24
-7
-10
-17
-7
21
4
-1
26
-2
-6
-5
1
-8
3
-4
0
-1
0
6
0
0
-4
-3
-4
0
-3
-2
-8
0
-2
5
4
-1
-1
-17
2
10
2
-5
-25
-2
3
3
3
-5
-4
-7
13
3
6
1
0
1
0
-18
7
-5
-4
-9
-6
-3
-2
24
-8
1
-1
1
4
-3
2
15
-4
-2
-7
-17
-4
-8
2
7
15
0
-2
-10
-4
-12
0
21
5
0
4
-5
0
3
5
-15
5
0
1
-2
-4
-2
-3
11
3
1
-3
-6
-1
-11
-5
6
-3
0
-2
-2
-1
9
1
-23
-4
0
8
23
7
-6
-1
-20
-26
-6
-5
0
-2
-5
-4
17
5
1
-1
7
3
-6
-3
6
12
-2
-11
-3
-9
1
-6
3
-15
0
4
-45
-5
1
3
38
34
4
3
-19
1
2
-4
-26
10
0
-1
10
-1
-3
2
-13
-11
1
5
-1
1
0
1
0
-1
-4
-7
6
-1
1
-6
-5
-10
-2
-4
5
0
-6
-1
-10
17
0
0
-6
-1
3
7
31
-10
-1
-4
-11
-2
1
-3
-3
10
4
1
10
2
-5
-2
-5
-4
0
0
-11
0
-2
-2
-10
3
2
6
23
1
-1
4
-8
-27
1
3
-5
1
1
5
12
1
-2
-4
-5
-1
-3
-5
8
3
-2
-2
-3
-2
-2
-4
-4
-7
-2
-4
-7
0
3
-1
4
5
2
1
9
0
1
2
-9
-5
-2
-1
-7
-1
5
4
0
-4
0
0
4
0
-3
0
11
2
1
0
3
1
-4
-7
6
2
-1
1
-3
1
-1
2
-28
1
-1
-3
-3
-3
-1
-2
10
-7
-1
3
9
-1
3
3
-8
0
-1
-4
-8
5
1
-4
7
3
0
1
12
1
-5
-6
-9
1
2
1
6
1
0
-2
-13
-9
-4
-4
-15
-1
-1
-1
7
1
0
2
1
-3
5
-2
-35
-17
-2
2
1
7
0
3
48
11
2
0
6
-4
-4
-1
2
1
-1
-5
-1
-3
-3
2
1
4
-3
0
-2
-3
-1
-6
-24
-12
-5
-3
-15
0
-2
-4
3
-1
-4
-5
-2
-2
0
-3
-19
-21
0
9
13
3
-4
0
-12
-17
-1
1
-2
-3
-5
-3
15
26
-5
-4
4
-1
-1
-2
-10
-14
-2
1
-9
0
3
2
18
12
2
-4
-14
-2
5
3
4
-13
-4
-2
13
0
0
0
6
-3
2
7
-2
1
-2
-1
-14
-4
2
-4
5
0
-4
-2
-11
17
-1
-5
4
-10
-4
-1
12
-1
-2
-3
-12
5
-3
0
-21
-3
-1
-3
-2
-3
0
0
3
1
0
1
3
-2
1
6
16
-6
-2
0
-1
1
-1
-1
-1
0
1
-1
2
-4
-2
-1
-8
-1
-5
-1
4
-4
1
3
20
6
-2
-3
-1
1
-2
-1
1
2
0
-3
0
-2
-3
-2
-7
2
-1
-1
-2
-3
-1
1
-9
-21
-2
1
-1
0
-4
-4
-6
18
-1
0
-1
-5
0
-8
-21
-4
-3
-4
10
0
0
-4
0
9
2
4
1
2
-1
1
-5
-5
0
-2
-3
-2
0
-1
-7
-4
-3
-5
11
-2
-2
1
-1
9
4
5
-5
4
0
-1
5
10
3
2
0
2
-1
-2
-24
-3
2
2
4
-4
3
-2
1
-8
-3
-6
-1
-2
0
-1
2
-5
-2
-6
-12
-3
0
-1
10
-3
-2
-4
-5
-3
1
-1
22
9
2
1
-2
-2
-4
3
-15
-8
1
4
2
1
-4
-3
0
-1
-4
-2
-3
-2
-2
-2
-2
5
0
-1
-4
-2
1
-1
-4
-7
-4
-7
-2
-2
1
2
24
6
-2
1
7
1
-1
-3
-26
-2
-2
-2
4
-1
0
-2
-3
-4
-1
4
-4
0
-8
-7
-6
-7
-3
-5
-3
-1
0
0
14
12
6
1
-3
0
-2
-2
10
-8
-4
0
0
-1
-1
0
-22
-14
-1
-1
4
0
-1
-2
3
5
0
-1
1
-1
0
1
3
-11
-3
-3
-7
-6
-1
0
3
6
3
-6
-23
-2
0
0
7
7
3
6
13
3
2
7
2
-5
-1
2
6
1
0
-5
0
0
0
1
0
-3
0
-1
-21
-9
-3
-3
4
5
-2
-1
-1
-11
-4
-8
-12
-6
0
3
12
15
0
-2
-6
0
-1
-1
-4
-3
-1
0
1
-1
0
2
0
-8
-2
-1
1
-5
-2
-7
-2
-1
-2
-5
-4
7
2
-5
-16
-13
-4
1
3
1
1
5
0
-4
-1
-1
-3
0
1
2
16
20
3
1
1
-2
-7
-5
4
8
-2
-1
1
-5
-2
-1
2
-11
-2
-4
3
-10
-2
-2
-9
-12
-7
1
-11
14
0
-1
2
-4
0
1
-1
3
4
17
-10
-5
0
0
-3
-3
-4
0
8
8
2
3
12
1
2
-7
-20
-9
3
-2
1
-7
0
-3
14
15
-3
-3
4
2
-1
-3
9
1
-4
-2
-6
2
-3
-1
-9
-7
-2
-4
-7
-4
-3
2
3
2
-5
-3
2
3
0
-1
-11
-3
0
0
1
-2
1
4
11
-1
8
6
6
-3
0
2
-2
10
1
3
6
2
-5
-3
1
4
0
0
-1
-2
-4
-3
1
-8
-6
-2
2
3
3
-1
-5
7
10
2
1
-3
-1
-3
5
-1
0
-2
-1
3
1
0
0
9
3
1
2
-1
1
-1
-4
-11
1
3
2
0
-9
2
10
1
-8
-1
1
-19
3
-8
1
8
-4
-5
-8
23
0
-9
0
2
5
-1
0
0
-1
0
-25
-7
2
5
7
-5
-7
-13
-16
-8
-7
-3
2
-6
-1
7
-10
-6
3
-1
-7
-3
-2
-5
15
27
3
-2
5
-5
3
10
-1
-11
0
1
-2
-4
0
4
1
2
3
-1
-4
6
-3
7
20
-10
-3
1
-1
-2
3
-6
-33
-6
-4
-1
2
3
-9
6
9
2
0
-1
2
-8
-4
-14
-22
0
-6
-4
-3
-4
2
-5
7
0
-1
-4
-7
4
5
1
-3
-12
-2
1
4
-6
0
5
12
16
3
2
0
2
5
6
7
2
-6
-5
-5
2
-2
-4
-10
2
2
2
8
-3
3
0
4
-6
-2
1
0
-8
-5
-9
-21
-8
-3
0
-1
-9
1
11
28
-6
-1
-1
10
17
-1
-12
-1
2
-3
-1
-19
-8
-17
-1
1
0
1
0
4
-6
-2
7
-6
0
-8
-9
-24
18
4
-11
-15
-12
-2
2
16
5
19
-2
-18
-7
-1
-6
-1
-1
11
15
4
12
1
9
10
-12
-17
-5
24
6
-5
0
9
-7
-9
15
-21
-11
-6
-2
-6
-7
0
8
31
8
2
-2
-4
1
-1
-10
-16
-5
2
-6
-21
4
0
-29
-32
-6
0
9
25
0
-15
11
1
-4
-3
-3
-20
-23
-11
-19
-15
1
-3
-1
-7
28
18
35
19
-4
0
-14
-14
9
11
-16
41
-8
-2
-11
6
9
22
9
-2
-8
2
3
-29
-5
-28
-11
-17
20
2
6
42
-11
-9
-26
23
-2
-1
10
-6
9
-13
-3
-25
2
0
-8
-3
-10
20
22
69
38
-2
-6
-15
-13
3
21
-8
-17
-2
-5
1
2
-37
-30
-15
-9
-2
5
-2
11
9
24
-10
-17
6
1
12
-2
-7
-35
-16
-14
-9
-10
-14
-4
-35
11
20
11
3
2
-16
-33
30
32
-24
-27
-23
-3
21
23
4
-5
10
23
6
3
24
-9
4
51
51
-3
10
9
-20
32
53
-35
-65
-7
20
-1
6
1
-63
-58
5
-1
-14
-23
-18
-34
-20
-21
25
-6
-5
16
-27
-39
63
-45
-54
2
-3
8
37
68
-6
34
3
-7
-11
0
-11
29
-11
-4
-23
-21
-2
-9
-7
-38
4
7
5
9
2
-14
-12
5
-15
-23
6
1
-14
10
10
-35
45
29
6
7
30
7
6
31
-20
-36
30
-6
-42
-14
49
-35
-70
-25
-38
12
25
3
-27
49
-15
-38
-45
15
35
2
3
-78
6
34
58
22
19
0
-49
-36
29
-48
1
3
6
19
4
-13
67
87
63
5
-26
-22
18
98
-57
-32
-72
-59
-62
-26
-25
-71
-26
-42
-12
-13
61
7
-57
-65
59
-23
14
45
35
13
41
13
-22
45
-7
-3
2
10
74
-12
-3
-4
-17
5
-6
-17
18
77
-69
-18
-15
-13
-59
3
-67
-117
77
79
17
-8
14
20
65
124
-14
-66
-48
-6
-9
-11
22
-128
-59
19
8
-9
18
6
54
-82
-16
-43
13
-83
-52
-5
34
-19
66
9
-14
9
9
-8
-36
79
-12
27
4
-31
-36
-3
-13
-26
16
-13
25
-53
42
12
-49
-96
25
-24
-52
42
43
5
6
12
-90
-33
31
1
-51
-3
14
-87
-75
-8
-52
-63
-43
-30
-109
-46
76
115
63
45
48
26
81
102
-110
-49
-2
-11
-45
-21
78
-81
6
-23
-47
-17
18
-19
-57
-42
-68
-39
4
-73
-57
37
-30
-128
67
-20
-24
83
37
-37
75
86
97
124
13
16
17
14
33
-11
-80
-22
2
53
-16
-8
50
-128
44
1
-7
7
18
-7
-45
-94
41
-8
36
21
-8
13
-37
74
-63
29
0
7
-36
-29
1
27
78
14
-5
-54
4
19
-63
-117
92
46
13
-5
42
11
-46
91
-96
-121
-29
42
32
-12
-68
91
-57
-44
-12
13
-24
-8
-85
-34
35
88
18
-66
-25
38
80
79
88
-20
85
79
54
-8
52
127
-49
73
6
-8
-21
0
-36
-110
-44
-94
-44
-26
-15
-18
-65
-84
-42
68
17
21
-9
-20
-8
88
-42
64
-3
1
-17
46
58
-80
71
87
-6
-13
7
-21
-13
34
14
-17
-4
-15
-12
23
88
61
13
-7
6
15
40
-13
-128
-44
37
38
-17
49
31
20
-19
57
-50
-25
11
-22
-50
-1
38
-128
-8
-7
38
-24
-22
13
-15
43
40
103
57
53
39
-10
8
108
-107
-58
-65
-19
9
-1
32
-53
35
-37
-10
-50
-78
-25
-55
-97
54
8
41
80
47
-21
-53
76
14
-5
-24
-43
5
13
52
-5
-27
17
16
-38
0
8
30
-65
-89
-21
14
25
-17
16
-24
111
118
63
1
-8
12
-6
45
42
-15
-11
-12
-9
-43
0
-27
17
-8
-32
12
38
2
-31
-26
-17
-37
-3
-33
-66
5
-13
52
-74
19
-29
-2
-63
-53
19
16
-42
-35
-45
9
42
67
22
41
50
17
-26
-42
-37
-46
-10
39
8
50
-2
19
82
72
28
-34
69
-27
-51
3
-77
-33
-20
15
-24
-39
19
-30
69
-15
-5
5
16
70
44
68
57
16
14
50
87
-7
-30
-24
-1
12
11
27
-11
-35
-5
-4
-15
4
23
113
-83
-56
-76
-78
-82
-37
-41
-105
-74
53
21
91
78
36
-5
78
48
-24
25
-19
-40
-31
-13
-60
-65
82
63
11
33
37
-4
44
127
-96
-29
29
32
6
19
48
-128
-10
10
-63
-68
-24
-21
-28
56
13
66
24
16
5
1
17
-33
-72
-46
-51
13
-41
-23
-75
-12
84
33
41
-42
15
4
48
104
11
-9
-35
-8
17
19
-32
-110
24
-13
-7
17
-64
-21
14
-32
-100
-10
-1
97
91
24
-98
-128
-6
-76
-2
-2
-5
6
40
86
-27
-24
-19
-53
-11
-24
-124
-65
24
-25
42
-29
-35
-6
25
77
-42
-30
8
13
-2
20
96
-33
33
4
-35
0
-7
-35
-71
-126
51
-51
41
-9
6
-9
40
86
-54
16
-23
-16
-23
24
62
-100
67
79
13
-44
-5
-28
27
127
-25
-25
16
55
48
33
-65
-128
-60
-17
-30
-5
-35
-18
-43
15
23
12
11
14
23
30
101
48
5
40
0
-94
-52
-36
8
-111
-5
-32
-1
42
1
-28
-107
-2
63
-22
2
25
17
-5
61
15
10
-46
21
14
11
32
100
-94
4
-12
-41
12
26
-6
-39
92
-53
-16
-3
-56
-41
4
15
-96
-14
83
8
-28
17
-2
2
8
-20
-23
5
-36
-25
0
18
3
23
-19
-17
3
-14
-48
-66
-22
8
14
6
42
36
-13
-38
126
-14
-52
-20
35
-6
-3
36
17
-44
35
-23
-30
-11
36
84
-100
12
42
9
28
-15
-36
-24
88
108
56
2
2
5
-45
-2
96
-57
-116
-14
-56
-20
38
103
-82
8
18
-19
35
29
-11
-66
50
-9
25
29
-13
-31
36
9
-128
-79
-45
-40
-4
14
36
127
-92
72
45
17
10
8
-35
-67
102
12
-35
-2
17
21
-27
-28
-58
-33
23
34
59
23
26
32
-9
34
-2
-7
-33
-27
8
34
-110
-36
0
-27
37
-13
22
44
-32
-49
-78
-33
-72
-27
-60
-128
-63
113
67
49
8
15
8
65
118
-74
-58
6
4
4
20
95
-68
-35
71
-8
12
-29
13
6
-14
54
17
5
17
24
-4
-23
-39
-19
-15
-7
-2
-41
6
47
27
27
29
5
37
54
-22
-8
58
5
-36
27
33
39
26
-15
-30
-48
22
-8
-19
-17
17
-111
51
33
76
42
43
38
25
60
52
-27
-56
-21
-118
-83
-28
95
-39
45
45
40
96
60
1
-64
45
26
97
-12
-26
-7
31
22
-60
66
19
-23
-38
2
-19
-42
105
-47
-21
26
-13
-48
-6
-41
-81
-20
47
-31
13
-27
-27
-99
-54
31
-41
-14
-40
34
11
58
127
-6
-72
0
10
-1
14
6
-107
-1
42
14
1
-8
1
-49
-24
22
48
-2
9
14
-10
8
-55
-8
-30
31
17
-4
11
96
127
-71
-23
-41
-68
-21
16
30
-118
77
69
-9
55
60
8
69
127
-26
-64
7
-36
-18
-25
-80
-44
-7
-9
-8
16
-15
-28
35
-30
-22
-37
15
-44
-6
20
56
-44
-44
-7
-3
9
-6
26
-59
-34
50
-1
26
-16
-17
-26
12
100
-11
-29
11
62
43
-1
-12
-7
-24
-8
0
21
-4
-8
-37
-77
24
28
-14
-9
4
8
11
-18
-34
-93
-15
-25
-16
-16
-9
8
6
32
31
14
-14
-23
-51
2
1
-45
-43
4
7
7
3
15
11
26
13
-23
-19
6
8
6
-6
3
5
-25
0
26
81
-52
-9
-4
-18
7
-4
-27
-57
-6
16
-10
-22
7
7
-7
-26
-27
3
17
-5
-3
-6
-9
-16
79
-48
-3
-16
-26
-19
-14
-11
-61
-38
-50
28
-5
-3
14
-23
-54
21
14
2
15
8
7
34
33
-12
11
-26
1
0
-26
-112
87
-7
-5
46
-9
2
-5
-49
-106
57
44
-48
-7
-35
-2
55
86
-45
-34
-19
4
30
-4
-59
-107
22
6
21
6
-19
3
31
29
-5
4
-32
9
5
-9
23
30
-1
-2
31
27
28
12
26
64
-6
-56
-1
14
0
7
32
-39
1
27
-41
-14
-6
-3
-20
-8
-5
44
8
-46
-32
-6
-23
-83
-38
-25
-72
-43
-10
-15
3
-30
1
-12
32
13
5
-8
43
82
-16
-52
-7
21
-4
-16
-36
12
43
27
-9
7
29
23
22
79
-26
-4
32
18
7
48
51
-128
5
43
-1
-31
-8
-27
-11
59
27
20
14
21
-4
-5
-31
-52
-27
16
-48
-33
-28
-16
-52
-74
5
-16
6
-44
12
-3
-14
89
-49
56
-2
24
-38
14
72
-81
40
58
42
-46
29
-13
-2
117
34
44
15
76
52
21
64
18
-52
17
41
14
-17
1
-17
-128
4
18
-23
-4
-11
-20
-91
-81
-14
89
-30
-10
-14
-8
-5
39
-14
-91
0
-10
-7
19
60
13
40
55
12
7
15
-7
-15
-30
11
-1
5
14
0
-20
-83
-16
-58
-66
32
-3
-15
29
76
-50
68
23
18
1
11
-8
13
127
-43
-1
-27
11
-8
13
98
-78
33
-7
13
-8
1
2
-9
127
44
-26
0
6
13
27
-21
-118
-15
-17
12
7
8
-9
-30
-82
47
9
-14
-11
-6
2
4
-90
-69
-60
-10
-15
-11
9
2
-68
-6
-66
0
8
3
-12
49
50
-19
2
-9
-16
-25
4
8
18
12
-10
9
-48
-25
-32
-35
42
19
-14
-42
22
26
21
-6
25
10
37
34
27
5
2
-15
-7
4
-26
-20
-28
-19
-3
8
5
-7
34
-2
10
-22
-27
-34
43
-3
-21
31
-5
3
-3
31
27
-6
-10
-55
-40
-2
16
-2
-60
-27
0
-45
2
-6
-4
2
-13
55
-34
27
15
13
-1
26
60
-24
3
13
9
9
24
-53
5
-52
15
-16
5
-6
-10
-14
-65
11
-28
5
-6
-1
0
-1
-21
-5
40
0
5
-3
-6
1
118
45
-4
16
-7
10
-12
-22
-10
-2
38
-16
-2
-14
-5
4
-37
-1
-8
-7
-4
6
9
11
-29
-16
-24
18
13
1
-13
2
23
21
6
10
-11
-16
-5
-28
-22
-47
-23
-19
-17
-19
-21
-91
-79
54
25
21
24
14
7
56
47
-23
-48
-26
-48
4
5
-37
-99
24
49
12
17
24
5
41
127
-31
-58
-41
-7
-14
-3
19
-94
-33
19
7
12
-5
-5
-4
-28
12
22
44
21
0
1
1
8
-42
-96
-51
-22
-11
-4
15
-88
69
36
10
-4
12
1
-53
127
-19
-7
16
1
-6
-9
5
-45
9
40
-8
25
5
-1
-41
-54
-36
-45
12
-16
-15
-8
30
-70
-5
-48
4
-3
16
9
50
-71
-7
-34
-24
46
4
5
26
80
-4
-17
-10
-47
-8
-5
-29
-23
18
115
15
24
34
-8
-59
-95
-40
-107
9
-26
-35
6
34
95
54
25
34
-6
10
-11
35
83
-86
-21
-30
41
2
-1
45
-96
-28
-20
-34
-70
-38
-15
-84
-59
66
112
18
54
29
15
109
87
-59
-20
-1
-35
-8
7
-18
-90
34
-16
-6
21
0
7
-6
-31
-4
-29
28
-9
-6
-10
21
97
-17
-49
-28
-19
-13
-12
-58
-128
36
-4
-1
-15
-14
-3
-36
110
-46
-21
-3
4
10
8
38
72
59
93
35
13
-45
-7
53
-1
9
66
-25
51
67
24
-42
-64
-29
-27
-6
-20
-3
-3
9
-17
29
27
-4
-8
-7
3
-36
-2
-40
-60
-11
46
38
19
39
18
55
47
36
-5
-16
-11
6
36
-34
64
-11
-14
-28
-7
9
-116
27
4
-21
-8
3
-21
-98
31
13
3
7
-15
-14
-13
-24
-3
-9
-87
-33
6
-6
-2
41
8
43
48
-21
6
25
18
-21
-17
-20
-10
11
-5
-8
0
76
-39
52
-34
-30
-20
-5
-32
-60
68
-53
9
0
7
5
-7
-21
10
-27
-71
3
10
1
1
-13
-12
50
21
29
13
4
-8
20
48
-56
9
-20
15
-1
35
55
-128
19
-51
-7
4
10
-8
-2
58
32
-27
5
-49
-22
7
-87
-23
-4
1
20
41
15
7
70
62
34
41
26
34
25
-2
-35
-15
-51
-70
12
-12
-42
-11
2
-38
8
61
-10
8
22
12
31
-48
12
10
-10
-1
10
33
57
78
5
-29
-25
-31
4
-44
-54
40
-48
1
13
16
-19
9
112
-111
-72
-119
-19
-59
-2
-13
56
86
75
63
-19
6
-3
4
-11
-45
-7
-34
0
14
15
9
39
-44
-1
-39
5
2
14
10
20
-75
-25
28
27
10
-24
17
-4
-107
-69
5
-3
-30
-20
-11
-77
-102
-6
76
7
46
51
12
-7
122
49
2
-28
-26
-3
-10
41
100
71
127
21
3
-12
-11
-81
2
-84
-128
-31
-10
-41
6
-39
-99
46
-56
-6
-85
-8
-1
-17
47
69
127
19
23
25
3
-4
76
-47
-6
-12
13
2
11
4
-64
2
-59
-3
-42
-20
-12
-12
-98
4
80
45
54
32
-7
45
17
40
-16
-30
-45
-14
13
-9
1
-56
-37
-21
18
-19
25
127
11
89
43
14
-3
-18
-52
-128
72
-29
7
-22
-19
-25
-10
48
-49
-58
-71
4
-59
-71
-99
-108
-46
45
3
1
42
98
72
-11
53
16
74
-24
-36
-78
-64
36
-54
-57
-87
18
17
86
124
51
-69
103
-4
64
55
115
103
61
65
13
70
-8
49
51
-106
30
-128
30
8
-19
-7
-14
-35
52
79
31
13
-10
9
-87
-46
-19
84
-85
85
31
-58
-118
-59
-16
-128
62
-98
0
12
-45
4
36
-6
5
-64
-31
32
43
-11
49
-33
-48
8
-25
21
-13
-33
-56
-128
-54
-63
-13
-21
-6
61
51
-22
61
-21
31
31
23
-20
-20
127
-29
38
45
-49
-9
31
-22
-128
-40
-55
-30
34
-25
-9
-48
-12
62
100
5
24
28
-7
24
-47
-10
8
4
-6
-30
-45
-36
6
-63
-57
-25
4
39
20
-63
-36
-83
-10
31
-10
-16
-29
127
64
49
108
-3
-15
0
22
-119
82
-70
-1
-26
-46
29
106
64
-79
17
98
4
26
85
-53
-63
127
-16
-52
33
12
25
28
-27
-92
-14
28
-27
11
1
0
68
-65
-29
50
20
-54
-8
30
-43
59
-59
8
-15
-24
-40
3
46
32
51
30
-27
-31
-91
-128
4
-50
-21
-84
14
26
86
84
-45
21
-27
19
-11
25
-21
-29
-9
5
25
-36
11
-33
-15
28
36
-29
-74
-57
-29
-41
-3
-20
-35
9
91
31
13
-7
-30
-38
-7
-44
19
0
-2
16
-18
-70
-21
79
-11
-115
-26
-18
5
44
-3
3
108
57
21
-22
16
64
11
20
12
65
-21
3
-66
-71
-48
-18
-46
37
1
-8
57
69
15
-69
32
-1
25
55
21
92
21
83
24
82
27
11
26
27
27
41
-81
-60
-7
-17
5
-19
13
14
5
72
12
-5
-72
-128
-9
-29
4
48
11
20
2
23
34
-76
6
-15
-13
6
28
39
-46
82
-36
-52
-4
8
-8
-50
-21
-49
9
-59
-18
-22
-38
1
5
65
-60
25
13
-9
7
-46
-86
-48
43
-17
-15
21
-3
-7
14
-67
-67
29
-7
7
-4
0
27
37
11
-52
-4
-73
-23
13
-25
-78
29
11
18
69
7
-1
73
37
0
-58
2
10
19
9
-48
97
-59
-14
-8
-7
10
-88
-60
1
-51
-55
-1
18
-6
122
92
-60
44
-6
29
5
14
-16
-39
13
-11
75
-30
-39
-61
-99
-13
-71
-1
15
-32
-32
-40
24
-6
13
-21
-80
42
125
98
30
-14
64
41
48
-12
-22
26
-7
62
73
18
-99
36
15
30
84
-32
4
-9
-66
-14
6
-32
-47
93
-15
100
-12
-47
-51
-57
-32
-128
-51
27
87
15
-40
-11
4
-46
61
6
87
16
55
27
-20
99
43
-25
21
24
18
30
51
44
-15
-70
-61
-25
-15
-31
-38
-61
-67
-33
-56
0
3
6
-46
8
-89
-36
-36
-34
-46
-79
75
6
-59
17
39
52
86
83
5
-41
117
15
47
-22
16
28
9
52
74
3
-73
-46
-41
-30
-28
8
-92
48
-10
17
-63
-44
-28
-1
-4
69
-7
57
58
52
51
-32
-62
39
79
-1
-1
-34
-36
15
96
-31
-31
18
29
-25
-69
127
-28
-65
-81
-45
-8
56
98
57
-59
54
50
17
-30
-10
87
42
73
42
14
42
11
16
-85
-90
80
58
23
-32
-14
-31
-6
-12
-27
-64
-42
-8
33
6
-97
-20
18
-27
9
-40
-73
-14
-31
-51
-67
-114
-89
-6
28
-8
21
6
-128
97
82
18
33
-12
7
-59
55
3
-12
18
5
35
-59
-15
83
-1
10
-43
22
8
68
-51
-25
-28
-1
19
-12
-42
-60
-7
-55
-39
-4
22
36
61
61
4
29
59
127
-3
-42
-34
0
30
4
-108
-128
-21
27
-24
-44
-24
-79
107
127
-11
18
2
-52
87
108
-92
-5
15
-47
-29
-42
-65
-115
18
127
-33
10
15
108
13
36
0
27
46
16
73
39
127
67
-48
-90
-15
-28
-20
-58
-86
-66
19
48
-5
18
-6
21
66
-70
14
18
-17
1
-7
-17
-114
72
43
46
24
-44
-27
-30
30
40
33
20
9
5
21
36
90
-37
23
-26
-5
-40
-25
-22
-101
38
-32
-95
9
102
30
-49
47
6
28
28
-7
-16
-8
41
10
-46
-38
22
4
-22
-19
29
53
-70
1
22
-10
-11
24
4
-17
12
-72
-74
-1
-57
-21
-20
12
-86
36
-47
-1
18
30
-41
-29
58
-11
8
-34
32
-5
-1
-30
2
27
-2
6
9
-16
53
32
-36
69
-38
47
-39
-21
-44
-72
30
-11
-13
11
54
14
-82
9
19
-14
-25
-59
-44
15
103
-2
-128
-6
-41
-21
24
0
-2
-7
127
11
13
6
25
13
-16
78
-31
-26
-26
-19
-64
-74
-20
15
-115
-5
-19
27
-22
1
-43
-85
-29
-70
11
-5
28
-32
-38
-24
-36
17
18
4
-21
22
56
22
-21
1
93
-55
-36
-22
-10
-27
20
-71
-41
-9
28
56
22
-6
17
-40
-22
1
21
37
26
-38
18
49
100
44
-26
-45
-33
-8
-62
5
-103
-34
42
10
-29
0
90
-16
35
-19
-35
-4
30
84
37
49
-53
27
0
42
76
81
121
-84
-63
-14
7
29
11
39
-78
25
41
23
-45
-52
-46
-128
-83
19
32
31
-10
-56
-77
13
-1
-22
-63
-22
32
60
26
65
-72
-36
91
-17
28
-22
7
13
-4
-14
-58
18
11
13
11
-17
5
-2
-34
1
-31
-12
25
-25
-45
-1
51
23
9
-7
-13
7
67
48
72
-9
20
20
13
0
52
-16
-31
-4
-4
-7
13
41
-4
18
-29
-3
0
-8
-7
-25
7
-51
-8
4
-21
-11
-13
-44
-77
-8
-59
-23
-8
-7
-12
-44
-17
21
-13
40
47
39
17
39
57
-20
0
-5
-2
11
1
-16
8
36
16
-33
-16
-9
-10
5
5
-23
-25
25
-20
-12
-4
11
-21
-16
2
12
-11
-16
-7
-33
-31
34
10
25
34
29
38
-6
46
-43
-1
-43
-22
-17
-26
22
-17
23
-4
1
4
7
7
-30
1
-5
8
-5
-7
-3
8
39
-4
19
25
23
2
-2
-19
51
42
12
-2
-1
-14
-13
-8
-28
-27
2
-6
-3
6
14
57
43
17
2
22
-8
-2
3
-4
17
3
-10
-17
-11
-4
-4
-11
-22
-2
1
-5
9
-3
-5
-13
-3
-14
16
6
0
10
0
-27
12
2
-19
4
-21
-14
-11
0
-11
1
19
17
-2
-2
1
7
2
7
-10
-13
9
5
1
-4
-20
-15
2
4
5
-7
-9
-29
-41
4
5
11
14
-8
-2
12
36
0
3
-7
-4
1
3
1
-14
8
2
-2
14
2
5
26
11
12
3
-6
-1
-4
-2
5
30
-4
-1
3
2
-4
-5
-6
-31
-11
5
4
6
5
0
-13
-13
10
-10
-1
-15
-2
-4
-11
-12
-6
5
-7
36
5
3
4
-16
-5
-7
7
-31
-13
-3
-5
-20
-4
-3
-8
-24
-20
-5
4
3
10
-7
-3
-8
5
-7
-10
-6
-11
2
4
-19
-3
-2
-10
-3
0
-5
0
10
8
2
6
-8
0
-2
-1
4
-1
1
4
32
-4
0
6
15
-8
-8
-8
-27
0
6
5
-6
2
1
-13
4
-2
4
2
-33
-12
-6
2
2
4
-17
-6
-9
18
1
1
11
2
1
-2
14
-8
-3
1
-30
-2
-4
1
-4
10
-1
-10
-22
-3
-7
-4
-10
-9
-5
3
1
-2
14
6
13
1
3
-4
-1
5
6
-2
1
2
0
-9
5
-2
-16
-2
3
-6
-6
-11
-18
-4
2
2
16
12
3
13
8
0
9
-1
-25
-4
1
-7
-32
2
-13
2
26
3
0
-8
20
2
0
-10
-4
13
1
16
-17
-6
-6
-6
23
4
-7
-7
6
-4
2
6
1
-3
3
15
-6
11
3
-3
-17
-28
0
-9
21
-5
-3
1
19
16
-5
-17
-37
-5
5
0
-10
-26
3
22
58
8
-7
4
48
24
0
-3
5
-4
11
-5
-43
7
4
4
-64
-9
-29
0
-1
2
-3
3
35
15
1
4
-16
6
-1
-16
-41
-8
4
-3
1
-22
-2
-2
11
-1
8
2
-11
11
-2
3
22
-11
-23
-9
-39
-7
2
-3
-19
10
-6
0
71
4
-6
-4
4
-6
-7
0
-16
12
4
10
5
-3
5
-1
11
-32
-10
-14
-7
1
35
2
-36
-2
3
10
29
4
-6
0
-18
-15
-3
-8
-28
-6
5
-6
-10
2
-6
-15
-8
-1
-19
-4
12
32
2
8
1
-4
11
-2
-35
-27
-2
1
10
-5
18
5
36
-6
4
-4
-18
0
-13
-5
-51
-1
-3
-13
-30
0
-13
-3
1
26
3
7
10
8
-6
-7
10
-16
-3
0
-39
-1
21
0
12
16
1
-3
25
3
-1
0
4
-43
-6
-2
5
-1
-1
0
18
17
4
0
26
-2
-2
6
3
-5
-3
-6
2
-12
-6
-6
-6
10
4
26
27
9
2
3
3
10
1
-7
18
-3
-1
-5
-61
-32
1
7
-24
4
8
2
21
7
-4
-1
19
-4
-12
-1
-31
0
-6
-18
-18
-4
-5
-2
8
9
3
12
29
3
6
0
36
-3
-2
-12
4
-4
-1
-3
-34
-13
1
4
1
2
-10
-3
-25
-18
-5
-7
-11
-4
4
-7
27
6
-3
-5
-34
-4
-3
-2
5
-2
-3
1
17
0
3
0
25
8
-1
0
5
-1
-5
1
0
31
3
-1
8
-2
2
2
8
-12
3
8
5
0
-1
-1
-5
-13
-3
-2
3
-2
8
1
5
8
0
-1
71
6
-3
-2
-28
-3
-6
-13
-22
-6
-5
5
44
15
10
36
49
14
-2
4
-13
14
0
-7
-15
-4
4
-2
-23
-16
2
4
55
13
-4
0
2
-22
-6
-9
-73
-8
1
-3
-3
-2
-5
-9
-30
-7
-3
-2
-3
-6
-2
10
16
3
-3
-3
9
7
0
-8
-44
-7
3
-2
-26
-18
-2
4
44
5
-2
2
17
11
-4
-5
0
-2
-2
-6
-10
-4
-2
3
1
1
0
4
-1
-3
-4
-11
-36
-9
-4
-1
3
1
-1
0
21
2
3
1
-40
-23
-7
-4
-2
0
-1
-3
33
19
-1
-4
6
-3
-1
-2
-17
-7
3
12
-10
3
-5
-2
23
18
1
0
0
0
-3
-6
2
2
-3
-12
-33
-7
7
6
-1
-9
1
4
0
2
-7
-3
47
7
-3
-9
-15
-7
3
1
-25
-12
1
-3
-12
0
-2
-5
24
30
-2
3
1
-5
-3
-1
-23
-5
-4
-11
7
-1
-4
-3
9
-5
0
6
-9
-4
3
-1
-1
4
2
0
17
1
2
0
-24
-26
-4
-1
13
0
0
0
20
0
-2
-3
-3
-2
-1
3
2
15
-2
-6
-15
-4
-1
-3
0
0
0
1
5
2
1
3
-1
0
3
-2
-11
-1
-3
-2
-1
-7
-4
2
-13
0
4
3
-14
-6
1
-7
-10
-3
1
4
28
11
0
7
18
0
-2
-7
-10
-6
-2
-3
4
1
-1
4
-3
-3
-4
-1
-19
-2
-2
-3
8
9
4
7
21
2
4
2
-9
-7
0
-3
12
0
3
4
-5
-1
1
-2
-12
2
-2
-2
0
13
1
4
0
-3
-2
-2
2
-10
-2
0
7
0
-1
-5
-32
-10
-5
-1
2
3
3
3
12
0
-4
2
7
2
-2
-8
-20
-3
5
-3
-10
-3
-7
-6
-9
-3
-3
1
-30
-10
-7
-6
15
4
1
2
17
-9
0
1
2
0
-2
-7
-2
6
-2
-2
5
-3
-3
-3
5
-4
2
2
-6
-4
-1
-1
-4
3
-1
0
-7
4
1
-5
-18
-2
-6
-3
18
5
0
-7
37
-6
5
3
-4
-2
1
20
11
7
2
-1
-32
-25
0
-1
-12
4
-2
2
7
9
-1
2
-13
-4
-4
-6
-13
2
4
-2
-3
0
1
0
-2
-5
-1
-8
16
1
2
4
27
12
5
2
-9
-4
1
-4
-4
-8
-3
1
4
3
0
-3
-6
-2
-2
1
-16
-2
-8
-1
-8
-7
1
1
-7
-2
7
0
-9
-2
0
-3
7
0
1
3
12
7
0
-6
0
0
-8
-5
-7
-1
-2
2
-6
-4
4
0
9
-6
-2
2
3
5
2
4
-8
-1
-3
5
10
5
0
0
6
-11
0
-2
-10
-3
3
1
2
20
-1
7
2
7
-5
-3
-11
-4
0
-10
-7
-5
-2
-3
12
7
-3
1
6
0
1
-1
-9
-7
-1
5
4
5
2
-1
-3
-11
-5
-5
-8
-4
1
0
-4
-2
4
-2
6
-3
-6
-8
-6
1
-1
-2
-2
-1
-2
1
5
4
-7
-7
-4
-5
2
2
-17
-23
6
3
-4
-2
0
4
15
25
18
8
9
1
-3
-6
-6
-4
-3
-2
2
-3
-1
-3
-9
-20
-12
0
-4
4
3
3
-2
-18
-4
-6
10
-3
3
4
12
23
47
15
12
3
-2
1
-2
22
16
1
-48
-5
-4
-1
11
16
1
-9
-14
-4
-1
0
5
0
-24
-1
11
7
-3
-7
-11
-20
-18
-12
6
-5
3
2
-7
-7
-16
-5
-20
1
-7
-3
-4
8
20
-8
15
-6
6
9
-7
9
9
23
11
5
1
2
30
2
-12
-5
-12
0
12
-1
4
2
-7
-9
10
0
-9
-5
-59
-43
-13
-7
-16
-1
-4
-5
10
14
4
-7
-1
-4
-4
3
20
13
-8
2
-17
-4
-1
-1
19
-3
-7
0
8
2
2
-4
-15
3
4
4
7
1
-4
-4
-6
-6
13
-4
-2
-5
1
-2
-27
4
-3
-5
-5
2
-2
4
25
2
2
-4
12
-2
1
-2
3
8
5
1
-18
1
-2
-3
-7
-3
-5
5
-15
2
3
-2
-8
12
-15
-4
-4
-2
-4
0
-15
-47
-4
-2
-1
0
-4
0
-12
24
11
0
-19
-4
-2
-4
0
-4
-4
-11
-13
-2
-2
-1
7
-15
-8
2
12
3
-1
7
-17
13
2
-1
15
-1
1
4
36
6
0
2
-6
-4
0
4
13
4
-3
-1
1
3
1
-3
-28
-16
-3
-6
-2
-1
-9
-4
8
0
-5
-4
-4
-1
8
1
9
-13
-6
4
12
3
-6
-2
15
10
-1
-8
-18
-10
-3
-6
-19
-17
-9
6
29
-2
2
2
1
3
2
4
-6
0
0
0
5
11
-3
0
6
-1
2
-1
-1
-8
3
-1
-4
-4
-1
0
3
-1
-7
-3
-17
1
-3
-4
-11
-12
4
-3
8
-2
-2
-3
0
2
-2
5
11
2
-2
0
-12
-2
-8
-5
-7
-4
-1
0
4
-7
0
-3
-20
0
-12
0
10
22
6
3
3
2
-1
7
7
-3
-6
-3
4
1
-1
0
-6
-12
-6
-4
0
-2
-2
-2
-12
-23
-15
-10
-4
-9
5
-2
6
29
11
-12
-30
-1
2
-1
-12
3
6
39
42
12
-6
-1
15
-5
-2
-5
4
-2
-1
-4
5
1
-1
-3
-16
-2
2
-5
-15
-18
-3
1
17
2
0
-2
3
-4
-9
-11
-9
-3
3
-1
-4
36
8
1
-7
1
-2
0
-1
-16
8
-1
5
-2
-2
-1
7
16
-8
0
4
-1
-1
-1
6
-10
-5
-3
-7
-1
-2
-5
-8
-1
7
6
2
-3
1
-1
0
8
-7
-8
-5
-1
1
0
-2
-9
13
4
28
5
-3
0
-1
-1
-4
-2
-19
-1
1
0
-4
-2
3
-2
4
1
-1
0
4
5
-3
2
1
-1
-1
-2
-16
-10
-6
-5
12
-5
2
-1
12
8
-3
-1
-14
1
2
2
1
1
1
-1
0
0
3
-5
-15
3
4
2
8
11
-7
-6
3
-9
-11
-4
-10
-11
1
4
-7
-12
0
-4
-21
-8
-2
-2
6
2
0
1
7
4
-3
-2
-5
-10
-4
-2
8
0
3
-2
-13
13
-4
2
7
1
-2
-6
-16
-7
2
-4
-7
0
-2
0
0
-2
0
3
5
-3
-1
-2
1
-25
-11
0
10
0
2
-1
4
6
5
1
-2
3
0
-4
-9
17
8
-4
3
-5
-1
5
18
1
-4
-4
6
-4
-2
3
9
18
1
-2
-9
1
0
-2
-8
-12
1
2
-16
-1
-1
-3
6
-18
-5
-2
-4
2
2
1
-13
-20
-7
-6
0
-2
-4
-2
1
22
-6
0
-9
-4
-2
-4
-11
-29
2
-5
12
-4
13
1
-4
14
10
15
9
17
-12
-2
3
20
7
3
-2
-4
-2
2
9
0
-3
-5
-17
-6
-2
1
4
1
-9
1
11
2
-1
-3
-8
-15
-7
-14
0
-7
2
0
-11
-13
-3
-1
-4
1
0
-1
-2
12
12
6
3
2
-5
0
10
5
-8
-5
-10
-4
1
0
-9
-12
6
-3
7
-1
1
-1
4
2
-7
3
-6
1
-1
1
-2
-13
-7
-4
2
-5
3
-10
5
7
-5
2
-7
3
-9
-6
-3
-5
14
1
5
-7
2
-6
1
4
1
-7
-20
3
2
-10
5
5
11
10
24
2
-2
2
-8
-7
-14
1
-11
3
-2
-1
5
-5
-17
-6
-13
-3
1
-5
-16
-15
3
-9
-8
-6
1
5
19
7
-6
3
16
3
-4
4
4
20
-4
1
-15
-3
-3
-4
-5
-20
-7
-7
10
-7
-5
3
-21
-23
11
7
9
9
3
-7
13
21
12
-5
-16
-8
5
1
13
21
0
-1
8
6
-7
1
5
12
-18
-7
1
-3
3
2
4
-9
-9
-2
1
-4
-2
6
-17
8
29
8
4
5
4
-1
-8
-19
10
-3
-6
-2
4
6
3
8
1
2
3
-1
1
-1
13
4
-13
-2
-7
0
-11
-4
-9
-32
-26
-7
-18
-10
-2
1
-6
18
16
-2
10
-9
3
13
7
10
6
5
2
15
-3
-14
-5
6
-1
-3
3
-5
-7
-5
-3
5
4
6
9
5
10
-6
3
-39
-20
3
-9
0
-18
-1
-16
24
-17
-13
2
-14
4
-4
26
-56
11
4
5
1
5
3
-22
16
5
-11
-29
0
-3
7
-13
-14
-3
-4
5
-2
-2
-14
-13
-4
-13
-4
-4
-6
-3
18
29
30
14
8
20
-16
3
-6
-54
-3
-8
-17
-8
17
2
-12
47
14
6
17
-10
1
2
8
2
-18
-13
-14
-22
-23
-51
13
-4
3
-12
-2
-9
-9
15
-64
-16
-8
1
9
85
6
-1
24
12
39
-7
-1
12
-2
20
-28
22
-38
-3
-11
0
11
-23
-7
-24
3
-8
9
3
-29
39
36
6
-25
5
-1
-11
50
-28
-22
-33
-3
4
-7
-20
-15
37
4
18
30
27
7
-1
36
11
1
-14
-9
-21
-12
-10
-15
-27
-19
8
8
-10
4
-14
-33
-12
11
5
-38
-6
-1
46
-16
-42
-22
-34
9
6
11
4
-25
51
15
15
30
-3
-8
-17
30
-37
-21
3
-25
3
10
-22
9
-30
34
-25
12
9
-6
-4
-20
47
51
37
-7
-2
-4
-12
55
7
8
-16
-16
-13
-10
25
11
-17
-31
10
14
16
14
-4
-44
-32
-23
-7
-7
21
6
-19
-20
-2
-24
12
-13
-13
-3
-3
40
43
27
22
77
-2
-11
10
2
-27
-5
-18
-45
-6
-23
-36
-44
52
79
2
0
-8
15
68
32
-38
26
-16
-28
0
-9
-47
-9
76
18
8
-6
-22
-10
13
52
-16
-4
10
68
45
17
-5
-4
-14
-39
-15
-55
-10
-19
-15
-36
9
-18
13
16
13
26
58
41
-45
85
21
-37
-13
34
-6
5
61
-45
-14
22
19
-6
34
42
13
-39
7
8
-25
-38
-48
-12
-31
-30
-5
60
4
13
-6
-104
-39
-36
-22
-108
-44
0
29
-31
48
71
7
30
34
22
82
93
53
-14
28
5
-4
-27
-110
77
-65
-37
-30
-30
6
-12
-6
-83
18
-61
-41
76
32
7
-28
-123
-25
50
38
-77
-105
-27
35
31
24
61
-11
74
60
40
104
9
15
17
-22
-10
3
-21
-35
67
26
21
16
-17
20
5
24
20
-14
-88
-12
-9
-13
-25
-65
-108
-40
-14
35
54
-64
7
45
-84
77
63
19
26
47
23
-11
89
-17
-42
-50
51
17
-4
40
-22
-92
56
3
-3
1
3
-60
-74
8
13
-5
-26
-18
12
-20
90
28
13
42
18
-13
-23
2
-12
-54
-53
-23
-72
-46
-4
23
-26
46
-7
23
36
9
3
-21
-45
-41
-6
-55
-74
25
-16
-41
-79
0
-53
25
-57
-50
-32
-4
-27
-26
-1
-23
58
20
32
0
19
-59
-54
29
76
52
1
-26
47
54
19
-16
-2
-19
-3
13
-11
10
14
-33
-18
19
13
3
39
6
-61
37
-2
-21
-17
-84
-107
39
75
-23
-31
-13
-7
29
77
-15
38
36
8
12
5
18
13
-24
2
-10
-33
-52
10
127
-106
-48
10
-13
-18
42
-8
-99
-86
107
40
39
36
4
4
62
86
-62
-95
-21
-30
-13
-10
-86
-78
9
38
22
33
24
3
51
96
-28
-48
-48
-50
-14
-7
8
1
-36
-65
16
-91
-10
-2
-34
-90
37
-21
12
48
30
21
-10
-47
-31
-30
26
-6
-14
-8
-40
-32
-32
-3
-14
-27
-26
0
-14
47
65
48
0
98
82
30
89
-54
9
52
-28
-16
-31
-25
-21
85
-18
23
23
35
12
-9
-62
-73
37
65
23
2
-3
-1
88
116
-23
1
-41
26
-13
-2
-77
-26
-25
-33
24
1
9
14
55
-26
43
48
-31
21
2
-14
-44
63
-20
-51
15
-29
-1
-19
18
-2
-49
4
-28
-43
-53
3
83
-68
2
84
13
8
-6
12
-107
-68
11
-4
-59
26
-8
6
43
59
11
40
16
39
25
2
25
17
-88
-30
-18
-6
-19
-19
-21
-40
107
9
29
0
45
-14
-38
78
-43
-29
3
-33
-22
29
37
-59
-25
-20
19
14
-10
2
-57
-89
24
50
-2
-52
-10
2
43
127
-18
-79
7
57
30
-4
-16
33
-12
-78
-7
-10
6
11
-9
-100
17
-28
29
-26
10
4
28
-40
-37
41
-34
18
-17
-21
-128
1
-7
13
6
-38
-3
11
52
-43
12
73
-21
6
14
-8
50
86
5
-26
12
-17
-37
-39
-40
7
12
-4
5
-24
2
10
53
-128
-20
-61
-27
8
7
22
96
116
-14
3
-1
-47
-3
-26
-111
-3
-13
6
-2
-1
-4
10
-9
-87
4
1
42
-34
-79
-36
36
-1
-5
8
-37
72
82
46
20
60
-1
-34
10
40
30
9
22
-114
-1
5
-25
-5
-30
-14
-18
74
78
4
1
28
17
15
5
84
-15
37
18
-20
-28
-51
-25
-127
-44
19
-11
-12
-58
-17
-84
57
-14
47
-28
42
54
40
-2
-14
40
27
14
-27
-7
5
-3
101
-7
-15
20
-25
-47
-30
66
-49
-5
-53
-19
19
13
0
-89
-58
47
30
-9
28
69
72
65
91
-71
-2
15
-16
-3
-29
-64
-47
15
-37
-49
-58
-52
-4
-13
50
31
63
30
-34
5
-22
13
12
4
-43
-1
-9
-1
-5
37
-36
52
46
-21
-30
20
40
14
46
-64
11
25
75
12
-31
-62
-44
-25
-44
-2
-21
-42
7
19
-94
0
52
7
35
-9
-32
0
76
4
40
-10
18
40
21
3
-82
-22
-28
3
-43
-14
-6
-7
-23
20
48
20
17
32
23
68
92
6
-24
-7
6
10
-24
-6
-40
2
-53
40
75
-10
4
46
-11
22
23
43
-11
7
43
3
119
-8
7
2
-17
-32
1
11
-86
-41
10
-33
45
48
-37
-117
102
37
-48
14
-35
-37
16
50
-3
-31
22
-55
44
17
-23
-28
-77
-68
-23
23
-24
-3
13
20
-79
83
-2
0
48
-18
-7
-61
-24
12
6
-26
-21
25
-5
21
55
-2
52
12
5
-21
15
-2
-25
-2
-50
-17
-52
-17
-3
62
-20
-2
-15
29
61
-16
6
114
48
-43
53
-35
26
33
-2
-128
-76
38
-56
7
-31
-23
-10
23
-48
-11
-5
-6
-7
10
14
23
-50
-2
7
35
-48
-34
-5
65
-32
-14
-34
-49
-59
-85
-35
-111
-86
5
-33
2
44
90
47
63
66
22
29
15
59
8
-16
39
42
-47
-81
-13
-26
-29
-8
-88
-52
14
40
10
-2
-13
-5
11
1
-39
64
-8
-49
-33
-13
-39
-128
41
-51
-13
30
11
11
-47
127
-13
-16
-28
-61
-15
-12
-18
-80
49
56
28
63
23
11
108
60
-15
-22
4
-33
25
6
7
-52
-14
12
12
-47
-13
18
61
56
26
68
-3
-15
1
-23
-78
6
12
1
8
24
-7
4
-79
-30
-2
-53
-8
-32
-29
11
32
8
-17
-57
5
-15
-6
-24
-60
-67
35
35
-6
17
24
20
41
87
-17
-37
8
-33
21
-11
-8
-53
32
3
8
-66
-28
-17
-19
37
-69
54
-26
99
23
3
-57
-128
-19
-75
7
-28
-26
-24
-69
72
62
26
-20
-10
10
8
43
47
-13
-27
-4
-43
-23
16
15
-54
58
34
39
6
15
-10
3
27
5
69
2
-16
-14
10
53
-72
-48
-107
1
-77
-55
-42
49
-62
14
78
-21
105
51
30
-106
127
23
-28
-26
-19
14
-20
-37
70
11
58
37
26
29
33
65
-22
-63
-45
-6
-92
-63
-16
1
-63
-3
28
-49
-5
10
-19
-1
36
54
11
19
62
34
13
7
80
-16
79
26
-31
-7
4
-28
-86
18
-9
-31
-16
5
-6
3
-23
46
8
19
-87
-69
-16
-4
-99
-45
37
3
23
23
2
49
88
34
30
4
29
-27
16
31
14
-41
-19
40
34
32
32
-7
-55
26
19
-3
-30
-22
-20
38
110
8
-45
16
31
26
14
-68
-28
-26
-90
-29
10
30
17
7
-25
-22
26
-22
24
-1
9
19
2
-38
-68
2
33
-21
-34
48
-57
101
70
9
4
-5
42
127
-14
-70
-118
-46
6
40
-15
-112
-19
36
68
-10
1
-7
6
14
81
-31
-69
9
-5
-3
-13
83
-68
-7
4
-18
-87
-21
-16
-86
-93
-24
-41
9
11
2
-3
91
-74
77
53
8
5
-64
-13
-52
81
42
49
-17
110
86
18
6
28
-21
-15
-12
-38
-45
-4
53
-61
22
32
44
-7
-18
0
29
16
-60
3
15
72
57
-7
-45
-16
-5
-34
-11
6
-23
-1
15
33
-28
-17
-22
-11
-8
-29
-7
-30
4
49
11
-59
-13
23
-27
-36
-17
-49
-27
36
5
-7
-6
13
14
53
56
-1
-14
-1
15
21
-43
-4
-30
-68
-1
3
-7
-48
33
-27
-19
-109
-9
-14
45
77
-22
24
-35
-54
1
-2
-76
-22
0
2
26
11
18
9
5
-14
-30
-31
-8
-8
-34
-10
21
-40
19
28
30
-29
-40
-18
-36
34
13
-53
0
56
28
26
74
-23
-7
24
-16
-48
-13
-8
-71
5
48
51
30
40
5
23
64
72
-12
-20
-18
81
43
-9
-43
-41
-22
76
77
-1
8
-3
38
-12
14
-71
-68
-28
-36
-18
67
-19
80
42
31
44
26
8
-50
96
-23
-12
-23
7
24
36
-25
-23
-6
28
33
-65
-7
-10
-3
-75
-16
-82
-31
-67
-34
-10
19
-16
-14
-14
-36
54
-2
-19
18
52
25
53
33
-14
-37
-8
33
-44
-5
-10
7
82
66
11
-79
47
-5
21
23
-52
7
16
-42
-74
-49
-32
-17
-27
-38
-10
15
-117
30
29
2
-6
-34
-45
-64
127
-25
-50
-45
22
-4
3
65
-128
11
37
45
111
-3
-22
-25
109
24
72
23
7
52
4
-21
-17
-6
-17
-37
-23
48
41
58
-102
-33
-63
43
-41
-18
-1
-60
-77
2
-15
0
19
-14
-17
-28
35
-49
-95
-55
4
8
10
18
-49
58
28
52
41
2
-18
-1
104
12
-12
-4
56
2
18
95
-6
-12
-25
-10
-4
-23
9
-49
-108
-15
53
-5
-62
7
-30
-76
-18
-29
-25
14
8
5
4
37
-116
25
11
-50
-26
-14
2
-14
105
-31
6
33
-54
-11
32
59
-58
4
-85
12
-18
14
-6
-39
-24
14
71
-35
73
12
-1
46
127
12
41
27
6
-25
-29
-38
18
-47
-54
-71
-7
20
16
90
-100
-1
0
13
6
-30
-18
-90
56
-10
-40
-40
-35
-21
-12
-3
45
20
50
16
58
-20
-27
34
5
7
-8
7
-7
38
25
-70
-21
6
16
11
-8
-33
1
11
-46
-57
-52
2
69
54
16
-48
-96
38
44
-18
-69
-30
-4
-3
64
16
52
21
37
27
-5
-20
68
-8
0
-14
-26
-16
-6
14
-27
-12
-19
-27
16
18
46
31
-30
-32
-58
-3
-18
17
22
69
-15
38
88
22
-20
-6
-21
-43
77
14
-9
-19
43
33
32
87
76
0
6
40
-40
-78
-31
-27
-47
-23
-5
-11
-6
51
11
-8
-105
-39
-47
-23
25
-39
-34
-19
34
41
45
-1
6
49
6
12
87
20
19
16
-16
-13
-28
16
54
-50
2
-44
-14
-12
-1
-80
-68
-49
-21
-3
-16
-30
17
25
-41
51
79
-18
-34
-25
8
-47
1
26
-82
-15
19
33
-19
-43
104
-35
-92
39
-16
-17
-47
-16
-19
14
65
-14
-22
-22
7
102
2
32
13
34
9
14
38
36
40
-7
11
-8
-7
-11
-3
-34
-120
-41
-25
-24
-97
-13
22
-13
-35
63
22
5
71
17
-2
46
73
-43
6
-2
43
43
7
29
-72
-48
-35
-12
-34
-29
-1
-11
-57
79
40
77
22
12
-13
30
124
-71
-16
-43
-48
-18
2
-31
-85
25
2
-15
-13
-3
-14
-8
84
-18
19
-10
13
-18
29
89
-50
-34
19
-32
-85
-17
-29
-23
33
62
30
40
-27
34
15
41
87
-46
-10
14
38
-1
-14
-22
-71
-20
-34
13
-18
11
10
-4
-60
15
4
8
37
-39
12
-8
-52
19
19
-28
-35
-4
-11
-36
79
-37
-51
-21
36
48
13
12
-84
-33
-6
36
-17
-7
-22
-80
15
70
34
8
-70
-28
24
87
55
-32
-68
-57
119
71
0
-61
-103
-57
4
33
-7
-73
-12
-17
23
29
-1
-32
-14
41
-7
34
106
35
14
-14
12
8
4
-47
-21
-8
-39
61
4
-12
-27
-67
-8
35
9
-33
-21
-5
20
34
-47
-26
20
23
42
15
15
52
-71
-32
-3
13
90
-28
-44
-30
42
8
5
-24
-5
45
65
38
36
5
-27
-13
-39
-70
-47
-31
-26
41
9
29
-34
10
2
-5
76
-34
-34
23
-10
-24
3
6
-79
3
15
-7
127
63
-23
-44
-11
14
-25
8
29
8
11
26
8
-13
-8
-41
-50
-11
4
19
2
22
38
19
45
39
28
51
127
-30
12
-7
-113
-39
-29
4
-103
41
-15
-7
24
4
20
7
19
20
49
30
-29
-21
-4
-41
-69
-31
-120
-39
1
25
4
-30
32
-6
-35
-5
-66
-36
-6
31
-9
-36
-10
21
6
9
13
14
-82
28
24
-9
28
-15
-36
31
88
6
-20
1
8
37
-2
-33
-7
2
17
33
-12
-36
-5
4
0
-24
-52
-11
-37
-52
-13
-1
-37
-46
-40
-27
20
60
15
-67
-113
30
-18
6
61
35
34
26
79
65
29
-20
6
-18
-11
-34
65
-17
99
51
-48
-25
-49
5
-39
11
-16
-41
22
12
42
-40
-71
54
25
10
7
-10
-5
2
5
-58
-3
-4
-30
26
31
37
-55
90
102
28
11
-9
-15
8
127
-42
0
-19
-1
-4
-55
45
-45
-23
-65
-16
32
-5
62
95
-31
-48
-54
56
20
-9
3
-45
50
30
67
-60
53
42
-26
-9
18
-18
1
15
20
-24
8
14
-60
44
57
-19
-40
9
-11
33
-3
-43
-21
45
-27
-7
-14
8
-57
-61
-105
-13
-95
-16
-3
-78
-36
73
24
15
31
7
2
2
90
-37
29
-22
-48
-29
-20
-33
-61
37
24
-7
35
29
12
-4
-27
-38
-42
8
10
-23
11
25
91
87
-6
-52
-8
-1
5
31
89
-33
-31
15
-17
-4
-19
-36
-49
15
48
35
-41
-37
-4
17
-100
-24
-27
-8
20
28
2
3
13
-8
37
-6
18
-14
9
4
-28
-80
-83
18
-30
-11
-25
-47
-90
122
72
-64
72
28
-15
53
98
-10
22
51
10
-1
33
46
-128
-40
-36
-37
-71
-31
14
22
-69
-34
16
1
-7
6
-3
-66
-128
-23
-14
-2
-41
-38
-25
-45
-128
0
-31
-31
-38
-2
-23
8
109
63
-10
22
14
3
8
32
127
17
52
30
73
6
-1
-7
-74
-34
-95
-1
30
-34
4
8
-57
16
14
-12
55
81
19
-96
-8
-26
78
7
-4
-11
-33
-62
-61
28
-11
-35
-14
-16
-1
38
83
-54
-29
47
5
-55
-9
38
-8
12
60
-4
39
72
55
-2
-83
57
-29
47
39
-13
-40
25
105
57
102
-11
17
45
0
-10
-7
-30
-3
-73
-31
4
1
-14
-35
-12
-64
10
-18
-52
-4
58
46
-83
-53
-25
-61
-70
2
-128
-122
90
121
31
97
99
19
91
127
-14
-34
3
10
22
16
27
-5
-48
-99
0
-23
-51
-7
11
-119
2
75
-12
-74
-27
-25
-16
2
-29
-3
11
-10
-34
-2
34
40
-5
37
16
-28
-6
-13
5
-6
54
25
-24
14
11
38
22
-67
-72
-11
21
20
17
-24
-32
30
-13
-21
10
-116
-24
-8
-52
-55
37
112
10
81
94
26
31
71
-54
-112
-10
-27
-73
-21
32
-128
-24
75
19
39
57
30
60
45
38
-23
-47
-89
-12
-22
-32
91
-53
55
-1
-110
-66
-25
-50
-46
-11
-45
16
16
30
2
14
94
60
41
-12
113
42
28
19
-50
-40
-66
-36
-4
6
8
46
36
-6
7
47
2
-21
3
-35
-86
7
46
-71
1
15
-29
-30
65
-2
-29
8
-4
-10
6
43
-24
-25
-72
-8
-31
-25
24
96
-21
21
20
27
27
-39
-72
-93
-96
-18
62
-37
43
36
10
20
109
15
26
10
28
26
22
25
-110
-45
-10
10
16
-16
5
9
-128
31
4
-13
-51
-2
23
10
-64
25
40
85
-37
-39
-30
-29
-73
32
-62
-40
34
35
9
21
98
-30
1
27
18
13
-16
-128
-62
39
26
-13
58
39
29
0
108
10
17
-12
-40
-48
10
5
-34
-50
-14
6
-38
-7
-17
-20
-74
21
-18
-3
70
-3
2
1
-128
-53
-65
-23
14
-32
-22
-91
127
93
69
-2
-46
19
7
42
30
-56
-25
-15
37
26
2
7
-128
0
16
8
46
-12
-15
-13
54
-35
-25
32
44
-2
19
122
-79
-105
-50
-85
15
-2
-38
-105
-100
115
52
43
-28
-6
51
115
126
-95
18
-2
-27
-8
-37
19
-123
68
-48
-17
-19
-18
-14
62
127
27
10
93
59
49
27
94
-71
-66
-69
-67
-108
-80
-70
-90
-116
-4
43
-6
99
61
41
-10
-56
35
40
-9
44
44
38
89
28
-18
-8
-35
-66
-52
-40
-23
-61
-15
-22
34
70
58
37
-3
-26
-18
4
21
-44
-93
-31
-61
-57
-6
7
-32
40
90
-9
-31
9
23
42
30
-11
-26
40
46
51
48
102
-14
-3
-27
-12
-21
21
-1
-51
0
4
2
-1
20
95
26
78
26
-2
30
19
-3
-79
-61
-66
-44
-27
-15
-25
18
-109
60
-17
73
-22
-20
-16
-10
58
63
43
-60
-20
-4
-8
71
-72
1
50
9
-35
-27
23
-27
-104
-8
-20
16
-7
8
26
60
-75
-80
-27
4
-63
-48
-45
-108
-126
57
-42
-37
28
19
0
55
127
2
-11
-2
-51
32
9
30
-22
-80
-38
-14
-20
-15
-11
-59
-42
-29
-61
14
-1
12
-15
-36
-64
6
35
27
-80
-54
-24
-7
94
-26
-60
-69
48
34
21
-11
-86
-13
47
27
23
6
-6
1
55
47
-17
-12
43
-32
-8
57
79
-23
57
17
-41
40
11
-38
-48
-35
-71
36
-20
-52
-31
-7
25
27
13
12
8
22
3
-55
-38
-8
18
-26
-4
-2
12
31
-6
-24
-19
-5
24
2
10
-53
-34
36
47
11
-11
-8
31
29
87
12
-18
23
29
21
7
33
20
-1
20
-29
-33
6
2
0
-5
-3
-22
0
-1
3
-30
-31
1
-3
-11
4
-28
-4
-3
7
-13
11
2
-3
-26
-39
-10
-24
-2
-13
2
12
-67
-18
11
48
1
-6
-2
-36
65
71
33
-68
33
-17
-11
6
9
-17
-22
-10
-44
4
6
19
15
-6
-5
10
32
11
0
6
-29
-3
-17
8
28
-4
-32
-13
-2
-5
-4
17
-47
-13
-26
-3
-19
-22
-10
-24
-32
13
17
33
18
25
5
-4
12
-18
-6
-41
26
15
-6
-75
12
-1
6
-4
-15
-19
10
55
3
2
0
-25
-3
-3
9
-9
2
4
-24
-22
-32
-3
3
-10
-17
-7
3
-24
-1
-2
9
57
13
10
19
10
-7
-8
-5
30
1
18
2
11
-1
1
5
6
38
-11
-26
5
8
8
-30
-29
2
-9
7
17
-25
-27
19
15
-9
2
-17
-42
26
16
14
13
-49
-10
0
7
0
22
9
-11
-20
11
-4
-9
13
-1
-7
1
103
0
-8
-11
-10
14
-6
-16
-19
-4
-13
-15
-40
-50
-21
-24
-29
4
-13
28
13
-7
-3
18
-3
7
16
-9
6
16
1
-20
-15
-6
-3
11
2
-8
-8
7
-9
-1
-2
21
-5
2
-4
-10
-10
-2
0
-48
-7
-8
-6
-39
4
8
-8
-7
-5
-1
25
9
12
4
1
-3
11
12
7
13
0
-2
-3
27
-3
-3
-19
-35
-8
-5
7
15
4
5
11
21
14
3
4
-18
-12
-7
6
36
-5
0
4
26
17
6
3
-16
-10
-6
-1
20
-2
2
5
1
2
4
3
-35
-4
-15
-18
-8
2
2
2
3
-23
-5
-6
-21
-14
-1
-7
36
13
16
8
12
4
-4
-6
-20
-10
-2
3
21
12
1
-2
7
5
-10
-6
-5
1
-4
-11
-17
-10
-18
-16
-20
-13
-8
1
15
29
22
-4
-17
-5
-1
0
11
-7
-9
5
4
2
-4
-6
24
-10
-4
-5
-11
-3
6
15
-28
-5
-1
-4
-22
-2
0
-6
-6
-4
-13
0
8
-2
0
-1
-8
8
6
4
13
1
-1
-11
19
-11
-10
-10
-15
-1
-2
8
-8
7
4
-4
-34
3
-1
5
-6
-6
5
9
-2
-6
7
8
-2
-3
3
19
17
12
0
-2
11
-11
-5
-14
1
-2
4
-4
-11
7
-2
-11
-20
0
-2
-5
4
6
9
9
24
-9
-3
-1
12
1
-5
-7
-1
-1
1
1
0
6
3
1
14
4
-1
1
20
3
5
11
6
-8
1
1
-47
-6
-8
-4
0
20
0
-4
9
-15
-3
1
6
13
-1
6
25
-8
-1
-1
2
-10
-2
0
-5
18
3
-2
-1
-13
-1
-14
2
-1
0
0
-10
-5
-4
8
-22
-14
-1
9
5
-1
-5
-4
-14
18
1
-5
-7
4
-1
-5
13
-21
-4
-11
-2
-3
-1
-23
-50
-13
-9
-15
7
-4
-6
6
31
33
5
11
10
-2
-7
-11
-34
-2
-7
4
10
-2
4
10
33
-17
4
9
11
8
-10
2
32
7
3
3
-1
-5
1
-7
-31
-2
-9
-13
-19
-11
6
2
-4
-25
6
11
21
4
9
-3
18
9
-2
-8
8
4
-3
8
17
30
2
3
4
-1
1
-4
36
-11
1
-8
-7
-9
-6
-2
-33
23
3
2
-19
0
8
0
2
-10
-1
-1
8
7
-9
-9
-1
-35
-11
-11
-12
-15
4
6
1
10
3
5
-12
6
-4
-5
-59
-44
-7
-8
15
0
-2
9
23
61
13
7
0
6
-2
-2
-16
-21
-6
-13
-14
-10
-3
-5
-15
-6
7
29
12
8
1
9
32
9
2
0
19
2
-3
-3
-21
-65
-7
-4
-5
0
5
5
38
34
0
3
5
-2
-2
-3
-25
-23
-4
-9
-26
-13
7
3
-9
13
6
11
5
14
2
-1
-5
-7
0
-3
5
-10
-6
1
-4
-14
-8
-11
-10
-1
-1
-1
-20
-4
-7
-13
14
-3
8
-1
13
36
8
11
6
0
-9
-4
-8
-3
2
-3
4
0
14
5
20
7
0
-1
-22
3
-29
12
16
10
-3
-5
22
-5
-3
-2
18
-20
-4
-5
2
-6
-3
-7
-39
-4
0
3
-25
2
-8
-3
-20
12
2
7
6
-3
14
7
19
-9
-2
-9
-26
2
-6
-5
-3
8
-6
-14
-3
-7
-3
-5
13
-6
-4
1
25
-1
0
14
24
60
10
2
-12
5
6
-4
-3
4
-3
-2
-9
-2
-11
-4
-26
-26
-3
-3
-11
-2
0
-5
-12
-24
-8
-5
-15
-1
-2
-5
-18
-38
-4
2
13
-3
4
0
20
30
4
-1
6
0
3
5
18
-7
2
6
10
-2
-2
-4
-2
7
-5
6
22
2
6
13
-9
6
9
8
16
6
-4
-16
-15
-14
-7
-6
1
-2
-2
-9
-6
5
-5
-14
-13
-6
-3
2
-18
6
2
4
-29
-2
4
4
3
3
1
3
3
-5
-3
-7
16
-11
-1
1
-3
-1
3
4
8
16
-1
-6
-6
-2
-3
-2
-13
-4
-1
-4
15
0
0
3
-1
-8
-1
0
-4
-1
5
-1
-10
7
3
7
-6
0
0
-2
8
7
0
-2
-11
-1
1
0
16
10
-2
-2
5
-4
-3
-5
-20
-14
-7
-3
7
-3
2
5
-13
6
3
0
-3
1
-3
-3
0
-26
-2
-3
-6
-1
5
4
29
15
3
-1
15
7
-9
-5
18
19
0
-1
2
-8
-3
0
-2
0
-1
-3
-39
-6
3
1
-17
1
1
11
3
8
-2
-1
-12
-5
-2
-9
-17
-7
-1
-2
1
-1
1
2
22
3
2
-2
-12
-28
-5
-6
-16
1
3
5
26
32
1
7
12
0
-4
-4
-28
0
-3
-1
-8
-5
-1
-2
0
-9
-4
-1
-4
-1
-2
0
6
-11
-3
-8
-12
-3
-1
0
1
-9
0
-7
-9
0
-3
-6
-11
10
-4
-3
-6
0
1
4
-24
6
1
-2
-3
-1
1
-1
48
12
2
5
29
1
-5
-3
-31
-20
-8
-7
-12
-1
-1
0
-6
0
3
1
5
-1
0
0
-5
-11
-1
0
-11
-2
-1
-5
13
9
1
0
22
0
-3
-1
0
2
-2
-3
-46
-6
-6
-11
-2
-5
-4
0
-10
0
1
3
-11
-8
1
1
-3
5
-1
3
4
3
-2
-5
5
-4
-2
-2
-6
-22
1
-1
31
-1
0
0
24
18
3
2
4
-1
0
0
2
-17
-5
5
-5
4
2
-5
-16
-11
-1
-3
-2
1
0
-1
5
0
-2
-8
-1
-2
-2
-2
5
-3
1
5
17
-7
-3
-3
21
2
-1
-1
8
0
-5
0
-12
-8
-3
0
-6
-2
1
-1
8
9
0
-4
-3
0
-2
2
8
-13
-3
-5
-7
0
3
-2
-8
15
5
6
0
0
-1
-3
-8
16
0
1
2
0
-5
-3
-10
-10
-7
-5
-13
-3
3
5
31
8
6
2
4
3
-2
-2
-37
-11
-4
-3
-3
-5
-2
-6
15
13
0
-3
23
-5
0
-3
-2
2
0
5
-1
6
-2
4
-4
-18
-1
-4
-18
0
0
-4
-10
-12
-2
2
5
1
0
0
-19
3
3
3
5
-3
-2
-1
15
-6
-3
-11
-23
-5
2
6
16
10
1
9
8
2
-4
-5
3
-2
-2
-5
-11
-3
0
2
17
0
0
2
17
4
-1
-4
-30
4
4
7
24
-2
-1
-5
-20
-4
-5
-6
-12
0
-2
-2
10
1
-1
-2
-5
-2
1
-2
-11
0
-2
0
2
2
0
3
9
-6
-1
-4
15
-1
-1
-3
-27
1
-2
-2
-14
-3
-5
-6
14
10
-1
-1
5
-2
0
1
4
-4
-1
-4
-15
1
-6
0
-8
1
2
-2
-8
-3
1
-2
-10
-5
-3
-3
7
-2
0
-1
19
-19
1
-2
2
-2
-1
3
16
22
-1
2
-2
-8
0
-2
-11
2
0
2
-2
10
-2
-5
-15
-4
-3
-5
3
-2
-1
0
-6
0
0
-2
-11
0
0
-2
-16
-8
1
-5
3
-3
0
0
10
5
-3
-6
-7
-8
1
-1
11
1
0
7
3
4
1
4
-9
-3
-2
0
-13
0
-3
-3
-9
-5
-4
1
-4
-1
-3
-2
6
10
-1
-9
4
-6
1
2
-4
-12
2
7
17
2
-2
-3
37
17
0
-2
-1
-1
-2
0
-26
-14
-2
0
-4
3
2
3
-6
-5
0
-1
-3
-3
-3
-2
23
5
0
-6
-4
-5
3
-4
-19
-21
-2
0
1
3
-1
0
22
26
4
2
-5
0
0
-4
24
-9
-3
1
-1
1
-3
-2
-12
7
-1
-2
-12
-3
0
0
-12
-3
-2
-3
-1
1
3
1
-21
-10
0
-2
-6
4
0
0
18
1
0
2
-1
-2
-3
-4
-1
0
-2
-1
-3
-1
-4
-5
-7
-5
-4
-11
-21
-5
9
4
-2
-8
2
8
28
1
0
-2
-1
0
-2
5
-21
3
2
4
-3
0
1
8
12
3
-2
-1
-3
-3
-6
-6
8
-4
3
-1
-8
-1
5
2
-28
0
-4
-1
1
3
-3
-4
5
-2
2
3
0
6
3
1
13
1
-1
-2
-2
-2
1
7
6
0
-5
-2
5
-6
-1
-4
3
-2
3
7
-4
-1
-2
-1
3
2
-6
-3
9
3
-1
-7
-11
-3
4
0
-11
8
3
2
5
1
-1
3
-10
3
-2
-1
-1
0
-3
-5
-19
-9
-1
1
-3
-5
-2
-4
-6
-6
-3
-5
-2
-6
-2
1
-5
-3
-1
-1
0
1
-4
-2
-3
-2
-4
-6
-1
0
5
2
-3
4
1
-5
1
2
-5
0
17
1
1
3
-7
-2
-3
0
-26
-5
-2
1
4
0
-3
-1
4
-3
-2
-4
-7
-3
-7
-6
-25
2
-2
-13
-22
-8
4
1
11
-4
0
8
15
6
3
2
19
11
0
-1
-3
-2
-4
-6
11
0
-2
3
-8
-2
0
0
3
-3
-3
-4
13
-2
-4
-5
-25
3
-1
-9
-12
-3
-1
0
7
-13
3
2
-2
-1
2
-2
-5
-6
-4
1
12
3
1
1
11
-4
0
3
-6
0
1
-2
-6
1
-4
-5
0
0
-1
3
-3
3
-3
1
8
0
-4
-7
-14
-9
-1
-4
-5
-10
-3
-1
6
2
2
3
7
7
0
-2
-1
0
-4
-5
-5
-1
3
-1
17
-1
0
1
7
9
-3
-2
-37
-11
0
0
-20
-5
-2
0
-10
10
1
6
3
-2
-2
-4
-11
6
-2
-3
3
-2
-2
-1
30
-8
-5
-6
-1
0
3
3
9
8
1
-6
-8
-1
-5
-5
-4
-6
2
14
18
5
1
6
1
-1
2
1
-6
1
0
0
-1
-3
-1
-2
-2
-5
-1
-7
29
5
-3
3
18
5
1
-2
-33
-17
-5
-7
-3
-2
1
6
8
-4
-2
0
-4
-1
-2
-5
-17
-1
2
4
12
0
0
5
4
-8
-1
-3
4
2
1
-3
-3
8
1
-4
-3
0
-2
3
25
8
-6
-2
-6
-2
0
-2
-12
4
1
-3
-6
-12
-3
0
-12
-7
-1
0
-6
8
-3
2
31
-3
-1
5
13
0
5
2
-12
-2
1
-2
1
1
0
-2
3
3
-4
-6
-14
-5
1
-1
-1
0
-2
2
1
-2
1
-1
-27
-4
-3
-2
-10
-4
-6
1
35
2
-1
-5
3
-2
-6
-4
-29
-13
-2
-3
-13
-2
6
3
18
8
3
3
21
9
-4
0
6
5
0
0
-14
-11
-2
0
1
6
0
-3
-2
-4
-4
-2
-6
-3
1
0
-5
0
-1
-1
-13
-11
-5
0
5
0
3
1
15
-2
1
-3
-2
0
-1
-4
-18
0
1
-3
-3
-2
1
1
22
11
2
5
8
1
-2
1
-9
-1
-1
-3
-10
-3
1
-2
5
6
-2
-1
4
2
0
0
-20
-13
-1
1
5
-1
-4
-2
8
9
2
1
0
3
1
2
-17
-9
-2
0
-7
-3
2
1
26
15
2
0
2
-1
-5
-6
-17
-15
1
-1
-3
0
0
-1
-14
-1
-4
0
2
-8
-3
-5
-4
-9
-2
-1
-2
8
-3
-1
-4
5
1
-1
-4
-1
-3
-7
-7
-5
-5
-2
5
-3
3
-2
-3
4
3
2
-3
5
-3
-2
2
-5
-1
-4
-7
-7
4
2
4
0
-2
-2
5
3
-1
3
10
0
4
9
7
1
-1
-5
-1
1
-3
-5
-3
-2
1
2
-13
6
-1
-2
-2
-1
4
-3
-17
-14
0
0
-2
3
1
-2
17
9
2
-2
-3
-2
-1
4
6
-8
-1
-1
-1
-2
-4
-4
8
10
4
-2
-2
-5
-5
-4
-4
-2
-3
0
-1
0
3
-3
-20
-41
-4
0
-3
2
0
3
21
44
1
1
-1
-1
1
2
6
13
0
-1
1
-3
-8
1
3
-6
-3
-1
6
-6
-3
2
-7
-1
-8
-3
-4
4
3
8
2
-18
10
2
1
3
-3
-15
-2
-2
7
4
5
2
6
2
-18
-4
-1
-3
-7
0
3
1
10
5
-1
0
4
0
-1
-1
-11
3
-3
-2
-5
-3
-13
-1
7
-1
-6
-1
-8
-6
-3
-6
1
-9
-5
-4
0
-3
1
3
-5
21
8
-5
-10
-3
-3
-11
-5
3
-1
5
12
2
2
7
0
-15
-1
-1
-2
1
-5
-11
2
0
-5
2
2
3
-2
-1
0
8
-10
-6
5
-15
-1
-2
13
-16
-11
-7
-18
-3
4
13
-11
-7
16
8
20
6
0
-6
-17
0
12
-2
-25
6
-12
-10
37
23
3
-1
1
0
11
-7
6
4
-6
-1
6
-8
-3
-5
-23
-10
-18
-3
14
-6
7
9
19
-1
-2
3
0
-8
8
10
-21
-14
4
-5
-5
19
4
-1
13
1
-3
-11
-10
12
7
5
27
11
3
21
25
0
-14
-22
-30
0
-3
3
18
-1
-3
7
14
3
-2
5
-7
-3
-21
-10
-22
-16
-7
-10
-45
-17
1
-6
-25
3
5
-7
-29
2
15
12
28
-13
-1
0
2
1
-2
-2
33
14
-5
-1
4
-2
-6
5
-11
1
10
6
29
1
-9
-3
-17
0
0
-5
-10
-21
-29
-10
-14
-7
-9
-3
-6
-3
26
10
-1
-5
1
-4
2
25
1
-14
15
-8
-2
2
13
1
28
19
3
-12
-19
-7
-23
-7
15
6
14
29
3
2
20
-5
-71
-41
-23
-5
13
-1
7
-25
24
14
-9
0
-8
5
-22
0
36
-15
24
-3
5
-16
-22
34
16
10
2
5
-4
-5
-26
0
26
-6
1
5
-12
12
33
9
-50
-11
-14
-6
8
4
-5
-53
-26
-15
13
11
-5
1
-5
-22
-32
13
8
9
3
-11
-34
36
56
25
-17
-2
-1
0
13
8
55
54
-27
-24
-5
9
28
50
-45
-30
21
19
-21
-15
-11
-38
-23
1
11
35
51
8
23
-24
-61
-18
-19
-20
-7
-5
-30
-18
8
2
-43
-18
-18
-9
-6
10
-5
7
-22
14
4
4
2
-8
48
53
-2
-24
-9
1
7
21
-26
-1
17
-5
1
-8
-1
-18
3
-13
34
17
14
-11
-8
-26
-13
22
-8
-12
-26
25
19
-39
82
-6
-13
20
8
3
-11
90
-1
-47
1
6
42
24
61
-7
19
0
5
11
-13
-13
-58
-36
-19
7
6
-27
-1
-67
-21
-32
-20
-13
-4
-1
-8
53
0
-19
82
56
0
5
-31
-14
-22
57
36
6
22
46
34
18
32
0
-83
-43
-38
-22
33
21
20
22
-54
-1
-3
-39
-43
-36
-12
-109
84
44
17
18
-4
-8
26
115
-49
-52
19
58
35
11
-38
21
-22
35
33
3
6
12
51
13
22
-85
-28
14
11
-1
25
-24
-13
-28
-6
-36
-7
7
-14
-95
-5
47
-21
-16
-19
-58
-85
-9
33
-23
6
2
7
13
-45
61
-50
-61
39
11
-4
37
64
-89
9
-13
-41
-5
-1
-2
-32
51
-17
-8
15
-36
-19
19
8
-86
62
-23
1
-19
-49
-56
-6
115
-1
-12
-28
4
9
19
101
-61
-83
27
5
-25
-23
-24
-120
-50
-11
11
-1
0
46
44
127
116
10
1
-1
37
27
16
-47
-84
-42
26
-25
26
10
-21
42
-59
48
7
3
-58
-34
5
98
-75
11
-14
-11
44
24
-12
-25
90
-21
43
1
-31
-22
-4
-10
-39
20
-33
-26
-16
-28
-14
-20
-27
-128
-58
-49
-67
-32
16
0
-128
21
-15
52
20
-24
-24
70
32
97
36
8
22
18
-41
-62
39
-105
-77
-25
14
20
24
29
-40
81
127
23
27
-4
8
28
-21
-68
16
-23
-25
-44
-14
-26
-24
40
23
2
-14
-36
1
69
56
-87
-32
20
-105
-7
2
-57
-24
30
41
-2
94
90
-11
-48
105
-30
-12
-10
-11
15
34
58
-128
-60
-45
-29
4
5
3
-70
-74
91
112
38
-8
-42
-39
40
127
-8
-2
43
-39
-22
-18
-45
-87
29
8
-47
-10
-7
9
3
-52
-74
-70
2
-7
-47
53
29
-128
62
58
10
47
60
-33
-36
92
1
1
-2
24
-9
0
85
49
42
-6
-17
-11
-15
-23
39
31
-22
-14
-4
-53
-11
4
37
-104
-53
10
-6
16
-6
35
50
-125
41
-11
-27
31
13
1
-92
114
-63
-27
37
0
24
46
-44
-87
58
31
7
-4
9
-49
-45
63
58
39
16
0
8
1
-17
112
-64
-75
9
-9
-3
3
28
-128
26
63
-14
-17
-27
12
75
-91
-7
-29
-28
14
-12
-54
-68
43
-2
-30
35
-25
-30
-11
-60
17
24
14
-54
-27
-2
7
0
8
-18
-1
23
30
41
10
-18
20
-3
10
-13
19
57
32
57
-56
-11
1
6
-22
-26
-14
-38
1
0
-50
-21
-55
-53
-22
6
-2
-4
47
-6
40
38
7
-5
60
-9
-24
-2
-8
3
17
29
29
-5
1
-5
26
0
8
18
-36
-31
-11
11
-13
-11
-6
-95
-79
64
37
9
-22
-29
-46
-39
80
-12
3
24
17
8
17
56
-21
20
48
-15
-11
-9
-13
11
32
-45
-43
5
28
21
28
42
-94
-28
-24
-12
-15
1
-2
15
-40
72
-6
18
13
2
18
18
118
-3
19
-4
-6
-2
-15
-43
-80
8
-49
-5
20
20
16
122
14
-4
12
6
-12
-25
-46
-82
-13
-1
35
18
-4
-9
9
73
-9
-67
-30
-41
-8
2
20
73
-77
-23
-5
37
67
15
-12
-36
-25
69
36
-11
-70
-43
-12
88
46
-55
-13
7
79
70
16
-117
-73
53
27
-6
-35
-12
-45
-21
64
35
42
22
28
12
3
-13
45
-48
-86
-34
-6
-31
11
-2
6
-18
62
9
-40
-19
-16
38
-35
8
-20
-37
1
-1
28
-11
-32
-21
28
30
-4
9
13
-2
-39
-29
-41
-3
-23
10
-21
-56
-57
61
92
-29
-52
-32
6
127
76
8
-8
43
51
-4
-69
-113
49
-12
-43
-17
-29
13
22
89
23
-40
46
-15
-21
-13
1
-49
-47
-56
-75
-20
-6
-20
-12
-92
-80
127
52
49
34
50
77
102
87
-15
56
-21
-2
20
-21
-54
-56
-19
-30
14
3
-1
6
40
-73
-73
-25
-7
-20
-31
13
64
-128
24
11
-2
-3
-12
-1
-128
68
50
-8
20
15
-11
-28
33
69
-27
-68
-16
18
15
8
30
-95
44
75
27
4
-1
-15
11
-12
-44
-4
-28
-6
-21
-8
15
-106
-82
-72
3
-79
-3
9
-31
-82
93
45
-53
3
-9
-14
7
127
6
-45
30
-7
10
8
-3
54
-23
22
-2
19
22
7
9
-13
0
4
-19
-7
-32
-8
-42
0
-59
-36
3
-32
-18
15
52
-73
38
30
-12
8
6
-14
-62
24
-3
-64
-5
-14
-17
-25
-84
-10
74
67
36
22
1
-21
-15
103
-3
-3
31
24
27
44
-7
-12
-38
-9
-34
12
5
33
27
-62
29
13
0
-19
-16
-10
75
5
5
-6
-32
19
15
-7
22
57
2
-1
26
14
7
-6
-38
34
-17
-17
-6
-3
0
16
-19
-47
-44
-27
-18
-23
-16
-16
-32
-104
23
8
16
1
7
-3
31
100
24
41
51
16
-21
-25
6
-8
-1
-18
-21
36
46
16
-1
18
-24
-22
-3
27
-6
48
31
-119
36
37
-28
-6
43
24
88
61
-98
-41
16
-20
-46
-59
-47
-108
109
58
52
53
58
10
-73
127
1
78
25
22
7
3
-2
20
-55
-68
-22
-16
-29
24
17
-128
-3
26
-3
-7
-7
-30
74
-74
43
-106
8
35
27
-24
-10
57
2
-23
5
-43
-6
7
-17
36
-29
16
3
31
-56
-6
-18
-79
57
35
-30
27
75
29
30
104
-75
-40
13
-22
-23
10
30
-65
54
-26
3
25
39
14
20
30
-59
-22
-30
-22
-39
-33
12
-121
23
-21
12
2
6
11
-85
84
2
76
-28
-63
-28
10
52
42
-57
-73
39
11
-2
2
-11
-18
-60
41
9
-87
-31
4
50
-128
35
3
-35
67
-48
-61
40
-94
101
-75
-38
86
102
69
42
101
-35
-4
-3
-13
-34
-29
57
-127
2
2
2
9
-22
-12
-15
-65
-17
23
18
-38
-30
31
29
-93
-48
29
37
-17
-62
-21
73
-95
49
50
-22
46
71
3
-5
94
19
-32
14
35
32
18
12
37
7
-28
-23
-30
2
-6
34
39
-84
20
-13
-33
-53
-14
-42
-51
-33
-21
-8
-21
-31
-8
5
-39
47
46
21
59
35
12
-16
53
27
6
-34
46
72
28
30
118
76
-40
10
-6
21
-7
-100
-20
-2
16
19
-3
-23
2
16
-42
-43
-37
9
-44
-36
-24
-62
42
-40
-4
-21
13
20
5
-20
-111
-72
7
14
30
-36
-22
-49
-40
65
52
-17
-15
45
-15
24
96
44
15
8
7
6
14
-25
-16
-75
-72
25
-53
-41
-32
-12
-10
10
33
-45
-54
-8
15
13
-67
-96
-102
-43
-50
-26
20
67
-128
22
48
-18
-22
-6
-37
-66
87
53
35
26
27
8
19
-73
101
-30
16
37
-1
-3
-24
52
-33
-2
6
-14
-12
0
15
6
-87
-27
-57
-8
1
20
5
-26
65
25
1
14
-17
-4
-12
6
-6
-8
13
-29
-6
-28
-28
-37
-57
27
61
20
-9
-2
4
22
95
-29
0
-11
10
8
-7
25
-75
-47
-42
-7
-26
-29
51
85
-51
26
-4
25
68
29
-10
11
-69
12
42
-16
-29
-21
-60
-2
73
16
7
15
-35
-27
38
19
-29
-11
19
-41
67
60
20
24
-26
24
-23
18
-9
-9
-15
-36
-32
-69
24
-4
34
34
11
-96
-112
72
81
15
35
8
-19
-20
84
-37
17
-23
-47
-30
-12
-30
-1
-48
11
-38
-11
-23
-17
45
-2
12
-13
23
-10
-16
-10
-62
-13
12
38
25
7
7
-26
8
38
-1
22
34
5
10
67
-41
-42
52
18
24
-4
12
-16
7
102
-12
-76
2
1
1
8
12
14
-52
-44
-36
3
-35
-18
19
-128
38
-16
4
10
35
16
-2
96
48
42
17
-3
22
3
37
116
-16
-11
9
25
0
-24
-59
-72
-5
20
0
1
11
22
-8
-61
70
34
-37
-47
-51
-57
-22
57
1
2
15
-9
-6
17
-18
4
28
25
-16
3
-1
21
43
14
-17
-9
-6
-4
4
-4
5
-19
-36
-21
43
-12
-20
-4
-19
-62
-26
-12
-16
-18
-33
-4
-6
-40
2
3
-34
39
46
-11
-12
67
27
-13
21
9
8
4
5
24
16
5
-28
-5
13
22
0
6
-33
-34
1
-1
-23
-11
38
-33
-39
-13
13
39
-9
-9
-34
-88
32
4
1
-13
37
30
-4
120
-3
10
20
24
19
-4
-2
0
-13
-6
-3
-22
-14
-7
-4
-19
-11
-12
-8
-23
-20
15
45
7
-21
-32
7
5
13
-44
80
-110
20
39
-15
13
-10
29
-62
46
-9
-40
-2
-27
-7
-10
-31
0
14
0
-15
-8
5
9
-37
-22
-22
-31
-13
23
3
1
82
-1
-57
-14
-4
-65
-33
-20
-20
-128
18
17
-10
30
39
21
26
100
13
-2
4
-8
-9
6
20
54
-22
-10
7
5
-10
2
-43
-27
15
-24
-32
-29
-17
-17
24
-36
-19
30
-20
27
18
-9
4
51
16
-16
-43
14
-26
21
52
-30
-32
14
-49
-86
-11
12
-56
-48
84
9
7
94
94
34
81
108
-25
-23
-19
-14
-24
-20
-3
-118
-16
-42
10
-11
-5
-9
-9
-7
-12
0
-24
6
-36
-2
-20
-40
6
-5
13
-5
-14
-3
-4
-30
13
16
7
-27
17
2
-48
12
9
-3
27
12
1
-9
56
58
6
1
-30
1
-16
7
-25
18
-39
-7
25
-21
-28
-65
-47
-29
-14
-20
25
18
38
63
87
-51
24
31
-5
-20
7
31
-68
76
51
20
41
15
-5
-20
-21
46
-51
-12
-19
-46
-29
1
29
-13
12
33
21
2
-15
-28
2
57
-32
-25
28
2
9
-23
-26
-77
2
-11
-36
5
12
5
-11
20
-21
-16
31
-4
-59
-34
-25
-100
20
19
-15
29
42
5
28
48
-10
1
8
-30
14
37
14
-11
-3
10
53
17
12
13
-21
45
-10
-15
38
-6
-31
-28
-3
-35
-26
-38
25
-17
-37
1
-13
-62
16
70
-21
20
9
-23
6
-21
28
7
12
14
8
-25
-47
75
20
3
55
14
41
45
-16
60
-36
9
-12
-2
-18
-7
27
0
36
69
18
-20
-21
-12
5
-43
-50
-53
-37
-15
-3
18
22
-128
-35
-26
-18
7
9
24
31
40
89
30
-13
5
1
-17
8
75
-29
6
22
-23
-24
-18
24
-51
-10
0
-14
-19
10
8
14
-43
20
12
45
39
40
11
12
24
-35
-8
-66
-46
-26
-1
-23
-80
1
-29
5
34
-14
-10
2
43
-12
-22
-34
-14
0
-3
25
4
10
6
-9
-11
1
-9
-38
-4
-11
-7
6
-3
-21
-19
-16
-12
-4
13
5
-16
-9
8
-15
-28
4
-17
-6
19
12
15
19
83
18
35
-31
-4
0
-24
20
-18
4
-10
10
6
8
23
-17
1
-21
-27
-25
-17
1
15
-5
-2
-11
13
34
32
8
20
66
-90
-19
7
-32
-26
-7
-13
-56
61
63
3
2
20
16
-10
-15
73
4
-24
4
16
23
2
-7
21
-9
17
33
-1
-11
-5
24
-23
4
-22
-31
13
-16
-11
9
-24
-61
-28
16
-48
-22
29
4
-103
1
-12
-34
-21
-17
-49
-24
49
45
21
26
42
39
26
-4
90
-15
-29
11
-8
-11
7
17
-48
3
19
-4
11
4
-4
-18
0
4
-28
-3
-21
-9
2
48
-43
-30
14
9
-36
-38
-30
-70
-21
31
24
-21
-9
13
3
-12
24
11
13
8
10
8
8
16
37
-19
-26
-4
14
-13
-17
-36
7
-7
-28
3
0
-11
-13
22
-13
4
3
24
16
0
-2
38
-13
-20
-12
-15
-36
3
22
-27
-39
0
3
-27
15
4
-5
-3
-12
1
-17
-19
9
-8
-5
-33
36
4
6
-22
-3
-6
-3
10
-4
-2
-3
-12
7
5
-26
-24
-31
-13
9
-31
-18
-9
21
22
-58
-15
-19
-12
24
11
-1
-90
5
50
48
-14
-22
3
14
25
76
-15
-14
-16
22
-6
-19
24
-54
13
-4
8
-6
2
-7
-41
-22
-10
2
0
-33
-16
-26
16
-61
-31
-10
9
8
17
21
-13
-18
-3
-9
15
14
-7
-20
-27
21
-9
-5
-14
-22
-11
17
26
1
6
-3
-31
4
19
18
1
27
-3
2
1
-13
-14
-22
-46
-13
-26
17
26
3
-10
5
73
-112
-3
-17
-4
-17
-3
-17
-42
76
57
6
-5
14
-9
-18
43
93
-9
24
16
3
13
40
53
-13
-19
-21
-37
4
2
-6
-67
-27
0
10
38
-12
-5
-2
42
-25
4
5
20
54
26
17
20
-31
-25
-30
-13
-33
4
-6
1
-8
2
11
25
0
-2
-15
-12
28
29
8
6
5
6
7
30
-6
-7
13
-6
-5
-13
-17
-17
20
11
-19
32
-19
-19
11
-1
-18
-22
7
-13
-52
-3
17
22
7
20
19
39
48
35
-3
-53
2
-12
-11
-24
-26
-12
-9
42
-41
-18
-13
-40
13
-14
-18
-13
-13
19
-20
12
-11
5
12
0
61
-1
1
0
7
6
2
11
29
-16
22
22
-27
-32
-41
23
-48
-2
-17
14
24
14
19
1
-65
4
35
6
5
-19
14
-15
29
15
9
5
14
36
26
-38
78
-22
-33
1
7
-12
-17
-52
-27
13
22
-32
-12
13
-23
9
22
-1
-7
8
7
-3
-2
36
-28
-18
-19
-7
-6
-18
-2
23
-37
12
44
17
-25
-16
4
-13
-12
-9
-18
8
23
30
4
21
37
-1
-26
18
2
21
13
-6
10
-18
7
-20
-11
-21
-15
-23
-38
6
-12
-22
-11
11
21
7
-15
-22
-23
-7
-4
-24
-25
-37
-10
26
34
29
4
13
23
41
30
-12
4
-6
4
9
-6
27
11
-2
4
-11
-2
2
25
-13
-25
15
3
-7
11
-11
-4
14
-4
-15
-6
-16
24
15
-4
-16
12
0
-12
10
-12
-22
-18
-18
-17
2
-12
-8
-4
9
7
10
-6
-30
-14
0
-25
-30
-11
-13
-35
33
-9
6
46
46
27
-6
86
-4
1
1
15
8
0
28
0
1
-5
18
10
11
-19
-27
8
14
15
-15
-19
-21
-1
12
-13
-28
-37
3
-36
-22
6
-2
-128
23
-1
-34
11
8
0
-5
106
14
32
46
-15
6
5
19
34
-26
6
-44
21
-3
-16
-48
-60
43
12
-3
-8
-12
-13
5
62
-19
3
8
-5
5
15
49
-46
9
-8
-9
-12
9
7
6
8
8
8
18
-4
-19
-19
-28
-9
-5
10
-26
-2
-15
-5
-27
-4
-15
-19
16
-28
-5
-10
7
-10
20
-2
15
19
11
10
-11
13
2
5
-50
9
18
-1
46
7
-16
2
6
1
0
5
-14
-2
14
23
32
-11
-21
-10
-16
-6
-19
-23
-31
1
-10
-3
-4
-19
11
15
33
3
9
-3
7
3
-5
-6
-2
6
-2
-20
-58
-55
18
9
-12
1
2
13
61
62
-5
-11
20
21
5
11
-5
17
-3
-28
23
8
13
2
-24
13
-29
-6
-31
-32
-13
-24
12
-85
-25
4
34
15
18
6
-53
-2
30
-12
-35
-12
-11
10
15
39
4
17
18
-8
-1
-4
11
25
-15
-20
-7
4
-11
12
22
-22
-1
13
16
-11
-14
-2
19
-43
-11
22
-14
5
7
-11
-20
22
17
11
-5
8
0
12
-13
10
-18
-5
19
-2
-10
-39
-3
4
13
-7
-39
4
-5
21
13
-23
-15
-2
14
-18
-3
3
10
-15
1
-28
-20
-17
9
7
-23
6
8
11
-7
31
3
-2
20
51
-3
-3
-8
-2
2
-5
-30
-11
-15
-6
-8
-39
-36
-25
-11
-30
-3
-3
2
56
10
8
-25
-18
-4
-20
-11
-32
2
14
0
17
-8
-8
-6
-7
-5
14
9
-23
15
20
-7
34
21
10
43
5
-5
4
9
-20
-24
-23
-42
12
3
0
-7
20
7
-10
-6
47
-9
15
-1
9
9
-4
19
-11
-13
-13
-4
-8
-7
-5
-13
-19
6
14
4
-8
3
14
34
-3
-9
-9
-17
-35
-14
-7
-37
-22
-7
0
-5
-1
-5
-5
-11
-2
5
-5
2
-1
11
13
20
21
-8
-5
28
6
2
1
1
4
5
15
-23
5
-1
1
6
-4
0
-7
20
0
-12
-18
-3
3
3
-4
-17
3
-9
-2
-32
-11
11
3
-5
6
24
12
7
12
3
-5
13
2
-2
-5
8
5
3
-1
0
-4
-2
5
-6
2
-6
-1
11
17
1
-4
-7
-6
-8
-6
-27
3
-6
-4
24
-3
0
-1
2
-8
0
-5
-29
-3
1
-12
-10
-1
1
8
18
5
2
2
18
-5
-3
-3
-4
-4
-1
0
-3
-4
-5
-2
-5
1
3
-7
-6
8
3
0
22
1
-1
0
-2
6
-1
-8
1
-5
-1
2
-5
0
4
5
-46
-4
0
-3
26
-3
1
-1
-19
-2
3
1
-24
-2
-3
11
30
4
-2
1
14
-3
-3
-12
-13
-6
-3
-5
-30
-4
5
-7
8
-1
0
-5
-2
-7
-6
-8
2
-2
-5
-2
15
5
3
-6
-6
-5
4
2
8
4
2
15
19
3
0
-4
-2
1
4
-2
-15
2
3
2
11
-2
2
19
28
5
2
4
-3
0
-6
-9
0
-2
-2
-9
-12
0
-4
-19
-43
-4
2
2
-1
5
-3
10
44
5
-3
-2
-12
-9
3
8
10
2
0
3
16
-1
-2
0
-2
0
4
-1
-11
2
0
1
-3
2
-3
0
18
-3
0
2
10
-2
-5
0
4
7
-6
-10
-15
-4
-3
-3
-37
-13
-2
2
11
0
1
1
-22
-12
-5
-4
-32
2
0
-1
-8
-4
1
-3
11
1
3
-1
-1
-1
-3
1
6
0
1
4
38
5
1
1
-2
-4
-3
-6
-24
3
-3
-3
-3
-8
1
1
19
-6
-4
-10
-7
2
-4
-8
7
1
3
10
14
0
-2
1
-3
0
-7
-1
-18
-3
-1
1
13
6
0
-4
-18
-3
0
0
-3
16
3
6
29
2
-4
-3
-13
-7
-6
-8
-12
-6
1
-1
1
1
1
-6
-3
0
-2
-3
-9
3
2
6
-2
0
2
2
15
1
2
-4
-13
-4
5
1
-3
-39
-6
-10
-12
-2
-7
-7
20
24
4
12
32
-1
-3
2
4
5
-2
-2
0
0
-1
1
9
-7
1
3
7
1
-1
0
-15
19
5
-6
-23
-2
-1
-4
-39
-36
-7
-6
-6
-8
6
-1
15
-10
5
0
0
9
10
-1
-9
37
-1
5
3
0
11
11
95
5
0
-3
32
2
-11
-3
-30
0
-2
-7
-45
-1
-4
-2
25
21
3
1
1
-4
-6
-8
-68
-48
-8
-1
-2
-4
30
3
-18
14
3
10
36
12
-14
-3
28
15
3
9
8
4
7
-6
-12
-27
-2
0
19
-5
-24
2
31
52
7
-5
-19
-4
-11
1
38
23
-3
-6
5
-18
4
1
-1
-35
-6
-2
1
16
-4
1
-1
34
2
-3
7
-5
1
-9
-30
-63
-5
-4
28
0
-8
-2
-23
15
-1
2
-20
3
6
7
9
23
6
2
10
-5
-5
-6
-13
-15
-7
-4
-3
1
4
0
-20
-16
0
-2
-10
-3
-8
-3
-9
-43
-4
-6
-8
-3
4
2
48
66
2
-6
23
-9
1
-1
0
-31
-17
-17
-18
-7
-7
1
53
25
4
11
-1
3
-2
-2
-64
9
8
1
6
0
7
-4
38
-60
-10
-4
0
-3
-11
-2
-6
48
4
17
31
10
0
-1
-23
-14
-11
-6
-17
-4
-7
0
27
-1
-3
-2
-9
-2
3
1
-27
2
3
0
2
-2
2
2
13
1
3
-9
-7
-3
5
-3
1
-1
-1
1
14
1
1
-2
-53
-27
-1
-2
-40
0
8
7
46
25
4
3
0
2
-4
-3
-18
-29
-1
-1
-6
-3
-4
8
12
35
1
-1
-1
-7
-5
-4
15
9
0
-6
1
5
2
1
-34
-29
-1
-3
-8
0
-5
-11
-14
14
-5
-6
-20
-2
3
5
-54
-43
-7
5
9
-2
-2
1
-9
18
-2
-4
-7
-2
2
-6
6
-22
-3
9
2
10
5
7
16
-2
2
-2
-2
-2
-3
-10
2
19
3
-10
-26
-5
-3
-6
0
-8
-4
-4
-2
-6
-4
1
-7
22
3
7
32
7
-2
2
16
-4
-3
0
-8
-3
-3
-4
21
2
-4
-7
-15
0
-1
1
1
-27
1
0
1
1
0
-1
-15
27
-2
-5
-5
-6
4
3
-2
-37
-1
0
7
-7
0
2
34
-3
1
-4
7
8
-1
0
7
-15
-7
3
-14
0
-4
-2
-33
-6
-6
-6
-9
-4
1
4
38
77
8
1
10
-3
2
1
14
-29
-3
-3
-3
0
-6
-3
-22
9
-2
-8
10
-3
0
0
2
-17
0
9
29
-4
11
0
-28
-33
-4
2
-12
5
-7
-3
-5
7
2
3
-11
0
0
0
16
19
2
1
28
2
1
5
-2
7
-2
-5
-21
-6
3
-4
15
-16
0
-4
14
1
-4
-4
-16
-1
-1
3
-1
0
2
5
0
-2
-1
2
-4
-2
-2
-3
4
3
0
1
-3
8
-4
-4
-7
-27
1
-5
-2
-5
1
4
-1
44
2
-7
-6
-10
-1
-2
6
-7
-1
3
7
10
0
2
-20
-20
-4
-5
-6
-2
-1
3
11
21
2
2
3
0
0
-1
-13
-21
-3
1
-1
-2
0
-3
3
15
2
0
1
-4
-2
-4
12
-4
0
-4
2
-4
-2
-5
-36
-25
-8
-2
-14
0
-3
0
22
6
6
-3
0
0
1
4
19
40
4
2
-7
-3
-6
-10
-40
-31
-3
0
-17
1
-5
0
-8
-20
-1
4
10
1
2
-5
-6
10
-1
-10
-5
-3
-1
-1
2
-27
-2
2
-12
-2
-3
-5
9
38
4
-2
-15
-4
-1
-2
5
3
-5
-4
12
-1
2
0
-11
-6
-3
-1
-3
3
0
0
0
-4
0
0
-9
0
1
3
-2
6
1
0
0
-3
-2
-4
-32
-5
-2
-1
-5
1
3
1
8
-2
-2
2
9
-1
-1
-2
4
-2
-3
-4
-10
-3
1
0
22
-10
1
0
-2
2
-6
-4
4
21
-2
-6
-5
-4
2
-2
-3
-11
-1
3
6
3
1
-2
3
4
1
-1
3
-2
0
0
-20
-20
-5
0
-4
0
3
0
2
-7
0
1
4
3
-3
1
27
33
1
-3
-12
-5
-3
-5
-6
-12
-4
-4
3
-3
-2
-3
-23
13
1
0
5
-2
-1
5
-8
-16
-1
0
-3
0
1
0
-13
-13
0
2
-2
-1
0
1
-9
4
-4
-7
16
-1
2
1
18
-7
-1
0
7
0
-10
1
2
13
0
-1
-3
-4
-1
1
-1
7
-1
1
5
3
0
-6
-20
-8
-4
-2
-3
-1
0
1
2
-11
-3
-4
-10
-4
1
1
14
2
-1
0
6
1
-1
-2
-3
7
3
-2
-2
-2
3
3
12
4
-1
3
-2
3
0
2
-12
-10
-1
0
1
-1
1
2
10
10
0
-2
-5
1
-1
-1
-4
-24
-2
-1
-4
-2
-1
-2
-8
29
-1
1
-2
-5
-2
0
2
2
-2
-3
0
0
1
-4
-2
2
-1
0
-5
-1
-2
3
-4
0
3
-1
-9
-4
-3
-4
3
11
3
1
-14
-1
0
3
11
6
-2
2
8
-1
-2
-10
-20
-13
-4
-1
-7
0
1
0
1
-5
-2
3
10
1
-4
-1
-12
-12
-3
-8
-7
-4
-1
-3
-14
13
4
-6
-2
0
1
-2
7
-12
2
11
17
1
-1
-2
-1
-8
-3
2
-3
-4
-3
0
9
-19
-5
-4
6
-2
-2
-2
-8
11
1
-2
-30
-9
1
0
26
11
1
2
11
8
0
-2
-9
-6
-1
0
-11
4
2
4
-7
-4
2
3
-1
2
-7
1
5
7
-3
-7
-2
-7
-1
-3
-14
-8
-1
-4
-5
-1
-3
-5
-3
14
1
1
-7
1
-3
-5
-14
-12
0
-1
5
-1
0
-3
4
14
0
0
7
2
1
7
18
15
6
0
-6
-2
0
-2
-25
-3
-4
3
10
1
0
-2
-3
-12
-5
-1
-1
-3
2
-1
-1
-8
0
1
10
2
0
3
3
-2
-4
-2
-13
0
1
2
7
-13
-2
-7
-2
-4
-1
-3
1
12
2
-2
0
-2
2
1
-3
-5
0
6
1
3
-4
-6
-13
5
-1
-3
-13
-2
1
-1
8
-10
-4
-5
-2
0
0
1
-11
-7
0
6
7
2
0
0
22
6
2
-5
-2
-1
0
-1
9
5
-1
-4
10
-4
-1
-3
-2
1
-4
-1
-1
-1
0
-1
9
-2
-1
-1
6
4
1
0
6
-12
-1
4
1
0
-2
-3
4
3
2
3
9
-1
-2
-5
-1
-1
-2
-3
-8
-5
-2
0
-14
-7
-1
-2
2
-1
0
-3
-20
-11
-3
-3
-2
-2
2
-1
5
7
-2
-5
-5
-3
-1
-1
7
1
1
1
1
3
-3
-1
-9
14
-2
0
-1
0
-2
-1
24
9
-3
-3
-2
6
-5
-5
-68
-28
-6
-3
-4
-10
0
0
19
3
4
0
-4
-3
-1
0
19
17
1
1
3
-1
3
0
-5
-26
-3
-2
-3
-2
0
4
9
5
1
3
0
2
-1
-4
-4
-5
-4
-5
-2
0
3
-1
4
-9
2
8
9
2
-3
-2
-8
6
-1
-6
1
-3
-2
0
4
3
3
-3
-2
-8
0
-1
-12
-7
-2
0
12
7
0
0
9
10
1
1
-6
0
-3
-3
-3
-1
-1
-2
-7
-1
1
3
-2
-10
-2
2
1
2
1
3
10
3
-1
-2
-5
-4
-2
-4
4
16
2
-5
2
-1
-3
2
-5
3
0
-1
-1
-1
-3
-4
4
-13
-3
-4
-5
0
0
2
-15
1
-5
-1
4
0
-1
-2
6
-6
1
-1
-6
-1
0
2
9
-9
-3
2
0
-1
0
0
-6
-2
1
-1
1
1
-2
-3
-3
4
-2
-4
-4
-1
-4
-3
0
-3
-3
-3
-5
-5
-3
-5
-10
6
0
-2
-3
-2
-1
-1
2
-2
1
4
8
0
1
2
2
4
1
4
0
2
-1
0
-9
-6
-2
-5
-4
-4
0
-3
-5
4
3
-3
-1
-2
0
-2
2
1
-4
-2
-6
3
-2
0
-20
-9
2
-1
2
-2
-1
-3
2
-9
-2
0
-3
1
-2
2
-2
6
-3
1
1
-1
-2
-2
-1
5
-1
-3
-4
-1
2
2
-3
10
2
-1
0
1
1
1
-10
-31
-5
-2
-2
-1
-3
-3
0
8
1
-2
0
-1
1
2
7
4
-2
1
-1
0
-2
-8
-13
-14
-4
-3
-1
-3
-1
-4
-1
0
-3
1
-1
0
-4
2
17
16
7
0
-4
-3
2
2
-7
2
-2
-1
-1
0
-5
-4
12
4
1
-2
-1
-1
0
-5
-11
-16
2
1
0
0
1
0
-14
5
-1
2
1
1
1
3
10
-10
-3
-3
0
-1
2
5
12
0
2
1
-1
-2
-3
-2
-15
2
-4
-5
-3
0
0
-3
-5
-7
-6
-3
-4
0
-2
-8
-12
-4
1
2
2
0
-3
4
7
3
-4
-3
-1
-5
0
3
20
-1
2
1
-2
1
-1
-2
-13
-4
-3
-2
-1
-3
-4
-2
-5
0
-2
-3
4
-1
-1
-3
-5
-7
-2
0
1
1
0
0
3
11
0
1
-2
-1
1
-5
-1
-7
-4
0
-2
-2
-1
8
3
-12
-15
-8
-2
-2
1
-3
10
9
14
2
-5
0
5
9
9
16
10
0
0
1
-4
4
-6
-3
7
1
3
-3
-9
-4
6
12
2
1
-4
-1
-1
-13
-7
13
-20
-6
3
0
2
2
-12
-40
-8
2
1
2
11
9
11
38
48
6
0
2
-8
-5
18
16
2
-7
-6
-6
0
5
-5
7
2
11
16
0
-12
-17
-22
-5
-14
-3
-2
-6
7
6
-3
-21
-18
-4
0
-3
-9
8
2
-7
1
-6
1
-11
0
-13
3
-10
7
1
0
5
-1
12
9
23
-4
-4
-14
9
-2
-31
-36
-21
-7
8
28
8
10
10
-3
3
3
8
13
7
0
-2
-25
-20
-7
-4
-27
-11
-10
-7
60
9
8
-3
-7
-5
13
28
14
15
0
-9
-15
14
-3
-14
-28
-12
-3
-1
-3
-8
-8
7
0
-16
-24
-9
2
-19
7
12
-11
15
25
10
25
15
-17
-14
25
-16
-7
-8
-26
-4
22
6
12
13
14
11
5
6
8
13
10
3
13
0
10
-4
24
-10
-10
-7
-13
-2
-3
5
-35
-12
-3
-21
-33
-16
-29
-36
9
15
-11
6
12
7
-5
32
-6
-7
3
5
6
-10
-28
-4
13
14
-15
-4
3
5
-12
7
2
17
3
7
0
21
64
6
-1
-2
12
6
-10
-2
0
-17
-13
-8
-17
-10
-2
-2
9
-2
23
21
-25
6
-2
-4
-7
-4
-23
-40
-14
-3
0
-9
-34
18
-17
-23
4
-9
-4
-6
5
-10
18
28
9
-14
-9
0
-7
-10
-30
-31
-25
-23
-23
-14
10
4
-9
-42
16
16
11
5
4
-12
3
-3
27
23
-6
1
-2
10
13
-32
1
38
62
20
-7
19
12
20
-21
-47
-26
-13
-8
-52
-2
33
16
11
1
-2
-10
52
34
-10
6
9
0
10
26
31
-30
-19
-20
-27
-37
-15
-8
-38
-31
-7
-9
10
16
7
7
-17
-3
18
11
-6
-23
-14
-32
-23
-14
0
-22
-7
11
-7
-21
16
35
28
13
-5
-3
8
1
37
-2
-10
25
35
-15
4
23
1
19
9
-18
-37
25
1
-10
-39
-30
-34
-8
46
-20
-26
-42
-28
-1
-62
13
7
38
9
53
24
-3
2
0
-15
-29
0
-14
-29
-33
41
-6
-10
5
0
-37
19
11
-1
-7
4
15
5
9
42
-4
27
3
16
-22
-1
21
-78
-54
-88
-12
-57
-39
-31
-66
19
56
82
5
38
-13
14
66
14
32
-48
-24
2
60
-4
-41
13
-11
16
7
15
-13
-5
13
5
-40
-12
-18
18
4
-10
18
-39
3
-26
3
-55
-25
-17
-8
-17
-43
-12
-1
-54
-60
1
28
-30
-18
-24
-22
33
26
15
-39
10
54
55
49
26
17
0
-17
20
-25
-92
-59
-69
0
-11
-18
-6
18
26
55
3
-16
0
6
-39
-19
0
-31
3
9
4
-17
25
16
36
15
-21
6
17
95
45
-75
-23
-4
25
-12
1
-4
-72
89
72
37
68
39
-17
-12
71
-13
24
-17
-30
-24
-1
3
-92
33
27
19
-38
1
11
-17
-13
-30
-8
19
47
47
6
87
-123
-65
-73
-21
-77
-38
12
1
28
41
35
-13
-1
3
-16
-27
92
-39
27
16
47
36
23
20
-3
-10
-13
-31
-22
-32
-29
-65
-44
26
8
-27
-20
-18
-1
4
-54
-19
28
27
-40
-12
-22
-52
117
13
-36
35
26
-8
-1
-29
3
27
3
-18
28
28
37
74
6
-40
55
-6
22
20
-22
-33
-37
-20
-23
6
-17
-20
-13
5
-38
-45
-35
-23
-64
-53
28
21
-124
22
37
35
120
-6
-24
-60
127
88
-46
19
-20
43
26
70
42
-15
64
-43
-3
11
-11
6
-66
5
2
10
7
34
23
-43
-58
-9
-40
-18
-79
-22
-1
-26
57
35
62
-7
29
-14
14
52
37
23
11
47
25
-3
-25
-10
-8
-28
5
2
27
2
-14
32
8
83
34
-10
-8
22
12
16
54
-62
14
7
-53
-47
-19
-45
-96
-24
-65
-10
18
33
28
38
16
20
20
-36
2
-25
-22
-21
5
15
-12
32
40
30
23
71
34
-23
48
1
-2
-20
-2
-22
20
5
-39
4
-70
-41
19
87
-108
-77
-49
-16
-86
4
-10
-89
-58
110
97
30
47
52
13
3
102
-61
-52
0
15
-22
-17
6
-128
33
90
-39
-40
-40
-8
-1
-24
-14
-23
20
48
25
5
69
-62
-70
-45
-35
-78
-61
-37
-38
-51
87
86
16
65
65
61
15
93
-38
39
23
21
9
-34
11
-11
20
-63
1
39
49
38
13
56
-53
46
-3
-26
-51
7
48
-128
-100
-71
2
-38
-42
-5
-93
-86
55
15
56
25
43
5
86
126
110
20
-31
26
26
-30
-23
124
-18
-27
24
15
25
-7
11
-57
-33
21
-36
21
-95
-20
38
-112
-26
-110
-45
43
65
41
3
-110
-72
-47
-37
-26
20
1
10
-37
88
60
74
62
24
6
-22
98
-4
-65
-40
8
7
-8
22
34
-66
24
-12
8
-43
3
17
-92
29
6
-13
-39
-72
-29
-36
-73
11
-47
43
-51
-22
-4
27
-16
-20
83
9
-16
42
-18
-116
-13
49
-62
5
3
14
20
48
98
-72
-64
-21
-18
-19
10
-39
-25
25
87
-22
-6
2
-5
-6
82
34
-89
4
10
-33
-7
-18
-90
-35
-5
-35
-68
8
-13
-43
95
40
63
33
-50
-31
14
127
15
-62
-49
-20
64
36
-12
-123
-72
65
79
-22
-8
21
-32
9
-17
-43
28
19
7
-35
31
-47
-112
89
10
6
5
-17
-31
11
57
-38
-63
-45
36
42
45
23
-8
-10
-35
16
-38
14
15
91
40
-43
21
12
26
-67
-41
-10
-97
2
102
17
90
49
13
-59
8
64
9
-13
-28
45
5
5
34
-66
-84
-27
-6
1
-5
-45
-62
95
40
10
41
-5
-12
-16
9
-51
27
3
-20
-17
-1
-62
-128
-122
-103
-13
-22
-43
1
-48
-30
83
89
19
-29
23
32
115
127
-12
16
17
-71
-16
-14
-101
-64
-25
-67
-32
52
7
-21
-12
-1
-4
8
11
-31
-23
-6
22
-52
-61
-56
0
-67
-71
-17
-28
-82
7
-23
12
90
77
37
27
43
-14
22
8
36
17
-12
-4
127
88
94
6
-24
-12
5
20
1
-38
-30
-7
-15
-30
-18
106
-7
-56
-15
-56
-102
-39
-30
-118
-61
-24
-71
33
15
12
-8
12
-91
27
94
-44
48
-34
17
66
51
-10
-24
9
29
-4
6
60
52
39
25
16
-3
29
4
-24
15
-50
6
-21
35
-29
-2
41
-62
-2
-54
60
-72
32
-7
-121
42
62
116
-81
-39
5
21
-15
-84
-9
-40
36
-38
-48
-33
1
-37
-28
-35
-15
78
16
8
2
-59
1
12
32
-34
-10
-13
34
-39
-1
-25
-11
46
35
1
-69
26
-5
46
-10
38
21
22
38
35
11
21
-22
-87
-75
-16
20
7
-41
-9
13
53
-22
-1
32
-128
17
-49
11
56
104
32
-40
127
-21
-41
-10
-28
-60
-14
37
-70
30
52
25
-70
-4
3
-41
-31
-16
0
9
-12
-2
-3
36
75
-11
-23
9
-11
-18
-9
16
-45
-35
-49
3
33
-2
41
125
-52
49
-2
-42
-24
-1
-86
-103
79
60
3
24
3
18
38
68
9
-77
-48
-6
-13
23
25
46
-109
19
65
30
5
-3
-26
20
-11
-53
-25
-15
-15
6
37
28
-82
18
-52
-17
-30
-41
-48
-44
-55
41
55
19
22
-17
1
-11
75
-29
-62
3
69
44
17
-34
13
23
31
17
-3
19
20
51
53
-69
3
-44
32
40
-7
-32
-30
-20
-58
30
-17
-82
-35
-19
-128
120
40
15
5
32
10
7
119
11
-11
39
0
17
5
3
-12
-33
-24
-31
1
-30
1
11
-54
-75
-35
18
-29
-19
-19
-35
-112
64
43
3
9
12
9
-21
96
-19
10
-16
27
9
23
66
-26
57
-24
-5
-39
-23
-20
-38
61
-8
33
-23
4
8
-16
28
-50
-56
-49
-11
-92
-47
3
-51
-116
86
38
4
-25
9
-23
34
127
10
97
47
36
22
30
-20
-92
8
26
-11
-37
21
41
-7
-48
-39
-26
-11
54
4
-22
4
-75
-48
-47
-4
-44
-39
-25
7
-110
36
21
-13
-7
-11
-8
-9
35
42
-4
7
4
-3
-12
-33
90
-25
-19
3
-15
-5
16
-16
-15
-11
-21
23
11
13
0
4
10
-32
-12
-32
33
-23
-58
-20
-72
-24
-76
2
-31
-9
34
-7
90
54
48
17
22
40
9
0
62
0
39
-8
23
23
-2
-57
-48
-17
-64
-38
-42
-36
9
62
-78
-5
32
9
47
-25
-24
1
-34
-66
-42
12
0
25
6
19
0
10
39
-5
18
1
9
-4
64
-38
-18
-25
-96
-34
-20
-6
-11
-18
25
47
-31
-31
20
49
-84
84
99
-34
106
80
25
-2
119
-34
-17
6
-21
-7
5
-15
-42
46
-4
17
33
16
4
86
72
-29
22
31
-1
-1
-6
-23
-29
-9
-70
-44
-69
-58
-9
-38
-49
-69
20
2
16
-8
8
24
-101
38
67
-5
-2
11
15
7
-7
24
-46
-35
20
26
11
-70
109
27
56
46
6
-27
-42
-10
2
19
-24
-3
3
-15
6
-13
20
-48
-15
10
-12
9
6
4
-72
-16
19
-39
40
5
-19
-19
-59
0
45
11
31
26
1
5
55
8
-23
38
39
26
14
8
21
19
25
1
66
68
30
11
71
-9
2
-19
-15
-9
-11
-2
-38
-47
-48
20
-28
-42
-7
5
-44
43
25
5
14
8
7
44
47
-42
-20
-27
3
-36
-4
27
-81
13
30
-18
11
42
-9
-54
50
8
-9
1
-16
-29
-27
-29
11
10
-15
3
-22
-6
-6
19
25
-53
11
-9
-29
-32
21
-9
-95
19
41
-4
11
31
-5
22
79
26
-8
2
-75
-44
-9
21
28
-2
-7
-15
53
38
33
49
-1
14
-6
-7
36
28
13
-17
17
-26
27
5
-35
-17
2
-17
-106
-5
16
6
-13
6
-6
-90
-33
39
-57
15
21
14
-4
-13
99
-21
12
-22
-16
-18
-20
14
-63
12
6
23
-13
-10
-23
-18
-36
-27
11
-43
1
3
10
33
-44
-7
-9
10
-37
-26
-6
-13
-50
-14
-30
15
4
9
5
-32
11
11
-35
-24
-5
-10
-9
-15
12
41
52
10
11
7
4
37
34
23
9
-2
-24
-23
-35
-26
-7
-30
27
23
-50
-31
-2
-7
48
-4
-37
-27
32
19
12
74
-13
-67
-54
-78
28
4
3
-79
-118
82
100
6
48
79
40
40
95
2
8
30
0
-8
-18
-23
-32
-14
8
8
-41
-31
-40
3
-16
18
0
18
-39
-17
10
29
-20
-36
9
-35
-9
-32
-4
-52
-94
-31
-82
-22
-38
7
19
3
-38
66
44
52
37
28
12
46
127
7
-13
-21
-4
1
12
24
-52
-25
-36
-36
-33
-13
-3
-25
-40
25
-27
33
27
6
-3
-33
39
-33
-23
4
-24
-13
-6
37
-10
-29
-1
-12
-17
-57
-33
-9
-65
-29
-12
-26
-24
13
1
-76
16
60
23
44
43
12
5
15
78
16
26
-39
9
3
-13
-14
-6
-24
36
6
-6
1
-3
51
7
-57
-65
-1
-45
-70
-12
38
-109
-25
68
6
6
17
7
-22
25
70
67
-17
65
54
20
-14
60
-45
-86
42
-8
-4
-4
-7
11
-34
-30
-14
-22
-19
-4
46
0
-12
-33
11
13
8
1
-24
-11
-24
14
35
-48
-58
-7
36
-109
-15
-43
-57
11
54
12
-70
57
68
51
23
38
34
14
28
28
-21
-16
-19
-4
-20
-22
-36
-98
-10
-83
-26
-25
-11
11
47
-56
-30
-38
8
-14
-41
-1
-38
-112
-40
-40
12
15
10
-6
-48
43
78
98
22
-14
-11
-21
7
45
-5
21
-52
-9
0
17
-45
-3
-1
-4
23
-4
9
6
61
13
-5
36
-21
-74
-31
-2
34
-64
59
-16
1
86
42
-9
-16
64
13
44
23
-15
-15
-21
-20
41
25
48
-3
35
-1
28
21
-22
10
39
22
-38
19
13
-1
-64
-20
-26
-15
-5
0
-5
52
26
-9
-7
-13
8
3
1
-29
8
32
9
-20
-8
-11
-29
5
19
-2
-7
1
7
-51
-23
-15
-46
-53
-25
-30
-18
0
18
-27
-48
-44
-23
23
9
22
12
4
-42
44
22
23
-17
-26
-18
46
70
20
35
-22
49
29
6
-15
59
-28
-82
-8
-6
-27
-17
16
10
51
68
15
21
36
-14
-53
3
-65
-72
-15
-38
-17
42
43
-125
41
17
-4
13
-17
-38
11
97
-7
5
30
20
52
56
11
-19
-49
-42
-16
-11
-33
-30
-4
3
46
27
8
4
27
-3
28
23
14
-6
-13
26
-2
-9
-17
-46
-35
-57
-17
-19
-36
-24
-2
-64
-7
-7
-29
-15
-1
-20
35
10
-7
-1
41
-35
-16
35
-13
31
-64
-9
23
99
75
34
70
-104
6
-30
-32
-34
-36
-1
17
52
62
24
55
36
57
-7
-66
104
42
38
-31
5
24
-12
27
43
-15
12
23
-59
-27
31
6
-101
-107
6
-47
8
-62
-48
-44
-128
-103
-60
-52
-61
-59
-15
-80
8
84
84
52
95
84
43
96
116
-2
6
25
22
4
-6
60
-68
-20
10
38
-12
15
1
27
-104
-47
-50
4
-21
-52
-11
55
-128
-38
-75
-14
-11
-12
-25
-105
-116
21
5
-93
-45
2
26
-10
47
22
27
24
16
-15
-3
0
36
62
48
35
-8
60
39
50
35
-22
-30
54
-15
-16
2
-42
22
1
3
14
6
-10
-30
-40
41
-19
-24
8
-26
-19
-10
-3
13
17
23
-46
-4
5
7
21
1
14
52
-36
33
5
-17
-2
-49
-19
-81
-7
-16
-4
-8
-29
107
-12
-15
27
0
8
22
-6
-64
7
19
-38
32
2
0
-31
79
-40
33
6
-7
-3
-9
22
-37
11
6
5
-12
-18
3
19
-21
39
85
3
-6
6
0
-22
114
99
51
60
-6
-8
-28
40
-5
-48
-35
-56
11
2
10
71
-56
-59
74
-24
-38
-11
31
-128
-69
99
49
-18
5
44
18
111
90
-80
-29
20
-22
-19
13
6
-122
28
18
16
50
-36
-46
-24
-55
-9
-46
-28
55
54
-10
-17
-54
-8
-13
-1
-2
-8
10
-32
-47
-62
11
6
3
-6
-16
-10
-8
20
13
4
-11
-12
19
-17
11
14
-1
-12
4
7
-9
-5
-17
28
-23
-1
11
-29
-35
-32
96
25
-22
-3
9
28
26
39
37
-26
-14
17
-15
-2
1
26
-27
8
0
-3
-28
-23
-2
-12
25
-31
19
-6
-31
-20
2
55
-38
37
-76
17
-11
24
12
-16
-32
12
27
0
-8
11
1
-39
95
-34
-9
29
-20
-14
-30
-31
-19
-16
-20
-49
7
9
6
34
-42
5
-18
42
5
-7
35
-2
-23
-9
35
-28
5
31
15
15
45
11
-9
69
-9
-35
-32
1
6
22
-10
-60
11
34
9
-46
-2
-40
-17
33
4
-14
-15
32
-47
5
-73
-12
1
0
21
-30
13
10
74
-12
-34
-22
-21
12
26
-4
-19
-14
-40
-18
-18
-28
-70
11
76
9
55
34
21
-45
50
9
-22
-4
-2
-10
-56
1
-87
-22
-35
-30
24
10
49
41
101
35
35
14
-14
-5
-6
0
-10
12
40
-46
-34
-35
7
-16
-14
-4
35
15
19
3
13
28
-107
62
7
11
43
32
-6
17
95
-76
-47
15
-24
-9
-6
33
-110
-9
17
-8
32
19
4
5
93
17
-7
28
-46
-16
-13
35
57
-10
-40
-20
-3
7
34
-27
-49
-17
2
33
21
-7
-6
-27
6
-36
-35
-12
-29
-1
-16
21
-70
-31
68
0
-25
-22
-19
-35
-18
24
12
-24
1
9
-7
6
36
-9
-50
0
-1
-11
-9
-11
16
32
43
12
-18
-25
2
-12
-24
-29
-45
-15
-18
-21
-42
24
-11
2
-7
-30
19
31
15
-69
-128
34
-51
-10
-13
-4
-13
-51
102
-28
-31
10
13
13
11
-1
-39
53
13
-36
-2
13
29
-4
16
-22
16
55
-22
-30
-12
62
-55
-55
10
-37
9
-19
9
36
-96
46
-12
5
-5
36
-23
-72
-2
13
-7
0
3
-8
-3
-15
115
-26
-29
-37
-28
-36
-23
-28
-58
51
91
7
49
58
30
18
40
-48
-81
-37
-6
-41
-15
-8
-58
-30
-12
24
4
-15
-10
-20
-31
75
30
7
-7
30
7
41
92
-56
-9
54
-21
-17
10
80
-118
58
35
-80
-10
-10
-12
3
103
-10
18
34
-6
12
-2
17
-65
-23
-14
58
-7
-16
10
51
-5
-16
-31
-22
-20
-9
9
8
-27
57
-3
31
53
38
12
-37
-30
-67
-56
0
-5
-20
-17
-16
-10
-5
41
19
-11
-13
6
2
-46
17
10
-27
33
11
-16
-34
104
10
4
28
-4
-1
14
24
20
0
0
38
-16
-2
17
5
13
-40
-22
-49
17
-14
-35
-2
-41
17
7
-15
15
-12
-5
-38
-28
-49
-46
2
2
-3
-4
-62
-43
82
55
11
8
18
-3
50
100
-37
-7
-5
13
4
12
32
-51
12
-27
46
-25
3
9
-66
17
3
59
13
-4
-21
1
86
-37
-21
-26
-22
21
16
-1
-61
-50
18
-19
5
-19
-12
-10
6
57
-45
-13
-19
12
-31
-19
-4
-70
40
50
44
7
23
18
-21
59
11
-59
-36
6
19
7
-21
41
-3
-5
3
-4
-6
-4
1
3
8
-13
46
9
11
7
34
0
-41
-9
-58
-15
-35
-16
9
-65
1
20
-15
-16
-10
-7
-3
-7
-20
-5
-11
-35
-21
-8
-19
-13
43
18
47
72
77
21
-18
38
-10
-2
-33
-11
-16
-3
32
35
-7
0
-21
-13
14
-5
-20
-19
1
-16
10
-1
-5
3
6
-9
-3
11
15
-40
-17
-9
-18
-20
-2
0
-23
-5
-11
4
52
7
-20
-11
-18
15
4
37
-1
-45
47
33
23
13
1
-32
-5
79
10
-2
-43
-24
-3
-3
22
15
-7
-7
28
20
18
16
31
16
-19
-7
-32
-21
-17
-4
-38
-62
6
7
9
6
6
12
5
-7
15
-6
-21
-6
0
-21
-3
37
-1
-1
29
-3
-9
19
33
-31
-1
16
7
8
-3
-16
-21
11
3
-6
-10
15
0
-6
7
-2
3
17
-19
-19
11
-1
15
12
-25
-21
-9
-8
-9
-13
-30
-39
9
13
-2
1
-3
-3
1
9
-1
1
16
23
13
14
-14
13
-3
10
-35
-18
-12
2
3
-15
-10
-11
34
1
1
-6
-20
1
3
-3
-29
2
-4
-18
17
0
18
6
9
-15
-4
1
-30
3
-32
1
-7
-8
-1
15
13
-19
0
5
-8
-5
1
0
18
10
8
1
28
9
1
0
-12
8
-15
-8
2
5
6
9
19
-18
24
9
12
3
-2
3
2
4
7
2
18
0
1
2
13
11
-17
-14
-15
-5
-4
-3
20
-14
4
3
-26
-8
5
3
-17
-9
-1
9
14
-7
-7
-11
-27
10
-12
-5
2
2
-6
-12
0
-9
7
-3
14
12
8
3
11
-1
-5
6
-4
-9
-1
0
-7
2
0
8
-5
-14
-8
-3
-3
4
-7
-9
1
-2
3
-2
-5
-11
-2
-7
-40
-3
3
9
2
4
-6
2
-1
10
-1
-2
-5
0
-4
-3
1
-1
-6
-6
-7
-6
12
1
19
-3
-6
-6
-11
0
-1
-8
-19
-14
-4
12
16
8
-12
-1
10
-2
-3
-2
2
-7
2
1
-7
14
-2
0
3
1
0
-4
-4
6
2
-3
-5
1
11
4
1
-10
-2
-1
-5
5
3
0
16
5
4
-3
-14
-4
-2
-3
-23
-1
0
3
32
5
-10
2
-12
3
-3
-8
-2
-4
0
-2
31
-1
-5
8
-8
-4
1
0
-18
-9
1
-11
16
6
-1
3
7
-7
-3
-3
-54
-14
3
-3
5
16
7
18
30
6
-3
2
15
-12
-4
-3
12
-5
-1
3
-46
2
-3
2
1
1
-3
-4
18
-4
-1
-4
1
0
-2
0
-29
-9
-4
-9
-10
-2
-1
-2
-17
22
3
-1
-16
-2
5
6
73
12
3
4
8
0
0
5
-3
12
-3
-2
9
0
-2
-5
-31
-22
-6
-1
-13
-2
-8
-3
-2
-19
-5
-1
9
-2
-2
-2
-8
3
1
0
-1
-2
2
-6
4
21
4
2
6
1
0
4
17
-3
0
-1
-3
4
-2
-5
-9
-3
-7
-9
-9
0
19
-6
19
-8
-1
0
3
-4
-24
3
36
-3
-1
-6
-34
-1
2
3
-56
12
3
12
13
-1
-17
2
23
5
-1
0
2
-6
2
-1
-7
8
2
0
-6
-1
32
0
-18
-4
-1
-8
26
15
12
5
4
-43
-13
-6
-17
-10
-19
3
-16
-18
-4
3
-18
4
-19
-3
17
-6
0
2
-6
-6
-18
-10
-23
-10
-6
0
9
-1
-14
2
17
19
11
-6
12
-8
24
3
5
-6
-3
-4
0
-6
-5
0
-13
14
0
2
-3
-1
-1
2
8
-14
2
5
1
2
12
2
-11
12
2
0
2
8
-15
-10
-9
0
7
-4
-1
-19
9
-5
-33
-11
-7
-7
-15
8
-2
-4
-20
-7
-3
4
7
-5
-2
2
35
14
0
-2
-7
2
7
1
3
2
1
-4
-8
1
5
-4
-34
9
4
-1
9
-9
-11
2
-3
-16
-1
4
1
-2
1
-2
-5
22
0
-10
26
-2
-19
-5
32
32
0
-2
-51
-1
8
8
-10
-49
-8
4
22
28
12
-3
31
8
-5
-4
-33
-22
5
3
-39
-27
-1
8
1
5
2
-12
-41
2
-2
-6
22
-4
-14
-5
-6
5
3
1
-3
-3
0
4
5
0
0
-3
5
6
-6
-1
7
13
1
-5
-11
-4
12
-3
12
-4
-2
1
7
7
-8
2
50
7
-5
-1
-8
-8
3
-8
-33
8
-2
-3
11
3
-11
-11
-34
-47
-6
-2
-13
-7
23
17
22
21
5
1
14
18
-8
-2
14
-3
0
-2
-16
-12
0
4
2
23
-1
-1
1
-3
-6
-4
13
30
0
-5
-11
2
-8
8
35
-45
3
9
17
2
-3
1
-50
0
-1
-1
4
1
0
-4
-20
-17
-3
2
-11
1
0
0
35
0
-1
-5
-18
0
0
7
-10
15
2
-3
45
-3
-1
-5
-6
-11
-3
4
-30
-3
-2
-2
-17
11
0
-2
-4
1
2
-2
-13
-34
0
8
19
4
0
1
39
19
-1
1
10
-4
-6
3
23
25
3
-5
1
-5
0
-7
-29
-32
7
0
-1
-2
-7
-4
-10
1
-5
-1
-14
-4
1
-3
-12
-5
-4
-2
-8
2
1
-2
-6
5
0
-1
10
-1
3
1
26
9
1
-4
-2
1
6
2
19
2
-6
-6
-4
-1
6
-7
-9
-10
-2
3
-10
1
-1
0
-1
8
3
4
4
-5
2
2
-7
13
0
2
11
0
-2
0
-5
-29
-4
-3
-24
-7
-1
3
-23
-12
-5
-4
-1
0
-7
-13
8
5
4
2
38
2
2
2
-17
-19
-5
10
0
2
-6
-4
15
43
4
-2
0
-1
0
-2
-1
-4
0
0
-10
-1
-1
1
-1
-5
-7
-7
-21
-5
-2
2
-6
-4
1
-4
-6
-1
-3
-6
15
7
-6
-6
-1
-3
-4
-3
-9
5
0
3
1
0
-4
3
8
2
-4
-2
-9
-3
2
-2
1
-7
-1
1
0
2
2
-1
-2
-21
-2
-1
5
-2
-3
-5
-19
21
-6
-10
-13
-7
2
-1
-8
1
0
5
-3
4
-2
0
18
9
5
2
10
1
-4
-6
-9
-11
-2
3
15
1
-6
-3
-10
2
-5
-2
8
-5
1
3
-15
-27
5
-3
-16
-4
3
5
20
10
1
5
13
5
-9
0
16
23
4
-4
0
-15
3
3
-1
-8
-1
-1
-31
2
0
-2
-4
-8
-8
-3
-4
0
0
1
-11
-3
-1
-2
-2
-3
-1
-3
-8
4
-2
0
-1
5
-1
-1
25
-1
1
-2
-2
-2
1
-4
-18
-4
1
2
18
-2
-13
-3
17
7
-2
-4
-10
-12
5
-1
-40
-11
1
1
6
13
-18
-2
16
17
5
1
-3
-1
-1
-1
11
-5
-4
-2
-5
2
3
3
-2
-7
-2
0
8
0
-2
-2
-6
-2
-3
-2
-9
-2
3
1
15
21
2
1
8
-1
2
4
-13
-7
-3
-3
-15
-2
-3
-1
-17
-11
-3
-7
-12
-3
4
5
12
5
2
6
5
1
7
0
-18
-22
0
-1
2
3
-7
-6
33
25
-1
-2
10
-6
2
-2
0
3
-2
-1
-2
5
-2
-3
0
3
2
-2
-4
-1
-1
2
5
-4
0
-3
3
-4
-7
-8
-27
10
1
2
-5
-7
0
1
38
-6
-6
-7
-7
-2
1
-1
-16
3
6
4
8
4
-1
-3
-5
0
-1
2
3
-1
1
3
2
-8
1
-3
2
-5
8
-1
6
9
4
-6
-14
7
-5
-7
-7
3
-3
3
24
0
-5
-1
-22
-4
-2
4
-7
1
-1
-4
-7
-8
1
3
7
4
-2
1
4
-2
-2
2
10
-2
6
2
6
1
2
-4
-13
-3
0
-6
-12
-15
-2
-1
3
0
1
1
10
-2
0
0
-5
0
-5
-4
-9
13
-2
-5
-6
-6
-5
4
16
-4
-2
-2
-6
1
0
1
-1
6
-1
-3
-1
-3
1
3
12
0
0
-4
-1
0
0
-3
-12
-2
3
1
2
0
-4
-5
-13
-13
-5
0
-4
-5
5
5
16
4
-4
0
-1
4
0
-3
-8
5
4
1
1
1
-3
-6
-11
-13
-1
0
15
-1
0
2
-3
-16
-2
-2
-12
-3
0
-2
15
9
-2
-3
-2
-2
0
-2
-16
2
-4
-1
11
-2
0
2
5
-1
1
3
-4
-2
3
1
-14
4
-4
-3
-3
2
-3
0
0
-1
-2
-2
-1
-2
3
1
-2
-4
-1
-4
-1
10
1
-1
-12
-1
0
3
-1
-5
-6
-2
2
-9
0
-2
-2
-2
0
-1
7
8
2
-2
-4
-1
0
-2
2
5
-1
-2
3
-4
-1
-5
-6
-9
-5
0
0
3
0
-1
11
-1
-3
0
-6
0
-3
-2
-9
-8
2
2
4
0
-2
0
7
14
-1
-2
-2
-2
-1
0
27
13
1
-1
-5
-1
1
-1
-24
-19
-4
-2
2
-1
-1
-4
-10
3
0
1
1
-1
2
7
16
-12
-3
-3
-2
-2
-1
2
2
8
9
0
-3
0
-1
2
4
10
-2
-1
2
-3
2
-1
-5
-14
-1
0
0
0
0
0
3
0
-1
-1
-3
-3
-3
-2
-6
7
-1
-2
2
-2
1
-1
3
7
-2
-1
-1
0
1
-2
-7
-13
-3
-2
0
-1
-3
-1
-9
-11
-2
1
-2
-3
2
2
22
-6
-3
0
0
-1
1
-1
-6
1
0
1
-2
-2
-2
-3
-13
-5
-1
-2
-2
-2
-1
0
-1
-5
-3
-2
-2
1
1
2
-14
7
-4
-3
-2
-4
-3
1
30
11
4
1
9
1
-1
-2
-9
-9
-2
1
0
1
-4
-3
-4
6
3
-1
0
-1
-2
-2
-4
-8
-3
-3
-2
0
-1
-5
-3
3
-1
-2
-1
1
-2
-2
0
0
-3
-3
-3
-1
-2
-2
-2
-3
-3
1
2
-2
-1
-4
-4
-6
-3
-2
-3
1
1
3
3
9
2
-3
-10
1
-2
-2
0
1
2
1
2
-3
-2
-2
-13
-14
0
1
2
3
-3
0
10
16
-3
-2
1
-1
1
2
-10
-22
-7
-2
-6
0
-1
0
12
5
2
-3
5
-2
3
-1
-1
13
4
-2
-17
1
-7
-2
-8
-10
-3
-1
-2
-9
-3
0
13
9
1
-2
1
-3
-5
-7
-21
-6
-3
1
-1
-2
2
1
1
-9
2
1
5
-1
0
-1
2
3
-5
-6
-7
0
4
-4
-2
6
0
-2
-3
0
-3
3
7
2
0
1
-1
-1
0
-2
-19
-2
-5
-2
0
1
-1
-4
-15
-15
4
3
-4
-2
-3
-2
10
3
0
1
6
-2
0
-1
-4
0
-2
-3
-2
0
3
3
9
3
-3
-2
1
-3
-2
-2
-10
-13
-1
1
1
2
-2
-1
0
31
1
3
1
1
-2
-3
4
-15
-2
-3
-3
-2
-4
-2
9
4
-4
-3
-3
-3
1
-1
0
2
6
2
2
-1
1
-1
-8
-4
0
-2
1
3
-2
0
12
7
-1
0
-3
1
2
-2
-9
-11
-4
-2
-2
-3
-1
-3
2
-4
-4
-1
2
4
1
-2
3
-9
0
-1
0
-2
0
3
5
13
1
0
0
0
-3
-4
-7
-2
-1
-1
1
-1
-2
-1
-4
-19
-3
-1
-2
-1
-2
-1
4
29
1
-1
-3
0
-2
1
4
2
0
0
2
-7
1
1
0
-7
0
-1
2
9
0
3
-8
-7
-1
1
1
-1
-3
-5
-2
-11
-1
-2
-3
-4
1
0
0
0
1
-2
-2
1
-3
-1
5
12
1
0
-4
-5
2
1
0
1
0
0
0
0
0
3
0
-11
1
-2
0
0
0
-1
-3
36
0
-1
1
0
0
1
9
-16
-1
0
-3
-3
0
0
5
3
0
-6
-2
1
-5
-1
10
-7
2
4
2
-1
4
0
-11
-38
-4
-2
-1
5
0
-3
14
23
-1
-1
-1
0
-7
2
-5
3
0
-1
2
0
-3
-7
4
-13
-2
-3
-2
-2
-3
-3
-3
4
-2
-1
-3
-1
-1
1
-2
-13
0
1
2
-1
2
-2
2
-11
-3
-2
-4
0
-1
-3
-6
8
-3
-1
1
0
-2
-2
12
7
4
0
1
-1
-1
-1
3
7
-3
-3
-5
-2
1
-2
-2
3
-2
-2
0
-2
-1
-1
-9
-11
9
1
-2
-4
3
-1
-4
7
-2
0
0
0
0
0
-2
-29
-6
2
1
0
-1
-5
14
16
1
-2
-1
0
1
6
8
-4
-21
-10
-4
0
-2
-7
-26
-13
15
2
1
0
-4
-6
-16
5
0
-1
1
-3
-2
-5
-1
1
2
1
-1
0
0
5
9
1
4
-1
-5
-1
-2
3
8
12
-13
-5
5
-2
-5
-10
-5
4
-4
-1
-2
-3
-3
-2
-8
0
-3
-1
-2
-2
0
0
-7
-15
-9
-6
13
-1
-2
-1
-3
-5
1
4
-10
-1
2
4
-4
-10
3
1
5
-1
1
-1
2
1
-2
8
12
4
-1
-4
-2
6
-1
-7
1
0
-4
-6
5
-1
-1
-4
-8
-6
2
9
-5
-1
2
-1
0
1
1
4
-13
-2
-2
1
0
0
2
-5
9
6
1
4
-2
-2
-3
5
-3
-6
-25
-8
-4
-3
-3
0
18
8
25
1
0
0
-2
-4
-26
2
6
-2
-2
-2
7
6
-19
-20
18
7
0
2
-11
-18
11
33
1
-3
-5
-3
-14
-15
-12
-9
-20
-2
-2
-7
13
35
-11
-12
-8
-3
0
3
-3
-3
-1
6
7
3
0
0
2
-8
7
-7
-1
2
-1
2
3
3
6
-13
-4
-6
-8
-2
-8
-27
-8
1
-5
-5
9
-6
-4
13
28
6
-4
5
-12
-4
9
1
40
-18
2
-3
-8
0
-9
-3
-13
17
5
3
16
1
-3
8
-26
4
2
13
11
3
6
1
13
-10
-7
-2
-2
3
-2
11
12
1
2
-2
3
-4
6
4
9
3
1
-1
8
6
-17
-18
5
0
-6
-8
-20
-9
3
10
6
15
4
4
17
2
-9
-1
-28
-17
-5
-3
1
-2
9
11
6
-11
-10
-9
-31
-5
0
-9
-28
-8
1
-4
3
0
-13
-17
4
2
-12
-5
-10
-7
1
0
-4
-11
-10
2
1
-1
5
-4
-6
41
34
6
9
1
-13
18
28
6
17
7
-5
1
11
-8
-40
-12
2
-5
-6
-1
14
22
11
18
4
3
18
3
-7
-25
15
12
-6
-9
-21
0
2
2
7
4
-8
11
7
-1
0
7
14
-4
-4
-1
5
4
-10
-11
-15
-18
-7
-6
-13
-9
3
18
-26
-6
-8
-6
-30
2
8
-32
17
6
4
10
20
8
-11
-3
-1
-4
-8
1
3
-2
-4
-15
-20
-3
3
-1
4
-10
-13
-9
-25
0
-2
-3
5
-1
10
20
30
-12
-7
-10
-16
2
2
2
-30
3
2
-1
-8
4
21
16
26
16
5
0
11
14
0
-26
-16
-11
-6
2
-14
-13
6
9
-2
-47
-26
-12
-10
-1
1
12
18
60
34
12
13
-2
10
7
-3
-17
-9
-8
-11
9
1
-13
-5
15
26
14
25
-1
13
13
25
17
15
-1
0
4
-21
-15
-8
-1
-6
-5
-11
-2
1
0
-15
-18
-9
4
5
6
-6
31
13
-6
-28
1
7
-11
-4
-33
-3
-15
-20
-8
7
-44
-2
3
-10
12
34
-5
-8
21
12
2
-1
5
8
6
13
31
12
2
3
-12
-12
5
40
10
-17
6
0
13
-1
-5
-6
-7
4
3
-7
-24
-43
-22
-16
-46
-24
-26
-14
-3
-8
13
31
-20
3
11
12
14
28
10
-5
52
24
22
-6
7
50
9
-5
9
-40
-24
0
-33
-7
3
8
4
-42
5
-15
-26
-29
-23
-40
-63
24
8
7
-16
-17
-1
9
34
-21
20
10
38
-6
2
34
15
6
-8
-19
-32
9
-8
-51
1
1
-10
-2
15
-24
5
11
-65
-14
-10
-12
-24
43
-5
-52
54
1
-19
-8
9
-5
-8
0
21
42
81
26
61
-13
9
37
5
-41
-40
3
-10
-6
-12
20
-24
28
-27
-4
-63
-32
9
14
-34
28
-15
-4
54
21
-20
-41
25
31
7
30
10
14
21
24
17
-38
-58
-40
-24
12
-13
-28
-53
-44
15
21
-72
-71
-24
24
20
27
-14
-36
61
78
41
2
-54
-31
-44
36
56
0
-2
-42
-57
24
-14
-61
-5
22
4
20
127
10
8
4
-67
-24
5
18
-97
4
4
12
10
-1
-22
-8
102
-4
-59
-15
-16
-47
-6
-4
-61
17
119
23
6
31
-2
-52
-45
-16
5
20
51
-14
-23
-2
5
-23
-13
-39
-52
-47
7
1
-29
-15
4
-16
-78
-40
-13
46
-13
-13
-25
-11
43
27
15
0
29
43
64
3
22
33
12
-29
26
-13
-9
-11
-44
-30
4
32
-29
-30
-44
-21
40
-4
1
47
-42
19
-21
15
-32
-29
-6
-67
35
-3
74
-6
2
16
-9
11
40
-58
-3
22
-9
22
4
57
-100
-19
23
-73
-116
-17
-27
-89
127
101
45
69
59
27
-4
-15
-16
-50
-44
18
121
24
22
-16
-29
-21
7
5
-128
-66
-2
79
-71
-13
-16
-12
-14
25
-16
-37
-23
24
-4
-51
-83
-48
20
59
17
8
-34
75
79
75
8
-65
51
14
69
14
16
-30
-18
-6
-53
-31
-49
13
41
-8
8
12
4
-33
-64
3
-104
-87
-58
-10
-93
33
38
-10
48
58
58
58
56
59
34
23
13
19
-7
-41
55
-11
5
49
17
37
42
11
-19
-25
60
-26
-19
-6
5
-17
-3
-52
-101
-38
-41
-77
-32
27
-128
-83
-32
-6
26
-57
19
-22
-85
114
64
5
-5
60
-39
-19
127
-45
-2
50
78
28
14
74
-97
1
-9
-15
-21
-6
0
-82
-14
-32
22
5
89
12
-9
29
-38
-77
-52
-28
-117
-98
1
-30
-128
15
22
-24
67
64
27
-111
108
66
75
25
40
58
1
42
61
-2
-8
1
-57
-57
-17
-27
33
-69
-58
36
100
11
10
50
-61
-15
-25
-30
-50
-12
3
25
-40
-11
20
-63
-3
-20
-8
-8
-34
23
9
74
48
24
-30
-39
39
56
6
15
14
21
43
22
15
-30
-14
21
19
-9
-1
-3
34
-48
-88
-48
-9
-35
-21
-95
-106
67
60
-10
-49
27
3
-6
76
21
-45
-2
-31
-18
-37
35
55
-52
6
12
18
-14
18
63
-69
47
-46
4
-35
-15
-21
-13
40
-13
-33
-41
-4
-3
32
35
-79
76
66
-18
-30
29
-6
-118
25
25
-29
20
-15
-16
-18
13
78
-83
-55
2
-84
-88
5
127
-128
58
9
17
67
104
-17
-120
127
-3
-14
-41
17
-10
10
91
-21
47
-5
36
-18
-12
0
-42
-81
-23
14
36
-47
-89
-42
-12
-63
-74
-83
-102
42
53
35
19
-62
11
29
-14
16
15
2
5
-9
-20
-91
14
7
2
-26
-6
26
10
-6
-28
6
15
15
4
29
-1
39
31
-11
-48
-5
1
24
-60
26
4
9
-6
2
8
-10
7
23
-19
20
30
16
41
0
1
48
29
68
38
-20
-99
4
39
-18
-26
-8
-16
-14
-24
16
-14
46
12
4
1
5
43
-51
-69
-28
2
-38
-41
-18
-16
-102
26
16
-23
-54
42
26
50
54
79
21
48
65
16
9
8
84
-26
-55
0
20
-13
0
-6
-74
16
-33
-42
54
22
12
20
-10
-1
36
11
5
25
4
42
17
-96
-25
-17
-85
-30
-19
-32
-103
55
4
-6
-40
-26
10
1
23
70
-10
-11
56
31
-5
-2
104
-7
-7
3
2
-3
0
58
-10
-21
36
10
-128
-35
-8
-53
-49
11
41
-5
75
42
8
18
79
16
62
14
-25
-5
-9
-34
-9
-6
-36
-10
15
-55
2
33
8
23
58
-12
32
29
27
31
-53
-7
-27
17
-27
-13
-13
-13
59
-2
68
-8
-32
-6
1
1
-28
53
19
33
58
25
-10
-29
78
-20
-47
-8
-10
-26
-8
36
-65
-37
-14
-7
-25
-26
16
43
-44
6
2
-23
-5
-43
-4
71
57
29
56
21
71
80
12
-89
63
22
-11
4
0
-3
26
76
14
1
41
20
2
-19
-20
43
-18
-123
-51
14
-33
-16
1
-20
-110
57
31
-6
-111
-44
-1
43
11
-20
10
-33
19
34
-9
65
-46
78
5
6
69
13
-31
-96
112
-45
-3
20
-4
2
24
14
-76
-33
-46
-19
-20
-23
-26
-31
-96
7
-21
21
-3
8
4
-16
4
-22
31
22
-64
-64
2
54
-80
46
-23
-27
31
90
13
-61
78
-34
4
9
38
5
3
-8
-7
-3
-87
-2
-55
-47
-25
10
22
-48
14
-9
21
13
10
-18
-25
74
31
28
16
-7
-10
-1
48
-74
-73
-51
-106
-98
7
8
-128
46
6
11
100
83
51
73
110
14
74
75
13
15
-16
-79
31
-22
-77
-61
-49
-6
-16
9
-13
-20
-2
-2
-43
-21
13
36
-78
-29
-7
0
-87
-70
-46
-78
-30
81
-6
-41
-14
22
18
2
57
8
17
55
51
23
-2
13
20
-41
-5
18
-6
23
-5
17
15
-11
-29
-38
33
-1
9
-24
-8
-20
-42
-12
11
8
4
20
-22
8
12
3
-62
-61
-27
-10
-25
5
-50
27
53
-94
-18
-31
26
-25
20
-24
101
67
21
28
7
29
-48
-18
-8
-2
22
58
19
-21
-21
-3
8
-43
-20
-71
-19
-3
24
-6
-8
33
34
-3
-39
21
-19
21
-64
-56
-52
-45
73
-31
-30
-69
-11
-19
14
88
-47
-1
66
41
-8
26
11
-76
-37
25
21
2
23
19
-10
31
126
24
-12
-12
-28
-29
-1
1
-20
-47
-16
18
-3
14
-19
-74
-43
21
-18
7
8
-32
22
127
-57
7
-1
-45
-59
-20
-35
-119
30
55
21
25
40
53
11
28
53
-26
-12
-7
-90
-15
-6
5
-7
-32
-10
-33
32
-5
-6
32
-23
-4
-21
25
41
-21
9
39
-49
-12
22
-5
-12
32
32
-11
37
10
-8
14
-2
-4
-32
-46
-9
5
8
-60
-34
-2
1
-3
19
11
45
-13
-10
-2
-4
-3
7
-19
18
19
-3
-30
5
14
-56
-21
-21
19
22
25
3
-19
4
26
12
21
15
-3
-3
40
30
-18
37
-2
15
15
-10
-55
5
30
-13
21
-37
-34
-5
-21
-36
-8
38
-10
26
15
10
-7
55
-18
0
-5
-23
-28
6
8
3
54
-15
-3
73
83
1
52
50
-26
-11
3
-17
-25
4
-37
-35
-4
-33
-7
-15
-23
-6
-9
-37
8
18
-3
-33
6
4
1
26
-22
21
12
-13
-7
0
27
-54
-30
-7
28
-25
-25
-25
-27
-28
37
19
-20
45
2
6
19
24
-9
15
28
19
29
0
-13
22
-6
-23
-56
2
-10
1
-9
-28
-26
-34
-13
-16
-7
-3
20
-5
0
-7
-17
-25
-53
-20
-69
-28
47
57
56
39
48
21
-14
51
21
-36
-20
11
16
13
64
56
-30
28
-38
-48
-10
-18
-4
-11
-23
-23
11
-3
-16
-20
-2
-116
-13
4
9
-10
-25
2
-3
26
37
63
4
27
39
28
40
70
-1
-3
30
36
-24
-13
-4
-83
23
-3
-42
11
35
1
-10
62
-18
3
26
-51
-20
-6
-11
-80
-12
-14
-17
4
46
0
-21
66
2
-21
36
-9
-20
-11
7
16
-10
16
-7
-28
-9
3
10
-50
10
-20
-2
23
-16
-3
42
-26
-80
-29
5
-50
-13
10
9
-66
35
108
-18
-29
22
3
-78
8
24
-66
28
37
19
-38
-21
67
-61
-85
-23
-2
3
43
51
1
26
12
16
-76
-57
-25
13
-41
-16
-30
-22
18
27
16
-3
6
12
76
59
15
-6
0
4
6
7
-10
-34
-22
-7
-22
-43
5
4
-3
27
-4
-4
2
-4
-26
11
1
-34
43
14
-9
22
27
-32
-34
-37
-41
-21
32
56
-123
0
34
10
-8
-54
-31
-60
109
91
36
-19
60
97
35
31
71
5
12
18
2
-21
-12
15
-31
-41
-11
14
-16
-11
-6
21
-44
-23
-49
-11
-13
-22
-5
-23
-78
-17
17
-5
-3
-22
-10
-24
-31
-8
-6
-36
31
3
8
38
27
-42
-11
-6
-104
-48
-14
-43
-29
55
-47
28
70
84
15
-39
45
-22
-22
-4
39
-18
-29
19
32
-10
-65
-5
-7
-18
-6
-20
-24
6
17
25
60
22
22
3
67
-13
6
-34
-13
-3
-6
18
-25
9
2
26
-35
-15
-26
-28
-37
-41
-7
-18
2
-1
29
21
-75
33
-19
-8
18
41
49
36
115
31
51
15
19
24
-18
6
12
-10
-20
-5
-6
-11
-3
-12
-40
-8
27
13
-41
-49
-36
-41
-2
-19
-24
2
3
-20
-5
-6
-82
7
12
2
-7
25
12
-14
21
36
-30
0
29
-6
-5
23
75
14
-9
-17
-16
1
0
-7
15
20
29
-33
-18
19
-12
57
21
-34
21
-15
-30
-17
-2
-48
-100
-36
-27
-4
36
-31
8
-9
1
21
-8
19
-7
10
4
36
-23
19
17
15
-55
14
3
-54
20
-15
19
-19
88
63
-1
31
85
53
46
38
-26
-12
1
-18
-35
-49
-58
-18
19
6
-5
11
23
-21
-1
-6
1
-46
-10
17
-53
-15
-14
-16
-76
-19
7
-18
-90
-21
0
22
45
35
15
20
33
27
8
15
2
-27
1
4
69
6
41
14
66
46
31
-6
48
34
19
-10
37
24
8
8
27
-38
-26
-20
-32
-12
-7
17
-128
13
71
-8
-105
-67
-39
-41
44
-9
-26
-8
62
33
-1
37
21
-9
-17
15
-11
-27
18
2
-3
4
-7
-40
8
5
-5
-11
-49
-14
41
38
8
-10
25
-18
-2
6
-3
-10
-21
-28
-24
-10
17
78
63
-11
24
38
7
43
34
-60
-57
10
-24
-16
-9
9
-83
12
-9
3
-26
-6
8
1
40
-1
1
4
31
11
-7
-30
50
-32
-19
-7
-14
2
4
75
-27
-17
22
36
-18
-31
-8
-48
2
19
-63
-59
-54
-20
-23
-47
-63
34
69
51
88
86
36
26
-37
7
-55
-24
-22
-35
-9
11
69
13
14
-1
-17
-12
-3
19
54
-92
-93
0
6
21
1
31
-55
0
3
50
-50
-26
-23
-86
-44
0
-38
-36
18
2
14
-14
4
8
26
33
18
22
14
3
9
9
15
-64
-15
-21
-16
-37
14
-23
-9
0
16
2
5
57
-28
-32
36
24
-12
-26
-5
-11
-27
48
23
-9
26
-33
-14
-37
54
4
37
18
122
99
37
78
13
30
3
-19
-22
-30
-16
-57
-9
-49
-6
12
-45
-35
-22
-18
-53
16
25
47
18
48
12
6
33
-17
-46
-51
14
-4
-14
-6
12
-41
-96
-26
2
-12
2
14
-55
9
90
1
-9
-12
-13
34
44
-39
-45
-37
-36
-35
-28
-62
0
81
56
61
54
84
58
59
6
5
11
-14
-36
-15
-5
-12
32
26
2
-7
42
28
17
37
-4
-24
-43
18
-1
1
0
10
0
-44
14
25
-78
-46
-6
-20
-53
-64
-5
-76
24
-3
-9
-41
-57
17
-9
39
1
5
-11
-22
59
67
46
-22
-24
11
7
-12
19
25
-31
-69
16
-37
-21
-50
9
-29
-35
21
-68
3
-2
44
-38
-35
-15
27
1
-15
-24
-65
-38
-1
-10
-7
-6
-16
2
40
-42
-5
70
-9
39
9
-16
-43
40
49
75
54
15
2
23
41
87
8
-37
-20
0
-1
3
14
15
-18
-10
-2
-39
-13
-2
11
-36
-41
-18
25
1
2
-10
12
-118
-13
-20
-4
-15
-27
-8
-60
33
48
25
35
5
-4
8
80
108
-20
18
-27
-36
50
20
14
-76
-96
-60
19
-28
-29
13
-16
-42
111
89
5
53
32
-13
28
105
-64
29
26
-22
-14
-15
-72
-96
-28
-7
-36
11
-18
12
15
-33
-17
-73
-35
-58
-18
15
78
-42
-64
-6
-24
49
27
-15
-74
-46
45
63
10
12
2
-11
-17
61
4
5
28
18
-5
0
-2
13
-9
6
33
9
-14
-2
27
1
37
7
-37
11
15
14
40
-15
40
48
-12
-59
-6
-6
-1
4
-24
-5
-26
33
17
1
-11
-9
-26
32
-8
-77
-13
6
3
24
80
32
-17
12
34
5
63
80
-24
-34
20
24
3
3
0
-128
14
19
-16
-6
-8
13
47
-22
-4
-9
15
0
-18
-31
-48
-56
-94
-68
-7
-17
-35
7
-10
-125
58
-6
-53
-38
14
-3
-22
92
-1
-13
3
69
24
7
10
54
8
-14
52
66
27
11
6
30
33
-62
-24
-108
-32
-5
-6
-13
-18
-17
27
-2
-24
3
22
-60
-16
-2
-9
-12
-31
-36
-60
-44
-29
0
-6
21
34
9
-51
-26
47
-49
-3
14
18
13
21
86
-40
-82
-30
-11
-16
-2
34
-13
-33
10
-15
-16
-7
-15
-33
-20
4
-7
19
-31
-24
9
43
-45
-109
-2
-3
-68
-71
-24
2
-128
84
-13
-16
-16
48
-12
40
83
-9
14
9
34
14
-11
38
-24
-9
-41
-13
2
1
0
-24
-28
-50
52
-15
-23
-24
18
17
-48
5
38
7
5
-15
2
3
5
-1
18
-11
-1
4
-7
-26
-14
41
9
17
21
9
-3
4
23
-23
-23
22
32
16
-5
36
37
-23
-9
-51
19
-3
1
-46
8
-8
-84
-20
-31
-18
-11
-13
13
19
67
10
8
4
-7
-30
-15
-29
13
38
37
47
13
-34
-108
-66
65
49
25
20
12
-16
51
54
-77
-44
-28
8
7
0
-4
-7
-60
-9
30
4
-24
-17
24
17
-9
-19
9
-21
-13
20
-5
-13
12
19
-6
0
8
-29
-56
-8
39
33
1
-6
1
10
1
6
40
0
-17
5
21
3
6
1
-8
5
-23
-32
-21
-17
-46
23
-12
10
75
52
20
-17
38
-18
10
36
-14
-21
-2
13
-13
18
33
-13
-21
-36
-22
-18
-47
19
-1
3
7
52
9
-3
88
-8
29
28
-10
-41
5
42
-62
17
18
-31
-5
18
9
-44
16
-18
-21
-1
41
24
-3
48
57
54
15
0
-47
-52
0
24
-30
-39
-89
-17
28
20
-12
-79
-38
29
56
16
-36
-6
6
20
35
15
66
59
39
13
-13
-22
-82
-26
-42
-43
38
23
13
0
127
10
-4
-4
-20
-19
7
56
-62
-36
29
-35
-36
-19
-2
17
-107
10
-29
1
-52
-1
-10
-68
111
-21
68
11
22
-40
10
87
6
-6
-27
-39
-61
34
-30
-89
2
-7
-33
41
28
-13
-7
96
101
42
20
3
15
20
24
17
-58
-10
-26
10
13
9
9
49
-98
-78
-36
-11
36
-31
-22
-2
-128
11
-4
7
-110
-44
5
-18
69
109
30
17
80
48
32
88
78
-7
10
5
11
0
-9
-25
-99
-6
-11
-37
-42
-5
3
28
-128
-43
-10
33
38
15
7
-16
-110
-80
-24
-31
-94
-115
-26
-55
-99
76
73
-6
69
114
44
23
111
42
-7
-5
47
-6
-12
-24
53
24
9
11
46
24
2
14
-5
-57
-25
-56
-55
-11
-13
23
-26
-85
-22
10
-100
-89
-23
-47
-128
31
34
-17
81
-12
-7
-1
52
11
-5
-12
-6
81
42
0
71
15
59
38
16
23
14
37
-12
-13
-56
-32
-31
-23
-31
-20
-5
-7
3
43
6
-21
5
1
-5
0
-26
-38
-19
-25
-2
1
-38
-11
-23
19
31
3
-5
1
-25
12
6
-31
41
23
-23
-69
34
31
34
14
-14
15
-2
73
92
6
6
6
21
-6
17
1
-33
-12
-57
0
-50
11
-2
18
-8
-14
-67
-20
-3
-54
-23
-23
-114
-25
-16
2
-27
30
19
56
37
24
30
28
10
5
-27
-24
15
4
33
-31
11
-9
6
-8
-4
27
69
-11
-26
6
-14
34
-11
-38
-48
-17
-49
-46
10
-39
-120
-14
15
35
51
21
24
36
63
10
27
-15
41
3
-25
-70
-40
-9
16
27
19
24
3
-25
88
7
-11
-39
-29
-6
0
40
7
0
1
19
-1
-15
-9
-12
-28
-5
-30
-23
-8
-38
-1
43
-43
-6
2
-35
59
69
19
-17
10
40
-18
32
2
-4
-16
-13
62
3
-8
24
-5
2
-3
14
-29
-14
13
-36
13
-9
-29
0
21
-6
-36
24
-52
-16
19
-42
-58
-15
21
-10
1
15
25
-35
-79
1
-10
-21
-15
-6
-36
-22
70
19
-31
14
29
24
23
31
27
-1
11
-3
-7
-9
0
-13
6
-36
-37
-3
-1
-6
-3
-15
-50
-5
25
-22
-23
-16
-21
-68
-61
28
-13
8
4
13
-9
-3
44
2
8
28
-16
-22
-9
-22
22
-18
7
-4
0
-16
-11
-11
-33
5
-1
-10
8
-2
32
11
7
8
1
12
-21
4
1
-15
22
5
10
19
12
29
19
49
5
-3
34
3
17
-33
-25
-15
-9
-4
-19
-21
18
27
-8
-21
43
30
41
27
14
3
33
22
46
5
-6
15
-9
23
-5
4
-12
-3
5
-8
1
-44
-65
11
-17
-31
15
-7
-40
-6
40
-31
-84
-21
-50
2
-2
19
45
16
-44
32
36
-5
64
22
-32
-31
92
1
-11
13
-13
2
33
35
5
3
13
5
14
5
-33
-16
-18
-6
9
15
-19
-13
-12
21
-11
-12
-41
-31
-35
-37
6
9
-10
1
-2
6
-6
12
14
-11
4
-4
-14
-21
3
-15
5
14
-22
3
17
6
-28
5
-4
-5
23
-5
-1
10
25
7
-1
-11
-19
2
-7
3
-2
16
-3
21
17
-10
-28
-31
-20
-28
-3
15
-25
-14
-2
-6
10
1
-20
-53
-50
24
26
15
0
1
3
16
83
-5
-5
-27
-15
3
6
-19
-15
-5
3
36
14
7
9
10
-10
0
12
-24
-21
-13
-40
-11
-1
-5
-10
3
-22
-26
9
-1
-32
2
-1
9
16
23
23
-2
10
-9
-17
-2
-2
5
7
-28
-7
20
25
-2
16
8
0
1
34
-9
-19
-9
-19
-21
0
27
-15
4
2
7
-3
-2
-30
-33
19
-2
0
7
2
2
11
20
-10
-5
-14
-18
1
10
11
8
10
-5
-6
-1
-11
-13
-18
-59
-15
-1
2
16
-8
-16
0
30
-5
1
1
-15
9
23
-3
3
-12
2
12
20
3
1
-8
-4
26
-6
-10
-3
-11
-9
-6
8
-19
1
6
-21
-3
2
-1
7
-3
0
1
13
6
-12
-11
-6
-7
7
3
-14
1
1
15
12
13
-7
-2
-9
-13
-11
3
-4
-8
5
3
27
3
15
14
16
5
-5
-6
-14
1
-7
-25
7
-3
1
-10
-7
3
2
1
-40
5
10
10
39
-10
-8
25
59
9
-2
-7
-32
4
13
8
-19
-7
-4
-21
3
-8
-3
-5
-22
-3
-1
3
16
15
-2
-11
10
3
-12
-6
-12
-9
-6
-21
-11
-13
0
-3
-17
-17
-3
20
10
5
1
0
8
1
-3
-8
-5
3
1
-2
0
-6
4
10
18
5
1
0
-14
-5
1
-2
-3
-11
0
4
12
8
5
-1
-1
3
6
6
9
13
-12
-16
-9
-4
-4
-8
-8
5
-1
4
-7
3
-2
-4
6
5
2
7
1
-4
-4
2
-11
-14
-4
-8
-17
-6
1
-2
-4
14
-1
2
8
4
-8
-3
9
-8
-3
-4
1
-2
1
6
-10
5
-5
-4
-24
-2
2
0
-25
-1
1
12
3
1
-4
-3
8
2
2
0
15
0
4
-2
13
-7
0
-7
-30
-3
7
3
1
0
0
6
25
0
-10
-2
-21
-15
-5
-8
-4
1
0
4
-10
8
-2
4
10
-1
0
-1
-4
3
1
-5
-1
2
2
-2
-1
14
-6
-3
-24
-5
1
3
61
0
0
-3
-12
-3
1
2
-43
-13
0
13
31
-4
-3
-7
-26
-3
-1
-4
17
12
0
1
15
-1
1
-1
-5
-4
4
-3
-6
6
-3
-13
-11
-7
1
-1
-14
-14
1
4
-11
-1
-13
0
18
-4
3
-5
25
-9
-9
-2
66
22
-7
-10
-17
-3
13
0
8
12
1
9
15
11
-19
1
-2
16
-5
-8
16
-1
11
-8
-47
-36
-6
5
-12
-5
-2
-5
-1
-8
-3
-6
-14
4
-10
1
35
0
0
-5
9
-7
9
-3
-29
-1
0
-3
-34
-4
4
1
27
5
-3
-3
-9
3
-5
0
-13
-5
-4
0
-11
1
-2
-14
-12
14
1
-2
-11
-2
-2
5
30
-9
5
4
8
4
2
2
7
16
-2
-7
-10
-2
-8
-3
0
7
1
-1
-10
-10
-2
6
-22
-23
-6
2
22
1
3
-5
-13
-19
-8
-7
-24
-3
-7
3
7
21
1
-1
7
-7
3
-3
10
-3
0
-1
10
10
5
5
-3
1
-1
-3
-33
-2
-15
-6
-24
6
-3
-1
6
-1
0
-1
-8
16
2
-1
6
1
14
2
-6
-26
8
-6
8
-6
-15
-4
-25
-8
3
14
28
2
3
-2
-24
-57
-11
-2
-4
4
1
3
-21
32
-3
-4
-6
-3
-2
-2
46
22
3
-8
7
-5
14
0
-54
-19
-4
-2
-4
2
2
-1
32
13
3
-2
-1
-2
1
-3
-59
-44
-7
5
4
3
-1
-7
-36
11
-3
1
10
-5
-4
12
56
63
7
-6
-20
-8
-4
0
8
-22
-1
2
5
2
0
2
22
-19
-1
2
0
-5
7
4
-24
8
2
3
3
4
-4
-5
-7
17
-2
-11
2
-4
2
-7
18
-12
0
8
7
-3
-4
-2
-9
-19
-1
-1
-13
3
3
-1
-31
-11
-4
12
7
7
-4
2
14
15
0
2
13
-1
-1
-2
-16
0
-1
-12
-33
-4
2
2
58
48
6
4
-6
-5
-2
-1
-42
-44
-7
1
18
7
-1
3
24
-7
4
1
-12
0
4
-10
-3
17
-5
-5
18
0
-3
0
17
-14
-2
4
1
-1
-3
-4
9
14
-3
-7
-17
-6
1
2
11
5
-4
2
16
-1
1
2
3
0
-3
-10
1
-3
-2
-2
-19
4
0
9
-2
2
-5
-1
6
0
3
1
-9
-2
-2
-8
-13
-43
-3
-6
-19
3
-1
2
-13
-8
-1
-2
-8
-6
-1
2
12
62
3
-1
8
-3
2
-1
-8
-31
-4
0
23
2
-5
-4
1
29
6
7
-17
2
2
0
7
-19
-1
-4
-8
-2
-1
-2
7
-16
-1
-2
5
1
-1
-1
17
3
-3
-4
-1
-1
2
4
-26
-17
-3
-4
3
-4
0
-2
17
27
4
-4
-11
2
3
-2
-4
0
-4
-1
0
1
1
3
18
-22
2
2
3
3
-5
-2
-23
-24
-5
-1
2
-1
-2
2
18
15
1
2
-5
-1
0
-3
-24
-30
-3
-3
-6
0
-5
-8
20
34
0
-5
-20
-7
8
6
-11
6
1
13
50
4
-4
-4
-11
-3
-5
2
-10
0
0
-4
3
-10
0
1
11
2
-3
-5
-17
-19
0
-4
-14
-3
-1
-4
12
2
0
-3
3
-1
-3
-2
-3
7
-6
-2
5
-2
4
7
11
-1
-1
5
0
4
0
-3
-27
-4
0
-3
-20
-2
-5
-2
31
11
-2
-2
-3
-10
0
1
-5
-3
1
1
2
0
-4
-3
2
-2
-3
-6
-13
-4
-4
-3
-34
-14
-1
0
16
-3
-2
0
23
14
2
-3
-44
0
5
2
-4
8
3
2
6
5
-2
-4
10
-9
-6
-4
6
-1
0
2
-16
15
-2
0
9
-1
0
-2
-11
-12
0
1
8
2
5
3
20
9
3
-1
0
-2
-1
-4
-21
3
-1
1
-5
-2
1
0
9
-5
4
4
6
4
-3
-8
-19
-12
-3
-7
-3
-2
3
4
22
15
-2
-7
12
-1
0
3
-8
-3
4
1
-17
2
1
-5
18
5
-4
4
4
-1
-4
-2
-22
-21
-5
-4
-15
-4
0
0
-10
5
2
3
4
1
-2
1
28
4
-2
-9
10
-3
1
3
-18
-13
-1
-2
0
2
2
2
-1
13
2
-1
-4
-1
-6
-5
38
-2
-4
-3
-6
-1
-4
-4
-34
-21
-6
-2
-2
-4
-2
1
7
16
3
0
0
-1
2
0
-7
-28
-1
0
-14
0
1
6
3
18
2
1
-1
-3
2
-3
5
-20
-4
-3
2
4
-1
6
14
16
3
7
0
4
1
-1
-4
2
-2
-2
4
0
-4
1
-6
-8
-3
1
-1
-1
0
0
-7
3
2
6
0
-1
-4
0
5
-4
-2
-10
-16
-5
-1
2
11
6
-7
-15
8
-6
2
-7
-12
-2
2
18
18
9
0
2
-17
-9
1
5
15
-1
2
0
7
11
-1
-5
-10
-4
1
0
21
-5
-4
6
26
3
-3
-2
6
-12
-4
-10
-5
-4
-1
-3
-16
-16
-2
0
-6
0
3
2
11
9
-7
-3
-6
1
-2
-7
-31
5
6
-3
-5
-1
0
5
-16
3
0
-1
0
-1
0
-2
23
7
4
-1
3
-1
-3
0
9
-2
-3
-2
-6
-1
-4
-6
-5
-1
-5
-1
-4
-4
-1
-1
-24
-14
-4
-1
-6
-1
-1
1
-4
2
-1
-1
0
-9
0
-1
5
-3
3
-1
20
8
0
4
-1
4
-3
2
-20
1
1
1
-7
-6
4
1
0
0
1
-3
3
1
-4
-2
0
2
-1
0
-13
-3
0
-1
1
-5
0
-2
18
-18
-1
-2
2
1
0
-2
-8
20
-1
-1
0
6
-2
3
4
9
1
-1
4
-3
-4
-2
2
-1
-3
-3
-4
-3
0
-2
-26
-12
1
2
1
-2
4
2
22
-9
0
-4
-10
-2
-1
3
0
16
4
1
-1
1
0
-3
12
-7
-2
2
0
0
-2
-1
-8
-7
-6
-5
0
-1
-3
-4
-2
-1
0
1
6
0
0
1
-8
7
2
0
-7
1
-3
-1
18
4
-1
-5
-5
-5
-1
0
6
-1
-2
0
10
0
-2
0
-17
3
1
0
-2
1
-5
-6
6
-13
-3
-2
0
-2
-1
2
15
11
-7
-1
3
-1
-1
-2
5
2
3
2
-2
0
0
-3
-10
-8
0
-3
-2
-4
-1
0
-4
4
2
-2
-1
3
-2
-2
-22
-12
0
0
9
-2
-5
-3
25
19
-1
-1
-16
2
-5
-2
9
-7
-4
0
0
-5
-1
-1
-7
-2
-2
4
3
0
0
-4
-18
-8
1
-1
8
-3
1
-2
2
1
-1
-5
-2
-2
3
0
-5
-1
-2
-1
-2
-1
-1
0
19
4
-1
-4
2
-1
-2
-6
-44
-3
1
2
-1
1
1
0
-23
-18
-2
0
-4
-1
-1
5
30
29
-1
-5
-7
-3
-1
-1
0
-1
-4
-4
1
0
-1
-3
2
-4
1
1
-5
-1
-2
-1
-3
-1
0
0
1
0
-1
-4
-16
-10
-4
-6
-3
-1
3
5
4
5
-1
0
-1
-2
-3
0
-3
0
-6
-2
-6
-2
1
-5
3
1
5
3
7
1
0
-2
3
0
0
0
-1
-2
-2
-2
-18
-12
-2
-1
-2
-2
2
-3
0
3
-2
2
-3
1
-1
2
10
7
-1
-1
5
-4
-2
-4
-1
-10
-3
2
2
6
-1
-4
-12
-7
-3
2
-1
-3
0
-2
13
2
3
-2
-6
0
-3
0
-1
8
0
2
-1
-2
0
-3
0
-1
0
-1
0
-1
0
-1
2
3
0
1
-1
1
-2
0
-5
-2
-1
0
3
-3
0
-1
2
-5
-4
-2
15
1
-3
2
1
7
0
0
-27
-1
-1
-2
3
-3
-1
0
-4
1
1
5
-11
1
-1
0
-7
-2
-4
0
7
2
-2
-2
2
-1
0
-9
-14
-3
0
-2
7
-3
0
2
6
-10
-3
-3
-3
-3
-1
-2
2
13
2
-2
-3
1
0
1
-4
0
-4
-3
-3
-1
-2
1
-5
-8
-1
0
5
0
1
-1
1
7
1
1
-6
-2
1
-5
9
-11
-2
-2
0
-2
-1
0
-3
7
-3
-5
-8
-1
0
0
-5
-3
0
1
2
0
-2
-3
-3
-6
3
-2
2
-3
-1
7
-6
-12
-1
3
3
3
3
2
10
19
2
4
-1
1
-3
-1
-19
-15
-6
-4
-1
-7
2
-1
10
1
-4
-10
-10
4
-4
-1
-17
-2
-2
9
12
4
0
1
-7
-2
-4
-1
-1
1
-2
-4
-5
-3
2
1
0
-2
2
0
-10
-8
-1
-2
2
-1
-2
-7
13
0
0
-4
-8
-2
1
1
4
5
0
-1
-3
-2
-1
2
-4
-4
-3
0
5
2
-2
-3
-8
-4
-4
-3
-5
-2
0
1
14
17
9
0
-4
0
-2
3
-12
-12
-5
0
0
1
0
0
10
4
1
-1
-1
0
-1
4
-1
9
-4
1
-2
3
0
-6
-11
-15
-2
-1
0
3
1
-2
1
1
5
2
0
-1
1
4
7
-1
0
0
2
2
-2
-2
2
5
2
1
2
-2
-1
1
-4
4
-4
-3
-3
-4
2
-1
-4
-10
-4
-3
-5
0
2
-5
2
9
-1
3
9
0
-2
-6
14
6
2
5
-1
0
-5
-4
1
0
-6
-6
-6
-4
-1
7
4
-2
1
0
-1
1
-2
6
-7
-13
-2
-2
-1
-1
0
2
-10
-6
-2
-3
0
-2
0
-8
12
-7
0
-1
-2
-2
-3
-1
6
15
3
-1
-6
-4
-2
4
2
4
-4
-1
-1
-1
-1
-1
7
1
-8
-6
-3
-14
2
5
-11
-12
15
3
2
10
2
-17
-27
-10
0
0
6
6
0
-2
0
-4
-2
-3
-8
3
-3
1
-3
18
1
3
0
1
-2
5
7
-3
-13
-7
-4
-10
-2
1
4
-1
-3
-3
5
-6
-2
-6
4
-5
1
1
5
3
1
-8
-15
-3
-1
-1
-16
-5
-1
10
1
12
-1
-3
0
6
8
5
3
3
0
0
-6
3
-6
-8
-1
-16
-8
-4
10
-2
0
-1
-3
-8
0
-1
-1
1
4
4
9
2
1
5
-16
-12
-4
-8
-12
0
-3
-1
2
6
-7
-6
-14
5
-4
-3
5
-2
1
3
-16
-3
6
-2
0
2
1
-15
4
-3
-6
-5
-6
1
-1
4
-11
-3
-4
-2
1
-6
5
10
24
19
2
5
3
-4
-1
0
42
-10
0
-2
1
7
10
21
-45
-11
-10
-3
2
7
-20
-38
9
0
4
3
-3
3
2
15
-6
-12
9
4
17
-2
-1
-3
5
16
2
3
-10
-15
4
-3
10
7
2
7
7
-3
7
-10
-8
0
0
-9
-14
3
4
1
5
-12
-2
1
9
5
-3
2
-1
8
-12
-6
-16
-6
-5
8
7
-5
9
-5
10
3
-7
-9
-5
5
-1
12
-14
-3
0
3
-6
-2
2
8
10
1
-3
7
-3
9
0
3
11
5
-18
-36
13
9
-8
-7
11
-8
-9
-24
-23
-11
-5
-7
1
-9
6
7
5
9
4
-2
-14
1
-8
-3
-33
-12
-15
-2
12
-26
0
6
25
7
-5
-4
-10
29
18
17
28
-4
16
-2
4
11
4
5
-3
12
12
-1
-20
-9
-14
-8
6
4
1
2
27
-14
-21
-27
-67
-11
-1
1
-29
-26
11
22
32
0
-29
-13
-10
19
-4
-2
-26
6
16
2
-10
9
2
-21
15
-20
-2
-11
13
8
-10
18
-4
-2
-12
-12
-46
-20
-25
-8
-14
-19
3
24
35
-10
41
2
-12
-5
-15
1
-5
-9
-35
-7
-11
14
13
0
-32
3
98
40
39
5
4
14
71
58
-46
-19
-28
6
-17
-13
1
-27
-22
-9
12
-3
6
-7
-42
-7
12
0
4
-5
-5
2
10
-4
23
19
-12
-9
14
0
-7
11
19
17
9
25
31
15
9
7
-43
-33
17
19
0
4
31
-20
-34
-17
1
-33
-32
-9
-39
3
-1
30
-5
23
6
-5
22
-71
-7
-32
-34
1
-13
-9
-18
34
42
7
10
-5
-6
1
6
79
-26
-6
-6
-1
13
6
-11
-30
17
-5
6
-12
-7
2
5
-11
4
4
21
15
0
1
76
-10
-2
-25
-32
-34
-34
-25
-96
-46
17
-5
4
17
24
28
39
35
-31
33
2
19
-1
21
18
-31
12
18
-7
-11
-13
-26
-54
-36
4
-3
24
-28
-18
-20
28
111
44
22
11
-25
58
18
28
34
-95
-41
-3
17
-12
-31
-29
-50
15
-7
-31
11
13
20
-15
-42
25
42
-11
-22
-18
5
31
39
3
27
2
16
-18
-20
-27
-6
-11
-45
21
0
1
7
40
-29
9
3
25
-19
-10
-13
-51
42
-22
5
-31
-3
-2
-10
19
-23
-11
-4
-18
-4
-11
0
4
-4
11
-11
-23
-27
-7
-3
-35
21
-1
28
13
-14
-6
1
35
2
-5
-24
7
17
6
-11
-22
-35
-29
14
20
18
13
23
77
1
24
18
22
-15
-8
-41
-121
-21
1
-2
32
11
3
2
46
53
-6
-18
-62
-5
21
33
-22
-59
-25
-9
27
3
-15
-13
-45
12
-54
-41
-25
-28
-25
20
62
-33
72
103
25
-11
-13
-28
11
37
18
18
29
83
66
35
3
19
39
-25
-16
-19
-25
-50
3
20
-18
-30
11
20
4
38
-6
15
-71
24
-11
-16
1
38
50
-70
-32
-34
-17
-39
-28
-30
-61
-40
41
55
24
12
-12
-8
-1
-1
41
-17
-45
-19
3
-22
4
45
-20
42
-4
11
-26
-14
61
-21
-18
-20
18
-5
12
-12
-36
-20
-16
-16
-12
7
7
32
18
37
54
55
21
-14
-15
-8
6
21
-4
-42
0
-53
-47
2
-58
-24
4
35
20
93
83
35
50
-19
-48
-40
-56
-48
-32
-6
29
-79
24
78
21
45
61
19
-42
106
15
-71
-22
26
25
3
-7
45
-41
-21
67
-15
-46
-22
26
-58
-20
17
-38
-46
-23
-9
-85
-46
28
-83
21
19
14
-1
51
75
10
45
-48
-25
3
-16
-9
-21
-3
-47
0
-16
-19
-16
8
6
2
7
-17
11
3
25
-3
-87
-52
-14
-5
39
-59
3
61
-26
7
-6
71
31
88
-3
-20
118
33
14
-49
-44
-52
1
82
-83
-10
-8
-13
-10
10
4
-69
74
29
26
17
31
33
21
18
67
-8
-12
6
8
-9
0
20
-100
-11
27
21
-7
-24
-13
-20
-11
52
11
-26
-5
-13
-9
35
11
-27
-11
-47
-72
-14
-4
-55
-69
-21
-2
-9
-13
-3
13
-10
-27
47
23
-1
50
26
3
-17
93
-3
9
37
25
6
-18
57
43
-6
-10
-11
-21
-3
-4
21
-24
-24
-21
-2
4
-17
11
-17
-53
-45
-17
-33
-46
-29
-20
-38
-41
29
9
53
26
28
9
2
87
4
-5
-39
8
20
2
47
20
39
16
-14
-37
-27
-18
52
54
-11
2
14
2
3
17
52
-8
-24
-21
20
5
-11
-9
-21
-61
-35
-14
-41
31
27
9
-18
-60
-15
-16
-1
17
-1
13
-8
7
30
6
-8
-17
-6
0
26
38
-10
9
41
2
-2
-15
-41
-11
-7
-3
33
-11
-20
0
-7
26
-4
-21
-39
10
-2
-9
-9
-34
-21
9
-4
-18
-14
-12
-40
-35
-3
-14
-32
-7
19
36
51
-19
-46
16
24
-5
3
-22
-39
35
24
38
-2
13
28
14
-24
30
-18
-26
11
16
-28
-14
-19
2
-30
6
-7
3
11
4
29
-41
-8
-1
-30
2
2
-4
3
-108
12
-10
6
-9
-7
11
-12
49
2
33
27
-31
-3
-15
-21
103
17
19
4
35
3
12
21
-20
-1
-41
-29
-28
6
-12
61
-23
-24
-4
46
1
-11
-8
-11
-8
29
3
-12
17
26
25
-24
-13
-1
-8
-15
-32
-28
-23
-27
-1
-39
-7
51
-22
-24
13
61
-2
75
31
1
1
-6
-27
1
21
-15
0
15
32
26
14
37
-13
7
-64
-26
-13
-11
4
2
27
7
16
23
34
-21
-25
-40
-44
-11
3
5
-10
35
32
-19
-16
-45
-6
-6
-8
-42
-4
30
-72
32
41
6
33
63
12
14
91
-3
-1
6
11
5
-30
-92
-8
-11
-17
-11
10
-9
-4
33
23
4
8
-14
-9
2
1
2
-58
-37
1
-7
-57
-49
-12
-28
-56
9
-23
-27
30
14
24
-1
51
31
26
37
25
13
-24
4
45
-9
-2
-35
-34
9
16
-25
-13
-6
-25
-14
18
-32
-15
38
-53
-23
-45
-23
-61
-27
1
-3
-53
6
-18
-12
22
18
-21
-122
24
33
5
67
22
6
24
64
93
21
-6
10
20
14
-4
-49
24
-11
34
2
1
-2
11
65
-5
-23
-45
-21
-49
-43
-8
31
-128
11
-17
-22
-28
-8
-16
8
127
18
0
15
28
36
1
-30
-28
-10
14
26
-1
3
18
8
-17
-21
-6
-34
14
4
9
39
-9
-8
8
26
-5
-14
-1
-52
-24
25
10
-33
-24
-3
-2
36
-8
16
9
-1
-14
-3
-4
-37
-17
-3
-12
-1
8
-10
-5
-37
77
-11
-18
3
0
-15
-33
-5
-21
-16
2
30
-13
36
31
45
-13
20
10
-46
-14
-3
-2
-12
42
-16
5
23
20
4
20
45
-69
0
-12
-41
-40
-8
-19
-69
-1
16
-6
29
30
-17
-47
-6
74
8
26
16
-7
-8
-7
2
15
-19
0
-5
-26
-14
8
-6
-51
-8
-21
-42
-38
-5
33
19
-26
-16
22
29
34
12
-2
-6
8
44
16
-39
-3
15
-10
14
85
-10
-25
10
-13
-23
-9
13
-43
-18
-52
15
46
29
2
-41
-38
5
62
0
-34
-8
20
39
25
-12
-24
23
10
-11
-11
85
-68
17
42
15
4
10
-17
-91
87
11
9
1
-20
-4
22
11
-6
-19
-57
-30
8
19
4
28
-60
-7
27
38
22
15
2
-16
11
-12
-4
-49
7
-4
-15
2
-11
-11
19
60
21
-13
-20
14
-34
22
-47
-78
-118
-62
-16
-3
12
-6
6
0
39
24
6
-83
-62
-2
1
2
20
33
19
14
63
26
20
15
-1
-17
-21
14
46
-14
8
0
-3
-20
-5
-27
-50
-10
-41
27
-18
-21
-18
25
-3
5
-16
-11
-28
9
30
-15
-14
35
40
45
23
9
26
72
54
-33
-12
-59
-14
16
-20
-64
-80
17
6
18
35
7
5
-65
80
-1
21
10
17
-2
4
61
-15
-52
-11
-14
-5
11
-11
-32
-24
36
-41
-8
-14
-41
8
-14
-27
11
14
38
8
33
14
16
43
0
-24
-46
-5
-8
-14
3
-30
14
20
-7
29
17
-7
-41
13
-47
9
50
21
-12
2
22
-58
45
36
-48
-40
-18
-8
-3
86
-28
-59
-11
4
0
2
19
-62
3
9
0
2
8
-9
26
-6
8
53
8
53
4
-26
-20
106
-7
-15
1
5
-24
43
61
-65
7
-5
-29
-52
47
25
-30
59
-16
-38
-39
7
-11
-11
26
-47
-2
11
30
-22
-3
-20
-32
-18
-26
-23
-22
56
20
2
-36
-14
-4
2
46
-14
-32
7
27
-3
3
11
-39
-2
12
-9
-36
-14
23
3
-12
-9
-26
-6
49
54
-29
-14
4
-29
20
-13
-44
-88
3
-28
37
13
2
-15
-35
5
41
29
-22
21
1
26
46
91
-24
-11
-22
15
14
-1
-13
-26
24
-27
-19
-29
-19
3
13
-1
-27
14
41
31
6
12
30
-66
-14
3
13
-49
-27
-13
-49
-70
10
-14
-11
5
8
-5
-35
86
20
-13
8
4
9
-2
37
37
1
11
14
15
-15
-1
-11
10
-1
2
-9
8
2
8
34
-21
-37
-20
-33
-16
-5
16
5
-67
0
4
30
-7
-24
-35
-17
1
18
2
-39
-11
22
18
3
28
20
38
25
-11
-7
-12
0
23
4
5
25
7
19
33
19
6
-20
-4
-32
14
14
3
11
-32
10
6
22
9
-22
-37
-21
8
-16
-22
-16
16
15
-1
7
16
0
-7
15
-18
-22
-11
31
-59
-19
-16
-5
-62
-51
-22
-68
42
33
26
-34
59
62
15
31
58
-11
27
-8
-28
5
3
17
-57
14
6
44
35
16
5
12
-17
-31
4
-11
-68
-69
-8
-49
-90
18
37
-9
66
25
-2
-10
42
-4
-31
13
11
7
9
-25
21
17
9
-36
-16
0
-3
25
21
-31
40
66
30
5
40
98
-110
-39
-14
-77
-115
-62
-61
-115
8
78
10
37
63
58
30
63
49
-21
1
-14
19
-5
-16
15
-80
13
12
18
-3
20
-14
25
3
-40
-43
20
-26
-59
-3
-4
-94
-56
-21
-24
24
6
10
-9
-56
65
-8
-11
-3
9
-2
-63
93
20
16
-18
1
16
7
5
48
-3
-1
36
8
-17
-8
10
-23
-20
-44
-14
-24
-12
-14
-14
-21
-3
18
-27
30
25
18
7
33
5
-3
-11
35
21
-6
-3
28
-7
-6
-10
-41
-28
-13
20
-28
2
8
15
-16
-25
-16
-48
0
-2
-5
-2
18
5
7
-4
-10
6
10
23
-9
-1
2
25
-1
16
14
10
7
19
6
27
61
3
6
-12
-18
-19
10
21
-5
-20
-8
-1
15
-3
-47
-61
-13
6
-1
7
-11
23
36
3
-2
-2
-7
0
10
17
20
15
-70
8
-1
1
3
14
-11
5
65
-2
11
12
-15
-17
12
-20
-39
0
-10
-20
11
-12
-34
3
95
-6
7
3
13
9
-17
-9
-31
-7
4
-18
-9
-4
25
-21
-15
-12
-36
18
-43
-13
10
48
-25
-25
16
-25
69
0
-7
3
-115
26
-7
-2
-5
42
14
-36
92
1
20
27
-1
-14
-21
26
2
-7
-2
-3
33
-5
-2
17
-6
-19
-19
-25
-58
-35
-7
-20
-34
56
-3
-3
17
29
24
25
3
-17
-25
-22
8
2
-8
6
-32
-3
23
36
-26
-13
-4
-18
32
3
-28
0
9
-5
17
28
27
-17
22
-12
-2
-14
-13
-3
-84
-5
-21
13
-9
8
-18
-53
-16
39
27
-6
13
13
26
5
99
-10
-6
-17
-10
8
-14
-24
-22
-21
-22
17
-5
-11
11
30
-6
-18
-3
2
-31
-26
5
77
