-0.8646064204894811
-0.10187630528098861
-0.23922924281993982
-0.8646064204894811
-0.10187630528098861
-0.23922924281993982
-0.8646064204894811
-0.10187630528098861
-0.23922924281993982
-0.8646064204894811
-0.10187630528098861
-0.23922924281993982
-0.865751724639171
-0.1017293164848412
-0.23972222221588227
-0.865751724639171
-0.1017293164848412
-0.23972222221588227
-0.865751724639171
-0.1017293164848412
-0.23972222221588227
-0.865751724639171
-0.1017293164848412
-0.23972222221588227
-0.8663490441666517
-0.10124445987078731
-0.2399484958346553
-0.8663490441666517
-0.10124445987078731
-0.2399484958346553
-0.8663490441666517
-0.10124445987078731
-0.2399484958346553
-0.8663490441666517
-0.10124445987078731
-0.2399484958346553
-0.8672290582885875
-0.10068263914485245
-0.24021277002727906
-0.8672290582885875
-0.10068263914485245
-0.24021277002727906
-0.8672290582885875
-0.10068263914485245
-0.24021277002727906
-0.8672290582885875
-0.10068263914485245
-0.24021277002727906
-0.8682315713324202
-0.10008151271227324
-0.2403551446593379
-0.8682315713324202
-0.10008151271227324
-0.2403551446593379
-0.8682315713324202
-0.10008151271227324
-0.2403551446593379
-0.8682315713324202
-0.10008151271227324
-0.2403551446593379
-0.8698365416687727
-0.10022729054381879
-0.23988585728680317
-0.8698365416687727
-0.10022729054381879
-0.23988585728680317
-0.8698365416687727
-0.10022729054381879
-0.23988585728680317
-0.8698365416687727
-0.10022729054381879
-0.23988585728680317
-0.8714367345532414
-0.10081496634889811
-0.23949619064728056
-0.8714367345532414
-0.10081496634889811
-0.23949619064728056
-0.8714367345532414
-0.10081496634889811
-0.23949619064728056
-0.8714367345532414
-0.10081496634889811
-0.23949619064728056
-0.8722836961666107
-0.10142140751914577
-0.23879919811401212
-0.8722836961666107
-0.10142140751914577
-0.23879919811401212
-0.8722836961666107
-0.10142140751914577
-0.23879919811401212
-0.8722836961666107
-0.10142140751914577
-0.23879919811401212
-0.8723720354295358
-0.10227341301046565
-0.23828156746954277
-0.8723720354295358
-0.10227341301046565
-0.23828156746954277
-0.8723720354295358
-0.10227341301046565
-0.23828156746954277
-0.8723720354295358
-0.10227341301046565
-0.23828156746954277
-0.8729869062352982
-0.10290852986719777
-0.23771788071085936
-0.8729869062352982
-0.10290852986719777
-0.23771788071085936
-0.8729869062352982
-0.10290852986719777
-0.23771788071085936
-0.8729869062352982
-0.10290852986719777
-0.23771788071085936
-0.8727070473028313
-0.10310493682317722
-0.2373575135056419
-0.8727070473028313
-0.10310493682317722
-0.2373575135056419
-0.8727070473028313
-0.10310493682317722
-0.2373575135056419
-0.8727070473028313
-0.10310493682317722
-0.2373575135056419
-0.872787560170495
-0.1035049783768939
-0.23703203026405004
-0.872787560170495
-0.1035049783768939
-0.23703203026405004
-0.872787560170495
-0.1035049783768939
-0.23703203026405004
-0.872787560170495
-0.1035049783768939
-0.23703203026405004
-0.8729127725050725
-0.10358394372838498
-0.23658681332729195
-0.8729127725050725
-0.10358394372838498
-0.23658681332729195
-0.8729127725050725
-0.10358394372838498
-0.23658681332729195
-0.8729127725050725
-0.10358394372838498
-0.23658681332729195
-0.8725266621865096
-0.10332733648525211
-0.23615891762141758
-0.8725266621865096
-0.10332733648525211
-0.23615891762141758
-0.8725266621865096
-0.10332733648525211
-0.23615891762141758
-0.8725266621865096
-0.10332733648525211
-0.23615891762141758
-0.8724160340412722
-0.10331696435005162
-0.23617072253621665
-0.8724160340412722
-0.10331696435005162
-0.23617072253621665
-0.8724160340412722
-0.10331696435005162
-0.23617072253621665
-0.8724160340412722
-0.10331696435005162
-0.23617072253621665
-0.8724042266582402
-0.1033674402593097
-0.23628135314968712
-0.8724042266582402
-0.1033674402593097
-0.23628135314968712
-0.8724042266582402
-0.1033674402593097
-0.23628135314968712
-0.8724042266582402
-0.1033674402593097
-0.23628135314968712
-0.8725044253192968
-0.10348785169500606
-0.2362187924465489
-0.8725044253192968
-0.10348785169500606
-0.2362187924465489
-0.8725044253192968
-0.10348785169500606
-0.2362187924465489
-0.8725044253192968
-0.10348785169500606
-0.2362187924465489
-0.8725044253192968
-0.10348785169500606
-0.2362187924465489
-0.8725044253192968
-0.10348785169500606
-0.2362187924465489
-0.8725044253192968
-0.10348785169500606
-0.2362187924465489
-0.8725044253192968
-0.10348785169500606
-0.2362187924465489
-0.8726595107345967
-0.10317718861458382
-0.23608725133493796
-0.8726595107345967
-0.10317718861458382
-0.23608725133493796
-0.8726595107345967
-0.10317718861458382
-0.23608725133493796
-0.8726595107345967
-0.10317718861458382
-0.23608725133493796
-0.873104699234684
-0.1031812473104129
-0.23596209188440184
-0.873104699234684
-0.1031812473104129
-0.23596209188440184
-0.873104699234684
-0.1031812473104129
-0.23596209188440184
-0.873104699234684
-0.1031812473104129
-0.23596209188440184
-0.8732153088770157
-0.10319160739552471
-0.23595029636310313
-0.8732153088770157
-0.10319160739552471
-0.23595029636310313
-0.8732153088770157
-0.10319160739552471
-0.23595029636310313
-0.8732153088770157
-0.10319160739552471
-0.23595029636310313
-0.8732153088770157
-0.10319160739552471
-0.23595029636310313
-0.8732153088770157
-0.10319160739552471
-0.23595029636310313
-0.8732153088770157
-0.10319160739552471
-0.23595029636310313
-0.8732153088770157
-0.10319160739552471
-0.23595029636310313
-0.8727820893239542
-0.10375848858111318
-0.2355600107039491
-0.8727820893239542
-0.10375848858111318
-0.2355600107039491
-0.8727820893239542
-0.10375848858111318
-0.2355600107039491
-0.8727820893239542
-0.10375848858111318
-0.2355600107039491
-0.8736169769381525
-0.10482059806030128
-0.23411390459483367
-0.8736169769381525
-0.10482059806030128
-0.23411390459483367
-0.8736169769381525
-0.10482059806030128
-0.23411390459483367
-0.8736169769381525
-0.10482059806030128
-0.23411390459483367
-0.8761849446081149
-0.10613420944026884
-0.23268383581483063
-0.8761849446081149
-0.10613420944026884
-0.23268383581483063
-0.8761849446081149
-0.10613420944026884
-0.23268383581483063
-0.8761849446081149
-0.10613420944026884
-0.23268383581483063
-0.8786426426624656
-0.10605917840548806
-0.23122253170020088
-0.8786426426624656
-0.10605917840548806
-0.23122253170020088
-0.8786426426624656
-0.10605917840548806
-0.23122253170020088
-0.8786426426624656
-0.10605917840548806
-0.23122253170020088
-0.8800413827797187
-0.10552465702526825
-0.22996980769434136
-0.8800413827797187
-0.10552465702526825
-0.22996980769434136
-0.8800413827797187
-0.10552465702526825
-0.22996980769434136
-0.8800413827797187
-0.10552465702526825
-0.22996980769434136
-0.8809263851224072
-0.10515696295180814
-0.2286525079477982
-0.8809263851224072
-0.10515696295180814
-0.2286525079477982
-0.8809263851224072
-0.10515696295180814
-0.2286525079477982
-0.8809263851224072
-0.10515696295180814
-0.2286525079477982
-0.8813806732474361
-0.10485310292418654
-0.22702740055066004
-0.8813806732474361
-0.10485310292418654
-0.22702740055066004
-0.8813806732474361
-0.10485310292418654
-0.22702740055066004
-0.8813806732474361
-0.10485310292418654
-0.22702740055066004
-0.8799424322426438
-0.10553777114492238
-0.22574842068175383
-0.8799424322426438
-0.10553777114492238
-0.22574842068175383
-0.8799424322426438
-0.10553777114492238
-0.22574842068175383
-0.8799424322426438
-0.10553777114492238
-0.22574842068175383
-0.8766598980889139
-0.10710692375218296
-0.22515262316460896
-0.8766598980889139
-0.10710692375218296
-0.22515262316460896
-0.8766598980889139
-0.10710692375218296
-0.22515262316460896
-0.8766598980889139
-0.10710692375218296
-0.22515262316460896
-0.8741456128076928
-0.10941623455717296
-0.2250411321032502
-0.8741456128076928
-0.10941623455717296
-0.2250411321032502
-0.8741456128076928
-0.10941623455717296
-0.2250411321032502
-0.8741456128076928
-0.10941623455717296
-0.2250411321032502
-0.8740338585810272
-0.1120522020605576
-0.22463451178785676
-0.8740338585810272
-0.1120522020605576
-0.22463451178785676
-0.8740338585810272
-0.1120522020605576
-0.22463451178785676
-0.8740338585810272
-0.1120522020605576
-0.22463451178785676
-0.8768031546134886
-0.11503197116748008
-0.2232498174091849
-0.8768031546134886
-0.11503197116748008
-0.2232498174091849
-0.8768031546134886
-0.11503197116748008
-0.2232498174091849
-0.8768031546134886
-0.11503197116748008
-0.2232498174091849
-0.8809867519567731
-0.11865224683004956
-0.22194510982213225
-0.8809867519567731
-0.11865224683004956
-0.22194510982213225
-0.8809867519567731
-0.11865224683004956
-0.22194510982213225
-0.8809867519567731
-0.11865224683004956
-0.22194510982213225
-0.8831007735428144
-0.12137746869398021
-0.22107023816153487
-0.8831007735428144
-0.12137746869398021
-0.22107023816153487
-0.8831007735428144
-0.12137746869398021
-0.22107023816153487
-0.8831007735428144
-0.12137746869398021
-0.22107023816153487
-0.8825425478767109
-0.12285228158447016
-0.22119764806432457
-0.8825425478767109
-0.12285228158447016
-0.22119764806432457
-0.8825425478767109
-0.12285228158447016
-0.22119764806432457
-0.8825425478767109
-0.12285228158447016
-0.22119764806432457
-0.8806298286514916
-0.12323993187597514
-0.22200091421662047
-0.8806298286514916
-0.12323993187597514
-0.22200091421662047
-0.8806298286514916
-0.12323993187597514
-0.22200091421662047
-0.8806298286514916
-0.12323993187597514
-0.22200091421662047
-0.8795362245784958
-0.12327422896944693
-0.22267944638868872
-0.8795362245784958
-0.12327422896944693
-0.22267944638868872
-0.8795362245784958
-0.12327422896944693
-0.22267944638868872
-0.8795362245784958
-0.12327422896944693
-0.22267944638868872
-0.8794983357994839
-0.12342660433978515
-0.2230117349466837
-0.8794983357994839
-0.12342660433978515
-0.2230117349466837
-0.8794983357994839
-0.12342660433978515
-0.2230117349466837
-0.8794983357994839
-0.12342660433978515
-0.2230117349466837
-0.8796349894018879
-0.12354982222197454
-0.2232297699246876
-0.8796349894018879
-0.12354982222197454
-0.2232297699246876
-0.8796349894018879
-0.12354982222197454
-0.2232297699246876
-0.8796349894018879
-0.12354982222197454
-0.2232297699246876
-0.879036773241199
-0.12391965064272331
-0.22333013373682226
-0.879036773241199
-0.12391965064272331
-0.22333013373682226
-0.879036773241199
-0.12391965064272331
-0.22333013373682226
-0.879036773241199
-0.12391965064272331
-0.22333013373682226
-0.8780952030989645
-0.12386897230709971
-0.2235021106335471
-0.8780952030989645
-0.12386897230709971
-0.2235021106335471
-0.8780952030989645
-0.12386897230709971
-0.2235021106335471
-0.8780952030989645
-0.12386897230709971
-0.2235021106335471
-0.8774263237698803
-0.12384894688630481
-0.22365789903418862
-0.8774263237698803
-0.12384894688630481
-0.22365789903418862
-0.8774263237698803
-0.12384894688630481
-0.22365789903418862
-0.8774263237698803
-0.12384894688630481
-0.22365789903418862
-0.8764245280255887
-0.12389539817489129
-0.22376959893550585
-0.8764245280255887
-0.12389539817489129
-0.22376959893550585
-0.8764245280255887
-0.12389539817489129
-0.22376959893550585
-0.8764245280255887
-0.12389539817489129
-0.22376959893550585
-0.8751086492603759
-0.12369424553499297
-0.22402119934701267
-0.8751086492603759
-0.12369424553499297
-0.22402119934701267
-0.8751086492603759
-0.12369424553499297
-0.22402119934701267
-0.8751086492603759
-0.12369424553499297
-0.22402119934701267
-0.8743242708957877
-0.12310185807645768
-0.22443472427281294
-0.8743242708957877
-0.12310185807645768
-0.22443472427281294
-0.8743242708957877
-0.12310185807645768
-0.22443472427281294
-0.8743242708957877
-0.12310185807645768
-0.22443472427281294
-0.8740090919919667
-0.12235089682764952
-0.22465763732748795
-0.8740090919919667
-0.12235089682764952
-0.22465763732748795
-0.8740090919919667
-0.12235089682764952
-0.22465763732748795
-0.8740090919919667
-0.12235089682764952
-0.22465763732748795
-0.873661929746791
-0.12136723126327477
-0.22497265833425917
-0.873661929746791
-0.12136723126327477
-0.22497265833425917
-0.873661929746791
-0.12136723126327477
-0.22497265833425917
-0.873661929746791
-0.12136723126327477
-0.22497265833425917
-0.8725482468014231
-0.12030270937448488
-0.22534343853819822
-0.8725482468014231
-0.12030270937448488
-0.22534343853819822
-0.8725482468014231
-0.12030270937448488
-0.22534343853819822
-0.8725482468014231
-0.12030270937448488
-0.22534343853819822
-0.8712067980766683
-0.11948364947349938
-0.22544347945122512
-0.8712067980766683
-0.11948364947349938
-0.22544347945122512
-0.8712067980766683
-0.11948364947349938
-0.22544347945122512
-0.8712067980766683
-0.11948364947349938
-0.22544347945122512
-0.8692509212685116
-0.11871536600694746
-0.22554424150257255
-0.8692509212685116
-0.11871536600694746
-0.22554424150257255
-0.8692509212685116
-0.11871536600694746
-0.22554424150257255
-0.8692509212685116
-0.11871536600694746
-0.22554424150257255
-0.8670362011515597
-0.11757506710876424
-0.22608254763277472
-0.8670362011515597
-0.11757506710876424
-0.22608254763277472
-0.8670362011515597
-0.11757506710876424
-0.22608254763277472
-0.8670362011515597
-0.11757506710876424
-0.22608254763277472
-0.8649881298943136
-0.11622453840071183
-0.22698873164455116
-0.8649881298943136
-0.11622453840071183
-0.22698873164455116
-0.8649881298943136
-0.11622453840071183
-0.22698873164455116
-0.8649881298943136
-0.11622453840071183
-0.22698873164455116
-0.8634140435669122
-0.11508317768321803
-0.22791371269122426
-0.8634140435669122
-0.11508317768321803
-0.22791371269122426
-0.8634140435669122
-0.11508317768321803
-0.22791371269122426
-0.8634140435669122
-0.11508317768321803
-0.22791371269122426
-0.863342111272142
-0.11428049645214108
-0.2288224254839334
-0.863342111272142
-0.11428049645214108
-0.2288224254839334
-0.863342111272142
-0.11428049645214108
-0.2288224254839334
-0.863342111272142
-0.11428049645214108
-0.2288224254839334
-0.8640605449486616
-0.11396401591241781
-0.2293753708556227
-0.8640605449486616
-0.11396401591241781
-0.2293753708556227
-0.8640605449486616
-0.11396401591241781
-0.2293753708556227
-0.8640605449486616
-0.11396401591241781
-0.2293753708556227
-0.8645981032850536
-0.11384652960527736
-0.2298302053498856
-0.8645981032850536
-0.11384652960527736
-0.2298302053498856
-0.8645981032850536
-0.11384652960527736
-0.2298302053498856
-0.8645981032850536
-0.11384652960527736
-0.2298302053498856
-0.8640399560128335
-0.11433627243686743
-0.22988993977068806
-0.8640399560128335
-0.11433627243686743
-0.22988993977068806
-0.8640399560128335
-0.11433627243686743
-0.22988993977068806
-0.8640399560128335
-0.11433627243686743
-0.22988993977068806
-0.8630260052165134
-0.11493251919450446
-0.2300277948681699
-0.8630260052165134
-0.11493251919450446
-0.2300277948681699
-0.8630260052165134
-0.11493251919450446
-0.2300277948681699
-0.8630260052165134
-0.11493251919450446
-0.2300277948681699
-0.8624075852181398
-0.11552032127843541
-0.2300281888827608
-0.8624075852181398
-0.11552032127843541
-0.2300281888827608
-0.8624075852181398
-0.11552032127843541
-0.2300281888827608
-0.8624075852181398
-0.11552032127843541
-0.2300281888827608
-0.861984850056904
-0.11592009223941871
-0.22985448552014584
-0.861984850056904
-0.11592009223941871
-0.22985448552014584
-0.861984850056904
-0.11592009223941871
-0.22985448552014584
-0.861984850056904
-0.11592009223941871
-0.22985448552014584
-0.8620959236585899
-0.11592985362551854
-0.22984218203014337
-0.8620959236585899
-0.11592985362551854
-0.22984218203014337
-0.8620959236585899
-0.11592985362551854
-0.22984218203014337
-0.8620959236585899
-0.11592985362551854
-0.22984218203014337
-0.8626627018638078
-0.11583314052218688
-0.22975175761926367
-0.8626627018638078
-0.11583314052218688
-0.22975175761926367
-0.8626627018638078
-0.11583314052218688
-0.22975175761926367
-0.8626627018638078
-0.11583314052218688
-0.22975175761926367
-0.862851014733146
-0.11546375734392514
-0.23006123110201626
-0.862851014733146
-0.11546375734392514
-0.23006123110201626
-0.862851014733146
-0.11546375734392514
-0.23006123110201626
-0.862851014733146
-0.11546375734392514
-0.23006123110201626
-0.8621920919388015
-0.11476615738852151
-0.230505260954122
-0.8621920919388015
-0.11476615738852151
-0.230505260954122
-0.8621920919388015
-0.11476615738852151
-0.230505260954122
-0.8621920919388015
-0.11476615738852151
-0.230505260954122
-0.8616953378684469
-0.11465415980048373
-0.23070560314571492
-0.8616953378684469
-0.11465415980048373
-0.23070560314571492
-0.8616953378684469
-0.11465415980048373
-0.23070560314571492
-0.8616953378684469
-0.11465415980048373
-0.23070560314571492
-0.8615440324239192
-0.1145218096355989
-0.2307580927598797
-0.8615440324239192
-0.1145218096355989
-0.2307580927598797
-0.8615440324239192
-0.1145218096355989
-0.2307580927598797
-0.8615440324239192
-0.1145218096355989
-0.2307580927598797
-0.8615440324239192
-0.1145218096355989
-0.2307580927598797
-0.8615440324239192
-0.1145218096355989
-0.2307580927598797
-0.8615440324239192
-0.1145218096355989
-0.2307580927598797
-0.8615440324239192
-0.1145218096355989
-0.2307580927598797
-0.8615440324239192
-0.1145218096355989
-0.2307580927598797
-0.8615440324239192
-0.1145218096355989
-0.2307580927598797
-0.8615440324239192
-0.1145218096355989
-0.2307580927598797
-0.8615440324239192
-0.1145218096355989
-0.2307580927598797
-0.8615440324239192
-0.1145218096355989
-0.2307580927598797
-0.8615440324239192
-0.1145218096355989
-0.2307580927598797
-0.8615440324239192
-0.1145218096355989
-0.2307580927598797
-0.8615440324239192
-0.1145218096355989
-0.2307580927598797
-0.8613236965186768
-0.11399876763757681
-0.2308621372475213
-0.8613236965186768
-0.11399876763757681
-0.2308621372475213
-0.8613236965186768
-0.11399876763757681
-0.2308621372475213
-0.8613236965186768
-0.11399876763757681
-0.2308621372475213
-0.8608112731058702
-0.11366451000751751
-0.2308802571967757
-0.8608112731058702
-0.11366451000751751
-0.2308802571967757
-0.8608112731058702
-0.11366451000751751
-0.2308802571967757
-0.8608112731058702
-0.11366451000751751
-0.2308802571967757
-0.8604500841818615
-0.11346260202344996
-0.23084589646253964
-0.8604500841818615
-0.11346260202344996
-0.23084589646253964
-0.8604500841818615
-0.11346260202344996
-0.23084589646253964
-0.8604500841818615
-0.11346260202344996
-0.23084589646253964
-0.8604500841818615
-0.11346260202344996
-0.23084589646253964
-0.8604500841818615
-0.11346260202344996
-0.23084589646253964
-0.8604500841818615
-0.11346260202344996
-0.23084589646253964
-0.8604500841818615
-0.11346260202344996
-0.23084589646253964
-0.8604500841818615
-0.11346260202344996
-0.23084589646253964
-0.8604500841818615
-0.11346260202344996
-0.23084589646253964
-0.8604500841818615
-0.11346260202344996
-0.23084589646253964
-0.8604500841818615
-0.11346260202344996
-0.23084589646253964
-0.860976555104433
-0.11324375623041325
-0.2307962863230229
-0.860976555104433
-0.11324375623041325
-0.2307962863230229
-0.860976555104433
-0.11324375623041325
-0.2307962863230229
-0.860976555104433
-0.11324375623041325
-0.2307962863230229
-0.860976555104433
-0.11324375623041325
-0.2307962863230229
-0.860976555104433
-0.11324375623041325
-0.2307962863230229
-0.860976555104433
-0.11324375623041325
-0.2307962863230229
-0.860976555104433
-0.11324375623041325
-0.2307962863230229
-0.860865491539812
-0.11323386650572836
-0.23080845618479578
-0.860865491539812
-0.11323386650572836
-0.23080845618479578
-0.8604921332522896
-0.1130817302785289
-0.23088509771980098
-0.8604921332522896
-0.1130817302785289
-0.23088509771980098
-0.8604921332522896
-0.1130817302785289
-0.23088509771980098
-0.8604921332522896
-0.1130817302785289
-0.23088509771980098
-0.85992332487031
-0.11311743608241044
-0.23113596992178156
-0.85992332487031
-0.11311743608241044
-0.23113596992178156
-0.85992332487031
-0.11311743608241044
-0.23113596992178156
-0.85992332487031
-0.11311743608241044
-0.23113596992178156
-0.8595034832660247
-0.11322474172132437
-0.23149577278154593
-0.8595034832660247
-0.11322474172132437
-0.23149577278154593
-0.8595034832660247
-0.11322474172132437
-0.23149577278154593
-0.8595034832660247
-0.11322474172132437
-0.23149577278154593
-0.860045760359069
-0.11322805760225954
-0.23162818736553897
-0.860045760359069
-0.11322805760225954
-0.23162818736553897
-0.860045760359069
-0.11322805760225954
-0.23162818736553897
-0.860045760359069
-0.11322805760225954
-0.23162818736553897
-0.8600557681113048
-0.1131176867752218
-0.23167825161834976
-0.8600557681113048
-0.1131176867752218
-0.23167825161834976
-0.8600557681113048
-0.1131176867752218
-0.23167825161834976
-0.8600557681113048
-0.1131176867752218
-0.23167825161834976
-0.8602069238902184
-0.1126861757483842
-0.23186635241228698
-0.8602069238902184
-0.1126861757483842
-0.23186635241228698
-0.8602069238902184
-0.1126861757483842
-0.23186635241228698
-0.8602069238902184
-0.1126861757483842
-0.23186635241228698
-0.8605272558870638
-0.11210583326639585
-0.2322636354139196
-0.8605272558870638
-0.11210583326639585
-0.2322636354139196
-0.8605272558870638
-0.11210583326639585
-0.2322636354139196
-0.8605272558870638
-0.11210583326639585
-0.2322636354139196
-0.861047396448758
-0.11104580591882236
-0.23302065851972445
-0.861047396448758
-0.11104580591882236
-0.23302065851972445
-0.861047396448758
-0.11104580591882236
-0.23302065851972445
-0.861047396448758
-0.11104580591882236
-0.23302065851972445
-0.8625179390450985
-0.10993282206665995
-0.2336634876445818
-0.8625179390450985
-0.10993282206665995
-0.2336634876445818
-0.8625179390450985
-0.10993282206665995
-0.2336634876445818
-0.8625179390450985
-0.10993282206665995
-0.2336634876445818
-0.8645514794220012
-0.10845287972402146
-0.23392704502865339
-0.8645514794220012
-0.10845287972402146
-0.23392704502865339
-0.8645514794220012
-0.10845287972402146
-0.23392704502865339
-0.8645514794220012
-0.10845287972402146
-0.23392704502865339
-0.8659830876948118
-0.1064077877962972
-0.23432340851995298
-0.8659830876948118
-0.1064077877962972
-0.23432340851995298
-0.8659830876948118
-0.1064077877962972
-0.23432340851995298
-0.8659830876948118
-0.1064077877962972
-0.23432340851995298
-0.865737360295113
-0.1044296986669388
-0.23508404051024748
-0.865737360295113
-0.1044296986669388
-0.23508404051024748
-0.865737360295113
-0.1044296986669388
-0.23508404051024748
-0.865737360295113
-0.1044296986669388
-0.23508404051024748
-0.8634272947065723
-0.10285597024522321
-0.23647089999462093
-0.8634272947065723
-0.10285597024522321
-0.23647089999462093
-0.8634272947065723
-0.10285597024522321
-0.23647089999462093
-0.8634272947065723
-0.10285597024522321
-0.23647089999462093
-0.8601914411294631
-0.10182325632190088
-0.23844011641710172
-0.8601914411294631
-0.10182325632190088
-0.23844011641710172
-0.8601914411294631
-0.10182325632190088
-0.23844011641710172
-0.8601914411294631
-0.10182325632190088
-0.23844011641710172
-0.857877531421742
-0.10137353271870433
-0.2405171279416857
-0.857877531421742
-0.10137353271870433
-0.2405171279416857
-0.857877531421742
-0.10137353271870433
-0.2405171279416857
-0.857877531421742
-0.10137353271870433
-0.2405171279416857
-0.8570562079650601
-0.10177172350249557
-0.24251260954646822
-0.8570562079650601
-0.10177172350249557
-0.24251260954646822
-0.8570562079650601
-0.10177172350249557
-0.24251260954646822
-0.8570562079650601
-0.10177172350249557
-0.24251260954646822
-0.8570012149046209
-0.10237920948256794
-0.244137810378428
-0.8570012149046209
-0.10237920948256794
-0.244137810378428
-0.8570012149046209
-0.10237920948256794
-0.244137810378428
-0.8570012149046209
-0.10237920948256794
-0.244137810378428
-0.85734281456379
-0.1032529101830606
-0.2459214638806315
-0.85734281456379
-0.1032529101830606
-0.2459214638806315
-0.85734281456379
-0.1032529101830606
-0.2459214638806315
-0.85734281456379
-0.1032529101830606
-0.2459214638806315
-0.8580776439885606
-0.10412284323152247
-0.24756903535986158
-0.8580776439885606
-0.10412284323152247
-0.24756903535986158
-0.8580776439885606
-0.10412284323152247
-0.24756903535986158
-0.8580776439885606
-0.10412284323152247
-0.24756903535986158
-0.8587874221788949
-0.1050039743231483
-0.2486614334669337
-0.8587874221788949
-0.1050039743231483
-0.2486614334669337
-0.8587874221788949
-0.1050039743231483
-0.2486614334669337
-0.8587874221788949
-0.1050039743231483
-0.2486614334669337
-0.8593069004128097
-0.1053219384468354
-0.2494726449348316
-0.8593069004128097
-0.1053219384468354
-0.2494726449348316
-0.8593069004128097
-0.1053219384468354
-0.2494726449348316
-0.8593069004128097
-0.1053219384468354
-0.2494726449348316
-0.8591696672333734
-0.10528881134340529
-0.2500283168408836
-0.8591696672333734
-0.10528881134340529
-0.2500283168408836
-0.8591696672333734
-0.10528881134340529
-0.2500283168408836
-0.8591696672333734
-0.10528881134340529
-0.2500283168408836
-0.8582651152670561
-0.10489291463130986
-0.2503404723198403
-0.8582651152670561
-0.10489291463130986
-0.2503404723198403
-0.8582651152670561
-0.10489291463130986
-0.2503404723198403
-0.8582651152670561
-0.10489291463130986
-0.2503404723198403
-0.8573720100779849
-0.10438639870458663
-0.2507020795009171
-0.8573720100779849
-0.10438639870458663
-0.2507020795009171
-0.8573720100779849
-0.10438639870458663
-0.2507020795009171
-0.8573720100779849
-0.10438639870458663
-0.2507020795009171
-0.8573833095705793
-0.10427606479365019
-0.25075190184763907
-0.8573833095705793
-0.10427606479365019
-0.25075190184763907
-0.8573833095705793
-0.10427606479365019
-0.25075190184763907
-0.8573833095705793
-0.10427606479365019
-0.25075190184763907
-0.8574201495495039
-0.10427691762014094
-0.25103490983765
-0.8574201495495039
-0.10427691762014094
-0.25103490983765
-0.8574201495495039
-0.10427691762014094
-0.25103490983765
-0.8574201495495039
-0.10427691762014094
-0.25103490983765
-0.8579052921903322
-0.10477623524729236
-0.25108122276908684
-0.8579052921903322
-0.10477623524729236
-0.25108122276908684
-0.8579052921903322
-0.10477623524729236
-0.25108122276908684
-0.8579052921903322
-0.10477623524729236
-0.25108122276908684
-0.8583800766689617
-0.105446590018638
-0.25091661902575535
-0.8583800766689617
-0.105446590018638
-0.25091661902575535
-0.8583800766689617
-0.105446590018638
-0.25091661902575535
-0.8583800766689617
-0.105446590018638
-0.25091661902575535
-0.8584572009470212
-0.10578872475193699
-0.25075476286598386
-0.8584572009470212
-0.10578872475193699
-0.25075476286598386
-0.8584572009470212
-0.10578872475193699
-0.25075476286598386
-0.8584572009470212
-0.10578872475193699
-0.25075476286598386
-0.8584684625011314
-0.10567841701116232
-0.25080464109901435
-0.8584684625011314
-0.10567841701116232
-0.25080464109901435
-0.8584684625011314
-0.10567841701116232
-0.25080464109901435
-0.8584684625011314
-0.10567841701116232
-0.25080464109901435
-0.8581713142981487
-0.10568228756098194
-0.2512004828484538
-0.8581713142981487
-0.10568228756098194
-0.2512004828484538
-0.8581713142981487
-0.10568228756098194
-0.2512004828484538
-0.8581713142981487
-0.10568228756098194
-0.2512004828484538
-0.8580726177343999
-0.10562148568731758
-0.25110178628470503
-0.8580726177343999
-0.10562148568731758
-0.25110178628470503
-0.8580726177343999
-0.10562148568731758
-0.25110178628470503
-0.8580726177343999
-0.10562148568731758
-0.25110178628470503
-0.8581835493628741
-0.10563270644277195
-0.25108955423727153
-0.8581835493628741
-0.10563270644277195
-0.25108955423727153
-0.8581835493628741
-0.10563270644277195
-0.25108955423727153
-0.8581835493628741
-0.10563270644277195
-0.25108955423727153
-0.8580726177343999
-0.10562148568731758
-0.25110178628470503
-0.8580726177343999
-0.10562148568731758
-0.25110178628470503
-0.8580726177343999
-0.10562148568731758
-0.25110178628470503
-0.8580726177343999
-0.10562148568731758
-0.25110178628470503
-0.8580839050336826
-0.1055111698829606
-0.25115164180551
-0.8580839050336826
-0.1055111698829606
-0.25115164180551
-0.8580839050336826
-0.1055111698829606
-0.25115164180551
-0.8580839050336826
-0.1055111698829606
-0.25115164180551
-0.8579729699319706
-0.10549994171168502
-0.25116386828910653
-0.8579729699319706
-0.10549994171168502
-0.25116386828910653
-0.8579729699319706
-0.10549994171168502
-0.25116386828910653
-0.8579729699319706
-0.10549994171168502
-0.25116386828910653
-0.8574182283266101
-0.10554103598802764
-0.2511403497698391
-0.8574182283266101
-0.10554103598802764
-0.2511403497698391
-0.8574182283266101
-0.10554103598802764
-0.2511403497698391
-0.8574182283266101
-0.10554103598802764
-0.2511403497698391
-0.85642067566254
-0.10569536265382187
-0.25092042258025593
-0.85642067566254
-0.10569536265382187
-0.25092042258025593
-0.85642067566254
-0.10569536265382187
-0.25092042258025593
-0.85642067566254
-0.10569536265382187
-0.25092042258025593
-0.8553957564114532
-0.10551967352920764
-0.2508732814902778
-0.8553957564114532
-0.10551967352920764
-0.2508732814902778
-0.8553957564114532
-0.10551967352920764
-0.2508732814902778
-0.8553957564114532
-0.10551967352920764
-0.2508732814902778
-0.8543558807540544
-0.10506169051684076
-0.25080293452163344
-0.8543558807540544
-0.10506169051684076
-0.25080293452163344
-0.8543558807540544
-0.10506169051684076
-0.25080293452163344
-0.8543558807540544
-0.10506169051684076
-0.25080293452163344
-0.8536744575092761
-0.10474830608294722
-0.2509290749125899
-0.8536744575092761
-0.10474830608294722
-0.2509290749125899
-0.8536744575092761
-0.10474830608294722
-0.2509290749125899
-0.8536744575092761
-0.10474830608294722
-0.2509290749125899
-0.8533144022431131
-0.10448155837340478
-0.2510533933254545
-0.8533144022431131
-0.10448155837340478
-0.2510533933254545
-0.8533144022431131
-0.10448155837340478
-0.2510533933254545
-0.8533144022431131
-0.10448155837340478
-0.2510533933254545
-0.8528934499207044
-0.10431313756870551
-0.2511166912934226
-0.8528934499207044
-0.10431313756870551
-0.2511166912934226
-0.8528934499207044
-0.10431313756870551
-0.2511166912934226
-0.8528934499207044
-0.10431313756870551
-0.2511166912934226
-0.8528934499207044
-0.10431313756870551
-0.2511166912934226
-0.8528934499207044
-0.10431313756870551
-0.2511166912934226
-0.8528934499207044
-0.10431313756870551
-0.2511166912934226
-0.8528934499207044
-0.10431313756870551
-0.2511166912934226
-0.8531874358160323
-0.10397868878496824
-0.25058684185973956
-0.8531874358160323
-0.10397868878496824
-0.25058684185973956
-0.8531874358160323
-0.10397868878496824
-0.25058684185973956
-0.8531874358160323
-0.10397868878496824
-0.25058684185973956
-0.8530221695221919
-0.10331689195607933
-0.2500822096921149
-0.8530221695221919
-0.10331689195607933
-0.2500822096921149
-0.8530221695221919
-0.10331689195607933
-0.2500822096921149
-0.8530221695221919
-0.10331689195607933
-0.2500822096921149
-0.8521759094641029
-0.10240332400056293
-0.24954199035749872
-0.8521759094641029
-0.10240332400056293
-0.24954199035749872
-0.8521759094641029
-0.10240332400056293
-0.24954199035749872
-0.8521759094641029
-0.10240332400056293
-0.24954199035749872
-0.8519716494708778
-0.10161941421412544
-0.2490751317864241
-0.8519716494708778
-0.10161941421412544
-0.2490751317864241
-0.8519716494708778
-0.10161941421412544
-0.2490751317864241
-0.8519716494708778
-0.10161941421412544
-0.2490751317864241
-0.8523881134906135
-0.10130799075533872
-0.24826209624692228
-0.8523881134906135
-0.10130799075533872
-0.24826209624692228
-0.8523881134906135
-0.10130799075533872
-0.24826209624692228
-0.8523881134906135
-0.10130799075533872
-0.24826209624692228
-0.8526358621632729
-0.10141515151080004
-0.24753440001092294
-0.8526358621632729
-0.10141515151080004
-0.24753440001092294
-0.8526358621632729
-0.10141515151080004
-0.24753440001092294
-0.8526358621632729
-0.10141515151080004
-0.24753440001092294
-0.8525700766632711
-0.10220026774150105
-0.24691561191670497
-0.8525700766632711
-0.10220026774150105
-0.24691561191670497
-0.8525700766632711
-0.10220026774150105
-0.24691561191670497
-0.8525700766632711
-0.10220026774150105
-0.24691561191670497
-0.8526150266304554
-0.10293535946789066
-0.24644552359536034
-0.8526150266304554
-0.10293535946789066
-0.24644552359536034
-0.8526150266304554
-0.10293535946789066
-0.24644552359536034
-0.8526150266304554
-0.10293535946789066
-0.24644552359536034
-0.8523996792419964
-0.10352598344668189
-0.2460377987953073
-0.8523996792419964
-0.10352598344668189
-0.2460377987953073
-0.8523996792419964
-0.10352598344668189
-0.2460377987953073
-0.8523996792419964
-0.10352598344668189
-0.2460377987953073
-0.8523996792419964
-0.10352598344668189
-0.2460377987953073
-0.8523996792419964
-0.10352598344668189
-0.2460377987953073
-0.8523996792419964
-0.10352598344668189
-0.2460377987953073
-0.8523996792419964
-0.10352598344668189
-0.2460377987953073
-0.8522886006362813
-0.103514953170938
-0.24604975401171897
-0.8522886006362813
-0.103514953170938
-0.24604975401171897
-0.8522886006362813
-0.103514953170938
-0.24604975401171897
-0.8522886006362813
-0.103514953170938
-0.24604975401171897
-0.8523996792419964
-0.10352598344668189
-0.2460377987953073
-0.8523996792419964
-0.10352598344668189
-0.2460377987953073
-0.8523996792419964
-0.10352598344668189
-0.2460377987953073
-0.8523996792419964
-0.10352598344668189
-0.2460377987953073
-0.8524116320908326
-0.1034766717966796
-0.24592672255716747
-0.8524116320908326
-0.1034766717966796
-0.24592672255716747
-0.8524116320908326
-0.1034766717966796
-0.24592672255716747
-0.8524116320908326
-0.1034766717966796
-0.24592672255716747
-0.8519955758158564
-0.10376319130308166
-0.2458028109600812
-0.8519955758158564
-0.10376319130308166
-0.2458028109600812
-0.8519955758158564
-0.10376319130308166
-0.2458028109600812
-0.8519955758158564
-0.10376319130308166
-0.2458028109600812
-0.8518146254718144
-0.10408371999740737
-0.24538331720588574
-0.8518146254718144
-0.10408371999740737
-0.24538331720588574
-0.8518146254718144
-0.10408371999740737
-0.24538331720588574
-0.8518146254718144
-0.10408371999740737
-0.24538331720588574
-0.8517035202285675
-0.10407273634800768
-0.24539528467248856
-0.8517035202285675
-0.10407273634800768
-0.24539528467248856
-0.8517035202285675
-0.10407273634800768
-0.24539528467248856
-0.8517035202285675
-0.10407273634800768
-0.24539528467248856
-0.8512161961914425
-0.10351366591746028
-0.24550798299538845
-0.8512161961914425
-0.10351366591746028
-0.24550798299538845
-0.8512161961914425
-0.10351366591746028
-0.24550798299538845
-0.8512161961914425
-0.10351366591746028
-0.24550798299538845
-0.8499027131847762
-0.10296336600189479
-0.24560907036007795
-0.8499027131847762
-0.10296336600189479
-0.24560907036007795
-0.8499027131847762
-0.10296336600189479
-0.24560907036007795
-0.8499027131847762
-0.10296336600189479
-0.24560907036007795
-0.8501309773210545
-0.10358671657648867
-0.24601476200354944
-0.8501309773210545
-0.10358671657648867
-0.24601476200354944
-0.8501309773210545
-0.10358671657648867
-0.24601476200354944
-0.8501309773210545
-0.10358671657648867
-0.24601476200354944
-0.8488741029575747
-0.10254461909438924
-0.24620194523453015
-0.8488741029575747
-0.10254461909438924
-0.24620194523453015
-0.8488741029575747
-0.10254461909438924
-0.24620194523453015
-0.8488741029575747
-0.10254461909438924
-0.24620194523453015
-0.8456508386004732
-0.100933733394394
-0.2463625677523464
-0.8456508386004732
-0.100933733394394
-0.2463625677523464
-0.8456508386004732
-0.100933733394394
-0.2463625677523464
-0.8456508386004732
-0.100933733394394
-0.2463625677523464
-0.8449153837176859
-0.10007912867364435
-0.2476810244722644
-0.8449153837176859
-0.10007912867364435
-0.2476810244722644
-0.8449153837176859
-0.10007912867364435
-0.2476810244722644
-0.8449153837176859
-0.10007912867364435
-0.2476810244722644
-0.8454141308749378
-0.09928730267999965
-0.2484446350215347
-0.8454141308749378
-0.09928730267999965
-0.2484446350215347
-0.8454141308749378
-0.09928730267999965
-0.2484446350215347
-0.8454141308749378
-0.09928730267999965
-0.2484446350215347
-0.8437311582726318
-0.09864035569070165
-0.24845365160277183
-0.8437311582726318
-0.09864035569070165
-0.24845365160277183
-0.8437311582726318
-0.09864035569070165
-0.24845365160277183
-0.8437311582726318
-0.09864035569070165
-0.24845365160277183
-0.8413820993233646
-0.09790009569144266
-0.24876845347978294
-0.8413820993233646
-0.09790009569144266
-0.24876845347978294
-0.8413820993233646
-0.09790009569144266
-0.24876845347978294
-0.8413820993233646
-0.09790009569144266
-0.24876845347978294
-0.8408029387372672
-0.09669399981405163
-0.24807296450431898
-0.8408029387372672
-0.09669399981405163
-0.24807296450431898
-0.8408029387372672
-0.09669399981405163
-0.24807296450431898
-0.8408029387372672
-0.09669399981405163
-0.24807296450431898
-0.8424952237856231
-0.09613128642987571
-0.24658290622937692
-0.8424952237856231
-0.09613128642987571
-0.24658290622937692
-0.8424952237856231
-0.09613128642987571
-0.24658290622937692
-0.8424952237856231
-0.09613128642987571
-0.24658290622937692
-0.8433956504060556
-0.09638285261180524
-0.245661413717887
-0.8433956504060556
-0.09638285261180524
-0.245661413717887
-0.8433956504060556
-0.09638285261180524
-0.245661413717887
-0.8433956504060556
-0.09638285261180524
-0.245661413717887
-0.8405810148787929
-0.09616965017234844
-0.24519733350365572
-0.8405810148787929
-0.09616965017234844
-0.24519733350365572
-0.8405810148787929
-0.09616965017234844
-0.24519733350365572
-0.8405810148787929
-0.09616965017234844
-0.24519733350365572
-0.8387724463690397
-0.09649561139735982
-0.24530557963184302
-0.8387724463690397
-0.09649561139735982
-0.24530557963184302
-0.8387724463690397
-0.09649561139735982
-0.24530557963184302
-0.8387724463690397
-0.09649561139735982
-0.24530557963184302
-0.8379263808596218
-0.09674529526186411
-0.24613123289807134
-0.8379263808596218
-0.09674529526186411
-0.24613123289807134
-0.8379263808596218
-0.09674529526186411
-0.24613123289807134
-0.8379263808596218
-0.09674529526186411
-0.24613123289807134
-0.8388976049179105
-0.09641538436582284
-0.24628013058187959
-0.8388976049179105
-0.09641538436582284
-0.24628013058187959
-0.8388976049179105
-0.09641538436582284
-0.24628013058187959
-0.8388976049179105
-0.09641538436582284
-0.24628013058187959
-0.8403236030079179
-0.09610707233667691
-0.2460348315763292
-0.8403236030079179
-0.09610707233667691
-0.2460348315763292
-0.8403236030079179
-0.09610707233667691
-0.2460348315763292
-0.8403236030079179
-0.09610707233667691
-0.2460348315763292
-0.8401633846362737
-0.09608436968132006
-0.24603495995418834
-0.8401633846362737
-0.09608436968132006
-0.24603495995418834
-0.8401633846362737
-0.09608436968132006
-0.24603495995418834
-0.8401633846362737
-0.09608436968132006
-0.24603495995418834
-0.8409322871430785
-0.09650532278844358
-0.2461247657609138
-0.8409322871430785
-0.09650532278844358
-0.2461247657609138
-0.8409322871430785
-0.09650532278844358
-0.2461247657609138
-0.8409322871430785
-0.09650532278844358
-0.2461247657609138
-0.8409919067764958
-0.09729710535465344
-0.2472620917186885
-0.8409919067764958
-0.09729710535465344
-0.2472620917186885
-0.8409919067764958
-0.09729710535465344
-0.2472620917186885
-0.8409919067764958
-0.09729710535465344
-0.2472620917186885
-0.8429035196543779
-0.09730166500713114
-0.2475491579043482
-0.8429035196543779
-0.09730166500713114
-0.2475491579043482
-0.8429035196543779
-0.09730166500713114
-0.2475491579043482
-0.8429035196543779
-0.09730166500713114
-0.2475491579043482
-0.8457613774978001
-0.09711525239671229
-0.2471107392194212
-0.8457613774978001
-0.09711525239671229
-0.2471107392194212
-0.8457613774978001
-0.09711525239671229
-0.2471107392194212
-0.8457613774978001
-0.09711525239671229
-0.2471107392194212
-0.8469584762252058
-0.09720138555783084
-0.2472121944162887
-0.8469584762252058
-0.09720138555783084
-0.2472121944162887
-0.8469584762252058
-0.09720138555783084
-0.2472121944162887
-0.8469584762252058
-0.09720138555783084
-0.2472121944162887
-0.8467578870945469
-0.0979748759174316
-0.24808757809958915
-0.8467578870945469
-0.0979748759174316
-0.24808757809958915
-0.8467578870945469
-0.0979748759174316
-0.24808757809958915
-0.8467578870945469
-0.0979748759174316
-0.24808757809958915
-0.8463422178952008
-0.09960917119182036
-0.2488525615317955
-0.8463422178952008
-0.09960917119182036
-0.2488525615317955
-0.8463422178952008
-0.09960917119182036
-0.2488525615317955
-0.8463422178952008
-0.09960917119182036
-0.2488525615317955
-0.8464780255289849
-0.10099377417858535
-0.24918675179216482
-0.8464780255289849
-0.10099377417858535
-0.24918675179216482
-0.8464780255289849
-0.10099377417858535
-0.24918675179216482
-0.8464780255289849
-0.10099377417858535
-0.24918675179216482
-0.8462625259073338
-0.10173146116993734
-0.24939722405622816
-0.8462625259073338
-0.10173146116993734
-0.24939722405622816
-0.8462625259073338
-0.10173146116993734
-0.24939722405622816
-0.8462625259073338
-0.10173146116993734
-0.24939722405622816
-0.8470188873087918
-0.10220297716483595
-0.24959482723991555
-0.8470188873087918
-0.10220297716483595
-0.24959482723991555
-0.8470188873087918
-0.10220297716483595
-0.24959482723991555
-0.8470188873087918
-0.10220297716483595
-0.24959482723991555
-0.8480468006623353
-0.10270911407711683
-0.24977946932138032
-0.8480468006623353
-0.10270911407711683
-0.24977946932138032
-0.8480468006623353
-0.10270911407711683
-0.24977946932138032
-0.8480468006623353
-0.10270911407711683
-0.24977946932138032
-0.8478443466308259
-0.10352091249969124
-0.24955746352918495
-0.8478443466308259
-0.10352091249969124
-0.24955746352918495
-0.8478443466308259
-0.10352091249969124
-0.24955746352918495
-0.8478443466308259
-0.10352091249969124
-0.24955746352918495
-0.847661985087299
-0.10378042083494442
-0.24929910911660794
-0.847661985087299
-0.10378042083494442
-0.24929910911660794
-0.847661985087299
-0.10378042083494442
-0.24929910911660794
-0.847661985087299
-0.10378042083494442
-0.24929910911660794
-0.8459456086672827
-0.10352639491219688
-0.24900461429857873
-0.8459456086672827
-0.10352639491219688
-0.24900461429857873
-0.8459456086672827
-0.10352639491219688
-0.24900461429857873
-0.8459456086672827
-0.10352639491219688
-0.24900461429857873
-0.8452218976581957
-0.10398674209606873
-0.24906780428569977
-0.8452218976581957
-0.10398674209606873
-0.24906780428569977
-0.8452218976581957
-0.10398674209606873
-0.24906780428569977
-0.8452218976581957
-0.10398674209606873
-0.24906780428569977
-0.8462257321969653
-0.10459032896956462
-0.24947444072830605
-0.8462257321969653
-0.10459032896956462
-0.24947444072830605
-0.8462257321969653
-0.10459032896956462
-0.24947444072830605
-0.8462257321969653
-0.10459032896956462
-0.24947444072830605
-0.84638617155874
-0.10461355945284767
-0.24947366377296595
-0.84638617155874
-0.10461355945284767
-0.24947366377296595
-0.84638617155874
-0.10461355945284767
-0.24947366377296595
-0.84638617155874
-0.10461355945284767
-0.24947366377296595
-0.8467120513022575
-0.1036792512259603
-0.24879476127252123
-0.8467120513022575
-0.1036792512259603
-0.24879476127252123
-0.8467120513022575
-0.1036792512259603
-0.24879476127252123
-0.8467120513022575
-0.1036792512259603
-0.24879476127252123
-0.8471414244767042
-0.10340562052148292
-0.24864617253781446
-0.8471414244767042
-0.10340562052148292
-0.24864617253781446
-0.8471414244767042
-0.10340562052148292
-0.24864617253781446
-0.8471414244767042
-0.10340562052148292
-0.24864617253781446
-0.8466361008253948
-0.10345947127149266
-0.2486335841060945
-0.8466361008253948
-0.10345947127149266
-0.2486335841060945
-0.8466361008253948
-0.10345947127149266
-0.2486335841060945
-0.8466361008253948
-0.10345947127149266
-0.2486335841060945
-0.8448138665600574
-0.10383140993389513
-0.24885875616078423
-0.8448138665600574
-0.10383140993389513
-0.24885875616078423
-0.8448138665600574
-0.10383140993389513
-0.24885875616078423
-0.8448138665600574
-0.10383140993389513
-0.24885875616078423
-0.8438650947094092
-0.10393837485392496
-0.24881068126071376
-0.8438650947094092
-0.10393837485392496
-0.24881068126071376
-0.8438650947094092
-0.10393837485392496
-0.24881068126071376
-0.8438650947094092
-0.10393837485392496
-0.24881068126071376
-0.8453229920996393
-0.10408628967823422
-0.24806914531163013
-0.8453229920996393
-0.10408628967823422
-0.24806914531163013
-0.8453229920996393
-0.10408628967823422
-0.24806914531163013
-0.8453229920996393
-0.10408628967823422
-0.24806914531163013
-0.8465465349596363
-0.10425986424166254
-0.24746262300007216
-0.8465465349596363
-0.10425986424166254
-0.24746262300007216
-0.8465465349596363
-0.10425986424166254
-0.24746262300007216
-0.8465465349596363
-0.10425986424166254
-0.24746262300007216
-0.8467477820709899
-0.10471121545499466
-0.24779618323655747
-0.8467477820709899
-0.10471121545499466
-0.24779618323655747
-0.8467477820709899
-0.10471121545499466
-0.24779618323655747
-0.8467477820709899
-0.10471121545499466
-0.24779618323655747
-0.845649229707067
-0.1047691001549767
-0.24857549184180044
-0.845649229707067
-0.1047691001549767
-0.24857549184180044
-0.845649229707067
-0.1047691001549767
-0.24857549184180044
-0.845649229707067
-0.1047691001549767
-0.24857549184180044
-0.8440692858773272
-0.1047822409814643
-0.24912015528313358
-0.8440692858773272
-0.1047822409814643
-0.24912015528313358
-0.8440692858773272
-0.1047822409814643
-0.24912015528313358
-0.8440692858773272
-0.1047822409814643
-0.24912015528313358
-0.8440692858773272
-0.1047822409814643
-0.24912015528313358
-0.8440692858773272
-0.1047822409814643
-0.24912015528313358
-0.8440692858773272
-0.1047822409814643
-0.24912015528313358
-0.8440692858773272
-0.1047822409814643
-0.24912015528313358
-0.8448946281859391
-0.10456737958446818
-0.248674425260132
-0.8448946281859391
-0.10456737958446818
-0.248674425260132
-0.8448946281859391
-0.10456737958446818
-0.248674425260132
-0.8448946281859391
-0.10456737958446818
-0.248674425260132
-0.8443971182540211
-0.1041178006626989
-0.24873611525176115
-0.8443971182540211
-0.1041178006626989
-0.24873611525176115
-0.8443971182540211
-0.1041178006626989
-0.24873611525176115
-0.8443971182540211
-0.1041178006626989
-0.24873611525176115
-0.8430488030537134
-0.10371137223694361
-0.24916945032571855
-0.8430488030537134
-0.10371137223694361
-0.24916945032571855
-0.8430488030537134
-0.10371137223694361
-0.24916945032571855
-0.8430488030537134
-0.10371137223694361
-0.24916945032571855
-0.8422810214240063
-0.10343403078323858
-0.24969964754013627
-0.8422810214240063
-0.10343403078323858
-0.24969964754013627
-0.8422810214240063
-0.10343403078323858
-0.24969964754013627
-0.8422810214240063
-0.10343403078323858
-0.24969964754013627
-0.8422810214240063
-0.10343403078323858
-0.24969964754013627
-0.8422810214240063
-0.10343403078323858
-0.24969964754013627
-0.8422810214240063
-0.10343403078323858
-0.24969964754013627
-0.8422810214240063
-0.10343403078323858
-0.24969964754013627
-0.8426345312050909
-0.10302443106643153
-0.25016604920077634
-0.8426345312050909
-0.10302443106643153
-0.25016604920077634
-0.8426345312050909
-0.10302443106643153
-0.25016604920077634
-0.8426345312050909
-0.10302443106643153
-0.25016604920077634
-0.842743551413537
-0.10278800340363498
-0.2507952734490791
-0.842743551413537
-0.10278800340363498
-0.2507952734490791
-0.842743551413537
-0.10278800340363498
-0.2507952734490791
-0.842743551413537
-0.10278800340363498
-0.2507952734490791
-0.8427925673825488
-0.10279991791794522
-0.2508067026433031
-0.8427925673825488
-0.10279991791794522
-0.2508067026433031
-0.8427925673825488
-0.10279991791794522
-0.2508067026433031
-0.8427925673825488
-0.10279991791794522
-0.2508067026433031
-0.8427019369031785
-0.10223633708641623
-0.25078073381955585
-0.8427019369031785
-0.10223633708641623
-0.25078073381955585
-0.8427019369031785
-0.10223633708641623
-0.25078073381955585
-0.8427019369031785
-0.10223633708641623
-0.25078073381955585
-0.8427362868930525
-0.1019042487403871
-0.25092778144364003
-0.8427362868930525
-0.1019042487403871
-0.25092778144364003
-0.8427362868930525
-0.1019042487403871
-0.25092778144364003
-0.8427362868930525
-0.1019042487403871
-0.25092778144364003
-0.8423388631569297
-0.1015142127258942
-0.2510876209200581
-0.8423388631569297
-0.1015142127258942
-0.2510876209200581
-0.8423388631569297
-0.1015142127258942
-0.2510876209200581
-0.8423388631569297
-0.1015142127258942
-0.2510876209200581
-0.8415246823216818
-0.10147216191887845
-0.2509643620028759
-0.8415246823216818
-0.10147216191887845
-0.2509643620028759
-0.8415246823216818
-0.10147216191887845
-0.2509643620028759
-0.8415246823216818
-0.10147216191887845
-0.2509643620028759
-0.8417843119123233
-0.10155554576955199
-0.25106332149509075
-0.8417843119123233
-0.10155554576955199
-0.25106332149509075
-0.8417843119123233
-0.10155554576955199
-0.25106332149509075
-0.8417843119123233
-0.10155554576955199
-0.25106332149509075
-0.8422284655184894
-0.10162673277360626
-0.25077898986965386
-0.8422284655184894
-0.10162673277360626
-0.25077898986965386
-0.8422284655184894
-0.10162673277360626
-0.25077898986965386
-0.8422284655184894
-0.10162673277360626
-0.25077898986965386
-0.843209207046631
-0.1024519838352785
-0.25108961401436336
-0.843209207046631
-0.1024519838352785
-0.25108961401436336
-0.843209207046631
-0.1024519838352785
-0.25108961401436336
-0.843209207046631
-0.1024519838352785
-0.25108961401436336
-0.8437764196772568
-0.10250718160522841
-0.25161923535866526
-0.8437764196772568
-0.10250718160522841
-0.25161923535866526
-0.8437764196772568
-0.10250718160522841
-0.25161923535866526
-0.8437764196772568
-0.10250718160522841
-0.25161923535866526
-0.8428614612396238
-0.10221885538006094
-0.25187797660351774
-0.8428614612396238
-0.10221885538006094
-0.25187797660351774
-0.8428614612396238
-0.10221885538006094
-0.25187797660351774
-0.8428614612396238
-0.10221885538006094
-0.25187797660351774
-0.8428239505130236
-0.1020962625667017
-0.2519154873301181
-0.8428239505130236
-0.1020962625667017
-0.2519154873301181
-0.8428239505130236
-0.1020962625667017
-0.2519154873301181
-0.8428239505130236
-0.1020962625667017
-0.2519154873301181
-0.8448700413255403
-0.10344591411230318
-0.2506586024744932
-0.8448700413255403
-0.10344591411230318
-0.2506586024744932
-0.8448700413255403
-0.10344591411230318
-0.2506586024744932
-0.8448700413255403
-0.10344591411230318
-0.2506586024744932
-0.8476156061013783
-0.1054863067626727
-0.2492134953100286
-0.8476156061013783
-0.1054863067626727
-0.2492134953100286
-0.8476156061013783
-0.1054863067626727
-0.2492134953100286
-0.8476156061013783
-0.1054863067626727
-0.2492134953100286
-0.8502323774641445
-0.10779404374943329
-0.2475152496368615
-0.8502323774641445
-0.10779404374943329
-0.2475152496368615
-0.8502323774641445
-0.10779404374943329
-0.2475152496368615
-0.8502323774641445
-0.10779404374943329
-0.2475152496368615
-0.8522859205517472
-0.10892546548052519
-0.24579111855841118
-0.8522859205517472
-0.10892546548052519
-0.24579111855841118
-0.8522859205517472
-0.10892546548052519
-0.24579111855841118
-0.8522859205517472
-0.10892546548052519
-0.24579111855841118
-0.8525700189285954
-0.10855274314763043
-0.2445947437759323
-0.8525700189285954
-0.10855274314763043
-0.2445947437759323
-0.8525700189285954
-0.10855274314763043
-0.2445947437759323
-0.8525700189285954
-0.10855274314763043
-0.2445947437759323
-0.8515456281392211
-0.10844178557450163
-0.24438780066135513
-0.8515456281392211
-0.10844178557450163
-0.24438780066135513
-0.8515456281392211
-0.10844178557450163
-0.24438780066135513
-0.8515456281392211
-0.10844178557450163
-0.24438780066135513
-0.8518621175826375
-0.10908813978341879
-0.24422555116769745
-0.8518621175826375
-0.10908813978341879
-0.24422555116769745
-0.8518621175826375
-0.10908813978341879
-0.24422555116769745
-0.8518621175826375
-0.10908813978341879
-0.24422555116769745
-0.8505851135092337
-0.1098022853748076
-0.24472276844621754
-0.8505851135092337
-0.1098022853748076
-0.24472276844621754
-0.8505851135092337
-0.1098022853748076
-0.24472276844621754
-0.8505851135092337
-0.1098022853748076
-0.24472276844621754
-0.8493970876279752
-0.11074777181151091
-0.24510985016253417
-0.8493970876279752
-0.11074777181151091
-0.24510985016253417
-0.8493970876279752
-0.11074777181151091
-0.24510985016253417
-0.8493970876279752
-0.11074777181151091
-0.24510985016253417
-0.848140978422669
-0.11103123894432058
-0.24525173762878172
-0.848140978422669
-0.11103123894432058
-0.24525173762878172
-0.848140978422669
-0.11103123894432058
-0.24525173762878172
-0.848140978422669
-0.11103123894432058
-0.24525173762878172
-0.8462639457288466
-0.11075770670707084
-0.24496482973723874
-0.8462639457288466
-0.11075770670707084
-0.24496482973723874
-0.8462639457288466
-0.11075770670707084
-0.24496482973723874
-0.8462639457288466
-0.11075770670707084
-0.24496482973723874
-0.8451126473913331
-0.11134797757974521
-0.24456416540033588
-0.8451126473913331
-0.11134797757974521
-0.24456416540033588
-0.8451126473913331
-0.11134797757974521
-0.24456416540033588
-0.8451126473913331
-0.11134797757974521
-0.24456416540033588
-0.8439923327075898
-0.11175210505177506
-0.24492835456774367
-0.8439923327075898
-0.11175210505177506
-0.24492835456774367
-0.8439923327075898
-0.11175210505177506
-0.24492835456774367
-0.8439923327075898
-0.11175210505177506
-0.24492835456774367
-0.8449546293586097
-0.11186385377439553
-0.2451572612610436
-0.8449546293586097
-0.11186385377439553
-0.2451572612610436
-0.8449546293586097
-0.11186385377439553
-0.2451572612610436
-0.8449546293586097
-0.11186385377439553
-0.2451572612610436
-0.8480679496010579
-0.11192857493690864
-0.24458525951522395
-0.8480679496010579
-0.11192857493690864
-0.24458525951522395
-0.8480679496010579
-0.11192857493690864
-0.24458525951522395
-0.8480679496010579
-0.11192857493690864
-0.24458525951522395
-0.8496872658001942
-0.11176310743949147
-0.24370121261104521
-0.8496872658001942
-0.11176310743949147
-0.24370121261104521
-0.8496872658001942
-0.11176310743949147
-0.24370121261104521
-0.8496872658001942
-0.11176310743949147
-0.24370121261104521
-0.8481079780004008
-0.11127964485743551
-0.2425622227131245
-0.8481079780004008
-0.11127964485743551
-0.2425622227131245
-0.8481079780004008
-0.11127964485743551
-0.2425622227131245
-0.8481079780004008
-0.11127964485743551
-0.2425622227131245
-0.8447491122167391
-0.11114858203059562
-0.24276368073878052
-0.8447491122167391
-0.11114858203059562
-0.24276368073878052
-0.8447491122167391
-0.11114858203059562
-0.24276368073878052
-0.8447491122167391
-0.11114858203059562
-0.24276368073878052
-0.8436369964066937
-0.111319071266755
-0.24349784931782498
-0.8436369964066937
-0.111319071266755
-0.24349784931782498
-0.8436369964066937
-0.111319071266755
-0.24349784931782498
-0.8436369964066937
-0.111319071266755
-0.24349784931782498
-0.8445654573390868
-0.11170029351708342
-0.2437400480911939
-0.8445654573390868
-0.11170029351708342
-0.2437400480911939
-0.8445654573390868
-0.11170029351708342
-0.2437400480911939
-0.8445654573390868
-0.11170029351708342
-0.2437400480911939
-0.8465709913238118
-0.11211938137950019
-0.24342085449458473
-0.8465709913238118
-0.11211938137950019
-0.24342085449458473
-0.8465709913238118
-0.11211938137950019
-0.24342085449458473
-0.8465709913238118
-0.11211938137950019
-0.24342085449458473
-0.8475664641313675
-0.11268423685110539
-0.2431571346754992
-0.8475664641313675
-0.11268423685110539
-0.2431571346754992
-0.8475664641313675
-0.11268423685110539
-0.2431571346754992
-0.8475664641313675
-0.11268423685110539
-0.2431571346754992
-0.8468699803892215
-0.11311052271249254
-0.24283985770199495
-0.8468699803892215
-0.11311052271249254
-0.24283985770199495
-0.8468699803892215
-0.11311052271249254
-0.24283985770199495
-0.8468699803892215
-0.11311052271249254
-0.24283985770199495
-0.8456065167278066
-0.11362946529261668
-0.2426132562434448
-0.8456065167278066
-0.11362946529261668
-0.2426132562434448
-0.8456065167278066
-0.11362946529261668
-0.2426132562434448
-0.8456065167278066
-0.11362946529261668
-0.2426132562434448
-0.8451503449521938
-0.1139401826133978
-0.24314760650525236
-0.8451503449521938
-0.1139401826133978
-0.24314760650525236
-0.8451503449521938
-0.1139401826133978
-0.24314760650525236
-0.8451503449521938
-0.1139401826133978
-0.24314760650525236
-0.845984274480444
-0.11369628083428453
-0.24352470458621076
-0.845984274480444
-0.11369628083428453
-0.24352470458621076
-0.845984274480444
-0.11369628083428453
-0.24352470458621076
-0.845984274480444
-0.11369628083428453
-0.24352470458621076
-0.8465479935306124
-0.11348066715352693
-0.24375550375789792
-0.8465479935306124
-0.11348066715352693
-0.24375550375789792
-0.8465479935306124
-0.11348066715352693
-0.24375550375789792
-0.8465479935306124
-0.11348066715352693
-0.24375550375789792
-0.847101396201231
-0.11316765489716095
-0.2434810406764646
-0.847101396201231
-0.11316765489716095
-0.2434810406764646
-0.847101396201231
-0.11316765489716095
-0.2434810406764646
-0.847101396201231
-0.11316765489716095
-0.2434810406764646
-0.8469900557341998
-0.11315697783982097
-0.24349344943730217
-0.8469900557341998
-0.11315697783982097
-0.24349344943730217
-0.8469900557341998
-0.11315697783982097
-0.24349344943730217
-0.8469900557341998
-0.11315697783982097
-0.24349344943730217
-0.8465802862362801
-0.11314874940369901
-0.24390321893522174
-0.8465802862362801
-0.11314874940369901
-0.24390321893522174
-0.8465802862362801
-0.11314874940369901
-0.24390321893522174
-0.8465802862362801
-0.11314874940369901
-0.24390321893522174
-0.8458786495526919
-0.11338962789474141
-0.24406806337211148
-0.8458786495526919
-0.11338962789474141
-0.24406806337211148
-0.8458786495526919
-0.11338962789474141
-0.24406806337211148
-0.8458786495526919
-0.11338962789474141
-0.24406806337211148
-0.8457151384722918
-0.11399401461399893
-0.24367395529405514
-0.8457151384722918
-0.11399401461399893
-0.24367395529405514
-0.8457151384722918
-0.11399401461399893
-0.24367395529405514
-0.8457151384722918
-0.11399401461399893
-0.24367395529405514
-0.8471417339419413
-0.11455408056304249
-0.24355409307351336
-0.8471417339419413
-0.11455408056304249
-0.24355409307351336
-0.8471417339419413
-0.11455408056304249
-0.24355409307351336
-0.8471417339419413
-0.11455408056304249
-0.24355409307351336
-0.8480565504044608
-0.11471479268925242
-0.24361009194189626
-0.8480565504044608
-0.11471479268925242
-0.24361009194189626
-0.8480565504044608
-0.11471479268925242
-0.24361009194189626
-0.8480565504044608
-0.11471479268925242
-0.24361009194189626
-0.8475225593936533
-0.11474505092620683
-0.24414408295270368
-0.8475225593936533
-0.11474505092620683
-0.24414408295270368
-0.8475225593936533
-0.11474505092620683
-0.24414408295270368
-0.8475225593936533
-0.11474505092620683
-0.24414408295270368
-0.8465577148117573
-0.1147797509708968
-0.24453353840026637
-0.8465577148117573
-0.1147797509708968
-0.24453353840026637
-0.8465577148117573
-0.1147797509708968
-0.24453353840026637
-0.8465577148117573
-0.1147797509708968
-0.24453353840026637
-0.8465577148117573
-0.1147797509708968
-0.24453353840026637
-0.8465577148117573
-0.1147797509708968
-0.24453353840026637
-0.8465577148117573
-0.1147797509708968
-0.24453353840026637
-0.8465577148117573
-0.1147797509708968
-0.24453353840026637
-0.8471016567436943
-0.1148474157286903
-0.24450496039590447
-0.8471016567436943
-0.1148474157286903
-0.24450496039590447
-0.8471016567436943
-0.1148474157286903
-0.24450496039590447
-0.8471016567436943
-0.1148474157286903
-0.24450496039590447
-0.8479624003997212
-0.11456808653916081
-0.24449861089116334
-0.8479624003997212
-0.11456808653916081
-0.24449861089116334
-0.8479624003997212
-0.11456808653916081
-0.24449861089116334
-0.8479624003997212
-0.11456808653916081
-0.24449861089116334
-0.8483314233913893
-0.11460001326652468
-0.24474378252296144
-0.8483314233913893
-0.11460001326652468
-0.24474378252296144
-0.8483314233913893
-0.11460001326652468
-0.24474378252296144
-0.8483314233913893
-0.11460001326652468
-0.24474378252296144
-0.8475505620340785
-0.11449819570375055
-0.24506934151968718
-0.8475505620340785
-0.11449819570375055
-0.24506934151968718
-0.8475505620340785
-0.11449819570375055
-0.24506934151968718
-0.8475505620340785
-0.11449819570375055
-0.24506934151968718
-0.8460452795610851
-0.11458807382278832
-0.2451659816004689
-0.8460452795610851
-0.11458807382278832
-0.2451659816004689
-0.8460452795610851
-0.11458807382278832
-0.2451659816004689
-0.8460452795610851
-0.11458807382278832
-0.2451659816004689
-0.8460452795610851
-0.11458807382278832
-0.2451659816004689
-0.8460452795610851
-0.11458807382278832
-0.2451659816004689
-0.8460452795610851
-0.11458807382278832
-0.2451659816004689
-0.8460452795610851
-0.11458807382278832
-0.2451659816004689
-0.8475164359507487
-0.11476837542738932
-0.24508211891792273
-0.8475164359507487
-0.11476837542738932
-0.24508211891792273
-0.8475164359507487
-0.11476837542738932
-0.24508211891792273
-0.8475164359507487
-0.11476837542738932
-0.24508211891792273
-0.8485549940051507
-0.11489149046018479
-0.2450140997330491
-0.8485549940051507
-0.11489149046018479
-0.2450140997330491
-0.8485549940051507
-0.11489149046018479
-0.2450140997330491
-0.8485549940051507
-0.11489149046018479
-0.2450140997330491
-0.8486043331911627
-0.11490396109448263
-0.24502487937374473
-0.8486043331911627
-0.11490396109448263
-0.24502487937374473
-0.8486043331911627
-0.11490396109448263
-0.24502487937374473
-0.8486043331911627
-0.11490396109448263
-0.24502487937374473
-0.8475522949417792
-0.11455984592923872
-0.24490871634910535
-0.8475522949417792
-0.11455984592923872
-0.24490871634910535
-0.8475522949417792
-0.11455984592923872
-0.24490871634910535
-0.8475522949417792
-0.11455984592923872
-0.24490871634910535
-0.846590043201878
-0.11444784607435278
-0.2446812308321015
-0.846590043201878
-0.11444784607435278
-0.2446812308321015
-0.846590043201878
-0.11444784607435278
-0.2446812308321015
-0.846590043201878
-0.11444784607435278
-0.2446812308321015
-0.846478677781357
-0.11443713151047004
-0.24469373934265037
-0.846478677781357
-0.11443713151047004
-0.24469373934265037
-0.846478677781357
-0.11443713151047004
-0.24469373934265037
-0.846478677781357
-0.11443713151047004
-0.24469373934265037
-0.8471339655364137
-0.11451554733528384
-0.24465274502202258
-0.8471339655364137
-0.11451554733528384
-0.24465274502202258
-0.8471339655364137
-0.11451554733528384
-0.24465274502202258
-0.8471339655364137
-0.11451554733528384
-0.24465274502202258
-0.8476438384388529
-0.11485342153079714
-0.24463697982735977
-0.8476438384388529
-0.11485342153079714
-0.24463697982735977
-0.8476438384388529
-0.11485342153079714
-0.24463697982735977
-0.8476438384388529
-0.11485342153079714
-0.24463697982735977
-0.848280328737247
-0.11548463698320532
-0.2446319170979153
-0.848280328737247
-0.11548463698320532
-0.2446319170979153
-0.848280328737247
-0.11548463698320532
-0.2446319170979153
-0.848280328737247
-0.11548463698320532
-0.2446319170979153
-0.847985002474696
-0.11561037585479783
-0.244708354238869
-0.847985002474696
-0.11561037585479783
-0.244708354238869
-0.847985002474696
-0.11561037585479783
-0.244708354238869
-0.847985002474696
-0.11561037585479783
-0.244708354238869
-0.8474266193117956
-0.11552994111710792
-0.2450091547891046
-0.8474266193117956
-0.11552994111710792
-0.2450091547891046
-0.8474266193117956
-0.11552994111710792
-0.2450091547891046
-0.8474266193117956
-0.11552994111710792
-0.2450091547891046
-0.8480262535521365
-0.1151063558795309
-0.24506623208567205
-0.8480262535521365
-0.1151063558795309
-0.24506623208567205
-0.8480262535521365
-0.1151063558795309
-0.24506623208567205
-0.8480262535521365
-0.1151063558795309
-0.24506623208567205
-0.8483664686973285
-0.11459988170757436
-0.245026535322906
-0.8483664686973285
-0.11459988170757436
-0.245026535322906
-0.8483664686973285
-0.11459988170757436
-0.245026535322906
-0.8483664686973285
-0.11459988170757436
-0.245026535322906
-0.8485657760338376
-0.11478090942638196
-0.2450634365310699
-0.8485657760338376
-0.11478090942638196
-0.2450634365310699
-0.8485657760338376
-0.11478090942638196
-0.2450634365310699
-0.8485657760338376
-0.11478090942638196
-0.2450634365310699
-0.8488161894052726
-0.11503595035471757
-0.24495041790165173
-0.8488161894052726
-0.11503595035471757
-0.24495041790165173
-0.8488161894052726
-0.11503595035471757
-0.24495041790165173
-0.8488161894052726
-0.11503595035471757
-0.24495041790165173
-0.8488161894052726
-0.11503595035471757
-0.24495041790165173
-0.8488161894052726
-0.11503595035471757
-0.24495041790165173
-0.8488161894052726
-0.11503595035471757
-0.24495041790165173
-0.8488161894052726
-0.11503595035471757
-0.24495041790165173
-0.8488287472542726
-0.11498692415454649
-0.2448391062368651
-0.8488287472542726
-0.11498692415454649
-0.2448391062368651
-0.8488287472542726
-0.11498692415454649
-0.2448391062368651
-0.8488287472542726
-0.11498692415454649
-0.2448391062368651
-0.8481018501801886
-0.11433218149584003
-0.2454114027599804
-0.8481018501801886
-0.11433218149584003
-0.2454114027599804
-0.8481018501801886
-0.11433218149584003
-0.2454114027599804
-0.8481018501801886
-0.11433218149584003
-0.2454114027599804
-0.847500813416593
-0.11370048062318035
-0.24569877297895468
-0.847500813416593
-0.11370048062318035
-0.24569877297895468
-0.847500813416593
-0.11370048062318035
-0.24569877297895468
-0.847500813416593
-0.11370048062318035
-0.24569877297895468
-0.8470237782794444
-0.11303046716514945
-0.24586195420657422
-0.8470237782794444
-0.11303046716514945
-0.24586195420657422
-0.8470237782794444
-0.11303046716514945
-0.24586195420657422
-0.8470237782794444
-0.11303046716514945
-0.24586195420657422
-0.8470237782794444
-0.11303046716514945
-0.24586195420657422
-0.8470237782794444
-0.11303046716514945
-0.24586195420657422
-0.8470237782794444
-0.11303046716514945
-0.24586195420657422
-0.8470237782794444
-0.11303046716514945
-0.24586195420657422
-0.8471351064494637
-0.1130412784926475
-0.24584949377191276
-0.8471351064494637
-0.1130412784926475
-0.24584949377191276
-0.8471351064494637
-0.1130412784926475
-0.24584949377191276
-0.8471351064494637
-0.1130412784926475
-0.24584949377191276
-0.8467947434759767
-0.11354760742076185
-0.24588923915623312
-0.8467947434759767
-0.11354760742076185
-0.24588923915623312
-0.8467947434759767
-0.11354760742076185
-0.24588923915623312
-0.8467947434759767
-0.11354760742076185
-0.24588923915623312
-0.8461077644379486
-0.11407039357617854
-0.2460780693282494
-0.8461077644379486
-0.11407039357617854
-0.2460780693282494
-0.8461077644379486
-0.11407039357617854
-0.2460780693282494
-0.8461077644379486
-0.11407039357617854
-0.2460780693282494
-0.8460968927482999
-0.11418103540326979
-0.2460288711854648
-0.8460968927482999
-0.11418103540326979
-0.2460288711854648
-0.8460968927482999
-0.11418103540326979
-0.2460288711854648
-0.8460968927482999
-0.11418103540326979
-0.2460288711854648
-0.8467395847291258
-0.11430880936294097
-0.2460993114832775
-0.8467395847291258
-0.11430880936294097
-0.2460993114832775
-0.8467395847291258
-0.11430880936294097
-0.2460993114832775
-0.8467395847291258
-0.11430880936294097
-0.2460993114832775
-0.8475319906043245
-0.11457048443673555
-0.24611870252740334
-0.8475319906043245
-0.11457048443673555
-0.24611870252740334
-0.8475319906043245
-0.11457048443673555
-0.24611870252740334
-0.8475319906043245
-0.11457048443673555
-0.24611870252740334
-0.8475319906043245
-0.11457048443673555
-0.24611870252740334
-0.8475319906043245
-0.11457048443673555
-0.24611870252740334
-0.8475319906043245
-0.11457048443673555
-0.24611870252740334
-0.8475319906043245
-0.11457048443673555
-0.24611870252740334
-0.8472716218261499
-0.114695729201104
-0.24647784620687457
-0.8472716218261499
-0.114695729201104
-0.24647784620687457
-0.8472716218261499
-0.114695729201104
-0.24647784620687457
-0.8472716218261499
-0.114695729201104
-0.24647784620687457
-0.8470532433299172
-0.11510211679080586
-0.2465544942019979
-0.8470532433299172
-0.11510211679080586
-0.2465544942019979
-0.8470532433299172
-0.11510211679080586
-0.2465544942019979
-0.8470532433299172
-0.11510211679080586
-0.2465544942019979
-0.847424465834585
-0.11546588395329388
-0.24693453968989043
-0.847424465834585
-0.11546588395329388
-0.24693453968989043
-0.847424465834585
-0.11546588395329388
-0.24693453968989043
-0.847424465834585
-0.11546588395329388
-0.24693453968989043
-0.848103707628891
-0.11565548151901829
-0.2471266712117402
-0.848103707628891
-0.11565548151901829
-0.2471266712117402
-0.848103707628891
-0.11565548151901829
-0.2471266712117402
-0.848103707628891
-0.11565548151901829
-0.2471266712117402
-0.8481145920034658
-0.11554489675208013
-0.24717596944175096
-0.8481145920034658
-0.11554489675208013
-0.24717596944175096
-0.8481145920034658
-0.11554489675208013
-0.24717596944175096
-0.8481145920034658
-0.11554489675208013
-0.24717596944175096
-0.8476842275851639
-0.11581897420853192
-0.247327124164984
-0.8476842275851639
-0.11581897420853192
-0.247327124164984
-0.8476842275851639
-0.11581897420853192
-0.247327124164984
-0.8476842275851639
-0.11581897420853192
-0.247327124164984
-0.847523982383552
-0.1160655555928509
-0.24762455497379263
-0.847523982383552
-0.1160655555928509
-0.24762455497379263
-0.847523982383552
-0.1160655555928509
-0.24762455497379263
-0.847523982383552
-0.1160655555928509
-0.24762455497379263
-0.8477705645492623
-0.11619769273338036
-0.24783277632443945
-0.8477705645492623
-0.11619769273338036
-0.24783277632443945
-0.8477705645492623
-0.11619769273338036
-0.24783277632443945
-0.8477705645492623
-0.11619769273338036
-0.24783277632443945
-0.8486191612488604
-0.11596880631493703
-0.24793727004128518
-0.8486191612488604
-0.11596880631493703
-0.24793727004128518
-0.8486191612488604
-0.11596880631493703
-0.24793727004128518
-0.8486191612488604
-0.11596880631493703
-0.24793727004128518
-0.8486300799617917
-0.11585823796530174
-0.24798659128800393
-0.8486300799617917
-0.11585823796530174
-0.24798659128800393
-0.8486300799617917
-0.11585823796530174
-0.24798659128800393
-0.8486300799617917
-0.11585823796530174
-0.24798659128800393
-0.8480498907109036
-0.11599814019890377
-0.24818881935882187
-0.8480498907109036
-0.11599814019890377
-0.24818881935882187
-0.8480498907109036
-0.11599814019890377
-0.24818881935882187
-0.8480498907109036
-0.11599814019890377
-0.24818881935882187
-0.8476668444561346
-0.11622295637882499
-0.24851164957625538
-0.8476668444561346
-0.11622295637882499
-0.24851164957625538
-0.8476668444561346
-0.11622295637882499
-0.24851164957625538
-0.8476668444561346
-0.11622295637882499
-0.24851164957625538
-0.8476175822508536
-0.1162103328030421
-0.24850070168316316
-0.8476175822508536
-0.1162103328030421
-0.24850070168316316
-0.8476175822508536
-0.1162103328030421
-0.24850070168316316
-0.8476175822508536
-0.1162103328030421
-0.24850070168316316
-0.8476175822508536
-0.1162103328030421
-0.24850070168316316
-0.8476175822508536
-0.1162103328030421
-0.24850070168316316
-0.8476175822508536
-0.1162103328030421
-0.24850070168316316
-0.8476175822508536
-0.1162103328030421
-0.24850070168316316
-0.8476302879081125
-0.11616140440739701
-0.24838936365793973
-0.8476302879081125
-0.11616140440739701
-0.24838936365793973
-0.8476302879081125
-0.11616140440739701
-0.24838936365793973
-0.8476302879081125
-0.11616140440739701
-0.24838936365793973
-0.8478018366246276
-0.11607430409097634
-0.248436873445098
-0.8478018366246276
-0.11607430409097634
-0.248436873445098
-0.8478018366246276
-0.11607430409097634
-0.248436873445098
-0.8478018366246276
-0.11607430409097634
-0.248436873445098
-0.8471066069720762
-0.1158097908123228
-0.24867730974696978
-0.8471066069720762
-0.1158097908123228
-0.24867730974696978
-0.8471066069720762
-0.1158097908123228
-0.24867730974696978
-0.8471066069720762
-0.1158097908123228
-0.24867730974696978
-0.8469952610699412
-0.11579889306730569
-0.2486899964729395
-0.8469952610699412
-0.11579889306730569
-0.2486899964729395
-0.8469952610699412
-0.11579889306730569
-0.2486899964729395
-0.8469952610699412
-0.11579889306730569
-0.2486899964729395
-0.8480829839854762
-0.1159364599855092
-0.24863231706469677
-0.8480829839854762
-0.1159364599855092
-0.24863231706469677
-0.8480829839854762
-0.1159364599855092
-0.24863231706469677
-0.8480829839854762
-0.1159364599855092
-0.24863231706469677
-0.8487526444080351
-0.11602867637886283
-0.24831876848601026
-0.8487526444080351
-0.11602867637886283
-0.24831876848601026
-0.8487526444080351
-0.11602867637886283
-0.24831876848601026
-0.8487526444080351
-0.11602867637886283
-0.24831876848601026
-0.8479149314772363
-0.11614681200434446
-0.24826356255515375
-0.8479149314772363
-0.11614681200434446
-0.24826356255515375
-0.8479149314772363
-0.11614681200434446
-0.24826356255515375
-0.8479149314772363
-0.11614681200434446
-0.24826356255515375
-0.8469768172265977
-0.11614352207711955
-0.24827038489577996
-0.8469768172265977
-0.11614352207711955
-0.24827038489577996
-0.8469768172265977
-0.11614352207711955
-0.24827038489577996
-0.8469768172265977
-0.11614352207711955
-0.24827038489577996
-0.8469768172265977
-0.11614352207711955
-0.24827038489577996
-0.8469768172265977
-0.11614352207711955
-0.24827038489577996
-0.8469768172265977
-0.11614352207711955
-0.24827038489577996
-0.8469768172265977
-0.11614352207711955
-0.24827038489577996
-0.8472577096691407
-0.11573564298364789
-0.2481700229839151
-0.8472577096691407
-0.11573564298364789
-0.2481700229839151
-0.8472577096691407
-0.11573564298364789
-0.2481700229839151
-0.8472577096691407
-0.11573564298364789
-0.2481700229839151
-0.8472577096691407
-0.11573564298364789
-0.2481700229839151
-0.8472577096691407
-0.11573564298364789
-0.2481700229839151
-0.8472577096691407
-0.11573564298364789
-0.2481700229839151
-0.8472577096691407
-0.11573564298364789
-0.2481700229839151
-0.8472703782510449
-0.11568672848587298
-0.24805868046511922
-0.8472703782510449
-0.11568672848587298
-0.24805868046511922
-0.8472703782510449
-0.11568672848587298
-0.24805868046511922
-0.8472703782510449
-0.11568672848587298
-0.24805868046511922
-0.8472813188471585
-0.1155761301705491
-0.24810792553153643
-0.8472813188471585
-0.1155761301705491
-0.24810792553153643
-0.8472813188471585
-0.1155761301705491
-0.24810792553153643
-0.8472813188471585
-0.1155761301705491
-0.24810792553153643
-0.8469895103321625
-0.11609462549499722
-0.2481590270251822
-0.8469895103321625
-0.11609462549499722
-0.2481590270251822
-0.8469895103321625
-0.11609462549499722
-0.2481590270251822
-0.8469895103321625
-0.11609462549499722
-0.2481590270251822
-0.8469895103321625
-0.11609462549499722
-0.2481590270251822
-0.8469895103321625
-0.11609462549499722
-0.2481590270251822
-0.8469895103321625
-0.11609462549499722
-0.2481590270251822
-0.8469895103321625
-0.11609462549499722
-0.2481590270251822
-0.8474235414444092
-0.11594412258998034
-0.24768649000237325
-0.8474235414444092
-0.11594412258998034
-0.24768649000237325
-0.8474235414444092
-0.11594412258998034
-0.24768649000237325
-0.8474235414444092
-0.11594412258998034
-0.24768649000237325
-0.8475348882791705
-0.11595495887982474
-0.2476738169270887
-0.8475348882791705
-0.11595495887982474
-0.2476738169270887
-0.8475348882791705
-0.11595495887982474
-0.2476738169270887
-0.8475348882791705
-0.11595495887982474
-0.2476738169270887
-0.8471638718951767
-0.11559102448625393
-0.24729384588653586
-0.8471638718951767
-0.11559102448625393
-0.24729384588653586
-0.8471638718951767
-0.11559102448625393
-0.24729384588653586
-0.8471638718951767
-0.11559102448625393
-0.24729384588653586
-0.846679659695056
-0.11515468606568086
-0.24708694761186825
-0.846679659695056
-0.11515468606568086
-0.24708694761186825
-0.846679659695056
-0.11515468606568086
-0.24708694761186825
-0.846679659695056
-0.11515468606568086
-0.24708694761186825
-0.8464955700191129
-0.11529083847245401
-0.2471508051677929
-0.8464955700191129
-0.11529083847245401
-0.2471508051677929
-0.8464955700191129
-0.11529083847245401
-0.2471508051677929
-0.8464955700191129
-0.11529083847245401
-0.2471508051677929
-0.8473618442489946
-0.11519767327081867
-0.24666238397901266
-0.8473618442489946
-0.11519767327081867
-0.24666238397901266
-0.8473618442489946
-0.11519767327081867
-0.24666238397901266
-0.8473618442489946
-0.11519767327081867
-0.24666238397901266
-0.847372718833698
-0.11508706466797404
-0.24671164643282117
-0.847372718833698
-0.11508706466797404
-0.24671164643282117
-0.847372718833698
-0.11508706466797404
-0.24671164643282117
-0.847372718833698
-0.11508706466797404
-0.24671164643282117
-0.8473618442489946
-0.11519767327081867
-0.24666238397901266
-0.8473618442489946
-0.11519767327081867
-0.24666238397901266
-0.8473618442489946
-0.11519767327081867
-0.24666238397901266
-0.8473618442489946
-0.11519767327081867
-0.24666238397901266
-0.8466482102416168
-0.11527845339168012
-0.24648295480421217
-0.8466482102416168
-0.11527845339168012
-0.24648295480421217
-0.8466482102416168
-0.11527845339168012
-0.24648295480421217
-0.8466482102416168
-0.11527845339168012
-0.24648295480421217
-0.8466373487801144
-0.1153890775370779
-0.2464337332595096
-0.8466373487801144
-0.1153890775370779
-0.2464337332595096
-0.8466373487801144
-0.1153890775370779
-0.2464337332595096
-0.8466373487801144
-0.1153890775370779
-0.2464337332595096
-0.8474165661280123
-0.11542988155831367
-0.2462684405765935
-0.8474165661280123
-0.11542988155831367
-0.2462684405765935
-0.8474165661280123
-0.11542988155831367
-0.2462684405765935
-0.8474165661280123
-0.11542988155831367
-0.2462684405765935
-0.8479856932106214
-0.11540006998746154
-0.24601701169089038
-0.8479856932106214
-0.11540006998746154
-0.24601701169089038
-0.8479856932106214
-0.11540006998746154
-0.24601701169089038
-0.8479856932106214
-0.11540006998746154
-0.24601701169089038
-0.8479856932106214
-0.11540006998746154
-0.24601701169089038
-0.8479856932106214
-0.11540006998746154
-0.24601701169089038
-0.8479856932106214
-0.11540006998746154
-0.24601701169089038
-0.8479856932106214
-0.11540006998746154
-0.24601701169089038
-0.847713730124185
-0.1153660392652652
-0.24603138680499645
-0.847713730124185
-0.1153660392652652
-0.24603138680499645
-0.847713730124185
-0.1153660392652652
-0.24603138680499645
-0.847713730124185
-0.1153660392652652
-0.24603138680499645
-0.8471053066630854
-0.1149681191948006
-0.24594849342159805
-0.8471053066630854
-0.1149681191948006
-0.24594849342159805
-0.8471053066630854
-0.1149681191948006
-0.24594849342159805
-0.8471053066630854
-0.1149681191948006
-0.24594849342159805
-0.8471053066630854
-0.1149681191948006
-0.24594849342159805
-0.8471053066630854
-0.1149681191948006
-0.24594849342159805
-0.8471053066630854
-0.1149681191948006
-0.24594849342159805
-0.8471053066630854
-0.1149681191948006
-0.24594849342159805
-0.8471053066630854
-0.1149681191948006
-0.24594849342159805
-0.8471053066630854
-0.1149681191948006
-0.24594849342159805
-0.8471053066630854
-0.1149681191948006
-0.24594849342159805
-0.8471053066630854
-0.1149681191948006
-0.24594849342159805
-0.8471053066630854
-0.1149681191948006
-0.24594849342159805
-0.8471053066630854
-0.1149681191948006
-0.24594849342159805
-0.8471053066630854
-0.1149681191948006
-0.24594849342159805
-0.8471053066630854
-0.1149681191948006
-0.24594849342159805
-0.8464493190637571
-0.11461949967559319
-0.24569392617039937
-0.8464493190637571
-0.11461949967559319
-0.24569392617039937
-0.8464493190637571
-0.11461949967559319
-0.24569392617039937
-0.8464493190637571
-0.11461949967559319
-0.24569392617039937
-0.8460452795610851
-0.11458807382278832
-0.2451659816004689
-0.8460452795610851
-0.11458807382278832
-0.2451659816004689
-0.8460452795610851
-0.11458807382278832
-0.2451659816004689
-0.8460452795610851
-0.11458807382278832
-0.2451659816004689
-0.8458898865764592
-0.1147502370466469
-0.24468598090619273
-0.8458898865764592
-0.1147502370466469
-0.24468598090619273
-0.8458898865764592
-0.1147502370466469
-0.24468598090619273
-0.8458898865764592
-0.1147502370466469
-0.24468598090619273
-0.845835213338258
-0.11503380518425373
-0.2441442920225883
-0.845835213338258
-0.11503380518425373
-0.2441442920225883
-0.845835213338258
-0.11503380518425373
-0.2441442920225883
-0.845835213338258
-0.11503380518425373
-0.2441442920225883
-0.8458200316551717
-0.11571020305213717
-0.2438598731021156
-0.8458200316551717
-0.11571020305213717
-0.2438598731021156
-0.8458200316551717
-0.11571020305213717
-0.2438598731021156
-0.8458200316551717
-0.11571020305213717
-0.2438598731021156
-0.8453932013810653
-0.11731000473608727
-0.24396346649890968
-0.8453932013810653
-0.11731000473608727
-0.24396346649890968
-0.8453932013810653
-0.11731000473608727
-0.24396346649890968
-0.8453932013810653
-0.11731000473608727
-0.24396346649890968
-0.8430734517746812
-0.11736118750262112
-0.2439455825782354
-0.8430734517746812
-0.11736118750262112
-0.2439455825782354
-0.8430734517746812
-0.11736118750262112
-0.2439455825782354
-0.8430734517746812
-0.11736118750262112
-0.2439455825782354
-0.8400347787521036
-0.11658269153269872
-0.24470771908642253
-0.8400347787521036
-0.11658269153269872
-0.24470771908642253
-0.8400347787521036
-0.11658269153269872
-0.24470771908642253
-0.8400347787521036
-0.11658269153269872
-0.24470771908642253
-0.8392389404568178
-0.11646574770363807
-0.24530563105049913
-0.8392389404568178
-0.11646574770363807
-0.24530563105049913
-0.8392389404568178
-0.11646574770363807
-0.24530563105049913
-0.8392389404568178
-0.11646574770363807
-0.24530563105049913
-0.8390009522220163
-0.11589291028911315
-0.24500931397050346
-0.8390009522220163
-0.11589291028911315
-0.24500931397050346
-0.8390009522220163
-0.11589291028911315
-0.24500931397050346
-0.8390009522220163
-0.11589291028911315
-0.24500931397050346
-0.8383546272960283
-0.11564100824336303
-0.2452595612671668
-0.8383546272960283
-0.11564100824336303
-0.2452595612671668
-0.8383546272960283
-0.11564100824336303
-0.2452595612671668
-0.8383546272960283
-0.11564100824336303
-0.2452595612671668
-0.8389170398499258
-0.11563136173902892
-0.24594610012997398
-0.8389170398499258
-0.11563136173902892
-0.24594610012997398
-0.8389170398499258
-0.11563136173902892
-0.24594610012997398
-0.8389170398499258
-0.11563136173902892
-0.24594610012997398
-0.841640084096187
-0.11534364622474855
-0.24619737121194915
-0.841640084096187
-0.11534364622474855
-0.24619737121194915
-0.841640084096187
-0.11534364622474855
-0.24619737121194915
-0.841640084096187
-0.11534364622474855
-0.24619737121194915
-0.8435489472137945
-0.11501624121209401
-0.24633169061744145
-0.8435489472137945
-0.11501624121209401
-0.24633169061744145
-0.8435489472137945
-0.11501624121209401
-0.24633169061744145
-0.8435489472137945
-0.11501624121209401
-0.24633169061744145
-0.8412712812123556
-0.11357326754511866
-0.24508357835977965
-0.8412712812123556
-0.11357326754511866
-0.24508357835977965
-0.8412712812123556
-0.11357326754511866
-0.24508357835977965
-0.8412712812123556
-0.11357326754511866
-0.24508357835977965
-0.8390087473747082
-0.1129251731646964
-0.2446881312300555
-0.8390087473747082
-0.1129251731646964
-0.2446881312300555
-0.8390087473747082
-0.1129251731646964
-0.2446881312300555
-0.8390087473747082
-0.1129251731646964
-0.2446881312300555
-0.8394270654526509
-0.11296841496374467
-0.2449445886476751
-0.8394270654526509
-0.11296841496374467
-0.2449445886476751
-0.8394270654526509
-0.11296841496374467
-0.2449445886476751
-0.8394270654526509
-0.11296841496374467
-0.2449445886476751
-0.8403681432089162
-0.11309463246233153
-0.24461854088489995
-0.8403681432089162
-0.11309463246233153
-0.24461854088489995
-0.8403681432089162
-0.11309463246233153
-0.24461854088489995
-0.8403681432089162
-0.11309463246233153
-0.24461854088489995
-0.8409644749331942
-0.11354052956977381
-0.2448148447167246
-0.8409644749331942
-0.11354052956977381
-0.2448148447167246
-0.8409644749331942
-0.11354052956977381
-0.2448148447167246
-0.8409644749331942
-0.11354052956977381
-0.2448148447167246
-0.842617555939295
-0.11352244394502163
-0.2448286289702906
-0.842617555939295
-0.11352244394502163
-0.2448286289702906
-0.842617555939295
-0.11352244394502163
-0.2448286289702906
-0.842617555939295
-0.11352244394502163
-0.2448286289702906
-0.8459586014443703
-0.11300823633925527
-0.24438703081592444
-0.8459586014443703
-0.11300823633925527
-0.24438703081592444
-0.8459586014443703
-0.11300823633925527
-0.24438703081592444
-0.8459586014443703
-0.11300823633925527
-0.24438703081592444
-0.8489622926309037
-0.11258106471188854
-0.2448389195951612
-0.8489622926309037
-0.11258106471188854
-0.2448389195951612
-0.8489622926309037
-0.11258106471188854
-0.2448389195951612
-0.8489622926309037
-0.11258106471188854
-0.2448389195951612
-0.8487443205177183
-0.11298778761338782
-0.24491501724407339
-0.8487443205177183
-0.11298778761338782
-0.24491501724407339
-0.8487443205177183
-0.11298778761338782
-0.24491501724407339
-0.8487443205177183
-0.11298778761338782
-0.24491501724407339
-0.8457607679448016
-0.11313179222082738
-0.2447227372267006
-0.8457607679448016
-0.11313179222082738
-0.2447227372267006
-0.8457607679448016
-0.11313179222082738
-0.2447227372267006
-0.8457607679448016
-0.11313179222082738
-0.2447227372267006
-0.8456401975935322
-0.11329348809416552
-0.2445254275392716
-0.8456401975935322
-0.11329348809416552
-0.2445254275392716
-0.8456401975935322
-0.11329348809416552
-0.2445254275392716
-0.8456401975935322
-0.11329348809416552
-0.2445254275392716
-0.8479714251711831
-0.11439586609476979
-0.2447085636098985
-0.8479714251711831
-0.11439586609476979
-0.2447085636098985
-0.8479714251711831
-0.11439586609476979
-0.2447085636098985
-0.8479714251711831
-0.11439586609476979
-0.2447085636098985
-0.8496608942815167
-0.11516239047312431
-0.24436333394649062
-0.8496608942815167
-0.11516239047312431
-0.24436333394649062
-0.8496608942815167
-0.11516239047312431
-0.24436333394649062
-0.8496608942815167
-0.11516239047312431
-0.24436333394649062
-0.8497829228786815
-0.11506249118836863
-0.24440018452560514
-0.8497829228786815
-0.11506249118836863
-0.24440018452560514
-0.8497829228786815
-0.11506249118836863
-0.24440018452560514
-0.8497829228786815
-0.11506249118836863
-0.24440018452560514
-0.8485872576616964
-0.1150397415284893
-0.24414881067317837
-0.8485872576616964
-0.1150397415284893
-0.24414881067317837
-0.8485872576616964
-0.1150397415284893
-0.24414881067317837
-0.8485872576616964
-0.1150397415284893
-0.24414881067317837
-0.8481135650236764
-0.11548685716828348
-0.2438070273871434
-0.8481135650236764
-0.11548685716828348
-0.2438070273871434
-0.8481135650236764
-0.11548685716828348
-0.2438070273871434
-0.8481135650236764
-0.11548685716828348
-0.2438070273871434
-0.8482384005410595
-0.11571855314246264
-0.24397852990046148
-0.8482384005410595
-0.11571855314246264
-0.24397852990046148
-0.8482384005410595
-0.11571855314246264
-0.24397852990046148
-0.8482384005410595
-0.11571855314246264
-0.24397852990046148
-0.8481270548225865
-0.11570791971287299
-0.24399110220453635
-0.8481270548225865
-0.11570791971287299
-0.24399110220453635
-0.8481270548225865
-0.11570791971287299
-0.24399110220453635
-0.8481270548225865
-0.11570791971287299
-0.24399110220453635
-0.8490506963610854
-0.11569671920016984
-0.24425655040502064
-0.8490506963610854
-0.11569671920016984
-0.24425655040502064
-0.8490506963610854
-0.11569671920016984
-0.24425655040502064
-0.8490506963610854
-0.11569671920016984
-0.24425655040502064
-0.8503894097985298
-0.11608669184858805
-0.24408529265215415
-0.8503894097985298
-0.11608669184858805
-0.24408529265215415
-0.8503894097985298
-0.11608669184858805
-0.24408529265215415
-0.8503894097985298
-0.11608669184858805
-0.24408529265215415
-0.8501966315343404
-0.11639519883941743
-0.24393891233046666
-0.8501966315343404
-0.11639519883941743
-0.24393891233046666
-0.8501966315343404
-0.11639519883941743
-0.24393891233046666
-0.8501966315343404
-0.11639519883941743
-0.24393891233046666
-0.8485293127605698
-0.11667143710766703
-0.24449487299663164
-0.8485293127605698
-0.11667143710766703
-0.24449487299663164
-0.8485293127605698
-0.11667143710766703
-0.24449487299663164
-0.8485293127605698
-0.11667143710766703
-0.24449487299663164
-0.8469086143651687
-0.11662769419923293
-0.24492701596562277
-0.8469086143651687
-0.11662769419923293
-0.24492701596562277
-0.8469086143651687
-0.11662769419923293
-0.24492701596562277
-0.8469086143651687
-0.11662769419923293
-0.24492701596562277
-0.8469193600824517
-0.1165170709577881
-0.24497625795965094
-0.8469193600824517
-0.1165170709577881
-0.24497625795965094
-0.8469193600824517
-0.1165170709577881
-0.24497625795965094
-0.8469193600824517
-0.1165170709577881
-0.24497625795965094
-0.8469193600824517
-0.1165170709577881
-0.24497625795965094
-0.8469193600824517
-0.1165170709577881
-0.24497625795965094
-0.8469193600824517
-0.1165170709577881
-0.24497625795965094
-0.8469193600824517
-0.1165170709577881
-0.24497625795965094
-0.8472033354985479
-0.11623211091296433
-0.24455477219336408
-0.8472033354985479
-0.11623211091296433
-0.24455477219336408
-0.8472033354985479
-0.11623211091296433
-0.24455477219336408
-0.8472033354985479
-0.11623211091296433
-0.24455477219336408
-0.8475189940321932
-0.11609348102504075
-0.2450329323608958
-0.8475189940321932
-0.11609348102504075
-0.2450329323608958
-0.8475189940321932
-0.11609348102504075
-0.2450329323608958
-0.8475189940321932
-0.11609348102504075
-0.2450329323608958
-0.8472294341369456
-0.11619337773005609
-0.2459362499305307
-0.8472294341369456
-0.11619337773005609
-0.2459362499305307
-0.8472294341369456
-0.11619337773005609
-0.2459362499305307
-0.8472294341369456
-0.11619337773005609
-0.2459362499305307
-0.8461419901826474
-0.11632701742480259
-0.24628987716292614
-0.8461419901826474
-0.11632701742480259
-0.24628987716292614
-0.8461419901826474
-0.11632701742480259
-0.24628987716292614
-0.8461419901826474
-0.11632701742480259
-0.24628987716292614
-0.8456919100344507
-0.11562089281261516
-0.24606987736746225
-0.8456919100344507
-0.11562089281261516
-0.24606987736746225
-0.8456919100344507
-0.11562089281261516
-0.24606987736746225
-0.8456919100344507
-0.11562089281261516
-0.24606987736746225
-0.8460049417508615
-0.11488085665763564
-0.2461170174474627
-0.8460049417508615
-0.11488085665763564
-0.2461170174474627
-0.8460049417508615
-0.11488085665763564
-0.2461170174474627
-0.8460049417508615
-0.11488085665763564
-0.2461170174474627
-0.8472414208410785
-0.11460856610879576
-0.24718230637585265
-0.8472414208410785
-0.11460856610879576
-0.24718230637585265
-0.8472414208410785
-0.11460856610879576
-0.24718230637585265
-0.8472414208410785
-0.11460856610879576
-0.24718230637585265
-0.8488772089833236
-0.1144568804626528
-0.2477885139431787
-0.8488772089833236
-0.1144568804626528
-0.2477885139431787
-0.8488772089833236
-0.1144568804626528
-0.2477885139431787
-0.8488772089833236
-0.1144568804626528
-0.2477885139431787
-0.8486052959510596
-0.11442262139385546
-0.2478027630540955
-0.8486052959510596
-0.11442262139385546
-0.2478027630540955
-0.8486052959510596
-0.11442262139385546
-0.2478027630540955
-0.8486052959510596
-0.11442262139385546
-0.2478027630540955
-0.8483509486830226
-0.11452413104581331
-0.2472238548574313
-0.8483509486830226
-0.11452413104581331
-0.2472238548574313
-0.8483509486830226
-0.11452413104581331
-0.2472238548574313
-0.8483509486830226
-0.11452413104581331
-0.2472238548574313
-0.8485677558967476
-0.11484108691148777
-0.24666747421957438
-0.8485677558967476
-0.11484108691148777
-0.24666747421957438
-0.8485677558967476
-0.11484108691148777
-0.24666747421957438
-0.8485677558967476
-0.11484108691148777
-0.24666747421957438
-0.8489471607237903
-0.11524272323801107
-0.24594860959228118
-0.8489471607237903
-0.11524272323801107
-0.24594860959228118
-0.8489471607237903
-0.11524272323801107
-0.24594860959228118
-0.8489471607237903
-0.11524272323801107
-0.24594860959228118
-0.8488013343998636
-0.11670525972490683
-0.24448029453750644
-0.8488013343998636
-0.11670525972490683
-0.24448029453750644
-0.8488013343998636
-0.11670525972490683
-0.24448029453750644
-0.8488013343998636
-0.11670525972490683
-0.24448029453750644
-0.8512726364998482
-0.11933877024832014
-0.2420736223285227
-0.8512726364998482
-0.11933877024832014
-0.2420736223285227
-0.8512726364998482
-0.11933877024832014
-0.2420736223285227
-0.8512726364998482
-0.11933877024832014
-0.2420736223285227
-0.8558519603050049
-0.12146932087323994
-0.23878756066776916
-0.8558519603050049
-0.12146932087323994
-0.23878756066776916
-0.8558519603050049
-0.12146932087323994
-0.23878756066776916
-0.8558519603050049
-0.12146932087323994
-0.23878756066776916
-0.8618091545675304
-0.12206146019959989
-0.23672115242892383
-0.8618091545675304
-0.12206146019959989
-0.23672115242892383
-0.8618091545675304
-0.12206146019959989
-0.23672115242892383
-0.8618091545675304
-0.12206146019959989
-0.23672115242892383
-0.8672121923493994
-0.12125212187058985
-0.23474568151532293
-0.8672121923493994
-0.12125212187058985
-0.23474568151532293
-0.8672121923493994
-0.12125212187058985
-0.23474568151532293
-0.8672121923493994
-0.12125212187058985
-0.23474568151532293
-0.8701668800211226
-0.12026309691319587
-0.23259143595923712
-0.8701668800211226
-0.12026309691319587
-0.23259143595923712
-0.8701668800211226
-0.12026309691319587
-0.23259143595923712
-0.8701668800211226
-0.12026309691319587
-0.23259143595923712
-0.8708339459075339
-0.12014889118088234
-0.23099485701013225
-0.8708339459075339
-0.12014889118088234
-0.23099485701013225
-0.8708339459075339
-0.12014889118088234
-0.23099485701013225
-0.8708339459075339
-0.12014889118088234
-0.23099485701013225
-0.8703981618209222
-0.12088776778363029
-0.23039607178971658
-0.8703981618209222
-0.12088776778363029
-0.23039607178971658
-0.8703981618209222
-0.12088776778363029
-0.23039607178971658
-0.8703981618209222
-0.12088776778363029
-0.23039607178971658
-0.8689010022393899
-0.12198089666766151
-0.23030133965407434
-0.8689010022393899
-0.12198089666766151
-0.23030133965407434
-0.8689010022393899
-0.12198089666766151
-0.23030133965407434
-0.8689010022393899
-0.12198089666766151
-0.23030133965407434
-0.8668548765772619
-0.12345385648815724
-0.23032036986099635
-0.8668548765772619
-0.12345385648815724
-0.23032036986099635
-0.8668548765772619
-0.12345385648815724
-0.23032036986099635
-0.8668548765772619
-0.12345385648815724
-0.23032036986099635
-0.8661449241399065
-0.12598031369904664
-0.22986847171209368
-0.8661449241399065
-0.12598031369904664
-0.22986847171209368
-0.8661449241399065
-0.12598031369904664
-0.22986847171209368
-0.8661449241399065
-0.12598031369904664
-0.22986847171209368
-0.8673922904124318
-0.12877564706454747
-0.22939055786447135
-0.8673922904124318
-0.12877564706454747
-0.22939055786447135
-0.8673922904124318
-0.12877564706454747
-0.22939055786447135
-0.8673922904124318
-0.12877564706454747
-0.22939055786447135
-0.869275000143169
-0.13070222612742466
-0.22916820881285663
-0.869275000143169
-0.13070222612742466
-0.22916820881285663
-0.869275000143169
-0.13070222612742466
-0.22916820881285663
-0.869275000143169
-0.13070222612742466
-0.22916820881285663
-0.8706120943434578
-0.13204536886421173
-0.22988640267044455
-0.8706120943434578
-0.13204536886421173
-0.22988640267044455
-0.8706120943434578
-0.13204536886421173
-0.22988640267044455
-0.8706120943434578
-0.13204536886421173
-0.22988640267044455
-0.8708171291623223
-0.13281586062725237
-0.2311702189589345
-0.8708171291623223
-0.13281586062725237
-0.2311702189589345
-0.8708171291623223
-0.13281586062725237
-0.2311702189589345
-0.8708171291623223
-0.13281586062725237
-0.2311702189589345
-0.8707453630816844
-0.13401444074041113
-0.2317233443447915
-0.8707453630816844
-0.13401444074041113
-0.2317233443447915
-0.8707453630816844
-0.13401444074041113
-0.2317233443447915
-0.8707453630816844
-0.13401444074041113
-0.2317233443447915
-0.8716343040418428
-0.13614858891286405
-0.23195331268069025
-0.8716343040418428
-0.13614858891286405
-0.23195331268069025
-0.8716343040418428
-0.13614858891286405
-0.23195331268069025
-0.8716343040418428
-0.13614858891286405
-0.23195331268069025
-0.873109852223919
-0.13819615637010582
-0.2318120724775319
-0.873109852223919
-0.13819615637010582
-0.2318120724775319
-0.873109852223919
-0.13819615637010582
-0.2318120724775319
-0.873109852223919
-0.13819615637010582
-0.2318120724775319
-0.8748731086632208
-0.1394919793256421
-0.23199602481068488
-0.8748731086632208
-0.1394919793256421
-0.23199602481068488
-0.8748731086632208
-0.1394919793256421
-0.23199602481068488
-0.8748731086632208
-0.1394919793256421
-0.23199602481068488
-0.875507448718257
-0.14027498679904873
-0.23258904198123953
-0.875507448718257
-0.14027498679904873
-0.23258904198123953
-0.875507448718257
-0.14027498679904873
-0.23258904198123953
-0.875507448718257
-0.14027498679904873
-0.23258904198123953
-0.8750542430694602
-0.1404854400397064
-0.2331765443302793
-0.8750542430694602
-0.1404854400397064
-0.2331765443302793
-0.8750542430694602
-0.1404854400397064
-0.2331765443302793
-0.8750542430694602
-0.1404854400397064
-0.2331765443302793
-0.8741201380997227
-0.14009059348251712
-0.23378187156554342
-0.8741201380997227
-0.14009059348251712
-0.23378187156554342
-0.8741201380997227
-0.14009059348251712
-0.23378187156554342
-0.8741201380997227
-0.14009059348251712
-0.23378187156554342
-0.8735057099614867
-0.13940700198536862
-0.23424787627237875
-0.8735057099614867
-0.13940700198536862
-0.23424787627237875
-0.8735057099614867
-0.13940700198536862
-0.23424787627237875
-0.8735057099614867
-0.13940700198536862
-0.23424787627237875
-0.8739368205519609
-0.13889865734810466
-0.2344697251274047
-0.8739368205519609
-0.13889865734810466
-0.2344697251274047
-0.8739368205519609
-0.13889865734810466
-0.2344697251274047
-0.8739368205519609
-0.13889865734810466
-0.2344697251274047
-0.8742423705929698
-0.13866071837587246
-0.2344421120988367
-0.8742423705929698
-0.13866071837587246
-0.2344421120988367
-0.8742423705929698
-0.13866071837587246
-0.2344421120988367
-0.8742423705929698
-0.13866071837587246
-0.2344421120988367
-0.8743534222052257
-0.13867006510633514
-0.23442834186854225
-0.8743534222052257
-0.13867006510633514
-0.23442834186854225
-0.8743534222052257
-0.13867006510633514
-0.23442834186854225
-0.8743534222052257
-0.13867006510633514
-0.23442834186854225
-0.8741647354803692
-0.13787719940360185
-0.23452903886123788
-0.8741647354803692
-0.13787719940360185
-0.23452903886123788
-0.8741647354803692
-0.13787719940360185
-0.23452903886123788
-0.8741647354803692
-0.13787719940360185
-0.23452903886123788
-0.8738238275616559
-0.13695133184010205
-0.23468453551060023
-0.8738238275616559
-0.13695133184010205
-0.23468453551060023
-0.8738238275616559
-0.13695133184010205
-0.23468453551060023
-0.8738238275616559
-0.13695133184010205
-0.23468453551060023
-0.8735529386767373
-0.1358189121859632
-0.23495072821067198
-0.8735529386767373
-0.1358189121859632
-0.23495072821067198
-0.8735529386767373
-0.1358189121859632
-0.23495072821067198
-0.8735529386767373
-0.1358189121859632
-0.23495072821067198
-0.8734988220025768
-0.13487504365802516
-0.23497695603382787
-0.8734988220025768
-0.13487504365802516
-0.23497695603382787
-0.8734988220025768
-0.13487504365802516
-0.23497695603382787
-0.8734988220025768
-0.13487504365802516
-0.23497695603382787
-0.87368480689279
-0.13423389516208703
-0.23499517000684525
-0.87368480689279
-0.13423389516208703
-0.23499517000684525
-0.87368480689279
-0.13423389516208703
-0.23499517000684525
-0.87368480689279
-0.13423389516208703
-0.23499517000684525
-0.8742822175573269
-0.13380838188653935
-0.2350523913287595
-0.8742822175573269
-0.13380838188653935
-0.2350523913287595
-0.8742822175573269
-0.13380838188653935
-0.2350523913287595
-0.8742822175573269
-0.13380838188653935
-0.2350523913287595
-0.8749771062132496
-0.13344278909070953
-0.23520733637428934
-0.8749771062132496
-0.13344278909070953
-0.23520733637428934
-0.8749771062132496
-0.13344278909070953
-0.23520733637428934
-0.8749771062132496
-0.13344278909070953
-0.23520733637428934
-0.8749867153611024
-0.13333281680179962
-0.23525817013443653
-0.8749867153611024
-0.13333281680179962
-0.23525817013443653
-0.8749867153611024
-0.13333281680179962
-0.23525817013443653
-0.8749867153611024
-0.13333281680179962
-0.23525817013443653
-0.8751361532956704
-0.13290247912585113
-0.23544803723012836
-0.8751361532956704
-0.13290247912585113
-0.23544803723012836
-0.8751361532956704
-0.13290247912585113
-0.23544803723012836
-0.8751361532956704
-0.13290247912585113
-0.23544803723012836
-0.8753365076031123
-0.1324855257136835
-0.23564760154389136
-0.8753365076031123
-0.1324855257136835
-0.23564760154389136
-0.8753365076031123
-0.1324855257136835
-0.23564760154389136
-0.8753365076031123
-0.1324855257136835
-0.23564760154389136
-0.8753365076031123
-0.1324855257136835
-0.23564760154389136
-0.8753365076031123
-0.1324855257136835
-0.23564760154389136
-0.8753365076031123
-0.1324855257136835
-0.23564760154389136
-0.8753365076031123
-0.1324855257136835
-0.23564760154389136
-0.8753365076031123
-0.1324855257136835
-0.23564760154389136
-0.8753365076031123
-0.1324855257136835
-0.23564760154389136
-0.8753365076031123
-0.1324855257136835
-0.23564760154389136
-0.8753365076031123
-0.1324855257136835
-0.23564760154389136
-0.875447439787715
-0.13249509254328226
-0.23563414665040372
-0.875447439787715
-0.13249509254328226
-0.23563414665040372
-0.875447439787715
-0.13249509254328226
-0.23563414665040372
-0.875447439787715
-0.13249509254328226
-0.23563414665040372
-0.875447439787715
-0.13249509254328226
-0.23563414665040372
-0.875447439787715
-0.13249509254328226
-0.23563414665040372
-0.875447439787715
-0.13249509254328226
-0.23563414665040372
-0.875447439787715
-0.13249509254328226
-0.23563414665040372
-0.8750637869220517
-0.1324530510322834
-0.23566485399096
-0.8750637869220517
-0.1324530510322834
-0.23566485399096
-0.8750637869220517
-0.1324530510322834
-0.23566485399096
-0.8750637869220517
-0.1324530510322834
-0.23566485399096
-0.8751747252238891
-0.13246262145172694
-0.23565140185439484
-0.8751747252238891
-0.13246262145172694
-0.23565140185439484
-0.8751747252238891
-0.13246262145172694
-0.23565140185439484
-0.8751747252238891
-0.13246262145172694
-0.23565140185439484
-0.8751747252238891
-0.13246262145172694
-0.23565140185439484
-0.8751747252238891
-0.13246262145172694
-0.23565140185439484
-0.8751747252238891
-0.13246262145172694
-0.23565140185439484
-0.8751747252238891
-0.13246262145172694
-0.23565140185439484
-0.8751747252238891
-0.13246262145172694
-0.23565140185439484
-0.8751747252238891
-0.13246262145172694
-0.23565140185439484
-0.8751747252238891
-0.13246262145172694
-0.23565140185439484
-0.8751747252238891
-0.13246262145172694
-0.23565140185439484
-0.8751747252238891
-0.13246262145172694
-0.23565140185439484
-0.8751747252238891
-0.13246262145172694
-0.23565140185439484
-0.8751747252238891
-0.13246262145172694
-0.23565140185439484
-0.8751747252238891
-0.13246262145172694
-0.23565140185439484
-0.8751747252238891
-0.13246262145172694
-0.23565140185439484
-0.8751747252238891
-0.13246262145172694
-0.23565140185439484
-0.8751747252238891
-0.13246262145172694
-0.23565140185439484
-0.8751747252238891
-0.13246262145172694
-0.23565140185439484
-0.8751843819819265
-0.1323526579169797
-0.23570224397594483
-0.8751843819819265
-0.1323526579169797
-0.23570224397594483
-0.8751843819819265
-0.1323526579169797
-0.23570224397594483
-0.8751843819819265
-0.1323526579169797
-0.23570224397594483
-0.8751747252238891
-0.13246262145172694
-0.23565140185439484
-0.8751747252238891
-0.13246262145172694
-0.23565140185439484
-0.8751747252238891
-0.13246262145172694
-0.23565140185439484
-0.8751747252238891
-0.13246262145172694
-0.23565140185439484
-0.8751843819819265
-0.1323526579169797
-0.23570224397594483
-0.8751843819819265
-0.1323526579169797
-0.23570224397594483
-0.8751843819819265
-0.1323526579169797
-0.23570224397594483
-0.8751843819819265
-0.1323526579169797
-0.23570224397594483
-0.8743893720656404
-0.13209486024446807
-0.23569375549531243
-0.8743893720656404
-0.13209486024446807
-0.23569375549531243
-0.8743893720656404
-0.13209486024446807
-0.23569375549531243
-0.8743893720656404
-0.13209486024446807
-0.23569375549531243
-0.8735847058214219
-0.13194707293928026
-0.23563430561314805
-0.8735847058214219
-0.13194707293928026
-0.23563430561314805
-0.8735847058214219
-0.13194707293928026
-0.23563430561314805
-0.8735847058214219
-0.13194707293928026
-0.23563430561314805
-0.8734737340812685
-0.13193747942858966
-0.23564772034842607
-0.8734737340812685
-0.13193747942858966
-0.23564772034842607
-0.8734737340812685
-0.13193747942858966
-0.23564772034842607
-0.8734737340812685
-0.13193747942858966
-0.23564772034842607
-0.8734737340812685
-0.13193747942858966
-0.23564772034842607
-0.8734737340812685
-0.13193747942858966
-0.23564772034842607
-0.8734737340812685
-0.13193747942858966
-0.23564772034842607
-0.8734737340812685
-0.13193747942858966
-0.23564772034842607
-0.8734737340812685
-0.13193747942858966
-0.23564772034842607
-0.8734737340812685
-0.13193747942858966
-0.23564772034842607
-0.8734737340812685
-0.13193747942858966
-0.23564772034842607
-0.8734737340812685
-0.13193747942858966
-0.23564772034842607
-0.8734229870139693
-0.13192418244694307
-0.2356380419288583
-0.8734229870139693
-0.13192418244694307
-0.2356380419288583
-0.8734229870139693
-0.13192418244694307
-0.2356380419288583
-0.8734229870139693
-0.13192418244694307
-0.2356380419288583
-0.8734229870139693
-0.13192418244694307
-0.2356380419288583
-0.8734229870139693
-0.13192418244694307
-0.2356380419288583
-0.8734229870139693
-0.13192418244694307
-0.2356380419288583
-0.8734229870139693
-0.13192418244694307
-0.2356380419288583
-0.8733216976379318
-0.13180457659827632
-0.23570219389149216
-0.8733216976379318
-0.13180457659827632
-0.23570219389149216
-0.8733216976379318
-0.13180457659827632
-0.23570219389149216
-0.8733216976379318
-0.13180457659827632
-0.23570219389149216
-0.8733216976379318
-0.13180457659827632
-0.23570219389149216
-0.8733216976379318
-0.13180457659827632
-0.23570219389149216
-0.8733216976379318
-0.13180457659827632
-0.23570219389149216
-0.8733216976379318
-0.13180457659827632
-0.23570219389149216
-0.8733216976379318
-0.13180457659827632
-0.23570219389149216
-0.8733216976379318
-0.13180457659827632
-0.23570219389149216
-0.8733216976379318
-0.13180457659827632
-0.23570219389149216
-0.8733216976379318
-0.13180457659827632
-0.23570219389149216
-0.8726676689730528
-0.1315004153208342
-0.23612391812617325
-0.8726676689730528
-0.1315004153208342
-0.23612391812617325
-0.8726676689730528
-0.1315004153208342
-0.23612391812617325
-0.8726676689730528
-0.1315004153208342
-0.23612391812617325
-0.8726676689730528
-0.1315004153208342
-0.23612391812617325
-0.8726676689730528
-0.1315004153208342
-0.23612391812617325
-0.8726676689730528
-0.1315004153208342
-0.23612391812617325
-0.8726676689730528
-0.1315004153208342
-0.23612391812617325
-0.8726773928540383
-0.1313903896753109
-0.23617461978530013
-0.8726773928540383
-0.1313903896753109
-0.23617461978530013
-0.8726773928540383
-0.1313903896753109
-0.23617461978530013
-0.8726773928540383
-0.1313903896753109
-0.23617461978530013
-0.8724339437675381
-0.13102773041384558
-0.23634373528908956
-0.8724339437675381
-0.13102773041384558
-0.23634373528908956
-0.8724339437675381
-0.13102773041384558
-0.23634373528908956
-0.8724339437675381
-0.13102773041384558
-0.23634373528908956
-0.8719143523217235
-0.13057260234353874
-0.23669134195076816
-0.8719143523217235
-0.13057260234353874
-0.23669134195076816
-0.8719143523217235
-0.13057260234353874
-0.23669134195076816
-0.8719143523217235
-0.13057260234353874
-0.23669134195076816
-0.8714314310028136
-0.12990685183553563
-0.2368673308708663
-0.8714314310028136
-0.12990685183553563
-0.2368673308708663
-0.8714314310028136
-0.12990685183553563
-0.2368673308708663
-0.8714314310028136
-0.12990685183553563
-0.2368673308708663
-0.871441244024485
-0.12979679854977227
-0.23691796119494987
-0.871441244024485
-0.12979679854977227
-0.23691796119494987
-0.871441244024485
-0.12979679854977227
-0.23691796119494987
-0.871441244024485
-0.12979679854977227
-0.23691796119494987
-0.871441244024485
-0.12979679854977227
-0.23691796119494987
-0.871441244024485
-0.12979679854977227
-0.23691796119494987
-0.871441244024485
-0.12979679854977227
-0.23691796119494987
-0.871441244024485
-0.12979679854977227
-0.23691796119494987
-0.871441244024485
-0.12979679854977227
-0.23691796119494987
-0.871441244024485
-0.12979679854977227
-0.23691796119494987
-0.871441244024485
-0.12979679854977227
-0.23691796119494987
-0.871441244024485
-0.12979679854977227
-0.23691796119494987
-0.871441244024485
-0.12979679854977227
-0.23691796119494987
-0.871441244024485
-0.12979679854977227
-0.23691796119494987
-0.871441244024485
-0.12979679854977227
-0.23691796119494987
-0.871441244024485
-0.12979679854977227
-0.23691796119494987
-0.8709058681853508
-0.12962138564638334
-0.23700217052010716
-0.8709058681853508
-0.12962138564638334
-0.23700217052010716
-0.8709058681853508
-0.12962138564638334
-0.23700217052010716
-0.8709058681853508
-0.12962138564638334
-0.23700217052010716
-0.8709058681853508
-0.12962138564638334
-0.23700217052010716
-0.8709058681853508
-0.12962138564638334
-0.23700217052010716
-0.8709058681853508
-0.12962138564638334
-0.23700217052010716
-0.8709058681853508
-0.12962138564638334
-0.23700217052010716
-0.8713365937877667
-0.12961714871276697
-0.2371435158356527
-0.8713365937877667
-0.12961714871276697
-0.2371435158356527
-0.8713365937877667
-0.12961714871276697
-0.2371435158356527
-0.8713365937877667
-0.12961714871276697
-0.2371435158356527
-0.8718783162611046
-0.1296227273870185
-0.23727155363067023
-0.8718783162611046
-0.1296227273870185
-0.23727155363067023
-0.8718783162611046
-0.1296227273870185
-0.23727155363067023
-0.8718783162611046
-0.1296227273870185
-0.23727155363067023
-0.8718783162611046
-0.1296227273870185
-0.23727155363067023
-0.8718783162611046
-0.1296227273870185
-0.23727155363067023
-0.8718783162611046
-0.1296227273870185
-0.23727155363067023
-0.8718783162611046
-0.1296227273870185
-0.23727155363067023
-0.8719892868154081
-0.12963248084928475
-0.23725823722807027
-0.8719892868154081
-0.12963248084928475
-0.23725823722807027
-0.8719892868154081
-0.12963248084928475
-0.23725823722807027
-0.8719892868154081
-0.12963248084928475
-0.23725823722807027
-0.8718783162611046
-0.1296227273870185
-0.23727155363067023
-0.8718783162611046
-0.1296227273870185
-0.23727155363067023
-0.8718783162611046
-0.1296227273870185
-0.23727155363067023
-0.8718783162611046
-0.1296227273870185
-0.23727155363067023
-0.8718783162611046
-0.1296227273870185
-0.23727155363067023
-0.8718783162611046
-0.1296227273870185
-0.23727155363067023
-0.8718783162611046
-0.1296227273870185
-0.23727155363067023
-0.8718783162611046
-0.1296227273870185
-0.23727155363067023
-0.8724003663135638
-0.12984843122325307
-0.23729822343403312
-0.8724003663135638
-0.12984843122325307
-0.23729822343403312
-0.8724003663135638
-0.12984843122325307
-0.23729822343403312
-0.8724003663135638
-0.12984843122325307
-0.23729822343403312
-0.8726266338906173
-0.13020171821036022
-0.2374019107110739
-0.8726266338906173
-0.13020171821036022
-0.2374019107110739
-0.8726266338906173
-0.13020171821036022
-0.2374019107110739
-0.8726266338906173
-0.13020171821036022
-0.2374019107110739
-0.8726266338906173
-0.13020171821036022
-0.2374019107110739
-0.8726266338906173
-0.13020171821036022
-0.2374019107110739
-0.8726266338906173
-0.13020171821036022
-0.2374019107110739
-0.8726266338906173
-0.13020171821036022
-0.2374019107110739
-0.8726364612527477
-0.13009169781655774
-0.2374526032524866
-0.8726364612527477
-0.13009169781655774
-0.2374526032524866
-0.8726364612527477
-0.13009169781655774
-0.2374526032524866
-0.8726364612527477
-0.13009169781655774
-0.2374526032524866
-0.8726364612527477
-0.13009169781655774
-0.2374526032524866
-0.8726364612527477
-0.13009169781655774
-0.2374526032524866
-0.8726364612527477
-0.13009169781655774
-0.2374526032524866
-0.8726364612527477
-0.13009169781655774
-0.2374526032524866
-0.8726498094290444
-0.13004143227531176
-0.23734164524812915
-0.8726498094290444
-0.13004143227531176
-0.23734164524812915
-0.8726498094290444
-0.13004143227531176
-0.23734164524812915
-0.8726498094290444
-0.13004143227531176
-0.23734164524812915
-0.8719802782274949
-0.1300164695089161
-0.2374996735011419
-0.8719802782274949
-0.1300164695089161
-0.2374996735011419
-0.8719802782274949
-0.1300164695089161
-0.2374996735011419
-0.8719802782274949
-0.1300164695089161
-0.2374996735011419
-0.8719901201494706
-0.12990643092809284
-0.23755033090584207
-0.8719901201494706
-0.12990643092809284
-0.23755033090584207
-0.8719901201494706
-0.12990643092809284
-0.23755033090584207
-0.8719901201494706
-0.12990643092809284
-0.23755033090584207
-0.8719394652815691
-0.12989320432586934
-0.23754048644706788
-0.8719394652815691
-0.12989320432586934
-0.23754048644706788
-0.8719394652815691
-0.12989320432586934
-0.23754048644706788
-0.8719394652815691
-0.12989320432586934
-0.23754048644706788
-0.8719901201494706
-0.12990643092809284
-0.23755033090584207
-0.8719901201494706
-0.12990643092809284
-0.23755033090584207
-0.8719901201494706
-0.12990643092809284
-0.23755033090584207
-0.8719901201494706
-0.12990643092809284
-0.23755033090584207
-0.8714449175108303
-0.12984092017548382
-0.23758398313360102
-0.8714449175108303
-0.12984092017548382
-0.23758398313360102
-0.8714449175108303
-0.12984092017548382
-0.23758398313360102
-0.8714449175108303
-0.12984092017548382
-0.23758398313360102
-0.8714449175108303
-0.12984092017548382
-0.23758398313360102
-0.8714449175108303
-0.12984092017548382
-0.23758398313360102
-0.8714449175108303
-0.12984092017548382
-0.23758398313360102
-0.8714449175108303
-0.12984092017548382
-0.23758398313360102
-0.8714449175108303
-0.12984092017548382
-0.23758398313360102
-0.8714449175108303
-0.12984092017548382
-0.23758398313360102
-0.8714449175108303
-0.12984092017548382
-0.23758398313360102
-0.8714449175108303
-0.12984092017548382
-0.23758398313360102
-0.8714449175108303
-0.12984092017548382
-0.23758398313360102
-0.8714449175108303
-0.12984092017548382
-0.23758398313360102
-0.8714449175108303
-0.12984092017548382
-0.23758398313360102
-0.8714449175108303
-0.12984092017548382
-0.23758398313360102
-0.8714547720022154
-0.12973086901281103
-0.23763461031259986
-0.8714547720022154
-0.12973086901281103
-0.23763461031259986
-0.8714547720022154
-0.12973086901281103
-0.23763461031259986
-0.8714547720022154
-0.12973086901281103
-0.23763461031259986
-0.871468098687337
-0.12968066591402605
-0.23752362650776015
-0.871468098687337
-0.12968066591402605
-0.23752362650776015
-0.871468098687337
-0.12968066591402605
-0.23752362650776015
-0.871468098687337
-0.12968066591402605
-0.23752362650776015
-0.8709811767908718
-0.13011534475518866
-0.2374524679203769
-0.8709811767908718
-0.13011534475518866
-0.2374524679203769
-0.8709811767908718
-0.13011534475518866
-0.2374524679203769
-0.8709811767908718
-0.13011534475518866
-0.2374524679203769
-0.8709293847741074
-0.13089550463638858
-0.2368256525391111
-0.8709293847741074
-0.13089550463638858
-0.2368256525391111
-0.8709293847741074
-0.13089550463638858
-0.2368256525391111
-0.8709293847741074
-0.13089550463638858
-0.2368256525391111
-0.8710061811392865
-0.1316950891148698
-0.2359127347196256
-0.8710061811392865
-0.1316950891148698
-0.2359127347196256
-0.8710061811392865
-0.1316950891148698
-0.2359127347196256
-0.8710061811392865
-0.1316950891148698
-0.2359127347196256
-0.8714950369914377
-0.13271014421531502
-0.2350390710431824
-0.8714950369914377
-0.13271014421531502
-0.2350390710431824
-0.8714950369914377
-0.13271014421531502
-0.2350390710431824
-0.8714950369914377
-0.13271014421531502
-0.2350390710431824
-0.8718518755196302
-0.13337182951749832
-0.23432065074133535
-0.8718518755196302
-0.13337182951749832
-0.23432065074133535
-0.8718518755196302
-0.13337182951749832
-0.23432065074133535
-0.8718518755196302
-0.13337182951749832
-0.23432065074133535
-0.8718167829152451
-0.1335978557939568
-0.23366425270153476
-0.8718167829152451
-0.1335978557939568
-0.23366425270153476
-0.8718167829152451
-0.1335978557939568
-0.23366425270153476
-0.8718167829152451
-0.1335978557939568
-0.23366425270153476
-0.8721203600199154
-0.13358944124180588
-0.23326307736169472
-0.8721203600199154
-0.13358944124180588
-0.23326307736169472
-0.8721203600199154
-0.13358944124180588
-0.23326307736169472
-0.8721203600199154
-0.13358944124180588
-0.23326307736169472
-0.8727269351971448
-0.1330533227223789
-0.23337089818913676
-0.8727269351971448
-0.1330533227223789
-0.23337089818913676
-0.8727269351971448
-0.1330533227223789
-0.23337089818913676
-0.8727269351971448
-0.1330533227223789
-0.23337089818913676
-0.8730196036578561
-0.13236175290299848
-0.23353746565187458
-0.8730196036578561
-0.13236175290299848
-0.23353746565187458
-0.8730196036578561
-0.13236175290299848
-0.23353746565187458
-0.8730196036578561
-0.13236175290299848
-0.23353746565187458
-0.8736491610514092
-0.131665410788281
-0.233585684773337
-0.8736491610514092
-0.131665410788281
-0.233585684773337
-0.8736491610514092
-0.131665410788281
-0.233585684773337
-0.8736491610514092
-0.131665410788281
-0.233585684773337
-0.8741073839081474
-0.13105636500062093
-0.23358726905690097
-0.8741073839081474
-0.13105636500062093
-0.23358726905690097
-0.8741073839081474
-0.13105636500062093
-0.23358726905690097
-0.8741073839081474
-0.13105636500062093
-0.23358726905690097
-0.8734976933921399
-0.13015815607800543
-0.2335967545117938
-0.8734976933921399
-0.13015815607800543
-0.2335967545117938
-0.8734976933921399
-0.13015815607800543
-0.2335967545117938
-0.8734976933921399
-0.13015815607800543
-0.2335967545117938
-0.8719662894589139
-0.1292733378139975
-0.23334584268992653
-0.8719662894589139
-0.1292733378139975
-0.23334584268992653
-0.8719662894589139
-0.1292733378139975
-0.23334584268992653
-0.8719662894589139
-0.1292733378139975
-0.23334584268992653
-0.8707844181267209
-0.12842722447115273
-0.23278154885651864
-0.8707844181267209
-0.12842722447115273
-0.23278154885651864
-0.8707844181267209
-0.12842722447115273
-0.23278154885651864
-0.8707844181267209
-0.12842722447115273
-0.23278154885651864
-0.8703221666175281
-0.12761821437732696
-0.23206887123882913
-0.8703221666175281
-0.12761821437732696
-0.23206887123882913
-0.8703221666175281
-0.12761821437732696
-0.23206887123882913
-0.8703221666175281
-0.12761821437732696
-0.23206887123882913
-0.8698333722336384
-0.12690987517590643
-0.23157790928742003
-0.8698333722336384
-0.12690987517590643
-0.23157790928742003
-0.8698333722336384
-0.12690987517590643
-0.23157790928742003
-0.8698333722336384
-0.12690987517590643
-0.23157790928742003
-0.8686847370010119
-0.12606844806823556
-0.23129375699771468
-0.8686847370010119
-0.12606844806823556
-0.23129375699771468
-0.8686847370010119
-0.12606844806823556
-0.23129375699771468
-0.8686847370010119
-0.12606844806823556
-0.23129375699771468
-0.8672054634773596
-0.12556596148382496
-0.23125709535473793
-0.8672054634773596
-0.12556596148382496
-0.23125709535473793
-0.8672054634773596
-0.12556596148382496
-0.23125709535473793
-0.8672054634773596
-0.12556596148382496
-0.23125709535473793
-0.8657863610780538
-0.12496610629682958
-0.23127970416873592
-0.8657863610780538
-0.12496610629682958
-0.23127970416873592
-0.8657863610780538
-0.12496610629682958
-0.23127970416873592
-0.8657863610780538
-0.12496610629682958
-0.23127970416873592
-0.865286326494662
-0.12458186148608316
-0.23119031296319598
-0.865286326494662
-0.12458186148608316
-0.23119031296319598
-0.865286326494662
-0.12458186148608316
-0.23119031296319598
-0.865286326494662
-0.12458186148608316
-0.23119031296319598
-0.864621724493305
-0.12411499212920556
-0.23126527693373225
-0.864621724493305
-0.12411499212920556
-0.23126527693373225
-0.864621724493305
-0.12411499212920556
-0.23126527693373225
-0.864621724493305
-0.12411499212920556
-0.23126527693373225
-0.8632776378288124
-0.1239467098024068
-0.23189959197145352
-0.8632776378288124
-0.1239467098024068
-0.23189959197145352
-0.8632776378288124
-0.1239467098024068
-0.23189959197145352
-0.8632776378288124
-0.1239467098024068
-0.23189959197145352
-0.8624590751589405
-0.12406244501959568
-0.23240161724222969
-0.8624590751589405
-0.12406244501959568
-0.23240161724222969
-0.8624590751589405
-0.12406244501959568
-0.23240161724222969
-0.8624590751589405
-0.12406244501959568
-0.23240161724222969
-0.861919034670164
-0.12433109028957999
-0.23256522852845635
-0.861919034670164
-0.12433109028957999
-0.23256522852845635
-0.861919034670164
-0.12433109028957999
-0.23256522852845635
-0.861919034670164
-0.12433109028957999
-0.23256522852845635
-0.8618964094110375
-0.12449116083677696
-0.2326262659686686
-0.8618964094110375
-0.12449116083677696
