-0.9055191292243678
-0.19883222428433833
-0.30498462083840366
-0.9055191292243678
-0.19883222428433833
-0.30498462083840366
-0.9064764047823808
-0.19913662522730838
-0.303836963098548
-0.9064764047823808
-0.19913662522730838
-0.303836963098548
-0.9064764047823808
-0.19913662522730838
-0.303836963098548
-0.9064764047823808
-0.19913662522730838
-0.303836963098548
-0.907527935738009
-0.19973164800234738
-0.30296194509625657
-0.907527935738009
-0.19973164800234738
-0.30296194509625657
-0.907527935738009
-0.19973164800234738
-0.30296194509625657
-0.907527935738009
-0.19973164800234738
-0.30296194509625657
-0.9075861716019972
-0.20051064309521088
-0.3023046644404621
-0.9075861716019972
-0.20051064309521088
-0.3023046644404621
-0.9075861716019972
-0.20051064309521088
-0.3023046644404621
-0.9075861716019972
-0.20051064309521088
-0.3023046644404621
-0.9071524146268848
-0.2010597961335933
-0.30192806728775246
-0.9071524146268848
-0.2010597961335933
-0.30192806728775246
-0.9071524146268848
-0.2010597961335933
-0.30192806728775246
-0.9071524146268848
-0.2010597961335933
-0.30192806728775246
-0.9076936536612358
-0.2014749411503932
-0.30144351957493076
-0.9076936536612358
-0.2014749411503932
-0.30144351957493076
-0.9076936536612358
-0.2014749411503932
-0.30144351957493076
-0.9076936536612358
-0.2014749411503932
-0.30144351957493076
-0.90953294626676
-0.20252281666421232
-0.3008871665906133
-0.90953294626676
-0.20252281666421232
-0.3008871665906133
-0.90953294626676
-0.20252281666421232
-0.3008871665906133
-0.90953294626676
-0.20252281666421232
-0.3008871665906133
-0.9093160557902568
-0.20342652264478722
-0.30004101167582437
-0.9093160557902568
-0.20342652264478722
-0.30004101167582437
-0.9093160557902568
-0.20342652264478722
-0.30004101167582437
-0.9093160557902568
-0.20342652264478722
-0.30004101167582437
-0.9083601407886375
-0.2046085423026213
-0.299498649012782
-0.9083601407886375
-0.2046085423026213
-0.299498649012782
-0.9083601407886375
-0.2046085423026213
-0.299498649012782
-0.9083601407886375
-0.2046085423026213
-0.299498649012782
-0.9077050145126968
-0.2060737406392151
-0.2993958402536082
-0.9077050145126968
-0.2060737406392151
-0.2993958402536082
-0.9077050145126968
-0.2060737406392151
-0.2993958402536082
-0.9077050145126968
-0.2060737406392151
-0.2993958402536082
-0.9070112970978724
-0.2072446317927298
-0.2995501286311361
-0.9070112970978724
-0.2072446317927298
-0.2995501286311361
-0.9070112970978724
-0.2072446317927298
-0.2995501286311361
-0.9070112970978724
-0.2072446317927298
-0.2995501286311361
-0.9064787202763736
-0.20821570394455266
-0.2995153003785084
-0.9064787202763736
-0.20821570394455266
-0.2995153003785084
-0.9064787202763736
-0.20821570394455266
-0.2995153003785084
-0.9064787202763736
-0.20821570394455266
-0.2995153003785084
-0.9076858953012206
-0.20918228375719827
-0.29931454996565166
-0.9076858953012206
-0.20918228375719827
-0.29931454996565166
-0.9076858953012206
-0.20918228375719827
-0.29931454996565166
-0.9076858953012206
-0.20918228375719827
-0.29931454996565166
-0.9097998474140166
-0.20987849817404663
-0.2993159371537276
-0.9097998474140166
-0.20987849817404663
-0.2993159371537276
-0.9097998474140166
-0.20987849817404663
-0.2993159371537276
-0.9097998474140166
-0.20987849817404663
-0.2993159371537276
-0.9104850963772223
-0.2102135235781023
-0.29970534186390274
-0.9104850963772223
-0.2102135235781023
-0.29970534186390274
-0.9104850963772223
-0.2102135235781023
-0.29970534186390274
-0.9104850963772223
-0.2102135235781023
-0.29970534186390274
-0.9102596120042059
-0.21017656717011773
-0.30082269290642255
-0.9102596120042059
-0.21017656717011773
-0.30082269290642255
-0.9102596120042059
-0.21017656717011773
-0.30082269290642255
-0.9102596120042059
-0.21017656717011773
-0.30082269290642255
-0.9100259884461327
-0.20993723886241586
-0.30180078890860357
-0.9100259884461327
-0.20993723886241586
-0.30180078890860357
-0.9100259884461327
-0.20993723886241586
-0.30180078890860357
-0.9100259884461327
-0.20993723886241586
-0.30180078890860357
-0.9107276989284716
-0.2094357333227617
-0.302707857782039
-0.9107276989284716
-0.2094357333227617
-0.302707857782039
-0.9107276989284716
-0.2094357333227617
-0.302707857782039
-0.9107276989284716
-0.2094357333227617
-0.302707857782039
-0.9116199862048447
-0.20874142206293944
-0.3031512840615595
-0.9116199862048447
-0.20874142206293944
-0.3031512840615595
-0.9116199862048447
-0.20874142206293944
-0.3031512840615595
-0.9116199862048447
-0.20874142206293944
-0.3031512840615595
-0.9125519692093536
-0.20794518063563422
-0.30337332599856565
-0.9125519692093536
-0.20794518063563422
-0.30337332599856565
-0.9125519692093536
-0.20794518063563422
-0.30337332599856565
-0.9125519692093536
-0.20794518063563422
-0.30337332599856565
-0.913167647882725
-0.20737620188212283
-0.3036306061910037
-0.913167647882725
-0.20737620188212283
-0.3036306061910037
-0.913167647882725
-0.20737620188212283
-0.3036306061910037
-0.913167647882725
-0.20737620188212283
-0.3036306061910037
-0.9122183258423071
-0.20673030713876248
-0.30409604301411247
-0.9122183258423071
-0.20673030713876248
-0.30409604301411247
-0.9122183258423071
-0.20673030713876248
-0.30409604301411247
-0.9122183258423071
-0.20673030713876248
-0.30409604301411247
-0.9104259722170813
-0.20640701632167852
-0.30472157119064713
-0.9104259722170813
-0.20640701632167852
-0.30472157119064713
-0.9104259722170813
-0.20640701632167852
-0.30472157119064713
-0.9104259722170813
-0.20640701632167852
-0.30472157119064713
-0.9094759344761117
-0.20615624261294616
-0.3051515437860641
-0.9094759344761117
-0.20615624261294616
-0.3051515437860641
-0.9094759344761117
-0.20615624261294616
-0.3051515437860641
-0.9094759344761117
-0.20615624261294616
-0.3051515437860641
-0.9094759344761117
-0.20615624261294616
-0.3051515437860641
-0.9094759344761117
-0.20615624261294616
-0.3051515437860641
-0.9094759344761117
-0.20615624261294616
-0.3051515437860641
-0.9094759344761117
-0.20615624261294616
-0.3051515437860641
-0.9097872717270005
-0.2057055263365792
-0.3054951279455821
-0.9097872717270005
-0.2057055263365792
-0.3054951279455821
-0.9097872717270005
-0.2057055263365792
-0.3054951279455821
-0.9097872717270005
-0.2057055263365792
-0.3054951279455821
-0.9100594361964708
-0.20535698226296611
-0.30606075165813484
-0.9100594361964708
-0.20535698226296611
-0.30606075165813484
-0.9100594361964708
-0.20535698226296611
-0.30606075165813484
-0.9100594361964708
-0.20535698226296611
-0.30606075165813484
-0.9096822571005324
-0.2052014915676521
-0.30671993694668553
-0.9096822571005324
-0.2052014915676521
-0.30671993694668553
-0.9096822571005324
-0.2052014915676521
-0.30671993694668553
-0.9096822571005324
-0.2052014915676521
-0.30671993694668553
-0.9096822571005324
-0.2052014915676521
-0.30671993694668553
-0.9096822571005324
-0.2052014915676521
-0.30671993694668553
-0.9096822571005324
-0.2052014915676521
-0.30671993694668553
-0.9096822571005324
-0.2052014915676521
-0.30671993694668553
-0.9096937362641743
-0.20509284702623004
-0.3067720355847229
-0.9096937362641743
-0.20509284702623004
-0.3067720355847229
-0.9096937362641743
-0.20509284702623004
-0.3067720355847229
-0.9096937362641743
-0.20509284702623004
-0.3067720355847229
-0.9104458311744594
-0.20563975738962267
-0.30619440570506806
-0.9104458311744594
-0.20563975738962267
-0.30619440570506806
-0.9104458311744594
-0.20563975738962267
-0.30619440570506806
-0.9104458311744594
-0.20563975738962267
-0.30619440570506806
-0.912640753848356
-0.20636197109471313
-0.3053765054204915
-0.912640753848356
-0.20636197109471313
-0.3053765054204915
-0.912640753848356
-0.20636197109471313
-0.3053765054204915
-0.912640753848356
-0.20636197109471313
-0.3053765054204915
-0.9127516769405456
-0.2063730719776302
-0.30535679406051947
-0.9127516769405456
-0.2063730719776302
-0.30535679406051947
-0.9127516769405456
-0.2063730719776302
-0.30535679406051947
-0.9127516769405456
-0.2063730719776302
-0.30535679406051947
-0.9124060342320044
-0.20621816229856338
-0.30518271441011235
-0.9124060342320044
-0.20621816229856338
-0.30518271441011235
-0.9124060342320044
-0.20621816229856338
-0.30518271441011235
-0.9124060342320044
-0.20621816229856338
-0.30518271441011235
-0.9130273072371584
-0.2066447920206079
-0.3055095833642398
-0.9130273072371584
-0.2066447920206079
-0.3055095833642398
-0.9130273072371584
-0.2066447920206079
-0.3055095833642398
-0.9130273072371584
-0.2066447920206079
-0.3055095833642398
-0.913637128826076
-0.20718014253680994
-0.30578387225202663
-0.913637128826076
-0.20718014253680994
-0.30578387225202663
-0.913637128826076
-0.20718014253680994
-0.30578387225202663
-0.913637128826076
-0.20718014253680994
-0.30578387225202663
-0.9143472731306959
-0.20761796820266915
-0.30472800802326727
-0.9143472731306959
-0.20761796820266915
-0.30472800802326727
-0.9143472731306959
-0.20761796820266915
-0.30472800802326727
-0.9143472731306959
-0.20761796820266915
-0.30472800802326727
-0.9148792176661457
-0.20806862734765919
-0.3032315210413386
-0.9148792176661457
-0.20806862734765919
-0.3032315210413386
-0.9148792176661457
-0.20806862734765919
-0.3032315210413386
-0.9148792176661457
-0.20806862734765919
-0.3032315210413386
-0.9152632550796013
-0.20884079062862754
-0.3021567880854883
-0.9152632550796013
-0.20884079062862754
-0.3021567880854883
-0.9152632550796013
-0.20884079062862754
-0.3021567880854883
-0.9152632550796013
-0.20884079062862754
-0.3021567880854883
-0.9163494582843142
-0.2091133223499306
-0.3019901849285692
-0.9163494582843142
-0.2091133223499306
-0.3019901849285692
-0.9163494582843142
-0.2091133223499306
-0.3019901849285692
-0.9163494582843142
-0.2091133223499306
-0.3019901849285692
-0.9167365361839241
-0.20907257121066292
-0.3031137257469556
-0.9167365361839241
-0.20907257121066292
-0.3031137257469556
-0.9167365361839241
-0.20907257121066292
-0.3031137257469556
-0.9167365361839241
-0.20907257121066292
-0.3031137257469556
-0.9152041423298269
-0.20789867068090295
-0.3030337603892187
-0.9152041423298269
-0.20789867068090295
-0.3030337603892187
-0.9152041423298269
-0.20789867068090295
-0.3030337603892187
-0.9152041423298269
-0.20789867068090295
-0.3030337603892187
-0.9113769893814384
-0.20604562930433312
-0.30306781512234976
-0.9113769893814384
-0.20604562930433312
-0.30306781512234976
-0.9113769893814384
-0.20604562930433312
-0.30306781512234976
-0.9113769893814384
-0.20604562930433312
-0.30306781512234976
-0.9088975224209004
-0.20499651069997232
-0.303894794462116
-0.9088975224209004
-0.20499651069997232
-0.303894794462116
-0.9088975224209004
-0.20499651069997232
-0.303894794462116
-0.9088975224209004
-0.20499651069997232
-0.303894794462116
-0.908902881006864
-0.20590010011554313
-0.3056967325316257
-0.908902881006864
-0.20590010011554313
-0.3056967325316257
-0.908902881006864
-0.20590010011554313
-0.3056967325316257
-0.908902881006864
-0.20590010011554313
-0.3056967325316257
-0.9109603666475837
-0.20611907414790073
-0.30693806749650776
-0.9109603666475837
-0.20611907414790073
-0.30693806749650776
-0.9109603666475837
-0.20611907414790073
-0.30693806749650776
-0.9109603666475837
-0.20611907414790073
-0.30693806749650776
-0.9166191981503262
-0.20655094726337273
-0.30741083533974317
-0.9166191981503262
-0.20655094726337273
-0.30741083533974317
-0.9184522223505488
-0.20990303634008492
-0.3040641071243116
-0.9184522223505488
-0.20990303634008492
-0.3040641071243116
-0.9184522223505488
-0.20990303634008492
-0.3040641071243116
-0.9184522223505488
-0.20990303634008492
-0.3040641071243116
-0.9190495056989414
-0.21326938561162756
-0.2998950202831986
-0.9190495056989414
-0.21326938561162756
-0.2998950202831986
-0.9190495056989414
-0.21326938561162756
-0.2998950202831986
-0.9190495056989414
-0.21326938561162756
-0.2998950202831986
-0.9089727807543178
-0.22070590421082634
-0.3004592563301057
-0.9089727807543178
-0.22070590421082634
-0.3004592563301057
-0.9089727807543178
-0.22070590421082634
-0.3004592563301057
-0.9089727807543178
-0.22070590421082634
-0.3004592563301057
-0.9097129004460526
-0.23218255594872336
-0.29678910322225405
-0.9097129004460526
-0.23218255594872336
-0.29678910322225405
-0.9097129004460526
-0.23218255594872336
-0.29678910322225405
-0.9097129004460526
-0.23218255594872336
-0.29678910322225405
-0.9465776120986028
-0.23499073883333577
-0.28496209462143346
-0.9465776120986028
-0.23499073883333577
-0.28496209462143346
-0.9465776120986028
-0.23499073883333577
-0.28496209462143346
-0.9465776120986028
-0.23499073883333577
-0.28496209462143346
-0.9766153550406762
-0.2420649485155865
-0.2767050978972867
-0.9766153550406762
-0.2420649485155865
-0.2767050978972867
-0.9766153550406762
-0.2420649485155865
-0.2767050978972867
-0.9766153550406762
-0.2420649485155865
-0.2767050978972867
-0.9665789922547701
-0.24887078534334894
-0.277097727697746
-0.9665789922547701
-0.24887078534334894
-0.277097727697746
-0.9665789922547701
-0.24887078534334894
-0.277097727697746
-0.9665789922547701
-0.24887078534334894
-0.277097727697746
-0.939903548040083
-0.25774001640581434
-0.27793289430911183
-0.939903548040083
-0.25774001640581434
-0.27793289430911183
-0.939903548040083
-0.25774001640581434
-0.27793289430911183
-0.939903548040083
-0.25774001640581434
-0.27793289430911183
-0.9404817426670647
-0.2582990341527078
-0.27241975869097196
-0.9404817426670647
-0.2582990341527078
-0.27241975869097196
-0.9404817426670647
-0.2582990341527078
-0.27241975869097196
-0.9404817426670647
-0.2582990341527078
-0.27241975869097196
-0.9485911215052829
-0.25980978015570677
-0.27217393897368924
-0.9485911215052829
-0.25980978015570677
-0.27217393897368924
-0.9485911215052829
-0.25980978015570677
-0.27217393897368924
-0.9485911215052829
-0.25980978015570677
-0.27217393897368924
-0.9496738112253973
-0.26155605524565967
-0.27954228209448967
-0.9496738112253973
-0.26155605524565967
-0.27954228209448967
-0.9496738112253973
-0.26155605524565967
-0.27954228209448967
-0.9496738112253973
-0.26155605524565967
-0.27954228209448967
-0.9544347591324144
-0.26417282780365237
-0.2862790261028081
-0.9544347591324144
-0.26417282780365237
-0.2862790261028081
-0.9544347591324144
-0.26417282780365237
-0.2862790261028081
-0.9544347591324144
-0.26417282780365237
-0.2862790261028081
-0.9622771387239799
-0.2669886455964673
-0.28921621262569236
-0.9622771387239799
-0.2669886455964673
-0.28921621262569236
-0.9622771387239799
-0.2669886455964673
-0.28921621262569236
-0.9622771387239799
-0.2669886455964673
-0.28921621262569236
-0.9624197280477275
-0.2668361136186629
-0.2891372240943937
-0.9624197280477275
-0.2668361136186629
-0.2891372240943937
-0.9624197280477275
-0.2668361136186629
-0.2891372240943937
-0.9624197280477275
-0.2668361136186629
-0.2891372240943937
-0.9605403121714514
-0.2671866075605667
-0.28950066847604294
-0.9605403121714514
-0.2671866075605667
-0.28950066847604294
-0.9605403121714514
-0.2671866075605667
-0.28950066847604294
-0.9605403121714514
-0.2671866075605667
-0.28950066847604294
-0.9617284478117334
-0.2704349233009468
-0.28963724188756274
-0.9617284478117334
-0.2704349233009468
-0.28963724188756274
-0.9617284478117334
-0.2704349233009468
-0.28963724188756274
-0.9617284478117334
-0.2704349233009468
-0.28963724188756274
-0.9643605529639243
-0.27177515100000477
-0.28849864038739126
-0.9643605529639243
-0.27177515100000477
-0.28849864038739126
-0.9643605529639243
-0.27177515100000477
-0.28849864038739126
-0.9643605529639243
-0.27177515100000477
-0.28849864038739126
-0.9672975900339982
-0.27108576549950336
-0.2881109597204548
-0.9672975900339982
-0.27108576549950336
-0.2881109597204548
-0.9672975900339982
-0.27108576549950336
-0.2881109597204548
-0.9672975900339982
-0.27108576549950336
-0.2881109597204548
-0.9711050061274007
-0.26943606456581376
-0.29100997366204084
-0.9711050061274007
-0.26943606456581376
-0.29100997366204084
-0.9711050061274007
-0.26943606456581376
-0.29100997366204084
-0.9711050061274007
-0.26943606456581376
-0.29100997366204084
-0.9775285479021072
-0.2659542772366227
-0.2925709500437453
-0.9775285479021072
-0.2659542772366227
-0.2925709500437453
-0.9775285479021072
-0.2659542772366227
-0.2925709500437453
-0.9775285479021072
-0.2659542772366227
-0.2925709500437453
-0.9783506726467072
-0.26353572834659494
-0.29319079369482304
-0.9783506726467072
-0.26353572834659494
-0.29319079369482304
-0.9783506726467072
-0.26353572834659494
-0.29319079369482304
-0.9783506726467072
-0.26353572834659494
-0.29319079369482304
-0.9765905008843163
-0.2607679074507856
-0.29571810352230754
-0.9765905008843163
-0.2607679074507856
-0.29571810352230754
-0.9765905008843163
-0.2607679074507856
-0.29571810352230754
-0.9765905008843163
-0.2607679074507856
-0.29571810352230754
-0.9804922759345379
-0.2570049100346626
-0.29877071714610415
-0.9804922759345379
-0.2570049100346626
-0.29877071714610415
-0.9804922759345379
-0.2570049100346626
-0.29877071714610415
-0.9804922759345379
-0.2570049100346626
-0.29877071714610415
-0.9845415905454074
-0.2550780518673207
-0.30027900805369867
-0.9845415905454074
-0.2550780518673207
-0.30027900805369867
-0.9845415905454074
-0.2550780518673207
-0.30027900805369867
-0.9845415905454074
-0.2550780518673207
-0.30027900805369867
-0.982084753675081
-0.2542449250807153
-0.2999852914192293
-0.982084753675081
-0.2542449250807153
-0.2999852914192293
-0.982084753675081
-0.2542449250807153
-0.2999852914192293
-0.982084753675081
-0.2542449250807153
-0.2999852914192293
-0.9790634291081888
-0.25499599555588276
-0.29873201601805405
-0.9790634291081888
-0.25499599555588276
-0.29873201601805405
-0.9790634291081888
-0.25499599555588276
-0.29873201601805405
-0.9790634291081888
-0.25499599555588276
-0.29873201601805405
-0.977209313236691
-0.25796058819028467
-0.2967176343560584
-0.977209313236691
-0.25796058819028467
-0.2967176343560584
-0.977209313236691
-0.25796058819028467
-0.2967176343560584
-0.977209313236691
-0.25796058819028467
-0.2967176343560584
-0.9765394947703155
-0.2640212216536693
-0.2950478063479822
-0.9765394947703155
-0.2640212216536693
-0.2950478063479822
-0.9765394947703155
-0.2640212216536693
-0.2950478063479822
-0.9765394947703155
-0.2640212216536693
-0.2950478063479822
-0.9737677949447751
-0.2669016856973065
-0.2942750713762451
-0.9737677949447751
-0.2669016856973065
-0.2942750713762451
-0.9737677949447751
-0.2669016856973065
-0.2942750713762451
-0.9737677949447751
-0.2669016856973065
-0.2942750713762451
-0.9695366398261185
-0.26835208575107444
-0.2947824455499251
-0.9695366398261185
-0.26835208575107444
-0.2947824455499251
-0.9695366398261185
-0.26835208575107444
-0.2947824455499251
-0.9695366398261185
-0.26835208575107444
-0.2947824455499251
-0.9654634497568638
-0.27306308123405043
-0.29716294345273786
-0.9654634497568638
-0.27306308123405043
-0.29716294345273786
-0.9654634497568638
-0.27306308123405043
-0.29716294345273786
-0.9654634497568638
-0.27306308123405043
-0.29716294345273786
-0.9688831823301335
-0.27825862242955973
-0.2971434298066735
-0.9688831823301335
-0.27825862242955973
-0.2971434298066735
-0.9688831823301335
-0.27825862242955973
-0.2971434298066735
-0.9688831823301335
-0.27825862242955973
-0.2971434298066735
-0.9724786448600654
-0.28022737339245507
-0.2964807366302364
-0.9724786448600654
-0.28022737339245507
-0.2964807366302364
-0.9724786448600654
-0.28022737339245507
-0.2964807366302364
-0.9724786448600654
-0.28022737339245507
-0.2964807366302364
-0.9745105446093355
-0.2818082083428531
-0.29625205839245244
-0.9745105446093355
-0.2818082083428531
-0.29625205839245244
-0.9745105446093355
-0.2818082083428531
-0.29625205839245244
-0.9745105446093355
-0.2818082083428531
-0.29625205839245244
-0.9761055243254461
-0.2837160177799465
-0.29602812162853187
-0.9761055243254461
-0.2837160177799465
-0.29602812162853187
-0.9761055243254461
-0.2837160177799465
-0.29602812162853187
-0.9761055243254461
-0.2837160177799465
-0.29602812162853187
-0.9785010494284656
-0.286082353097699
-0.2968147256327343
-0.9785010494284656
-0.286082353097699
-0.2968147256327343
-0.9785010494284656
-0.286082353097699
-0.2968147256327343
-0.9785010494284656
-0.286082353097699
-0.2968147256327343
-0.9812068288157215
-0.2850015290896545
-0.29731866976058857
-0.9812068288157215
-0.2850015290896545
-0.29731866976058857
-0.9812068288157215
-0.2850015290896545
-0.29731866976058857
-0.9812068288157215
-0.2850015290896545
-0.29731866976058857
-0.9832418899710635
-0.28358688141456817
-0.29620708594304745
-0.9832418899710635
-0.28358688141456817
-0.29620708594304745
-0.9832418899710635
-0.28358688141456817
-0.29620708594304745
-0.9832418899710635
-0.28358688141456817
-0.29620708594304745
-0.9816553387261185
-0.2836715303062967
-0.29470753342298706
-0.9816553387261185
-0.2836715303062967
-0.29470753342298706
-0.9816553387261185
-0.2836715303062967
-0.29470753342298706
-0.9816553387261185
-0.2836715303062967
-0.29470753342298706
-0.9790881410765461
-0.28399503146216676
-0.2935435314877277
-0.9790881410765461
-0.28399503146216676
-0.2935435314877277
-0.9790881410765461
-0.28399503146216676
-0.2935435314877277
-0.9790881410765461
-0.28399503146216676
-0.2935435314877277
-0.9813779118352491
-0.28420985104793284
-0.2917290475175307
-0.9813779118352491
-0.28420985104793284
-0.2917290475175307
-0.9813779118352491
-0.28420985104793284
-0.2917290475175307
-0.9813779118352491
-0.28420985104793284
-0.2917290475175307
-0.9857631141844727
-0.2822114029564701
-0.28990319240642437
-0.9857631141844727
-0.2822114029564701
-0.28990319240642437
-0.9857631141844727
-0.2822114029564701
-0.28990319240642437
-0.9857631141844727
-0.2822114029564701
-0.28990319240642437
-0.9852628219977151
-0.2787644723402507
-0.288161812948512
-0.9852628219977151
-0.2787644723402507
-0.288161812948512
-0.9852628219977151
-0.2787644723402507
-0.288161812948512
-0.9852628219977151
-0.2787644723402507
-0.288161812948512
-0.9894286280139667
-0.2768184930894291
-0.2857816561099153
-0.9894286280139667
-0.2768184930894291
-0.2857816561099153
-0.9894286280139667
-0.2768184930894291
-0.2857816561099153
-0.9894286280139667
-0.2768184930894291
-0.2857816561099153
-0.9989985151287702
-0.2722325394854116
-0.2818916229983976
-0.9989985151287702
-0.2722325394854116
-0.2818916229983976
-0.9989985151287702
-0.2722325394854116
-0.2818916229983976
-0.9989985151287702
-0.2722325394854116
-0.2818916229983976
-0.999693771859436
-0.26561167782810685
-0.28007280739845486
-0.999693771859436
-0.26561167782810685
-0.28007280739845486
-0.999693771859436
-0.26561167782810685
-0.28007280739845486
-0.999693771859436
-0.26561167782810685
-0.28007280739845486
-0.9927709390186812
-0.2626520778668986
-0.27989562015013103
-0.9927709390186812
-0.2626520778668986
-0.27989562015013103
-0.9927709390186812
-0.2626520778668986
-0.27989562015013103
-0.9927709390186812
-0.2626520778668986
-0.27989562015013103
-0.9904340652989737
-0.2642472991628072
-0.2786107467609806
-0.9904340652989737
-0.2642472991628072
-0.2786107467609806
-0.9904340652989737
-0.2642472991628072
-0.2786107467609806
-0.9904340652989737
-0.2642472991628072
-0.2786107467609806
-0.9950209882755362
-0.2646549494741848
-0.2771138772095989
-0.9950209882755362
-0.2646549494741848
-0.2771138772095989
-0.9950209882755362
-0.2646549494741848
-0.2771138772095989
-0.9950209882755362
-0.2646549494741848
-0.2771138772095989
-0.9930877720743445
-0.2605765072427924
-0.2765413738273788
-0.9930877720743445
-0.2605765072427924
-0.2765413738273788
-0.9930877720743445
-0.2605765072427924
-0.2765413738273788
-0.9930877720743445
-0.2605765072427924
-0.2765413738273788
-0.9861878186381621
-0.2604154260635854
-0.2775834284467434
-0.9861878186381621
-0.2604154260635854
-0.2775834284467434
-0.9861878186381621
-0.2604154260635854
-0.2775834284467434
-0.9861878186381621
-0.2604154260635854
-0.2775834284467434
-0.9803517707597342
-0.2667396380555666
-0.2773286271235708
-0.9803517707597342
-0.2667396380555666
-0.2773286271235708
-0.9803517707597342
-0.2667396380555666
-0.2773286271235708
-0.9803517707597342
-0.2667396380555666
-0.2773286271235708
-0.9861719912232236
-0.27028667170975845
-0.275973312961924
-0.9861719912232236
-0.27028667170975845
-0.275973312961924
-0.9861719912232236
-0.27028667170975845
-0.275973312961924
-0.9861719912232236
-0.27028667170975845
-0.275973312961924
-0.9876685368649043
-0.266954683962711
-0.27392374322929275
-0.9876685368649043
-0.266954683962711
-0.27392374322929275
-0.9876685368649043
-0.266954683962711
-0.27392374322929275
-0.9876685368649043
-0.266954683962711
-0.27392374322929275
-0.97851662219486
-0.26594896720645445
-0.27300628772896857
-0.97851662219486
-0.26594896720645445
-0.27300628772896857
-0.97851662219486
-0.26594896720645445
-0.27300628772896857
-0.97851662219486
-0.26594896720645445
-0.27300628772896857
-0.972915495449844
-0.2710860566118784
-0.2735574454398652
-0.972915495449844
-0.2710860566118784
-0.2735574454398652
-0.972915495449844
-0.2710860566118784
-0.2735574454398652
-0.972915495449844
-0.2710860566118784
-0.2735574454398652
-0.9751563687592273
-0.2755930338629022
-0.2730548574682217
-0.9751563687592273
-0.2755930338629022
-0.2730548574682217
-0.9751563687592273
-0.2755930338629022
-0.2730548574682217
-0.9751563687592273
-0.2755930338629022
-0.2730548574682217
-0.9829071912784724
-0.2736616761817506
-0.2724238578983027
-0.9829071912784724
-0.2736616761817506
-0.2724238578983027
-0.9829071912784724
-0.2736616761817506
-0.2724238578983027
-0.9829071912784724
-0.2736616761817506
-0.2724238578983027
-0.978108853077731
-0.2678810956076625
-0.2703142676541723
-0.978108853077731
-0.2678810956076625
-0.2703142676541723
-0.978108853077731
-0.2678810956076625
-0.2703142676541723
-0.978108853077731
-0.2678810956076625
-0.2703142676541723
-0.9718203514757169
-0.2657193202653462
-0.2687038774797967
-0.9718203514757169
-0.2657193202653462
-0.2687038774797967
-0.9718203514757169
-0.2657193202653462
-0.2687038774797967
-0.9718203514757169
-0.2657193202653462
-0.2687038774797967
-0.9772045085216443
-0.26455413214607326
-0.2665795285917104
-0.9772045085216443
-0.26455413214607326
-0.2665795285917104
-0.9772045085216443
-0.26455413214607326
-0.2665795285917104
-0.9772045085216443
-0.26455413214607326
-0.2665795285917104
-0.9826528758297467
-0.26137023622256206
-0.26589128821671754
-0.9826528758297467
-0.26137023622256206
-0.26589128821671754
-0.9826528758297467
-0.26137023622256206
-0.26589128821671754
-0.9826528758297467
-0.26137023622256206
-0.26589128821671754
-0.9833109338832707
-0.2584323951507083
-0.26767386578975294
-0.9833109338832707
-0.2584323951507083
-0.26767386578975294
-0.9833109338832707
-0.2584323951507083
-0.26767386578975294
-0.9833109338832707
-0.2584323951507083
-0.26767386578975294
-0.9808563457503594
-0.2574893340632539
-0.2691566514023817
-0.9808563457503594
-0.2574893340632539
-0.2691566514023817
-0.9808563457503594
-0.2574893340632539
-0.2691566514023817
-0.9808563457503594
-0.2574893340632539
-0.2691566514023817
-0.9811670232940357
-0.2596830349405974
-0.26972458907806957
-0.9811670232940357
-0.2596830349405974
-0.26972458907806957
-0.9811670232940357
-0.2596830349405974
-0.26972458907806957
-0.9811670232940357
-0.2596830349405974
-0.26972458907806957
-0.9862457937910935
-0.2581752514257771
-0.26891968325549226
-0.9862457937910935
-0.2581752514257771
-0.26891968325549226
-0.9862457937910935
-0.2581752514257771
-0.26891968325549226
-0.9862457937910935
-0.2581752514257771
-0.26891968325549226
-0.9847546927753955
-0.25748896593452986
-0.2682228179590802
-0.9847546927753955
-0.25748896593452986
-0.2682228179590802
-0.9847546927753955
-0.25748896593452986
-0.2682228179590802
-0.9847546927753955
-0.25748896593452986
-0.2682228179590802
-0.9815497971926169
-0.25942276137685744
-0.2678360921801283
-0.9815497971926169
-0.25942276137685744
-0.2678360921801283
-0.9815497971926169
-0.25942276137685744
-0.2678360921801283
-0.9815497971926169
-0.25942276137685744
-0.2678360921801283
-0.9828403565791831
-0.26201975536915517
-0.2672575703967358
-0.9828403565791831
-0.26201975536915517
-0.2672575703967358
-0.9828403565791831
-0.26201975536915517
-0.2672575703967358
-0.9828403565791831
-0.26201975536915517
-0.2672575703967358
-0.9847171024096849
-0.26188325929805667
-0.26707618259107047
-0.9847171024096849
-0.26188325929805667
-0.26707618259107047
-0.9847171024096849
-0.26188325929805667
-0.26707618259107047
-0.9847171024096849
-0.26188325929805667
-0.26707618259107047
-0.9844551369883644
-0.2612902378966644
-0.26711287570499237
-0.9844551369883644
-0.2612902378966644
-0.26711287570499237
-0.9844551369883644
-0.2612902378966644
-0.26711287570499237
-0.9844551369883644
-0.2612902378966644
-0.26711287570499237
-0.981828231990366
-0.263837803698125
-0.26764359672907256
-0.981828231990366
-0.263837803698125
-0.26764359672907256
-0.981828231990366
-0.263837803698125
-0.26764359672907256
-0.981828231990366
-0.263837803698125
-0.26764359672907256
-0.9803727037206078
-0.26705011622803687
-0.2679271905509362
-0.9803727037206078
-0.26705011622803687
-0.2679271905509362
-0.9803727037206078
-0.26705011622803687
-0.2679271905509362
-0.9803727037206078
-0.26705011622803687
-0.2679271905509362
-0.9816348065131143
-0.2686392961581226
-0.26857772601335067
-0.9816348065131143
-0.2686392961581226
-0.26857772601335067
-0.9816348065131143
-0.2686392961581226
-0.26857772601335067
-0.9816348065131143
-0.2686392961581226
-0.26857772601335067
-0.9867340129179375
-0.26725971652087505
-0.2679768670554337
-0.9867340129179375
-0.26725971652087505
-0.2679768670554337
-0.9867340129179375
-0.26725971652087505
-0.2679768670554337
-0.9867340129179375
-0.26725971652087505
-0.2679768670554337
-0.9832393190188706
-0.26456859878777284
-0.26717763705495984
-0.9832393190188706
-0.26456859878777284
-0.26717763705495984
-0.9832393190188706
-0.26456859878777284
-0.26717763705495984
-0.9832393190188706
-0.26456859878777284
-0.26717763705495984
-0.9798759651831948
-0.26517032507896315
-0.26850523717794816
-0.9798759651831948
-0.26517032507896315
-0.26850523717794816
-0.9798759651831948
-0.26517032507896315
-0.26850523717794816
-0.9798759651831948
-0.26517032507896315
-0.26850523717794816
-0.982326005448762
-0.268592657028605
-0.2705354637572622
-0.982326005448762
-0.268592657028605
-0.2705354637572622
-0.982326005448762
-0.268592657028605
-0.2705354637572622
-0.982326005448762
-0.268592657028605
-0.2705354637572622
-0.9853126734275991
-0.26868035210971986
-0.2705885611358335
-0.9853126734275991
-0.26868035210971986
-0.2705885611358335
-0.9853126734275991
-0.26868035210971986
-0.2705885611358335
-0.9853126734275991
-0.26868035210971986
-0.2705885611358335
-0.9837945851870996
-0.26411949979624866
-0.2702255495952329
-0.9837945851870996
-0.26411949979624866
-0.2702255495952329
-0.9837945851870996
-0.26411949979624866
-0.2702255495952329
-0.9837945851870996
-0.26411949979624866
-0.2702255495952329
-0.980748574534301
-0.2641397101147374
-0.2714013890429003
-0.980748574534301
-0.2641397101147374
-0.2714013890429003
-0.980748574534301
-0.2641397101147374
-0.2714013890429003
-0.980748574534301
-0.2641397101147374
-0.2714013890429003
-0.9851426648336816
-0.26582503339858987
-0.27181096865825966
-0.9851426648336816
-0.26582503339858987
-0.27181096865825966
-0.9851426648336816
-0.26582503339858987
-0.27181096865825966
-0.9851426648336816
-0.26582503339858987
-0.27181096865825966
-0.9887685406418538
-0.2635235711582644
-0.27109428765697746
-0.9887685406418538
-0.2635235711582644
-0.27109428765697746
-0.9887685406418538
-0.2635235711582644
-0.27109428765697746
-0.9887685406418538
-0.2635235711582644
-0.27109428765697746
-0.9875131891778367
-0.2624235299297484
-0.2715988363576157
-0.9875131891778367
-0.2624235299297484
-0.2715988363576157
-0.9875131891778367
-0.2624235299297484
-0.2715988363576157
-0.9875131891778367
-0.2624235299297484
-0.2715988363576157
-0.9898313627344726
-0.2606954281078981
-0.27139448501375535
-0.9898313627344726
-0.2606954281078981
-0.27139448501375535
-0.9898313627344726
-0.2606954281078981
-0.27139448501375535
-0.9898313627344726
-0.2606954281078981
-0.27139448501375535
-0.989972982274248
-0.2589855181502459
-0.27027818377919266
-0.989972982274248
-0.2589855181502459
-0.27027818377919266
-0.989972982274248
-0.2589855181502459
-0.27027818377919266
-0.989972982274248
-0.2589855181502459
-0.27027818377919266
-0.9904467271769755
-0.25936245397591934
-0.2687631650342542
-0.9904467271769755
-0.25936245397591934
-0.2687631650342542
-0.9904467271769755
-0.25936245397591934
-0.2687631650342542
-0.9904467271769755
-0.25936245397591934
-0.2687631650342542
-0.9950442900540054
-0.257059952139311
-0.2664510530408395
-0.9950442900540054
-0.257059952139311
-0.2664510530408395
-0.9950442900540054
-0.257059952139311
-0.2664510530408395
-0.9950442900540054
-0.257059952139311
-0.2664510530408395
-0.9956808916730217
-0.2533400563206338
-0.2638136451453491
-0.9956808916730217
-0.2533400563206338
-0.2638136451453491
-0.9956808916730217
-0.2533400563206338
-0.2638136451453491
-0.9956808916730217
-0.2533400563206338
-0.2638136451453491
-0.9939214153924333
-0.2516971947086607
-0.26223368378534384
-0.9939214153924333
-0.2516971947086607
-0.26223368378534384
-0.9939214153924333
-0.2516971947086607
-0.26223368378534384
-0.9939214153924333
-0.2516971947086607
-0.26223368378534384
-0.9931012800273991
-0.25246369168938243
-0.26087857996980157
-0.9931012800273991
-0.25246369168938243
-0.26087857996980157
-0.9931012800273991
-0.25246369168938243
-0.26087857996980157
-0.9931012800273991
-0.25246369168938243
-0.26087857996980157
-0.9924501203269094
-0.25275265791751317
-0.25860846921629416
-0.9924501203269094
-0.25275265791751317
-0.25860846921629416
-0.9924501203269094
-0.25275265791751317
-0.25860846921629416
-0.9924501203269094
-0.25275265791751317
-0.25860846921629416
-0.9938194791751459
-0.25332335637460274
-0.2563738641302604
-0.9938194791751459
-0.25332335637460274
-0.2563738641302604
-0.9938194791751459
-0.25332335637460274
-0.2563738641302604
-0.9938194791751459
-0.25332335637460274
-0.2563738641302604
-0.9933259213320916
-0.25329901134965255
-0.254989476170418
-0.9933259213320916
-0.25329901134965255
-0.254989476170418
-0.9933259213320916
-0.25329901134965255
-0.254989476170418
-0.9933259213320916
-0.25329901134965255
-0.254989476170418
-0.9928237948770099
-0.2546230941040672
-0.2550310692447064
-0.9928237948770099
-0.2546230941040672
-0.2550310692447064
-0.9928237948770099
-0.2546230941040672
-0.2550310692447064
-0.9928237948770099
-0.2546230941040672
-0.2550310692447064
-0.9927871787428576
-0.25835662511052115
-0.25520941508196315
-0.9927871787428576
-0.25835662511052115
-0.25520941508196315
-0.9927871787428576
-0.25835662511052115
-0.25520941508196315
-0.9927871787428576
-0.25835662511052115
-0.25520941508196315
-0.998022254700265
-0.25593610423753416
-0.25303622769252826
-0.998022254700265
-0.25593610423753416
-0.25303622769252826
-0.998022254700265
-0.25593610423753416
-0.25303622769252826
-0.998022254700265
-0.25593610423753416
-0.25303622769252826
-0.9973112607967366
-0.25161105206231643
-0.25180916837158207
-0.9973112607967366
-0.25161105206231643
-0.25180916837158207
-0.9973112607967366
-0.25161105206231643
-0.25180916837158207
-0.9973112607967366
-0.25161105206231643
-0.25180916837158207
-0.9953204540115368
-0.2544553284768966
-0.2525733484403533
-0.9953204540115368
-0.2544553284768966
-0.2525733484403533
-0.9953204540115368
-0.2544553284768966
-0.2525733484403533
-0.9953204540115368
-0.2544553284768966
-0.2525733484403533
-0.9978275743353533
-0.2571315933395045
-0.25298541777631234
-0.9978275743353533
-0.2571315933395045
-0.25298541777631234
-0.9978275743353533
-0.2571315933395045
-0.25298541777631234
-0.9978275743353533
-0.2571315933395045
-0.25298541777631234
-0.9944349709646756
-0.2580846984078766
-0.2533847794205732
-0.9944349709646756
-0.2580846984078766
-0.2533847794205732
-0.9944349709646756
-0.2580846984078766
-0.2533847794205732
-0.9944349709646756
-0.2580846984078766
-0.2533847794205732
-0.9940750415115437
-0.25788363947213677
-0.2533909544495724
-0.9940750415115437
-0.25788363947213677
-0.2533909544495724
-0.9940750415115437
-0.25788363947213677
-0.2533909544495724
-0.9940750415115437
-0.25788363947213677
-0.2533909544495724
-0.9915859467022654
-0.2604311482829603
-0.2543292937702734
-0.9915859467022654
-0.2604311482829603
-0.2543292937702734
-0.9915859467022654
-0.2604311482829603
-0.2543292937702734
-0.9915859467022654
-0.2604311482829603
-0.2543292937702734
-0.9925973002132443
-0.2590197884010733
-0.2547134102685167
-0.9925973002132443
-0.2590197884010733
-0.2547134102685167
-0.9925973002132443
-0.2590197884010733
-0.2547134102685167
-0.9925973002132443
-0.2590197884010733
-0.2547134102685167
-0.9946715130575351
-0.2577314452489522
-0.25542985795091516
-0.9946715130575351
-0.2577314452489522
-0.25542985795091516
-0.9946715130575351
-0.2577314452489522
-0.25542985795091516
-0.9946715130575351
-0.2577314452489522
-0.25542985795091516
-0.9940967696180313
-0.2583489815589142
-0.25625508802549746
-0.9940967696180313
-0.2583489815589142
-0.25625508802549746
-0.9940967696180313
-0.2583489815589142
-0.25625508802549746
-0.9940967696180313
-0.2583489815589142
-0.25625508802549746
-0.993422968322463
-0.2586721710967466
-0.2555601872703201
-0.993422968322463
-0.2586721710967466
-0.2555601872703201
-0.993422968322463
-0.2586721710967466
-0.2555601872703201
-0.993422968322463
-0.2586721710967466
-0.2555601872703201
-0.9907560486162222
-0.2548071973400037
-0.254067446586674
-0.9907560486162222
-0.2548071973400037
-0.254067446586674
-0.9907560486162222
-0.2548071973400037
-0.254067446586674
-0.9907560486162222
-0.2548071973400037
-0.254067446586674
-0.9882103713681374
-0.2522416010791552
-0.25386270373169884
-0.9882103713681374
-0.2522416010791552
-0.25386270373169884
-0.9882103713681374
-0.2522416010791552
-0.25386270373169884
-0.9882103713681374
-0.2522416010791552
-0.25386270373169884
-0.9896196561069988
-0.2527769652840661
-0.2540777291545759
-0.9896196561069988
-0.2527769652840661
-0.2540777291545759
-0.9896196561069988
-0.2527769652840661
-0.2540777291545759
-0.9896196561069988
-0.2527769652840661
-0.2540777291545759
-0.9851082686740212
-0.2525712745378518
-0.2530171712050208
-0.9851082686740212
-0.2525712745378518
-0.2530171712050208
-0.9851082686740212
-0.2525712745378518
-0.2530171712050208
-0.9851082686740212
-0.2525712745378518
-0.2530171712050208
-0.9790079965646583
-0.252946478366609
-0.2530513501375818
-0.9790079965646583
-0.252946478366609
-0.2530513501375818
-0.9790079965646583
-0.252946478366609
-0.2530513501375818
-0.9790079965646583
-0.252946478366609
-0.2530513501375818
-0.9814105913049526
-0.25238727122641547
-0.2534777631037042
-0.9814105913049526
-0.25238727122641547
-0.2534777631037042
-0.9814105913049526
-0.25238727122641547
-0.2534777631037042
-0.9814105913049526
-0.25238727122641547
-0.2534777631037042
-0.9840512875168321
-0.24910208260502348
-0.2529143437762583
-0.9840512875168321
-0.24910208260502348
-0.2529143437762583
-0.9840512875168321
-0.24910208260502348
-0.2529143437762583
-0.9840512875168321
-0.24910208260502348
-0.2529143437762583
-0.9819567509459468
-0.2485504161017573
-0.252897833371121
-0.9819567509459468
-0.2485504161017573
-0.252897833371121
-0.9819567509459468
-0.2485504161017573
-0.252897833371121
-0.9819567509459468
-0.2485504161017573
-0.252897833371121
-0.9785195670747585
-0.25021709532960257
-0.254356715914263
-0.9785195670747585
-0.25021709532960257
-0.254356715914263
-0.9785195670747585
-0.25021709532960257
-0.254356715914263
-0.9785195670747585
-0.25021709532960257
-0.254356715914263
-0.9780395996583273
-0.2502180083521068
-0.25735228683024897
-0.9780395996583273
-0.2502180083521068
-0.25735228683024897
-0.9780395996583273
-0.2502180083521068
-0.25735228683024897
-0.9780395996583273
-0.2502180083521068
-0.25735228683024897
-0.982564896770352
-0.24392206830747795
-0.2605449233845837
-0.982564896770352
-0.24392206830747795
-0.2605449233845837
-0.982564896770352
-0.24392206830747795
-0.2605449233845837
-0.982564896770352
-0.24392206830747795
-0.2605449233845837
-0.984033621318771
-0.23962493262630216
-0.25931019006135736
-0.984033621318771
-0.23962493262630216
-0.25931019006135736
-0.984033621318771
-0.23962493262630216
-0.25931019006135736
-0.984033621318771
-0.23962493262630216
-0.25931019006135736
-0.9762768532817355
-0.2429908418931429
-0.25980120870321394
-0.9762768532817355
-0.2429908418931429
-0.25980120870321394
-0.9762768532817355
-0.2429908418931429
-0.25980120870321394
-0.9762768532817355
-0.2429908418931429
-0.25980120870321394
-0.9674420205447101
-0.2483694527835869
-0.26289830055338603
-0.9674420205447101
-0.2483694527835869
-0.26289830055338603
-0.9674420205447101
-0.2483694527835869
-0.26289830055338603
-0.9674420205447101
-0.2483694527835869
-0.26289830055338603
-0.9705021390288079
-0.25347469139396966
-0.2668754833927034
-0.9705021390288079
-0.25347469139396966
-0.2668754833927034
-0.9705021390288079
-0.25347469139396966
-0.2668754833927034
-0.9705021390288079
-0.25347469139396966
-0.2668754833927034
-0.9819228452854626
-0.2557870707881066
-0.2699853053026602
-0.9819228452854626
-0.2557870707881066
-0.2699853053026602
-0.9819228452854626
-0.2557870707881066
-0.2699853053026602
-0.9819228452854626
-0.2557870707881066
-0.2699853053026602
-0.9902435383746675
-0.25297677861020557
-0.27271869853067715
-0.9902435383746675
-0.25297677861020557
-0.27271869853067715
-0.9902435383746675
-0.25297677861020557
-0.27271869853067715
-0.9902435383746675
-0.25297677861020557
-0.27271869853067715
-0.9910132636482498
-0.24789577888776515
-0.2756428856194387
-0.9910132636482498
-0.24789577888776515
-0.2756428856194387
-0.9910132636482498
-0.24789577888776515
-0.2756428856194387
-0.9910132636482498
-0.24789577888776515
-0.2756428856194387
-0.9875285545201374
-0.24449489626838436
-0.2788818062394971
-0.9875285545201374
-0.24449489626838436
-0.2788818062394971
-0.9875285545201374
-0.24449489626838436
-0.2788818062394971
-0.9875285545201374
-0.24449489626838436
-0.2788818062394971
-0.9856766022928543
-0.24543017819126275
-0.2807628701341428
-0.9856766022928543
-0.24543017819126275
-0.2807628701341428
-0.9856766022928543
-0.24543017819126275
-0.2807628701341428
-0.9856766022928543
-0.24543017819126275
-0.2807628701341428
-0.9856529295159512
-0.24859074385585125
-0.2819494087846294
-0.9856529295159512
-0.24859074385585125
-0.2819494087846294
-0.9856529295159512
-0.24859074385585125
-0.2819494087846294
-0.9856529295159512
-0.24859074385585125
-0.2819494087846294
-0.9862623676535891
-0.2512620928001118
-0.28352262935576134
-0.9862623676535891
-0.2512620928001118
-0.28352262935576134
-0.9862623676535891
-0.2512620928001118
-0.28352262935576134
-0.9862623676535891
-0.2512620928001118
-0.28352262935576134
-0.9832149555025905
-0.2491561627947471
-0.2849159779348231
-0.9832149555025905
-0.2491561627947471
-0.2849159779348231
-0.9832149555025905
-0.2491561627947471
-0.2849159779348231
-0.9832149555025905
-0.2491561627947471
-0.2849159779348231
-0.9755590455148423
-0.2446843402219195
-0.28859616103481134
-0.9755590455148423
-0.2446843402219195
-0.28859616103481134
-0.9755590455148423
-0.2446843402219195
-0.28859616103481134
-0.9755590455148423
-0.2446843402219195
-0.28859616103481134
-0.9665837152544444
-0.24049510240414165
-0.29384789733162686
-0.9665837152544444
-0.24049510240414165
-0.29384789733162686
-0.9665837152544444
-0.24049510240414165
-0.29384789733162686
-0.9665837152544444
-0.24049510240414165
-0.29384789733162686
-0.9635373583403836
-0.23831739773126104
-0.296937080139926
-0.9635373583403836
-0.23831739773126104
-0.296937080139926
-0.9635373583403836
-0.23831739773126104
-0.296937080139926
-0.9635373583403836
-0.23831739773126104
-0.296937080139926
-0.9644170032930709
-0.2393878843484095
-0.2980655550731374
-0.9644170032930709
-0.2393878843484095
-0.2980655550731374
-0.9644170032930709
-0.2393878843484095
-0.2980655550731374
-0.9644170032930709
-0.2393878843484095
-0.2980655550731374
-0.9618216318491415
-0.24164025126523003
-0.30070490281968176
-0.9618216318491415
-0.24164025126523003
-0.30070490281968176
-0.9618216318491415
-0.24164025126523003
-0.30070490281968176
-0.9618216318491415
-0.24164025126523003
-0.30070490281968176
-0.9572923143068102
-0.24183478324759403
-0.3039198795499619
-0.9572923143068102
-0.24183478324759403
-0.3039198795499619
-0.9572923143068102
-0.24183478324759403
-0.3039198795499619
-0.9572923143068102
-0.24183478324759403
-0.3039198795499619
-0.955984022940741
-0.23928407001287694
-0.30695867673226057
-0.955984022940741
-0.23928407001287694
-0.30695867673226057
-0.955984022940741
-0.23928407001287694
-0.30695867673226057
-0.955984022940741
-0.23928407001287694
-0.30695867673226057
-0.9602369997263213
-0.23701122574841807
-0.30879241990399786
-0.9602369997263213
-0.23701122574841807
-0.30879241990399786
-0.9602369997263213
-0.23701122574841807
-0.30879241990399786
-0.9602369997263213
-0.23701122574841807
-0.30879241990399786
-0.9634115329277445
-0.2358882648603072
-0.3087979574603218
-0.9634115329277445
-0.2358882648603072
-0.3087979574603218
-0.9634115329277445
-0.2358882648603072
-0.3087979574603218
-0.9634115329277445
-0.2358882648603072
-0.3087979574603218
-0.9634865672242028
-0.23704477264237725
-0.3080703302022721
-0.9634865672242028
-0.23704477264237725
-0.3080703302022721
-0.9634865672242028
-0.23704477264237725
-0.3080703302022721
-0.9634865672242028
-0.23704477264237725
-0.3080703302022721
-0.9600761221471975
-0.23746356484355433
-0.3081436950795387
-0.9600761221471975
-0.23746356484355433
-0.3081436950795387
-0.9600761221471975
-0.23746356484355433
-0.3081436950795387
-0.9600761221471975
-0.23746356484355433
-0.3081436950795387
-0.9556348765061788
-0.2373145214693406
-0.3096620175589057
-0.9556348765061788
-0.2373145214693406
-0.3096620175589057
-0.9556348765061788
-0.2373145214693406
-0.3096620175589057
-0.9556348765061788
-0.2373145214693406
-0.3096620175589057
-0.9547409310480193
-0.23807863480705102
-0.31199052324175813
-0.9547409310480193
-0.23807863480705102
-0.31199052324175813
-0.9547409310480193
-0.23807863480705102
-0.31199052324175813
-0.9547409310480193
-0.23807863480705102
-0.31199052324175813
-0.9569514215225404
-0.2378932245928021
-0.31283218391322726
-0.9569514215225404
-0.2378932245928021
-0.31283218391322726
-0.9569514215225404
-0.2378932245928021
-0.31283218391322726
-0.9569514215225404
-0.2378932245928021
-0.31283218391322726
-0.9589697613243474
-0.23629823887388493
-0.3134396293640913
-0.9589697613243474
-0.23629823887388493
-0.3134396293640913
-0.9589697613243474
-0.23629823887388493
-0.3134396293640913
-0.9589697613243474
-0.23629823887388493
-0.3134396293640913
-0.959115781754208
-0.23431269271186086
-0.31486575782158455
-0.959115781754208
-0.23431269271186086
-0.31486575782158455
-0.959115781754208
-0.23431269271186086
-0.31486575782158455
-0.959115781754208
-0.23431269271186086
-0.31486575782158455
-0.9572732358601994
-0.23235271786922576
-0.3166320965177905
-0.9572732358601994
-0.23235271786922576
-0.3166320965177905
-0.9572732358601994
-0.23235271786922576
-0.3166320965177905
-0.9572732358601994
-0.23235271786922576
-0.3166320965177905
-0.9532355928115419
-0.23080999014491224
-0.3185256361908172
-0.9532355928115419
-0.23080999014491224
-0.3185256361908172
-0.9532355928115419
-0.23080999014491224
-0.3185256361908172
-0.9532355928115419
-0.23080999014491224
-0.3185256361908172
-0.9508503012560923
-0.23030988220374687
-0.3201365734176664
-0.9508503012560923
-0.23030988220374687
-0.3201365734176664
-0.9508503012560923
-0.23030988220374687
-0.3201365734176664
-0.9508503012560923
-0.23030988220374687
-0.3201365734176664
-0.952632818080613
-0.23074213588576334
-0.32099970185367976
-0.952632818080613
-0.23074213588576334
-0.32099970185367976
-0.952632818080613
-0.23074213588576334
-0.32099970185367976
-0.952632818080613
-0.23074213588576334
-0.32099970185367976
-0.9573304727672496
-0.23147635275750975
-0.32174488992672484
-0.9573304727672496
-0.23147635275750975
-0.32174488992672484
-0.9573304727672496
-0.23147635275750975
-0.32174488992672484
-0.9573304727672496
-0.23147635275750975
-0.32174488992672484
-0.9596736452657102
-0.23205278002542576
-0.3223753628551022
-0.9596736452657102
-0.23205278002542576
-0.3223753628551022
-0.9596736452657102
-0.23205278002542576
-0.3223753628551022
-0.9596736452657102
-0.23205278002542576
-0.3223753628551022
-0.9573754189051812
-0.23170533352592795
-0.3234621330437746
-0.9573754189051812
-0.23170533352592795
-0.3234621330437746
-0.9573754189051812
-0.23170533352592795
-0.3234621330437746
-0.9573754189051812
-0.23170533352592795
-0.3234621330437746
-0.9541848039025497
-0.23201496528985258
-0.32511244354701363
-0.9541848039025497
-0.23201496528985258
-0.32511244354701363
-0.9541848039025497
-0.23201496528985258
-0.32511244354701363
-0.9541848039025497
-0.23201496528985258
-0.32511244354701363
-0.953698032585684
-0.23274843917884697
-0.3259092829104852
-0.953698032585684
-0.23274843917884697
-0.3259092829104852
-0.953698032585684
-0.23274843917884697
-0.3259092829104852
-0.953698032585684
-0.23274843917884697
-0.3259092829104852
-0.9544335533975737
-0.23332534824014678
-0.3264298670047724
-0.9544335533975737
-0.23332534824014678
-0.3264298670047724
-0.9544335533975737
-0.23332534824014678
-0.3264298670047724
-0.9544335533975737
-0.23332534824014678
-0.3264298670047724
-0.9550920355455456
-0.23373130067056958
-0.32691629729133964
-0.9550920355455456
-0.23373130067056958
-0.32691629729133964
-0.9550920355455456
-0.23373130067056958
-0.32691629729133964
-0.9550920355455456
-0.23373130067056958
-0.32691629729133964
-0.9541865793642074
-0.2344243770399415
-0.3270312392806257
-0.9541865793642074
-0.2344243770399415
-0.3270312392806257
-0.9541865793642074
-0.2344243770399415
-0.3270312392806257
-0.9541865793642074
-0.2344243770399415
-0.3270312392806257
-0.9541952416769027
-0.2352395712940675
-0.3267389266371445
-0.9541952416769027
-0.2352395712940675
-0.3267389266371445
-0.9541952416769027
-0.2352395712940675
-0.3267389266371445
-0.9541952416769027
-0.2352395712940675
-0.3267389266371445
-0.9543775301752628
-0.23628757860278835
-0.32706450657979214
-0.9543775301752628
-0.23628757860278835
-0.32706450657979214
-0.9543775301752628
-0.23628757860278835
-0.32706450657979214
-0.9543775301752628
-0.23628757860278835
-0.32706450657979214
-0.9547259487346115
-0.23713366078968803
-0.32720119708259954
-0.9547259487346115
-0.23713366078968803
-0.32720119708259954
-0.9547259487346115
-0.23713366078968803
-0.32720119708259954
-0.9547259487346115
-0.23713366078968803
-0.32720119708259954
-0.9550538220744086
-0.2376361602265184
-0.3274895103743623
-0.9550538220744086
-0.2376361602265184
-0.3274895103743623
-0.9550538220744086
-0.2376361602265184
-0.3274895103743623
-0.9550538220744086
-0.2376361602265184
-0.3274895103743623
-0.9550072823164607
-0.2379766665431161
-0.327888029571803
-0.9550072823164607
-0.2379766665431161
-0.327888029571803
-0.9550072823164607
-0.2379766665431161
-0.327888029571803
-0.9550072823164607
-0.2379766665431161
-0.327888029571803
-0.9557095949604906
-0.23827747942076768
-0.3281523217172809
-0.9557095949604906
-0.23827747942076768
-0.3281523217172809
-0.9557095949604906
-0.23827747942076768
-0.3281523217172809
-0.9557095949604906
-0.23827747942076768
-0.3281523217172809
-0.9569982753983192
-0.2379479165662893
-0.32855439652330365
-0.9569982753983192
-0.2379479165662893
-0.32855439652330365
-0.9569982753983192
-0.2379479165662893
-0.32855439652330365
-0.9569982753983192
-0.2379479165662893
-0.32855439652330365
-0.9589499628756808
-0.23711866807018495
-0.3287772824169311
-0.9589499628756808
-0.23711866807018495
-0.3287772824169311
-0.9589499628756808
-0.23711866807018495
-0.3287772824169311
-0.9589499628756808
-0.23711866807018495
-0.3287772824169311
-0.9600467684729866
-0.235612975443463
-0.32862610885557497
-0.9600467684729866
-0.235612975443463
-0.32862610885557497
-0.9600467684729866
-0.235612975443463
-0.32862610885557497
-0.9600467684729866
-0.235612975443463
-0.32862610885557497
-0.9592942671853882
-0.2339303206056297
-0.32838989104591443
-0.9592942671853882
-0.2339303206056297
-0.32838989104591443
-0.9592942671853882
-0.2339303206056297
-0.32838989104591443
-0.9592942671853882
-0.2339303206056297
-0.32838989104591443
-0.9589904690815618
-0.2329037788639352
-0.3276376329076495
-0.9589904690815618
-0.2329037788639352
-0.3276376329076495
-0.9589904690815618
-0.2329037788639352
-0.3276376329076495
-0.9589904690815618
-0.2329037788639352
-0.3276376329076495
-0.9604114524350188
-0.23253247960637907
-0.3279113328038113
-0.9604114524350188
-0.23253247960637907
-0.3279113328038113
-0.9604114524350188
-0.23253247960637907
-0.3279113328038113
-0.9604114524350188
-0.23253247960637907
-0.3279113328038113
-0.960827812460809
-0.2329842001196859
-0.327538781482041
-0.960827812460809
-0.2329842001196859
-0.327538781482041
-0.960827812460809
-0.2329842001196859
-0.327538781482041
-0.960827812460809
-0.2329842001196859
-0.327538781482041
-0.9605633082531396
-0.23316857713742936
-0.3261748567885068
-0.9605633082531396
-0.23316857713742936
-0.3261748567885068
-0.9605633082531396
-0.23316857713742936
-0.3261748567885068
-0.9605633082531396
-0.23316857713742936
-0.3261748567885068
-0.9598283633313002
-0.2322812380649395
-0.3250827258075062
-0.9598283633313002
-0.2322812380649395
-0.3250827258075062
-0.9598283633313002
-0.2322812380649395
-0.3250827258075062
-0.9598283633313002
-0.2322812380649395
-0.3250827258075062
-0.9622508505176864
-0.2309802233850017
-0.32424483724951014
-0.9622508505176864
-0.2309802233850017
-0.32424483724951014
-0.9622508505176864
-0.2309802233850017
-0.32424483724951014
-0.9622508505176864
-0.2309802233850017
-0.32424483724951014
-0.9638479384902298
-0.2294618977130067
-0.324123890514678
-0.9638479384902298
-0.2294618977130067
-0.324123890514678
-0.9638479384902298
-0.2294618977130067
-0.324123890514678
-0.9638479384902298
-0.2294618977130067
-0.324123890514678
-0.9632120069674687
-0.2276839711745793
-0.32392252658944476
-0.9632120069674687
-0.2276839711745793
-0.32392252658944476
-0.9632120069674687
-0.2276839711745793
-0.32392252658944476
-0.9632120069674687
-0.2276839711745793
-0.32392252658944476
-0.9602809227775494
-0.2265546689209416
-0.32484605405911543
-0.9602809227775494
-0.2265546689209416
-0.32484605405911543
-0.9602809227775494
-0.2265546689209416
-0.32484605405911543
-0.9602809227775494
-0.2265546689209416
-0.32484605405911543
-0.9563977271087896
-0.22426525661644692
-0.3255477508225392
-0.9563977271087896
-0.22426525661644692
-0.3255477508225392
-0.9563977271087896
-0.22426525661644692
-0.3255477508225392
-0.9563977271087896
-0.22426525661644692
-0.3255477508225392
-0.9580229751096456
-0.22260227182504133
-0.3243610785086762
-0.9580229751096456
-0.22260227182504133
-0.3243610785086762
-0.9580229751096456
-0.22260227182504133
-0.3243610785086762
-0.9580229751096456
-0.22260227182504133
-0.3243610785086762
-0.9588246630229285
-0.2222678166686204
-0.32210022520238357
-0.9588246630229285
-0.2222678166686204
-0.32210022520238357
-0.9588246630229285
-0.2222678166686204
-0.32210022520238357
-0.9588246630229285
-0.2222678166686204
-0.32210022520238357
-0.9559781627405207
-0.2211279395215253
-0.3182442522229031
-0.9559781627405207
-0.2211279395215253
-0.3182442522229031
-0.9559781627405207
-0.2211279395215253
-0.3182442522229031
-0.9559781627405207
-0.2211279395215253
-0.3182442522229031
-0.9517716508656504
-0.2193987106445461
-0.31695532393429365
-0.9517716508656504
-0.2193987106445461
-0.31695532393429365
-0.9517716508656504
-0.2193987106445461
-0.31695532393429365
-0.9517716508656504
-0.2193987106445461
-0.31695532393429365
-0.9556562153269612
-0.22028452029690349
-0.31783194718342284
-0.9556562153269612
-0.22028452029690349
-0.31783194718342284
-0.9556562153269612
-0.22028452029690349
-0.31783194718342284
-0.9556562153269612
-0.22028452029690349
-0.31783194718342284
-0.9589675955447188
-0.2202227290768395
-0.31507349939758544
-0.9589675955447188
-0.2202227290768395
-0.31507349939758544
-0.9589675955447188
-0.2202227290768395
-0.31507349939758544
-0.9589675955447188
-0.2202227290768395
-0.31507349939758544
-0.9623954644359253
-0.22102018935227177
-0.31103070022792284
-0.9623954644359253
-0.22102018935227177
-0.31103070022792284
-0.9623954644359253
-0.22102018935227177
-0.31103070022792284
-0.9623954644359253
-0.22102018935227177
-0.31103070022792284
-0.9624792894696748
-0.2235481195735574
-0.3097455247960867
-0.9624792894696748
-0.2235481195735574
-0.3097455247960867
-0.9624792894696748
-0.2235481195735574
-0.3097455247960867
-0.9624792894696748
-0.2235481195735574
-0.3097455247960867
-0.9570865674190235
-0.22673990187977064
-0.3092887272495657
-0.9570865674190235
-0.22673990187977064
-0.3092887272495657
-0.9570865674190235
-0.22673990187977064
-0.3092887272495657
-0.9570865674190235
-0.22673990187977064
-0.3092887272495657
-0.9659080474286492
-0.23244502048610796
-0.30423402126660526
-0.9659080474286492
-0.23244502048610796
-0.30423402126660526
-0.9659080474286492
-0.23244502048610796
-0.30423402126660526
-0.9659080474286492
-0.23244502048610796
-0.30423402126660526
-0.9879193168634095
-0.23966358266387508
-0.29609792658887524
-0.9879193168634095
-0.23966358266387508
-0.29609792658887524
-0.9879193168634095
-0.23966358266387508
-0.29609792658887524
-0.9879193168634095
-0.23966358266387508
-0.29609792658887524
-1.0140326396101538
-0.24112122390361077
-0.29082526711419787
-1.0140326396101538
-0.24112122390361077
-0.29082526711419787
-1.0140326396101538
-0.24112122390361077
-0.29082526711419787
-1.0140326396101538
-0.24112122390361077
-0.29082526711419787
-1.0194133311944857
-0.24295705995534225
-0.2858702334720031
-1.0194133311944857
-0.24295705995534225
-0.2858702334720031
-1.0194133311944857
-0.24295705995534225
-0.2858702334720031
-1.0194133311944857
-0.24295705995534225
-0.2858702334720031
-1.0208865290039806
-0.24539859975415057
-0.27800701419568635
-1.0208865290039806
-0.24539859975415057
-0.27800701419568635
-1.0208865290039806
-0.24539859975415057
-0.27800701419568635
-1.0208865290039806
-0.24539859975415057
-0.27800701419568635
-1.0283602421625944
-0.24648094767762876
-0.2723008121863223
-1.0283602421625944
-0.24648094767762876
-0.2723008121863223
-1.0283602421625944
-0.24648094767762876
-0.2723008121863223
-1.0283602421625944
-0.24648094767762876
-0.2723008121863223
-1.0367144762586469
-0.24408170452865602
-0.27252608859934335
-1.0367144762586469
-0.24408170452865602
-0.27252608859934335
-1.0367144762586469
-0.24408170452865602
-0.27252608859934335
-1.0367144762586469
-0.24408170452865602
-0.27252608859934335
-1.0406670686753152
-0.2433101207474452
-0.27684437744165413
-1.0406670686753152
-0.2433101207474452
-0.27684437744165413
-1.0406670686753152
-0.2433101207474452
-0.27684437744165413
-1.0406670686753152
-0.2433101207474452
-0.27684437744165413
-1.0431391075668421
-0.24254095704535328
-0.27804350569741376
-1.0431391075668421
-0.24254095704535328
-0.27804350569741376
-1.0431391075668421
-0.24254095704535328
-0.27804350569741376
-1.0431391075668421
-0.24254095704535328
-0.27804350569741376
-1.0403722231215795
-0.2423022197613046
-0.2781374360540373
-1.0403722231215795
-0.2423022197613046
-0.2781374360540373
-1.0403722231215795
-0.2423022197613046
-0.2781374360540373
-1.0403722231215795
-0.2423022197613046
-0.2781374360540373
-1.03601178172169
-0.24494532708878444
-0.2781504769006851
-1.03601178172169
-0.24494532708878444
-0.2781504769006851
-1.03601178172169
-0.24494532708878444
-0.2781504769006851
-1.03601178172169
-0.24494532708878444
-0.2781504769006851
-1.0332713346882438
-0.2495403645722825
-0.2773001036652914
-1.0332713346882438
-0.2495403645722825
-0.2773001036652914
-1.0332713346882438
-0.2495403645722825
-0.2773001036652914
-1.0332713346882438
-0.2495403645722825
-0.2773001036652914
-1.0325970908082196
-0.25281237064547524
-0.27464704115120125
-1.0325970908082196
-0.25281237064547524
-0.27464704115120125
-1.0325970908082196
-0.25281237064547524
-0.27464704115120125
-1.0325970908082196
-0.25281237064547524
-0.27464704115120125
-1.0287419904994344
-0.2573960624672956
-0.2734527329965095
-1.0287419904994344
-0.2573960624672956
-0.2734527329965095
-1.0287419904994344
-0.2573960624672956
-0.2734527329965095
-1.0287419904994344
-0.2573960624672956
-0.2734527329965095
-1.0271769072001378
-0.26136514573983294
-0.27379770369350387
-1.0271769072001378
-0.26136514573983294
-0.27379770369350387
-1.0271769072001378
-0.26136514573983294
-0.27379770369350387
-1.0271769072001378
-0.26136514573983294
-0.27379770369350387
-1.0306266645799944
-0.262088613374092
-0.2730637719676096
-1.0306266645799944
-0.262088613374092
-0.2730637719676096
-1.0306266645799944
-0.262088613374092
-0.2730637719676096
-1.0306266645799944
-0.262088613374092
-0.2730637719676096
-1.0356933977029146
-0.26081771723503616
-0.27220715580419713
-1.0356933977029146
-0.26081771723503616
-0.27220715580419713
-1.0356933977029146
-0.26081771723503616
-0.27220715580419713
-1.0356933977029146
-0.26081771723503616
-0.27220715580419713
-1.0333443270839517
-0.25750257043395564
-0.27172765264756227
-1.0333443270839517
-0.25750257043395564
-0.27172765264756227
-1.0333443270839517
-0.25750257043395564
-0.27172765264756227
-1.0333443270839517
-0.25750257043395564
-0.27172765264756227
-1.0290240724240363
-0.25820875558137374
-0.27255575000694043
-1.0290240724240363
-0.25820875558137374
-0.27255575000694043
-1.0290240724240363
-0.25820875558137374
-0.27255575000694043
-1.0290240724240363
-0.25820875558137374
-0.27255575000694043
-1.0298658351671854
-0.25960899947095273
-0.2710090174800265
-1.0298658351671854
-0.25960899947095273
-0.2710090174800265
-1.0298658351671854
-0.25960899947095273
-0.2710090174800265
-1.0298658351671854
-0.25960899947095273
-0.2710090174800265
-1.0319666913246053
-0.2597093523476476
-0.2696918255968239
-1.0319666913246053
-0.2597093523476476
-0.2696918255968239
-1.0319666913246053
-0.2597093523476476
-0.2696918255968239
-1.0319666913246053
-0.2597093523476476
-0.2696918255968239
-1.0322682227197757
-0.2567593104139925
-0.26986457513576023
-1.0322682227197757
-0.2567593104139925
-0.26986457513576023
-1.0322682227197757
-0.2567593104139925
-0.26986457513576023
-1.0322682227197757
-0.2567593104139925
-0.26986457513576023
-1.031963382442893
-0.2530610807324489
-0.2699295522498018
-1.031963382442893
-0.2530610807324489
-0.2699295522498018
-1.031963382442893
-0.2530610807324489
-0.2699295522498018
-1.031963382442893
-0.2530610807324489
-0.2699295522498018
-1.0292236040202882
-0.25318793687236585
-0.2694152746025027
-1.0292236040202882
-0.25318793687236585
-0.2694152746025027
-1.0292236040202882
-0.25318793687236585
-0.2694152746025027
-1.0292236040202882
-0.25318793687236585
-0.2694152746025027
-1.0281369429915925
-0.25396030519670326
-0.2674647436059992
-1.0281369429915925
-0.25396030519670326
-0.2674647436059992
-1.0281369429915925
-0.25396030519670326
-0.2674647436059992
-1.0281369429915925
-0.25396030519670326
-0.2674647436059992
-1.0287185663879281
-0.2515255759177395
-0.26475025236558203
-1.0287185663879281
-0.2515255759177395
-0.26475025236558203
-1.0287185663879281
-0.2515255759177395
-0.26475025236558203
-1.0287185663879281
-0.2515255759177395
-0.26475025236558203
-1.0250514385009222
-0.2511669814670649
-0.2636987438997787
-1.0250514385009222
-0.2511669814670649
-0.2636987438997787
-1.0250514385009222
-0.2511669814670649
-0.2636987438997787
-1.0250514385009222
-0.2511669814670649
-0.2636987438997787
-1.0211696811655462
-0.25410519298794115
-0.26330083695046513
-1.0211696811655462
-0.25410519298794115
-0.26330083695046513
-1.0211696811655462
-0.25410519298794115
-0.26330083695046513
-1.0211696811655462
-0.25410519298794115
-0.26330083695046513
-1.0201805947923785
-0.2566273403710958
-0.26239554884592586
-1.0201805947923785
-0.2566273403710958
-0.26239554884592586
-1.0201805947923785
-0.2566273403710958
-0.26239554884592586
-1.0201805947923785
-0.2566273403710958
-0.26239554884592586
-1.0210459696670051
-0.2546783455128288
-0.26139602366504033
-1.0210459696670051
-0.2546783455128288
-0.26139602366504033
-1.0210459696670051
-0.2546783455128288
-0.26139602366504033
-1.0210459696670051
-0.2546783455128288
-0.26139602366504033
-1.0186397331935997
-0.2532641918234005
-0.26074301619670076
-1.0186397331935997
-0.2532641918234005
-0.26074301619670076
-1.0186397331935997
-0.2532641918234005
-0.26074301619670076
-1.0186397331935997
-0.2532641918234005
-0.26074301619670076
-1.014780777915356
-0.25517834437301395
-0.2607680606503847
-1.014780777915356
-0.25517834437301395
-0.2607680606503847
-1.014780777915356
-0.25517834437301395
-0.2607680606503847
-1.014780777915356
-0.25517834437301395
-0.2607680606503847
-1.0161555232880588
-0.2565321797583767
-0.25994464910438325
-1.0161555232880588
-0.2565321797583767
-0.25994464910438325
-1.0161555232880588
-0.2565321797583767
-0.25994464910438325
-1.0161555232880588
-0.2565321797583767
-0.25994464910438325
-1.0197546239802828
-0.2548924625738485
-0.2595020369557399
-1.0197546239802828
-0.2548924625738485
-0.2595020369557399
-1.0197546239802828
-0.2548924625738485
-0.2595020369557399
-1.0197546239802828
-0.2548924625738485
-0.2595020369557399
-1.0191962596362052
-0.25261881926352736
-0.260905518021353
-1.0191962596362052
-0.25261881926352736
-0.260905518021353
-1.0191962596362052
-0.25261881926352736
-0.260905518021353
-1.0191962596362052
-0.25261881926352736
-0.260905518021353
-1.0154840237536487
-0.2512289387635371
-0.26273482083102606
-1.0154840237536487
-0.2512289387635371
-0.26273482083102606
-1.0154840237536487
-0.2512289387635371
-0.26273482083102606
-1.0154840237536487
-0.2512289387635371
-0.26273482083102606
-1.0139146177544942
-0.25233046233420015
-0.2635001130775747
-1.0139146177544942
-0.25233046233420015
-0.2635001130775747
-1.0139146177544942
-0.25233046233420015
-0.2635001130775747
-1.0139146177544942
-0.25233046233420015
-0.2635001130775747
-1.012164570373942
-0.25243594399007335
-0.26455142460255815
-1.012164570373942
-0.25243594399007335
-0.26455142460255815
-1.012164570373942
-0.25243594399007335
-0.26455142460255815
-1.012164570373942
-0.25243594399007335
-0.26455142460255815
-1.0079663348835368
-0.2503805162624233
-0.26788906626022324
-1.0079663348835368
-0.2503805162624233
-0.26788906626022324
-1.0079663348835368
-0.2503805162624233
-0.26788906626022324
-1.0079663348835368
-0.2503805162624233
-0.26788906626022324
-1.005736487180031
-0.24927633462151513
-0.2714696047760082
-1.005736487180031
-0.24927633462151513
-0.2714696047760082
-1.005736487180031
-0.24927633462151513
-0.2714696047760082
-1.005736487180031
-0.24927633462151513
-0.2714696047760082
-1.0061308821741974
-0.2486048378948552
-0.2716419102998762
-1.0061308821741974
-0.2486048378948552
-0.2716419102998762
-1.0061308821741974
-0.2486048378948552
-0.2716419102998762
-1.0061308821741974
-0.2486048378948552
-0.2716419102998762
-1.0075429931720328
-0.2458749704454779
-0.2707670539763251
-1.0075429931720328
-0.2458749704454779
-0.2707670539763251
-1.0075429931720328
-0.2458749704454779
-0.2707670539763251
-1.0075429931720328
-0.2458749704454779
-0.2707670539763251
-1.0054136668573281
-0.2443674583288393
-0.2721027848908353
-1.0054136668573281
-0.2443674583288393
-0.2721027848908353
-1.0054136668573281
-0.2443674583288393
-0.2721027848908353
-1.0054136668573281
-0.2443674583288393
-0.2721027848908353
-1.0028250913965135
-0.24519885001183564
-0.2737748110134316
-1.0028250913965135
-0.24519885001183564
-0.2737748110134316
-1.0028250913965135
-0.24519885001183564
-0.2737748110134316
-1.0028250913965135
-0.24519885001183564
-0.2737748110134316
-1.0033653017832433
-0.2444074773979137
-0.2739099627452107
-1.0033653017832433
-0.2444074773979137
-0.2739099627452107
-1.0033653017832433
-0.2444074773979137
-0.2739099627452107
-1.0033653017832433
-0.2444074773979137
-0.2739099627452107
-1.002334629185295
-0.24269245061731612
-0.27372855332531476
-1.002334629185295
-0.24269245061731612
-0.27372855332531476
-1.002334629185295
-0.24269245061731612
-0.27372855332531476
-1.002334629185295
-0.24269245061731612
-0.27372855332531476
-0.9999689231508999
-0.24105564257026593
-0.27442035498741263
-0.9999689231508999
-0.24105564257026593
-0.27442035498741263
-0.9999689231508999
-0.24105564257026593
-0.27442035498741263
-0.9999689231508999
-0.24105564257026593
-0.27442035498741263
-0.998541433385188
-0.2399303296225747
-0.27366932321290677
-0.998541433385188
-0.2399303296225747
-0.27366932321290677
-0.998541433385188
-0.2399303296225747
-0.27366932321290677
-0.998541433385188
-0.2399303296225747
-0.27366932321290677
-0.9985157194626468
-0.23987577461233983
-0.27156564823885654
-0.9985157194626468
-0.23987577461233983
-0.27156564823885654
-0.9985157194626468
-0.23987577461233983
-0.27156564823885654
-0.9985157194626468
-0.23987577461233983
-0.27156564823885654
-0.9967063809979998
-0.23968021332000244
-0.27060836549029105
-0.9967063809979998
-0.23968021332000244
-0.27060836549029105
-0.9967063809979998
-0.23968021332000244
-0.27060836549029105
-0.9967063809979998
-0.23968021332000244
-0.27060836549029105
-0.9979018611698489
-0.23936371335323242
-0.27213300880954955
-0.9979018611698489
-0.23936371335323242
-0.27213300880954955
-0.9979018611698489
-0.23936371335323242
-0.27213300880954955
-0.9979018611698489
-0.23936371335323242
-0.27213300880954955
-1.0020763600354725
-0.23772877730560726
-0.27497580016522954
-1.0020763600354725
-0.23772877730560726
-0.27497580016522954
-1.0020763600354725
-0.23772877730560726
-0.27497580016522954
-1.0020763600354725
-0.23772877730560726
-0.27497580016522954
-1.002910027230846
-0.23630005087483988
-0.2781363603517552
-1.002910027230846
-0.23630005087483988
-0.2781363603517552
-1.002910027230846
-0.23630005087483988
-0.2781363603517552
-1.002910027230846
-0.23630005087483988
-0.2781363603517552
-1.0041682299238468
-0.23741022420357832
-0.2799123254907734
-1.0041682299238468
-0.23741022420357832
-0.2799123254907734
-1.0041682299238468
-0.23741022420357832
-0.2799123254907734
-1.0041682299238468
-0.23741022420357832
-0.2799123254907734
-1.005037352684958
-0.23698904173018673
-0.2800973492409262
-1.005037352684958
-0.23698904173018673
-0.2800973492409262
-1.005037352684958
-0.23698904173018673
-0.2800973492409262
-1.005037352684958
-0.23698904173018673
-0.2800973492409262
-1.0054597677922392
-0.2341271777007097
-0.27934283561383344
-1.0054597677922392
-0.2341271777007097
-0.27934283561383344
-1.0054597677922392
-0.2341271777007097
-0.27934283561383344
-1.0054597677922392
-0.2341271777007097
-0.27934283561383344
-1.003917988907973
-0.23371923855366147
-0.2781785034268034
-1.003917988907973
-0.23371923855366147
-0.2781785034268034
-1.003917988907973
-0.23371923855366147
-0.2781785034268034
-1.003917988907973
-0.23371923855366147
-0.2781785034268034
-1.0012041514741854
-0.2359549795685049
-0.2783907739818888
-1.0012041514741854
-0.2359549795685049
-0.2783907739818888
-1.0012041514741854
-0.2359549795685049
-0.2783907739818888
-1.0012041514741854
-0.2359549795685049
-0.2783907739818888
-1.0026885636090006
-0.23543786926946594
-0.27817991776705914
-1.0026885636090006
-0.23543786926946594
-0.27817991776705914
-1.0026885636090006
-0.23543786926946594
-0.27817991776705914
-1.0026885636090006
-0.23543786926946594
-0.27817991776705914
-1.002306146973522
-0.23346355864203444
-0.2775453860109357
-1.002306146973522
-0.23346355864203444
-0.2775453860109357
-1.002306146973522
-0.23346355864203444
-0.2775453860109357
-1.002306146973522
-0.23346355864203444
-0.2775453860109357
-0.9995070584129796
-0.23211665796394967
-0.2753874369730981
-0.9995070584129796
-0.23211665796394967
-0.2753874369730981
-0.9995070584129796
-0.23211665796394967
-0.2753874369730981
-0.9995070584129796
-0.23211665796394967
-0.2753874369730981
-0.9948257702584168
-0.2324359572954309
-0.2731153601995298
-0.9948257702584168
-0.2324359572954309
-0.2731153601995298
-0.9948257702584168
-0.2324359572954309
-0.2731153601995298
-0.9948257702584168
-0.2324359572954309
-0.2731153601995298
-0.991923464960569
-0.23407295629699526
-0.2718063398620188
-0.991923464960569
-0.23407295629699526
-0.2718063398620188
-0.991923464960569
-0.23407295629699526
-0.2718063398620188
-0.991923464960569
-0.23407295629699526
-0.2718063398620188
-0.9914118230675321
-0.23504844432362623
-0.27173357435392786
-0.9914118230675321
-0.23504844432362623
-0.27173357435392786
-0.9914118230675321
-0.23504844432362623
-0.27173357435392786
-0.9914118230675321
-0.23504844432362623
-0.27173357435392786
-0.9855338860302784
-0.23514547918707618
-0.27251129799579615
-0.9855338860302784
-0.23514547918707618
-0.27251129799579615
-0.9855338860302784
-0.23514547918707618
-0.27251129799579615
-0.9855338860302784
-0.23514547918707618
-0.27251129799579615
-0.9821530087377586
-0.23672617789152747
-0.27254787527670016
-0.9821530087377586
-0.23672617789152747
-0.27254787527670016
-0.9821530087377586
-0.23672617789152747
-0.27254787527670016
-0.9821530087377586
-0.23672617789152747
-0.27254787527670016
-0.9831864716659202
-0.238253312650599
-0.27241218850830157
-0.9831864716659202
-0.238253312650599
-0.27241218850830157
-0.9831864716659202
-0.238253312650599
-0.27241218850830157
-0.9831864716659202
-0.238253312650599
-0.27241218850830157
-0.9837128192353417
-0.2386440008465083
-0.2731856090556828
-0.9837128192353417
-0.2386440008465083
-0.2731856090556828
-0.9837128192353417
-0.2386440008465083
-0.2731856090556828
-0.9837128192353417
-0.2386440008465083
-0.2731856090556828
-0.9845628817324378
-0.23932268921316188
-0.2746273733119632
-0.9845628817324378
-0.23932268921316188
-0.2746273733119632
-0.9845628817324378
-0.23932268921316188
-0.2746273733119632
-0.9845628817324378
-0.23932268921316188
-0.2746273733119632
-0.9878876203841994
-0.24015226626070607
-0.2751740259691129
-0.9878876203841994
-0.24015226626070607
-0.2751740259691129
-0.9878876203841994
-0.24015226626070607
-0.2751740259691129
-0.9878876203841994
-0.24015226626070607
-0.2751740259691129
-0.9925122805832971
-0.23925484871477182
-0.2751508549909639
-0.9925122805832971
-0.23925484871477182
-0.2751508549909639
-0.9925122805832971
-0.23925484871477182
-0.2751508549909639
-0.9925122805832971
-0.23925484871477182
-0.2751508549909639
-0.9955943522444056
-0.23939700845224218
-0.2800813919835588
-0.9955943522444056
-0.23939700845224218
-0.2800813919835588
-0.9955943522444056
-0.23939700845224218
-0.2800813919835588
-0.9955943522444056
-0.23939700845224218
-0.2800813919835588
-0.9959973101763607
-0.24059031150258703
-0.2881307787583816
-0.9959973101763607
-0.24059031150258703
-0.2881307787583816
-0.9959973101763607
-0.24059031150258703
-0.2881307787583816
-0.9959973101763607
-0.24059031150258703
-0.2881307787583816
-0.9958374026138436
-0.23719083148798922
-0.2883747117693297
-0.9958374026138436
-0.23719083148798922
-0.2883747117693297
-0.9958374026138436
-0.23719083148798922
-0.2883747117693297
-0.9958374026138436
-0.23719083148798922
-0.2883747117693297
-0.9928736160350707
-0.23478182548132417
-0.28564028553926357
-0.9928736160350707
-0.23478182548132417
-0.28564028553926357
-0.9928736160350707
-0.23478182548132417
-0.28564028553926357
-0.9928736160350707
-0.23478182548132417
-0.28564028553926357
-0.9927562111033321
-0.23917129834588227
-0.28375260083954595
-0.9927562111033321
-0.23917129834588227
-0.28375260083954595
-0.9927562111033321
-0.23917129834588227
-0.28375260083954595
-0.9927562111033321
-0.23917129834588227
-0.28375260083954595
-0.9939990048490561
-0.24417424995046624
-0.28474350464064563
-0.9939990048490561
-0.24417424995046624
-0.28474350464064563
-0.9939990048490561
-0.24417424995046624
-0.28474350464064563
-0.9939990048490561
-0.24417424995046624
-0.28474350464064563
-0.9970053860281175
-0.2409282918423174
-0.2833281421935165
-0.9970053860281175
-0.2409282918423174
-0.2833281421935165
-0.9970053860281175
-0.2409282918423174
-0.2833281421935165
-0.9970053860281175
-0.2409282918423174
-0.2833281421935165
-0.9978138123073349
-0.23179059624287193
-0.28146082575587317
-0.9978138123073349
-0.23179059624287193
-0.28146082575587317
-0.9978138123073349
-0.23179059624287193
-0.28146082575587317
-0.9978138123073349
-0.23179059624287193
-0.28146082575587317
-0.997089526436354
-0.23229611488525437
-0.2813720371365408
-0.997089526436354
-0.23229611488525437
-0.2813720371365408
-0.997089526436354
-0.23229611488525437
-0.2813720371365408
-0.997089526436354
-0.23229611488525437
-0.2813720371365408
-0.9923866205976083
-0.2402251702021299
-0.28276648443382013
-0.9923866205976083
-0.2402251702021299
-0.28276648443382013
-0.9923866205976083
-0.2402251702021299
-0.28276648443382013
-0.9923866205976083
-0.2402251702021299
-0.28276648443382013
-0.9970294518741684
-0.24239849066626543
-0.2814220613981182
-0.9970294518741684
-0.24239849066626543
-0.2814220613981182
-0.9970294518741684
-0.24239849066626543
-0.2814220613981182
-0.9970294518741684
-0.24239849066626543
-0.2814220613981182
-1.0011018233463376
-0.2354140685553132
-0.2779640152010478
-1.0011018233463376
-0.2354140685553132
-0.2779640152010478
-1.0011018233463376
-0.2354140685553132
-0.2779640152010478
-1.0011018233463376
-0.2354140685553132
-0.2779640152010478
-1.0018769729642787
-0.2319316189092131
-0.2752188864517554
-1.0018769729642787
-0.2319316189092131
-0.2752188864517554
-1.0018769729642787
-0.2319316189092131
-0.2752188864517554
-1.0018769729642787
-0.2319316189092131
-0.2752188864517554
-1.00140309107772
-0.23656416183986595
-0.2748978134987208
-1.00140309107772
-0.23656416183986595
-0.2748978134987208
-1.00140309107772
-0.23656416183986595
-0.2748978134987208
-1.00140309107772
-0.23656416183986595
-0.2748978134987208
-1.0031184184831652
-0.24073487063247428
-0.27545928606332387
-1.0031184184831652
-0.24073487063247428
-0.27545928606332387
-1.0031184184831652
-0.24073487063247428
-0.27545928606332387
-1.0031184184831652
-0.24073487063247428
-0.27545928606332387
-1.0065102847696912
-0.23788453248974972
-0.2744081176683395
-1.0065102847696912
-0.23788453248974972
-0.2744081176683395
-1.0065102847696912
-0.23788453248974972
-0.2744081176683395
-1.0065102847696912
-0.23788453248974972
-0.2744081176683395
-1.0064072244834856
-0.232477917760382
-0.2723192997001607
-1.0064072244834856
-0.232477917760382
-0.2723192997001607
-1.0064072244834856
-0.232477917760382
-0.2723192997001607
-1.0064072244834856
-0.232477917760382
-0.2723192997001607
-1.0061948304305086
-0.23336328441901805
-0.26971802589915994
-1.0061948304305086
-0.23336328441901805
-0.26971802589915994
-1.0061948304305086
-0.23336328441901805
-0.26971802589915994
-1.0061948304305086
-0.23336328441901805
-0.26971802589915994
-1.0057161435997504
-0.23981833872320496
-0.26939124984364154
-1.0057161435997504
-0.23981833872320496
-0.26939124984364154
-1.0057161435997504
-0.23981833872320496
-0.26939124984364154
-1.0057161435997504
-0.23981833872320496
-0.26939124984364154
-1.0072064537449277
-0.2391881836759494
-0.2692369648081527
-1.0072064537449277
-0.2391881836759494
-0.2692369648081527
-1.0072064537449277
-0.2391881836759494
-0.2692369648081527
-1.0072064537449277
-0.2391881836759494
-0.2692369648081527
-1.007772318906819
-0.23693533863425467
-0.2692771086775913
-1.007772318906819
-0.23693533863425467
-0.2692771086775913
-1.007772318906819
-0.23693533863425467
-0.2692771086775913
-1.007772318906819
-0.23693533863425467
-0.2692771086775913
-1.0066420265768794
-0.2370305190452328
-0.26884788297070167
-1.0066420265768794
-0.2370305190452328
-0.26884788297070167
-1.0066420265768794
-0.2370305190452328
-0.26884788297070167
-1.0066420265768794
-0.2370305190452328
-0.26884788297070167
-1.0048486717443124
-0.24287972595354557
-0.2686506053921009
-1.0048486717443124
-0.24287972595354557
-0.2686506053921009
-1.0048486717443124
-0.24287972595354557
-0.2686506053921009
-1.0048486717443124
-0.24287972595354557
-0.2686506053921009
-1.0063842442172712
-0.24929159716704202
-0.26926974001411524
-1.0063842442172712
-0.24929159716704202
-0.26926974001411524
-1.0063842442172712
-0.24929159716704202
-0.26926974001411524
-1.0063842442172712
-0.24929159716704202
-0.26926974001411524
-1.0084166079688628
-0.2490269670380422
-0.2693135590943684
-1.0084166079688628
-0.2490269670380422
-0.2693135590943684
-1.0084166079688628
-0.2490269670380422
-0.2693135590943684
-1.0084166079688628
-0.2490269670380422
-0.2693135590943684
-1.0086053124516736
-0.2488315640434023
-0.2684025650845926
-1.0086053124516736
-0.2488315640434023
-0.2684025650845926
-1.0086053124516736
-0.2488315640434023
-0.2684025650845926
-1.0086053124516736
-0.2488315640434023
-0.2684025650845926
-1.0064965143353062
-0.25580783615964636
-0.26733207129170894
-1.0064965143353062
-0.25580783615964636
-0.26733207129170894
-1.0064965143353062
-0.25580783615964636
-0.26733207129170894
-1.0064965143353062
-0.25580783615964636
-0.26733207129170894
-1.0081235235348982
-0.26069256002420316
-0.2661868790962367
-1.0081235235348982
-0.26069256002420316
-0.2661868790962367
-1.0081235235348982
-0.26069256002420316
-0.2661868790962367
-1.0081235235348982
-0.26069256002420316
-0.2661868790962367
-1.0117868791495197
-0.25778735956783805
-0.26569118577357953
-1.0117868791495197
-0.25778735956783805
-0.26569118577357953
-1.0117868791495197
-0.25778735956783805
-0.26569118577357953
-1.0117868791495197
-0.25778735956783805
-0.26569118577357953
-1.0116282620847814
-0.25667840371301043
-0.26628221710209204
-1.0116282620847814
-0.25667840371301043
-0.26628221710209204
-1.0116282620847814
-0.25667840371301043
-0.26628221710209204
-1.0116282620847814
-0.25667840371301043
-0.26628221710209204
-1.0110685149444198
-0.259539884132718
-0.26606761838938686
-1.0110685149444198
-0.259539884132718
-0.26606761838938686
-1.0110685149444198
-0.259539884132718
-0.26606761838938686
-1.0110685149444198
-0.259539884132718
-0.26606761838938686
-1.012488729724793
-0.26104745133167295
-0.26474016063703193
-1.012488729724793
-0.26104745133167295
-0.26474016063703193
-1.012488729724793
-0.26104745133167295
-0.26474016063703193
-1.012488729724793
-0.26104745133167295
-0.26474016063703193
-1.0123933633187832
-0.2603985576657182
-0.26437598035565274
-1.0123933633187832
-0.2603985576657182
-0.26437598035565274
-1.0123933633187832
-0.2603985576657182
-0.26437598035565274
-1.0123933633187832
-0.2603985576657182
-0.26437598035565274
-1.0102787142120402
-0.25917775412926614
-0.2647216434792063
-1.0102787142120402
-0.25917775412926614
-0.2647216434792063
-1.0102787142120402
-0.25917775412926614
-0.2647216434792063
-1.0102787142120402
-0.25917775412926614
-0.2647216434792063
-1.009475863397297
-0.25848290178207906
-0.2642794947208206
-1.009475863397297
-0.25848290178207906
-0.2642794947208206
-1.009475863397297
-0.25848290178207906
-0.2642794947208206
-1.009475863397297
-0.25848290178207906
-0.2642794947208206
-1.0093370081634376
-0.2591846382639001
-0.26333290921551317
-1.0093370081634376
-0.2591846382639001
-0.26333290921551317
-1.0093370081634376
-0.2591846382639001
-0.26333290921551317
-1.0093370081634376
-0.2591846382639001
-0.26333290921551317
-1.0080162348882846
-0.25841623432618316
-0.2626880942176634
-1.0080162348882846
-0.25841623432618316
-0.2626880942176634
-1.0080162348882846
-0.25841623432618316
-0.2626880942176634
-1.0080162348882846
-0.25841623432618316
-0.2626880942176634
-1.0040315640657747
-0.25802981854494444
-0.26468771489529663
-1.0040315640657747
-0.25802981854494444
-0.26468771489529663
-1.0040315640657747
-0.25802981854494444
-0.26468771489529663
-1.0040315640657747
-0.25802981854494444
-0.26468771489529663
-1.0043749487022569
-0.2588373369498326
-0.2682492147500797
-1.0043749487022569
-0.2588373369498326
-0.2682492147500797
-1.0043749487022569
-0.2588373369498326
-0.2682492147500797
-1.0043749487022569
-0.2588373369498326
-0.2682492147500797
-1.0088178280186166
-0.2606410047663467
-0.2713269003856591
-1.0088178280186166
-0.2606410047663467
-0.2713269003856591
-1.0088178280186166
-0.2606410047663467
-0.2713269003856591
-1.0088178280186166
-0.2606410047663467
-0.2713269003856591
-1.011264217991927
-0.2611234386200434
-0.273517858156267
-1.011264217991927
-0.2611234386200434
-0.273517858156267
-1.011264217991927
-0.2611234386200434
-0.273517858156267
-1.011264217991927
-0.2611234386200434
-0.273517858156267
-1.0109204725534655
-0.25888406607787956
-0.2741647222346812
-1.0109204725534655
-0.25888406607787956
-0.2741647222346812
-1.0109204725534655
-0.25888406607787956
-0.2741647222346812
-1.0109204725534655
-0.25888406607787956
-0.2741647222346812
-1.0098369696675675
-0.25483597291474663
-0.2751143470047908
-1.0098369696675675
-0.25483597291474663
-0.2751143470047908
-1.0098369696675675
-0.25483597291474663
-0.2751143470047908
-1.0098369696675675
-0.25483597291474663
-0.2751143470047908
-1.0096115148904172
-0.25048226816338787
-0.27719400718144316
-1.0096115148904172
-0.25048226816338787
-0.27719400718144316
-1.0096115148904172
-0.25048226816338787
-0.27719400718144316
-1.0096115148904172
-0.25048226816338787
-0.27719400718144316
-1.0091444803725709
-0.24717097549203965
-0.27971779466775326
-1.0091444803725709
-0.24717097549203965
-0.27971779466775326
-1.0091444803725709
-0.24717097549203965
-0.27971779466775326
-1.0091444803725709
-0.24717097549203965
-0.27971779466775326
-1.0083702225180344
-0.24363478517842962
-0.28095484894427075
-1.0083702225180344
-0.24363478517842962
-0.28095484894427075
-1.0083702225180344
-0.24363478517842962
-0.28095484894427075
-1.0083702225180344
-0.24363478517842962
-0.28095484894427075
-1.0025877972683828
-0.23932348123500696
-0.2826583981606362
-1.0025877972683828
-0.23932348123500696
-0.2826583981606362
-1.0025877972683828
-0.23932348123500696
-0.2826583981606362
-1.0025877972683828
-0.23932348123500696
-0.2826583981606362
-0.9988873324080147
-0.23342687590838226
-0.2832525689823713
-0.9988873324080147
-0.23342687590838226
-0.2832525689823713
-0.9988873324080147
-0.23342687590838226
-0.2832525689823713
-0.9988873324080147
-0.23342687590838226
-0.2832525689823713
-0.9963575837882803
-0.22513863083259308
-0.28236653537595935
-0.9963575837882803
-0.22513863083259308
-0.28236653537595935
-0.9963575837882803
-0.22513863083259308
-0.28236653537595935
-0.9963575837882803
-0.22513863083259308
-0.28236653537595935
-0.9911781667123886
-0.21819870481071774
-0.2820781825164324
-0.9911781667123886
-0.21819870481071774
-0.2820781825164324
-0.9911781667123886
-0.21819870481071774
-0.2820781825164324
-0.9911781667123886
-0.21819870481071774
-0.2820781825164324
-0.988344032856159
-0.21386155168258617
-0.2820711763319757
-0.988344032856159
-0.21386155168258617
-0.2820711763319757
-0.988344032856159
-0.21386155168258617
-0.2820711763319757
-0.988344032856159
-0.21386155168258617
-0.2820711763319757
-0.9839469438038371
-0.2114160778964002
-0.28276785172446767
-0.9839469438038371
-0.2114160778964002
-0.28276785172446767
-0.9839469438038371
-0.2114160778964002
-0.28276785172446767
-0.9839469438038371
-0.2114160778964002
-0.28276785172446767
-0.9831389499044545
-0.2081419514312932
-0.28268133928698097
-0.9831389499044545
-0.2081419514312932
-0.28268133928698097
-0.9831389499044545
-0.2081419514312932
-0.28268133928698097
-0.9831389499044545
-0.2081419514312932
-0.28268133928698097
-0.9823950906234044
-0.2038059592572342
-0.28113956606674123
-0.9823950906234044
-0.2038059592572342
-0.28113956606674123
-0.9823950906234044
-0.2038059592572342
-0.28113956606674123
-0.9823950906234044
-0.2038059592572342
-0.28113956606674123
-0.9803679357758329
-0.19853400886906597
-0.27985763912657724
-0.9803679357758329
-0.19853400886906597
-0.27985763912657724
-0.9803679357758329
-0.19853400886906597
-0.27985763912657724
-0.9803679357758329
-0.19853400886906597
-0.27985763912657724
-0.9766689739337977
-0.19412111180105127
-0.2797074239177515
-0.9766689739337977
-0.19412111180105127
-0.2797074239177515
-0.9766689739337977
-0.19412111180105127
-0.2797074239177515
-0.9766689739337977
-0.19412111180105127
-0.2797074239177515
-0.9731272607136925
-0.19390284243063655
-0.2787539768461312
-0.9731272607136925
-0.19390284243063655
-0.2787539768461312
-0.9731272607136925
-0.19390284243063655
-0.2787539768461312
-0.9731272607136925
-0.19390284243063655
-0.2787539768461312
-0.9703044202096787
-0.1976246503492418
-0.2791727593665626
-0.9703044202096787
-0.1976246503492418
-0.2791727593665626
-0.9703044202096787
-0.1976246503492418
-0.2791727593665626
-0.9703044202096787
-0.1976246503492418
-0.2791727593665626
-0.9660325083420056
-0.20053240749760343
-0.2801681457280318
-0.9660325083420056
-0.20053240749760343
-0.2801681457280318
-0.9660325083420056
-0.20053240749760343
-0.2801681457280318
-0.9660325083420056
-0.20053240749760343
-0.2801681457280318
-0.9613426133861687
-0.20231893043409202
-0.2807879119487541
-0.9613426133861687
-0.20231893043409202
-0.2807879119487541
-0.9613426133861687
-0.20231893043409202
-0.2807879119487541
-0.9613426133861687
-0.20231893043409202
-0.2807879119487541
-0.9569972737067535
-0.20517418704054588
-0.2820013428525687
-0.9569972737067535
-0.20517418704054588
-0.2820013428525687
-0.9569972737067535
-0.20517418704054588
-0.2820013428525687
-0.9569972737067535
-0.20517418704054588
-0.2820013428525687
-0.9538870857316019
-0.20784462834966794
-0.28269723841640076
-0.9538870857316019
-0.20784462834966794
-0.28269723841640076
-0.9538870857316019
-0.20784462834966794
-0.28269723841640076
-0.9538870857316019
-0.20784462834966794
-0.28269723841640076
-0.9524153182799501
-0.2088390590952829
-0.2838087485032399
-0.9524153182799501
-0.2088390590952829
-0.2838087485032399
-0.9524153182799501
-0.2088390590952829
-0.2838087485032399
-0.9524153182799501
-0.2088390590952829
-0.2838087485032399
-0.951069864101598
-0.209375156144836
-0.28427717565968946
-0.951069864101598
-0.209375156144836
-0.28427717565968946
-0.951069864101598
-0.209375156144836
-0.28427717565968946
-0.951069864101598
-0.209375156144836
-0.28427717565968946
-0.9488857952156182
-0.2095961935037266
-0.2857774714637419
-0.9488857952156182
-0.2095961935037266
-0.2857774714637419
-0.9488857952156182
-0.2095961935037266
-0.2857774714637419
-0.9488857952156182
-0.2095961935037266
-0.2857774714637419
-0.9474408315166492
-0.20961319075827048
-0.28793242945446085
-0.9474408315166492
-0.20961319075827048
-0.28793242945446085
-0.9474408315166492
-0.20961319075827048
-0.28793242945446085
-0.9474408315166492
-0.20961319075827048
-0.28793242945446085
-0.9481340151640495
-0.21009824633632082
-0.2901834821373048
-0.9481340151640495
-0.21009824633632082
-0.2901834821373048
-0.9481340151640495
-0.21009824633632082
-0.2901834821373048
-0.9481340151640495
-0.21009824633632082
-0.2901834821373048
-0.9514923991037518
-0.2100978934972677
-0.29206591794399694
-0.9514923991037518
-0.2100978934972677
-0.29206591794399694
-0.9514923991037518
-0.2100978934972677
-0.29206591794399694
-0.9514923991037518
-0.2100978934972677
-0.29206591794399694
-0.9534780434441351
-0.21003967514688834
-0.2938363556645208
-0.9534780434441351
-0.21003967514688834
-0.2938363556645208
-0.9534780434441351
-0.21003967514688834
-0.2938363556645208
-0.9534780434441351
-0.21003967514688834
-0.2938363556645208
-0.9526781618384917
-0.2093109615845271
-0.2956455771652732
-0.9526781618384917
-0.2093109615845271
-0.2956455771652732
-0.9526781618384917
-0.2093109615845271
-0.2956455771652732
-0.9526781618384917
-0.2093109615845271
-0.2956455771652732
-0.9524479055707106
-0.20835570138149884
-0.29655044041963474
-0.9524479055707106
-0.20835570138149884
-0.29655044041963474
-0.9524479055707106
-0.20835570138149884
-0.29655044041963474
-0.9524479055707106
-0.20835570138149884
-0.29655044041963474
-0.951437285159379
-0.20731835778544905
-0.29654386710072833
-0.951437285159379
-0.20731835778544905
-0.29654386710072833
-0.951437285159379
-0.20731835778544905
-0.29654386710072833
-0.951437285159379
-0.20731835778544905
-0.29654386710072833
-0.9485729183181195
-0.2066054987748438
-0.2962822750663589
-0.9485729183181195
-0.2066054987748438
-0.2962822750663589
-0.9485729183181195
-0.2066054987748438
-0.2962822750663589
-0.9485729183181195
-0.2066054987748438
-0.2962822750663589
-0.948028589662827
-0.20675922111412037
-0.2965162646493989
-0.948028589662827
-0.20675922111412037
-0.2965162646493989
-0.948028589662827
-0.20675922111412037
-0.2965162646493989
-0.948028589662827
-0.20675922111412037
-0.2965162646493989
-0.9481386311615563
-0.20676949113311704
-0.2964965722236639
-0.9481386311615563
-0.20676949113311704
-0.2964965722236639
-0.9481386311615563
-0.20676949113311704
-0.2964965722236639
-0.9481386311615563
-0.20676949113311704
-0.2964965722236639
-0.9468579205130818
-0.20694224621304536
-0.2957348313835073
-0.9468579205130818
-0.20694224621304536
-0.2957348313835073
-0.9468579205130818
-0.20694224621304536
-0.2957348313835073
-0.9468579205130818
-0.20694224621304536
-0.2957348313835073
-0.9455905395154581
-0.20979171204232142
-0.2926749793354828
-0.9455905395154581
-0.20979171204232142
-0.2926749793354828
-0.9455905395154581
-0.20979171204232142
-0.2926749793354828
-0.9455905395154581
-0.20979171204232142
-0.2926749793354828
-0.9487982120322201
-0.21202635237719497
-0.2901787883707951
-0.9487982120322201
-0.21202635237719497
-0.2901787883707951
-0.9487982120322201
-0.21202635237719497
-0.2901787883707951
-0.9487982120322201
-0.21202635237719497
-0.2901787883707951
-0.952854786241864
-0.212960248782961
-0.2883146343835539
-0.952854786241864
-0.212960248782961
-0.2883146343835539
-0.952854786241864
-0.212960248782961
-0.2883146343835539
-0.952854786241864
-0.212960248782961
-0.2883146343835539
-0.9550481458203337
-0.21312596125995065
-0.28885433208411265
-0.9550481458203337
-0.21312596125995065
-0.28885433208411265
-0.9550481458203337
-0.21312596125995065
-0.28885433208411265
-0.9550481458203337
-0.21312596125995065
-0.28885433208411265
-0.9525500800299799
-0.21292084855044327
-0.2886193405954379
-0.9525500800299799
-0.21292084855044327
-0.2886193405954379
-0.9525500800299799
-0.21292084855044327
-0.2886193405954379
-0.9525500800299799
-0.21292084855044327
-0.2886193405954379
-0.9505277392721113
-0.2137265673912987
-0.28828275150364285
-0.9505277392721113
-0.2137265673912987
-0.28828275150364285
-0.9505277392721113
-0.2137265673912987
-0.28828275150364285
-0.9505277392721113
-0.2137265673912987
-0.28828275150364285
-0.9521139854639696
-0.21510730957969265
-0.28767647472814944
-0.9521139854639696
-0.21510730957969265
-0.28767647472814944
-0.9521139854639696
-0.21510730957969265
-0.28767647472814944
-0.9521139854639696
-0.21510730957969265
-0.28767647472814944
-0.9535657096140875
-0.216135388102803
-0.2872422977722815
-0.9535657096140875
-0.216135388102803
-0.2872422977722815
-0.9535657096140875
-0.216135388102803
-0.2872422977722815
-0.9535657096140875
-0.216135388102803
-0.2872422977722815
-0.9531163890189411
-0.21675108114388325
-0.28752419409512475
-0.9531163890189411
-0.21675108114388325
-0.28752419409512475
-0.9531163890189411
-0.21675108114388325
-0.28752419409512475
-0.9531163890189411
-0.21675108114388325
-0.28752419409512475
-0.9518023045736472
-0.2169441816702308
-0.2876025122212106
-0.9518023045736472
-0.2169441816702308
-0.2876025122212106
-0.9518023045736472
-0.2169441816702308
-0.2876025122212106
-0.9518023045736472
-0.2169441816702308
-0.2876025122212106
-0.9516436886376458
-0.21747285483484036
-0.2873495017964357
-0.9516436886376458
-0.21747285483484036
-0.2873495017964357
-0.9516436886376458
-0.21747285483484036
-0.2873495017964357
-0.9516436886376458
-0.21747285483484036
-0.2873495017964357
-0.9523582586361856
-0.21911356564247572
-0.2867774045582066
-0.9523582586361856
-0.21911356564247572
-0.2867774045582066
-0.9523582586361856
-0.21911356564247572
-0.2867774045582066
-0.9523582586361856
-0.21911356564247572
-0.2867774045582066
-0.9524338477683733
-0.2217358387776848
-0.2867289130691218
-0.9524338477683733
-0.2217358387776848
-0.2867289130691218
-0.9524338477683733
-0.2217358387776848
-0.2867289130691218
-0.9524338477683733
-0.2217358387776848
-0.2867289130691218
-0.9507806369796462
-0.2239990730754982
-0.2871895992258862
-0.9507806369796462
-0.2239990730754982
-0.2871895992258862
-0.9507806369796462
-0.2239990730754982
-0.2871895992258862
-0.9507806369796462
-0.2239990730754982
-0.2871895992258862
-0.9483214495279251
-0.22625507011166693
-0.28741956566847254
-0.9483214495279251
-0.22625507011166693
-0.28741956566847254
-0.9483214495279251
-0.22625507011166693
-0.28741956566847254
-0.9483214495279251
-0.22625507011166693
-0.28741956566847254
-0.94759886052801
-0.2278634301417341
-0.28733787729697624
-0.94759886052801
-0.2278634301417341
-0.28733787729697624
-0.94759886052801
-0.2278634301417341
-0.28733787729697624
-0.94759886052801
-0.2278634301417341
-0.28733787729697624
-0.9482394952235067
-0.2287405205118917
-0.28744218477179717
-0.9482394952235067
-0.2287405205118917
-0.28744218477179717
-0.9482394952235067
-0.2287405205118917
-0.28744218477179717
-0.9482394952235067
-0.2287405205118917
-0.28744218477179717
-0.949852769205373
-0.2290592323143052
-0.28848127166028664
-0.949852769205373
-0.2290592323143052
-0.28848127166028664
-0.949852769205373
-0.2290592323143052
-0.28848127166028664
-0.949852769205373
-0.2290592323143052
-0.28848127166028664
-0.949873174574469
-0.22944191626971094
-0.29025436205401234
-0.949873174574469
-0.22944191626971094
-0.29025436205401234
-0.949873174574469
-0.22944191626971094
-0.29025436205401234
-0.949873174574469
-0.22944191626971094
-0.29025436205401234
-0.9491320129049915
-0.22978230227978358
-0.29196889419997235
-0.9491320129049915
-0.22978230227978358
-0.29196889419997235
-0.9491320129049915
-0.22978230227978358
-0.29196889419997235
-0.9491320129049915
-0.22978230227978358
-0.29196889419997235
-0.9491305437283155
-0.23030790357744868
-0.29323780196471744
-0.9491305437283155
-0.23030790357744868
-0.29323780196471744
-0.9491305437283155
-0.23030790357744868
-0.29323780196471744
-0.9491305437283155
-0.23030790357744868
-0.29323780196471744
-0.9506318205658065
-0.2306221537379562
-0.29429685136047085
-0.9506318205658065
-0.2306221537379562
-0.29429685136047085
-0.9506318205658065
-0.2306221537379562
-0.29429685136047085
-0.9506318205658065
-0.2306221537379562
-0.29429685136047085
-0.9517513252412554
-0.23031277717980306
-0.29511130235323085
-0.9517513252412554
-0.23031277717980306
-0.29511130235323085
-0.9517513252412554
-0.23031277717980306
-0.29511130235323085
-0.9517513252412554
-0.23031277717980306
-0.29511130235323085
-0.9515205038520677
-0.2293391550878093
-0.29545972528610376
-0.9515205038520677
-0.2293391550878093
-0.29545972528610376
-0.9515205038520677
-0.2293391550878093
-0.29545972528610376
-0.9515205038520677
-0.2293391550878093
-0.29545972528610376
-0.9521736451170875
-0.22873893181338711
-0.29589750537993453
-0.9521736451170875
-0.22873893181338711
-0.29589750537993453
-0.9521736451170875
-0.22873893181338711
-0.29589750537993453
-0.9521736451170875
-0.22873893181338711
-0.29589750537993453
-0.9529300257462707
-0.22760741751741995
-0.29556705785473053
-0.9529300257462707
-0.22760741751741995
-0.29556705785473053
-0.9529300257462707
-0.22760741751741995
-0.29556705785473053
-0.9529300257462707
-0.22760741751741995
-0.29556705785473053
-0.9550963554520389
-0.2258781506359387
-0.29538175434586866
-0.9550963554520389
-0.2258781506359387
-0.29538175434586866
-0.9550963554520389
-0.2258781506359387
-0.29538175434586866
-0.9550963554520389
-0.2258781506359387
-0.29538175434586866
-0.9565021711333872
-0.22407351060356953
-0.29509945477048793
-0.9565021711333872
-0.22407351060356953
-0.29509945477048793
-0.9565021711333872
-0.22407351060356953
-0.29509945477048793
-0.9565021711333872
-0.22407351060356953
-0.29509945477048793
-0.9544342064054677
-0.2221074555623751
-0.29532651587705755
-0.9544342064054677
-0.2221074555623751
-0.29532651587705755
-0.9544342064054677
-0.2221074555623751
-0.29532651587705755
-0.9544342064054677
-0.2221074555623751
-0.29532651587705755
-0.9542798089967217
-0.21942189802805037
-0.29528528400649806
-0.9542798089967217
-0.21942189802805037
-0.29528528400649806
-0.9542798089967217
-0.21942189802805037
-0.29528528400649806
-0.9542798089967217
-0.21942189802805037
-0.29528528400649806
-0.9563990927189485
-0.21653417448597598
-0.2955586370736673
-0.9563990927189485
-0.21653417448597598
-0.2955586370736673
-0.9563990927189485
-0.21653417448597598
-0.2955586370736673
-0.9563990927189485
-0.21653417448597598
-0.2955586370736673
-0.966729479359537
-0.21614566217648623
-0.2955703276625261
-0.966729479359537
-0.21614566217648623
-0.2955703276625261
-0.966729479359537
-0.21614566217648623
-0.2955703276625261
-0.966729479359537
-0.21614566217648623
-0.2955703276625261
-0.9670810060834458
-0.21589373267222975
-0.294706225634604
-0.9670810060834458
-0.21589373267222975
-0.294706225634604
-0.9670810060834458
-0.21589373267222975
-0.294706225634604
-0.9670810060834458
-0.21589373267222975
-0.294706225634604
-0.9511147351625456
-0.21362831770083887
-0.29339307409047666
-0.9511147351625456
-0.21362831770083887
-0.29339307409047666
-0.9511147351625456
-0.21362831770083887
-0.29339307409047666
-0.9511147351625456
-0.21362831770083887
-0.29339307409047666
-0.9383743951714196
-0.21389555792220438
-0.2937859754055576
-0.9383743951714196
-0.21389555792220438
-0.2937859754055576
-0.9383743951714196
-0.21389555792220438
-0.2937859754055576
-0.9383743951714196
-0.21389555792220438
-0.2937859754055576
-0.942599791429082
-0.21684201086878668
-0.29330361813651756
-0.942599791429082
-0.21684201086878668
-0.29330361813651756
-0.942599791429082
-0.21684201086878668
-0.29330361813651756
-0.942599791429082
-0.21684201086878668
-0.29330361813651756
-0.9610895481723009
-0.22097926315101502
-0.28622086128024415
-0.9610895481723009
-0.22097926315101502
-0.28622086128024415
-0.9610895481723009
-0.22097926315101502
-0.28622086128024415
-0.9610895481723009
-0.22097926315101502
-0.28622086128024415
-0.9730945459643302
-0.2259058308572759
-0.27928186775233493
-0.9730945459643302
-0.2259058308572759
-0.27928186775233493
-0.9730945459643302
-0.2259058308572759
-0.27928186775233493
-0.9730945459643302
-0.2259058308572759
-0.27928186775233493
-0.9764776767918794
-0.22981750126431935
-0.27498359814754014
-0.9764776767918794
-0.22981750126431935
-0.27498359814754014
-0.9764776767918794
-0.22981750126431935
-0.27498359814754014
-0.9764776767918794
-0.22981750126431935
-0.27498359814754014
-0.9754909445458779
-0.23544832996896536
-0.27211270248503394
-0.9754909445458779
-0.23544832996896536
-0.27211270248503394
-0.9754909445458779
-0.23544832996896536
-0.27211270248503394
-0.9754909445458779
-0.23544832996896536
-0.27211270248503394
-0.9829386208667966
-0.23907763957726333
-0.26788315290377374
-0.9829386208667966
-0.23907763957726333
-0.26788315290377374
-0.9829386208667966
-0.23907763957726333
-0.26788315290377374
-0.9829386208667966
-0.23907763957726333
-0.26788315290377374
-0.9927717151115565
-0.23973790058100974
-0.26277972103844277
-0.9927717151115565
-0.23973790058100974
-0.26277972103844277
-0.9927717151115565
-0.23973790058100974
-0.26277972103844277
-0.9927717151115565
-0.23973790058100974
-0.26277972103844277
-0.9888674057976016
-0.24314154890378345
-0.2601925687250469
-0.9888674057976016
-0.24314154890378345
-0.2601925687250469
-0.9888674057976016
-0.24314154890378345
-0.2601925687250469
-0.9888674057976016
-0.24314154890378345
-0.2601925687250469
-0.9832912742423389
-0.247563837841677
-0.2580216156761332
-0.9832912742423389
-0.247563837841677
-0.2580216156761332
-0.9832912742423389
-0.247563837841677
-0.2580216156761332
-0.9832912742423389
-0.247563837841677
-0.2580216156761332
-0.983887018116294
-0.24940706909438362
-0.2553157118623123
-0.983887018116294
-0.24940706909438362
-0.2553157118623123
-0.983887018116294
-0.24940706909438362
-0.2553157118623123
-0.983887018116294
-0.24940706909438362
-0.2553157118623123
-0.9880274962356573
-0.24876094455044334
-0.25343756097543435
-0.9880274962356573
-0.24876094455044334
-0.25343756097543435
-0.9880274962356573
-0.24876094455044334
-0.25343756097543435
-0.9880274962356573
-0.24876094455044334
-0.25343756097543435
-0.990113984136174
-0.24701594988694364
-0.25309434107852535
-0.990113984136174
-0.24701594988694364
-0.25309434107852535
-0.990113984136174
-0.24701594988694364
-0.25309434107852535
-0.990113984136174
-0.24701594988694364
-0.25309434107852535
-0.9925718847136881
-0.24629591319425043
-0.2542128535513392
-0.9925718847136881
-0.24629591319425043
-0.2542128535513392
-0.9925718847136881
-0.24629591319425043
-0.2542128535513392
-0.9925718847136881
-0.24629591319425043
-0.2542128535513392
-0.9957191906263635
-0.24656988903679042
-0.2536094651876681
-0.9957191906263635
-0.24656988903679042
-0.2536094651876681
-0.9957191906263635
-0.24656988903679042
-0.2536094651876681
-0.9957191906263635
-0.24656988903679042
-0.2536094651876681
-0.99709408955192
-0.24586109849439522
-0.25161297957147544
-0.99709408955192
-0.24586109849439522
-0.25161297957147544
-0.99709408955192
-0.24586109849439522
-0.25161297957147544
-0.99709408955192
-0.24586109849439522
-0.25161297957147544
-0.9972055488682023
-0.24565772069041905
-0.2504460678562517
-0.9972055488682023
-0.24565772069041905
-0.2504460678562517
-0.9972055488682023
-0.24565772069041905
-0.2504460678562517
-0.9972055488682023
-0.24565772069041905
-0.2504460678562517
-0.9971329729530981
-0.2463830208886196
-0.25077101638686733
-0.9971329729530981
-0.2463830208886196
-0.25077101638686733
-0.9971329729530981
-0.2463830208886196
-0.25077101638686733
-0.9971329729530981
-0.2463830208886196
-0.25077101638686733
-0.9984824838889246
-0.24734808330654767
-0.25103397239306807
-0.9984824838889246
-0.24734808330654767
-0.25103397239306807
-0.9984824838889246
-0.24734808330654767
-0.25103397239306807
-0.9984824838889246
-0.24734808330654767
-0.25103397239306807
-1.0020738121208836
-0.24886393234905552
-0.2510088864066383
-1.0020738121208836
-0.24886393234905552
-0.2510088864066383
-1.0020738121208836
-0.24886393234905552
-0.2510088864066383
-1.0020738121208836
-0.24886393234905552
-0.2510088864066383
-1.0027175011628826
-0.24841813524190398
-0.2512325864197088
-1.0027175011628826
-0.24841813524190398
-0.2512325864197088
-1.0027175011628826
-0.24841813524190398
-0.2512325864197088
-1.0027175011628826
-0.24841813524190398
-0.2512325864197088
-1.002230580146715
-0.24701867937183403
-0.25115436884148123
-1.002230580146715
-0.24701867937183403
-0.25115436884148123
-1.002230580146715
-0.24701867937183403
-0.25115436884148123
-1.002230580146715
-0.24701867937183403
-0.25115436884148123
-1.0035108944867415
-0.24680674582608952
-0.2513380633990917
-1.0035108944867415
-0.24680674582608952
-0.2513380633990917
-1.0035108944867415
-0.24680674582608952
-0.2513380633990917
-1.0035108944867415
-0.24680674582608952
-0.2513380633990917
-1.000010942382454
-0.2469682588933957
-0.25258550259029494
-1.000010942382454
-0.2469682588933957
-0.25258550259029494
-1.000010942382454
-0.2469682588933957
-0.25258550259029494
-1.000010942382454
-0.2469682588933957
-0.25258550259029494
-0.9960619318681453
-0.24751697846061557
-0.2539374614695451
-0.9960619318681453
-0.24751697846061557
-0.2539374614695451
-0.9960619318681453
-0.24751697846061557
-0.2539374614695451
-0.9960619318681453
-0.24751697846061557
-0.2539374614695451
-0.9958946328114201
-0.24749018243157594
-0.25395202667226535
-0.9958946328114201
-0.24749018243157594
-0.25395202667226535
-0.9958946328114201
-0.24749018243157594
-0.25395202667226535
-0.9958946328114201
-0.24749018243157594
-0.25395202667226535
-0.9933860409751347
-0.24724338349951494
-0.253370780603347
-0.9933860409751347
-0.24724338349951494
-0.253370780603347
-0.9933860409751347
-0.24724338349951494
-0.253370780603347
-0.9933860409751347
-0.24724338349951494
-0.253370780603347
-0.9900303203616446
-0.2465829812329881
-0.2533439676891952
-0.9900303203616446
-0.2465829812329881
-0.2533439676891952
-0.9900303203616446
-0.2465829812329881
-0.2533439676891952
-0.9900303203616446
-0.2465829812329881
-0.2533439676891952
-0.9913864773545674
-0.24646232783885658
-0.254176225870913
-0.9913864773545674
-0.24646232783885658
-0.254176225870913
-0.9913864773545674
-0.24646232783885658
-0.254176225870913
-0.9913864773545674
-0.24646232783885658
-0.254176225870913
-0.9919046106737309
-0.24616536646301054
-0.2557328708220103
-0.9919046106737309
-0.24616536646301054
-0.2557328708220103
-0.9919046106737309
-0.24616536646301054
-0.2557328708220103
-0.9919046106737309
-0.24616536646301054
-0.2557328708220103
-0.9921047805504569
-0.24639463442271237
-0.25658794678369506
-0.9921047805504569
-0.24639463442271237
-0.25658794678369506
-0.9921047805504569
-0.24639463442271237
-0.25658794678369506
-0.9921047805504569
-0.24639463442271237
-0.25658794678369506
-0.9929010578653971
-0.24576432715380453
-0.25617565342427684
-0.9929010578653971
-0.24576432715380453
-0.25617565342427684
-0.9929010578653971
-0.24576432715380453
-0.25617565342427684
-0.9929010578653971
-0.24576432715380453
-0.25617565342427684
-0.9916996368745434
-0.24498280738791103
-0.25493522235030586
-0.9916996368745434
-0.24498280738791103
-0.25493522235030586
-0.9916996368745434
-0.24498280738791103
-0.25493522235030586
-0.9916996368745434
-0.24498280738791103
-0.25493522235030586
-0.9898303690855261
-0.24539552988798796
-0.25481792170704853
-0.9898303690855261
-0.24539552988798796
-0.25481792170704853
-0.9898303690855261
-0.24539552988798796
-0.25481792170704853
-0.9898303690855261
-0.24539552988798796
-0.25481792170704853
-0.9901314627000228
-0.24679715018606804
-0.25548135132042676
-0.9901314627000228
-0.24679715018606804
-0.25548135132042676
-0.9901314627000228
-0.24679715018606804
-0.25548135132042676
-0.9901314627000228
-0.24679715018606804
-0.25548135132042676
-0.9925815039872887
-0.2484298392250616
-0.2560539127040911
-0.9925815039872887
-0.2484298392250616
-0.2560539127040911
-0.9925815039872887
-0.2484298392250616
-0.2560539127040911
-0.9925815039872887
-0.2484298392250616
-0.2560539127040911
-0.9955832714569556
-0.24852239915132232
-0.2564211515675978
-0.9955832714569556
-0.24852239915132232
-0.2564211515675978
-0.9955832714569556
-0.24852239915132232
-0.2564211515675978
-0.9955832714569556
-0.24852239915132232
-0.2564211515675978
-0.9964651151733649
-0.24716254521001596
-0.25694428896925536
-0.9964651151733649
-0.24716254521001596
-0.25694428896925536
-0.9964651151733649
-0.24716254521001596
-0.25694428896925536
-0.9964651151733649
-0.24716254521001596
-0.25694428896925536
-0.996886265398926
-0.2467516445985306
-0.25756842405674313
-0.996886265398926
-0.2467516445985306
-0.25756842405674313
-0.996886265398926
-0.2467516445985306
-0.25756842405674313
-0.996886265398926
-0.2467516445985306
-0.25756842405674313
-0.9980573577623741
-0.24912369961507713
-0.25738890501497796
-0.9980573577623741
-0.24912369961507713
-0.25738890501497796
-0.9980573577623741
-0.24912369961507713
-0.25738890501497796
-0.9980573577623741
-0.24912369961507713
-0.25738890501497796
-0.9990540673049464
-0.2511479552303748
-0.2566590483910566
-0.9990540673049464
-0.2511479552303748
-0.2566590483910566
-0.9990540673049464
-0.2511479552303748
-0.2566590483910566
-0.9990540673049464
-0.2511479552303748
-0.2566590483910566
-1.0001109894069378
-0.25113193094974773
-0.2557547108987103
-1.0001109894069378
-0.25113193094974773
-0.2557547108987103
-1.0001109894069378
-0.25113193094974773
-0.2557547108987103
-1.0001109894069378
-0.25113193094974773
-0.2557547108987103
-0.9992035422662794
-0.2505934870826082
-0.2551032067619086
-0.9992035422662794
-0.2505934870826082
-0.2551032067619086
-0.9992035422662794
-0.2505934870826082
-0.2551032067619086
-0.9992035422662794
-0.2505934870826082
-0.2551032067619086
-0.9996353463476195
-0.25086635528620843
-0.2549368088125979
-0.9996353463476195
-0.25086635528620843
-0.2549368088125979
-0.9996353463476195
-0.25086635528620843
-0.2549368088125979
-0.9996353463476195
-0.25086635528620843
-0.2549368088125979
-1.0001492638994063
-0.25138965816639935
-0.2551945396753271
-1.0001492638994063
-0.25138965816639935
-0.2551945396753271
-1.0001492638994063
-0.25138965816639935
-0.2551945396753271
-1.0001492638994063
-0.25138965816639935
-0.2551945396753271
-1.0015914393596228
-0.2513132956662568
-0.2553023776064312
-1.0015914393596228
-0.2513132956662568
-0.2553023776064312
-1.0015914393596228
-0.2513132956662568
-0.2553023776064312
-1.0015914393596228
-0.2513132956662568
-0.2553023776064312
-1.0006114623597613
-0.2508676995792479
-0.2555994125678604
-1.0006114623597613
-0.2508676995792479
-0.2555994125678604
-1.0006114623597613
-0.2508676995792479
-0.2555994125678604
-1.0006114623597613
-0.2508676995792479
-0.2555994125678604
-1.0003577590078023
-0.2521241650378183
-0.25593410021968527
-1.0003577590078023
-0.2521241650378183
-0.25593410021968527
-1.0003577590078023
-0.2521241650378183
-0.25593410021968527
-1.0003577590078023
-0.2521241650378183
-0.25593410021968527
-1.0002200255329035
-0.25228012425605584
-0.25600766121692237
-1.0002200255329035
-0.25228012425605584
-0.25600766121692237
-1.0002200255329035
-0.25228012425605584
-0.25600766121692237
-1.0002200255329035
-0.25228012425605584
-0.25600766121692237
-0.9998548364324519
-0.25220704301772373
-0.25676626638365074
-0.9998548364324519
-0.25220704301772373
-0.25676626638365074
-0.9998548364324519
-0.25220704301772373
-0.25676626638365074
-0.9998548364324519
-0.25220704301772373
-0.25676626638365074
-0.9987832414895672
-0.2511716770730094
-0.257540234819317
-0.9987832414895672
-0.2511716770730094
-0.257540234819317
-0.9987832414895672
-0.2511716770730094
-0.257540234819317
-0.9987832414895672
-0.2511716770730094
-0.257540234819317
-0.9965609264529015
-0.24986806070606765
-0.257495738459776
-0.9965609264529015
-0.24986806070606765
-0.257495738459776
-0.9965609264529015
-0.24986806070606765
-0.257495738459776
-0.9965609264529015
-0.24986806070606765
-0.257495738459776
-0.991934987918723
-0.24858786736146277
-0.25757722686773304
-0.991934987918723
-0.24858786736146277
-0.25757722686773304
-0.991934987918723
-0.24858786736146277
-0.25757722686773304
-0.991934987918723
-0.24858786736146277
-0.25757722686773304
-0.9895303561326438
-0.24853089665126388
-0.2573123121810045
-0.9895303561326438
-0.24853089665126388
-0.2573123121810045
-0.9895303561326438
-0.24853089665126388
-0.2573123121810045
-0.9895303561326438
-0.24853089665126388
-0.2573123121810045
-0.9886795893212112
-0.2503578289534159
-0.25738353404522185
-0.9886795893212112
-0.2503578289534159
-0.25738353404522185
-0.9886795893212112
-0.2503578289534159
-0.25738353404522185
-0.9886795893212112
-0.2503578289534159
-0.25738353404522185
-0.9883080997891246
-0.25063380851619504
-0.2569925092297887
-0.9883080997891246
-0.25063380851619504
-0.2569925092297887
-0.9883080997891246
-0.25063380851619504
-0.2569925092297887
-0.9883080997891246
-0.25063380851619504
-0.2569925092297887
-0.9875316493729484
-0.2497848956312909
-0.2564871258141461
-0.9875316493729484
-0.2497848956312909
-0.2564871258141461
-0.9875316493729484
-0.2497848956312909
-0.2564871258141461
-0.9875316493729484
-0.2497848956312909
-0.2564871258141461
-0.9874551792551521
-0.24908574739484576
-0.2560052847660266
-0.9874551792551521
-0.24908574739484576
-0.2560052847660266
-0.9874551792551521
-0.24908574739484576
-0.2560052847660266
-0.9874551792551521
-0.24908574739484576
-0.2560052847660266
-0.9866363119277766
-0.24977013544910073
-0.25653101931864797
-0.9866363119277766
-0.24977013544910073
-0.25653101931864797
-0.9866363119277766
-0.24977013544910073
-0.25653101931864797
-0.9866363119277766
-0.24977013544910073
-0.25653101931864797
-0.9879445552624934
-0.2504765617595098
-0.25735605375641996
-0.9879445552624934
-0.2504765617595098
-0.25735605375641996
-0.9879445552624934
-0.2504765617595098
-0.25735605375641996
-0.9879445552624934
-0.2504765617595098
-0.25735605375641996
-0.990142058685454
-0.25165073233204144
-0.2581912466817591
-0.990142058685454
-0.25165073233204144
-0.2581912466817591
-0.990142058685454
-0.25165073233204144
-0.2581912466817591
-0.990142058685454
-0.25165073233204144
-0.2581912466817591
-0.9917765934659079
-0.25048745476406215
-0.2582879150999195
-0.9917765934659079
-0.25048745476406215
-0.2582879150999195
-0.9917765934659079
-0.25048745476406215
-0.2582879150999195
-0.9917765934659079
-0.25048745476406215
-0.2582879150999195
-0.9906463265738387
-0.2504076562580752
-0.25854205664441005
-0.9906463265738387
-0.2504076562580752
-0.25854205664441005
-0.9906463265738387
-0.2504076562580752
-0.25854205664441005
-0.9906463265738387
-0.2504076562580752
-0.25854205664441005
-0.9893773437393477
-0.2500583991379559
-0.2583636462014902
-0.9893773437393477
-0.2500583991379559
-0.2583636462014902
-0.9893773437393477
-0.2500583991379559
-0.2583636462014902
-0.9893773437393477
-0.2500583991379559
-0.2583636462014902
-0.9901773795645968
-0.2513020468411416
-0.257801350024571
-0.9901773795645968
-0.2513020468411416
-0.257801350024571
-0.9901773795645968
-0.2513020468411416
-0.257801350024571
-0.9901773795645968
-0.2513020468411416
-0.257801350024571
-0.9905447300911945
-0.25190778651700285
-0.25648029126127864
-0.9905447300911945
-0.25190778651700285
-0.25648029126127864
-0.9905447300911945
-0.25190778651700285
-0.25648029126127864
-0.9905447300911945
-0.25190778651700285
-0.25648029126127864
-0.989260554160786
-0.25267365172595013
-0.25528732928336023
-0.989260554160786
-0.25267365172595013
-0.25528732928336023
-0.989260554160786
-0.25267365172595013
-0.25528732928336023
-0.989260554160786
-0.25267365172595013
-0.25528732928336023
-0.9887091538065832
-0.2516332731921436
-0.2535928777937438
-0.9887091538065832
-0.2516332731921436
-0.2535928777937438
-0.9887091538065832
-0.2516332731921436
-0.2535928777937438
-0.9887091538065832
-0.2516332731921436
-0.2535928777937438
-0.9893942470867021
-0.25147228783017633
-0.25179043913778637
-0.9893942470867021
-0.25147228783017633
-0.25179043913778637
-0.9893942470867021
-0.25147228783017633
-0.25179043913778637
-0.9893942470867021
-0.25147228783017633
-0.25179043913778637
-0.9893568980177087
-0.25121811299824853
-0.25007531255918697
-0.9893568980177087
-0.25121811299824853
-0.25007531255918697
-0.9893568980177087
-0.25121811299824853
-0.25007531255918697
-0.9893568980177087
-0.25121811299824853
-0.25007531255918697
-0.9885883184790429
-0.25071452437166036
-0.2486717179278513
-0.9885883184790429
-0.25071452437166036
-0.2486717179278513
-0.9885883184790429
-0.25071452437166036
-0.2486717179278513
-0.9885883184790429
-0.25071452437166036
-0.2486717179278513
-0.9920916106317362
-0.24838719494593886
-0.24728857990541228
-0.9920916106317362
-0.24838719494593886
-0.24728857990541228
-0.9920916106317362
-0.24838719494593886
-0.24728857990541228
-0.9920916106317362
-0.24838719494593886
-0.24728857990541228
-0.9943326085496733
-0.24486575690426451
-0.2464719051773326
-0.9943326085496733
-0.24486575690426451
-0.2464719051773326
-0.9943326085496733
-0.24486575690426451
-0.2464719051773326
-0.9943326085496733
-0.24486575690426451
-0.2464719051773326
-0.9928607139240861
-0.2417580602549694
-0.24564980701229328
-0.9928607139240861
-0.2417580602549694
-0.24564980701229328
-0.9928607139240861
-0.2417580602549694
-0.24564980701229328
-0.9928607139240861
-0.2417580602549694
-0.24564980701229328
-0.9877725614021431
-0.24129605878628166
-0.24502639379011973
-0.9877725614021431
-0.24129605878628166
-0.24502639379011973
-0.9877725614021431
-0.24129605878628166
-0.24502639379011973
-0.9877725614021431
-0.24129605878628166
-0.24502639379011973
-0.9804622036224762
-0.24554660778003531
-0.24534893180052264
-0.9804622036224762
-0.24554660778003531
-0.24534893180052264
-0.9804622036224762
-0.24554660778003531
-0.24534893180052264
-0.9804622036224762
-0.24554660778003531
-0.24534893180052264
-0.9802702337962582
-0.24989120688933536
-0.24494265443029412
-0.9802702337962582
-0.24989120688933536
-0.24494265443029412
-0.9802702337962582
-0.24989120688933536
-0.24494265443029412
-0.9802702337962582
-0.24989120688933536
-0.24494265443029412
-0.980690309773281
-0.25022073556981095
-0.2438772996519402
-0.980690309773281
-0.25022073556981095
-0.2438772996519402
-0.980690309773281
-0.25022073556981095
-0.2438772996519402
-0.980690309773281
-0.25022073556981095
-0.2438772996519402
-0.9776102993517015
-0.25066911543998305
-0.2437073501708247
-0.9776102993517015
-0.25066911543998305
-0.2437073501708247
-0.9776102993517015
-0.25066911543998305
-0.2437073501708247
-0.9776102993517015
-0.25066911543998305
