-0.9508880257532976
-0.16029570910661933
-0.15738273652388807
-0.9508880257532976
-0.16029570910661933
-0.15738273652388807
-0.9517060450652455
-0.16172514388598241
-0.15676216306055143
-0.9517060450652455
-0.16172514388598241
-0.15676216306055143
-0.9517060450652455
-0.16172514388598241
-0.15676216306055143
-0.9517060450652455
-0.16172514388598241
-0.15676216306055143
-0.9522636355017092
-0.1630782689816669
-0.15605336604962533
-0.9522636355017092
-0.1630782689816669
-0.15605336604962533
-0.9522636355017092
-0.1630782689816669
-0.15605336604962533
-0.9522636355017092
-0.1630782689816669
-0.15605336604962533
-0.9522072986525454
-0.16432293655512567
-0.15555087626158343
-0.9522072986525454
-0.16432293655512567
-0.15555087626158343
-0.9522072986525454
-0.16432293655512567
-0.15555087626158343
-0.9522072986525454
-0.16432293655512567
-0.15555087626158343
-0.9515169222195001
-0.1651428118816628
-0.155165146022911
-0.9515169222195001
-0.1651428118816628
-0.155165146022911
-0.9515169222195001
-0.1651428118816628
-0.155165146022911
-0.9515169222195001
-0.1651428118816628
-0.155165146022911
-0.9502460971557689
-0.1655287464954005
-0.15487928063153847
-0.9502460971557689
-0.1655287464954005
-0.15487928063153847
-0.9502460971557689
-0.1655287464954005
-0.15487928063153847
-0.9502460971557689
-0.1655287464954005
-0.15487928063153847
-0.9496094752401865
-0.1654821098396884
-0.1546638309059748
-0.9496094752401865
-0.1654821098396884
-0.1546638309059748
-0.9496094752401865
-0.1654821098396884
-0.1546638309059748
-0.9496094752401865
-0.1654821098396884
-0.1546638309059748
-0.9489325855668675
-0.16498936393872893
-0.15466644181449793
-0.9489325855668675
-0.16498936393872893
-0.15466644181449793
-0.9489325855668675
-0.16498936393872893
-0.15466644181449793
-0.9489325855668675
-0.16498936393872893
-0.15466644181449793
-0.9482252430733498
-0.1641039382884784
-0.1547214199428683
-0.9482252430733498
-0.1641039382884784
-0.1547214199428683
-0.9482252430733498
-0.1641039382884784
-0.1547214199428683
-0.9482252430733498
-0.1641039382884784
-0.1547214199428683
-0.9474505443358059
-0.16267222561784286
-0.15479110023769269
-0.9474505443358059
-0.16267222561784286
-0.15479110023769269
-0.9474505443358059
-0.16267222561784286
-0.15479110023769269
-0.9474505443358059
-0.16267222561784286
-0.15479110023769269
-0.9466892982845391
-0.1611858134218874
-0.15474989881833823
-0.9466892982845391
-0.1611858134218874
-0.15474989881833823
-0.9466892982845391
-0.1611858134218874
-0.15474989881833823
-0.9466892982845391
-0.1611858134218874
-0.15474989881833823
-0.9461647481919611
-0.16015443754273043
-0.154738908147003
-0.9461647481919611
-0.16015443754273043
-0.154738908147003
-0.9461647481919611
-0.16015443754273043
-0.154738908147003
-0.9461647481919611
-0.16015443754273043
-0.154738908147003
-0.9456573764310184
-0.15957021287013226
-0.1547850260151341
-0.9456573764310184
-0.15957021287013226
-0.1547850260151341
-0.9456573764310184
-0.15957021287013226
-0.1547850260151341
-0.9456573764310184
-0.15957021287013226
-0.1547850260151341
-0.945767121263713
-0.15957417045222777
-0.1547719393387971
-0.945767121263713
-0.15957417045222777
-0.1547719393387971
-0.945767121263713
-0.15957417045222777
-0.1547719393387971
-0.945767121263713
-0.15957417045222777
-0.1547719393387971
-0.9458768600814444
-0.1595781263951479
-0.15475885294617875
-0.9458768600814444
-0.1595781263951479
-0.15475885294617875
-0.9458768600814444
-0.1595781263951479
-0.15475885294617875
-0.9458768600814444
-0.1595781263951479
-0.15475885294617875
-0.9454723684818261
-0.1600951068506275
-0.1545177339044506
-0.9454723684818261
-0.1600951068506275
-0.1545177339044506
-0.9454723684818261
-0.1600951068506275
-0.1545177339044506
-0.9454723684818261
-0.1600951068506275
-0.1545177339044506
-0.9450719133441732
-0.16050383668999035
-0.15433205324084862
-0.9450719133441732
-0.16050383668999035
-0.15433205324084862
-0.9450719133441732
-0.16050383668999035
-0.15433205324084862
-0.9450719133441732
-0.16050383668999035
-0.15433205324084862
-0.945056111783676
-0.16093730135018383
-0.15411102804134702
-0.945056111783676
-0.16093730135018383
-0.15411102804134702
-0.945056111783676
-0.16093730135018383
-0.15411102804134702
-0.945056111783676
-0.16093730135018383
-0.15411102804134702
-0.9456032485399959
-0.16135761526946715
-0.15373538955875574
-0.9456032485399959
-0.16135761526946715
-0.15373538955875574
-0.9456032485399959
-0.16135761526946715
-0.15373538955875574
-0.9456032485399959
-0.16135761526946715
-0.15373538955875574
-0.9462931864720964
-0.1617954244803301
-0.1536250518686562
-0.9462931864720964
-0.1617954244803301
-0.1536250518686562
-0.9462931864720964
-0.1617954244803301
-0.1536250518686562
-0.9462931864720964
-0.1617954244803301
-0.1536250518686562
-0.9462931864720964
-0.1617954244803301
-0.1536250518686562
-0.9462931864720964
-0.1617954244803301
-0.1536250518686562
-0.9462931864720964
-0.1617954244803301
-0.1536250518686562
-0.9462931864720964
-0.1617954244803301
-0.1536250518686562
-0.9469483662390559
-0.1616398748533636
-0.15450605703107576
-0.9469483662390559
-0.1616398748533636
-0.15450605703107576
-0.9469483662390559
-0.1616398748533636
-0.15450605703107576
-0.9469483662390559
-0.1616398748533636
-0.15450605703107576
-0.9481080648130549
-0.16213914074519906
-0.15600331900925696
-0.9481080648130549
-0.16213914074519906
-0.15600331900925696
-0.9481080648130549
-0.16213914074519906
-0.15600331900925696
-0.9481080648130549
-0.16213914074519906
-0.15600331900925696
-0.9489429031139133
-0.16272957869079321
-0.15801695013786268
-0.9489429031139133
-0.16272957869079321
-0.15801695013786268
-0.9489429031139133
-0.16272957869079321
-0.15801695013786268
-0.9489429031139133
-0.16272957869079321
-0.15801695013786268
-0.9494023301465919
-0.1621614800331942
-0.1610608235432045
-0.9494023301465919
-0.1621614800331942
-0.1610608235432045
-0.9494023301465919
-0.1621614800331942
-0.1610608235432045
-0.9494023301465919
-0.1621614800331942
-0.1610608235432045
-0.9505480476754588
-0.16295345508761297
-0.16310991398277067
-0.9505480476754588
-0.16295345508761297
-0.16310991398277067
-0.9505480476754588
-0.16295345508761297
-0.16310991398277067
-0.9505480476754588
-0.16295345508761297
-0.16310991398277067
-0.9536861457790482
-0.16274821565437117
-0.16461678737476013
-0.9536861457790482
-0.16274821565437117
-0.16461678737476013
-0.9536861457790482
-0.16274821565437117
-0.16461678737476013
-0.9536861457790482
-0.16274821565437117
-0.16461678737476013
-0.954045743329804
-0.16152448344107942
-0.16482227590121606
-0.954045743329804
-0.16152448344107942
-0.16482227590121606
-0.954045743329804
-0.16152448344107942
-0.16482227590121606
-0.954045743329804
-0.16152448344107942
-0.16482227590121606
-0.9517757250893435
-0.1587917005865849
-0.1643528147421628
-0.9517757250893435
-0.1587917005865849
-0.1643528147421628
-0.9517757250893435
-0.1587917005865849
-0.1643528147421628
-0.9517757250893435
-0.1587917005865849
-0.1643528147421628
-0.951591879591336
-0.1578835332923263
-0.1634416379423091
-0.951591879591336
-0.1578835332923263
-0.1634416379423091
-0.951591879591336
-0.1578835332923263
-0.1634416379423091
-0.951591879591336
-0.1578835332923263
-0.1634416379423091
-0.9521818543087105
-0.16073803964983308
-0.16349100372624625
-0.9521818543087105
-0.16073803964983308
-0.16349100372624625
-0.9521818543087105
-0.16073803964983308
-0.16349100372624625
-0.9521818543087105
-0.16073803964983308
-0.16349100372624625
-0.9501727844020382
-0.1629807183290646
-0.16298098619865053
-0.9501727844020382
-0.1629807183290646
-0.16298098619865053
-0.9501727844020382
-0.1629807183290646
-0.16298098619865053
-0.9501727844020382
-0.1629807183290646
-0.16298098619865053
-0.9442270348959111
-0.16248768011506273
-0.16291141508640156
-0.9442270348959111
-0.16248768011506273
-0.16291141508640156
-0.9442270348959111
-0.16248768011506273
-0.16291141508640156
-0.9442270348959111
-0.16248768011506273
-0.16291141508640156
-0.9419750889016636
-0.1609032817276358
-0.16518073970533054
-0.9419750889016636
-0.1609032817276358
-0.16518073970533054
-0.9419750889016636
-0.1609032817276358
-0.16518073970533054
-0.9419750889016636
-0.1609032817276358
-0.16518073970533054
-0.9381403447741823
-0.1595591405432158
-0.16642510357199086
-0.9381403447741823
-0.1595591405432158
-0.16642510357199086
-0.9381403447741823
-0.1595591405432158
-0.16642510357199086
-0.9381403447741823
-0.1595591405432158
-0.16642510357199086
-0.9339509555686806
-0.15855413843071947
-0.16762740818948743
-0.9339509555686806
-0.15855413843071947
-0.16762740818948743
-0.9339509555686806
-0.15855413843071947
-0.16762740818948743
-0.9339509555686806
-0.15855413843071947
-0.16762740818948743
-0.9380829078089379
-0.1588646511815544
-0.16857102625079828
-0.9380829078089379
-0.1588646511815544
-0.16857102625079828
-0.9380829078089379
-0.1588646511815544
-0.16857102625079828
-0.9380829078089379
-0.1588646511815544
-0.16857102625079828
-0.943168867741447
-0.15979372022145347
-0.16860923344253273
-0.943168867741447
-0.15979372022145347
-0.16860923344253273
-0.943168867741447
-0.15979372022145347
-0.16860923344253273
-0.943168867741447
-0.15979372022145347
-0.16860923344253273
-0.9449284301463982
-0.15989526751543998
-0.16918152055363225
-0.9449284301463982
-0.15989526751543998
-0.16918152055363225
-0.9449284301463982
-0.15989526751543998
-0.16918152055363225
-0.9449284301463982
-0.15989526751543998
-0.16918152055363225
-0.9441234242456349
-0.16137792073193277
-0.17012062628590202
-0.9441234242456349
-0.16137792073193277
-0.17012062628590202
-0.9441234242456349
-0.16137792073193277
-0.17012062628590202
-0.9441234242456349
-0.16137792073193277
-0.17012062628590202
-0.9425386809360873
-0.16251933558672677
-0.17085440929245027
-0.9425386809360873
-0.16251933558672677
-0.17085440929245027
-0.9425386809360873
-0.16251933558672677
-0.17085440929245027
-0.9425386809360873
-0.16251933558672677
-0.17085440929245027
-0.9425386809360873
-0.16251933558672677
-0.17085440929245027
-0.9425386809360873
-0.16251933558672677
-0.17085440929245027
-0.9425386809360873
-0.16251933558672677
-0.17085440929245027
-0.9425386809360873
-0.16251933558672677
-0.17085440929245027
-0.94546430278574
-0.16271327544952993
-0.17050991910176178
-0.94546430278574
-0.16271327544952993
-0.17050991910176178
-0.94546430278574
-0.16271327544952993
-0.17050991910176178
-0.94546430278574
-0.16271327544952993
-0.17050991910176178
-0.9468289220863009
-0.1627742619305008
-0.17056176468060902
-0.9468289220863009
-0.1627742619305008
-0.17056176468060902
-0.9468289220863009
-0.1627742619305008
-0.17056176468060902
-0.9468289220863009
-0.1627742619305008
-0.17056176468060902
-0.9458268710621195
-0.16247113251811998
-0.17102362246247826
-0.9458268710621195
-0.16247113251811998
-0.17102362246247826
-0.9458268710621195
-0.16247113251811998
-0.17102362246247826
-0.9458268710621195
-0.16247113251811998
-0.17102362246247826
-0.9441613588264024
-0.16245588602313676
-0.1719327970487809
-0.9441613588264024
-0.16245588602313676
-0.1719327970487809
-0.9441613588264024
-0.16245588602313676
-0.1719327970487809
-0.9441613588264024
-0.16245588602313676
-0.1719327970487809
-0.9424907614209336
-0.1623168971799965
-0.17234271144086927
-0.9424907614209336
-0.1623168971799965
-0.17234271144086927
-0.9424907614209336
-0.1623168971799965
-0.17234271144086927
-0.9424907614209336
-0.1623168971799965
-0.17234271144086927
-0.944332813637199
-0.16159354088225444
-0.1720851957149522
-0.944332813637199
-0.16159354088225444
-0.1720851957149522
-0.944332813637199
-0.16159354088225444
-0.1720851957149522
-0.944332813637199
-0.16159354088225444
-0.1720851957149522
-0.94739734208307
-0.16064227215009425
-0.171891729478626
-0.94739734208307
-0.16064227215009425
-0.171891729478626
-0.94739734208307
-0.16064227215009425
-0.171891729478626
-0.94739734208307
-0.16064227215009425
-0.171891729478626
-0.9462007278432044
-0.15955604836574153
-0.17221189607194948
-0.9462007278432044
-0.15955604836574153
-0.17221189607194948
-0.9462007278432044
-0.15955604836574153
-0.17221189607194948
-0.9462007278432044
-0.15955604836574153
-0.17221189607194948
-0.9433067906501515
-0.15870957652114256
-0.17288181805866473
-0.9433067906501515
-0.15870957652114256
-0.17288181805866473
-0.9433067906501515
-0.15870957652114256
-0.17288181805866473
-0.9433067906501515
-0.15870957652114256
-0.17288181805866473
-0.9419077959861529
-0.15893185066240595
-0.17365567921451086
-0.9419077959861529
-0.15893185066240595
-0.17365567921451086
-0.9419077959861529
-0.15893185066240595
-0.17365567921451086
-0.9419077959861529
-0.15893185066240595
-0.17365567921451086
-0.9425480147727935
-0.15914641060733054
-0.17365282196344198
-0.9425480147727935
-0.15914641060733054
-0.17365282196344198
-0.9425480147727935
-0.15914641060733054
-0.17365282196344198
-0.9425480147727935
-0.15914641060733054
-0.17365282196344198
-0.9449675666260804
-0.15879494583562015
-0.17263986530580216
-0.9449675666260804
-0.15879494583562015
-0.17263986530580216
-0.9449675666260804
-0.15879494583562015
-0.17263986530580216
-0.9449675666260804
-0.15879494583562015
-0.17263986530580216
-0.9451313592879539
-0.15858214405432405
-0.17218751790436188
-0.9451313592879539
-0.15858214405432405
-0.17218751790436188
-0.9451313592879539
-0.15858214405432405
-0.17218751790436188
-0.9451313592879539
-0.15858214405432405
-0.17218751790436188
-0.9448768602659906
-0.15812559899443465
-0.1724300144029637
-0.9448768602659906
-0.15812559899443465
-0.1724300144029637
-0.9448768602659906
-0.15812559899443465
-0.1724300144029637
-0.9448768602659906
-0.15812559899443465
-0.1724300144029637
-0.9454561085817467
-0.15752214961069344
-0.17271697570262176
-0.9454561085817467
-0.15752214961069344
-0.17271697570262176
-0.9454561085817467
-0.15752214961069344
-0.17271697570262176
-0.9454561085817467
-0.15752214961069344
-0.17271697570262176
-0.9483827923890776
-0.15717803463080607
-0.17293083601077286
-0.9483827923890776
-0.15717803463080607
-0.17293083601077286
-0.9483827923890776
-0.15717803463080607
-0.17293083601077286
-0.9483827923890776
-0.15717803463080607
-0.17293083601077286
-0.9496373884331306
-0.15673384922700784
-0.1728322418918117
-0.9496373884331306
-0.15673384922700784
-0.1728322418918117
-0.9496373884331306
-0.15673384922700784
-0.1728322418918117
-0.9496373884331306
-0.15673384922700784
-0.1728322418918117
-0.950060038619985
-0.1568677880625988
-0.17219264170499254
-0.950060038619985
-0.1568677880625988
-0.17219264170499254
-0.950060038619985
-0.1568677880625988
-0.17219264170499254
-0.950060038619985
-0.1568677880625988
-0.17219264170499254
-0.9499573750277704
-0.15718621166941646
-0.1717653725969141
-0.9499573750277704
-0.15718621166941646
-0.1717653725969141
-0.9499573750277704
-0.15718621166941646
-0.1717653725969141
-0.9499573750277704
-0.15718621166941646
-0.1717653725969141
-0.9499573750277704
-0.15718621166941646
-0.1717653725969141
-0.9499573750277704
-0.15718621166941646
-0.1717653725969141
-0.9499573750277704
-0.15718621166941646
-0.1717653725969141
-0.9499573750277704
-0.15718621166941646
-0.1717653725969141
-0.9508014101477763
-0.15752390652743722
-0.1711492913834711
-0.9508014101477763
-0.15752390652743722
-0.1711492913834711
-0.9508014101477763
-0.15752390652743722
-0.1711492913834711
-0.9508014101477763
-0.15752390652743722
-0.1711492913834711
-0.9513173642236371
-0.1580573541207567
-0.17099299187990086
-0.9513173642236371
-0.1580573541207567
-0.17099299187990086
-0.9513173642236371
-0.1580573541207567
-0.17099299187990086
-0.9513173642236371
-0.1580573541207567
-0.17099299187990086
-0.9515784370085184
-0.15813513107953614
-0.1710804876452767
-0.9515784370085184
-0.15813513107953614
-0.1710804876452767
-0.9515784370085184
-0.15813513107953614
-0.1710804876452767
-0.9515784370085184
-0.15813513107953614
-0.1710804876452767
-0.9511759853046126
-0.1582702470453135
-0.17117005098794447
-0.9511759853046126
-0.1582702470453135
-0.17117005098794447
-0.9511759853046126
-0.1582702470453135
-0.17117005098794447
-0.9511759853046126
-0.1582702470453135
-0.17117005098794447
-0.9496346812483889
-0.1579752731373803
-0.1715091208022105
-0.9496346812483889
-0.1579752731373803
-0.1715091208022105
-0.9496346812483889
-0.1579752731373803
-0.1715091208022105
-0.9496346812483889
-0.1579752731373803
-0.1715091208022105
-0.9490970063212911
-0.15744268014837268
-0.17193944448683496
-0.9490970063212911
-0.15744268014837268
-0.17193944448683496
-0.9490970063212911
-0.15744268014837268
-0.17193944448683496
-0.9490970063212911
-0.15744268014837268
-0.17193944448683496
-0.9495094220607319
-0.1563897970506046
-0.17273225651122587
-0.9495094220607319
-0.1563897970506046
-0.17273225651122587
-0.9495094220607319
-0.1563897970506046
-0.17273225651122587
-0.9495094220607319
-0.1563897970506046
-0.17273225651122587
-0.9507929900927108
-0.15536708787914422
-0.17363047716289756
-0.9507929900927108
-0.15536708787914422
-0.17363047716289756
-0.9507929900927108
-0.15536708787914422
-0.17363047716289756
-0.9507929900927108
-0.15536708787914422
-0.17363047716289756
-0.9520958663834305
-0.15418250768564307
-0.17447596379211638
-0.9520958663834305
-0.15418250768564307
-0.17447596379211638
-0.9520958663834305
-0.15418250768564307
-0.17447596379211638
-0.9520958663834305
-0.15418250768564307
-0.17447596379211638
-0.9514830134800907
-0.1536378949501027
-0.1751748025874506
-0.9514830134800907
-0.1536378949501027
-0.1751748025874506
-0.9514830134800907
-0.1536378949501027
-0.1751748025874506
-0.9514830134800907
-0.1536378949501027
-0.1751748025874506
-0.9510883851430029
-0.15339420699143438
-0.175594730406345
-0.9510883851430029
-0.15339420699143438
-0.175594730406345
-0.9510883851430029
-0.15339420699143438
-0.175594730406345
-0.9510883851430029
-0.15339420699143438
-0.175594730406345
-0.9517513596339995
-0.15384054476262732
-0.17576130249674624
-0.9517513596339995
-0.15384054476262732
-0.17576130249674624
-0.9517513596339995
-0.15384054476262732
-0.17576130249674624
-0.9517513596339995
-0.15384054476262732
-0.17576130249674624
-0.9526141238369905
-0.15424898619191682
-0.17553567685912674
-0.9526141238369905
-0.15424898619191682
-0.17553567685912674
-0.9526141238369905
-0.15424898619191682
-0.17553567685912674
-0.9526141238369905
-0.15424898619191682
-0.17553567685912674
-0.9534319902809486
-0.15442782786854348
-0.17541556723537594
-0.9534319902809486
-0.15442782786854348
-0.17541556723537594
-0.9534319902809486
-0.15442782786854348
-0.17541556723537594
-0.9534319902809486
-0.15442782786854348
-0.17541556723537594
-0.9535413916398298
-0.1544329953017934
-0.17540218164157795
-0.9535413916398298
-0.1544329953017934
-0.17540218164157795
-0.9535413916398298
-0.1544329953017934
-0.17540218164157795
-0.9535413916398298
-0.1544329953017934
-0.17540218164157795
-0.9535227728231163
-0.15459599471254934
-0.1754560155374182
-0.9535227728231163
-0.15459599471254934
-0.1754560155374182
-0.9535227728231163
-0.15459599471254934
-0.1754560155374182
-0.9535227728231163
-0.15459599471254934
-0.1754560155374182
-0.9537889687228498
-0.15456638639309292
-0.17559941821269495
-0.9537889687228498
-0.15456638639309292
-0.17559941821269495
-0.9537889687228498
-0.15456638639309292
-0.17559941821269495
-0.9537889687228498
-0.15456638639309292
-0.17559941821269495
-0.9539481421465003
-0.15426230777043096
-0.17603236904176128
-0.9539481421465003
-0.15426230777043096
-0.17603236904176128
-0.9539481421465003
-0.15426230777043096
-0.17603236904176128
-0.9539481421465003
-0.15426230777043096
-0.17603236904176128
-0.9539481421465003
-0.15426230777043096
-0.17603236904176128
-0.9539481421465003
-0.15426230777043096
-0.17603236904176128
-0.9550638672288372
-0.15469614888571095
-0.17605889406171893
-0.9550638672288372
-0.15469614888571095
-0.17605889406171893
-0.9550638672288372
-0.15469614888571095
-0.17605889406171893
-0.9550638672288372
-0.15469614888571095
-0.17605889406171893
-0.956142680103936
-0.15495369236566894
-0.17602607344664317
-0.956142680103936
-0.15495369236566894
-0.17602607344664317
-0.956142680103936
-0.15495369236566894
-0.17602607344664317
-0.956142680103936
-0.15495369236566894
-0.17602607344664317
-0.9559825183452234
-0.15532966810093718
-0.17625613902684556
-0.9559825183452234
-0.15532966810093718
-0.17625613902684556
-0.9559825183452234
-0.15532966810093718
-0.17625613902684556
-0.9559825183452234
-0.15532966810093718
-0.17625613902684556
-0.9547194356293832
-0.15571890906757613
-0.17651760084943474
-0.9547194356293832
-0.15571890906757613
-0.17651760084943474
-0.9547194356293832
-0.15571890906757613
-0.17651760084943474
-0.9547194356293832
-0.15571890906757613
-0.17651760084943474
-0.953600135238528
-0.15562577513446027
-0.17687889649969005
-0.953600135238528
-0.15562577513446027
-0.17687889649969005
-0.953600135238528
-0.15562577513446027
-0.17687889649969005
-0.953600135238528
-0.15562577513446027
-0.17687889649969005
-0.9537090384210574
-0.1552003531696411
-0.17736203509855283
-0.9537090384210574
-0.1552003531696411
-0.17736203509855283
-0.9537090384210574
-0.1552003531696411
-0.17736203509855283
-0.9537090384210574
-0.1552003531696411
-0.17736203509855283
-0.9539830874061319
-0.15479361022696106
-0.17783703233526973
-0.9539830874061319
-0.15479361022696106
-0.17783703233526973
-0.9539830874061319
-0.15479361022696106
-0.17783703233526973
-0.9539830874061319
-0.15479361022696106
-0.17783703233526973
-0.9537992205053516
-0.1542957820322681
-0.17797685056275123
-0.9537992205053516
-0.1542957820322681
-0.17797685056275123
-0.9537992205053516
-0.1542957820322681
-0.17797685056275123
-0.9537992205053516
-0.1542957820322681
-0.17797685056275123
-0.9526560950906346
-0.1544727538593034
-0.17833566960125513
-0.9526560950906346
-0.1544727538593034
-0.17833566960125513
-0.9526560950906346
-0.1544727538593034
-0.17833566960125513
-0.9526560950906346
-0.1544727538593034
-0.17833566960125513
-0.9522238321967719
-0.15455458502938255
-0.17886388237220757
-0.9522238321967719
-0.15455458502938255
-0.17886388237220757
-0.9522238321967719
-0.15455458502938255
-0.17886388237220757
-0.9522238321967719
-0.15455458502938255
-0.17886388237220757
-0.9523360802421552
-0.15429039482116225
-0.1791262517922764
-0.9523360802421552
-0.15429039482116225
-0.1791262517922764
-0.9523360802421552
-0.15429039482116225
-0.1791262517922764
-0.9523360802421552
-0.15429039482116225
-0.1791262517922764
-0.9517823739517371
-0.1539192556512386
-0.17960990109695907
-0.9517823739517371
-0.1539192556512386
-0.17960990109695907
-0.9517823739517371
-0.1539192556512386
-0.17960990109695907
-0.9517823739517371
-0.1539192556512386
-0.17960990109695907
-0.9517823739517371
-0.1539192556512386
-0.17960990109695907
-0.9517823739517371
-0.1539192556512386
-0.17960990109695907
-0.9517823739517371
-0.1539192556512386
-0.17960990109695907
-0.9517823739517371
-0.1539192556512386
-0.17960990109695907
-0.9518013232680238
-0.1537563317823338
-0.17955591504385288
-0.9518013232680238
-0.1537563317823338
-0.17955591504385288
-0.9518013232680238
-0.1537563317823338
-0.17955591504385288
-0.9518013232680238
-0.1537563317823338
-0.17955591504385288
-0.9513542078693972
-0.15366007977233415
-0.17975015877608858
-0.9513542078693972
-0.15366007977233415
-0.17975015877608858
-0.9513542078693972
-0.15366007977233415
-0.17975015877608858
-0.9513542078693972
-0.15366007977233415
-0.17975015877608858
-0.9513542078693972
-0.15366007977233415
-0.17975015877608858
-0.9513542078693972
-0.15366007977233415
-0.17975015877608858
-0.9513542078693972
-0.15366007977233415
-0.17975015877608858
-0.9513542078693972
-0.15366007977233415
-0.17975015877608858
-0.9513542078693972
-0.15366007977233415
-0.17975015877608858
-0.9513542078693972
-0.15366007977233415
-0.17975015877608858
-0.9513542078693972
-0.15366007977233415
-0.17975015877608858
-0.9513542078693972
-0.15366007977233415
-0.17975015877608858
-0.9513542078693972
-0.15366007977233415
-0.17975015877608858
-0.9513542078693972
-0.15366007977233415
-0.17975015877608858
-0.9513542078693972
-0.15366007977233415
-0.17975015877608858
-0.9513542078693972
-0.15366007977233415
-0.17975015877608858
-0.9519502661855791
-0.15366838062868918
-0.17987769416150193
-0.9519502661855791
-0.15366838062868918
-0.17987769416150193
-0.9519502661855791
-0.15366838062868918
-0.17987769416150193
-0.9519502661855791
-0.15366838062868918
-0.17987769416150193
-0.9513477880960949
-0.15383904831869935
-0.18035827275734714
-0.9513477880960949
-0.15383904831869935
-0.18035827275734714
-0.9513477880960949
-0.15383904831869935
-0.18035827275734714
-0.9513477880960949
-0.15383904831869935
-0.18035827275734714
-0.950380552712492
-0.15381672187411521
-0.1808197892474541
-0.950380552712492
-0.15381672187411521
-0.1808197892474541
-0.950380552712492
-0.15381672187411521
-0.1808197892474541
-0.950380552712492
-0.15381672187411521
-0.1808197892474541
-0.9503940425702517
-0.1537620167870599
-0.18071032407523396
-0.9503940425702517
-0.1537620167870599
-0.18071032407523396
-0.9503940425702517
-0.1537620167870599
-0.18071032407523396
-0.9503940425702517
-0.1537620167870599
-0.18071032407523396
-0.9510544771634485
-0.1539776844257655
-0.18043375565972228
-0.9510544771634485
-0.1539776844257655
-0.18043375565972228
-0.9510544771634485
-0.1539776844257655
-0.18043375565972228
-0.9510544771634485
-0.1539776844257655
-0.18043375565972228
-0.9510544771634485
-0.1539776844257655
-0.18043375565972228
-0.9510544771634485
-0.1539776844257655
-0.18043375565972228
-0.9510544771634485
-0.1539776844257655
-0.18043375565972228
-0.9510544771634485
-0.1539776844257655
-0.18043375565972228
-0.9507341372750334
-0.15422573842308004
-0.1807281947593983
-0.9507341372750334
-0.15422573842308004
-0.1807281947593983
-0.9507341372750334
-0.15422573842308004
-0.1807281947593983
-0.9507341372750334
-0.15422573842308004
-0.1807281947593983
-0.9517409167320446
-0.1541545631027613
-0.18060172914056377
-0.9517409167320446
-0.1541545631027613
-0.18060172914056377
-0.9517409167320446
-0.1541545631027613
-0.18060172914056377
-0.9517409167320446
-0.1541545631027613
-0.18060172914056377
-0.9518059485520877
-0.15371916816036155
-0.18027488409011516
-0.9518059485520877
-0.15371916816036155
-0.18027488409011516
-0.9518059485520877
-0.15371916816036155
-0.18027488409011516
-0.9518059485520877
-0.15371916816036155
-0.18027488409011516
-0.9518059485520877
-0.15371916816036155
-0.18027488409011516
-0.9518059485520877
-0.15371916816036155
-0.18027488409011516
-0.9518059485520877
-0.15371916816036155
-0.18027488409011516
-0.9518059485520877
-0.15371916816036155
-0.18027488409011516
-0.9511226026589068
-0.1532726763271448
-0.1803824184580691
-0.9511226026589068
-0.1532726763271448
-0.1803824184580691
-0.9511226026589068
-0.1532726763271448
-0.1803824184580691
-0.9511226026589068
-0.1532726763271448
-0.1803824184580691
-0.9505432426029035
-0.152939793834493
-0.180420840917286
-0.9505432426029035
-0.152939793834493
-0.180420840917286
-0.9505432426029035
-0.152939793834493
-0.180420840917286
-0.9505432426029035
-0.152939793834493
-0.180420840917286
-0.9504337946126274
-0.15293429316687773
-0.1804342733440368
-0.9504337946126274
-0.15293429316687773
-0.1804342733440368
-0.9504337946126274
-0.15293429316687773
-0.1804342733440368
-0.9504337946126274
-0.15293429316687773
-0.1804342733440368
-0.9504337946126274
-0.15293429316687773
-0.1804342733440368
-0.9504337946126274
-0.15293429316687773
-0.1804342733440368
-0.9504337946126274
-0.15293429316687773
-0.1804342733440368
-0.9504337946126274
-0.15293429316687773
-0.1804342733440368
-0.9494953898654709
-0.15230051879102788
-0.1805082747483826
-0.9494953898654709
-0.15230051879102788
-0.1805082747483826
-0.9494953898654709
-0.15230051879102788
-0.1805082747483826
-0.9494953898654709
-0.15230051879102788
-0.1805082747483826
-0.9485325155349629
-0.15193774643950556
-0.18058064202969595
-0.9485325155349629
-0.15193774643950556
-0.18058064202969595
-0.9485325155349629
-0.15193774643950556
-0.18058064202969595
-0.9485325155349629
-0.15193774643950556
-0.18058064202969595
-0.9482375355655174
-0.1518446327196985
-0.18021244617085497
-0.9482375355655174
-0.1518446327196985
-0.18021244617085497
-0.9482375355655174
-0.1518446327196985
-0.18021244617085497
-0.9482375355655174
-0.1518446327196985
-0.18021244617085497
-0.9481280409557815
-0.15183909737335108
-0.18022580449040448
-0.9481280409557815
-0.15183909737335108
-0.18022580449040448
-0.9481280409557815
-0.15183909737335108
-0.18022580449040448
-0.9481280409557815
-0.15183909737335108
-0.18022580449040448
-0.9481280409557815
-0.15183909737335108
-0.18022580449040448
-0.9481280409557815
-0.15183909737335108
-0.18022580449040448
-0.9481280409557815
-0.15183909737335108
-0.18022580449040448
-0.9481280409557815
-0.15183909737335108
-0.18022580449040448
-0.9482375355655174
-0.1518446327196985
-0.18021244617085497
-0.9482375355655174
-0.1518446327196985
-0.18021244617085497
-0.9482375355655174
-0.1518446327196985
-0.18021244617085497
-0.9482375355655174
-0.1518446327196985
-0.18021244617085497
-0.9486709108026491
-0.15199586227848894
-0.18012829403107966
-0.9486709108026491
-0.15199586227848894
-0.18012829403107966
-0.9486709108026491
-0.15199586227848894
-0.18012829403107966
-0.9486709108026491
-0.15199586227848894
-0.18012829403107966
-0.9486709108026491
-0.15199586227848894
-0.18012829403107966
-0.9486709108026491
-0.15199586227848894
-0.18012829403107966
-0.9486709108026491
-0.15199586227848894
-0.18012829403107966
-0.9486709108026491
-0.15199586227848894
-0.18012829403107966
-0.9482470613710331
-0.1521298900657184
-0.18049129414483675
-0.9482470613710331
-0.1521298900657184
-0.18049129414483675
-0.9482470613710331
-0.1521298900657184
-0.18049129414483675
-0.9482470613710331
-0.1521298900657184
-0.18049129414483675
-0.9467240972889354
-0.15200422828177626
-0.18115884951186575
-0.9467240972889354
-0.15200422828177626
-0.18115884951186575
-0.9467240972889354
-0.15200422828177626
-0.18115884951186575
-0.9467240972889354
-0.15200422828177626
-0.18115884951186575
-0.9467220390147675
-0.15184219517947548
-0.1813786894567431
-0.9467220390147675
-0.15184219517947548
-0.1813786894567431
-0.9467220390147675
-0.15184219517947548
-0.1813786894567431
-0.9467220390147675
-0.15184219517947548
-0.1813786894567431
-0.9475617143401993
-0.1515907599861336
-0.18148094626258926
-0.9475617143401993
-0.1515907599861336
-0.18148094626258926
-0.9475617143401993
-0.1515907599861336
-0.18148094626258926
-0.9475617143401993
-0.1515907599861336
-0.18148094626258926
-0.9476939794947454
-0.15116339203777981
-0.18168836830974547
-0.9476939794947454
-0.15116339203777981
-0.18168836830974547
-0.9476939794947454
-0.15116339203777981
-0.18168836830974547
-0.9476939794947454
-0.15116339203777981
-0.18168836830974547
-0.9464230667372752
-0.1508307362749831
-0.18216444032852816
-0.9464230667372752
-0.1508307362749831
-0.18216444032852816
-0.9464230667372752
-0.1508307362749831
-0.18216444032852816
-0.9464230667372752
-0.1508307362749831
-0.18216444032852816
-0.9454700965803374
-0.15075193367159065
-0.18251478370611496
-0.9454700965803374
-0.15075193367159065
-0.18251478370611496
-0.9454700965803374
-0.15075193367159065
-0.18251478370611496
-0.9454700965803374
-0.15075193367159065
-0.18251478370611496
-0.9454643260220428
-0.15086023770321683
-0.18245971203364744
-0.9454643260220428
-0.15086023770321683
-0.18245971203364744
-0.9454643260220428
-0.15086023770321683
-0.18245971203364744
-0.9454643260220428
-0.15086023770321683
-0.18245971203364744
-0.946886656929746
-0.15067239936809865
-0.18280027319835476
-0.946886656929746
-0.15067239936809865
-0.18280027319835476
-0.946886656929746
-0.15067239936809865
-0.18280027319835476
-0.946886656929746
-0.15067239936809865
-0.18280027319835476
-0.9463232059216671
-0.15051552442038948
-0.1831714150793754
-0.9463232059216671
-0.15051552442038948
-0.1831714150793754
-0.9463232059216671
-0.15051552442038948
-0.1831714150793754
-0.9463232059216671
-0.15051552442038948
-0.1831714150793754
-0.945037829325531
-0.1500738391829255
-0.18397591633027183
-0.945037829325531
-0.1500738391829255
-0.18397591633027183
-0.945037829325531
-0.1500738391829255
-0.18397591633027183
-0.945037829325531
-0.1500738391829255
-0.18397591633027183
-0.9438094439444927
-0.1498067034084608
-0.18456616578793023
-0.9438094439444927
-0.1498067034084608
-0.18456616578793023
-0.9438094439444927
-0.1498067034084608
-0.18456616578793023
-0.9438094439444927
-0.1498067034084608
-0.18456616578793023
-0.9429411003971209
-0.15000321016833112
-0.18490233994952696
-0.9429411003971209
-0.15000321016833112
-0.18490233994952696
-0.9429411003971209
-0.15000321016833112
-0.18490233994952696
-0.9429411003971209
-0.15000321016833112
-0.18490233994952696
-0.9437322759772296
-0.15045745816854778
-0.1847846208317495
-0.9437322759772296
-0.15045745816854778
-0.1847846208317495
-0.9437322759772296
-0.15045745816854778
-0.1847846208317495
-0.9437322759772296
-0.15045745816854778
-0.1847846208317495
-0.944578538176204
-0.1509248634553063
-0.1846724273886482
-0.944578538176204
-0.1509248634553063
-0.1846724273886482
-0.944578538176204
-0.1509248634553063
-0.1846724273886482
-0.944578538176204
-0.1509248634553063
-0.1846724273886482
-0.9438404704355127
-0.151126938974901
-0.1847214687190935
-0.9438404704355127
-0.151126938974901
-0.1847214687190935
-0.9438404704355127
-0.151126938974901
-0.1847214687190935
-0.9438404704355127
-0.151126938974901
-0.1847214687190935
-0.9432874481480208
-0.1514159424488395
-0.18515277911558378
-0.9432874481480208
-0.1514159424488395
-0.18515277911558378
-0.9432874481480208
-0.1514159424488395
-0.18515277911558378
-0.9432874481480208
-0.1514159424488395
-0.18515277911558378
-0.9433068143088408
-0.15125327808055142
-0.18509810689953676
-0.9433068143088408
-0.15125327808055142
-0.18509810689953676
-0.9433068143088408
-0.15125327808055142
-0.18509810689953676
-0.9433068143088408
-0.15125327808055142
-0.18509810689953676
-0.9433127332105475
-0.15114492180427383
-0.18515304409756714
-0.9433127332105475
-0.15114492180427383
-0.18515304409756714
-0.9433127332105475
-0.15114492180427383
-0.18515304409756714
-0.9433127332105475
-0.15114492180427383
-0.18515304409756714
-0.9427509955700347
-0.15114919741042454
-0.18530457137421827
-0.9427509955700347
-0.15114919741042454
-0.18530457137421827
-0.9427509955700347
-0.15114919741042454
-0.18530457137421827
-0.9427509955700347
-0.15114919741042454
-0.18530457137421827
-0.9421967656805377
-0.15120752618503325
-0.18529158995359157
-0.9421967656805377
-0.15120752618503325
-0.18529158995359157
-0.9421967656805377
-0.15120752618503325
-0.18529158995359157
-0.9421967656805377
-0.15120752618503325
-0.18529158995359157
-0.9410867321118297
-0.15116156192575805
-0.18548502045516424
-0.9410867321118297
-0.15116156192575805
-0.18548502045516424
-0.9410867321118297
-0.15116156192575805
-0.18548502045516424
-0.9410867321118297
-0.15116156192575805
-0.18548502045516424
-0.9409770629457673
-0.15115567435570584
-0.18549846502434927
-0.9409770629457673
-0.15115567435570584
-0.18549846502434927
-0.9409770629457673
-0.15115567435570584
-0.18549846502434927
-0.9409770629457673
-0.15115567435570584
-0.18549846502434927
-0.9412545457675345
-0.15067962418719114
-0.18530706385230156
-0.9412545457675345
-0.15067962418719114
-0.18530706385230156
-0.9412545457675345
-0.15067962418719114
-0.18530706385230156
-0.9412545457675345
-0.15067962418719114
-0.18530706385230156
-0.9406058797155206
-0.15001415775737667
-0.18524636904666728
-0.9406058797155206
-0.15001415775737667
-0.18524636904666728
-0.9406058797155206
-0.15001415775737667
-0.18524636904666728
-0.9406058797155206
-0.15001415775737667
-0.18524636904666728
-0.9388583209857017
-0.14892276561265788
-0.18570600282973854
-0.9388583209857017
-0.14892276561265788
-0.18570600282973854
-0.9388583209857017
-0.14892276561265788
-0.18570600282973854
-0.9388583209857017
-0.14892276561265788
-0.18570600282973854
-0.9380372579008137
-0.14802068765039267
-0.18603444702033753
-0.9380372579008137
-0.14802068765039267
-0.18603444702033753
-0.9380372579008137
-0.14802068765039267
-0.18603444702033753
-0.9380372579008137
-0.14802068765039267
-0.18603444702033753
-0.9379275568319193
-0.14801466294503673
-0.18604771974210887
-0.9379275568319193
-0.14801466294503673
-0.18604771974210887
-0.9379275568319193
-0.14801466294503673
-0.18604771974210887
-0.9379275568319193
-0.14801466294503673
-0.18604771974210887
-0.9394388445736563
-0.14868949784982435
-0.18483632480879086
-0.9394388445736563
-0.14868949784982435
-0.18483632480879086
-0.9394388445736563
-0.14868949784982435
-0.18483632480879086
-0.9394388445736563
-0.14868949784982435
-0.18483632480879086
-0.940388134694231
-0.14920433382380152
-0.1839940262162935
-0.940388134694231
-0.14920433382380152
-0.1839940262162935
-0.940388134694231
-0.14920433382380152
-0.1839940262162935
-0.940388134694231
-0.14920433382380152
-0.1839940262162935
-0.9406917682011288
-0.14944617919994888
-0.18331555230503668
-0.9406917682011288
-0.14944617919994888
-0.18331555230503668
-0.9406917682011288
-0.14944617919994888
-0.18331555230503668
-0.9406917682011288
-0.14944617919994888
-0.18331555230503668
-0.9410802868027252
-0.1499646695378531
-0.18262366159803325
-0.9410802868027252
-0.1499646695378531
-0.18262366159803325
-0.9410802868027252
-0.1499646695378531
-0.18262366159803325
-0.9410802868027252
-0.1499646695378531
-0.18262366159803325
-0.9440688145227121
-0.15093980068687052
-0.18190026114226088
-0.9440688145227121
-0.15093980068687052
-0.18190026114226088
-0.9440688145227121
-0.15093980068687052
-0.18190026114226088
-0.9440688145227121
-0.15093980068687052
-0.18190026114226088
-0.9494003163757385
-0.15107493298935826
-0.18029611588962938
-0.9494003163757385
-0.15107493298935826
-0.18029611588962938
-0.9494003163757385
-0.15107493298935826
-0.18029611588962938
-0.9494003163757385
-0.15107493298935826
-0.18029611588962938
-0.9538971995748468
-0.1506823421966769
-0.17869697279009084
-0.9538971995748468
-0.1506823421966769
-0.17869697279009084
-0.9538971995748468
-0.1506823421966769
-0.17869697279009084
-0.9538971995748468
-0.1506823421966769
-0.17869697279009084
-0.9558059532138133
-0.14984927108833762
-0.17768741511063604
-0.9558059532138133
-0.14984927108833762
-0.17768741511063604
-0.9558059532138133
-0.14984927108833762
-0.17768741511063604
-0.9558059532138133
-0.14984927108833762
-0.17768741511063604
-0.9551694574209181
-0.14929190878151666
-0.17730185830411144
-0.9551694574209181
-0.14929190878151666
-0.17730185830411144
-0.9551694574209181
-0.14929190878151666
-0.17730185830411144
-0.9551694574209181
-0.14929190878151666
-0.17730185830411144
-0.9528026396486616
-0.14895834771600455
-0.1769777069111235
-0.9528026396486616
-0.14895834771600455
-0.1769777069111235
-0.9528026396486616
-0.14895834771600455
-0.1769777069111235
-0.9528026396486616
-0.14895834771600455
-0.1769777069111235
-0.9511161162702744
-0.14984236393679845
-0.17643861203661793
-0.9511161162702744
-0.14984236393679845
-0.17643861203661793
-0.9511161162702744
-0.14984236393679845
-0.17643861203661793
-0.9511161162702744
-0.14984236393679845
-0.17643861203661793
-0.9527661466388483
-0.15030740393828446
-0.17587251567651843
-0.9527661466388483
-0.15030740393828446
-0.17587251567651843
-0.9527661466388483
-0.15030740393828446
-0.17587251567651843
-0.9527661466388483
-0.15030740393828446
-0.17587251567651843
-0.9546003190187892
-0.150196328664247
-0.17574077274999345
-0.9546003190187892
-0.150196328664247
-0.17574077274999345
-0.9546003190187892
-0.150196328664247
-0.17574077274999345
-0.9546003190187892
-0.150196328664247
-0.17574077274999345
-0.9544939158444744
-0.14941957484939
-0.17586361106777926
-0.9544939158444744
-0.14941957484939
-0.17586361106777926
-0.9544939158444744
-0.14941957484939
-0.17586361106777926
-0.9544939158444744
-0.14941957484939
-0.17586361106777926
-0.9520184880161033
-0.1486514482727537
-0.1760487476777473
-0.9520184880161033
-0.1486514482727537
-0.1760487476777473
-0.9520184880161033
-0.1486514482727537
-0.1760487476777473
-0.9520184880161033
-0.1486514482727537
-0.1760487476777473
-0.9510178807756139
-0.1491187475469747
-0.17639521502806954
-0.9510178807756139
-0.1491187475469747
-0.17639521502806954
-0.9510178807756139
-0.1491187475469747
-0.17639521502806954
-0.9510178807756139
-0.1491187475469747
-0.17639521502806954
-0.951374079571154
-0.1501905840765487
-0.17625143161798096
-0.951374079571154
-0.1501905840765487
-0.17625143161798096
-0.951374079571154
-0.1501905840765487
-0.17625143161798096
-0.951374079571154
-0.1501905840765487
-0.17625143161798096
-0.9523855447420749
-0.151655638989162
-0.17643924922580975
-0.9523855447420749
-0.151655638989162
-0.17643924922580975
-0.9523855447420749
-0.151655638989162
-0.17643924922580975
-0.9523855447420749
-0.151655638989162
-0.17643924922580975
-0.9546804573390143
-0.15323227371667872
-0.17625778039094386
-0.9546804573390143
-0.15323227371667872
-0.17625778039094386
-0.9546804573390143
-0.15323227371667872
-0.17625778039094386
-0.9546804573390143
-0.15323227371667872
-0.17625778039094386
-0.954651329076449
-0.15454414428077212
-0.175869917761832
-0.954651329076449
-0.15454414428077212
-0.175869917761832
-0.954651329076449
-0.15454414428077212
-0.175869917761832
-0.954651329076449
-0.15454414428077212
-0.175869917761832
-0.9534928862142215
-0.15597969693569624
-0.1757322531792627
-0.9534928862142215
-0.15597969693569624
-0.1757322531792627
-0.9534928862142215
-0.15597969693569624
-0.1757322531792627
-0.9534928862142215
-0.15597969693569624
-0.1757322531792627
-0.9542168377264892
-0.15747590520034066
-0.1760469760586162
-0.9542168377264892
-0.15747590520034066
-0.1760469760586162
-0.9542168377264892
-0.15747590520034066
-0.1760469760586162
-0.9542168377264892
-0.15747590520034066
-0.1760469760586162
-0.9563948805261714
-0.15876035813673073
-0.17559326720963706
-0.9563948805261714
-0.15876035813673073
-0.17559326720963706
-0.9563948805261714
-0.15876035813673073
-0.17559326720963706
-0.9563948805261714
-0.15876035813673073
-0.17559326720963706
-0.9575837721415851
-0.16022378468319498
-0.17493567134709587
-0.9575837721415851
-0.16022378468319498
-0.17493567134709587
-0.9575837721415851
-0.16022378468319498
-0.17493567134709587
-0.9575837721415851
-0.16022378468319498
-0.17493567134709587
-0.9575611209596222
-0.1616961236549864
-0.1743245843346245
-0.9575611209596222
-0.1616961236549864
-0.1743245843346245
-0.9575611209596222
-0.1616961236549864
-0.1743245843346245
-0.9575611209596222
-0.1616961236549864
-0.1743245843346245
-0.9576219122045679
-0.16301465363094295
-0.17419523571202952
-0.9576219122045679
-0.16301465363094295
-0.17419523571202952
-0.9576219122045679
-0.16301465363094295
-0.17419523571202952
-0.9576219122045679
-0.16301465363094295
-0.17419523571202952
-0.9578544600857634
-0.16370605335081315
-0.17466636922372628
-0.9578544600857634
-0.16370605335081315
-0.17466636922372628
-0.9578544600857634
-0.16370605335081315
-0.17466636922372628
-0.9578544600857634
-0.16370605335081315
-0.17466636922372628
-0.9578456308371275
-0.16388719753400452
-0.17527424344363107
-0.9578456308371275
-0.16388719753400452
-0.17527424344363107
-0.9578456308371275
-0.16388719753400452
-0.17527424344363107
-0.9578456308371275
-0.16388719753400452
-0.17527424344363107
-0.9578456308371275
-0.16388719753400452
-0.17527424344363107
-0.9578456308371275
-0.16388719753400452
-0.17527424344363107
-0.9578456308371275
-0.16388719753400452
-0.17527424344363107
-0.9578456308371275
-0.16388719753400452
-0.17527424344363107
-0.9578456308371275
-0.16388719753400452
-0.17527424344363107
-0.9578456308371275
-0.16388719753400452
-0.17527424344363107
-0.9578456308371275
-0.16388719753400452
-0.17527424344363107
-0.9578456308371275
-0.16388719753400452
-0.17527424344363107
-0.9562033555855635
-0.16313556034663818
-0.1753012342631628
-0.9562033555855635
-0.16313556034663818
-0.1753012342631628
-0.9562033555855635
-0.16313556034663818
-0.1753012342631628
-0.9562033555855635
-0.16313556034663818
-0.1753012342631628
-0.9552103273693141
-0.16288532002599562
-0.17559933265716923
-0.9552103273693141
-0.16288532002599562
-0.17559933265716923
-0.9552103273693141
-0.16288532002599562
-0.17559933265716923
-0.9552103273693141
-0.16288532002599562
-0.17559933265716923
-0.9551147115783453
-0.1628254604502353
-0.17550371686620048
-0.9551147115783453
-0.1628254604502353
-0.17550371686620048
-0.9551147115783453
-0.1628254604502353
-0.17550371686620048
-0.9551147115783453
-0.1628254604502353
-0.17550371686620048
-0.9548151678969419
-0.16334216321960968
-0.17524818590313138
-0.9548151678969419
-0.16334216321960968
-0.17524818590313138
-0.9548151678969419
-0.16334216321960968
-0.17524818590313138
-0.9548151678969419
-0.16334216321960968
-0.17524818590313138
-0.9552213057778279
-0.16387134406119716
-0.17510322004376547
-0.9552213057778279
-0.16387134406119716
-0.17510322004376547
-0.9552213057778279
-0.16387134406119716
-0.17510322004376547
-0.9552213057778279
-0.16387134406119716
-0.17510322004376547
-0.955173718724945
-0.16441334510887726
-0.17509952193636483
-0.955173718724945
-0.16441334510887726
-0.17509952193636483
-0.955173718724945
-0.16441334510887726
-0.17509952193636483
-0.955173718724945
-0.16441334510887726
-0.17509952193636483
-0.9553389112013552
-0.16443195990187182
-0.17509049870507193
-0.9553389112013552
-0.16443195990187182
-0.17509049870507193
-0.9553389112013552
-0.16443195990187182
-0.17509049870507193
-0.9553389112013552
-0.16443195990187182
-0.17509049870507193
-0.9550462571716882
-0.1640688181737719
-0.1750008561050432
-0.9550462571716882
-0.1640688181737719
-0.1750008561050432
-0.9550462571716882
-0.1640688181737719
-0.1750008561050432
-0.9550462571716882
-0.1640688181737719
-0.1750008561050432
-0.9550462571716882
-0.1640688181737719
-0.1750008561050432
-0.9550462571716882
-0.1640688181737719
-0.1750008561050432
-0.9550462571716882
-0.1640688181737719
-0.1750008561050432
-0.9550462571716882
-0.1640688181737719
-0.1750008561050432
-0.9558842404832901
-0.16408420740297192
-0.17482259155873614
-0.9558842404832901
-0.16408420740297192
-0.17482259155873614
-0.9558842404832901
-0.16408420740297192
-0.17482259155873614
-0.9558842404832901
-0.16408420740297192
-0.17482259155873614
-0.9567299183056434
-0.16469035363835507
-0.1739255385662206
-0.9567299183056434
-0.16469035363835507
-0.1739255385662206
-0.9567299183056434
-0.16469035363835507
-0.1739255385662206
-0.9567299183056434
-0.16469035363835507
-0.1739255385662206
-0.9557951390206956
-0.16515385610395897
-0.1734551505693273
-0.9557951390206956
-0.16515385610395897
-0.1734551505693273
-0.9557951390206956
-0.16515385610395897
-0.1734551505693273
-0.9557951390206956
-0.16515385610395897
-0.1734551505693273
-0.9546630503167168
-0.16531458150931344
-0.17299130866170503
-0.9546630503167168
-0.16531458150931344
-0.17299130866170503
-0.9546630503167168
-0.16531458150931344
-0.17299130866170503
-0.9546630503167168
-0.16531458150931344
-0.17299130866170503
-0.9547865264000733
-0.1652643899745435
-0.17286783257834848
-0.9547865264000733
-0.1652643899745435
-0.17286783257834848
-0.9547865264000733
-0.1652643899745435
-0.17286783257834848
-0.9547865264000733
-0.1652643899745435
-0.17286783257834848
-0.9553738766039291
-0.16471561500439869
-0.17299065308652203
-0.9553738766039291
-0.16471561500439869
-0.17299065308652203
-0.9553738766039291
-0.16471561500439869
-0.17299065308652203
-0.9553738766039291
-0.16471561500439869
-0.17299065308652203
-0.9548525441322223
-0.16405678006781255
-0.17265125415738325
-0.9548525441322223
-0.16405678006781255
-0.17265125415738325
-0.9548525441322223
-0.16405678006781255
-0.17265125415738325
-0.9548525441322223
-0.16405678006781255
-0.17265125415738325
-0.954391507283804
-0.16330368578774596
-0.1723720069764299
-0.954391507283804
-0.16330368578774596
-0.1723720069764299
-0.954391507283804
-0.16330368578774596
-0.1723720069764299
-0.954391507283804
-0.16330368578774596
-0.1723720069764299
-0.9540074544551385
-0.16277328119197262
-0.17224208316251244
-0.9540074544551385
-0.16277328119197262
-0.17224208316251244
-0.9540074544551385
-0.16277328119197262
-0.17224208316251244
-0.9540074544551385
-0.16277328119197262
-0.17224208316251244
-0.9539518258815903
-0.16275969328937934
-0.17223726159294694
-0.9539518258815903
-0.16275969328937934
-0.17223726159294694
-0.9539518258815903
-0.16275969328937934
-0.17223726159294694
-0.9539518258815903
-0.16275969328937934
-0.17223726159294694
-0.9542533978615282
-0.1629422802034127
-0.17171905415095168
-0.9542533978615282
-0.1629422802034127
-0.17171905415095168
-0.9542533978615282
-0.1629422802034127
-0.17171905415095168
-0.9542533978615282
-0.1629422802034127
-0.17171905415095168
-0.9556947973381654
-0.16332062674663209
-0.17050445663783273
-0.9556947973381654
-0.16332062674663209
-0.17050445663783273
-0.9556947973381654
-0.16332062674663209
-0.17050445663783273
-0.9556947973381654
-0.16332062674663209
-0.17050445663783273
-0.9563807800133152
-0.16379890385714946
-0.16967250003217402
-0.9563807800133152
-0.16379890385714946
-0.16967250003217402
-0.9563807800133152
-0.16379890385714946
-0.16967250003217402
-0.9563807800133152
-0.16379890385714946
-0.16967250003217402
-0.9562337345383262
-0.16415576931265835
-0.16907430533880272
-0.9562337345383262
-0.16415576931265835
-0.16907430533880272
-0.9562337345383262
-0.16415576931265835
-0.16907430533880272
-0.9562337345383262
-0.16415576931265835
-0.16907430533880272
-0.956389907357062
-0.1646589292412636
-0.16867670152332215
-0.956389907357062
-0.1646589292412636
-0.16867670152332215
-0.956389907357062
-0.1646589292412636
-0.16867670152332215
-0.956389907357062
-0.1646589292412636
-0.16867670152332215
-0.9569402460077614
-0.16520689891136758
-0.16879621968845981
-0.9569402460077614
-0.16520689891136758
-0.16879621968845981
-0.9569402460077614
-0.16520689891136758
-0.16879621968845981
-0.9569402460077614
-0.16520689891136758
-0.16879621968845981
-0.9563858690001522
-0.16473166601127365
-0.16934034386116015
-0.9563858690001522
-0.16473166601127365
-0.16934034386116015
-0.9563858690001522
-0.16473166601127365
-0.16934034386116015
-0.9563858690001522
-0.16473166601127365
-0.16934034386116015
-0.9549105535090477
-0.16511089074525498
-0.170166442759373
-0.9549105535090477
-0.16511089074525498
-0.170166442759373
-0.9549105535090477
-0.16511089074525498
-0.170166442759373
-0.9549105535090477
-0.16511089074525498
-0.170166442759373
-0.9550575285368668
-0.1655255887425706
-0.17065388293689351
-0.9550575285368668
-0.1655255887425706
-0.17065388293689351
-0.9550575285368668
-0.1655255887425706
-0.17065388293689351
-0.9550575285368668
-0.1655255887425706
-0.17065388293689351
-0.9549693630567663
-0.1670043642903114
-0.17086839335624468
-0.9549693630567663
-0.1670043642903114
-0.17086839335624468
-0.9549693630567663
-0.1670043642903114
-0.17086839335624468
-0.9549693630567663
-0.1670043642903114
-0.17086839335624468
-0.956278876303133
-0.16859562875168715
-0.17069043502373793
-0.956278876303133
-0.16859562875168715
-0.17069043502373793
-0.956278876303133
-0.16859562875168715
-0.17069043502373793
-0.956278876303133
-0.16859562875168715
-0.17069043502373793
-0.9585792558715338
-0.1702733539744341
-0.17042920123666155
-0.9585792558715338
-0.1702733539744341
-0.17042920123666155
-0.9585792558715338
-0.1702733539744341
-0.17042920123666155
-0.9585792558715338
-0.1702733539744341
-0.17042920123666155
-0.9592458059534535
-0.17152439120014043
-0.16975636632289573
-0.9592458059534535
-0.17152439120014043
-0.16975636632289573
-0.9592458059534535
-0.17152439120014043
-0.16975636632289573
-0.9592458059534535
-0.17152439120014043
-0.16975636632289573
-0.9581106140396861
-0.17229721492995392
-0.1694052146586695
-0.9581106140396861
-0.17229721492995392
-0.1694052146586695
-0.9581106140396861
-0.17229721492995392
-0.1694052146586695
-0.9581106140396861
-0.17229721492995392
-0.1694052146586695
-0.9570127818538992
-0.17324747197046445
-0.16911302718090948
-0.9570127818538992
-0.17324747197046445
-0.16911302718090948
-0.9570127818538992
-0.17324747197046445
-0.16911302718090948
-0.9570127818538992
-0.17324747197046445
-0.16911302718090948
-0.9570127818538992
-0.17324747197046445
-0.16911302718090948
-0.9570127818538992
-0.17324747197046445
-0.16911302718090948
-0.9570127818538992
-0.17324747197046445
-0.16911302718090948
-0.9570127818538992
-0.17324747197046445
-0.16911302718090948
-0.9579791342047747
-0.17232959799595443
-0.16897458362122292
-0.9579791342047747
-0.17232959799595443
-0.16897458362122292
-0.9579791342047747
-0.17232959799595443
-0.16897458362122292
-0.9579791342047747
-0.17232959799595443
-0.16897458362122292
-0.9550094274782502
-0.17108908265675116
-0.16891150511111186
-0.9550094274782502
-0.17108908265675116
-0.16891150511111186
-0.9550094274782502
-0.17108908265675116
-0.16891150511111186
-0.9550094274782502
-0.17108908265675116
-0.16891150511111186
-0.9534703600600261
-0.1702745355537569
-0.17036922645282263
-0.9534703600600261
-0.1702745355537569
-0.17036922645282263
-0.9534703600600261
-0.1702745355537569
-0.17036922645282263
-0.9534703600600261
-0.1702745355537569
-0.17036922645282263
-0.9549239996674772
-0.169928784551905
-0.17172861866890565
-0.9549239996674772
-0.169928784551905
-0.17172861866890565
-0.9549239996674772
-0.169928784551905
-0.17172861866890565
-0.9549239996674772
-0.169928784551905
-0.17172861866890565
-0.9564598354693785
-0.16966729422771187
-0.17137852058664077
-0.9564598354693785
-0.16966729422771187
-0.17137852058664077
-0.9564598354693785
-0.16966729422771187
-0.17137852058664077
-0.9564598354693785
-0.16966729422771187
-0.17137852058664077
-0.9545590685978191
-0.16950485310783514
-0.17126948482952264
-0.9545590685978191
-0.16950485310783514
-0.17126948482952264
-0.9545590685978191
-0.16950485310783514
-0.17126948482952264
-0.9545590685978191
-0.16950485310783514
-0.17126948482952264
-0.9526208319109206
-0.16862675675195427
-0.1716542152181197
-0.9526208319109206
-0.16862675675195427
-0.1716542152181197
-0.9526208319109206
-0.16862675675195427
-0.1716542152181197
-0.9526208319109206
-0.16862675675195427
-0.1716542152181197
-0.9506973963853558
-0.1674234841132986
-0.1722035249300203
-0.9506973963853558
-0.1674234841132986
-0.1722035249300203
-0.9506973963853558
-0.1674234841132986
-0.1722035249300203
-0.9506973963853558
-0.1674234841132986
-0.1722035249300203
-0.9478440100758911
-0.16707900571117715
-0.17250588480070825
-0.9478440100758911
-0.16707900571117715
-0.17250588480070825
-0.9478440100758911
-0.16707900571117715
-0.17250588480070825
-0.9478440100758911
-0.16707900571117715
-0.17250588480070825
-0.9465420451871573
-0.16729310531065394
-0.17271723004029976
-0.9465420451871573
-0.16729310531065394
-0.17271723004029976
-0.9465420451871573
-0.16729310531065394
-0.17271723004029976
-0.9465420451871573
-0.16729310531065394
-0.17271723004029976
-0.9470835741536643
-0.16678376880624388
-0.17266735941135788
-0.9470835741536643
-0.16678376880624388
-0.17266735941135788
-0.9470835741536643
-0.16678376880624388
-0.17266735941135788
-0.9470835741536643
-0.16678376880624388
-0.17266735941135788
-0.9485416325275279
-0.16626431684124124
-0.17288803306739856
-0.9485416325275279
-0.16626431684124124
-0.17288803306739856
-0.9485416325275279
-0.16626431684124124
-0.17288803306739856
-0.9485416325275279
-0.16626431684124124
-0.17288803306739856
-0.9468618663965269
-0.16553101042221552
-0.17401757255129993
-0.9468618663965269
-0.16553101042221552
-0.17401757255129993
-0.9468618663965269
-0.16553101042221552
-0.17401757255129993
-0.9468618663965269
-0.16553101042221552
-0.17401757255129993
-0.9431014330678463
-0.1642326695725223
-0.17564468354503335
-0.9431014330678463
-0.1642326695725223
-0.17564468354503335
-0.9431014330678463
-0.1642326695725223
-0.17564468354503335
-0.9431014330678463
-0.1642326695725223
-0.17564468354503335
-0.9408009194109035
-0.16249286769054422
-0.17604957411369415
-0.9408009194109035
-0.16249286769054422
-0.17604957411369415
-0.9408009194109035
-0.16249286769054422
-0.17604957411369415
-0.9408009194109035
-0.16249286769054422
-0.17604957411369415
-0.9402914985629726
-0.16161883924630815
-0.17581430168169546
-0.9402914985629726
-0.16161883924630815
-0.17581430168169546
-0.9402914985629726
-0.16161883924630815
-0.17581430168169546
-0.9402914985629726
-0.16161883924630815
-0.17581430168169546
-0.9399518072370059
-0.16065510780672992
-0.17562489046113627
-0.9399518072370059
-0.16065510780672992
-0.17562489046113627
-0.9399518072370059
-0.16065510780672992
-0.17562489046113627
-0.9399518072370059
-0.16065510780672992
-0.17562489046113627
-0.9395573283237116
-0.15990784499759195
-0.17587464577069584
-0.9395573283237116
-0.15990784499759195
-0.17587464577069584
-0.9395573283237116
-0.15990784499759195
-0.17587464577069584
-0.9395573283237116
-0.15990784499759195
-0.17587464577069584
-0.9398683848092899
-0.15917237898684658
-0.17623624615525404
-0.9398683848092899
-0.15917237898684658
-0.17623624615525404
-0.9398683848092899
-0.15917237898684658
-0.17623624615525404
-0.9398683848092899
-0.15917237898684658
-0.17623624615525404
-0.9405461254888328
-0.15906254420511007
-0.17612352554027777
-0.9405461254888328
-0.15906254420511007
-0.17612352554027777
-0.9405461254888328
-0.15906254420511007
-0.17612352554027777
-0.9405461254888328
-0.15906254420511007
-0.17612352554027777
-0.9416870838708028
-0.15872395334555572
-0.17598048844253114
-0.9416870838708028
-0.15872395334555572
-0.17598048844253114
-0.9416870838708028
-0.15872395334555572
-0.17598048844253114
-0.9416870838708028
-0.15872395334555572
-0.17598048844253114
-0.9410084340945428
-0.15840011876886115
-0.17658705538982186
-0.9410084340945428
-0.15840011876886115
-0.17658705538982186
-0.9410084340945428
-0.15840011876886115
-0.17658705538982186
-0.9410084340945428
-0.15840011876886115
-0.17658705538982186
-0.9400196125690498
-0.15787590031685328
-0.17715496129586233
-0.9400196125690498
-0.15787590031685328
-0.17715496129586233
-0.9400196125690498
-0.15787590031685328
-0.17715496129586233
-0.9400196125690498
-0.15787590031685328
-0.17715496129586233
-0.9393686471906568
-0.15744295558135346
-0.17754123911545475
-0.9393686471906568
-0.15744295558135346
-0.17754123911545475
-0.9393686471906568
-0.15744295558135346
-0.17754123911545475
-0.9393686471906568
-0.15744295558135346
-0.17754123911545475
-0.9399113047644251
-0.15693542782771286
-0.17749189011001712
-0.9399113047644251
-0.15693542782771286
-0.17749189011001712
-0.9399113047644251
-0.15693542782771286
-0.17749189011001712
-0.9399113047644251
-0.15693542782771286
-0.17749189011001712
-0.9410223076617523
-0.15654336722468049
-0.1777890317864435
-0.9410223076617523
-0.15654336722468049
-0.1777890317864435
-0.9410223076617523
-0.15654336722468049
-0.1777890317864435
-0.9410223076617523
-0.15654336722468049
-0.1777890317864435
-0.9414179645319475
-0.1565861032414585
-0.17830799913412576
-0.9414179645319475
-0.1565861032414585
-0.17830799913412576
-0.9414179645319475
-0.1565861032414585
-0.17830799913412576
-0.9414179645319475
-0.1565861032414585
-0.17830799913412576
-0.9419375062901076
-0.15681053371783876
-0.17914804955060357
-0.9419375062901076
-0.15681053371783876
-0.17914804955060357
-0.9419375062901076
-0.15681053371783876
-0.17914804955060357
-0.9419375062901076
-0.15681053371783876
-0.17914804955060357
-0.9428851669791487
-0.15686200516127272
-0.18034239886324416
-0.9428851669791487
-0.15686200516127272
-0.18034239886324416
-0.9428851669791487
-0.15686200516127272
-0.18034239886324416
-0.9428851669791487
-0.15686200516127272
-0.18034239886324416
-0.9425867992209768
-0.1569058299811157
-0.18130258081884654
-0.9425867992209768
-0.1569058299811157
-0.18130258081884654
-0.9425867992209768
-0.1569058299811157
-0.18130258081884654
-0.9425867992209768
-0.1569058299811157
-0.18130258081884654
-0.9410036948474676
-0.1570353326903252
-0.18169382400792483
-0.9410036948474676
-0.1570353326903252
-0.18169382400792483
-0.9410036948474676
-0.1570353326903252
-0.18169382400792483
-0.9410036948474676
-0.1570353326903252
-0.18169382400792483
-0.9407350228042229
-0.15713247708239705
-0.18221510962245555
-0.9407350228042229
-0.15713247708239705
-0.18221510962245555
-0.9407350228042229
-0.15713247708239705
-0.18221510962245555
-0.9407350228042229
-0.15713247708239705
-0.18221510962245555
-0.9423626498292235
-0.15700924540400835
-0.1826332123089217
-0.9423626498292235
-0.15700924540400835
-0.1826332123089217
-0.9423626498292235
-0.15700924540400835
-0.1826332123089217
-0.9423626498292235
-0.15700924540400835
-0.1826332123089217
-0.9439168536859445
-0.15639345663387783
-0.18317547657505717
-0.9439168536859445
-0.15639345663387783
-0.18317547657505717
-0.9439168536859445
-0.15639345663387783
-0.18317547657505717
-0.9439168536859445
-0.15639345663387783
-0.18317547657505717
-0.9440688983170634
-0.15603388719624472
-0.18377145164409422
-0.9440688983170634
-0.15603388719624472
-0.18377145164409422
-0.9440688983170634
-0.15603388719624472
-0.18377145164409422
-0.9440688983170634
-0.15603388719624472
-0.18377145164409422
-0.9441559341503252
-0.1567036799316032
-0.18398213710190633
-0.9441559341503252
-0.1567036799316032
-0.18398213710190633
-0.9441559341503252
-0.1567036799316032
-0.18398213710190633
-0.9441559341503252
-0.1567036799316032
-0.18398213710190633
-0.9441559341503252
-0.1567036799316032
-0.18398213710190633
-0.9441559341503252
-0.1567036799316032
-0.18398213710190633
-0.9441559341503252
-0.1567036799316032
-0.18398213710190633
-0.9441559341503252
-0.1567036799316032
-0.18398213710190633
-0.9454327816629151
-0.15633500024126978
-0.1842720053831693
-0.9454327816629151
-0.15633500024126978
-0.1842720053831693
-0.9454327816629151
-0.15633500024126978
-0.1842720053831693
-0.9454327816629151
-0.15633500024126978
-0.1842720053831693
-0.9467884028652377
-0.1563515705110778
-0.18449280682803212
-0.9467884028652377
-0.1563515705110778
-0.18449280682803212
-0.9467884028652377
-0.1563515705110778
-0.18449280682803212
-0.9467884028652377
-0.1563515705110778
-0.18449280682803212
-0.9465244057312234
-0.15654259273064222
-0.18412995915290412
-0.9465244057312234
-0.15654259273064222
-0.18412995915290412
-0.9465244057312234
-0.15654259273064222
-0.18412995915290412
-0.9465244057312234
-0.15654259273064222
-0.18412995915290412
-0.9458361580673993
-0.156202786856428
-0.1841820382492525
-0.9458361580673993
-0.156202786856428
-0.1841820382492525
-0.9458361580673993
-0.156202786856428
-0.1841820382492525
-0.9458361580673993
-0.156202786856428
-0.1841820382492525
-0.9456714580307468
-0.15618360269771853
-0.18419003089895702
-0.9456714580307468
-0.15618360269771853
-0.18419003089895702
-0.9456714580307468
-0.15618360269771853
-0.18419003089895702
-0.9456714580307468
-0.15618360269771853
-0.18419003089895702
-0.9464236143563235
-0.15592699519239106
-0.18402966191488468
-0.9464236143563235
-0.15592699519239106
-0.18402966191488468
-0.9464236143563235
-0.15592699519239106
-0.18402966191488468
-0.9464236143563235
-0.15592699519239106
-0.18402966191488468
-0.9472210987123741
-0.15604084693220133
-0.18351987569864275
-0.9472210987123741
-0.15604084693220133
-0.18351987569864275
-0.9472210987123741
-0.15604084693220133
-0.18351987569864275
-0.9472210987123741
-0.15604084693220133
-0.18351987569864275
-0.9475710240023756
-0.15627885186251705
-0.18229046492732828
-0.9475710240023756
-0.15627885186251705
-0.18229046492732828
-0.9475710240023756
-0.15627885186251705
-0.18229046492732828
-0.9475710240023756
-0.15627885186251705
-0.18229046492732828
-0.9465957300565209
-0.1563326718611529
-0.18131517098147368
-0.9465957300565209
-0.1563326718611529
-0.18131517098147368
-0.9465957300565209
-0.1563326718611529
-0.18131517098147368
-0.9465957300565209
-0.1563326718611529
-0.18131517098147368
-0.9457696594615552
-0.15652979336762507
-0.18110538330171208
-0.9457696594615552
-0.15652979336762507
-0.18110538330171208
-0.9457696594615552
-0.15652979336762507
-0.18110538330171208
-0.9457696594615552
-0.15652979336762507
-0.18110538330171208
-0.944422567934939
-0.15613664725184162
-0.18121442491030657
-0.944422567934939
-0.15613664725184162
-0.18121442491030657
-0.944422567934939
-0.15613664725184162
-0.18121442491030657
-0.944422567934939
-0.15613664725184162
-0.18121442491030657
-0.9438529740526154
-0.155655013068206
-0.18202643986465752
-0.9438529740526154
-0.155655013068206
-0.18202643986465752
-0.9438529740526154
-0.155655013068206
-0.18202643986465752
-0.9438529740526154
-0.155655013068206
-0.18202643986465752
-0.9450966400853007
-0.1555021411625389
-0.18248112452200774
-0.9450966400853007
-0.1555021411625389
-0.18248112452200774
-0.9450966400853007
-0.1555021411625389
-0.18248112452200774
-0.9450966400853007
-0.1555021411625389
-0.18248112452200774
-0.9461746653937093
-0.15576324773633665
-0.18244917901338537
-0.9461746653937093
-0.15576324773633665
-0.18244917901338537
-0.9461746653937093
-0.15576324773633665
-0.18244917901338537
-0.9461746653937093
-0.15576324773633665
-0.18244917901338537
-0.9461746653937093
-0.15576324773633665
-0.18244917901338537
-0.9461746653937093
-0.15576324773633665
-0.18244917901338537
-0.9461746653937093
-0.15576324773633665
-0.18244917901338537
-0.9461746653937093
-0.15576324773633665
-0.18244917901338537
-0.9454947689838814
-0.15570902016368363
-0.18278041221041794
-0.9454947689838814
-0.15570902016368363
-0.18278041221041794
-0.9454947689838814
-0.15570902016368363
-0.18278041221041794
-0.9454947689838814
-0.15570902016368363
-0.18278041221041794
-0.9446865750361442
-0.15514784019052705
-0.18323006665850117
-0.9446865750361442
-0.15514784019052705
-0.18323006665850117
-0.9446865750361442
-0.15514784019052705
-0.18323006665850117
-0.9446865750361442
-0.15514784019052705
-0.18323006665850117
-0.9455401762962353
-0.15484264840353554
-0.18322103822969282
-0.9455401762962353
-0.15484264840353554
-0.18322103822969282
-0.9455401762962353
-0.15484264840353554
-0.18322103822969282
-0.9455401762962353
-0.15484264840353554
-0.18322103822969282
-0.9462119585483112
-0.1548432136934149
-0.18305481629613327
-0.9462119585483112
-0.1548432136934149
-0.18305481629613327
-0.9462119585483112
-0.1548432136934149
-0.18305481629613327
-0.9462119585483112
-0.1548432136934149
-0.18305481629613327
-0.9462119585483112
-0.1548432136934149
-0.18305481629613327
-0.9462119585483112
-0.1548432136934149
-0.18305481629613327
-0.9462119585483112
-0.1548432136934149
-0.18305481629613327
-0.9462119585483112
-0.1548432136934149
-0.18305481629613327
-0.9462119585483112
-0.1548432136934149
-0.18305481629613327
-0.9462119585483112
-0.1548432136934149
-0.18305481629613327
-0.9462119585483112
-0.1548432136934149
-0.18305481629613327
-0.9462119585483112
-0.1548432136934149
-0.18305481629613327
-0.9470269005752667
-0.15486345321853087
-0.18315496316610266
-0.9470269005752667
-0.15486345321853087
-0.18315496316610266
-0.9470269005752667
-0.15486345321853087
-0.18315496316610266
-0.9470269005752667
-0.15486345321853087
-0.18315496316610266
-0.9473269063757446
-0.1548486252952094
-0.18357814202637118
-0.9473269063757446
-0.1548486252952094
-0.18357814202637118
-0.9473269063757446
-0.1548486252952094
-0.18357814202637118
-0.9473269063757446
-0.1548486252952094
-0.18357814202637118
-0.9465863812704717
-0.15488899004883153
-0.18384823587150673
-0.9465863812704717
-0.15488899004883153
-0.18384823587150673
-0.9465863812704717
-0.15488899004883153
-0.18384823587150673
-0.9465863812704717
-0.15488899004883153
-0.18384823587150673
-0.9465863812704717
-0.15488899004883153
-0.18384823587150673
-0.9465863812704717
-0.15488899004883153
-0.18384823587150673
-0.9465863812704717
-0.15488899004883153
-0.18384823587150673
-0.9465863812704717
-0.15488899004883153
-0.18384823587150673
-0.947448570524291
-0.1548693105055124
-0.18411880578805734
-0.947448570524291
-0.1548693105055124
-0.18411880578805734
-0.947448570524291
-0.1548693105055124
-0.18411880578805734
-0.947448570524291
-0.1548693105055124
-0.18411880578805734
-0.9480222282411681
-0.1546479082911297
-0.18407659955836053
-0.9480222282411681
-0.1546479082911297
-0.18407659955836053
-0.9480222282411681
-0.1546479082911297
-0.18407659955836053
-0.9480222282411681
-0.1546479082911297
-0.18407659955836053
-0.9473419169122562
-0.15436190776459302
-0.18396355384529164
-0.9473419169122562
-0.15436190776459302
-0.18396355384529164
-0.9473419169122562
-0.15436190776459302
-0.18396355384529164
-0.9473419169122562
-0.15436190776459302
-0.18396355384529164
-0.9466465471294899
-0.15456283188569084
-0.18346507748693888
-0.9466465471294899
-0.15456283188569084
-0.18346507748693888
-0.9466465471294899
-0.15456283188569084
-0.18346507748693888
-0.9466465471294899
-0.15456283188569084
-0.18346507748693888
-0.9466207869030224
-0.1546024958570001
-0.18302039318815494
-0.9466207869030224
-0.1546024958570001
-0.18302039318815494
-0.9466207869030224
-0.1546024958570001
-0.18302039318815494
-0.9466207869030224
-0.1546024958570001
-0.18302039318815494
-0.9470360979280361
-0.1544849433620648
-0.18348514891024462
-0.9470360979280361
-0.1544849433620648
-0.18348514891024462
-0.9470360979280361
-0.1544849433620648
-0.18348514891024462
-0.9470360979280361
-0.1544849433620648
-0.18348514891024462
-0.9470360979280361
-0.1544849433620648
-0.18348514891024462
-0.9470360979280361
-0.1544849433620648
-0.18348514891024462
-0.9470360979280361
-0.1544849433620648
-0.18348514891024462
-0.9470360979280361
-0.1544849433620648
-0.18348514891024462
-0.9470360979280361
-0.1544849433620648
-0.18348514891024462
-0.9470360979280361
-0.1544849433620648
-0.18348514891024462
-0.9470360979280361
-0.1544849433620648
-0.18348514891024462
-0.9470360979280361
-0.1544849433620648
-0.18348514891024462
-0.9470360979280361
-0.1544849433620648
-0.18348514891024462
-0.9470360979280361
-0.1544849433620648
-0.18348514891024462
-0.9470360979280361
-0.1544849433620648
-0.18348514891024462
-0.9470360979280361
-0.1544849433620648
-0.18348514891024462
-0.9462383344806227
-0.15413973916827028
-0.18355018797762984
-0.9462383344806227
-0.15413973916827028
-0.18355018797762984
-0.9462383344806227
-0.15413973916827028
-0.18355018797762984
-0.9462383344806227
-0.15413973916827028
-0.18355018797762984
-0.9462247569668604
-0.15419419626830427
-0.18365976277686163
-0.9462247569668604
-0.15419419626830427
-0.18365976277686163
-0.9462247569668604
-0.15419419626830427
-0.18365976277686163
-0.9462247569668604
-0.15419419626830427
-0.18365976277686163
-0.9462383344806227
-0.15413973916827028
-0.18355018797762984
-0.9462383344806227
-0.15413973916827028
-0.18355018797762984
-0.9462383344806227
-0.15413973916827028
-0.18355018797762984
-0.9462383344806227
-0.15413973916827028
-0.18355018797762984
-0.9462383344806227
-0.15413973916827028
-0.18355018797762984
-0.9462383344806227
-0.15413973916827028
-0.18355018797762984
-0.9462383344806227
-0.15413973916827028
-0.18355018797762984
-0.9462383344806227
-0.15413973916827028
-0.18355018797762984
-0.9450215434971982
-0.15418291052368305
-0.1828753936415673
-0.9450215434971982
-0.15418291052368305
-0.1828753936415673
-0.9450215434971982
-0.15418291052368305
-0.1828753936415673
-0.9450215434971982
-0.15418291052368305
-0.1828753936415673
-0.9440134747689052
-0.15468553628212175
-0.18250780619802476
-0.9440134747689052
-0.15468553628212175
-0.18250780619802476
-0.9440134747689052
-0.15468553628212175
-0.18250780619802476
-0.9440134747689052
-0.15468553628212175
-0.18250780619802476
-0.9441916914370099
-0.15465020004402982
-0.18239026456464852
-0.9441916914370099
-0.15465020004402982
-0.18239026456464852
-0.9441916914370099
-0.15465020004402982
-0.18239026456464852
-0.9441916914370099
-0.15465020004402982
-0.18239026456464852
-0.9433473547257032
-0.15457661051442267
-0.18272891740343386
-0.9433473547257032
-0.15457661051442267
-0.18272891740343386
-0.9433473547257032
-0.15457661051442267
-0.18272891740343386
-0.9433473547257032
-0.15457661051442267
-0.18272891740343386
-0.9425359092688362
-0.1542858401382058
-0.1829030429556518
-0.9425359092688362
-0.1542858401382058
-0.1829030429556518
-0.9425359092688362
-0.1542858401382058
-0.1829030429556518
-0.9425359092688362
-0.1542858401382058
-0.1829030429556518
-0.9419832177552755
-0.15391132444495295
-0.18338473117931997
-0.9419832177552755
-0.15391132444495295
-0.18338473117931997
-0.9419832177552755
-0.15391132444495295
-0.18338473117931997
-0.9419832177552755
-0.15391132444495295
-0.18338473117931997
-0.9419889790967303
-0.1538029299515717
-0.18343961152366636
-0.9419889790967303
-0.1538029299515717
-0.18343961152366636
-0.9419889790967303
-0.1538029299515717
-0.18343961152366636
-0.9419889790967303
-0.1538029299515717
-0.18343961152366636
-0.9416876305665851
-0.15388658475071088
-0.1836803183680105
-0.9416876305665851
-0.15388658475071088
-0.1836803183680105
-0.9416876305665851
-0.15388658475071088
-0.1836803183680105
-0.9416876305665851
-0.15388658475071088
-0.1836803183680105
-0.9416740767343315
-0.15394079689281004
-0.18379001526686192
-0.9416740767343315
-0.15394079689281004
-0.18379001526686192
-0.9416740767343315
-0.15394079689281004
-0.18379001526686192
-0.9416740767343315
-0.15394079689281004
-0.18379001526686192
-0.9427690843242531
-0.15387757500621535
-0.18392413730102652
-0.9427690843242531
-0.15387757500621535
-0.18392413730102652
-0.9427690843242531
-0.15387757500621535
-0.18392413730102652
-0.9427690843242531
-0.15387757500621535
-0.18392413730102652
-0.9427690843242531
-0.15387757500621535
-0.18392413730102652
-0.9427690843242531
-0.15387757500621535
-0.18392413730102652
-0.9427690843242531
-0.15387757500621535
-0.18392413730102652
-0.9427690843242531
-0.15387757500621535
-0.18392413730102652
-0.9427690843242531
-0.15387757500621535
-0.18392413730102652
-0.9427690843242531
-0.15387757500621535
-0.18392413730102652
-0.9427690843242531
-0.15387757500621535
-0.18392413730102652
-0.9427690843242531
-0.15387757500621535
-0.18392413730102652
-0.9420837845162566
-0.15393064658831912
-0.1841997230487873
-0.9420837845162566
-0.15393064658831912
-0.1841997230487873
-0.9420837845162566
-0.15393064658831912
-0.1841997230487873
-0.9420837845162566
-0.15393064658831912
-0.1841997230487873
-0.9411158732486021
-0.1536742569129759
-0.18421656569120642
-0.9411158732486021
-0.1536742569129759
-0.18421656569120642
-0.9411158732486021
-0.1536742569129759
-0.18421656569120642
-0.9411158732486021
-0.1536742569129759
-0.18421656569120642
-0.9402718947655286
-0.15359939988557705
-0.1845546294529297
-0.9402718947655286
-0.15359939988557705
-0.1845546294529297
-0.9402718947655286
-0.15359939988557705
-0.1845546294529297
-0.9402718947655286
-0.15359939988557705
-0.1845546294529297
-0.9417746290458395
-0.15396001399770928
-0.18460499188840915
-0.9417746290458395
-0.15396001399770928
-0.18460499188840915
-0.9417746290458395
-0.15396001399770928
-0.18460499188840915
-0.9417746290458395
-0.15396001399770928
-0.18460499188840915
-0.9407069449377844
-0.15331811808198983
-0.18496427074214725
-0.9407069449377844
-0.15331811808198983
-0.18496427074214725
-0.9407069449377844
-0.15331811808198983
-0.18496427074214725
-0.9407069449377844
-0.15331811808198983
-0.18496427074214725
-0.9395854331522181
-0.1528922076853284
-0.1857617559736368
-0.9395854331522181
-0.1528922076853284
-0.1857617559736368
-0.9395854331522181
-0.1528922076853284
-0.1857617559736368
-0.9395854331522181
-0.1528922076853284
-0.1857617559736368
-0.9395854331522181
-0.1528922076853284
-0.1857617559736368
-0.9395854331522181
-0.1528922076853284
-0.1857617559736368
-0.9395854331522181
-0.1528922076853284
-0.1857617559736368
-0.9395854331522181
-0.1528922076853284
-0.1857617559736368
-0.9401651536224354
-0.1525629914504502
-0.18577399516205081
-0.9401651536224354
-0.1525629914504502
-0.18577399516205081
-0.9401651536224354
-0.1525629914504502
-0.18577399516205081
-0.9401651536224354
-0.1525629914504502
-0.18577399516205081
-0.9401651536224354
-0.1525629914504502
-0.18577399516205081
-0.9401651536224354
-0.1525629914504502
-0.18577399516205081
-0.9401651536224354
-0.1525629914504502
-0.18577399516205081
-0.9401651536224354
-0.1525629914504502
-0.18577399516205081
-0.9399104343586684
-0.15237532055612119
-0.1857401408536985
-0.9399104343586684
-0.15237532055612119
-0.1857401408536985
-0.9399104343586684
-0.15237532055612119
-0.1857401408536985
-0.9399104343586684
-0.15237532055612119
-0.1857401408536985
-0.9388130138016997
-0.15204526911022487
-0.1853795229470744
-0.9388130138016997
-0.15204526911022487
-0.1853795229470744
-0.9388130138016997
-0.15204526911022487
-0.1853795229470744
-0.9388130138016997
-0.15204526911022487
-0.1853795229470744
-0.9381077994685026
-0.15203038145422146
-0.1852646931948905
-0.9381077994685026
-0.15203038145422146
-0.1852646931948905
-0.9381077994685026
-0.15203038145422146
-0.1852646931948905
-0.9381077994685026
-0.15203038145422146
-0.1852646931948905
-0.9379878175099109
-0.15240448947328725
-0.184949816728311
-0.9379878175099109
-0.15240448947328725
-0.184949816728311
-0.9379878175099109
-0.15240448947328725
-0.184949816728311
-0.9379878175099109
-0.15240448947328725
-0.184949816728311
-0.9386341591345746
-0.1526773127298985
-0.18478480386185564
-0.9386341591345746
-0.1526773127298985
-0.18478480386185564
-0.9386341591345746
-0.1526773127298985
-0.18478480386185564
-0.9386341591345746
-0.1526773127298985
-0.18478480386185564
-0.938688845000439
-0.1526906598126728
-0.1847906950016198
-0.938688845000439
-0.1526906598126728
-0.1847906950016198
-0.938688845000439
-0.1526906598126728
-0.1847906950016198
-0.938688845000439
-0.1526906598126728
-0.1847906950016198
-0.9388229006977242
-0.15249215455138218
-0.18544087867664474
-0.9388229006977242
-0.15249215455138218
-0.18544087867664474
-0.9388229006977242
-0.15249215455138218
-0.18544087867664474
-0.9388229006977242
-0.15249215455138218
-0.18544087867664474
-0.9380965826214892
-0.15247677666488002
-0.18560038553718444
-0.9380965826214892
-0.15247677666488002
-0.18560038553718444
-0.9380965826214892
-0.15247677666488002
-0.18560038553718444
-0.9380965826214892
-0.15247677666488002
-0.18560038553718444
-0.9385276219076838
-0.15246666844529339
-0.185736157466685
-0.9385276219076838
-0.15246666844529339
-0.185736157466685
-0.9385276219076838
-0.15246666844529339
-0.185736157466685
-0.9385276219076838
-0.15246666844529339
-0.185736157466685
-0.9394869474490042
-0.1524397014051993
-0.18543989024510257
-0.9394869474490042
-0.1524397014051993
-0.18543989024510257
-0.9394869474490042
-0.1524397014051993
-0.18543989024510257
-0.9394869474490042
-0.1524397014051993
-0.18543989024510257
-0.9394869474490042
-0.1524397014051993
-0.18543989024510257
-0.9394869474490042
-0.1524397014051993
-0.18543989024510257
-0.9394869474490042
-0.1524397014051993
-0.18543989024510257
-0.9394869474490042
-0.1524397014051993
-0.18543989024510257
-0.9394869474490042
-0.1524397014051993
-0.18543989024510257
-0.9394869474490042
-0.1524397014051993
-0.18543989024510257
-0.9394869474490042
-0.1524397014051993
-0.18543989024510257
-0.9394869474490042
-0.1524397014051993
-0.18543989024510257
-0.9394869474490042
-0.1524397014051993
-0.18543989024510257
-0.9394869474490042
-0.1524397014051993
-0.18543989024510257
-0.9394869474490042
-0.1524397014051993
-0.18543989024510257
-0.9394869474490042
-0.1524397014051993
-0.18543989024510257
-0.9410088494618036
-0.15263836844490516
-0.18543641660872434
-0.9410088494618036
-0.15263836844490516
-0.18543641660872434
-0.9410088494618036
-0.15263836844490516
-0.18543641660872434
-0.9410088494618036
-0.15263836844490516
-0.18543641660872434
-0.9423680455670429
-0.15298033097412453
-0.18522085343763084
-0.9423680455670429
-0.15298033097412453
-0.18522085343763084
-0.9423680455670429
-0.15298033097412453
-0.18522085343763084
-0.9423680455670429
-0.15298033097412453
-0.18522085343763084
-0.9437255120827518
-0.1531596338574535
-0.18522436039377516
-0.9437255120827518
-0.1531596338574535
-0.18522436039377516
-0.9437255120827518
-0.1531596338574535
-0.18522436039377516
-0.9437255120827518
-0.1531596338574535
-0.18522436039377516
-0.9452805720244694
-0.15314103176251873
-0.18505578161112815
-0.9452805720244694
-0.15314103176251873
-0.18505578161112815
-0.9452805720244694
-0.15314103176251873
-0.18505578161112815
-0.9452805720244694
-0.15314103176251873
-0.18505578161112815
-0.9473841362674209
-0.15317199784668226
-0.184844645984456
-0.9473841362674209
-0.15317199784668226
-0.184844645984456
-0.9473841362674209
-0.15317199784668226
-0.184844645984456
-0.9473841362674209
-0.15317199784668226
-0.184844645984456
-0.9494374881026949
-0.15374454536387605
-0.1846312612372441
-0.9494374881026949
-0.15374454536387605
-0.1846312612372441
-0.9494374881026949
-0.15374454536387605
-0.1846312612372441
-0.9494374881026949
-0.15374454536387605
-0.1846312612372441
-0.9513271536004755
-0.1545298917271194
-0.1848680447775022
-0.9513271536004755
-0.1545298917271194
-0.1848680447775022
-0.9513271536004755
-0.1545298917271194
-0.1848680447775022
-0.9513271536004755
-0.1545298917271194
-0.1848680447775022
-0.9526711264940263
-0.15476373502639365
-0.1849790783425538
-0.9526711264940263
-0.15476373502639365
-0.1849790783425538
-0.9526711264940263
-0.15476373502639365
-0.1849790783425538
-0.9526711264940263
-0.15476373502639365
-0.1849790783425538
-0.9548891040218845
-0.15512183215150907
-0.1843114089774606
-0.9548891040218845
-0.15512183215150907
-0.1843114089774606
-0.9548891040218845
-0.15512183215150907
-0.1843114089774606
-0.9548891040218845
-0.15512183215150907
-0.1843114089774606
-0.9582682264723318
-0.15619531322160882
-0.18129547752139033
-0.9582682264723318
-0.15619531322160882
-0.18129547752139033
-0.9582682264723318
-0.15619531322160882
-0.18129547752139033
-0.9582682264723318
-0.15619531322160882
-0.18129547752139033
-0.9606749376655085
-0.15625535880813665
-0.17923685778565793
-0.9606749376655085
-0.15625535880813665
-0.17923685778565793
-0.9606749376655085
-0.15625535880813665
-0.17923685778565793
-0.9606749376655085
-0.15625535880813665
-0.17923685778565793
-0.9612246773634662
-0.15610912264826834
-0.1801334156818627
-0.9612246773634662
-0.15610912264826834
-0.1801334156818627
-0.9612246773634662
-0.15610912264826834
-0.1801334156818627
-0.9612246773634662
-0.15610912264826834
-0.1801334156818627
-0.9622931197387108
-0.15712849564198625
-0.18153450286182088
-0.9622931197387108
-0.15712849564198625
-0.18153450286182088
-0.9622931197387108
-0.15712849564198625
-0.18153450286182088
-0.9622931197387108
-0.15712849564198625
-0.18153450286182088
-0.9640137137633542
-0.1575731127878005
-0.18221389438242735
-0.9640137137633542
-0.1575731127878005
-0.18221389438242735
-0.9640137137633542
-0.1575731127878005
-0.18221389438242735
-0.9640137137633542
-0.1575731127878005
-0.18221389438242735
-0.9639691211702658
-0.15646720047844598
-0.18196008678913472
-0.9639691211702658
-0.15646720047844598
-0.18196008678913472
-0.9639691211702658
-0.15646720047844598
-0.18196008678913472
-0.9639691211702658
-0.15646720047844598
-0.18196008678913472
-0.9632061078288009
-0.1553267979943292
-0.18103873165909937
-0.9632061078288009
-0.1553267979943292
-0.18103873165909937
-0.9632061078288009
-0.1553267979943292
-0.18103873165909937
-0.9632061078288009
-0.1553267979943292
-0.18103873165909937
-0.9630490984632637
-0.15536040471410656
-0.18088172229356203
-0.9630490984632637
-0.15536040471410656
-0.18088172229356203
-0.9630490984632637
-0.15536040471410656
-0.18088172229356203
-0.9630490984632637
-0.15536040471410656
-0.18088172229356203
-0.9637115956346275
-0.1569758748068908
-0.1811528977283282
-0.9637115956346275
-0.1569758748068908
-0.1811528977283282
-0.9637115956346275
-0.1569758748068908
-0.1811528977283282
-0.9637115956346275
-0.1569758748068908
-0.1811528977283282
-0.9650023816532672
-0.15828545010526562
-0.18069925341337953
-0.9650023816532672
-0.15828545010526562
-0.18069925341337953
-0.9650023816532672
-0.15828545010526562
-0.18069925341337953
-0.9650023816532672
-0.15828545010526562
-0.18069925341337953
-0.9647257781082237
-0.15852916262273728
-0.18044389773502306
-0.9647257781082237
-0.15852916262273728
-0.18044389773502306
-0.9647257781082237
-0.15852916262273728
-0.18044389773502306
-0.9647257781082237
-0.15852916262273728
-0.18044389773502306
-0.9649334061804997
-0.15787836541153613
-0.17994382782652352
-0.9649334061804997
-0.15787836541153613
-0.17994382782652352
-0.9649334061804997
-0.15787836541153613
-0.17994382782652352
-0.9649334061804997
-0.15787836541153613
-0.17994382782652352
-0.9638345201876082
-0.15754696232165064
-0.17959053746864898
-0.9638345201876082
-0.15754696232165064
-0.17959053746864898
-0.9638345201876082
-0.15754696232165064
-0.17959053746864898
-0.9638345201876082
-0.15754696232165064
-0.17959053746864898
-0.962319350142991
-0.1574052482630527
-0.1794349751016377
-0.962319350142991
-0.1574052482630527
-0.1794349751016377
-0.962319350142991
-0.1574052482630527
-0.1794349751016377
-0.962319350142991
-0.1574052482630527
-0.1794349751016377
-0.9626158324507891
-0.15742638438918907
-0.17913849279383953
-0.9626158324507891
-0.15742638438918907
-0.17913849279383953
-0.9626158324507891
-0.15742638438918907
-0.17913849279383953
-0.9626158324507891
-0.15742638438918907
-0.17913849279383953
-0.9631330790150515
-0.158121198159221
-0.17875788243760768
-0.9631330790150515
-0.158121198159221
-0.17875788243760768
-0.9629717356437099
-0.15919425045692454
-0.17821088531468354
-0.9629717356437099
-0.15919425045692454
-0.17821088531468354
-0.9629717356437099
-0.15919425045692454
-0.17821088531468354
-0.9629717356437099
-0.15919425045692454
-0.17821088531468354
-0.9629717356437099
-0.15919425045692454
-0.17821088531468354
-0.9629717356437099
-0.15919425045692454
-0.17821088531468354
-0.9634692139158691
-0.16031994918859116
-0.17760518487501553
-0.9634692139158691
-0.16031994918859116
-0.17760518487501553
-0.9634692139158691
-0.16031994918859116
-0.17760518487501553
-0.9634692139158691
-0.16031994918859116
-0.17760518487501553
-0.9635127608133676
-0.16058204448339686
-0.1767785883340771
-0.9635127608133676
-0.16058204448339686
-0.1767785883340771
-0.9635127608133676
-0.16058204448339686
-0.1767785883340771
-0.9635127608133676
-0.16058204448339686
-0.1767785883340771
-0.9626763595292834
-0.16126312945970608
-0.17617908232389884
-0.9626763595292834
-0.16126312945970608
-0.17617908232389884
-0.9626763595292834
-0.16126312945970608
-0.17617908232389884
-0.9626763595292834
-0.16126312945970608
-0.17617908232389884
-0.9630951766633686
-0.16200465411059936
-0.17564570105151428
-0.9630951766633686
-0.16200465411059936
-0.17564570105151428
-0.9630951766633686
-0.16200465411059936
-0.17564570105151428
-0.9630951766633686
-0.16200465411059936
-0.17564570105151428
-0.9634771092516196
-0.1625690964187859
-0.1750538856870284
-0.9634771092516196
-0.1625690964187859
-0.1750538856870284
-0.9634771092516196
-0.1625690964187859
-0.1750538856870284
-0.9634771092516196
-0.1625690964187859
-0.1750538856870284
-0.9637597557561763
-0.16341619447577066
-0.17475219949543708
-0.9637597557561763
-0.16341619447577066
-0.17475219949543708
-0.9637597557561763
-0.16341619447577066
-0.17475219949543708
-0.9637597557561763
-0.16341619447577066
-0.17475219949543708
-0.9635797523127206
-0.16372108878092553
-0.17459280902978494
-0.9635797523127206
-0.16372108878092553
-0.17459280902978494
-0.9635797523127206
-0.16372108878092553
-0.17459280902978494
-0.9635797523127206
-0.16372108878092553
-0.17459280902978494
-0.962177857052285
-0.16398330177035142
-0.17464868884044643
-0.962177857052285
-0.16398330177035142
-0.17464868884044643
-0.962177857052285
-0.16398330177035142
-0.17464868884044643
-0.962177857052285
-0.16398330177035142
-0.17464868884044643
-0.9608998535007583
-0.16392660922466687
-0.1748589776758485
-0.9608998535007583
-0.16392660922466687
-0.1748589776758485
-0.9608998535007583
-0.16392660922466687
-0.1748589776758485
-0.9608998535007583
-0.16392660922466687
-0.1748589776758485
-0.9610463780516995
-0.1641082901963602
-0.17490327783797832
-0.9610463780516995
-0.1641082901963602
-0.17490327783797832
-0.9610463780516995
-0.1641082901963602
-0.17490327783797832
-0.9610463780516995
-0.1641082901963602
-0.17490327783797832
-0.9609370312157126
-0.16410347395630537
-0.17491721522167009
-0.9609370312157126
-0.16410347395630537
-0.17491721522167009
-0.9609370312157126
-0.16410347395630537
-0.17491721522167009
-0.9609370312157126
-0.16410347395630537
-0.17491721522167009
-0.9602321131472696
-0.16382232207985908
-0.17508413764993289
-0.9602321131472696
-0.16382232207985908
-0.17508413764993289
-0.9602321131472696
-0.16382232207985908
-0.17508413764993289
-0.9602321131472696
-0.16382232207985908
-0.17508413764993289
-0.9593811004131957
-0.16359375675903634
-0.17564880815319128
-0.9593811004131957
-0.16359375675903634
-0.17564880815319128
-0.9593811004131957
-0.16359375675903634
-0.17564880815319128
-0.9593811004131957
-0.16359375675903634
-0.17564880815319128
-0.9588377330818876
-0.16317012064010336
-0.17602747683146672
-0.9588377330818876
-0.16317012064010336
-0.17602747683146672
-0.9588377330818876
-0.16317012064010336
-0.17602747683146672
-0.9588377330818876
-0.16317012064010336
-0.17602747683146672
-0.958536361781922
-0.16298805803545796
-0.17654604869617924
-0.958536361781922
-0.16298805803545796
-0.17654604869617924
-0.958536361781922
-0.16298805803545796
-0.17654604869617924
-0.958536361781922
-0.16298805803545796
-0.17654604869617924
-0.958115602982127
-0.16301676538143473
-0.17696680749597435
-0.958115602982127
-0.16301676538143473
-0.17696680749597435
-0.958115602982127
-0.16301676538143473
-0.17696680749597435
-0.958115602982127
-0.16301676538143473
-0.17696680749597435
-0.958225004655066
-0.16302174235393552
-0.17695288148065086
-0.958225004655066
-0.16302174235393552
-0.17695288148065086
-0.958225004655066
-0.16302174235393552
-0.17695288148065086
-0.958225004655066
-0.16302174235393552
-0.17695288148065086
-0.9582300506161259
-0.16291379410954168
-0.17700870919567493
-0.9582300506161259
-0.16291379410954168
-0.17700870919567493
-0.9582300506161259
-0.16291379410954168
-0.17700870919567493
-0.9582300506161259
-0.16291379410954168
-0.17700870919567493
-0.958083926066132
-0.1629661006037553
-0.17740665793112972
-0.958083926066132
-0.1629661006037553
-0.17740665793112972
-0.958083926066132
-0.1629661006037553
-0.17740665793112972
-0.958083926066132
-0.1629661006037553
-0.17740665793112972
-0.9570962306105719
-0.16260713106543456
-0.1777605808756551
-0.9570962306105719
-0.16260713106543456
-0.1777605808756551
-0.9570962306105719
-0.16260713106543456
-0.1777605808756551
-0.9570962306105719
-0.16260713106543456
-0.1777605808756551
-0.9562790457909303
-0.16215862984877893
-0.17816105462045378
-0.9562790457909303
-0.16215862984877893
-0.17816105462045378
-0.9562790457909303
-0.16215862984877893
-0.17816105462045378
-0.9562790457909303
-0.16215862984877893
-0.17816105462045378
-0.9565882778520899
-0.16192924687700352
-0.178694736383775
-0.9565882778520899
-0.16192924687700352
-0.178694736383775
-0.9565882778520899
-0.16192924687700352
-0.178694736383775
-0.9565882778520899
-0.16192924687700352
-0.178694736383775
-0.9577924195573366
-0.1618692461360504
-0.1788111860987131
-0.9577924195573366
-0.1618692461360504
-0.1788111860987131
-0.9577924195573366
-0.1618692461360504
-0.1788111860987131
-0.9577924195573366
-0.1618692461360504
-0.1788111860987131
-0.957971509871657
-0.16183301660237437
-0.1786930671051251
-0.957971509871657
-0.16183301660237437
-0.1786930671051251
-0.957971509871657
-0.16183301660237437
-0.1786930671051251
-0.957971509871657
-0.16183301660237437
-0.1786930671051251
-0.9568593179275094
-0.16179223313433613
-0.17889299302631376
-0.9568593179275094
-0.16179223313433613
-0.17889299302631376
-0.9568593179275094
-0.16179223313433613
-0.17889299302631376
-0.9568593179275094
-0.16179223313433613
-0.17889299302631376
-0.9566941676417628
-0.16177338193837443
-0.17890170566143665
-0.9566941676417628
-0.16177338193837443
-0.17890170566143665
-0.9566941676417628
-0.16177338193837443
-0.17890170566143665
-0.9566941676417628
-0.16177338193837443
-0.17890170566143665
-0.9579575998828378
-0.16188808742167587
-0.17880245256555488
-0.9579575998828378
-0.16188808742167587
-0.17880245256555488
-0.9579575998828378
-0.16188808742167587
-0.17880245256555488
-0.9579575998828378
-0.16188808742167587
-0.17880245256555488
-0.9579575998828378
-0.16188808742167587
-0.17880245256555488
-0.9579575998828378
-0.16188808742167587
-0.17880245256555488
-0.9579575998828378
-0.16188808742167587
-0.17880245256555488
-0.9579575998828378
-0.16188808742167587
-0.17880245256555488
-0.9574832397442802
-0.16233218926929546
-0.1787201315140826
-0.9574832397442802
-0.16233218926929546
-0.1787201315140826
-0.9574832397442802
-0.16233218926929546
-0.1787201315140826
-0.9574832397442802
-0.16233218926929546
-0.1787201315140826
-0.9577930162288856
-0.16280172166336068
-0.17847940700805126
-0.9577930162288856
-0.16280172166336068
-0.17847940700805126
-0.9577930162288856
-0.16280172166336068
-0.17847940700805126
-0.9577930162288856
-0.16280172166336068
-0.17847940700805126
-0.958042039483667
-0.16336538212628263
-0.1781775774711729
-0.958042039483667
-0.16336538212628263
-0.1781775774711729
-0.958042039483667
-0.16336538212628263
-0.1781775774711729
-0.958042039483667
-0.16336538212628263
-0.1781775774711729
-0.9578970518251295
-0.1641160442781491
-0.1778009072982303
-0.9578970518251295
-0.1641160442781491
-0.1778009072982303
-0.9578970518251295
-0.1641160442781491
-0.1778009072982303
-0.9578970518251295
-0.1641160442781491
-0.1778009072982303
-0.958853196751458
-0.16442440078816484
-0.17788597273773024
-0.958853196751458
-0.16442440078816484
-0.17788597273773024
-0.959800352315203
-0.16468009049993257
-0.17813603690872856
-0.959800352315203
-0.16468009049993257
-0.17813603690872856
-0.959800352315203
-0.16468009049993257
-0.17813603690872856
-0.959800352315203
-0.16468009049993257
-0.17813603690872856
-0.959800352315203
-0.16468009049993257
-0.17813603690872856
-0.959800352315203
-0.16468009049993257
-0.17813603690872856
-0.9596350652931372
-0.1646612411383245
-0.1781450417133883
-0.9596350652931372
-0.1646612411383245
-0.1781450417133883
-0.9596350652931372
-0.1646612411383245
-0.1781450417133883
-0.9596350652931372
-0.1646612411383245
-0.1781450417133883
-0.9597801986995763
-0.16511169424405983
-0.17791239312361032
-0.9597801986995763
-0.16511169424405983
-0.17791239312361032
-0.9597801986995763
-0.16511169424405983
-0.17791239312361032
-0.9597801986995763
-0.16511169424405983
-0.17791239312361032
-0.9608717592854886
-0.16608625525093848
-0.17765175656408108
-0.9608717592854886
-0.16608625525093848
-0.17765175656408108
-0.9612508829787312
-0.1662227614981213
-0.17755835601664152
-0.9612508829787312
-0.1662227614981213
-0.17755835601664152
-0.9612508829787312
-0.1662227614981213
-0.17755835601664152
-0.9612508829787312
-0.1662227614981213
-0.17755835601664152
-0.9604289326504389
-0.1655807990108817
-0.1789024235900741
-0.9604289326504389
-0.1655807990108817
-0.1789024235900741
-0.9604289326504389
-0.1655807990108817
-0.1789024235900741
-0.9604289326504389
-0.1655807990108817
-0.1789024235900741
-0.9587414930598034
-0.16503056632056587
-0.18064340333205944
-0.9587414930598034
-0.16503056632056587
-0.18064340333205944
-0.9587414930598034
-0.16503056632056587
-0.18064340333205944
-0.9587414930598034
-0.16503056632056587
-0.18064340333205944
-0.9572690759504928
-0.1652945519492108
-0.1815249933311013
-0.9572690759504928
-0.1652945519492108
-0.1815249933311013
-0.9572690759504928
-0.1652945519492108
-0.1815249933311013
-0.9572690759504928
-0.1652945519492108
-0.1815249933311013
-0.9579257088843679
-0.16581650871844783
-0.18235052672299185
-0.9579257088843679
-0.16581650871844783
-0.18235052672299185
-0.9579257088843679
-0.16581650871844783
-0.18235052672299185
-0.9579257088843679
-0.16581650871844783
-0.18235052672299185
-0.9597940133658076
-0.16656889260503221
-0.18356704796023582
-0.9597940133658076
-0.16656889260503221
-0.18356704796023582
-0.9597940133658076
-0.16656889260503221
-0.18356704796023582
-0.9597940133658076
-0.16656889260503221
-0.18356704796023582
-0.963535355405946
-0.16679916262739583
-0.18331008556585698
-0.963535355405946
-0.16679916262739583
-0.18331008556585698
-0.963535355405946
-0.16679916262739583
-0.18331008556585698
-0.963535355405946
-0.16679916262739583
-0.18331008556585698
-0.9634140612541457
-0.16637865856298154
-0.18254887191884858
-0.9634140612541457
-0.16637865856298154
-0.18254887191884858
-0.9634140612541457
-0.16637865856298154
-0.18254887191884858
-0.9634140612541457
-0.16637865856298154
-0.18254887191884858
-0.9601770820982708
-0.16539591373937482
-0.18150561863001355
-0.9601770820982708
-0.16539591373937482
-0.18150561863001355
-0.9601770820982708
-0.16539591373937482
-0.18150561863001355
-0.9601770820982708
-0.16539591373937482
-0.18150561863001355
-0.9584267399339353
-0.16373623681850413
-0.18116062697402763
-0.9584267399339353
-0.16373623681850413
-0.18116062697402763
-0.9584267399339353
-0.16373623681850413
-0.18116062697402763
-0.9584267399339353
-0.16373623681850413
-0.18116062697402763
-0.9566686015800024
-0.16292165657714758
-0.1813664845174519
-0.9566686015800024
-0.16292165657714758
-0.1813664845174519
-0.9566686015800024
-0.16292165657714758
-0.1813664845174519
-0.9566686015800024
-0.16292165657714758
-0.1813664845174519
-0.9566826376552752
-0.16286668234138077
-0.18125705715314566
-0.9566826376552752
-0.16286668234138077
-0.18125705715314566
-0.9566826376552752
-0.16286668234138077
-0.18125705715314566
-0.9566826376552752
-0.16286668234138077
-0.18125705715314566
-0.9564520136756223
-0.1624084927180638
-0.18122806015318801
-0.9564520136756223
-0.1624084927180638
-0.18122806015318801
-0.9564520136756223
-0.1624084927180638
-0.18122806015318801
-0.9564520136756223
-0.1624084927180638
-0.18122806015318801
-0.9540349468667471
-0.16064272604758045
-0.18110123074432888
-0.9540349468667471
-0.16064272604758045
-0.18110123074432888
-0.9540349468667471
-0.16064272604758045
-0.18110123074432888
-0.9540349468667471
-0.16064272604758045
-0.18110123074432888
-0.950075992124433
-0.1590769955987608
-0.1814774082033733
-0.950075992124433
-0.1590769955987608
-0.1814774082033733
-0.950075992124433
-0.1590769955987608
-0.1814774082033733
-0.950075992124433
-0.1590769955987608
-0.1814774082033733
-0.9471003310611327
-0.15904727100647964
-0.18297427739785121
-0.9471003310611327
-0.15904727100647964
-0.18297427739785121
-0.9471003310611327
-0.15904727100647964
-0.18297427739785121
-0.9471003310611327
-0.15904727100647964
-0.18297427739785121
-0.9458287043970885
-0.15977077541162452
-0.1836293881283008
-0.9458287043970885
-0.15977077541162452
-0.1836293881283008
-0.9458287043970885
-0.15977077541162452
-0.1836293881283008
-0.9458287043970885
-0.15977077541162452
-0.1836293881283008
-0.9470278479200192
-0.16025371698691246
-0.18319631357221391
-0.9470278479200192
-0.16025371698691246
-0.18319631357221391
-0.9470278479200192
-0.16025371698691246
-0.18319631357221391
-0.9470278479200192
-0.16025371698691246
-0.18319631357221391
-0.9492876214284315
-0.16028616395931394
-0.1824145672216763
-0.9492876214284315
-0.16028616395931394
-0.1824145672216763
-0.9492876214284315
-0.16028616395931394
-0.1824145672216763
-0.9492876214284315
-0.16028616395931394
-0.1824145672216763
-0.9467329604603297
-0.15889325452863806
-0.18223653485232466
-0.9467329604603297
-0.15889325452863806
-0.18223653485232466
-0.9467329604603297
-0.15889325452863806
-0.18223653485232466
-0.9467329604603297
-0.15889325452863806
-0.18223653485232466
-0.9413960620550048
-0.15758012335298116
-0.18238303559582164
-0.9413960620550048
-0.15758012335298116
-0.18238303559582164
-0.9413960620550048
-0.15758012335298116
-0.18238303559582164
-0.9413960620550048
-0.15758012335298116
-0.18238303559582164
-0.938634816111937
-0.15662736667299426
-0.18364257271888806
-0.938634816111937
-0.15662736667299426
-0.18364257271888806
-0.938634816111937
-0.15662736667299426
-0.18364257271888806
-0.938634816111937
-0.15662736667299426
-0.18364257271888806
-0.9398132673027167
-0.1558052151321436
-0.18360979684231143
-0.9398132673027167
-0.1558052151321436
-0.18360979684231143
-0.9398132673027167
-0.1558052151321436
-0.18360979684231143
-0.9398132673027167
-0.1558052151321436
-0.18360979684231143
-0.9413378534950539
-0.15593495528301943
-0.1829395413485959
-0.9413378534950539
-0.15593495528301943
-0.1829395413485959
-0.9413378534950539
-0.15593495528301943
-0.1829395413485959
-0.9413378534950539
-0.15593495528301943
-0.1829395413485959
-0.9400839086396006
-0.1558712970355183
-0.1828693050306394
-0.9400839086396006
-0.1558712970355183
-0.1828693050306394
-0.9400839086396006
-0.1558712970355183
-0.1828693050306394
-0.9400839086396006
-0.1558712970355183
-0.1828693050306394
-0.9362663802626447
-0.1550905536187859
-0.18338907410379574
-0.9362663802626447
-0.1550905536187859
-0.18338907410379574
-0.9362663802626447
-0.1550905536187859
-0.18338907410379574
-0.9362663802626447
-0.1550905536187859
-0.18338907410379574
-0.9346590218015238
-0.15378927232976555
-0.18367229582355019
-0.9346590218015238
-0.15378927232976555
-0.18367229582355019
-0.9346590218015238
-0.15378927232976555
-0.18367229582355019
-0.9346590218015238
-0.15378927232976555
-0.18367229582355019
-0.9377088582928472
-0.1532485434500314
-0.18398536564237317
-0.9377088582928472
-0.1532485434500314
-0.18398536564237317
-0.9377088582928472
-0.1532485434500314
-0.18398536564237317
-0.9377088582928472
-0.1532485434500314
-0.18398536564237317
-0.9394794509638975
-0.1535122716038496
-0.18351563620139466
-0.9394794509638975
-0.1535122716038496
-0.18351563620139466
-0.9394794509638975
-0.1535122716038496
-0.18351563620139466
-0.9394794509638975
-0.1535122716038496
-0.18351563620139466
-0.9389560877734991
-0.15319162141793036
-0.18355776862144801
-0.9389560877734991
-0.15319162141793036
-0.18355776862144801
-0.9389560877734991
-0.15319162141793036
-0.18355776862144801
-0.9389560877734991
-0.15319162141793036
-0.18355776862144801
-0.9384224851364857
-0.15242406698593708
-0.1835384144864312
-0.9384224851364857
-0.15242406698593708
-0.1835384144864312
-0.9384224851364857
-0.15242406698593708
-0.1835384144864312
-0.9384224851364857
-0.15242406698593708
-0.1835384144864312
-0.9373104915734715
-0.1522156527679531
-0.18395148319403468
-0.9373104915734715
-0.1522156527679531
-0.18395148319403468
-0.9373104915734715
-0.1522156527679531
-0.18395148319403468
-0.9373104915734715
-0.1522156527679531
-0.18395148319403468
-0.9380333344337298
-0.15190454008807866
-0.1842301946493595
-0.9380333344337298
-0.15190454008807866
-0.1842301946493595
-0.9380333344337298
-0.15190454008807866
-0.1842301946493595
-0.9380333344337298
-0.15190454008807866
-0.1842301946493595
-0.9396918930833172
-0.15199986972866164
-0.18399434855083585
-0.9396918930833172
-0.15199986972866164
-0.18399434855083585
-0.9396918930833172
-0.15199986972866164
-0.18399434855083585
-0.9396918930833172
-0.15199986972866164
-0.18399434855083585
-0.9419286405200835
-0.15242878946581623
-0.18372193469228348
-0.9419286405200835
-0.15242878946581623
-0.18372193469228348
-0.9419286405200835
-0.15242878946581623
-0.18372193469228348
-0.9419286405200835
-0.15242878946581623
-0.18372193469228348
-0.9413204534329118
-0.15270437384834232
-0.18414807261774532
-0.9413204534329118
-0.15270437384834232
-0.18414807261774532
-0.9413204534329118
-0.15270437384834232
-0.18414807261774532
-0.9413204534329118
-0.15270437384834232
-0.18414807261774532
-0.9408547338541802
-0.15276872493210414
-0.18439626633422562
-0.9408547338541802
-0.15276872493210414
-0.18439626633422562
-0.9408547338541802
-0.15276872493210414
-0.18439626633422562
-0.9408547338541802
-0.15276872493210414
-0.18439626633422562
-0.9397757470543808
-0.15317028282425735
-0.18437742790232978
-0.9397757470543808
-0.15317028282425735
-0.18437742790232978
-0.9397757470543808
-0.15317028282425735
-0.18437742790232978
-0.9397757470543808
-0.15317028282425735
-0.18437742790232978
-0.9396054160570835
-0.1532595915385857
-0.184330361101714
-0.9396054160570835
-0.1532595915385857
-0.184330361101714
-0.9396054160570835
-0.1532595915385857
-0.184330361101714
-0.9396054160570835
-0.1532595915385857
-0.184330361101714
-0.9419037159880672
-0.15380316535785396
-0.18453659220148594
-0.9419037159880672
-0.15380316535785396
-0.18453659220148594
-0.9419037159880672
-0.15380316535785396
-0.18453659220148594
-0.9419037159880672
-0.15380316535785396
-0.18453659220148594
-0.9445972483521201
-0.15395147057802774
-0.18439749219793258
-0.9445972483521201
-0.15395147057802774
-0.18439749219793258
-0.9445972483521201
-0.15395147057802774
-0.18439749219793258
-0.9445972483521201
-0.15395147057802774
-0.18439749219793258
-0.9430742417745016
-0.15352303163063483
-0.18395794528392606
-0.9430742417745016
-0.15352303163063483
-0.18395794528392606
-0.9430742417745016
-0.15352303163063483
-0.18395794528392606
-0.9430742417745016
-0.15352303163063483
-0.18395794528392606
-0.9418051043830667
-0.15394646927378083
-0.18350220869590178
-0.9418051043830667
-0.15394646927378083
-0.18350220869590178
-0.9418051043830667
-0.15394646927378083
-0.18350220869590178
-0.9418051043830667
-0.15394646927378083
-0.18350220869590178
-0.9434662839060166
-0.15420314127195278
-0.1830448592933662
-0.9434662839060166
-0.15420314127195278
-0.1830448592933662
-0.9434662839060166
-0.15420314127195278
-0.1830448592933662
-0.9434662839060166
-0.15420314127195278
-0.1830448592933662
-0.9445940469994731
-0.15392256995850728
-0.1830146926371658
-0.9445940469994731
-0.15392256995850728
-0.1830146926371658
-0.9445940469994731
-0.15392256995850728
-0.1830146926371658
-0.9445940469994731
-0.15392256995850728
-0.1830146926371658
-0.9447650956320119
-0.15316955797659582
-0.18311212079927125
-0.9447650956320119
-0.15316955797659582
-0.18311212079927125
-0.9447650956320119
-0.15316955797659582
-0.18311212079927125
-0.9447650956320119
-0.15316955797659582
-0.18311212079927125
-0.9435970349618646
-0.1527396538480113
-0.1831012801593816
-0.9435970349618646
-0.1527396538480113
-0.1831012801593816
-0.9435970349618646
-0.1527396538480113
-0.1831012801593816
-0.9435970349618646
-0.1527396538480113
-0.1831012801593816
-0.9441174489421041
-0.1526670346369631
-0.18283390882451236
-0.9441174489421041
-0.1526670346369631
-0.18283390882451236
-0.9441174489421041
-0.1526670346369631
-0.18283390882451236
-0.9441174489421041
-0.1526670346369631
-0.18283390882451236
-0.9452686030041172
-0.15188431025912114
-0.18236123423595368
-0.9452686030041172
-0.15188431025912114
-0.18236123423595368
-0.9452686030041172
-0.15188431025912114
-0.18236123423595368
-0.9452686030041172
-0.15188431025912114
-0.18236123423595368
-0.9462600728253481
-0.15163752026479532
-0.1819014824943973
-0.9462600728253481
-0.15163752026479532
-0.1819014824943973
-0.9462600728253481
-0.15163752026479532
-0.1819014824943973
-0.9462600728253481
-0.15163752026479532
-0.1819014824943973
-0.9458519776934398
-0.1518094230846518
-0.18127162111640577
-0.9458519776934398
-0.1518094230846518
-0.18127162111640577
-0.9458519776934398
-0.1518094230846518
-0.18127162111640577
-0.9458519776934398
-0.1518094230846518
-0.18127162111640577
-0.9457290388854225
-0.1518582758235465
-0.18139455992442305
-0.9457290388854225
-0.1518582758235465
-0.18139455992442305
-0.9457290388854225
-0.1518582758235465
-0.18139455992442305
-0.9457290388854225
-0.1518582758235465
-0.18139455992442305
-0.9465837034891561
-0.1517835553971256
-0.18183098019728833
-0.9465837034891561
-0.1517835553971256
-0.18183098019728833
-0.9465837034891561
-0.1517835553971256
-0.18183098019728833
-0.9465837034891561
-0.1517835553971256
-0.18183098019728833
-0.9475268627997101
-0.1517157129537429
-0.1825282856852952
-0.9475268627997101
-0.1517157129537429
-0.1825282856852952
-0.9475268627997101
-0.1517157129537429
-0.1825282856852952
-0.9475268627997101
-0.1517157129537429
-0.1825282856852952
-0.9475268627997101
-0.1517157129537429
-0.1825282856852952
-0.9475268627997101
-0.1517157129537429
-0.1825282856852952
-0.9475268627997101
-0.1517157129537429
-0.1825282856852952
-0.9475268627997101
-0.1517157129537429
-0.1825282856852952
-0.9462807270980146
-0.15170593992536274
-0.18229094250916825
-0.9462807270980146
-0.15170593992536274
-0.18229094250916825
-0.9462807270980146
-0.15170593992536274
-0.18229094250916825
-0.9462807270980146
-0.15170593992536274
-0.18229094250916825
-0.9457705468647748
-0.1528687966256117
-0.1825420271376109
-0.9457705468647748
-0.1528687966256117
-0.1825420271376109
-0.9457705468647748
-0.1528687966256117
-0.1825420271376109
-0.9457705468647748
-0.1528687966256117
-0.1825420271376109
-0.9464510085434472
-0.1531542154318738
-0.1826557587610236
-0.9464510085434472
-0.1531542154318738
-0.1826557587610236
-0.9464510085434472
-0.1531542154318738
-0.1826557587610236
-0.9464510085434472
-0.1531542154318738
-0.1826557587610236
-0.9464567203184872
-0.15304594195274418
-0.18271088643046715
-0.9464567203184872
-0.15304594195274418
-0.18271088643046715
-0.9464567203184872
-0.15304594195274418
-0.18271088643046715
-0.9464567203184872
-0.15304594195274418
-0.18271088643046715
-0.9470162287815779
-0.1535423380087633
-0.18272765575991573
-0.9470162287815779
-0.1535423380087633
-0.18272765575991573
-0.9470162287815779
-0.1535423380087633
-0.18272765575991573
-0.9470162287815779
-0.1535423380087633
-0.18272765575991573
-0.948058733944824
-0.15452271948838944
-0.18302898062415565
-0.948058733944824
-0.15452271948838944
-0.18302898062415565
-0.948058733944824
-0.15452271948838944
-0.18302898062415565
-0.948058733944824
-0.15452271948838944
-0.18302898062415565
-0.9493916299833369
-0.15497154158463233
-0.18302984493142657
-0.9493916299833369
-0.15497154158463233
-0.18302984493142657
-0.9493916299833369
-0.15497154158463233
-0.18302984493142657
-0.9493916299833369
-0.15497154158463233
-0.18302984493142657
-0.9514732906503426
-0.15543253568425272
-0.18259500672312415
-0.9514732906503426
-0.15543253568425272
-0.18259500672312415
-0.9514732906503426
-0.15543253568425272
-0.18259500672312415
-0.9514732906503426
-0.15543253568425272
-0.18259500672312415
-0.952856267936996
-0.15600263228537709
-0.18254458215011096
-0.952856267936996
-0.15600263228537709
-0.18254458215011096
-0.952856267936996
-0.15600263228537709
-0.18254458215011096
-0.952856267936996
-0.15600263228537709
-0.18254458215011096
-0.9539132643605961
-0.15649829284355077
-0.18322885682967546
-0.9539132643605961
-0.15649829284355077
-0.18322885682967546
-0.9539132643605961
-0.15649829284355077
-0.18322885682967546
-0.9539132643605961
-0.15649829284355077
-0.18322885682967546
-0.9536364239407984
-0.15631237929950306
-0.1834711494212705
-0.9536364239407984
-0.15631237929950306
-0.1834711494212705
-0.9536364239407984
-0.15631237929950306
-0.1834711494212705
-0.9536364239407984
-0.15631237929950306
-0.1834711494212705
-0.9536364239407984
-0.15631237929950306
-0.1834711494212705
-0.9536364239407984
-0.15631237929950306
-0.1834711494212705
-0.9536364239407984
-0.15631237929950306
-0.1834711494212705
-0.9536364239407984
-0.15631237929950306
-0.1834711494212705
-0.9556886715001341
-0.15672176687552009
-0.1834732115251131
-0.9556886715001341
-0.15672176687552009
-0.1834732115251131
-0.9556886715001341
-0.15672176687552009
-0.1834732115251131
-0.9556886715001341
-0.15672176687552009
-0.1834732115251131
-0.9566544411099756
-0.1572466572637322
-0.18317655979853767
-0.9566544411099756
-0.1572466572637322
-0.18317655979853767
-0.9566544411099756
-0.1572466572637322
-0.18317655979853767
-0.9566544411099756
-0.1572466572637322
-0.18317655979853767
-0.9560863805625252
-0.15736047600873965
-0.183274207573535
-0.9560863805625252
-0.15736047600873965
-0.183274207573535
-0.9560863805625252
-0.15736047600873965
-0.183274207573535
-0.9560863805625252
-0.15736047600873965
-0.183274207573535
-0.9548458996819225
-0.15724118467819923
-0.1830959544116423
-0.9548458996819225
-0.15724118467819923
-0.1830959544116423
-0.9548458996819225
-0.15724118467819923
-0.1830959544116423
-0.9548458996819225
-0.15724118467819923
-0.1830959544116423
-0.9545846779001992
-0.15692855909066963
-0.1825653962579475
-0.9545846779001992
-0.15692855909066963
-0.1825653962579475
-0.9545846779001992
-0.15692855909066963
-0.1825653962579475
-0.9545846779001992
-0.15692855909066963
-0.1825653962579475
-0.9556794506387238
-0.1568654865652293
-0.182698327570918
-0.9556794506387238
-0.1568654865652293
-0.182698327570918
-0.9556794506387238
-0.1568654865652293
-0.182698327570918
-0.9556794506387238
-0.1568654865652293
-0.182698327570918
-0.9558236157957583
-0.15668972334493333
-0.18390439119087912
-0.9558236157957583
-0.15668972334493333
-0.18390439119087912
-0.9558236157957583
-0.15668972334493333
-0.18390439119087912
-0.9558236157957583
-0.15668972334493333
-0.18390439119087912
-0.9557811542800806
-0.1564967798944754
-0.1853929290205104
-0.9557811542800806
-0.1564967798944754
-0.1853929290205104
-0.9557811542800806
-0.1564967798944754
-0.1853929290205104
-0.9557811542800806
-0.1564967798944754
-0.1853929290205104
-0.9575991952477961
-0.1563613503514104
-0.1862492770109155
-0.9575991952477961
-0.1563613503514104
-0.1862492770109155
-0.9575991952477961
-0.1563613503514104
-0.1862492770109155
-0.9575991952477961
-0.1563613503514104
-0.1862492770109155
-0.9595035862249628
-0.15666476496483842
-0.18686879433499332
-0.9595035862249628
-0.15666476496483842
-0.18686879433499332
-0.9595035862249628
-0.15666476496483842
-0.18686879433499332
-0.9595035862249628
-0.15666476496483842
-0.18686879433499332
-0.9610216065693405
-0.15654347079512232
-0.18730207274087307
-0.9610216065693405
-0.15654347079512232
-0.18730207274087307
-0.9610216065693405
-0.15654347079512232
-0.18730207274087307
-0.9610216065693405
-0.15654347079512232
-0.18730207274087307
-0.9613247958157107
-0.1560293044374942
-0.1875596922738605
-0.9613247958157107
-0.1560293044374942
-0.1875596922738605
-0.9613247958157107
-0.1560293044374942
-0.1875596922738605
-0.9613247958157107
-0.1560293044374942
-0.1875596922738605
-0.9589491423043308
-0.15546905761275268
-0.18762974295297968
-0.9589491423043308
-0.15546905761275268
-0.18762974295297968
-0.9589491423043308
-0.15546905761275268
-0.18762974295297968
-0.9589491423043308
-0.15546905761275268
-0.18762974295297968
-0.9587438158122217
-0.1551684067278524
-0.187105321790572
-0.9587438158122217
-0.1551684067278524
-0.187105321790572
-0.9587438158122217
-0.1551684067278524
-0.187105321790572
-0.9587438158122217
-0.1551684067278524
-0.187105321790572
-0.9588827413799467
-0.1552246538721962
-0.18665229435842257
-0.9588827413799467
-0.1552246538721962
-0.18665229435842257
-0.9588827413799467
-0.1552246538721962
-0.18665229435842257
-0.9588827413799467
-0.1552246538721962
-0.18665229435842257
-0.9587735045623594
-0.15521893688860408
-0.18666605281845922
-0.9587735045623594
-0.15521893688860408
-0.18666605281845922
-0.9587735045623594
-0.15521893688860408
-0.18666605281845922
-0.9587735045623594
-0.15521893688860408
-0.18666605281845922
-0.9588827413799467
-0.1552246538721962
-0.18665229435842257
-0.9588827413799467
-0.1552246538721962
-0.18665229435842257
-0.9588827413799467
-0.1552246538721962
-0.18665229435842257
-0.9588827413799467
-0.1552246538721962
-0.18665229435842257
-0.9581808402816343
-0.15493940164521922
-0.1868151909521914
-0.9581808402816343
-0.15493940164521922
-0.1868151909521914
-0.9581808402816343
-0.15493940164521922
-0.1868151909521914
-0.9581808402816343
-0.15493940164521922
-0.1868151909521914
-0.9586296010423171
-0.15460715826035146
-0.18711786747368908
-0.9586296010423171
-0.15460715826035146
-0.18711786747368908
-0.9586296010423171
-0.15460715826035146
-0.18711786747368908
-0.9586296010423171
-0.15460715826035146
-0.18711786747368908
-0.9595994235740334
-0.1544355933910923
-0.18759587336253808
-0.9595994235740334
-0.1544355933910923
-0.18759587336253808
-0.9595994235740334
-0.1544355933910923
-0.18759587336253808
-0.9595994235740334
-0.1544355933910923
-0.18759587336253808
-0.9591523295492125
-0.15433829409786268
-0.18779037921068492
-0.9591523295492125
-0.15433829409786268
-0.18779037921068492
-0.9591523295492125
-0.15433829409786268
-0.18779037921068492
-0.9591523295492125
-0.15433829409786268
-0.18779037921068492
-0.9584299341806884
-0.1548790946050355
-0.1879520119569755
-0.9584299341806884
-0.1548790946050355
-0.1879520119569755
-0.9584299341806884
-0.1548790946050355
-0.1879520119569755
-0.9584299341806884
-0.1548790946050355
-0.1879520119569755
-0.9584299341806884
-0.1548790946050355
-0.1879520119569755
-0.9584299341806884
-0.1548790946050355
-0.1879520119569755
-0.9584299341806884
-0.1548790946050355
-0.1879520119569755
-0.9584299341806884
-0.1548790946050355
-0.1879520119569755
-0.9584299341806884
-0.1548790946050355
-0.1879520119569755
-0.9584299341806884
-0.1548790946050355
-0.1879520119569755
-0.9584299341806884
-0.1548790946050355
-0.1879520119569755
-0.9584299341806884
-0.1548790946050355
-0.1879520119569755
-0.9583847672594388
-0.15531303382235176
-0.18800324527110046
-0.9583847672594388
-0.15531303382235176
-0.18800324527110046
-0.9583847672594388
-0.15531303382235176
-0.18800324527110046
-0.9583847672594388
-0.15531303382235176
-0.18800324527110046
-0.9586440522005862
-0.15605675687373508
-0.18803626534099321
-0.9586440522005862
-0.15605675687373508
-0.18803626534099321
-0.9586440522005862
-0.15605675687373508
-0.18803626534099321
-0.9586440522005862
-0.15605675687373508
-0.18803626534099321
-0.9587657519095507
-0.15643683003504985
-0.1874158336726704
-0.9587657519095507
-0.15643683003504985
-0.1874158336726704
-0.9587657519095507
-0.15643683003504985
-0.1874158336726704
-0.9587657519095507
-0.15643683003504985
-0.1874158336726704
-0.9587715492365833
-0.15632891345766906
-0.18747160668232626
-0.9587715492365833
-0.15632891345766906
-0.18747160668232626
-0.9587715492365833
-0.15632891345766906
-0.18747160668232626
-0.9587715492365833
-0.15632891345766906
-0.18747160668232626
-0.9587287544609314
-0.15692358377121507
-0.18730199830841926
-0.9587287544609314
-0.15692358377121507
-0.18730199830841926
-0.9587287544609314
-0.15692358377121507
-0.18730199830841926
-0.9587287544609314
-0.15692358377121507
-0.18730199830841926
-0.9588683704115365
-0.15721390983192546
-0.18729159541288984
-0.9588683704115365
-0.15721390983192546
-0.18729159541288984
-0.9588683704115365
-0.15721390983192546
-0.18729159541288984
-0.9588683704115365
-0.15721390983192546
-0.18729159541288984
-0.9591880138891464
-0.15703922949954865
-0.18766125133044345
-0.9591880138891464
-0.15703922949954865
-0.18766125133044345
-0.9591880138891464
-0.15703922949954865
-0.18766125133044345
-0.9591880138891464
-0.15703922949954865
-0.18766125133044345
-0.9584779255397453
-0.156700766797678
-0.1879898436987437
-0.9584779255397453
-0.156700766797678
-0.1879898436987437
-0.9584779255397453
-0.156700766797678
-0.1879898436987437
-0.9584779255397453
-0.156700766797678
-0.1879898436987437
-0.9583686591580709
-0.15669501673871672
-0.18800372140188515
-0.9583686591580709
-0.15669501673871672
-0.18800372140188515
-0.9583686591580709
-0.15669501673871672
-0.18800372140188515
-0.9583686591580709
-0.15669501673871672
-0.18800372140188515
-0.9580761208180277
-0.15640320737050364
-0.18857640094405212
-0.9580761208180277
-0.15640320737050364
-0.18857640094405212
-0.9580761208180277
-0.15640320737050364
-0.18857640094405212
-0.9580761208180277
-0.15640320737050364
-0.18857640094405212
-0.9576049221711433
-0.15614672003243127
-0.18926619338594447
-0.9576049221711433
-0.15614672003243127
-0.18926619338594447
-0.9576049221711433
-0.15614672003243127
-0.18926619338594447
-0.9576049221711433
-0.15614672003243127
-0.18926619338594447
-0.9571995614578284
-0.15611752268341575
-0.1895761580300209
-0.9571995614578284
-0.15611752268341575
-0.1895761580300209
-0.9571995614578284
-0.15611752268341575
-0.1895761580300209
-0.9571995614578284
-0.15611752268341575
-0.1895761580300209
-0.9577543903359579
-0.15688478802386005
-0.18931342318603236
-0.9577543903359579
-0.15688478802386005
-0.18931342318603236
-0.9577543903359579
-0.15688478802386005
-0.18931342318603236
-0.9577543903359579
-0.15688478802386005
-0.18931342318603236
-0.957713287764299
-0.15764038566715194
-0.1889234670557872
-0.957713287764299
-0.15764038566715194
-0.1889234670557872
-0.957713287764299
-0.15764038566715194
-0.1889234670557872
-0.957713287764299
-0.15764038566715194
-0.1889234670557872
