-0.9583089846576884
-0.25619941820766634
-0.022484360145080567
-0.9583089846576884
-0.25619941820766634
-0.022484360145080567
-0.9583089846576884
-0.25619941820766634
-0.022484360145080567
-0.9583089846576884
-0.25619941820766634
-0.022484360145080567
-0.9595608594939711
-0.2582160071997333
-0.026698502078328485
-0.9595608594939711
-0.2582160071997333
-0.026698502078328485
-0.9595608594939711
-0.2582160071997333
-0.026698502078328485
-0.9595608594939711
-0.2582160071997333
-0.026698502078328485
-0.9600807167151348
-0.2589298993804224
-0.0319626879114997
-0.9600807167151348
-0.2589298993804224
-0.0319626879114997
-0.9600807167151348
-0.2589298993804224
-0.0319626879114997
-0.9600807167151348
-0.2589298993804224
-0.0319626879114997
-0.9587794578896323
-0.25874795003287165
-0.03819265090473796
-0.9587794578896323
-0.25874795003287165
-0.03819265090473796
-0.9587794578896323
-0.25874795003287165
-0.03819265090473796
-0.9587794578896323
-0.25874795003287165
-0.03819265090473796
-0.9566726851460612
-0.2572319527717169
-0.04575240550939779
-0.9566726851460612
-0.2572319527717169
-0.04575240550939779
-0.9566726851460612
-0.2572319527717169
-0.04575240550939779
-0.9566726851460612
-0.2572319527717169
-0.04575240550939779
-0.9568911630777592
-0.2545057255633967
-0.052695874059662244
-0.9568911630777592
-0.2545057255633967
-0.052695874059662244
-0.9568911630777592
-0.2545057255633967
-0.052695874059662244
-0.9568911630777592
-0.2545057255633967
-0.052695874059662244
-0.9597961428504191
-0.2511183033492526
-0.058698374719598156
-0.9597961428504191
-0.2511183033492526
-0.058698374719598156
-0.9597961428504191
-0.2511183033492526
-0.058698374719598156
-0.9597961428504191
-0.2511183033492526
-0.058698374719598156
-0.9650860801256342
-0.24709646354556347
-0.06354320766339203
-0.9650860801256342
-0.24709646354556347
-0.06354320766339203
-0.9650860801256342
-0.24709646354556347
-0.06354320766339203
-0.9650860801256342
-0.24709646354556347
-0.06354320766339203
-0.9705568195645055
-0.24237601555101693
-0.06724592269491673
-0.9705568195645055
-0.24237601555101693
-0.06724592269491673
-0.9705568195645055
-0.24237601555101693
-0.06724592269491673
-0.9705568195645055
-0.24237601555101693
-0.06724592269491673
-0.973221451209127
-0.23731480144269237
-0.06977104111009032
-0.973221451209127
-0.23731480144269237
-0.06977104111009032
-0.973221451209127
-0.23731480144269237
-0.06977104111009032
-0.973221451209127
-0.23731480144269237
-0.06977104111009032
-0.9741064584910007
-0.2323094026600082
-0.07064260063854255
-0.9741064584910007
-0.2323094026600082
-0.07064260063854255
-0.9741064584910007
-0.2323094026600082
-0.07064260063854255
-0.9741064584910007
-0.2323094026600082
-0.07064260063854255
-0.9767422301783575
-0.2278130229192792
-0.0695499556484313
-0.9767422301783575
-0.2278130229192792
-0.0695499556484313
-0.9767422301783575
-0.2278130229192792
-0.0695499556484313
-0.9767422301783575
-0.2278130229192792
-0.0695499556484313
-0.9803937268854602
-0.22413559549868317
-0.06696482130567895
-0.9803937268854602
-0.22413559549868317
-0.06696482130567895
-0.9803937268854602
-0.22413559549868317
-0.06696482130567895
-0.9803937268854602
-0.22413559549868317
-0.06696482130567895
-0.9828752598844979
-0.2208656216560237
-0.06330201123367735
-0.9828752598844979
-0.2208656216560237
-0.06330201123367735
-0.9828752598844979
-0.2208656216560237
-0.06330201123367735
-0.9828752598844979
-0.2208656216560237
-0.06330201123367735
-0.9847815110754691
-0.21860263742311783
-0.05902855063367599
-0.9847815110754691
-0.21860263742311783
-0.05902855063367599
-0.9847815110754691
-0.21860263742311783
-0.05902855063367599
-0.9847815110754691
-0.21860263742311783
-0.05902855063367599
-0.9865846504640009
-0.21735524448432747
-0.05435802004911007
-0.9865846504640009
-0.21735524448432747
-0.05435802004911007
-0.9865846504640009
-0.21735524448432747
-0.05435802004911007
-0.9865846504640009
-0.21735524448432747
-0.05435802004911007
-0.9875755755482858
-0.21696589942373026
-0.04986506898127975
-0.9875755755482858
-0.21696589942373026
-0.04986506898127975
-0.9875755755482858
-0.21696589942373026
-0.04986506898127975
-0.9875755755482858
-0.21696589942373026
-0.04986506898127975
-0.9870630581593693
-0.21713993908789445
-0.04590057394245135
-0.9870630581593693
-0.21713993908789445
-0.04590057394245135
-0.9870630581593693
-0.21713993908789445
-0.04590057394245135
-0.9870630581593693
-0.21713993908789445
-0.04590057394245135
-0.9869148869523053
-0.21773210176496718
-0.0421092491577025
-0.9869148869523053
-0.21773210176496718
-0.0421092491577025
-0.9869148869523053
-0.21773210176496718
-0.0421092491577025
-0.9869148869523053
-0.21773210176496718
-0.0421092491577025
-0.9881228418545388
-0.2186251333586335
-0.03843428472101722
-0.9881228418545388
-0.2186251333586335
-0.03843428472101722
-0.9881228418545388
-0.2186251333586335
-0.03843428472101722
-0.9881228418545388
-0.2186251333586335
-0.03843428472101722
-0.9894041375933679
-0.21987577850512635
-0.03512775266571692
-0.9894041375933679
-0.21987577850512635
-0.03512775266571692
-0.9894041375933679
-0.21987577850512635
-0.03512775266571692
-0.9894041375933679
-0.21987577850512635
-0.03512775266571692
-0.9892535003481986
-0.22100494105718463
-0.03285751859883191
-0.9892535003481986
-0.22100494105718463
-0.03285751859883191
-0.9892535003481986
-0.22100494105718463
-0.03285751859883191
-0.9892535003481986
-0.22100494105718463
-0.03285751859883191
-0.9882010328822303
-0.22230456740036458
-0.03128705402760183
-0.9882010328822303
-0.22230456740036458
-0.03128705402760183
-0.9882010328822303
-0.22230456740036458
-0.03128705402760183
-0.9882010328822303
-0.22230456740036458
-0.03128705402760183
-0.9876651581072422
-0.2234059244977966
-0.030050480787416275
-0.9876651581072422
-0.2234059244977966
-0.030050480787416275
-0.9876651581072422
-0.2234059244977966
-0.030050480787416275
-0.9876651581072422
-0.2234059244977966
-0.030050480787416275
-0.9888548296901848
-0.2248096431753626
-0.02861223477353918
-0.9888548296901848
-0.2248096431753626
-0.02861223477353918
-0.9888548296901848
-0.2248096431753626
-0.02861223477353918
-0.9888548296901848
-0.2248096431753626
-0.02861223477353918
-0.992060986540958
-0.22607906701220365
-0.026894090746621906
-0.992060986540958
-0.22607906701220365
-0.026894090746621906
-0.992060986540958
-0.22607906701220365
-0.026894090746621906
-0.992060986540958
-0.22607906701220365
-0.026894090746621906
-0.9933927688359778
-0.22749411786179477
-0.025709656070100364
-0.9933927688359778
-0.22749411786179477
-0.025709656070100364
-0.9933927688359778
-0.22749411786179477
-0.025709656070100364
-0.9933927688359778
-0.22749411786179477
-0.025709656070100364
-0.992732834888877
-0.22889871738313133
-0.025574548961134615
-0.992732834888877
-0.22889871738313133
-0.025574548961134615
-0.992732834888877
-0.22889871738313133
-0.025574548961134615
-0.992732834888877
-0.22889871738313133
-0.025574548961134615
-0.9927894638795499
-0.2291827396538538
-0.02556042508542998
-0.9927894638795499
-0.2291827396538538
-0.02556042508542998
-0.9927894638795499
-0.2291827396538538
-0.02556042508542998
-0.9927894638795499
-0.2291827396538538
-0.02556042508542998
-0.9927948933480436
-0.22928945184683205
-0.025501281835179378
-0.9927948933480436
-0.22928945184683205
-0.025501281835179378
-0.9927948933480436
-0.22928945184683205
-0.025501281835179378
-0.9927948933480436
-0.22928945184683205
-0.025501281835179378
-0.9924093431494245
-0.22909885085551032
-0.026486588223240043
-0.9924093431494245
-0.22909885085551032
-0.026486588223240043
-0.9924093431494245
-0.22909885085551032
-0.026486588223240043
-0.9924093431494245
-0.22909885085551032
-0.026486588223240043
-0.9930754376800258
-0.22852789773497467
-0.02741651434622809
-0.9930754376800258
-0.22852789773497467
-0.02741651434622809
-0.9930754376800258
-0.22852789773497467
-0.02741651434622809
-0.9930754376800258
-0.22852789773497467
-0.02741651434622809
-0.9945266055537292
-0.22727696543213644
-0.028774589352702704
-0.9945266055537292
-0.22727696543213644
-0.028774589352702704
-0.9945266055537292
-0.22727696543213644
-0.028774589352702704
-0.9945266055537292
-0.22727696543213644
-0.028774589352702704
-0.9947635078502031
-0.22469286578945824
-0.0298771022644043
-0.9947635078502031
-0.22469286578945824
-0.0298771022644043
-0.9947635078502031
-0.22469286578945824
-0.0298771022644043
-0.9947635078502031
-0.22469286578945824
-0.0298771022644043
-0.9957063598258642
-0.22258594439928722
-0.030498939537253165
-0.9957063598258642
-0.22258594439928722
-0.030498939537253165
-0.9957063598258642
-0.22258594439928722
-0.030498939537253165
-0.9957063598258642
-0.22258594439928722
-0.030498939537253165
-0.9968762533628518
-0.22161083847661764
-0.03342363990795536
-0.9968762533628518
-0.22161083847661764
-0.03342363990795536
-0.9968762533628518
-0.22161083847661764
-0.03342363990795536
-0.9968762533628518
-0.22161083847661764
-0.03342363990795536
-0.9943191346498816
-0.21750752711053842
-0.03521206119986354
-0.9943191346498816
-0.21750752711053842
-0.03521206119986354
-0.9943191346498816
-0.21750752711053842
-0.03521206119986354
-0.9943191346498816
-0.21750752711053842
-0.03521206119986354
-0.9908338666671023
-0.21384846339405528
-0.034875154416693845
-0.9908338666671023
-0.21384846339405528
-0.034875154416693845
-0.9908338666671023
-0.21384846339405528
-0.034875154416693845
-0.9908338666671023
-0.21384846339405528
-0.034875154416693845
-0.9903217928304007
-0.21336865523718898
-0.03406448175444451
-0.9903217928304007
-0.21336865523718898
-0.03406448175444451
-0.9903217928304007
-0.21336865523718898
-0.03406448175444451
-0.9903217928304007
-0.21336865523718898
-0.03406448175444451
-0.9882878953264586
-0.21063445696896244
-0.03392084564816737
-0.9882878953264586
-0.21063445696896244
-0.03392084564816737
-0.9882878953264586
-0.21063445696896244
-0.03392084564816737
-0.9882878953264586
-0.21063445696896244
-0.03392084564816737
-0.9773284438812357
-0.20638994620466403
-0.03319602990248005
-0.9773284438812357
-0.20638994620466403
-0.03319602990248005
-0.9773284438812357
-0.20638994620466403
-0.03319602990248005
-0.9773284438812357
-0.20638994620466403
-0.03319602990248005
-0.9645881361304008
-0.2041427572902951
-0.0346027754615829
-0.9645881361304008
-0.2041427572902951
-0.0346027754615829
-0.9645881361304008
-0.2041427572902951
-0.0346027754615829
-0.9645881361304008
-0.2041427572902951
-0.0346027754615829
-0.9594081933328965
-0.19876090132458507
-0.03345366192774912
-0.9594081933328965
-0.19876090132458507
-0.03345366192774912
-0.9594081933328965
-0.19876090132458507
-0.03345366192774912
-0.9594081933328965
-0.19876090132458507
-0.03345366192774912
-0.9608632733049588
-0.19259299032249924
-0.0312611112074852
-0.9608632733049588
-0.19259299032249924
-0.0312611112074852
-0.9608632733049588
-0.19259299032249924
-0.0312611112074852
-0.9608632733049588
-0.19259299032249924
-0.0312611112074852
-0.9668597519364333
-0.1887450042976582
-0.02817727396305906
-0.9668597519364333
-0.1887450042976582
-0.02817727396305906
-0.9668597519364333
-0.1887450042976582
-0.02817727396305906
-0.9668597519364333
-0.1887450042976582
-0.02817727396305906
-0.9672605955147955
-0.18605565547056066
-0.025391813910805507
-0.9672605955147955
-0.18605565547056066
-0.025391813910805507
-0.9672605955147955
-0.18605565547056066
-0.025391813910805507
-0.9672605955147955
-0.18605565547056066
-0.025391813910805507
-0.9606283117197834
-0.18364375677037165
-0.024456608419004936
-0.9606283117197834
-0.18364375677037165
-0.024456608419004936
-0.9606283117197834
-0.18364375677037165
-0.024456608419004936
-0.9606283117197834
-0.18364375677037165
-0.024456608419004936
-0.9579524581655886
-0.1803762484157827
-0.021677880845173376
-0.9579524581655886
-0.1803762484157827
-0.021677880845173376
-0.9579524581655886
-0.1803762484157827
-0.021677880845173376
-0.9579524581655886
-0.1803762484157827
-0.021677880845173376
-0.9644483767948009
-0.17752407545791224
-0.017359568849254322
-0.9644483767948009
-0.17752407545791224
-0.017359568849254322
-0.9644483767948009
-0.17752407545791224
-0.017359568849254322
-0.9644483767948009
-0.17752407545791224
-0.017359568849254322
-0.9726858427765784
-0.17673857627823686
-0.0129171594014549
-0.9726858427765784
-0.17673857627823686
-0.0129171594014549
-0.9726858427765784
-0.17673857627823686
-0.0129171594014549
-0.9726858427765784
-0.17673857627823686
-0.0129171594014549
-0.9770384248921148
-0.17756470605961772
-0.011415970165802264
-0.9770384248921148
-0.17756470605961772
-0.011415970165802264
-0.9770384248921148
-0.17756470605961772
-0.011415970165802264
-0.9770384248921148
-0.17756470605961772
-0.011415970165802264
-0.9768088467303083
-0.1793688362726733
-0.011447083690937897
-0.9768088467303083
-0.1793688362726733
-0.011447083690937897
-0.9768088467303083
-0.1793688362726733
-0.011447083690937897
-0.9768088467303083
-0.1793688362726733
-0.011447083690937897
-0.9793630810221757
-0.18125925807758705
-0.009798127348367498
-0.9793630810221757
-0.18125925807758705
-0.009798127348367498
-0.9793630810221757
-0.18125925807758705
-0.009798127348367498
-0.9793630810221757
-0.18125925807758705
-0.009798127348367498
-0.9866868170233655
-0.18337830661988255
-0.008852775560501116
-0.9866868170233655
-0.18337830661988255
-0.008852775560501116
-0.9866868170233655
-0.18337830661988255
-0.008852775560501116
-0.9866868170233655
-0.18337830661988255
-0.008852775560501116
-0.9924652817984946
-0.18521495730001458
-0.008591655210820184
-0.9924652817984946
-0.18521495730001458
-0.008591655210820184
-0.9924652817984946
-0.18521495730001458
-0.008591655210820184
-0.9924652817984946
-0.18521495730001458
-0.008591655210820184
-0.994360367132914
-0.18699716397048147
-0.008850911787188453
-0.994360367132914
-0.18699716397048147
-0.008850911787188453
-0.994360367132914
-0.18699716397048147
-0.008850911787188453
-0.994360367132914
-0.18699716397048147
-0.008850911787188453
-0.9952544618714197
-0.1900217930030098
-0.008666150929831345
-0.9952544618714197
-0.1900217930030098
-0.008666150929831345
-0.9952544618714197
-0.1900217930030098
-0.008666150929831345
-0.9952544618714197
-0.1900217930030098
-0.008666150929831345
-0.9972190095463699
-0.19264915771896454
-0.008168536281434347
-0.9972190095463699
-0.19264915771896454
-0.008168536281434347
-0.9972190095463699
-0.19264915771896454
-0.008168536281434347
-0.9972190095463699
-0.19264915771896454
-0.008168536281434347
-1.0003963178939166
-0.19407786546884112
-0.007645394444380163
-1.0003963178939166
-0.19407786546884112
-0.007645394444380163
-1.0003963178939166
-0.19407786546884112
-0.007645394444380163
-1.0003963178939166
-0.19407786546884112
-0.007645394444380163
-1.003727399736631
-0.19394440046495467
-0.007820632733385078
-1.003727399736631
-0.19394440046495467
-0.007820632733385078
-1.003727399736631
-0.19394440046495467
-0.007820632733385078
-1.003727399736631
-0.19394440046495467
-0.007820632733385078
-1.004009479250363
-0.19377949799304045
-0.007744653365321586
-1.004009479250363
-0.19377949799304045
-0.007744653365321586
-1.004009479250363
-0.19377949799304045
-0.007744653365321586
-1.004009479250363
-0.19377949799304045
-0.007744653365321586
-1.003532451948906
-0.19367785021597414
-0.008123896761845825
-1.003532451948906
-0.19367785021597414
-0.008123896761845825
-1.003532451948906
-0.19367785021597414
-0.008123896761845825
-1.003532451948906
-0.19367785021597414
-0.008123896761845825
-1.0053497294936604
-0.19347063388239924
-0.008065469440940349
-1.0053497294936604
-0.19347063388239924
-0.008065469440940349
-1.0053497294936604
-0.19347063388239924
-0.008065469440940349
-1.0053497294936604
-0.19347063388239924
-0.008065469440940349
-1.0093409937232616
-0.19275131239714222
-0.007104413351718203
-1.0093409937232616
-0.19275131239714222
-0.007104413351718203
-1.0093409937232616
-0.19275131239714222
-0.007104413351718203
-1.0093409937232616
-0.19275131239714222
-0.007104413351718203
-1.0120638291477897
-0.192871924422889
-0.0067819091543994195
-1.0120638291477897
-0.192871924422889
-0.0067819091543994195
-1.0120638291477897
-0.192871924422889
-0.0067819091543994195
-1.0120638291477897
-0.192871924422889
-0.0067819091543994195
-1.0127198336193408
-0.19275990637506046
-0.006777650443857503
-1.0127198336193408
-0.19275990637506046
-0.006777650443857503
-1.0127198336193408
-0.19275990637506046
-0.006777650443857503
-1.0127198336193408
-0.19275990637506046
-0.006777650443857503
-1.0112993808553696
-0.19255949965647134
-0.007307979692370082
-1.0112993808553696
-0.19255949965647134
-0.007307979692370082
-1.0112993808553696
-0.19255949965647134
-0.007307979692370082
-1.0112993808553696
-0.19255949965647134
-0.007307979692370082
-1.0118136084947216
-0.19188819450268466
-0.007066469088884494
-1.0118136084947216
-0.19188819450268466
-0.007066469088884494
-1.0118136084947216
-0.19188819450268466
-0.007066469088884494
-1.0118136084947216
-0.19188819450268466
-0.007066469088884494
-1.0154511756745472
-0.19207818203153323
-0.005775318345189732
-1.0154511756745472
-0.19207818203153323
-0.005775318345189732
-1.0154511756745472
-0.19207818203153323
-0.005775318345189732
-1.0154511756745472
-0.19207818203153323
-0.005775318345189732
-1.0191326966337007
-0.1920707452756529
-0.005146580451187247
-1.0191326966337007
-0.1920707452756529
-0.005146580451187247
-1.0191326966337007
-0.1920707452756529
-0.005146580451187247
-1.0191326966337007
-0.1920707452756529
-0.005146580451187247
-1.019050201935332
-0.19152094088655852
-0.004905901711833958
-1.019050201935332
-0.19152094088655852
-0.004905901711833958
-1.019050201935332
-0.19152094088655852
-0.004905901711833958
-1.019050201935332
-0.19152094088655852
-0.004905901711833958
-1.017059988273238
-0.19162028728076147
-0.005037307060947889
-1.017059988273238
-0.19162028728076147
-0.005037307060947889
-1.017059988273238
-0.19162028728076147
-0.005037307060947889
-1.017059988273238
-0.19162028728076147
-0.005037307060947889
-1.0181709550448887
-0.1914529665429964
-0.004883102987609596
-1.0181709550448887
-0.1914529665429964
-0.004883102987609596
-1.0181709550448887
-0.1914529665429964
-0.004883102987609596
-1.0181709550448887
-0.1914529665429964
-0.004883102987609596
-1.0221833465971208
-0.19134674255728876
-0.0042839803037398
-1.0221833465971208
-0.19134674255728876
-0.0042839803037398
-1.0221833465971208
-0.19134674255728876
-0.0042839803037398
-1.0221833465971208
-0.19134674255728876
-0.0042839803037398
-1.0237292124236068
-0.19151362032308714
-0.004182438427116653
-1.0237292124236068
-0.19151362032308714
-0.004182438427116653
-1.0237292124236068
-0.19151362032308714
-0.004182438427116653
-1.0237292124236068
-0.19151362032308714
-0.004182438427116653
-1.0220831318808885
-0.191775413942291
-0.005316260449757495
-1.0220831318808885
-0.191775413942291
-0.005316260449757495
-1.0220831318808885
-0.191775413942291
-0.005316260449757495
-1.0220831318808885
-0.191775413942291
-0.005316260449757495
-1.0200697451001226
-0.1924039448942976
-0.007402029905495038
-1.0200697451001226
-0.1924039448942976
-0.007402029905495038
-1.0200697451001226
-0.1924039448942976
-0.007402029905495038
-1.0200697451001226
-0.1924039448942976
-0.007402029905495038
-1.0207494629237428
-0.19187673573468036
-0.008898385900973556
-1.0207494629237428
-0.19187673573468036
-0.008898385900973556
-1.0207494629237428
-0.19187673573468036
-0.008898385900973556
-1.0207494629237428
-0.19187673573468036
-0.008898385900973556
-1.021798695671735
-0.19145451096075222
-0.010026183670224474
-1.021798695671735
-0.19145451096075222
-0.010026183670224474
-1.021798695671735
-0.19145451096075222
-0.010026183670224474
-1.021798695671735
-0.19145451096075222
-0.010026183670224474
-1.0210477469564647
-0.19085788726681824
-0.011553016768281665
-1.0210477469564647
-0.19085788726681824
-0.011553016768281665
-1.0210477469564647
-0.19085788726681824
-0.011553016768281665
-1.0210477469564647
-0.19085788726681824
-0.011553016768281665
-1.0187423055917202
-0.19014553041998913
-0.01328748962487913
-1.0187423055917202
-0.19014553041998913
-0.01328748962487913
-1.0187423055917202
-0.19014553041998913
-0.01328748962487913
-1.0187423055917202
-0.19014553041998913
-0.01328748962487913
-1.017738726602025
-0.18942635208696573
-0.014622593037949225
-1.017738726602025
-0.18942635208696573
-0.014622593037949225
-1.017738726602025
-0.18942635208696573
-0.014622593037949225
-1.017738726602025
-0.18942635208696573
-0.014622593037949225
-1.0190928179051169
-0.18825067942082538
-0.014877511785730838
-1.0190928179051169
-0.18825067942082538
-0.014877511785730838
-1.0190928179051169
-0.18825067942082538
-0.014877511785730838
-1.0190928179051169
-0.18825067942082538
-0.014877511785730838
-1.0198380143150554
-0.18744072977099388
-0.015117987906687573
-1.0198380143150554
-0.18744072977099388
-0.015117987906687573
-1.0198380143150554
-0.18744072977099388
-0.015117987906687573
-1.0198380143150554
-0.18744072977099388
-0.015117987906687573
-1.0179592799508124
-0.18671101458179842
-0.015271498754814542
-1.0179592799508124
-0.18671101458179842
-0.015271498754814542
-1.0179592799508124
-0.18671101458179842
-0.015271498754814542
-1.0179592799508124
-0.18671101458179842
-0.015271498754814542
-1.0158675598545381
-0.18663968169354886
-0.01536050845015179
-1.0158675598545381
-0.18663968169354886
-0.01536050845015179
-1.0158675598545381
-0.18663968169354886
-0.01536050845015179
-1.0158675598545381
-0.18663968169354886
-0.01536050845015179
-1.0158675598545381
-0.18663968169354886
-0.01536050845015179
-1.0158675598545381
-0.18663968169354886
-0.01536050845015179
-1.0158675598545381
-0.18663968169354886
-0.01536050845015179
-1.0158675598545381
-0.18663968169354886
-0.01536050845015179
-1.0161820891866338
-0.1859632725887434
-0.016129004722156427
-1.0161820891866338
-0.1859632725887434
-0.016129004722156427
-1.0161820891866338
-0.1859632725887434
-0.016129004722156427
-1.0161820891866338
-0.1859632725887434
-0.016129004722156427
-1.0145045079792887
-0.1857388033800185
-0.017666852095013865
-1.0145045079792887
-0.1857388033800185
-0.017666852095013865
-1.0145045079792887
-0.1857388033800185
-0.017666852095013865
-1.0145045079792887
-0.1857388033800185
-0.017666852095013865
-1.0130367990990337
-0.18548866447414117
-0.019899106768398366
-1.0130367990990337
-0.18548866447414117
-0.019899106768398366
-1.0130367990990337
-0.18548866447414117
-0.019899106768398366
-1.0130367990990337
-0.18548866447414117
-0.019899106768398366
-1.0120396787425099
-0.1847625355113992
-0.021228658512973834
-1.0120396787425099
-0.1847625355113992
-0.021228658512973834
-1.0120396787425099
-0.1847625355113992
-0.021228658512973834
-1.0120396787425099
-0.1847625355113992
-0.021228658512973834
-1.0134320596200972
-0.1839983320745963
-0.022229177573646383
-1.0134320596200972
-0.1839983320745963
-0.022229177573646383
-1.0134320596200972
-0.1839983320745963
-0.022229177573646383
-1.0134320596200972
-0.1839983320745963
-0.022229177573646383
-1.0155904106712124
-0.18320905704677592
-0.023328471470731738
-1.0155904106712124
-0.18320905704677592
-0.023328471470731738
-1.0155904106712124
-0.18320905704677592
-0.023328471470731738
-1.0155904106712124
-0.18320905704677592
-0.023328471470731738
-1.0154738756399835
-0.18255912772088972
-0.024684933542220285
-1.0154738756399835
-0.18255912772088972
-0.024684933542220285
-1.0154738756399835
-0.18255912772088972
-0.024684933542220285
-1.0154738756399835
-0.18255912772088972
-0.024684933542220285
-1.0148941981880821
-0.18192543775384928
-0.025641197107335655
-1.0148941981880821
-0.18192543775384928
-0.025641197107335655
-1.0148941981880821
-0.18192543775384928
-0.025641197107335655
-1.0148941981880821
-0.18192543775384928
-0.025641197107335655
-1.0155850284466512
-0.18184202021014645
-0.025911878925576965
-1.0155850284466512
-0.18184202021014645
-0.025911878925576965
-1.0155850284466512
-0.18184202021014645
-0.025911878925576965
-1.0155850284466512
-0.18184202021014645
-0.025911878925576965
-1.0167535635500304
-0.18196836431489374
-0.02574642778113171
-1.0167535635500304
-0.18196836431489374
-0.02574642778113171
-1.0167535635500304
-0.18196836431489374
-0.02574642778113171
-1.0167535635500304
-0.18196836431489374
-0.02574642778113171
-1.01604315867502
-0.18254751344584869
-0.025619915745902912
-1.01604315867502
-0.18254751344584869
-0.025619915745902912
-1.01604315867502
-0.18254751344584869
-0.025619915745902912
-1.01604315867502
-0.18254751344584869
-0.025619915745902912
-1.0146559113364284
-0.18270079530355068
-0.02579524103426953
-1.0146559113364284
-0.18270079530355068
-0.02579524103426953
-1.0146559113364284
-0.18270079530355068
-0.02579524103426953
-1.0146559113364284
-0.18270079530355068
-0.02579524103426953
-1.0138111038069948
-0.1822681552267215
-0.026111116175201975
-1.0138111038069948
-0.1822681552267215
-0.026111116175201975
-1.0138111038069948
-0.1822681552267215
-0.026111116175201975
-1.0138111038069948
-0.1822681552267215
-0.026111116175201975
-1.0139136296766955
-0.18177990020319293
-0.026231856467081906
-1.0139136296766955
-0.18177990020319293
-0.026231856467081906
-1.0139136296766955
-0.18177990020319293
-0.026231856467081906
-1.0139136296766955
-0.18177990020319293
-0.026231856467081906
-1.013909580967976
-0.181673557892588
-0.026291735320708852
-1.013909580967976
-0.181673557892588
-0.026291735320708852
-1.013909580967976
-0.181673557892588
-0.026291735320708852
-1.013909580967976
-0.181673557892588
-0.026291735320708852
-1.014459296090943
-0.18195010945821546
-0.026229408990218403
-1.014459296090943
-0.18195010945821546
-0.026229408990218403
-1.014459296090943
-0.18195010945821546
-0.026229408990218403
-1.014459296090943
-0.18195010945821546
-0.026229408990218403
-1.0160185570683826
-0.18190987849994703
-0.025979899504469776
-1.0160185570683826
-0.18190987849994703
-0.025979899504469776
-1.0160185570683826
-0.18190987849994703
-0.025979899504469776
-1.0160185570683826
-0.18190987849994703
-0.025979899504469776
-1.0174268154757906
-0.1816384644286224
-0.025589221188747756
-1.0174268154757906
-0.1816384644286224
-0.025589221188747756
-1.0174268154757906
-0.1816384644286224
-0.025589221188747756
-1.0174268154757906
-0.1816384644286224
-0.025589221188747756
-1.0184673282583923
-0.1817930869370613
-0.02499428755397871
-1.0184673282583923
-0.1817930869370613
-0.02499428755397871
-1.0184673282583923
-0.1817930869370613
-0.02499428755397871
-1.0184673282583923
-0.1817930869370613
-0.02499428755397871
-1.0175601298793688
-0.18253393473634164
-0.02466024461535058
-1.0175601298793688
-0.18253393473634164
-0.02466024461535058
-1.0175601298793688
-0.18253393473634164
-0.02466024461535058
-1.0175601298793688
-0.18253393473634164
-0.02466024461535058
-1.0163023037580394
-0.18256586191403812
-0.024608654129035214
-1.0163023037580394
-0.18256586191403812
-0.024608654129035214
-1.0163023037580394
-0.18256586191403812
-0.024608654129035214
-1.0163023037580394
-0.18256586191403812
-0.024608654129035214
-1.0154309727038182
-0.1823244375246563
-0.024532913824410228
-1.0154309727038182
-0.1823244375246563
-0.024532913824410228
-1.0154309727038182
-0.1823244375246563
-0.024532913824410228
-1.0154309727038182
-0.1823244375246563
-0.024532913824410228
-1.0160982150872606
-0.18242207819522055
-0.0238656714409679
-1.0160982150872606
-0.18242207819522055
-0.0238656714409679
-1.0160982150872606
-0.18242207819522055
-0.0238656714409679
-1.0160982150872606
-0.18242207819522055
-0.0238656714409679
-1.0159836365956152
-0.183240886521977
-0.023840411678668356
-1.0159836365956152
-0.183240886521977
-0.023840411678668356
-1.0159836365956152
-0.183240886521977
-0.023840411678668356
-1.0159836365956152
-0.183240886521977
-0.023840411678668356
-1.0159154654764617
-0.18348864915393354
-0.024548904437853323
-1.0159154654764617
-0.18348864915393354
-0.024548904437853323
-1.0159154654764617
-0.18348864915393354
-0.024548904437853323
-1.0159154654764617
-0.18348864915393354
-0.024548904437853323
-1.0154076040369169
-0.1831845312812826
-0.02532160974217663
-1.0154076040369169
-0.1831845312812826
-0.02532160974217663
-1.0154076040369169
-0.1831845312812826
-0.02532160974217663
-1.0154076040369169
-0.1831845312812826
-0.02532160974217663
-1.014976439617812
-0.18284527205974357
-0.025265648981694217
-1.014976439617812
-0.18284527205974357
-0.025265648981694217
-1.014976439617812
-0.18284527205974357
-0.025265648981694217
-1.014976439617812
-0.18284527205974357
-0.025265648981694217
-1.014307023088384
-0.1828111490971237
-0.024779082757656692
-1.014307023088384
-0.1828111490971237
-0.024779082757656692
-1.014307023088384
-0.1828111490971237
-0.024779082757656692
-1.014307023088384
-0.1828111490971237
-0.024779082757656692
-1.0138033686549597
-0.18305524129537917
-0.024266038785203604
-1.0138033686549597
-0.18305524129537917
-0.024266038785203604
-1.0138033686549597
-0.18305524129537917
-0.024266038785203604
-1.0138033686549597
-0.18305524129537917
-0.024266038785203604
-1.0152483463496833
-0.1831829882787266
-0.0240743935479397
-1.0152483463496833
-0.1831829882787266
-0.0240743935479397
-1.0152483463496833
-0.1831829882787266
-0.0240743935479397
-1.0152483463496833
-0.1831829882787266
-0.0240743935479397
-1.0159496842599696
-0.1830400938857722
-0.024236601755929676
-1.0159496842599696
-0.1830400938857722
-0.024236601755929676
-1.0159496842599696
-0.1830400938857722
-0.024236601755929676
-1.0159496842599696
-0.1830400938857722
-0.024236601755929676
-1.0163254970011641
-0.18282561831788902
-0.024320523633465558
-1.0163254970011641
-0.18282561831788902
-0.024320523633465558
-1.0163254970011641
-0.18282561831788902
-0.024320523633465558
-1.0163254970011641
-0.18282561831788902
-0.024320523633465558
-1.0180616063950791
-0.182353103726107
-0.024019868351110363
-1.0180616063950791
-0.182353103726107
-0.024019868351110363
-1.0180616063950791
-0.182353103726107
-0.024019868351110363
-1.0180616063950791
-0.182353103726107
-0.024019868351110363
-1.0191640232162371
-0.18198386387690027
-0.0239908500914659
-1.0191640232162371
-0.18198386387690027
-0.0239908500914659
-1.0191640232162371
-0.18198386387690027
-0.0239908500914659
-1.0191640232162371
-0.18198386387690027
-0.0239908500914659
-1.0189455176301727
-0.18135263419239983
-0.024642681203070765
-1.0189455176301727
-0.18135263419239983
-0.024642681203070765
-1.0189455176301727
-0.18135263419239983
-0.024642681203070765
-1.0189455176301727
-0.18135263419239983
-0.024642681203070765
-1.0177242582776458
-0.17975270935437487
-0.02493303988247407
-1.0177242582776458
-0.17975270935437487
-0.02493303988247407
-1.0177242582776458
-0.17975270935437487
-0.02493303988247407
-1.0177242582776458
-0.17975270935437487
-0.02493303988247407
-1.016401527078906
-0.17864058274011707
-0.025099739784826425
-1.016401527078906
-0.17864058274011707
-0.025099739784826425
-1.016401527078906
-0.17864058274011707
-0.025099739784826425
-1.016401527078906
-0.17864058274011707
-0.025099739784826425
-1.0163733895630886
-0.17780374781025893
-0.024863769354271627
-1.0163733895630886
-0.17780374781025893
-0.024863769354271627
-1.0163733895630886
-0.17780374781025893
-0.024863769354271627
-1.0163733895630886
-0.17780374781025893
-0.024863769354271627
-1.015914282792299
-0.17672047336397584
-0.025226548795851327
-1.015914282792299
-0.17672047336397584
-0.025226548795851327
-1.015914282792299
-0.17672047336397584
-0.025226548795851327
-1.015914282792299
-0.17672047336397584
-0.025226548795851327
-1.0136986250906066
-0.17575592983675034
-0.025515539122913936
-1.0136986250906066
-0.17575592983675034
-0.025515539122913936
-1.0136986250906066
-0.17575592983675034
-0.025515539122913936
-1.0136986250906066
-0.17575592983675034
-0.025515539122913936
-1.0106822075787878
-0.17514224714468002
-0.024983113374611097
-1.0106822075787878
-0.17514224714468002
-0.024983113374611097
-1.0106822075787878
-0.17514224714468002
-0.024983113374611097
-1.0106822075787878
-0.17514224714468002
-0.024983113374611097
-1.0110107606520233
-0.17522893502225084
-0.024347279642972747
-1.0110107606520233
-0.17522893502225084
-0.024347279642972747
-1.0110107606520233
-0.17522893502225084
-0.024347279642972747
-1.0110107606520233
-0.17522893502225084
-0.024347279642972747
-1.010980070031275
-0.17466446270103667
-0.024097850559119074
-1.010980070031275
-0.17466446270103667
-0.024097850559119074
-1.010980070031275
-0.17466446270103667
-0.024097850559119074
-1.010980070031275
-0.17466446270103667
-0.024097850559119074
-1.0083560431832144
-0.17435508445457756
-0.024065565835348003
-1.0083560431832144
-0.17435508445457756
-0.024065565835348003
-1.0083560431832144
-0.17435508445457756
-0.024065565835348003
-1.0083560431832144
-0.17435508445457756
-0.024065565835348003
-1.0063755316752532
-0.17427023154291013
-0.02413093649589537
-1.0063755316752532
-0.17427023154291013
-0.02413093649589537
-1.0063755316752532
-0.17427023154291013
-0.02413093649589537
-1.0063755316752532
-0.17427023154291013
-0.02413093649589537
-1.0069577673945191
-0.17409922366433828
-0.02375783960016186
-1.0069577673945191
-0.17409922366433828
-0.02375783960016186
-1.0069577673945191
-0.17409922366433828
-0.02375783960016186
-1.0069577673945191
-0.17409922366433828
-0.02375783960016186
-1.0085025453594623
-0.17438836668453322
-0.02361181598307756
-1.0085025453594623
-0.17438836668453322
-0.02361181598307756
-1.0085025453594623
-0.17438836668453322
-0.02361181598307756
-1.0085025453594623
-0.17438836668453322
-0.02361181598307756
-1.0090379139484313
-0.1746166833632319
-0.023720046868851135
-1.0090379139484313
-0.1746166833632319
-0.023720046868851135
-1.0090379139484313
-0.1746166833632319
-0.023720046868851135
-1.0090379139484313
-0.1746166833632319
-0.023720046868851135
-1.0099745142727192
-0.17471015101270612
-0.02429295617804362
-1.0099745142727192
-0.17471015101270612
-0.02429295617804362
-1.0099745142727192
-0.17471015101270612
-0.02429295617804362
-1.0099745142727192
-0.17471015101270612
-0.02429295617804362
-1.0117266047723419
-0.17420506652172416
-0.025698951516851396
-1.0117266047723419
-0.17420506652172416
-0.025698951516851396
-1.0117266047723419
-0.17420506652172416
-0.025698951516851396
-1.0117266047723419
-0.17420506652172416
-0.025698951516851396
-1.0117126090314774
-0.17248156311473403
-0.02790847644884322
-1.0117126090314774
-0.17248156311473403
-0.02790847644884322
-1.0117126090314774
-0.17248156311473403
-0.02790847644884322
-1.0117126090314774
-0.17248156311473403
-0.02790847644884322
-1.0103843196064133
-0.1700120646958533
-0.029658241002950978
-1.0103843196064133
-0.1700120646958533
-0.029658241002950978
-1.0103843196064133
-0.1700120646958533
-0.029658241002950978
-1.0103843196064133
-0.1700120646958533
-0.029658241002950978
-1.010995293515971
-0.1681457585010507
-0.03050617034395888
-1.010995293515971
-0.1681457585010507
-0.03050617034395888
-1.010995293515971
-0.1681457585010507
-0.03050617034395888
-1.010995293515971
-0.1681457585010507
-0.03050617034395888
-1.0135466051537476
-0.16698530156443075
-0.03165805436497562
-1.0135466051537476
-0.16698530156443075
-0.03165805436497562
-1.0135466051537476
-0.16698530156443075
-0.03165805436497562
-1.0135466051537476
-0.16698530156443075
-0.03165805436497562
-1.0146886537095743
-0.16390840681733385
-0.033557303548548696
-1.0146886537095743
-0.16390840681733385
-0.033557303548548696
-1.0146886537095743
-0.16390840681733385
-0.033557303548548696
-1.0146886537095743
-0.16390840681733385
-0.033557303548548696
-1.010521180063396
-0.16039886006473145
-0.0355180974953914
-1.010521180063396
-0.16039886006473145
-0.0355180974953914
-1.010521180063396
-0.16039886006473145
-0.0355180974953914
-1.010521180063396
-0.16039886006473145
-0.0355180974953914
-1.0045347006009047
-0.15690728374386417
-0.03771423823379797
-1.0045347006009047
-0.15690728374386417
-0.03771423823379797
-1.0045347006009047
-0.15690728374386417
-0.03771423823379797
-1.0045347006009047
-0.15690728374386417
-0.03771423823379797
-1.006053185341795
-0.1535758032384062
-0.03859843428416028
-1.006053185341795
-0.1535758032384062
-0.03859843428416028
-1.006053185341795
-0.1535758032384062
-0.03859843428416028
-1.006053185341795
-0.1535758032384062
-0.03859843428416028
-1.0119607622161264
-0.15368068145869784
-0.036610708524727684
-1.0119607622161264
-0.15368068145869784
-0.036610708524727684
-1.0119607622161264
-0.15368068145869784
-0.036610708524727684
-1.0119607622161264
-0.15368068145869784
-0.036610708524727684
-1.017363262222353
-0.1561040913353784
-0.03433872700575788
-1.017363262222353
-0.1561040913353784
-0.03433872700575788
-1.017363262222353
-0.1561040913353784
-0.03433872700575788
-1.017363262222353
-0.1561040913353784
-0.03433872700575788
-1.0190564477521284
-0.15845148706129747
-0.03333591019132944
-1.0190564477521284
-0.15845148706129747
-0.03333591019132944
-1.0190564477521284
-0.15845148706129747
-0.03333591019132944
-1.0190564477521284
-0.15845148706129747
-0.03333591019132944
-1.0146398878209557
-0.15974892823711007
-0.03488967873088903
-1.0146398878209557
-0.15974892823711007
-0.03488967873088903
-1.0146398878209557
-0.15974892823711007
-0.03488967873088903
-1.0146398878209557
-0.15974892823711007
-0.03488967873088903
-1.0109394700839909
-0.1593537880705175
-0.03662210999294362
-1.0109394700839909
-0.1593537880705175
-0.03662210999294362
-1.0109394700839909
-0.1593537880705175
-0.03662210999294362
-1.0109394700839909
-0.1593537880705175
-0.03662210999294362
-1.0128702007156576
-0.16081075769311706
-0.036246410735881376
-1.0128702007156576
-0.16081075769311706
-0.036246410735881376
-1.0128702007156576
-0.16081075769311706
-0.036246410735881376
-1.0128702007156576
-0.16081075769311706
-0.036246410735881376
-1.019570396492592
-0.1641494034838472
-0.034191555562236485
-1.019570396492592
-0.1641494034838472
-0.034191555562236485
-1.019570396492592
-0.1641494034838472
-0.034191555562236485
-1.019570396492592
-0.1641494034838472
-0.034191555562236485
-1.024934237766914
-0.16729229907605267
-0.0324512255035162
-1.024934237766914
-0.16729229907605267
-0.0324512255035162
-1.024934237766914
-0.16729229907605267
-0.0324512255035162
-1.024934237766914
-0.16729229907605267
-0.0324512255035162
-1.0234683581205253
-0.16978194849461853
-0.03328195447928667
-1.0234683581205253
-0.16978194849461853
-0.03328195447928667
-1.0234683581205253
-0.16978194849461853
-0.03328195447928667
-1.0234683581205253
-0.16978194849461853
-0.03328195447928667
-1.0198119713458096
-0.17090581261802595
-0.035459607880762044
-1.0198119713458096
-0.17090581261802595
-0.035459607880762044
-1.0198119713458096
-0.17090581261802595
-0.035459607880762044
-1.0198119713458096
-0.17090581261802595
-0.035459607880762044
-1.0180466152475147
-0.17201757000396156
-0.03665703675375118
-1.0180466152475147
-0.17201757000396156
-0.03665703675375118
-1.0180466152475147
-0.17201757000396156
-0.03665703675375118
-1.0180466152475147
-0.17201757000396156
-0.03665703675375118
-1.0212468272926578
-0.1736614481110178
-0.03620029648633118
-1.0212468272926578
-0.1736614481110178
-0.03620029648633118
-1.0212468272926578
-0.1736614481110178
-0.03620029648633118
-1.0212468272926578
-0.1736614481110178
-0.03620029648633118
-1.0249540201180414
-0.1753475437681818
-0.03552443587982037
-1.0249540201180414
-0.1753475437681818
-0.03552443587982037
-1.0249540201180414
-0.1753475437681818
-0.03552443587982037
-1.0249540201180414
-0.1753475437681818
-0.03552443587982037
-1.0271199793485386
-0.1768311316974556
-0.035648968278946806
-1.0271199793485386
-0.1768311316974556
-0.035648968278946806
-1.0271199793485386
-0.1768311316974556
-0.035648968278946806
-1.0271199793485386
-0.1768311316974556
-0.035648968278946806
-1.0251703318516265
-0.17825889701645847
-0.03641252000604725
-1.0251703318516265
-0.17825889701645847
-0.03641252000604725
-1.0251703318516265
-0.17825889701645847
-0.03641252000604725
-1.0251703318516265
-0.17825889701645847
-0.03641252000604725
-1.0224887935457092
-0.17963463704354024
-0.03669513743816182
-1.0224887935457092
-0.17963463704354024
-0.03669513743816182
-1.0224887935457092
-0.17963463704354024
-0.03669513743816182
-1.0224887935457092
-0.17963463704354024
-0.03669513743816182
-1.0232929427376396
-0.18153552144531288
-0.03598557624828881
-1.0232929427376396
-0.18153552144531288
-0.03598557624828881
-1.0232929427376396
-0.18153552144531288
-0.03598557624828881
-1.0232929427376396
-0.18153552144531288
-0.03598557624828881
-1.0248795816989587
-0.1834608920723203
-0.03520464770992946
-1.0248795816989587
-0.1834608920723203
-0.03520464770992946
-1.0248795816989587
-0.1834608920723203
-0.03520464770992946
-1.0248795816989587
-0.1834608920723203
-0.03520464770992946
-1.026191323796207
-0.18512175638820702
-0.03500443772267597
-1.026191323796207
-0.18512175638820702
-0.03500443772267597
-1.026191323796207
-0.18512175638820702
-0.03500443772267597
-1.026191323796207
-0.18512175638820702
-0.03500443772267597
-1.0267133643124366
-0.18690186748503487
-0.035092141800100736
-1.0267133643124366
-0.18690186748503487
-0.035092141800100736
-1.0267133643124366
-0.18690186748503487
-0.035092141800100736
-1.0267133643124366
-0.18690186748503487
-0.035092141800100736
-1.0265880773548186
-0.188640003571588
-0.03496311725806503
-1.0265880773548186
-0.188640003571588
-0.03496311725806503
-1.0265880773548186
-0.188640003571588
-0.03496311725806503
-1.0265880773548186
-0.188640003571588
-0.03496311725806503
-1.0266645627394895
-0.18945218532818406
-0.03464309601285737
-1.0266645627394895
-0.18945218532818406
-0.03464309601285737
-1.0266645627394895
-0.18945218532818406
-0.03464309601285737
-1.0266645627394895
-0.18945218532818406
-0.03464309601285737
-1.0269836779221686
-0.190446268115746
-0.03461997792834987
-1.0269836779221686
-0.190446268115746
-0.03461997792834987
-1.0269836779221686
-0.190446268115746
-0.03461997792834987
-1.0269836779221686
-0.190446268115746
-0.03461997792834987
-1.0261091229270554
-0.19067386829112112
-0.03513150696823758
-1.0261091229270554
-0.19067386829112112
-0.03513150696823758
-1.0261091229270554
-0.19067386829112112
-0.03513150696823758
-1.0261091229270554
-0.19067386829112112
-0.03513150696823758
-1.0256564292683708
-0.19103083035593219
-0.035817131374730034
-1.0256564292683708
-0.19103083035593219
-0.035817131374730034
-1.0256564292683708
-0.19103083035593219
-0.035817131374730034
-1.0256564292683708
-0.19103083035593219
-0.035817131374730034
-1.0248855841424342
-0.19114780967307
-0.036378185064523824
-1.0248855841424342
-0.19114780967307
-0.036378185064523824
-1.0248855841424342
-0.19114780967307
-0.036378185064523824
-1.0248855841424342
-0.19114780967307
-0.036378185064523824
-1.0248282868313385
-0.19144471067949256
-0.0369179859762324
-1.0248282868313385
-0.19144471067949256
-0.0369179859762324
-1.0248282868313385
-0.19144471067949256
-0.0369179859762324
-1.0248282868313385
-0.19144471067949256
-0.0369179859762324
-1.0255564498227145
-0.1918739865125634
-0.03732447617021175
-1.0255564498227145
-0.1918739865125634
-0.03732447617021175
-1.0255564498227145
-0.1918739865125634
-0.03732447617021175
-1.0255564498227145
-0.1918739865125634
-0.03732447617021175
-1.025993692128304
-0.19242799992414353
-0.037255966683385315
-1.025993692128304
-0.19242799992414353
-0.037255966683385315
-1.025993692128304
-0.19242799992414353
-0.037255966683385315
-1.025993692128304
-0.19242799992414353
-0.037255966683385315
-1.025145059165633
-0.19301876420016748
-0.037418664010923704
-1.025145059165633
-0.19301876420016748
-0.037418664010923704
-1.025145059165633
-0.19301876420016748
-0.037418664010923704
-1.025145059165633
-0.19301876420016748
-0.037418664010923704
-1.0241278172324781
-0.19322443327461195
-0.037670713904232905
-1.0241278172324781
-0.19322443327461195
-0.037670713904232905
-1.0241278172324781
-0.19322443327461195
-0.037670713904232905
-1.0241278172324781
-0.19322443327461195
-0.037670713904232905
-1.0241882735858172
-0.1932358178418929
-0.03766686817068747
-1.0241882735858172
-0.1932358178418929
-0.03766686817068747
-1.0241882735858172
-0.1932358178418929
-0.03766686817068747
-1.0241882735858172
-0.1932358178418929
-0.03766686817068747
-1.0241278172324781
-0.19322443327461195
-0.037670713904232905
-1.0241278172324781
-0.19322443327461195
-0.037670713904232905
-1.0241278172324781
-0.19322443327461195
-0.037670713904232905
-1.0241278172324781
-0.19322443327461195
-0.037670713904232905
-1.0244879567291245
-0.19349829477764935
-0.03735037876587892
-1.0244879567291245
-0.19349829477764935
-0.03735037876587892
-1.0244879567291245
-0.19349829477764935
-0.03735037876587892
-1.0244879567291245
-0.19349829477764935
-0.03735037876587892
-1.024042981974876
-0.1938642536486327
-0.037319600287082165
-1.024042981974876
-0.1938642536486327
-0.037319600287082165
-1.024042981974876
-0.1938642536486327
-0.037319600287082165
-1.024042981974876
-0.1938642536486327
-0.037319600287082165
-1.0243528247035214
-0.19426946187212848
-0.03749170175550933
-1.0243528247035214
-0.19426946187212848
-0.03749170175550933
-1.0243528247035214
-0.19426946187212848
-0.03749170175550933
-1.0243528247035214
-0.19426946187212848
-0.03749170175550933
-1.024886486494471
-0.1948790480442916
-0.037519326459310505
-1.024886486494471
-0.1948790480442916
-0.037519326459310505
-1.024886486494471
-0.1948790480442916
-0.037519326459310505
-1.024886486494471
-0.1948790480442916
-0.037519326459310505
-1.025115693269715
-0.19565271740158224
-0.037352704326186446
-1.025115693269715
-0.19565271740158224
-0.037352704326186446
-1.025115693269715
-0.19565271740158224
-0.037352704326186446
-1.025115693269715
-0.19565271740158224
-0.037352704326186446
-1.0258983305642855
-0.19643386256159065
-0.037130849082026435
-1.0258983305642855
-0.19643386256159065
-0.037130849082026435
-1.0258983305642855
-0.19643386256159065
-0.037130849082026435
-1.0258983305642855
-0.19643386256159065
-0.037130849082026435
-1.026183188408645
-0.19702665478428674
-0.036908367232402
-1.026183188408645
-0.19702665478428674
-0.036908367232402
-1.026183188408645
-0.19702665478428674
-0.036908367232402
-1.026183188408645
-0.19702665478428674
-0.036908367232402
-1.0269741304815085
-0.19764216977734714
-0.03663810776060607
-1.0269741304815085
-0.19764216977734714
-0.03663810776060607
-1.0269741304815085
-0.19764216977734714
-0.03663810776060607
-1.0269741304815085
-0.19764216977734714
-0.03663810776060607
-1.0266822807039313
-0.19834644349321376
-0.036686656422709685
-1.0266822807039313
-0.19834644349321376
-0.036686656422709685
-1.0266822807039313
-0.19834644349321376
-0.036686656422709685
-1.0266822807039313
-0.19834644349321376
-0.036686656422709685
-1.0249856051681359
-0.19857138182574557
-0.03656766387215405
-1.0249856051681359
-0.19857138182574557
-0.03656766387215405
-1.0249856051681359
-0.19857138182574557
-0.03656766387215405
-1.0249856051681359
-0.19857138182574557
-0.03656766387215405
-1.0243281691617492
-0.19867405487276452
-0.03657463148113872
-1.0243281691617492
-0.19867405487276452
-0.03657463148113872
-1.0243281691617492
-0.19867405487276452
-0.03657463148113872
-1.0243281691617492
-0.19867405487276452
-0.03657463148113872
-1.0250502385392162
-0.19868897060900292
-0.036503030501073806
-1.0250502385392162
-0.19868897060900292
-0.036503030501073806
-1.0250502385392162
-0.19868897060900292
-0.036503030501073806
-1.0250502385392162
-0.19868897060900292
-0.036503030501073806
-1.0266941307532305
-0.19828699230335745
-0.03657863315298461
-1.0266941307532305
-0.19828699230335745
-0.03657863315298461
-1.0266941307532305
-0.19828699230335745
-0.03657863315298461
-1.0266941307532305
-0.19828699230335745
-0.03657863315298461
-1.027396174665775
-0.19814954029028345
-0.03673651933086231
-1.027396174665775
-0.19814954029028345
-0.03673651933086231
-1.027396174665775
-0.19814954029028345
-0.03673651933086231
-1.027396174665775
-0.19814954029028345
-0.03673651933086231
-1.0262126489040069
-0.19769964523225605
-0.03709402248903288
-1.0262126489040069
-0.19769964523225605
-0.03709402248903288
-1.0262126489040069
-0.19769964523225605
-0.03709402248903288
-1.0262126489040069
-0.19769964523225605
-0.03709402248903288
-1.0240072059763188
-0.19734892786602673
-0.03776579226222739
-1.0240072059763188
-0.19734892786602673
-0.03776579226222739
-1.0240072059763188
-0.19734892786602673
-0.03776579226222739
-1.0240072059763188
-0.19734892786602673
-0.03776579226222739
-1.0232458847228165
-0.1970280143037474
-0.0382948309644
-1.0232458847228165
-0.1970280143037474
-0.0382948309644
-1.0232458847228165
-0.1970280143037474
-0.0382948309644
-1.0232458847228165
-0.1970280143037474
-0.0382948309644
-1.023932311158678
-0.19684417030282372
-0.038621462702493836
-1.023932311158678
-0.19684417030282372
-0.038621462702493836
-1.023932311158678
-0.19684417030282372
-0.038621462702493836
-1.023932311158678
-0.19684417030282372
-0.038621462702493836
-1.023932311158678
-0.19684417030282372
-0.038621462702493836
-1.023932311158678
-0.19684417030282372
-0.038621462702493836
-1.023932311158678
-0.19684417030282372
-0.038621462702493836
-1.023932311158678
-0.19684417030282372
-0.038621462702493836
-1.0230341734786508
-0.19660864886129276
-0.03882890169049349
-1.0230341734786508
-0.19660864886129276
-0.03882890169049349
-1.0230341734786508
-0.19660864886129276
-0.03882890169049349
-1.0230341734786508
-0.19660864886129276
-0.03882890169049349
-1.0221844573903607
-0.19682112107119568
-0.03906741222795011
-1.0221844573903607
-0.19682112107119568
-0.03906741222795011
-1.0221844573903607
-0.19682112107119568
-0.03906741222795011
-1.0221844573903607
-0.19682112107119568
-0.03906741222795011
-1.0215710956239692
-0.19642405785866632
-0.03919925507323065
-1.0215710956239692
-0.19642405785866632
-0.03919925507323065
-1.0215710956239692
-0.19642405785866632
-0.03919925507323065
-1.0215710956239692
-0.19642405785866632
-0.03919925507323065
-1.0209322421903035
-0.1956167033643749
-0.03858552278373682
-1.0209322421903035
-0.1956167033643749
-0.03858552278373682
-1.0209322421903035
-0.1956167033643749
-0.03858552278373682
-1.0209322421903035
-0.1956167033643749
-0.03858552278373682
-1.0212172772470878
-0.19456946433127695
-0.03744917278942795
-1.0212172772470878
-0.19456946433127695
-0.03744917278942795
-1.0212172772470878
-0.19456946433127695
-0.03744917278942795
-1.0212172772470878
-0.19456946433127695
-0.03744917278942795
-1.021707646910045
-0.19270314954970091
-0.03605921626442939
-1.021707646910045
-0.19270314954970091
-0.03605921626442939
-1.021707646910045
-0.19270314954970091
-0.03605921626442939
-1.021707646910045
-0.19270314954970091
-0.03605921626442939
-1.0230699019681064
-0.19118835958271477
-0.03468190717059156
-1.0230699019681064
-0.19118835958271477
-0.03468190717059156
-1.0230699019681064
-0.19118835958271477
-0.03468190717059156
-1.0230699019681064
-0.19118835958271477
-0.03468190717059156
-1.0276748568868435
-0.18926420144861925
-0.03269005864628556
-1.0276748568868435
-0.18926420144861925
-0.03269005864628556
-1.0276748568868435
-0.18926420144861925
-0.03269005864628556
-1.0276748568868435
-0.18926420144861925
-0.03269005864628556
-1.0307507222317611
-0.18729634130927594
-0.0305777335886778
-1.0307507222317611
-0.18729634130927594
-0.0305777335886778
-1.0307507222317611
-0.18729634130927594
-0.0305777335886778
-1.0307507222317611
-0.18729634130927594
-0.0305777335886778
-1.0287592408071233
-0.18487218623358548
-0.028027655773600505
-1.0287592408071233
-0.18487218623358548
-0.028027655773600505
-1.0287592408071233
-0.18487218623358548
-0.028027655773600505
-1.0287592408071233
-0.18487218623358548
-0.028027655773600505
-1.023905066011306
-0.18249225354001006
-0.026116171176551475
-1.023905066011306
-0.18249225354001006
-0.026116171176551475
-1.023905066011306
-0.18249225354001006
-0.026116171176551475
-1.023905066011306
-0.18249225354001006
-0.026116171176551475
-1.0219872519959488
-0.1816123619116627
-0.026770175502635083
-1.0219872519959488
-0.1816123619116627
-0.026770175502635083
-1.0219872519959488
-0.1816123619116627
-0.026770175502635083
-1.0219872519959488
-0.1816123619116627
-0.026770175502635083
-1.0243324367493687
-0.18194915677969764
-0.029342174542458174
-1.0243324367493687
-0.18194915677969764
-0.029342174542458174
-1.0243324367493687
-0.18194915677969764
-0.029342174542458174
-1.0243324367493687
-0.18194915677969764
-0.029342174542458174
-1.0245967156641402
-0.18354834129827835
-0.031657225751618286
-1.0245967156641402
-0.18354834129827835
-0.031657225751618286
-1.0245967156641402
-0.18354834129827835
-0.031657225751618286
-1.0245967156641402
-0.18354834129827835
-0.031657225751618286
-1.0250668998024355
-0.1862943118278608
-0.02923366571617511
-1.0250668998024355
-0.1862943118278608
-0.02923366571617511
-1.0250668998024355
-0.1862943118278608
-0.02923366571617511
-1.0250668998024355
-0.1862943118278608
-0.02923366571617511
-1.0218134900982496
-0.18785250621667748
-0.028640656731089738
-1.0218134900982496
-0.18785250621667748
-0.028640656731089738
-1.0218134900982496
-0.18785250621667748
-0.028640656731089738
-1.0218134900982496
-0.18785250621667748
-0.028640656731089738
-1.0182138016455218
-0.19021749187609469
-0.03156130180326912
-1.0182138016455218
-0.19021749187609469
-0.03156130180326912
-1.0182138016455218
-0.19021749187609469
-0.03156130180326912
-1.0182138016455218
-0.19021749187609469
-0.03156130180326912
-1.0179563130171807
-0.19350512565897623
-0.03270454739664024
-1.0179563130171807
-0.19350512565897623
-0.03270454739664024
-1.0179563130171807
-0.19350512565897623
-0.03270454739664024
-1.0179563130171807
-0.19350512565897623
-0.03270454739664024
-1.0116711600482304
-0.1977353204958827
-0.03303019372932615
-1.0116711600482304
-0.1977353204958827
-0.03303019372932615
-1.0116711600482304
-0.1977353204958827
-0.03303019372932615
-1.0116711600482304
-0.1977353204958827
-0.03303019372932615
-0.9991956792497871
-0.20001682949209426
-0.03500315349447817
-0.9991956792497871
-0.20001682949209426
-0.03500315349447817
-0.9991956792497871
-0.20001682949209426
-0.03500315349447817
-0.9991956792497871
-0.20001682949209426
-0.03500315349447817
-0.9872142709439407
-0.20037846750286206
-0.03673875801952946
-0.9872142709439407
-0.20037846750286206
-0.03673875801952946
-0.9872142709439407
-0.20037846750286206
-0.03673875801952946
-0.9872142709439407
-0.20037846750286206
-0.03673875801952946
-0.9835387167017228
-0.19837294962106172
-0.034797906236669146
-0.9835387167017228
-0.19837294962106172
-0.034797906236669146
-0.9835387167017228
-0.19837294962106172
-0.034797906236669146
-0.9835387167017228
-0.19837294962106172
-0.034797906236669146
-0.9819094241072366
-0.19740310396539024
-0.030867415254640044
-0.9819094241072366
-0.19740310396539024
-0.030867415254640044
-0.9819094241072366
-0.19740310396539024
-0.030867415254640044
-0.9819094241072366
-0.19740310396539024
-0.030867415254640044
-0.9782710466945457
-0.19781399544215766
-0.028197631588957835
-0.9782710466945457
-0.19781399544215766
-0.028197631588957835
-0.9782710466945457
-0.19781399544215766
-0.028197631588957835
-0.9782710466945457
-0.19781399544215766
-0.028197631588957835
-0.9719774115136197
-0.20140017635529509
-0.028690347309345953
-0.9719774115136197
-0.20140017635529509
-0.028690347309345953
-0.9719774115136197
-0.20140017635529509
-0.028690347309345953
-0.9719774115136197
-0.20140017635529509
-0.028690347309345953
-0.9697967038390706
-0.20394151176815503
-0.028257060803879807
-0.9697967038390706
-0.20394151176815503
-0.028257060803879807
-0.9697967038390706
-0.20394151176815503
-0.028257060803879807
-0.9697967038390706
-0.20394151176815503
-0.028257060803879807
-0.9730260280739099
-0.20505945472737466
-0.024992534637084868
-0.9730260280739099
-0.20505945472737466
-0.024992534637084868
-0.9730260280739099
-0.20505945472737466
-0.024992534637084868
-0.9730260280739099
-0.20505945472737466
-0.024992534637084868
-0.9808963499342538
-0.20663192072654493
-0.022003540668551463
-0.9808963499342538
-0.20663192072654493
-0.022003540668551463
-0.9808963499342538
-0.20663192072654493
-0.022003540668551463
-0.9808963499342538
-0.20663192072654493
-0.022003540668551463
-0.9823711084739434
-0.21036087587120494
-0.021257796019227542
-0.9823711084739434
-0.21036087587120494
-0.021257796019227542
-0.9823711084739434
-0.21036087587120494
-0.021257796019227542
-0.9823711084739434
-0.21036087587120494
-0.021257796019227542
-0.9759609385656838
-0.2109423425024878
-0.021589733831935087
-0.9759609385656838
-0.2109423425024878
-0.021589733831935087
-0.9759609385656838
-0.2109423425024878
-0.021589733831935087
-0.9759609385656838
-0.2109423425024878
-0.021589733831935087
-0.9709696603357698
-0.21075263886294215
-0.020529601319018653
-0.9709696603357698
-0.21075263886294215
-0.020529601319018653
-0.9709696603357698
-0.21075263886294215
-0.020529601319018653
-0.9709696603357698
-0.21075263886294215
-0.020529601319018653
-0.9734959661269993
-0.2106532036072878
-0.01740941670848733
-0.9734959661269993
-0.2106532036072878
-0.01740941670848733
-0.9734959661269993
-0.2106532036072878
-0.01740941670848733
-0.9734959661269993
-0.2106532036072878
-0.01740941670848733
-0.9783983715156747
-0.2111517389845798
-0.015671130326624788
-0.9783983715156747
-0.2111517389845798
-0.015671130326624788
-0.9783983715156747
-0.2111517389845798
-0.015671130326624788
-0.9783983715156747
-0.2111517389845798
-0.015671130326624788
-0.9785353327790132
-0.21143641065135702
-0.01592437540260464
-0.9785353327790132
-0.21143641065135702
-0.01592437540260464
-0.9785353327790132
-0.21143641065135702
-0.01592437540260464
-0.9785353327790132
-0.21143641065135702
-0.01592437540260464
-0.9772081114356629
-0.2111447551944357
-0.015523530032190664
-0.9772081114356629
-0.2111447551944357
-0.015523530032190664
-0.9772081114356629
-0.2111447551944357
-0.015523530032190664
-0.9772081114356629
-0.2111447551944357
-0.015523530032190664
-0.98088991771784
-0.2121792314633345
-0.013898594978332356
-0.98088991771784
-0.2121792314633345
-0.013898594978332356
-0.98088991771784
-0.2121792314633345
-0.013898594978332356
-0.98088991771784
-0.2121792314633345
-0.013898594978332356
-0.9852348439316424
-0.21255440154050842
-0.012272270680200849
-0.9852348439316424
-0.21255440154050842
-0.012272270680200849
-0.9852348439316424
-0.21255440154050842
-0.012272270680200849
-0.9852348439316424
-0.21255440154050842
-0.012272270680200849
-0.9856445455309537
-0.21094429914332027
-0.011560591938189936
-0.9856445455309537
-0.21094429914332027
-0.011560591938189936
-0.9856445455309537
-0.21094429914332027
-0.011560591938189936
-0.9856445455309537
-0.21094429914332027
-0.011560591938189936
-0.985045435529371
-0.21074160984163262
-0.010476248035416314
-0.985045435529371
-0.21074160984163262
-0.010476248035416314
-0.985045435529371
-0.21074160984163262
-0.010476248035416314
-0.985045435529371
-0.21074160984163262
-0.010476248035416314
-0.9855786505511872
-0.2125189849905588
-0.00905107137051585
-0.9855786505511872
-0.2125189849905588
-0.00905107137051585
-0.9855786505511872
-0.2125189849905588
-0.00905107137051585
-0.9855786505511872
-0.2125189849905588
-0.00905107137051585
-0.9859402046894654
-0.2147253158099744
-0.0076849199462410795
-0.9859402046894654
-0.2147253158099744
-0.0076849199462410795
-0.9859402046894654
-0.2147253158099744
-0.0076849199462410795
-0.9859402046894654
-0.2147253158099744
-0.0076849199462410795
-0.9867916431572318
-0.21689923297133637
-0.006431175443512173
-0.9867916431572318
-0.21689923297133637
-0.006431175443512173
-0.9867916431572318
-0.21689923297133637
-0.006431175443512173
-0.9867916431572318
-0.21689923297133637
-0.006431175443512173
-0.9869583070166524
-0.21886301405608727
-0.0059155772703110765
-0.9869583070166524
-0.21886301405608727
-0.0059155772703110765
-0.9869583070166524
-0.21886301405608727
-0.0059155772703110765
-0.9869583070166524
-0.21886301405608727
-0.0059155772703110765
-0.987054598914948
-0.22032980833041088
-0.005531615925406401
-0.987054598914948
-0.22032980833041088
-0.005531615925406401
-0.987054598914948
-0.22032980833041088
-0.005531615925406401
-0.987054598914948
-0.22032980833041088
-0.005531615925406401
-0.9884068680367006
-0.2216453732324651
-0.0052322943456059035
-0.9884068680367006
-0.2216453732324651
-0.0052322943456059035
-0.9884068680367006
-0.2216453732324651
-0.0052322943456059035
-0.9884068680367006
-0.2216453732324651
-0.0052322943456059035
-0.9904902862354601
-0.22192918644464735
-0.005266249869889157
-0.9904902862354601
-0.22192918644464735
-0.005266249869889157
-0.9904902862354601
-0.22192918644464735
-0.005266249869889157
-0.9904902862354601
-0.22192918644464735
-0.005266249869889157
-0.9913955941608019
-0.22188279099399283
-0.005057546725286335
-0.9913955941608019
-0.22188279099399283
-0.005057546725286335
-0.9913955941608019
-0.22188279099399283
-0.005057546725286335
-0.9913955941608019
-0.22188279099399283
-0.005057546725286335
-0.991401910678923
-0.2219895246227026
-0.004998420962042209
-0.991401910678923
-0.2219895246227026
-0.004998420962042209
-0.991401910678923
-0.2219895246227026
-0.004998420962042209
-0.991401910678923
-0.2219895246227026
-0.004998420962042209
-0.9920356710161586
-0.22144918610220216
-0.005219869284229419
-0.9920356710161586
-0.22144918610220216
-0.005219869284229419
-0.9920356710161586
-0.22144918610220216
-0.005219869284229419
-0.9920356710161586
-0.22144918610220216
-0.005219869284229419
-0.9923004906673896
-0.22069317919243298
-0.005325189537728957
-0.9923004906673896
-0.22069317919243298
-0.005325189537728957
-0.9923004906673896
-0.22069317919243298
-0.005325189537728957
-0.9923004906673896
-0.22069317919243298
-0.005325189537728957
-0.9922593128604277
-0.22018788069052955
-0.00518083192865761
-0.9922593128604277
-0.22018788069052955
-0.00518083192865761
-0.9922593128604277
-0.22018788069052955
-0.00518083192865761
-0.9922593128604277
-0.22018788069052955
-0.00518083192865761
-0.9932736932176877
-0.22013506646361347
-0.0049607794806205896
-0.9932736932176877
-0.22013506646361347
-0.0049607794806205896
-0.9932736932176877
-0.22013506646361347
-0.0049607794806205896
-0.9932736932176877
-0.22013506646361347
-0.0049607794806205896
-0.9932570506502885
-0.21978532597817432
-0.004588972537353705
-0.9932570506502885
-0.21978532597817432
-0.004588972537353705
-0.9932570506502885
-0.21978532597817432
-0.004588972537353705
-0.9932570506502885
-0.21978532597817432
-0.004588972537353705
-0.9936378651366511
-0.2202724549944702
-0.004146523482562564
-0.9936378651366511
-0.2202724549944702
-0.004146523482562564
-0.9936378651366511
-0.2202724549944702
-0.004146523482562564
-0.9936378651366511
-0.2202724549944702
-0.004146523482562564
-0.9945444300330877
-0.22103863604359844
-0.003910790996278829
-0.9945444300330877
-0.22103863604359844
-0.003910790996278829
-0.9945444300330877
-0.22103863604359844
-0.003910790996278829
-0.9945444300330877
-0.22103863604359844
-0.003910790996278829
-0.9958677337038369
-0.22097518352774514
-0.0033815813680916906
-0.9958677337038369
-0.22097518352774514
-0.0033815813680916906
-0.9958677337038369
-0.22097518352774514
-0.0033815813680916906
-0.9958677337038369
-0.22097518352774514
-0.0033815813680916906
-0.9957299465726978
-0.22096027705381813
-0.0031223144777545717
-0.9957299465726978
-0.22096027705381813
-0.0031223144777545717
-0.9957299465726978
-0.22096027705381813
-0.0031223144777545717
-0.9957299465726978
-0.22096027705381813
-0.0031223144777545717
-0.9951832676539215
-0.22136674869946765
-0.002125134376507191
-0.9951832676539215
-0.22136674869946765
-0.002125134376507191
-0.9951832676539215
-0.22136674869946765
-0.002125134376507191
-0.9951832676539215
-0.22136674869946765
-0.002125134376507191
-0.9953151720780016
-0.2228225211806015
-0.001456263110280826
-0.9953151720780016
-0.2228225211806015
-0.001456263110280826
-0.9953151720780016
-0.2228225211806015
-0.001456263110280826
-0.9953151720780016
-0.2228225211806015
-0.001456263110280826
-0.9959599725899213
-0.22413023550142566
-6.801738781433656E-4
-0.9959599725899213
-0.22413023550142566
-6.801738781433656E-4
-0.9959599725899213
-0.22413023550142566
-6.801738781433656E-4
-0.9959599725899213
-0.22413023550142566
-6.801738781433656E-4
-0.9960862542909587
-0.22520798928740612
-7.912403416964882E-5
-0.9960862542909587
-0.22520798928740612
-7.912403416964882E-5
-0.9960862542909587
-0.22520798928740612
-7.912403416964882E-5
-0.9960862542909587
-0.22520798928740612
-7.912403416964882E-5
-0.9960195939798691
-0.2263960529016066
2.8432460595156645E-4
-0.9960195939798691
-0.2263960529016066
2.8432460595156645E-4
-0.9960195939798691
-0.2263960529016066
2.8432460595156645E-4
-0.9960195939798691
-0.2263960529016066
2.8432460595156645E-4
-0.9961210108458963
-0.22731852098666763
6.574876699517096E-4
-0.9961210108458963
-0.22731852098666763
6.574876699517096E-4
-0.9961210108458963
-0.22731852098666763
6.574876699517096E-4
-0.9961210108458963
-0.22731852098666763
6.574876699517096E-4
-0.9966492995219717
-0.2279256361827337
9.035521830625985E-4
-0.9966492995219717
-0.2279256361827337
9.035521830625985E-4
-0.9966492995219717
-0.2279256361827337
9.035521830625985E-4
-0.9966492995219717
-0.2279256361827337
9.035521830625985E-4
-0.9970163078845621
-0.22759819399800177
7.692926612952973E-4
-0.9970163078845621
-0.22759819399800177
7.692926612952973E-4
-0.9970163078845621
-0.22759819399800177
7.692926612952973E-4
-0.9970163078845621
-0.22759819399800177
7.692926612952973E-4
-0.9961141897149156
-0.22721197462273068
5.980151888570062E-4
-0.9961141897149156
-0.22721197462273068
5.980151888570062E-4
-0.9961141897149156
-0.22721197462273068
5.980151888570062E-4
-0.9961141897149156
-0.22721197462273068
5.980151888570062E-4
-0.9949272983745054
-0.22672013714499667
3.360341592775005E-4
-0.9949272983745054
-0.22672013714499667
3.360341592775005E-4
-0.9949272983745054
-0.22672013714499667
3.360341592775005E-4
-0.9949272983745054
-0.22672013714499667
3.360341592775005E-4
-0.9936752917918193
-0.2261677603530874
4.4982811577349506E-4
-0.9936752917918193
-0.2261677603530874
4.4982811577349506E-4
-0.9936752917918193
-0.2261677603530874
4.4982811577349506E-4
-0.9936752917918193
-0.2261677603530874
4.4982811577349506E-4
-0.9933727522932896
-0.22544120281697616
7.213205333560876E-4
-0.9933727522932896
-0.22544120281697616
7.213205333560876E-4
-0.9933727522932896
-0.22544120281697616
7.213205333560876E-4
-0.9933727522932896
-0.22544120281697616
7.213205333560876E-4
-0.9945664126455066
-0.22473261025215932
6.127561952413955E-4
-0.9945664126455066
-0.22473261025215932
6.127561952413955E-4
-0.9937813175481613
-0.22376964704180266
-2.8732951315570223E-6
-0.9937813175481613
-0.22376964704180266
-2.8732951315570223E-6
-0.9937813175481613
-0.22376964704180266
-2.8732951315570223E-6
-0.9937813175481613
-0.22376964704180266
-2.8732951315570223E-6
-0.9937813175481613
-0.22376964704180266
-2.8732951315570223E-6
-0.9937813175481613
-0.22376964704180266
-2.8732951315570223E-6
-0.9924279590794746
-0.22354278072290962
-2.718836642534981E-4
-0.9924279590794746
-0.22354278072290962
-2.718836642534981E-4
-0.9924279590794746
-0.22354278072290962
-2.718836642534981E-4
-0.9924279590794746
-0.22354278072290962
-2.718836642534981E-4
-0.9924345952328077
-0.22364945795884386
-2.1265622471091118E-4
-0.9924345952328077
-0.22364945795884386
-2.1265622471091118E-4
-0.9924345952328077
-0.22364945795884386
-2.1265622471091118E-4
-0.9924345952328077
-0.22364945795884386
-2.1265622471091118E-4
-0.993260024073589
-0.22299765910195482
-1.966059697876786E-4
-0.993260024073589
-0.22299765910195482
-1.966059697876786E-4
-0.993260024073589
-0.22299765910195482
-1.966059697876786E-4
-0.993260024073589
-0.22299765910195482
-1.966059697876786E-4
-0.9930216074323714
-0.22178909250710405
-3.178874913867115E-4
-0.9930216074323714
-0.22178909250710405
-3.178874913867115E-4
-0.9919693492737289
-0.22090338600549528
-3.536491837382531E-4
-0.9919693492737289
-0.22090338600549528
-3.536491837382531E-4
-0.9919693492737289
-0.22090338600549528
-3.536491837382531E-4
-0.9919693492737289
-0.22090338600549528
-3.536491837382531E-4
-0.9921808395317212
-0.22084230016048367
5.2300524908222896E-5
-0.9921808395317212
-0.22084230016048367
5.2300524908222896E-5
-0.9921808395317212
-0.22084230016048367
5.2300524908222896E-5
-0.9921808395317212
-0.22084230016048367
5.2300524908222896E-5
-0.9926591737396223
-0.2211090181967316
3.8880320510479156E-4
-0.9926591737396223
-0.2211090181967316
3.8880320510479156E-4
-0.9926591737396223
-0.2211090181967316
3.8880320510479156E-4
-0.9926591737396223
-0.2211090181967316
3.8880320510479156E-4
-0.9938016661801927
-0.22109577687410237
7.90100910131989E-4
-0.9938016661801927
-0.22109577687410237
7.90100910131989E-4
-0.9938016661801927
-0.22109577687410237
7.90100910131989E-4
-0.9938016661801927
-0.22109577687410237
7.90100910131989E-4
-0.9937961746671204
-0.2212602662259099
7.400729071491908E-4
-0.9937961746671204
-0.2212602662259099
7.400729071491908E-4
-0.9937961746671204
-0.2212602662259099
7.400729071491908E-4
-0.9937961746671204
-0.2212602662259099
7.400729071491908E-4
-0.9936440386578647
-0.22076144955147778
8.714448648648917E-4
-0.9936440386578647
-0.22076144955147778
8.714448648648917E-4
-0.9936440386578647
-0.22076144955147778
8.714448648648917E-4
-0.9936440386578647
-0.22076144955147778
8.714448648648917E-4
-0.9934611286693027
-0.22027163840153
7.250130971917479E-4
-0.9934611286693027
-0.22027163840153
7.250130971917479E-4
-0.9934611286693027
-0.22027163840153
7.250130971917479E-4
-0.9934611286693027
-0.22027163840153
7.250130971917479E-4
-0.9934611286693027
-0.22027163840153
7.250130971917479E-4
-0.9934611286693027
-0.22027163840153
7.250130971917479E-4
-0.9934611286693027
-0.22027163840153
7.250130971917479E-4
-0.9934611286693027
-0.22027163840153
7.250130971917479E-4
-0.9941831634493082
-0.2197324448072143
7.865049084528452E-4
-0.9941831634493082
-0.2197324448072143
7.865049084528452E-4
-0.9941831634493082
-0.2197324448072143
7.865049084528452E-4
-0.9941831634493082
-0.2197324448072143
7.865049084528452E-4
-0.9930245403808341
-0.2196672551520902
7.6665500437071E-4
-0.9930245403808341
-0.2196672551520902
7.6665500437071E-4
-0.9930245403808341
-0.2196672551520902
7.6665500437071E-4
-0.9930245403808341
-0.2196672551520902
7.6665500437071E-4
-0.9919098069971928
-0.2203783279059683
6.119049394539725E-4
-0.9919098069971928
-0.2203783279059683
6.119049394539725E-4
-0.9919098069971928
-0.2203783279059683
6.119049394539725E-4
-0.9919098069971928
-0.2203783279059683
6.119049394539725E-4
-0.9918004506467871
-0.22038474794523547
5.998235742459516E-4
-0.9918004506467871
-0.22038474794523547
5.998235742459516E-4
-0.9918004506467871
-0.22038474794523547
5.998235742459516E-4
-0.9918004506467871
-0.22038474794523547
5.998235742459516E-4
-0.993160190403737
-0.220659490708305
4.848184456872441E-4
-0.993160190403737
-0.220659490708305
4.848184456872441E-4
-0.993160190403737
-0.220659490708305
4.848184456872441E-4
-0.993160190403737
-0.220659490708305
4.848184456872441E-4
-0.9945649388367495
-0.2204617705476104
2.488023519554394E-4
-0.9945649388367495
-0.2204617705476104
2.488023519554394E-4
-0.9945649388367495
-0.2204617705476104
2.488023519554394E-4
-0.9945649388367495
-0.2204617705476104
2.488023519554394E-4
-0.9947275292284941
-0.2203027151516698
-2.3279694219675354E-4
-0.9947275292284941
-0.2203027151516698
-2.3279694219675354E-4
-0.9947275292284941
-0.2203027151516698
-2.3279694219675354E-4
-0.9947275292284941
-0.2203027151516698
-2.3279694219675354E-4
-0.9943807821215261
-0.21994408913151725
-8.878559077471591E-4
-0.9943807821215261
-0.21994408913151725
-8.878559077471591E-4
-0.9943807821215261
-0.21994408913151725
-8.878559077471591E-4
-0.9943807821215261
-0.21994408913151725
-8.878559077471591E-4
-0.9950438839991657
-0.2193936536983151
-8.332069447227881E-4
-0.9950438839991657
-0.2193936536983151
-8.332069447227881E-4
-0.9950438839991657
-0.2193936536983151
-8.332069447227881E-4
-0.9950438839991657
-0.2193936536983151
-8.332069447227881E-4
-0.9951032115536241
-0.21940542188048115
-8.267172778575272E-4
-0.9951032115536241
-0.21940542188048115
-8.267172778575272E-4
-0.9951032115536241
-0.21940542188048115
-8.267172778575272E-4
-0.9951032115536241
-0.21940542188048115
-8.267172778575272E-4
-0.9959366985552235
-0.21940268172449454
-7.349025265321309E-4
-0.9959366985552235
-0.21940268172449454
-7.349025265321309E-4
-0.9959366985552235
-0.21940268172449454
-7.349025265321309E-4
-0.9959366985552235
-0.21940268172449454
-7.349025265321309E-4
-0.9956819023289389
-0.2186879050934633
-0.001006861171041479
-0.9956819023289389
-0.2186879050934633
-0.001006861171041479
-0.9956819023289389
-0.2186879050934633
-0.001006861171041479
-0.9956819023289389
-0.2186879050934633
-0.001006861171041479
-0.9950921173855971
-0.21701420550818792
-0.0018427078713896487
-0.9950921173855971
-0.21701420550818792
-0.0018427078713896487
-0.9950921173855971
-0.21701420550818792
-0.0018427078713896487
-0.9950921173855971
-0.21701420550818792
-0.0018427078713896487
-0.993526360276105
-0.2152206420436971
-0.0025670173363120524
-0.993526360276105
-0.2152206420436971
-0.0025670173363120524
-0.993526360276105
-0.2152206420436971
-0.0025670173363120524
-0.993526360276105
-0.2152206420436971
-0.0025670173363120524
-0.9923368058077116
-0.21434874948751395
-0.002888627262502292
-0.9923368058077116
-0.21434874948751395
-0.002888627262502292
-0.9923368058077116
-0.21434874948751395
-0.002888627262502292
-0.9923368058077116
-0.21434874948751395
-0.002888627262502292
-0.9924460488684141
-0.21434268674090165
-0.0028767900889212572
-0.9924460488684141
-0.21434268674090165
-0.0028767900889212572
-0.9924460488684141
-0.21434268674090165
-0.0028767900889212572
-0.9924460488684141
-0.21434268674090165
-0.0028767900889212572
-0.9930491423584733
-0.2146821670646451
-0.002910962588467338
-0.9930491423584733
-0.2146821670646451
-0.002910962588467338
-0.9930491423584733
-0.2146821670646451
-0.002910962588467338
-0.9930491423584733
-0.2146821670646451
-0.002910962588467338
-0.9933637540345349
-0.21447993727841952
-0.003542743356543913
-0.9933637540345349
-0.21447993727841952
-0.003542743356543913
-0.9933637540345349
-0.21447993727841952
-0.003542743356543913
-0.9933637540345349
-0.21447993727841952
-0.003542743356543913
-0.9933820880043689
-0.21338627828367251
-0.003851114011753676
-0.9933820880043689
-0.21338627828367251
-0.003851114011753676
-0.9933820880043689
-0.21338627828367251
-0.003851114011753676
-0.9933820880043689
-0.21338627828367251
-0.003851114011753676
-0.9937298054013385
-0.2127675664986421
-0.0031754502153278435
-0.9937298054013385
-0.2127675664986421
-0.0031754502153278435
-0.9937298054013385
-0.2127675664986421
-0.0031754502153278435
-0.9937298054013385
-0.2127675664986421
-0.0031754502153278435
-0.9936978428884828
-0.21280452442993267
-0.0024637769627635685
-0.9936978428884828
-0.21280452442993267
-0.0024637769627635685
-0.9936978428884828
-0.21280452442993267
-0.0024637769627635685
-0.9936978428884828
-0.21280452442993267
-0.0024637769627635685
-0.9938545986372176
-0.21283833629456528
-0.0020061609656263253
-0.9938545986372176
-0.21283833629456528
-0.0020061609656263253
-0.9938545986372176
-0.21283833629456528
-0.0020061609656263253
-0.9938545986372176
-0.21283833629456528
-0.0020061609656263253
-0.9939740317006893
-0.2122318701324797
-0.0019037342593201153
-0.9939740317006893
-0.2122318701324797
-0.0019037342593201153
-0.9939740317006893
-0.2122318701324797
-0.0019037342593201153
-0.9939740317006893
-0.2122318701324797
-0.0019037342593201153
-0.9939537663377197
-0.21133975373965477
-0.001550988947641483
-0.9939537663377197
-0.21133975373965477
-0.001550988947641483
-0.9939537663377197
-0.21133975373965477
-0.001550988947641483
-0.9939537663377197
-0.21133975373965477
-0.001550988947641483
-0.9942470146552722
-0.21168679515669223
-3.5482486965498084E-4
-0.9942470146552722
-0.21168679515669223
-3.5482486965498084E-4
-0.9942470146552722
-0.21168679515669223
-3.5482486965498084E-4
-0.9942470146552722
-0.21168679515669223
-3.5482486965498084E-4
-0.9939456383640598
-0.21237385924141922
4.0511134133328454E-4
-0.9939456383640598
-0.21237385924141922
4.0511134133328454E-4
-0.9939456383640598
-0.21237385924141922
4.0511134133328454E-4
-0.9939456383640598
-0.21237385924141922
4.0511134133328454E-4
-0.99372092556038
-0.2122501308856046
8.713540569518793E-4
-0.99372092556038
-0.2122501308856046
8.713540569518793E-4
-0.99372092556038
-0.2122501308856046
8.713540569518793E-4
-0.99372092556038
-0.2122501308856046
8.713540569518793E-4
-0.9943775920708118
-0.21186378892257393
8.735138969321216E-4
-0.9943775920708118
-0.21186378892257393
8.735138969321216E-4
-0.9943775920708118
-0.21186378892257393
8.735138969321216E-4
-0.9943775920708118
-0.21186378892257393
8.735138969321216E-4
-0.9951356025553548
-0.21169287646276372
0.0012777525623015454
-0.9951356025553548
-0.21169287646276372
0.0012777525623015454
-0.9951356025553548
-0.21169287646276372
0.0012777525623015454
-0.9951356025553548
-0.21169287646276372
0.0012777525623015454
-0.9951356025553548
-0.21169287646276372
0.0012777525623015454
-0.9951356025553548
-0.21169287646276372
0.0012777525623015454
-0.9951356025553548
-0.21169287646276372
0.0012777525623015454
-0.9951356025553548
-0.21169287646276372
0.0012777525623015454
-0.9950777508300935
-0.21198258348957452
7.322229598246124E-4
-0.9950777508300935
-0.21198258348957452
7.322229598246124E-4
-0.9950777508300935
-0.21198258348957452
7.322229598246124E-4
-0.9950777508300935
-0.21198258348957452
7.322229598246124E-4
-0.9951499557035808
-0.2116076655181073
3.97646984180056E-4
-0.9951499557035808
-0.2116076655181073
3.97646984180056E-4
-0.9951499557035808
-0.2116076655181073
3.97646984180056E-4
-0.9951499557035808
-0.2116076655181073
3.97646984180056E-4
-0.9951499557035808
-0.2116076655181073
3.97646984180056E-4
-0.9951499557035808
-0.2116076655181073
3.97646984180056E-4
-0.9951499557035808
-0.2116076655181073
3.97646984180056E-4
-0.9951499557035808
-0.2116076655181073
3.97646984180056E-4
-0.9956368151464428
-0.21154451863180962
8.31557063613315E-4
-0.9956368151464428
-0.21154451863180962
8.31557063613315E-4
-0.9956368151464428
-0.21154451863180962
8.31557063613315E-4
-0.9956368151464428
-0.21154451863180962
8.31557063613315E-4
-0.9954621071874219
-0.21143275854085936
7.543808079070809E-4
-0.9954621071874219
-0.21143275854085936
7.543808079070809E-4
-0.9954621071874219
-0.21143275854085936
7.543808079070809E-4
-0.9954621071874219
-0.21143275854085936
7.543808079070809E-4
-0.9945389802755931
-0.21089125133710857
3.636215316135445E-4
-0.9945389802755931
-0.21089125133710857
3.636215316135445E-4
-0.9945389802755931
-0.21089125133710857
3.636215316135445E-4
-0.9945389802755931
-0.21089125133710857
3.636215316135445E-4
-0.9941956250095665
-0.21053243414080272
-2.890890003518187E-4
-0.9941956250095665
-0.21053243414080272
-2.890890003518187E-4
-0.9941956250095665
-0.21053243414080272
-2.890890003518187E-4
-0.9941956250095665
-0.21053243414080272
-2.890890003518187E-4
-0.9941956250095665
-0.21053243414080272
-2.890890003518187E-4
-0.9941956250095665
-0.21053243414080272
-2.890890003518187E-4
-0.9941956250095665
-0.21053243414080272
-2.890890003518187E-4
-0.9941956250095665
-0.21053243414080272
-2.890890003518187E-4
-0.9934352120900962
-0.20988869227749749
-7.203986082519037E-4
-0.9934352120900962
-0.20988869227749749
-7.203986082519037E-4
-0.9934352120900962
-0.20988869227749749
-7.203986082519037E-4
-0.9934352120900962
-0.20988869227749749
-7.203986082519037E-4
-0.9916395147579976
-0.20938621934603613
-0.0010350835309682724
-0.9916395147579976
-0.20938621934603613
-0.0010350835309682724
-0.9916395147579976
-0.20938621934603613
-0.0010350835309682724
-0.9916395147579976
-0.20938621934603613
-0.0010350835309682724
-0.9916510127796395
-0.20932846828481239
-9.259163944893185E-4
-0.9916510127796395
-0.20932846828481239
-9.259163944893185E-4
-0.9916510127796395
-0.20932846828481239
-9.259163944893185E-4
-0.9916510127796395
-0.20932846828481239
-9.259163944893185E-4
-0.9916985577933565
-0.20939746984562824
-0.0010289349891528612
-0.9916985577933565
-0.20939746984562824
-0.0010289349891528612
-0.9916985577933565
-0.20939746984562824
-0.0010289349891528612
-0.9916985577933565
-0.20939746984562824
-0.0010289349891528612
-0.990476410791201
-0.20897053640502622
-0.0016649695816570531
-0.990476410791201
-0.20897053640502622
-0.0016649695816570531
-0.990476410791201
-0.20897053640502622
-0.0016649695816570531
-0.990476410791201
-0.20897053640502622
-0.0016649695816570531
-0.9892607300692988
-0.20864971795203643
-0.002241497916937018
-0.9892607300692988
-0.20864971795203643
-0.002241497916937018
-0.9892607300692988
-0.20864971795203643
-0.002241497916937018
-0.9892607300692988
-0.20864971795203643
-0.002241497916937018
-0.9904236660624337
-0.2088231105342251
-0.0021694778997371875
-0.9904236660624337
-0.2088231105342251
-0.0021694778997371875
-0.9904236660624337
-0.2088231105342251
-0.0021694778997371875
-0.9904236660624337
-0.2088231105342251
-0.0021694778997371875
-0.9919115168050727
-0.20930741581475076
-0.0016136128895563112
-0.9919115168050727
-0.20930741581475076
-0.0016136128895563112
-0.9919115168050727
-0.20930741581475076
-0.0016136128895563112
-0.9919115168050727
-0.20930741581475076
-0.0016136128895563112
-0.9920260709550985
-0.20913688519311702
-0.0015519992853017916
-0.9920260709550985
-0.20913688519311702
-0.0015519992853017916
-0.9920260709550985
-0.20913688519311702
-0.0015519992853017916
-0.9920260709550985
-0.20913688519311702
-0.0015519992853017916
-0.9907192583409413
-0.2091429606684677
-0.0019634582447349887
-0.9907192583409413
-0.2091429606684677
-0.0019634582447349887
-0.9907192583409413
-0.2091429606684677
-0.0019634582447349887
-0.9907192583409413
-0.2091429606684677
-0.0019634582447349887
-0.9902119304883901
-0.20945620182051713
-0.0015674436359260388
-0.9902119304883901
-0.20945620182051713
-0.0015674436359260388
-0.9902119304883901
-0.20945620182051713
-0.0015674436359260388
-0.9902119304883901
-0.20945620182051713
-0.0015674436359260388
-0.9927475603833201
-0.2099830338402424
-4.600345726443465E-4
-0.9927475603833201
-0.2099830338402424
-4.600345726443465E-4
-0.9927475603833201
-0.2099830338402424
-4.600345726443465E-4
-0.9927475603833201
-0.2099830338402424
-4.600345726443465E-4
-0.9942321837656074
-0.21090135020465559
5.6825021627951016E-5
-0.9942321837656074
-0.21090135020465559
5.6825021627951016E-5
-0.9942321837656074
-0.21090135020465559
5.6825021627951016E-5
-0.9942321837656074
-0.21090135020465559
5.6825021627951016E-5
-0.9934978576404322
-0.21098521672045034
-6.775011035474854E-4
-0.9934978576404322
-0.21098521672045034
-6.775011035474854E-4
-0.9934978576404322
-0.21098521672045034
-6.775011035474854E-4
-0.9934978576404322
-0.21098521672045034
-6.775011035474854E-4
-0.9915578544345529
-0.21066201090761255
-0.0013323917379115396
-0.9915578544345529
-0.21066201090761255
-0.0013323917379115396
-0.9915578544345529
-0.21066201090761255
-0.0013323917379115396
-0.9915578544345529
-0.21066201090761255
-0.0013323917379115396
-0.9906827795530876
-0.210159371202672
-0.0012759067698489399
-0.9906827795530876
-0.210159371202672
-0.0012759067698489399
-0.9906827795530876
-0.210159371202672
-0.0012759067698489399
-0.9906827795530876
-0.210159371202672
-0.0012759067698489399
-0.991372888231252
-0.21020088525774433
-4.881404619792295E-4
-0.991372888231252
-0.21020088525774433
-4.881404619792295E-4
-0.991372888231252
-0.21020088525774433
-4.881404619792295E-4
-0.991372888231252
-0.21020088525774433
-4.881404619792295E-4
-0.9918016817703036
-0.2104275417573597
-6.004400258159048E-4
-0.9918016817703036
-0.2104275417573597
-6.004400258159048E-4
-0.9918016817703036
-0.2104275417573597
-6.004400258159048E-4
-0.9918016817703036
-0.2104275417573597
-6.004400258159048E-4
-0.9907235857096941
-0.21009308423264555
-8.892844507454759E-4
-0.9907235857096941
-0.21009308423264555
-8.892844507454759E-4
-0.9907235857096941
-0.21009308423264555
-8.892844507454759E-4
-0.9907235857096941
-0.21009308423264555
-8.892844507454759E-4
-0.989938309989422
-0.21013609384193627
-5.314372061833451E-4
-0.989938309989422
-0.21013609384193627
-5.314372061833451E-4
-0.989938309989422
-0.21013609384193627
-5.314372061833451E-4
-0.989938309989422
-0.21013609384193627
-5.314372061833451E-4
-0.9907438500302097
-0.21027834612134688
3.2686928984182353E-4
-0.9907438500302097
-0.21027834612134688
3.2686928984182353E-4
-0.9907438500302097
-0.21027834612134688
3.2686928984182353E-4
-0.9907438500302097
-0.21027834612134688
3.2686928984182353E-4
-0.9907940412592718
-0.20961164971807436
8.050591822906692E-4
-0.9907940412592718
-0.20961164971807436
8.050591822906692E-4
-0.9907940412592718
-0.20961164971807436
8.050591822906692E-4
-0.9907940412592718
-0.20961164971807436
8.050591822906692E-4
-0.9899747419100204
-0.2089563749378891
3.6900165679858957E-4
-0.9899747419100204
-0.2089563749378891
3.6900165679858957E-4
-0.9899747419100204
-0.2089563749378891
3.6900165679858957E-4
-0.9899747419100204
-0.2089563749378891
3.6900165679858957E-4
-0.9893231365855361
-0.20803459889163936
-5.744640948613943E-5
-0.9893231365855361
-0.20803459889163936
-5.744640948613943E-5
-0.9893231365855361
-0.20803459889163936
-5.744640948613943E-5
-0.9893231365855361
-0.20803459889163936
-5.744640948613943E-5
-0.9896048119189675
-0.20759786146758163
1.3142502921073085E-5
-0.9896048119189675
-0.20759786146758163
1.3142502921073085E-5
-0.9896048119189675
-0.20759786146758163
1.3142502921073085E-5
-0.9896048119189675
-0.20759786146758163
1.3142502921073085E-5
-0.9913768633480581
-0.20731505371211534
1.8894072815916186E-4
-0.9913768633480581
-0.20731505371211534
1.8894072815916186E-4
-0.9913768633480581
-0.20731505371211534
1.8894072815916186E-4
-0.9913768633480581
-0.20731505371211534
1.8894072815916186E-4
-0.9919849564755548
-0.2062101741281624
7.652601757481898E-4
-0.9919849564755548
-0.2062101741281624
7.652601757481898E-4
-0.9919849564755548
-0.2062101741281624
7.652601757481898E-4
-0.9919849564755548
-0.2062101741281624
7.652601757481898E-4
-0.9915334305546089
-0.2060993656570687
6.601449316304563E-4
-0.9915334305546089
-0.2060993656570687
6.601449316304563E-4
-0.9915334305546089
-0.2060993656570687
6.601449316304563E-4
-0.9915334305546089
-0.2060993656570687
6.601449316304563E-4
-0.9888284037262143
-0.20548905590687436
-0.0010661405571065256
-0.9888284037262143
-0.20548905590687436
-0.0010661405571065256
-0.9888284037262143
-0.20548905590687436
-0.0010661405571065256
-0.9888284037262143
-0.20548905590687436
-0.0010661405571065256
-0.9847988838857696
-0.20205448807989596
-0.00443445567137454
-0.9847988838857696
-0.20205448807989596
-0.00443445567137454
-0.9847988838857696
-0.20205448807989596
-0.00443445567137454
-0.9847988838857696
-0.20205448807989596
-0.00443445567137454
-0.9874066131320353
-0.1951713106438967
-0.006900109788270207
-0.9874066131320353
-0.1951713106438967
-0.006900109788270207
-0.9874066131320353
-0.1951713106438967
-0.006900109788270207
-0.9874066131320353
-0.1951713106438967
-0.006900109788270207
-0.9985593294000928
-0.19004979257915985
-0.007362524484578564
-0.9985593294000928
-0.19004979257915985
-0.007362524484578564
-0.9985593294000928
-0.19004979257915985
-0.007362524484578564
-0.9985593294000928
-0.19004979257915985
-0.007362524484578564
-1.00054101333954
-0.18849363502690242
-0.007888998741111083
-1.00054101333954
-0.18849363502690242
-0.007888998741111083
-1.00054101333954
-0.18849363502690242
-0.007888998741111083
-1.00054101333954
-0.18849363502690242
-0.007888998741111083
-0.9982026743284688
-0.18961247083191243
-0.007630914922541439
-0.9982026743284688
-0.18961247083191243
-0.007630914922541439
-0.9982026743284688
-0.18961247083191243
-0.007630914922541439
-0.9982026743284688
-0.18961247083191243
-0.007630914922541439
-1.0000778748410222
-0.19353002019023133
-0.009232884910902541
-1.0000778748410222
-0.19353002019023133
-0.009232884910902541
-1.0000778748410222
-0.19353002019023133
-0.009232884910902541
-1.0000778748410222
-0.19353002019023133
-0.009232884910902541
-1.0037178263176916
-0.1942705453369579
-0.010717985843830012
-1.0037178263176916
-0.1942705453369579
-0.010717985843830012
-1.0037178263176916
-0.1942705453369579
-0.010717985843830012
-1.0037178263176916
-0.1942705453369579
-0.010717985843830012
-1.0036728164042574
-0.19202959974959374
-0.010698037397145803
-1.0036728164042574
-0.19202959974959374
-0.010698037397145803
-1.0036728164042574
-0.19202959974959374
-0.010698037397145803
-1.0036728164042574
-0.19202959974959374
-0.010698037397145803
-1.0074216773714944
-0.19117800978636382
-0.010536033037170227
-1.0074216773714944
-0.19117800978636382
-0.010536033037170227
-1.0074216773714944
-0.19117800978636382
-0.010536033037170227
-1.0074216773714944
-0.19117800978636382
-0.010536033037170227
-1.0146933025182585
-0.19299116460937688
-0.010256174054292435
-1.0146933025182585
-0.19299116460937688
-0.010256174054292435
-1.0146933025182585
-0.19299116460937688
-0.010256174054292435
-1.0146933025182585
-0.19299116460937688
-0.010256174054292435
-1.0189898383538947
-0.19607389448339754
-0.009536572201305124
-1.0189898383538947
-0.19607389448339754
-0.009536572201305124
-1.0189898383538947
-0.19607389448339754
-0.009536572201305124
-1.0189898383538947
-0.19607389448339754
-0.009536572201305124
-1.0179916195904977
-0.1996819199527277
-0.009581486089450022
-1.0179916195904977
-0.1996819199527277
-0.009581486089450022
-1.0179916195904977
-0.1996819199527277
-0.009581486089450022
-1.0179916195904977
-0.1996819199527277
-0.009581486089450022
-1.015990928760561
-0.20348378581571835
-0.010328454483588526
-1.015990928760561
-0.20348378581571835
-0.010328454483588526
-1.015990928760561
-0.20348378581571835
-0.010328454483588526
-1.015990928760561
-0.20348378581571835
-0.010328454483588526
-1.0166443033666561
-0.2058298129804352
-0.01092790306543915
-1.0166443033666561
-0.2058298129804352
-0.01092790306543915
-1.0166443033666561
-0.2058298129804352
-0.01092790306543915
-1.0166443033666561
-0.2058298129804352
-0.01092790306543915
-1.0180723176531234
-0.20660888489462015
-0.010910275299696862
-1.0180723176531234
-0.20660888489462015
-0.010910275299696862
-1.0180723176531234
-0.20660888489462015
-0.010910275299696862
-1.0180723176531234
-0.20660888489462015
-0.010910275299696862
-1.0206515237854072
-0.20668999885887127
-0.01201367664907451
-1.0206515237854072
-0.20668999885887127
-0.01201367664907451
-1.0206515237854072
-0.20668999885887127
-0.01201367664907451
-1.0206515237854072
-0.20668999885887127
-0.01201367664907451
-1.0224732735437903
-0.20667391374877625
-0.013529506037895723
-1.0224732735437903
-0.20667391374877625
-0.013529506037895723
-1.0224732735437903
-0.20667391374877625
-0.013529506037895723
-1.0224732735437903
-0.20667391374877625
-0.013529506037895723
-1.0209882497677696
-0.20731056526524907
-0.014587694399425184
-1.0209882497677696
-0.20731056526524907
-0.014587694399425184
-1.0209882497677696
-0.20731056526524907
-0.014587694399425184
-1.0209882497677696
-0.20731056526524907
-0.014587694399425184
-1.0182829106236317
-0.20791191007151974
-0.015225957126533515
-1.0182829106236317
-0.20791191007151974
-0.015225957126533515
-1.0182829106236317
-0.20791191007151974
-0.015225957126533515
-1.0182829106236317
-0.20791191007151974
-0.015225957126533515
-1.0182829106236317
-0.20791191007151974
-0.015225957126533515
-1.0182829106236317
-0.20791191007151974
-0.015225957126533515
-1.0182829106236317
-0.20791191007151974
-0.015225957126533515
-1.0182829106236317
-0.20791191007151974
-0.015225957126533515
-1.0190468098968548
-0.20784820954786187
-0.014765139352205423
-1.0190468098968548
-0.20784820954786187
-0.014765139352205423
-1.0190468098968548
-0.20784820954786187
-0.014765139352205423
-1.0190468098968548
-0.20784820954786187
-0.014765139352205423
-1.0196577453504836
-0.20770366983768968
-0.015201826615339054
-1.0196577453504836
-0.20770366983768968
-0.015201826615339054
-1.0196577453504836
-0.20770366983768968
-0.015201826615339054
-1.0196577453504836
-0.20770366983768968
-0.015201826615339054
-1.0193657905916726
-0.2068424108311449
-0.015437243474141386
-1.0193657905916726
-0.2068424108311449
-0.015437243474141386
-1.0193657905916726
-0.2068424108311449
-0.015437243474141386
-1.0193657905916726
-0.2068424108311449
-0.015437243474141386
-1.0166433720190509
-0.20654604510428914
-0.01573171397527502
-1.0166433720190509
-0.20654604510428914
-0.01573171397527502
-1.0166433720190509
-0.20654604510428914
-0.01573171397527502
-1.0166433720190509
-0.20654604510428914
-0.01573171397527502
-1.0150297459641182
-0.2062526647577862
-0.015910233751021016
-1.0150297459641182
-0.2062526647577862
-0.015910233751021016
-1.0150297459641182
-0.2062526647577862
-0.015910233751021016
-1.0150297459641182
-0.2062526647577862
-0.015910233751021016
-1.014182305919625
-0.20593128306064856
-0.016177014843253186
-1.014182305919625
-0.20593128306064856
-0.016177014843253186
-1.014182305919625
-0.20593128306064856
-0.016177014843253186
-1.014182305919625
-0.20593128306064856
-0.016177014843253186
-1.0140955106813436
-0.20538887933243175
-0.01648305976352053
-1.0140955106813436
-0.20538887933243175
-0.01648305976352053
-1.0140955106813436
-0.20538887933243175
-0.01648305976352053
-1.0140955106813436
-0.20538887933243175
-0.01648305976352053
-1.0140902006096504
-0.20528268318699874
-0.016543195521867827
-1.0140902006096504
-0.20528268318699874
-0.016543195521867827
-1.0140902006096504
-0.20528268318699874
-0.016543195521867827
-1.0140902006096504
-0.20528268318699874
-0.016543195521867827
-1.0141231795725414
-0.20480028037442066
-0.015680779952605927
-1.0141231795725414
-0.20480028037442066
-0.015680779952605927
-1.0141231795725414
-0.20480028037442066
-0.015680779952605927
-1.0141231795725414
-0.20480028037442066
-0.015680779952605927
-1.0126603359080693
-0.20486158007258454
-0.014949280435640389
-1.0126603359080693
-0.20486158007258454
-0.014949280435640389
-1.0126603359080693
-0.20486158007258454
-0.014949280435640389
-1.0126603359080693
-0.20486158007258454
-0.014949280435640389
-1.0111913207244683
-0.2050889351205976
-0.014266416548012141
-1.0111913207244683
-0.2050889351205976
-0.014266416548012141
-1.0111913207244683
-0.2050889351205976
-0.014266416548012141
-1.0111913207244683
-0.2050889351205976
-0.014266416548012141
-1.0108505499801557
-0.20540117894888074
-0.013849587776027595
-1.0108505499801557
-0.20540117894888074
-0.013849587776027595
-1.0108505499801557
-0.20540117894888074
-0.013849587776027595
-1.0108505499801557
-0.20540117894888074
-0.013849587776027595
-1.013414827557277
-0.2059022684366593
-0.013454393306437397
-1.013414827557277
-0.2059022684366593
-0.013454393306437397
-1.013414827557277
-0.2059022684366593
-0.013454393306437397
-1.013414827557277
-0.2059022684366593
-0.013454393306437397
-1.0155374587695916
-0.20628292717409186
-0.01261587668398601
-1.0155374587695916
-0.20628292717409186
-0.01261587668398601
-1.0155374587695916
-0.20628292717409186
-0.01261587668398601
-1.0155374587695916
-0.20628292717409186
-0.01261587668398601
-1.0141611471736083
-0.2059157365597762
-0.012114366449612907
-1.0141611471736083
-0.2059157365597762
-0.012114366449612907
-1.0141611471736083
-0.2059157365597762
-0.012114366449612907
-1.0141611471736083
-0.2059157365597762
-0.012114366449612907
-1.0121445743629063
-0.20558250893227598
-0.012501027873252307
-1.0121445743629063
-0.20558250893227598
-0.012501027873252307
-1.0121445743629063
-0.20558250893227598
-0.012501027873252307
-1.0121445743629063
-0.20558250893227598
-0.012501027873252307
-1.0121561382596669
-0.20552371564549496
-0.012392498871728462
-1.0121561382596669
-0.20552371564549496
-0.012392498871728462
-1.0121561382596669
-0.20552371564549496
-0.012392498871728462
-1.0121561382596669
-0.20552371564549496
-0.012392498871728462
-1.0136415913239603
-0.20573824964155185
-0.011846308458975618
-1.0136415913239603
-0.20573824964155185
-0.011846308458975618
-1.0136415913239603
-0.20573824964155185
-0.011846308458975618
-1.0136415913239603
-0.20573824964155185
-0.011846308458975618
-1.0156981549219046
-0.20654223304769906
-0.011049453826149764
-1.0156981549219046
-0.20654223304769906
-0.011049453826149764
-1.0156981549219046
-0.20654223304769906
-0.011049453826149764
-1.0156981549219046
-0.20654223304769906
-0.011049453826149764
-1.0157553668350356
-0.20706100933696162
-0.010470955024150928
-1.0157553668350356
-0.20706100933696162
-0.010470955024150928
-1.0157553668350356
-0.20706100933696162
-0.010470955024150928
-1.0157553668350356
-0.20706100933696162
-0.010470955024150928
-1.013752702684202
-0.20737214220912584
-0.01022687199019076
-1.013752702684202
-0.20737214220912584
-0.01022687199019076
-1.013752702684202
-0.20737214220912584
-0.01022687199019076
-1.013752702684202
-0.20737214220912584
-0.01022687199019076
-1.0132210452526755
-0.20806783039461987
-0.010032318034008668
-1.0132210452526755
-0.20806783039461987
-0.010032318034008668
-1.0132210452526755
-0.20806783039461987
-0.010032318034008668
-1.0132210452526755
-0.20806783039461987
-0.010032318034008668
-1.0150334924925597
-0.2099780710408727
-0.0094853233626011
-1.0150334924925597
-0.2099780710408727
-0.0094853233626011
-1.0150334924925597
-0.2099780710408727
-0.0094853233626011
-1.0150334924925597
-0.2099780710408727
-0.0094853233626011
-1.016131233280281
-0.21202310224335236
-0.009499887901269294
-1.016131233280281
-0.21202310224335236
-0.009499887901269294
-1.016131233280281
-0.21202310224335236
-0.009499887901269294
-1.016131233280281
-0.21202310224335236
-0.009499887901269294
-1.0145984782621025
-0.21357920144552456
-0.008936154316187267
-1.0145984782621025
-0.21357920144552456
-0.008936154316187267
-1.0145984782621025
-0.21357920144552456
-0.008936154316187267
-1.0145984782621025
-0.21357920144552456
-0.008936154316187267
-1.01027321346561
-0.215035391135756
-0.009284039088170035
-1.01027321346561
-0.215035391135756
-0.009284039088170035
-1.01027321346561
-0.215035391135756
-0.009284039088170035
-1.01027321346561
-0.215035391135756
-0.009284039088170035
-1.0075032652985119
-0.21595435999607204
-0.009491245427589688
-1.0075032652985119
-0.21595435999607204
-0.009491245427589688
-1.0075032652985119
-0.21595435999607204
-0.009491245427589688
-1.0075032652985119
-0.21595435999607204
-0.009491245427589688
-1.0059148715806756
-0.21736911073437548
-0.009443527300571871
-1.0059148715806756
-0.21736911073437548
-0.009443527300571871
-1.0059148715806756
-0.21736911073437548
-0.009443527300571871
-1.0059148715806756
-0.21736911073437548
-0.009443527300571871
-1.0071695455496763
-0.2203136365163721
-0.008531206198218677
-1.0071695455496763
-0.2203136365163721
-0.008531206198218677
-1.0071695455496763
-0.2203136365163721
-0.008531206198218677
-1.0071695455496763
-0.2203136365163721
-0.008531206198218677
-1.0061007597054834
-0.22385737514159287
-0.008235679452262598
-1.0061007597054834
-0.22385737514159287
-0.008235679452262598
-1.0061007597054834
-0.22385737514159287
-0.008235679452262598
-1.0061007597054834
-0.22385737514159287
-0.008235679452262598
-0.9993058879939685
-0.22581866622648658
-0.009039361057160286
-0.9993058879939685
-0.22581866622648658
-0.009039361057160286
-0.9993058879939685
-0.22581866622648658
-0.009039361057160286
-0.9993058879939685
-0.22581866622648658
-0.009039361057160286
-0.9895858158185131
-0.22498547784991724
-0.009451195981165535
-0.9895858158185131
-0.22498547784991724
-0.009451195981165535
-0.9895858158185131
-0.22498547784991724
-0.009451195981165535
-0.9895858158185131
-0.22498547784991724
-0.009451195981165535
-0.9858749892380554
-0.2247663512697934
-0.008721742071628942
-0.9858749892380554
-0.2247663512697934
-0.008721742071628942
-0.9858749892380554
-0.2247663512697934
-0.008721742071628942
-0.9858749892380554
-0.2247663512697934
-0.008721742071628942
-0.9876927839686698
-0.22471229802179418
-0.004780634336855237
-0.9876927839686698
-0.22471229802179418
-0.004780634336855237
-0.9876927839686698
-0.22471229802179418
-0.004780634336855237
-0.9876927839686698
-0.22471229802179418
-0.004780634336855237
-0.989006664570083
-0.22449884920806645
-0.0013958582400121085
-0.989006664570083
-0.22449884920806645
-0.0013958582400121085
-0.989006664570083
-0.22449884920806645
-0.0013958582400121085
-0.989006664570083
-0.22449884920806645
-0.0013958582400121085
-0.9874832942291828
-0.22367829046031143
2.2137008482870274E-4
-0.9874832942291828
-0.22367829046031143
2.2137008482870274E-4
-0.9874832942291828
-0.22367829046031143
2.2137008482870274E-4
-0.9874832942291828
-0.22367829046031143
2.2137008482870274E-4
-0.9843172997353721
-0.22329444457908965
0.0018881757148968184
-0.9843172997353721
-0.22329444457908965
0.0018881757148968184
-0.9843172997353721
-0.22329444457908965
0.0018881757148968184
-0.9843172997353721
-0.22329444457908965
0.0018881757148968184
-0.9823210095053344
-0.22168378678879597
0.006235689986107421
-0.9823210095053344
-0.22168378678879597
0.006235689986107421
-0.9823210095053344
-0.22168378678879597
0.006235689986107421
-0.9823210095053344
-0.22168378678879597
0.006235689986107421
-0.9847641346898902
-0.21863158076602376
0.01114400981269777
-0.9847641346898902
-0.21863158076602376
0.01114400981269777
-0.9847641346898902
-0.21863158076602376
0.01114400981269777
-0.9847641346898902
-0.21863158076602376
0.01114400981269777
-0.9899193037247477
-0.21388829114062094
0.015019934415777016
-0.9899193037247477
-0.21388829114062094
0.015019934415777016
-0.9899193037247477
-0.21388829114062094
0.015019934415777016
-0.9899193037247477
-0.21388829114062094
0.015019934415777016
-0.9903808452056576
-0.20668632791521016
0.017033282510232443
-0.9903808452056576
-0.20668632791521016
0.017033282510232443
-0.9903808452056576
-0.20668632791521016
0.017033282510232443
-0.9903808452056576
-0.20668632791521016
0.017033282510232443
-0.9866547986561868
-0.20079301745675432
0.018332280729531972
-0.9866547986561868
-0.20079301745675432
0.018332280729531972
-0.9866547986561868
-0.20079301745675432
0.018332280729531972
-0.9866547986561868
-0.20079301745675432
0.018332280729531972
-0.9811699420872769
-0.19749156959731395
0.01988154224478102
-0.9811699420872769
-0.19749156959731395
0.01988154224478102
-0.9811699420872769
-0.19749156959731395
0.01988154224478102
-0.9811699420872769
-0.19749156959731395
0.01988154224478102
-0.9796224907961085
-0.19549047740812184
0.02115473735387858
-0.9796224907961085
-0.19549047740812184
0.02115473735387858
-0.9796224907961085
-0.19549047740812184
0.02115473735387858
-0.9796224907961085
-0.19549047740812184
0.02115473735387858
-0.9833764347148592
-0.19296919836286314
0.022274293888675554
-0.9833764347148592
-0.19296919836286314
0.022274293888675554
-0.9833764347148592
-0.19296919836286314
0.022274293888675554
-0.9833764347148592
-0.19296919836286314
0.022274293888675554
-0.9825966976488895
-0.19105518265078963
0.022418268242137482
-0.9825966976488895
-0.19105518265078963
0.022418268242137482
-0.9825966976488895
-0.19105518265078963
0.022418268242137482
-0.9825966976488895
-0.19105518265078963
0.022418268242137482
-0.977790745308389
-0.19131325309887423
0.022071858071980584
-0.977790745308389
-0.19131325309887423
0.022071858071980584
-0.977790745308389
-0.19131325309887423
0.022071858071980584
-0.977790745308389
-0.19131325309887423
0.022071858071980584
-0.971339028661152
-0.1925959420067566
0.02153632020950251
-0.971339028661152
-0.1925959420067566
0.02153632020950251
-0.971339028661152
-0.1925959420067566
0.02153632020950251
-0.971339028661152
-0.1925959420067566
0.02153632020950251
-0.9670149868637115
-0.19446511404236055
0.020278643949897698
-0.9670149868637115
-0.19446511404236055
0.020278643949897698
-0.9670149868637115
-0.19446511404236055
0.020278643949897698
-0.9670149868637115
-0.19446511404236055
0.020278643949897698
-0.9691642283051338
-0.1959832086518149
0.020192620193938533
-0.9691642283051338
-0.1959832086518149
0.020192620193938533
-0.9691642283051338
-0.1959832086518149
0.020192620193938533
-0.9691642283051338
-0.1959832086518149
0.020192620193938533
-0.9722609019744124
-0.19776029326745925
0.02075922939210969
-0.9722609019744124
-0.19776029326745925
0.02075922939210969
-0.9722609019744124
-0.19776029326745925
0.02075922939210969
-0.9722609019744124
-0.19776029326745925
0.02075922939210969
-0.9735851828913004
-0.20059936675598702
0.021014612981304186
-0.9735851828913004
-0.20059936675598702
0.021014612981304186
-0.9735851828913004
-0.20059936675598702
0.021014612981304186
-0.9735851828913004
-0.20059936675598702
0.021014612981304186
-0.9744628526130668
-0.20302246966233203
0.020174553130607308
-0.9744628526130668
-0.20302246966233203
0.020174553130607308
-0.9744628526130668
-0.20302246966233203
0.020174553130607308
-0.9744628526130668
-0.20302246966233203
0.020174553130607308
-0.9761379436880547
-0.2038405065492517
0.019817404196783066
-0.9761379436880547
-0.2038405065492517
0.019817404196783066
-0.9761379436880547
-0.2038405065492517
0.019817404196783066
-0.9761379436880547
-0.2038405065492517
0.019817404196783066
-0.9791920987352707
-0.20409945864168635
0.019588628937215666
-0.9791920987352707
-0.20409945864168635
0.019588628937215666
-0.9791920987352707
-0.20409945864168635
0.019588628937215666
-0.9791920987352707
-0.20409945864168635
0.019588628937215666
-0.9820400747713345
-0.20456113254842723
0.020003833101376465
-0.9820400747713345
-0.20456113254842723
0.020003833101376465
-0.9820400747713345
-0.20456113254842723
0.020003833101376465
-0.9820400747713345
-0.20456113254842723
0.020003833101376465
-0.9832110847236086
-0.20526479293705166
0.020089890692184538
-0.9832110847236086
-0.20526479293705166
0.020089890692184538
-0.9832110847236086
-0.20526479293705166
0.020089890692184538
-0.9832110847236086
-0.20526479293705166
0.020089890692184538
-0.9835755543327235
-0.20569962969014713
0.020360226467909484
-0.9835755543327235
-0.20569962969014713
0.020360226467909484
-0.9835755543327235
-0.20569962969014713
0.020360226467909484
-0.9835755543327235
-0.20569962969014713
0.020360226467909484
-0.9852104029951031
-0.20568633049893864
0.020254197649425078
-0.9852104029951031
-0.20568633049893864
0.020254197649425078
-0.9852104029951031
-0.20568633049893864
0.020254197649425078
-0.9852104029951031
-0.20568633049893864
0.020254197649425078
-0.9857432610414911
-0.20492259978361338
0.020176870078840246
-0.9857432610414911
-0.20492259978361338
0.020176870078840246
-0.9857432610414911
-0.20492259978361338
0.020176870078840246
-0.9857432610414911
-0.20492259978361338
0.020176870078840246
-0.9846564634165466
-0.2040557234036819
0.019874038068859876
-0.9846564634165466
-0.2040557234036819
0.019874038068859876
-0.9846564634165466
-0.2040557234036819
0.019874038068859876
-0.9846564634165466
-0.2040557234036819
0.019874038068859876
-0.9858987276860194
-0.20331921000937384
0.020308516578436433
-0.9858987276860194
-0.20331921000937384
0.020308516578436433
-0.9858987276860194
-0.20331921000937384
0.020308516578436433
-0.9858987276860194
-0.20331921000937384
0.020308516578436433
-0.9853724366099562
-0.20288225957115125
0.020571341596109374
-0.9853724366099562
-0.20288225957115125
0.020571341596109374
-0.9853724366099562
-0.20288225957115125
0.020571341596109374
-0.9853724366099562
-0.20288225957115125
0.020571341596109374
-0.9850082830736895
-0.20244776984921697
0.02030119235178038
-0.9850082830736895
-0.20244776984921697
0.02030119235178038
-0.9850082830736895
-0.20244776984921697
0.02030119235178038
-0.9850082830736895
-0.20244776984921697
0.02030119235178038
-0.9846232327356589
-0.20169232325608882
0.01985513838531253
-0.9846232327356589
-0.20169232325608882
0.01985513838531253
-0.9846232327356589
-0.20169232325608882
0.01985513838531253
-0.9846232327356589
-0.20169232325608882
0.01985513838531253
-0.9855410843483269
-0.20168391425469692
0.02022308614600681
-0.9855410843483269
-0.20168391425469692
0.02022308614600681
-0.9855410843483269
-0.20168391425469692
0.02022308614600681
-0.9855410843483269
-0.20168391425469692
0.02022308614600681
-0.9864109566378595
-0.20204328431453344
0.02065127702903034
-0.9864109566378595
-0.20204328431453344
0.02065127702903034
-0.9864109566378595
-0.20204328431453344
0.02065127702903034
-0.9864109566378595
-0.20204328431453344
0.02065127702903034
-0.9860493835519027
-0.20221007879362496
0.020839529289800374
-0.9860493835519027
-0.20221007879362496
0.020839529289800374
-0.9860493835519027
-0.20221007879362496
0.020839529289800374
-0.9860493835519027
-0.20221007879362496
0.020839529289800374
-0.9855973009061978
-0.20210346678721963
0.020735183385738088
-0.9855973009061978
-0.20210346678721963
0.020735183385738088
-0.9855973009061978
-0.20210346678721963
0.020735183385738088
-0.9855973009061978
-0.20210346678721963
0.020735183385738088
-0.9848718530127601
-0.20227183242928948
0.020611162992155173
-0.9848718530127601
-0.20227183242928948
0.020611162992155173
-0.9848718530127601
-0.20227183242928948
0.020611162992155173
-0.9848718530127601
-0.20227183242928948
0.020611162992155173
-0.984752187947403
-0.20233628132154724
0.02049149792679829
-0.984752187947403
-0.20233628132154724
0.02049149792679829
-0.984752187947403
-0.20233628132154724
0.02049149792679829
-0.984752187947403
-0.20233628132154724
0.02049149792679829
-0.98581831266914
-0.20269075567227637
0.021214547652887356
-0.98581831266914
-0.20269075567227637
0.021214547652887356
-0.98581831266914
-0.20269075567227637
0.021214547652887356
-0.98581831266914
-0.20269075567227637
0.021214547652887356
-0.9866043510225545
-0.20321278054515238
0.021859580780152526
-0.9866043510225545
-0.20321278054515238
0.021859580780152526
-0.9866043510225545
-0.20321278054515238
0.021859580780152526
-0.9866043510225545
-0.20321278054515238
0.021859580780152526
-0.9862047491101177
-0.20388160444375905
0.02161955650352716
-0.9862047491101177
-0.20388160444375905
0.02161955650352716
-0.9862047491101177
-0.20388160444375905
0.02161955650352716
-0.9862047491101177
-0.20388160444375905
0.02161955650352716
-0.986201391146255
-0.20404610021609454
0.021569211734006638
-0.986201391146255
-0.20404610021609454
0.021569211734006638
-0.986201391146255
-0.20404610021609454
0.021569211734006638
-0.986201391146255
-0.20404610021609454
0.021569211734006638
-0.9872673983132969
-0.20459122531027119
0.02169624569231139
-0.9872673983132969
-0.20459122531027119
0.02169624569231139
-0.9872673983132969
-0.20459122531027119
0.02169624569231139
-0.9872673983132969
-0.20459122531027119
0.02169624569231139
-0.9880365704432295
-0.20506344956965647
0.022174527190010226
-0.9880365704432295
-0.20506344956965647
0.022174527190010226
-0.9880365704432295
-0.20506344956965647
0.022174527190010226
-0.9880365704432295
-0.20506344956965647
0.022174527190010226
-0.9880365704432295
-0.20506344956965647
0.022174527190010226
-0.9880365704432295
-0.20506344956965647
0.022174527190010226
-0.9880365704432295
-0.20506344956965647
0.022174527190010226
-0.9880365704432295
-0.20506344956965647
0.022174527190010226
-0.9887523742789547
-0.2053880698573822
0.022148956425598613
-0.9887523742789547
-0.2053880698573822
0.022148956425598613
-0.9887523742789547
-0.2053880698573822
0.022148956425598613
-0.9887523742789547
-0.2053880698573822
0.022148956425598613
-0.988023216036642
-0.20572157451268747
0.021973737782154654
-0.988023216036642
-0.20572157451268747
0.021973737782154654
-0.988023216036642
-0.20572157451268747
0.021973737782154654
-0.988023216036642
-0.20572157451268747
0.021973737782154654
-0.9873702752890501
-0.20567867633513537
0.022015216381205585
-0.9873702752890501
-0.20567867633513537
0.022015216381205585
-0.9873702752890501
-0.20567867633513537
0.022015216381205585
-0.9873702752890501
-0.20567867633513537
0.022015216381205585
-0.9879213510227686
-0.20583553041880834
0.02202204195021793
-0.9879213510227686
-0.20583553041880834
0.02202204195021793
-0.9879213510227686
-0.20583553041880834
0.02202204195021793
-0.9879213510227686
-0.20583553041880834
0.02202204195021793
-0.9886046900623197
-0.20589746902064496
0.0217106869279217
-0.9886046900623197
-0.20589746902064496
0.0217106869279217
-0.9886046900623197
-0.20589746902064496
0.0217106869279217
-0.9886046900623197
-0.20589746902064496
0.0217106869279217
-0.9885369230146949
-0.20597242210818326
0.021047112461900754
-0.9885369230146949
-0.20597242210818326
0.021047112461900754
-0.9885369230146949
-0.20597242210818326
0.021047112461900754
-0.9885369230146949
-0.20597242210818326
0.021047112461900754
-0.9874800270359693
-0.2059970785825196
0.020389066888076332
-0.9874800270359693
-0.2059970785825196
0.020389066888076332
-0.9874800270359693
-0.2059970785825196
0.020389066888076332
-0.9874800270359693
-0.2059970785825196
0.020389066888076332
-0.9868274008750426
-0.2068254239353224
0.020346865970303305
-0.9868274008750426
-0.2068254239353224
0.020346865970303305
-0.9868274008750426
-0.2068254239353224
0.020346865970303305
-0.9868274008750426
-0.2068254239353224
0.020346865970303305
-0.9874627133922603
-0.2075851342768696
0.020546566877011868
-0.9874627133922603
-0.2075851342768696
0.020546566877011868
-0.9874627133922603
-0.2075851342768696
0.020546566877011868
-0.9874627133922603
-0.2075851342768696
0.020546566877011868
-0.9883575252908816
-0.20829192986947662
0.020607552620263713
-0.9883575252908816
-0.20829192986947662
0.020607552620263713
-0.9883575252908816
-0.20829192986947662
0.020607552620263713
-0.9883575252908816
-0.20829192986947662
0.020607552620263713
-0.987745054328202
-0.20831622923451126
0.01999508165758428
-0.987745054328202
-0.20831622923451126
0.01999508165758428
-0.987745054328202
-0.20831622923451126
0.01999508165758428
-0.987745054328202
-0.20831622923451126
0.01999508165758428
-0.9877378160972451
-0.20820939046176243
0.019936145447958988
-0.9877378160972451
-0.20820939046176243
0.019936145447958988
-0.9877378160972451
-0.20820939046176243
0.019936145447958988
-0.9877378160972451
-0.20820939046176243
0.019936145447958988
-0.9888507957087196
-0.2084664088461095
0.02006053867551115
-0.9888507957087196
-0.2084664088461095
0.02006053867551115
-0.9888507957087196
-0.2084664088461095
0.02006053867551115
-0.9888507957087196
-0.2084664088461095
0.02006053867551115
-0.9888507957087196
-0.2084664088461095
0.02006053867551115
-0.9888507957087196
-0.2084664088461095
0.02006053867551115
-0.9888507957087196
-0.2084664088461095
0.02006053867551115
-0.9888507957087196
-0.2084664088461095
0.02006053867551115
-0.9883763829810696
-0.20847506446481415
0.01973619453801804
-0.9883763829810696
-0.20847506446481415
0.01973619453801804
-0.9883763829810696
-0.20847506446481415
0.01973619453801804
-0.9883763829810696
-0.20847506446481415
0.01973619453801804
-0.9875191023178125
-0.20832962627771395
0.019422348497057887
-0.9875191023178125
-0.20832962627771395
0.019422348497057887
-0.9875191023178125
-0.20832962627771395
0.019422348497057887
-0.9875191023178125
-0.20832962627771395
0.019422348497057887
-0.9884425610861199
-0.2081566369507857
0.019843843092593735
-0.9884425610861199
-0.2081566369507857
0.019843843092593735
-0.9884425610861199
-0.2081566369507857
0.019843843092593735
-0.9884425610861199
-0.2081566369507857
0.019843843092593735
-0.9897187603541804
-0.20811774000568703
0.020524816285632012
-0.9897187603541804
-0.20811774000568703
0.020524816285632012
-0.9897187603541804
-0.20811774000568703
0.020524816285632012
-0.9897187603541804
-0.20811774000568703
0.020524816285632012
-0.9892803297477694
-0.2077888771428671
0.020578117835964953
-0.9892803297477694
-0.2077888771428671
0.020578117835964953
-0.9892803297477694
-0.2077888771428671
0.020578117835964953
-0.9892803297477694
-0.2077888771428671
0.020578117835964953
-0.9882477834279128
-0.20753361824571645
0.02018754658597136
-0.9882477834279128
-0.20753361824571645
0.02018754658597136
-0.9882477834279128
-0.20753361824571645
0.02018754658597136
-0.9882477834279128
-0.20753361824571645
0.02018754658597136
-0.9890220110466966
-0.20710423074843082
0.019760652938780418
-0.9890220110466966
-0.20710423074843082
0.019760652938780418
-0.9890220110466966
-0.20710423074843082
0.019760652938780418
-0.9890220110466966
-0.20710423074843082
0.019760652938780418
-0.9899592750000393
-0.2068151503968125
0.019848625835914853
-0.9899592750000393
-0.2068151503968125
0.019848625835914853
-0.9899592750000393
-0.2068151503968125
0.019848625835914853
-0.9899592750000393
-0.2068151503968125
0.019848625835914853
-0.9900075701173695
-0.20688345319639295
0.019746715957086377
-0.9900075701173695
-0.20688345319639295
0.019746715957086377
-0.9900075701173695
-0.20688345319639295
0.019746715957086377
-0.9900075701173695
-0.20688345319639295
0.019746715957086377
-0.9895138909981236
-0.2068152461386979
0.01980199697070474
-0.9895138909981236
-0.2068152461386979
0.01980199697070474
-0.9895138909981236
-0.2068152461386979
0.01980199697070474
-0.9895138909981236
-0.2068152461386979
0.01980199697070474
-0.9890880723435206
-0.20645634580832106
0.019417462443102006
-0.9890880723435206
-0.20645634580832106
0.019417462443102006
-0.9890880723435206
-0.20645634580832106
0.019417462443102006
-0.9890880723435206
-0.20645634580832106
0.019417462443102006
-0.989098808961436
-0.20639860929325274
0.01952659095268914
-0.989098808961436
-0.20639860929325274
0.01952659095268914
-0.989098808961436
-0.20639860929325274
0.01952659095268914
-0.989098808961436
-0.20639860929325274
0.01952659095268914
-0.9894477131426105
-0.20659126537669117
0.0202277261130205
-0.9894477131426105
-0.20659126537669117
0.0202277261130205
-0.9894477131426105
-0.20659126537669117
0.0202277261130205
-0.9894477131426105
-0.20659126537669117
0.0202277261130205
-0.9888451503101331
-0.20685962183657913
0.020723037646854552
-0.9888451503101331
-0.20685962183657913
0.020723037646854552
-0.9888451503101331
-0.20685962183657913
0.020723037646854552
-0.9888451503101331
-0.20685962183657913
0.020723037646854552
-0.9893674824417926
-0.20702551745711634
0.020453049281200945
-0.9893674824417926
-0.20702551745711634
0.020453049281200945
-0.9893674824417926
-0.20702551745711634
0.020453049281200945
-0.9893674824417926
-0.20702551745711634
0.020453049281200945
-0.9901885313291907
-0.20707232936059566
0.020430092612976746
-0.9901885313291907
-0.20707232936059566
0.020430092612976746
-0.9901885313291907
-0.20707232936059566
0.020430092612976746
-0.9901885313291907
-0.20707232936059566
0.020430092612976746
-0.9893892175450779
-0.207345896836934
0.020630098775285686
-0.9893892175450779
-0.207345896836934
0.020630098775285686
-0.9893892175450779
-0.207345896836934
0.020630098775285686
-0.9893892175450779
-0.207345896836934
0.020630098775285686
-0.9897761415261543
-0.20766431446131814
0.021120540221160007
-0.9897761415261543
-0.20766431446131814
0.021120540221160007
-0.9897761415261543
-0.20766431446131814
0.021120540221160007
-0.9897761415261543
-0.20766431446131814
0.021120540221160007
-0.9908157452207279
-0.207589646704878
0.02161138785074724
-0.9908157452207279
-0.207589646704878
0.02161138785074724
-0.9908157452207279
-0.207589646704878
0.02161138785074724
-0.9908157452207279
-0.207589646704878
0.02161138785074724
-0.9904940179937738
-0.20779647263266818
0.021693449469722566
-0.9904940179937738
-0.20779647263266818
0.021693449469722566
-0.9904940179937738
-0.20779647263266818
0.021693449469722566
-0.9904940179937738
-0.20779647263266818
0.021693449469722566
-0.9904940179937738
-0.20779647263266818
0.021693449469722566
-0.9904940179937738
-0.20779647263266818
0.021693449469722566
-0.9904940179937738
-0.20779647263266818
0.021693449469722566
-0.9904940179937738
-0.20779647263266818
0.021693449469722566
-0.9899897320485244
-0.20767973657651406
0.022131318681493838
-0.9899897320485244
-0.20767973657651406
0.022131318681493838
-0.9899897320485244
-0.20767973657651406
0.022131318681493838
-0.9899897320485244
-0.20767973657651406
0.022131318681493838
-0.9904526126994165
-0.20729216584984822
0.022387309506503902
-0.9904526126994165
-0.20729216584984822
0.022387309506503902
-0.9904526126994165
-0.20729216584984822
0.022387309506503902
-0.9904526126994165
-0.20729216584984822
0.022387309506503902
-0.9904526126994165
-0.20729216584984822
0.022387309506503902
-0.9904526126994165
-0.20729216584984822
0.022387309506503902
-0.9904526126994165
-0.20729216584984822
0.022387309506503902
-0.9904526126994165
-0.20729216584984822
0.022387309506503902
-0.9904526126994165
-0.20729216584984822
0.022387309506503902
-0.9904526126994165
-0.20729216584984822
0.022387309506503902
-0.9904526126994165
-0.20729216584984822
0.022387309506503902
-0.9904526126994165
-0.20729216584984822
0.022387309506503902
