-0.9724553098775669
-0.15995307358271146
-0.24578296455269266
-0.9724553098775669
-0.15995307358271146
-0.24578296455269266
-0.9728133104580006
-0.16113520684424332
-0.2450273241737856
-0.9728133104580006
-0.16113520684424332
-0.2450273241737856
-0.9728133104580006
-0.16113520684424332
-0.2450273241737856
-0.9728133104580006
-0.16113520684424332
-0.2450273241737856
-0.9731262556695869
-0.1623241032332978
-0.2448183209999903
-0.9731262556695869
-0.1623241032332978
-0.2448183209999903
-0.9731262556695869
-0.1623241032332978
-0.2448183209999903
-0.9731262556695869
-0.1623241032332978
-0.2448183209999903
-0.9744512309383231
-0.1630239070312365
-0.2444220528728114
-0.9744512309383231
-0.1630239070312365
-0.2444220528728114
-0.9744512309383231
-0.1630239070312365
-0.2444220528728114
-0.9744512309383231
-0.1630239070312365
-0.2444220528728114
-0.9757924732182085
-0.16395714749767548
-0.24419446493205468
-0.9757924732182085
-0.16395714749767548
-0.24419446493205468
-0.9757924732182085
-0.16395714749767548
-0.24419446493205468
-0.9757924732182085
-0.16395714749767548
-0.24419446493205468
-0.9770190894084642
-0.16467128311214496
-0.24436795306006023
-0.9770190894084642
-0.16467128311214496
-0.24436795306006023
-0.9770190894084642
-0.16467128311214496
-0.24436795306006023
-0.9770190894084642
-0.16467128311214496
-0.24436795306006023
-0.9774013172564302
-0.1650020583802666
-0.244606697404392
-0.9774013172564302
-0.1650020583802666
-0.244606697404392
-0.9774013172564302
-0.1650020583802666
-0.244606697404392
-0.9774013172564302
-0.1650020583802666
-0.244606697404392
-0.9773011886131441
-0.16488644658476898
-0.24467906337557027
-0.9773011886131441
-0.16488644658476898
-0.24467906337557027
-0.9773011886131441
-0.16488644658476898
-0.24467906337557027
-0.9773011886131441
-0.16488644658476898
-0.24467906337557027
-0.9772448263730908
-0.16487066828704414
-0.24467052234355402
-0.9772448263730908
-0.16487066828704414
-0.24467052234355402
-0.9772448263730908
-0.16487066828704414
-0.24467052234355402
-0.9772448263730908
-0.16487066828704414
-0.24467052234355402
-0.9770543153899899
-0.164373398881732
-0.2450929269468418
-0.9770543153899899
-0.164373398881732
-0.2450929269468418
-0.9770543153899899
-0.164373398881732
-0.2450929269468418
-0.9770543153899899
-0.164373398881732
-0.2450929269468418
-0.9766107639948741
-0.16394712956585297
-0.24573128989862372
-0.9766107639948741
-0.16394712956585297
-0.24573128989862372
-0.9766107639948741
-0.16394712956585297
-0.24573128989862372
-0.9766107639948741
-0.16394712956585297
-0.24573128989862372
-0.9758255871429112
-0.16355043644289013
-0.24652592238872956
-0.9758255871429112
-0.16355043644289013
-0.24652592238872956
-0.9758255871429112
-0.16355043644289013
-0.24652592238872956
-0.9758255871429112
-0.16355043644289013
-0.24652592238872956
-0.9755404393112462
-0.16309614477931877
-0.24732137699913878
-0.9755404393112462
-0.16309614477931877
-0.24732137699913878
-0.9755404393112462
-0.16309614477931877
-0.24732137699913878
-0.9755404393112462
-0.16309614477931877
-0.24732137699913878
-0.9760758965085131
-0.16303054004420256
-0.24832570478584592
-0.9760758965085131
-0.16303054004420256
-0.24832570478584592
-0.9760758965085131
-0.16303054004420256
-0.24832570478584592
-0.9760758965085131
-0.16303054004420256
-0.24832570478584592
-0.9758636091540821
-0.16253639123072786
-0.24902117146086997
-0.9758636091540821
-0.16253639123072786
-0.24902117146086997
-0.9758636091540821
-0.16253639123072786
-0.24902117146086997
-0.9758636091540821
-0.16253639123072786
-0.24902117146086997
-0.9757514133022671
-0.1621580680837418
-0.2496443134898208
-0.9757514133022671
-0.1621580680837418
-0.2496443134898208
-0.9757514133022671
-0.1621580680837418
-0.2496443134898208
-0.9757514133022671
-0.1621580680837418
-0.2496443134898208
-0.9760037284195403
-0.16203631744057842
-0.2501159071627062
-0.9760037284195403
-0.16203631744057842
-0.2501159071627062
-0.9760037284195403
-0.16203631744057842
-0.2501159071627062
-0.9760037284195403
-0.16203631744057842
-0.2501159071627062
-0.976617816870511
-0.16185283518400667
-0.2503561908881006
-0.976617816870511
-0.16185283518400667
-0.2503561908881006
-0.976617816870511
-0.16185283518400667
-0.2503561908881006
-0.976617816870511
-0.16185283518400667
-0.2503561908881006
-0.9767264243526601
-0.1618616565514136
-0.2503402085914951
-0.9767264243526601
-0.1618616565514136
-0.2503402085914951
-0.9767264243526601
-0.1618616565514136
-0.2503402085914951
-0.9767264243526601
-0.1618616565514136
-0.2503402085914951
-0.9767264243526601
-0.1618616565514136
-0.2503402085914951
-0.9767264243526601
-0.1618616565514136
-0.2503402085914951
-0.9767264243526601
-0.1618616565514136
-0.2503402085914951
-0.9767264243526601
-0.1618616565514136
-0.2503402085914951
-0.9767353644106512
-0.16175447179315208
-0.2503964952678494
-0.9767353644106512
-0.16175447179315208
-0.2503964952678494
-0.9767353644106512
-0.16175447179315208
-0.2503964952678494
-0.9767353644106512
-0.16175447179315208
-0.2503964952678494
-0.9768439636840375
-0.16176329698484293
-0.25038051730076355
-0.9768439636840375
-0.16176329698484293
-0.25038051730076355
-0.9768439636840375
-0.16176329698484293
-0.25038051730076355
-0.9768439636840375
-0.16176329698484293
-0.25038051730076355
-0.9777616363648586
-0.16166092214983674
-0.2501595477424743
-0.9777616363648586
-0.16166092214983674
-0.2501595477424743
-0.9777616363648586
-0.16166092214983674
-0.2501595477424743
-0.9777616363648586
-0.16166092214983674
-0.2501595477424743
-0.9789796913871875
-0.16203742685713296
-0.25022100729776586
-0.9789796913871875
-0.16203742685713296
-0.25022100729776586
-0.9789796913871875
-0.16203742685713296
-0.25022100729776586
-0.9789796913871875
-0.16203742685713296
-0.25022100729776586
-0.9797309038582723
-0.16283582676505712
-0.24992150216528106
-0.9797309038582723
-0.16283582676505712
-0.24992150216528106
-0.9797309038582723
-0.16283582676505712
-0.24992150216528106
-0.9797309038582723
-0.16283582676505712
-0.24992150216528106
-0.9803717438982763
-0.16407385704900584
-0.24969386723842002
-0.9803717438982763
-0.16407385704900584
-0.24969386723842002
-0.9803717438982763
-0.16407385704900584
-0.24969386723842002
-0.9803717438982763
-0.16407385704900584
-0.24969386723842002
-0.9808243879116334
-0.1652916533367646
-0.24974639897578968
-0.9808243879116334
-0.1652916533367646
-0.24974639897578968
-0.9808243879116334
-0.1652916533367646
-0.24974639897578968
-0.9808243879116334
-0.1652916533367646
-0.24974639897578968
-0.9818905477733725
-0.1661945123366242
-0.24953837043269833
-0.9818905477733725
-0.1661945123366242
-0.24953837043269833
-0.9818905477733725
-0.1661945123366242
-0.24953837043269833
-0.9818905477733725
-0.1661945123366242
-0.24953837043269833
-0.982957079789611
-0.1670971687860319
-0.24932933033936966
-0.982957079789611
-0.1670971687860319
-0.24932933033936966
-0.982957079789611
-0.1670971687860319
-0.24932933033936966
-0.982957079789611
-0.1670971687860319
-0.24932933033936966
-0.9834611444980569
-0.1676985121662336
-0.2489982506823581
-0.9834611444980569
-0.1676985121662336
-0.2489982506823581
-0.9834611444980569
-0.1676985121662336
-0.2489982506823581
-0.9834611444980569
-0.1676985121662336
-0.2489982506823581
-0.9841642089170363
-0.168054385836089
-0.24866401401163832
-0.9841642089170363
-0.168054385836089
-0.24866401401163832
-0.9841642089170363
-0.168054385836089
-0.24866401401163832
-0.9841642089170363
-0.168054385836089
-0.24866401401163832
-0.9842297369535256
-0.16859776723522946
-0.24836413783861702
-0.9842297369535256
-0.16859776723522946
-0.24836413783861702
-0.9842297369535256
-0.16859776723522946
-0.24836413783861702
-0.9842297369535256
-0.16859776723522946
-0.24836413783861702
-0.9842383211488599
-0.1684907886011791
-0.24842084960681676
-0.9842383211488599
-0.1684907886011791
-0.24842084960681676
-0.9842383211488599
-0.1684907886011791
-0.24842084960681676
-0.9842383211488599
-0.1684907886011791
-0.24842084960681676
-0.9842383211488599
-0.1684907886011791
-0.24842084960681676
-0.9842383211488599
-0.1684907886011791
-0.24842084960681676
-0.9842383211488599
-0.1684907886011791
-0.24842084960681676
-0.9842383211488599
-0.1684907886011791
-0.24842084960681676
-0.9843966552680506
-0.16817347340013913
-0.2483009378250931
-0.9843966552680506
-0.16817347340013913
-0.2483009378250931
-0.9843966552680506
-0.16817347340013913
-0.2483009378250931
-0.9843966552680506
-0.16817347340013913
-0.2483009378250931
-0.9862148848093767
-0.1669151810600527
-0.248239268641908
-0.9862148848093767
-0.1669151810600527
-0.248239268641908
-0.9862148848093767
-0.1669151810600527
-0.248239268641908
-0.9862148848093767
-0.1669151810600527
-0.248239268641908
-0.9846731611567195
-0.16654174292403237
-0.24803219164146556
-0.9846731611567195
-0.16654174292403237
-0.24803219164146556
-0.9846731611567195
-0.16654174292403237
-0.24803219164146556
-0.9846731611567195
-0.16654174292403237
-0.24803219164146556
-0.9861810315365159
-0.1670518499982687
-0.2477349106383929
-0.9861810315365159
-0.1670518499982687
-0.2477349106383929
-0.9861810315365159
-0.1670518499982687
-0.2477349106383929
-0.9861810315365159
-0.1670518499982687
-0.2477349106383929
-0.9842246721416067
-0.16540063627567927
-0.24709619199801355
-0.9842246721416067
-0.16540063627567927
-0.24709619199801355
-0.9842246721416067
-0.16540063627567927
-0.24709619199801355
-0.9842246721416067
-0.16540063627567927
-0.24709619199801355
-0.9674875355735917
-0.16111257490504008
-0.2461103013404531
-0.9674875355735917
-0.16111257490504008
-0.2461103013404531
-0.9674875355735917
-0.16111257490504008
-0.2461103013404531
-0.9674875355735917
-0.16111257490504008
-0.2461103013404531
-0.9509667927645381
-0.160623846271483
-0.24773541846889316
-0.9509667927645381
-0.160623846271483
-0.24773541846889316
-0.9509667927645381
-0.160623846271483
-0.24773541846889316
-0.9509667927645381
-0.160623846271483
-0.24773541846889316
-0.9493313409652829
-0.1619435370070892
-0.24681300162169575
-0.9493313409652829
-0.1619435370070892
-0.24681300162169575
-0.9493313409652829
-0.1619435370070892
-0.24681300162169575
-0.9493313409652829
-0.1619435370070892
-0.24681300162169575
-0.9457834762312132
-0.161829365746161
-0.2437322789652157
-0.9457834762312132
-0.161829365746161
-0.2437322789652157
-0.9457834762312132
-0.161829365746161
-0.2437322789652157
-0.9457834762312132
-0.161829365746161
-0.2437322789652157
-0.9308959530055316
-0.15701587248462345
-0.24334614139224967
-0.9308959530055316
-0.15701587248462345
-0.24334614139224967
-0.9308959530055316
-0.15701587248462345
-0.24334614139224967
-0.9308959530055316
-0.15701587248462345
-0.24334614139224967
-0.9131819240261533
-0.15071618288493857
-0.2427131461443056
-0.9131819240261533
-0.15071618288493857
-0.2427131461443056
-0.9131819240261533
-0.15071618288493857
-0.2427131461443056
-0.9131819240261533
-0.15071618288493857
-0.2427131461443056
-0.9004481163475273
-0.1467501962725803
-0.24178154024695775
-0.9004481163475273
-0.1467501962725803
-0.24178154024695775
-0.9004481163475273
-0.1467501962725803
-0.24178154024695775
-0.9004481163475273
-0.1467501962725803
-0.24178154024695775
-0.8930088096900973
-0.14108441748565154
-0.23838953272382074
-0.8930088096900973
-0.14108441748565154
-0.23838953272382074
-0.8930088096900973
-0.14108441748565154
-0.23838953272382074
-0.8930088096900973
-0.14108441748565154
-0.23838953272382074
-0.8868682448301435
-0.13632210597566768
-0.23439746900436978
-0.8868682448301435
-0.13632210597566768
-0.23439746900436978
-0.8868682448301435
-0.13632210597566768
-0.23439746900436978
-0.8868682448301435
-0.13632210597566768
-0.23439746900436978
-0.8853425612983801
-0.13432775551612233
-0.23043433778872385
-0.8853425612983801
-0.13432775551612233
-0.23043433778872385
-0.8853425612983801
-0.13432775551612233
-0.23043433778872385
-0.8853425612983801
-0.13432775551612233
-0.23043433778872385
-0.8846033312283509
-0.13388883254320322
-0.22832920321425468
-0.8846033312283509
-0.13388883254320322
-0.22832920321425468
-0.8846033312283509
-0.13388883254320322
-0.22832920321425468
-0.8846033312283509
-0.13388883254320322
-0.22832920321425468
-0.8821752322513678
-0.1335156401118522
-0.22743805368323047
-0.8821752322513678
-0.1335156401118522
-0.22743805368323047
-0.8821752322513678
-0.1335156401118522
-0.22743805368323047
-0.8821752322513678
-0.1335156401118522
-0.22743805368323047
-0.8838144465811804
-0.13345948660627172
-0.2245591031100217
-0.8838144465811804
-0.13345948660627172
-0.2245591031100217
-0.8838144465811804
-0.13345948660627172
-0.2245591031100217
-0.8838144465811804
-0.13345948660627172
-0.2245591031100217
-0.8886581457830027
-0.1348597061054094
-0.2215066871495708
-0.8886581457830027
-0.1348597061054094
-0.2215066871495708
-0.8886581457830027
-0.1348597061054094
-0.2215066871495708
-0.8886581457830027
-0.1348597061054094
-0.2215066871495708
-0.893356935100361
-0.1383651685007637
-0.22033614062237264
-0.893356935100361
-0.1383651685007637
-0.22033614062237264
-0.893356935100361
-0.1383651685007637
-0.22033614062237264
-0.893356935100361
-0.1383651685007637
-0.22033614062237264
-0.8969570891316749
-0.1414568960809216
-0.22059283953732475
-0.8969570891316749
-0.1414568960809216
-0.22059283953732475
-0.8969570891316749
-0.1414568960809216
-0.22059283953732475
-0.8969570891316749
-0.1414568960809216
-0.22059283953732475
-0.9009814011919919
-0.14289448696821744
-0.21983699261860093
-0.9009814011919919
-0.14289448696821744
-0.21983699261860093
-0.9009814011919919
-0.14289448696821744
-0.21983699261860093
-0.9009814011919919
-0.14289448696821744
-0.21983699261860093
-0.9051953645118008
-0.14396764450085775
-0.21856188930883444
-0.9051953645118008
-0.14396764450085775
-0.21856188930883444
-0.9051953645118008
-0.14396764450085775
-0.21856188930883444
-0.9051953645118008
-0.14396764450085775
-0.21856188930883444
-0.912184480852938
-0.14632186952501533
-0.2165946283348577
-0.912184480852938
-0.14632186952501533
-0.2165946283348577
-0.912184480852938
-0.14632186952501533
-0.2165946283348577
-0.912184480852938
-0.14632186952501533
-0.2165946283348577
-0.915606844851523
-0.14845230854619038
-0.21631365325694918
-0.915606844851523
-0.14845230854619038
-0.21631365325694918
-0.915606844851523
-0.14845230854619038
-0.21631365325694918
-0.915606844851523
-0.14845230854619038
-0.21631365325694918
-0.9156884290676571
-0.14968192035399353
-0.21710621576144537
-0.9156884290676571
-0.14968192035399353
-0.21710621576144537
-0.9156884290676571
-0.14968192035399353
-0.21710621576144537
-0.9156884290676571
-0.14968192035399353
-0.21710621576144537
-0.9139009172070695
-0.14909874935441578
-0.2175569681374075
-0.9139009172070695
-0.14909874935441578
-0.2175569681374075
-0.9139009172070695
-0.14909874935441578
-0.2175569681374075
-0.9139009172070695
-0.14909874935441578
-0.2175569681374075
-0.9128281411133085
-0.148926070427764
-0.21669879454200347
-0.9128281411133085
-0.148926070427764
-0.21669879454200347
-0.9128281411133085
-0.148926070427764
-0.21669879454200347
-0.9128281411133085
-0.148926070427764
-0.21669879454200347
-0.9151459207009046
-0.1493396113190424
-0.21603267099193862
-0.9151459207009046
-0.1493396113190424
-0.21603267099193862
-0.9151459207009046
-0.1493396113190424
-0.21603267099193862
-0.9151459207009046
-0.1493396113190424
-0.21603267099193862
-0.9165410409529395
-0.14882942497413507
-0.21652423506630894
-0.9165410409529395
-0.14882942497413507
-0.21652423506630894
-0.9165410409529395
-0.14882942497413507
-0.21652423506630894
-0.9165410409529395
-0.14882942497413507
-0.21652423506630894
-0.9149767841765232
-0.14717484874380507
-0.21777346346648027
-0.9149767841765232
-0.14717484874380507
-0.21777346346648027
-0.9149767841765232
-0.14717484874380507
-0.21777346346648027
-0.9149767841765232
-0.14717484874380507
-0.21777346346648027
-0.9132574525505496
-0.14479545608351543
-0.21925570370958825
-0.9132574525505496
-0.14479545608351543
-0.21925570370958825
-0.9132574525505496
-0.14479545608351543
-0.21925570370958825
-0.9132574525505496
-0.14479545608351543
-0.21925570370958825
-0.9126455244431004
-0.14334706990913162
-0.21927153908816086
-0.9126455244431004
-0.14334706990913162
-0.21927153908816086
-0.9126455244431004
-0.14334706990913162
-0.21927153908816086
-0.9126455244431004
-0.14334706990913162
-0.21927153908816086
-0.9138124872966554
-0.14242716250497936
-0.21900637952453145
-0.9138124872966554
-0.14242716250497936
-0.21900637952453145
-0.9138124872966554
-0.14242716250497936
-0.21900637952453145
-0.9138124872966554
-0.14242716250497936
-0.21900637952453145
-0.9145434823371347
-0.1415139152145982
-0.21943205883219785
-0.9145434823371347
-0.1415139152145982
-0.21943205883219785
-0.9145434823371347
-0.1415139152145982
-0.21943205883219785
-0.9145434823371347
-0.1415139152145982
-0.21943205883219785
-0.9141130717021932
-0.1399276739460702
-0.22021365866856668
-0.9141130717021932
-0.1399276739460702
-0.22021365866856668
-0.9141130717021932
-0.1399276739460702
-0.22021365866856668
-0.9141130717021932
-0.1399276739460702
-0.22021365866856668
-0.914768540817851
-0.13857064661602064
-0.22086632472469542
-0.914768540817851
-0.13857064661602064
-0.22086632472469542
-0.914768540817851
-0.13857064661602064
-0.22086632472469542
-0.914768540817851
-0.13857064661602064
-0.22086632472469542
-0.9147666357086551
-0.1383488585581372
-0.22124580734985727
-0.9147666357086551
-0.1383488585581372
-0.22124580734985727
-0.9147666357086551
-0.1383488585581372
-0.22124580734985727
-0.9147666357086551
-0.1383488585581372
-0.22124580734985727
-0.9137029618068437
-0.1381811573183903
-0.2217655404580353
-0.9137029618068437
-0.1381811573183903
-0.2217655404580353
-0.9137029618068437
-0.1381811573183903
-0.2217655404580353
-0.9137029618068437
-0.1381811573183903
-0.2217655404580353
-0.9158349094680126
-0.13720866766501233
-0.22276061335756012
-0.9158349094680126
-0.13720866766501233
-0.22276061335756012
-0.9158349094680126
-0.13720866766501233
-0.22276061335756012
-0.9158349094680126
-0.13720866766501233
-0.22276061335756012
-0.9161422099497026
-0.13597342518858202
-0.22430963365796552
-0.9161422099497026
-0.13597342518858202
-0.22430963365796552
-0.9161422099497026
-0.13597342518858202
-0.22430963365796552
-0.9161422099497026
-0.13597342518858202
-0.22430963365796552
-0.9143156873288373
-0.13511667426486498
-0.2258666670993153
-0.9143156873288373
-0.13511667426486498
-0.2258666670993153
-0.9143156873288373
-0.13511667426486498
-0.2258666670993153
-0.9143156873288373
-0.13511667426486498
-0.2258666670993153
-0.9132774740804088
-0.13521369770431174
-0.2271942821928278
-0.9132774740804088
-0.13521369770431174
-0.2271942821928278
-0.9132774740804088
-0.13521369770431174
-0.2271942821928278
-0.9132774740804088
-0.13521369770431174
-0.2271942821928278
-0.9117897248732449
-0.1351606545198723
-0.22890222188291157
-0.9117897248732449
-0.1351606545198723
-0.22890222188291157
-0.9117897248732449
-0.1351606545198723
-0.22890222188291157
-0.9117897248732449
-0.1351606545198723
-0.22890222188291157
-0.9109596490111183
-0.13473158102274976
-0.2304894956942279
-0.9109596490111183
-0.13473158102274976
-0.2304894956942279
-0.9109596490111183
-0.13473158102274976
-0.2304894956942279
-0.9109596490111183
-0.13473158102274976
-0.2304894956942279
-0.9111809247878562
-0.1350298687060687
-0.2315766618667015
-0.9111809247878562
-0.1350298687060687
-0.2315766618667015
-0.9111809247878562
-0.1350298687060687
-0.2315766618667015
-0.9111809247878562
-0.1350298687060687
-0.2315766618667015
-0.9119115145160872
-0.13633106270175244
-0.23315145852335672
-0.9119115145160872
-0.13633106270175244
-0.23315145852335672
-0.9119115145160872
-0.13633106270175244
-0.23315145852335672
-0.9119115145160872
-0.13633106270175244
-0.23315145852335672
-0.9095890807732399
-0.13732400822197882
-0.2347574233768512
-0.9095890807732399
-0.13732400822197882
-0.2347574233768512
-0.9095890807732399
-0.13732400822197882
-0.2347574233768512
-0.9095890807732399
-0.13732400822197882
-0.2347574233768512
-0.9084388029209227
-0.13762695475017453
-0.2357217595350945
-0.9084388029209227
-0.13762695475017453
-0.2357217595350945
-0.9084388029209227
-0.13762695475017453
-0.2357217595350945
-0.9084388029209227
-0.13762695475017453
-0.2357217595350945
-0.9097122316165174
-0.13733778794749155
-0.23612695584914498
-0.9097122316165174
-0.13733778794749155
-0.23612695584914498
-0.9097122316165174
-0.13733778794749155
-0.23612695584914498
-0.9097122316165174
-0.13733778794749155
-0.23612695584914498
-0.9115177568748605
-0.13716602068230474
-0.23660561841929734
-0.9115177568748605
-0.13716602068230474
-0.23660561841929734
-0.9115177568748605
-0.13716602068230474
-0.23660561841929734
-0.9115177568748605
-0.13716602068230474
-0.23660561841929734
-0.9114712290576141
-0.13748874303260034
-0.236720066200848
-0.9114712290576141
-0.13748874303260034
-0.236720066200848
-0.9114712290576141
-0.13748874303260034
-0.236720066200848
-0.9114712290576141
-0.13748874303260034
-0.236720066200848
-0.9097976209396557
-0.13823344152860373
-0.23652863858532272
-0.9097976209396557
-0.13823344152860373
-0.23652863858532272
-0.9097976209396557
-0.13823344152860373
-0.23652863858532272
-0.9097976209396557
-0.13823344152860373
-0.23652863858532272
-0.9093153622472955
-0.13894631022450524
-0.235909862406537
-0.9093153622472955
-0.13894631022450524
-0.235909862406537
-0.9093153622472955
-0.13894631022450524
-0.235909862406537
-0.9093153622472955
-0.13894631022450524
-0.235909862406537
-0.909426029289074
-0.13940110782335957
-0.23513891871619463
-0.909426029289074
-0.13940110782335957
-0.23513891871619463
-0.909426029289074
-0.13940110782335957
-0.23513891871619463
-0.909426029289074
-0.13940110782335957
-0.23513891871619463
-0.90892062000385
-0.13912368366321456
-0.23418050189416806
-0.90892062000385
-0.13912368366321456
-0.23418050189416806
-0.90892062000385
-0.13912368366321456
-0.23418050189416806
-0.90892062000385
-0.13912368366321456
-0.23418050189416806
-0.9092140116330338
-0.13888092960825787
-0.2327735305513904
-0.9092140116330338
-0.13888092960825787
-0.2327735305513904
-0.9092140116330338
-0.13888092960825787
-0.2327735305513904
-0.9092140116330338
-0.13888092960825787
-0.2327735305513904
-0.9105106713245738
-0.13991197269923014
-0.231429090250207
-0.9105106713245738
-0.13991197269923014
-0.231429090250207
-0.9105106713245738
-0.13991197269923014
-0.231429090250207
-0.9105106713245738
-0.13991197269923014
-0.231429090250207
-0.91088131955629
-0.14111808454044023
-0.23044070196874528
-0.91088131955629
-0.14111808454044023
-0.23044070196874528
-0.91088131955629
-0.14111808454044023
-0.23044070196874528
-0.91088131955629
-0.14111808454044023
-0.23044070196874528
-0.9104020911250926
-0.14183202806072312
-0.2298218977905362
-0.9104020911250926
-0.14183202806072312
-0.2298218977905362
-0.9104020911250926
-0.14183202806072312
-0.2298218977905362
-0.9104020911250926
-0.14183202806072312
-0.2298218977905362
-0.9088039789449301
-0.14274836736099314
-0.2291220584998943
-0.9088039789449301
-0.14274836736099314
-0.2291220584998943
-0.9088039789449301
-0.14274836736099314
-0.2291220584998943
-0.9088039789449301
-0.14274836736099314
-0.2291220584998943
-0.9082275093812825
-0.14312284136253606
-0.22812122363174606
-0.9082275093812825
-0.14312284136253606
-0.22812122363174606
-0.9082275093812825
-0.14312284136253606
-0.22812122363174606
-0.9082275093812825
-0.14312284136253606
-0.22812122363174606
-0.9085715334524512
-0.14415435199652646
-0.22706678018139287
-0.9085715334524512
-0.14415435199652646
-0.22706678018139287
-0.9085715334524512
-0.14415435199652646
-0.22706678018139287
-0.9085715334524512
-0.14415435199652646
-0.22706678018139287
-0.9090032332416118
-0.14580104059794044
-0.22612611827759044
-0.9090032332416118
-0.14580104059794044
-0.22612611827759044
-0.9090032332416118
-0.14580104059794044
-0.22612611827759044
-0.9090032332416118
-0.14580104059794044
-0.22612611827759044
-0.9103774515898508
-0.14668081423693827
-0.22555593748283584
-0.9103774515898508
-0.14668081423693827
-0.22555593748283584
-0.9103774515898508
-0.14668081423693827
-0.22555593748283584
-0.9103774515898508
-0.14668081423693827
-0.22555593748283584
-0.9146058892095768
-0.1469326384785664
-0.2253495215104416
-0.9146058892095768
-0.1469326384785664
-0.2253495215104416
-0.9146058892095768
-0.1469326384785664
-0.2253495215104416
-0.9146058892095768
-0.1469326384785664
-0.2253495215104416
-0.9195239426207832
-0.14687800643935628
-0.22596642114297072
-0.9195239426207832
-0.14687800643935628
-0.22596642114297072
-0.9195239426207832
-0.14687800643935628
-0.22596642114297072
-0.9195239426207832
-0.14687800643935628
-0.22596642114297072
-0.920609145639051
-0.14568680546568744
-0.22654141347152704
-0.920609145639051
-0.14568680546568744
-0.22654141347152704
-0.920609145639051
-0.14568680546568744
-0.22654141347152704
-0.920609145639051
-0.14568680546568744
-0.22654141347152704
-0.9201764430321133
-0.1439850245037473
-0.22682647498138803
-0.9201764430321133
-0.1439850245037473
-0.22682647498138803
-0.9201764430321133
-0.1439850245037473
-0.22682647498138803
-0.9201764430321133
-0.1439850245037473
-0.22682647498138803
-0.9209191525687617
-0.14186884443473638
-0.22675377141629868
-0.9209191525687617
-0.14186884443473638
-0.22675377141629868
-0.9209191525687617
-0.14186884443473638
-0.22675377141629868
-0.9209191525687617
-0.14186884443473638
-0.22675377141629868
-0.9216011954152885
-0.1400681352785123
-0.22624043316631598
-0.9216011954152885
-0.1400681352785123
-0.22624043316631598
-0.9216011954152885
-0.1400681352785123
-0.22624043316631598
-0.9216011954152885
-0.1400681352785123
-0.22624043316631598
-0.9212032114504307
-0.1385372410486425
-0.2257619494433599
-0.9212032114504307
-0.1385372410486425
-0.2257619494433599
-0.9212032114504307
-0.1385372410486425
-0.2257619494433599
-0.9212032114504307
-0.1385372410486425
-0.2257619494433599
-0.9198857541323329
-0.13744938363774406
-0.22589137525550762
-0.9198857541323329
-0.13744938363774406
-0.22589137525550762
-0.9198857541323329
-0.13744938363774406
-0.22589137525550762
-0.9198857541323329
-0.13744938363774406
-0.22589137525550762
-0.9187144598771906
-0.13660131424056776
-0.2259078183423779
-0.9187144598771906
-0.13660131424056776
-0.2259078183423779
-0.9187144598771906
-0.13660131424056776
-0.2259078183423779
-0.9187144598771906
-0.13660131424056776
-0.2259078183423779
-0.9182488693933374
-0.13555617201819067
-0.22559638932389034
-0.9182488693933374
-0.13555617201819067
-0.22559638932389034
-0.9182488693933374
-0.13555617201819067
-0.22559638932389034
-0.9182488693933374
-0.13555617201819067
-0.22559638932389034
-0.9174702291067511
-0.13485999347721198
-0.2252529334533552
-0.9174702291067511
-0.13485999347721198
-0.2252529334533552
-0.9174702291067511
-0.13485999347721198
-0.2252529334533552
-0.9174702291067511
-0.13485999347721198
-0.2252529334533552
-0.9153079159027604
-0.1344526396233351
-0.22534213950293497
-0.9153079159027604
-0.1344526396233351
-0.22534213950293497
-0.9153079159027604
-0.1344526396233351
-0.22534213950293497
-0.9153079159027604
-0.1344526396233351
-0.22534213950293497
-0.9124324704665965
-0.13412711633753077
-0.2252553291021342
-0.9124324704665965
-0.13412711633753077
-0.2252553291021342
-0.9124324704665965
-0.13412711633753077
-0.2252553291021342
-0.9124324704665965
-0.13412711633753077
-0.2252553291021342
-0.9113495908604007
-0.13411739921448276
-0.22500174751655622
-0.9113495908604007
-0.13411739921448276
-0.22500174751655622
-0.9113495908604007
-0.13411739921448276
-0.22500174751655622
-0.9113495908604007
-0.13411739921448276
-0.22500174751655622
-0.9114465390771413
-0.13484634652066455
-0.22478964754391273
-0.9114465390771413
-0.13484634652066455
-0.22478964754391273
-0.9114465390771413
-0.13484634652066455
-0.22478964754391273
-0.9114465390771413
-0.13484634652066455
-0.22478964754391273
-0.9114377930036456
-0.1349554284808841
-0.224736729907886
-0.9114377930036456
-0.1349554284808841
-0.224736729907886
-0.9114377930036456
-0.1349554284808841
-0.224736729907886
-0.9114377930036456
-0.1349554284808841
-0.224736729907886
-0.910144430986369
-0.13547010356118686
-0.22588008814186336
-0.910144430986369
-0.13547010356118686
-0.22588008814186336
-0.910144430986369
-0.13547010356118686
-0.22588008814186336
-0.910144430986369
-0.13547010356118686
-0.22588008814186336
-0.9064063798068938
-0.1356518344767749
-0.22707841716295593
-0.9064063798068938
-0.1356518344767749
-0.22707841716295593
-0.9064063798068938
-0.1356518344767749
-0.22707841716295593
-0.9064063798068938
-0.1356518344767749
-0.22707841716295593
-0.9048616561346666
-0.1361932868375945
-0.22780609149472175
-0.9048616561346666
-0.1361932868375945
-0.22780609149472175
-0.9048616561346666
-0.1361932868375945
-0.22780609149472175
-0.9048616561346666
-0.1361932868375945
-0.22780609149472175
-0.9053018652079894
-0.13717462757642093
-0.2285605179876629
-0.9053018652079894
-0.13717462757642093
-0.2285605179876629
-0.9053018652079894
-0.13717462757642093
-0.2285605179876629
-0.9053018652079894
-0.13717462757642093
-0.2285605179876629
-0.9048808592890173
-0.13821823411415035
-0.2297010429407851
-0.9048808592890173
-0.13821823411415035
-0.2297010429407851
-0.9048808592890173
-0.13821823411415035
-0.2297010429407851
-0.9048808592890173
-0.13821823411415035
-0.2297010429407851
-0.9027617972362326
-0.13885245144048824
-0.23135474900782343
-0.9027617972362326
-0.13885245144048824
-0.23135474900782343
-0.9027617972362326
-0.13885245144048824
-0.23135474900782343
-0.9027617972362326
-0.13885245144048824
-0.23135474900782343
-0.8994497981421267
-0.1387384574351104
-0.23241155761852653
-0.8994497981421267
-0.1387384574351104
-0.23241155761852653
-0.8994497981421267
-0.1387384574351104
-0.23241155761852653
-0.8994497981421267
-0.1387384574351104
-0.23241155761852653
-0.8994556118437844
-0.138624934706041
-0.23329199450339203
-0.8994556118437844
-0.138624934706041
-0.23329199450339203
-0.8994556118437844
-0.138624934706041
-0.23329199450339203
-0.8994556118437844
-0.138624934706041
-0.23329199450339203
-0.8997299050367369
-0.1384858442681398
-0.23431653555744617
-0.8997299050367369
-0.1384858442681398
-0.23431653555744617
-0.8997299050367369
-0.1384858442681398
-0.23431653555744617
-0.8997299050367369
-0.1384858442681398
-0.23431653555744617
-0.8993159202697785
-0.13809433477281607
-0.23615258199510075
-0.8993159202697785
-0.13809433477281607
-0.23615258199510075
-0.8993159202697785
-0.13809433477281607
-0.23615258199510075
-0.8993159202697785
-0.13809433477281607
-0.23615258199510075
-0.898524660261104
-0.1379958342275406
-0.23814666573326085
-0.898524660261104
-0.1379958342275406
-0.23814666573326085
-0.898524660261104
-0.1379958342275406
-0.23814666573326085
-0.898524660261104
-0.1379958342275406
-0.23814666573326085
-0.8982223365505824
-0.13761195335062082
-0.23996824859251967
-0.8982223365505824
-0.13761195335062082
-0.23996824859251967
-0.8982223365505824
-0.13761195335062082
-0.23996824859251967
-0.8982223365505824
-0.13761195335062082
-0.23996824859251967
-0.898662267138984
-0.13704698492869627
-0.241742444429505
-0.898662267138984
-0.13704698492869627
-0.241742444429505
-0.898662267138984
-0.13704698492869627
-0.241742444429505
-0.898662267138984
-0.13704698492869627
-0.241742444429505
-0.898354724119511
-0.13612486508553445
-0.24301943391417194
-0.898354724119511
-0.13612486508553445
-0.24301943391417194
-0.898354724119511
-0.13612486508553445
-0.24301943391417194
-0.898354724119511
-0.13612486508553445
-0.24301943391417194
-0.8984410050819602
-0.13485830354609626
-0.2440273679143116
-0.8984410050819602
-0.13485830354609626
-0.2440273679143116
-0.8984410050819602
-0.13485830354609626
-0.2440273679143116
-0.8984410050819602
-0.13485830354609626
-0.2440273679143116
-0.8997160341732696
-0.13457232535653363
-0.2444327848799309
-0.8997160341732696
-0.13457232535653363
-0.2444327848799309
-0.8997160341732696
-0.13457232535653363
-0.2444327848799309
-0.8997160341732696
-0.13457232535653363
-0.2444327848799309
-0.900162315218957
-0.1355036609593285
-0.24508048783759062
-0.900162315218957
-0.1355036609593285
-0.24508048783759062
-0.900162315218957
-0.1355036609593285
-0.24508048783759062
-0.900162315218957
-0.1355036609593285
-0.24508048783759062
-0.8998477283886309
-0.13590323249820443
-0.24571813873161336
-0.8998477283886309
-0.13590323249820443
-0.24571813873161336
-0.8998477283886309
-0.13590323249820443
-0.24571813873161336
-0.8998477283886309
-0.13590323249820443
-0.24571813873161336
-0.8985040528043607
-0.13579436088360275
-0.24620157267113632
-0.8985040528043607
-0.13579436088360275
-0.24620157267113632
-0.8985040528043607
-0.13579436088360275
-0.24620157267113632
-0.8985040528043607
-0.13579436088360275
-0.24620157267113632
-0.8972927799902869
-0.13520341593083568
-0.24565758589940678
-0.8972927799902869
-0.13520341593083568
-0.24565758589940678
-0.8972927799902869
-0.13520341593083568
-0.24565758589940678
-0.8972927799902869
-0.13520341593083568
-0.24565758589940678
-0.8977752605387841
-0.1343833905210724
-0.24494102443091303
-0.8977752605387841
-0.1343833905210724
-0.24494102443091303
-0.8977752605387841
-0.1343833905210724
-0.24494102443091303
-0.8977752605387841
-0.1343833905210724
-0.24494102443091303
-0.8985263887533785
-0.13381663687501666
-0.24465838130847697
-0.8985263887533785
-0.13381663687501666
-0.24465838130847697
-0.8985263887533785
-0.13381663687501666
-0.24465838130847697
-0.8985263887533785
-0.13381663687501666
-0.24465838130847697
-0.8985502178157222
-0.13365570613003708
-0.244600143263959
-0.8985502178157222
-0.13365570613003708
-0.244600143263959
-0.8985502178157222
-0.13365570613003708
-0.244600143263959
-0.8985502178157222
-0.13365570613003708
-0.244600143263959
-0.8983978052516921
-0.1335227689649694
-0.24465610932228216
-0.8983978052516921
-0.1335227689649694
-0.24465610932228216
-0.8983978052516921
-0.1335227689649694
-0.24465610932228216
-0.8983978052516921
-0.1335227689649694
-0.24465610932228216
-0.9001797949911381
-0.13374525651962219
-0.24399018501447362
-0.9001797949911381
-0.13374525651962219
-0.24399018501447362
-0.9001797949911381
-0.13374525651962219
-0.24399018501447362
-0.9001797949911381
-0.13374525651962219
-0.24399018501447362
-0.9015742406254743
-0.13358771899865088
-0.2432297191574236
-0.9015742406254743
-0.13358771899865088
-0.2432297191574236
-0.9015742406254743
-0.13358771899865088
-0.2432297191574236
-0.9015742406254743
-0.13358771899865088
-0.2432297191574236
-0.9027410425393338
-0.13279248121415949
-0.24291139771463457
-0.9027410425393338
-0.13279248121415949
-0.24291139771463457
-0.9027410425393338
-0.13279248121415949
-0.24291139771463457
-0.9027410425393338
-0.13279248121415949
-0.24291139771463457
-0.9026642620539744
-0.1308016135629989
-0.2427700777608648
-0.9026642620539744
-0.1308016135629989
-0.2427700777608648
-0.9026642620539744
-0.1308016135629989
-0.2427700777608648
-0.9026642620539744
-0.1308016135629989
-0.2427700777608648
-0.9035443401733045
-0.12710029154610727
-0.24384992225444813
-0.9035443401733045
-0.12710029154610727
-0.24384992225444813
-0.9035443401733045
-0.12710029154610727
-0.24384992225444813
-0.9035443401733045
-0.12710029154610727
-0.24384992225444813
-0.9032754582279844
-0.12104581087848053
-0.24688883167257622
-0.9032754582279844
-0.12104581087848053
-0.24688883167257622
-0.9032754582279844
-0.12104581087848053
-0.24688883167257622
-0.9032754582279844
-0.12104581087848053
-0.24688883167257622
-0.9022907694379583
-0.11287776569429282
-0.24723335945572517
-0.9022907694379583
-0.11287776569429282
-0.24723335945572517
-0.9022907694379583
-0.11287776569429282
-0.24723335945572517
-0.9022907694379583
-0.11287776569429282
-0.24723335945572517
-0.9113966119153885
-0.10557808019487337
-0.24544746623511682
-0.9113966119153885
-0.10557808019487337
-0.24544746623511682
-0.9113966119153885
-0.10557808019487337
-0.24544746623511682
-0.9113966119153885
-0.10557808019487337
-0.24544746623511682
-0.9241243224164393
-0.09914877858815124
-0.24361299908312095
-0.9241243224164393
-0.09914877858815124
-0.24361299908312095
-0.9241243224164393
-0.09914877858815124
-0.24361299908312095
-0.9241243224164393
-0.09914877858815124
-0.24361299908312095
-0.9310681380638028
-0.09299385682301287
-0.2419250718914037
-0.9310681380638028
-0.09299385682301287
-0.2419250718914037
-0.9310681380638028
-0.09299385682301287
-0.2419250718914037
-0.9310681380638028
-0.09299385682301287
-0.2419250718914037
-0.9312967994053925
-0.08613698277019544
-0.24188199067657212
-0.9312967994053925
-0.08613698277019544
-0.24188199067657212
-0.9312967994053925
-0.08613698277019544
-0.24188199067657212
-0.9312967994053925
-0.08613698277019544
-0.24188199067657212
-0.9326136079775518
-0.0776032711662054
-0.24176075698580676
-0.9326136079775518
-0.0776032711662054
-0.24176075698580676
-0.9326136079775518
-0.0776032711662054
-0.24176075698580676
-0.9326136079775518
-0.0776032711662054
-0.24176075698580676
-0.9378908776857234
-0.07048205762336286
-0.24145224109525223
-0.9378908776857234
-0.07048205762336286
-0.24145224109525223
-0.9378908776857234
-0.07048205762336286
-0.24145224109525223
-0.9378908776857234
-0.07048205762336286
-0.24145224109525223
-0.9492664409440684
-0.06699527643142168
-0.23965323199375999
-0.9492664409440684
-0.06699527643142168
-0.23965323199375999
-0.9492664409440684
-0.06699527643142168
-0.23965323199375999
-0.9492664409440684
-0.06699527643142168
-0.23965323199375999
-0.9598464209640792
-0.06637180095316052
-0.23806134520168773
-0.9598464209640792
-0.06637180095316052
-0.23806134520168773
-0.9598464209640792
-0.06637180095316052
-0.23806134520168773
-0.9598464209640792
-0.06637180095316052
-0.23806134520168773
-0.9650138625168813
-0.06697995489838006
-0.23760705154718478
-0.9650138625168813
-0.06697995489838006
-0.23760705154718478
-0.9650138625168813
-0.06697995489838006
-0.23760705154718478
-0.9650138625168813
-0.06697995489838006
-0.23760705154718478
-0.9646446992944001
-0.06735973976374103
-0.23921796768915438
-0.9646446992944001
-0.06735973976374103
-0.23921796768915438
-0.9646446992944001
-0.06735973976374103
-0.23921796768915438
-0.9646446992944001
-0.06735973976374103
-0.23921796768915438
-0.9678602618349218
-0.06752219964030814
-0.2413086403331565
-0.9678602618349218
-0.06752219964030814
-0.2413086403331565
-0.9678602618349218
-0.06752219964030814
-0.2413086403331565
-0.9678602618349218
-0.06752219964030814
-0.2413086403331565
-0.9767393580258577
-0.06945304321338339
-0.2420918852649973
-0.9767393580258577
-0.06945304321338339
-0.2420918852649973
-0.9767393580258577
-0.06945304321338339
-0.2420918852649973
-0.9767393580258577
-0.06945304321338339
-0.2420918852649973
-0.9834518369838481
-0.07200937350712161
-0.2412165480189468
-0.9834518369838481
-0.07200937350712161
-0.2412165480189468
-0.9834518369838481
-0.07200937350712161
-0.2412165480189468
-0.9834518369838481
-0.07200937350712161
-0.2412165480189468
-0.9862989120216012
-0.07523244234834403
-0.23999454810539203
-0.9862989120216012
-0.07523244234834403
-0.23999454810539203
-0.9862989120216012
-0.07523244234834403
-0.23999454810539203
-0.9862989120216012
-0.07523244234834403
-0.23999454810539203
-0.9851664483122858
-0.08000851081959004
-0.24036585050732334
-0.9851664483122858
-0.08000851081959004
-0.24036585050732334
-0.9851664483122858
-0.08000851081959004
-0.24036585050732334
-0.9851664483122858
-0.08000851081959004
-0.24036585050732334
-0.9816558924207275
-0.08412589082704723
-0.2414384664012911
-0.9816558924207275
-0.08412589082704723
-0.2414384664012911
-0.9816558924207275
-0.08412589082704723
-0.2414384664012911
-0.9816558924207275
-0.08412589082704723
-0.2414384664012911
-0.97561051575649
-0.08644663053978417
-0.2424639941074439
-0.97561051575649
-0.08644663053978417
-0.2424639941074439
-0.97561051575649
-0.08644663053978417
-0.2424639941074439
-0.97561051575649
-0.08644663053978417
-0.2424639941074439
-0.973411548013252
-0.08757009429733087
-0.243082371060766
-0.973411548013252
-0.08757009429733087
-0.243082371060766
-0.973411548013252
-0.08757009429733087
-0.243082371060766
-0.973411548013252
-0.08757009429733087
-0.243082371060766
-0.9751728105953766
-0.0880595442367426
-0.2430001025255394
-0.9751728105953766
-0.0880595442367426
-0.2430001025255394
-0.9751728105953766
-0.0880595442367426
-0.2430001025255394
-0.9751728105953766
-0.0880595442367426
-0.2430001025255394
-0.9769637731965428
-0.08852005828939416
-0.24363501963990822
-0.9769637731965428
-0.08852005828939416
-0.24363501963990822
-0.9769637731965428
-0.08852005828939416
-0.24363501963990822
-0.9769637731965428
-0.08852005828939416
-0.24363501963990822
-0.9776016953070651
-0.08939130195668393
-0.2443101731919754
-0.9776016953070651
-0.08939130195668393
-0.2443101731919754
-0.9776016953070651
-0.08939130195668393
-0.2443101731919754
-0.9776016953070651
-0.08939130195668393
-0.2443101731919754
-0.9769921979389374
-0.08986669309974639
-0.2443256113104404
-0.9769921979389374
-0.08986669309974639
-0.2443256113104404
-0.9769921979389374
-0.08986669309974639
-0.2443256113104404
-0.9769921979389374
-0.08986669309974639
-0.2443256113104404
-0.9755136335438928
-0.09033371046660844
-0.24404191664194597
-0.9755136335438928
-0.09033371046660844
-0.24404191664194597
-0.9755136335438928
-0.09033371046660844
-0.24404191664194597
-0.9755136335438928
-0.09033371046660844
-0.24404191664194597
-0.975309857097146
-0.09084259438828651
-0.24348968033741197
-0.975309857097146
-0.09084259438828651
-0.24348968033741197
-0.975309857097146
-0.09084259438828651
-0.24348968033741197
-0.975309857097146
-0.09084259438828651
-0.24348968033741197
-0.9753494220097941
-0.09180833148467256
-0.2424271135755027
-0.9753494220097941
-0.09180833148467256
-0.2424271135755027
-0.9753494220097941
-0.09180833148467256
-0.2424271135755027
-0.9753494220097941
-0.09180833148467256
-0.2424271135755027
-0.9752569840195248
-0.09282479927721779
-0.24175582265373158
-0.9752569840195248
-0.09282479927721779
-0.24175582265373158
-0.9752569840195248
-0.09282479927721779
-0.24175582265373158
-0.9752569840195248
-0.09282479927721779
-0.24175582265373158
-0.9751723831056489
-0.09363176479876444
-0.24146908093101774
-0.9751723831056489
-0.09363176479876444
-0.24146908093101774
-0.9751723831056489
-0.09363176479876444
-0.24146908093101774
-0.9751723831056489
-0.09363176479876444
-0.24146908093101774
-0.9736108821018078
-0.09397869835975285
-0.24098494700571135
-0.9736108821018078
-0.09397869835975285
-0.24098494700571135
-0.9736108821018078
-0.09397869835975285
-0.24098494700571135
-0.9736108821018078
-0.09397869835975285
-0.24098494700571135
-0.9728652376903213
-0.09402911893289136
-0.24023930259422477
-0.9728652376903213
-0.09402911893289136
-0.24023930259422477
-0.9728652376903213
-0.09402911893289136
-0.24023930259422477
-0.9728652376903213
-0.09402911893289136
-0.24023930259422477
-0.9736500151542734
-0.09405359274457319
-0.23980872556887559
-0.9736500151542734
-0.09405359274457319
-0.23980872556887559
-0.9736500151542734
-0.09405359274457319
-0.23980872556887559
-0.9736500151542734
-0.09405359274457319
-0.23980872556887559
-0.9750569292572392
-0.09399068484407867
-0.23930984923421147
-0.9750569292572392
-0.09399068484407867
-0.23930984923421147
-0.9750569292572392
-0.09399068484407867
-0.23930984923421147
-0.9750569292572392
-0.09399068484407867
-0.23930984923421147
-0.9748295075559137
-0.09402639292151035
-0.23944141537275865
-0.9748295075559137
-0.09402639292151035
-0.23944141537275865
-0.9748295075559137
-0.09402639292151035
-0.23944141537275865
-0.9748295075559137
-0.09402639292151035
-0.23944141537275865
-0.9731301034917075
-0.09387696622101159
-0.23962019962131803
-0.9731301034917075
-0.09387696622101159
-0.23962019962131803
-0.9731301034917075
-0.09387696622101159
-0.23962019962131803
-0.9731301034917075
-0.09387696622101159
-0.23962019962131803
-0.9716526500085265
-0.09341825738639935
-0.23942190964278665
-0.9716526500085265
-0.09341825738639935
-0.23942190964278665
-0.9716526500085265
-0.09341825738639935
-0.23942190964278665
-0.9716526500085265
-0.09341825738639935
-0.23942190964278665
-0.9720232504952917
-0.09403542457077117
-0.23813595409409297
-0.9720232504952917
-0.09403542457077117
-0.23813595409409297
-0.9720232504952917
-0.09403542457077117
-0.23813595409409297
-0.9720232504952917
-0.09403542457077117
-0.23813595409409297
-0.9727525213061062
-0.09485747796189622
-0.23687574564041863
-0.9727525213061062
-0.09485747796189622
-0.23687574564041863
-0.9727525213061062
-0.09485747796189622
-0.23687574564041863
-0.9727525213061062
-0.09485747796189622
-0.23687574564041863
-0.9733250387927124
-0.09544682184319807
-0.23600125143332715
-0.9733250387927124
-0.09544682184319807
-0.23600125143332715
-0.9733250387927124
-0.09544682184319807
-0.23600125143332715
-0.9733250387927124
-0.09544682184319807
-0.23600125143332715
-0.9741246399947124
-0.0958593391634087
-0.23551911048998797
-0.9741246399947124
-0.0958593391634087
-0.23551911048998797
-0.9741246399947124
-0.0958593391634087
-0.23551911048998797
-0.9741246399947124
-0.0958593391634087
-0.23551911048998797
-0.9738671373581109
-0.09621751890079887
-0.23548179014659212
-0.9738671373581109
-0.09621751890079887
-0.23548179014659212
-0.9738671373581109
-0.09621751890079887
-0.23548179014659212
-0.9738671373581109
-0.09621751890079887
-0.23548179014659212
-0.971303136728605
-0.09656452894172692
-0.2352589758931763
-0.971303136728605
-0.09656452894172692
-0.2352589758931763
-0.971303136728605
-0.09656452894172692
-0.2352589758931763
-0.971303136728605
-0.09656452894172692
-0.2352589758931763
-0.9691847647960603
-0.09646391081741724
-0.2348555357774626
-0.9691847647960603
-0.09646391081741724
-0.2348555357774626
-0.9691847647960603
-0.09646391081741724
-0.2348555357774626
-0.9691847647960603
-0.09646391081741724
-0.2348555357774626
-0.9683070746933577
-0.09696212542910702
-0.23472482488698515
-0.9683070746933577
-0.09696212542910702
-0.23472482488698515
-0.9683070746933577
-0.09696212542910702
-0.23472482488698515
-0.9683070746933577
-0.09696212542910702
-0.23472482488698515
-0.9682852212622444
-0.09712536635287751
-0.2347768163165062
-0.9682852212622444
-0.09712536635287751
-0.2347768163165062
-0.9682852212622444
-0.09712536635287751
-0.2347768163165062
-0.9682852212622444
-0.09712536635287751
-0.2347768163165062
-0.9682852212622444
-0.09712536635287751
-0.2347768163165062
-0.9682852212622444
-0.09712536635287751
-0.2347768163165062
-0.9682852212622444
-0.09712536635287751
-0.2347768163165062
-0.9682852212622444
-0.09712536635287751
-0.2347768163165062
-0.9690112132467967
-0.09694378148149924
-0.23502319646849107
-0.9690112132467967
-0.09694378148149924
-0.23502319646849107
-0.9690112132467967
-0.09694378148149924
-0.23502319646849107
-0.9690112132467967
-0.09694378148149924
-0.23502319646849107
-0.9695625808356191
-0.09681949642808982
-0.23411759804323426
-0.9695625808356191
-0.09681949642808982
-0.23411759804323426
-0.9695625808356191
-0.09681949642808982
-0.23411759804323426
-0.9695625808356191
-0.09681949642808982
-0.23411759804323426
-0.9706463291048026
-0.0971786547927169
-0.23241570847394807
-0.9706463291048026
-0.0971786547927169
-0.23241570847394807
-0.9706463291048026
-0.0971786547927169
-0.23241570847394807
-0.9706463291048026
-0.0971786547927169
-0.23241570847394807
-0.9712126201215707
-0.09826936004194751
-0.23170620996329822
-0.9712126201215707
-0.09826936004194751
-0.23170620996329822
-0.9712126201215707
-0.09826936004194751
-0.23170620996329822
-0.9712126201215707
-0.09826936004194751
-0.23170620996329822
-0.970578807035914
-0.09912237199516533
-0.23139309439903294
-0.970578807035914
-0.09912237199516533
-0.23139309439903294
-0.970578807035914
-0.09912237199516533
-0.23139309439903294
-0.970578807035914
-0.09912237199516533
-0.23139309439903294
-0.9691311051252011
-0.09993387386175338
-0.23095920907446216
-0.9691311051252011
-0.09993387386175338
-0.23095920907446216
-0.9691311051252011
-0.09993387386175338
-0.23095920907446216
-0.9691311051252011
-0.09993387386175338
-0.23095920907446216
-0.9659297444862157
-0.10103721847410013
-0.23075948425050985
-0.9659297444862157
-0.10103721847410013
-0.23075948425050985
-0.9659297444862157
-0.10103721847410013
-0.23075948425050985
-0.9659297444862157
-0.10103721847410013
-0.23075948425050985
-0.9608855650818481
-0.10169899006992354
-0.2299590367702481
-0.9608855650818481
-0.10169899006992354
-0.2299590367702481
-0.9608855650818481
-0.10169899006992354
-0.2299590367702481
-0.9608855650818481
-0.10169899006992354
-0.2299590367702481
-0.9594110904704563
-0.10519733756039149
-0.22938038943114966
-0.9594110904704563
-0.10519733756039149
-0.22938038943114966
-0.9594110904704563
-0.10519733756039149
-0.22938038943114966
-0.9594110904704563
-0.10519733756039149
-0.22938038943114966
-0.9660370402254166
-0.11224088756983744
-0.22939220135309174
-0.9660370402254166
-0.11224088756983744
-0.22939220135309174
-0.9660370402254166
-0.11224088756983744
-0.22939220135309174
-0.9660370402254166
-0.11224088756983744
-0.22939220135309174
-0.9743622353098345
-0.11826093848221077
-0.22879728993301654
-0.9743622353098345
-0.11826093848221077
-0.22879728993301654
-0.9743622353098345
-0.11826093848221077
-0.22879728993301654
-0.9743622353098345
-0.11826093848221077
-0.22879728993301654
-0.9681734443895006
-0.12053971365498843
-0.22564958944245828
-0.9681734443895006
-0.12053971365498843
-0.22564958944245828
-0.9681734443895006
-0.12053971365498843
-0.22564958944245828
-0.9681734443895006
-0.12053971365498843
-0.22564958944245828
-0.9503985052431746
-0.12111919498727608
-0.22717367359765622
-0.9503985052431746
-0.12111919498727608
-0.22717367359765622
-0.9503985052431746
-0.12111919498727608
-0.22717367359765622
-0.9503985052431746
-0.12111919498727608
-0.22717367359765622
-0.9372449837693687
-0.12284594183366133
-0.2302280154764125
-0.9372449837693687
-0.12284594183366133
-0.2302280154764125
-0.9372449837693687
-0.12284594183366133
-0.2302280154764125
-0.9372449837693687
-0.12284594183366133
-0.2302280154764125
-0.9330055524949957
-0.1253787812047948
-0.22994442634251788
-0.9330055524949957
-0.1253787812047948
-0.22994442634251788
-0.9330055524949957
-0.1253787812047948
-0.22994442634251788
-0.9330055524949957
-0.1253787812047948
-0.22994442634251788
-0.9339078674397573
-0.12655062442947135
-0.22659204308080882
-0.9339078674397573
-0.12655062442947135
-0.22659204308080882
-0.9339078674397573
-0.12655062442947135
-0.22659204308080882
-0.9339078674397573
-0.12655062442947135
-0.22659204308080882
-0.9384904733846806
-0.12769913022166834
-0.22431381575929094
-0.9384904733846806
-0.12769913022166834
-0.22431381575929094
-0.9384904733846806
-0.12769913022166834
-0.22431381575929094
-0.9384904733846806
-0.12769913022166834
-0.22431381575929094
-0.9419915784830012
-0.12901401826578993
-0.22321050227150974
-0.9419915784830012
-0.12901401826578993
-0.22321050227150974
-0.9419915784830012
-0.12901401826578993
-0.22321050227150974
-0.9419915784830012
-0.12901401826578993
-0.22321050227150974
-0.9349272761686259
-0.12943995165783956
-0.2236169696940162
-0.9349272761686259
-0.12943995165783956
-0.2236169696940162
-0.9349272761686259
-0.12943995165783956
-0.2236169696940162
-0.9349272761686259
-0.12943995165783956
-0.2236169696940162
-0.9260397608766773
-0.13129764855222317
-0.22331818603157566
-0.9260397608766773
-0.13129764855222317
-0.22331818603157566
-0.9260397608766773
-0.13129764855222317
-0.22331818603157566
-0.9260397608766773
-0.13129764855222317
-0.22331818603157566
-0.9189011633787963
-0.13319785712674997
-0.2223335148210881
-0.9189011633787963
-0.13319785712674997
-0.2223335148210881
-0.9189011633787963
-0.13319785712674997
-0.2223335148210881
-0.9189011633787963
-0.13319785712674997
-0.2223335148210881
-0.9197017193333162
-0.13388798804597093
-0.2207480030552229
-0.9197017193333162
-0.13388798804597093
-0.2207480030552229
-0.9197017193333162
-0.13388798804597093
-0.2207480030552229
-0.9197017193333162
-0.13388798804597093
-0.2207480030552229
-0.9242132382109494
-0.13410015974543482
-0.2196120809029175
-0.9242132382109494
-0.13410015974543482
-0.2196120809029175
-0.9242132382109494
-0.13410015974543482
-0.2196120809029175
-0.9242132382109494
-0.13410015974543482
-0.2196120809029175
-0.9274481326200599
-0.137040039248487
-0.21908625895770809
-0.9274481326200599
-0.137040039248487
-0.21908625895770809
-0.9274481326200599
-0.137040039248487
-0.21908625895770809
-0.9274481326200599
-0.137040039248487
-0.21908625895770809
-0.9257903757488211
-0.1409293780618813
-0.21857410914444322
-0.9257903757488211
-0.1409293780618813
-0.21857410914444322
-0.9257903757488211
-0.1409293780618813
-0.21857410914444322
-0.9257903757488211
-0.1409293780618813
-0.21857410914444322
-0.9244580819190912
-0.14409412177611144
-0.21925254295051547
-0.9244580819190912
-0.14409412177611144
-0.21925254295051547
-0.9244580819190912
-0.14409412177611144
-0.21925254295051547
-0.9244580819190912
-0.14409412177611144
-0.21925254295051547
-0.9268290062866247
-0.14529925662686835
-0.22041145120358427
-0.9268290062866247
-0.14529925662686835
-0.22041145120358427
-0.9268290062866247
-0.14529925662686835
-0.22041145120358427
-0.9268290062866247
-0.14529925662686835
-0.22041145120358427
-0.9288552948842521
-0.14541610392860843
-0.22114036662927683
-0.9288552948842521
-0.14541610392860843
-0.22114036662927683
-0.9288552948842521
-0.14541610392860843
-0.22114036662927683
-0.9288552948842521
-0.14541610392860843
-0.22114036662927683
-0.9296942871293434
-0.1451886543634439
-0.22207083349696993
-0.9296942871293434
-0.1451886543634439
-0.22207083349696993
-0.9296942871293434
-0.1451886543634439
-0.22207083349696993
-0.9296942871293434
-0.1451886543634439
-0.22207083349696993
-0.9299809207611973
-0.14649345188280435
-0.22293683243378243
-0.9299809207611973
-0.14649345188280435
-0.22293683243378243
-0.9299809207611973
-0.14649345188280435
-0.22293683243378243
-0.9299809207611973
-0.14649345188280435
-0.22293683243378243
-0.9293669370721098
-0.1474286710639002
-0.22387569357893522
-0.9293669370721098
-0.1474286710639002
-0.22387569357893522
-0.9293669370721098
-0.1474286710639002
-0.22387569357893522
-0.9293669370721098
-0.1474286710639002
-0.22387569357893522
-0.9268831382239308
-0.14731681072264002
-0.22411349173485365
-0.9268831382239308
-0.14731681072264002
-0.22411349173485365
-0.9268831382239308
-0.14731681072264002
-0.22411349173485365
-0.9268831382239308
-0.14731681072264002
-0.22411349173485365
-0.9270884489877562
-0.1483806546182975
-0.22344566198962582
-0.9270884489877562
-0.1483806546182975
-0.22344566198962582
-0.9270884489877562
-0.1483806546182975
-0.22344566198962582
-0.9270884489877562
-0.1483806546182975
-0.22344566198962582
-0.9301427748959624
-0.15003745931336956
-0.22284154812727797
-0.9301427748959624
-0.15003745931336956
-0.22284154812727797
-0.9301427748959624
-0.15003745931336956
-0.22284154812727797
-0.9301427748959624
-0.15003745931336956
-0.22284154812727797
-0.9322676759012203
-0.1514949529393346
-0.2231922542345362
-0.9322676759012203
-0.1514949529393346
-0.2231922542345362
-0.9322676759012203
-0.1514949529393346
-0.2231922542345362
-0.9322676759012203
-0.1514949529393346
-0.2231922542345362
-0.9318464865154088
-0.152772911626493
-0.22394082144964444
-0.9318464865154088
-0.152772911626493
-0.22394082144964444
-0.9318464865154088
-0.152772911626493
-0.22394082144964444
-0.9318464865154088
-0.152772911626493
-0.22394082144964444
-0.9308591768736592
-0.15343367129872215
-0.22364046552134842
-0.9308591768736592
-0.15343367129872215
-0.22364046552134842
-0.9308591768736592
-0.15343367129872215
-0.22364046552134842
-0.9308591768736592
-0.15343367129872215
-0.22364046552134842
-0.931400006296994
-0.15343916442898514
-0.22376211080911962
-0.931400006296994
-0.15343916442898514
-0.22376211080911962
-0.931400006296994
-0.15343916442898514
-0.22376211080911962
-0.931400006296994
-0.15343916442898514
-0.22376211080911962
-0.9330331602847688
-0.1520829219064067
-0.22385198943994258
-0.9330331602847688
-0.1520829219064067
-0.22385198943994258
-0.9330331602847688
-0.1520829219064067
-0.22385198943994258
-0.9330331602847688
-0.1520829219064067
-0.22385198943994258
-0.9325527116852964
-0.15099057698757068
-0.22454433518253258
-0.9325527116852964
-0.15099057698757068
-0.22454433518253258
-0.9325527116852964
-0.15099057698757068
-0.22454433518253258
-0.9325527116852964
-0.15099057698757068
-0.22454433518253258
-0.9312864011228692
-0.15095493042146796
-0.22457964419985765
-0.9312864011228692
-0.15095493042146796
-0.22457964419985765
-0.9312864011228692
-0.15095493042146796
-0.22457964419985765
-0.9312864011228692
-0.15095493042146796
-0.22457964419985765
-0.9312864011228692
-0.15095493042146796
-0.22457964419985765
-0.9312864011228692
-0.15095493042146796
-0.22457964419985765
-0.9312864011228692
-0.15095493042146796
-0.22457964419985765
-0.9312864011228692
-0.15095493042146796
-0.22457964419985765
-0.9318869763641487
-0.15058341516175242
-0.22448068420190523
-0.9318869763641487
-0.15058341516175242
-0.22448068420190523
-0.9318869763641487
-0.15058341516175242
-0.22448068420190523
-0.9318869763641487
-0.15058341516175242
-0.22448068420190523
-0.9333183089559199
-0.15003110029185557
-0.22459198836881336
-0.9333183089559199
-0.15003110029185557
-0.22459198836881336
-0.9333183089559199
-0.15003110029185557
-0.22459198836881336
-0.9333183089559199
-0.15003110029185557
-0.22459198836881336
-0.9329303680935287
-0.14987286562909358
-0.22412584343356454
-0.9329303680935287
-0.14987286562909358
-0.22412584343356454
-0.9329303680935287
-0.14987286562909358
-0.22412584343356454
-0.9329303680935287
-0.14987286562909358
-0.22412584343356454
-0.9330182451580455
-0.15058845040975713
-0.2233494154080086
-0.9330182451580455
-0.15058845040975713
-0.2233494154080086
-0.9330182451580455
-0.15058845040975713
-0.2233494154080086
-0.9330182451580455
-0.15058845040975713
-0.2233494154080086
-0.9321605218941797
-0.15071301699548545
-0.22357702858748602
-0.9321605218941797
-0.15071301699548545
-0.22357702858748602
-0.9321605218941797
-0.15071301699548545
-0.22357702858748602
-0.9321605218941797
-0.15071301699548545
-0.22357702858748602
-0.9315363886907518
-0.1501107276478665
-0.22473188985451184
-0.9315363886907518
-0.1501107276478665
-0.22473188985451184
-0.9315363886907518
-0.1501107276478665
-0.22473188985451184
-0.9315363886907518
-0.1501107276478665
-0.22473188985451184
-0.929335150908287
-0.14985651339555064
-0.22434137746536204
-0.929335150908287
-0.14985651339555064
-0.22434137746536204
-0.929335150908287
-0.14985651339555064
-0.22434137746536204
-0.929335150908287
-0.14985651339555064
-0.22434137746536204
-0.9283634015631805
-0.15160175667978784
-0.2229322238384589
-0.9283634015631805
-0.15160175667978784
-0.2229322238384589
-0.9283634015631805
-0.15160175667978784
-0.2229322238384589
-0.9283634015631805
-0.15160175667978784
-0.2229322238384589
-0.9280404773960323
-0.1528339860686456
-0.2224787583349107
-0.9280404773960323
-0.1528339860686456
-0.2224787583349107
-0.9280404773960323
-0.1528339860686456
-0.2224787583349107
-0.9280404773960323
-0.1528339860686456
-0.2224787583349107
-0.9278102579891138
-0.1515868369544384
-0.22225475671264439
-0.9278102579891138
-0.1515868369544384
-0.22225475671264439
-0.9278102579891138
-0.1515868369544384
-0.22225475671264439
-0.9278102579891138
-0.1515868369544384
-0.22225475671264439
-0.9262845176162368
-0.15026811808015766
-0.22253317678253026
-0.9262845176162368
-0.15026811808015766
-0.22253317678253026
-0.9262845176162368
-0.15026811808015766
-0.22253317678253026
-0.9262845176162368
-0.15026811808015766
-0.22253317678253026
-0.9265922081117614
-0.14980104518165083
-0.2220624410466684
-0.9265922081117614
-0.14980104518165083
-0.2220624410466684
-0.9265922081117614
-0.14980104518165083
-0.2220624410466684
-0.9265922081117614
-0.14980104518165083
-0.2220624410466684
-0.9287416701969984
-0.15103191176960404
-0.22169473031750558
-0.9287416701969984
-0.15103191176960404
-0.22169473031750558
-0.9287416701969984
-0.15103191176960404
-0.22169473031750558
-0.9287416701969984
-0.15103191176960404
-0.22169473031750558
-0.9288114667979438
-0.1515829410520853
-0.22141091063079013
-0.9288114667979438
-0.1515829410520853
-0.22141091063079013
-0.9288114667979438
-0.1515829410520853
-0.22141091063079013
-0.9288114667979438
-0.1515829410520853
-0.22141091063079013
-0.9270811323488712
-0.15078616696099775
-0.22142734642465925
-0.9270811323488712
-0.15078616696099775
-0.22142734642465925
-0.9270811323488712
-0.15078616696099775
-0.22142734642465925
-0.9270811323488712
-0.15078616696099775
-0.22142734642465925
-0.9262468929964441
-0.14948540488425743
-0.22126598329034539
-0.9262468929964441
-0.14948540488425743
-0.22126598329034539
-0.9262468929964441
-0.14948540488425743
-0.22126598329034539
-0.9262468929964441
-0.14948540488425743
-0.22126598329034539
-0.9273159981329467
-0.14948508541510214
-0.22095620440188665
-0.9273159981329467
-0.14948508541510214
-0.22095620440188665
-0.9273159981329467
-0.14948508541510214
-0.22095620440188665
-0.9273159981329467
-0.14948508541510214
-0.22095620440188665
-0.9273079590108263
-0.1495937479861516
-0.2209023953489501
-0.9273079590108263
-0.1495937479861516
-0.2209023953489501
-0.9273079590108263
-0.1495937479861516
-0.2209023953489501
-0.9273079590108263
-0.1495937479861516
-0.2209023953489501
-0.926495725925689
-0.14929337949156216
-0.22190019070325018
-0.926495725925689
-0.14929337949156216
-0.22190019070325018
-0.926495725925689
-0.14929337949156216
-0.22190019070325018
-0.926495725925689
-0.14929337949156216
-0.22190019070325018
-0.9273517082614062
-0.14923155365926258
-0.22233798100879318
-0.9273517082614062
-0.14923155365926258
-0.22233798100879318
-0.9273517082614062
-0.14923155365926258
-0.22233798100879318
-0.9273517082614062
-0.14923155365926258
-0.22233798100879318
-0.9273517082614062
-0.14923155365926258
-0.22233798100879318
-0.9273517082614062
-0.14923155365926258
-0.22233798100879318
-0.9273517082614062
-0.14923155365926258
-0.22233798100879318
-0.9273517082614062
-0.14923155365926258
-0.22233798100879318
-0.9276803105553646
-0.14986623820935613
-0.22214399967366089
-0.9276803105553646
-0.14986623820935613
-0.22214399967366089
-0.9276803105553646
-0.14986623820935613
-0.22214399967366089
-0.9276803105553646
-0.14986623820935613
-0.22214399967366089
-0.9287594525368256
-0.15055004004559108
-0.22290291957459543
-0.9287594525368256
-0.15055004004559108
-0.22290291957459543
-0.9287594525368256
-0.15055004004559108
-0.22290291957459543
-0.9287594525368256
-0.15055004004559108
-0.22290291957459543
-0.9283569515177323
-0.14979818533391429
-0.2242455052366858
-0.9283569515177323
-0.14979818533391429
-0.2242455052366858
-0.9283569515177323
-0.14979818533391429
-0.2242455052366858
-0.9283569515177323
-0.14979818533391429
-0.2242455052366858
-0.9267100032028849
-0.14901185617712323
-0.2253480362804383
-0.9267100032028849
-0.14901185617712323
-0.2253480362804383
-0.9267100032028849
-0.14901185617712323
-0.2253480362804383
-0.9267100032028849
-0.14901185617712323
-0.2253480362804383
-0.9272842043075794
-0.1485830204971862
-0.2256859346938809
-0.9272842043075794
-0.1485830204971862
-0.2256859346938809
-0.9272842043075794
-0.1485830204971862
-0.2256859346938809
-0.9272842043075794
-0.1485830204971862
-0.2256859346938809
-0.9280806213762164
-0.1488998553055615
-0.22634598514878002
-0.9280806213762164
-0.1488998553055615
-0.22634598514878002
-0.9280806213762164
-0.1488998553055615
-0.22634598514878002
-0.9280806213762164
-0.1488998553055615
-0.22634598514878002
-0.9287945846528936
-0.14871917910040464
-0.22739927897756454
-0.9287945846528936
-0.14871917910040464
-0.22739927897756454
-0.9287945846528936
-0.14871917910040464
-0.22739927897756454
-0.9287945846528936
-0.14871917910040464
-0.22739927897756454
-0.9279732067821002
-0.14824306953894947
-0.22805889569362237
-0.9279732067821002
-0.14824306953894947
-0.22805889569362237
-0.9279732067821002
-0.14824306953894947
-0.22805889569362237
-0.9279732067821002
-0.14824306953894947
-0.22805889569362237
-0.9266256369078348
-0.1477066923421362
-0.2284850910956802
-0.9266256369078348
-0.1477066923421362
-0.2284850910956802
-0.9266256369078348
-0.1477066923421362
-0.2284850910956802
-0.9266256369078348
-0.1477066923421362
-0.2284850910956802
-0.9258166402742463
-0.14734062539254145
-0.22881658955599804
-0.9258166402742463
-0.14734062539254145
-0.22881658955599804
-0.9258166402742463
-0.14734062539254145
-0.22881658955599804
-0.9258166402742463
-0.14734062539254145
-0.22881658955599804
-0.92625332012743
-0.14701038652104872
-0.22938863232932727
-0.92625332012743
-0.14701038652104872
-0.22938863232932727
-0.92625332012743
-0.14701038652104872
-0.22938863232932727
-0.92625332012743
-0.14701038652104872
-0.22938863232932727
-0.9268422582968904
-0.1469758972805743
-0.22968407194777293
-0.9268422582968904
-0.1469758972805743
-0.22968407194777293
-0.9268422582968904
-0.1469758972805743
-0.22968407194777293
-0.9268422582968904
-0.1469758972805743
-0.22968407194777293
-0.9269664386782343
-0.14693124554191478
-0.22955989156642906
-0.9269664386782343
-0.14693124554191478
-0.22955989156642906
-0.9269664386782343
-0.14693124554191478
-0.22955989156642906
-0.9269664386782343
-0.14693124554191478
-0.22955989156642906
-0.9271765915552526
-0.14711959338539357
-0.23014259399482867
-0.9271765915552526
-0.14711959338539357
-0.23014259399482867
-0.9271765915552526
-0.14711959338539357
-0.23014259399482867
-0.9271765915552526
-0.14711959338539357
-0.23014259399482867
-0.9266692866834364
-0.14674057831049647
-0.23089932808236527
-0.9266692866834364
-0.14674057831049647
-0.23089932808236527
-0.9266692866834364
-0.14674057831049647
-0.23089932808236527
-0.9266692866834364
-0.14674057831049647
-0.23089932808236527
-0.9271643874643662
-0.14581472925603237
-0.23163041175033575
-0.9271643874643662
-0.14581472925603237
-0.23163041175033575
-0.9271643874643662
-0.14581472925603237
-0.23163041175033575
-0.9271643874643662
-0.14581472925603237
-0.23163041175033575
-0.9282607407373356
-0.14577654419574318
-0.231767838349945
-0.9282607407373356
-0.14577654419574318
-0.231767838349945
-0.9282607407373356
-0.14577654419574318
-0.231767838349945
-0.9282607407373356
-0.14577654419574318
-0.231767838349945
-0.9284492182811859
-0.14679311137649073
-0.23209237943787708
-0.9284492182811859
-0.14679311137649073
-0.23209237943787708
-0.9284492182811859
-0.14679311137649073
-0.23209237943787708
-0.9284492182811859
-0.14679311137649073
-0.23209237943787708
-0.9278592915048844
-0.14688962762681074
-0.23246194669002962
-0.9278592915048844
-0.14688962762681074
-0.23246194669002962
-0.9278592915048844
-0.14688962762681074
-0.23246194669002962
-0.9278592915048844
-0.14688962762681074
-0.23246194669002962
-0.9272107093682999
-0.14677195970489249
-0.23323553138734
-0.9272107093682999
-0.14677195970489249
-0.23323553138734
-0.9272107093682999
-0.14677195970489249
-0.23323553138734
-0.9272107093682999
-0.14677195970489249
-0.23323553138734
-0.9288777862777503
-0.14657289620794442
-0.23261108760692994
-0.9288777862777503
-0.14657289620794442
-0.23261108760692994
-0.9288777862777503
-0.14657289620794442
-0.23261108760692994
-0.9288777862777503
-0.14657289620794442
-0.23261108760692994
-0.9293720907030051
-0.14728741270151724
-0.23224783220248155
-0.9293720907030051
-0.14728741270151724
-0.23224783220248155
-0.9293720907030051
-0.14728741270151724
-0.23224783220248155
-0.9293720907030051
-0.14728741270151724
-0.23224783220248155
-0.9286518706510372
-0.14775651998320471
-0.23230699474236546
-0.9286518706510372
-0.14775651998320471
-0.23230699474236546
-0.9286518706510372
-0.14775651998320471
-0.23230699474236546
-0.9286518706510372
-0.14775651998320471
-0.23230699474236546
-0.9272736075825674
-0.14748782427555354
-0.23273522848421124
-0.9272736075825674
-0.14748782427555354
-0.23273522848421124
-0.9272736075825674
-0.14748782427555354
-0.23273522848421124
-0.9272736075825674
-0.14748782427555354
-0.23273522848421124
-0.9263788230095932
-0.14694974176723116
-0.23302492495531596
-0.9263788230095932
-0.14694974176723116
-0.23302492495531596
-0.9263788230095932
-0.14694974176723116
-0.23302492495531596
-0.9263788230095932
-0.14694974176723116
-0.23302492495531596
-0.927202845078422
-0.14681783653428693
-0.23251659206791617
-0.927202845078422
-0.14681783653428693
-0.23251659206791617
-0.927202845078422
-0.14681783653428693
-0.23251659206791617
-0.927202845078422
-0.14681783653428693
-0.23251659206791617
-0.9277320344750472
-0.14709819737082874
-0.23236887244712548
-0.9277320344750472
-0.14709819737082874
-0.23236887244712548
-0.9277320344750472
-0.14709819737082874
-0.23236887244712548
-0.9277320344750472
-0.14709819737082874
-0.23236887244712548
-0.9276283592485299
-0.14676144422979676
-0.23281788150710997
-0.9276283592485299
-0.14676144422979676
-0.23281788150710997
-0.9276283592485299
-0.14676144422979676
-0.23281788150710997
-0.9276283592485299
-0.14676144422979676
-0.23281788150710997
-0.9265069758015686
-0.14635727425469536
-0.23371566073756245
-0.9265069758015686
-0.14635727425469536
-0.23371566073756245
-0.9265069758015686
-0.14635727425469536
-0.23371566073756245
-0.9265069758015686
-0.14635727425469536
-0.23371566073756245
-0.9269686176175003
-0.145803891514928
-0.23356662055506167
-0.9269686176175003
-0.145803891514928
-0.23356662055506167
-0.9269686176175003
-0.145803891514928
-0.23356662055506167
-0.9269686176175003
-0.145803891514928
-0.23356662055506167
-0.9270223209883341
-0.14581813336731464
-0.2335754554043355
-0.9270223209883341
-0.14581813336731464
-0.2335754554043355
-0.9270223209883341
-0.14581813336731464
-0.2335754554043355
-0.9270223209883341
-0.14581813336731464
-0.2335754554043355
-0.9264502714445282
-0.14569670657652103
-0.2340521059741122
-0.9264502714445282
-0.14569670657652103
-0.2340521059741122
-0.9264502714445282
-0.14569670657652103
-0.2340521059741122
-0.9264502714445282
-0.14569670657652103
-0.2340521059741122
-0.9254016867480807
-0.1450261548871775
-0.2343998048875444
-0.9254016867480807
-0.1450261548871775
-0.2343998048875444
-0.9254016867480807
-0.1450261548871775
-0.2343998048875444
-0.9254016867480807
-0.1450261548871775
-0.2343998048875444
-0.9247185808323022
-0.14461335935704495
-0.2346055747370565
-0.9247185808323022
-0.14461335935704495
-0.2346055747370565
-0.9247185808323022
-0.14461335935704495
-0.2346055747370565
-0.9247185808323022
-0.14461335935704495
-0.2346055747370565
-0.9247185808323022
-0.14461335935704495
-0.2346055747370565
-0.9247185808323022
-0.14461335935704495
-0.2346055747370565
-0.9247185808323022
-0.14461335935704495
-0.2346055747370565
-0.9247185808323022
-0.14461335935704495
-0.2346055747370565
-0.9259927796332134
-0.14454660190538854
-0.2346283589968797
-0.9259927796332134
-0.14454660190538854
-0.2346283589968797
-0.9259927796332134
-0.14454660190538854
-0.2346283589968797
-0.9259927796332134
-0.14454660190538854
-0.2346283589968797
-0.9269346879087337
-0.14437831294817086
-0.2348255203584815
-0.9269346879087337
-0.14437831294817086
-0.2348255203584815
-0.9269346879087337
-0.14437831294817086
-0.2348255203584815
-0.9269346879087337
-0.14437831294817086
-0.2348255203584815
-0.9272187424258836
-0.14452113548510906
-0.23447883625302537
-0.9272187424258836
-0.14452113548510906
-0.23447883625302537
-0.9272187424258836
-0.14452113548510906
-0.23447883625302537
-0.9272187424258836
-0.14452113548510906
-0.23447883625302537
-0.9283587555962556
-0.14548044783717523
-0.23467400251087914
-0.9283587555962556
-0.14548044783717523
-0.23467400251087914
-0.9283587555962556
-0.14548044783717523
-0.23467400251087914
-0.9283587555962556
-0.14548044783717523
-0.23467400251087914
-0.9300333787283467
-0.14530101354718314
-0.23543478481227254
-0.9300333787283467
-0.14530101354718314
-0.23543478481227254
-0.9300333787283467
-0.14530101354718314
-0.23543478481227254
-0.9300333787283467
-0.14530101354718314
-0.23543478481227254
-0.9309154192054935
-0.14470119079993088
-0.2364173094867839
-0.9309154192054935
-0.14470119079993088
-0.2364173094867839
-0.9309154192054935
-0.14470119079993088
-0.2364173094867839
-0.9309154192054935
-0.14470119079993088
-0.2364173094867839
-0.9300720747043363
-0.1448304288096444
-0.2371977667550067
-0.9300720747043363
-0.1448304288096444
-0.2371977667550067
-0.9300720747043363
-0.1448304288096444
-0.2371977667550067
-0.9300720747043363
-0.1448304288096444
-0.2371977667550067
-0.9297464555978925
-0.14506656583408628
-0.2374928461427568
-0.9297464555978925
-0.14506656583408628
-0.2374928461427568
-0.9297464555978925
-0.14506656583408628
-0.2374928461427568
-0.9297464555978925
-0.14506656583408628
-0.2374928461427568
-0.9299738657799252
-0.1457050521538909
-0.23786889612570344
-0.9299738657799252
-0.1457050521538909
-0.23786889612570344
-0.9299738657799252
-0.1457050521538909
-0.23786889612570344
-0.9299738657799252
-0.1457050521538909
-0.23786889612570344
-0.9291772195042458
-0.14550980604175562
-0.2385380763581777
-0.9291772195042458
-0.14550980604175562
-0.2385380763581777
-0.9291772195042458
-0.14550980604175562
-0.2385380763581777
-0.9291772195042458
-0.14550980604175562
-0.2385380763581777
-0.9292008355550596
-0.14534803895876616
-0.23848216148793064
-0.9292008355550596
-0.14534803895876616
-0.23848216148793064
-0.9292008355550596
-0.14534803895876616
-0.23848216148793064
-0.9292008355550596
-0.14534803895876616
-0.23848216148793064
-0.9298822956292094
-0.1454790355506095
-0.2379910742369895
-0.9298822956292094
-0.1454790355506095
-0.2379910742369895
-0.9298822956292094
-0.1454790355506095
-0.2379910742369895
-0.9298822956292094
-0.1454790355506095
-0.2379910742369895
-0.9297332839557103
-0.14540245835063556
-0.23788682505465916
-0.9297332839557103
-0.14540245835063556
-0.23788682505465916
-0.9297332839557103
-0.14540245835063556
-0.23788682505465916
-0.9297332839557103
-0.14540245835063556
-0.23788682505465916
-0.9286843831192577
-0.14451121452780105
-0.2386160057965087
-0.9286843831192577
-0.14451121452780105
-0.2386160057965087
-0.9286843831192577
-0.14451121452780105
-0.2386160057965087
-0.9286843831192577
-0.14451121452780105
-0.2386160057965087
-0.9272141721669449
-0.14357291098488215
-0.23992444112810374
-0.9272141721669449
-0.14357291098488215
-0.23992444112810374
-0.9272141721669449
-0.14357291098488215
-0.23992444112810374
-0.9272141721669449
-0.14357291098488215
-0.23992444112810374
-0.9277442791190431
-0.1427625672836758
-0.24005607324033995
-0.9277442791190431
-0.1427625672836758
-0.24005607324033995
-0.9277442791190431
-0.1427625672836758
-0.24005607324033995
-0.9277442791190431
-0.1427625672836758
-0.24005607324033995
-0.9298221406722116
-0.1425676613870957
-0.2398468554620846
-0.9298221406722116
-0.1425676613870957
-0.2398468554620846
-0.9298221406722116
-0.1425676613870957
-0.2398468554620846
-0.9298221406722116
-0.1425676613870957
-0.2398468554620846
-0.9294454484930315
-0.14169671240424267
-0.24041149014123134
-0.9294454484930315
-0.14169671240424267
-0.24041149014123134
-0.9294454484930315
-0.14169671240424267
-0.24041149014123134
-0.9294454484930315
-0.14169671240424267
-0.24041149014123134
-0.9279583103584343
-0.13982662611139812
-0.24205205314315226
-0.9279583103584343
-0.13982662611139812
-0.24205205314315226
-0.9279583103584343
-0.13982662611139812
-0.24205205314315226
-0.9279583103584343
-0.13982662611139812
-0.24205205314315226
-0.926741470428134
-0.13764963632416705
-0.24354901295468342
-0.926741470428134
-0.13764963632416705
-0.24354901295468342
-0.926741470428134
-0.13764963632416705
-0.24354901295468342
-0.926741470428134
-0.13764963632416705
-0.24354901295468342
-0.9261720210177408
-0.13609494483784457
-0.24417818867791707
-0.9261720210177408
-0.13609494483784457
-0.24417818867791707
-0.9261720210177408
-0.13609494483784457
-0.24417818867791707
-0.9261720210177408
-0.13609494483784457
-0.24417818867791707
-0.9262345899682369
-0.13549884133736087
-0.24433653872316832
-0.9262345899682369
-0.13549884133736087
-0.24433653872316832
-0.9262345899682369
-0.13549884133736087
-0.24433653872316832
-0.9262345899682369
-0.13549884133736087
-0.24433653872316832
-0.9257419457494899
-0.13494490055064934
-0.2444781535131686
-0.9257419457494899
-0.13494490055064934
-0.2444781535131686
-0.9257419457494899
-0.13494490055064934
-0.2444781535131686
-0.9257419457494899
-0.13494490055064934
-0.2444781535131686
-0.92524471435176
-0.13383385295773684
-0.24487740852222195
-0.92524471435176
-0.13383385295773684
-0.24487740852222195
-0.92524471435176
-0.13383385295773684
-0.24487740852222195
-0.92524471435176
-0.13383385295773684
-0.24487740852222195
-0.9253296286286229
-0.13279432777599268
-0.2446944306064241
-0.9253296286286229
-0.13279432777599268
-0.2446944306064241
-0.9253296286286229
-0.13279432777599268
-0.2446944306064241
-0.9253296286286229
-0.13279432777599268
-0.2446944306064241
-0.9261490397418939
-0.13195805544596512
-0.24387254473398506
-0.9261490397418939
-0.13195805544596512
-0.24387254473398506
-0.9261490397418939
-0.13195805544596512
-0.24387254473398506
-0.9261490397418939
-0.13195805544596512
-0.24387254473398506
-0.9261974289349455
-0.13090699971678255
-0.2434077490602315
-0.9261974289349455
-0.13090699971678255
-0.2434077490602315
-0.9261974289349455
-0.13090699971678255
-0.2434077490602315
-0.9261974289349455
-0.13090699971678255
-0.2434077490602315
-0.9257953503768908
-0.12965078183651574
-0.24348746068804547
-0.9257953503768908
-0.12965078183651574
-0.24348746068804547
-0.9257953503768908
-0.12965078183651574
-0.24348746068804547
-0.9257953503768908
-0.12965078183651574
-0.24348746068804547
-0.9262799553361353
-0.1272323624920571
-0.24398446476988495
-0.9262799553361353
-0.1272323624920571
-0.24398446476988495
-0.9262799553361353
-0.1272323624920571
-0.24398446476988495
-0.9262799553361353
-0.1272323624920571
-0.24398446476988495
-0.9279589145648879
-0.12414334124006836
-0.2452358253831607
-0.9279589145648879
-0.12414334124006836
-0.2452358253831607
-0.9279589145648879
-0.12414334124006836
-0.2452358253831607
-0.9279589145648879
-0.12414334124006836
-0.2452358253831607
-0.929923741322385
-0.12098131515637092
-0.24652921502568378
-0.929923741322385
-0.12098131515637092
-0.24652921502568378
-0.929923741322385
-0.12098131515637092
-0.24652921502568378
-0.929923741322385
-0.12098131515637092
-0.24652921502568378
-0.9303266162574815
-0.11816566811803397
-0.24654318562504568
-0.9303266162574815
-0.11816566811803397
-0.24654318562504568
-0.9303266162574815
-0.11816566811803397
-0.24654318562504568
-0.9303266162574815
-0.11816566811803397
-0.24654318562504568
-0.9305381408880545
-0.11570722351584009
-0.2462364202322828
-0.9305381408880545
-0.11570722351584009
-0.2462364202322828
-0.9305381408880545
-0.11570722351584009
-0.2462364202322828
-0.9305381408880545
-0.11570722351584009
-0.2462364202322828
-0.9310102404486075
-0.11356272944392544
-0.24647095745844758
-0.9310102404486075
-0.11356272944392544
-0.24647095745844758
-0.9310102404486075
-0.11356272944392544
-0.24647095745844758
-0.9310102404486075
-0.11356272944392544
-0.24647095745844758
-0.9293604957470472
-0.11083430385860858
-0.24754425187920007
-0.9293604957470472
-0.11083430385860858
-0.24754425187920007
-0.9293604957470472
-0.11083430385860858
-0.24754425187920007
-0.9293604957470472
-0.11083430385860858
-0.24754425187920007
-0.9272730750689102
-0.10684057860670675
-0.24950454400526534
-0.9272730750689102
-0.10684057860670675
-0.24950454400526534
-0.9272730750689102
-0.10684057860670675
-0.24950454400526534
-0.9272730750689102
-0.10684057860670675
-0.24950454400526534
-0.9247510207603244
-0.10185244622640764
-0.2518025380403143
-0.9247510207603244
-0.10185244622640764
-0.2518025380403143
-0.9247510207603244
-0.10185244622640764
-0.2518025380403143
-0.9247510207603244
-0.10185244622640764
-0.2518025380403143
-0.9215731110832467
-0.09792694438459314
-0.2525902378710055
-0.9215731110832467
-0.09792694438459314
-0.2525902378710055
-0.9215731110832467
-0.09792694438459314
-0.2525902378710055
-0.9215731110832467
-0.09792694438459314
-0.2525902378710055
-0.9204254311861005
-0.09563234060363708
-0.2527332631941491
-0.9204254311861005
-0.09563234060363708
-0.2527332631941491
-0.9204254311861005
-0.09563234060363708
-0.2527332631941491
-0.9204254311861005
-0.09563234060363708
-0.2527332631941491
-0.921209432556216
-0.09490801946651528
-0.25324260298297624
-0.921209432556216
-0.09490801946651528
-0.25324260298297624
-0.921209432556216
-0.09490801946651528
-0.25324260298297624
-0.921209432556216
-0.09490801946651528
-0.25324260298297624
-0.92115993665758
-0.09441108440298414
-0.25445688322037685
-0.92115993665758
-0.09441108440298414
-0.25445688322037685
-0.92115993665758
-0.09441108440298414
-0.25445688322037685
-0.92115993665758
-0.09441108440298414
-0.25445688322037685
-0.9223685940896006
-0.09506854478550032
-0.25622510570376034
-0.9223685940896006
-0.09506854478550032
-0.25622510570376034
-0.9223685940896006
-0.09506854478550032
-0.25622510570376034
-0.9223685940896006
-0.09506854478550032
-0.25622510570376034
-0.9220626979380617
-0.09662910620150834
-0.25724043526248724
-0.9220626979380617
-0.09662910620150834
-0.25724043526248724
-0.9220626979380617
-0.09662910620150834
-0.25724043526248724
-0.9220626979380617
-0.09662910620150834
-0.25724043526248724
-0.9194778996207773
-0.10020767911589762
-0.2566887097368673
-0.9194778996207773
-0.10020767911589762
-0.2566887097368673
-0.9194778996207773
-0.10020767911589762
-0.2566887097368673
-0.9194778996207773
-0.10020767911589762
-0.2566887097368673
-0.9191252591178128
-0.10605564364155651
-0.2553345771543377
-0.9191252591178128
-0.10605564364155651
-0.2553345771543377
-0.9191252591178128
-0.10605564364155651
-0.2553345771543377
-0.9191252591178128
-0.10605564364155651
-0.2553345771543377
-0.9247136508255706
-0.11349757778068055
-0.2555913137998169
-0.9247136508255706
-0.11349757778068055
-0.2555913137998169
-0.9247136508255706
-0.11349757778068055
-0.2555913137998169
-0.9247136508255706
-0.11349757778068055
-0.2555913137998169
-0.9319895228008609
-0.11951238243105466
-0.25652832185640007
-0.9319895228008609
-0.11951238243105466
-0.25652832185640007
-0.9319895228008609
-0.11951238243105466
-0.25652832185640007
-0.9319895228008609
-0.11951238243105466
-0.25652832185640007
-0.9335231816601869
-0.12105177094425149
-0.25799253206905126
-0.9335231816601869
-0.12105177094425149
-0.25799253206905126
-0.9335231816601869
-0.12105177094425149
-0.25799253206905126
-0.9335231816601869
-0.12105177094425149
-0.25799253206905126
-0.9309918268603351
-0.12047146007410459
-0.2600805146895598
-0.9309918268603351
-0.12047146007410459
-0.2600805146895598
-0.9309918268603351
-0.12047146007410459
-0.2600805146895598
-0.9309918268603351
-0.12047146007410459
-0.2600805146895598
-0.929358344719666
-0.11982832401776296
-0.26203757353838397
-0.929358344719666
-0.11982832401776296
-0.26203757353838397
-0.929358344719666
-0.11982832401776296
-0.26203757353838397
-0.929358344719666
-0.11982832401776296
-0.26203757353838397
-0.9308348784560609
-0.12091849611412821
-0.26263350228816196
-0.9308348784560609
-0.12091849611412821
-0.26263350228816196
-0.9308348784560609
-0.12091849611412821
-0.26263350228816196
-0.9308348784560609
-0.12091849611412821
-0.26263350228816196
-0.9399784311398997
-0.12316735796237833
-0.26251381230486454
-0.9399784311398997
-0.12316735796237833
-0.26251381230486454
-0.9399784311398997
-0.12316735796237833
-0.26251381230486454
-0.9399784311398997
-0.12316735796237833
-0.26251381230486454
-0.9471436006867727
-0.12406464999323581
-0.2625255567055996
-0.9471436006867727
-0.12406464999323581
-0.2625255567055996
-0.9471436006867727
-0.12406464999323581
-0.2625255567055996
-0.9471436006867727
-0.12406464999323581
-0.2625255567055996
-0.9474643770551647
-0.12404489465722483
-0.261855110011657
-0.9474643770551647
-0.12404489465722483
-0.261855110011657
-0.9474643770551647
-0.12404489465722483
-0.261855110011657
-0.9474643770551647
-0.12404489465722483
-0.261855110011657
-0.9430140827440098
-0.1239099309975654
-0.26272906581459526
-0.9430140827440098
-0.1239099309975654
-0.26272906581459526
-0.9430140827440098
-0.1239099309975654
-0.26272906581459526
-0.9430140827440098
-0.1239099309975654
-0.26272906581459526
-0.9434089729776461
-0.12386205956389368
-0.2635797157475296
-0.9434089729776461
-0.12386205956389368
-0.2635797157475296
-0.9434089729776461
-0.12386205956389368
-0.2635797157475296
-0.9434089729776461
-0.12386205956389368
-0.2635797157475296
-0.9519228754015895
-0.12367486055761247
-0.26372633435345927
-0.9519228754015895
-0.12367486055761247
-0.26372633435345927
-0.9519228754015895
-0.12367486055761247
-0.26372633435345927
-0.9519228754015895
-0.12367486055761247
-0.26372633435345927
-0.9662854609721244
-0.12252199169279443
-0.26233161382660247
-0.9662854609721244
-0.12252199169279443
-0.26233161382660247
-0.9662854609721244
-0.12252199169279443
-0.26233161382660247
-0.9662854609721244
-0.12252199169279443
-0.26233161382660247
-0.9757529255623529
-0.12314728251747721
-0.26138466001538785
-0.9757529255623529
-0.12314728251747721
-0.26138466001538785
-0.9757529255623529
-0.12314728251747721
-0.26138466001538785
-0.9757529255623529
-0.12314728251747721
-0.26138466001538785
-0.9784764084332488
-0.12531534772099975
-0.26096561553496955
-0.9784764084332488
-0.12531534772099975
-0.26096561553496955
-0.9784764084332488
-0.12531534772099975
-0.26096561553496955
-0.9784764084332488
-0.12531534772099975
-0.26096561553496955
-0.9761678575850948
-0.12575013067117538
-0.26351517552760106
-0.9761678575850948
-0.12575013067117538
-0.26351517552760106
-0.9761678575850948
-0.12575013067117538
-0.26351517552760106
-0.9761678575850948
-0.12575013067117538
-0.26351517552760106
-0.9693064831438754
-0.12505542625237911
-0.26720501852509015
-0.9693064831438754
-0.12505542625237911
-0.26720501852509015
-0.9693064831438754
-0.12505542625237911
-0.26720501852509015
-0.9693064831438754
-0.12505542625237911
-0.26720501852509015
-0.9646125432609678
-0.12447757044752543
-0.2694219291301397
-0.9646125432609678
-0.12447757044752543
-0.2694219291301397
-0.9646125432609678
-0.12447757044752543
-0.2694219291301397
-0.9646125432609678
-0.12447757044752543
-0.2694219291301397
-0.9662955239677494
-0.12326185030421001
-0.2689539756272483
-0.9662955239677494
-0.12326185030421001
-0.2689539756272483
-0.9662955239677494
-0.12326185030421001
-0.2689539756272483
-0.9662955239677494
-0.12326185030421001
-0.2689539756272483
-0.9721692736986257
-0.12267531558975407
-0.26705723783475976
-0.9721692736986257
-0.12267531558975407
-0.26705723783475976
-0.9721692736986257
-0.12267531558975407
-0.26705723783475976
-0.9721692736986257
-0.12267531558975407
-0.26705723783475976
-0.9758298969133191
-0.12282558032713668
-0.2664638536385952
-0.9758298969133191
-0.12282558032713668
-0.2664638536385952
-0.9758298969133191
-0.12282558032713668
-0.2664638536385952
-0.9758298969133191
-0.12282558032713668
-0.2664638536385952
-0.9730282464976892
-0.12259057655715536
-0.26767164837315927
-0.9730282464976892
-0.12259057655715536
-0.26767164837315927
-0.9730282464976892
-0.12259057655715536
-0.26767164837315927
-0.9730282464976892
-0.12259057655715536
-0.26767164837315927
-0.9674231139516865
-0.12263775658283255
-0.26899054072098055
-0.9674231139516865
-0.12263775658283255
-0.26899054072098055
-0.9674231139516865
-0.12263775658283255
-0.26899054072098055
-0.9674231139516865
-0.12263775658283255
-0.26899054072098055
-0.9656730718704809
-0.12228204866739859
-0.26860966406690023
-0.9656730718704809
-0.12228204866739859
-0.26860966406690023
-0.9656730718704809
-0.12228204866739859
-0.26860966406690023
-0.9656730718704809
-0.12228204866739859
-0.26860966406690023
-0.967208921557758
-0.1221738841103788
-0.26714051090795377
-0.967208921557758
-0.1221738841103788
-0.26714051090795377
-0.967208921557758
-0.1221738841103788
-0.26714051090795377
-0.967208921557758
-0.1221738841103788
-0.26714051090795377
-0.9669090869022063
-0.12204200112159032
-0.2659395100454677
-0.9669090869022063
-0.12204200112159032
-0.2659395100454677
-0.9669090869022063
-0.12204200112159032
-0.2659395100454677
-0.9669090869022063
-0.12204200112159032
-0.2659395100454677
-0.9662362821042761
-0.12191041242237094
-0.26642421676735173
-0.9662362821042761
-0.12191041242237094
-0.26642421676735173
-0.9662362821042761
-0.12191041242237094
-0.26642421676735173
-0.9662362821042761
-0.12191041242237094
-0.26642421676735173
-0.965857631339353
-0.12159960615395551
-0.26700277737353273
-0.965857631339353
-0.12159960615395551
-0.26700277737353273
-0.965857631339353
-0.12159960615395551
-0.26700277737353273
-0.965857631339353
-0.12159960615395551
-0.26700277737353273
-0.9651466706193508
-0.12145045923402421
-0.2672041784250177
-0.9651466706193508
-0.12145045923402421
-0.2672041784250177
-0.9651466706193508
-0.12145045923402421
-0.2672041784250177
-0.9651466706193508
-0.12145045923402421
-0.2672041784250177
-0.9672901562065308
-0.12123921207089243
-0.2669227736914472
-0.9672901562065308
-0.12123921207089243
-0.2669227736914472
-0.9672901562065308
-0.12123921207089243
-0.2669227736914472
-0.9672901562065308
-0.12123921207089243
-0.2669227736914472
-0.96956270293465
-0.12085099813604809
-0.2657483697057773
-0.96956270293465
-0.12085099813604809
-0.2657483697057773
-0.96956270293465
-0.12085099813604809
-0.2657483697057773
-0.96956270293465
-0.12085099813604809
-0.2657483697057773
-0.9713318607243757
-0.12154201274886614
-0.2641548591136051
-0.9713318607243757
-0.12154201274886614
-0.2641548591136051
-0.9713318607243757
-0.12154201274886614
-0.2641548591136051
-0.9713318607243757
-0.12154201274886614
-0.2641548591136051
-0.9715718991927739
-0.12166320567537635
-0.2635265699683912
-0.9715718991927739
-0.12166320567537635
-0.2635265699683912
-0.9715718991927739
-0.12166320567537635
-0.2635265699683912
-0.9715718991927739
-0.12166320567537635
-0.2635265699683912
-0.9705011826671028
-0.12128192942941524
-0.2628806678099113
-0.9705011826671028
-0.12128192942941524
-0.2628806678099113
-0.9705011826671028
-0.12128192942941524
-0.2628806678099113
-0.9705011826671028
-0.12128192942941524
-0.2628806678099113
-0.9688949654285073
-0.12017278872531927
-0.26259288399073344
-0.9688949654285073
-0.12017278872531927
-0.26259288399073344
-0.9688949654285073
-0.12017278872531927
-0.26259288399073344
-0.9688949654285073
-0.12017278872531927
-0.26259288399073344
-0.9684328473518965
-0.11945453895905818
-0.2626897471030122
-0.9684328473518965
-0.11945453895905818
-0.2626897471030122
-0.9684328473518965
-0.11945453895905818
-0.2626897471030122
-0.9684328473518965
-0.11945453895905818
-0.2626897471030122
-0.9691840329475436
-0.11888487954324442
-0.2624326681522107
-0.9691840329475436
-0.11888487954324442
-0.2624326681522107
-0.9691840329475436
-0.11888487954324442
-0.2624326681522107
-0.9691840329475436
-0.11888487954324442
-0.2624326681522107
-0.9692921353113102
-0.11889563731121763
-0.26241878064483837
-0.9692921353113102
-0.11889563731121763
-0.26241878064483837
-0.9692921353113102
-0.11889563731121763
-0.26241878064483837
-0.9692921353113102
-0.11889563731121763
-0.26241878064483837
-0.9685345256047858
-0.1186200368240622
-0.2618731459090229
-0.9685345256047858
-0.1186200368240622
-0.2618731459090229
-0.9685345256047858
-0.1186200368240622
-0.2618731459090229
-0.9685345256047858
-0.1186200368240622
-0.2618731459090229
-0.9686206218215255
-0.11861008139385142
-0.2613043899996491
-0.9686206218215255
-0.11861008139385142
-0.2613043899996491
-0.9686206218215255
-0.11861008139385142
-0.2613043899996491
-0.9686206218215255
-0.11861008139385142
-0.2613043899996491
-0.9691129944476261
-0.11794932223084854
-0.2609564718591514
-0.9691129944476261
-0.11794932223084854
-0.2609564718591514
-0.9691129944476261
-0.11794932223084854
-0.2609564718591514
-0.9691129944476261
-0.11794932223084854
-0.2609564718591514
-0.9693370380714823
-0.11680668969435691
-0.2605662377703665
-0.9693370380714823
-0.11680668969435691
-0.2605662377703665
-0.9693370380714823
-0.11680668969435691
-0.2605662377703665
-0.9693370380714823
-0.11680668969435691
-0.2605662377703665
-0.9697053665616008
-0.11603386123341293
-0.25874304961969746
-0.9697053665616008
-0.11603386123341293
-0.25874304961969746
-0.9697053665616008
-0.11603386123341293
-0.25874304961969746
-0.9697053665616008
-0.11603386123341293
-0.25874304961969746
-0.970572796296608
-0.11544444938165346
-0.25737544479308805
-0.970572796296608
-0.11544444938165346
-0.25737544479308805
-0.970572796296608
-0.11544444938165346
-0.25737544479308805
-0.970572796296608
-0.11544444938165346
-0.25737544479308805
-0.9706079610199941
-0.11372229054700662
-0.2567387912813518
-0.9706079610199941
-0.11372229054700662
-0.2567387912813518
-0.9706079610199941
-0.11372229054700662
-0.2567387912813518
-0.9706079610199941
-0.11372229054700662
-0.2567387912813518
-0.9674325216182066
-0.11073375034654494
-0.25728396667668796
-0.9674325216182066
-0.11073375034654494
-0.25728396667668796
-0.9674325216182066
-0.11073375034654494
-0.25728396667668796
-0.9674325216182066
-0.11073375034654494
-0.25728396667668796
-0.9629166620948797
-0.1083360856743089
-0.25776576191210343
-0.9629166620948797
-0.1083360856743089
-0.25776576191210343
-0.9629166620948797
-0.1083360856743089
-0.25776576191210343
-0.9629166620948797
-0.1083360856743089
-0.25776576191210343
-0.9603760486830837
-0.10714926835744
-0.2565323992154222
-0.9603760486830837
-0.10714926835744
-0.2565323992154222
-0.9603760486830837
-0.10714926835744
-0.2565323992154222
-0.9603760486830837
-0.10714926835744
-0.2565323992154222
-0.9605982018654343
-0.10910290257517569
-0.25386380342911535
-0.9605982018654343
-0.10910290257517569
-0.25386380342911535
-0.9605982018654343
-0.10910290257517569
-0.25386380342911535
-0.9605982018654343
-0.10910290257517569
-0.25386380342911535
-0.9618806283105985
-0.11236005987015721
-0.25204187964930774
-0.9618806283105985
-0.11236005987015721
-0.25204187964930774
-0.9618806283105985
-0.11236005987015721
-0.25204187964930774
-0.9618806283105985
-0.11236005987015721
-0.25204187964930774
-0.9601889141811585
-0.11388875661470015
-0.2512369433974718
-0.9601889141811585
-0.11388875661470015
-0.2512369433974718
-0.9601889141811585
-0.11388875661470015
-0.2512369433974718
-0.9601889141811585
-0.11388875661470015
-0.2512369433974718
-0.9542272754811213
-0.11522965450757323
-0.2513417484207058
-0.9542272754811213
-0.11522965450757323
-0.2513417484207058
-0.9542272754811213
-0.11522965450757323
-0.2513417484207058
-0.9542272754811213
-0.11522965450757323
-0.2513417484207058
-0.9457617164011536
-0.11526720540111382
-0.25182284949417744
-0.9457617164011536
-0.11526720540111382
-0.25182284949417744
-0.9457617164011536
-0.11526720540111382
-0.25182284949417744
-0.9457617164011536
-0.11526720540111382
-0.25182284949417744
-0.9412122434747927
-0.11615562529189052
-0.2503698213616885
-0.9412122434747927
-0.11615562529189052
-0.2503698213616885
-0.9412122434747927
-0.11615562529189052
-0.2503698213616885
-0.9412122434747927
-0.11615562529189052
-0.2503698213616885
-0.9403494245230251
-0.1179162887876665
-0.250035498915167
-0.9403494245230251
-0.1179162887876665
-0.250035498915167
-0.9403494245230251
-0.1179162887876665
-0.250035498915167
-0.9403494245230251
-0.1179162887876665
-0.250035498915167
-0.931817361967066
-0.11994500121922061
-0.2520269270027378
-0.931817361967066
-0.11994500121922061
-0.2520269270027378
-0.931817361967066
-0.11994500121922061
-0.2520269270027378
-0.931817361967066
-0.11994500121922061
-0.2520269270027378
-0.9197257053486778
-0.12234168724721373
-0.25455349054035925
-0.9197257053486778
-0.12234168724721373
-0.25455349054035925
-0.9197257053486778
-0.12234168724721373
-0.25455349054035925
-0.9197257053486778
-0.12234168724721373
-0.25455349054035925
-0.9133744859844242
-0.12241330153066936
-0.25368123391484854
-0.9133744859844242
-0.12241330153066936
-0.25368123391484854
-0.9133744859844242
-0.12241330153066936
-0.25368123391484854
-0.9133744859844242
-0.12241330153066936
-0.25368123391484854
-0.9063431112756004
-0.12070072159654924
-0.2496707584482031
-0.9063431112756004
-0.12070072159654924
-0.2496707584482031
-0.9063431112756004
-0.12070072159654924
-0.2496707584482031
-0.9063431112756004
-0.12070072159654924
-0.2496707584482031
-0.9043924762086275
-0.12101732340345449
-0.24759418371336017
-0.9043924762086275
-0.12101732340345449
-0.24759418371336017
-0.9043924762086275
-0.12101732340345449
-0.24759418371336017
-0.9043924762086275
-0.12101732340345449
-0.24759418371336017
-0.9053104740774915
-0.12272569288667864
-0.24800511349656537
-0.9053104740774915
-0.12272569288667864
-0.24800511349656537
-0.9053104740774915
-0.12272569288667864
-0.24800511349656537
-0.9053104740774915
-0.12272569288667864
-0.24800511349656537
-0.903065054423727
-0.12327336222850328
-0.24843462934411015
-0.903065054423727
-0.12327336222850328
-0.24843462934411015
-0.903065054423727
-0.12327336222850328
-0.24843462934411015
-0.903065054423727
-0.12327336222850328
-0.24843462934411015
-0.8995019567736604
-0.12345570838327036
-0.24602442909799813
-0.8995019567736604
-0.12345570838327036
-0.24602442909799813
-0.8995019567736604
-0.12345570838327036
-0.24602442909799813
-0.8995019567736604
-0.12345570838327036
-0.24602442909799813
-0.8990535947369939
-0.12391847296692557
-0.24264571474713345
-0.8990535947369939
-0.12391847296692557
-0.24264571474713345
-0.8990535947369939
-0.12391847296692557
-0.24264571474713345
-0.8990535947369939
-0.12391847296692557
-0.24264571474713345
-0.9021091916679338
-0.12462206435031224
-0.24091162001962577
-0.9021091916679338
-0.12462206435031224
-0.24091162001962577
-0.9021091916679338
-0.12462206435031224
-0.24091162001962577
-0.9021091916679338
-0.12462206435031224
-0.24091162001962577
-0.9039893712124595
-0.12517778388437
-0.2414655831375293
-0.9039893712124595
-0.12517778388437
-0.2414655831375293
-0.9039893712124595
-0.12517778388437
-0.2414655831375293
-0.9039893712124595
-0.12517778388437
-0.2414655831375293
-0.9040589411425637
-0.12336391361818398
-0.24386235290935732
-0.9040589411425637
-0.12336391361818398
-0.24386235290935732
-0.9040589411425637
-0.12336391361818398
-0.24386235290935732
-0.9040589411425637
-0.12336391361818398
-0.24386235290935732
-0.9078298636756212
-0.12221885709342749
-0.24397846439240112
-0.9078298636756212
-0.12221885709342749
-0.24397846439240112
-0.9078298636756212
-0.12221885709342749
-0.24397846439240112
-0.9078298636756212
-0.12221885709342749
-0.24397846439240112
-0.9143587945603676
-0.12466656492671799
-0.2414031546860068
-0.9143587945603676
-0.12466656492671799
-0.2414031546860068
-0.9143587945603676
-0.12466656492671799
-0.2414031546860068
-0.9143587945603676
-0.12466656492671799
-0.2414031546860068
-0.9193843412322805
-0.12708776570131
-0.24006727602733963
-0.9193843412322805
-0.12708776570131
-0.24006727602733963
-0.9193843412322805
-0.12708776570131
-0.24006727602733963
-0.9193843412322805
-0.12708776570131
-0.24006727602733963
-0.9173117264160484
-0.128712489741671
-0.24011174978678723
-0.9173117264160484
-0.128712489741671
-0.24011174978678723
-0.9173117264160484
-0.128712489741671
-0.24011174978678723
-0.9173117264160484
-0.128712489741671
-0.24011174978678723
-0.911924516229479
-0.12917132664295997
-0.24075367374993736
-0.911924516229479
-0.12917132664295997
-0.24075367374993736
-0.911924516229479
-0.12917132664295997
-0.24075367374993736
-0.911924516229479
-0.12917132664295997
-0.24075367374993736
-0.9113395696682661
-0.12954103884825885
-0.23974937433318808
-0.9113395696682661
-0.12954103884825885
-0.23974937433318808
-0.9113395696682661
-0.12954103884825885
-0.23974937433318808
-0.9113395696682661
-0.12954103884825885
-0.23974937433318808
-0.9161228588022964
-0.13176092635919606
-0.23670937331277875
-0.9161228588022964
-0.13176092635919606
-0.23670937331277875
-0.9161228588022964
-0.13176092635919606
-0.23670937331277875
-0.9161228588022964
-0.13176092635919606
-0.23670937331277875
-0.9197124408596172
-0.13339245092448884
-0.23533130713774247
-0.9197124408596172
-0.13339245092448884
-0.23533130713774247
-0.9197124408596172
-0.13339245092448884
-0.23533130713774247
-0.9197124408596172
-0.13339245092448884
-0.23533130713774247
-0.9198420273410791
-0.13209396163489104
-0.2365260120319105
-0.9198420273410791
-0.13209396163489104
-0.2365260120319105
-0.9198420273410791
-0.13209396163489104
-0.2365260120319105
-0.9198420273410791
-0.13209396163489104
-0.2365260120319105
-0.9162448391951203
-0.12984349746334184
-0.23749269506220994
-0.9162448391951203
-0.12984349746334184
-0.23749269506220994
-0.9162448391951203
-0.12984349746334184
-0.23749269506220994
-0.9162448391951203
-0.12984349746334184
-0.23749269506220994
-0.9137680243691038
-0.1302136526945251
-0.23678702272855653
-0.9137680243691038
-0.1302136526945251
-0.23678702272855653
-0.9137680243691038
-0.1302136526945251
-0.23678702272855653
-0.9137680243691038
-0.1302136526945251
-0.23678702272855653
-0.9137204810695604
-0.1307568653016521
-0.2356943596080863
-0.9137204810695604
-0.1307568653016521
-0.2356943596080863
-0.9137204810695604
-0.1307568653016521
-0.2356943596080863
-0.9137204810695604
-0.1307568653016521
-0.2356943596080863
-0.9147663585356042
-0.13033304509443244
-0.23480179446806707
-0.9147663585356042
-0.13033304509443244
-0.23480179446806707
-0.9147663585356042
-0.13033304509443244
-0.23480179446806707
-0.9147663585356042
-0.13033304509443244
-0.23480179446806707
-0.9135900057855978
-0.1288650750875859
-0.23522962474159428
-0.9135900057855978
-0.1288650750875859
-0.23522962474159428
-0.9135900057855978
-0.1288650750875859
-0.23522962474159428
-0.9135900057855978
-0.1288650750875859
-0.23522962474159428
-0.9119193213253247
-0.12619272022082467
-0.23530400711729796
-0.9119193213253247
-0.12619272022082467
-0.23530400711729796
-0.9119193213253247
-0.12619272022082467
-0.23530400711729796
-0.9119193213253247
-0.12619272022082467
-0.23530400711729796
-0.9113311140206654
-0.12513286547016167
-0.23527195879882032
-0.9113311140206654
-0.12513286547016167
-0.23527195879882032
-0.9113311140206654
-0.12513286547016167
-0.23527195879882032
-0.9113311140206654
-0.12513286547016167
-0.23527195879882032
-0.9108957262230816
-0.12507815186941973
-0.23529239382224798
-0.9108957262230816
-0.12507815186941973
-0.23529239382224798
-0.9108957262230816
-0.12507815186941973
-0.23529239382224798
-0.9108957262230816
-0.12507815186941973
-0.23529239382224798
-0.9108957262230816
-0.12507815186941973
-0.23529239382224798
-0.9108957262230816
-0.12507815186941973
-0.23529239382224798
-0.9108957262230816
-0.12507815186941973
-0.23529239382224798
-0.9108957262230816
-0.12507815186941973
-0.23529239382224798
-0.9116061308515158
-0.12516569520969012
-0.23608266690792074
-0.9116061308515158
-0.12516569520969012
-0.23608266690792074
-0.9116061308515158
-0.12516569520969012
-0.23608266690792074
-0.9116061308515158
-0.12516569520969012
-0.23608266690792074
-0.9137014302817945
-0.12452882993477242
-0.2363751640824845
-0.9137014302817945
-0.12452882993477242
-0.2363751640824845
-0.9137014302817945
-0.12452882993477242
-0.2363751640824845
-0.9137014302817945
-0.12452882993477242
-0.2363751640824845
-0.9155417949010711
-0.12414161337964537
-0.23587147703172104
-0.9155417949010711
-0.12414161337964537
-0.23587147703172104
-0.9155417949010711
-0.12414161337964537
-0.23587147703172104
-0.9155417949010711
-0.12414161337964537
-0.23587147703172104
-0.9158894326431652
-0.12467518057684043
-0.23546626824012587
-0.9158894326431652
-0.12467518057684043
-0.23546626824012587
-0.9158894326431652
-0.12467518057684043
-0.23546626824012587
-0.9158894326431652
-0.12467518057684043
-0.23546626824012587
-0.9158894326431652
-0.12467518057684043
-0.23546626824012587
-0.9158894326431652
-0.12467518057684043
-0.23546626824012587
-0.9158894326431652
-0.12467518057684043
-0.23546626824012587
-0.9158894326431652
-0.12467518057684043
-0.23546626824012587
-0.9157534297614272
-0.12499487736006869
-0.23614771154123773
-0.9157534297614272
-0.12499487736006869
-0.23614771154123773
-0.9157534297614272
-0.12499487736006869
-0.23614771154123773
-0.9157534297614272
-0.12499487736006869
-0.23614771154123773
-0.9167522118749051
-0.12461890476456636
-0.23674149224595908
-0.9167522118749051
-0.12461890476456636
-0.23674149224595908
-0.9167522118749051
-0.12461890476456636
-0.23674149224595908
-0.9167522118749051
-0.12461890476456636
-0.23674149224595908
-0.9194423998799469
-0.12515585417622965
-0.2367387186454725
-0.9194423998799469
-0.12515585417622965
-0.2367387186454725
-0.9194423998799469
-0.12515585417622965
-0.2367387186454725
-0.9194423998799469
-0.12515585417622965
-0.2367387186454725
-0.9219810087587572
-0.12628777378681574
-0.23714521171894468
-0.9219810087587572
-0.12628777378681574
-0.23714521171894468
-0.9219810087587572
-0.12628777378681574
-0.23714521171894468
-0.9219810087587572
-0.12628777378681574
-0.23714521171894468
-0.9235957131575454
-0.12687438310418286
-0.23837374120833713
-0.9235957131575454
-0.12687438310418286
-0.23837374120833713
-0.9235957131575454
-0.12687438310418286
-0.23837374120833713
-0.9235957131575454
-0.12687438310418286
-0.23837374120833713
-0.9246615545144549
-0.12662133943178666
-0.24027394921371284
-0.9246615545144549
-0.12662133943178666
-0.24027394921371284
-0.9246615545144549
-0.12662133943178666
-0.24027394921371284
-0.9246615545144549
-0.12662133943178666
-0.24027394921371284
-0.9241055594471923
-0.12711612719343637
-0.24115083559988273
-0.9241055594471923
-0.12711612719343637
-0.24115083559988273
-0.9241055594471923
-0.12711612719343637
-0.24115083559988273
-0.9241055594471923
-0.12711612719343637
-0.24115083559988273
-0.9234746545347223
-0.12780876036406474
-0.24108370350741737
-0.9234746545347223
-0.12780876036406474
-0.24108370350741737
-0.9234746545347223
-0.12780876036406474
-0.24108370350741737
-0.9234746545347223
-0.12780876036406474
-0.24108370350741737
-0.9251124625589652
-0.12828062505639426
-0.2404363236149434
-0.9251124625589652
-0.12828062505639426
-0.2404363236149434
-0.9251124625589652
-0.12828062505639426
-0.2404363236149434
-0.9251124625589652
-0.12828062505639426
-0.2404363236149434
-0.9277672350357413
-0.12815597382154187
-0.23966185934949574
-0.9277672350357413
-0.12815597382154187
-0.23966185934949574
-0.9277672350357413
-0.12815597382154187
-0.23966185934949574
-0.9277672350357413
-0.12815597382154187
-0.23966185934949574
-0.9275085869010643
-0.12784362656437062
-0.23912228670186056
-0.9275085869010643
-0.12784362656437062
-0.23912228670186056
-0.9275085869010643
-0.12784362656437062
-0.23912228670186056
-0.9275085869010643
-0.12784362656437062
-0.23912228670186056
-0.9254212990180771
-0.12786590288565317
-0.23897782074178464
-0.9254212990180771
-0.12786590288565317
-0.23897782074178464
-0.9254212990180771
-0.12786590288565317
-0.23897782074178464
-0.9254212990180771
-0.12786590288565317
-0.23897782074178464
-0.9236472437557103
-0.127266221371427
-0.2394096511873438
-0.9236472437557103
-0.127266221371427
-0.2394096511873438
-0.9236472437557103
-0.127266221371427
-0.2394096511873438
-0.9236472437557103
-0.127266221371427
-0.2394096511873438
-0.9239074994220557
-0.1259766400681718
-0.23949296662566869
-0.9239074994220557
-0.1259766400681718
-0.23949296662566869
-0.9239074994220557
-0.1259766400681718
-0.23949296662566869
-0.9239074994220557
-0.1259766400681718
-0.23949296662566869
-0.9251620388290047
-0.12475453238932534
-0.23941253184783406
-0.9251620388290047
-0.12475453238932534
-0.23941253184783406
-0.9251620388290047
-0.12475453238932534
-0.23941253184783406
-0.9251620388290047
-0.12475453238932534
-0.23941253184783406
-0.9249281222842143
-0.12406146207376115
-0.23919603645413073
-0.9249281222842143
-0.12406146207376115
-0.23919603645413073
-0.9249281222842143
-0.12406146207376115
-0.23919603645413073
-0.9249281222842143
-0.12406146207376115
-0.23919603645413073
-0.9228033593525783
-0.12336885495470871
-0.23927213800364783
-0.9228033593525783
-0.12336885495470871
-0.23927213800364783
-0.9228033593525783
-0.12336885495470871
-0.23927213800364783
-0.9228033593525783
-0.12336885495470871
-0.23927213800364783
-0.9222836451100868
-0.12269658187838955
-0.23918089587613187
-0.9222836451100868
-0.12269658187838955
-0.23918089587613187
-0.9222836451100868
-0.12269658187838955
-0.23918089587613187
-0.9222836451100868
-0.12269658187838955
-0.23918089587613187
-0.9227478989116168
-0.12220045275138125
-0.23887320637000967
-0.9227478989116168
-0.12220045275138125
-0.23887320637000967
-0.9227478989116168
-0.12220045275138125
-0.23887320637000967
-0.9227478989116168
-0.12220045275138125
-0.23887320637000967
-0.9217677711600228
-0.1223560994288587
-0.23838403148481718
-0.9217677711600228
-0.1223560994288587
-0.23838403148481718
-0.9217677711600228
-0.1223560994288587
-0.23838403148481718
-0.9217677711600228
-0.1223560994288587
-0.23838403148481718
-0.9213106677186543
-0.12301484070521426
-0.2373756350181634
-0.9213106677186543
-0.12301484070521426
-0.2373756350181634
-0.9213106677186543
-0.12301484070521426
-0.2373756350181634
-0.9213106677186543
-0.12301484070521426
-0.2373756350181634
-0.9222365048933886
-0.12361738603373269
-0.23639033597159537
-0.9222365048933886
-0.12361738603373269
-0.23639033597159537
-0.9222365048933886
-0.12361738603373269
-0.23639033597159537
-0.9222365048933886
-0.12361738603373269
-0.23639033597159537
-0.9221025469222608
-0.1251399321810598
-0.2356421175903128
-0.9221025469222608
-0.1251399321810598
-0.2356421175903128
-0.9221025469222608
-0.1251399321810598
-0.2356421175903128
-0.9221025469222608
-0.1251399321810598
-0.2356421175903128
-0.9212046205948503
-0.12585813769706247
-0.23542895492468505
-0.9212046205948503
-0.12585813769706247
-0.23542895492468505
-0.9212046205948503
-0.12585813769706247
-0.23542895492468505
-0.9212046205948503
-0.12585813769706247
-0.23542895492468505
-0.9213163854163382
-0.12636884986379213
-0.23532120758030803
-0.9213163854163382
-0.12636884986379213
-0.23532120758030803
-0.9213163854163382
-0.12636884986379213
-0.23532120758030803
-0.9213163854163382
-0.12636884986379213
-0.23532120758030803
-0.9221056110986993
-0.12766513756457812
-0.23521391520834398
-0.9221056110986993
-0.12766513756457812
-0.23521391520834398
-0.9221056110986993
-0.12766513756457812
-0.23521391520834398
-0.9221056110986993
-0.12766513756457812
-0.23521391520834398
-0.9217003921960757
-0.127785510395881
-0.23530089082716865
-0.9217003921960757
-0.127785510395881
-0.23530089082716865
-0.9217003921960757
-0.127785510395881
-0.23530089082716865
-0.9217003921960757
-0.127785510395881
-0.23530089082716865
-0.9197423579824049
-0.12695486833919836
-0.23559240993272904
-0.9197423579824049
-0.12695486833919836
-0.23559240993272904
-0.9197423579824049
-0.12695486833919836
-0.23559240993272904
-0.9197423579824049
-0.12695486833919836
-0.23559240993272904
-0.9189900333179654
-0.1269705519498808
-0.23612279181037998
-0.9189900333179654
-0.1269705519498808
-0.23612279181037998
-0.9189900333179654
-0.1269705519498808
-0.23612279181037998
-0.9189900333179654
-0.1269705519498808
-0.23612279181037998
-0.9188936775550622
-0.12690827047270867
-0.23602643604747686
-0.9188936775550622
-0.12690827047270867
-0.23602643604747686
-0.9188936775550622
-0.12690827047270867
-0.23602643604747686
-0.9188936775550622
-0.12690827047270867
-0.23602643604747686
-0.9183482814115498
-0.1268439699462046
-0.23606080205191085
-0.9183482814115498
-0.1268439699462046
-0.23606080205191085
-0.9183482814115498
-0.1268439699462046
-0.23606080205191085
-0.9183482814115498
-0.1268439699462046
-0.23606080205191085
-0.918565671320603
-0.12730828117535709
-0.2361033547262198
-0.918565671320603
-0.12730828117535709
-0.2361033547262198
-0.918565671320603
-0.12730828117535709
-0.2361033547262198
-0.918565671320603
-0.12730828117535709
-0.2361033547262198
-0.9189516519107804
-0.12763047486119825
-0.23635815087751638
-0.9189516519107804
-0.12763047486119825
-0.23635815087751638
-0.9189516519107804
-0.12763047486119825
-0.23635815087751638
-0.9189516519107804
-0.12763047486119825
-0.23635815087751638
-0.9187014476819585
-0.1271633697063591
-0.23768872771033703
-0.9187014476819585
-0.1271633697063591
-0.23768872771033703
-0.9187014476819585
-0.1271633697063591
-0.23768872771033703
-0.9187014476819585
-0.1271633697063591
-0.23768872771033703
-0.9181458372395125
-0.12715824125617609
-0.23948814587606462
-0.9181458372395125
-0.12715824125617609
-0.23948814587606462
-0.9181458372395125
-0.12715824125617609
-0.23948814587606462
-0.9181458372395125
-0.12715824125617609
-0.23948814587606462
-0.9173933707029769
-0.12789779303466242
-0.2403739999604813
-0.9173933707029769
-0.12789779303466242
-0.2403739999604813
-0.9173933707029769
-0.12789779303466242
-0.2403739999604813
-0.9173933707029769
-0.12789779303466242
-0.2403739999604813
-0.9194378068917352
-0.12825561269632033
-0.24046828192088412
-0.9194378068917352
-0.12825561269632033
-0.24046828192088412
-0.9194378068917352
-0.12825561269632033
-0.24046828192088412
-0.9194378068917352
-0.12825561269632033
-0.24046828192088412
-0.9222498424489725
-0.12782446728404045
-0.2403952330326618
-0.9222498424489725
-0.12782446728404045
-0.2403952330326618
-0.9222498424489725
-0.12782446728404045
-0.2403952330326618
-0.9222498424489725
-0.12782446728404045
-0.2403952330326618
-0.9218103509735318
-0.12771290366769159
-0.24057942920452102
-0.9218103509735318
-0.12771290366769159
-0.24057942920452102
-0.9218103509735318
-0.12771290366769159
-0.24057942920452102
-0.9218103509735318
-0.12771290366769159
-0.24057942920452102
-0.9203006690789592
-0.12775401554352234
-0.24084559136195668
-0.9203006690789592
-0.12775401554352234
-0.24084559136195668
-0.9203006690789592
-0.12775401554352234
-0.24084559136195668
-0.9203006690789592
-0.12775401554352234
-0.24084559136195668
-0.9192116959430557
-0.12789963431790574
-0.24037273352900576
-0.9192116959430557
-0.12789963431790574
-0.24037273352900576
-0.9192116959430557
-0.12789963431790574
-0.24037273352900576
-0.9192116959430557
-0.12789963431790574
-0.24037273352900576
-0.9198422667451898
-0.12813223912048435
-0.23955324458955152
-0.9198422667451898
-0.12813223912048435
-0.23955324458955152
-0.9198422667451898
-0.12813223912048435
-0.23955324458955152
-0.9198422667451898
-0.12813223912048435
-0.23955324458955152
-0.9199828448631293
-0.1280920589057053
-0.23915736633190976
-0.9199828448631293
-0.1280920589057053
-0.23915736633190976
-0.9199828448631293
-0.1280920589057053
-0.23915736633190976
-0.9199828448631293
-0.1280920589057053
-0.23915736633190976
-0.9189512638894343
-0.1278103429725532
-0.23945263745955292
-0.9189512638894343
-0.1278103429725532
-0.23945263745955292
-0.9189512638894343
-0.1278103429725532
-0.23945263745955292
-0.9189512638894343
-0.1278103429725532
-0.23945263745955292
-0.9171561354355869
-0.12764776010582254
-0.23939722396760515
-0.9171561354355869
-0.12764776010582254
-0.23939722396760515
-0.9171561354355869
-0.12764776010582254
-0.23939722396760515
-0.9171561354355869
-0.12764776010582254
-0.23939722396760515
-0.9172368201460056
-0.12798396688235242
-0.23922430814785936
-0.9172368201460056
-0.12798396688235242
-0.23922430814785936
-0.9172368201460056
-0.12798396688235242
-0.23922430814785936
-0.9172368201460056
-0.12798396688235242
-0.23922430814785936
-0.9181377721180305
-0.12754415057590665
-0.23889297478006896
-0.9181377721180305
-0.12754415057590665
-0.23889297478006896
-0.9181377721180305
-0.12754415057590665
-0.23889297478006896
-0.9181377721180305
-0.12754415057590665
-0.23889297478006896
-0.917345097466555
-0.12706377825574547
-0.23926708735816304
-0.917345097466555
-0.12706377825574547
-0.23926708735816304
-0.917345097466555
-0.12706377825574547
-0.23926708735816304
-0.917345097466555
-0.12706377825574547
-0.23926708735816304
-0.9154060483376008
-0.12688443111474573
-0.2397695691448903
-0.9154060483376008
-0.12688443111474573
-0.2397695691448903
-0.9154060483376008
-0.12688443111474573
-0.2397695691448903
-0.9154060483376008
-0.12688443111474573
-0.2397695691448903
-0.9150236233238214
-0.12684206864088243
-0.2398001254409076
-0.9150236233238214
-0.12684206864088243
-0.2398001254409076
-0.9150236233238214
-0.12684206864088243
-0.2398001254409076
-0.9150236233238214
-0.12684206864088243
-0.2398001254409076
-0.916347142930245
-0.12693944966163623
-0.23959494133760462
-0.916347142930245
-0.12693944966163623
-0.23959494133760462
-0.916347142930245
-0.12693944966163623
-0.23959494133760462
-0.916347142930245
-0.12693944966163623
-0.23959494133760462
-0.916400239595969
-0.12695278425439357
-0.23960467723794132
-0.916400239595969
-0.12695278425439357
-0.23960467723794132
-0.916400239595969
-0.12695278425439357
-0.23960467723794132
-0.916400239595969
-0.12695278425439357
-0.23960467723794132
-0.9157018606577323
-0.1267555754158829
-0.23969571438296858
-0.9157018606577323
-0.1267555754158829
-0.23969571438296858
-0.9157018606577323
-0.1267555754158829
-0.23969571438296858
-0.9157018606577323
-0.1267555754158829
-0.23969571438296858
-0.9143948809535238
-0.1261602317354176
-0.23972049422999706
-0.9143948809535238
-0.1261602317354176
-0.23972049422999706
-0.9143948809535238
-0.1261602317354176
-0.23972049422999706
-0.9143948809535238
-0.1261602317354176
-0.23972049422999706
-0.9143309165532505
-0.12532591150117756
-0.23971258630362466
-0.9143309165532505
-0.12532591150117756
-0.23971258630362466
-0.9143309165532505
-0.12532591150117756
-0.23971258630362466
-0.9143309165532505
-0.12532591150117756
-0.23971258630362466
-0.914344258703992
-0.1252733386675425
-0.23960278456426667
-0.914344258703992
-0.1252733386675425
-0.23960278456426667
-0.914344258703992
-0.1252733386675425
-0.23960278456426667
-0.914344258703992
-0.1252733386675425
-0.23960278456426667
-0.9134436730453687
-0.12571229125367198
-0.23993387707180433
-0.9134436730453687
-0.12571229125367198
-0.23993387707180433
-0.9134436730453687
-0.12571229125367198
-0.23993387707180433
-0.9134436730453687
-0.12571229125367198
-0.23993387707180433
-0.9129181378430121
-0.1254288957215051
-0.24007352934524356
-0.9129181378430121
-0.1254288957215051
-0.24007352934524356
-0.9129181378430121
-0.1254288957215051
-0.24007352934524356
-0.9129181378430121
-0.1254288957215051
-0.24007352934524356
-0.9127984753572229
-0.12552812639172717
-0.24003398128259998
-0.9127984753572229
-0.12552812639172717
-0.24003398128259998
-0.9127984753572229
-0.12552812639172717
-0.24003398128259998
-0.9127984753572229
-0.12552812639172717
-0.24003398128259998
-0.9118313484242847
-0.12535445739688902
-0.23997827281840878
-0.9118313484242847
-0.12535445739688902
-0.23997827281840878
-0.9118313484242847
-0.12535445739688902
-0.23997827281840878
-0.9118313484242847
-0.12535445739688902
-0.23997827281840878
-0.9118682766396836
-0.12629361592571325
-0.24020699396718892
-0.9118682766396836
-0.12629361592571325
-0.24020699396718892
-0.9118682766396836
-0.12629361592571325
-0.24020699396718892
-0.9118682766396836
-0.12629361592571325
-0.24020699396718892
-0.9115091572927063
-0.12774441520233196
-0.24048457536700976
-0.9115091572927063
-0.12774441520233196
-0.24048457536700976
-0.9115091572927063
-0.12774441520233196
-0.24048457536700976
-0.9115091572927063
-0.12774441520233196
-0.24048457536700976
-0.9120110759794744
-0.12934241366199015
-0.24079715976248217
-0.9120110759794744
-0.12934241366199015
-0.24079715976248217
-0.9120110759794744
-0.12934241366199015
-0.24079715976248217
-0.9120110759794744
-0.12934241366199015
-0.24079715976248217
-0.9136689583903029
-0.12960144060820603
-0.24108485800300822
-0.9136689583903029
-0.12960144060820603
-0.24108485800300822
-0.9136689583903029
-0.12960144060820603
-0.24108485800300822
-0.9136689583903029
-0.12960144060820603
-0.24108485800300822
-0.9151090841718934
-0.13004580098006255
-0.24098756652912562
-0.9151090841718934
-0.13004580098006255
-0.24098756652912562
-0.9151090841718934
-0.13004580098006255
-0.24098756652912562
-0.9151090841718934
-0.13004580098006255
-0.24098756652912562
-0.9148855013979804
-0.12997011763079977
-0.24117770970940833
-0.9148855013979804
-0.12997011763079977
-0.24117770970940833
-0.9148855013979804
-0.12997011763079977
-0.24117770970940833
-0.9148855013979804
-0.12997011763079977
-0.24117770970940833
-0.9147246773784871
-0.12972524503488952
-0.24156025637429607
-0.9147246773784871
-0.12972524503488952
-0.24156025637429607
-0.9147246773784871
-0.12972524503488952
-0.24156025637429607
