-1.0148120315418563
-0.2240428901795321
-0.45256628702725993
-1.0148120315418563
-0.2240428901795321
-0.45256628702725993
-1.0146486599324822
-0.2244243023210756
-0.4528197256199986
-1.0146486599324822
-0.2244243023210756
-0.4528197256199986
-1.0146486599324822
-0.2244243023210756
-0.4528197256199986
-1.0146486599324822
-0.2244243023210756
-0.4528197256199986
-1.014347033902187
-0.2247087458205936
-0.4529735019602916
-1.014347033902187
-0.2247087458205936
-0.4529735019602916
-1.014347033902187
-0.2247087458205936
-0.4529735019602916
-1.014347033902187
-0.2247087458205936
-0.4529735019602916
-1.014385698724582
-0.22494034261999812
-0.4531068697603942
-1.014385698724582
-0.22494034261999812
-0.4531068697603942
-1.014385698724582
-0.22494034261999812
-0.4531068697603942
-1.014385698724582
-0.22494034261999812
-0.4531068697603942
-1.0144034807106905
-0.22483553139952245
-0.4531630054141629
-1.0144034807106905
-0.22483553139952245
-0.4531630054141629
-1.0144034807106905
-0.22483553139952245
-0.4531630054141629
-1.0144034807106905
-0.22483553139952245
-0.4531630054141629
-1.0140015995310712
-0.2246082516982855
-0.45371274005287127
-1.0140015995310712
-0.2246082516982855
-0.45371274005287127
-1.0140015995310712
-0.2246082516982855
-0.45371274005287127
-1.0140015995310712
-0.2246082516982855
-0.45371274005287127
-1.0135791550388502
-0.22404433544554744
-0.4541850026404682
-1.0135791550388502
-0.22404433544554744
-0.4541850026404682
-1.0135791550388502
-0.22404433544554744
-0.4541850026404682
-1.0135791550388502
-0.22404433544554744
-0.4541850026404682
-1.0136557545216465
-0.22375927924664935
-0.45464224144975246
-1.0136557545216465
-0.22375927924664935
-0.45464224144975246
-1.0136557545216465
-0.22375927924664935
-0.45464224144975246
-1.0136557545216465
-0.22375927924664935
-0.45464224144975246
-1.0137811580015406
-0.22367191762313593
-0.4546728126057906
-1.0137811580015406
-0.22367191762313593
-0.4546728126057906
-1.0137811580015406
-0.22367191762313593
-0.4546728126057906
-1.0137811580015406
-0.22367191762313593
-0.4546728126057906
-1.0138066676235569
-0.22361722469749773
-0.4545653181152729
-1.0138066676235569
-0.22361722469749773
-0.4545653181152729
-1.0138066676235569
-0.22361722469749773
-0.4545653181152729
-1.0138066676235569
-0.22361722469749773
-0.4545653181152729
-1.0136609927325004
-0.22347007790154474
-0.45462900207131374
-1.0136609927325004
-0.22347007790154474
-0.45462900207131374
-1.0136609927325004
-0.22347007790154474
-0.45462900207131374
-1.0136609927325004
-0.22347007790154474
-0.45462900207131374
-1.0137684821412183
-0.22348754064094933
-0.4546035035976117
-1.0137684821412183
-0.22348754064094933
-0.4546035035976117
-1.0137684821412183
-0.22348754064094933
-0.4546035035976117
-1.0137684821412183
-0.22348754064094933
-0.4546035035976117
-1.0137684821412183
-0.22348754064094933
-0.4546035035976117
-1.0137684821412183
-0.22348754064094933
-0.4546035035976117
-1.0137684821412183
-0.22348754064094933
-0.4546035035976117
-1.0137684821412183
-0.22348754064094933
-0.4546035035976117
-1.0137684821412183
-0.22348754064094933
-0.4546035035976117
-1.0137684821412183
-0.22348754064094933
-0.4546035035976117
-1.0137684821412183
-0.22348754064094933
-0.4546035035976117
-1.0137684821412183
-0.22348754064094933
-0.4546035035976117
-1.0137863911253433
-0.22338272774182083
-0.45465959044743165
-1.0137863911253433
-0.22338272774182083
-0.45465959044743165
-1.0137863911253433
-0.22338272774182083
-0.45465959044743165
-1.0137863911253433
-0.22338272774182083
-0.45465959044743165
-1.0143154023300869
-0.22321586821928105
-0.454352603149046
-1.0143154023300869
-0.22321586821928105
-0.454352603149046
-1.0143154023300869
-0.22321586821928105
-0.454352603149046
-1.0143154023300869
-0.22321586821928105
-0.454352603149046
-1.0149009077715265
-0.22317579817431155
-0.4542351256876969
-1.0149009077715265
-0.22317579817431155
-0.4542351256876969
-1.0149009077715265
-0.22317579817431155
-0.4542351256876969
-1.0149009077715265
-0.22317579817431155
-0.4542351256876969
-1.0149009077715265
-0.22317579817431155
-0.4542351256876969
-1.0149009077715265
-0.22317579817431155
-0.4542351256876969
-1.0149009077715265
-0.22317579817431155
-0.4542351256876969
-1.0149009077715265
-0.22317579817431155
-0.4542351256876969
-1.0149187917890976
-0.22307100791843493
-0.4542912818441098
-1.0149187917890976
-0.22307100791843493
-0.4542912818441098
-1.0149187917890976
-0.22307100791843493
-0.4542912818441098
-1.0149187917890976
-0.22307100791843493
-0.4542912818441098
-1.0149442663858317
-0.22301624075786242
-0.45418382954599085
-1.0149442663858317
-0.22301624075786242
-0.45418382954599085
-1.0149442663858317
-0.22301624075786242
-0.45418382954599085
-1.0149442663858317
-0.22301624075786242
-0.45418382954599085
-1.0151567685932381
-0.2231355066081451
-0.45452925864825017
-1.0151567685932381
-0.2231355066081451
-0.45452925864825017
-1.0151567685932381
-0.2231355066081451
-0.45452925864825017
-1.0151567685932381
-0.2231355066081451
-0.45452925864825017
-1.015208038190483
-0.22332918357559434
-0.45533997291256534
-1.015208038190483
-0.22332918357559434
-0.45533997291256534
-1.015208038190483
-0.22332918357559434
-0.45533997291256534
-1.015208038190483
-0.22332918357559434
-0.45533997291256534
-1.0148067492043789
-0.2236273400131521
-0.45630676082950417
-1.0148067492043789
-0.2236273400131521
-0.45630676082950417
-1.0148067492043789
-0.2236273400131521
-0.45630676082950417
-1.0148067492043789
-0.2236273400131521
-0.45630676082950417
-1.014028717353225
-0.22418668751274384
-0.4571822181604531
-1.014028717353225
-0.22418668751274384
-0.4571822181604531
-1.014028717353225
-0.22418668751274384
-0.4571822181604531
-1.014028717353225
-0.22418668751274384
-0.4571822181604531
-1.0134479254355022
-0.22423903006910822
-0.45831272208725016
-1.0134479254355022
-0.22423903006910822
-0.45831272208725016
-1.0134479254355022
-0.22423903006910822
-0.45831272208725016
-1.0134479254355022
-0.22423903006910822
-0.45831272208725016
-1.015492152406028
-0.2236991168338197
-0.46054654346028157
-1.015492152406028
-0.2236991168338197
-0.46054654346028157
-1.015492152406028
-0.2236991168338197
-0.46054654346028157
-1.015492152406028
-0.2236991168338197
-0.46054654346028157
-1.0242073530145348
-0.22262701993679343
-0.4628972897101592
-1.0242073530145348
-0.22262701993679343
-0.4628972897101592
-1.0242073530145348
-0.22262701993679343
-0.4628972897101592
-1.0242073530145348
-0.22262701993679343
-0.4628972897101592
-1.0391951178193086
-0.2224784172365971
-0.46510237163952295
-1.0391951178193086
-0.2224784172365971
-0.46510237163952295
-1.0391951178193086
-0.2224784172365971
-0.46510237163952295
-1.0391951178193086
-0.2224784172365971
-0.46510237163952295
-1.0598439560163344
-0.2221700362195594
-0.46609861830919314
-1.0598439560163344
-0.2221700362195594
-0.46609861830919314
-1.0598439560163344
-0.2221700362195594
-0.46609861830919314
-1.0598439560163344
-0.2221700362195594
-0.46609861830919314
-1.0791914120763761
-0.2208295516084094
-0.46744753442111203
-1.0791914120763761
-0.2208295516084094
-0.46744753442111203
-1.0791914120763761
-0.2208295516084094
-0.46744753442111203
-1.0791914120763761
-0.2208295516084094
-0.46744753442111203
-1.0906450678486426
-0.21936548585268328
-0.47123392129220604
-1.0906450678486426
-0.21936548585268328
-0.47123392129220604
-1.0906450678486426
-0.21936548585268328
-0.47123392129220604
-1.0906450678486426
-0.21936548585268328
-0.47123392129220604
-1.0971073405874971
-0.21899635743213833
-0.4768183843732749
-1.0971073405874971
-0.21899635743213833
-0.4768183843732749
-1.0971073405874971
-0.21899635743213833
-0.4768183843732749
-1.0971073405874971
-0.21899635743213833
-0.4768183843732749
-1.1038256136431053
-0.21949929339258067
-0.4817539708394843
-1.1038256136431053
-0.21949929339258067
-0.4817539708394843
-1.1038256136431053
-0.21949929339258067
-0.4817539708394843
-1.1038256136431053
-0.21949929339258067
-0.4817539708394843
-1.1122657004908933
-0.22131745202796396
-0.4851060964195968
-1.1122657004908933
-0.22131745202796396
-0.4851060964195968
-1.1122657004908933
-0.22131745202796396
-0.4851060964195968
-1.1122657004908933
-0.22131745202796396
-0.4851060964195968
-1.1210527858040493
-0.22410848905618636
-0.48792561824767
-1.1210527858040493
-0.22410848905618636
-0.48792561824767
-1.1210527858040493
-0.22410848905618636
-0.48792561824767
-1.1210527858040493
-0.22410848905618636
-0.48792561824767
-1.1273701855890135
-0.22650820991964615
-0.48991850600625036
-1.1273701855890135
-0.22650820991964615
-0.48991850600625036
-1.1273701855890135
-0.22650820991964615
-0.48991850600625036
-1.1273701855890135
-0.22650820991964615
-0.48991850600625036
-1.132125870443758
-0.22924087224202347
-0.49134728225399726
-1.132125870443758
-0.22924087224202347
-0.49134728225399726
-1.132125870443758
-0.22924087224202347
-0.49134728225399726
-1.132125870443758
-0.22924087224202347
-0.49134728225399726
-1.138042128492847
-0.2317490380675099
-0.49207796675757376
-1.138042128492847
-0.2317490380675099
-0.49207796675757376
-1.138042128492847
-0.2317490380675099
-0.49207796675757376
-1.138042128492847
-0.2317490380675099
-0.49207796675757376
-1.1430600429808482
-0.23278872032881395
-0.4925611853080009
-1.1430600429808482
-0.23278872032881395
-0.4925611853080009
-1.1430600429808482
-0.23278872032881395
-0.4925611853080009
-1.1430600429808482
-0.23278872032881395
-0.4925611853080009
-1.1440852955751222
-0.2333439574371623
-0.49424450562920086
-1.1440852955751222
-0.2333439574371623
-0.49424450562920086
-1.1440852955751222
-0.2333439574371623
-0.49424450562920086
-1.1440852955751222
-0.2333439574371623
-0.49424450562920086
-1.1455706175402467
-0.23346717174008466
-0.49594928039918484
-1.1455706175402467
-0.23346717174008466
-0.49594928039918484
-1.1455706175402467
-0.23346717174008466
-0.49594928039918484
-1.1455706175402467
-0.23346717174008466
-0.49594928039918484
-1.1487570408409584
-0.23301735832480452
-0.4972888988982471
-1.1487570408409584
-0.23301735832480452
-0.4972888988982471
-1.1487570408409584
-0.23301735832480452
-0.4972888988982471
-1.1487570408409584
-0.23301735832480452
-0.4972888988982471
-1.1521244809270652
-0.23177573020010414
-0.4982434512569645
-1.1521244809270652
-0.23177573020010414
-0.4982434512569645
-1.1521244809270652
-0.23177573020010414
-0.4982434512569645
-1.1521244809270652
-0.23177573020010414
-0.4982434512569645
-1.1532542967237482
-0.2307368317250385
-0.4992484826488329
-1.1532542967237482
-0.2307368317250385
-0.4992484826488329
-1.1532542967237482
-0.2307368317250385
-0.4992484826488329
-1.1532542967237482
-0.2307368317250385
-0.4992484826488329
-1.152795217500977
-0.22958877384627244
-0.4999824528823631
-1.152795217500977
-0.22958877384627244
-0.4999824528823631
-1.152795217500977
-0.22958877384627244
-0.4999824528823631
-1.152795217500977
-0.22958877384627244
-0.4999824528823631
-1.1520453292869712
-0.22880805151997852
-0.5002906893332125
-1.1520453292869712
-0.22880805151997852
-0.5002906893332125
-1.1520453292869712
-0.22880805151997852
-0.5002906893332125
-1.1520453292869712
-0.22880805151997852
-0.5002906893332125
-1.1519825879394474
-0.22878037822468378
-0.5002723898399325
-1.1519825879394474
-0.22878037822468378
-0.5002723898399325
-1.1519825879394474
-0.22878037822468378
-0.5002723898399325
-1.1519825879394474
-0.22878037822468378
-0.5002723898399325
-1.1524351459394735
-0.22753801406076757
-0.5006433382489166
-1.1524351459394735
-0.22753801406076757
-0.5006433382489166
-1.1524351459394735
-0.22753801406076757
-0.5006433382489166
-1.1524351459394735
-0.22753801406076757
-0.5006433382489166
-1.1530463030824754
-0.22601253143818475
-0.5011748419508472
-1.1530463030824754
-0.22601253143818475
-0.5011748419508472
-1.1530463030824754
-0.22601253143818475
-0.5011748419508472
-1.1530463030824754
-0.22601253143818475
-0.5011748419508472
-1.1530589911734157
-0.22536358815270063
-0.5021985323819332
-1.1530589911734157
-0.22536358815270063
-0.5021985323819332
-1.1530589911734157
-0.22536358815270063
-0.5021985323819332
-1.1530589911734157
-0.22536358815270063
-0.5021985323819332
-1.1540064261934333
-0.22467160560075136
-0.5031491897872787
-1.1540064261934333
-0.22467160560075136
-0.5031491897872787
-1.1540064261934333
-0.22467160560075136
-0.5031491897872787
-1.1540064261934333
-0.22467160560075136
-0.5031491897872787
-1.1553166814762443
-0.22372121876367937
-0.5039824289182127
-1.1553166814762443
-0.22372121876367937
-0.5039824289182127
-1.1553166814762443
-0.22372121876367937
-0.5039824289182127
-1.1553166814762443
-0.22372121876367937
-0.5039824289182127
-1.1574893799879171
-0.22236045333644727
-0.5046750309757523
-1.1574893799879171
-0.22236045333644727
-0.5046750309757523
-1.1574893799879171
-0.22236045333644727
-0.5046750309757523
-1.1574893799879171
-0.22236045333644727
-0.5046750309757523
-1.1604450412635487
-0.2205500553780494
-0.5047588147492579
-1.1604450412635487
-0.2205500553780494
-0.5047588147492579
-1.1604450412635487
-0.2205500553780494
-0.5047588147492579
-1.1604450412635487
-0.2205500553780494
-0.5047588147492579
-1.164059760234927
-0.218369446286822
-0.5042031115671433
-1.164059760234927
-0.218369446286822
-0.5042031115671433
-1.164059760234927
-0.218369446286822
-0.5042031115671433
-1.164059760234927
-0.218369446286822
-0.5042031115671433
-1.1681053419600125
-0.21647158325078233
-0.5032139755276825
-1.1681053419600125
-0.21647158325078233
-0.5032139755276825
-1.1681053419600125
-0.21647158325078233
-0.5032139755276825
-1.1681053419600125
-0.21647158325078233
-0.5032139755276825
-1.171383471964852
-0.21491010589664675
-0.5013333242323108
-1.171383471964852
-0.21491010589664675
-0.5013333242323108
-1.171383471964852
-0.21491010589664675
-0.5013333242323108
-1.171383471964852
-0.21491010589664675
-0.5013333242323108
-1.1723329187136478
-0.2170710683403341
-0.5007653121565451
-1.1723329187136478
-0.2170710683403341
-0.5007653121565451
-1.1723329187136478
-0.2170710683403341
-0.5007653121565451
-1.1723329187136478
-0.2170710683403341
-0.5007653121565451
-1.173517265919195
-0.21784274198272482
-0.5000179708674513
-1.173517265919195
-0.21784274198272482
-0.5000179708674513
-1.173517265919195
-0.21784274198272482
-0.5000179708674513
-1.173517265919195
-0.21784274198272482
-0.5000179708674513
-1.1740717526563151
-0.21710098060838076
-0.500195329167898
-1.1740717526563151
-0.21710098060838076
-0.500195329167898
-1.1740717526563151
-0.21710098060838076
-0.500195329167898
-1.1740717526563151
-0.21710098060838076
-0.500195329167898
-1.1767378842930167
-0.2158783452006595
-0.5008796764277638
-1.1767378842930167
-0.2158783452006595
-0.5008796764277638
-1.1767378842930167
-0.2158783452006595
-0.5008796764277638
-1.1767378842930167
-0.2158783452006595
-0.5008796764277638
-1.1780302978730934
-0.21415196153129518
-0.5014671586596272
-1.1780302978730934
-0.21415196153129518
-0.5014671586596272
-1.1780302978730934
-0.21415196153129518
-0.5014671586596272
-1.1780302978730934
-0.21415196153129518
-0.5014671586596272
-1.176664512650623
-0.21314636221275926
-0.5021665598194006
-1.176664512650623
-0.21314636221275926
-0.5021665598194006
-1.176664512650623
-0.21314636221275926
-0.5021665598194006
-1.176664512650623
-0.21314636221275926
-0.5021665598194006
-1.1765811431031443
-0.213028656498112
-0.5022583978286029
-1.1765811431031443
-0.213028656498112
-0.5022583978286029
-1.1765811431031443
-0.213028656498112
-0.5022583978286029
-1.1765811431031443
-0.213028656498112
-0.5022583978286029
-1.1764152361829658
-0.21298334445137523
-0.5022676837043751
-1.1764152361829658
-0.21298334445137523
-0.5022676837043751
-1.1764152361829658
-0.21298334445137523
-0.5022676837043751
-1.1764152361829658
-0.21298334445137523
-0.5022676837043751
-1.1766830406227515
-0.21304677051233156
-0.5022305728801177
-1.1766830406227515
-0.21304677051233156
-0.5022305728801177
-1.1766830406227515
-0.21304677051233156
-0.5022305728801177
-1.1766830406227515
-0.21304677051233156
-0.5022305728801177
-1.1767015746018412
-0.21294718059679546
-0.5022945860478748
-1.1767015746018412
-0.21294718059679546
-0.5022945860478748
-1.1767015746018412
-0.21294718059679546
-0.5022945860478748
-1.1767015746018412
-0.21294718059679546
-0.5022945860478748
-1.17577879564774
-0.21237556554711914
-0.5027728418220409
-1.17577879564774
-0.21237556554711914
-0.5027728418220409
-1.17577879564774
-0.21237556554711914
-0.5027728418220409
-1.17577879564774
-0.21237556554711914
-0.5027728418220409
-1.175493067167945
-0.21175862572271945
-0.5033232009893428
-1.175493067167945
-0.21175862572271945
-0.5033232009893428
-1.175493067167945
-0.21175862572271945
-0.5033232009893428
-1.175493067167945
-0.21175862572271945
-0.5033232009893428
-1.1754856603797625
-0.21095342034019182
-0.5036780013846147
-1.1754856603797625
-0.21095342034019182
-0.5036780013846147
-1.1754856603797625
-0.21095342034019182
-0.5036780013846147
-1.1754856603797625
-0.21095342034019182
-0.5036780013846147
-1.1745452734292687
-0.21048049124962925
-0.5040909166237393
-1.1745452734292687
-0.21048049124962925
-0.5040909166237393
-1.1745452734292687
-0.21048049124962925
-0.5040909166237393
-1.1745452734292687
-0.21048049124962925
-0.5040909166237393
-1.1734746129582314
-0.21053067146011709
-0.5044518406853272
-1.1734746129582314
-0.21053067146011709
-0.5044518406853272
-1.1734746129582314
-0.21053067146011709
-0.5044518406853272
-1.1734746129582314
-0.21053067146011709
-0.5044518406853272
-1.173428114762761
-0.21069275271498475
-0.5044899334607168
-1.173428114762761
-0.21069275271498475
-0.5044899334607168
-1.173428114762761
-0.21069275271498475
-0.5044899334607168
-1.173428114762761
-0.21069275271498475
-0.5044899334607168
-1.1743324426134896
-0.21071202663605412
-0.5045262003068123
-1.1743324426134896
-0.21071202663605412
-0.5045262003068123
-1.1743324426134896
-0.21071202663605412
-0.5045262003068123
-1.1743324426134896
-0.21071202663605412
-0.5045262003068123
-1.175238161820531
-0.21013702719279373
-0.5043557708451885
-1.175238161820531
-0.21013702719279373
-0.5043557708451885
-1.175238161820531
-0.21013702719279373
-0.5043557708451885
-1.175238161820531
-0.21013702719279373
-0.5043557708451885
-1.1743901796704717
-0.2098188900697534
-0.5045108712395872
-1.1743901796704717
-0.2098188900697534
-0.5045108712395872
-1.1743901796704717
-0.2098188900697534
-0.5045108712395872
-1.1743901796704717
-0.2098188900697534
-0.5045108712395872
-1.173791098141883
-0.2096641318266349
-0.5045652849974773
-1.173791098141883
-0.2096641318266349
-0.5045652849974773
-1.173791098141883
-0.2096641318266349
-0.5045652849974773
-1.173791098141883
-0.2096641318266349
-0.5045652849974773
-1.173625374963075
-0.209618668376829
-0.5045741736510124
-1.173625374963075
-0.209618668376829
-0.5045741736510124
-1.173625374963075
-0.209618668376829
-0.5045741736510124
-1.173625374963075
-0.209618668376829
-0.5045741736510124
-1.1739014337861302
-0.20983449434637352
-0.5047601478977998
-1.1739014337861302
-0.20983449434637352
-0.5047601478977998
-1.1739014337861302
-0.20983449434637352
-0.5047601478977998
-1.1739014337861302
-0.20983449434637352
-0.5047601478977998
-1.1735679877477077
-0.21014708607015167
-0.5051592967428358
-1.1735679877477077
-0.21014708607015167
-0.5051592967428358
-1.1735679877477077
-0.21014708607015167
-0.5051592967428358
-1.1735679877477077
-0.21014708607015167
-0.5051592967428358
-1.1729390091965761
-0.21045795322830596
-0.5056971808564317
-1.1729390091965761
-0.21045795322830596
-0.5056971808564317
-1.1729390091965761
-0.21045795322830596
-0.5056971808564317
-1.1729390091965761
-0.21045795322830596
-0.5056971808564317
-1.1724772591366053
-0.21052524454106228
-0.5062330879986886
-1.1724772591366053
-0.21052524454106228
-0.5062330879986886
-1.1724772591366053
-0.21052524454106228
-0.5062330879986886
-1.1724772591366053
-0.21052524454106228
-0.5062330879986886
-1.1724583912661666
-0.2106249238104755
-0.5061693375636291
-1.1724583912661666
-0.2106249238104755
-0.5061693375636291
-1.1724583912661666
-0.2106249238104755
-0.5061693375636291
-1.1724583912661666
-0.2106249238104755
-0.5061693375636291
-1.1717756641241817
-0.210465838192432
-0.5067037430876629
-1.1717756641241817
-0.210465838192432
-0.5067037430876629
-1.1717756641241817
-0.210465838192432
-0.5067037430876629
-1.1717756641241817
-0.210465838192432
-0.5067037430876629
-1.1709273946601138
-0.21026068809561202
-0.5072468686790728
-1.1709273946601138
-0.21026068809561202
-0.5072468686790728
-1.1709273946601138
-0.21026068809561202
-0.5072468686790728
-1.1709273946601138
-0.21026068809561202
-0.5072468686790728
-1.1711498954648867
-0.21000725197369963
-0.5074290468749242
-1.1711498954648867
-0.21000725197369963
-0.5074290468749242
-1.1711498954648867
-0.21000725197369963
-0.5074290468749242
-1.1711498954648867
-0.21000725197369963
-0.5074290468749242
-1.171762670547787
-0.20925739638098417
-0.5077912699591143
-1.171762670547787
-0.20925739638098417
-0.5077912699591143
-1.171762670547787
-0.20925739638098417
-0.5077912699591143
-1.171762670547787
-0.20925739638098417
-0.5077912699591143
-1.1721569891296961
-0.2079926383870118
-0.5081586672951549
-1.1721569891296961
-0.2079926383870118
-0.5081586672951549
-1.1721569891296961
-0.2079926383870118
-0.5081586672951549
-1.1721569891296961
-0.2079926383870118
-0.5081586672951549
-1.1715517578383239
-0.20743406376082504
-0.5089466748829232
-1.1715517578383239
-0.20743406376082504
-0.5089466748829232
-1.1715517578383239
-0.20743406376082504
-0.5089466748829232
-1.1715517578383239
-0.20743406376082504
-0.5089466748829232
-1.1706053780431325
-0.20692043015540784
-0.5095221142555119
-1.1706053780431325
-0.20692043015540784
-0.5095221142555119
-1.1706053780431325
-0.20692043015540784
-0.5095221142555119
-1.1706053780431325
-0.20692043015540784
-0.5095221142555119
-1.169954370963689
-0.20640873523240777
-0.5099590585599783
-1.169954370963689
-0.20640873523240777
-0.5099590585599783
-1.169954370963689
-0.20640873523240777
-0.5099590585599783
-1.169954370963689
-0.20640873523240777
-0.5099590585599783
-1.170023188615057
-0.20566718431425962
-0.5101644733016607
-1.170023188615057
-0.20566718431425962
-0.5101644733016607
-1.170023188615057
-0.20566718431425962
-0.5101644733016607
-1.170023188615057
-0.20566718431425962
-0.5101644733016607
-1.1697500369895495
-0.205162289172943
-0.5099834968810104
-1.1697500369895495
-0.205162289172943
-0.5099834968810104
-1.1697500369895495
-0.205162289172943
-0.5099834968810104
-1.1697500369895495
-0.205162289172943
-0.5099834968810104
-1.16932796320614
-0.20468662659822595
-0.509479858677094
-1.16932796320614
-0.20468662659822595
-0.509479858677094
-1.16932796320614
-0.20468662659822595
-0.509479858677094
-1.16932796320614
-0.20468662659822595
-0.509479858677094
-1.1690027027153864
-0.20480729789010527
-0.508936587021557
-1.1690027027153864
-0.20480729789010527
-0.508936587021557
-1.1690027027153864
-0.20480729789010527
-0.508936587021557
-1.1690027027153864
-0.20480729789010527
-0.508936587021557
-1.1693118717363553
-0.20547857286014146
-0.5086764843875329
-1.1693118717363553
-0.20547857286014146
-0.5086764843875329
-1.1693118717363553
-0.20547857286014146
-0.5086764843875329
-1.1693118717363553
-0.20547857286014146
-0.5086764843875329
-1.1695217256524686
-0.20595627722724918
-0.5088382397194791
-1.1695217256524686
-0.20595627722724918
-0.5088382397194791
-1.1695217256524686
-0.20595627722724918
-0.5088382397194791
-1.1695217256524686
-0.20595627722724918
-0.5088382397194791
-1.1690312563330902
-0.2063729308114728
-0.5094688437957089
-1.1690312563330902
-0.2063729308114728
-0.5094688437957089
-1.1690312563330902
-0.2063729308114728
-0.5094688437957089
-1.1690312563330902
-0.2063729308114728
-0.5094688437957089
-1.1691412908979373
-0.2066570531266643
-0.5100527081540072
-1.1691412908979373
-0.2066570531266643
-0.5100527081540072
-1.1691412908979373
-0.2066570531266643
-0.5100527081540072
-1.1691412908979373
-0.2066570531266643
-0.5100527081540072
-1.1695491198737553
-0.2063499305519898
-0.5102900792295016
-1.1695491198737553
-0.2063499305519898
-0.5102900792295016
-1.1695491198737553
-0.2063499305519898
-0.5102900792295016
-1.1695491198737553
-0.2063499305519898
-0.5102900792295016
-1.1701665673406034
-0.20640674522095748
-0.5103007705151344
-1.1701665673406034
-0.20640674522095748
-0.5103007705151344
-1.1701665673406034
-0.20640674522095748
-0.5103007705151344
-1.1701665673406034
-0.20640674522095748
-0.5103007705151344
-1.1706270008260364
-0.2064550943966359
-0.5101543982923281
-1.1706270008260364
-0.2064550943966359
-0.5101543982923281
-1.1706270008260364
-0.2064550943966359
-0.5101543982923281
-1.1706270008260364
-0.2064550943966359
-0.5101543982923281
-1.1715117937853674
-0.20657655614459372
-0.5101288900572888
-1.1715117937853674
-0.20657655614459372
-0.5101288900572888
-1.1715117937853674
-0.20657655614459372
-0.5101288900572888
-1.1715117937853674
-0.20657655614459372
-0.5101288900572888
-1.1720382030925511
-0.2064775882632203
-0.5103963149913465
-1.1720382030925511
-0.2064775882632203
-0.5103963149913465
-1.1720382030925511
-0.2064775882632203
-0.5103963149913465
-1.1720382030925511
-0.2064775882632203
-0.5103963149913465
-1.17234377203445
-0.2064575246334333
-0.5108758340951713
-1.17234377203445
-0.2064575246334333
-0.5108758340951713
-1.17234377203445
-0.2064575246334333
-0.5108758340951713
-1.17234377203445
-0.2064575246334333
-0.5108758340951713
-1.1732835210177255
-0.20668386381669365
-0.51142318080368
-1.1732835210177255
-0.20668386381669365
-0.51142318080368
-1.1732835210177255
-0.20668386381669365
-0.51142318080368
-1.1732835210177255
-0.20668386381669365
-0.51142318080368
-1.17499502792147
-0.2073413987399073
-0.5115682193109329
-1.17499502792147
-0.2073413987399073
-0.5115682193109329
-1.17499502792147
-0.2073413987399073
-0.5115682193109329
-1.17499502792147
-0.2073413987399073
-0.5115682193109329
-1.176974859988768
-0.20775806678470557
-0.5114623338617097
-1.176974859988768
-0.20775806678470557
-0.5114623338617097
-1.176974859988768
-0.20775806678470557
-0.5114623338617097
-1.176974859988768
-0.20775806678470557
-0.5114623338617097
-1.1771404479846608
-0.20780404867495259
-0.5114536565159111
-1.1771404479846608
-0.20780404867495259
-0.5114536565159111
-1.1771404479846608
-0.20780404867495259
-0.5114536565159111
-1.1771404479846608
-0.20780404867495259
-0.5114536565159111
-1.1783948033363494
-0.20781904269039755
-0.5115376614555842
-1.1783948033363494
-0.20781904269039755
-0.5115376614555842
-1.1783948033363494
-0.20781904269039755
-0.5115376614555842
-1.1783948033363494
-0.20781904269039755
-0.5115376614555842
-1.1799654290807853
-0.20744803642497842
-0.5115549617455742
-1.1799654290807853
-0.20744803642497842
-0.5115549617455742
-1.1799654290807853
-0.20744803642497842
-0.5115549617455742
-1.1799654290807853
-0.20744803642497842
-0.5115549617455742
-1.1805495933465702
-0.20693640872729618
-0.5116270424572054
-1.1805495933465702
-0.20693640872729618
-0.5116270424572054
-1.1805495933465702
-0.20693640872729618
-0.5116270424572054
-1.1805495933465702
-0.20693640872729618
-0.5116270424572054
-1.1789863706496322
-0.20613509934210114
-0.51141820145246
-1.1789863706496322
-0.20613509934210114
-0.51141820145246
-1.1789863706496322
-0.20613509934210114
-0.51141820145246
-1.1789863706496322
-0.20613509934210114
-0.51141820145246
-1.1766543338575417
-0.20578421588804274
-0.5106929570979166
-1.1766543338575417
-0.20578421588804274
-0.5106929570979166
-1.1766543338575417
-0.20578421588804274
-0.5106929570979166
-1.1766543338575417
-0.20578421588804274
-0.5106929570979166
-1.1755358478307776
-0.2058215646248397
-0.5095297378446204
-1.1755358478307776
-0.2058215646248397
-0.5095297378446204
-1.1755358478307776
-0.2058215646248397
-0.5095297378446204
-1.1755358478307776
-0.2058215646248397
-0.5095297378446204
-1.1749433982293966
-0.20595193216471006
-0.5084597704622189
-1.1749433982293966
-0.20595193216471006
-0.5084597704622189
-1.1749433982293966
-0.20595193216471006
-0.5084597704622189
-1.1749433982293966
-0.20595193216471006
-0.5084597704622189
-1.1736785457841759
-0.20596099149191813
-0.5077570456538587
-1.1736785457841759
-0.20596099149191813
-0.5077570456538587
-1.1736785457841759
-0.20596099149191813
-0.5077570456538587
-1.1736785457841759
-0.20596099149191813
-0.5077570456538587
-1.172273827954958
-0.20657159307175443
-0.5075568014236559
-1.172273827954958
-0.20657159307175443
-0.5075568014236559
-1.172273827954958
-0.20657159307175443
-0.5075568014236559
-1.172273827954958
-0.20657159307175443
-0.5075568014236559
-1.1726030032552346
-0.20714257579758183
-0.5073589125746514
-1.1726030032552346
-0.20714257579758183
-0.5073589125746514
-1.1726030032552346
-0.20714257579758183
-0.5073589125746514
-1.1726030032552346
-0.20714257579758183
-0.5073589125746514
-1.1734033631197196
-0.2076241000784925
-0.5072434027808165
-1.1734033631197196
-0.2076241000784925
-0.5072434027808165
-1.1734033631197196
-0.2076241000784925
-0.5072434027808165
-1.1734033631197196
-0.2076241000784925
-0.5072434027808165
-1.1737981911941398
-0.2080479912956825
-0.5074590103362774
-1.1737981911941398
-0.2080479912956825
-0.5074590103362774
-1.1737981911941398
-0.2080479912956825
-0.5074590103362774
-1.1737981911941398
-0.2080479912956825
-0.5074590103362774
-1.173112558774645
-0.20865709387023215
-0.5078048527991299
-1.173112558774645
-0.20865709387023215
-0.5078048527991299
-1.173112558774645
-0.20865709387023215
-0.5078048527991299
-1.173112558774645
-0.20865709387023215
-0.5078048527991299
-1.1731744936736814
-0.209163748132604
-0.5076428768729889
-1.1731744936736814
-0.209163748132604
-0.5076428768729889
-1.1731744936736814
-0.209163748132604
-0.5076428768729889
-1.1731744936736814
-0.209163748132604
-0.5076428768729889
-1.1737443877089788
-0.20974650471699585
-0.5071211664576863
-1.1737443877089788
-0.20974650471699585
-0.5071211664576863
-1.1737443877089788
-0.20974650471699585
-0.5071211664576863
-1.1737443877089788
-0.20974650471699585
-0.5071211664576863
-1.1738967932626496
-0.21069726412678133
-0.5066947623962175
-1.1738967932626496
-0.21069726412678133
-0.5066947623962175
-1.1738967932626496
-0.21069726412678133
-0.5066947623962175
-1.1738967932626496
-0.21069726412678133
-0.5066947623962175
-1.1734415297468588
-0.21145545214340208
-0.5064887271170635
-1.1734415297468588
-0.21145545214340208
-0.5064887271170635
-1.1734415297468588
-0.21145545214340208
-0.5064887271170635
-1.1734415297468588
-0.21145545214340208
-0.5064887271170635
-1.1719437797593215
-0.21202569377634
-0.5069381233838348
-1.1719437797593215
-0.21202569377634
-0.5069381233838348
-1.1719437797593215
-0.21202569377634
-0.5069381233838348
-1.1719437797593215
-0.21202569377634
-0.5069381233838348
-1.171043419221065
-0.2128651865877353
-0.5077220430250048
-1.171043419221065
-0.2128651865877353
-0.5077220430250048
-1.171043419221065
-0.2128651865877353
-0.5077220430250048
-1.171043419221065
-0.2128651865877353
-0.5077220430250048
-1.1711308033483652
-0.2135383269995045
-0.5082356251335868
-1.1711308033483652
-0.2135383269995045
-0.5082356251335868
-1.1711308033483652
-0.2135383269995045
-0.5082356251335868
-1.1711308033483652
-0.2135383269995045
-0.5082356251335868
-1.1713009913895704
-0.21432971308137824
-0.5086575478480287
-1.1713009913895704
-0.21432971308137824
-0.5086575478480287
-1.1713009913895704
-0.21432971308137824
-0.5086575478480287
-1.1713009913895704
-0.21432971308137824
-0.5086575478480287
-1.1714330958091583
-0.2153205507510429
-0.5089521031907418
-1.1714330958091583
-0.2153205507510429
-0.5089521031907418
-1.1714330958091583
-0.2153205507510429
-0.5089521031907418
-1.1714330958091583
-0.2153205507510429
-0.5089521031907418
-1.1715365627600898
-0.21654835535264527
-0.5089535601146822
-1.1715365627600898
-0.21654835535264527
-0.5089535601146822
-1.1715365627600898
-0.21654835535264527
-0.5089535601146822
-1.1715365627600898
-0.21654835535264527
-0.5089535601146822
-1.171698730266532
-0.21736275624335913
-0.5087570585810762
-1.171698730266532
-0.21736275624335913
-0.5087570585810762
-1.171698730266532
-0.21736275624335913
-0.5087570585810762
-1.171698730266532
-0.21736275624335913
-0.5087570585810762
-1.1717820395361973
-0.2174808137086956
-0.5086651691592764
-1.1717820395361973
-0.2174808137086956
-0.5086651691592764
-1.1717820395361973
-0.2174808137086956
-0.5086651691592764
-1.1717820395361973
-0.2174808137086956
-0.5086651691592764
-1.1717820395361973
-0.2174808137086956
-0.5086651691592764
-1.1717820395361973
-0.2174808137086956
-0.5086651691592764
-1.1717820395361973
-0.2174808137086956
-0.5086651691592764
-1.1717820395361973
-0.2174808137086956
-0.5086651691592764
-1.1712355410749544
-0.21779404015988862
-0.5087255871747369
-1.1712355410749544
-0.21779404015988862
-0.5087255871747369
-1.1712355410749544
-0.21779404015988862
-0.5087255871747369
-1.1712355410749544
-0.21779404015988862
-0.5087255871747369
-1.1699215747150553
-0.21819425139959878
-0.5088460725408288
-1.1699215747150553
-0.21819425139959878
-0.5088460725408288
-1.1699215747150553
-0.21819425139959878
-0.5088460725408288
-1.1699215747150553
-0.21819425139959878
-0.5088460725408288
-1.1689201005216936
-0.21878603318200154
-0.5088846739222784
-1.1689201005216936
-0.21878603318200154
-0.5088846739222784
-1.1689201005216936
-0.21878603318200154
-0.5088846739222784
-1.1689201005216936
-0.21878603318200154
-0.5088846739222784
-1.16918828804701
-0.21902568579247866
-0.5084518690383467
-1.16918828804701
-0.21902568579247866
-0.5084518690383467
-1.16918828804701
-0.21902568579247866
-0.5084518690383467
-1.16918828804701
-0.21902568579247866
-0.5084518690383467
-1.1688310289896962
-0.2188820268605563
-0.5081841174366447
-1.1688310289896962
-0.2188820268605563
-0.5081841174366447
-1.1688310289896962
-0.2188820268605563
-0.5081841174366447
-1.1688310289896962
-0.2188820268605563
-0.5081841174366447
-1.1675768811501674
-0.21838974123330504
-0.5082868562438162
-1.1675768811501674
-0.21838974123330504
-0.5082868562438162
-1.1675768811501674
-0.21838974123330504
-0.5082868562438162
-1.1675768811501674
-0.21838974123330504
-0.5082868562438162
-1.166758980891058
-0.21771837521963272
-0.5083477415626234
-1.166758980891058
-0.21771837521963272
-0.5083477415626234
-1.166758980891058
-0.21771837521963272
-0.5083477415626234
-1.166758980891058
-0.21771837521963272
-0.5083477415626234
-1.166893176100306
-0.2169059716540729
-0.5084025880695578
-1.166893176100306
-0.2169059716540729
-0.5084025880695578
-1.166893176100306
-0.2169059716540729
-0.5084025880695578
-1.166893176100306
-0.2169059716540729
-0.5084025880695578
-1.1662146078928532
-0.21586254368751112
-0.5087350213809817
-1.1662146078928532
-0.21586254368751112
-0.5087350213809817
-1.1662146078928532
-0.21586254368751112
-0.5087350213809817
-1.1662146078928532
-0.21586254368751112
-0.5087350213809817
-1.1653049402854598
-0.21503457081048175
-0.5090512894725467
-1.1653049402854598
-0.21503457081048175
-0.5090512894725467
-1.1653049402854598
-0.21503457081048175
-0.5090512894725467
-1.1653049402854598
-0.21503457081048175
-0.5090512894725467
-1.164487921084381
-0.21436289468355704
-0.5091098989825709
-1.164487921084381
-0.21436289468355704
-0.5091098989825709
-1.164487921084381
-0.21436289468355704
-0.5091098989825709
-1.164487921084381
-0.21436289468355704
-0.5091098989825709
-1.163483728422034
-0.21403420287654923
-0.5091084336132308
-1.163483728422034
-0.21403420287654923
-0.5091084336132308
-1.163483728422034
-0.21403420287654923
-0.5091084336132308
-1.163483728422034
-0.21403420287654923
-0.5091084336132308
-1.1621440569787556
-0.21401517921607302
-0.509508605433659
-1.1621440569787556
-0.21401517921607302
-0.509508605433659
-1.1621440569787556
-0.21401517921607302
-0.509508605433659
-1.1621440569787556
-0.21401517921607302
-0.509508605433659
-1.160365445013813
-0.21355749833170615
-0.5101244987053779
-1.160365445013813
-0.21355749833170615
-0.5101244987053779
-1.160365445013813
-0.21355749833170615
-0.5101244987053779
-1.160365445013813
-0.21355749833170615
-0.5101244987053779
-1.1576795577053407
-0.21233440355191005
-0.5102679607386654
-1.1576795577053407
-0.21233440355191005
-0.5102679607386654
-1.1576795577053407
-0.21233440355191005
-0.5102679607386654
-1.1576795577053407
-0.21233440355191005
-0.5102679607386654
-1.1541575529453163
-0.2107166039699102
-0.5100053318581605
-1.1541575529453163
-0.2107166039699102
-0.5100053318581605
-1.1541575529453163
-0.2107166039699102
-0.5100053318581605
-1.1541575529453163
-0.2107166039699102
-0.5100053318581605
-1.1487476673074837
-0.2076193179573481
-0.509319166723342
-1.1487476673074837
-0.2076193179573481
-0.509319166723342
-1.1487476673074837
-0.2076193179573481
-0.509319166723342
-1.1487476673074837
-0.2076193179573481
-0.509319166723342
-1.1357330123166565
-0.20457288675324176
-0.509919076202599
-1.1357330123166565
-0.20457288675324176
-0.509919076202599
-1.1357330123166565
-0.20457288675324176
-0.509919076202599
-1.1357330123166565
-0.20457288675324176
-0.509919076202599
-1.1222475736615676
-0.20248749517920286
-0.5106200619433245
-1.1222475736615676
-0.20248749517920286
-0.5106200619433245
-1.1222475736615676
-0.20248749517920286
-0.5106200619433245
-1.1222475736615676
-0.20248749517920286
-0.5106200619433245
-1.1166103299245602
-0.1996048938993172
-0.509628738290069
-1.1166103299245602
-0.1996048938993172
-0.509628738290069
-1.1166103299245602
-0.1996048938993172
-0.509628738290069
-1.1166103299245602
-0.1996048938993172
-0.509628738290069
-1.1182303935913032
-0.19552281165152785
-0.5061245552431255
-1.1182303935913032
-0.19552281165152785
-0.5061245552431255
-1.1182303935913032
-0.19552281165152785
-0.5061245552431255
-1.1182303935913032
-0.19552281165152785
-0.5061245552431255
-1.1162179255232547
-0.1910955199047754
-0.50111108268207
-1.1162179255232547
-0.1910955199047754
-0.50111108268207
-1.1162179255232547
-0.1910955199047754
-0.50111108268207
-1.1162179255232547
-0.1910955199047754
-0.50111108268207
-1.0991055769370925
-0.18611820162249304
-0.4995229009874066
-1.0991055769370925
-0.18611820162249304
-0.4995229009874066
-1.0991055769370925
-0.18611820162249304
-0.4995229009874066
-1.0991055769370925
-0.18611820162249304
-0.4995229009874066
-1.0704444103920445
-0.18259504628376613
-0.5014636450265378
-1.0704444103920445
-0.18259504628376613
-0.5014636450265378
-1.0704444103920445
-0.18259504628376613
-0.5014636450265378
-1.0704444103920445
-0.18259504628376613
-0.5014636450265378
-1.046852652478672
-0.18053200665531358
-0.502563890238655
-1.046852652478672
-0.18053200665531358
-0.502563890238655
-1.046852652478672
-0.18053200665531358
-0.502563890238655
-1.046852652478672
-0.18053200665531358
-0.502563890238655
-1.0396874413756452
-0.1792606257424317
-0.4994589112103123
-1.0396874413756452
-0.1792606257424317
-0.4994589112103123
-1.0396874413756452
-0.1792606257424317
-0.4994589112103123
-1.0396874413756452
-0.1792606257424317
-0.4994589112103123
-1.0433080414337483
-0.17813826014888776
-0.4942322800340722
-1.0433080414337483
-0.17813826014888776
-0.4942322800340722
-1.0433080414337483
-0.17813826014888776
-0.4942322800340722
-1.0433080414337483
-0.17813826014888776
-0.4942322800340722
-1.0400445813919266
-0.17716153419389002
-0.4903178346165462
-1.0400445813919266
-0.17716153419389002
-0.4903178346165462
-1.0400445813919266
-0.17716153419389002
-0.4903178346165462
-1.0400445813919266
-0.17716153419389002
-0.4903178346165462
-1.0214492443061924
-0.1761883936823073
-0.4907371334524632
-1.0214492443061924
-0.1761883936823073
-0.4907371334524632
-1.0214492443061924
-0.1761883936823073
-0.4907371334524632
-1.0214492443061924
-0.1761883936823073
-0.4907371334524632
-0.9919524183233156
-0.17658106377939492
-0.4953101890310217
-0.9919524183233156
-0.17658106377939492
-0.4953101890310217
-0.9919524183233156
-0.17658106377939492
-0.4953101890310217
-0.9919524183233156
-0.17658106377939492
-0.4953101890310217
-0.9632045185297508
-0.17701368976433768
-0.5000914366396517
-0.9632045185297508
-0.17701368976433768
-0.5000914366396517
-0.9632045185297508
-0.17701368976433768
-0.5000914366396517
-0.9632045185297508
-0.17701368976433768
-0.5000914366396517
-0.9445270329145127
-0.17731849127285843
-0.5018784636962148
-0.9445270329145127
-0.17731849127285843
-0.5018784636962148
-0.9445270329145127
-0.17731849127285843
-0.5018784636962148
-0.9445270329145127
-0.17731849127285843
-0.5018784636962148
-0.93399978508243
-0.17762387198837828
-0.5022945714092977
-0.93399978508243
-0.17762387198837828
-0.5022945714092977
-0.93399978508243
-0.17762387198837828
-0.5022945714092977
-0.93399978508243
-0.17762387198837828
-0.5022945714092977
-0.925490729273862
-0.17806176001479396
-0.5031724795527932
-0.925490729273862
-0.17806176001479396
-0.5031724795527932
-0.925490729273862
-0.17806176001479396
-0.5031724795527932
-0.925490729273862
-0.17806176001479396
-0.5031724795527932
-0.912856049270323
-0.17943595418080985
-0.5050429389109364
-0.912856049270323
-0.17943595418080985
-0.5050429389109364
-0.912856049270323
-0.17943595418080985
-0.5050429389109364
-0.912856049270323
-0.17943595418080985
-0.5050429389109364
-0.897151189539727
-0.181069634473438
-0.5068281840768714
-0.897151189539727
-0.181069634473438
-0.5068281840768714
-0.897151189539727
-0.181069634473438
-0.5068281840768714
-0.897151189539727
-0.181069634473438
-0.5068281840768714
-0.8845749656680982
-0.18157367696269264
-0.5073182084625312
-0.8845749656680982
-0.18157367696269264
-0.5073182084625312
-0.8845749656680982
-0.18157367696269264
-0.5073182084625312
-0.8845749656680982
-0.18157367696269264
-0.5073182084625312
-0.8813049112062568
-0.1821461230570559
-0.5068054425961527
-0.8813049112062568
-0.1821461230570559
-0.5068054425961527
-0.8813049112062568
-0.1821461230570559
-0.5068054425961527
-0.8813049112062568
-0.1821461230570559
-0.5068054425961527
-0.8864759962132281
-0.18313947530925515
-0.5056888038927843
-0.8864759962132281
-0.18313947530925515
-0.5056888038927843
-0.8864759962132281
-0.18313947530925515
-0.5056888038927843
-0.8864759962132281
-0.18313947530925515
-0.5056888038927843
-0.8943224388141784
-0.18457197019874733
-0.5044062564714266
-0.8943224388141784
-0.18457197019874733
-0.5044062564714266
-0.8943224388141784
-0.18457197019874733
-0.5044062564714266
-0.8943224388141784
-0.18457197019874733
-0.5044062564714266
-0.8999240909052607
-0.18554847537370853
-0.5035688767773372
-0.8999240909052607
-0.18554847537370853
-0.5035688767773372
-0.8999240909052607
-0.18554847537370853
-0.5035688767773372
-0.8999240909052607
-0.18554847537370853
-0.5035688767773372
-0.9007063733620284
-0.18592171462611537
-0.5038470020727573
-0.9007063733620284
-0.18592171462611537
-0.5038470020727573
-0.9007063733620284
-0.18592171462611537
-0.5038470020727573
-0.9007063733620284
-0.18592171462611537
-0.5038470020727573
-0.897249968888818
-0.185671802291028
-0.5051365786759269
-0.897249968888818
-0.185671802291028
-0.5051365786759269
-0.897249968888818
-0.185671802291028
-0.5051365786759269
-0.897249968888818
-0.185671802291028
-0.5051365786759269
-0.8964215014517521
-0.1861966685668991
-0.5058470432758737
-0.8964215014517521
-0.1861966685668991
-0.5058470432758737
-0.8964215014517521
-0.1861966685668991
-0.5058470432758737
-0.8964215014517521
-0.1861966685668991
-0.5058470432758737
-0.9006847068234387
-0.18763462683914012
-0.5053361661392652
-0.9006847068234387
-0.18763462683914012
-0.5053361661392652
-0.9006847068234387
-0.18763462683914012
-0.5053361661392652
-0.9006847068234387
-0.18763462683914012
-0.5053361661392652
-0.9073114672995948
-0.18891287537872212
-0.5036480455937249
-0.9073114672995948
-0.18891287537872212
-0.5036480455937249
-0.9073114672995948
-0.18891287537872212
-0.5036480455937249
-0.9073114672995948
-0.18891287537872212
-0.5036480455937249
-0.9123615872039041
-0.18916787595029017
-0.502267083725369
-0.9123615872039041
-0.18916787595029017
-0.502267083725369
-0.9123615872039041
-0.18916787595029017
-0.502267083725369
-0.9123615872039041
-0.18916787595029017
-0.502267083725369
-0.9152884329358287
-0.18865434089715918
-0.5014538111647382
-0.9152884329358287
-0.18865434089715918
-0.5014538111647382
-0.9152884329358287
-0.18865434089715918
-0.5014538111647382
-0.9152884329358287
-0.18865434089715918
-0.5014538111647382
-0.9176585772193068
-0.18749703172262067
-0.5010769699672801
-0.9176585772193068
-0.18749703172262067
-0.5010769699672801
-0.9176585772193068
-0.18749703172262067
-0.5010769699672801
-0.9176585772193068
-0.18749703172262067
-0.5010769699672801
-0.9210101406580102
-0.18567821136022844
-0.500475742165004
-0.9210101406580102
-0.18567821136022844
-0.500475742165004
-0.9210101406580102
-0.18567821136022844
-0.500475742165004
-0.9210101406580102
-0.18567821136022844
-0.500475742165004
-0.9263470704436754
-0.18389756152339634
-0.4990862835235039
-0.9263470704436754
-0.18389756152339634
-0.4990862835235039
-0.9263470704436754
-0.18389756152339634
-0.4990862835235039
-0.9263470704436754
-0.18389756152339634
-0.4990862835235039
-0.932013446160569
-0.1819009980026852
-0.49711869885719195
-0.932013446160569
-0.1819009980026852
-0.49711869885719195
-0.932013446160569
-0.1819009980026852
-0.49711869885719195
-0.932013446160569
-0.1819009980026852
-0.49711869885719195
-0.934837379609748
-0.17986175432275697
-0.49536612416520276
-0.934837379609748
-0.17986175432275697
-0.49536612416520276
-0.934837379609748
-0.17986175432275697
-0.49536612416520276
-0.934837379609748
-0.17986175432275697
-0.49536612416520276
-0.9337958222794436
-0.17849894425928864
-0.49441391182503674
-0.9337958222794436
-0.17849894425928864
-0.49441391182503674
-0.9337958222794436
-0.17849894425928864
-0.49441391182503674
-0.9337958222794436
-0.17849894425928864
-0.49441391182503674
-0.9306315209248119
-0.1776766717104269
-0.49354170657580465
-0.9306315209248119
-0.1776766717104269
-0.49354170657580465
-0.9306315209248119
-0.1776766717104269
-0.49354170657580465
-0.9306315209248119
-0.1776766717104269
-0.49354170657580465
-0.9295878953687495
-0.17749390613979737
-0.49242509152913927
-0.9295878953687495
-0.17749390613979737
-0.49242509152913927
-0.9295878953687495
-0.17749390613979737
-0.49242509152913927
-0.9295878953687495
-0.17749390613979737
-0.49242509152913927
-0.9324406661118108
-0.1775027502525518
-0.4908420596971228
-0.9324406661118108
-0.1775027502525518
-0.4908420596971228
-0.9324406661118108
-0.1775027502525518
-0.4908420596971228
-0.9324406661118108
-0.1775027502525518
-0.4908420596971228
-0.9361981093950262
-0.177490347136769
-0.48924490711376023
-0.9361981093950262
-0.177490347136769
-0.48924490711376023
-0.9361981093950262
-0.177490347136769
-0.48924490711376023
-0.9361981093950262
-0.177490347136769
-0.48924490711376023
-0.9368318631472299
-0.17699369345952387
-0.48794141629407417
-0.9368318631472299
-0.17699369345952387
-0.48794141629407417
-0.9368318631472299
-0.17699369345952387
-0.48794141629407417
-0.9368318631472299
-0.17699369345952387
-0.48794141629407417
-0.9333207687139985
-0.17678911820894297
-0.48736293223691957
-0.9333207687139985
-0.17678911820894297
-0.48736293223691957
-0.9333207687139985
-0.17678911820894297
-0.48736293223691957
-0.9333207687139985
-0.17678911820894297
-0.48736293223691957
-0.9278189363917242
-0.176380308945646
-0.4874918371875232
-0.9278189363917242
-0.176380308945646
-0.4874918371875232
-0.9278189363917242
-0.176380308945646
-0.4874918371875232
-0.9278189363917242
-0.176380308945646
-0.4874918371875232
-0.9241308103230311
-0.17630834332524084
-0.4872595132999941
-0.9241308103230311
-0.17630834332524084
-0.4872595132999941
-0.9241308103230311
-0.17630834332524084
-0.4872595132999941
-0.9241308103230311
-0.17630834332524084
-0.4872595132999941
-0.9232334271136279
-0.17641579398088356
-0.4868871069255511
-0.9232334271136279
-0.17641579398088356
-0.4868871069255511
-0.9232334271136279
-0.17641579398088356
-0.4868871069255511
-0.9232334271136279
-0.17641579398088356
-0.4868871069255511
-0.9245261022843378
-0.17694713768742634
-0.48610880110744603
-0.9245261022843378
-0.17694713768742634
-0.48610880110744603
-0.9245261022843378
-0.17694713768742634
-0.48610880110744603
-0.9245261022843378
-0.17694713768742634
-0.48610880110744603
-0.9247012590877359
-0.1773166869861373
-0.485641795590328
-0.9247012590877359
-0.1773166869861373
-0.485641795590328
-0.9247012590877359
-0.1773166869861373
-0.485641795590328
-0.9247012590877359
-0.1773166869861373
-0.485641795590328
-0.9216439205395656
-0.17758291735061343
-0.48624669910026186
-0.9216439205395656
-0.17758291735061343
-0.48624669910026186
-0.9216439205395656
-0.17758291735061343
-0.48624669910026186
-0.9216439205395656
-0.17758291735061343
-0.48624669910026186
-0.9174814483454338
-0.17810017055672386
-0.4871645543440211
-0.9174814483454338
-0.17810017055672386
-0.4871645543440211
-0.9174814483454338
-0.17810017055672386
-0.4871645543440211
-0.9174814483454338
-0.17810017055672386
-0.4871645543440211
-0.9161699197545519
-0.17896488922188533
-0.48741930162799935
-0.9161699197545519
-0.17896488922188533
-0.48741930162799935
-0.9161699197545519
-0.17896488922188533
-0.48741930162799935
-0.9161699197545519
-0.17896488922188533
-0.48741930162799935
-0.9187423854947618
-0.18021353989019306
-0.4867682527735038
-0.9187423854947618
-0.18021353989019306
-0.4867682527735038
-0.9187423854947618
-0.18021353989019306
-0.4867682527735038
-0.9187423854947618
-0.18021353989019306
-0.4867682527735038
-0.9217367482750894
-0.18133372823794497
-0.48616841813539485
-0.9217367482750894
-0.18133372823794497
-0.48616841813539485
-0.9217367482750894
-0.18133372823794497
-0.48616841813539485
-0.9217367482750894
-0.18133372823794497
-0.48616841813539485
-0.9223493219888822
-0.18200233979072197
-0.4863135705418735
-0.9223493219888822
-0.18200233979072197
-0.4863135705418735
-0.9223493219888822
-0.18200233979072197
-0.4863135705418735
-0.9223493219888822
-0.18200233979072197
-0.4863135705418735
-0.9213674034576955
-0.1824426621883748
-0.4871757738396648
-0.9213674034576955
-0.1824426621883748
-0.4871757738396648
-0.9213674034576955
-0.1824426621883748
-0.4871757738396648
-0.9213674034576955
-0.1824426621883748
-0.4871757738396648
-0.9206244405176871
-0.18307870153535288
-0.4880300395240892
-0.9206244405176871
-0.18307870153535288
-0.4880300395240892
-0.9206244405176871
-0.18307870153535288
-0.4880300395240892
-0.9206244405176871
-0.18307870153535288
-0.4880300395240892
-0.9208533837522005
-0.1839889207203834
-0.4885837044209403
-0.9208533837522005
-0.1839889207203834
-0.4885837044209403
-0.9208533837522005
-0.1839889207203834
-0.4885837044209403
-0.9208533837522005
-0.1839889207203834
-0.4885837044209403
-0.9214417612226697
-0.18470828087633406
-0.4888372936215025
-0.9214417612226697
-0.18470828087633406
-0.4888372936215025
-0.9214417612226697
-0.18470828087633406
-0.4888372936215025
-0.9214417612226697
-0.18470828087633406
-0.4888372936215025
-0.9214214243722552
-0.18482426257670484
-0.48934482716770433
-0.9214214243722552
-0.18482426257670484
-0.48934482716770433
-0.9214214243722552
-0.18482426257670484
-0.48934482716770433
-0.9214214243722552
-0.18482426257670484
-0.48934482716770433
-0.920933302122182
-0.18455360060982182
-0.4904529785066317
-0.920933302122182
-0.18455360060982182
-0.4904529785066317
-0.920933302122182
-0.18455360060982182
-0.4904529785066317
-0.920933302122182
-0.18455360060982182
-0.4904529785066317
-0.9206049834567864
-0.1843269681413149
-0.49155965921828154
-0.9206049834567864
-0.1843269681413149
-0.49155965921828154
-0.9206049834567864
-0.1843269681413149
-0.49155965921828154
-0.9206049834567864
-0.1843269681413149
-0.49155965921828154
-0.9207898336267502
-0.1842826128861928
-0.4927258533322566
-0.9207898336267502
-0.1842826128861928
-0.4927258533322566
-0.9207898336267502
-0.1842826128861928
-0.4927258533322566
-0.9207898336267502
-0.1842826128861928
-0.4927258533322566
-0.9212206610449459
-0.18441178563375363
-0.4938166807617999
-0.9212206610449459
-0.18441178563375363
-0.4938166807617999
-0.9212206610449459
-0.18441178563375363
-0.4938166807617999
-0.9212206610449459
-0.18441178563375363
-0.4938166807617999
-0.9234161533251604
-0.18425069280668027
-0.4949562184570759
-0.9234161533251604
-0.18425069280668027
-0.4949562184570759
-0.9234161533251604
-0.18425069280668027
-0.4949562184570759
-0.9234161533251604
-0.18425069280668027
-0.4949562184570759
-0.9274719242871042
-0.18361230511503984
-0.4962701505949693
-0.9274719242871042
-0.18361230511503984
-0.4962701505949693
-0.9274719242871042
-0.18361230511503984
-0.4962701505949693
-0.9274719242871042
-0.18361230511503984
-0.4962701505949693
-0.9352647718620745
-0.18292643237674486
-0.4983074783808019
-0.9352647718620745
-0.18292643237674486
-0.4983074783808019
-0.9352647718620745
-0.18292643237674486
-0.4983074783808019
-0.9352647718620745
-0.18292643237674486
-0.4983074783808019
-0.948947051608521
-0.18184768015317482
-0.5002422379035998
-0.948947051608521
-0.18184768015317482
-0.5002422379035998
-0.948947051608521
-0.18184768015317482
-0.5002422379035998
-0.948947051608521
-0.18184768015317482
-0.5002422379035998
-0.9661896935259494
-0.18108857900197545
-0.5020631197960238
-0.9661896935259494
-0.18108857900197545
-0.5020631197960238
-0.9661896935259494
-0.18108857900197545
-0.5020631197960238
-0.9661896935259494
-0.18108857900197545
-0.5020631197960238
-0.9842853425822776
-0.18053394519795432
-0.5047874882069121
-0.9842853425822776
-0.18053394519795432
-0.5047874882069121
-0.9842853425822776
-0.18053394519795432
-0.5047874882069121
-0.9842853425822776
-0.18053394519795432
-0.5047874882069121
-1.0007231012884965
-0.1802523105205395
-0.5078244565023292
-1.0007231012884965
-0.1802523105205395
-0.5078244565023292
-1.0007231012884965
-0.1802523105205395
-0.5078244565023292
-1.0007231012884965
-0.1802523105205395
-0.5078244565023292
-1.0140879066287265
-0.18063494863085958
-0.5110883528954191
-1.0140879066287265
-0.18063494863085958
-0.5110883528954191
-1.0140879066287265
-0.18063494863085958
-0.5110883528954191
-1.0140879066287265
-0.18063494863085958
-0.5110883528954191
-1.0247555355234128
-0.18175069359087734
-0.5140276368087516
-1.0247555355234128
-0.18175069359087734
-0.5140276368087516
-1.0247555355234128
-0.18175069359087734
-0.5140276368087516
-1.0247555355234128
-0.18175069359087734
-0.5140276368087516
-1.034184244903307
-0.1842648249305573
-0.5167730373552272
-1.034184244903307
-0.1842648249305573
-0.5167730373552272
-1.034184244903307
-0.1842648249305573
-0.5167730373552272
-1.034184244903307
-0.1842648249305573
-0.5167730373552272
-1.04363288467743
-0.1874189421253238
-0.5200308047390543
-1.04363288467743
-0.1874189421253238
-0.5200308047390543
-1.04363288467743
-0.1874189421253238
-0.5200308047390543
-1.04363288467743
-0.1874189421253238
-0.5200308047390543
-1.0544595942461967
-0.1901116968435141
-0.5231442737406298
-1.0544595942461967
-0.1901116968435141
-0.5231442737406298
-1.0544595942461967
-0.1901116968435141
-0.5231442737406298
-1.0544595942461967
-0.1901116968435141
-0.5231442737406298
-1.0702377139595718
-0.19152996655927185
-0.5253229443347518
-1.0702377139595718
-0.19152996655927185
-0.5253229443347518
-1.0702377139595718
-0.19152996655927185
-0.5253229443347518
-1.0702377139595718
-0.19152996655927185
-0.5253229443347518
-1.08829818227914
-0.19247546427763387
-0.527578311120156
-1.08829818227914
-0.19247546427763387
-0.527578311120156
-1.08829818227914
-0.19247546427763387
-0.527578311120156
-1.08829818227914
-0.19247546427763387
-0.527578311120156
-1.1021191936510684
-0.1933763054321428
-0.5307444385494611
-1.1021191936510684
-0.1933763054321428
-0.5307444385494611
-1.1021191936510684
-0.1933763054321428
-0.5307444385494611
-1.1021191936510684
-0.1933763054321428
-0.5307444385494611
-1.109631406762247
-0.19604339760370879
-0.5350180933048215
-1.109631406762247
-0.19604339760370879
-0.5350180933048215
-1.109631406762247
-0.19604339760370879
-0.5350180933048215
-1.109631406762247
-0.19604339760370879
-0.5350180933048215
-1.1158170832898404
-0.20056722774047162
-0.5395802406387377
-1.1158170832898404
-0.20056722774047162
-0.5395802406387377
-1.1158170832898404
-0.20056722774047162
-0.5395802406387377
-1.1158170832898404
-0.20056722774047162
-0.5395802406387377
-1.1276473560929894
-0.205133905492421
-0.5430304020920491
-1.1276473560929894
-0.205133905492421
-0.5430304020920491
-1.1276473560929894
-0.205133905492421
-0.5430304020920491
-1.1276473560929894
-0.205133905492421
-0.5430304020920491
-1.1434781354683223
-0.20804976570270398
-0.5451805374636711
-1.1434781354683223
-0.20804976570270398
-0.5451805374636711
-1.1434781354683223
-0.20804976570270398
-0.5451805374636711
-1.1434781354683223
-0.20804976570270398
-0.5451805374636711
-1.1577329264425473
-0.2080974532224367
-0.54691063082535
-1.1577329264425473
-0.2080974532224367
-0.54691063082535
-1.1577329264425473
-0.2080974532224367
-0.54691063082535
-1.1577329264425473
-0.2080974532224367
-0.54691063082535
-1.1667557842710108
-0.20749814929312724
-0.5494218924615387
-1.1667557842710108
-0.20749814929312724
-0.5494218924615387
-1.1667557842710108
-0.20749814929312724
-0.5494218924615387
-1.1667557842710108
-0.20749814929312724
-0.5494218924615387
-1.1749038611170777
-0.207869721032327
-0.5526790064240671
-1.1749038611170777
-0.207869721032327
-0.5526790064240671
-1.1749038611170777
-0.207869721032327
-0.5526790064240671
-1.1749038611170777
-0.207869721032327
-0.5526790064240671
-1.1845583456398252
-0.2094536919066125
-0.5562380339978438
-1.1845583456398252
-0.2094536919066125
-0.5562380339978438
-1.1845583456398252
-0.2094536919066125
-0.5562380339978438
-1.1845583456398252
-0.2094536919066125
-0.5562380339978438
-1.1915216345319526
-0.21084053209955167
-0.5597416852271586
-1.1915216345319526
-0.21084053209955167
-0.5597416852271586
-1.1915216345319526
-0.21084053209955167
-0.5597416852271586
-1.1915216345319526
-0.21084053209955167
-0.5597416852271586
-1.1951227112507188
-0.2120218077818704
-0.560701193403236
-1.1951227112507188
-0.2120218077818704
-0.560701193403236
-1.1951227112507188
-0.2120218077818704
-0.560701193403236
-1.1951227112507188
-0.2120218077818704
-0.560701193403236
-1.1986077130876958
-0.21323270692489388
-0.5589323539103866
-1.1986077130876958
-0.21323270692489388
-0.5589323539103866
-1.1986077130876958
-0.21323270692489388
-0.5589323539103866
-1.1986077130876958
-0.21323270692489388
-0.5589323539103866
-1.2047709726703162
-0.2146229991087504
-0.5565269273556436
-1.2047709726703162
-0.2146229991087504
-0.5565269273556436
-1.2047709726703162
-0.2146229991087504
-0.5565269273556436
-1.2047709726703162
-0.2146229991087504
-0.5565269273556436
-1.209513023403232
-0.21390726057822498
-0.5544422989841846
-1.209513023403232
-0.21390726057822498
-0.5544422989841846
-1.209513023403232
-0.21390726057822498
-0.5544422989841846
-1.209513023403232
-0.21390726057822498
-0.5544422989841846
-1.2088681193207353
-0.21204704171154795
-0.5534197213379433
-1.2088681193207353
-0.21204704171154795
-0.5534197213379433
-1.2088681193207353
-0.21204704171154795
-0.5534197213379433
-1.2088681193207353
-0.21204704171154795
-0.5534197213379433
-1.2094344491706766
-0.20998034854065564
-0.5521362666415349
-1.2094344491706766
-0.20998034854065564
-0.5521362666415349
-1.2094344491706766
-0.20998034854065564
-0.5521362666415349
-1.2094344491706766
-0.20998034854065564
-0.5521362666415349
-1.2127732440322219
-0.20725413560957945
-0.5505163228669887
-1.2127732440322219
-0.20725413560957945
-0.5505163228669887
-1.2127732440322219
-0.20725413560957945
-0.5505163228669887
-1.2127732440322219
-0.20725413560957945
-0.5505163228669887
-1.2162294893108292
-0.2039352855095864
-0.5492987070976199
-1.2162294893108292
-0.2039352855095864
-0.5492987070976199
-1.2162294893108292
-0.2039352855095864
-0.5492987070976199
-1.2162294893108292
-0.2039352855095864
-0.5492987070976199
-1.2174285286800264
-0.20138347184612806
-0.5494120731897261
-1.2174285286800264
-0.20138347184612806
-0.5494120731897261
-1.2174285286800264
-0.20138347184612806
-0.5494120731897261
-1.2174285286800264
-0.20138347184612806
-0.5494120731897261
-1.2165505041440143
-0.19899263576502718
-0.5496904023794094
-1.2165505041440143
-0.19899263576502718
-0.5496904023794094
-1.2165505041440143
-0.19899263576502718
-0.5496904023794094
-1.2165505041440143
-0.19899263576502718
-0.5496904023794094
-1.2154386816951468
-0.1964443443515876
-0.5487868727065013
-1.2154386816951468
-0.1964443443515876
-0.5487868727065013
-1.2154386816951468
-0.1964443443515876
-0.5487868727065013
-1.2154386816951468
-0.1964443443515876
-0.5487868727065013
-1.2147048213775156
-0.19393149444515584
-0.5471002112209153
-1.2147048213775156
-0.19393149444515584
-0.5471002112209153
-1.2147048213775156
-0.19393149444515584
-0.5471002112209153
-1.2147048213775156
-0.19393149444515584
-0.5471002112209153
-1.2133457270483199
-0.19173998585328125
-0.5446576814904773
-1.2133457270483199
-0.19173998585328125
-0.5446576814904773
-1.2133457270483199
-0.19173998585328125
-0.5446576814904773
-1.2133457270483199
-0.19173998585328125
-0.5446576814904773
-1.2113989159077596
-0.19096391581484215
-0.5427661740474067
-1.2113989159077596
-0.19096391581484215
-0.5427661740474067
-1.2113989159077596
-0.19096391581484215
-0.5427661740474067
-1.2113989159077596
-0.19096391581484215
-0.5427661740474067
-1.209918144869571
-0.1903995515312055
-0.5409510826304298
-1.209918144869571
-0.1903995515312055
-0.5409510826304298
-1.209918144869571
-0.1903995515312055
-0.5409510826304298
-1.209918144869571
-0.1903995515312055
-0.5409510826304298
-1.2099624210543807
-0.18987220958124937
-0.5397596563130185
-1.2099624210543807
-0.18987220958124937
-0.5397596563130185
-1.2099624210543807
-0.18987220958124937
-0.5397596563130185
-1.2099624210543807
-0.18987220958124937
-0.5397596563130185
-1.211562598616181
-0.18807295416759018
-0.5392480010082171
-1.211562598616181
-0.18807295416759018
-0.5392480010082171
-1.211562598616181
-0.18807295416759018
-0.5392480010082171
-1.211562598616181
-0.18807295416759018
-0.5392480010082171
-1.2130607027859515
-0.18605352431003078
-0.5393281948595181
-1.2130607027859515
-0.18605352431003078
-0.5393281948595181
-1.2130607027859515
-0.18605352431003078
-0.5393281948595181
-1.2130607027859515
-0.18605352431003078
-0.5393281948595181
-1.2134683978061156
-0.1850910431763225
-0.5397106009791193
-1.2134683978061156
-0.1850910431763225
-0.5397106009791193
-1.2134683978061156
-0.1850910431763225
-0.5397106009791193
-1.2134683978061156
-0.1850910431763225
-0.5397106009791193
-1.2138320438924108
-0.18420207132004135
-0.5395772720560663
-1.2138320438924108
-0.18420207132004135
-0.5395772720560663
-1.2138320438924108
-0.18420207132004135
-0.5395772720560663
-1.2138320438924108
-0.18420207132004135
-0.5395772720560663
-1.2149588443934785
-0.18345940337259922
-0.5390544485329798
-1.2149588443934785
-0.18345940337259922
-0.5390544485329798
-1.2149588443934785
-0.18345940337259922
-0.5390544485329798
-1.2149588443934785
-0.18345940337259922
-0.5390544485329798
-1.216064524431703
-0.18301206558505892
-0.5379060236725871
-1.216064524431703
-0.18301206558505892
-0.5379060236725871
-1.216064524431703
-0.18301206558505892
-0.5379060236725871
-1.216064524431703
-0.18301206558505892
-0.5379060236725871
-1.2152636891592121
-0.1827847609174521
-0.5368955439921953
-1.2152636891592121
-0.1827847609174521
-0.5368955439921953
-1.2152636891592121
-0.1827847609174521
-0.5368955439921953
-1.2152636891592121
-0.1827847609174521
-0.5368955439921953
-1.2149199043801564
-0.1832417152192694
-0.5357730880663848
-1.2149199043801564
-0.1832417152192694
-0.5357730880663848
-1.2149199043801564
-0.1832417152192694
-0.5357730880663848
-1.2149199043801564
-0.1832417152192694
-0.5357730880663848
-1.2148240736503502
-0.1835770325009439
-0.5345613006414199
-1.2148240736503502
-0.1835770325009439
-0.5345613006414199
-1.2148240736503502
-0.1835770325009439
-0.5345613006414199
-1.2148240736503502
-0.1835770325009439
-0.5345613006414199
-1.2150009146669403
-0.18483395398329544
-0.5338973995252604
-1.2150009146669403
-0.18483395398329544
-0.5338973995252604
-1.2150009146669403
-0.18483395398329544
-0.5338973995252604
-1.2150009146669403
-0.18483395398329544
-0.5338973995252604
-1.2151462990161226
-0.18624454808646726
-0.53388316332732
-1.2151462990161226
-0.18624454808646726
-0.53388316332732
-1.2151462990161226
-0.18624454808646726
-0.53388316332732
-1.2151462990161226
-0.18624454808646726
-0.53388316332732
-1.2154185038936078
-0.1873885626480573
-0.5340859208559471
-1.2154185038936078
-0.1873885626480573
-0.5340859208559471
-1.2154185038936078
-0.1873885626480573
-0.5340859208559471
-1.2154185038936078
-0.1873885626480573
-0.5340859208559471
-1.2163300065079392
-0.18821129555428628
-0.5343803312890639
-1.2163300065079392
-0.18821129555428628
-0.5343803312890639
-1.2163300065079392
-0.18821129555428628
-0.5343803312890639
-1.2163300065079392
-0.18821129555428628
-0.5343803312890639
-1.2155682129329217
-0.1884121284198647
-0.5348123129828435
-1.2155682129329217
-0.1884121284198647
-0.5348123129828435
-1.2155682129329217
-0.1884121284198647
-0.5348123129828435
-1.2155682129329217
-0.1884121284198647
-0.5348123129828435
-1.2157712127814404
-0.18855147965325125
-0.5349248925262687
-1.2157712127814404
-0.18855147965325125
-0.5349248925262687
-1.2157712127814404
-0.18855147965325125
-0.5349248925262687
-1.2157712127814404
-0.18855147965325125
-0.5349248925262687
-1.2175893719239677
-0.1886864248756735
-0.5346844953050655
-1.2175893719239677
-0.1886864248756735
-0.5346844953050655
-1.2175893719239677
-0.1886864248756735
-0.5346844953050655
-1.2175893719239677
-0.1886864248756735
-0.5346844953050655
-1.2192723170784596
-0.1888323875789956
-0.5347368266193295
-1.2192723170784596
-0.1888323875789956
-0.5347368266193295
-1.2192723170784596
-0.1888323875789956
-0.5347368266193295
-1.2192723170784596
-0.1888323875789956
-0.5347368266193295
-1.22016323326094
-0.18912109090253532
-0.5349354577115427
-1.22016323326094
-0.18912109090253532
-0.5349354577115427
-1.22016323326094
-0.18912109090253532
-0.5349354577115427
-1.22016323326094
-0.18912109090253532
-0.5349354577115427
-1.2210617250162952
-0.18881038376135342
-0.5349409575455174
-1.2210617250162952
-0.18881038376135342
-0.5349409575455174
-1.2210617250162952
-0.18881038376135342
-0.5349409575455174
-1.2210617250162952
-0.18881038376135342
-0.5349409575455174
-1.2240328277440577
-0.18791129509730684
-0.534424579146628
-1.2240328277440577
-0.18791129509730684
-0.534424579146628
-1.2240328277440577
-0.18791129509730684
-0.534424579146628
-1.2240328277440577
-0.18791129509730684
-0.534424579146628
-1.2270992200528577
-0.18668547430406252
-0.5338447862032368
-1.2270992200528577
-0.18668547430406252
-0.5338447862032368
-1.2270992200528577
-0.18668547430406252
-0.5338447862032368
-1.2270992200528577
-0.18668547430406252
-0.5338447862032368
-1.2287908027953787
-0.18594300414979847
-0.533720782355363
-1.2287908027953787
-0.18594300414979847
-0.533720782355363
-1.2287908027953787
-0.18594300414979847
-0.533720782355363
-1.2287908027953787
-0.18594300414979847
-0.533720782355363
-1.23036258001166
-0.1852779486791747
-0.5335595729660969
-1.23036258001166
-0.1852779486791747
-0.5335595729660969
-1.23036258001166
-0.1852779486791747
-0.5335595729660969
-1.23036258001166
-0.1852779486791747
-0.5335595729660969
-1.2329108367655777
-0.1844184122256657
-0.5333145298499218
-1.2329108367655777
-0.1844184122256657
-0.5333145298499218
-1.2329108367655777
-0.1844184122256657
-0.5333145298499218
-1.2329108367655777
-0.1844184122256657
-0.5333145298499218
-1.2339838989646281
-0.18297814391821157
-0.5331555693275504
-1.2339838989646281
-0.18297814391821157
-0.5331555693275504
-1.2339838989646281
-0.18297814391821157
-0.5331555693275504
-1.2339838989646281
-0.18297814391821157
-0.5331555693275504
-1.2330355863988138
-0.18218668908172522
-0.5331308628592869
-1.2330355863988138
-0.18218668908172522
-0.5331308628592869
-1.2330355863988138
-0.18218668908172522
-0.5331308628592869
-1.2330355863988138
-0.18218668908172522
-0.5331308628592869
-1.232206272856624
-0.1820182049970139
-0.5322210824667444
-1.232206272856624
-0.1820182049970139
-0.5322210824667444
-1.232206272856624
-0.1820182049970139
-0.5322210824667444
-1.232206272856624
-0.1820182049970139
-0.5322210824667444
-1.2303688596938966
-0.1822050765059838
-0.5307638331807868
-1.2303688596938966
-0.1822050765059838
-0.5307638331807868
-1.2303688596938966
-0.1822050765059838
-0.5307638331807868
-1.2303688596938966
-0.1822050765059838
-0.5307638331807868
-1.2283104775809282
-0.1832476452020981
-0.5289231652214852
-1.2283104775809282
-0.1832476452020981
-0.5289231652214852
-1.2283104775809282
-0.1832476452020981
-0.5289231652214852
-1.2283104775809282
-0.1832476452020981
-0.5289231652214852
-1.2276364750748647
-0.18512836987935177
-0.5267346594941477
-1.2276364750748647
-0.18512836987935177
-0.5267346594941477
-1.2276364750748647
-0.18512836987935177
-0.5267346594941477
-1.2276364750748647
-0.18512836987935177
-0.5267346594941477
-1.2286525488698061
-0.18632794544654085
-0.5247556345529668
-1.2286525488698061
-0.18632794544654085
-0.5247556345529668
-1.2286525488698061
-0.18632794544654085
-0.5247556345529668
-1.2286525488698061
-0.18632794544654085
-0.5247556345529668
-1.2294370377095594
-0.18643729115620347
-0.5234829796639764
-1.2294370377095594
-0.18643729115620347
-0.5234829796639764
-1.2294370377095594
-0.18643729115620347
-0.5234829796639764
-1.2294370377095594
-0.18643729115620347
-0.5234829796639764
-1.2307966816623097
-0.18578727926358624
-0.522812835302121
-1.2307966816623097
-0.18578727926358624
-0.522812835302121
-1.2307966816623097
-0.18578727926358624
-0.522812835302121
-1.2307966816623097
-0.18578727926358624
-0.522812835302121
-1.231733495098849
-0.1854955235140558
-0.5226085612624666
-1.231733495098849
-0.1854955235140558
-0.5226085612624666
-1.231733495098849
-0.1854955235140558
-0.5226085612624666
-1.231733495098849
-0.1854955235140558
-0.5226085612624666
-1.231879667621077
-0.18563942848940526
-0.5225340946932667
-1.231879667621077
-0.18563942848940526
-0.5225340946932667
-1.231879667621077
-0.18563942848940526
-0.5225340946932667
-1.231879667621077
-0.18563942848940526
-0.5225340946932667
-1.2334888814503213
-0.18607146585798054
-0.521771645486653
-1.2334888814503213
-0.18607146585798054
-0.521771645486653
-1.2334888814503213
-0.18607146585798054
-0.521771645486653
-1.2334888814503213
-0.18607146585798054
-0.521771645486653
-1.235652777253624
-0.1864408794143063
-0.5204542457466304
-1.235652777253624
-0.1864408794143063
-0.5204542457466304
-1.235652777253624
-0.1864408794143063
-0.5204542457466304
-1.235652777253624
-0.1864408794143063
-0.5204542457466304
-1.2372998496377443
-0.18676661740643052
-0.5190935523432921
-1.2372998496377443
-0.18676661740643052
-0.5190935523432921
-1.2372998496377443
-0.18676661740643052
-0.5190935523432921
-1.2372998496377443
-0.18676661740643052
-0.5190935523432921
-1.2372150828948218
-0.18690243912009766
-0.5180586686805232
-1.2372150828948218
-0.18690243912009766
-0.5180586686805232
-1.2372150828948218
-0.18690243912009766
-0.5180586686805232
-1.2372150828948218
-0.18690243912009766
-0.5180586686805232
-1.236597440401067
-0.18722222133971092
-0.5172981857377701
-1.236597440401067
-0.18722222133971092
-0.5172981857377701
-1.236597440401067
-0.18722222133971092
-0.5172981857377701
-1.236597440401067
-0.18722222133971092
-0.5172981857377701
-1.2364498249496867
-0.18745823522680485
-0.5166276766605242
-1.2364498249496867
-0.18745823522680485
-0.5166276766605242
-1.2364498249496867
-0.18745823522680485
-0.5166276766605242
-1.2364498249496867
-0.18745823522680485
-0.5166276766605242
-1.236372936313077
-0.18784802645529483
-0.5163600945624514
-1.236372936313077
-0.18784802645529483
-0.5163600945624514
-1.236372936313077
-0.18784802645529483
-0.5163600945624514
-1.236372936313077
-0.18784802645529483
-0.5163600945624514
-1.2356004335892372
-0.18850247867209521
-0.5167594965814295
-1.2356004335892372
-0.18850247867209521
-0.5167594965814295
-1.2356004335892372
-0.18850247867209521
-0.5167594965814295
-1.2356004335892372
-0.18850247867209521
-0.5167594965814295
-1.2346407134097068
-0.18927709467247117
-0.5174323705582868
-1.2346407134097068
-0.18927709467247117
-0.5174323705582868
-1.2346407134097068
-0.18927709467247117
-0.5174323705582868
-1.2346407134097068
-0.18927709467247117
-0.5174323705582868
-1.233886636600122
-0.18983324325551626
-0.5178997533116575
-1.233886636600122
-0.18983324325551626
-0.5178997533116575
-1.233886636600122
-0.18983324325551626
-0.5178997533116575
-1.233886636600122
-0.18983324325551626
-0.5178997533116575
-1.2337873225780482
-0.18981433065241382
-0.517927373706518
-1.2337873225780482
-0.18981433065241382
-0.517927373706518
-1.2337873225780482
-0.18981433065241382
-0.517927373706518
-1.2337873225780482
-0.18981433065241382
-0.517927373706518
-1.232772334492219
-0.1899233758011463
-0.5178959458561584
-1.232772334492219
-0.1899233758011463
-0.5178959458561584
-1.232772334492219
-0.1899233758011463
-0.5178959458561584
-1.232772334492219
-0.1899233758011463
-0.5178959458561584
-1.2311993651921345
-0.1902556508076614
-0.5180213656060918
-1.2311993651921345
-0.1902556508076614
-0.5180213656060918
-1.2311993651921345
-0.1902556508076614
-0.5180213656060918
-1.2311993651921345
-0.1902556508076614
-0.5180213656060918
-1.230176044540113
-0.19033238205799213
-0.5181563083757115
-1.230176044540113
-0.19033238205799213
-0.5181563083757115
-1.230176044540113
-0.19033238205799213
-0.5181563083757115
-1.230176044540113
-0.19033238205799213
-0.5181563083757115
-1.2298776357602337
-0.1904258313062354
-0.5188418853491744
-1.2298776357602337
-0.1904258313062354
-0.5188418853491744
-1.2298776357602337
-0.1904258313062354
-0.5188418853491744
-1.2298776357602337
-0.1904258313062354
-0.5188418853491744
-1.2299774998506738
-0.1903508545635356
-0.5195444761325658
-1.2299774998506738
-0.1903508545635356
-0.5195444761325658
-1.2299774998506738
-0.1903508545635356
-0.5195444761325658
-1.2299774998506738
-0.1903508545635356
-0.5195444761325658
-1.229764937030779
-0.1903735788984402
-0.520315964501188
-1.229764937030779
-0.1903735788984402
-0.520315964501188
-1.229764937030779
-0.1903735788984402
-0.520315964501188
-1.229764937030779
-0.1903735788984402
-0.520315964501188
-1.2304233009045933
-0.19036411124465688
-0.5208472010415909
-1.2304233009045933
-0.19036411124465688
-0.5208472010415909
-1.2304233009045933
-0.19036411124465688
-0.5208472010415909
-1.2304233009045933
-0.19036411124465688
-0.5208472010415909
-1.230365743024047
-0.1899875989910756
-0.5214063387386347
-1.230365743024047
-0.1899875989910756
-0.5214063387386347
-1.230365743024047
-0.1899875989910756
-0.5214063387386347
-1.230365743024047
-0.1899875989910756
-0.5214063387386347
-1.2304129252443716
-0.18982466690431118
-0.5213734646674076
-1.2304129252443716
-0.18982466690431118
-0.5213734646674076
-1.2304129252443716
-0.18982466690431118
-0.5213734646674076
-1.2304129252443716
-0.18982466690431118
-0.5213734646674076
-1.2300448083275703
-0.1903405079909396
-0.5216269853866781
-1.2300448083275703
-0.1903405079909396
-0.5216269853866781
-1.2300448083275703
-0.1903405079909396
-0.5216269853866781
-1.2300448083275703
-0.1903405079909396
-0.5216269853866781
-1.230021825304985
-0.19103852421644468
-0.5217504067942944
-1.230021825304985
-0.19103852421644468
-0.5217504067942944
-1.230021825304985
-0.19103852421644468
-0.5217504067942944
-1.230021825304985
-0.19103852421644468
-0.5217504067942944
-1.2296144719334015
-0.1917495366380783
-0.5218713696598557
-1.2296144719334015
-0.1917495366380783
-0.5218713696598557
-1.2296144719334015
-0.1917495366380783
-0.5218713696598557
-1.2296144719334015
-0.1917495366380783
-0.5218713696598557
-1.23036908583091
-0.19220972362283073
-0.5219618427508459
-1.23036908583091
-0.19220972362283073
-0.5219618427508459
-1.23036908583091
-0.19220972362283073
-0.5219618427508459
-1.23036908583091
-0.19220972362283073
-0.5219618427508459
-1.2302768083520086
-0.19266105550646678
-0.5224120428161921
-1.2302768083520086
-0.19266105550646678
-0.5224120428161921
-1.2302768083520086
-0.19266105550646678
-0.5224120428161921
-1.2302768083520086
-0.19266105550646678
-0.5224120428161921
-1.2298282571436685
-0.192772150521498
-0.5227746641058179
-1.2298282571436685
-0.192772150521498
-0.5227746641058179
-1.2298282571436685
-0.192772150521498
-0.5227746641058179
-1.2298282571436685
-0.192772150521498
-0.5227746641058179
-1.2299447238774572
-0.1924742726479975
-0.5231594700046965
-1.2299447238774572
-0.1924742726479975
-0.5231594700046965
-1.2299447238774572
-0.1924742726479975
-0.5231594700046965
-1.2299447238774572
-0.1924742726479975
-0.5231594700046965
-1.2310317053011932
-0.19245228570133227
-0.5232610319885393
-1.2310317053011932
-0.19245228570133227
-0.5232610319885393
-1.2310317053011932
-0.19245228570133227
-0.5232610319885393
-1.2310317053011932
-0.19245228570133227
-0.5232610319885393
-1.2310317053011932
-0.19245228570133227
-0.5232610319885393
-1.2310317053011932
-0.19245228570133227
-0.5232610319885393
-1.2310317053011932
-0.19245228570133227
-0.5232610319885393
-1.2310317053011932
-0.19245228570133227
-0.5232610319885393
-1.2308657717010667
-0.1924057703768206
-0.5232694604395368
-1.2308657717010667
-0.1924057703768206
-0.5232694604395368
-1.2308657717010667
-0.1924057703768206
-0.5232694604395368
-1.2308657717010667
-0.1924057703768206
-0.5232694604395368
-1.2307384377951305
-0.19245192264007713
-0.5233967943454731
-1.2307384377951305
-0.19245192264007713
-0.5233967943454731
-1.2307384377951305
-0.19245192264007713
-0.5233967943454731
-1.2307384377951305
-0.19245192264007713
-0.5233967943454731
-1.2300180227818491
-0.1929719998665107
-0.5236013638845816
-1.2300180227818491
-0.1929719998665107
-0.5236013638845816
-1.2300180227818491
-0.1929719998665107
-0.5236013638845816
-1.2300180227818491
-0.1929719998665107
-0.5236013638845816
-1.229573307976459
-0.19371547834864827
-0.5239883553778533
-1.229573307976459
-0.19371547834864827
-0.5239883553778533
-1.229573307976459
-0.19371547834864827
-0.5239883553778533
-1.229573307976459
-0.19371547834864827
-0.5239883553778533
-1.2293611930736095
-0.1942449781306079
-0.5244005036360024
-1.2293611930736095
-0.1942449781306079
-0.5244005036360024
-1.2293611930736095
-0.1942449781306079
-0.5244005036360024
-1.2293611930736095
-0.1942449781306079
-0.5244005036360024
-1.2293611930736095
-0.1942449781306079
-0.5244005036360024
-1.2293611930736095
-0.1942449781306079
-0.5244005036360024
-1.2293611930736095
-0.1942449781306079
-0.5244005036360024
-1.2293611930736095
-0.1942449781306079
-0.5244005036360024
-1.2289323827544292
-0.19396991310077136
-0.5248437541235944
-1.2289323827544292
-0.19396991310077136
-0.5248437541235944
-1.2289323827544292
-0.19396991310077136
-0.5248437541235944
-1.2289323827544292
-0.19396991310077136
-0.5248437541235944
-1.2284882690756542
-0.1934801098108869
-0.5250163132283154
-1.2284882690756542
-0.1934801098108869
-0.5250163132283154
-1.2284882690756542
-0.1934801098108869
-0.5250163132283154
-1.2284882690756542
-0.1934801098108869
-0.5250163132283154
-1.227831652507816
-0.192818366341581
-0.5252437499000379
-1.227831652507816
-0.192818366341581
-0.5252437499000379
-1.227831652507816
-0.192818366341581
-0.5252437499000379
-1.227831652507816
-0.192818366341581
-0.5252437499000379
-1.2273585725926692
-0.1919805244419557
-0.5251442455865162
-1.2273585725926692
-0.1919805244419557
-0.5251442455865162
-1.2273585725926692
-0.1919805244419557
-0.5251442455865162
-1.2273585725926692
-0.1919805244419557
-0.5251442455865162
-1.2263802873719247
-0.19167057993043427
-0.5255925647934285
-1.2263802873719247
-0.19167057993043427
-0.5255925647934285
-1.2263802873719247
-0.19167057993043427
-0.5255925647934285
-1.2263802873719247
-0.19167057993043427
-0.5255925647934285
-1.2253867580840163
-0.19180275152327325
-0.5260131646713068
-1.2253867580840163
-0.19180275152327325
-0.5260131646713068
-1.2253867580840163
-0.19180275152327325
-0.5260131646713068
-1.2253867580840163
-0.19180275152327325
-0.5260131646713068
-1.2249888028376201
-0.1923821166564415
-0.5263683285893093
-1.2249888028376201
-0.1923821166564415
-0.5263683285893093
-1.2249888028376201
-0.1923821166564415
-0.5263683285893093
-1.2249888028376201
-0.1923821166564415
-0.5263683285893093
-1.2245379747459795
-0.1923669300474315
-0.5263465642403258
-1.2245379747459795
-0.1923669300474315
-0.5263465642403258
-1.2245379747459795
-0.1923669300474315
-0.5263465642403258
-1.2245379747459795
-0.1923669300474315
-0.5263465642403258
-1.2242759688503289
-0.19213730061067452
-0.5267803401072633
-1.2242759688503289
-0.19213730061067452
-0.5267803401072633
-1.2242759688503289
-0.19213730061067452
-0.5267803401072633
-1.2242759688503289
-0.19213730061067452
-0.5267803401072633
-1.2243734636711952
-0.19193636473143508
-0.5270981046190335
-1.2243734636711952
-0.19193636473143508
-0.5270981046190335
-1.2243734636711952
-0.19193636473143508
-0.5270981046190335
-1.2243734636711952
-0.19193636473143508
-0.5270981046190335
-1.2246285908175574
-0.19174950847528444
-0.5275734554884999
-1.2246285908175574
-0.19174950847528444
-0.5275734554884999
-1.2246285908175574
-0.19174950847528444
-0.5275734554884999
-1.2246285908175574
-0.19174950847528444
-0.5275734554884999
-1.2248838037182308
-0.1915627679644334
-0.528048846153527
-1.2248838037182308
-0.1915627679644334
-0.528048846153527
-1.2248838037182308
-0.1915627679644334
-0.528048846153527
-1.2248838037182308
-0.1915627679644334
-0.528048846153527
-1.2237626309473424
-0.1917388123328217
-0.5285969796480202
-1.2237626309473424
-0.1917388123328217
-0.5285969796480202
-1.2237626309473424
-0.1917388123328217
-0.5285969796480202
-1.2237626309473424
-0.1917388123328217
-0.5285969796480202
-1.2234696489390766
-0.1921493449695984
-0.5291047638008876
-1.2234696489390766
-0.1921493449695984
-0.5291047638008876
-1.2234696489390766
-0.1921493449695984
-0.5291047638008876
-1.2234696489390766
-0.1921493449695984
-0.5291047638008876
-1.224146009701977
-0.1924271592835855
-0.5289581841801766
-1.224146009701977
-0.1924271592835855
-0.5289581841801766
-1.224146009701977
-0.1924271592835855
-0.5289581841801766
-1.224146009701977
-0.1924271592835855
-0.5289581841801766
-1.224174037948595
-0.19236227977619405
-0.5288585943993965
-1.224174037948595
-0.19236227977619405
-0.5288585943993965
-1.224174037948595
-0.19236227977619405
-0.5288585943993965
-1.224174037948595
-0.19236227977619405
-0.5288585943993965
-1.223539508707228
-0.19252160624056947
-0.5291637074465896
-1.223539508707228
-0.19252160624056947
-0.5291637074465896
-1.223539508707228
-0.19252160624056947
-0.5291637074465896
-1.223539508707228
-0.19252160624056947
-0.5291637074465896
-1.2234933253505735
-0.19239632070429674
-0.5292098908032441
-1.2234933253505735
-0.19239632070429674
-0.5292098908032441
-1.2234933253505735
-0.19239632070429674
-0.5292098908032441
-1.2234933253505735
-0.19239632070429674
-0.5292098908032441
-1.2236109358411373
-0.19209762500374578
-0.5295936240045099
-1.2236109358411373
-0.19209762500374578
-0.5295936240045099
-1.2236109358411373
-0.19209762500374578
-0.5295936240045099
-1.2236109358411373
-0.19209762500374578
-0.5295936240045099
-1.2231321727250875
-0.19163813095617463
-0.5300296313247495
-1.2231321727250875
-0.19163813095617463
-0.5300296313247495
-1.2231321727250875
-0.19163813095617463
-0.5300296313247495
-1.2231321727250875
-0.19163813095617463
-0.5300296313247495
-1.2222344720494243
-0.1914423344414978
-0.5303830258845422
-1.2222344720494243
-0.1914423344414978
-0.5303830258845422
-1.2222344720494243
-0.1914423344414978
-0.5303830258845422
-1.2222344720494243
-0.1914423344414978
-0.5303830258845422
-1.221686079373928
-0.19111878184325576
-0.5304013664746565
-1.221686079373928
-0.19111878184325576
-0.5304013664746565
-1.221686079373928
-0.19111878184325576
-0.5304013664746565
-1.221686079373928
-0.19111878184325576
-0.5304013664746565
-1.2210897253394002
-0.19095777312835968
-0.5304532319634053
-1.2210897253394002
-0.19095777312835968
-0.5304532319634053
-1.2210897253394002
-0.19095777312835968
-0.5304532319634053
-1.2210897253394002
-0.19095777312835968
-0.5304532319634053
-1.2208725113401915
-0.19072842721935357
-0.5304554153808295
-1.2208725113401915
-0.19072842721935357
-0.5304554153808295
-1.2208725113401915
-0.19072842721935357
-0.5304554153808295
-1.2208725113401915
-0.19072842721935357
-0.5304554153808295
-1.2204037873536966
-0.1905223597524874
-0.5303794966359765
-1.2204037873536966
-0.1905223597524874
-0.5303794966359765
-1.2204037873536966
-0.1905223597524874
-0.5303794966359765
-1.2204037873536966
-0.1905223597524874
-0.5303794966359765
-1.2196893770525679
-0.19066071407225946
-0.5300478883162546
-1.2196893770525679
-0.19066071407225946
-0.5300478883162546
-1.2196893770525679
-0.19066071407225946
-0.5300478883162546
-1.2196893770525679
-0.19066071407225946
-0.5300478883162546
-1.2187873278222425
-0.19113799744789103
-0.5296465389629149
-1.2187873278222425
-0.19113799744789103
-0.5296465389629149
-1.2187873278222425
-0.19113799744789103
-0.5296465389629149
-1.2187873278222425
-0.19113799744789103
-0.5296465389629149
-1.218324262719352
-0.19135149257431594
-0.5286629833713888
-1.218324262719352
-0.19135149257431594
-0.5286629833713888
-1.218324262719352
-0.19135149257431594
-0.5286629833713888
-1.218324262719352
-0.19135149257431594
-0.5286629833713888
-1.2180050140523064
-0.19158707011906959
-0.5272206385911418
-1.2180050140523064
-0.19158707011906959
-0.5272206385911418
-1.2180050140523064
-0.19158707011906959
-0.5272206385911418
-1.2180050140523064
-0.19158707011906959
-0.5272206385911418
-1.2170711926809321
-0.1914734441950861
-0.5257762314516528
-1.2170711926809321
-0.1914734441950861
-0.5257762314516528
-1.2170711926809321
-0.1914734441950861
-0.5257762314516528
-1.2170711926809321
-0.1914734441950861
-0.5257762314516528
-1.2154768824112319
-0.19045282464148783
-0.5237840648700681
-1.2154768824112319
-0.19045282464148783
-0.5237840648700681
-1.2154768824112319
-0.19045282464148783
-0.5237840648700681
-1.2154768824112319
-0.19045282464148783
-0.5237840648700681
-1.2118849439708956
-0.18867625103330118
-0.5212274119604021
-1.2118849439708956
-0.18867625103330118
-0.5212274119604021
-1.2118849439708956
-0.18867625103330118
-0.5212274119604021
-1.2118849439708956
-0.18867625103330118
-0.5212274119604021
-1.20724085669363
-0.18864605287552647
-0.5181684723729868
-1.20724085669363
-0.18864605287552647
-0.5181684723729868
-1.20724085669363
-0.18864605287552647
-0.5181684723729868
-1.20724085669363
-0.18864605287552647
-0.5181684723729868
-1.2033976764472303
-0.18902706091761184
-0.5144430328179698
-1.2033976764472303
-0.18902706091761184
-0.5144430328179698
-1.2033976764472303
-0.18902706091761184
-0.5144430328179698
-1.2033976764472303
-0.18902706091761184
-0.5144430328179698
-1.1956822241526286
-0.18860501813247502
-0.511538219721995
-1.1956822241526286
-0.18860501813247502
-0.511538219721995
-1.1956822241526286
-0.18860501813247502
-0.511538219721995
-1.1956822241526286
-0.18860501813247502
-0.511538219721995
-1.1816834038285218
-0.18713130337937212
-0.5093426662887233
-1.1816834038285218
-0.18713130337937212
-0.5093426662887233
-1.1816834038285218
-0.18713130337937212
-0.5093426662887233
-1.1816834038285218
-0.18713130337937212
-0.5093426662887233
-1.165775670038939
-0.18570304474152255
-0.5076107509902051
-1.165775670038939
-0.18570304474152255
-0.5076107509902051
-1.165775670038939
-0.18570304474152255
-0.5076107509902051
-1.165775670038939
-0.18570304474152255
-0.5076107509902051
-1.1515053148409815
-0.18440162894557846
-0.5050140331368307
-1.1515053148409815
-0.18440162894557846
-0.5050140331368307
-1.1515053148409815
-0.18440162894557846
-0.5050140331368307
-1.1515053148409815
-0.18440162894557846
-0.5050140331368307
-1.1383378663424744
-0.18304128839033823
-0.5010683307079915
-1.1383378663424744
-0.18304128839033823
-0.5010683307079915
-1.1383378663424744
-0.18304128839033823
-0.5010683307079915
-1.1383378663424744
-0.18304128839033823
-0.5010683307079915
-1.1234797437604946
-0.183205922181008
-0.4965403428787648
-1.1234797437604946
-0.183205922181008
-0.4965403428787648
-1.1234797437604946
-0.183205922181008
-0.4965403428787648
-1.1234797437604946
-0.183205922181008
-0.4965403428787648
-1.1048400765438426
-0.18681602450854878
-0.491799111868679
-1.1048400765438426
-0.18681602450854878
-0.491799111868679
-1.1048400765438426
-0.18681602450854878
-0.491799111868679
-1.1048400765438426
-0.18681602450854878
-0.491799111868679
-1.0867749532470694
-0.1931066669883973
-0.4893977046836022
-1.0867749532470694
-0.1931066669883973
-0.4893977046836022
-1.0867749532470694
-0.1931066669883973
-0.4893977046836022
-1.0867749532470694
-0.1931066669883973
-0.4893977046836022
-1.070362255201293
-0.1987169730109203
-0.48797071632440875
-1.070362255201293
-0.1987169730109203
-0.48797071632440875
-1.070362255201293
-0.1987169730109203
-0.48797071632440875
-1.070362255201293
-0.1987169730109203
-0.48797071632440875
-1.057180793003827
-0.20165731378028326
-0.48509331658400406
-1.057180793003827
-0.20165731378028326
-0.48509331658400406
-1.057180793003827
-0.20165731378028326
-0.48509331658400406
-1.057180793003827
-0.20165731378028326
-0.48509331658400406
-1.0479603147588699
-0.20321403062820712
-0.4817329638083048
-1.0479603147588699
-0.20321403062820712
-0.4817329638083048
-1.0479603147588699
-0.20321403062820712
-0.4817329638083048
-1.0479603147588699
-0.20321403062820712
-0.4817329638083048
-1.0419147695138773
-0.20513544180627594
-0.47954674263377384
-1.0419147695138773
-0.20513544180627594
-0.47954674263377384
-1.0419147695138773
-0.20513544180627594
-0.47954674263377384
-1.0419147695138773
-0.20513544180627594
-0.47954674263377384
-1.031562648423346
-0.20802916640524835
-0.48170238214445554
-1.031562648423346
-0.20802916640524835
-0.48170238214445554
-1.031562648423346
-0.20802916640524835
-0.48170238214445554
-1.031562648423346
-0.20802916640524835
-0.48170238214445554
-1.0129386046373932
-0.21075800144747248
-0.4864903146053814
-1.0129386046373932
-0.21075800144747248
-0.4864903146053814
-1.0129386046373932
-0.21075800144747248
-0.4864903146053814
-1.0129386046373932
-0.21075800144747248
-0.4864903146053814
-0.9907281797939826
-0.2121633878502686
-0.49107400021733866
-0.9907281797939826
-0.2121633878502686
-0.49107400021733866
-0.9907281797939826
-0.2121633878502686
-0.49107400021733866
-0.9907281797939826
-0.2121633878502686
-0.49107400021733866
-0.9741079348983546
-0.21315057698017686
-0.4932863146429487
-0.9741079348983546
-0.21315057698017686
-0.4932863146429487
-0.9741079348983546
-0.21315057698017686
-0.4932863146429487
-0.9741079348983546
-0.21315057698017686
-0.4932863146429487
-0.9695413428698529
-0.214798552261404
-0.4929009100773719
-0.9695413428698529
-0.214798552261404
-0.4929009100773719
-0.9695413428698529
-0.214798552261404
-0.4929009100773719
-0.9695413428698529
-0.214798552261404
-0.4929009100773719
-0.9702883414899018
-0.21625583358730757
-0.4920568734966523
-0.9702883414899018
-0.21625583358730757
-0.4920568734966523
-0.9702883414899018
-0.21625583358730757
-0.4920568734966523
-0.9702883414899018
-0.21625583358730757
-0.4920568734966523
-0.9652474391535679
-0.2177264644281657
-0.49394834673226184
-0.9652474391535679
-0.2177264644281657
-0.49394834673226184
-0.9652474391535679
-0.2177264644281657
-0.49394834673226184
-0.9652474391535679
-0.2177264644281657
-0.49394834673226184
-0.9511036111308916
-0.22021008454851568
-0.49848912278887814
-0.9511036111308916
-0.22021008454851568
-0.49848912278887814
-0.9511036111308916
-0.22021008454851568
-0.49848912278887814
-0.9511036111308916
-0.22021008454851568
-0.49848912278887814
-0.9342909950274592
-0.22310029444634502
-0.5033897867833713
-0.9342909950274592
-0.22310029444634502
-0.5033897867833713
-0.9342909950274592
-0.22310029444634502
-0.5033897867833713
-0.9342909950274592
-0.22310029444634502
-0.5033897867833713
-0.92530366997245
-0.2264350795635519
-0.5065345789476774
-0.92530366997245
-0.2264350795635519
-0.5065345789476774
-0.92530366997245
-0.2264350795635519
-0.5065345789476774
-0.92530366997245
-0.2264350795635519
-0.5065345789476774
-0.9286276214113477
-0.2305506527334356
-0.5073436528065121
-0.9286276214113477
-0.2305506527334356
-0.5073436528065121
-0.9286276214113477
-0.2305506527334356
-0.5073436528065121
-0.9286276214113477
-0.2305506527334356
-0.5073436528065121
-0.941534802299798
-0.2345740326996647
-0.5070380538640722
-0.941534802299798
-0.2345740326996647
-0.5070380538640722
-0.941534802299798
-0.2345740326996647
-0.5070380538640722
-0.941534802299798
-0.2345740326996647
-0.5070380538640722
-0.9536396601592817
-0.23796813912910117
-0.5073053731473234
-0.9536396601592817
-0.23796813912910117
-0.5073053731473234
-0.9536396601592817
-0.23796813912910117
-0.5073053731473234
-0.9536396601592817
-0.23796813912910117
-0.5073053731473234
-0.9586975713424278
-0.24037859618401014
-0.5088000224781869
-0.9586975713424278
-0.24037859618401014
-0.5088000224781869
-0.9586975713424278
-0.24037859618401014
-0.5088000224781869
-0.9586975713424278
-0.24037859618401014
-0.5088000224781869
-0.9572537812602524
-0.24191727641327684
-0.5109272542290023
-0.9572537812602524
-0.24191727641327684
-0.5109272542290023
-0.9572537812602524
-0.24191727641327684
-0.5109272542290023
-0.9572537812602524
-0.24191727641327684
-0.5109272542290023
-0.9536473261871261
-0.24345645162679283
-0.5130417118359196
-0.9536473261871261
-0.24345645162679283
-0.5130417118359196
-0.9536473261871261
-0.24345645162679283
-0.5130417118359196
-0.9536473261871261
-0.24345645162679283
-0.5130417118359196
-0.9516492994702864
-0.24530635643262502
-0.5142657591706106
-0.9516492994702864
-0.24530635643262502
-0.5142657591706106
-0.9516492994702864
-0.24530635643262502
-0.5142657591706106
-0.9516492994702864
-0.24530635643262502
-0.5142657591706106
-0.9515330210453584
-0.24676872028303495
-0.5144388237034818
-0.9515330210453584
-0.24676872028303495
-0.5144388237034818
-0.9515330210453584
-0.24676872028303495
-0.5144388237034818
-0.9515330210453584
-0.24676872028303495
-0.5144388237034818
-0.9528015759019
-0.24771789197989078
-0.514137778121839
-0.9528015759019
-0.24771789197989078
-0.514137778121839
-0.9528015759019
-0.24771789197989078
-0.514137778121839
-0.9528015759019
-0.24771789197989078
-0.514137778121839
-0.9542650726098708
-0.2482639841635153
-0.5140153312256687
-0.9542650726098708
-0.2482639841635153
-0.5140153312256687
-0.9542650726098708
-0.2482639841635153
-0.5140153312256687
-0.9542650726098708
-0.2482639841635153
-0.5140153312256687
-0.9561149745008038
-0.24858802795573556
-0.5140347198450714
-0.9561149745008038
-0.24858802795573556
-0.5140347198450714
-0.9561149745008038
-0.24858802795573556
-0.5140347198450714
-0.9561149745008038
-0.24858802795573556
-0.5140347198450714
-0.9580114602029922
-0.24857228889076624
-0.5139184343747415
-0.9580114602029922
-0.24857228889076624
-0.5139184343747415
-0.9580114602029922
-0.24857228889076624
-0.5139184343747415
-0.9580114602029922
-0.24857228889076624
-0.5139184343747415
-0.9591505185047028
-0.24775463843674989
-0.5132934146878338
-0.9591505185047028
-0.24775463843674989
-0.5132934146878338
-0.9591505185047028
-0.24775463843674989
-0.5132934146878338
-0.9591505185047028
-0.24775463843674989
-0.5132934146878338
-0.9577579929779734
-0.2462695853140176
-0.5134616744801624
-0.9577579929779734
-0.2462695853140176
-0.5134616744801624
-0.9577579929779734
-0.2462695853140176
-0.5134616744801624
-0.9577579929779734
-0.2462695853140176
-0.5134616744801624
-0.9545917793762903
-0.24447637694990787
-0.5138472281598281
-0.9545917793762903
-0.24447637694990787
-0.5138472281598281
-0.9545917793762903
-0.24447637694990787
-0.5138472281598281
-0.9545917793762903
-0.24447637694990787
-0.5138472281598281
-0.9519589071139402
-0.24303605699641445
-0.5137853396568834
-0.9519589071139402
-0.24303605699641445
-0.5137853396568834
-0.9519589071139402
-0.24303605699641445
-0.5137853396568834
-0.9519589071139402
-0.24303605699641445
-0.5137853396568834
-0.950795203018192
-0.2423430075466202
-0.5126675538580208
-0.950795203018192
-0.2423430075466202
-0.5126675538580208
-0.950795203018192
-0.2423430075466202
-0.5126675538580208
-0.950795203018192
-0.2423430075466202
-0.5126675538580208
-0.9492090735755728
-0.24146407410965878
-0.5111881217449573
-0.9492090735755728
-0.24146407410965878
-0.5111881217449573
-0.9492090735755728
-0.24146407410965878
-0.5111881217449573
-0.9492090735755728
-0.24146407410965878
-0.5111881217449573
-0.9443736420845946
-0.24107083082380418
-0.5101771328462079
-0.9443736420845946
-0.24107083082380418
-0.5101771328462079
-0.9443736420845946
-0.24107083082380418
-0.5101771328462079
-0.9443736420845946
-0.24107083082380418
-0.5101771328462079
-0.9370592389972198
-0.24044499678674686
-0.5099301386425867
-0.9370592389972198
-0.24044499678674686
-0.5099301386425867
-0.9370592389972198
-0.24044499678674686
-0.5099301386425867
-0.9370592389972198
-0.24044499678674686
-0.5099301386425867
-0.9303985669583218
-0.2397894413797516
-0.5100279249694305
-0.9303985669583218
-0.2397894413797516
-0.5100279249694305
-0.9303985669583218
-0.2397894413797516
-0.5100279249694305
-0.9303985669583218
-0.2397894413797516
-0.5100279249694305
-0.928690373898114
-0.23909860532427651
-0.5092071206973704
-0.928690373898114
-0.23909860532427651
-0.5092071206973704
-0.928690373898114
-0.23909860532427651
-0.5092071206973704
-0.928690373898114
-0.23909860532427651
-0.5092071206973704
-0.9326893918556308
-0.23836422359068138
-0.5072738851848755
-0.9326893918556308
-0.23836422359068138
-0.5072738851848755
-0.9326893918556308
-0.23836422359068138
-0.5072738851848755
-0.9326893918556308
-0.23836422359068138
-0.5072738851848755
-0.9377532700669812
-0.23755977137254278
-0.5051243871587834
-0.9377532700669812
-0.23755977137254278
-0.5051243871587834
-0.9377532700669812
-0.23755977137254278
-0.5051243871587834
-0.9377532700669812
-0.23755977137254278
-0.5051243871587834
-0.9390998612051608
-0.23638250014244372
-0.5039557805147736
-0.9390998612051608
-0.23638250014244372
-0.5039557805147736
-0.9390998612051608
-0.23638250014244372
-0.5039557805147736
-0.9390998612051608
-0.23638250014244372
-0.5039557805147736
-0.9366043730760122
-0.235108674327399
-0.5038168412097578
-0.9366043730760122
-0.235108674327399
-0.5038168412097578
-0.9366043730760122
-0.235108674327399
-0.5038168412097578
-0.9366043730760122
-0.235108674327399
-0.5038168412097578
-0.9331831309090579
-0.2343587090885264
-0.5041561731525397
-0.9331831309090579
-0.2343587090885264
-0.5041561731525397
-0.9331831309090579
-0.2343587090885264
-0.5041561731525397
-0.9331831309090579
-0.2343587090885264
-0.5041561731525397
-0.9330736820131204
-0.23433791851228145
-0.5041828473949727
-0.9330736820131204
-0.23433791851228145
-0.5041828473949727
-0.9330736820131204
-0.23433791851228145
-0.5041828473949727
-0.9330736820131204
-0.23433791851228145
-0.5041828473949727
-0.9353528456618934
-0.2343336921504501
-0.5036209895352725
-0.9353528456618934
-0.2343336921504501
-0.5036209895352725
-0.9353528456618934
-0.2343336921504501
-0.5036209895352725
-0.9353528456618934
-0.2343336921504501
-0.5036209895352725
-0.9393900771863624
-0.2342067113161683
-0.5028529650226445
-0.9393900771863624
-0.2342067113161683
-0.5028529650226445
-0.9393900771863624
-0.2342067113161683
-0.5028529650226445
-0.9393900771863624
-0.2342067113161683
-0.5028529650226445
-0.9429273829729591
-0.2338564074521994
-0.5024928169625191
-0.9429273829729591
-0.2338564074521994
-0.5024928169625191
-0.9429273829729591
-0.2338564074521994
-0.5024928169625191
-0.9429273829729591
-0.2338564074521994
-0.5024928169625191
-0.9447008807378281
-0.23357179807810058
-0.5024999052238771
-0.9447008807378281
-0.23357179807810058
-0.5024999052238771
-0.9447008807378281
-0.23357179807810058
-0.5024999052238771
-0.9447008807378281
-0.23357179807810058
-0.5024999052238771
-0.9438169462522824
-0.23320783934346206
-0.5031268745719946
-0.9438169462522824
-0.23320783934346206
-0.5031268745719946
-0.9438169462522824
-0.23320783934346206
-0.5031268745719946
-0.9438169462522824
-0.23320783934346206
-0.5031268745719946
-0.9421580978435846
-0.23286850959301497
-0.5039898921337419
-0.9421580978435846
-0.23286850959301497
-0.5039898921337419
-0.9421580978435846
-0.23286850959301497
-0.5039898921337419
-0.9421580978435846
-0.23286850959301497
-0.5039898921337419
-0.9429452594296711
-0.23260337915728363
-0.5051394537563004
-0.9429452594296711
-0.23260337915728363
-0.5051394537563004
-0.9429452594296711
-0.23260337915728363
-0.5051394537563004
-0.9429452594296711
-0.23260337915728363
-0.5051394537563004
-0.9472319791483249
-0.23236912372978485
-0.5069209758952966
-0.9472319791483249
-0.23236912372978485
-0.5069209758952966
-0.9472319791483249
-0.23236912372978485
-0.5069209758952966
-0.9472319791483249
-0.23236912372978485
-0.5069209758952966
-0.9616584826198427
-0.23139165207862789
-0.5076543099916869
-0.9616584826198427
-0.23139165207862789
-0.5076543099916869
-0.9616584826198427
-0.23139165207862789
-0.5076543099916869
-0.9616584826198427
-0.23139165207862789
-0.5076543099916869
-0.9819815461366259
-0.22972728751250374
-0.508633230957974
-0.9819815461366259
-0.22972728751250374
-0.508633230957974
-0.9819815461366259
-0.22972728751250374
-0.508633230957974
-0.9819815461366259
-0.22972728751250374
-0.508633230957974
-1.0020880778283379
-0.22795686222120373
-0.5115586692103495
-1.0020880778283379
-0.22795686222120373
-0.5115586692103495
-1.0020880778283379
-0.22795686222120373
-0.5115586692103495
-1.0020880778283379
-0.22795686222120373
-0.5115586692103495
-1.020706803027402
-0.22827410016066751
-0.5168813807439231
-1.020706803027402
-0.22827410016066751
-0.5168813807439231
-1.020706803027402
-0.22827410016066751
-0.5168813807439231
-1.020706803027402
-0.22827410016066751
-0.5168813807439231
-1.0373614635878563
-0.2299999220476931
-0.5230746832353319
-1.0373614635878563
-0.2299999220476931
-0.5230746832353319
-1.0373614635878563
-0.2299999220476931
-0.5230746832353319
-1.0373614635878563
-0.2299999220476931
-0.5230746832353319
-1.057868113951053
-0.23155094999608108
-0.5281083347074532
-1.057868113951053
-0.23155094999608108
-0.5281083347074532
-1.057868113951053
-0.23155094999608108
-0.5281083347074532
-1.057868113951053
-0.23155094999608108
-0.5281083347074532
-1.0845973770408797
-0.23170975104173847
-0.5318190046522845
-1.0845973770408797
-0.23170975104173847
-0.5318190046522845
-1.0845973770408797
-0.23170975104173847
-0.5318190046522845
-1.0845973770408797
-0.23170975104173847
-0.5318190046522845
-1.1089392912030096
-0.23320215658837415
-0.5346130603845698
-1.1089392912030096
-0.23320215658837415
-0.5346130603845698
-1.1089392912030096
-0.23320215658837415
-0.5346130603845698
-1.1089392912030096
-0.23320215658837415
-0.5346130603845698
-1.1227373573010162
-0.23551436121579594
-0.536378673006537
-1.1227373573010162
-0.23551436121579594
-0.536378673006537
-1.1227373573010162
-0.23551436121579594
-0.536378673006537
-1.1227373573010162
-0.23551436121579594
-0.536378673006537
-1.1287096405379133
-0.23832067348062103
-0.5377698756873017
-1.1287096405379133
-0.23832067348062103
-0.5377698756873017
-1.1287096405379133
-0.23832067348062103
-0.5377698756873017
-1.1287096405379133
-0.23832067348062103
-0.5377698756873017
-1.1350801710956293
-0.24067555109089403
-0.538689029141959
-1.1350801710956293
-0.24067555109089403
-0.538689029141959
-1.1350801710956293
-0.24067555109089403
-0.538689029141959
-1.1350801710956293
-0.24067555109089403
-0.538689029141959
-1.1441938618246916
-0.24035096641641365
-0.5383740687614067
-1.1441938618246916
-0.24035096641641365
-0.5383740687614067
-1.1441938618246916
-0.24035096641641365
-0.5383740687614067
-1.1441938618246916
-0.24035096641641365
-0.5383740687614067
-1.1542290695942377
-0.23839569895404142
-0.5373612502128366
-1.1542290695942377
-0.23839569895404142
-0.5373612502128366
-1.1542290695942377
-0.23839569895404142
-0.5373612502128366
-1.1542290695942377
-0.23839569895404142
-0.5373612502128366
-1.1622554146865522
-0.23664200921193287
-0.5372845499692938
-1.1622554146865522
-0.23664200921193287
-0.5372845499692938
-1.1622554146865522
-0.23664200921193287
-0.5372845499692938
-1.1622554146865522
-0.23664200921193287
-0.5372845499692938
-1.1661998324208247
-0.23438519580216208
-0.5378983428766734
-1.1661998324208247
-0.23438519580216208
-0.5378983428766734
-1.1661998324208247
-0.23438519580216208
-0.5378983428766734
-1.1661998324208247
-0.23438519580216208
-0.5378983428766734
-1.1692164251521677
-0.23280324137346797
-0.5390948095609973
-1.1692164251521677
-0.23280324137346797
-0.5390948095609973
-1.1692164251521677
-0.23280324137346797
-0.5390948095609973
-1.1692164251521677
-0.23280324137346797
-0.5390948095609973
-1.174250664958745
-0.23107443603688615
-0.5388388464423202
-1.174250664958745
-0.23107443603688615
-0.5388388464423202
-1.174250664958745
-0.23107443603688615
-0.5388388464423202
-1.174250664958745
-0.23107443603688615
-0.5388388464423202
-1.180827671167378
-0.22829145034273285
-0.5378093043391337
-1.180827671167378
-0.22829145034273285
-0.5378093043391337
-1.180827671167378
-0.22829145034273285
-0.5378093043391337
-1.180827671167378
-0.22829145034273285
-0.5378093043391337
-1.1844161146776218
-0.22489149211604556
-0.5365357704919239
-1.1844161146776218
-0.22489149211604556
-0.5365357704919239
-1.1844161146776218
-0.22489149211604556
-0.5365357704919239
-1.1844161146776218
-0.22489149211604556
-0.5365357704919239
-1.1843233246272
-0.22209272682608477
-0.5360134819309369
-1.1843233246272
-0.22209272682608477
-0.5360134819309369
-1.1843233246272
-0.22209272682608477
-0.5360134819309369
-1.1843233246272
-0.22209272682608477
-0.5360134819309369
-1.182081470166018
-0.22119905648906252
-0.5351724653350467
-1.182081470166018
-0.22119905648906252
-0.5351724653350467
-1.182081470166018
-0.22119905648906252
-0.5351724653350467
-1.182081470166018
-0.22119905648906252
-0.5351724653350467
-1.183139637024556
-0.22192572849511602
-0.5324262329733613
-1.183139637024556
-0.22192572849511602
-0.5324262329733613
-1.183139637024556
-0.22192572849511602
-0.5324262329733613
-1.183139637024556
-0.22192572849511602
-0.5324262329733613
-1.187402068289195
-0.22158420140258717
-0.5298289952252611
-1.187402068289195
-0.22158420140258717
-0.5298289952252611
-1.187402068289195
-0.22158420140258717
-0.5298289952252611
-1.187402068289195
-0.22158420140258717
-0.5298289952252611
-1.1899877579164935
-0.22086984645924015
-0.5286202305731633
-1.1899877579164935
-0.22086984645924015
-0.5286202305731633
-1.1899877579164935
-0.22086984645924015
-0.5286202305731633
-1.1899877579164935
-0.22086984645924015
-0.5286202305731633
-1.1898901669547226
-0.22056170692134303
-0.5286571677845276
-1.1898901669547226
-0.22056170692134303
-0.5286571677845276
-1.1898901669547226
-0.22056170692134303
-0.5286571677845276
-1.1898901669547226
-0.22056170692134303
-0.5286571677845276
-1.1898512684339613
-0.22075962951643355
-0.5285285896734934
-1.1898512684339613
-0.22075962951643355
-0.5285285896734934
-1.1898512684339613
-0.22075962951643355
-0.5285285896734934
-1.1898512684339613
-0.22075962951643355
-0.5285285896734934
-1.192507091318293
-0.2213171399862051
-0.5280323140050108
-1.192507091318293
-0.2213171399862051
-0.5280323140050108
-1.192507091318293
-0.2213171399862051
-0.5280323140050108
-1.192507091318293
-0.2213171399862051
-0.5280323140050108
-1.19479232162108
-0.22134463253877165
-0.5273897092415267
-1.19479232162108
-0.22134463253877165
-0.5273897092415267
-1.19479232162108
-0.22134463253877165
-0.5273897092415267
-1.19479232162108
-0.22134463253877165
-0.5273897092415267
-1.195066186326804
-0.22173581893297528
-0.527176042637016
-1.195066186326804
-0.22173581893297528
-0.527176042637016
-1.195066186326804
-0.22173581893297528
-0.527176042637016
-1.195066186326804
-0.22173581893297528
-0.527176042637016
-1.194696875871515
-0.2224703099191532
-0.527102654450651
-1.194696875871515
-0.2224703099191532
-0.527102654450651
-1.194696875871515
-0.2224703099191532
-0.527102654450651
-1.194696875871515
-0.2224703099191532
-0.527102654450651
-1.1946988555942952
-0.22327243965074917
-0.5267420279000241
-1.1946988555942952
-0.22327243965074917
-0.5267420279000241
-1.1946988555942952
-0.22327243965074917
-0.5267420279000241
-1.1946988555942952
-0.22327243965074917
-0.5267420279000241
-1.1956575524809498
-0.22365255064295922
-0.5263827573029853
-1.1956575524809498
-0.22365255064295922
-0.5263827573029853
-1.1956575524809498
-0.22365255064295922
-0.5263827573029853
-1.1956575524809498
-0.22365255064295922
-0.5263827573029853
-1.1967077949602773
-0.2231961111949072
-0.5263024795415817
-1.1967077949602773
-0.2231961111949072
-0.5263024795415817
-1.1967077949602773
-0.2231961111949072
-0.5263024795415817
-1.1967077949602773
-0.2231961111949072
-0.5263024795415817
-1.1972415868812432
-0.22233879057205863
-0.526762949975699
-1.1972415868812432
-0.22233879057205863
-0.526762949975699
-1.1972415868812432
-0.22233879057205863
-0.526762949975699
-1.1972415868812432
-0.22233879057205863
-0.526762949975699
-1.1977887916351775
-0.22122813276633238
-0.5270668866721842
-1.1977887916351775
-0.22122813276633238
-0.5270668866721842
-1.1977887916351775
-0.22122813276633238
-0.5270668866721842
-1.1977887916351775
-0.22122813276633238
-0.5270668866721842
-1.1989338670853644
-0.21964677357334278
-0.5272779010606997
-1.1989338670853644
-0.21964677357334278
-0.5272779010606997
-1.1989338670853644
-0.21964677357334278
-0.5272779010606997
-1.1989338670853644
-0.21964677357334278
-0.5272779010606997
-1.1990261032667844
-0.21824723503525947
-0.5269586240734853
-1.1990261032667844
-0.21824723503525947
-0.5269586240734853
-1.1990261032667844
-0.21824723503525947
-0.5269586240734853
-1.1990261032667844
-0.21824723503525947
-0.5269586240734853
-1.1978782575091158
-0.21661951077798972
-0.5256209605300609
-1.1978782575091158
-0.21661951077798972
-0.5256209605300609
-1.1978782575091158
-0.21661951077798972
-0.5256209605300609
-1.1978782575091158
-0.21661951077798972
-0.5256209605300609
-1.1963245374726017
-0.21563706874879604
-0.5240860205255917
-1.1963245374726017
-0.21563706874879604
-0.5240860205255917
-1.1963245374726017
-0.21563706874879604
-0.5240860205255917
-1.1963245374726017
-0.21563706874879604
-0.5240860205255917
-1.1971854424273387
-0.21650965773466493
-0.5234067209547763
-1.1971854424273387
-0.21650965773466493
-0.5234067209547763
-1.1971854424273387
-0.21650965773466493
-0.5234067209547763
-1.1971854424273387
-0.21650965773466493
-0.5234067209547763
-1.1974743325274617
-0.21560647563708019
-0.5226237340061684
-1.1974743325274617
-0.21560647563708019
-0.5226237340061684
-1.1974743325274617
-0.21560647563708019
-0.5226237340061684
-1.1974743325274617
-0.21560647563708019
-0.5226237340061684
-1.1959478308663802
-0.213914755623696
-0.5233056787655865
-1.1959478308663802
-0.213914755623696
-0.5233056787655865
-1.1959478308663802
-0.213914755623696
-0.5233056787655865
-1.1959478308663802
-0.213914755623696
-0.5233056787655865
-1.1958620508978521
-0.21236357310570372
-0.5237250441008264
-1.1958620508978521
-0.21236357310570372
-0.5237250441008264
-1.1958620508978521
-0.21236357310570372
-0.5237250441008264
-1.1958620508978521
-0.21236357310570372
-0.5237250441008264
-1.195750479593461
-0.21150734641954305
-0.5242803811402228
-1.195750479593461
-0.21150734641954305
-0.5242803811402228
-1.195750479593461
-0.21150734641954305
-0.5242803811402228
-1.195750479593461
-0.21150734641954305
-0.5242803811402228
-1.195826489804956
-0.21123115401116077
-0.5249262658025917
-1.195826489804956
-0.21123115401116077
-0.5249262658025917
-1.195826489804956
-0.21123115401116077
-0.5249262658025917
-1.195826489804956
-0.21123115401116077
-0.5249262658025917
-1.195826489804956
-0.21123115401116077
-0.5249262658025917
-1.195826489804956
-0.21123115401116077
-0.5249262658025917
-1.195826489804956
-0.21123115401116077
-0.5249262658025917
-1.195826489804956
-0.21123115401116077
-0.5249262658025917
-1.1952328202794054
-0.21151418492191865
-0.5251951664489984
-1.1952328202794054
-0.21151418492191865
-0.5251951664489984
-1.1952328202794054
-0.21151418492191865
-0.5251951664489984
-1.1952328202794054
-0.21151418492191865
-0.5251951664489984
-1.194063525318961
-0.211249079732756
-0.5255935694357363
-1.194063525318961
-0.211249079732756
-0.5255935694357363
-1.194063525318961
-0.211249079732756
-0.5255935694357363
-1.194063525318961
-0.211249079732756
-0.5255935694357363
-1.1926949718122042
-0.211406582347316
-0.5264808919182786
-1.1926949718122042
-0.211406582347316
-0.5264808919182786
-1.1926949718122042
-0.211406582347316
-0.5264808919182786
-1.1926949718122042
-0.211406582347316
-0.5264808919182786
-1.1906386676074183
-0.2118795201423009
-0.527719849702508
-1.1906386676074183
-0.2118795201423009
-0.527719849702508
-1.1906386676074183
-0.2118795201423009
-0.527719849702508
-1.1906386676074183
-0.2118795201423009
-0.527719849702508
-1.1893578049356512
-0.21230612905272173
-0.5287371003684341
-1.1893578049356512
-0.21230612905272173
-0.5287371003684341
-1.1893578049356512
-0.21230612905272173
-0.5287371003684341
-1.1893578049356512
-0.21230612905272173
-0.5287371003684341
-1.1892740434118454
-0.21230557725681165
-0.5292178127043674
-1.1892740434118454
-0.21230557725681165
-0.5292178127043674
-1.1892740434118454
-0.21230557725681165
-0.5292178127043674
-1.1892740434118454
-0.21230557725681165
-0.5292178127043674
-1.1892648714265928
-0.2116377540918057
-0.5293457671888069
-1.1892648714265928
-0.2116377540918057
-0.5293457671888069
-1.1892648714265928
-0.2116377540918057
-0.5293457671888069
-1.1892648714265928
-0.2116377540918057
-0.5293457671888069
-1.1876840141240552
-0.21115581304786238
-0.5298540145899912
-1.1876840141240552
-0.21115581304786238
-0.5298540145899912
-1.1876840141240552
-0.21115581304786238
-0.5298540145899912
-1.1876840141240552
-0.21115581304786238
-0.5298540145899912
-1.1853688487388658
-0.21166419901454073
-0.5304015695326968
-1.1853688487388658
-0.21166419901454073
-0.5304015695326968
-1.1853688487388658
-0.21166419901454073
-0.5304015695326968
-1.1853688487388658
-0.21166419901454073
-0.5304015695326968
-1.1842946826568062
-0.21250623199210628
-0.5304075559334487
-1.1842946826568062
-0.21250623199210628
-0.5304075559334487
-1.1842946826568062
-0.21250623199210628
-0.5304075559334487
-1.1842946826568062
-0.21250623199210628
-0.5304075559334487
-1.1830723625335813
-0.21400559166603522
-0.5301322320625454
-1.1830723625335813
-0.21400559166603522
-0.5301322320625454
-1.1830723625335813
-0.21400559166603522
-0.5301322320625454
-1.1830723625335813
-0.21400559166603522
-0.5301322320625454
-1.181000161188733
-0.2154828618650303
-0.530228573527112
-1.181000161188733
-0.2154828618650303
-0.530228573527112
-1.181000161188733
-0.2154828618650303
-0.530228573527112
-1.181000161188733
-0.2154828618650303
-0.530228573527112
-1.1805966353460662
-0.21701081846779927
-0.5304715912135067
-1.1805966353460662
-0.21701081846779927
-0.5304715912135067
-1.1805966353460662
-0.21701081846779927
-0.5304715912135067
-1.1805966353460662
-0.21701081846779927
-0.5304715912135067
-1.1819130619629403
-0.21788675008497677
-0.5304330981566184
-1.1819130619629403
-0.21788675008497677
-0.5304330981566184
-1.1819130619629403
-0.21788675008497677
-0.5304330981566184
-1.1819130619629403
-0.21788675008497677
-0.5304330981566184
-1.1830177988099329
-0.21805590262309715
-0.5305774712277989
-1.1830177988099329
-0.21805590262309715
-0.5305774712277989
-1.1830177988099329
-0.21805590262309715
-0.5305774712277989
-1.1830177988099329
-0.21805590262309715
-0.5305774712277989
-1.183603588950918
-0.21766648584548076
-0.53103462006757
-1.183603588950918
-0.21766648584548076
-0.53103462006757
-1.183603588950918
-0.21766648584548076
-0.53103462006757
-1.183603588950918
-0.21766648584548076
-0.53103462006757
-1.1834381294978311
-0.21761881327540078
-0.5310439279142098
-1.1834381294978311
-0.21761881327540078
-0.5310439279142098
-1.1834381294978311
-0.21761881327540078
-0.5310439279142098
-1.1834381294978311
-0.21761881327540078
-0.5310439279142098
-1.184445989179675
-0.21748004957897205
-0.5312241574722227
-1.184445989179675
-0.21748004957897205
-0.5312241574722227
-1.184445989179675
-0.21748004957897205
-0.5312241574722227
-1.184445989179675
-0.21748004957897205
-0.5312241574722227
-1.1850054750000028
-0.21766830072590537
-0.5314340456614302
-1.1850054750000028
-0.21766830072590537
-0.5314340456614302
-1.1850054750000028
-0.21766830072590537
-0.5314340456614302
-1.1850054750000028
-0.21766830072590537
-0.5314340456614302
-1.1837910443013095
-0.21788491767548682
-0.5317003090174015
-1.1837910443013095
-0.21788491767548682
-0.5317003090174015
-1.1837910443013095
-0.21788491767548682
-0.5317003090174015
-1.1837910443013095
-0.21788491767548682
-0.5317003090174015
-1.1825688129718428
-0.21813729729608639
-0.5315673032687795
-1.1825688129718428
-0.21813729729608639
-0.5315673032687795
-1.1825688129718428
-0.21813729729608639
-0.5315673032687795
-1.1825688129718428
-0.21813729729608639
-0.5315673032687795
-1.1813116242642456
-0.21891418163460047
-0.5311352932080295
-1.1813116242642456
-0.21891418163460047
-0.5311352932080295
-1.1813116242642456
-0.21891418163460047
-0.5311352932080295
-1.1813116242642456
-0.21891418163460047
-0.5311352932080295
-1.180182351398343
-0.21913318243367444
-0.5309213423101319
-1.180182351398343
-0.21913318243367444
-0.5309213423101319
-1.180182351398343
-0.21913318243367444
-0.5309213423101319
-1.180182351398343
-0.21913318243367444
-0.5309213423101319
-1.180182351398343
-0.21913318243367444
-0.5309213423101319
-1.180182351398343
-0.21913318243367444
-0.5309213423101319
-1.180182351398343
-0.21913318243367444
-0.5309213423101319
-1.180182351398343
-0.21913318243367444
-0.5309213423101319
-1.1802792733740615
-0.21836819260556695
-0.5306286320926986
-1.1802792733740615
-0.21836819260556695
-0.5306286320926986
-1.1802792733740615
-0.21836819260556695
-0.5306286320926986
-1.1802792733740615
-0.21836819260556695
-0.5306286320926986
-1.1799302393673168
-0.21710933224366594
-0.5305021889774484
-1.1799302393673168
-0.21710933224366594
-0.5305021889774484
-1.1799302393673168
-0.21710933224366594
-0.5305021889774484
-1.1799302393673168
-0.21710933224366594
-0.5305021889774484
-1.1795184383631474
-0.21626402833585648
-0.5305724992884514
-1.1795184383631474
-0.21626402833585648
-0.5305724992884514
-1.1795184383631474
-0.21626402833585648
-0.5305724992884514
-1.1795184383631474
-0.21626402833585648
-0.5305724992884514
-1.1788547321746563
-0.2155577495900727
-0.5309563036934626
-1.1788547321746563
-0.2155577495900727
-0.5309563036934626
-1.1788547321746563
-0.2155577495900727
-0.5309563036934626
-1.1788547321746563
-0.2155577495900727
-0.5309563036934626
-1.178969138070629
-0.21525118008278898
-0.5313326559129059
-1.178969138070629
-0.21525118008278898
-0.5313326559129059
-1.178969138070629
-0.21525118008278898
-0.5313326559129059
-1.178969138070629
-0.21525118008278898
-0.5313326559129059
-1.1797210322629106
-0.2149087784782742
-0.531780708929276
-1.1797210322629106
-0.2149087784782742
-0.531780708929276
-1.1797210322629106
-0.2149087784782742
-0.531780708929276
-1.1797210322629106
-0.2149087784782742
-0.531780708929276
-1.1805069787405913
-0.21421541874861344
-0.5321335604492352
-1.1805069787405913
-0.21421541874861344
-0.5321335604492352
-1.1805069787405913
-0.21421541874861344
-0.5321335604492352
-1.1805069787405913
-0.21421541874861344
-0.5321335604492352
-1.180105945152033
-0.2138651249146488
-0.5324730601338931
-1.180105945152033
-0.2138651249146488
-0.5324730601338931
-1.180105945152033
-0.2138651249146488
-0.5324730601338931
-1.180105945152033
-0.2138651249146488
-0.5324730601338931
-1.1797888480555714
-0.21344370445941674
-0.5328961432438948
-1.1797888480555714
-0.21344370445941674
-0.5328961432438948
-1.1797888480555714
-0.21344370445941674
-0.5328961432438948
-1.1797888480555714
-0.21344370445941674
-0.5328961432438948
-1.1797688158476438
-0.21354291627707953
-0.5328324050602254
-1.1797688158476438
-0.21354291627707953
-0.5328324050602254
-1.1797688158476438
-0.21354291627707953
-0.5328324050602254
-1.1797688158476438
-0.21354291627707953
-0.5328324050602254
-1.179188797975097
-0.21339651246083344
-0.5333397620896535
