-7
-25
-71
-12
-5
-7
-3
-1
-3
-2
-13
-10
0
4
0
1
3
0
26
8
2
1
3
-2
-4
3
-2
-2
-2
-3
-2
0
-2
7
53
9
2
2
1
-1
-2
-3
-12
-7
-4
-14
-6
-2
-1
-7
-17
-4
1
15
13
-1
-1
1
12
1
1
4
-7
-2
4
10
50
16
0
-2
-1
1
-8
-11
-31
-10
-4
-5
-5
-3
3
3
-9
1
2
-2
-2
0
1
-3
-16
-4
-2
-5
-1
-2
-1
0
9
-4
0
0
-1
-2
0
0
20
9
-2
-1
0
0
0
-4
13
-10
-4
-4
-4
-2
3
3
-12
13
4
3
4
2
-3
-2
6
-11
-1
-4
-5
0
0
1
-17
-17
-4
-2
-1
2
-2
-6
-6
-6
-3
-3
-3
0
1
3
-11
6
1
-2
-2
-1
1
-1
-5
0
-2
-1
0
-1
-3
-1
40
10
3
4
-1
1
-4
-5
-25
-13
-3
-5
-4
-1
-1
0
-1
1
0
0
0
0
0
0
12
0
-1
-2
-1
-3
2
7
8
2
0
2
2
-1
-4
-9
-28
-7
-1
-10
-8
0
0
-1
20
5
1
0
0
-1
-1
-2
-14
-5
0
7
3
-1
1
2
-13
8
0
1
-1
-1
2
2
42
4
2
6
6
1
-5
-10
-93
6
-3
-10
-3
-2
-2
0
9
-8
-4
-1
-2
0
0
2
4
4
-1
-1
-1
-2
1
4
-4
5
-2
-3
-3
-1
1
-1
26
-8
-2
0
1
-1
1
2
-15
-3
-1
-1
0
0
0
-2
6
9
2
-1
0
-2
1
5
-13
-12
-2
0
2
-1
-3
-3
46
13
-1
-2
-1
0
-3
-2
-9
-3
-2
-3
-4
0
-1
-2
5
-10
-3
-1
-1
-1
2
10
30
13
2
2
1
-1
-2
-12
-29
-7
-4
-1
-2
0
-3
-4
-25
-5
-1
-3
-2
-2
0
1
-9
1
2
0
-1
-1
-1
-2
6
3
-2
0
-1
-2
-2
2
15
-5
-2
-1
-1
0
1
-1
-30
-1
2
0
1
-1
-1
-2
-3
-1
0
0
-1
1
-4
-2
-9
1
-2
-1
-3
-2
3
5
23
-9
-1
0
0
0
0
4
-7
19
2
1
2
2
-7
-12
-71
-27
-8
-5
-5
-2
0
-3
-1
-6
-2
-3
-3
-1
-1
-1
1
1
-1
1
-1
-1
0
-1
13
4
-1
-1
1
-1
4
3
12
1
0
1
1
1
-4
-2
-5
-5
-3
-2
-1
-1
-1
-2
-11
-5
-1
-1
-2
-2
-1
-2
4
9
1
-2
-1
0
0
4
11
4
-3
-1
0
-2
-3
-9
9
1
-1
0
-1
-1
1
5
0
-3
-1
-1
-1
1
1
5
4
-15
-3
-4
-2
-2
-2
-3
20
-3
-10
-2
-2
-2
3
10
-2
22
15
6
4
0
-4
-16
-62
16
1
-2
-1
-1
0
4
37
0
1
0
-1
-1
-3
-2
-39
-16
-6
-5
-4
-1
-1
-6
32
-15
-11
-3
-3
-6
-1
6
-2
18
4
1
0
-2
4
10
94
13
5
1
3
3
-3
-5
-57
-1
-2
-2
-1
-2
-1
-6
-35
-34
-5
-1
-2
2
1
7
59
-3
-3
-3
0
-1
3
8
59
43
4
4
-1
0
12
25
21
-5
4
4
9
-1
3
9
73
44
12
6
2
-5
-31
-50
-106
-85
-33
-24
-23
7
-1
-2
84
-19
-11
-5
-3
-7
5
-1
71
45
22
8
7
-1
5
8
-7
-14
0
-2
-1
0
18
45
127
127
24
14
13
-3
-20
-32
-128
-107
-26
-18
-15
6
5
-19
-2
-20
-13
3
1
-7
1
9
-80
29
19
8
6
12
-6
21
114
33
-9
-14
-12
-6
17
20
27
97
3
17
13
-3
-30
-66
-88
-75
-7
-20
-21
-4
9
2
70
-25
-9
5
7
2
14
19
46
69
33
17
11
3
-28
-56
-80
-87
-22
-18
-11
-3
18
53
127
-21
-11
12
11
2
-49
-49
63
-3
-26
-36
-37
-4
3
-19
-63
-57
1
-1
2
-9
28
44
89
-14
20
24
17
0
-21
-28
-97
29
14
1
-1
13
1
3
68
7
-1
-2
-3
-8
17
23
74
43
-22
-1
10
1
-13
13
7
-8
18
-3
-7
12
-6
-23
-114
-1
4
1
1
2
14
22
54
-75
-1
11
6
1
-20
-78
-124
-37
-4
-6
-6
1
12
12
12
-48
-26
-10
5
-5
15
55
24
102
23
10
10
-3
-19
25
29
-31
-18
-23
-20
10
6
-9
-28
-93
-24
0
-1
-6
15
0
-56
80
57
18
9
-2
-49
-75
57
86
22
-14
-22
0
14
-1
-92
-31
1
9
13
-1
5
60
2
3
13
7
6
-2
-12
-28
83
41
-25
-10
-10
-2
3
-15
-38
-38
13
7
2
-3
13
12
55
-51
-33
3
1
-5
-14
-25
-24
28
-1
-5
-5
13
-2
15
39
-37
-21
-3
-6
-6
19
12
88
3
-10
-1
1
-4
-21
-102
-52
32
18
2
-4
-2
37
92
106
29
-32
0
13
0
-22
-17
45
26
49
7
-2
8
6
69
113
-52
-17
-6
-3
-9
25
-29
102
-41
10
12
16
5
-41
-55
-75
18
2
-13
-24
1
11
15
-27
-36
-30
-11
-2
-6
14
52
-16
85
27
9
1
-8
-32
-47
-88
20
30
0
-6
11
4
-33
6
-63
9
6
6
-5
5
-49
-13
-100
-21
12
11
-6
-17
9
-4
0
12
-14
-12
19
20
87
107
23
-20
-7
0
-12
-1
-2
41
-70
-8
-7
-4
-2
5
-65
-111
-12
30
28
15
-3
17
100
127
69
9
-4
1
0
-10
-33
-88
89
34
9
2
-2
-5
0
-8
-65
-30
-12
-6
-8
8
20
-1
-13
-13
-11
-12
-5
15
41
36
-49
-22
2
5
-2
5
60
101
90
46
8
2
-5
-4
-79
-75
77
44
6
10
-9
7
47
-7
-44
-8
-8
-5
6
25
4
74
80
27
14
14
3
-12
-54
-28
-45
-55
-15
-14
-3
2
-28
68
-114
-24
0
1
-5
-16
-27
60
127
37
-1
3
0
-46
-108
-92
-128
-59
-28
-24
8
35
87
47
-103
-38
0
11
-10
0
27
-64
115
84
23
10
13
-20
-8
54
-7
-34
-29
-20
3
-4
-85
-115
-128
-37
-1
2
-10
4
1
39
96
1
1
0
-2
-18
65
94
51
9
-20
-22
3
10
7
51
-52
-16
-1
3
-7
19
26
19
-8
21
19
18
-1
-11
24
61
11
-12
-4
-11
-1
10
30
54
-42
-15
4
3
1
9
8
-61
-44
-11
6
3
1
-9
-15
9
-55
-3
-7
-5
-7
-33
-33
-125
-57
-25
-23
-18
-5
11
47
-9
-10
-2
8
3
-1
-8
-18
48
71
-9
-4
-3
-6
6
28
66
22
-6
-1
2
9
2
5
71
-22
1
-5
-2
-8
4
19
18
-53
-7
3
3
-1
0
11
-47
-41
-13
-7
-9
-6
5
16
-40
-41
7
5
4
4
9
-5
-34
-12
23
9
9
7
2
10
3
29
-2
8
6
4
-14
7
-91
26
-7
-19
-15
-2
-5
-18
7
21
-9
-5
-5
-7
22
52
33
-82
12
21
23
1
-43
-113
-116
-110
-28
-31
-34
1
9
72
58
-17
11
4
5
5
-8
-42
-21
5
-21
-15
-11
-8
19
-27
-29
89
73
33
28
5
-10
-3
38
98
12
1
-1
0
-1
2
-20
-3
6
-2
-2
-1
-9
-5
95
27
5
1
-5
2
5
-24
-81
-75
-31
-6
0
-8
2
54
51
10
-14
-9
-9
-4
-21
-38
-34
-3
1
-9
-7
-1
31
15
67
12
2
15
16
-3
-24
-53
-39
4
1
-11
-14
2
6
17
-14
-85
-24
-5
-2
-11
18
26
27
-24
13
8
10
3
4
4
-37
-88
-7
5
2
-4
-20
-26
-54
9
6
-7
-5
6
3
-31
12
-22
-8
-3
-1
7
5
-2
-5
-65
-18
-2
1
-8
17
29
-12
-47
8
11
9
0
-53
-50
-100
-42
17
-14
-24
0
2
-28
73
6
-1
5
5
-2
18
-14
47
-43
4
11
10
5
-39
-21
-90
5
5
-14
-20
4
8
41
-8
-34
-24
-10
-7
-2
21
11
24
-60
13
14
12
-4
-13
-27
-89
30
-26
-8
-7
5
-8
18
-31
-22
2
-9
-5
8
28
98
127
14
-16
-2
5
2
-8
-55
-70
-121
-8
2
2
-7
26
54
127
71
-3
3
12
-1
-30
-61
-85
36
-18
-14
-17
-3
4
-34
9
-48
-7
5
3
-7
26
59
-9
0
14
16
15
3
-13
6
-115
56
30
0
-3
7
7
10
41
-49
-27
-17
-7
-17
3
-11
-88
90
23
9
4
-5
-15
-52
16
70
29
4
-3
-2
-1
8
77
-89
-6
1
1
0
4
44
127
120
29
4
3
-2
-16
-36
91
-49
-41
-17
-14
-7
-5
-5
33
25
-7
-3
-2
-5
9
47
72
17
-12
1
-1
0
4
12
-12
89
78
26
13
2
-8
-18
113
-61
-28
-17
-11
-1
7
39
1
-5
-1
-4
0
1
12
70
91
-77
-18
-3
-2
-3
-18
-73
-87
-63
14
5
-2
3
-8
10
38
27
5
-5
-5
5
8
19
41
-95
-30
-8
-1
3
14
-3
-25
2
45
21
14
-1
9
15
127
-35
-32
-13
-8
-5
15
39
2
35
18
7
6
8
-23
-48
-38
67
-12
-9
-6
-9
-15
-22
45
-19
2
-6
-12
1
5
-5
1
1
-7
2
3
1
-1
4
-24
62
-2
5
3
2
7
31
123
99
8
6
1
-5
-10
-55
21
-15
4
1
0
-4
2
-61
27
-30
-18
-8
-2
-1
12
35
7
79
8
2
6
5
8
37
68
15
6
3
0
2
-29
-79
-33
-57
-21
-13
-9
-7
9
36
87
39
-14
5
3
-8
22
44
23
-23
4
12
13
0
-17
-24
90
-5
-2
-10
-13
7
-32
-75
12
9
-1
-6
-11
8
15
10
36
-72
-30
-1
0
-18
-3
-36
51
51
20
6
3
-3
-1
-63
-68
-97
-35
-8
0
-7
10
110
-21
-22
50
15
8
24
-16
-50
-111
-106
-16
-7
-4
-2
-4
-37
-8
-48
0
-3
-2
-5
27
80
84
61
44
15
13
7
-49
-87
11
-22
-54
-34
-28
-21
8
78
44
27
6
1
3
2
-8
-18
-25
-87
-9
-10
-5
2
18
36
15
-22
25
13
8
-2
13
42
74
19
-9
-4
1
-5
-8
15
6
26
4
-5
-3
7
5
9
78
-27
-41
-13
-6
-11
4
33
29
-41
6
2
4
9
-10
-69
-82
27
7
-1
-4
-4
18
33
89
-29
-12
-2
4
5
10
47
-42
-95
4
6
5
-2
-24
-3
62
89
-12
-25
-17
2
31
104
-11
-9
8
9
10
3
-9
-42
-23
95
27
15
3
-1
8
63
70
-63
7
5
2
6
-9
-22
-31
-49
-2
-1
0
-1
-7
-4
-52
106
35
-1
-6
-6
5
1
-26
-57
-21
-6
-1
-2
3
4
26
-7
4
2
-1
-3
-19
-13
-128
-80
-3
4
-4
-3
15
12
127
73
-7
1
2
1
13
26
60
-75
-6
1
7
-3
-12
-87
-128
127
40
15
9
7
-14
-35
76
-90
-33
-19
-18
-2
12
5
13
-84
-23
1
8
-6
-17
-24
4
2
9
0
-4
-3
-14
-43
31
33
30
2
-4
-4
18
54
-60
-70
-5
4
5
-3
-4
18
29
-16
11
9
4
13
-12
8
-45
-64
-50
-21
-10
-8
9
62
44
-54
-3
2
-1
-5
25
56
86
10
9
12
18
-6
6
65
40
70
23
-7
-3
17
-17
-24
65
-96
-10
-14
-18
3
7
11
-10
-62
-11
-3
-1
0
20
52
106
102
15
11
13
1
-15
-26
-64
52
12
-6
-6
-10
6
-8
-13
58
14
6
6
0
-10
-31
44
5
-25
-11
-6
-2
-16
-41
-46
-7
17
0
-7
3
-4
-51
-52
-84
-17
0
0
-8
-4
-8
59
26
15
3
-2
4
-21
-62
-86
-102
-43
-20
-18
-11
22
-11
-36
-22
11
16
16
4
-24
-5
-77
-28
-12
-8
-11
-2
16
-23
49
-77
-26
-2
6
-7
8
36
-20
-47
-2
5
9
15
-24
-56
26
88
4
-5
-8
-4
6
-19
74
-89
-5
3
6
-7
6
8
7
104
48
14
10
-2
-1
-24
-33
-55
-7
-6
-5
-9
-6
-28
-39
-58
-29
-17
-9
-4
0
-4
-32
78
38
15
12
0
-21
6
-128
47
0
-1
-10
-1
-28
-39
-36
-18
-15
-11
-14
-8
21
45
75
-48
-22
-1
4
-6
-45
-81
-65
-41
24
-9
-22
-3
2
26
122
-59
4
6
1
4
8
33
34
-29
-18
7
2
-2
-13
-30
-7
17
-11
-5
-1
6
24
46
7
-128
-31
2
9
3
1
2
-10
121
3
0
-8
-19
4
-41
125
24
32
11
11
14
-12
-11
74
109
14
-4
1
8
37
88
127
41
11
12
8
-8
-13
-73
-18
-47
-10
-19
-17
-9
25
119
127
108
19
7
8
-10
-5
-14
-72
-77
12
10
14
33
1
1
111
-36
-31
-14
13
35
7
71
85
54
27
7
-27
-80
2
-3
48
-4
4
6
5
-3
-21
-11
-92
-42
6
-4
-17
-17
21
77
112
86
7
1
5
13
-3
-32
-3
-118
-20
0
18
33
-2
8
99
110
25
0
-6
-23
-4
41
86
-12
3
0
-6
-3
14
16
-10
-54
-25
-4
0
-10
-10
-23
-86
-68
-9
-3
2
16
-5
1
14
31
-5
0
1
13
15
16
70
-71
-26
-17
-5
0
-8
-81
-73
56
26
9
-5
-18
-4
-14
-96
-39
-9
0
12
10
-26
-32
-92
-128
-23
-15
-14
11
7
-53
0
-21
-12
0
-5
-12
5
9
12
-15
1
9
7
-8
-5
-8
125
77
6
-2
-6
11
-22
-81
-126
58
33
1
-5
-5
9
-37
-18
-26
-9
-5
-5
-6
-9
-20
-25
-85
-36
-12
-12
-10
0
-25
-8
45
12
7
22
12
-15
105
127
-19
6
-12
-16
23
6
41
62
-3
5
1
-5
-10
5
-43
-31
-95
8
10
13
-5
11
16
12
43
-11
5
9
8
0
50
84
47
-11
-12
-13
-14
-23
-20
-71
-51
-10
-14
-14
-3
10
35
35
-48
-17
1
-1
-10
39
92
79
109
57
26
26
21
-40
-59
-128
-112
-47
-25
-21
0
4
49
82
-36
2
-1
1
-6
9
-24
8
-52
-35
-1
3
-16
-26
-14
38
-78
45
1
-10
22
6
-70
-79
-98
-11
-1
0
4
3
35
10
-19
-7
4
7
-6
-23
-75
-98
-82
-16
-12
-15
-4
-9
18
30
-3
-21
-7
10
3
26
40
125
11
6
11
-18
-6
-3
-19
6
46
6
-1
23
-4
-21
-44
-57
19
2
-9
-5
0
-4
40
36
23
-18
-7
-11
0
44
91
91
93
28
22
21
-3
-27
-75
9
-121
-46
-20
-28
-9
3
15
50
-16
13
5
7
4
5
-2
85
-33
22
21
10
-1
12
33
-16
56
-20
-15
-21
-7
-8
-10
-54
37
17
9
-16
-4
12
47
72
34
5
-4
-7
-1
7
48
-90
-106
-32
-17
-56
0
-8
-42
-98
-81
-23
4
90
0
9
37
32
23
36
3
32
15
0
43
55
-41
-18
-9
-10
-4
11
-22
-121
-120
-54
-17
-35
-15
-25
-36
-84
-41
38
24
10
-6
2
-25
-18
-21
-13
-8
-7
-1
18
11
33
0
3
-4
-26
-7
-10
-23
42
-33
1
6
29
-3
-11
-77
-33
-43
-41
-17
-1
-11
-17
-98
-73
34
3
-7
-38
2
-23
49
17
40
8
-5
11
8
5
-11
3
-15
13
5
-26
-15
13
3
36
-41
-14
-7
-14
-8
-1
53
127
-8
41
16
-21
4
-26
-54
-121
-9
-7
-7
45
12
-18
-41
40
6
-7
-7
11
0
9
39
108
8
-3
1
20
5
18
53
0
46
1
5
8
-1
-31
-90
-80
-39
-12
-9
-30
-5
-4
16
33
-1
3
-18
-6
-3
22
17
54
37
15
-7
-48
-7
-1
2
-83
-11
-2
19
-17
5
-2
-15
125
79
24
16
105
9
0
9
41
27
-9
-50
-64
-11
0
-14
3
-18
6
77
27
11
-1
-7
-71
12
-11
-14
23
21
16
56
107
38
4
23
59
-39
-4
-12
-47
-59
-20
-7
17
11
5
12
-10
35
7
-28
-34
-3
-9
3
7
-13
2
-21
-32
-12
12
17
-18
5
2
-28
-128
-5
-7
12
-26
15
-5
-75
22
-3
-3
3
-14
3
4
88
93
1
1
10
9
6
1
46
94
-7
-2
27
-26
16
6
3
-69
-8
-2
-18
28
17
5
-6
-14
6
-2
-2
-35
-21
-5
-39
-9
14
14
13
25
-18
-8
5
-16
18
-13
0
-5
30
1
-9
20
-6
7
7
-33
-7
-2
-43
-33
16
-12
-12
-17
-17
-3
1
-14
-26
-3
-2
4
0
7
77
-22
10
6
-13
-40
4
3
-40
-26
29
6
22
60
36
11
109
105
-10
-3
-11
-24
-14
-5
-47
-23
18
1
-5
18
-1
-8
-36
50
-37
-2
-2
-8
-6
-1
12
-47
2
6
10
0
3
-4
32
-24
-26
18
7
-15
-1
3
-14
-8
25
-35
-3
-16
3
-2
-47
-101
-35
4
7
58
16
3
53
127
37
-24
4
-43
-11
-2
-36
-54
-43
-1
1
19
3
1
18
-116
-15
19
-2
-19
-13
-5
-21
106
63
7
6
19
-1
0
-43
-53
-18
-3
-13
-22
-7
-2
36
25
30
5
17
-9
1
4
7
-70
-31
-19
-10
-20
-3
-11
-46
-63
-8
0
-20
-17
-22
-4
39
62
27
-7
-10
-11
3
0
-5
8
-65
31
11
8
12
1
-38
-72
80
3
12
116
14
1
54
93
-33
-2
4
-11
9
2
-11
-15
1
-4
-6
-23
-4
-2
9
-3
27
-22
-4
-4
-2
0
0
20
-32
19
-1
-51
-5
-2
-34
-30
38
-18
-1
22
-1
-1
19
-72
-32
3
4
14
6
4
8
27
32
-7
-1
12
2
-2
-11
122
-5
-8
-9
-51
-2
-1
1
-12
-30
-5
3
-24
-7
-2
-26
-91
-25
-6
-3
-17
-4
-1
-17
2
2
6
2
45
7
1
28
63
6
15
-7
-67
-2
-2
18
53
54
7
5
39
-3
0
-13
-50
12
15
-4
-35
-6
0
-7
46
17
-14
0
3
-1
3
33
-42
13
-4
2
31
-1
-1
6
74
-28
1
6
-43
-7
0
3
62
-16
-2
6
77
15
-1
-14
-63
16
-5
2
-4
0
-3
-26
14
-14
-2
6
14
6
1
-1
-106
-27
3
-1
18
12
3
24
28
14
9
7
-23
12
4
12
32
-16
-19
-35
-51
-59
-18
-33
-20
-5
5
4
29
-7
-4
-48
-56
-5
-5
3
4
-4
-1
25
-18
-1
27
10
35
9
2
27
-25
-28
5
12
15
26
7
2
78
50
-5
-2
12
-2
-1
-14
20
7
0
-1
-4
-3
-9
-28
20
4
-12
2
-8
2
1
17
-95
-23
-27
-10
-21
0
3
13
-13
-11
0
2
86
9
1
-9
34
0
1
-1
-61
-22
-2
-8
-6
-2
-8
-19
-36
4
-8
-39
-20
8
-2
0
47
2
-4
9
-23
-25
9
2
-27
11
5
31
11
20
1
5
-1
9
2
12
-2
-11
-9
-17
-38
-42
-2
-8
23
5
-5
11
15
1
-11
-44
-107
-19
-2
-13
-20
5
-4
10
62
-3
1
6
90
14
7
20
3
7
1
-20
-49
-28
-4
10
21
15
5
2
-18
8
5
-5
17
-21
-5
0
33
-6
-4
-11
-71
-8
1
5
42
6
-5
-12
14
0
-5
6
15
0
4
18
21
8
7
7
12
5
3
-6
10
-11
-4
-6
-46
-1
4
13
-22
-4
-4
-2
6
8
-6
-68
8
-3
4
17
63
6
-1
40
5
4
8
-1
-52
-12
0
44
26
7
-2
-10
0
-1
4
7
-7
-3
-8
-3
4
8
-1
-6
-13
-4
1
3
-8
-4
-3
-32
-43
-13
8
3
63
12
0
-6
29
13
-6
0
13
2
0
18
12
3
0
-12
-60
-29
-8
-1
-10
9
-8
-17
-11
-13
-5
-9
24
-12
2
5
12
-2
1
-14
-18
-13
4
6
21
0
-2
-8
-39
-6
1
3
63
1
2
9
12
7
-5
-10
-43
-8
-1
-11
-5
3
-1
-3
12
5
-2
-5
-13
-2
-5
2
-29
-11
-2
-2
-6
-4
1
-2
-17
3
1
10
-1
-6
3
4
18
-3
-4
-16
3
4
-4
-7
-30
-5
4
6
12
-2
5
11
17
12
1
10
6
4
-1
-7
-13
-5
-2
7
4
-7
0
10
41
11
-1
-42
2
2
-6
-17
-24
-3
-2
53
17
0
7
-1
-2
-14
0
-4
-15
-4
6
1
22
1
3
7
-1
1
-3
-5
-74
-2
-2
3
5
1
-8
0
25
8
0
-14
-5
-4
-2
-5
-3
4
-1
3
-9
-6
3
3
-6
-3
-1
0
-4
2
1
-5
35
8
0
10
11
1
3
-1
-58
-15
-4
-20
-14
-4
-1
12
62
11
0
0
3
3
-4
-7
-23
-4
-3
-5
4
-1
2
9
39
11
2
11
5
2
6
7
8
10
3
-6
4
-1
-2
-7
-47
-14
-2
-9
-13
-4
1
-5
-27
-5
-1
-1
-1
-1
2
4
17
6
3
5
0
0
-2
1
18
3
-3
1
6
-2
-6
-14
-8
-6
-7
-19
-14
-3
0
-3
-16
-3
3
15
10
-1
0
2
-31
6
4
9
-1
1
-1
-1
46
9
0
-15
0
-1
1
11
21
4
-2
-2
-3
-2
-3
-18
-49
-10
-5
-3
-5
-4
0
0
-10
-11
0
5
0
2
3
9
55
14
3
-11
6
3
-2
-3
-18
-4
-2
1
-3
-4
-1
-1
41
4
-3
4
-3
-1
-1
0
19
4
-1
5
2
1
1
-3
-34
-22
0
0
5
0
-6
-2
-2
4
1
-8
-7
1
1
11
25
5
-2
-5
-3
-3
-5
-9
-29
0
8
8
5
0
-2
-12
-48
1
2
-8
-5
-1
3
4
38
3
0
1
0
-1
-3
-5
-78
-28
-12
-2
0
0
2
14
44
26
8
4
2
0
2
11
-25
10
6
-4
-2
1
-5
-21
-91
-32
-6
-2
-4
-2
1
4
52
8
-3
-3
-2
-3
5
6
25
1
0
2
2
-2
4
11
87
37
0
1
2
0
2
1
-57
-48
-7
4
1
5
-10
-26
-14
-10
-11
-12
-10
-5
6
13
-11
52
14
6
6
2
-6
-18
72
10
-1
0
1
2
2
12
25
31
1
-4
-3
-4
1
4
0
-16
-6
1
0
-4
-7
-8
21
-29
-11
-6
-4
-4
-2
-1
52
-16
-5
-3
-3
-1
16
50
113
-22
-25
1
6
-3
-26
-75
-67
36
48
5
-8
0
-1
15
82
23
5
-3
-3
-4
10
10
-45
10
0
3
4
1
-5
2
127
5
4
0
-1
0
10
23
-49
0
-15
0
3
0
-17
-54
-128
-68
-18
-9
-9
-2
-2
-10
-34
-40
-5
-6
-2
-4
1
-1
41
33
4
3
-1
1
1
12
11
-23
0
2
4
3
13
2
105
48
-10
6
5
-4
-21
-13
-100
-19
2
-7
-12
4
-9
-12
-6
-55
0
-8
-4
-3
14
17
92
40
17
17
11
-1
-18
-28
-69
-41
-16
-13
-11
10
12
-6
113
-43
-20
2
9
-9
27
72
81
105
55
32
24
3
-55
-55
-22
-77
-31
-44
-44
6
15
-10
62
-24
-10
7
11
-6
-3
36
75
66
10
3
-4
-6
-6
7
-128
-18
5
-7
-8
10
19
35
120
46
10
17
18
-4
7
19
58
67
14
9
0
-6
-53
-109
-128
-101
-31
-30
-28
-2
11
-7
109
2
-1
6
9
-6
-8
10
20
-17
-26
-13
-10
0
-4
5
40
-40
-3
-10
-10
-3
21
48
69
111
22
22
17
-9
-13
28
-79
29
-5
-16
-19
7
3
-49
-61
-51
-18
-6
4
-1
30
38
35
35
15
18
26
3
-16
24
1
98
8
-12
-20
5
-5
-10
81
-51
-26
-12
-8
-9
30
22
27
44
13
24
23
-3
-41
-70
-90
-66
4
-13
-18
13
35
30
0
-122
-7
19
22
0
-13
-25
69
108
14
-3
-5
-4
-23
-8
21
-25
-22
-19
-18
-3
5
13
60
-19
-11
-2
1
-3
9
39
55
9
-3
6
4
-6
0
10
2
10
19
8
5
7
13
38
107
-82
-4
-2
-1
6
-3
-3
-99
2
10
-1
2
-4
0
17
81
9
-2
-11
-11
-3
27
-10
7
25
8
19
19
6
-32
-39
92
127
68
2
-11
-4
12
42
52
-21
-14
-6
-2
-4
1
-37
50
-108
-32
-6
-2
-12
-15
-5
-40
-13
0
-7
-4
2
30
17
53
-49
-20
0
7
3
-1
-21
85
59
19
16
7
-5
-11
16
-46
-31
-20
-23
-16
10
-2
-49
-32
-128
-43
-10
-5
-8
-16
-73
-34
82
35
17
12
-2
-24
83
-18
-62
-2
-20
-26
-4
1
-22
-37
127
41
15
16
6
14
18
44
-89
-36
2
2
-13
-22
74
-21
70
-2
-8
-12
11
17
59
16
-46
-17
-5
-2
4
-1
-24
33
-64
-18
-8
-2
1
-4
29
-38
88
56
11
5
-10
-3
-40
26
65
29
2
-3
10
-6
-67
-1
-47
-2
5
5
3
4
33
-28
-93
-16
-10
-6
-2
3
9
43
-96
-22
3
1
-8
15
42
3
-62
5
-1
7
-3
-11
14
86
-10
-6
-12
-12
-2
-17
-128
8
43
16
9
8
1
-5
-11
-64
-41
-11
-4
-3
-1
3
16
125
-104
-56
-18
-11
-11
34
51
-78
45
24
12
19
5
40
114
127
72
43
26
18
15
-21
-27
28
18
4
-9
-13
6
11
76
-17
-128
-59
-13
-5
-5
18
-16
-10
91
4
15
22
-10
-24
8
66
-88
-28
-17
-20
13
-4
25
-61
-13
15
-6
-9
5
2
-51
-93
-18
-44
-3
1
-14
27
58
108
23
26
20
20
7
17
-15
-73
-50
13
6
10
-1
-17
42
52
22
-17
-20
-17
-3
-2
-64
17
-40
4
6
5
-7
-7
-22
-45
65
26
8
-9
-7
-11
23
-128
72
33
-5
-6
3
-3
7
22
-104
-23
-2
1
-3
30
-41
23
88
20
12
20
-14
-47
-102
-128
14
2
-9
-17
15
-26
-91
8
-4
-12
-5
-1
-7
-21
-128
-106
83
-2
-6
-5
-14
20
87
-20
10
-9
3
10
-3
-26
-18
-89
43
25
-1
-9
5
6
9
-1
-38
-26
-9
-4
-4
-8
-36
-34
17
-4
2
3
-1
-8
-57
0
-124
-17
-1
-4
-2
31
56
127
-7
54
37
28
10
-47
0
18
35
-16
-22
-31
-10
18
24
18
-80
-5
3
5
2
0
57
39
71
44
9
5
17
6
56
53
-54
-42
-18
-10
-31
2
2
0
5
17
13
5
5
18
7
56
76
25
2
-1
1
-33
-39
-69
-5
-14
-13
-16
-6
-2
-9
45
-101
-49
-14
-1
2
15
33
-61
-42
6
9
8
-2
-13
17
-102
39
31
8
-2
8
21
27
42
-49
-2
-1
-2
17
4
-16
-43
25
0
2
4
5
7
13
54
-99
-29
-12
-7
-13
25
40
-13
38
26
17
20
-5
-11
-27
45
76
10
0
-2
2
-21
14
78
-42
-18
-17
-17
2
30
59
25
48
0
6
13
4
-2
-12
-23
84
7
8
2
-4
17
78
53
-49
4
11
10
-11
-29
-46
42
-85
-31
-28
-27
6
22
35
56
-10
11
12
14
-3
-17
-51
20
-71
-23
-11
-9
-4
-15
-20
-60
-65
-7
-3
-7
-4
25
62
28
13
-2
9
15
-1
-2
52
2
-58
-9
-9
-17
-1
7
30
10
1
-8
0
9
9
1
34
26
-44
-10
-9
-5
3
9
19
8
71
25
10
3
-15
-25
-22
-124
109
14
-1
-10
6
10
31
120
-65
-20
-8
-5
0
6
7
-79
-85
-19
3
1
-4
-1
17
-61
-1
32
-2
2
8
-14
-48
60
-76
-26
-6
-4
-6
8
41
22
-77
-17
-6
-4
-5
-14
10
-128
67
56
24
9
29
-43
-80
-30
-89
-47
-28
-23
-11
11
45
7
9
16
10
8
-6
7
-38
96
-128
-40
-9
3
0
-51
-69
3
115
17
0
-15
-5
-8
52
-17
-74
-27
-9
-6
-1
-4
-25
23
-54
-3
-8
-5
5
6
-27
-32
62
27
15
4
-14
18
82
63
-47
25
9
6
13
-15
-12
75
-10
-16
-15
-14
-3
12
-42
29
-99
-21
-2
8
-2
4
-64
-48
37
28
26
6
-17
5
27
127
-58
-39
-23
-10
0
21
64
29
-103
-12
1
2
2
10
106
30
-128
-20
6
4
6
-37
-62
77
63
35
-17
-14
12
6
-46
-55
-40
8
2
2
-21
-9
32
35
-74
-14
7
5
-5
-15
-80
-72
-35
-47
-17
-11
-19
5
-24
18
-12
-5
2
7
8
-18
-23
-20
-42
-9
-17
-11
-9
-13
-121
-3
105
2
1
9
3
1
-101
-123
-1
25
8
4
3
6
-5
-7
-128
-33
2
10
1
-27
-49
5
96
34
-16
-20
-5
43
6
-23
-62
-16
17
26
-1
13
85
13
34
23
1
-4
-14
5
127
-64
-115
-5
-11
-10
7
-4
-59
-47
-71
-48
-9
0
-11
11
8
-79
1
33
19
13
6
-5
-41
4
127
49
16
13
22
9
72
87
3
-31
-8
-4
3
46
127
62
-90
-27
9
17
4
-45
-26
-22
91
79
4
-15
14
-11
-41
93
-70
-27
-15
-12
-19
9
19
44
12
3
8
4
-1
32
109
66
-40
7
23
28
8
-56
-32
21
32
-24
-33
-44
-2
-6
51
112
-52
-16
-4
0
-1
-1
47
57
16
14
-5
0
1
-30
-95
-24
99
32
-1
-7
-14
11
-45
5
-18
-30
-4
0
-3
-6
55
-51
90
21
10
-1
9
-25
-42
-83
-128
-20
-11
-10
-3
13
8
2
3
-2
2
6
7
35
-47
84
-92
-21
13
23
-8
-30
7
-71
103
49
-4
-17
9
-10
2
53
-84
-15
-11
-13
-4
12
31
20
-72
-8
1
2
-6
15
-17
-4
-87
-7
17
22
-12
-10
-35
34
69
-10
-4
-2
3
7
35
72
-10
-4
-3
0
6
-6
-49
-4
2
3
-3
-1
-1
80
127
93
-18
10
25
26
-10
-33
-21
27
-92
-26
-25
-22
-1
-20
-34
-60
28
5
-4
-4
-10
-15
58
83
-80
-40
-11
-4
10
-27
-41
-120
-53
-8
-1
-12
-12
10
21
127
-11
-2
4
8
-2
34
53
127
127
11
3
7
9
-25
-59
-23
35
15
-2
-6
-24
-7
33
83
-28
-7
-5
2
15
-23
-96
15
-99
-8
8
5
-7
-31
-89
-105
-20
-13
-17
-16
-5
10
37
-21
-76
7
6
2
9
3
92
27
61
0
-7
-6
-3
16
-8
59
37
-9
3
7
-8
2
20
67
-107
-29
4
4
5
5
-31
76
33
3
-1
0
3
13
48
-37
100
34
-2
-1
5
-14
71
68
40
13
-5
-10
-3
-12
-34
30
-32
1
-4
-7
-2
4
64
101
39
-6
-6
-5
-2
-25
-64
-57
-128
-6
-14
-16
1
21
-69
-97
-54
5
15
24
-4
3
75
39
109
19
-2
-6
4
-4
6
-18
-79
-31
-19
-17
-9
25
-2
127
60
53
33
31
0
-39
44
-97
0
-14
-18
-21
7
-28
-34
74
-20
-11
-24
-25
-11
22
8
49
-76
-29
-7
1
-1
20
-24
-59
60
48
19
14
-23
-17
-19
-18
-75
10
0
-8
31
17
-24
58
-23
-10
-3
6
-11
-2
20
49
51
18
9
5
-3
-24
-42
-111
-55
-35
-12
-11
0
21
0
91
-47
-37
-8
-3
-10
-3
33
-83
-77
5
5
-2
20
11
13
-69
-33
2
5
6
-3
1
-52
-34
-99
-31
-3
0
4
31
1
74
9
47
29
26
2
-38
79
77
-11
-23
-31
-37
-8
-3
25
25
1
8
1
1
1
39
127
121
-13
-16
1
9
14
-44
-9
43
56
-5
-6
-5
-20
-14
-37
-83
8
0
-5
-9
1
0
-29
-24
44
13
0
0
4
-3
-18
76
64
-2
-10
-11
-1
23
-61
1
41
63
27
16
-2
6
27
-51
-43
4
16
17
3
6
38
-65
-52
-6
-9
-11
9
-36
-5
-93
-128
-40
-29
-26
-10
34
80
2
-37
-50
-7
9
-12
-33
-102
-54
100
62
29
13
23
-10
-26
127
5
-11
-17
-16
-6
30
56
127
-8
-17
4
8
-3
24
104
45
-46
1
-1
-6
-1
3
85
114
-5
-24
-20
-10
0
-20
-27
59
-113
-43
0
6
-10
-16
-77
51
127
94
25
7
5
-10
-38
-46
-101
-38
-15
-10
3
11
-31
-27
19
-15
0
9
-17
10
-38
32
72
32
16
9
6
-34
-69
-59
-43
-35
-14
-9
-9
-22
-16
-120
35
8
-10
-13
-1
18
32
35
-37
6
4
11
-3
-28
-42
-42
-56
-7
0
-9
-4
37
35
-34
34
-2
1
8
1
29
53
100
58
23
11
8
0
-14
-7
-52
8
-7
-5
-13
6
2
35
25
7
14
5
4
1
7
-44
-4
-82
-8
10
11
3
9
-29
-36
-105
-19
0
2
-6
-24
-22
-50
19
-1
-18
-17
7
12
-18
3
-33
8
8
12
3
-37
-100
-30
-47
-13
-15
-21
-5
-3
-40
-25
-128
-56
-21
-10
-3
17
-23
19
83
53
24
25
-2
17
28
-3
54
22
11
3
11
-9
67
59
-3
-15
-17
-7
2
16
38
-23
-43
4
4
2
-2
9
-54
-122
-32
-12
3
4
-8
-18
17
29
6
-10
-13
-10
-5
3
101
58
10
-7
-8
-7
0
-2
-35
24
23
13
1
2
-1
6
-23
-18
14
1
9
8
-5
2
13
-61
-7
0
0
0
4
-13
-50
-16
23
-5
-2
-4
-5
-2
-5
45
28
-2
-2
-2
-1
9
-2
63
-37
-6
0
4
-1
-3
-21
-19
-83
-16
-5
-8
-6
-6
7
7
75
18
3
-2
4
3
20
19
43
7
-2
-7
-2
19
-1
32
-29
0
10
10
-1
12
15
27
2
0
-1
14
1
-7
-4
37
-24
-10
-3
-7
3
-6
-61
-100
2
10
6
4
-1
6
16
42
-19
-17
-13
-11
-7
-15
-32
-14
-9
-7
-10
-18
-2
-11
-4
-26
-22
-4
-13
1
4
-3
25
-13
15
1
-18
-38
-18
3
9
20
-21
-2
23
41
-1
8
15
-12
41
10
1
9
28
6
23
7
-23
-12
-26
-13
-9
-9
28
54
-3
7
32
1
-6
3
11
-29
-13
-3
26
-20
10
1
16
41
29
6
-1
18
-21
1
-4
-65
-14
-8
-34
-30
20
4
11
56
11
-3
-41
31
3
2
-3
-1
-8
3
55
16
14
-9
-8
-48
9
5
26
11
-25
1
7
1
-18
-5
15
-24
-10
2
23
27
8
2
3
12
9
9
5
-14
-13
-1
-55
-6
7
4
4
6
7
-4
-2
-3
10
-11
2
25
3
-1
-14
-9
-28
2
7
-2
-4
2
4
7
12
1
15
16
-4
1
-8
-1
-4
4
-10
-37
10
2
-14
-18
-4
0
-6
-24
-6
-3
1
-26
1
-7
-6
-1
3
-1
19
8
29
0
11
4
-9
-4
-27
6
-7
6
1
-24
-1
-1
16
-20
-25
4
19
118
8
3
50
12
11
8
-3
51
-13
0
11
46
28
-9
-11
-4
-7
-3
-4
-35
-25
-12
-2
39
22
0
-26
-1
10
3
13
1
-9
-3
-3
-9
5
-3
-1
-15
5
2
-9
-24
-14
-5
-11
-5
-4
-2
-18
-12
1
4
1
-5
4
2
25
34
5
-11
-3
-23
-2
-2
-33
-5
-25
5
5
-16
2
0
42
20
-34
5
-6
16
-4
-3
-12
-16
27
-3
-2
19
0
1
23
-38
13
-2
-8
-110
-24
-1
8
91
5
-1
-1
13
6
-2
-34
-15
-9
-12
1
14
3
0
-10
-75
-21
4
7
1
-2
0
24
52
-3
6
12
50
5
1
2
10
31
-6
-14
-28
-1
-5
-20
-22
0
-1
-3
-22
-9
-5
-8
19
28
-19
0
-1
0
0
-10
-36
-30
-5
2
-8
-5
-1
-8
-25
10
16
-5
24
6
3
56
38
21
-1
4
-28
-2
1
-18
58
-4
-1
-5
-37
-15
-7
-37
-86
-9
13
7
38
8
4
25
-65
18
-28
-4
-1
-4
-2
-7
58
-9
2
2
17
2
-1
-9
-90
-28
-2
-3
-45
-1
7
46
127
37
3
12
45
7
-2
-17
-19
-13
4
-6
-28
-8
-8
-65
-85
-13
-14
-12
-13
-15
-4
51
50
-20
3
-1
12
9
4
-20
-22
4
2
15
-25
5
0
14
0
-9
1
-18
41
-9
-1
-7
0
4
-3
-2
-2
16
-3
-22
12
5
-1
-1
-9
-6
-1
-22
-41
-4
-2
-8
4
-3
-2
30
39
1
4
27
44
14
6
-3
-21
-10
7
-5
-85
-24
-5
-16
24
7
-20
-34
14
-32
-12
7
-28
3
0
-14
-15
-10
-2
9
32
-14
-1
6
25
13
3
14
0
-6
10
18
72
19
7
18
2
-7
10
12
-3
6
3
-15
19
8
-13
-25
-92
-8
-9
-28
-15
-2
4
7
12
8
-5
-13
-23
3
7
0
7
0
1
20
-3
6
-6
1
6
-2
-2
-9
-1
-5
-7
-11
27
-1
4
3
-3
-2
-4
-3
-79
-11
-4
2
0
1
-1
-5
-18
-4
-2
-7
1
-5
4
4
22
3
0
-8
-7
1
-2
4
42
2
-2
-12
5
-3
3
2
28
13
2
-9
-13
1
-4
-6
-21
-8
3
52
35
4
1
0
-11
3
-1
13
-3
-1
-2
11
71
4
-1
-14
8
0
-3
-6
-6
-5
-3
-9
-16
-4
0
6
-28
-9
1
-6
4
-1
0
-1
6
12
3
0
9
3
0
-5
-26
-6
-2
-9
-1
-2
-1
-2
-11
-11
-1
-6
-6
0
2
1
66
7
3
12
1
-1
0
7
-4
12
-3
-8
1
-2
-4
-6
-31
-3
-1
-1
-5
-2
1
6
11
1
2
12
1
-2
2
-7
-2
-7
-1
-4
1
-4
-4
-2
-1
-9
-2
-18
-11
-1
-1
-2
11
1
0
10
-1
-1
0
1
-21
-1
-1
3
8
4
3
5
18
8
-2
-7
-3
-1
4
2
18
3
2
6
3
0
-2
-8
-82
-21
-4
1
-1
0
1
6
22
7
1
5
-5
1
-3
-1
23
3
-3
-15
-11
-2
2
7
11
2
0
1
-3
-1
-1
-3
-6
0
1
-2
2
-2
-1
0
-19
-5
0
1
7
2
-4
-5
3
-3
-3
-1
-3
-2
1
-1
-18
-4
0
5
0
0
-2
2
18
2
-3
-4
-1
-4
1
2
1
-3
-3
-6
-3
1
-2
-7
10
5
-1
-3
-3
0
-2
-3
-22
-2
1
3
0
-1
-2
-1
24
5
-1
12
5
0
-3
-7
-24
-10
0
6
1
-1
-2
4
23
7
-2
-12
-3
-1
-1
-5
-37
-17
-1
-4
0
-2
-3
0
-22
-2
1
-4
-6
1
-1
-5
16
2
1
1
1
-1
1
0
-51
-7
-3
-2
-1
-1
-2
0
11
-3
-5
-7
-5
-2
6
12
64
15
1
1
3
1
-5
1
-41
-5
0
2
1
2
-6
-25
-8
-16
-6
-5
-9
-3
1
3
8
6
0
1
1
-1
2
1
1
7
3
1
5
-1
4
2
23
1
0
4
1
-1
-2
9
-20
7
1
1
-3
1
0
5
13
9
-6
-8
-3
2
-5
-22
-65
-41
0
1
-2
0
4
12
89
30
4
5
0
-1
-2
-12
-76
-32
-2
0
2
-2
-2
14
32
-6
-6
-6
-2
0
-3
-13
10
55
9
1
-1
-5
-7
-4
51
-46
-11
-6
-6
-1
16
32
40
56
20
19
18
6
-17
-53
-51
-44
-19
-19
-16
-4
4
6
-29
-27
-7
-2
1
-4
-4
-9
-4
-20
-2
0
-1
-2
-6
-4
15
38
4
-3
-6
-2
21
18
-71
11
17
18
21
-4
-20
-23
-16
-46
-26
-17
-16
10
0
-2
-38
25
1
-2
-1
-7
7
16
127
10
-3
-2
2
-1
1
11
-70
29
14
12
7
1
-16
-39
-102
-84
-15
-12
-12
2
-5
-19
47
1
-3
-2
-1
-4
-4
-15
7
-4
-4
0
0
-6
16
76
127
63
13
3
3
4
-13
-53
-32
-21
-9
-3
-2
-6
-23
2
75
-37
-18
-18
-20
-1
-1
-5
-40
-31
-6
-8
-7
-2
-4
-61
-1
-15
-7
-2
3
-7
24
106
91
35
8
10
12
0
23
50
-61
46
18
18
17
7
-30
-37
-79
-62
-21
-20
-21
-3
5
36
104
12
12
7
2
6
1
-30
-5
26
-6
-3
-1
-1
11
58
14
-12
5
2
3
-4
22
81
110
95
29
18
15
6
-23
-40
-106
-79
-19
-18
-21
6
7
26
126
34
6
0
-2
-11
10
-40
66
90
18
18
18
2
-21
10
-86
-60
-20
-16
-21
1
11
6
127
33
-4
0
5
-6
-1
-38
-65
-13
19
10
5
5
-36
-99
-94
-24
-18
-11
-17
-5
11
65
127
52
1
-7
-3
0
8
15
-35
37
9
5
9
-2
3
-27
-26
-32
7
7
8
2
2
-24
16
-36
-6
-11
1
-3
1
-82
-63
-29
-11
2
5
-3
1
28
47
85
21
-2
-5
-4
16
-4
127
50
11
12
11
-1
-1
-23
-52
-62
-7
-4
-6
0
0
-28
67
-106
-31
-7
-1
-7
1
33
85
74
56
14
1
3
5
35
89
-5
-9
-6
0
-4
12
68
48
-25
-4
5
6
-1
-11
-55
-35
-23
-6
-1
-7
7
5
16
76
-69
-22
0
5
-9
-7
32
5
72
2
0
-7
3
-9
-33
-116
-100
-2
-13
-13
-4
3
-18
15
106
47
18
15
-2
8
33
22
-35
-14
-6
1
5
-42
-43
-107
-17
-9
-13
-18
1
2
-4
127
41
-10
-4
-3
-9
17
40
-14
-51
-12
5
9
-3
-27
-53
-74
-106
-21
-14
-11
2
4
60
-23
-81
-26
-22
-13
3
4
71
2
97
28
21
13
-2
2
27
9
45
-6
-10
-4
7
2
-22
56
81
-1
-5
-4
-10
16
-12
-41
12
2
18
17
-4
-16
46
55
9
-34
-20
-12
12
41
44
127
100
32
15
14
4
-10
26
-69
-55
-16
-8
-10
-3
8
27
-12
-67
-3
0
4
-1
1
-16
-36
96
40
11
8
-8
-19
29
18
-36
-27
-17
-15
1
9
25
9
11
-6
4
5
7
-26
-65
-93
-110
17
17
8
-7
-14
34
32
66
-19
-23
-18
1
-5
-8
-79
-40
-7
0
3
-5
13
11
44
57
-3
2
3
-4
-43
-62
-75
-73
4
-7
-8
-9
17
27
101
-97
-22
-1
5
2
-38
-119
-95
-9
22
5
-5
9
-7
-26
87
-10
-21
-13
-7
-5
31
12
124
18
-23
-2
5
-2
-3
-68
6
76
76
44
22
20
-23
35
58
-83
-35
-41
-30
-5
26
17
27
0
2
17
17
-1
-57
-39
-22
-26
-35
-25
-24
-14
-4
-10
4
26
-1
-19
-14
-5
38
50
83
-37
2
22
24
-5
2
49
-84
17
22
-2
-5
5
37
46
94
34
-3
4
8
-3
-36
-101
-48
17
-17
-13
-17
3
13
45
45
-13
12
4
5
-6
37
-87
57
63
3
24
30
-8
-22
36
62
-44
-20
-23
-27
16
16
58
-8
-52
-6
-1
3
-11
37
45
77
-79
-17
16
18
6
-48
18
32
-84
-5
-24
-33
-3
34
56
68
91
28
15
15
4
2
53
-45
-52
-3
4
4
0
-19
20
-8
-33
-28
-17
-13
-12
3
43
-8
-40
-21
-2
1
6
10
-55
50
126
52
17
12
1
-64
-33
-83
-128
-28
-25
-32
1
8
-8
29
26
24
8
7
-7
4
-51
-92
-21
-6
-2
2
-1
26
43
127
112
17
18
11
-5
-6
-19
97
-11
-43
-28
-12
-2
-7
-24
-2
2
8
7
2
0
-17
-58
88
73
18
7
3
0
12
38
-57
-105
-45
-13
-5
10
27
20
99
107
30
18
17
-1
-23
-8
71
71
-5
-13
-16
-6
2
61
88
-30
-15
-10
-1
1
-12
-88
-126
-55
-1
-1
2
-6
20
30
-32
-67
-2
10
11
2
-22
16
49
50
21
-6
-11
4
-31
-38
-107
27
13
-10
-16
0
-12
-46
-22
-52
-33
-12
-2
-8
-6
9
-64
84
28
5
-5
9
-13
-28
-8
-4
2
-1
-2
-12
2
1
-22
-37
2
4
7
2
24
125
21
46
24
7
7
1
-2
-54
127
53
-22
-10
-2
-9
8
-55
-128
-41
-3
6
6
4
0
-3
-26
-108
3
13
7
-3
-30
-26
-25
100
35
-15
-20
3
44
71
28
-51
4
14
18
-6
7
23
-26
-7
1
4
5
5
-4
89
-47
-9
11
-3
-7
-13
5
44
127
31
-14
-10
-6
9
3
5
-17
6
6
13
6
6
-38
-28
-72
-87
-44
-35
-32
-6
28
-4
3
105
35
21
21
-6
-4
54
66
-1
-5
7
5
7
-35
-8
-121
-39
-9
-12
-13
-7
7
41
65
-34
-24
-11
-6
-7
2
-7
31
14
-26
0
4
-2
1
28
-27
47
43
21
12
-3
-6
2
-75
62
-1
-17
-17
11
32
-24
-32
-31
3
14
23
0
-32
-28
-16
-46
-19
-5
-17
-1
52
73
87
37
14
11
14
7
-25
-20
52
-97
-36
-22
-13
-17
1
-11
73
37
5
6
3
-2
-4
-70
-76
29
3
-7
-1
2
-12
-12
27
63
-16
-15
-15
-4
13
-28
79
-27
2
13
10
-2
15
39
88
-88
-52
-10
3
-5
13
60
-45
0
60
25
16
16
-10
22
12
-49
0
-3
-9
8
14
-18
10
-21
7
4
7
-2
18
-11
-21
94
28
23
25
4
-8
-8
-25
-37
-35
-18
-16
-17
-12
-66
-50
-99
-10
-1
-3
2
8
64
10
5
-8
-11
-8
-2
13
59
8
86
36
18
9
6
28
71
127
0
-8
3
8
5
17
65
9
-125
10
5
7
-3
-45
-87
127
30
-23
-14
-16
-15
-4
-20
-60
-64
-6
-2
-10
8
-12
-8
-12
48
9
-10
-6
3
-10
-30
12
79
-23
-10
-6
-17
-18
-1
-121
-48
13
6
1
0
-17
29
79
33
10
-13
-12
0
-16
-48
127
9
22
14
-1
-9
-19
-11
-84
-73
-32
-15
-6
9
28
26
69
-15
3
16
15
0
-22
-68
-37
50
12
0
-4
0
-13
-30
1
-45
-26
-14
-10
-2
11
-19
59
60
17
17
7
1
12
1
52
50
14
14
9
-2
-15
14
-6
-118
-22
-11
-15
0
16
17
60
-75
-11
-2
4
16
1
-64
-7
69
2
7
11
-1
-55
-31
15
-80
-14
-18
-20
-1
-1
-2
-27
57
26
8
8
-5
-1
74
23
-53
-14
-1
4
-2
3
87
115
81
14
-10
-14
-1
26
27
-49
-78
-9
2
5
-4
14
53
-4
2
-3
5
7
9
1
-61
-65
10
-1
5
8
-5
-53
-81
-112
-9
-11
-29
-25
-19
35
82
62
20
14
15
17
4
-1
30
103
46
15
-2
-6
-1
36
20
73
20
7
9
13
-1
-19
27
127
7
-19
-11
-11
-9
8
-15
10
61
9
-1
-1
3
-2
-42
-21
18
-3
-1
6
-8
13
-20
-39
-98
0
9
13
-3
-18
-50
-100
30
-1
-12
-16
-5
7
34
57
-16
-2
-5
-4
2
-20
-56
0
6
16
10
4
-7
-50
46
85
78
4
-20
-29
8
12
47
59
-30
1
5
5
0
31
53
-43
-24
1
12
15
3
-25
-27
-48
59
9
-4
-6
8
-15
-13
93
17
-21
-20
-18
-2
7
-43
-31
-47
-5
2
7
1
3
-15
-47
-75
-50
-4
3
-8
-3
43
18
10
20
13
4
8
-27
-13
29
-60
-31
-27
-25
-6
25
77
46
-12
10
14
12
3
35
74
-18
-7
2
13
18
-3
-64
-68
-42
-15
-56
-50
-49
-1
7
-11
-2
33
1
-4
-6
1
16
11
21
16
16
14
10
-1
9
22
-17
15
32
11
11
-2
-15
-37
-35
-61
-30
-22
-17
-6
10
9
15
26
10
5
5
1
9
2
58
-16
-28
9
9
-7
-43
-86
-116
-75
-18
-15
-15
-1
13
99
127
35
11
3
-2
7
-34
-11
-65
-40
-21
-13
-13
-6
11
1
-12
-11
-1
6
7
-3
-3
-7
5
10
9
7
5
2
21
-7
16
22
-1
2
7
-2
-20
-21
-36
-66
-25
-15
-12
0
1
15
18
-23
2
1
1
2
12
62
116
106
20
3
1
6
5
-35
119
-28
-9
7
11
-5
21
0
32
36
20
13
9
2
-22
-47
-43
34
3
-6
-9
-4
-11
-19
-1
-82
-27
-11
-12
2
16
43
-67
69
28
16
13
2
4
-8
-93
25
8
10
12
-4
12
16
48
-43
3
4
2
6
0
29
-13
20
-2
-4
-3
-4
1
-13
-19
36
16
10
4
2
-19
-35
-69
-32
-27
-13
-13
-14
7
-20
8
5
9
7
6
7
16
-22
127
68
13
11
12
-3
-3
-15
57
0
2
-5
-4
-4
7
58
30
-41
-5
-3
-4
4
10
8
1
-24
-7
1
6
-4
-21
-83
26
51
26
10
1
4
-14
-13
-114
-120
-19
-4
-4
-5
6
16
57
8
-2
0
2
3
-5
20
53
-1
-5
-5
-5
-3
2
29
-61
-101
-21
2
0
-1
5
15
-32
31
13
6
0
4
-10
6
-55
36
11
1
1
4
-9
-41
-40
12
7
-3
-1
1
41
75
89
-35
-17
2
11
-12
-23
15
67
35
-1
-8
-16
6
10
39
127
27
2
-7
-3
-1
-4
14
5
4
-4
-6
-3
-2
6
34
13
9
10
-4
-1
-1
34
-13
-43
-20
7
14
21
-1
-23
-16
122
-20
-7
-7
-11
6
-9
-6
4
-61
-22
-12
-10
-7
-15
-10
-29
-14
14
-2
-4
-3
21
49
7
-31
6
8
12
-3
24
27
34
100
27
19
16
8
-19
-14
-128
-99
-26
6
6
-13
-38
96
127
41
-9
-31
-35
4
13
33
66
-19
-7
-3
4
-4
6
2
2
6
3
6
8
-5
34
8
-27
30
19
20
24
9
-44
-65
24
98
11
-12
-23
4
-17
20
-55
-30
-27
-28
-24
-14
21
-3
-20
-38
7
13
13
-4
8
88
127
14
0
4
4
4
-27
-49
-76
-51
-4
-2
-3
-8
-6
-2
88
112
17
-3
-8
9
-4
-8
12
25
1
-2
-3
-1
6
-2
-61
-10
-1
-4
-1
-2
26
-13
19
-57
-9
13
12
0
-10
-41
54
39
35
13
3
-3
-13
8
-26
-71
-24
-20
-12
-2
14
74
61
34
20
5
2
6
1
-46
-77
-58
-20
1
7
-4
9
-3
9
38
6
7
2
-5
9
52
65
0
-5
-8
1
3
-23
12
-55
-53
-20
-24
-27
0
-12
-71
-59
10
-3
-4
0
-6
12
66
50
0
-11
3
6
-8
33
20
51
18
16
27
29
3
-69
-117
-76
6
-19
-30
-39
0
2
41
91
47
7
-9
-10
5
7
5
17
-46
-5
8
12
-5
8
-45
-68
-81
-17
1
3
-1
38
51
108
95
23
20
21
3
-35
-53
84
72
-3
-26
-32
-2
-19
-84
-25
-59
-14
-10
-11
-2
18
47
1
-83
-47
-10
-1
-1
13
2
76
7
61
32
25
0
17
51
64
-33
17
9
6
15
-8
51
69
-97
-45
-33
-23
-2
-9
-23
22
19
-3
-2
-4
-10
9
-30
7
-34
-24
-7
2
-10
1
1
84
51
17
24
22
4
-5
-8
-128
92
38
10
4
6
-17
-30
12
21
2
-13
-19
-2
-14
-42
-9
-23
-6
-7
-4
-3
54
-17
65
9
-25
17
30
-12
-37
-69
-24
-118
-42
-18
-19
-10
-39
-46
-66
19
0
-18
-20
-7
13
54
27
50
7
-2
-1
2
35
64
69
4
1
17
16
-10
2
98
120
-23
-4
2
3
8
-6
21
-47
35
13
5
-1
4
6
16
-12
5
-13
-16
-7
-4
26
-13
-110
-6
46
33
27
-3
-20
-107
-110
-84
-34
-16
-10
14
8
91
77
-13
3
-7
-7
2
-1
-49
67
94
26
21
8
-4
-33
-31
-117
25
7
-15
-12
4
19
62
-15
51
3
6
11
-3
25
65
101
-16
-7
4
8
2
-4
-91
-128
-27
10
10
7
-5
-31
20
95
-80
-24
-27
-24
2
27
63
65
-98
-25
0
1
-2
-8
25
-12
111
62
20
11
5
-1
80
-46
-42
-9
-12
-14
0
1
14
-90
19
5
1
-3
8
31
24
24
-55
-10
11
16
-5
-44
-75
-65
36
4
-5
-15
2
-20
34
32
-21
-15
-13
-7
-1
0
25
52
-2
-8
-10
-5
-5
-9
-97
-93
-16
0
-6
-3
-11
16
2
37
-49
-12
8
11
-5
-3
-10
70
38
-3
-5
-7
6
-10
-41
-87
-4
-4
-14
-15
1
6
-30
-54
88
26
12
8
-4
-7
-36
-31
-3
1
2
3
-1
-21
-3
-54
-73
-23
-12
-8
-5
10
49
92
24
-8
3
0
2
2
47
-2
-16
11
1
-3
6
-4
-34
-23
-8
-5
-2
2
-2
9
7
1
-29
-5
4
1
3
8
13
10
30
10
7
4
-3
-7
-27
9
22
4
-1
3
1
-5
-15
-45
-33
-17
-11
-21
-4
15
8
37
-2
7
5
2
1
-2
-4
-32
-11
-5
-7
22
6
1
27
99
33
6
3
-2
-1
9
0
-47
3
9
6
9
-1
-3
-13
59
-10
-5
-5
-9
-1
-6
-8
-28
-19
-11
-8
-13
-4
8
-3
56
7
-1
1
7
0
-8
-51
-81
21
16
8
2
0
-17
8
8
1
-11
-12
-10
1
-6
-22
-56
-35
-11
-5
0
-3
11
27
19
20
7
0
0
-3
5
15
-1
-7
-4
3
-1
-2
-1
4
4
4
-1
-15
-1
0
-4
-9
-39
-11
-2
3
-2
-1
-3
-1
24
14
-2
-12
-5
2
-4
0
-9
-11
-7
-13
-10
-5
-9
-10
-2
-8
-1
14
10
-4
15
17
7
5
6
-31
-24
17
-9
1
-10
2
-3
54
15
0
3
3
20
-8
-9
28
31
-14
7
3
19
-1
2
-16
5
-4
-4
-3
-14
-1
-1
-4
-17
6
9
13
-43
9
6
7
13
11
-3
-12
72
8
-5
-34
-5
3
14
34
23
3
1
26
14
-2
-12
-32
-5
-2
-5
-20
-18
-10
-1
6
1
-5
-1
-28
-8
-1
7
8
-42
-16
-6
-6
-28
0
1
1
1
-6
1
-39
-9
9
4
11
8
-2
-4
-10
-22
-12
-11
4
22
19
3
43
31
-18
21
9
-5
-15
8
82
28
19
-2
-10
23
10
-4
1
-11
15
-2
8
-4
1
-1
-32
-6
10
11
-9
-3
0
-2
-73
-26
-11
0
1
11
0
-8
-50
-20
-26
7
-14
-39
-16
-2
66
40
4
11
12
13
13
2
35
22
3
-17
-2
15
4
4
20
13
-11
-10
-3
-12
-13
-6
-16
3
2
-18
-20
-18
-11
1
-8
-44
-10
5
-1
1
3
0
-21
33
8
12
4
-11
0
0
-27
-47
13
-11
3
18
4
-4
-15
-19
-14
1
-8
-21
-14
-3
12
28
5
0
1
9
-5
0
49
23
29
-11
5
0
20
8
31
60
-5
7
3
-24
-5
-1
0
-12
-16
-6
2
14
8
-2
-30
-20
-17
-6
-2
-7
-3
-5
-12
-23
1
5
-1
28
-4
-6
-14
-18
-6
0
13
28
10
3
-9
7
8
-8
-14
-15
-11
-4
20
-10
-10
-1
-3
-5
4
1
5
-3
-4
-9
-21
-39
-20
-5
-2
-19
8
-2
-1
17
-1
-4
-4
15
9
10
2
12
9
0
-12
0
13
-2
2
14
-8
1
14
7
-7
3
11
7
12
2
-11
-10
3
-10
-8
4
-8
-7
-29
-5
3
0
3
-3
-2
1
34
12
-5
-2
-8
2
4
-2
10
4
-17
6
21
-33
11
3
2
3
-3
-13
-24
31
-11
-7
-2
-9
6
2
-1
0
-2
-8
-73
-12
4
-1
-5
-53
-9
0
29
-9
-11
-5
1
23
2
2
17
1
2
2
2
1
4
7
45
18
5
-4
8
14
-2
-1
0
4
-6
-3
-2
28
7
-5
-20
1
-9
1
0
-2
-8
-4
-14
-5
3
2
6
9
4
4
2
-1
4
-8
-32
-39
-17
-3
-12
-9
-4
-2
-1
-27
-6
-2
-3
3
-5
-5
-7
-25
-12
-2
6
-3
0
10
20
44
16
-3
-12
7
3
-1
18
2
18
2
16
6
4
5
-7
23
-6
1
-7
-2
-8
-3
-2
-3
-4
2
10
4
0
-1
-6
22
3
-1
-12
-4
2
3
4
23
1
1
2
-2
1
-6
-6
-49
-11
-6
-21
-22
-2
-2
-4
26
6
0
19
13
-7
3
4
21
0
0
14
9
-3
0
0
-57
-2
0
-8
-1
1
-7
-4
3
-11
-5
-7
-5
-6
-1
1
8
4
0
-13
-15
2
-6
-14
-5
-4
0
10
-3
0
8
2
1
1
0
-4
-1
-3
-6
11
9
8
3
0
4
-3
-3
-14
-31
-16
-7
-14
-7
-3
-4
-7
-11
-8
-3
0
-2
2
0
9
22
8
0
-3
0
0
4
7
43
8
3
2
7
-1
-2
-1
-12
13
3
7
1
2
-3
-4
-58
-14
-1
-7
-2
-1
2
-4
-1
-4
-1
2
5
0
-1
5
17
4
4
0
-1
-3
-1
-8
-1
-7
-6
5
-1
0
-1
-9
-22
0
0
-1
-1
-1
0
12
24
6
-2
6
2
0
-4
-5
-6
-2
2
0
0
0
4
-4
16
5
1
-15
-3
0
2
5
-30
2
1
8
2
-1
-5
-5
11
-1
0
1
-3
-1
2
4
1
-7
-1
10
10
-1
-2
-2
-7
-5
-2
-10
-7
3
-3
-2
-24
-5
-4
-12
-3
-2
-1
1
10
-1
3
17
0
-3
1
-3
-12
-1
-3
2
-10
-2
1
-1
21
13
-1
0
11
1
-1
11
56
-1
-3
-6
-7
-2
-2
-8
-76
-10
-3
-7
0
1
-4
-13
-5
-13
-1
0
2
-2
1
5
4
-8
-1
-1
-4
-1
-2
-6
-36
7
1
-1
-2
0
2
6
33
-1
-1
1
0
-2
-2
-1
-9
3
1
3
2
1
0
0
-36
0
1
-3
-2
-1
-4
-4
16
-6
-2
-3
-2
-3
-1
-4
1
-3
-4
-5
-4
-3
0
-1
-6
8
1
0
1
-1
0
1
26
0
-3
-2
1
-1
0
6
41
-1
0
2
-2
4
-2
2
18
6
-3
-4
-7
-3
-6
-13
-74
-11
-4
-3
1
0
-1
-4
-6
1
0
-3
-2
-5
0
1
2
-6
0
2
0
-1
-2
-5
14
5
-2
-5
-1
-2
2
8
29
7
0
1
1
0
0
1
-14
6
2
3
2
0
-3
-1
-2
-3
-3
-4
-2
-1
1
0
-35
-30
-1
-3
-1
4
-1
-10
-12
5
-1
-1
-1
-3
-4
-3
14
-6
-3
-2
-4
1
4
4
44
36
5
3
3
-3
-6
-2
-67
-29
-5
-3
-6
-2
6
11
43
5
-1
0
1
5
-2
-18
-72
1
1
0
3
-4
-5
10
88
-8
-3
-5
-5
5
2
17
70
46
9
2
1
-6
-13
-28
-70
-59
-14
-8
-7
-7
3
2
121
29
-2
-5
-3
-1
8
1
-4
29
7
6
6
0
8
10
24
-11
10
8
8
4
-6
7
42
-10
-6
-7
-7
1
2
1
-46
-25
-4
0
0
-2
-10
-24
52
-12
-7
-8
-7
-5
5
11
25
26
0
-3
0
1
2
13
56
55
10
8
6
1
-6
-1
-16
-30
-3
-2
-5
1
-8
-12
-109
-47
-12
-8
-6
-3
-5
-31
-23
-30
-5
-2
-2
-2
0
1
28
39
0
-1
2
1
0
20
85
-16
-4
-5
-5
0
10
16
6
17
9
7
5
1
-15
-37
-44
-31
-7
-5
-7
-6
12
18
21
23
7
7
6
-2
-7
-10
34
17
1
-1
-4
1
2
31
68
21
-6
-7
-6
-1
5
20
48
29
7
3
3
2
-20
-60
-73
-58
-3
-2
-3
3
6
17
75
-19
-4
1
3
-4
-1
-33
10
40
16
13
9
-3
-14
35
127
-68
-34
-29
-24
2
-4
-47
-87
-11
2
-1
-1
-2
11
31
35
13
7
7
7
1
-7
-20
-94
14
3
-3
-3
3
13
5
19
19
11
12
13
4
8
68
127
77
-1
-6
-6
-4
-21
-24
-55
-59
-3
-6
-13
1
-4
-56
-13
-45
-11
-5
0
-7
30
86
83
49
9
9
8
1
-8
-50
-45
-5
-5
0
0
-5
-10
-4
68
-28
-7
-11
-12
8
37
122
97
84
23
15
13
11
-60
-112
-96
-83
-26
-20
-19
-21
5
94
106
-75
-17
-10
-5
-2
3
26
92
108
14
10
8
0
-8
-9
-87
-128
-16
-5
-6
-5
20
25
80
125
21
9
9
10
-27
-66
-111
-58
6
8
2
2
-2
25
-8
18
-19
-17
-8
-10
-4
-15
6
-11
-7
-4
-2
4
-13
-63
-52
9
5
6
2
-2
7
-30
89
-29
-11
-2
3
-5
14
80
92
69
4
-4
0
1
-11
-46
-88
21
3
15
10
-8
21
46
-18
44
36
8
1
14
3
50
42
-30
-28
-18
-9
-5
4
-125
-107
-50
10
20
13
-4
-6
62
-41
21
8
-9
-10
11
-3
-63
-72
-31
-14
-6
-1
-8
4
26
-65
35
23
12
8
2
16
55
41
-82
-45
-11
4
3
-13
-4
80
25
-9
-21
-17
-2
2
-4
59
9
3
7
8
-6
-5
-30
-21
47
3
0
-5
-3
11
7
-15
-88
-16
0
6
1
28
72
65
47
8
10
10
2
-30
-62
-5
-9
-5
-6
-13
1
6
38
127
48
-7
-10
-7
-9
1
-8
19
33
23
12
5
0
-4
-34
-38
-43
-6
3
0
-10
16
99
110
45
-10
-12
-9
4
-29
-95
-123
-63
6
0
-5
4
-26
-98
-52
-19
-3
-9
-10
-7
14
-1
75
-51
6
4
11
-4
5
43
-49
-59
-26
-4
4
-2
-3
11
93
80
11
-9
-8
-2
-10
-10
-4
2
-2
-9
-8
0
-18
-35
-61
16
15
5
-4
-1
6
5
50
-31
-18
-8
-1
5
11
82
87
33
6
6
4
3
-3
-45
-23
18
20
14
5
-5
-25
-11
47
17
-34
-32
-21
-3
0
3
-4
-6
8
2
-2
-4
23
61
-3
-91
-24
-4
3
4
22
45
114
127
46
25
20
-4
-13
-39
64
-20
-12
-10
-9
-1
5
22
30
24
10
3
2
0
9
-62
-14
-14
4
18
13
-3
-41
9
0
-20
-25
-28
-27
3
17
30
24
-5
2
0
-2
-1
0
-11
-53
-4
4
0
1
-3
19
33
-6
-20
2
7
10
-4
16
-22
-40
98
36
23
15
2
-16
-15
-48
-51
-9
-11
-8
10
-15
-25
19
-77
-34
-18
-14
-9
8
23
-4
15
13
9
8
2
56
104
92
-31
2
22
26
2
-63
-66
-41
-90
-48
-39
-37
-5
16
7
26
-22
14
11
9
-1
-9
-33
-17
13
6
-4
-4
1
27
85
62
25
-5
-3
5
-3
19
48
6
9
8
14
15
-2
-31
-43
60
-15
-22
-22
-23
-6
-10
-17
-29
-30
-24
-16
-11
-1
14
-76
74
53
9
19
16
3
-18
95
59
-53
-2
-7
-12
16
-13
-26
13
-17
-5
-9
-7
-7
5
-6
71
9
2
1
4
-4
-6
-29
-57
-32
-17
-1
0
-6
23
50
64
75
13
3
4
4
-7
-39
-128
-94
-16
-3
-1
3
19
9
25
24
7
8
8
1
-41
-106
-128
-24
-2
-12
-15
-12
-2
-43
-61
-57
-14
-8
-6
-3
14
48
73
71
13
10
10
-3
-9
-68
-71
-1
16
3
-1
0
-15
3
-127
-79
-14
-13
-14
2
20
6
-7
117
31
19
17
-3
-3
-3
4
30
2
-1
-6
6
-15
-66
-52
-41
-14
-6
-2
-4
-14
-23
22
-36
-17
-20
-12
1
23
-83
63
82
37
22
19
-8
-33
-35
64
87
2
-12
-16
1
6
26
123
9
-13
-13
-6
-9
-15
0
-42
-23
10
1
-4
0
18
36
89
17
-2
-2
0
-3
17
33
25
44
10
6
6
-2
-5
4
11
7
-3
1
-3
-2
-15
-7
48
11
-13
-12
-7
-5
43
-50
26
106
72
58
42
4
-39
-18
47
-29
-43
-39
-31
5
-12
10
18
12
-5
-12
-13
1
17
70
45
-25
-4
4
9
-4
-13
-11
-101
11
-7
0
-3
-3
17
40
-101
-28
14
17
11
-1
-18
23
65
33
0
-11
-15
7
-2
30
85
-5
-7
-8
-10
9
-23
-74
-99
-94
-39
-16
-8
-16
37
47
65
1
10
17
19
0
-31
-57
-125
-31
-14
-13
-16
-8
-20
-35
-60
-44
-2
-5
-8
1
-4
15
47
-9
-19
-17
-7
-3
22
3
-6
37
22
23
19
-5
31
46
22
-27
13
24
21
2
-16
23
69
-8
-7
-17
-14
13
-9
32
6
16
-6
-7
-9
-5
11
12
33
-13
-4
8
10
-7
28
3
-28
89
48
35
26
4
-22
14
7
-2
-7
-23
-24
0
10
61
53
-21
0
2
1
-2
0
-12
-19
0
8
5
6
0
5
-30
20
-84
-27
-10
0
-6
-11
-41
-102
37
14
11
5
-1
-21
21
113
56
-4
-23
-23
0
11
3
-20
-1
15
11
9
3
4
-7
-25
-42
-14
-2
3
-1
41
62
68
103
55
38
25
12
-27
-13
56
-101
-54
-44
-32
-6
0
-70
10
1
2
5
4
2
1
68
62
33
-3
-6
-4
3
23
17
55
-86
-18
2
8
-11
-16
-84
-128
33
76
49
32
14
-32
37
118
-40
-38
-44
-38
-5
6
17
57
38
2
-3
-3
-2
4
12
3
-11
-17
-5
-2
-6
50
23
-9
-43
1
20
27
-2
-83
-120
-96
79
14
-3
-24
-3
-35
-1
43
-34
-17
-25
-24
-4
7
24
33
-12
-3
-3
0
-3
-3
6
-3
-25
-12
-6
-4
-4
26
-18
-39
-11
11
18
18
-3
13
59
-46
23
10
5
3
6
13
52
-45
108
27
15
14
2
-59
-28
127
-48
-70
-51
-45
-14
16
67
78
-12
-13
-2
-1
0
-1
5
-7
28
14
8
7
1
16
16
7
-10
7
2
5
0
11
-5
-41
3
6
8
7
0
-1
0
-14
54
11
-3
1
0
-10
-28
22
-17
-8
-7
-7
1
15
-33
30
-47
-10
7
12
0
-2
48
-42
96
31
16
-3
4
-10
-30
36
-73
-16
-16
-9
2
16
25
119
28
14
7
7
-3
-19
-39
23
-16
-10
-13
-12
-4
9
-45
-54
-24
-1
12
13
-1
53
27
-33
-95
-7
11
21
3
-13
-30
4
71
91
47
18
11
-22
86
107
-26
-39
-43
-31
-3
16
66
127
1
-2
2
8
-7
-25
-21
-128
-31
-9
-2
-8
2
-7
-59
39
7
-25
-12
-7
-17
-3
-18
22
-3
4
3
-1
2
1
-13
-42
5
1
-1
0
0
12
-26
46
-42
-20
9
16
-7
-30
-9
-128
-128
-39
-19
-20
4
-16
-34
48
20
-17
-17
-14
-11
18
-2
19
79
12
6
7
6
-18
-63
-89
-62
-7
6
5
-10
4
61
53
87
-5
-13
-6
1
-3
16
-15
35
4
1
1
-3
11
2
95
-4
-27
4
8
-5
-22
90
-20
-25
-5
-11
-16
13
-2
24
98
-23
-19
-12
-5
-6
17
15
28
19
17
11
5
2
-24
-23
-66
-53
-17
-15
-11
-11
10
2
24
14
12
7
4
-13
1
90
46
10
-19
-21
-15
7
-4
-46
-93
-21
-14
1
2
1
11
55
45
-1
16
9
11
0
14
-83
-81
-29
19
27
17
-5
-40
-8
22
-81
-31
-33
-34
8
-5
-30
-9
-42
-1
7
6
-9
-4
19
-6
-17
8
-1
-6
1
32
82
93
20
8
4
10
1
44
13
-73
127
65
57
41
-5
-81
-112
-81
-91
-42
-45
-48
6
5
16
-5
-23
-6
0
4
-1
9
52
91
53
3
-8
-4
3
41
48
23
-12
-6
16
19
2
-39
15
-98
78
46
-7
-14
-13
-5
1
45
-4
-5
-15
-13
10
7
32
82
-16
-25
-9
-3
1
23
-10
-66
80
81
41
31
8
6
7
55
-104
-29
-8
-3
0
-7
-63
29
19
-9
-8
-8
0
3
10
-11
-46
-10
-2
-5
0
-24
13
-29
-45
25
-4
-2
-3
16
10
-29
55
9
11
12
7
0
-12
47
-46
-2
0
1
-3
13
80
111
-28
-30
-11
-3
1
7
8
-104
-6
-30
-9
-6
-4
13
-88
63
-7
51
40
28
-4
-36
72
-37
11
-23
-30
-33
4
-8
-7
-7
72
16
0
-6
0
1
-59
54
-25
-31
-11
-3
-6
20
12
9
-40
-31
3
4
-10
1
46
-128
-32
-10
4
0
14
1
44
87
103
37
7
3
1
-22
-78
10
-34
-20
-10
-9
-8
7
-2
62
-80
-37
-10
-1
2
6
-67
-21
-30
11
17
16
-8
21
82
72
37
28
2
4
3
-34
-57
-15
5
-18
-18
-22
1
10
36
118
7
-4
-1
2
-4
13
45
4
-34
-4
3
4
-4
2
38
-13
48
22
8
11
4
-8
-38
-31
-83
-22
-8
-11
5
3
20
-124
-53
-7
-5
-6
3
10
5
20
-24
-13
-7
-3
-2
-13
-47
87
64
1
-2
-2
0
13
-58
-62
-24
-1
15
22
-5
-27
45
-108
-3
-18
-19
-20
13
-1
21
39
-56
-9
-11
-11
-5
0
-9
-26
-37
-8
4
4
-4
24
94
80
-42
-12
-4
5
-9
52
97
39
122
86
43
33
7
-54
-96
-96
-86
-32
-32
-29
-6
-15
-10
-35
-52
-8
-12
-12
-3
6
56
75
-31
-10
-4
-3
-3
36
-51
68
75
19
30
32
-10
-54
-46
55
127
40
-15
-24
12
-31
-66
-123
-33
-19
-23
-22
-7
16
48
-14
-30
-9
3
4
3
4
-52
38
-59
-45
-4
9
-11
54
51
81
127
77
49
40
12
-50
-105
-128
-128
-37
-29
-33
-2
-14
-34
49
18
3
-8
-5
-5
-16
20
-22
-18
-9
-9
-14
1
24
3
32
-35
-9
12
17
-10
9
62
5
25
10
9
7
4
61
86
62
-52
4
34
36
-2
-99
-103
-2
-86
-59
-84
-84
23
19
33
91
-15
-19
-9
-1
-15
49
67
124
16
3
25
30
2
-20
4
-69
-28
8
-9
-5
5
-32
41
56
-78
-17
-14
-11
-17
3
24
2
24
11
9
3
3
-9
32
-17
-111
-36
-21
-8
-2
49
-67
116
127
81
64
48
8
-43
-37
11
-73
-25
-33
-36
4
-9
-24
-105
-114
-33
-25
-15
-5
22
1
58
67
31
22
19
-9
36
-42
31
33
-19
13
14
-22
-2
15
64
36
27
-1
-6
18
-1
14
-58
-27
-6
-3
-1
-6
0
7
-20
-6
-10
-9
-7
-5
7
38
-49
-24
-22
-7
-2
-5
3
-10
-59
36
39
26
24
18
-22
20
-82
-64
-25
-19
-19
-5
8
-15
14
-1
6
10
6
0
-17
28
55
-108
-71
-33
-31
-10
45
63
-61
-13
25
40
35
8
-20
24
-4
-103
-5
-21
-18
3
7
-9
4
-61
-25
-3
1
-5
-63
-91
-71
82
60
3
-18
3
23
33
-48
-80
-24
-5
8
-1
10
-10
66
76
17
21
16
-3
7
54
55
49
11
-2
0
3
-26
-18
-8
-128
-48
-36
-23
0
25
2
112
15
3
8
12
-17
-22
-6
79
113
42
22
7
-1
-42
41
9
-14
-2
-18
-22
3
-5
-8
43
-4
-8
-12
-7
7
5
29
51
127
87
28
12
-8
18
-21
74
-117
-22
-8
-1
-9
0
-65
-44
-76
-4
2
0
5
-19
16
-47
-12
2
-12
-14
0
9
-26
101
-29
-32
-8
-1
-11
41
27
89
82
20
30
31
1
-76
-83
48
9
-11
-22
-37
7
-25
8
-13
-71
-32
-34
-26
-11
25
12
71
10
-6
3
8
-7
-1
-7
13
40
2
11
5
-3
17
50
-44
-18
9
10
12
5
6
51
-18
7
-1
0
-5
3
-5
-7
-81
-7
-14
-8
-3
-3
5
-32
-36
-68
-9
4
6
2
-4
-75
-18
101
33
5
8
3
0
19
-27
27
6
-3
-1
0
2
-4
-55
-19
-3
2
0
-2
1
-13
-11
-41
-13
-10
-5
4
5
-35
5
-31
-1
7
4
-3
-5
-5
-12
-7
10
6
5
1
-3
9
12
26
-2
-3
-6
0
7
18
-33
-11
-10
-16
0
-1
9
-16
19
1
-2
8
0
-1
-7
8
35
59
19
2
9
-3
13
25
-73
-50
-18
-6
-3
2
-3
-29
21
3
6
39
8
2
13
27
19
3
5
-12
-7
-8
-8
-12
-27
-9
-1
-4
-34
0
4
-2
25
8
3
25
29
12
-6
12
-15
-9
-5
-56
8
-37
2
4
-31
-7
-3
17
-50
-23
4
24
25
-3
-7
15
64
-14
7
6
-21
-6
-3
1
9
8
0
-2
-33
11
8
53
42
25
7
25
-1
-13
-4
-24
15
6
-3
4
20
-5
-6
-53
-69
-15
-14
-12
-33
-1
-3
-7
1
-10
5
-4
2
-6
-2
17
-72
29
16
2
44
19
5
60
98
-46
-12
-8
-66
-45
-6
-53
15
16
0
9
35
7
0
-12
-6
-15
-1
0
8
-8
0
-31
-16
-5
-4
15
-20
2
-4
10
-62
10
7
-1
28
2
-1
21
38
18
-2
6
-13
5
-4
-6
0
8
-10
-3
-44
-20
-2
-5
-20
-38
-1
7
-28
-3
0
-34
-26
13
2
2
59
4
-3
24
27
-3
-10
-10
30
15
2
-40
-61
-1
5
11
-11
4
-5
7
-15
14
1
-11
-18
-14
3
17
16
5
13
-7
-36
-3
-6
-39
-10
10
0
2
49
2
1
19
35
3
1
-4
-28
-2
3
34
24
-6
-12
2
7
-9
-6
-37
32
6
-5
7
19
6
-1
33
-101
13
14
4
11
1
4
-33
33
11
-4
-2
11
-3
-2
15
11
19
13
2
50
-3
-1
6
25
28
-26
-11
-35
8
3
-23
3
-26
-8
0
28
3
-6
-8
-47
-10
0
-3
19
1
2
35
-33
16
-6
-8
-43
-10
0
29
62
-28
2
4
27
4
3
10
17
-6
-5
-6
-41
5
-4
-20
-12
15
-6
-4
-3
4
1
-20
44
4
-4
4
-8
-3
0
28
-56
-1
1
2
21
9
5
6
33
1
3
-5
-69
3
3
20
-8
-13
-4
1
-1
-21
-10
-31
-2
-5
-4
-7
-4
-6
-3
-40
-17
-2
1
-3
-5
-1
-3
5
-55
1
-4
-1
-5
-1
5
53
66
0
10
9
29
23
4
-12
-5
-2
-3
-5
-52
-13
-7
-59
26
7
1
-3
10
-11
-5
39
-19
1
-9
-6
40
-1
1
28
3
-16
2
6
-29
-4
0
-12
7
-3
5
1
-5
4
1
-8
-20
0
-2
23
96
24
6
-8
-2
-1
-15
-45
-80
-42
-13
-20
-4
-6
1
-3
71
-6
-7
-3
11
-4
1
0
-32
-11
-4
-16
-37
-1
2
-3
5
-3
1
10
26
3
6
30
49
22
4
6
2
0
-5
-5
-31
5
-3
-31
-22
-2
-4
-8
-23
-3
1
26
-7
-3
3
-4
-61
-15
-2
11
14
1
4
4
14
4
4
-6
-8
-3
4
0
-31
4
-1
-6
6
-2
-8
8
52
18
1
13
3
0
6
3
-37
3
0
-1
18
2
-11
-10
14
-10
-6
-14
-43
-5
-4
-3
8
3
-1
-2
14
-1
0
-5
6
1
-2
-12
3
2
-4
-6
-23
-13
-6
-25
-12
-2
4
4
-15
5
-3
28
-8
-4
-8
-2
20
-5
1
-1
-8
-4
3
5
46
12
3
18
7
4
-3
-19
-57
-8
0
-7
2
2
4
11
13
2
0
-13
0
1
-4
-1
-14
-9
-1
-7
-14
-4
-4
-6
-47
-12
-4
-9
2
0
1
7
37
6
-2
-1
-1
-2
5
15
38
8
2
5
9
2
-3
-13
-14
2
-1
-4
-2
-5
0
-4
-47
-32
-6
-6
-18
-2
-5
-4
84
16
2
13
5
0
1
0
-34
0
4
-1
3
0
-1
3
57
7
-4
0
-5
-1
1
4
22
8
0
3
0
0
3
0
-23
-4
-2
-5
6
-1
2
9
26
4
1
1
-4
-2
-6
-14
14
-8
-1
4
0
-4
-5
-9
-44
-9
-3
-3
0
1
-1
2
9
2
-1
-4
-1
0
-3
-5
9
8
-1
-15
-10
-1
2
2
-34
-10
-1
22
18
1
-4
-1
16
-7
-3
-6
-1
-3
-1
-1
-6
1
3
26
6
1
-1
-4
3
10
1
1
0
-3
-4
-12
-5
-10
-3
-6
-4
2
-3
2
-29
-4
-3
-16
-13
-1
-1
2
8
0
-2
-10
3
-3
-3
-8
-19
-10
0
5
-6
1
4
8
13
13
0
-4
13
3
5
15
59
1
1
9
4
0
-4
-15
-29
-5
-2
-4
-1
4
-2
-3
-11
-12
-6
-7
-8
-5
0
4
-3
8
2
-2
-10
-3
-1
-2
19
0
-1
5
0
0
4
11
8
5
1
4
5
0
1
1
5
-2
-3
-6
1
0
-1
-2
-12
-2
-2
-2
-2
-2
2
3
28
5
-1
4
2
-1
0
6
34
8
0
-1
-3
-1
-8
-12
-82
-22
-4
-1
-1
-1
-1
-5
-7
3
-1
-3
0
-1
1
1
22
1
3
3
-2
0
1
-1
8
6
0
-4
-1
-2
1
6
43
6
-1
2
4
1
2
9
-1
7
2
2
-2
4
0
4
31
-9
-1
0
-3
1
-6
-11
-28
-19
-4
-7
-4
-3
9
3
41
28
7
4
8
-7
-11
0
50
0
-4
-3
-8
2
-4
-10
-62
-25
-5
-3
-3
0
5
16
50
19
3
1
2
1
-3
-12
-9
-38
-8
-3
-2
0
-1
-16
-62
-1
5
3
1
-7
2
20
77
64
5
0
1
0
-10
-20
-56
-37
-13
-5
-10
3
0
29
92
26
-2
-4
-1
-4
9
9
-29
-22
-5
1
1
4
-19
-53
-33
-14
-1
-4
-8
-4
8
6
53
33
13
5
3
-5
-2
38
82
-1
-11
-6
-2
3
-11
-44
-15
2
-2
0
0
-1
-16
-19
41
-2
-10
-7
-6
-9
-2
35
9
-64
-8
-8
-8
-4
-11
-50
-22
3
-3
-4
-3
-3
16
71
107
51
4
0
1
-1
10
-51
-82
21
7
8
9
4
-5
-3
85
-35
-5
-4
-4
0
17
3
-69
30
23
16
13
10
-20
-15
69
-38
-25
-20
-15
-9
19
45
122
86
21
19
13
2
-14
-44
-121
-89
-27
-15
-7
1
1
33
95
51
5
3
1
2
14
24
-31
51
20
14
11
4
-12
30
33
-55
-8
-6
-5
1
4
18
1
91
3
-6
-5
-6
-3
-3
-55
-75
-16
-7
-5
-7
6
-2
-52
-46
-2
0
3
0
12
78
103
44
7
7
2
1
-3
-30
-103
74
16
5
0
7
-12
-38
-20
-56
-14
-8
-11
-2
7
-16
-8
26
11
8
4
-5
-7
-4
-51
1
1
-9
-5
-2
8
-48
-40
-66
-1
20
20
4
-32
-10
127
71
-3
-23
-29
-11
12
1
6
-77
-8
-5
3
2
12
29
51
-35
-13
-1
5
-3
-8
-59
-39
-39
28
19
13
-2
-9
-21
4
26
-5
-9
-2
-4
10
47
91
29
0
2
2
4
-2
-50
-28
44
40
28
16
-3
1
107
127
73
-44
-44
-22
-7
22
91
-8
-4
4
12
13
0
-29
-79
-63
-4
-6
-14
-14
-2
24
-5
81
102
19
18
16
-3
-7
-8
69
-36
-2
0
-6
1
-3
-11
22
-13
2
-6
-9
7
27
127
28
-32
-12
5
9
-3
-38
-38
-37
-80
-21
-14
-23
1
-4
1
-45
-20
-4
4
-3
-7
-2
-17
-25
58
11
-1
2
0
7
-33
-44
-37
6
17
13
-4
8
18
-43
-17
-8
-13
-4
8
6
38
-27
-25
-6
-3
0
-2
-5
-65
-84
-36
11
16
5
-5
-42
-57
26
63
-13
-22
-26
-1
-5
-21
0
-62
-25
-12
-5
-7
35
115
126
127
25
15
11
0
15
-20
-58
-28
42
33
26
0
-20
58
102
85
-26
-37
-29
3
2
-5
-22
-9
-19
-14
-8
0
14
57
80
-38
-4
5
6
4
25
63
-42
85
48
35
26
-1
14
63
89
-39
10
-1
-6
23
-7
33
110
4
-13
-17
-10
-8
11
5
46
-52
-5
5
5
-2
38
55
126
52
14
22
22
-2
-71
-55
-36
-93
-37
-37
-34
-4
10
55
47
-46
-2
-2
-2
-2
-13
-91
-25
-13
4
6
5
-2
5
-1
86
-4
-32
-19
-7
-3
39
2
49
113
52
41
32
-5
-26
-48
-128
-113
-25
-13
-11
9
-15
-35
95
29
-13
-20
-16
-7
22
79
89
-9
-41
-18
-7
-1
19
-21
-56
-1
38
35
25
-5
-37
-47
-102
-7
-16
-23
-21
-2
21
94
33
50
19
2
0
5
-9
33
-45
-64
-25
-14
-7
-2
2
-45
42
57
30
27
22
1
18
24
7
29
20
6
5
3
-6
17
43
67
-7
-7
-3
-1
-36
-65
-64
-89
-24
-21
-20
-7
22
51
103
51
-1
3
9
-4
-6
-48
81
14
-1
16
17
1
-51
-116
-29
-88
-23
-24
-23
-4
7
-14
70
-25
0
1
3
0
-15
-54
86
-27
-13
-2
-1
-10
41
53
-90
-14
14
21
21
11
-39
11
-22
-8
-2
-22
-25
-2
-10
1
8
-4
-4
-7
-6
1
24
65
43
-22
-9
4
10
-5
-40
-22
55
94
0
-20
-26
-2
2
-24
-6
-44
3
7
4
-1
0
38
-9
27
-1
-8
-8
7
14
56
-21
-36
-28
-10
-6
-3
36
-2
67
19
58
51
42
3
-45
-101
-23
18
-25
-39
-29
6
-27
-21
28
-8
-17
-16
-15
-6
3
-7
-54
-25
-2
-2
-2
3
6
39
-21
-31
-8
2
6
-10
50
49
62
-28
31
41
30
3
-22
-56
10
-52
-14
-16
-16
6
-15
-16
-11
-52
-15
-15
-11
-2
-14
-12
-16
4
-10
-11
-16
-5
30
41
77
75
21
28
26
-8
-8
17
-102
19
-2
0
-5
12
-4
14
-119
43
8
0
-4
5
-11
-15
64
4
-31
-15
-16
-8
11
84
-88
21
30
15
15
6
10
9
-2
-72
-10
4
3
6
-13
-22
34
26
3
-7
-8
6
8
24
22
56
2
-5
-2
0
10
58
-4
-27
-6
7
7
-6
-15
-81
-40
46
2
1
-2
-16
11
-53
40
66
36
14
9
8
-12
6
53
-7
-15
-20
-16
2
5
33
-12
-26
-24
-9
-5
-8
19
64
64
54
29
10
8
-3
27
69
45
63
13
12
8
0
-42
-37
-115
-125
-53
-41
-33
-8
-12
-66
67
38
-8
-12
-8
-1
8
16
38
22
-7
5
9
-2
-1
8
-35
5
23
12
9
-5
7
-43
-78
95
62
30
18
1
-8
27
42
-61
-45
-30
-19
6
-5
-29
24
-33
-8
-8
-6
-2
-13
-24
6
-37
-14
-10
-7
-9
16
4
23
10
13
15
14
-3
-15
-73
-64
-12
0
2
-1
1
46
89
93
113
78
58
40
1
-69
-40
34
-128
-99
-65
-51
6
7
81
127
-23
-24
-10
-3
-9
2
-16
-9
22
11
11
7
0
6
1
7
-26
-11
-2
0
1
11
12
-55
-34
-2
-3
1
-7
46
64
73
38
7
5
15
10
23
101
113
-8
6
10
5
1
-54
-97
-74
-51
-30
-36
-32
-8
7
-14
-65
37
28
19
14
-7
1
-33
-50
-128
-42
-12
-5
11
6
-42
-74
27
28
9
10
3
-16
4
-15
39
-10
-13
-13
1
-2
-12
-21
-58
-8
-4
-4
-1
9
18
35
-8
22
6
6
-5
45
29
-25
123
55
36
34
9
-80
-87
104
-44
-46
-48
-47
-6
-7
-5
-26
-11
-16
-16
-12
-6
31
104
7
22
12
23
24
0
33
80
64
67
34
12
4
-9
-6
13
86
-13
-7
-20
-11
5
21
25
91
-2
9
12
13
-4
-14
-24
12
43
1
-1
-4
1
4
24
-27
-109
-27
-1
0
-7
19
80
16
87
29
21
14
14
-55
-65
-6
-18
-25
-27
-30
-8
2
2
31
12
11
5
6
-1
-26
-73
-108
-75
-22
-9
-7
-2
17
-43
45
-67
-10
11
15
-3
27
77
90
86
27
15
11
15
-32
-43
24
-71
-35
-30
-22
-11
-29
11
68
-9
-22
-15
-14
-12
19
2
-15
-51
3
20
19
-4
42
100
-71
-28
17
17
18
2
-69
-114
-128
42
-3
-20
-33
6
-7
-9
107
26
-21
-15
-10
-1
15
25
-5
-16
-7
5
11
-9
3
9
-56
-14
-2
2
3
-1
15
68
126
83
32
19
10
10
-44
-112
-50
-23
-34
-33
-29
-2
1
-33
-95
-24
0
0
1
-2
3
-19
57
-35
-3
5
5
2
14
-33
-97
-36
1
13
14
-4
-35
-64
67
39
-3
-12
-19
1
11
36
-17
18
7
-3
-1
-1
-7
-97
-35
-16
-7
0
3
-6
24
28
118
14
26
20
18
-3
-15
-1
4
-14
-22
-25
-22
1
-8
16
-92
-37
-13
-5
-4
-3
-15
-54
3
-5
-1
-6
-5
0
23
51
-15
-43
4
16
14
-2
40
82
74
73
38
26
25
16
-23
-36
71
-59
-25
-26
-27
3
3
10
79
44
10
2
1
-5
-3
-50
-29
-78
-28
-9
-5
-4
9
13
-72
-9
18
20
12
-5
4
57
23
23
5
6
6
7
-11
-43
-104
-27
-17
-7
-5
6
1
4
-26
-5
-5
-9
-10
1
-8
-9
-42
-19
-9
1
0
-1
50
104
66
60
39
36
33
3
-74
-76
5
-64
-39
-44
-48
-8
-9
-65
85
-6
-15
-17
-10
-7
15
33
-25
-36
0
0
4
-2
10
-17
-65
46
9
12
14
-7
-22
-43
-11
-18
-1
-5
-11
4
-8
38
-26
109
44
3
-3
-2
-9
-50
91
-33
-8
-5
2
-7
1
-8
-16
-67
-8
-4
-4
-4
38
86
75
58
24
24
24
-4
-28
19
7
-4
-24
-17
-14
7
10
77
50
51
-2
-6
-8
9
-14
-52
-26
9
2
-7
-9
-10
4
-22
46
55
4
4
6
-4
11
11
-90
-98
-2
4
8
-3
34
-34
55
34
-14
19
19
2
-74
-128
19
1
0
-27
-36
9
15
53
27
-22
5
-1
1
-5
19
62
64
-1
-4
8
9
-1
-2
-35
-27
-34
-2
8
8
-4
-16
-61
28
-37
-23
-9
-6
-8
1
22
118
-7
-8
-7
-7
7
-1
-13
15
28
11
4
-2
-3
3
-24
1
-2
22
16
11
-12
-2
24
45
126
31
9
1
24
2
24
-12
-77
-18
-21
-13
-2
5
-29
39
-10
-12
-2
0
-2
3
17
-103
-38
5
3
1
2
43
127
100
-4
3
21
24
1
-31
-18
-128
-45
-15
-17
-19
7
-28
-33
51
16
-16
-18
-18
-6
6
1
21
-9
-1
-6
1
-2
50
48
68
-19
35
39
37
-4
0
35
-64
65
-10
-10
-2
18
-33
-1
-26
-78
-13
-21
-30
-4
-10
26
11
-5
7
-8
-5
-3
-5
-24
-14
-77
-19
-7
-4
-8
25
75
-80
101
33
35
28
-20
14
86
36
34
-6
2
4
13
-36
-74
-38
-32
-15
-21
-22
-4
3
9
17
-61
-33
-21
-15
-10
59
44
65
-95
13
41
40
-10
-25
-5
-61
-15
23
0
-7
29
-42
62
27
-39
-12
-23
-27
-7
12
25
-13
-1
3
4
5
-4
-17
-71
-13
-53
-29
-10
-8
-5
28
-29
-43
84
40
29
27
-8
4
108
92
76
1
-15
-19
16
-31
-28
-79
-84
-31
-27
-21
-3
2
-16
2
23
15
7
8
3
50
41
12
44
4
25
32
-10
-36
-39
-79
-42
9
-18
-25
13
3
33
15
25
-2
-6
-3
-7
13
29
68
32
13
2
-3
5
4
-23
4
-128
-32
-3
5
-10
7
-85
-12
52
40
38
26
-12
-61
-30
-13
27
-20
-41
-43
15
-9
2
-7
-120
-26
-16
-9
-2
-15
-79
36
5
-12
-9
-7
-3
13
-42
21
70
-13
7
13
-8
16
-87
-21
42
20
27
23
4
-30
8
15
127
20
-10
-14
2
-25
10
-38
27
-31
-35
-29
-10
24
33
-8
-56
-13
6
12
-5
34
-1
-75
1
32
26
24
-2
29
23
103
74
33
25
18
7
-25
31
24
-3
-19
-25
-30
-3
7
19
39
-70
-18
-7
0
1
2
20
0
-31
-1
13
6
-6
-2
88
73
28
-3
-11
-9
-4
2
21
-3
-50
-12
-1
-2
2
-19
-39
-94
-12
8
-2
-7
-7
10
60
28
15
-9
-11
-2
-4
6
-27
-49
36
48
16
14
-1
29
83
60
29
37
39
29
0
-42
-10
-17
-57
-61
-50
-42
8
15
-3
53
-14
2
5
6
-3
-3
-23
16
-47
-30
-14
-7
-4
19
-1
94
-51
13
15
19
-6
-56
-81
-49
-85
-1
-10
-18
5
-20
19
26
-79
-33
-26
-23
2
-5
-28
48
-50
-6
3
4
-6
29
94
47
56
-5
4
7
-5
-30
-44
79
-11
-31
-15
-15
8
-24
-28
-42
-26
-18
-25
-18
-13
-11
-78
-21
-43
-20
-10
-7
-6
1
-104
-31
21
-22
0
8
-5
60
30
-21
120
102
71
58
0
-32
-24
38
-35
-24
-37
-37
0
-2
0
7
-13
-1
1
0
-2
-16
-16
-31
-84
-14
-9
-5
-5
53
100
-10
16
30
35
38
-3
-14
31
-24
110
-2
-8
-8
15
-8
8
95
-59
-32
-14
-9
-8
-1
12
0
-95
-51
-16
-10
-5
42
27
64
35
67
40
31
12
-54
106
-10
-104
-51
-38
-43
1
-1
26
14
-53
-9
-2
-5
0
4
-20
-2
-110
-49
-14
-9
0
35
-67
-32
82
83
38
34
5
-10
-40
-77
-46
-16
-12
0
1
-13
-43
-107
-8
6
-2
-2
1
-13
4
11
-5
4
-10
-20
-7
-3
-49
-26
-29
-54
-17
-6
-8
58
-34
-11
65
71
60
57
5
-73
-7
-48
-82
-56
-52
-51
4
4
3
25
26
24
7
5
-1
-2
81
37
-81
-56
-28
-20
-11
12
-30
-26
116
47
17
13
-3
25
12
27
16
28
23
21
6
-17
3
-2
58
21
-2
-11
2
-16
43
56
-36
-33
-24
-17
-4
-1
-48
40
-13
-4
10
7
-11
4
-54
42
21
4
12
8
0
-20
-46
1
47
16
-6
-6
5
0
23
83
-13
-18
-11
-6
-4
16
21
37
-26
-2
6
7
0
14
2
-75
22
16
17
13
4
-10
-18
-46
-18
-6
-13
-9
0
-3
7
64
-3
-13
-4
-7
-5
6
1
15
-13
2
8
4
-3
-3
-3
54
27
2
0
0
-5
-2
-3
25
19
10
1
-3
2
-8
-14
-77
-38
-16
-6
-4
-1
8
21
14
10
5
3
8
-2
-5
6
-52
-8
-6
-7
-5
1
4
-4
-13
10
10
6
6
0
-13
-13
8
-9
-16
-12
-11
-2
11
-2
-54
-19
-3
4
3
0
14
25
28
9
4
3
5
-1
-3
-11
14
15
10
3
2
2
7
46
17
-11
-5
-7
-3
3
-7
-31
48
12
-5
-12
-4
10
4
20
-6
5
2
18
8
-16
-8
-11
-16
17
0
-3
1
2
3
-8
1
17
-3
-1
3
-3
-2
5
-46
-44
-5
-26
-7
1
3
5
29
12
0
1
-20
12
-1
6
-27
-3
7
28
0
-1
-2
-6
-8
3
-4
-17
27
3
6
14
-5
-10
-6
-33
-16
5
-7
1
5
22
-3
-40
28
-19
6
7
8
2
3
49
-1
10
-5
-6
-26
-24
-2
21
-17
0
-4
1
58
24
0
31
31
-21
3
-2
40
-2
-6
-53
-9
26
-1
4
-13
2
-3
-17
-36
-3
2
3
-15
-3
-6
-40
-14
-7
6
12
-15
6
7
55
33
-3
2
2
46
-14
2
35
8
-6
4
4
3
10
0
-20
8
3
-9
-9
-20
-12
-8
-12
-17
4
4
-2
4
0
-2
-18
-20
9
-1
1
-34
-2
0
6
-15
-10
0
-9
-34
-17
-7
-20
17
-1
-3
6
2
3
3
25
-10
-1
-3
0
11
0
-2
-6
18
-2
0
3
-25
7
0
5
-19
-1
-5
-4
18
-3
1
22
0
-5
-2
-4
-13
-6
-6
-26
-1
-3
-5
-3
-3
-4
-6
14
-1
-2
2
-5
9
-2
0
-8
-16
3
-1
-6
-9
1
1
-12
5
4
-3
-11
-50
-13
-2
11
3
-8
-6
-2
2
9
0
-1
-20
1
-1
-4
-4
-16
-3
2
-17
-2
0
2
24
7
3
-10
5
-1
-1
3
-34
-7
-3
-7
-19
1
2
4
6
2
2
3
-25
-11
3
-1
-17
2
0
22
62
8
2
5
33
0
1
12
41
5
-4
-4
-24
9
-1
-25
-23
1
-1
1
-1
-9
-6
-22
-19
-4
-3
0
-23
-5
-3
3
-7
9
1
2
18
1
1
10
14
-20
4
-1
13
4
0
23
26
-1
-4
8
26
-8
-2
6
-10
-2
-4
-7
-19
-5
-4
-48
-27
-3
-2
5
-13
-1
-2
-12
-100
-11
3
-3
5
-9
-1
46
58
14
0
-1
-15
2
2
7
39
3
3
-1
12
3
-2
-11
-1
-1
2
-8
-16
-1
-3
-6
24
7
-14
13
14
-1
-4
-14
-107
-22
18
-17
-11
-8
0
49
28
13
8
8
12
4
3
-14
16
3
-6
-9
-22
-4
-4
-5
16
-6
-4
7
46
0
-3
-23
54
-5
-2
18
35
6
4
7
-25
-8
0
-22
-78
-3
2
32
-26
4
6
-2
61
17
5
3
23
10
-2
0
-67
-18
-6
-7
-8
6
-4
8
77
5
-7
-54
-7
-5
-1
-6
6
2
-1
15
-25
-14
-1
7
19
2
4
26
13
-4
4
-4
-1
15
5
11
-14
5
2
8
65
18
0
7
36
1
-15
-9
-55
-22
-11
-12
-12
1
-1
-3
8
-7
-2
-26
5
1
3
10
39
-2
4
2
-8
-5
-1
-13
-35
7
4
-3
-28
0
-2
-5
6
10
-1
-4
10
-5
-9
-4
-27
-13
-9
-22
-11
-1
2
2
0
2
0
19
6
1
-2
9
16
-4
0
1
2
6
-3
1
-14
1
0
1
17
-2
0
-5
-37
-7
-3
-14
-31
0
5
7
26
4
1
5
14
4
-12
-12
-14
-1
-2
-6
-4
-2
1
6
22
0
1
12
1
-4
0
-1
3
-2
-2
-6
-12
-1
1
-4
-19
4
-2
-5
6
-2
-5
-1
27
-24
-7
-23
0
2
-1
2
-15
0
0
25
-4
-3
0
4
25
5
2
1
-9
3
0
-3
7
2
4
22
27
-1
-1
-10
-70
-8
1
2
-15
-4
5
12
38
0
0
-7
12
0
-2
-3
36
9
-5
-9
8
0
-7
-16
-73
-13
-6
-12
-22
-1
1
1
-20
-6
1
-8
-11
-2
0
8
28
-1
1
2
9
1
-3
-1
-17
13
2
7
4
0
0
1
40
1
-4
-14
-5
0
-2
5
41
8
-2
3
0
-2
-1
-2
-89
-2
3
2
2
0
-8
-35
-66
-23
-4
0
-8
-4
-2
-2
21
2
-2
-3
-1
-1
0
-2
-12
-5
-1
3
0
-2
4
9
64
13
-1
2
-1
-2
4
9
-1
20
5
3
5
0
-3
-1
41
-24
-5
-7
1
1
-2
-4
-101
1
2
3
-2
1
1
-8
-8
-9
-3
-7
-4
-4
-3
2
2
-4
-2
0
0
2
0
-1
20
8
1
-3
2
-2
3
6
23
4
0
1
-2
-1
1
10
32
5
0
1
1
1
-4
-13
-36
-11
-5
0
-1
0
1
7
12
6
0
-1
-3
0
-3
-6
-12
-9
-4
-4
-5
-4
-3
-1
-4
-2
-1
-1
-1
0
-1
5
12
1
-1
3
1
-2
2
-2
6
-10
0
2
3
-3
-7
-4
-19
12
1
0
-4
4
-2
-3
54
12
-2
-2
-5
-2
1
2
-9
-2
-1
0
1
1
-4
-10
-14
-9
-2
-5
-2
-1
2
0
-6
-4
-1
2
2
-5
4
9
77
5
1
4
2
0
4
19
-15
10
3
0
-1
3
-8
-28
-21
-9
-2
-4
-5
0
-1
-5
-29
-11
-7
-3
-3
-2
-3
-1
-19
-16
-1
-1
0
-1
3
6
27
12
5
2
1
-3
7
12
11
19
4
2
3
2
8
20
80
15
3
1
1
0
-8
-23
-50
6
-4
-4
-5
2
-7
-16
0
-27
-6
-7
-4
-7
-1
7
19
-14
-4
-2
-4
0
3
-11
-19
-11
-4
-2
1
0
4
13
7
7
5
4
5
-1
5
24
84
25
4
2
2
1
-8
-20
-58
17
-4
-4
-5
0
2
6
-13
-33
-6
-3
-2
-4
-12
-34
-65
-18
6
1
-3
-3
4
-6
-18
12
2
0
4
-1
-6
10
-77
-17
-8
-5
-3
0
-7
-15
23
-2
-6
-5
-5
-1
2
10
1
-16
-6
-5
-2
0
-2
-12
22
-4
-2
0
-2
-2
6
10
35
5
1
0
3
-3
6
-1
33
5
-7
2
4
-1
-2
6
-79
15
24
7
0
1
-4
17
42
-7
-16
-10
-9
0
-5
-17
10
35
9
1
-1
-5
-6
-15
-43
-48
-8
-7
-3
0
13
14
100
20
2
9
8
-5
-5
1
-12
-12
-6
-7
-4
3
7
15
41
17
4
-1
1
2
-8
29
-91
-57
-17
-3
-3
-7
-11
-19
-6
21
5
-9
-9
-4
3
-56
-99
-11
9
9
9
-4
-2
92
119
13
3
-7
-11
1
3
7
60
16
-5
-5
-4
5
-6
-20
-59
-60
-10
-4
-4
-6
19
-16
77
102
8
10
13
-5
-35
-22
-89
-69
-15
-15
-14
5
-12
-43
-65
-6
-3
-5
-5
-4
13
43
-6
-22
-6
8
10
0
-8
-10
91
-42
-18
-6
-7
3
3
2
-26
91
23
1
3
-5
19
3
108
105
28
22
13
2
-6
6
-100
-1
-12
-11
-12
1
-14
38
98
-32
-6
-9
-13
1
26
19
29
-5
-4
13
13
-4
-14
-50
-31
27
23
11
-2
6
-15
-33
74
-1
-20
-18
-16
-7
14
20
13
-3
-4
1
5
2
13
-60
-45
72
16
34
22
-4
-21
-8
71
49
24
-5
-7
25
13
28
51
-75
-31
-7
6
-9
-6
-22
-92
9
14
2
-1
3
8
1
12
-61
-39
-15
3
-10
15
62
51
21
4
17
14
-6
-18
-36
-67
-14
0
-9
-11
10
-7
-19
-50
-17
-6
-9
-5
-5
35
67
127
68
56
37
27
4
-30
58
67
-123
-53
-46
-34
-7
0
38
125
57
2
-8
-2
3
15
69
-48
-2
8
14
9
-9
17
23
48
68
18
13
14
5
-33
-85
5
-29
-36
-40
-31
-10
12
44
101
-19
-12
1
4
0
26
-15
-11
-7
21
41
29
-9
-33
-90
-62
85
19
-22
-28
8
7
-17
-9
-35
-1
4
5
2
36
47
113
61
35
25
20
1
-54
-80
-95
-76
-21
-8
-13
6
-22
49
74
-28
-31
-25
-28
2
10
-9
-45
-7
7
7
9
-7
25
48
20
100
65
39
26
2
-27
23
57
-100
-38
-37
-29
1
-10
32
16
-108
-24
-10
-10
-2
28
83
-32
13
-2
13
16
7
-12
-101
-56
-27
12
6
6
-6
27
92
-63
117
31
10
9
-5
-29
-4
-64
5
9
-21
-18
2
-12
-60
-48
-4
-2
0
0
-9
-12
-16
-45
-65
-23
-8
-4
-1
11
-21
49
43
4
12
9
-9
-4
80
-55
-128
-13
-13
-5
12
-1
-3
54
18
14
5
2
-5
1
41
34
-12
-14
-6
-5
-1
-16
12
58
-34
-18
-7
-3
7
38
-85
127
-60
-6
40
37
-17
-35
22
-80
112
30
-38
-37
10
-21
-6
30
-84
-37
-25
-17
1
35
48
67
19
11
8
13
-1
29
8
-9
-5
-26
1
11
0
-1
-64
-88
-104
11
20
12
-4
-32
-15
-18
74
-11
-21
-29
0
10
23
37
-7
8
-3
1
5
-17
-111
-82
-30
-11
-3
-1
-12
1
-47
112
-23
-18
3
6
-3
-11
76
22
-56
15
-16
-16
12
-2
-19
40
-28
1
-1
-3
0
24
108
99
40
-25
-2
3
5
41
89
-16
-97
4
34
40
8
-20
14
78
98
11
-6
-10
-4
-31
-26
-33
-25
-6
-27
-30
-5
9
-6
-2
-28
-5
-1
2
-6
32
24
9
-60
2
20
24
-3
-30
-93
114
59
14
-4
-16
3
-20
25
-24
-25
-7
-22
-22
4
1
34
25
33
16
4
4
-4
13
31
63
27
-7
-4
-2
2
25
-16
2
8
-2
19
22
-7
-4
-9
20
-25
2
3
1
2
-45
-76
-116
-92
-16
-28
-26
5
2
53
-17
13
2
-3
-6
-8
19
-6
30
-64
-45
-4
5
-5
34
64
-128
96
83
48
28
1
-64
-47
115
29
-26
-40
-39
2
1
24
28
6
-1
-4
-4
-3
26
44
-72
-79
-13
8
15
0
16
-25
27
-115
-47
-12
8
-1
24
-52
13
33
31
42
28
-10
-57
-56
-7
-33
-34
-42
-39
14
10
49
68
16
-13
-6
-2
-7
-4
-70
17
1
-7
2
5
-3
-3
107
-84
-33
-11
-3
-8
0
-24
-40
104
-63
-46
-20
-15
-6
0
-46
-128
-8
32
11
5
2
6
46
84
-15
-19
-9
-3
-1
24
-69
7
48
30
10
12
-3
-34
-77
-77
-61
-26
-19
-20
-11
-2
-20
32
-5
-4
-3
-3
0
-22
-81
-13
127
19
-1
-8
-2
-7
-38
-50
-104
-14
-6
-5
-1
32
68
-8
27
22
16
15
0
17
-93
-110
-51
26
25
25
-4
-37
-22
100
83
4
-20
-26
10
0
14
-22
-35
-3
-2
2
2
13
-16
20
-2
3
2
3
-5
15
16
13
-128
-65
-14
0
-9
38
15
-28
51
97
64
42
8
-57
7
-13
-36
-11
-48
-46
25
1
21
127
35
-4
-6
-6
-9
18
65
42
43
12
14
20
-2
8
4
20
-75
-54
-10
-1
-3
-46
-45
-21
127
70
3
-15
-15
0
35
-82
4
14
-2
-3
7
-5
31
7
-10
0
-4
-7
0
13
53
-35
-111
-32
-13
-1
-1
82
98
81
77
86
78
67
3
-7
94
95
-63
-30
-31
-32
1
-1
30
76
17
18
-2
-7
-1
3
58
-20
-26
-20
-8
-2
-7
36
47
19
-46
-17
22
26
-7
20
10
82
61
32
26
19
5
-43
-34
14
-55
-28
-24
-21
2
18
72
110
-3
3
3
0
-7
-19
-40
53
-12
-43
-15
-16
-3
26
35
44
62
-4
25
20
-4
-31
26
-26
-45
-4
-35
-33
19
-30
-92
-99
-38
-18
-24
-18
-8
21
31
26
-15
-10
-4
3
-4
17
29
-15
-29
-13
2
7
-3
53
-35
59
127
66
55
43
3
-74
-125
-24
95
49
-28
-39
2
4
13
52
-128
-38
-24
-16
7
2
-34
25
43
33
22
21
-8
24
-8
-29
-116
-17
11
19
-6
-51
-60
1
50
14
-3
-20
8
-36
-4
-62
-22
-33
-39
-35
-12
9
19
47
44
16
7
8
-2
9
81
86
-79
-39
-9
-4
-7
73
55
-10
70
71
67
50
-6
-74
-101
116
-102
-62
-45
-40
8
-9
-40
-59
-90
-13
-8
-9
-3
4
3
-16
32
0
-3
3
-2
50
-15
41
-42
-27
15
25
-9
12
-20
-96
-28
21
17
8
9
-30
-12
70
117
9
-26
-26
2
-17
4
56
71
0
-2
-5
3
18
28
41
-51
-25
-5
10
9
64
32
66
79
75
64
51
-3
-18
77
48
-128
-53
-44
-35
9
6
44
-35
-44
1
-1
-2
-9
-24
25
-2
-36
-18
-14
-11
-4
30
87
-23
47
-15
2
10
-6
11
-17
-73
2
2
15
14
-7
17
6
53
-26
7
30
17
0
-74
-25
24
-107
-43
-52
-42
17
-26
-22
63
-78
-34
-27
-20
-9
18
-22
1
31
25
20
17
-2
0
-4
-73
-3
-13
-4
-5
2
19
6
36
-40
-24
2
8
-9
-37
3
23
79
26
0
-10
-3
-35
-31
-17
-62
-24
-30
-21
-3
4
21
0
53
15
8
8
0
28
12
38
-20
-14
3
7
1
21
-42
1
66
17
10
11
-13
9
17
-41
59
39
10
3
7
-26
-46
-1
29
3
-13
-15
-3
9
1
12
-38
-10
2
3
-12
44
50
48
69
31
29
27
-1
-53
-100
-75
-75
-63
-39
-37
-2
-22
-33
-61
-88
-16
-14
-15
-6
5
26
23
16
4
-1
-4
-1
8
17
-1
5
-8
2
2
1
20
4
10
33
23
23
20
1
6
-54
23
-62
-22
-12
-1
2
-25
-54
-48
33
73
40
10
10
-38
37
-30
-56
-48
-51
-37
8
15
33
102
-60
6
9
11
-2
-2
1
14
-3
-12
-3
2
3
6
-14
-37
114
12
6
10
-5
2
-18
27
-29
-8
-1
1
4
-3
-9
-58
8
15
6
5
-2
16
32
28
35
-17
-7
0
4
12
3
82
61
52
25
10
-1
-31
30
36
-119
-24
-29
-32
7
33
70
34
-13
-11
4
10
-7
-2
3
44
-1
27
9
1
-4
-6
25
-90
-86
-51
-20
-6
-4
23
74
61
19
-6
4
13
0
-8
7
6
47
29
14
0
8
2
22
69
34
14
11
3
3
-4
59
-87
-71
-25
-18
-10
5
69
68
-42
-65
-18
28
38
1
-46
-8
85
7
-4
-37
-48
15
-19
28
51
22
22
-7
-15
-5
12
45
63
-49
-25
-18
-5
-6
-7
-79
3
-10
14
10
9
-4
40
-30
-104
-1
-2
30
38
-6
-29
-28
27
83
-32
-25
-25
-9
-21
-6
49
-10
-8
-19
-24
4
8
7
-12
38
6
5
4
-7
19
52
-64
-8
8
19
20
-11
22
88
86
39
29
5
-2
10
-65
-62
-70
-45
-46
-38
-39
5
-9
8
55
-5
0
-4
-6
-10
8
12
44
24
10
5
7
0
1
-31
-91
-73
-10
0
5
-6
49
66
127
-57
-34
9
18
-4
-66
-68
-97
96
89
3
-16
13
-20
-60
-13
-72
-25
-19
-17
-8
12
-19
-44
-23
-2
8
11
-4
10
-6
29
-23
-4
-6
-2
0
12
60
30
-25
-12
6
11
-4
65
127
36
99
44
38
28
-9
-54
-31
72
-48
-32
-43
-43
5
25
62
32
24
15
9
14
-16
8
-58
3
-6
-19
-2
6
-2
-4
-13
1
-58
-8
5
3
-3
1
-54
-128
-35
43
26
21
8
-26
-20
56
105
3
-12
-19
-3
18
32
27
-7
-18
-3
1
-4
-28
-64
-32
-60
-28
-15
-9
2
-4
-13
65
123
20
18
11
-5
28
-13
-80
-128
-36
7
18
1
-58
-128
-122
50
3
-24
-34
12
-13
-61
-1
-42
-6
-12
-10
-10
-3
8
0
-33
-2
1
2
-4
27
79
3
82
7
15
19
-4
16
-3
54
-27
-6
12
14
-3
-42
-26
-77
-12
-17
-38
-38
-4
10
12
6
-56
-12
-6
-2
-4
-7
-41
30
-40
-3
-2
-1
0
14
-47
58
-43
5
30
27
-4
-31
50
-58
28
-27
-31
-25
6
-5
15
46
21
-8
-7
-7
-4
1
36
-2
30
23
7
2
-6
18
36
83
32
-19
-3
4
-7
47
-7
5
-61
42
45
33
6
-82
-104
-128
-87
-44
-46
-48
-2
-6
-9
127
-31
-2
-8
-7
-2
24
21
47
-23
3
-4
2
1
24
-101
14
70
12
47
39
-12
-32
-47
101
40
5
-21
-29
33
-10
-43
-26
-81
4
-8
-8
-4
-5
1
-15
-110
-36
-14
-3
-12
19
-23
114
90
61
35
27
3
29
78
127
-62
26
19
14
6
-42
-100
-59
-43
-20
-26
-23
-6
-15
-66
-12
13
11
-1
-6
-3
13
23
-28
-59
-17
-1
7
7
30
37
83
104
5
11
17
-7
6
56
99
-4
-10
-6
-4
0
-9
-35
-76
-32
-8
-10
-9
-2
-27
29
127
100
-11
-31
-22
1
-2
-114
-74
-19
-1
8
7
-10
46
116
85
63
10
33
25
7
-73
71
-45
-28
-11
-38
-48
6
10
52
53
-41
-7
-6
-3
0
32
99
89
-47
-49
5
14
-11
-7
-70
-71
125
69
20
18
9
-41
-12
-60
-118
-36
-29
-28
0
-6
-22
33
8
-12
-13
-7
-10
22
76
-22
-103
-26
-4
7
-6
-17
15
-2
62
2
9
2
-6
29
19
65
21
13
11
9
5
-43
-60
23
-43
-13
-13
-19
-3
13
-4
-63
40
16
4
4
-4
-3
-15
-58
-61
-2
5
0
0
30
76
120
126
48
21
24
5
-8
-4
6
-89
-36
-6
-2
8
-11
-61
3
11
-2
-7
-7
-5
-5
24
24
-26
-4
-9
-13
0
11
15
-38
-12
-6
7
2
-9
19
-16
-28
-11
10
10
13
12
-12
-47
-84
-62
-1
-2
-2
0
-7
-11
-33
23
1
-12
-11
-1
-2
8
45
-11
-16
-1
0
4
-8
-14
-25
-6
2
-2
-3
-8
-6
58
-46
19
17
2
-5
0
5
6
52
-23
-22
-12
-4
-2
10
-32
-28
3
1
5
5
-5
-5
46
39
33
5
-5
-14
-2
2
-6
-32
1
-2
-1
3
1
6
-19
-37
-16
5
6
18
1
-11
-8
-37
15
-2
-2
-4
-4
-5
-6
-5
-15
-4
-4
2
1
21
49
107
58
19
4
-3
0
-20
-78
-15
-74
-30
-13
-12
-7
-1
12
75
9
4
-2
0
-5
-5
-26
-54
-15
-5
-10
-7
-7
2
-11
-34
6
2
11
9
3
3
5
-14
-4
1
-22
-9
-2
6
-6
-22
5
-6
16
3
-9
7
23
-5
-18
-2
-23
6
0
-11
-13
-15
-5
1
22
-1
-2
0
14
7
-8
3
10
5
2
12
16
4
22
0
-11
3
10
-3
12
-12
10
2
-12
-12
2
-3
-6
-6
-15
-4
-45
-20
-3
2
17
11
-4
-2
19
16
9
0
-9
3
-3
2
56
13
9
5
4
31
24
5
4
11
-18
0
-2
-18
-4
-1
-5
23
11
-2
2
-5
-3
-6
-2
-36
-36
-4
-17
-33
-9
4
-10
13
21
-3
11
26
11
-6
-8
2
3
9
8
7
6
1
11
5
7
-15
9
-7
5
-1
-18
-10
-17
1
1
-35
-15
-4
-13
-24
-4
-1
13
42
6
4
27
-1
-7
-4
-8
0
-2
-1
-30
-7
-7
1
1
-1
1
0
19
-12
15
2
4
5
-4
0
8
16
-1
1
-5
-13
-3
-3
-20
5
8
-4
3
3
8
-1
18
-9
-9
2
11
38
3
-1
-2
3
5
-4
1
5
0
-3
-14
-51
-7
8
7
-1
5
5
22
55
8
-11
7
62
4
0
6
20
-1
4
-1
-57
-6
-1
-29
10
10
-15
-29
-37
-20
-8
-13
-11
-13
3
1
3
2
-3
-1
-41
-3
2
2
1
3
1
9
-7
-5
-4
-2
14
-4
0
14
17
4
1
6
18
7
5
24
19
-2
-3
1
56
5
-4
-15
-15
-4
-10
-10
-78
-9
-2
-11
-94
-13
10
0
10
1
1
36
80
30
4
4
20
4
-1
-17
34
9
-5
-2
-70
-8
1
16
-1
-7
0
-4
50
7
-1
-19
-3
20
-7
-1
-6
0
-4
-52
-92
-30
11
9
26
6
5
51
26
10
-3
-3
-12
2
2
14
42
-1
-3
-7
-17
-3
-4
-22
3
-9
-1
-5
-17
-5
1
0
-19
7
-5
0
4
-1
-2
37
51
18
3
2
6
2
0
-5
-21
11
6
-6
-20
-3
2
12
38
-46
1
-1
31
2
-3
-8
28
-5
6
3
-8
-3
-3
-64
-89
-27
-2
-3
16
9
-3
-3
-40
15
0
2
2
2
1
54
26
12
-1
6
23
7
4
-15
16
-2
-4
11
60
11
1
0
-25
-9
-8
-32
-96
-26
-9
-46
11
8
-6
-10
6
-8
-5
12
-1
3
7
15
35
10
7
33
-4
-3
-6
-4
45
11
4
-12
1
-1
-3
-5
-54
5
-2
-8
-15
-7
1
8
-7
3
-3
-25
0
5
-2
-23
-58
-23
-2
15
-14
-3
-1
4
34
-10
-7
-32
-11
-4
2
7
29
6
2
9
4
-7
-1
2
-10
9
0
19
6
3
0
10
3
4
-1
2
-12
7
6
9
-28
1
-1
-12
17
-1
-6
-15
-7
-7
-2
11
-5
-6
0
-1
18
-6
0
-4
-7
9
-1
0
-4
-2
-2
-11
-4
-3
-4
-11
-6
5
-3
-16
-11
-6
3
12
44
1
0
15
-7
-3
-2
5
-13
-4
-3
-26
-12
-2
-8
-17
-29
0
3
10
8
0
1
-4
-22
0
2
26
9
-1
5
14
29
2
2
13
3
3
2
-12
-8
-7
-1
-14
11
2
-3
4
5
4
-8
-17
-11
-4
-1
3
16
1
0
-7
-4
0
0
4
-9
-4
2
16
14
1
-7
-13
-63
-16
-5
-3
2
-1
0
9
25
3
-1
-3
3
1
-4
-14
-26
-10
-2
-8
-6
-5
3
10
27
3
0
-3
-7
-4
4
6
29
13
0
-3
9
3
-4
4
9
6
0
1
-6
-2
-5
-10
-29
-12
-4
6
5
-2
-3
0
10
-3
1
-8
1
0
0
-4
7
-2
0
6
-2
0
2
7
45
11
-1
-6
1
0
0
2
-32
-2
-4
-25
-12
-2
0
-1
26
-1
-1
17
7
-3
-1
-3
-50
-5
2
5
4
0
-1
-2
27
-3
1
5
4
-1
2
-3
-20
0
0
0
4
-1
-1
-3
-21
4
-2
-10
-8
1
1
7
42
5
-1
2
-1
-2
-2
-3
-8
-10
-6
-4
-1
0
0
0
-6
4
1
-1
2
1
1
-1
-21
-4
0
-3
1
-4
-4
-2
17
0
0
5
1
-3
-1
-6
-27
-6
-6
-5
-2
0
0
9
4
-3
-5
1
-3
-1
-2
-8
25
3
1
-1
-4
-1
-1
0
-31
-11
0
3
0
-2
-6
-11
-44
2
-2
-5
-8
-3
1
6
22
8
1
3
1
-1
2
9
14
-1
2
0
1
-1
2
4
19
6
0
0
-2
0
-2
-18
-27
-8
1
2
3
1
-7
-15
-7
-16
-5
-4
-4
-2
-2
-2
-2
0
-3
-2
-1
-1
2
3
8
-2
0
1
-1
1
3
10
24
11
4
1
0
-2
2
1
-13
0
1
3
3
1
-2
-7
30
-6
-4
-6
-7
-2
-3
2
-41
1
-2
-1
-5
1
1
0
8
3
-1
0
3
0
5
15
23
8
2
0
0
-1
-1
-8
-17
-11
1
1
3
4
2
6
32
16
1
1
-3
-5
-4
-18
-101
-20
0
1
-1
-2
-8
10
83
16
-9
-10
-11
-3
8
20
71
20
6
3
1
-1
5
1
74
6
6
1
5
-5
-9
-30
-95
-8
-1
-1
1
4
-2
16
72
-15
-7
-5
-2
-1
13
26
76
11
3
6
7
5
-25
-31
-84
-25
-16
-16
-16
-4
12
23
74
-18
-6
2
7
-7
16
10
43
79
28
15
15
0
-19
-28
-109
-40
-16
-15
-13
7
17
49
102
27
7
3
6
2
-10
-8
5
5
2
4
-1
1
-25
-41
-3
-102
-50
-35
-27
-13
22
18
108
85
32
18
18
-5
-21
-95
-122
30
0
-2
-7
4
12
47
30
-53
-2
-1
2
1
30
23
25
64
36
31
30
8
-25
7
3
7
-26
-27
-29
-6
21
103
92
-47
-17
-6
3
3
-11
-31
-43
-26
-10
-2
-3
1
-22
-43
-128
-7
5
-2
-4
0
0
-38
-52
-44
-12
-4
1
-9
42
80
81
127
51
44
30
7
-48
-77
-4
-93
-56
-40
-32
-1
-13
28
50
-49
-13
-11
-15
-6
6
-29
-61
97
19
13
9
-2
1
19
-16
-3
-8
-2
0
-6
8
-24
90
-9
22
11
4
2
17
52
60
18
3
7
6
9
-12
6
90
-78
-15
8
4
10
4
77
72
58
-3
-20
-17
-12
2
71
54
33
19
3
2
2
-5
8
49
11
-4
-5
2
-5
22
90
22
45
8
10
16
8
-30
-128
-86
-128
-40
-15
-3
-7
-7
52
44
27
4
-10
-9
-5
16
-20
36
79
18
12
7
3
33
32
-66
3
19
15
19
1
-48
-79
113
-89
-62
-42
-29
-8
15
-5
5
107
21
8
9
-5
14
11
-33
0
9
16
11
-3
34
-11
13
86
51
27
18
20
-35
-17
74
-31
-21
-26
-27
-14
16
35
123
58
4
3
2
-3
7
-39
22
-49
-1
9
7
0
-27
-77
-71
-23
-25
-17
-15
-4
16
0
90
27
10
9
3
5
-8
-72
18
-16
-17
5
-1
1
-11
10
-99
-78
-7
-8
-10
-2
-4
-11
25
-44
-3
-14
-9
-12
19
3
-97
3
27
23
18
6
-19
-47
-81
-30
-29
-20
-12
-11
-1
69
56
29
-6
-4
-3
4
-7
15
85
50
23
8
-5
-7
-24
-61
-109
-116
-41
-26
-18
6
38
47
104
102
41
31
26
2
-14
-42
-128
-91
-14
-9
-8
0
-8
55
61
-1
-27
-20
-14
-5
25
59
-50
85
30
23
19
1
-22
18
59
45
23
9
-2
1
-39
-103
5
-50
-9
-18
-17
-11
1
31
49
8
-10
-3
0
0
31
91
60
-54
6
22
24
-12
-48
-2
-128
-73
-18
-30
-31
16
24
40
74
27
5
7
9
-5
-19
-29
-21
-54
-10
-8
-10
-8
3
-45
-30
99
25
17
14
0
-23
30
117
36
-42
-31
-29
-2
2
28
-51
36
4
-2
-1
3
-4
48
-17
-50
-19
-8
-6
2
-10
46
-96
43
4
-2
-4
-1
46
54
57
-53
16
29
23
2
-7
61
69
39
1
-17
-20
9
2
10
84
18
0
-4
-1
-10
33
21
120
59
32
26
22
6
-17
-31
-107
-25
2
-3
-8
8
-17
17
43
-79
-62
-34
-19
-12
8
-7
-47
61
28
16
11
-2
3
12
100
15
10
-1
0
8
1
-75
40
15
-18
-8
0
-12
8
-12
111
37
18
14
8
1
-13
-13
21
-8
-12
-10
-8
-4
-2
-63
-37
-77
-11
3
2
-3
24
37
-84
-2
17
5
12
1
-7
43
-78
-32
-6
-7
-11
12
18
59
-24
-39
-7
-4
-2
-1
4
32
-5
24
7
5
-3
-4
-1
11
59
-47
-10
-12
-7
-6
-6
-57
-55
20
8
4
6
-4
8
-5
-60
-50
-17
-2
5
-1
17
61
65
102
34
20
10
0
-20
-85
-100
-83
-34
-21
-14
2
7
4
85
-6
2
0
-1
-6
-18
-65
-1
-11
-8
-6
-5
-4
3
39
21
-38
-24
-2
8
0
-16
53
-24
97
52
26
6
10
-20
-37
-71
-52
-37
-32
-21
-8
12
-9
53
-7
-2
6
5
-5
-24
-94
-46
-22
-2
-5
-9
1
15
54
41
-5
-7
-2
2
-9
6
34
65
87
10
5
1
-1
-18
-27
-37
-24
-11
-12
-11
-7
-19
-71
-70
-35
-3
2
-1
-1
0
21
53
-4
10
9
-4
4
-3
5
97
8
3
-4
-6
5
-4
-70
82
14
2
2
1
-4
-10
-66
34
-8
-15
-9
-10
10
24
-31
-74
15
20
17
20
-11
-3
11
16
-32
0
2
3
4
-5
21
-48
-20
-7
-5
-7
5
0
-10
-17
-28
-4
-5
-3
0
72
100
112
111
30
27
38
0
-74
-105
-78
-69
-27
-12
-18
-13
0
77
93
-41
-1
-16
-14
5
12
100
29
-23
-1
-6
-4
-7
-3
1
17
25
4
-4
-3
-2
38
18
-12
82
28
27
30
-3
-27
-76
-128
-40
-5
8
7
-1
-20
-23
-47
-81
-20
-30
-24
0
-17
-19
-59
33
-13
-16
-17
5
20
9
25
-7
-2
8
13
-4
-10
-12
7
21
22
11
1
5
1
2
-39
1
-11
-9
-4
-12
-31
-109
25
-1
-21
-11
-11
-1
25
-49
-1
-9
6
14
15
2
-41
-87
-69
57
65
10
-4
2
-23
30
94
117
-19
-30
-24
-3
11
53
41
-4
-8
0
2
-5
1
21
-31
15
1
2
3
2
19
-18
26
48
3
11
12
-5
20
78
89
20
22
16
14
3
-49
-71
-83
-71
-22
-28
-30
0
51
126
116
50
16
16
16
6
25
34
24
-21
-8
0
0
-4
-43
-44
25
-56
-41
-23
-29
-2
19
70
42
22
0
6
12
1
8
71
-48
16
17
11
10
3
-5
29
4
2
-13
-6
-5
-1
7
-21
-100
-101
-26
1
6
-2
33
101
112
-3
28
10
13
7
-37
-127
-128
-76
-11
-10
-16
-2
-5
-48
54
34
9
11
4
-4
2
7
46
30
-14
-16
-10
-2
1
-10
-37
-35
-13
3
4
-10
-10
-14
-14
32
6
-2
-5
-4
14
8
13
-27
-15
-2
4
-3
7
-16
-67
19
25
14
13
0
-24
-73
-11
-66
-18
-10
-14
-1
1
-54
-65
-55
-1
8
8
4
-25
-67
83
-34
-39
-29
-20
-8
-14
-30
96
65
13
-3
-10
6
-13
-18
-43
-66
-17
-11
-6
-6
10
42
4
-9
-1
0
0
-3
2
59
-40
18
2
-1
1
2
3
-1
-101
-4
16
10
6
1
17
18
32
-18
-7
4
8
1
-13
-24
10
28
11
1
-2
-4
15
35
98
87
0
-4
-1
6
-41
-95
-67
-48
-12
-14
-15
-9
17
78
4
9
7
2
-6
4
11
-1
127
-32
-5
5
7
1
-20
40
46
-4
-26
-33
-26
-7
19
16
-55
-11
0
3
6
0
-7
-22
87
41
6
4
3
-2
21
48
88
83
18
7
10
1
4
-38
-5
-73
-5
0
2
0
-6
21
11
-22
1
-2
-3
-14
5
25
29
20
-15
-13
-7
5
16
32
63
35
21
12
10
2
5
59
-128
-72
-31
-7
-1
-6
19
89
125
37
3
3
1
5
-9
-48
-92
-31
15
8
6
-5
7
-19
-102
-7
-10
-3
-1
-2
-19
27
-3
5
-9
-9
-6
3
-1
-17
12
-104
-17
-5
-6
-4
-40
-24
-93
108
14
-9
-15
-7
-5
-19
-35
34
-5
-3
-5
-1
45
74
74
69
41
31
26
12
-33
-57
57
-52
-22
-17
-12
-7
-7
42
96
-23
-5
-4
-6
-3
0
-14
-84
5
-14
-10
-5
-6
25
75
116
107
59
37
23
3
-51
-49
-61
-46
-48
-44
-36
-3
16
-41
34
58
10
10
9
0
-18
-12
42
-23
-17
-14
-9
0
29
-34
-1
-60
-16
7
11
5
32
-25
-68
127
86
56
49
0
-87
-73
-69
-116
-36
-50
-59
19
4
57
67
-22
-18
-16
-10
-8
-11
-26
-2
-22
-3
1
-1
-2
25
76
-31
-1
15
13
14
-1
39
66
69
27
1
12
20
-4
-2
-27
-82
-36
25
35
18
9
-35
-21
35
-47
-41
-44
-36
6
27
25
30
40
14
9
8
10
50
114
58
51
18
21
27
-7
-32
-55
81
-15
-12
-9
-13
5
-42
-69
-98
-74
-23
-8
-10
-10
13
117
127
115
14
-4
-6
3
17
-7
-72
-84
-2
9
7
4
-1
14
-8
-20
3
-4
-1
-8
5
-3
-24
-42
-9
1
6
-2
12
21
-58
70
12
3
7
11
-14
-66
3
38
3
-2
-9
-10
22
63
50
84
21
7
7
-3
-19
-40
-60
-70
-11
-14
-16
9
-5
-22
17
-49
-22
-7
-7
-3
12
-16
20
-6
7
11
15
-6
-18
-28
-81
21
-6
-5
-5
2
-20
-56
-96
-4
3
-1
-13
-4
0
-29
38
4
1
0
4
5
3
3
-39
-24
-14
-3
3
-4
-6
18
37
1
3
-6
-6
0
23
70
50
54
8
13
13
-7
-23
-48
-113
9
-7
-10
-11
4
-14
-86
24
-17
-10
-9
-8
-6
8
44
34
-20
-12
-4
-3
2
20
72
-13
117
43
17
10
2
-23
-37
-17
-46
-29
-12
-11
-2
9
-20
17
3
-1
4
8
0
-16
-24
29
23
-5
-8
-8
-4
-4
-86
-33
-51
-7
0
1
-13
-2
-38
-17
57
15
7
0
8
-11
-24
-43
-32
-6
-7
-10
-3
-2
-20
8
37
-4
-8
-5
-5
6
8
10
-61
-3
3
5
0
41
40
65
14
36
28
26
3
-31
35
83
48
-16
-15
-15
3
-6
20
-2
-33
-8
-12
-12
-2
14
80
4
58
-1
-1
7
-1
6
-43
26
-67
6
11
8
2
7
2
-55
-38
18
13
8
11
-30
-11
-31
-68
-29
-24
-23
-2
-3
16
38
-48
-7
-3
-1
-4
-13
-46
-4
-7
-7
-3
1
-8
37
44
30
97
52
39
34
2
14
-61
-68
57
7
3
-1
19
-48
-36
100
-72
-57
-54
-45
-17
19
68
88
0
-6
0
5
-4
0
-6
-9
7
-2
2
3
-8
17
35
34
-59
14
16
16
0
54
22
-79
-38
-1
20
26
11
-66
-23
-41
89
46
-6
-32
13
-32
8
-1
-79
-50
-46
-34
-16
1
-2
93
22
8
7
9
-11
11
-7
-3
19
10
8
4
6
25
-7
-6
39
1
12
17
-9
23
-42
19
-30
-8
12
12
1
-35
-34
-79
-16
-21
-24
-24
-5
-7
-12
11
49
4
3
1
-5
7
-38
-19
-7
-7
0
5
-5
28
22
3
73
31
18
16
5
-28
-77
-65
49
0
-8
-5
-11
-16
38
127
83
0
-12
-17
-1
2
16
-32
-51
-19
-8
-1
-4
10
42
55
-19
31
28
17
-4
-43
26
-85
-77
-37
-34
-32
19
-11
-12
-100
26
-3
-8
-9
-5
28
89
84
-6
-5
3
7
-6
13
52
38
-45
-7
-1
2
-1
-9
-24
6
127
76
37
16
1
-17
30
110
-75
1
-4
-7
4
-15
-21
-73
-114
-45
-23
-16
-2
11
-11
0
67
2
8
10
-2
22
25
38
-87
-9
7
12
-3
32
63
-40
63
45
33
24
11
-23
-71
74
-68
-33
-27
-20
-14
-7
-20
-3
-28
-15
-9
-6
0
36
107
109
-96
-32
-6
4
-4
-42
-81
7
105
81
29
13
3
-2
56
-58
-96
-3
-9
-6
12
-29
0
23
-30
-23
-21
-21
-5
36
83
127
26
6
8
10
3
4
-24
-11
-27
-24
-5
-1
-11
-4
-21
-88
33
1
7
4
-4
-14
-15
61
9
-3
-16
-15
6
4
-57
-92
35
4
8
6
1
5
-37
-51
4
-13
-5
-1
-1
11
81
117
80
31
22
13
2
-26
0
-102
-128
-51
-34
-19
3
14
34
122
52
4
8
3
-5
-1
53
6
0
-18
-11
-6
0
2
-24
21
12
11
4
0
-1
21
3
-49
84
31
26
20
-1
1
23
7
-30
-3
-3
-1
1
-15
-36
-18
-32
-19
-17
-17
-5
26
40
0
17
8
9
11
-1
3
4
29
29
5
2
6
-2
-13
-59
-83
-47
-9
-7
-3
-1
3
-14
-10
-12
-13
-5
-1
-2
0
16
27
4
-6
-2
-3
-5
-7
-2
-33
-3
-4
-8
-10
-3
7
-3
107
67
19
8
8
-3
2
5
17
-52
-20
-7
-1
7
-10
-21
-4
4
-3
-4
-4
-1
-4
-8
-10
2
2
-2
-4
-2
8
9
-3
18
7
4
5
-2
0
-11
4
4
2
3
2
-2
-6
-11
-1
-4
-4
-9
-5
0
-4
-13
-1
-7
-1
5
3
-2
-2
1
-15
1
-2
-4
-4
0
-5
-29
-21
-20
-10
-8
-8
3
-13
-22
-4
-20
-7
-3
-4
-8
5
2
-3
6
7
2
1
-2
-6
-8
-5
-18
-10
-31
-16
-4
1
15
13
11
6
30
7
-3
16
19
25
16
5
-15
5
15
-4
-8
-4
-4
-2
33
7
-5
-7
-16
-26
-3
-4
5
4
2
2
7
24
1
-4
-10
-5
-6
-4
0
-10
-3
-3
-13
-9
6
1
4
-1
5
-2
-16
-5
17
-1
5
6
-10
-5
1
-7
-13
8
16
26
7
6
1
27
-19
-3
7
30
13
2
27
7
2
-6
-10
-10
-1
1
-9
-11
6
1
7
8
-2
-2
-48
-108
-6
-4
-2
-10
0
-3
46
-51
-10
6
0
0
12
6
5
91
27
2
7
-7
-17
-4
-16
17
19
0
-1
2
0
1
22
34
-30
-19
-5
-14
-4
-8
-90
-98
-9
-8
-4
-12
-2
4
40
-86
-53
3
3
1
8
2
78
94
-22
2
-4
-17
-12
-3
-43
-16
-2
7
2
-2
3
-5
-57
-4
39
-2
4
7
2
-2
-33
-10
-1
-2
-11
-1
-3
2
71
-40
0
-4
-3
0
2
4
40
77
22
-1
-2
9
4
0
-9
7
-10
-3
-18
-50
-14
-9
-24
-19
-7
3
4
61
2
-1
-41
-46
6
2
-9
-46
-17
-5
1
-12
-2
6
19
34
16
5
31
19
2
-6
-21
-77
-26
-4
-23
-21
6
-2
10
48
8
-6
-53
61
1
-7
-15
-20
-6
0
38
-28
3
4
-1
14
12
5
21
60
9
1
0
-1
-5
0
31
3
17
7
-1
-10
-1
1
-30
-18
-27
-6
0
11
-4
-2
-13
8
-1
-5
2
5
0
1
-5
-28
-14
1
3
19
5
-3
-10
-9
4
-4
3
-16
-1
1
18
-19
6
11
5
55
5
4
22
29
11
-2
-6
-32
8
2
27
22
2
1
9
-15
-25
-5
-17
8
-1
-10
-9
0
-5
-10
-59
-36
-6
-2
-1
5
3
3
46
-9
0
1
4
4
-6
2
12
22
3
1
-5
-22
12
1
-5
1
5
-10
2
51
-1
-5
-9
-20
-6
1
-1
-21
-4
-4
-21
-18
2
-2
-7
-13
-1
0
10
40
4
4
0
9
4
0
2
-7
-11
3
3
-25
-5
1
9
-21
-7
-2
3
5
2
-4
-21
-6
-4
-1
8
29
7
-1
2
-1
5
-1
-3
79
3
0
5
4
-3
-13
-11
-106
-8
3
14
6
0
-5
-3
6
-10
-5
-10
14
2
6
8
31
-3
-3
-2
-7
-1
-1
12
69
12
2
10
7
1
1
1
11
7
0
-9
-10
1
0
-14
-58
-12
-3
-9
4
4
-2
-4
-16
-9
0
2
-9
-5
-2
-1
-6
2
0
4
5
-5
0
1
81
19
-3
2
0
1
-2
6
1
8
0
-7
0
-2
-2
-11
-8
-2
-3
-6
1
-1
0
-2
-44
-16
-2
-3
1
-2
2
-4
-12
-11
4
21
5
0
-5
-5
-3
-1
1
-2
-2
0
-1
-5
3
-3
-5
-4
-1
-2
-1
7
-17
8
-2
-4
-2
0
-1
-10
-43
-9
-2
-8
-6
-1
1
10
36
8
-1
1
-2
-1
-1
-6
-17
-7
-3
-13
-3
-2
-4
-6
37
7
-4
-13
-19
-2
3
1
-37
-4
3
19
18
2
0
-2
-2
-12
1
0
3
2
3
3
2
5
-1
-2
-6
0
-4
-2
-5
3
-2
-2
-5
-2
3
8
16
0
-2
-10
-6
1
0
-9
-6
1
1
-3
-5
-2
-2
-6
-22
-9
0
5
-1
1
-1
0
-4
-3
2
5
2
-2
4
9
56
18
-1
-7
1
-1
-6
-10
-65
-21
-7
-1
1
0
-1
-1
-3
-2
-1
-5
-9
-2
-1
-1
-6
2
2
8
4
1
-1
-3
14
-3
-1
-7
-4
-2
2
4
16
4
0
-1
-5
-1
2
1
10
1
1
4
-1
-1
0
-1
-13
8
-1
-3
2
1
-5
-11
-39
-15
-3
-6
-7
0
-1
0
17
6
1
3
4
0
-1
-3
-15
-6
0
-3
-1
-2
-2
-2
23
6
0
5
4
-3
0
-1
-16
-6
-3
-6
1
-1
-1
1
24
10
2
-4
-31
-3
-3
-3
24
-4
0
7
50
5
-1
3
5
-2
-2
-12
-24
-10
9
3
-20
-5
-2
2
-40
8
-3
-7
-1
0
0
8
83
7
0
2
-4
5
2
0
-20
-3
-7
-7
-17
-7
-1
0
20
1
-2
1
-1
-4
0
-7
-19
-7
2
4
10
3
-4
-5
-28
-3
1
6
57
8
0
-2
-6
0
-1
-3
-85
-10
-3
1
-13
-3
0
-2
30
3
-1
0
6
-3
0
-3
-24
1
-4
-3
-5
-2
-4
-1
14
-11
-3
-1
-1
0
2
4
33
4
1
2
-3
1
-3
6
1
5
2
1
10
0
-3
-7
-6
-16
-2
-3
3
-2
-1
-11
-54
3
0
-2
-14
-1
-1
-7
-10
-7
0
0
-4
0
0
2
14
-3
-4
-1
13
-1
2
4
-2
8
-2
-3
-8
-1
5
16
62
15
-1
1
-7
-3
-4
-4
-46
-8
-2
0
4
4
-3
-2
-5
-10
0
-3
9
-1
3
8
16
8
3
0
-7
-2
-5
-20
-23
-13
-5
-4
-9
-5
5
8
32
1
-3
4
15
2
-3
-6
3
18
7
1
-1
-2
-3
-4
2
1
1
-2
-6
0
2
16
20
-9
-5
-3
-1
2
-4
-21
-66
-15
-1
-1
0
2
-5
-21
-20
-21
-7
-4
0
-4
-2
7
30
9
4
3
0
1
-4
-2
-35
14
-2
-2
-2
-3
8
19
52
5
-1
-2
0
-2
3
0
-13
8
3
4
5
7
-5
-22
-72
-18
-2
-1
-4
-5
8
12
-4
26
10
5
3
-2
-2
4
85
22
-6
-4
-3
0
1
35
-46
-15
-2
-3
-4
7
-10
-42
-77
-63
-15
-9
-6
-6
-6
-14
-2
-21
-5
-3
-3
-6
3
-7
26
29
11
10
7
-4
4
7
107
45
8
7
8
-6
12
67
-52
43
1
2
1
15
-24
-67
-71
-87
-21
-18
-18
-6
2
7
18
2
-2
-3
0
-4
-2
-21
-51
-20
4
5
4
-3
12
11
59
49
17
13
13
-6
9
33
105
49
1
0
1
11
5
29
53
36
5
3
-1
0
-24
-56
-74
-83
-21
-15
-15
-1
-4
-15
108
-13
-7
-3
-5
-7
16
26
-12
-3
16
17
15
-2
-2
8
42
30
-8
-7
-5
2
-17
-34
-56
-11
-4
-8
-9
-2
0
-25
90
87
13
5
5
-4
7
67
52
-119
-14
-4
-3
-5
-6
-48
-92
-11
3
7
8
4
-3
28
100
-10
-17
-17
-9
-1
-9
8
42
-10
-2
-9
-10
-4
0
-44
112
81
14
7
5
-7
7
16
53
74
11
10
7
-1
18
-19
86
-87
-34
-8
6
4
-11
-3
29
18
-21
-1
-6
-1
-23
-12
-82
-5
5
-6
-21
9
-40
-60
-53
-61
6
-23
-25
-15
14
5
81
94
32
18
17
-3
16
124
58
-52
-15
1
10
5
8
8
-53
53
-10
1
5
-6
0
-36
-4
-4
-12
5
0
3
5
49
13
0
28
-1
-10
8
-2
-51
38
91
7
-2
-5
-2
38
23
-5
73
22
31
23
3
-66
-19
-79
-128
-50
-53
-41
4
12
3
5
26
2
7
10
-13
6
-41
17
-9
3
4
9
0
1
-10
-40
0
-3
-3
5
0
38
6
-21
-68
13
25
27
3
-20
29
80
89
6
-12
-16
3
12
57
-16
-83
-30
-13
-3
-2
-31
-72
-89
-6
3
-10
-10
-6
18
39
49
-60
-8
12
9
-2
-10
-22
-80
65
33
11
3
0
26
36
-128
-74
15
10
10
0
-19
36
122
110
-5
-7
-17
0
8
63
-11
-71
-9
-12
-3
4
3
-12
29
-29
-19
-5
2
-7
-10
23
3
10
12
1
-5
-3
12
-17
-17
-31
10
15
18
1
-2
-14
101
127
15
-3
-4
-1
13
68
9
-47
-20
-3
-1
-1
-13
-39
62
34
11
6
2
9
-13
-18
22
-61
-12
-13
-10
-3
9
-22
6
35
1
9
3
-9
14
-15
-59
-65
-6
1
7
4
-16
7
66
-20
-3
-6
-12
2
5
-1
4
-13
3
-5
-2
0
16
37
110
45
-1
9
9
-5
19
7
-115
-5
23
26
18
2
-32
19
3
4
-10
-34
-34
3
5
31
81
-17
-7
-5
3
-5
16
25
35
12
3
5
8
4
-13
-52
-49
-60
-23
-3
-1
-5
15
-35
-95
10
23
22
19
-2
-25
49
57
50
-19
-25
-26
2
-1
-20
-75
3
-1
-2
-2
0
-10
-23
30
22
0
-2
-5
-4
1
9
-39
-30
-10
-7
-3
-3
12
-66
-108
-24
11
19
16
5
-24
-25
-3
-79
-20
-20
-20
2
-14
-11
30
66
-8
-9
-8
-2
6
-5
-80
27
6
2
4
-5
16
-10
73
-31
0
4
7
6
-15
-30
-77
-19
-9
-6
-6
-5
-14
-55
17
-44
-17
-10
-7
-7
1
-5
92
104
21
7
4
-12
-4
28
-20
-13
-6
-3
-4
5
-2
-24
-1
1
6
-1
-1
-2
7
-4
-76
25
5
5
4
-3
2
-6
24
-10
-6
6
5
3
-6
9
21
56
6
-5
-6
0
-3
-17
-21
-23
-1
-1
-3
-7
14
14
3
86
26
18
13
-1
7
28
107
-128
-29
-15
-10
5
8
21
23
-24
-1
-3
1
3
-6
-12
5
2
-1
-3
-3
-5
1
42
51
12
4
0
0
6
6
15
-18
25
6
5
3
0
-4
2
-44
-12
-5
1
3
0
4
19
-76
-48
-5
-1
-1
0
-5
14
58
-1
-4
-7
-6
0
-6
-57
-72
-5
8
5
2
1
12
55
15
30
1
2
4
-3
-13
-42
-83
-19
-3
-1
-3
5
-12
31
-40
7
-13
-13
-14
7
-12
-45
36
22
0
-2
-3
-8
-6
-35
-116
-103
-9
-5
-1
-3
7
24
81
40
12
5
6
1
23
92
70
14
-4
0
5
-1
1
43
25
6
-9
-1
-2
1
-12
32
42
43
-8
-7
-9
-3
4
6
97
34
6
2
2
2
14
5
-68
-28
12
9
5
6
-11
-19
26
6
-1
-3
-1
-3
-8
-24
-30
-23
-8
-9
-12
-5
5
26
50
3
0
0
6
0
0
-2
75
-19
-4
-3
-3
1
1
-14
-128
-35
6
5
4
-1
-2
-18
71
32
-2
0
-2
6
-21
-39
20
4
-7
-10
-11
-4
-5
32
27
10
2
0
-2
-1
6
-31
84
58
9
2
3
-2
8
84
79
-117
-9
-1
0
1
-7
-34
29
39
-22
-17
-11
-6
-5
-9
83
7
0
1
2
-2
-9
1
31
17
-10
-12
-10
0
23
14
-19
63
25
20
21
-7
10
43
60
-12
20
13
7
12
-16
-78
-78
-75
-38
-15
-8
-23
-27
-60
86
-26
-2
-9
-9
9
1
-6
12
20
2
-2
-3
-2
15
71
-38
1
7
9
9
-1
19
0
32
120
38
27
19
-1
-10
2
1
-27
-39
-26
-21
1
-1
-28
-31
22
-3
-4
-4
1
25
105
95
96
27
22
17
-2
-15
40
-75
-79
-11
-5
-5
8
-4
18
-57
58
-10
-11
-10
-7
-6
-9
42
18
-2
-3
-4
-2
19
19
-40
38
19
12
10
0
23
20
-41
30
22
16
17
4
-65
-79
-128
-102
-50
-25
-27
9
-10
57
68
25
-16
-20
-18
-3
4
-58
-15
48
16
10
8
-1
-13
-14
25
-1
-3
-7
-8
-4
62
127
109
82
31
30
38
-1
-65
-88
-67
-85
-39
-35
-36
-5
-22
22
91
1
-20
-23
-22
-2
7
-18
49
56
16
3
4
5
30
39
68
13
11
13
16
-4
1
-60
-118
-31
14
14
11
3
-11
-48
-79
-32
-5
-5
-10
-7
-18
-32
65
55
-8
-10
-8
0
18
17
53
18
14
14
12
3
0
-18
-12
18
-4
-2
2
2
-15
5
-31
-85
-30
-10
-11
-3
7
24
37
36
16
3
-2
-3
-11
-27
-69
-35
2
-1
-6
-3
37
100
103
121
30
20
21
5
-41
-76
-36
-74
-17
-19
-21
-2
0
4
24
-56
-14
-8
-3
-8
2
-32
-12
-59
-7
1
2
-3
-1
55
31
52
23
6
0
-16
17
78
-43
47
3
-1
5
8
-7
3
-17
33
-7
-7
-6
4
-23
-83
-93
-9
-8
-10
-15
-10
8
-46
64
-21
-20
1
-8
-8
34
91
24
84
64
38
51
16
-27
-16
-48
-41
-11
-24
-25
-4
10
14
47
45
6
1
7
-3
4
-25
-43
-50
0
10
6
2
19
51
21
25
17
6
-5
-4
6
59
69
-26
-26
-15
-34
-1
-7
-31
-110
-34
-3
-1
16
1
2
-5
3
6
10
5
22
2
-15
-56
-7
23
-11
-7
-10
0
5
-22
2
-48
-17
0
15
5
11
-40
-54
-95
3
4
-15
2
-36
-49
-27
-27
-16
-29
-28
9
14
30
43
32
-12
-3
-4
-9
11
53
45
-43
-1
8
10
3
12
35
127
62
22
-2
10
-5
2
6
39
-3
-13
-5
2
4
5
-30
10
-29
3
4
2
-2
-21
-64
-128
-66
-18
-12
-16
0
4
20
93
9
-10
-2
-4
1
6
13
2
27
11
9
6
-4
-2
-4
-13
-22
12
1
-6
-10
3
13
81
114
12
-3
1
3
10
88
14
0
4
9
13
3
4
-39
-40
-94
-31
-8
-8
-5
-26
-99
-85
-64
-16
-5
-3
-7
-20
-17
30
43
3
-10
-6
5
-10
-3
-33
19
4
-1
-5
1
16
18
-37
29
12
9
7
-6
18
8
-9
34
0
12
15
6
-22
-62
-81
-61
-11
-14
-8
-8
-6
26
-15
7
-4
-6
-11
-4
4
-30
36
39
10
12
10
-3
7
65
-48
-94
-20
-14
-4
8
15
14
-28
5
8
10
11
1
-23
36
-40
-17
-20
-16
-22
1
-23
-65
-89
-49
-6
-10
-8
-5
1
26
79
7
-12
-5
-5
-1
15
40
-30
16
6
8
8
-6
-1
-55
31
-18
20
10
11
10
9
22
41
102
14
3
2
2
-23
-4
-12
-53
-25
-17
-14
-1
7
-37
-14
-20
-9
4
7
-3
14
17
-17
-2
0
8
7
-6
0
25
62
51
12
3
-4
2
-9
-42
14
-16
-11
-14
-10
-2
-1
-9
33
-4
4
7
5
-2
-4
3
-2
6
6
-4
-6
-3
2
20
9
4
3
-1
2
0
12
-32
-63
-42
3
13
15
9
-22
-72
-18
-54
-12
-14
-15
1
-4
-3
10
-18
-14
-8
-5
-5
-5
-27
-48
-38
-18
-3
1
-2
19
6
79
103
30
22
20
0
-10
28
21
28
2
-8
-12
8
0
10
-11
-32
-10
-9
-5
-1
6
18
-1
-59
-10
-2
-3
-3
1
-32
-57
32
13
9
7
-6
20
47
127
75
0
4
10
6
-49
-59
-85
-41
-35
-24
-26
5
9
73
42
10
10
2
4
1
-7
35
4
-1
-6
-6
-8
-4
1
-2
-35
-5
4
5
4
-8
39
4
127
64
49
40
33
6
-28
-6
-58
-87
-44
-35
-25
5
-22
-59
105
-11
-20
-16
-16
-10
7
21
53
22
12
11
9
-5
14
9
-1
33
-6
1
3
-1
2
26
20
-46
5
6
4
-5
-9
-33
-82
-7
8
3
-6
5
-15
-26
-21
-14
-18
-17
-14
-7
-3
-3
-38
-18
1
-3
-4
-3
0
-25
7
1
-4
5
6
-5
-5
29
69
-6
-8
-8
-5
4
3
10
3
-76
-10
0
2
-5
-12
-58
-60
99
31
10
3
4
7
19
5
17
15
8
1
5
6
29
48
2
-14
-6
4
-5
6
21
-128
-11
-7
2
1
-2
0
11
76
21
10
-2
-2
-5
2
15
32
-40
-2
-3
-2
1
3
-3
21
55
12
3
-18
-10
4
12
22
-21
-5
-2
-1
1
8
19
46
1
-7
4
34
0
-2
29
64
36
10
3
3
5
-3
0
26
-16
-5
-7
0
-2
-7
-19
-28
-3
3
2
-10
-2
1
5
40
32
-3
-3
-15
-3
5
-17
-86
-29
-1
1
8
2
-10
-34
34
103
16
2
-5
0
-22
-7
127
13
-2
-8
-9
-3
10
12
-33
-37
0
-2
-3
1
-10
-96
-9
37
-13
-4
2
-10
10
55
-36
-16
4
0
1
6
11
-37
-15
91
47
27
24
-5
-24
50
50
-102
-34
-31
-28
8
-8
-26
-71
-6
-6
-6
-14
-1
6
11
-17
-25
-10
2
6
-3
17
38
99
9
-5
1
10
0
-10
-52
-96
61
21
9
-2
-13
-10
5
50
-36
-7
-11
-16
-2
1
34
60
3
1
-2
1
-1
-13
-49
-40
-31
-9
-4
-4
3
12
43
67
39
7
13
23
-3
-1
22
-34
-13
-2
-3
-3
3
-10
-17
-34
-11
0
-2
4
0
0
-10
-4
-36
-10
-7
-13
-3
15
23
80
58
14
11
7
-4
-38
-81
-16
-45
-17
-16
-16
5
-1
-4
15
-30
-21
-6
-2
0
3
23
-29
-21
-1
-2
1
2
0
-26
-36
51
18
6
-1
0
23
55
12
-3
10
9
18
1
-10
-1
12
36
-2
-3
-7
1
-20
-25
-25
-25
-14
-12
-10
-3
-1
3
-43
-49
-17
-6
-6
-3
18
27
20
29
15
11
7
-2
7
33
92
17
0
1
4
3
-10
-33
-79
-61
-1
-4
-7
6
-2
0
-12
-55
-15
-5
-3
1
7
21
34
36
6
3
8
-2
-2
-18
-1
9
1
-2
1
-2
8
9
-85
-15
10
8
8
-1
-7
1
84
-1
-23
-11
-15
2
-6
-28
-47
4
14
1
-5
-3
0
-4
-39
-8
-5
2
2
0
3
8
10
23
7
2
2
-1
1
-13
-57
-30
-6
-4
-1
-1
5
16
50
34
1
2
4
-2
2
-8
-59
-11
4
0
1
1
1
14
76
10
-6
-6
-2
-5
-3
-5
7
-16
-9
-4
-2
-3
-1
2
0
2
2
2
0
0
1
3
20
0
2
0
-1
-2
0
-5
-14
12
-5
-1
1
2
-5
-15
-47
-13
-1
-4
-3
-1
6
9
15
11
4
5
2
-3
-5
-13
11
1
0
0
1
-5
-3
15
-10
6
-7
-5
-4
2
-6
-17
-2
-17
-2
-4
-6
-4
3
6
-6
-4
0
1
2
-3
-1
-15
-8
-4
-4
0
-3
-3
6
8
31
18
4
1
7
0
4
6
-18
-3
1
2
2
-1
-5
-6
-1
6
-9
-5
-5
-1
0
-1
-23
-17
0
-1
-5
0
0
-1
18
7
1
0
-6
-1
0
-4
-26
-14
-3
4
0
1
0
3
12
21
1
4
3
-1
-2
0
-12
-16
-3
-11
-10
0
-4
-9
-10
-12
-2
2
-17
-2
1
5
0
6
0
4
24
4
-3
3
1
6
0
-2
-14
-2
-2
-2
-16
-16
-1
7
10
4
4
-4
15
10
-1
-7
-5
-3
3
7
13
0
-1
-6
-5
-1
0
-1
24
-4
0
4
-3
-3
-1
0
-6
-18
-3
-20
-13
-1
-7
-5
-19
8
1
23
-1
-6
3
8
5
3
1
-5
2
-1
1
-2
-3
-5
-5
-17
-3
2
-1
-10
-2
-8
-3
1
-4
-5
1
0
12
-3
-3
-14
4
2
1
-3
-16
-4
-2
12
-7
4
0
3
20
-5
1
16
9
1
-3
-1
-61
0
0
-4
5
-1
1
3
7
0
1
-2
5
0
-4
-10
-2
-6
-3
-13
-22
-6
2
3
12
2
1
3
10
7
13
3
8
-3
-3
-19
-16
19
-28
-2
19
4
0
-1
6
-18
2
-1
0
-1
0
12
4
-11
-5
-5
-39
-4
-1
-3
2
-8
0
4
48
3
0
0
2
-4
9
6
-48
3
1
-1
-3
14
-4
-8
6
-4
-1
-11
-5
3
-4
-8
-22
2
-1
-4
1
-4
-2
3
17
3
-1
13
2
-2
4
-4
14
12
1
-1
1
-2
-7
1
12
-22
-5
4
-3
1
3
-1
-40
3
0
-6
-4
1
0
1
13
-6
-5
-1
1
2
2
2
6
-1
-1
0
1
-7
0
-2
-12
5
0
-2
2
-1
-1
7
20
-1
0
-1
-2
-2
-2
4
23
13
-1
3
2
-1
-2
-4
-5
-1
-3
1
0
-1
-1
6
13
2
1
-5
-1
-1
0
-7
27
-2
-1
-2
-3
0
-1
-2
-45
-3
3
10
5
-4
7
12
103
1
0
-3
-2
2
-9
-20
-98
-11
-3
-5
1
1
4
11
-39
0
3
4
1
3
-8
-16
-14
-7
-2
-4
-2
-7
5
9
2
2
0
-4
0
0
3
0
26
6
-2
3
0
1
-2
3
38
5
1
6
3
-1
-1
3
-20
0
-2
2
3
-1
-3
-9
-34
-12
-3
-12
-4
3
3
8
18
9
1
-1
-2
-1
-1
-8
-14
-5
-3
0
6
-3
-2
0
16
-3
2
1
-2
-2
3
2
-6
-1
0
-1
0
-1
-1
4
2
0
-3
-8
-3
-2
-5
-3
7
-4
-2
1
-5
-5
-4
-6
-6
-4
0
5
9
3
0
-3
-16
-5
0
-1
0
1
4
5
18
6
1
-1
-2
-1
1
0
-14
0
-1
-7
-8
0
0
0
7
8
-2
-2
-2
-2
-5
0
39
0
-2
1
3
2
-1
-5
3
-3
3
-2
-3
-2
0
2
2
0
-2
-1
0
0
3
5
-8
0
1
2
-2
-1
-1
-5
-15
0
-2
-1
0
-3
1
8
4
-2
-3
1
2
1
-3
-12
-8
3
-2
-4
-1
-1
-1
-2
-3
0
0
-1
-4
-1
-2
-1
2
-1
1
1
0
2
-2
2
-8
-4
-2
0
0
-1
-1
1
11
-2
-3
-2
-3
1
-4
-6
-18
-4
-4
-6
-4
-4
-3
-6
2
1
1
4
-1
-1
-1
-2
-3
-2
4
0
1
-1
0
0
9
0
-1
0
1
-1
1
3
1
-1
0
1
1
-1
-1
2
27
4
-1
0
-3
-2
-2
-7
-45
-7
-3
-2
-1
-2
0
2
10
0
1
-2
-3
0
0
2
-3
-4
0
-3
0
-3
-1
-8
-7
-3
-2
0
0
-1
0
1
19
3
0
-1
-2
1
2
5
11
0
-1
-1
-1
0
0
0
-6
-12
0
0
0
-1
1
-2
-25
-1
-1
-1
1
-1
-2
2
14
2
-2
-2
-2
-1
1
1
-1
5
0
-2
0
0
-1
-3
5
-2
-1
-2
-2
-1
2
2
-14
-5
-1
-1
-1
0
-2
-9
-12
-2
-1
1
3
-3
-1
1
11
1
-1
1
-1
-1
-1
-1
-7
-2
-1
-2
-1
-1
-2
2
12
0
-3
-1
-2
-1
2
8
12
-5
-4
-1
-1
1
-2
4
21
8
12
2
1
0
-2
-8
5
19
1
0
0
-1
-4
-7
-33
-13
-3
-1
-6
-1
-1
0
29
-4
-4
-2
1
2
-1
-1
-4
-9
-10
-6
-5
-5
1
9
38
9
9
4
3
2
0
1
-20
-3
0
0
1
-1
2
-3
-20
0
5
2
5
12
0
-2
4
-6
-1
1
-2
-12
-2
-7
-38
-9
-17
-9
-3
-4
1
2
9
41
15
3
-1
1
-1
-2
-22
-1
-2
0
-2
-3
-2
-1
30
4
-2
-1
1
5
0
-1
-25
-26
-11
-4
-2
1
-4
-7
2
-12
1
-2
0
-6
1
-1
-13
-7
0
1
0
0
-1
1
5
-7
-7
-3
0
3
-1
4
18
-7
-5
0
-1
-3
-2
-8
-8
34
11
0
-1
0
-2
-5
6
-19
-2
1
-1
-2
3
0
-25
26
0
-3
0
0
-5
5
30
-15
-5
0
-5
-1
4
10
12
-11
-4
-5
3
0
4
7
-63
-24
0
3
2
-2
-9
-21
-36
13
3
-1
-3
-2
1
-16
2
17
8
6
2
1
1
1
61
5
-12
-2
-2
0
7
49
123
26
0
-2
-3
-2
-7
-8
-105
-45
-7
-2
-2
4
-3
-21
4
3
3
-2
-1
-8
5
19
37
-2
5
5
2
0
-3
-17
43
21
-7
-2
0
-1
-7
-3
-26
-35
-7
-6
-7
0
2
17
2
1
3
1
0
0
-3
7
-70
4
-7
-5
-2
-3
7
18
34
-5
-2
0
1
0
3
-33
35
23
3
6
9
-4
-28
13
30
-31
-9
-21
-22
2
1
-29
-5
-33
-10
0
2
-7
14
20
37
55
19
13
11
-5
-29
-74
-68
-72
-12
-11
-16
9
7
15
78
-65
-23
-9
0
-7
12
34
77
66
14
9
12
3
-23
-43
-60
-4
2
-12
-17
-2
24
110
127
119
16
4
6
-4
11
-16
-89
2
21
23
20
9
-25
-30
-33
-38
-30
-27
-25
-3
17
53
88
-13
-2
2
5
-6
2
-19
-14
46
8
9
9
-2
8
-7
24
15
30
20
9
10
-12
30
72
-56
-25
-16
-6
-10
-6
-59
-21
-29
2
8
3
5
9
43
16
57
40
19
4
4
-9
19
-23
17
-21
-21
-11
-1
8
-27
34
1
12
15
10
2
9
-62
73
20
-11
-2
6
1
-23
-46
-67
-94
-7
-3
-10
-1
-8
-16
88
4
-20
-15
-16
3
6
59
43
27
14
5
-3
2
8
16
-93
35
29
23
9
0
-1
35
87
-26
-40
-30
-15
-12
26
77
30
49
11
9
9
-2
-39
-85
19
-66
-41
-21
-18
-4
-14
-37
-17
-79
15
8
4
-2
7
18
121
40
-1
-6
0
2
7
36
34
37
5
0
2
3
13
-16
8
-50
-10
2
5
-4
-1
-11
-34
54
13
6
6
0
-3
-32
32
56
15
4
2
-2
6
19
-76
-87
-13
-7
-2
2
11
7
72
54
15
10
7
-1
-13
5
92
65
-28
-23
-18
-5
-7
-12
-80
-101
-21
-9
-1
0
15
14
58
45
16
16
13
-6
12
18
-82
-19
31
25
16
6
-50
-50
43
-9
-35
-40
-36
-2
7
5
-21
-23
-1
2
0
-3
-8
-69
-16
70
19
12
3
-1
-4
2
-128
-126
-13
-2
-2
9
12
44
-13
-27
-19
-10
0
4
8
-18
-49
11
7
15
9
0
2
5
77
41
0
5
5
-2
-41
-51
22
-12
-16
-26
-29
-2
20
48
13
25
22
14
11
-3
10
-20
33
28
15
10
9
0
-17
7
-128
-42
-20
-11
-11
-4
14
28
127
124
16
3
2
-3
16
66
62
48
9
10
8
-2
-28
-87
-82
-65
-21
-14
-14
-8
12
34
17
-20
-2
0
7
2
7
7
-28
29
6
3
6
0
10
-21
45
27
6
8
1
6
-2
-15
101
18
-1
-11
-6
-5
1
-7
30
-23
6
1
-1
1
11
23
68
-28
-14
-1
3
-3
12
45
-94
-55
15
13
12
0
-5
58
127
94
-5
-12
-7
0
5
25
93
44
2
-3
-1
-1
-1
20
28
99
16
6
-1
-4
9
66
62
-14
-18
-8
-1
0
-1
-43
-41
-19
-3
5
3
4
-14
-9
-21
-63
-24
-15
-12
-13
6
-36
118
127
59
14
7
0
-14
43
-89
21
3
-1
-5
-2
-19
-25
-82
-128
-32
-17
-13
-5
2
-21
91
12
34
11
7
0
-14
-5
-50
-106
-34
-13
-8
6
-8
-29
34
-39
-20
-17
-9
-13
25
83
61
64
41
22
19
9
-1
-29
-42
0
-9
2
1
-3
-9
9
31
57
20
4
3
-1
-19
-52
-126
-128
-19
-22
-17
9
51
127
108
13
-17
11
16
-5
22
44
-58
-4
40
18
18
11
-30
-47
-119
-74
-22
-22
-23
-12
-2
57
42
117
3
-2
-9
-9
0
1
-124
-101
1
1
3
5
-30
-103
8
-65
-32
-14
-14
-6
-16
-57
-48
-20
-4
-3
-1
3
-13
3
104
-26
0
-14
-12
-2
-9
-29
33
36
3
1
-2
-11
-13
-96
92
-29
-9
-2
-4
5
-11
9
-59
-20
-7
4
-2
0
-15
-42
-16
-44
-43
-23
-17
-3
1
0
25
10
-9
-2
-2
-1
14
29
127
100
23
14
14
-4
23
28
93
93
20
8
10
3
-8
-65
-21
-6
2
4
2
2
-2
-9
-7
-65
-10
-9
-4
1
2
-2
-127
-16
-11
3
1
-2
16
35
-12
-43
3
6
1
3
22
15
22
42
13
14
14
-3
-45
-112
13
-7
7
-7
-6
-8
-19
69
-70
-47
-31
-33
-34
-2
15
43
73
-9
-6
1
5
-4
-3
-24
22
-51
-7
3
1
-1
23
4
-56
-37
17
20
21
4
-15
-7
-104
-2
-11
-12
-7
-4
-4
4
66
33
-1
-17
-13
7
23
60
34
-66
5
13
15
-3
-12
-51
1
91
8
5
-5
7
-23
-58
7
-33
-10
-13
-11
-9
16
30
-1
-13
5
9
7
-6
4
-2
102
44
22
12
11
0
-5
66
-8
-54
-18
-11
-10
10
-7
8
127
70
6
-9
-12
-1
16
59
-3
-70
-28
0
6
-6
-6
-26
-7
69
32
7
2
0
8
-11
68
63
4
4
8
-5
11
-38
-64
-49
11
17
15
6
-36
-31
-51
-113
-46
-33
-29
-8
4
-18
-26
29
0
0
0
0
13
63
104
-40
-20
-15
-7
-4
2
-8
52
120
35
19
13
-1
-8
-42
-86
-31
12
6
0
2
-32
-36
-53
-128
-27
-22
-18
6
0
22
62
7
6
4
0
-7
14
31
8
-46
-35
-10
-1
-8
18
14
-103
78
6
0
8
0
-4
-11
110
72
17
12
2
-4
-15
20
54
-9
-23
-15
-17
-5
19
-21
-26
-63
-5
10
12
7
5
-12
30
102
32
11
11
-4
1
-46
-109
-44
3
1
3
-2
-40
-75
15
-25
-27
-30
-27
2
7
54
20
-6
-2
-1
0
-5
18
-63
27
-29
-28
3
6
-2
20
-58
-16
82
42
35
34
6
-63
-88
-73
-72
-23
-33
-39
-2
-19
-14
45
-11
-14
-18
-13
-7
0
-2
46
-90
-24
-4
5
0
36
11
-47
-37
-15
24
26
-7
14
55
-51
-42
43
5
-1
18
-27
-18
-49
-36
-17
-26
-24
-3
19
33
89
25
19
13
10
-3
-6
-22
-58
-36
-23
-9
-7
-5
33
-23
4
20
21
34
28
-11
-3
51
92
11
-12
-17
-13
3
9
49
30
-33
9
2
4
7
-23
-7
38
-27
-22
-24
-21
-4
43
17
-82
-58
-1
23
26
-6
-21
-17
73
116
10
6
-5
3
-21
25
-24
-41
-18
-18
-16
-2
10
66
30
34
1
-6
-3
3
1
-31
-66
-29
-17
-3
1
-7
59
50
41
73
50
50
49
-3
-82
-44
11
-75
-54
-50
-53
13
-21
49
38
49
-7
-26
-25
-6
20
34
62
41
6
12
15
-1
-8
-61
-64
85
43
16
10
-4
0
-29
-14
-69
3
6
5
3
-7
-10
108
-37
-12
-12
-10
-11
-11
9
35
-21
-20
-13
-10
-4
16
46
37
9
10
12
7
5
25
-36
-19
-41
33
28
23
0
-51
34
1
67
-22
-35
-40
3
-6
14
-19
-24
-10
-10
-4
0
10
87
52
-128
-43
-11
-5
-6
16
-44
5
4
27
16
11
-9
6
-1
-117
40
41
29
20
6
-17
104
127
16
-7
-21
-23
11
-5
-56
9
-120
-33
-16
-6
-3
-3
20
49
5
-8
-4
-4
-8
10
-62
-6
-88
-14
4
8
1
11
31
-96
127
59
30
18
1
-30
-56
-37
26
-10
-21
-21
10
12
4
-20
77
10
8
6
1
7
-28
-46
-28
-1
3
6
-1
28
-15
103
-127
-52
0
17
-16
-78
-59
-88
-1
10
-11
-33
14
-1
11
44
85
10
-2
-5
-6
8
19
17
-3
11
4
5
-2
6
93
42
31
0
0
-2
-1
40
70
-50
-59
-11
10
17
6
-8
25
94
50
24
0
-6
2
-35
-33
-57
-106
-26
-21
-22
-3
6
-26
79
26
13
7
7
1
12
-18
33
17
-4
1
6
-6
16
13
-126
-54
-14
11
12
-1
11
33
121
81
45
15
10
9
-41
-31
17
-5
-16
-31
-28
3
9
28
41
13
8
4
6
-9
9
-16
-4
-30
-19
-2
5
0
9
-1
-30
10
3
5
3
-4
-13
-45
-71
-17
-13
3
-4
-2
0
-36
-95
-36
19
7
9
0
-3
-13
33
20
-2
-4
-5
1
14
7
-37
55
-11
-3
0
2
27
-1
-39
-83
-61
-13
-1
9
-5
-26
-114
33
72
27
5
9
-6
-15
-87
-54
1
-1
1
1
5
38
92
-43
-11
-3
0
-3
8
-10
-87
-22
14
9
8
4
-15
-24
77
46
-29
-16
-11
-15
-2
22
-11
-81
-11
-5
-1
4
-7
8
-12
71
16
4
2
2
-3
-56
43
19
16
0
0
-4
7
10
9
11
-9
-4
-4
-6
14
92
6
-72
-29
-1
2
-3
-44
-78
-54
12
35
-8
-17
12
1
45
83
8
24
0
-2
-3
7
18
20
-45
-16
-7
-3
-4
1
-18
5
7
-17
-5
1
0
33
90
24
-13
-8
11
13
-6
-7
26
-25
17
6
2
1
-2
-1
12
10
21
9
4
-2
11
6
59
30
25
6
-1
-1
-8
3
-14
-39
-58
-29
-6
-1
-9
-10
-62
-72
51
33
9
2
-4
11
81
33
-80
-36
-8
2
-2
-27
-49
-103
-10
10
-6
-11
10
3
-18
52
-37
-19
-7
-2
-8
-8
-70
60
75
14
10
3
-4
16
32
66
-63
-11
8
12
6
-17
-48
-79
1
9
-5
-10
-4
-4
-18
19
5
-5
-6
-5
-4
-9
48
0
-69
-31
-15
-12
-4
2
5
-4
31
16
7
1
-3
17
68
110
95
43
18
10
4
-4
-29
-38
-128
-37
-12
-4
-2
12
90
0
-41
9
7
7
0
-4
24
32
94
20
-3
-5
-4
-10
2
97
-3
-27
-17
-15
0
-4
-4
-61
77
21
7
0
-5
5
-7
72
27
1
-4
1
-2
11
9
43
-12
-9
-3
3
-2
-21
-67
-7
-51
-4
-1
-4
-15
5
46
83
-90
-38
-13
-6
10
0
1
-9
89
40
6
2
0
-18
-51
-33
0
-19
-15
-13
-10
-4
-89
-30
25
-10
3
4
-7
33
27
-2
24
25
27
23
0
-19
-40
-13
19
-5
-7
-12
4
-4
32
96
26
-20
-14
-8
-5
18
38
-5
18
10
4
8
2
-2
11
-25
-38
-10
-3
-2
-8
4
-25
22
47
-1
8
8
4
2
-20
-3
-11
1
4
6
-2
-8
-34
-36
-57
-14
-11
-9
2
3
-7
24
15
12
4
0
2
9
34
-37
6
-2
4
4
2
-8
-38
-22
-37
-3
-4
-5
0
4
16
-7
0
6
5
5
6
-6
0
104
3
2
-1
-3
-4
-17
-54
-104
-6
-7
-7
-8
1
-16
-57
-86
-24
-10
-8
-10
0
10
70
41
47
15
9
7
1
4
10
-34
-21
2
1
1
3
-3
17
63
25
2
-4
-3
-4
6
23
16
12
1
1
0
-1
0
9
21
18
1
-1
-5
-2
-9
-12
-12
7
-4
-8
1
1
4
3
8
-33
-6
1
1
-4
-1
-7
-45
1
1
1
6
1
2
1
7
-3
-3
-12
-10
-3
-2
7
20
11
-1
-3
-1
0
3
-7
-22
-26
-1
13
-1
-1
1
-15
-42
-13
-1
-1
3
-2
-3
1
94
10
-4
-15
-5
-1
-1
-3
-2
12
-1
3
3
1
4
8
26
5
2
-1
0
-2
-4
-6
-24
-16
-2
-5
-4
0
1
1
7
14
1
19
13
-5
0
-3
-37
-16
-3
-9
-7
8
0
5
-20
-35
-4
7
7
-2
0
8
16
-3
-3
-15
-4
0
0
-14
-38
-6
-2
-2
2
-1
-4
-3
-6
11
1
0
-4
-4
3
7
-5
-12
-1
-9
4
0
3
6
2
-6
-3
-2
-7
-4
-4
-14
-33
13
0
-32
2
-2
-6
-8
43
-2
-5
13
-10
-4
6
6
-5
-2
3
28
10
2
-4
-3
11
-4
0
16
3
-2
4
18
0
6
0
10
12
5
-2
-7
-20
0
0
31
-1
-6
-7
-12
30
-17
-3
-17
-18
-3
1
-2
13
-2
-3
-3
2
1
5
20
22
6
2
11
8
1
-7
-20
-25
-6
-5
-36
-6
1
-1
-1
-55
0
-2
-8
-12
-3
0
-4
27
-2
-3
-30
-14
-1
-4
-11
-32
-5
0
29
10
-2
1
4
54
16
7
38
30
2
0
-3
17
6
1
-6
-1
-1
-1
-2
11
-5
-2
-11
2
-3
1
-4
-11
-1
-1
-34
-24
0
-1
2
-3
3
-1
5
2
-1
2
4
-2
8
0
-15
7
2
-4
-8
-11
2
-1
-19
10
-1
-1
-4
0
-10
-5
14
-15
-1
-3
5
-8
0
-1
8
-29
-10
1
-2
11
-9
0
1
-7
3
5
4
-28
9
8
22
27
3
-12
-9
12
-1
-8
-16
-2
0
-2
-1
15
-11
-7
-28
-2
-1
-1
-5
-8
0
-2
-49
-18
-1
2
3
-9
-3
0
57
-2
-3
1
0
0
1
6
-2
8
1
2
4
2
5
-1
1
2
-1
1
11
0
4
1
14
1
-3
-7
-22
-20
-15
-5
-17
-20
-3
0
0
21
0
1
3
-7
-1
0
3
-20
4
-1
-21
-3
2
-1
-1
-24
-6
-2
10
9
-2
6
26
32
2
3
1
0
4
-13
-39
1
-7
-8
4
-3
-5
0
1
3
-4
-3
-35
-27
-3
-7
-8
-12
-7
-4
17
4
-4
1
6
-17
0
3
25
17
6
3
6
3
11
5
9
2
0
2
1
15
-2
-1
-17
-1
1
-6
-11
-31
-22
-12
-19
-16
-5
-2
5
17
5
0
0
-13
-5
2
1
-2
3
3
18
9
2
-3
-15
-30
-3
-1
-6
4
0
2
2
21
-4
2
8
1
2
-6
-1
-6
-6
-6
-19
-7
-2
3
15
9
4
-1
-8
1
0
-1
8
20
8
1
5
4
-1
-3
-11
-12
-1
2
7
7
-1
1
1
10
-3
1
2
1
-1
-2
3
-12
-4
-3
-14
-7
-2
-4
-10
-3
-4
-2
3
3
2
3
3
22
2
0
-2
0
0
-1
-5
16
4
0
8
5
1
1
1
-22
-7
-4
-15
-1
-2
1
4
-1
6
4
34
11
0
-2
-8
-21
-12
-3
-5
-7
-2
-3
-7
5
-8
-3
-12
-1
0
0
3
6
-10
-1
1
0
-2
-3
3
-8
-3
2
11
9
2
1
7
52
14
3
-2
-1
-4
5
18
31
11
0
-3
-3
-1
-12
-35
-96
-25
-6
0
-5
-1
2
1
7
4
-1
-15
-6
-3
-2
8
47
8
-1
4
5
0
-1
-1
3
1
3
-1
2
-1
4
19
25
17
6
6
5
3
-1
-9
-6
-1
-3
-1
1
-3
-6
-11
-32
-12
-2
5
3
0
2
1
-32
-7
-4
-8
-11
-2
0
2
15
1
-2
-7
-1
-2
-2
-5
8
0
0
7
4
1
1
5
1
2
0
4
-6
-1
-6
-10
-12
-2
-2
-1
-2
-1
4
2
41
6
0
0
0
-3
4
12
-35
-6
0
-3
0
-2
-3
-10
0
3
2
-2
2
4
-5
-12
-22
-11
-1
-4
-1
-3
2
5
2
6
-2
-6
-12
-2
3
9
24
6
-1
7
8
1
4
16
26
10
2
2
4
2
-9
-27
-53
-16
-3
-4
-7
-3
2
8
26
4
1
5
4
0
-2
0
11
0
-2
-9
-6
-2
1
4
-25
-7
0
2
3
0
1
3
24
9
2
1
-1
-1
-1
0
-18
-4
-2
0
-1
-1
0
0
4
0
-2
-3
-1
-1
-3
-6
-6
0
-3
-2
-2
-4
3
3
-2
-4
-3
-4
0
0
-1
3
-17
5
2
2
-2
1
-2
-13
-28
-5
-2
-3
-4
-2
1
-2
0
-6
-2
-3
2
0
2
4
6
4
0
-1
0
1
2
9
32
7
1
4
4
-2
0
1
24
6
0
-2
-2
0
-4
-6
-25
-8
-2
-4
-3
1
2
1
10
-2
1
1
2
-2
3
9
37
11
5
5
4
-2
6
-6
-43
44
10
4
6
-2
-16
8
96
-53
-20
-19
-17
4
8
36
-49
-1
4
3
4
1
-16
-67
-47
-39
-10
-7
-9
-6
12
40
80
52
11
3
6
-6
5
-40
-46
29
6
14
11
2
-8
62
74
-18
-4
-14
-15
6
2
10
62
-22
-6
-5
-2
-1
2
-8
-40
19
9
7
4
-2
16
47
62
35
5
8
12
-5
3
-28
-27
-28
-11
4
2
7
-33
-83
-101
-26
-10
-16
-19
-5
-9
-5
-94
-98
-9
-7
-5
-2
3
9
75
-2
5
4
4
-4
-1
33
73
39
-4
-9
-8
5
0
-19
-81
-33
-14
-4
0
3
-12
-36
88
-15
-18
-14
-14
-4
8
26
29
39
10
3
4
-7
8
-20
7
15
14
16
17
-6
25
98
103
86
21
14
8
14
-3
26
-84
23
-1
-5
-6
-3
-37
-83
-71
-91
-18
-13
-15
-7
-3
-25
-1
19
-8
-8
-7
-3
4
38
50
24
11
7
3
-1
7
31
-7
9
-4
1
2
-2
8
2
5
13
2
1
0
6
2
-24
22
20
4
8
4
-8
5
-12
-65
-36
3
7
9
-2
-8
21
112
-43
-11
-4
-6
6
-11
-41
-128
74
15
5
-6
11
-8
-59
81
-33
-16
-13
-8
-10
16
97
-1
-61
7
7
2
6
3
46
79
-12
-13
-11
-3
5
-4
-50
-46
4
6
6
4
6
7
6
-86
40
23
15
11
0
-4
1
73
-52
-20
-11
-8
-7
-8
-47
-128
27
18
0
-3
8
-3
33
127
-7
-25
-11
-6
2
12
45
-20
-50
1
6
8
2
-34
-127
27
85
-2
-14
-15
-7
-1
24
127
-34
-18
-5
-3
-3
21
40
-29
38
16
4
11
-5
-25
-15
-41
-61
-4
-12
-12
1
8
60
-70
42
1
11
8
4
-6
-11
69
54
6
-5
-4
0
-6
-48
34
-20
-1
-5
-4
-4
-5
-26
-22
-84
-39
-12
-2
-7
6
-58
-70
69
45
20
13
0
10
42
86
-65
-16
14
6
13
12
125
-77
72
20
-11
-14
8
-11
-39
-7
-12
-7
-6
-8
-8
1
-21
79
-28
-19
-4
0
-5
16
-25
-128
92
38
28
22
-12
-1
30
-33
-30
-22
-17
-10
9
-3
19
11
37
-9
-8
-10
1
32
68
97
112
19
16
14
2
-17
-12
32
-46
-35
-16
-7
-13
-10
-30
84
-41
1
-2
-2
-5
16
78
71
16
-6
3
1
3
-10
-33
30
49
35
2
2
-8
-1
-59
2
-19
1
4
3
9
-13
-33
-34
55
12
6
2
-9
27
91
-47
-35
-3
6
12
4
-8
3
51
41
-9
-12
-10
-5
2
22
95
29
-9
-13
-2
-7
-14
-24
-86
-84
-27
-10
-7
-10
3
-32
104
124
38
14
6
-2
7
53
-9
-91
-29
-9
-1
1
-9
-42
-99
27
12
-1
-4
3
1
-6
13
-54
-17
-2
-1
-15
0
2
-24
94
35
6
4
3
-26
-33
-118
-114
-28
-24
-23
-5
5
31
127
63
4
-2
-4
-2
38
77
58
64
-10
18
22
3
-22
-38
-29
-81
-19
-11
-10
-12
1
49
116
-4
-14
-13
-10
6
15
30
19
11
23
12
9
2
9
3
-34
-65
-14
-5
0
-2
-18
-86
-24
75
4
2
1
0
2
-41
-60
22
2
5
5
1
-16
11
-86
-105
-14
-14
-16
12
-8
-53
127
25
11
7
2
-5
13
26
-21
-26
-4
1
4
2
-6
-1
85
-39
1
4
4
4
-4
-43
6
2
-11
-6
-3
-4
6
59
91
1
11
8
5
4
10
-36
-79
22
13
11
6
3
-30
-19
127
52
-24
-26
-25
-9
-3
-6
26
-14
-9
-11
-6
-8
9
63
85
13
5
2
2
1
-9
1
71
56
-3
-11
-7
-16
24
46
14
52
12
7
13
-3
10
70
-4
18
11
14
2
2
-16
-43
-11
15
-2
-11
-11
-1
-5
17
19
-103
-25
-18
-15
2
2
-24
-41
-14
-1
6
7
1
17
-17
-50
27
49
31
24
11
-31
-19
-34
-6
-33
-32
-27
-10
5
10
87
-13
1
0
0
0
-9
-17
-33
-55
-9
-4
-2
-2
11
-32
-2
-18
-13
8
9
-5
-14
-32
-6
-31
0
-3
-3
3
-5
-23
12
53
8
0
1
-1
-31
-65
-109
-56
-20
-17
-19
-5
15
57
95
-23
-10
2
7
-6
0
-48
-45
-3
9
1
-1
-2
-28
-64
-1
-15
-23
-21
-21
-11
25
89
20
-38
9
19
19
5
-1
4
29
14
5
-2
-2
-5
14
96
-128
-25
0
5
5
18
-11
8
2
2
33
23
8
0
-23
-10
-55
59
-14
-25
-26
-1
-12
-15
19
2
-6
-9
-6
0
21
68
73
37
13
12
13
-1
18
-20
12
-2
3
13
14
5
8
-69
-60
52
30
35
22
-2
-22
10
19
-79
-25
-26
-20
15
-2
-25
72
28
-15
-13
-10
-10
18
29
20
8
8
16
17
1
-8
-55
56
-23
-2
0
-2
-5
4
-10
-79
-81
-13
-2
0
5
-11
-18
89
64
10
-3
-7
-9
-6
15
10
-17
-25
-16
-9
-1
13
34
70
43
16
11
11
1
37
43
27
36
36
35
29
-2
-81
-110
-95
-7
-50
-46
-47
-4
9
74
127
51
-2
-7
-5
0
25
25
7
-88
-31
1
12
-1
41
32
26
127
98
50
30
13
-51
-105
29
-89
-39
-36
-33
-7
7
57
49
-16
-13
-12
-3
0
14
54
-11
-12
6
3
3
-1
6
-22
67
96
-3
3
6
-14
21
8
42
-21
5
12
14
2
-12
-5
-93
0
-14
-13
-10
1
-7
-50
-53
-1
1
0
0
-3
2
9
1
63
10
5
3
-6
19
6
-41
-55
11
17
16
1
-47
-54
-5
34
-30
-30
-32
0
2
5
63
-24
-11
-9
-5
-8
-15
-29
-62
-16
-15
-12
-10
-4
48
21
86
17
20
29
31
-3
1
69
66
-49
-1
-8
-6
4
4
32
66
31
5
1
-3
-2
-32
-51
-73
-54
-29
-18
-17
-4
32
95
95
59
14
11
14
-6
-23
-65
-64
-86
6
7
-4
15
-25
-39
-2
4
-12
-19
-19
-8
1
-15
30
3
6
-1
-1
-9
39
62
-128
-46
8
27
29
12
2
24
95
6
-7
-6
-4
-12
-11
12
87
9
0
-6
-8
6
-7
5
-72
33
5
4
1
0
-27
-63
39
29
-12
-18
-17
-6
7
3
-56
-32
3
7
5
1
28
65
76
5
16
16
19
5
-21
-12
113
-36
-23
-15
-16
-7
-13
9
40
4
-6
-15
-14
-1
17
-13
48
41
11
9
10
-4
-2
36
64
-4
5
4
3
3
-13
38
42
-85
-37
-22
-17
4
-1
38
22
36
14
4
-2
2
-13
-63
12
34
-4
-2
-1
-7
17
29
-86
-2
7
7
6
-2
-8
-8
53
26
-17
-10
-5
1
5
-10
-128
-23
40
27
17
15
-15
-29
21
0
-17
-14
-10
-25
-14
-42
36
-4
2
-1
-6
-1
-15
-20
4
34
-11
-12
-8
0
12
35
63
-10
-18
-9
-1
-4
11
-5
-99
13
20
22
13
7
-13
-21
-103
55
-6
-7
-5
-1
-7
-19
65
-1
12
-8
-6
1
6
15
-35
2
8
7
5
0
7
1
10
11
3
3
4
-1
-3
17
6
-24
-11
-4
-3
-5
-12
-55
-42
-21
-18
-9
-7
0
-19
18
48
24
1
-4
-7
-4
5
-38
-19
5
21
17
13
3
11
57
31
-54
-13
-15
-4
11
-3
6
-101
64
7
-1
-2
-4
-2
-8
49
-21
1
3
1
-2
12
4
-83
-20
-3
4
5
2
13
9
73
-40
-1
10
9
2
-19
-77
-70
21
21
-3
-8
-3
-14
-24
93
-16
-15
-19
-19
2
15
40
64
20
9
7
9
-1
1
-17
-33
4
-2
3
2
-1
11
41
74
-8
-10
-1
4
-10
6
-19
-30
60
19
10
5
-2
-15
3
-60
-76
-24
-17
-12
7
-18
-57
-17
4
-4
-7
-8
-6
-7
12
-10
-57
-11
-2
-4
-3
25
32
-41
36
15
15
16
-1
-11
25
63
20
-8
-11
-12
-1
-12
-41
-24
-34
-7
-12
-11
-2
5
9
14
-35
-3
2
4
2
24
35
-47
-27
-5
8
13
-4
-15
12
95
-9
-8
-9
-9
1
-5
-16
82
15
-3
-3
1
-9
-8
8
66
6
-5
-7
-6
-2
-2
8
73
-5
2
1
1
-6
23
27
-62
24
18
19
13
2
-15
36
95
86
-3
-17
-17
8
-9
-46
-51
-36
-13
-8
-8
-2
-2
-29
-41
-4
-5
-1
1
-2
14
59
13
37
7
9
7
2
7
2
54
27
21
15
6
0
1
18
50
-75
-24
-11
-4
-1
-15
-8
122
23
-7
-11
-13
2
-1
-25
-27
-5
1
0
4
-6
8
22
-24
-13
0
5
5
-2
46
64
122
98
37
37
33
4
-43
-7
-128
-111
-39
-42
-40
2
-9
4
69
-25
-13
-13
-8
-6
4
9
-23
20
5
8
6
-5
7
16
-29
-12
-5
0
3
-1
14
6
-26
3
8
13
13
3
3
-4
-7
7
2
1
-1
2
-12
0
-3
-55
-16
-10
-8
1
-14
-33
-91
-15
11
5
-3
-3
7
21
124
-5
-9
-6
-2
5
2
33
-14
6
-3
-6
-1
-4
-11
-60
-87
-21
-4
-2
-5
-10
1
1
-43
0
1
-2
1
0
-7
-36
-78
20
5
5
1
-1
20
19
105
30
0
2
5
-4
28
75
-23
44
22
17
17
15
-27
-11
6
-38
-16
-17
-18
-13
5
18
23
68
20
9
6
-5
-1
26
77
16
-10
-10
-7
4
9
-22
-37
-29
-5
3
5
3
-6
-11
-21
-4
-10
-4
-8
0
1
-21
-33
-86
-20
-7
1
-2
17
-35
99
96
64
41
28
-2
-40
-40
-26
31
-34
-44
-42
5
8
4
24
-11
-6
-7
-1
0
0
-38
-15
-13
-5
4
3
-7
7
20
-7
4
7
6
6
-4
-4
11
31
-18
-7
-3
1
-4
6
71
14
4
0
-2
-3
3
38
90
51
66
21
22
23
1
-64
-24
-103
-69
-12
-27
-40
8
-2
9
45
32
11
1
-3
-9
9
43
24
-6
-6
-2
2
2
-3
-4
9
20
4
3
2
-2
4
-12
-77
-28
-11
1
5
1
5
13
-30
-35
-6
1
3
-1
2
-30
-32
26
22
12
5
3
-17
-20
15
40
-12
-14
-12
6
-9
-26
-44
-34
-12
-10
-7
-4
19
10
58
44
18
19
13
3
8
46
55
-34
-22
-10
-2
-6
-33
-88
-2
-11
-4
-15
-16
-9
6
16
27
-18
-13
-6
0
-2
2
-2
-32
0
-1
4
4
-3
15
9
39
5
24
16
14
3
-22
18
-53
14
-7
-15
-19
2
-1
-25
-59
-42
-9
-3
-3
-2
4
1
-26
-2
5
4
4
-4
-5
-15
-39
-16
-10
-4
-5
4
1
-13
-2
-37
-2
0
1
-3
4
1
28
25
8
7
3
2
-4
-1
-22
-5
1
0
-2
-2
-10
-20
-1
7
-6
-6
-7
-2
1
-5
3
-2
4
3
1
-2
9
20
15
17
3
1
4
2
-2
-3
-63
9
1
-1
2
-3
-9
-7
25
-34
-12
-12
-9
1
-2
-28
-36
-2
0
3
1
-4
1
-3
-17
-38
-8
-3
0
0
0
-3
-15
-9
0
-2
0
-1
-4
-18
-5
29
0
-1
-1
-1
7
21
28
8
3
6
3
2
-1
-4
10
6
-2
-1
-1
0
-8
-14
0
-9
-1
-1
0
0
-3
-6
-12
12
-1
0
0
-1
7
11
18
-21
-1
3
3
1
-3
-8
-6
0
-3
-4
-8
-4
-2
0
14
-9
-2
-2
4
0
-1
-3
-5
11
3
3
6
1
3
3
-13
-1
0
1
-3
-2
-1
-5
14
-3
-2
-1
1
-2
-2
-3
0
-7
-5
-11
-8
1
0
-8
-75
-13
0
9
3
-3
0
-3
6
4
1
2
6
0
-1
1
-14
5
-1
-1
-1
-1
1
-2
21
2
1
-1
-1
1
-6
-4
9
8
-2
-9
-6
1
3
8
5
17
8
2
3
-2
4
18
-28
-25
-3
-1
0
2
-4
-5
-6
-12
-1
-2
-2
-2
-1
-6
-17
-3
-1
-4
-6
-4
12
26
15
0
-3
-1
0
11
-8
-11
-40
5
3
2
-1
-8
1
3
-3
4
0
4
-1
-4
-3
3
3
-11
-5
-17
-8
-2
-2
-16
-16
-12
-6
-33
-12
-2
-2
-6
19
5
-1
23
-4
-8
1
1
-31
-12
4
18
13
13
-3
3
63
23
1
3
9
-16
-1
-16
-19
-9
1
7
-12
-5
-2
-10
33
6
-4
-28
0
1
-6
-6
-63
-5
-3
16
8
-2
-2
-7
-20
-9
-1
1
12
6
-2
4
17
-2
-1
-5
2
1
-4
0
-5
0
-3
-7
-9
-6
-1
-3
23
3
3
21
9
-1
3
0
8
3
0
-9
-7
6
-12
0
-16
-4
0
7
0
-8
-2
-9
3
5
-2
-6
-9
2
-1
-2
20
-1
-1
-14
-11
-3
-3
-4
4
3
-3
-2
-9
1
0
2
-1
-3
-1
0
3
-1
-1
-3
-15
-2
1
-3
4
0
-3
3
32
11
-1
-8
-8
-5
4
-2
-8
-6
0
14
4
5
5
5
-38
-6
0
6
7
0
1
2
2
4
0
1
7
5
-4
-15
1
-1
-4
-15
-15
-6
-8
-3
4
1
-2
-7
-9
-4
-1
4
46
5
2
13
17
1
-1
-5
-44
-12
-2
-5
-4
2
0
-2
3
-5
1
1
4
-1
-6
-2
24
6
-3
-20
-19
0
7
10
24
-3
-1
17
-3
-3
-2
-3
13
8
4
8
12
2
-1
0
-5
-4
-2
-3
-1
-3
2
-2
-52
-9
-1
-2
5
-1
-1
4
7
5
-3
-13
-4
-1
2
3
28
7
0
-4
-15
-1
-1
-2
-12
-5
-2
-7
-2
1
2
2
10
4
1
7
1
-2
-1
-5
-14
-5
-1
-2
-3
-2
2
1
-19
-9
1
6
2
0
-1
9
59
6
-2
-2
0
1
-1
-3
-38
-2
-2
-2
-1
-2
-5
-9
-20
-3
0
1
0
-1
-2
-3
15
11
-5
2
3
-1
-3
1
-11
-15
4
-9
-3
-3
1
8
72
2
-2
2
0
-1
-4
-13
-87
-10
0
-3
-2
1
-1
-6
22
0
1
-3
2
-2
-1
0
-25
8
-3
-4
1
-1
-5
-8
2
-6
-3
-3
-10
-2
4
12
81
18
1
0
1
-4
-3
1
-32
-18
-3
-18
-10
4
1
-2
-9
-1
2
16
8
1
0
2
-25
1
1
-3
5
0
-2
-5
20
-5
2
9
1
1
-1
0
19
15
3
6
0
0
0
-5
10
-1
-3
-21
-3
-2
1
0
6
2
-2
13
-5
0
-1
-8
-66
-7
-1
-10
-7
-3
-3
-6
-13
-3
-1
6
4
-1
0
5
8
-1
0
-1
-1
-1
-1
-4
-8
-3
-2
-1
2
0
-2
0
34
0
-1
-12
-7
-3
4
7
-17
-3
-1
5
5
0
-4
-5
-11
7
-4
-4
-3
-4
-2
2
1
-20
0
-3
-5
-1
-4
1
21
-2
-3
2
-1
0
-3
-8
1
1
-3
-3
0
-2
5
10
23
3
1
2
0
-1
-2
-10
-39
-1
-2
1
1
1
0
3
5
7
-2
-1
2
-1
1
3
11
1
-1
2
0
0
0
-3
-25
-6
0
-1
-3
0
1
7
65
12
0
1
2
1
0
-4
-54
0
-1
0
2
0
0
-1
-1
-1
0
-1
-3
-2
0
2
16
-1
1
1
-3
0
-2
-2
-11
1
-2
-10
0
-4
-1
2
22
2
-1
3
1
-1
0
-1
4
-3
-1
-1
1
-3
-1
-4
-7
-7
-1
-3
-2
2
0
4
7
3
4
7
4
-2
-1
-1
-25
-2
-4
-6
-2
-1
1
0
0
-1
-1
0
1
0
-1
-3
7
1
-2
0
2
-3
-2
-6
-26
-4
-3
-1
-11
-2
0
4
26
2
0
-3
-1
-1
-1
-3
32
0
0
5
2
0
-3
-8
-72
-13
-3
-1
-4
0
-1
3
21
9
-1
-1
4
-1
-2
-1
34
-3
-1
-1
-1
0
2
4
-3
1
0
1
-1
-1
-1
3
25
6
-1
0
-2
-1
1
-3
-35
-6
0
-1
3
1
-2
-6
3
-9
-4
-1
0
0
-2
-1
-26
-3
-1
-1
0
-1
0
4
54
4
0
0
0
-1
-4
-6
-36
-12
-3
-3
-3
-1
2
1
18
3
2
1
0
0
-1
-3
-12
0
-3
-2
-1
-1
1
3
15
5
1
0
-1
-1
2
-2
5
6
0
2
4
-2
-3
-5
-52
-9
-2
-4
-1
-2
1
1
15
-1
-1
3
-1
-1
-2
-2
5
1
0
-2
-2
-1
1
-1
-2
3
0
0
2
0
0
0
-1
-4
-3
3
1
0
0
3
-3
0
-2
-2
0
0
1
4
10
2
-3
-2
0
0
-4
-8
-14
-4
-1
-1
-3
-2
-1
-3
15
-2
1
-1
-1
-1
-3
-3
-30
-4
2
-1
-3
-1
2
-1
1
-5
-1
0
1
-1
-1
4
32
7
-3
-1
2
0
-3
-6
-35
-16
-6
-5
-6
-2
0
3
31
4
0
-2
-1
0
-1
-3
-23
-2
-1
-1
-3
-2
1
6
-1
1
1
-2
1
-1
2
0
8
4
1
6
4
0
-3
-2
16
-1
-1
-1
0
-1
-1
-5
-33
-3
0
-4
-2
-1
0
2
-3
-4
0
6
0
0
-3
1
11
5
1
0
-2
0
-4
-5
-4
-6
-3
0
-1
-2
1
4
2
2
0
0
-1
0
2
0
35
4
-1
0
-3
0
-3
-2
-9
0
0
0
-3
0
3
5
6
1
0
0
-1
0
-4
-7
7
-3
-1
-2
-1
-2
0
-2
-9
0
1
-1
2
0
4
-2
4
-3
0
0
-1
-1
-1
2
3
1
0
-2
-2
-1
0
1
6
-3
-1
1
-1
9
2
6
-8
5
1
1
1
7
-1
1
22
6
0
-5
-1
0
-2
-7
-12
-2
0
-3
-1
-3
-1
-2
-3
-2
1
1
0
-8
1
-1
-10
-4
-1
-2
0
-5
0
4
2
3
-2
-2
-1
-2
-1
-2
-20
2
-1
2
1
-2
-1
1
20
-3
-1
0
0
-3
-3
-5
-23
-9
-2
-5
-2
-1
0
-2
2
0
-1
-1
-1
-2
1
-3
-5
-1
-4
1
-1
-2
2
4
28
4
-2
-2
-1
0
-1
-6
-54
-5
-2
1
-1
-5
-4
-1
17
5
0
0
0
1
-1
4
27
-7
1
-5
-2
1
1
-3
-10
2
-3
-2
0
0
0
0
13
-3
0
1
0
-2
1
0
-17
0
1
1
1
-1
-3
-6
-14
-1
-3
-2
0
1
0
6
28
3
1
-3
-2
0
-3
-9
-65
-7
-2
-4
-3
0
-1
-2
6
0
0
1
-2
-2
-1
-2
-14
-2
-2
-3
0
0
0
0
4
0
0
2
0
1
6
13
19
7
1
-1
1
2
-2
-4
-13
-1
1
0
0
0
2
4
26
2
-3
0
0
-1
-3
-7
-44
-3
-2
0
-1
1
-3
-1
32
-6
1
-2
-4
-1
1
0
-2
4
0
-3
-3
-1
-1
-2
-6
-1
-3
-2
-1
-3
-1
0
1
1
-1
0
1
-1
-2
-1
15
0
-1
1
-1
0
-1
-3
-13
-3
-1
-1
0
-1
-3
-1
8
-1
1
1
0
-1
1
6
8
0
1
1
-1
1
-4
-8
38
2
-2
0
-1
0
-1
-6
-45
-10
-3
-3
0
0
2
1
-8
1
-1
-2
-2
-1
-2
-3
-6
-1
-1
-2
-1
-2
0
3
18
3
0
0
1
-2
0
3
17
-4
-3
-3
0
-1
1
4
0
-2
-2
0
-1
1
-2
-8
-17
-5
-1
-3
-1
-2