-2
-3
-22
-9
-4
0
-11
0
0
-8
-21
1
-2
-5
-3
3
1
10
3
4
1
-5
2
-3
-1
-7
20
0
-2
1
-6
-2
6
4
-8
-1
3
-3
3
-1
-10
-4
7
-4
-3
-9
-8
1
-2
-5
-18
-1
-2
1
-4
-5
1
7
21
2
-1
-6
-4
-3
-2
-5
-6
0
0
4
5
-1
2
-8
-25
-4
0
-2
-4
-1
1
6
5
-8
0
4
4
1
-1
-1
-14
-1
-1
1
1
1
-1
7
100
18
2
0
-1
1
-4
-12
-44
-12
-5
-14
-10
-2
4
11
11
2
0
0
2
-3
-10
-9
-54
-14
-5
1
-4
-1
-5
-10
-23
-13
-5
-20
-15
-5
1
6
3
13
3
25
2
1
0
-3
-13
-1
-4
-13
-9
-4
-2
-4
-5
-3
-1
0
6
-2
-1
7
6
4
-2
0
7
0
1
-8
-49
-12
-4
-11
-8
-2
-1
-2
19
-1
-1
1
-3
4
2
-2
7
5
-1
1
2
-2
-1
1
5
7
1
0
3
-1
2
3
16
-6
-2
-1
1
-2
4
9
-8
3
1
3
5
1
-5
-13
19
-6
-1
1
1
1
-1
1
-28
-5
-1
-1
-3
1
-7
-3
0
-1
-2
-1
3
-7
-2
5
-1
1
1
3
1
0
1
-2
16
4
-4
-4
-1
-4
-1
4
-3
-8
-3
4
0
0
-4
-4
16
19
0
-2
-3
0
-1
-6
-41
-16
-3
-6
-6
1
-3
-8
12
4
1
2
2
-1
3
8
-5
-6
-1
5
4
0
-5
-6
4
0
-1
-4
1
0
-2
-6
-5
1
1
0
-2
0
6
13
13
6
-2
2
0
-1
-5
-11
-62
-4
-2
-3
-2
-4
1
4
24
5
1
0
-2
2
-2
-10
-25
-5
-3
-2
-2
-2
0
3
9
-7
0
0
-1
0
-1
-5
12
9
1
0
1
0
4
8
5
6
1
3
3
-1
-2
-8
-26
-8
-2
-2
-3
-1
-3
-3
-9
-1
0
-6
-3
0
0
1
14
-1
-2
-4
2
-2
-2
-9
-21
-3
-2
6
1
0
1
-4
9
4
0
-1
2
-2
-4
4
3
0
-3
0
-1
1
-3
-2
-13
-4
0
-2
-3
0
1
-3
-13
-8
-1
-4
-3
-1
0
-2
34
2
-2
-1
-2
-2
6
-1
-25
0
1
-1
1
0
-6
0
24
0
-1
1
-1
-1
-6
-14
-56
-16
-5
-4
-3
1
-2
1
28
9
3
2
1
-1
-1
-1
18
5
3
1
-1
-1
-1
-13
-38
-5
-2
-1
-1
-2
4
16
6
-4
-1
0
1
1
5
-1
-23
-15
0
-1
0
1
1
11
20
16
0
-2
-2
0
-6
-22
-17
-4
2
0
2
-6
-8
16
1
-2
-2
-4
-3
-7
-4
-23
-16
-3
-2
0
-1
1
13
16
31
0
1
1
4
5
-2
14
2
-2
-1
1
-4
-3
-10
-8
32
8
2
-2
0
-3
-10
25
18
-1
-1
-2
-5
0
7
-14
-7
-4
1
2
3
3
3
-11
-8
0
-3
1
3
8
9
29
34
5
4
-1
0
-4
-9
-24
-18
5
0
-4
-5
-9
-7
-1
-14
-20
-8
-2
0
-3
-4
32
20
18
14
7
4
14
20
16
4
-22
-8
-5
-6
-5
-8
-29
-3
36
13
3
-1
3
-12
-26
-28
0
1
-3
-6
-11
21
38
25
-12
-9
4
10
14
-14
-54
-17
0
-1
8
17
18
29
54
47
14
-4
-7
-6
-14
-2
13
-53
-12
-5
2
26
33
-40
-102
-13
-16
-9
-17
-35
-32
-64
-11
-23
-28
-9
-24
-54
-58
-11
-29
-10
-57
-18
-1
13
2
32
16
99
88
30
10
9
5
25
9
-40
7
-3
6
29
30
45
-70
-28
-47
-11
-6
-6
-4
-58
-5
15
48
2
-18
-43
-26
-4
3
-62
-43
-14
-5
-51
-33
48
44
11
40
14
20
19
10
-15
31
-6
32
18
6
39
40
27
30
1
24
8
19
34
36
-81
-54
-10
-34
-20
-7
3
-25
-7
7
47
34
2
11
7
-18
25
26
-41
4
-12
1
13
3
34
48
5
-78
-17
-3
16
49
20
-9
6
58
29
-18
-8
13
-26
14
-13
-63
-15
-16
-21
-77
37
9
12
-18
-13
3
-10
11
0
-26
-16
58
4
-5
13
3
-2
-28
-4
-2
10
24
40
23
-19
5
-22
42
-3
-5
6
2
-50
40
21
-28
-6
-17
-31
-5
-10
36
15
-84
-25
-26
-29
-26
74
-47
14
36
-28
-20
-6
48
16
-61
-39
13
8
12
-29
-25
17
36
34
11
1
10
-24
-95
-19
-39
-17
-35
1
1
-33
-38
-65
24
16
-35
-28
0
-9
-26
-49
-10
10
-38
19
22
70
45
48
74
16
26
34
4
-12
43
33
17
-18
8
-12
-8
-2
5
-31
35
1
3
15
2
-10
-42
62
-49
-4
-39
-29
-21
-43
14
-41
-19
-11
37
7
3
33
14
-21
23
-3
-47
2
-3
18
71
-2
11
-2
-82
-42
-8
-2
-76
-51
14
9
104
50
5
-26
-8
65
-24
11
16
9
-7
1
62
-29
-17
-17
-25
-2
0
-4
-81
-62
-63
-9
-70
-19
-11
-7
-31
82
83
2
-20
17
0
13
71
-52
-64
-6
-16
-5
-10
-18
-10
55
14
18
46
6
14
19
14
-20
36
-16
-106
5
9
1
1
-10
-32
-6
-8
-4
21
21
-15
103
27
7
72
-11
-30
3
54
-23
-14
-10
-6
-3
-12
-23
-7
-28
15
1
-34
-12
-2
-13
-16
-24
-11
-2
33
2
3
-13
-7
5
-30
-29
42
19
17
32
27
-29
-73
-20
-59
-18
1
0
-67
9
16
26
116
24
9
-3
66
32
13
12
-33
-8
-33
-56
-42
-43
29
4
-67
-21
10
51
-4
-5
-42
12
86
15
4
28
1
-9
47
13
-82
2
6
-27
53
-29
21
-11
24
6
17
76
20
9
-18
6
-7
-8
-13
-36
-47
58
-14
-4
-59
-12
-8
-25
-3
58
56
3
38
16
1
-1
-23
-34
-13
9
-111
-14
-3
14
32
-64
8
18
51
-1
-7
-47
-71
8
-18
-18
23
19
42
95
83
81
15
-2
-70
-26
-41
-67
-45
23
-13
1
50
25
-5
17
32
-64
8
-13
-112
-36
20
99
91
10
-9
-12
-44
16
52
38
-88
12
-33
24
-13
3
-63
-45
16
8
29
1
-54
-16
-25
-16
-3
-17
8
-24
-48
-2
-3
41
70
-43
-13
7
37
-2
-4
-54
-59
30
-35
-19
-31
-19
22
38
65
0
39
26
66
-4
9
22
-2
30
-51
-13
-47
8
0
-55
-82
-68
46
9
-60
-4
-5
-6
113
-19
-35
-31
127
56
19
39
-23
27
6
-5
-71
-54
-51
45
-40
-6
-11
32
26
35
72
-26
-85
24
48
2
0
18
-11
-67
-18
18
-21
2
43
4
3
-1
51
-9
59
14
13
-7
22
18
-30
-14
-67
-25
7
-11
-12
40
-3
13
-25
-2
-69
10
-17
-17
-40
44
75
30
65
19
44
86
50
10
-22
-5
-11
28
-11
-39
27
-36
28
16
21
1
-22
-48
-43
-12
16
6
15
-20
-16
-37
5
-93
44
-23
4
-28
14
62
-9
93
-21
-19
-7
-12
0
9
36
21
-38
-3
19
4
-30
-70
-27
-1
12
27
127
20
-4
25
27
46
-10
-13
-56
-7
40
42
4
-54
24
-2
-2
-20
-23
-5
32
40
19
6
-47
-16
-17
-26
72
-24
22
-12
-39
1
-7
36
-21
-67
-76
8
-25
17
31
-33
-64
5
17
3
55
-16
31
18
37
43
-29
-9
-54
5
-3
58
69
11
-35
-3
-2
-6
-38
-73
-27
-5
44
2
-2
5
-37
-76
-58
10
4
-8
-35
8
16
-2
-3
4
-17
-8
68
-19
9
35
-35
27
-36
0
-37
-8
7
15
9
-19
-11
-3
-111
-37
-26
-10
-21
-41
15
1
68
55
1
-64
-38
-53
65
2
-1
10
25
71
46
23
-15
-14
-18
-17
27
68
-34
40
-23
-2
-22
1
-31
-41
51
-64
-18
0
-59
-12
-10
-6
-128
-51
-39
6
43
52
23
-31
-9
9
46
10
10
14
2
-25
32
-37
22
9
36
-14
-15
-2
-9
46
-2
-13
-128
-55
-9
-27
14
2
-23
-8
-42
0
-7
-13
1
-37
12
-15
56
16
5
19
-22
-33
-60
-6
55
17
24
39
-36
51
27
28
20
-4
-12
15
119
79
-44
-16
-74
-36
-17
-20
-35
-20
8
6
5
28
19
-5
4
-38
-47
-17
-4
10
16
79
-86
-59
8
1
-6
-6
-40
-98
-72
43
58
14
4
-49
-32
21
63
-1
10
-12
-42
-12
14
5
43
6
36
9
21
3
9
-7
65
2
-99
-21
-58
4
33
64
15
-31
-18
-8
-35
6
15
-16
-73
-49
3
-3
-30
-2
-33
-44
5
46
76
8
122
23
11
47
14
-73
-39
4
15
34
-5
-21
-24
-31
-14
-8
-43
7
1
-16
15
41
17
7
-2
-7
28
72
61
-5
3
-1
9
-38
-38
-55
-25
18
-30
-20
-47
-40
-10
24
45
31
107
33
58
44
9
-3
22
28
-11
19
13
25
14
8
62
-93
35
-18
-123
-15
4
-60
-104
109
-2
2
108
25
-14
-8
-12
-78
10
-4
4
-47
-42
-7
-7
-54
-9
-8
-7
-17
-7
3
-18
8
-11
-4
-78
39
39
79
127
-30
-16
4
-42
-1
-19
-79
-128
9
31
14
38
-7
-12
-37
-56
-26
4
-1
-57
15
-14
-15
-11
30
-128
-12
-10
10
29
68
-69
42
78
-26
-58
4
15
-42
93
20
64
24
4
-6
-12
-30
-3
-14
0
-11
-100
-60
-41
-41
-49
5
-27
14
53
8
-3
18
34
-20
-6
-3
-47
5
15
63
41
47
24
3
-28
39
17
-4
-34
16
-4
-3
23
18
-12
-10
26
4
11
-17
-103
-100
-40
-8
30
-22
-39
-14
48
5
3
18
-46
-56
-44
7
19
46
48
-19
-60
12
-11
11
62
47
-2
-39
-47
11
5
4
42
-21
23
3
-19
-31
-11
-4
-56
-62
-44
-72
43
2
0
-13
-96
-16
-21
40
88
5
4
9
101
51
29
-1
-10
9
43
14
-41
4
3
-25
26
-107
-9
9
3
3
29
43
43
-8
-29
-23
16
-30
-3
79
-44
58
-20
-6
-38
-34
-26
-8
-58
-10
25
23
37
79
-9
-49
-20
-14
-17
-3
56
-27
-16
-9
-18
-24
-27
-9
-31
-85
-12
-34
-39
-15
-16
-5
5
68
22
103
81
59
-28
-32
-112
-74
-16
-65
-57
18
-9
19
114
22
31
5
1
-38
19
13
47
35
1
26
127
43
-14
-25
-24
-69
-21
-33
-6
-7
30
-1
-36
24
2
20
-41
-29
-17
15
-50
15
-13
-10
-13
-11
8
4
35
38
-25
-47
21
-83
-17
6
14
-75
41
84
24
66
20
-4
49
42
-41
-75
-13
70
28
-3
-127
-12
16
36
-34
-10
-38
0
75
22
24
10
-8
-109
24
-7
-27
-8
-15
21
-3
92
36
6
78
-20
-13
-18
71
-7
-26
-7
-78
-24
-16
-7
33
25
35
-2
-62
-38
6
27
-72
64
36
19
91
73
26
-12
27
-25
20
-3
-1
51
21
12
93
-13
-26
-9
44
4
-8
-42
-116
2
-18
-12
-6
-45
12
76
126
83
-49
-14
-78
-33
5
-7
30
-34
11
16
29
39
5
-40
-33
-8
41
22
57
104
16
23
11
-30
-36
-17
-62
-107
3
-19
-36
-4
8
-10
42
1
15
60
-84
42
66
-8
-43
-74
-11
34
6
-1
-10
15
83
34
12
-37
12
-31
-87
-7
-15
59
-17
-42
-84
27
33
-4
-14
-41
4
9
4
-25
-64
-4
-55
-105
-61
0
15
22
32
-4
-93
37
-5
16
6
15
15
5
33
67
26
4
41
-17
70
9
-17
36
7
-22
-27
-103
-92
-22
-47
-44
4
30
-36
13
29
-13
-30
-128
-26
-18
21
-23
-10
-5
-19
127
-23
3
-19
-23
15
20
-18
42
15
-37
11
3
23
12
78
45
8
8
-107
44
41
-14
-54
-51
3
63
76
8
41
3
-47
-102
-37
-20
-1
-18
3
-6
4
-41
-15
-42
-27
-17
12
13
31
122
39
9
5
26
-9
-18
-61
31
40
75
38
-31
-27
10
69
-11
12
-32
-40
69
10
9
-26
-21
-46
-58
-62
33
-7
-7
-50
-15
7
-25
-20
-56
-8
-5
-18
-38
7
-18
-2
38
-27
-26
-57
4
35
43
-2
-7
27
-36
-5
-30
-27
-14
-66
-11
-43
46
54
36
28
-36
73
-25
-28
-9
58
-1
-28
-50
-47
-45
25
-8
22
32
21
33
31
-26
-4
64
-21
-52
-8
-16
12
48
6
-26
-110
-12
-24
30
59
-46
-88
-6
113
-39
-6
-16
-76
25
96
-8
14
72
-5
-2
71
2
-71
-57
-52
-59
15
99
79
-52
-74
19
18
-32
-24
-50
12
87
-7
50
95
108
10
-38
-51
15
-38
5
6
-59
20
20
6
-38
-14
27
44
127
-1
-23
10
-40
20
-39
-96
-51
-32
7
-51
33
52
-17
13
-19
23
-26
90
-34
-23
13
44
-24
-27
-34
-84
21
10
-16
-22
-82
-51
-10
12
-10
-63
-21
16
-33
6
-5
35
-21
-29
-7
-74
32
-22
2
-80
37
73
10
-99
36
23
2
-16
-55
-56
-17
-54
-23
2
-13
9
-26
18
-2
111
-25
-13
23
-10
-15
8
4
6
53
9
51
105
13
-37
8
-44
-20
-20
-32
-71
-44
-50
-10
-85
8
-25
-4
33
38
38
2
71
-15
15
17
-49
-9
40
4
16
4
-7
25
9
-3
-8
2
33
23
-45
-27
-19
-3
6
1
-89
-45
49
-13
-31
-3
-33
8
75
4
-1
48
71
-4
-8
5
3
39
-6
-59
10
-3
-38
-23
-40
36
-22
96
-60
90
70
18
-15
-16
70
67
8
-76
-64
-2
7
46
73
-55
-72
11
17
9
-7
52
6
-10
-15
6
-46
-18
-62
-93
-19
-29
-12
-25
5
-26
66
5
-41
-46
-38
42
-25
8
-96
4
-23
13
14
-44
37
-34
30
-58
34
-7
-10
5
-37
-22
-18
20
-10
-21
104
-36
-3
16
35
-98
26
8
20
51
125
-19
-98
54
-57
-50
-21
-13
-44
-25
5
60
52
6
-67
-1
57
61
12
21
-90
-56
11
16
-29
-36
110
-73
-40
7
51
-3
32
92
-8
115
-3
-49
118
-27
10
9
-26
5
-17
50
-99
-16
33
1
67
-19
127
112
53
23
-33
-28
33
-4
63
91
52
32
-10
-45
-38
-128
-42
-13
-54
7
78
-6
-88
-101
-29
-41
-3
3
-91
-19
-23
-74
45
-74
-30
1
-36
2
5
33
-69
-24
-45
-23
1
-15
-5
18
-27
14
-8
-14
-25
2
-47
-5
-95
-22
20
22
44
16
40
21
-88
-25
9
6
4
16
50
80
-61
-34
15
-20
-22
-16
-17
-15
-32
14
-34
11
-22
17
25
25
-9
9
24
25
-31
-3
-22
-15
67
13
4
2
23
9
2
59
96
-14
-29
3
-12
13
63
33
79
18
8
4
-35
-3
-8
-39
6
21
6
10
11
29
-16
8
57
-3
23
-5
-14
-20
-16
27
6
-31
-7
2
7
-1
4
-25
-24
11
0
-2
-27
-7
-21
-49
-21
14
23
-5
4
-14
21
29
3
-11
-17
5
38
44
-8
-7
68
-9
-13
14
6
-22
27
1
72
12
8
-10
-1
-15
-7
-21
26
10
-5
-11
28
35
14
-6
-43
-8
-1
5
20
38
-2
4
-47
-9
0
-6
29
27
-11
5
56
8
-12
-6
-8
-33
-1
-1
47
1
2
4
1
-82
-3
-18
12
-14
-2
-1
3
2
-12
13
33
-20
6
-22
-6
16
-9
-27
41
9
-10
7
3
22
5
35
46
9
8
6
2
-35
2
0
39
6
5
2
8
13
-8
-5
-34
-7
-20
6
11
-35
20
14
-68
5
3
-13
7
50
10
-36
-106
3
-12
15
49
106
22
2
-89
-5
9
2
-5
-51
25
31
-76
-7
4
-4
14
-44
-7
-17
-42
16
5
2
-8
-66
-36
-11
40
7
28
-33
-37
-95
-49
-18
-41
-8
-34
-19
12
109
12
-21
14
-50
-16
20
13
48
46
23
69
13
42
11
-25
7
4
-12
14
-5
-40
10
17
33
9
8
27
4
-1
5
6
-100
-17
12
-35
-4
-13
-14
-24
-47
-23
-4
-30
-7
-9
-6
10
25
8
-3
-22
-7
21
0
-13
23
-10
-6
3
13
2
2
11
-51
-41
-10
-70
-16
-2
-14
-7
-19
1
6
10
-12
1
-3
11
38
18
-3
11
14
1
21
7
-80
21
12
22
32
11
-30
-31
-75
-24
-1
-18
8
-7
-1
5
54
-5
-7
-31
-82
-6
-17
2
41
13
-5
-40
47
-27
14
7
49
19
9
72
26
14
15
15
0
5
14
9
4
43
-14
-3
80
33
7
-24
-15
-65
15
-7
-87
-6
-6
43
3
42
-10
9
65
-22
-8
-105
-27
-54
-6
-13
2
44
10
127
44
-4
11
-7
-66
-79
-7
-42
-22
21
-15
-14
46
37
-8
-1
27
19
11
32
-56
-13
7
91
-17
20
-7
-13
43
-6
-13
-39
32
1
-19
-17
-15
6
-8
47
-9
-13
27
35
52
-2
5
-28
17
17
-31
-18
3
10
-11
-29
-23
5
8
-11
-36
-9
-5
2
2
6
5
-8
-38
-9
6
-20
11
2
-5
-27
-71
-31
3
3
-8
-9
-4
21
75
20
-9
-36
-31
-13
9
36
122
33
6
-11
-58
-5
9
1
4
40
7
13
87
14
-8
-20
-46
-21
2
30
6
-2
11
-19
-60
-67
-4
7
12
4
6
12
7
-7
-6
-21
1
1
17
-33
-6
-4
-9
-41
-23
9
9
55
72
44
-2
59
-3
-59
-20
-19
-21
4
2
10
9
30
-2
-9
-46
-41
-5
0
13
-6
-9
-2
50
-10
4
3
16
-11
2
-8
15
41
-1
-27
-83
-4
26
28
42
-15
0
9
44
10
-3
-27
-73
-24
-3
1
8
2
19
17
10
-16
-11
-8
28
4
-11
39
38
-4
7
-10
0
-15
-17
-58
14
25
-20
-30
-39
-18
-14
39
40
15
-6
-42
-15
0
8
8
-8
3
9
50
-8
-17
8
12
-65
-40
1
-13
-32
15
1
-8
52
93
36
95
70
-1
-14
-21
12
-92
-24
-42
-2
-19
-3
-28
-5
13
-4
-3
-57
35
8
17
23
10
-1
5
66
-14
-5
-35
-128
-28
-2
-38
-42
1
13
0
53
10
0
24
-22
-18
-19
7
20
-4
-7
-24
4
-28
21
65
82
-5
-4
-17
-49
30
-4
-28
-40
15
-7
-22
13
-3
-13
21
-28
6
6
20
1
9
-5
-26
-12
1
3
6
22
-9
-27
-47
-28
-36
-21
-14
-4
8
14
-2
6
-22
-13
-14
-14
-11
27
42
58
71
24
22
0
8
-15
-5
5
-20
3
10
11
9
-4
7
-52
-2
6
13
13
-12
-11
-3
-21
-16
-15
-7
-15
-13
-3
-53
13
14
2
-23
-16
9
10
14
-37
5
11
20
19
1
1
-14
55
22
5
-11
0
3
-4
26
-40
-49
-13
-3
-10
-14
7
-54
-33
25
6
19
20
10
10
35
2
0
-6
-20
-4
-2
5
-15
20
-2
-1
-2
-5
-1
1
11
-11
10
13
1
6
9
-16
16
-14
3
-7
-7
-6
-12
-4
-2
5
-10
-1
-2
-8
-7
11
-44
-25
-34
-26
-4
1
8
-14
10
68
92
44
5
5
10
1
0
2
1
2
11
10
3
5
-4
-7
-5
-14
-7
-5
-10
-3
-21
-56
-45
3
4
0
-4
9
13
32
19
1
-3
-3
0
-5
-28
2
13
1
6
4
-1
0
-16
-27
-6
-5
0
6
21
-14
17
-20
-45
-21
-8
4
-3
11
30
8
-17
-8
-4
-28
-38
-26
36
38
46
13
8
4
7
7
21
-12
-11
-11
2
25
13
-2
-41
-30
3
0
6
-15
9
26
28
35
-13
-10
-5
-3
13
-10
-26
-16
-22
-10
-8
-24
-29
2
-1
10
-2
16
-2
-7
-16
7
45
7
29
10
13
22
14
16
-55
3
-4
-1
19
50
90
-52
-91
-57
-43
-23
-14
-24
-59
39
54
3
-8
-13
-31
-70
-48
-32
-9
11
5
0
-6
11
4
-8
-40
-28
-4
-3
-12
-17
-20
11
-59
9
5
7
14
33
58
17
28
-3
-15
-10
-9
-46
-26
80
56
29
57
2
33
82
10
-66
37
-41
-23
15
45
26
60
-79
-40
13
-68
-30
-54
-75
-62
6
50
63
87
14
-15
-10
-20
-42
18
-26
-6
-1
-18
-55
8
40
4
-9
-29
-5
50
119
39
75
75
-42
-33
12
25
-35
-50
0
-35
-8
-30
-20
-38
-11
53
-44
-46
-10
10
17
-3
-12
-47
23
3
20
36
5
-21
-60
-57
23
32
-4
78
20
16
42
74
-28
-18
-5
-9
-12
2
-1
-40
-6
-33
-5
-58
-12
-17
1
23
-43
-28
7
57
0
-14
-13
68
-25
32
11
-53
-12
1
-35
-90
36
44
5
40
39
74
110
49
26
-11
-18
-73
-17
-53
-109
-75
33
53
29
8
-42
-53
-8
54
75
47
6
16
23
7
-13
-51
-57
-52
-12
42
11
10
-16
13
2
49
-1
-56
0
27
10
-46
-20
-21
2
-79
-8
0
10
10
-2
10
-5
25
14
7
39
72
8
5
-7
50
42
9
-12
-13
1
-30
2
46
-1
-9
-36
-11
-24
7
-6
-17
-31
-28
-81
-55
20
31
-3
-77
-41
8
127
83
-26
-23
-4
34
50
45
108
86
94
0
-8
-42
-7
-41
-69
-63
-6
20
21
-30
3
-20
-16
-63
-39
-9
22
13
-17
-44
-51
-35
-19
-13
-8
-60
-48
14
-25
-30
-11
-15
-4
20
25
74
61
112
16
59
5
63
8
41
36
-39
8
-24
3
-32
-20
-70
-62
-6
-69
-28
-12
-5
-39
-39
-47
-38
31
-36
10
15
-3
-6
36
57
79
-4
-15
-16
31
37
45
-20
4
96
37
54
70
32
18
-22
-40
-44
0
27
8
-1
-27
6
-2
-15
-31
-26
-40
-10
14
-32
3
0
-8
-10
-33
-54
-14
49
-14
4
-7
-1
20
-1
-30
-7
6
-19
-3
23
33
19
-23
-20
-101
6
15
82
21
6
-20
-82
-27
5
-27
-111
-62
-43
61
13
36
-10
11
23
-46
-11
2
74
16
2
16
-64
47
21
33
-20
-71
82
20
27
17
12
11
47
35
-58
-18
-16
43
41
-5
-1
-91
-77
-26
5
6
54
21
-42
23
30
11
-18
-46
-64
-43
-18
7
-12
9
-54
-98
-50
-33
45
-72
-11
-6
3
72
19
-28
-72
-6
38
-3
-20
-18
73
72
65
54
-64
-11
77
57
15
29
48
13
-12
-20
-98
1
-32
-7
-17
-7
40
26
59
-21
-36
-48
25
23
-63
-10
8
-15
-17
11
-31
-48
16
0
-92
-19
-23
-6
-23
-22
-23
0
63
85
26
14
3
13
1
3
-6
-102
-24
10
-2
-45
29
12
23
115
3
-58
-9
58
44
5
-11
0
-11
3
40
60
-30
-10
44
26
63
113
22
-59
0
-2
-7
25
10
-38
-11
-45
-23
-1
-36
-67
-30
-9
-53
7
45
-14
10
-24
2
59
20
17
-46
-17
-8
-1
-9
-52
-39
70
54
26
28
-11
-13
-9
29
-14
-9
-5
-52
-14
-41
-40
-8
20
10
14
-122
-37
-23
-43
-8
0
30
-6
103
76
15
17
-3
-24
25
22
24
-85
6
21
-38
6
14
-29
26
110
58
58
57
86
-53
-24
-46
-27
37
41
73
-60
26
16
16
-10
-42
-63
-42
-33
-71
-18
-34
26
4
-55
-21
-4
31
6
54
-37
3
44
38
-61
3
-37
-66
-57
55
-28
-74
73
-1
8
52
3
-43
-45
-29
19
-75
-13
-7
23
-27
-38
13
-28
-30
0
-41
-48
-13
0
-32
-7
-37
-24
-39
-9
-14
18
48
-71
51
28
-88
-57
16
9
-33
-30
-21
-7
64
61
6
43
62
66
10
6
-90
-2
-17
-82
-25
-14
-33
12
87
61
1
16
7
-21
80
12
-55
-1
0
-61
-45
39
-5
3
-105
-31
-2
12
-12
-4
-28
5
-41
-26
3
19
29
-25
10
10
73
30
-44
-45
-36
-15
37
2
16
1
68
55
62
7
-4
-25
9
10
25
64
14
-13
-14
-14
20
-73
-11
-56
-47
40
4
1
-21
-19
-58
-41
-63
-61
-15
4
43
43
9
29
24
-68
-24
-9
-68
22
43
18
-20
127
81
-1
90
-46
3
38
44
-50
-67
-6
59
59
-11
48
-6
16
-72
-45
-128
-97
-50
-44
5
64
11
28
94
102
42
12
24
21
39
9
-27
32
-22
-45
70
-53
53
4
-71
-116
-37
-65
-84
5
-70
7
-10
48
-8
54
22
-39
-37
-30
-64
22
10
25
-40
-41
-25
3
2
90
90
23
13
30
72
8
11
-2
94
74
42
45
-3
-12
-66
-41
-2
7
50
-27
26
8
56
-37
-45
-61
-44
-3
-51
-23
-12
-74
-64
2
-21
31
22
-11
-60
6
-30
-47
4
-29
-68
-12
-41
6
4
52
-5
-7
66
11
92
5
-9
-1
14
-4
-18
0
-9
-16
-45
-35
-30
-66
46
30
5
-10
42
46
-24
-55
36
-20
5
27
68
104
5
94
-37
14
-103
-71
-72
-55
49
-23
2
-4
-12
-3
-17
-27
-36
-23
6
6
-48
20
-59
-36
-19
-2
69
15
70
27
-15
1
25
25
-24
-14
-37
-2
69
18
-31
35
35
16
51
52
51
-4
16
4
7
11
-64
-7
15
38
48
-21
-55
-11
103
-31
-35
4
10
21
-34
-7
29
41
-20
-29
-11
0
-34
-3
-36
-10
-4
44
-11
-52
41
3
-45
-22
1
-26
-3
45
34
14
70
18
-10
-80
11
-23
44
-4
-52
-46
4
29
-12
9
-64
-10
20
28
36
46
0
-5
-6
-1
13
9
6
-40
-20
-46
-35
9
-58
-37
18
71
5
42
64
-7
49
2
-67
-109
26
21
67
17
25
4
-10
-1
7
-19
-62
-5
39
38
22
30
19
33
-15
3
-24
15
-2
-34
-49
-69
-53
-18
-31
41
54
57
-2
35
-53
-11
54
13
-23
-12
17
19
118
15
36
-8
-16
-20
-19
16
-69
-10
-32
-38
1
7
-38
-84
35
-4
-43
-10
-18
-5
15
-7
85
18
2
-21
-38
-14
2
21
-72
-7
7
-2
6
18
15
-55
-6
-24
-36
-17
-16
11
12
-14
-23
3
20
-9
23
13
-91
74
23
5
-1
12
-21
-7
19
49
-21
-12
-28
-38
-5
-31
-9
-78
-52
0
16
13
6
-23
-13
38
-12
2
0
5
21
53
49
-25
35
6
-22
-33
0
22
-8
-36
-114
2
34
61
-44
-31
-28
67
55
8
-103
-11
63
-42
36
12
7
2
106
53
27
55
-23
-38
-65
-8
-41
-15
20
5
18
5
91
9
9
-41
-44
-1
-26
-9
-18
-16
28
-12
-30
-86
-6
-11
3
15
-54
9
23
29
12
-62
-1
-12
-71
-21
-8
4
-12
41
-42
-22
-9
-14
12
37
15
15
17
20
110
-17
-14
21
27
-18
-38
-22
-73
-30
-47
-97
-88
29
43
21
22
119
45
37
76
-1
-14
-12
-32
18
2
11
-12
63
-18
-12
-36
-20
-37
-7
2
-57
-30
-3
51
-42
4
-23
-39
-1
-13
-10
0
21
44
24
7
-9
47
7
-68
16
7
1
33
60
37
29
95
46
27
72
-6
26
29
15
-64
-110
-79
-46
49
-64
9
-16
-14
-7
-52
-34
-1
-24
-47
-6
20
22
40
26
30
-14
6
3
45
40
83
11
-65
-6
28
9
39
49
27
-8
31
55
83
10
-77
5
3
-34
-22
-21
-11
-3
42
-120
-44
-3
-13
-10
-25
-21
-42
14
-74
7
10
32
38
10
4
99
45
33
14
-38
-45
-1
24
-35
10
18
-33
-24
-84
-32
112
84
21
-5
-6
38
19
13
-62
26
-15
7
35
13
11
-10
-107
-95
-13
-15
-7
-21
-84
-19
-21
35
-13
5
-7
-5
88
13
-20
32
31
39
-21
-6
-20
-14
1
-15
14
16
-19
2
-18
-6
28
37
-39
-36
33
-74
-16
4
15
-114
-91
-33
-86
69
3
-15
-49
-37
61
-42
48
29
61
17
-27
8
17
59
-41
41
72
11
-69
-20
20
27
30
-30
-11
7
-37
-10
-2
-16
5
-34
-60
-11
-16
-5
-40
-105
-37
6
8
-8
-11
-47
-24
6
38
-15
-31
13
64
33
46
74
-14
53
-19
-19
-42
71
25
38
17
15
65
31
8
74
22
8
26
-1
10
2
82
7
4
-50
-12
-59
15
-12
-66
-59
-23
15
-4
34
-6
-15
-5
-19
-24
-86
-16
-7
9
21
-32
-27
-14
10
18
15
63
7
-75
-26
-6
-22
-5
-54
-11
3
44
28
-33
-24
-45
-12
-24
-4
32
6
35
46
25
70
77
12
-70
-38
19
18
3
-9
-78
-16
-61
6
-7
-8
75
-22
72
-18
-1
30
-12
-23
-42
-99
-33
-3
-60
-25
6
-9
-70
49
-46
-16
60
18
5
54
28
23
52
4
-70
-36
-41
-44
16
5
-89
-15
87
-11
-7
-13
15
-4
21
18
2
58
15
0
-10
-27
35
-17
-7
-15
-74
-18
-17
-27
-30
-12
14
26
82
4
-4
62
-48
-6
-26
1
20
17
-9
0
-61
-18
26
-50
-43
-26
-9
2
-9
-7
-12
19
27
13
-10
-26
69
-7
-89
-39
-22
32
-30
5
-91
-4
64
-4
-9
-40
-7
33
83
21
23
29
28
-4
66
13
55
11
-31
-4
-25
-4
-40
-96
-47
-17
-22
7
-70
-60
-35
50
56
-7
-57
-99
34
57
-8
67
-65
-4
16
18
-2
53
21
-12
-54
-34
26
53
41
2
23
-35
8
13
68
27
35
27
0
-42
-27
2
-76
-46
-53
-19
-2
71
-6
-5
55
7
-16
-8
33
10
-15
-5
-102
-22
34
74
22
62
-6
14
21
-64
5
10
-3
-49
36
-12
-95
116
-64
-16
1
27
29
10
16
-9
41
-20
17
8
-21
19
70
16
60
-6
4
-5
28
11
-37
-42
16
90
31
-61
-7
1
50
-17
5
-5
-23
68
45
15
-67
-27
-57
-14
18
-38
-72
-12
-70
-2
-51
-53
-13
1
-65
5
112
24
1
-17
15
-8
78
-16
-114
-90
-66
-25
-20
-95
-62
-24
-75
-28
52
13
-31
57
84
15
35
48
11
10
32
22
-52
0
67
70
30
-9
17
-19
-17
6
100
127
-8
-2
29
-6
84
11
-67
-114
-41
-69
-28
-36
-32
-19
18
5
-25
95
-25
-11
45
-14
-96
6
-8
-79
-68
33
57
24
36
56
127
44
37
-13
40
26
94
46
96
36
2
-72
-45
-7
9
-30
-16
-85
4
-41
-45
0
-13
2
-18
53
13
91
-40
-15
-32
-119
-38
-41
-28
17
73
-49
-93
-32
-46
44
8
-8
-14
0
114
-23
-51
-2
-13
11
-3
2
-9
66
-82
-34
17
-14
-37
-2
-28
-111
-73
-34
-27
22
-58
-27
-67
72
-29
30
22
24
100
47
61
-38
19
-21
20
24
10
-18
-2
36
-30
-11
4
-22
-62
0
-54
63
-16
-5
74
-5
71
20
95
103
87
96
1
-14
-80
-8
-55
-65
7
-90
-13
-9
45
23
2
-49
0
-14
-69
13
-8
-4
41
14
32
47
33
16
-62
-22
-26
-128
-25
-3
-10
9
16
-4
-95
80
104
40
21
5
68
11
55
30
12
7
-41
13
13
16
127
65
-10
3
-33
-66
7
15
24
-22
-53
-35
-53
6
-45
-23
-99
-58
-44
22
28
4
6
-25
-108
-58
-42
-59
11
-1
6
-3
-6
11
-38
4
-4
17
-10
11
-58
-26
-28
-23
-19
-27
-27
-4
42
-15
-55
-41
-28
-16
3
13
-9
31
22
1
-10
32
42
13
-12
-23
38
41
22
-28
-32
2
-11
49
-47
-26
-18
1
8
5
35
17
67
33
13
47
-10
-5
-2
12
103
19
32
-15
-7
0
-13
1
-9
-49
16
-2
-43
-4
26
-18
56
-32
-31
-12
17
2
-1
-7
-6
23
-16
-4
-25
-2
19
-14
-2
-8
4
-2
30
0
-6
3
11
-8
-19
-3
-9
1
16
3
-62
-3
29
-5
35
8
0
7
-36
-5
-21
3
-9
-4
-5
-24
34
6
11
5
-5
6
-27
5
9
-6
-8
-7
12
-7
1
10
1
11
10
19
7
-8
4
1
-12
13
-11
5
-35
2
-2
-13
-78
-13
11
-14
3
-8
-62
-9
-13
5
-20
-3
-50
31
94
23
14
4
3
-1
-21
15
-2
-8
-55
-3
-7
-1
-15
-47
-6
-7
-75
-8
12
1
-23
19
-23
-1
-13
-2
-10
-7
-14
-44
-13
-4
49
2
7
1
0
11
22
2
49
-6
-2
-4
6
17
-7
-6
72
3
-8
5
21
41
26
11
-21
-13
0
-18
30
2
-9
2
31
12
-9
17
8
-33
-14
-7
68
23
1
-5
18
4
3
2
54
-3
20
-3
3
-20
-1
-3
52
6
-47
-6
36
42
16
3
-60
-26
-15
-24
29
29
-2
-2
-10
5
55
28
-2
-50
2
1
9
-1
11
33
-15
-15
3
8
67
-2
-18
10
0
2
-12
-3
43
7
6
-23
10
-8
7
-1
-10
-11
-22
-21
6
0
-12
-8
-21
-4
8
-17
3
-50
8
6
-48
-4
22
19
21
-4
1
3
-24
7
-4
4
1
5
1
-1
-25
1
-7
-11
17
59
12
-6
-41
-8
-10
-10
-11
18
-4
-4
-21
-4
-9
2
16
-14
10
8
4
13
-2
6
3
33
-4
-8
-70
-19
9
4
-14
-35
-14
-3
-41
-4
-19
-2
-17
10
1
-2
51
9
2
7
35
126
20
4
39
16
14
0
5
-33
17
4
3
-20
7
0
-45
-92
-13
0
-30
31
57
-6
-8
77
10
-9
39
29
-61
-2
5
-34
51
9
4
-61
-19
19
-13
10
-79
-25
-30
-3
18
9
0
74
15
8
36
53
-8
-7
-6
-128
-13
0
-14
-30
20
-5
-13
-67
-23
-13
-65
9
-12
-5
14
57
63
10
-30
-62
-45
7
27
24
76
7
-4
-118
0
-6
-55
-50
-76
1
14
96
34
-25
-21
79
-2
-13
-44
-27
15
8
8
32
-30
-8
-24
53
-24
-2
58
127
76
18
50
-81
-25
-15
-13
-63
2
3
-103
-13
-17
13
-15
-121
-95
11
127
-65
2
0
6
47
10
6
68
115
-2
15
31
8
22
-2
-45
-32
7
13
52
47
74
25
-17
-57
51
-18
16
83
45
-8
-51
59
-40
13
-38
-101
-52
-11
39
-62
12
-17
-30
-40
-81
-20
28
101
-17
15
-33
-10
-13
-6
-10
-27
11
4
86
68
-1
0
-43
7
29
-4
77
42
81
22
-23
-50
-32
-24
-85
-57
-27
-5
18
19
-6
-18
-28
-52
3
-5
-21
-14
0
-11
-60
26
-25
-12
12
15
0
10
34
-18
26
10
-15
15
12
-16
-6
65
20
3
-35
-42
-26
-42
47
80
-28
-22
50
-2
4
30
-16
52
10
4
-14
21
-45
-7
-88
-82
-54
-11
42
2
-3
16
48
-1
-21
-2
-29
29
-10
36
13
65
54
13
39
45
38
-18
-9
-41
-13
-5
-27
-97
15
27
-39
-24
-24
-9
-17
46
10
-6
32
-9
6
2
0
-31
-12
-7
54
36
-8
-1
13
78
0
-15
-26
-79
2
3
-4
11
23
-44
-19
8
-53
-23
-26
-34
-30
-1
-61
-11
8
-4
4
-3
3
32
37
78
53
19
0
-39
-13
18
4
-11
-34
-7
-15
20
14
1
38
1
21
11
17
-7
7
-12
-17
-20
-11
-13
-26
-7
-5
3
-45
-3
-21
-8
-4
-37
10
-10
-40
-65
14
-2
57
69
-7
-22
-11
-1
9
1
-23
-23
0
5
19
-7
-19
3
5
25
15
-6
1
13
9
-3
-3
-16
-35
7
0
-27
0
0
-8
-24
4
1
10
0
-5
-3
3
0
11
9
24
19
-18
-5
-1
19
-4
-9
-107
-51
-11
8
-8
-27
1
-13
87
26
-4
-10
-1
-2
2
12
8
73
-1
11
-7
1
-1
0
-12
-75
-16
-9
-5
-9
3
-6
10
1
-18
0
-1
-4
-7
5
-10
-6
10
-10
4
1
-1
-6
-17
-31
13
20
8
6
13
9
14
3
15
3
10
28
17
-42
-12
-35
-44
-12
-3
8
-15
-7
-77
28
37
10
-5
-6
-11
9
77
-10
8
-5
-8
-23
-9
31
-3
21
-4
-8
2
10
20
-23
27
22
26
22
16
28
14
7
-3
26
6
-2
6
-11
-1
36
-83
-27
12
-13
3
44
39
-117
-58
-73
-14
7
-38
-95
-86
28
8
5
-11
-17
-18
-20
-19
62
11
-18
-22
-6
-9
-7
-1
-105
-12
6
-49
-12
7
1
-43
80
65
20
93
34
17
21
23
93
39
-6
19
7
21
58
74
-15
-32
29
-22
5
-1
10
6
-39
-55
-56
-16
-19
-37
-68
-14
10
6
36
-9
-20
20
51
6
-6
22
-1
-27
1
5
-40
-47
78
53
14
85
28
8
6
37
-83
21
-2
-43
0
-2
3
-22
-33
-68
-47
-39
3
0
-3
18
-11
21
-17
37
-12
-7
30
-9
15
9
25
-34
-17
4
-11
-11
53
11
-59
50
9
0
5
6
16
37
0
0
-6
1
-42
73
70
-14
11
-41
-23
-15
5
-38
-33
-43
-12
30
29
41
34
-19
-2
-31
27
12
-7
-53
-92
-43
-6
55
40
-3
0
-6
6
3
-53
-23
-16
-21
-14
-7
-8
67
-52
-1
7
-16
-3
5
-16
-36
88
99
36
99
48
51
113
86
-12
-43
0
-68
-31
-50
-54
-50
-55
-67
-11
-38
-23
-30
-84
-84
-51
7
-17
79
-12
-10
14
14
46
70
27
-35
-10
31
62
18
16
-90
9
-3
1
2
-7
26
25
49
-12
-54
20
6
-3
-17
-56
13
-24
9
16
-13
-31
-4
35
9
15
-41
-9
3
36
8
-14
-66
-3
88
44
23
31
-4
-7
32
3
-40
-9
-9
-43
-28
-3
-3
-13
-31
-7
7
9
44
62
14
4
-16
-26
-18
-7
13
-3
23
-8
-49
-18
13
31
20
-61
-22
3
64
18
3
8
-36
-15
-34
11
31
2
-13
7
32
19
7
-4
1
11
-3
-12
-44
59
-5
-12
-113
-43
1
39
11
-67
-27
19
121
40
17
8
-27
26
-7
-20
-44
-26
-37
-48
-7
-47
-22
6
-36
9
-14
-19
12
-10
19
17
3
17
25
-4
-41
49
57
-1
-40
-15
-9
5
20
27
21
-19
-9
7
-7
-2
-29
-42
-30
14
46
-10
-1
-7
8
-2
52
-16
-4
-23
-3
-10
-7
-61
-68
-6
-53
-4
16
35
53
52
70
9
33
50
27
61
-24
14
5
-3
-39
1
-36
-92
-25
-61
2
-3
-23
1
-23
-21
-23
71
-6
8
-2
-38
-13
-23
69
44
25
-15
-90
-31
10
8
-1
-59
-57
-8
-21
9
16
40
-32
42
22
6
35
28
-1
13
44
-10
4
-23
-6
-17
-11
-22
-36
-44
-67
-6
-22
-34
-19
-1
-6
-47
-20
8
42
11
9
-4
-18
46
8
-4
-34
-42
-19
-13
-11
25
66
11
8
39
32
34
47
25
-22
4
-2
-6
-33
-30
4
-1
-1
-11
74
-22
2
-2
1
28
40
-10
-56
75
35
25
1
-49
-88
-1
7
-48
8
55
47
41
41
25
-3
47
23
34
-27
-13
-13
12
-20
20
-38
-52
5
-23
0
-10
17
-110
-59
-17
7
-21
-20
-14
-86
83
34
21
-18
31
16
5
47
52
54
-15
-4
37
-23
7
77
-12
10
28
35
1
17
-7
-64
-45
-47
-25
-34
-67
26
19
65
-128
-67
-41
-24
-3
-10
14
-121
66
-25
30
45
35
45
-19
51
49
32
-9
-22
-43
-73
7
83
79
34
-7
-7
51
35
-15
-12
-47
-26
33
38
-49
-13
-17
-13
-27
-39
-44
-2
26
25
9
-117
-111
-45
-11
-6
-110
-81
8
35
114
-12
-21
-66
113
27
-15
8
-15
31
16
8
30
14
12
1
-5
-3
29
25
-47
-81
-13
14
-61
-19
25
38
13
12
-5
-23
-119
60
-2
-33
-22
-9
3
-12
127
36
-16
-9
-55
-20
2
51
33
40
4
-49
-6
43
6
-2
10
21
-6
-6
-24
-35
7
35
-83
16
27
1
24
-49
-16
-37
52
7
-28
-32
-39
47
-43
-105
-85
23
19
34
6
-3
35
67
127
49
16
20
-29
54
23
14
-5
22
8
-7
-41
-1
-12
7
-60
-24
-36
-47
-11
-10
-21
-6
-76
-56
2
31
64
-22
-10
-97
-48
-52
-30
44
26
49
5
21
37
-14
1
-16
-11
-18
3
1
-16
-13
-16
-10
18
-45
-7
10
17
-12
-3
-2
19
25
-21
-42
-15
13
5
-28
51
0
13
-46
-10
-32
-5
46
-15
39
31
53
23
-4
-14
-6
-44
-38
-23
42
31
71
58
0
64
45
33
-74
-8
-46
-45
-5
-46
25
-11
9
-85
26
28
-34
77
-80
-22
-35
98
-8
16
-8
-54
54
24
17
-26
10
-53
24
30
28
3
88
-21
57
101
-4
25
1
-5
29
34
-38
-50
60
9
15
11
-21
-41
-14
-21
0
26
23
9
7
-17
0
-21
-45
-89
-57
-19
-60
9
-5
-9
2
43
-53
-10
19
0
1
27
44
-30
-46
-16
42
-6
13
23
-46
29
49
12
-18
-32
-22
-32
-3
-104
57
-5
-20
40
-5
-36
-42
31
-8
9
29
3
10
60
20
-51
20
26
86
49
32
22
-20
65
-3
-5
-18
5
-35
-47
81
3
0
-5
-52
-128
-92
13
-48
5
23
-12
-17
127
94
45
49
-18
124
35
-4
85
24
-19
-10
-55
-128
-18
32
-83
35
37
-74
38
49
-1
-21
84
6
-15
80
41
103
21
20
-76
-35
-13
-2
-30
-48
-27
-43
6
-11
-7
45
-111
-37
-2
9
-6
-16
-41
-66
70
-59
-20
21
-12
7
13
-23
-11
28
1
-107
-29
-12
7
-19
-34
21
-19
-15
-42
-7
-19
8
1
-16
2
-3
-67
-26
-6
11
49
26
-8
-15
30
24
43
49
-7
-41
7
27
81
13
-16
-51
-3
21
15
-48
-34
1
46
-31
-22
-33
-22
15
3
-21
-23
-3
-19
-1
1
21
-73
-28
-47
-32
22
-20
-1
-49
59
25
34
77
40
1
8
98
22
6
6
5
-7
3
12
18
127
49
28
-21
-25
-7
-15
-50
-87
-10
-21
-27
-98
-64
-13
-5
-29
-64
-32
-34
14
-27
-11
-76
57
-15
-12
6
71
4
-11
48
-31
19
41
61
-22
-46
9
-5
123
63
9
-2
-17
-4
7
-2
-24
5
13
40
-72
39
12
-54
-101
-32
-40
-28
18
1
-39
-80
-72
-29
15
22
11
-41
-5
-36
-37
14
16
-59
-18
-25
-3
96
51
-19
-50
-28
16
0
2
-53
-39
-2
2
20
-6
27
11
4
63
21
41
78
-13
34
2
27
-67
17
46
-63
6
71
19
-92
11
-26
15
-26
10
-69
-5
30
-99
-14
-38
-13
-24
35
12
-21
36
-50
-37
-52
-87
-19
2
19
127
99
17
26
15
93
-4
11
-87
14
24
13
49
-26
6
64
90
9
19
37
5
27
7
-49
21
12
-8
-20
-125
-36
8
127
52
-1
-15
64
107
37
-12
-50
-22
-23
-71
-88
-68
-8
-5
-88
-111
-46
-4
-21
-4
-16
-10
-29
-28
-10
1
-16
-93
-27
2
-22
2
45
47
-26
65
46
-14
12
-12
-23
-86
-14
24
89
19
36
-4
-23
26
44
-39
-34
-2
4
28
6
-29
-60
42
6
-16
-40
-117
-28
5
31
-64
-94
-29
-93
34
34
64
-15
27
45
7
12
-67
12
33
62
60
87
20
29
59
-8
-17
41
57
18
15
-3
-10
-5
-10
12
-77
-38
-2
-74
108
48
0
-17
-8
-40
-13
97
127
8
-26
-70
32
-97
6
75
-4
29
20
7
26
37
5
-14
-16
-48
-11
21
-1
31
-10
-30
-122
-80
-39
-14
-104
-89
-14
-45
44
18
68
32
-2
56
8
-60
25
-15
-29
-29
28
-15
2
35
24
-101
-59
-36
-48
-11
15
63
18
114
42
39
5
-76
-17
-56
-71
30
-19
-2
-33
-56
-24
-39
-53
-9
59
48
49
-8
3
-65
-24
6
-43
-54
3
-23
-3
70
66
-50
-16
16
36
50
9
-28
-51
-52
-9
4
7
32
9
-75
33
-22
-11
-37
-34
0
11
71
94
25
-4
20
-16
-55
-13
62
33
8
23
-9
65
9
-6
67
90
29
21
15
27
77
11
-77
-128
-47
-3
20
-11
-54
-17
-53
-43
-117
-38
1
-38
-14
15
75
86
88
38
12
-22
47
23
86
63
65
80
-28
36
-66
-10
125
-22
-31
5
-16
-6
58
-3
-73
-83
-19
4
62
-20
-40
-12
-80
-128
-128
-78
-96
0
40
-9
-80
3
-7
-31
2
-81
29
-4
-49
103
95
30
-18
31
4
-1
74
27
26
5
-3
-27
-55
9
29
-21
-16
3
67
31
-42
-14
-78
0
-12
0
-10
19
5
31
72
65
8
-31
-13
-62
-30
-17
13
71
63
33
-1
42
-3
-11
-9
-4
22
71
17
65
70
1
-85
-113
-107
-80
6
-15
-22
11
37
87
40
-32
-38
-37
-12
3
6
35
-82
-29
-11
-5
-20
-2
12
-6
96
19
11
-80
81
0
-49
-95
-71
-32
-55
79
37
-12
24
-93
-47
-56
38
-43
-27
2
-104
-19
22
11
-14
-27
19
-10
61
25
-6
-7
-5
36
13
15
85
7
47
40
29
-66
55
11
-26
-89
-46
-49
6
46
11
8
-41
99
50
5
-13
26
-38
-2
21
-5
-19
-22
-8
-23
-2
4
-4
-4
29
51
16
-1
-12
-3
53
33
31
62
77
14
20
3
-38
-104
-37
-16
-31
-26
20
25
32
127
23
-7
7
-40
-14
0
31
17
29
-21
-37
-7
-83
-31
-93
-42
-3
-10
14
15
2
7
7
-33
5
-43
16
-12
11
-14
-99
-127
-120
-2
-10
-38
-19
-10
-28
21
87
61
24
19
-74
-18
-5
-9
-38
-24
-68
20
22
-1
11
-23
39
62
40
54
-24
2
8
85
-30
-41
-24
11
26
13
-52
-97
-58
-67
13
-32
22
0
-6
35
3
25
-40
-2
-25
1
17
86
32
16
7
-1
28
12
-12
-9
60
70
29
41
-35
15
97
53
-17
-22
41
14
111
27
-86
-62
34
26
36
-52
-68
-56
-77
-75
-124
-88
-34
-14
-32
-18
-62
-37
94
56
-40
-1
13
10
35
-5
-25
-15
-40
24
-21
-4
-54
-128
-53
0
54
32
49
6
55
117
-77
62
-52
-1
62
16
23
-23
73
-55
110
-93
-70
-17
-57
-91
6
9
-78
54
-40
-14
5
76
36
87
30
72
2
4
-23
1
30
10
42
-2
-37
8
31
59
-59
-7
-1
-18
69
-15
86
-1
-19
-38
7
-15
-34
-5
-40
2
-32
-31
-36
7
58
26
114
45
26
-11
16
-18
-17
-14
-94
-28
10
26
-63
0
-59
-14
27
120
34
-9
4
-53
0
5
-88
-79
-14
-19
-26
-51
-7
-10
127
73
-22
23
-17
49
55
10
7
-116
-10
31
7
18
-75
-8
-59
-17
-19
-38
33
27
7
-23
-21
-21
-57
-95
-14
-17
-53
5
-69
-128
65
34
-63
-73
8
-6
-89
57
-88
77
69
99
24
9
29
34
19
-47
-55
-51
-38
0
63
97
-24
-29
25
4
-8
17
-64
-2
81
-45
8
-10
28
20
45
62
9
-7
41
-25
13
2
46
14
-37
9
8
-4
18
-12
4
-22
2
1
-36
7
33
-2
-23
-29
-3
18
31
-14
-91
-20
-94
-121
-48
-51
-74
18
34
-2
-64
8
-53
-25
21
-21
-79
-21
54
-41
67
30
-16
18
89
23
49
3
8
55
70
27
71
-1
13
39
-37
-73
-62
12
-74
-8
-31
-13
-9
13
-57
-26
20
-10
0
14
-26
48
72
-1
-18
13
-24
-26
72
26
-4
28
17
14
5
-14
40
1
43
-30
-17
-8
-39
10
19
44
-35
-9
37
17
30
39
-1
4
-5
-3
-46
-15
-7
-38
-20
-17
-11
2
9
-23
-50
-86
-49
-51
-19
-2
-13
14
28
51
43
13
23
10
6
10
69
88
78
28
6
0
-25
-11
-44
16
23
-25
-1
0
15
-4
6
-20
23
-3
-16
-1
8
-10
-88
-84
53
-8
26
11
1
25
-16
-5
-13
3
-34
-7
4
-18
18
0
-82
-25
-23
1
-9
-20
12
4
-82
1
-3
10
9
-2
-4
3
-39
11
16
1
21
8
-2
-12
-78
-10
-16
-6
-19
-5
-16
-17
20
-8
7
7
-9
9
12
21
9
11
24
3
22
5
10
8
-20
-1
18
4
-28
1
-4
-15
22
2
-11
-18
10
19
-20
-15
-50
-14
-13
5
0
-38
19
14
13
0
-14
-6
7
-36
-9
2
-22
-2
13
-12
-7
7
-21
-13
2
6
-23
0
4
-6
-3
-1
-21
-5
-6
-5
27
49
25
14
22
-6
1
-4
-3
11
-4
-8
-55
9
9
0
14
-12
-18
-7
-32
2
2
1
13
48
0
-9
52
-3
-8
-8
0
-92
7
-1
76
1
-7
-1
5
3
-15
-8
73
1
-1
4
23
26
-9
-11
-6
-4
-14
7
7
-14
14
4
41
-3
5
6
10
58
-1
5
47
-2
-5
-10
-20
-87
-21
3
92
0
-3
1
21
72
13
8
34
-4
6
-3
10
25
12
4
17
0
-1
-6
-19
-19
-6
10
21
2
4
-4
2
-20
2
10
22
-2
-1
18
-20
-51
-33
-8
67
16
21
15
-14
7
-15
-25
-21
-7
0
3
-10
-13
8
31
-43
-2
-2
15
7
61
10
-9
-57
-6
74
-9
15
28
20
-10
-69
-27
-90
-24
5
-47
1
-12
-14
-7
-30
-18
2
61
21
0
-89
-24
-15
-12
3
-55
-8
-13
-24
-75
23
25
-21
-24
-7
5
67
78
71
55
38
63
16
11
48
74
-13
-60
-95
-49
-55
-56
-65
8
-41
-30
-6
51
-38
12
-72
-38
-34
-19
24
85
49
-6
-47
-2
8
-6
10
-64
-12
8
-61
-73
-17
15
11
-78
6
17
110
73
45
-41
-42
-21
-11
-7
-12
-7
-72
17
8
66
6
-2
-25
-78
16
-31
-39
-94
-56
-15
-24
57
35
21
11
111
1
3
-39
24
24
6
36
76
6
-14
-48
-69
15
-9
-4
-10
2
16
97
53
-74
-1
-20
25
14
-5
-16
-18
12
11
16
-107
-13
-4
40
40
-20
40
76
57
47
11
21
39
19
-9
-61
-117
-25
-4
-44
-27
12
0
12
97
8
27
10
-73
-9
11
18
39
-2
10
-34
-5
12
6
-4
27
-3
31
42
68
-13
9
41
-35
26
12
-15
-4
10
-18
-58
-52
-32
-19
13
11
-2
-2
17
56
12
-9
-26
-66
-16
25
0
0
11
-17
28
21
7
-15
2
6
-7
-5
46
46
2
-3
-18
49
4
1
-41
14
18
8
30
8
19
-5
-4
-23
4
-5
-47
-58
-7
-14
-4
7
-15
-17
-9
-100
-75
-15
-20
-21
-5
-19
33
103
59
-4
-26
-16
-34
-1
6
15
28
-3
-4
-23
-7
10
-40
-22
-17
-5
26
38
2
10
13
7
-1
-3
-19
-56
10
-5
-10
-32
-24
-5
-11
-4
-4
8
35
0
4
-1
20
51
20
-10
-35
-11
14
0
-53
-17
-24
22
13
21
-15
-10
32
-8
2
-24
-7
-44
7
6
18
-5
-16
2
-9
4
0
13
50
30
4
1
8
14
18
1
-3
4
11
-12
-22
-5
16
1
-9
11
0
28
10
-2
-28
-7
-13
-41
10
-7
-17
24
-21
-2
1
4
8
2
16
34
2
1
-13
12
3
4
-1
-6
-1
-2
-15
-8
-2
12
15
8
25
7
21
26
13
-36
-29
7
-8
-6
-20
-26
-15
1
-22
-71
-33
-10
4
1
0
0
-1
18
3
-30
-9
4
-6
-15
3
-13
-6
-9
23
9
12
25
25
17
-1
-2
-14
-11
-5
5
22
-2
10
6
5
-11
4
-17
-17
14
-2
11
-16
8
1
21
30
-11
-7
4
-3
6
11
-2
-3
61
21
9
13
0
-8
-5
-16
-80
-23
7
25
1
6
5
8
-69
-2
7
-3
12
-6
-5
-10
35
-23
-2
-1
-3
3
5
3
15
1
1
-10
-14
-4
7
11
34
14
0
-8
1
2
-8
5
17
16
30
-3
8
1
-11
-27
-38
5
18
1
2
-3
-6
-21
-32
-6
3
-8
-17
-2
-7
9
-7
-2
-7
0
9
-2
0
-7
12
3
-16
-2
-9
-2
6
13
5
0
-11
6
11
0
7
3
0
0
-7
-10
-5
-2
-1
7
2
14
-3
15
5
4
-11
-6
22
-9
-5
-1
-4
-3
-9
4
-34
-11
-8
-4
4
-3
8
-16
-15
-2
-3
-3
-8
3
14
18
20
-4
-9
-3
-2
2
-2
-12
3
5
11
2
1
1
0
8
-22
-12
3
1
7
-8
-15
-31
-23
2
-2
2
-6
-3
-12
12
20
2
-2
-2
0
-4
4
7
20
16
-3
-5
-2
3
11
-22
0
32
6
1
9
13
-32
26
-15
-28
1
-3
-15
-15
-19
-34
-16
-18
-1
10
2
-8
14
53
67
40
23
7
-1
5
41
-6
-26
-39
-21
-4
8
8
21
7
-5
59
22
20
36
44
-67
-56
13
-10
6
-10
-12
-19
40
31
-26
-89
-38
-28
-35
-20
36
9
2
82
19
-6
-14
-8
-24
-51
0
-83
-25
-26
-34
-68
36
30
5
62
19
12
16
37
-29
54
7
0
3
26
50
30
-46
-52
-40
-53
-14
-1
-21
-13
20
18
13
22
1
-9
-7
0
14
-7
17
15
2
7
14
-13
-28
14
4
-22
-10
17
52
-9
10
-22
-5
38
-4
-1
-13
64
16
15
-31
84
61
-5
-18
-41
-23
-10
9
-19
1
-15
-22
1
-19
1
29
-114
-30
3
27
-10
-82
-11
-28
74
37
30
7
-38
39
6
-8
-20
-39
-34
-33
43
-35
27
10
-64
-21
-9
4
-2
99
-50
-17
-41
9
6
-13
-3
39
65
40
-40
-3
11
36
68
-8
-63
-2
84
25
9
-17
-79
-9
51
-21
-34
-14
-9
-13
-14
-59
-46
-45
22
-26
-19
-33
14
5
-6
5
-28
1
-2
-12
-39
4
-3
-1
-36
-26
5
55
96
30
31
32
4
-2
-2
8
-19
-59
-6
14
22
2
3
-10
-35
13
-36
-9
-22
-5
-13
7
22
82
42
8
40
-22
-1
-37
7
11
33
4
23
50
17
5
4
-27
-83
-36
-45
29
-2
-14
20
32
78
20
-17
5
-7
-15
-81
-53
-76
-7
40
9
32
29
-13
94
61
23
17
-10
-12
10
57
-9
3
-8
23
-6
-11
-13
0
3
-11
-9
-92
-38
-10
-11
-17
-74
-18
-2
19
-28
-4
-3
0
36
-46
-14
66
39
-5
9
10
-1
-19
-5
22
30
5
-1
4
-74
10
9
32
4
-15
-2
-18
27
50
-10
-110
-44
-30
-16
-9
22
-37
9
-19
-56
-21
-12
-21
-23
46
12
65
72
28
19
42
78
7
-4
-54
-16
-29
-20
-40
-6
-17
14
39
36
22
-11
-9
-24
20
-3
-24
-21
-18
-12
16
-7
-34
-11
6
-22
14
-7
-32
-32
-15
0
2
0
14
-5
16
-12
43
-4
-73
-10
7
40
3
2
-28
-4
19
14
14
38
12
43
-13
-6
25
-35
-18
-8
20
32
25
10
39
24
-3
5
31
-4
45
-5
-34
-23
-18
-24
-37
-43
-43
-16
-61
-1
13
-22
-39
-45
43
18
83
16
1
3
-8
54
-25
-15
26
-9
2
10
51
-10
-4
-6
-26
7
-34
-30
-3
-25
11
4
-16
-15
-7
2
-25
4
7
-22
-58
-16
40
92
40
-16
-35
6
-5
12
-24
-38
-13
-8
45
15
45
-1
-10
1
15
-5
-11
-1
-6
-17
-14
-25
-13
-28
4
-3
-76
-37
-5
-8
7
-54
-68
-5
85
48
30
43
13
90
12
2
-46
51
48
16
-28
-12
64
-5
14
0
1
-18
5
-10
13
12
36
-6
-30
-44
-55
-2
7
-6
11
-26
-6
36
31
-16
-5
4
-6
-7
-14
-8
24
-7
-70
-14
-34
6
24
25
-13
13
44
14
15
-5
-42
-31
7
-41
1
-37
-81
-35
-29
-40
-13
10
-36
-6
11
-53
40
27
-23
22
-1
2
-16
-43
10
58
31
-28
-22
4
-17
89
-11
-52
-21
-36
1
6
42
30
19
5
-16
-12
39
8
25
69
37
41
-24
40
-28
-1
85
7
29
-6
25
33
4
-7
-14
-29
-6
3
12
-13
33
3
19
-14
1
-3
-34
-58
-40
-14
-5
-39
-27
-29
5
55
-9
5
33
12
-9
22
23
64
35
2
8
-32
-21
-12
1
-38
-79
-6
-88
-20
-3
-5
-17
14
62
18
72
12
16
5
-4
-84
-82
-27
-15
1
-21
-26
9
2
-27
-9
-5
5
-24
-25
-23
-3
21
19
39
-16
29
50
20
-17
-26
-13
-83
0
-42
1
-16
47
25
5
45
75
27
4
68
-11
-23
-10
35
-17
-15
-51
-68
-1
49
12
-44
7
-23
5
18
35
-14
-9
-11
-57
-56
-7
52
27
30
-4
-99
-61
63
14
-15
-66
-55
-3
56
75
50
36
27
87
55
13
36
28
17
9
7
-17
-103
-20
-30
0
-4
26
33
-51
16
-11
-62
-29
-72
-90
-59
-46
30
11
-13
-47
4
26
22
47
2
-13
6
-1
-20
-67
-25
40
-13
-3
-18
38
-5
-12
15
6
45
20
64
5
-7
6
-11
4
-46
2
-90
-50
-3
-3
-39
-68
-3
-7
-19
8
-3
29
20
77
17
-4
15
-12
21
40
43
-35
-97
3
-62
-18
8
-13
-39
27
48
4
-19
82
11
9
19
-83
-22
-6
3
-16
11
-8
-17
-56
-25
-4
87
1
20
71
-56
23
12
17
-8
-21
-66
-20
38
38
24
-3
-23
-44
-103
-22
5
-7
-31
10
-34
20
84
29
-15
-128
8
0
-65
30
41
37
-29
39
58
-8
110
25
10
-11
48
23
-85
-9
24
-38
-15
-10
22
0
61
-8
-74
-65
-39
-18
13
0
-7
8
-24
28
-23
-37
7
-70
-26
-9
19
43
49
19
-41
30
-1
-4
4
34
30
-10
2
8
-42
-10
-51
-31
-22
-6
-20
14
-3
1
22
-40
0
-26
-22
-26
25
-12
-113
-22
-32
4
-15
3
32
6
125
43
11
5
14
10
-32
-6
36
13
-105
-39
36
10
14
-6
-23
0
53
27
-25
-19
4
10
-19
35
95
-65
-15
-13
17
-1
-40
-60
37
92
44
6
41
8
8
10
0
-30
-56
30
-16
-9
7
21
-100
-51
36
-24
-5
8
10
-13
-26
23
-17
-16
-7
8
-17
-16
27
-21
-42
5
-1
18
-1
-7
28
-4
39
51
47
0
17
-9
25
6
9
-58
-36
-17
-5
-4
-14
27
-19
16
20
-13
-46
-1
-24
-5
12
-5
-23
4
-80
-39
9
40
1
-21
87
-5
-31
36
30
-8
-5
-24
-19
39
28
-47
-18
15
36
84
-27
-10
-19
110
-3
42
14
-36
-20
-4
46
-32
-94
-93
-59
-8
-9
-1
-62
-75
83
56
8
-3
-12
0
81
113
16
17
-61
-29
-6
-3
105
40
35
24
74
29
14
-5
-20
-59
33
32
24
-60
-21
1
-36
57
-51
-40
-17
5
25
-13
18
-55
-14
-14
1
-90
-72
0
-12
-24
7
-20
-47
76
-3
-39
-47
-5
7
-9
14
-16
34
16
76
-1
-28
-23
27
13
-15
-1
-14
8
-9
3
5
-47
7
-8
13
-59
-28
-41
-34
-93
-61
-36
-72
11
-4
37
-69
75
-53
-10
64
32
-7
-5
51
84
60
20
12
55
11
-5
20
-3
10
2
-101
-48
-12
-26
-12
-62
25
20
120
17
-2
-2
-24
23
-38
-23
-37
2
12
34
70
-7
-29
-16
-28
-116
-8
4
-7
49
31
10
7
76
-2
-23
-10
2
5
16
-21
76
-5
1
10
-52
-30
-6
2
-11
77
9
-75
-49
24
14
87
64
8
-22
5
27
13
28
-1
-60
-9
1
30
1
-2
5
15
28
34
57
36
-58
-6
-2
-104
-43
-65
-50
-19
12
-38
-33
62
21
-21
-12
-99
50
21
-1
-33
-40
17
48
16
22
-2
-8
-40
41
1
-9
11
-80
-42
35
106
53
12
12
4
53
69
-1
-97
-43
-4
10
19
-76
-37
-21
-85
-62
-33
-24
-8
32
42
-3
-56
70
-25
-13
11
-17
-5
11
50
-34
23
57
-1
-61
16
-11
-19
20
-14
-54
-7
49
-8
-8
54
24
26
13
14
65
18
15
-28
-53
-30
-4
11
-32
-14
1
14
12
-23
-25
-22
-14
26
8
15
25
91
70
2
-23
-34
-20
2
-73
35
44
-6
58
91
21
10
-23
-10
-46
21
-35
-45
-15
-83
-21
-61
-55
-8
68
38
0
-31
-33
-29
-2
0
-24
-6
-4
70
20
17
14
-1
-26
-95
-23
50
18
12
25
26
32
-9
-4
-10
39
-18
-33
14
11
14
-1
-86
-53
-19
-9
19
-85
-1
-19
-123
-27
-40
-21
-47
-5
4
28
127
85
37
28
11
49
11
-7
39
-17
4
-5
20
21
-8
13
5
-18
14
18
-6
0
-4
-1
-30
55
-18
5
22
4
-10
-21
-6
-38
50
-18
-65
32
5
5
-45
80
-19
-6
40
-27
-29
14
-47
-89
-26
-15
1
-37
2
2
-41
22
-53
-1
-39
18
13
-6
28
63
56
7
45
31
44
5
-43
-32
8
-13
-14
-18
-37
-17
-1
47
-11
-5
16
-21
89
20
57
-61
16
1
-28
-6
-15
9
-46
-37
1
49
0
-18
40
2
30
-47
-17
-6
7
-12
-87
-34
-80
-59
-52
-17
-21
56
84
0
-6
45
2
-3
40
-71
-35
-7
17
-53
7
41
-66
97
54
9
-49
25
3
8
-2
-19
-42
-2
-29
-9
-2
-51
-8
-28
21
13
112
101
36
-47
-69
58
-15
-1
-128
-105
-19
-6
26
-3
-34
15
87
98
-13
-29
24
-38
-14
-7
46
44
16
0
30
36
4
9
-7
-63
-11
49
17
-90
-23
2
-13
-33
37
10
-46
-18
12
-29
-126
-108
-6
-24
-15
35
23
24
91
50
-5
3
6
-7
15
-6
-24
9
17
-6
12
-14
-94
-14
-15
-15
-60
-15
5
-3
34
-10
83
17
15
7
-54
12
28
12
-48
-18
-13
41
45
100
51
-4
-50
14
4
-8
0
-23
28
4
-12
-85
-36
11
17
-55
-13
3
-86
26
-13
-23
-13
-5
-5
-4
-6
79
55
127
45
2
-29
4
-31
22
6
-73
22
34
-18
4
-3
3
-94
-100
-52
21
22
1
-1
-59
58
43
63
8
5
16
-30
76
49
89
-1
-14
-49
-4
-59
39
118
24
12
-5
69
18
-48
-5
18
-1
38
-21
-23
8
-4
-84
-46
-30
-33
-35
-60
-18
71
-26
-59
-25
-35
-14
-5
0
-43
-68
-51
-6
17
28
78
17
106
22
18
-18
-1
25
-13
11
-22
-16
-19
-10
-61
35
10
-7
-47
9
0
-3
20
-4
-54
-17
-80
-5
-40
-28
-19
-23
-20
-11
-65
-59
-8
-46
-33
4
14
0
-128
24
20
110
13
-81
-17
16
111
72
26
-47
-54
86
35
18
-67
10
-18
-4
71
6
-27
-9
38
104
41
35
6
-17
-17
-19
-78
-84
-91
-46
-5
-37
23
-3
-5
-27
72
-34
-6
-5
-25
16
127
82
60
112
22
-21
28
22
82
11
44
29
-4
-23
-8
7
15
-55
11
-28
19
8
-34
-13
-54
-113
-100
-17
-15
-24
37
-16
-56
-128
-57
-47
-50
31
5
-27
-127
50
-7
20
57
-36
-32
-17
15
98
7
0
-43
77
110
41
-96
-91
-40
2
31
20
-101
-24
-82
-20
-18
-5
-31
-37
21
1
-62
-34
-85
-77
-25
53
-82
-5
-91
-32
36
62
-5
-15
85
6
38
102
38
27
7
30
34
6
9
-63
2
-27
1
-9
29
-13
95
104
85
72
46
-60
0
6
-62
-110
31
-12
16
39
-22
-10
15
11
-32
14
2
-27
-57
-2
33
49
18
0
-15
2
21
-3
58
-106
-75
-1
-7
-22
-34
-20
-21
-43
-56
-44
-30
-11
10
0
79
-60
-10
-7
-32
-37
-78
9
102
92
-11
-40
7
25
-7
-5
1
-6
57
0
-19
17
79
-14
120
-9
33
31
37
-8
-103
-48
-128
-128
-65
-15
-5
-22
-11
9
39
27
-91
-30
-41
-20
-61
14
-5
58
63
39
-63
4
-26
-7
79
46
33
-62
3
37
21
-17
-78
-1
67
83
84
-25
32
-4
-91
-101
-4
-79
-1
-15
-4
-2
1
67
-28
-16
45
-9
26
15
16
-77
-3
-9
-43
-12
-25
4
16
127
67
-11
-6
2
23
1
85
-38
18
58
18
10
-7
-10
-1
-83
-43
-3
-4
8
-6
8
-8
-26
-66
-32
-6
-11
13
-1
-5
-16
-53
-62
-20
0
-7
-11
-30
-38
-6
32
13
-18
-13
-5
-65
-8
-26
-12
-15
20
-1
-7
0
60
14
15
21
-2
-6
12
27
-1
4
-6
-1
-6
26
4
-14
21
19
19
-23
13
-23
10
-11
9
14
-9
26
2
14
-9
30
44
57
20
9
-12
15
38
82
47
81
-8
-7
1
-11
-7
-48
-17
-25
-3
-10
1
16
-29
-18
-22
-50
-3
-1
5
11
4
8
15
-49
18
11
-14
-2
-11
-44
-34
-62
-21
-23
8
20
18
38
28
-24
7
1
8
-2
3
-11
-15
15
10
5
2
16
7
-1
25
-49
8
-4
0
-2
2
-5
-11
-58
-21
-1
-6
-9
-20
-3
10
1
5
-12
0
4
-2
4
-8
10
1
0
4
15
-3
5
8
63
-4
1
3
6
31
-20
-24
84
-6
1
6
1
24
25
35
97
9
14
-16
2
-95
-10
-14
68
-1
-1
2
6
28
8
45
69
2
-20
1
-3
-5
-16
-10
7
-5
31
-6
10
8
-5
-12
14
-3
-3
14
0
33
18
1
12
-1
-13
-4
12
12
4
-12
-26
4
6
0
-3
-16
-9
-13
-34
-1
-11
-6
-6
-20
-8
1
-58
-14
1
1
5
2
1
-9
-12
6
0
-3
-3
1
4
3
-16
4
3
1
8
10
-5
1
-26
-8
-12
5
9
-32
14
3
11
6
6
-9
-28
27
-7
-4
-28
-8
-16
-16
3
-76
-19
-7
-4
-2
-6
15
-2
26
3
4
-10
-4
17
-2
10
41
-1
2
-12
7
-8
9
10
-60
-6
2
-2
1
17
5
-3
25
14
9
-2
-2
6
-28
-7
24
-13
-9
-19
-13
-7
-12
-9
-43
-19
-7
-9
0
-34
-4
7
53
4
-2
-20
2
15
13
6
16
1
-4
-27
-12
-6
-2
-5
-56
-3
9
64
33
-1
6
7
43
20
5
30
13
20
-4
-7
-41
-10
-3
8
2
-3
-3
1
6
7
0
-9
0
23
9
1
23
-4
-7
-33
-13
-11
-6
-27
-38
11
0
-9
-3
1
-2
9
29
0
0
-3
-5
-4
6
8
34
-6
4
3
9
-3
-6
2
-4
-7
1
-4
-8
7
-6
-19
-28
-24
-11
-4
-7
3
5
22
68
-4
-3
-6
-4
3
-8
-42
-16
5
-2
2
0
0
14
-1
-81
-6
-2
-62
-16
-16
-20
3
-68
-46
1
41
8
11
-12
3
84
65
10
29
-1
-20
20
12
-9
22
4
25
13
-4
-4
11
107
31
0
14
21
-21
26
-2
-95
-21
-2
10
7
29
-12
-24
-46
-50
-4
-4
-15
-25
2
37
89
61
15
15
9
8
-13
-35
-88
-34
-8
-42
-32
-31
-5
11
127
23
-2
-25
-5
-10
-15
-20
-111
-57
-13
11
11
14
-1
0
97
14
-3
-18
3
1
0
3
-59
-17
-4
-42
-25
3
2
-10
18
8
4
65
11
-8
12
12
23
22
7
-10
9
23
1
12
-128
-23
-1
-12
-16
16
-26
-31
12
-38
-10
22
5
-11
13
16
16
26
0
6
15
11
5
-7
40
0
-2
12
17
2
-24
-10
29
-13
-10
-34
-32
-34
27
11
-42
16
8
38
33
46
-10
-6
-33
-33
-5
-32
-15
-14
6
5
22
15
-5
-6
-14
11
2
-3
-1
-26
-1
-12
7
-1
-2
8
-30
18
7
13
-25
-6
0
-5
16
8
6
-22
-7
14
0
8
23
7
-2
-22
-2
-15
-9
3
23
-20
-2
32
-2
8
-2
-30
56
41
-4
-4
-5
-12
4
24
-38
4
-1
-7
4
-5
1
-6
-63
-21
-6
3
-7
-7
8
-6
-14
-5
-1
-48
-19
0
-5
28
53
-14
3
18
9
-3
2
4
67
29
9
27
20
-8
16
6
-2
9
8
16
-11
-1
-9
-8
24
19
-4
18
12
7
2
-21
-35
-21
-4
-11
15
6
0
8
17
2
-8
-17
-9
-12
10
-10
-6
2
-5
-7
-1
0
6
14
11
27
-3
22
10
-1
-28
-15
-39
-23
-5
-21
-8
-4
4
-8
-9
-15
1
-5
3
-4
-5
9
44
15
-3
-1
-3
-2
9
-17
-23
-4
2
5
-3
1
17
25
-17
12
5
3
3
6
-30
-22
-22
-8
-7
-45
-35
-4
0
-3
-22
0
3
37
13
-2
-3
-14
-28
-25
-3
-1
1
-6
7
14
8
9
3
8
0
-1
2
16
52
19
-1
-1
-4
2
-7
10
-20
12
1
-22
-5
-1
-19
-35
-82
-53
-10
-27
-8
-5
4
-8
12
-12
0
28
-1
0
2
3
7
1
1
16
12
1
-10
-2
22
-1
-4
-16
-4
-6
1
15
53
29
3
-15
5
-2
9
16
9
-1
3
30
16
7
-2
-22
-76
-31
-6
-15
-9
-5
8
11
27
15
1
0
-4
2
-3
0
-56
-18
-4
-2
6
0
1
2
103
30
1
-5
-10
-4
4
0
-57
8
3
4
1
-3
-6
-18
-28
-24
-1
-5
4
5
9
19
14
-2
-1
8
0
-1
-6
-7
6
-2
-3
-6
-1
-5
5
-1
23
-6
0
4
3
-3
2
18
10
6
0
-12
-9
-1
-3
-23
-12
-4
-3
11
0
-1
-3
6
0
-6
-6
-1
-3
-2
-2
-2
27
18
7
-3
-2
1
6
-4
25
-3
1
-1
2
0
-6
-12
-13
-15
-5
11
1
-1
-5
-10
-5
-2
-10
-11
-6
-3
0
0
26
16
9
-5
1
1
-7
-5
-8
13
8
2
4
0
1
13
2
4
4
7
1
1
-1
-5
-32
-16
-11
-13
-6
1
0
-2
15
-9
-10
-6
-4
-3
1
10
5
-68
-14
-2
-3
-2
14
-19
4
70
13
9
5
8
4
29
-6
11
-5
-2
4
2
-21
-29
-32
-10
3
-6
-11
-9
-2
-10
-6
-16
-3
-4
1
0
0
-15
-3
-24
-15
-2
-2
-2
8
31
14
15
15
4
2
5
10
-5
18
11
6
5
6
7
7
16
17
1
-8
-12
-1
1
-8
-20
-33
-24
-5
-5
-5
0
-21
3
13
-31
-11
-7
-3
-3
14
16
14
0
-3
3
-9
2
3
-47
-17
68
23
11
13
7
-10
32
38
-10
2
5
-7
-10
18
20
-52
23
13
1
-1
2
-14
7
-5
-47
-10
1
23
18
2
-5
3
33
15
19
2
-16
21
18
20
25
13
1
-4
-5
-7
-13
-7
-31
-17
-24
-57
-54
15
19
19
-1
-2
-6
5
-14
3
86
6
15
3
13
21
47
-35
-49
-12
-22
-12
-6
2
-15
-17
8
21
-5
8
4
11
11
-5
-38
-29
-25
-8
-2
22
11
-11
-37
14
1
-9
-4
-18
8
-28
30
-13
-45
-13
7
-25
-51
53
33
62
30
16
22
47
21
20
-24
-6
44
2
-12
-23
1
-21
22
-95
-50
-14
-23
-5
-30
-1
13
39
-30
-10
-6
-13
28
66
-26
-12
71
16
7
-3
32
-5
56
44
-32
-12
-3
25
-28
-18
-20
-7
8
14
0
-21
-35
-18
4
-25
-55
-18
4
16
7
2
-42
-4
54
2
0
-12
5
-4
35
-5
-28
13
6
-14
-22
9
-40
12
-12
-13
-10
-43
-4
-5
-8
-10
25
7
-4
33
-13
-31
-17
-7
-108
-23
3
23
6
-4
-46
-15
42
0
-24
-23
62
-23
-12
7
-42
-28
-19
-32
-59
52
-11
29
44
31
21
23
48
-58
-12
-21
-12
-8
-10
-13
-44
15
-1
-5
-7
-35
-10
-18
6
13
39
32
-31
-19
6
-4
6
36
-20
-10
-2
56
31
16
45
12
-11
-1
65
3
-3
0
7
13
6
-3
-4
9
14
0
-49
-39
2
0
-22
-55
-7
33
44
16
-28
-2
80
25
4
-19
-1
-23
17
9
-40
42
-8
16
81
-20
16
8
-11
0
-24
-25
-53
-22
-34
-14
-38
-23
40
18
-32
40
15
-11
34
-14
-2
9
-17
-4
68
11
-9
-31
-19
-33
-14
-68
-33
1
19
-21
-11
1
26
15
36
-1
-39
32
-13
-21
-21
-61
-15
11
9
-8
8
33
-58
25
0
-18
-17
-1
-19
-19
27
43
8
16
13
21
12
-5
36
-34
-62
-6
48
16
-12
-19
-24
-12
91
13
-57
-31
-1
-22
18
-10
-8
-12
-15
18
17
32
-16
-25
15
-9
-3
-3
14
9
-50
20
10
18
39
32
9
27
71
48
-18
-10
-19
-26
-18
-3
-7
24
-59
-2
-20
-9
-4
13
-35
-11
14
9
-41
-8
2
-25
-3
16
10
4
83
48
-1
2
-9
-32
31
12
24
-8
-17
-16
9
-47
-62
-27
45
14
37
65
16
76
25
22
-24
6
-26
-37
44
72
17
6
-22
-25
-9
-1
5
-76
24
-3
-50
-18
-13
-29
-17
73
23
1
31
11
20
21
7
-85
-7
-9
-3
-15
10
25
48
-55
-30
-13
12
-9
-21
-6
-40
24
-41
6
-21
1
9
-11
0
-28
10
5
39
65
-4
-36
-46
9
-49
-27
-70
-10
20
94
34
63
26
17
33
46
-16
-18
66
-72
-39
-9
-6
4
14
22
-50
62
25
-6
-11
-30
-21
-71
35
43
24
18
11
-7
11
19
-56
-36
-29
-1
-20
-5
-48
24
3
-19
-8
-11
-2
-6
86
70
-13
49
4
6
8
-8
-5
1
71
19
-13
-14
15
3
-3
-15
-10
-10
20
-4
-15
-66
-1
2
-10
23
41
-17
-79
-13
-31
34
18
-52
6
20
-14
22
8
-12
-48
22
28
20
58
90
36
0
11
-4
24
8
37
11
6
10
-3
-15
-1
-27
-31
-54
-53
-50
40
-26
-42
-10
45
-12
12
22
-58
51
-4
6
-38
-86
-31
-15
20
-7
5
8
-41
101
47
-8
-3
-14
63
-1
4
8
11
5
42
66
19
4
-35
-110
-28
-19
10
-38
-62
-19
33
103
-5
-57
-66
11
-15
-1
-7
-16
19
2
-19
-15
-44
4
46
28
6
57
53
-1
6
14
10
3
-33
-11
11
-17
15
-10
-12
-64
4
27
52
-12
-45
-18
-122
-94
-26
-25
-45
-20
-53
-24
127
46
-29
-61
-63
-76
42
28
-1
16
28
41
14
-5
75
-10
-73
-38
4
65
36
85
-63
11
77
62
-7
-64
27
69
61
3
-29
-33
-10
-36
-31
-31
-48
-19
-67
-66
-21
-30
-39
-31
-71
-24
12
49
-6
-36
-45
-29
35
-6
15
-12
22
48
-1
9
-14
0
-37
15
-22
-10
16
7
-36
-24
-48
10
-10
-28
-41
5
28
19
-6
-95
3
1
0
-14
19
-1
0
79
-7
2
-36
-3
-3
17
35
3
0
-32
7
-75
8
6
-18
37
48
-17
11
30
-67
-22
-21
-19
-17
7
13
5
17
-5
15
-49
2
43
8
12
32
8
-58
-17
-29
12
1
-20
-5
24
115
72
9
7
-9
4
52
2
-52
9
15
-7
9
14
-18
6
-14
-35
-26
-12
24
-18
-17
-10
-1
-9
21
7
-27
-11
-70
-8
-34
-32
-11
27
19
41
32
5
65
64
18
0
-17
19
12
5
-29
-73
-10
24
27
-80
8
2
31
47
15
-27
0
-5
-6
-12
-31
-25
-6
3
-72
1
-45
-9
36
14
-22
1
63
50
33
10
-41
1
9
10
8
24
-81
-15
11
-29
-7
-21
-32
-47
33
3
-3
3
-12
-29
49
76
49
1
15
-11
-9
31
-13
-45
-2
-8
-18
23
29
4
12
8
-10
10
35
-76
-1
31
4
-102
-36
-23
70
83
15
58
46
58
20
6
-17
0
-19
-73
-56
-42
38
-10
-28
-38
6
-28
11
-29
-26
4
-68
37
-10
-41
-53
7
28
-3
15
-106
-29
-11
-2
-90
-53
7
52
24
23
50
15
20
28
5
-13
36
21
-10
21
62
39
17
-22
15
-23
-1
-4
17
-32
-5
-57
-1
11
-36
-35
-82
-64
-12
16
21
17
4
-51
58
39
7
2
-29
-14
63
91
18
29
0
-36
-25
-24
-1
-8
26
18
-5
-107
-44
-9
-1
18
-50
-10
22
66
-17
37
51
-63
22
-15
-28
-61
48
-17
-63
61
28
-62
16
-16
-30
-49
-84
-61
37
64
1
-39
118
1
-20
-10
-74
51
8
-89
-54
-28
-51
-32
-106
-62
-41
-69
-64
32
61
-53
92
4
16
127
43
32
80
123
-15
14
10
-88
2
16
-15
-10
-17
-56
-21
-4
44
2
-3
24
-60
-4
13
-61
-57
-8
-19
-108
2
14
-26
37
50
5
-1
67
63
7
12
-31
-50
-6
32
-58
0
50
2
29
1
-17
-37
-15
-30
-6
8
50
16
-11
13
5
-67
-72
-22
-7
-20
11
-53
-74
78
94
14
31
31
37
48
99
28
-34
-2
-33
-8
-15
-3
-18
-21
49
28
80
-9
16
-3
-31
-12
41
-8
-23
44
41
71
-16
-4
-34
3
109
-31
-25
-49
33
7
-17
-8
-95
-31
-27
-32
21
26
88
-3
-41
5
-9
-4
-4
-27
-66
-16
-75
-13
-8
9
24
-20
-2
-4
35
-77
-2
9
-68
-13
-32
-10
-8
86
4
-19
-5
61
-12
16
95
17
11
24
29
-5
24
19
6
55
11
26
45
-6
-7
-22
2
-25
-37
-33
-42
-9
85
16
2
-29
2
14
6
28
-30
-2
39
29
-28
-20
9
-45
32
-1
-67
-120
-2
-13
-50
-11
-60
-8
-29
57
97
44
96
-53
-76
-35
-27
-56
-13
-12
-83
84
66
36
-50
72
8
-22
32
-11
4
1
89
-52
-28
-33
-6
-37
-31
-2
4
38
-45
0
-27
70
-26
-8
-43
-52
20
13
54
-56
-53
-9
71
57
-25
5
-17
11
-55
-4
-61
2
-6
16
1
9
27
5
9
9
9
32
-9
17
3
24
42
42
11
4
34
-25
-52
-10
68
-40
-30
-40
-38
-1
21
-9
-109
13
63
33
-24
4
-23
2
74
-29
9
-15
11
-9
3
8
-44
-42
11
-21
4
-1
-24
-15
-36
42
-16
-16
0
-16
29
0
37
-26
-16
45
-24
14
46
5
-70
-27
-29
-19
50
1
13
2
35
9
-6
41
-65
-38
11
7
42
20
59
24
67
11
-31
-14
-23
17
-23
3
7
-47
7
6
68
16
1
27
-39
-10
46
-8
-56
-9
-10
-37
47
18
-54
-27
-98
-124
-33
-26
-33
35
64
7
-15
124
6
-27
2
-13
23
21
31
-32
1
0
8
20
10
6
78
127
34
12
-5
17
11
-1
-30
47
32
21
-1
17
18
16
58
-31
0
-27
-2
-11
-44
-31
-73
0
-15
-28
-30
52
16
-4
-43
-60
-25
28
28
-23
-22
-11
-36
-53
-13
2
-37
47
4
4
9
-21
-5
30
34
-24
-26
-1
-34
6
-12
0
-34
-45
5
-2
38
-5
-2
8
56
15
-12
-11
-40
-21
-28
-9
-56
9
-41
-17
-10
-28
7
-38
24
26
-1
10
-9
-59
-10
-13
-31
-20
-4
21
29
75
15
-3
9
-1
22
-2
-49
-56
2
19
12
-47
37
-17
-43
123
46
20
34
4
-21
6
64
23
-1
-4
39
14
-22
16
85
-19
4
-15
-13
-113
-11
-10
-75
-1
-17
3
-9
90
-9
6
33
-90
-24
-33
0
43
-10
-31
-90
58
-18
-41
-14
-59
0
-15
-47
-40
62
71
-19
4
-47
-23
52
27
1
-49
0
-19
18
16
-34
-49
-38
-1
4
-11
77
11
31
1
52
114
108
-65
-79
-10
-3
-48
-76
-107
-76
-13
54
10
36
-7
-6
-23
-11
-4
-42
-8
-74
-2
-18
-12
-22
25
30
-5
-49
-80
-3
19
-28
29
24
11
-11
79
19
67
86
22
18
16
-33
-90
6
22
14
-19
4
7
2
124
12
-22
-6
-41
-5
0
39
-4
-5
2
-33
5
-25
-9
60
-2
-2
-27
-21
23
15
0
88
69
2
9
1
-36
15
-10
-1
-104
-53
-54
18
-7
-42
-10
30
35
45
32
-9
-2
27
17
-6
-19
-30
9
-61
33
-55
-11
9
64
-77
-60
42
-23
91
21
20
-3
104
104
-39
-8
11
12
37
-45
12
83
36
-24
-64
-40
-102
-118
-106
-86
27
26
65
11
-15
79
64
81
-14
1
12
-3
10
60
1
2
7
-12
-115
-16
-78
-60
-53
-63
-37
19
-6
-1
-87
-6
16
20
-11
-4
95
27
96
20
7
-30
10
22
-69
-4
7
17
15
4
2
46
1
0
-94
22
11
-46
-30
-19
7
-10
-13
-99
5
-2
0
5
-35
-2
-128
22
-15
15
24
-47
-19
9
52
23
14
-28
-31
-18
97
10
-78
24
6
87
32
79
-8
-6
-12
49
74
-119
-56
31
-89
16
22
-4
5
49
39
-63
122
22
37
-26
-58
31
45
-13
20
-8
-45
-75
-50
-56
-43
-73
32
-3
17
91
-25
8
-18
-8
41
7
-10
-31
12
61
2
14
-72
-51
-30
-45
-32
-21
16
-31
-22
-12
127
89
-16
-37
-2
67
39
14
85
11
19
11
14
-26
7
-1
-96
-74
-8
-55
-56
28
-58
-19
36
36
39
64
79
-15
7
-7
-95
30
19
-3
-81
29
1
4
17
7
35
-4
62
-15
-84
-24
23
52
-53
-28
-54
43
17
-2
-106
-107
-61
-54
-28
-2
-29
6
32
28
11
2
46
9
8
22
-5
-4
53
91
97
-33
1
1
21
-21
102
-22
84
22
5
15
8
-33
-18
-60
-128
33
-19
-1
-21
-15
-64
-85
-14
-5
14
-16
-23
-7
-75
22
3
-18
-21
-9
11
-24
-17
29
-2
-11
-2
-9
-20
0
9
29
43
17
50
20
16
13
-15
-16
-23
-21
-12
-9
-26
6
-14
31
-4
1
-9
-4
43
-3
8
8
-21
4
-11
5
-32
20
-17
-18
-6
5
-20
-4
-40
-6
13
6
15
-12
5
8
57
3
15
10
-12
6
-3
-8
-18
-15
5
-20
-8
-5
-26
4
1
5
-27
4
4
-5
-21
-4
16
-4
37
6
12
-2
6
0
-1
-8
-66
-12
-12
2
-17
-8
-3
-8
-35
-7
-28
-10
13
-3
-8
-45
-45
9
-5
3
8
-6
39
103
-34
9
6
6
5
7
-22
8
-6
-7
-12
6
13
3
10
0
38
3
-10
-5
14
3
26
-3
51
5
3
8
-9
15
-15
-38
2
-13
5
4
15
-4
-11
-10
29
3
2
-11
-2
-14
0
-1
53
-1
-21
-8
6
-1
2
6
80
-5
-6
3
-12
-15
-1
-9
72
-3
2
-11
7
57
9
6
36
7
-22
-11
6
-68
4
-18
2
10
69
-1
-2
-18
-5
19
13
-6
-43
-4
5
28
1
-8
-15
3
1
16
-3
-56
0
-2
11
2
4
-9
-14
15
-16
-3
-9
-8
-15
-1
-3
11
9
15
-2
2
13
-3
-4
22
5
-4
-5
3
5
-13
2
-24
-15
-9
4
-7
5
-2
16
42
14
7
-4
-2
-54
2
-11
-48
1
19
-33
4
17
-8
5
16
7
-15
-17
4
-25
-4
-1
13
8
0
-38
-29
10
-5
-14
8
-13
-3
-30
12
1
-2
3
65
15
2
12
5
0
0
-3
-38
-5
-8
-15
-4
20
-2
-13
7
-17
-5
-20
1
-11
10
0
-13
7
4
-14
-5
-7
-3
12
27
20
10
3
3
-8
-10
-12
-66
-15
-14
-13
-16
8
-6
-20
-21
-13
-1
1
3
20
7
10
95
19
-5
1
-10
-3
-2
-16
-86
3
6
-6
-4
-6
8
2
31
10
2
-16
7
-14
-4
10
52
13
2
28
-1
-14
3
4
-88
-37
-2
-4
-1
13
13
-11
37
-6
3
-9
-3
13
-6
-4
-8
0
-4
-2
-2
-7
5
-2
-36
-17
-5
-13
-11
12
0
-12
29
3
3
-1
6
-4
-6
-8
-33
1
-2
-1
0
8
15
1
31
-1
0
-2
-6
5
-6
-3
25
5
-6
0
11
-11
0
7
-14
7
2
8
4
-5
0
4
-8
-3
0
-6
0
4
-4
-7
12
-4
-5
3
-4
1
7
5
-37
1
3
3
7
-9
8
3
0
5
-1
-15
-9
2
-1
3
46
3
-3
5
1
-2
2
3
-67
3
0
12
5
4
-6
-7
-32
-6
-4
-11
-2
-7
-5
-2
22
7
-4
-4
-5
-1
-3
-5
-4
-12
-2
-1
1
1
2
-1
-4
2
-1
4
-1
2
-3
2
15
2
0
-4
2
-1
-2
1
-17
-2
-4
-4
-1
-3
2
7
11
4
4
6
-1
2
2
1
11
-3
1
2
6
-2
-1
2
18
4
-4
-1
2
-3
5
6
23
12
-3
0
1
-2
-7
-11
-19
-11
-10
-6
-5
1
-1
-6
5
-5
-7
0
-1
-2
1
8
35
-1
-2
1
-1
-5
3
4
-77
11
5
3
2
2
-8
-23
13
-12
-4
-15
0
-1
-6
-17
-27
-8
-4
1
-10
-5
9
10
83
15
7
-7
8
6
-6
12
-65
0
-1
-3
-11
-9
-3
21
-22
-6
4
-12
-8
-8
-16
-29
-50
-20
0
43
4
-6
8
5
32
6
2
4
-5
-10
9
-1
75
36
2
0
0
2
10
21
-4
-12
1
-16
19
6
-2
3
1
-9
-1
-15
-18
-7
4
-6
-23
-20
-10
-1
7
8
7
11
22
10
10
36
21
10
-27
-25
-18
-2
0
-1
-38
-12
6
33
43
27
4
40
43
10
-12
-27
-103
-24
-3
-23
19
18
3
-11
50
7
-3
-20
-26
-54
7
10
56
12
1
8
38
10
24
10
25
-15
9
-15
-23
-2
-20
-1
-67
-16
-10
-6
-9
-7
4
1
27
-25
-12
-21
-11
17
0
-41
-22
1
-4
13
-3
-5
-12
7
64
0
1
3
-13
-10
27
42
-11
75
26
7
9
39
-32
-47
-101
-80
-4
-14
39
-35
-12
19
1
-13
-19
-45
-34
-10
-14
-6
10
0
-2
9
-39
18
26
9
90
3
-1
23
26
2
13
21
41
4
5
32
41
28
17
-18
-89
3
-2
-16
-15
11
-20
-15
0
20
-3
-20
-3
-1
-16
-6
-1
-28
-10
-10
-59
-21
16
14
62
20
3
18
29
16
-11
4
50
15
0
17
43
5
16
12
11
25
0
-19
8
-2
-12
-41
7
-12
-11
-17
-26
-16
-15
2
31
2
-6
-9
-22
8
-5
14
27
-18
3
28
-2
-7
0
5
-74
3
0
-11
11
2
8
-9
-12
-6
-3
-5
-24
-18
-1
-10
67
26
0
-7
-43
0
-11
11
-21
19
7
6
26
20
6
2
48
12
3
0
11
-1
-6
-3
-69
-19
-3
-11
28
-12
-7
-14
-27
-39
-6
9
-35
-2
23
2
7
4
9
18
11
4
8
4
24
-13
-9
-8
-16
0
-23
-22
-79
-6
-1
6
46
7
-5
-7
-39
16
0
-9
-9
-2
6
18
-9
-18
-6
-6
-6
-6
11
-16
-51
-11
3
-2
6
-1
-2
2
21
-10
-3
-1
-33
-10
-2
-4
26
17
0
-12
-10
2
20
-6
6
19
4
8
4
-5
-24
18
6
8
0
-8
-2
-6
-16
-33
-91
-40
-1
9
1
5
-5
2
49
14
2
-14
6
1
10
-2
21
7
1
3
-17
3
2
-5
8
-9
0
10
6
1
5
24
69
24
4
1
1
3
6
2
-64
-16
2
14
10
-3
3
14
4
-8
-4
-9
-10
2
-3
-9
15
5
-1
-4
1
0
-12
-3
24
7
4
3
6
-6
6
4
-41
-9
-6
-11
-5
2
-6
-10
5
-8
1
6
-6
-8
3
-6
-4
-18
-3
-1
6
1
-3
-9
5
-9
0
-2
-7
0
-1
-1
-35
-5
1
2
4
0
-9
-6
-9
18
-1
1
0
-4
-1
-6
4
-40
-15
-9
3
-2
15
25
15
45
9
-1
-7
1
1
23
5
13
4
-5
-1
3
-32
-22
-16
-21
-6
-2
-2
-9
-3
-7
0
-19
-7
-2
0
-2
-1
9
10
17
-6
1
-1
-4
6
-13
37
-1
-7
-2
4
2
12
21
-5
14
5
4
-5
6
1
6
7
-5
-4
-5
0
2
-23
-23
9
-12
-18
-5
-5
-11
-16
-5
-38
41
29
4
-1
-5
1
-2
16
-26
-14
-9
-7
-7
13
5
0
25
16
9
11
8
23
-13
-3
-20
-3
3
4
13
5
23
-12
29
-5
-9
1
2
22
-43
10
-13
-4
-11
-18
-19
-44
4
-19
-9
-5
-1
-7
-7
15
28
30
-34
-1
4
16
30
-21
-11
-9
8
-4
7
25
14
17
-25
11
61
23
10
-7
-32
40
-7
-4
-1
-15
-18
-29
-24
-12
23
36
-11
-5
-10
-12
-9
-8
38
-4
-36
-8
3
21
23
-42
4
-12
-12
-2
6
24
1
9
-19
-28
-5
2
5
4
12
100
53
17
39
9
3
6
26
-61
-65
0
-10
1
-7
-12
5
-77
-38
-12
-35
-17
-3
10
-22
-13
-9
-1
48
31
8
-16
-30
8
-14
2
-30
-11
-9
-34
-8
53
20
14
27
-2
-4
11
4
-85
15
8
2
3
3
-18
-12
100
42
52
-10
-13
3
-8
26
-38
-47
-82
-10
3
8
61
8
53
-11
-28
8
4
3
-8
3
38
33
-6
-98
-31
-12
-2
15
-60
15
12
99
25
6
4
-33
4
-7
20
-39
-12
10
10
45
-35
5
-2
-50
-4
4
-6
-43
28
6
15
63
35
12
3
4
-6
-28
-27
3
-16
-28
-32
27
-27
-12
10
-55
-15
-2
-12
9
12
6
1
36
1
9
28
-60
-4
0
17
8
-5
-27
-62
-18
-43
16
-9
-26
-8
-4
-3
-41
-62
-15
-2
-30
-14
1
12
14
51
29
24
58
20
14
19
63
30
-22
-14
10
-19
-7
-12
12
3
-55
-16
6
11
5
22
-5
6
41
11
29
19
4
-8
-27
-26
-38
-6
-25
-3
-9
-15
-4
-6
-6
-4
-76
-17
8
29
83
-33
-39
0
45
34
6
11
-74
-3
26
-2
52
10
0
-21
-49
11
-22
-7
-24
-16
-19
-26
-6
20
48
5
-13
2
5
33
66
-2
-13
-7
-29
-16
-1
8
-3
-26
13
7
32
7
4
-14
-46
-15
-29
-13
-43
-24
-18
-32
6
-28
-26
-11
-83
-55
-44
-15
-45
-13
-24
-2
-15
29
33
6
30
94
62
14
102
48
-8
-6
43
-16
8
12
-7
19
13
12
24
26
45
-5
-2
-8
5
0
-22
-55
27
8
-79
-57
-23
-22
-28
9
-55
-17
72
-11
0
33
-14
22
24
9
-47
-16
-17
-14
1
8
15
6
61
60
23
18
-12
7
-10
5
3
20
-6
-21
-5
-33
-8
-20
-76
-13
28
33
37
-90
-14
-3
39
-26
-8
24
-44
127
-27
-14
-4
14
-6
-25
14
-18
54
5
16
26
25
48
64
-16
-27
1
-59
-3
-19
-28
-6
15
-2
-6
-19
-11
-2
-10
10
-70
5
-2
11
-23
-7
-25
-34
50
-2
-10
-16
-80
-26
3
7
9
-12
10
12
27
7
-10
12
-1
42
2
55
46
27
8
-32
-35
-7
9
35
16
-5
0
20
-7
20
-2
-60
-35
-4
18
15
-5
-17
2
-19
-10
2
21
-26
99
-16
-18
29
2
-13
-25
24
-13
33
0
-37
17
13
7
12
-20
28
1
50
-8
6
3
-48
-21
-67
-29
-96
-21
-23
-20
-28
24
61
33
58
-1
-4
-7
67
-25
-85
-11
70
15
12
-6
-48
-5
30
-2
-65
-23
-23
-11
2
-60
1
7
52
27
23
-8
-40
-29
-43
-28
-51
0
-1
7
-15
66
17
18
19
-7
-6
-41
28
-24
17
11
-25
4
-14
-12
4
-14
15
7
46
7
9
31
66
-54
7
-7
-59
-21
10
64
47
75
-5
-20
29
4
-18
-5
-29
29
-13
0
63
18
-16
-65
12
1
7
18
18
-27
-29
-61
-38
-128
-96
-38
-57
-9
34
60
59
11
7
-16
-74
-27
-30
-42
-82
43
43
26
65
44
5
22
27
-24
-94
-14
-85
-29
-10
-9
5
-22
35
4
82
14
-7
-10
-49
-56
-49
-4
-40
13
34
48
25
7
0
-17
-41
17
2
-9
9
38
31
24
-30
-46
-8
-25
-41
-7
7
-1
-26
13
2
4
-26
34
44
25
15
26
25
25
44
-7
-6
0
43
31
25
54
-3
14
7
-3
19
-4
1
-3
40
-47
-32
-10
-63
-40
-36
-95
-116
-18
6
12
-24
-57
1
53
85
79
75
13
24
35
13
30
74
4
10
-15
-35
12
9
6
-72
49
26
21
25
5
-41
-45
-7
-56
-36
-19
-78
-36
-1
-44
-77
-15
-41
-12
-80
-26
27
40
12
-29
18
12
109
31
-15
8
37
20
89
30
12
38
6
-25
9
-105
10
-23
-80
-36
51
115
-3
-27
-69
-5
81
78
-24
-60
-17
50
64
32
-72
-8
-27
-40
16
0
-42
-7
-90
-13
-12
-7
18
-62
23
0
16
0
-17
-30
-36
-40
-24
-12
-13
-64
3
21
-6
23
-53
-22
-18
15
26
28
-3
28
19
22
20
17
16
14
10
-21
-6
-4
20
11
-2
-11
30
25
-47
-23
-44
-38
-14
-14
-60
19
-9
-12
-110
-62
-32
-18
-6
16
-6
-1
43
41
27
44
63
-9
5
5
-5
48
2
-22
-39
-16
-3
10
-4
-42
-20
-12
35
-42
5
0
23
-12
16
33
26
30
69
5
-4
20
1
5
-47
-5
-10
13
48
-13
-18
-44
23
-71
29
-11
-44
55
3
-49
-24
-29
-27
-15
31
5
3
0
-68
65
-27
-12
-43
-45
-5
-43
-14
9
-18
8
103
43
-33
-9
15
28
-43
-16
-78
-25
-5
39
64
-62
36
0
47
28
8
-21
-57
48
-4
-5
-45
-22
-16
23
40
36
45
16
-18
-15
-1
12
-28
-25
-8
-15
-88
-56
-15
-38
-30
-39
-12
4
96
36
78
116
27
-67
-59
-34
-75
-31
-57
-105
-78
89
50
27
16
51
8
-6
32
-37
-55
8
-42
-9
-20
-1
1
-65
-7
-5
-7
-52
-69
-47
-28
-70
-16
-1
-43
-102
65
62
-9
93
11
10
98
89
71
78
36
51
13
22
44
8
47
20
9
29
13
-16
-62
-53
-18
-25
-16
-107
-56
-13
73
-82
13
-18
10
-19
1
-14
-51
-32
-40
-44
-34
101
49
20
127
65
3
-4
21
-22
30
-5
-51
46
-5
-6
18
-9
-12
-8
-1
27
-45
-12
-3
-54
3
3
8
-41
-20
-14
-15
51
-51
-26
-18
-24
-9
48
42
1
12
12
-92
-15
-24
-17
6
16
32
-2
10
53
30
35
17
-17
2
2
-104
-70
15
19
26
-94
-74
-29
61
31
-45
-56
-113
38
33
9
6
22
30
-17
33
18
-10
1
-63
-67
-19
54
24
-30
28
8
107
90
-23
-20
48
-18
52
20
24
49
74
28
-41
109
-26
-5
39
25
-3
-28
52
-21
3
9
16
27
-2
-18
-21
-31
-18
-14
-128
-125
-33
-28
-13
-99
-32
-18
49
3
-14
10
11
-55
-53
-24
-40
-16
40
93
-33
112
59
20
-60
30
-49
-96
-5
-63
-67
-3
-26
-33
-32
-20
-13
-21
39
1
-98
29
-9
-31
-5
-69
-21
0
35
-34
-27
-68
-29
-98
-21
-9
47
-8
34
31
-73
121
70
13
6
44
35
58
73
8
-24
-9
-32
-30
3
-5
0
10
50
15
-98
-38
-14
-20
27
-26
-80
-13
48
-60
-31
-10
-38
-58
-29
-30
15
111
61
37
15
29
61
34
55
48
-6
-56
11
22
8
6
32
49
-8
2
0
-13
-20
-25
-111
-36
-16
-32
-34
-25
-7
10
101
-38
-9
19
-41
48
49
18
-18
-44
15
39
45
78
71
14
3
41
5
1
23
17
31
9
29
67
39
31
35
-1
71
11
-8
-37
9
-23
-45
-80
-11
-31
-110
-49
-40
-13
-24
39
-14
2
30
-37
-33
-22
37
30
19
6
11
33
3
23
36
-16
-24
2
-86
-46
-10
9
-63
-31
-12
0
53
3
99
108
81
5
-45
-20
-47
-32
-54
-84
-128
87
64
30
19
38
-48
9
32
-7
-76
-13
-78
-52
-45
-38
6
-11
12
-23
6
22
5
-7
-40
-110
-6
-1
-53
-52
18
38
14
103
102
17
39
125
51
10
96
-18
-57
2
-2
13
0
-2
10
21
-49
-2
-40
-15
-1
4
1
-55
24
3
95
4
39
61
53
4
-75
-7
-2
-63
-34
-32
-70
-52
13
-18
-26
23
-15
-27
-39
-30
20
7
-68
-57
-38
6
4
-9
2
4
7
5
-38
-28
-20
-31
5
8
-65
-32
44
67
18
69
22
-15
123
84
111
50
6
76
-3
11
-14
35
-12
-17
57
35
2
-5
-55
-88
-53
-19
-18
-34
-27
4
-76
19
-20
-27
-2
-5
69
15
21
70
56
45
1
-25
26
2
7
-102
-5
-24
-35
1
-14
-2
62
127
46
58
31
-19
1
-7
-40
-93
-5
-9
1
-5
-64
-5
-47
1
-41
-24
-2
-36
45
8
7
15
-37
-12
-40
61
-57
-5
-21
3
52
30
52
-24
-7
-7
8
-24
28
-1
4
24
10
-2
-86
-40
-38
30
11
-61
-12
-9
23
-28
10
16
-38
33
-1
3
-26
-18
-19
-61
48
-2
4
-11
66
32
0
12
-56
23
-13
-11
-97
-113
-21
-28
1
-62
-64
7
66
37
-23
-4
-23
3
45
-12
-23
-13
13
5
-27
69
-2
17
24
54
13
-9
41
-11
49
7
12
83
-1
-3
19
1
-30
4
78
104
25
-4
-44
-23
-4
4
22
-3
13
-19
-8
11
51
2
12
-34
-16
30
25
-29
-37
-14
-23
-128
-56
-23
-2
24
66
2
-99
3
39
4
21
-32
6
12
4
30
36
23
-45
-20
-12
-3
19
7
26
-14
-19
7
-8
7
61
13
-10
37
-8
50
-15
-14
-94
-64
-41
-37
8
-14
4
-13
-33
-37
-27
-56
-7
-60
-42
-26
-42
-6
3
-23
-45
-44
-38
17
127
35
14
-2
-7
68
78
11
-45
-24
-3
28
37
15
-20
3
16
-91
-44
44
17
15
-67
-26
-65
87
-40
-15
20
-24
-10
-17
23
107
15
-15
13
3
-46
-29
33
-11
21
0
41
62
27
15
-18
-11
-12
-20
-47
-12
-8
8
47
-19
23
-10
-2
-9
40
9
-26
-57
-7
-55
-37
-63
6
1
-67
-33
-26
58
16
42
-11
4
-21
22
72
33
46
19
17
-13
18
-87
23
102
72
-28
-68
-28
-95
29
-5
2
-63
-14
-30
-5
-55
-18
-58
-79
19
-57
-37
7
101
45
-32
11
-44
47
79
13
-44
5
-11
-21
-39
-2
52
-15
-79
-29
-23
-32
30
-19
-27
36
82
-10
-3
21
-33
-2
-19
-30
-2
127
31
41
38
4
38
-3
-37
-12
17
-5
22
34
18
7
74
-23
11
4
18
31
49
9
-95
-24
22
-11
23
-36
-41
5
16
-57
-59
-23
-97
4
-33
-3
15
50
-54
-53
-27
-21
15
10
-26
-48
69
80
69
81
-29
-2
-40
9
84
-66
0
-10
15
4
9
0
69
66
33
-4
31
6
-28
-36
-59
-77
-22
-42
-45
-3
-3
2
-50
2
-9
60
-13
-20
-98
-86
-44
52
-9
-44
24
23
81
104
30
-11
17
-24
-68
-11
-91
-63
-5
11
-16
27
-16
-9
-24
5
-18
-35
-6
-11
42
15
-10
31
0
12
-15
16
-5
-6
-87
-1
-19
-15
6
-34
-65
3
126
27
5
5
12
18
21
12
83
17
-2
-14
6
-13
-10
-18
24
-57
-24
-4
-19
10
6
2
-29
52
33
7
9
-15
12
2
-16
-16
41
-22
0
9
5
3
-12
-21
22
9
-17
24
-7
1
49
11
0
64
31
7
18
-3
-32
-65
-50
-39
-18
-18
-3
-3
-10
17
30
18
0
23
12
2
-5
-11
-31
-12
-22
-17
-4
-1
28
36
-22
-16
-6
-10
-5
-7
-38
-28
-12
4
54
-10
13
4
14
21
-8
3
-38
15
0
2
-2
0
7
-13
7
-10
-7
-4
22
18
15
-15
-14
-1
9
-5
-19
-21
8
4
-3
-7
7
3
-2
-11
-20
1
0
11
9
1
-4
6
-4
1
15
0
-7
-5
11
-10
-52
-3
-14
-1
9
-4
-18
-11
-70
-8
-9
-14
-16
-2
1
20
-35
14
17
21
9
2
-12
2
18
1
5
-11
-2
2
29
14
16
-19
-11
1
2
1
-9
-30
-5
-9
7
-10
11
0
-12
7
-17
12
2
0
-5
-6
0
8
33
3
-1
-5
1
4
33
14
88
-12
-18
-2
16
56
5
-14
110
2
-1
1
-4
-45
-12
3
49
6
8
-1
-8
-53
-23
-6
-7
-7
-9
-8
-11
-12
-9
6
-1
-1
0
-7
-18
-18
-3
-8
-1
-1
-7
2
3
27
4
0
35
2
2
2
3
14
4
-5
-1
0
11
2
3
-1
0
4
-24
-13
-9
5
5
7
1
-2
-31
4
-11
15
8
6
-4
-8
-5
10
3
-4
7
13
7
0
-18
-4
15
-3
0
6
-1
7
-7
2
-3
-4
-4
-10
-9
-10
-18
-8
-8
1
10
10
0
-4
-9
-1
1
-4
-7
-24
3
0
-22
-1
-18
4
9
50
3
6
-14
0
19
3
-1
8
5
-3
-10
-2
5
-13
0
-42
-14
-4
-6
-5
3
1
-4
37
-3
-1
-7
-2
-9
7
-3
-9
0
4
-5
1
-3
-8
-12
-91
-15
-8
-10
-4
-7
-8
-2
72
2
-2
-8
-5
-9
-4
-7
-17
-4
-3
-2
-4
5
7
9
36
5
2
-3
3
-6
-1
2
-12
4
0
-4
5
4
-1
2
6
1
1
5
2
-1
3
3
-3
2
-1
0
4
6
4
0
15
3
1
-32
-13
4
-23
-9
-41
-9
-5
13
-14
8
13
-3
44
11
-5
15
6
-20
17
26
27
30
7
-6
2
14
-23
-40
-57
-56
-10
33
-22
-15
4
-9
47
-14
-7
-23
17
20
0
6
8
23
7
-4
1
-16
-6
-18
-56
-9
0
5
0
8
-4
-5
-66
-17
-6
-19
-4
-8
7
14
26
-10
2
3
-9
-22
-12
-1
19
12
0
-1
-1
44
5
13
68
25
3
-12
10
3
-4
16
73
28
2
7
-17
-5
-5
-25
-50
-37
-8
-8
-1
1
10
11
-14
-8
2
-8
-2
1
-12
-8
-76
-19
-7
8
-16
-14
-1
-3
-39
-2
-5
-46
-11
8
-4
10
94
35
-5
32
14
-10
9
4
-11
4
3
27
32
12
-6
-10
14
-6
-1
1
-35
-3
-2
-7
36
33
4
4
19
-41
13
2
-59
-20
1
-23
25
-9
-7
-5
-39
-23
-2
-11
-15
-11
-4
1
55
-3
-3
17
-29
2
10
14
11
8
4
-27
19
15
-10
7
-7
9
2
13
-4
4
-9
-4
12
-5
-4
7
2
-6
7
4
1
3
0
-22
-12
-9
8
3
11
-7
-1
28
-25
9
5
11
-39
4
9
-6
32
-3
-10
-22
-7
2
-2
-4
-18
4
1
-11
40
-18
-6
-12
11
-6
-17
-19
-109
-37
-9
-28
-26
6
22
31
126
20
3
22
-17
-6
-15
-14
-98
11
3
-49
-20
-21
-17
-7
115
11
-12
20
-20
3
1
1
-25
-27
-7
29
25
-17
-4
-16
-30
-13
-1
22
-17
10
14
0
3
-11
1
-7
-34
-3
4
12
40
19
5
-26
24
-5
-1
2
-70
23
10
20
78
18
-11
-4
74
-4
-8
-30
-51
-3
0
7
-3
-5
8
14
23
-12
2
-14
-75
-26
-3
-17
-14
-6
-5
9
41
29
3
4
-31
20
2
4
-21
15
4
1
3
-29
8
-20
-4
-12
-11
3
-5
11
-4
40
-15
-1
6
5
22
2
-2
-23
19
-1
3
8
19
-10
-14
2
6
12
-6
-3
-16
5
-1
-14
12
-8
-9
-7
6
2
20
-11
-43
2
2
10
4
0
7
3
62
2
-7
-16
-6
1
-13
-7
-9
-10
0
-15
-2
9
-14
29
57
8
-1
12
2
-6
2
12
-23
2
-1
-7
22
2
-7
-15
-35
-18
-2
4
-7
-5
16
2
58
20
-1
-7
2
10
-9
8
-70
-13
-2
8
5
2
6
-5
-42
9
-1
-2
9
-4
0
5
9
2
4
25
14
-2
1
-20
-8
-1
-2
-13
-17
10
-2
1
0
-30
-4
21
12
-2
-1
-3
-3
2
1
5
-4
-5
2
2
52
9
4
4
-7
-2
0
12
-6
9
2
-13
0
2
17
4
-22
-7
3
6
1
13
-12
-17
17
-14
-2
0
12
-4
3
8
-21
0
2
-1
-7
0
-15
0
-14
-7
0
3
8
0
-2
-14
11
4
-8
-22
-11
-2
2
4
22
-10
-3
10
2
0
-5
-4
32
11
-1
-11
-7
1
3
5
-9
0
-4
-1
4
-3
2
-7
-4
-1
3
4
4
2
2
6
-4
7
0
2
3
1
-10
4
-12
-12
-6
-5
-11
1
6
-4
-24
-25
-11
4
3
-3
-7
-15
6
18
18
4
2
-3
8
-2
-1
-11
-3
2
-2
-1
-1
7
0
47
15
0
-1
0
3
-1
11
-10
-7
12
5
-1
-7
-2
8
-20
-25
-12
-7
0
-8
-25
-16
18
13
1
-3
3
7
10
-5
-21
-3
-4
-1
0
-7
4
-28
12
4
-4
3
-4
3
-29
16
-16
-15
-7
-1
2
16
4
-12
-38
-12
0
7
3
-30
-12
-4
62
22
3
-5
3
-8
15
-4
-11
0
-3
-4
-6
-1
2
1
44
1
-7
0
-5
13
24
-4
-52
-23
-8
-6
0
9
-5
7
-7
-2
3
7
3
12
9
-11
33
20
4
-5
0
-9
-49
-11
-48
-7
-1
3
2
-20
4
0
71
14
1
-4
-7
10
-43
-22
-45
-17
-5
10
-8
-25
38
-9
-18
-8
3
-2
6
40
58
26
-39
-2
2
4
11
-3
-31
-15
37
6
-2
-31
-9
39
31
54
-5
-6
-11
-17
5
-49
-29
-43
-6
-4
-1
10
-44
-30
-5
-44
5
2
0
4
-4
-62
40
23
-13
0
2
-19
-10
19
1
-39
12
1
1
-32
15
68
-27
39
-1
-4
-5
11
29
5
-4
36
-7
-10
-4
19
0
9
-7
-12
-13
-4
4
69
-1
-59
11
-9
-106
-45
-12
-19
-19
74
-45
9
88
78
31
27
38
-27
18
4
-16
-1
-5
-38
-8
3
-9
30
3
-6
-4
9
-4
-62
-16
-42
-7
-6
9
-1
-38
-33
13
8
-20
-18
-7
-13
-37
80
26
15
43
10
1
26
65
-11
-9
-9
-53
-8
-9
-53
-3
2
-11
14
30
22
4
16
26
-7
24
-15
-88
-38
-2
24
-29
-35
5
4
127
51
28
38
40
23
-9
-13
8
-11
-13
-40
-53
1
9
13
-11
-5
0
-12
-27
-53
-30
-4
5
3
-1
-28
-18
33
0
-8
-66
-34
-16
19
24
-22
-37
-13
-57
-17
7
3
0
-1
69
24
48
26
14
34
0
44
-11
3
77
27
-1
-15
47
33
-31
0
-39
-16
-7
-27
-24
-27
37
7
-16
25
19
15
30
7
-2
-2
-60
-5
-12
-17
-24
7
31
-2
-33
-39
-16
-25
-8
-26
-26
-6
83
50
7
6
-26
21
-6
-4
-23
10
2
-13
31
-32
-8
-3
-20
-7
-15
41
-6
-9
-12
-7
-3
-7
-15
-39
10
83
8
9
-16
-19
4
27
53
-37
66
2
32
-9
5
-7
-46
4
-50
-15
18
-4
1
5
25
29
31
0
-26
-19
-18
14
16
-83
-6
-10
-22
0
-18
-54
-75
16
-10
-3
50
16
-3
15
19
-67
12
16
57
11
-5
-9
-5
-46
-61
-12
-5
-2
-2
-7
-31
62
68
-4
-87
-15
19
33
72
-46
-18
0
0
11
-7
13
16
-40
4
8
1
0
6
-7
-17
19
-12
-7
-26
0
8
13
-5
6
11
1
51
10
2
-19
-30
32
-19
-3
-4
-7
-12
3
-1
3
-13
9
-14
-11
9
16
13
17
0
-16
-29
-2
0
-19
1
-13
-9
-18
23
3
-13
-16
-15
34
20
-3
-6
-3
6
8
17
19
-17
-9
22
-4
1
-12
-22
-96
-7
6
-82
-15
19
27
-15
59
21
19
52
9
-27
-19
23
-28
-16
-10
1
3
-6
-20
-3
63
9
6
20
8
7
-26
5
-88
-3
-3
-35
1
21
67
28
-128
-23
-1
30
1
-8
-51
-83
125
35
6
-37
-4
0
40
43
27
-10
5
-26
-7
-1
7
20
-14
18
1
80
17
-8
-19
-10
-17
12
6
-30
6
18
7
1
-56
-54
-9
-4
-17
-9
-19
-32
6
10
-10
-73
-6
-19
-15
-4
18
-13
2
54
2
-3
11
9
-115
-21
12
17
6
11
31
-27
89
9
-26
-26
-15
-10
-34
17
52
22
10
28
6
-2
-3
34
2
-5
-3
-16
-16
-28
-29
-21
-35
2
1
-6
-2
24
-4
-6
-33
-4
-1
-30
-17
-14
-4
-1
-7
-3
-8
-58
-5
5
2
29
-3
20
6
50
15
5
-8
-32
-24
-80
-23
-17
-23
-25
-14
-35
-8
14
28
10
-10
26
53
3
72
-48
-29
38
34
15
17
42
-27
8
-2
-45
32
9
-3
26
-45
76
12
-9
3
10
37
-10
1
-46
-1
114
18
-8
-57
-44
59
14
7
-35
-20
-9
15
31
12
-10
-4
14
-9
-17
0
-2
8
-14
-9
-54
-17
5
16
-5
-85
-24
-8
14
15
48
-39
-9
10
61
10
29
-6
-9
33
-8
33
-13
-2
-16
-8
-7
1
8
2
4
2
-56
-28
-21
-24
17
-18
-26
-1
-1
-8
4
36
-50
24
22
-2
-23
11
-16
-24
12
10
18
11
-36
2
3
-8
16
11
-9
-7
-25
7
-30
-51
-11
-54
-8
-9
-45
-2
1
49
10
-17
-16
-15
10
-36
35
-38
-45
44
-41
-1
-54
15
-13
39
48
17
101
17
-25
25
36
14
18
2
-20
1
-41
13
-20
-24
1
-128
-8
4
4
-35
-21
-21
-54
48
-33
-20
-18
-22
4
-1
-16
77
-27
6
40
16
6
26
49
-26
64
8
-39
2
-5
14
24
-52
-19
-8
-61
14
-4
-32
-35
-72
-20
10
127
33
22
17
-1
40
-15
-8
-5
5
3
2
-8
46
30
17
-17
-15
-19
-13
10
-17
-12
5
23
-19
3
24
-9
-14
9
-11
1
-4
-10
-35
-6
-30
-25
-4
12
-14
-9
-34
-27
78
5
-1
13
-15
8
79
43
-7
43
-9
5
6
-37
-42
3
-34
-26
-9
-48
-14
22
4
-10
-46
-22
0
-2
-7
9
-15
-26
-1
-44
-16
39
-6
-6
6
10
-5
4
1
-33
32
-11
-25
-23
36
38
1
9
-28
-3
4
23
-35
-26
2
37
5
-24
-2
-34
-15
5
11
20
12
24
-1
9
33
-15
-8
-4
14
24
68
25
-5
22
3
6
8
2
-18
-52
20
-15
0
-18
-5
4
-15
20
-45
15
5
66
-6
-12
-8
-33
25
6
1
-3
7
18
23
63
-11
17
11
-11
-15
-16
-7
9
32
7
-2
-30
-15
-9
4
2
-10
-26
-16
-45
-3
-4
-5
-19
-96
0
30
64
9
18
-12
-15
-7
-27
-24
-66
-11
-30
-33
-29
104
61
12
-4
-2
-11
16
52
-21
-18
3
-2
-22
-16
-39
-16
-16
0
-4
23
26
11
8
-16
5
13
-2
35
21
15
36
25
-47
-24
-10
-59
-22
-9
-12
-32
12
18
-1
-36
3
-11
-28
6
-8
-45
-8
46
-36
13
28
-25
22
57
23
38
57
11
6
45
-4
1
-1
-13
17
24
22
-25
-1
-33
-10
64
18
-26
-30
-13
-2
-12
5
-44
-20
-19
-10
5
25
22
0
-4
-28
-21
-11
2
-26
4
-11
-18
-15
12
16
32
21
23
15
12
-1
26
20
-13
21
9
-1
-24
-4
-8
-4
-8
-33
-34
-25
-69
-33
-12
-27
-19
-15
31
20
46
15
-11
3
2
1
-4
0
-49
-5
1
-1
-16
23
-10
-22
-29
39
5
25
47
21
26
13
-36
-6
13
5
0
-26
-26
-8
-40
-16
-9
-22
10
-38
-26
-12
57
4
5
28
-3
56
18
0
17
-8
-10
-24
-32
-11
-7
5
5
-4
-13
-21
-24
1
-26
-6
11
9
-4
-6
-8
4
-1
9
-9
5
19
-13
33
-50
9
-4
-81
-26
6
34
-60
5
12
-3
127
15
16
34
-2
63
7
20
22
22
9
39
46
23
13
-1
-45
12
-1
11
3
5
-24
-9
39
-5
-12
-19
13
-44
13
-1
-128
-55
2
-22
-49
-15
-19
12
103
5
-1
-6
-4
-16
1
-24
-71
43
18
34
-4
-14
-20
7
-15
7
-8
-58
-21
57
11
4
-32
19
10
30
52
9
-16
-5
6
-14
4
4
6
12
31
10
-12
-34
-7
-6
1
-39
-28
-14
-38
-18
-9
-23
-35
-16
-42
6
36
14
-1
20
-2
22
62
4
-31
3
-19
-28
5
-55
9
-11
24
10
-30
-51
-54
28
-3
-9
42
12
28
41
33
44
6
17
15
-28
-6
5
26
-1
-19
-43
-126
-4
52
47
-23
-11
24
40
81
75
4
24
34
1
-5
3
-44
4
-8
-4
4
-2
-14
-9
-21
-7
-35
-38
7
-44
-5
-12
-36
-28
-1
14
-3
2
7
8
28
24
29
-12
8
62
11
1
27
-19
-8
17
20
-20
-19
5
30
40
24
-1
-14
-27
8
0
9
5
-14
-15
-4
-32
-13
-18
-32
-14
-14
-29
-46
21
-2
-9
-73
-52
1
55
54
47
52
11
51
17
-34
-15
40
-1
6
12
-18
-2
-26
-29
-7
8
-38
-14
-13
-5
-2
-8
7
-46
13
6
-31
12
9
-20
-20
-13
-14
-18
-84
-28
10
41
-17
-30
-7
-1
64
-23
-14
4
-4
20
0
-4
-71
-16
-43
-5
6
-42
-42
5
91
35
37
-6
-11
-8
22
2
18
7
6
17
-22
89
12
-12
-60
9
6
-5
21
-3
-10
-27
44
-37
-9
-20
8
4
-21
21
82
11
-53
-47
-7
-46
8
51
17
19
60
1
-26
-35
-47
8
-18
-19
-8
-22
-4
27
35
6
24
18
37
95
24
16
15
-29
-111
-40
-5
29
14
6
-27
-3
106
35
-14
-19
18
-6
0
-3
-9
0
-27
-50
-39
-2
0
26
-29
-12
19
-47
8
34
16
-5
-60
14
9
21
45
-15
17
7
-18
-60
-9
38
-30
21
34
-9
30
31
1
-40
-16
-13
-81
-16
-4
-5
-52
-27
-6
-16
18
-9
-8
-28
15
-9
-38
-23
-48
-34
-61
6
-5
7
12
18
28
6
3
-1
-6
-11
25
-8
42
13
53
7
25
36
-39
18
-16
14
44
12
-39
-31
26
-2
14
-6
-23
-13
-4
5
7
-57
5
0
17
-9
12
5
-23
-38
-7
5
-80
-11
-6
-23
-13
86
116
16
-79
-12
7
3
27
-48
-63
-30
125
57
20
51
0
13
-25
-8
-111
-11
-14
19
68
-30
45
6
-10
-26
4
-14
-33
-54
-20
3
45
25
4
-22
-59
49
35
-11
-72
-38
-16
-64
2
-46
1
2
-13
-17
-9
-20
-1
-21
-67
-1
31
20
-46
1
19
1
1
-2
29
16
74
68
-17
58
5
19
50
11
10
3
30
-23
-10
-2
47
15
22
-2
-17
20
36
-1
-63
-51
6
5
9
-56
-7
1
55
31
-33
-64
-18
4
-35
-18
-89
7
-10
27
51
2
-102
-2
103
-3
4
8
-80
39
10
7
-51
-34
-36
-24
16
-30
-19
-3
83
13
-16
-40
-26
-23
-24
-36
-74
-15
11
-2
-25
-23
21
4
97
34
-6
7
7
-4
5
-3
-78
-7
40
50
32
0
-3
-4
-40
-26
-7
-25
-22
11
-31
0
-25
-12
-23
-110
-8
28
23
2
-49
-34
-5
124
-7
-24
-19
-12
-12
44
7
-16
-14
-51
-31
20
92
48
62
127
82
66
123
36
15
-9
-13
-22
-30
-43
-58
-28
-101
18
-25
-39
-14
30
-16
5
-26
-35
19
40
-15
-13
37
-17
-50
31
-29
-41
5
-73
-73
-2
-62
0
-13
-21
-18
37
33
-8
23
-10
-10
-32
3
-23
-23
-2
-97
-43
-20
-3
-3
-3
-31
-20
-114
-62
-15
-26
25
45
116
22
125
38
30
54
25
-3
-38
8
-44
25
33
6
4
10
87
13
70
-9
-19
-60
-16
-1
-87
-48
-33
-1
3
4
-9
-61
-18
-9
-95
-112
-73
-27
6
-27
-16
6
-31
58
-50
-23
-47
9
34
8
38
46
97
7
11
127
47
17
57
-9
-72
38
50
-58
7
2
-88
-81
-5
51
-45
35
-1
-15
33
15
30
44
61
-40
26
21
27
108
6
17
8
-46
-51
9
-49
-5
11
-35
-70
30
-18
-13
-53
-44
-21
-29
30
-31
64
17
-9
-21
-12
-10
-42
53
-66
-29
-23
-37
-16
16
40
15
53
7
0
56
13
17
10
-24
17
5
7
6
-9
6
-39
-33
-19
-7
-12
-47
15
-116
-19
-7
26
-7
7
-2
-2
99
25
55
-15
7
-11
-16
-42
7
-1
0
18
9
16
-7
19
-27
-6
-20
9
9
-16
28
36
-5
-17
60
-14
-22
16
31
48
-6
19
8
15
27
46
-88
-62
-24
5
-48
-17
-13
-81
0
55
10
-4
112
37
6
-18
75
75
74
33
-44
-39
-6
96
0
-15
-19
7
-51
12
-1
-85
106
64
101
8
19
-33
-10
-13
-57
-14
-48
-34
-38
12
4
-17
-27
-16
18
11
13
-37
-11
-26
-4
-7
-46
-30
-6
-4
-11
21
-21
-15
-25
-35
2
-38
-12
18
35
11
-14
17
-4
-25
9
23
-61
-27
2
-20
9
52
16
-6
-10
-26
13
-4
-14
3
-2
-8
-20
-2
-18
2
-14
22
-7
-85
12
14
-24
-15
58
8
16
57
8
-4
31
27
-4
-3
9
33
7
-24
-32
2
-1
-1
7
-28
-35
13
13
-34
-9
-18
-11
13
37
7
56
17
11
-6
-2
-16
1
-7
-8
17
-13
-4
4
5
-15
-19
-25
-12
-11
5
-4
-61
-27
2
-18
5
12
-12
2
79
44
-10
-3
-4
-31
3
-10
29
-11
-15
-13
-4
5
-14
-8
-49
-24
-15
0
-3
3
8
1
10
2
3
-21
10
12
5
0
17
25
-6
7
-4
-14
-11
-7
-7
-12
-25
-4
5
13
1
1
-17
0
20
10
3
6
5
6
32
8
7
-15
-2
0
-4
15
41
23
-19
3
-1
-2
4
5
-37
-24
8
12
5
9
-4
18
1
-15
22
-4
-6
-15
7
-36
-9
-6
49
-17
-4
4
-12
-27
-13
-1
37
3
4
-1
12
82
-5
-24
-21
-2
1
4
7
-50
-69
3
-23
2
-1
-13
-12
-16
66
6
-26
-13
0
9
7
10
50
32
2
10
4
-5
-1
38
-21
-2
12
-6
-5
7
8
2
12
-2
7
-7
-3
0
0
-2
-25
-2
10
-1
2
-1
-10
-25
-6
7
-1
-1
-3
-3
-3
-7
15
9
1
1
3
3
-4
15
-12
-4
-11
3
8
6
6
17
-3
6
-13
-7
-3
3
-2
-30
5
6
-13
2
-4
-2
-5
-29
-8
4
-5
4
9
-21
-9
-12
1
-5
-20
6
-24
3
15
11
-8
-9
-40
-21
-2
8
7
24
19
10
41
4
13
-5
-15
-35
-13
-7
-1
2
1
6
-3
2
-3
-3
8
1
12
3
0
3
4
3
2
-2
8
-20
-3
20
-3
-5
-22
-9
-20
-5
-3
-57
-10
0
5
0
-10
1
-7
29
8
-3
0
-24
0
3
15
11
1
2
4
22
1
9
-19
-28
-9
-1
-11
0
10
-12
-9
-21
-7
35
1
-1
-5
3
6
18
7
13
-12
-8
-6
-2
-2
-13
-1
2
5
1
1
7
7
34
20
-8
-3
-5
6
-11
-18
-53
-20
-26
-6
1
2
15
-2
-32
-4
-20
-6
5
7
-2
3
7
-1
-6
4
5
-3
4
20
61
28
-2
-4
5
-5
6
17
42
20
-1
6
-12
22
6
6
32
7
0
-10
-6
-29
-2
-21
-40
-29
-8
3
1
-38
-31
-19
-74
-23
-6
-33
-9
29
1
7
70
13
-1
5
-4
4
-4
7
-86
-7
2
20
16
21
-3
2
27
-13
2
8
-8
11
-2
-15
-46
-40
-5
-11
-5
-9
3
8
69
3
-3
-10
-5
3
1
2
-10
20
5
20
2
10
-9
-20
-15
-11
-6
2
-4
-7
2
19
-29
29
14
9
6
-5
-9
-14
-69
-27
-7
-11
-3
0
-5
-18
-26
-6
-3
-7
-4
-20
6
1
27
0
5
-5
-4
5
-1
-1
46
10
9
5
1
-12
15
18
11
23
-2
1
-7
5
-15
17
51
-8
-2
6
5
5
6
18
80
42
3
-4
-7
4
2
-14
-25
-28
0
13
18
-18
5
-14
0
19
-8
-22
-5
12
-12
-8
56
-54
-6
19
0
-3
4
12
45
-3
-1
-12
3
15
-1
-19
-70
1
1
24
2
-14
-2
-10
-40
-21
-4
-3
-2
23
-10
12
88
30
0
-18
-9
-44
-12
-18
-80
-26
-7
-3
-31
1
8
27
84
19
7
1
52
2
-8
-27
-67
-19
-4
4
0
-5
-6
-4
11
3
-5
-25
-10
3
14
15
4
0
7
30
16
-10
11
9
57
15
-4
-8
-13
1
1
4
-46
-11
3
-8
-4
2
-10
13
15
18
-1
-9
-15
-10
-10
-4
-47
41
11
15
-19
-38
-2
-14
-47
-24
-6
-37
-42
48
27
38
125
26
1
23
3
-49
13
-24
-44
-1
0
1
57
43
-1
-6
-14
-38
-4
9
52
6
-1
2
79
27
1
-5
-4
15
-29
-20
-114
-5
-4
-42
-32
-14
11
17
49
27
0
-32
-43
-9
0
-5
62
41
9
67
25
4
11
8
-31
-25
0
1
4
-5
-8
-13
47
-31
-3
5
-7
-9
19
0
-68
-26
-7
-30
-9
6
-11
-13
-44
-5
-6
-42
-43
11
-4
-4
-26
6
-4
9
5
-9
-1
-3
9
10
1
14
16
-2
-2
-4
26
1
1
-9
25
15
-1
-1
-55
10
2
31
16
13
9
6
-19
-11
2
6
-14
-14
-1
-4
-43
-3
2
4
7
4
-3
-8
15
-11
-3
4
-5
-9
3
4
33
6
1
-19
-14
16
-1
5
20
21
2
-2
1
-8
1
20
-12
-43
-4
8
10
-4
-1
-15
-18
-1
-4
-4
-13
1
-6
-8
-71
-23
-4
-8
-11
0
-24
-10
113
26
2
3
-2
-8
0
-12
-61
-7
-3
-8
13
-10
2
-5
-24
-14
-5
1
-29
2
5
5
32
-13
-1
10
20
-2
4
1
27
21
2
-3
1
-7
5
3
5
3
4
11
-2
8
-5
-8
-3
-7
-3
-3
5
-1
-3
7
30
1
-3
-20
-4
-5
8
3
-21
-15
-5
-4
-5
2
-3
0
14
25
0
-1
-4
-2
-3
0
-19
-16
-1
17
1
3
0
-7
3
-37
-6
-14
-4
-6
-3
-16
-85
-27
-6
0
-1
-3
6
-15
59
19
4
-2
4
8
-6
32
4
33
5
3
2
-11
3
-3
4
-9
-6
-7
-1
3
-6
-3
-19
-18
-3
-4
-11
-4
-4
2
15
8
0
5
6
-3
-2
-14
-15
-1
2
13
8
4
-4
4
16
12
-2
-13
-8
-3
8
17
20
9
-2
6
3
-2
-1
0
13
1
0
0
0
-3
-3
-4
-5
2
-1
5
1
-2
-2
6
-44
-1
-1
-8
2
1
-1
-14
-28
-22
-2
3
3
0
-3
5
13
13
1
4
1
-1
-1
-10
27
-11
-3
0
-3
-3
4
4
60
21
5
-2
1
-1
-2
3
-30
-10
-1
0
-4
1
1
4
23
-2
-1
-3
-2
-2
2
1
-40
-7
-2
5
6
1
-2
2
9
9
1
-8
-3
1
-11
-9
47
2
-3
0
-3
-2
4
4
-3
-1
-1
-4
-2
-1
-1
-2
-9
-1
-2
6
4
7
-1
0
18
-2
-7
-4
-2
1
-2
-8
-30
-7
-5
-3
-10
-17
-4
-3
-18
-2
0
0
-3
-1
3
-3
12
5
2
-2
-1
-2
2
-6
1
-11
-2
-2
-1
3
1
-1
15
16
0
-2
3
5
-6
2
0
-9
-3
-2
1
-1
3
-1
-17
-7
-1
1
0
-1
-10
-6
-12
2
3
-2
0
-3
1
2
6
-14
-3
-1
1
0
6
-11
9
-6
1
1
-2
1
9
30
7
37
4
1
3
-2
-7
-20
-14
-36
-3
-3
-2
-4
13
-9
-4
41
10
0
-3
2
-13
16
-8
-9
3
-1
-6
-3
-1
-9
3
-22
-10
-5
-4
-7
10
-13
12
-1
-4
-4
1
-2
-15
-4
-8
-3
-2
3
6
2
9
-18
2
-2
-7
4
11
10
12
-20
-4
-3
1
-3
4
10
9
68
5
-3
-4
-12
-23
-17
-39
18
14
-3
5
1
-2
-9
-12
-39
-9
-22
-4
1
1
2
-18
-7
-2
11
-1
7
7
-2
4
-11
-17
6
11
12
18
41
71
53
6
5
-2
5
22
7
-27
-63
-8
-1
-12
-18
-33
-32
-42
48
-13
-19
3
-1
-16
-24
49
31
11
-21
1
7
25
31
-91
-62
3
15
-2
-6
-18
2
-20
-42
-10
-61
-22
-13
11
-61
-74
1
18
37
5
2
-4
-31
51
11
15
-16
2
15
14
20
65
48
-12
52
28
5
23
29
4
1
18
-35
-6
-12
-8
5
1
-6
-17
-16
-23
-16
-27
-19
-53
-6
18
66
9
16
3
-17
17
-1
29
-39
3
17
1
2
-18
28
-10
-10
-7
17
48
21
-38
-32
-14
78
56
19
-11
2
78
44
0
-9
-17
-28
-26
33
-5
-35
-10
-9
-4
-15
-1
23
-2
32
-5
0
-3
35
8
-15
7
-9
5
-103
-25
3
19
48
-83
-39
-12
110
25
1
0
-38
13
-15
-11
-8
-16
-11
19
-24
32
69
18
-3
-2
-22
-18
-4
26
-27
9
-21
-7
-13
10
6
8
-14
-14
-114
-20
0
-28
-44
-2
12
4
-73
-20
-20
-11
25
-26
-49
7
127
20
17
-20
18
31
16
8
13
5
12
12
-7
-40
-18
-7
-47
-8
-23
-36
-24
-4
17
-6
-11
6
24
22
-34
40
-41
-31
-69
28
23
19
55
45
58
2
19
14
-16
-24
26
-16
-83
-22
25
-17
-27
2
15
-67
8
6
17
-15
-2
-21
-1
41
47
11
8
-27
-26
3
-2
-11
-88
-18
-62
-1
5
38
-21
-7
25
-10
-10
0
32
0
22
-45
-25
-4
98
28
-12
9
-66
0
33
17
-34
-16
39
4
54
32
35
24
69
39
9
15
34
-11
-14
-1
-16
30
-5
1
16
-14
-19
-17
-107
-38
-12
-36
-25
3
31
14
-3
-20
-10
33
4
20
9
2
59
17
14
-7
-18
-16
10
10
19
-7
-13
-17
1
-64
-37
1
-97
-3
10
17
2
30
16
-7
56
29
6
27
-14
-5
-4
-13
-33
-22
-16
-49
3
-56
38
13
46
1
-9
-16
-23
50
38
3
-49
-30
-4
25
38
74
42
-4
80
23
35
25
-29
-98
-65
-12
-37
-5
-45
-50
-72
-19
13
1
-31
-9
-4
7
-28
-34
-36
-4
57
-7
-26
-61
-28
-22
10
4
3
4
11
19
18
26
20
-10
-69
-27
17
73
37
-28
-32
9
-29
-8
-3
-20
-48
33
47
-7
-19
27
25
22
27
13
4
0
16
16
-14
-24
34
9
13
6
-4
3
2
13
-8
3
-16
-11
-79
-30
-23
-18
-1
5
38
8
2
2
11
-25
-9
-23
-29
-5
-17
6
-22
-4
-11
5
18
17
20
2
-38
3
31
19
-9
-7
13
4
58
-50
-13
26
-18
-12
38
1
29
71
-1
-49
3
32
-18
1
13
-40
3
37
-8
-57
-8
-5
43
77
-55
0
-33
-6
-2
9
-42
3
16
-5
-2
-43
-45
-21
-35
-46
-20
-43
53
75
1
-9
-24
-28
-4
11
6
31
-29
-11
-17
-15
100
-1
-62
32
46
-30
12
24
-78
-13
6
-36
-3
35
4
-68
-16
-30
-81
-52
-46
-53
-23
42
7
74
58
0
-28
-5
6
-41
-15
-33
75
9
90
40
18
-20
35
23
-20
45
-13
8
-20
33
63
-8
-39
-38
41
26
22
-25
-100
-10
-18
-11
-46
-32
29
-4
-1
58
44
-1
-8
8
20
126
87
-14
24
8
34
-6
-45
-21
-13
-7
26
2
20
18
26
-11
14
-54
-44
0
-50
-32
-15
-65
-46
-23
-42
-49
-86
-7
23
22
-76
35
32
23
119
24
17
-12
66
46
-26
4
-46
-24
-63
-30
19
-11
59
-1
-43
63
1
-20
-10
-52
-39
22
57
-28
-27
-88
-30
-24
17
-12
29
65
55
113
-9
30
-14
-23
-60
-12
-4
0
48
-50
19
7
98
16
-2
-25
-74
33
-2
-11
-42
-2
-9
32
29
-52
-12
12
-27
-52
4
-28
-62
42
5
8
58
7
-24
15
98
19
-13
4
-8
-34
-17
1
1
16
26
2
-55
-20
-67
-8
0
-9
30
-5
-74
-27
38
-12
-41
-58
-104
-29
82
35
39
54
6
57
79
40
95
41
33
54
70
-10
-89
-18
-15
-4
-18
-21
-24
25
29
-26
-70
-9
-42
-19
22
-89
63
9
-109
-35
-11
-24
-94
19
-80
-27
36
-1
0
-21
-29
108
99
37
-14
45
14
39
89
6
-16
3
-91
-5
11
-28
1
-82
-75
-13
54
14
-9
-55
-91
11
-59
-15
-1
-43
-21
12
30
47
97
4
-19
12
31
54
47
-9
-36
3
-20
-34
-32
-36
-24
42
37
1
-56
-11
4
10
7
-55
-9
-12
-92
-33
-5
19
14
-13
-51
-5
89
68
69
64
-41
122
-20
28
-23
17
-54
-44
16
-9
71
1
-83
-9
-22
-25
-35
-106
-20
-2
-63
16
28
-16
-17
-3
-59
-14
89
-4
21
77
32
31
3
-18
-32
-8
41
94
73
27
4
12
49
18
-25
-41
-12
-6
6
3
-78
-6
-4
-11
-19
-47
35
-4
23
14
-4
-30
25
-35
-43
10
127
79
26
-2
-43
55
4
18
-56
-37
-13
-1
28
-5
23
-6
56
-3
-20
-8
-7
-33
-5
-4
-100
-32
-37
-54
-26
-62
-107
-28
20
8
37
17
-52
19
28
-7
5
2
-20
-1
34
122
13
10
26
4
22
68
85
31
96
16
-50
-27
-38
-29
-37
-59
-78
-15
-81
-47
-19
-63
-1
-62
-8
9
36
38
37
63
-3
70
-33
3
10
11
-24
-14
-1
6
-56
-16
28
-2
-20
-72
-12
-20
64
3
-125
-88
-33
-7
-35
-75
-56
-24
57
39
14
-8
-14
55
-43
16
39
30
24
-14
15
-23
31
9
7
66
21
2
-3
-2
37
6
9
0
-11
-4
-5
-21
38
0
-112
-66
7
-14
-54
5
-6
-12
-84
-18
12
42
88
15
-13
-10
-17
-7
-11
-22
-29
2
-23
5
65
21
-5
30
19
3
59
11
-2
7
11
-36
7
-128
-87
-37
55
-13
3
34
-122
101
49
12
-52
-44
-1
-6
102
11
39
13
-24
-22
-30
29
34
-3
-52
-18
-6
-4
1
21
-1
-71
35
7
-64
-46
-8
-21
-8
-31
-41
5
88
60
54
77
-21
85
15
8
21
38
-24
-26
38
47
-35
-6
-52
-26
-33
-33
9
-13
104
12
-63
-35
-39
-49
-26
-50
-51
-1
48
26
-7
9
25
-29
15
-12
-26
14
49
6
-27
40
57
21
-45
-18
16
47
31
-36
-57
-14
36
47
-3
-30
-16
-10
31
3
-75
-33
6
-31
-14
-32
-24
0
115
29
1
0
-35
19
-34
-9
-2
-8
-20
-19
46
5
16
3
4
-9
-44
-3
-19
-4
4
5
-37
13
51
3
-5
-15
1
-7
-38
-20
-22
-19
-45
7
68
11
-57
-33
41
59
-5
41
33
2
80
23
-12
27
57
-7
-73
-22
-18
-38
-21
-41
-1
12
27
13
-90
0
0
11
67
-18
-89
-17
31
-3
-10
-61
-88
-14
71
-6
-18
47
-1
-3
-2
10
6
-33
-117
-25
-17
7
17
18
56
35
59
-55
-4
27
5
50
-61
-22
-53
79
-11
6
-5
-21
16
25
110
90
64
-8
-16
-43
-16
0
-38
-12
-14
26
11
-24
7
-7
-53
-27
-10
-40
25
-32
1
-10
50
-19
-25
2
-77
96
-15
8
-25
-53
-11
4
-11
20
-41
-3
22
4
-11
4
-5
-27
21
-3
-12
3
8
-1
-5
-86
75
25
88
20
32
90
81
-31
-97
-29
-128
-39
-14
-102
-110
41
58
12
11
-13
-50
-35
-76
42
11
-16
-43
-45
8
-1
22
-7
-40
17
65
54
13
-23
15
-31
-16
-34
-50
-8
22
38
34
-52
-12
20
33
10
10
33
9
-7
-80
-3
109
37
-19
-21
-11
-23
31
-21
-61
-53
-3
-7
-11
-65
7
3
-38
8
-6
18
42
65
46
-6
3
-1
12
-20
2
-14
-16
4
-78
-12
10
26
0
52
4
15
109
22
5
1
40
-86
41
-1
-12
-44
-27
-36
-78
-11
-27
-13
-41
-36
-5
57
17
-41
-23
-2
-71
18
7
13
-18
8
40
23
-93
-18
65
-6
35
50
79
10
-8
18
3
6
-35
63
89
19
24
53
6
-36
39
11
-37
-4
-14
40
-16
10
-13
-14
-7
-12
-57
-43
-42
-55
-19
-3
-16
19
34
13
19
9
13
-52
23
-32
-93
-32
-7
24
19
34
-3
4
-75
-92
9
-2
-8
7
-7
-14
93
121
5
-6
-19
-8
-19
5
15
-7
14
-4
8
43
71
4
98
-6
-18
-9
0
-6
-19
10
8
7
-3
8
61
-3
-48
-4
-61
-77
-30
-4
-11
23
-35
-5
-22
-24
-26
-8
45
-42
14
-3
7
-6
29
15
-28
5
-25
-22
21
2
-17
-44
-51
70
34
24
20
18
-9
31
13
22
8
13
-99
-15
49
-4
-19
-58
-104
-31
9
-8
7
-7
-27
-25
41
4
63
56
-8
-52
-16
-25
16
-2
71
76
-6
13
29
53
-1
-35
-87
-31
0
61
45
-14
6
73
-51
-31
-11
14
-33
-43
-27
-31
30
22
20
19
-10
43
21
-12
-76
-46
-36
-19
-23
-62
-42
25
58
8
-16
-20
-10
-13
9
-1
-97
-20
-49
18
37
-18
-50
-22
88
19
63
-6
23
37
73
8
-46
-69
-56
-25
-34
-45
-44
-81
-18
27
66
-18
-29
-2
-12
-54
-88
-58
39
-14
1
-10
-87
48
70
98
35
79
39
17
33
65
-106
-34
-37
6
22
33
73
95
-7
-46
-63
-20
-12
-52
-62
-44
84
35
41
11
-85
60
0
-63
42
67
75
93
44
-22
-8
-16
-28
23
-12
43
74
10
-49
-2
-25
-40
-117
-47
-10
9
22
15
24
-62
-26
-111
-51
-59
-33
18
-103
-62
3
35
7
-7
-20
-42
-80
19
81
68
-4
-2
48
7
-20
26
-34
28
8
-4
-52
-14
-58
-70
-7
-62
-16
10
35
1
-115
-43
-61
-2
-18
59
-127
10
102
11
29
-3
59
37
91
9
-36
38
-18
-70
-64
4
-43
17
18
111
34
107
14
-9
80
8
-128
-94
51
-41
-18
-119
-21
-21
68
46
35
51
-79
92
-30
-18
-49
-101
15
93
90
-6
-35
30
96
109
-65
-79
71
-1
50
25
9
40
29
-94
-29
-74
-51
-32
-3
-74
-24
5
-13
-23
-85
-4
115
21
50
-26
-42
13
107
-5
-94
-114
-24
36
29
56
88
45
-55
-20
-47
7
-21
-45
-57
-10
-33
45
-11
-121
-40
-17
-3
-4
84
16
38
93
58
-7
-27
-32
-66
-73
-67
-87
-31
-24
-11
-19
66
14
-68
-2
-31
54
-33
0
-128
-81
16
98
76
25
78
30
86
97
89
36
27
-24
-20
26
26
29
44
19
-38
36
-1
-10
28
1
-33
-23
1
-10
10
-20
-80
72
-31
-90
-40
-36
-43
7
44
7
-32
-4
7
9
21
0
-12
39
28
31
-3
-10
-6
-5
-11
-57
-21
-25
-13
5
12
4
-111
-86
-13
-12
-15
-4
13
-22
-57
-6
-12
-22
8
-7
-8
-7
10
-21
26
10
5
6
-21
4
-10
-10
-14
-17
-9
2
37
1
26
11
10
-21
5
-8
-9
-16
-32
-3
-31
-3
-4
-8
-20
14
18
9
45
30
-7
15
-12
-8
-10
1
-19
10
42
1
39
15
62
24
16
6
-15
-10
-19
24
0
-22
-11
-22
18
7
-7
-49
-26
8
-33
12
-5
2
8
20
17
20
-12
1
-2
9
39
26
44
-12
-5
-14
-20
-19
-49
1
-28
-9
-5
-6
-7
-10
-10
-29
-25
7
-1
-10
-4
3
31
10
9
3
9
11
-12
1
13
11
35
-2
-9
-21
3
6
-23
2
-13
-8
0
6
-6
2
-11
-47
-7
14
-25
4
12
-8
-14
13
0
-10
-10
-5
-2
2
25
24
8
1
-7
2
-5
0
21
-2
-9
6
27
-7
8
6
-2
11
0
-3
14
-3
7
-13
8
-68
-8
-2
-42
4
3
2
-2
-13
5
4
14
-7
-4
-3
7
17
-6
-1
45
6
-7
-2
3
48
8
-3
57
-15
3
0
0
-20
-6
-8
7
7
0
-1
-12
23
10
-4
21
-1
3
2
1
-30
2
8
18
-2
-5
0
-1
12
-5
4
17
2
-5
-3
-19
-9
-1
7
54
3
-21
-7
-5
-19
19
-6
7
-4
-8
-9
11
-12
-21
-16
-17
-13
-5
-1
18
62
6
6
-15
3
-4
5
1
9
13
8
-7
8
7
9
1
-20
1
-1
-27
5
-8
-7
0
35
2
-2
-7
-1
-6
2
-13
-70
-1
2
-41
-6
12
-3
-9
4
2
-8
22
9
3
5
6
41
7
5
4
-1
17
-1
-8
-102
-28
-9
-33
-3
10
-1
21
92
14
0
6
-9
16
10
-4
10
-6
0
-5
-5
-38
-14
-14
-49
-2
9
-3
-8
-12
4
8
-10
-6
8
-10
-12
-4
-3
-17
-72
-48
-2
-17
8
5
15
31
113
36
14
7
1
20
-12
-28
-101
-13
-4
-7
-6
-7
-5
12
113
17
-2
-1
-1
-6
-4
-13
-67
6
2
-14
-16
4
7
7
47
2
-10
-2
3
30
1
6
28
0
-2
-6
-10
-13
11
-5
-74
-33
-8
-3
12
17
-2
10
50
16
3
-21
7
-8
-2
18
25
33
6
40
-31
-2
23
-11
-52
-15
-12
2
25
32
-18
-15
81
36
-2
2
9
-16
-3
-35
-96
-57
-15
-27
4
-27
-10
-4
14
-49
0
25
11
-12
-3
26
101
7
10
-7
-32
10
28
15
-20
9
1
-9
11
4
11
14
127
78
5
25
11
-9
-27
-23
-128
4
-10
-33
-37
-6
19
5
20
-53
-4
22
-7
5
0
0
-35
5
8
7
70
14
18
21
100
34
4
-12
-30
11
-3
-1
-99
-10
7
39
27
38
-4
34
103
49
4
-17
12
-58
-24
-41
30
-2
2
-13
-38
-14
-14
0
-51
0
-2
-32
-14
-17
6
27
23
16
7
12
8
-46
-5
-23
-48
-24
-9
18
-49
93
-8
10
5
-21
-4
13
92
-1
16
4
9
-10
4
60
8
15
-2
-14
43
23
-7
-54
12
-26
-6
4
-63
-27
-7
-32
-47
-22
3
-1
-42
5
-2
36
-55
-1
-17
-3
-48
-56
-5
-17
10
-1
-11
-1
13
10
-7
-9
-12
19
-9
10
68
35
2
6
11
-19
14
4
20
15
1
-7
-7
17
-1
-9
-45
1
0
0
9
-3
-12
-19
-76
-27
-6
10
1
0
3
0
89
42
2
-10
3
-12
-4
-2
20
-4
-4
-22
-13
0
6
11
46
3
2
-6
-14
-7
12
-6
-20
-33
-2
-2
-2
-6
14
8
54
6
10
21
19
23
-35
-33
-71
-33
-10
-4
35
-8
-7
-5
-15
23
3
-6
-43
-2
7
20
10
-16
-8
-24
26
15
10
7
-18
9
5
12
37
-14
10
1
-38
-11
-3
1
-53
-3
-8
-4
-35
-12
-4
-2
2
-3
-3
-19
66
39
3
-19
-53
-2
-2
8
-5
-59
-8
-1
10
-3
-11
10
6
8
8
18
36
7
-20
-14
-18
-21
-9
-1
-5
0
-9
-30
-68
-3
3
2
9
-2
1
-10
-20
-29
-7
1
8
-10
8
15
33
33
2
-15
-51
-3
-7
-15
31
-5
-8
-7
9
-3
9
9
-6
-13
-4
8
1
5
-5
0
-28
16
2
-10
-12
-5
17
19
46
2
4
-1
-3
-5
2
-11
-7
14
3
6
6
6
-6
10
30
-2
-6
-5
2
1
-6
-15
-33
4
-1
-3
3
-4
-1
14
33
9
1
-3
-20
-6
12
15
-3
-1
4
13
36
8
-7
-23
7
-11
-3
-6
-12
-1
0
-4
-23
16
-5
-2
6
-5
1
3
0
6
4
-1
-15
-4
7
7
2
-17
-4
-4
-7
-1
4
6
-6
-19
-5
2
10
2
-15
-8
21
21
-3
0
1
4
8
2
18
-5
-4
-3
-6
-10
-6
1
-22
2
0
1
0
6
0
-8
20
14
3
-3
-1
-2
-9
-13
-24
-61
-16
1
-3
-7
4
13
-5
9
0
-7
-8
5
10
-32
-26
34
14
7
7
2
-8
8
66
18
1
2
2
4
-6
1
-47
-4
-3
-4
-6
-6
4
13
18
-10
-8
-2
1
-2
4
-17
-25
-30
-8
-1
-2
-3
-1
-6
-1
5
8
4
-2
11
0
-21
-21
12
1
-3
7
-5
-3
-19
-27
-5
-6
-5
1
-2
4
37
41
3
-9
-3
-6
-6
6
-11
-16
-7
7
1
-3
7
8
38
-4
0
2
-7
-3
7
-7
-73
-28
-37
-6
1
-6
-11
-13
72
31
34
-3
3
7
5
13
-42
-9
3
12
4
12
16
9
34
-6
-17
-17
-10
-27
-37
-29
-18
-9
49
14
-8
-10
-12
7
-7
13
-30
-3
-7
-6
-4
6
18
-2
-3
-5
-2
15
12
-39
26
2
19
2
6
2
-12
49
30
38
-48
1
8
-24
13
-18
-37
-55
47
-1
-4
27
1
-1
-34
-27
4
-5
-13
-16
-7
33
20
6
24
13
7
15
23
-52
31
2
-47
-18
-2
5
-26
-12
16
15
-9
2
-5
-17
-12
35
27
18
67
27
11
-30
12
40
-88
-45
-42
-12
4
65
-1
-24
45
16
18
-5
-9
-30
24
-79
-46
-8
-26
13
12
53
-3
53
-16
-9
-37
-19
-21
-20
-22
32
23
43
84
26
4
-41
-9
27
-36
-40
-12
-15
11
38
30
-20
31
26
22
20
27
1
-12
-63
-3
-7
-58
-40
-36
-31
-18
-13
0
20
26
19
14
-15
11
12
-8
-10
-38
-14
-16
13
2
-33
-15
15
8
-16
1
20
34
34
33
-9
18
16
8
-61
-52
4
-5
-9
-83
-32
-16
-32
11
-22
-6
6
43
16
2
61
-9
13
-38
-2
4
-7
-5
14
100
54
28
19
-29
-8
1
35
-58
-62
-43
-6
16
-9
-7
-33
-56
62
52
-2
30
13
8
-35
17
15
-37
-4
-32
-11
-7
-25
-34
9
-2
-4
-15
-7
11
38
72
-40
-15
-6
5
14
8
-3
-16
42
25
15
9
13
2
-10
-16
36
66
-4
29
-2
-4
7
27
-49
-63
-4
2
1
2
-3
-5
-23
60
-3
8
-4
-13
-3
-18
23
-27
2
-44
-10
4
30
23
4
26
8
-14
-15
-10
-64
-45
16
-12
-10
20
-4
-45
30
16
16
-12
-9
-38
4
48
31
31
-61
-13
-10
22
13
15
-48
-34
-54
-11
16
-65
-8
-9
-22
43
22
-60
-21
22
-22
-16
-5
-44
81
-12
-9
28
9
-11
17
49
28
50
8
-11
44
-9
-18
-15
-51
14
3
11
0
16
-3
-17
-23
18
-1
-23
-10
24
52
25
16
14
2
7
-42
-58
-85
-23
10
-57
-2
-13
-18
-11
-10
9
18
-3
-8
-8
18
10
-15
-30
-72
49
14
-5
21
22
13
16
15
-13
-7
1
4
18
38
5
-21
33
-12
-70
-21
4
5
-37
48
-48
23
116
15
-12
15
30
7
33
2
-52
-1
3
-5
38
-50
2
-3
-14
1
15
30
-12
-23
-27
7
-40
-31
-12
37
5
53
37
-24
11
-5
-26
-73
-8
18
8
24
-53
-4
-19
-32
-13
-73
0
0
62
45
-8
3
-6
-18
12
3
30
13
-14
46
10
24
60
-3
-97
-32
44
-5
-16
4
-66
-8
18
-26
-32
33
-2
63
58
17
-1
-8
-43
-63
55
-14
-86
-22
44
32
95
82
-7
-38
26
2
-13
21
54
127
39
-55
-50
-21
-18
5
-50
-113
-100
-36
1
15
-79
-32
-28
-19
2
41
42
-26
103
-13
-17
58
74
-1
-81
2
-4
-15
-21
1
-18
-69
70
-10
-95
-54
22
63
28
27
-49
-14
102
64
9
-59
8
35
33
14
-128
-24
-36
-100
-28
-23
-45
12
19
10
-2
-5
-39
-41
53
1
-56
-48
20
12
6
10
-8
-9
-128
-28
-22
8
12
64
43
12
92
43
17
-42
-43
76
-97
-8
26
39
-25
-9
-12
6
40
30
106
44
8
-18
3
-62
-30
-16
-32
-29
64
61
-47
-35
-5
-10
-45
-2
-7
21
47
53
44
12
-65
-33
-58
-114
4
-34
-14
7
84
13
35
23
-13
-30
-1
5
-43
-4
30
55
46
-67
-1
-9
-16
-22
-12
30
-44
68
72
6
-16
4
-23
-25
38
59
-6
13
-20
3
6
21
44
9
-16
-3
56
-1
-12
-39
-19
-70
-76
-19
60
-28
3
7
-7
42
48
17
47
26
-10
-2
-36
43
-40
-22
-75
-5
8
16
10
4
-1
12
84
38
-3
1
-33
-22
-10
-4
-101
-37
0
-32
7
-68
9
4
-22
-6
-3
45
10
-3
-28
-11
27
38
-18
-22
8
-11
20
-4
30
-3
29
76
-33
-22
-78
6
-1
6
2
-85
-27
-38
7
1
28
-4
-1
-18
-22
57
34
1
15
7
-5
-5
8
-59
11
10
-98
-21
-6
-19
38
-12
37
-3
28
2
35
100
3
-1
-34
-6
-6
-3
14
11
-2
-29
-6
-10
-49
8
-62
-89
59
53
-22
-7
18
1
-35
-59
-82
-27
12
14
18
32
-21
-59
-5
3
33
-12
-5
-25
8
3
-44
-8
-3
-1
-74
-20
44
95
22
81
52
19
20
21
-6
33
77
-18
5
5
-20
-27
-19
-57
-22
-19
8
-18
-50
-14
-2
31
-18
-29
-65
-9
45
21
16
-41
-47
-49
-4
-8
2
1
-3
93
-3
105
25
7
-53
-32
-20
-29
86
54
-24
15
17
16
51
-6
1
20
24
-6
58
24
58
47
-1
-5
29
-3
-45
2
42
1
-1
-66
-27
-1
17
-1
-49
-28
-3
-82
-75
-8
5
-59
12
36
22
110
33
-18
-84
-5
-38
-58
64
-81
1
2
-32
-2
-13
28
-62
-19
24
-14
-96
-74
-11
47
-47
-45
-23
-2
77
75
-51
-80
-1
-31
-55
9
-6
39
20
21
-28
40
8
-1
-53
-7
8
-25
31
-7
-23
6
-1
20
29
1
-25
-9
-4
-25
-44
5
-9
21
12
-28
93
35
-7
-25
6
59
31
59
-24
-17
-44
6
-26
-42
23
26
-30
6
43
-2
-30
-29
21
-26
-28
-17
-19
4
48
57
-59
-75
-14
1
13
12
64
41
-52
85
14
11
19
-19
-49
-34
85
57
-4
-1
-1
11
-7
-3
23
-19
-25
-13
-9
-19
-34
-31
-20
-40
36
15
-28
-50
-1
10
-26
-112
-57
-55
-121
-22
7
62
45
0
55
21
84
63
3
-12
12
18
-8
3
32
30
-11
-5
33
-25
-3
12
-18
-14
-18
-24
-60
-88
59
11
-93
-83
-15
-46
-63
63
-42
-7
118
81
30
89
65
57
122
12
-128
-10
34
-26
23
-3
14
1
-51
25
-2
-26
7
-24
-45
-3
127
29
21
26
-23
-14
20
1
-87
-33
-58
-84
-48
32
-34
11
1
-38
-23
41
7
-20
-18
-11
32
-10
-18
-32
-48
-44
1
7
-12
-1
57
40
51
42
83
13
-116
-56
-6
44
47
-107
-108
-28
82
77
-17
-27
15
6
18
-3
-48
3
-44
-40
-20
-15
-17
-7
-45
-7
-4
-5
-35
-81
4
-26
70
6
63
70
-60
72
-4
13
-113
-29
-38
-33
85
-32
46
18
115
64
-2
-4
29
-3
-91
3
-35
26
-3
-46
-50
-15
68
-4
-13
-35
-29
-73
-48
-20
12
1
-11
16
38
53
-4
18
17
-7
16
1
13
49
11
69
-79
2
39
2
-20
-19
3
-5
58
3
-98
-1
10
-4
-20
-85
-73
7
44
-19
12
47
-49
-23
-20
-21
-3
-9
67
-4
-72
84
102
40
48
32
-5
100
103
-31
-66
-5
-10
28
6
2
-12
-14
29
-7
-15
-9
-4
-22
-20
-28
-38
-9
-69
-42
0
-35
-8
-30
-38
-22
61
-35
7
14
-25
71
-23
-6
3
49
-5
-20
11
-5
-8
12
34
12
7
20
24
21
2
0
-8
3
-32
-27
-9
-53
-46
-44
-26
24
11
-22
-30
36
-68
-13
-85
-60
-21
11
43
12
86
26
85
16
1
-21
-35
49
48
5
-79
-34
5
48
42
-57
13
0
-5
30
-10
-36
-25
0
-42
-3
-25
10
14
96
47
4
28
5
-91
-32
1
-19
-25
-49
4
-12
30
-2
41
76
51
89
67
46
99
21
6
-10
-41
-72
-38
13
13
13
-72
-90
-53
6
44
-11
-29
-34
-38
-65
-32
-17
-74
-12
1
-1
16
27
31
-49
-38
-6
42
0
28
14
28
52
28
-2
-59
-5
44
16
-13
30
-48
-2
114
92
-5
19
3
-5
-74
-26
-61
-40
-42
-35
-5
-30
-34
-10
-128
-23
-1
-8
-50
16
75
-15
84
-14
-35
-85
-7
57
53
25
-54
-19
3
58
42
43
28
22
-24
-22
-30
-15
2
3
-25
-14
-65
-7
-10
-47
-18
-100
-18
-18
51
6
49
113
70
-58
-37
-17
-71
-17
-79
-88
-56
2
-3
22
34
-7
-28
-42
-36
0
103
10
-33
-23
-40
-17
-16
-32
-82
6
93
37
62
-17
52
25
29
-26
-75
-4
82
8
-85
17
-14
-3
-21
11
1
106
109
1
71
13
79
29
-38
-36
16
-2
-13
-10
-116
-73
-12
-12
-32
-30
81
19
50
-23
-17
-24
8
-37
-84
-44
-52
7
-45
-100
-95
70
-51
11
95
78
61
81
53
9
26
-3
-76
7
-8
-3
-9
-13
34
9
56
-26
16
21
30
-16
-4
-8
-22
-22
-24
43
3
-8
-4
2
-38
6
-48
-25
-32
0
-28
-9
-22
-21
-1
56
20
-1
-52
-3
-35
18
75
82
12
3
19
0
81
27
55
-76
42
9
10
20
-66
-64
8
24
40
94
-6
20
74
-30
-33
-29
-16
1
14
-24
-96
50
-51
15
4
-28
-10
0
-61
-10
-5
-44
-32
-28
27
-30
-105
3
-37
-10
-11
-15
-17
2
3
32
-19
-14
-28
38
15
11
-95
-13
24
11
43
51
-33
-17
-14
58
19
19
5
-13
-41
-17
-65
-90
-6
-34
-30
-37
15
12
23
80
16
-20
-42
14
3
-6
96
-10
33
52
-28
-8
-45
2
7
25
-7
-50
0
32
-31
10
45
-44
-31
47
60
-49
32
6
11
-18
-16
48
-11
-15
-41
-11
-52
-31
39
-20
40
-58
41
27
62
-1
30
-50
-75
102
-46
-24
-72
-38
26
20
39
-77
-38
13
14
-86
-8
-78
-2
17
81
23
-124
91
-43
-19
74
1
-19
-1
109
23
8
47
2
-56
28
-6
-65
27
-10
5
-60
-2
-69
-17
-26
27
-4
-21
35
3
-12
-1
-96
-49
-15
8
-24
-38
-7
8
-41
-19
18
7
52
-17
102
21
17
39
63
-2
-65
-20
-26
-12
13
15
46
20
20
1
27
4
14
36
-31
39
-28
16
27
-2
-26
-61
-79
-83
-45
-82
-72
-34
-18
-58
-23
91
93
118
21
19
-45
35
41
44
-54
-49
-56
11
46
13
0
-79
-26
-31
16
-4
-88
-9
-95
-13
-8
-25
-33
-5
-50
-47
53
-60
-13
-58
-52
-11
-38
-45
-14
12
9
13
29
17
38
75
27
30
9
95
-16
-22
73
12
-19
-19
-20
-1
3
-5
-50
-22
-72
-89
-25
13
-2
-25
72
74
21
21
18
-31
-104
-19
68
-35
-30
-9
-11
35
74
21
-50
119
75
80
79
7
5
0
112
27
21
-25
-67
-22
19
1
-108
-73
-38
-1
12
-16
37
1
29
-40
21
23
15
-11
37
11
44
8
-101
-57
-59
7
-15
15
-9
-42
88
-52
56
76
127
15
-50
82
94
64
77
-55
-1
-9
19
-42
-32
-41
-12
23
20
-7
-46
-90
-45
59
56
-48
-60
-26
54
-44
-33
-57
-67
-30
22
-1
-39
65
-50
-66
-1
14
1
-3
-47
-39
47
34
9
-3
-31
16
124
31
13
-8
-14
14
-40
-1
-5
57
-23
14
2
17
43
-15
-115
-84
15
-6
-8
39
-41
-10
-48
39
-37
-14
17
-17
-20
6
27
29
12
-25
11
13
32
18
35
-4
-98
28
-47
-14
-29
7
32
15
92
81
-22
31
12
5
10
-7
-55
-44
56
7
16
-4
-35
-47
49
28
37
19
13
0
-17
44
-7
37
53
-10
6
5
33
-8
-83
-43
-40
-17
-32
-11
-10
-45
-19
-7
-32
3
-11
-13
-51
1
30
10
7
11
5
2
6
35
-17
3
1
-22
-23
5
19
-5
-41
-29
-25
2
-14
5
1
-8
-8
0
-14
-6
-4
0
-7
2
16
25
28
5
39
-7
-5
28
43
7
-4
3
-7
14
21
-8
7
-14
3
1
-26
-3
-13
0
25
4
7
-4
11
1
-16
5
3
20
-19
-3
0
-11
-1
13
-29
1
9
2
-11
-28
-1
4
-36
-23
4
-7
17
16
-1
-8
-28
-6
-14
-2
2
8
-11
-13
-14
13
-18
16
17
61
11
12
0
3
27
-21
-15
-74
9
-26
-82
-11
-12
1
-8
-46
-32
11
-44
-5
13
-7
5
-3
-18
-8
-11
10
-12
3
4
25
-9
19
-7
9
-3
10
21
33
15
3
75
-3
4
-4
3
19
21
-7
76
0
-38
7
12
42
11
12
51
3
5
-13
-22
-70
-7
6
61
2
-16
-1
-9
32
-20
-9
35
-21
17
-7
-28
-34
-7
-12
62
-2
5
9
12
36
-3
0
47
6
6
19
27
11
18
8
21
11
14
-14
-16
-44
9
2
-9
-9
-27
-8
-5
41
-10
-10
-3
2
-9
2
-5
26
-3
-11
-27
1
-16
-5
4
36
4
4
-8
5
6
21
16
-51
-9
5
-21
-2
6
8
-1
46
10
-9
-41
-4
-19
-18
-27
-67
-19
-12
1
1
-6
12
14
52
15
0
-25
-8
2
-1
5
66
10
-1
-21
18
9
6
0
-79
-2
-1
35
4
-5
5
-3
-15
2
-2
-9
0
29
-14
-6
-15
-2
3
-5
-15
20
9
0
20
-11
-3
-28
2
-9
4
18
50
6
0
1
4
15
-2
-4
-32
-8
2
-11
-2
-14
21
25
78
9
8
2
2
-9
-21
-25
-82
10
11
-2
3
15
-6
0
42
-20
-11
-23
-9
5
5
13
1
-2
6
7
4
4
-1
-27
46
-6
-7
-11
-7
-4
1
-4
25
5
-5
2
-6
-22
6
4
-6
17
3
-7
4
8
-4
-7
-48
5
0
-9
-5
-9
-3
-10
-128
-15
-10
-12
0
-10
-20
-11
8
-36
-13
-3
-29
-20
4
-3
64
40
8
-3
8
0
-3
3
-43
-27
-5
-29
-1
-6
-13
-9
55
-24
-4
19
-6
63
17
-8
59
13
20
-5
-8
-73
-42
-4
23
-30
-14
-4
-19
6
15
-9
-5
-14
11
72
18
-29
19
-5
-23
8
7
-24
68
-14
-21
8
67
-24
-24
-20
-100
19
7
-11
-104
3
3
-23
71
17
-18
6
94
30
0
27
11
5
-10
-17
-43
-44
-14
15
-38
2
20
19
31
21
11
39
65
7
14
36
-81
-8
3
-38
-35
-19
-13
-27
-10
-30
-12
-32
-30
20
2
-15
-58
16
10
-23
-22
-16
-16
-8
51
23
-3
-3
39
1
9
0
-17
-27
-5
37
-7
1
10
36
9
19
0
-16
26
-4
-9
7
29
22
5
-1
-6
-11
5
-17
-113
-1
5
3
-1
9
-6
-3
94
22
-4
-24
-6
5
4
-3
-41
-23
-5
20
-6
-3
-6
-19
-29
12
-2
-4
0
-6
9
26
-13
-14
1
-4
3
16
8
10
46
18
6
12
10
-3
6
-12
-96
-25
-17
-61
-42
-10
-30
-32
2
-26
-3
38
17
20
2
7
-17
-16
3
4
19
5
2
-18
-4
22
4
6
-4
-11
3
26
72
16
3
-2
5
3
-4
-8
-92
-29
-4
-11
-2
-3
-2
-5
83
43
-7
-17
-3
-3
-6
0
-21
-32
-9
-3
-14
4
1
-5
27
23
1
-18
-5
-1
17
67
39
8
3
15
1
-12
-8
-27
-22
-3
7
11
-12
8
3
9
-2
11
3
3
15
-4
5
2
21
11
3
-11
2
-3
-7
1
81
7
-3
-2
-17
-7
-10
-11
-116
-25
-2
12
15
-2
-5
2
-29
-8
-1
8
-6
11
-2
-3
50
13
0
0
-10
-2
12
18
41
39
6
-5
7
3
-22
-37
-43
-30
-21
-11
-14
5
-1
-8
8
11
5
-6
-6
-10
-6
-19
-22
-39
-4
7
4
-5
10
4
-95
7
21
10
9
-8
8
13
127
59
0
-9
-2
3
1
12
-56
-46
-16
-4
-10
-1
3
-7
3
-6
-2
0
2
-1
-1
14
79
18
3
5
3
0
2
-1
-96
-21
2
-10
2
-4
-16
-23
57
-7
-4
-4
-10
-10
-7
-5
-4
25
0
33
10
3
-1
-5
0
-40
-9
-11
-4
0
9
14
23
14
6
7
4
3
10
18
43
13
-2
-8
-24
1
-5
10
-26
4
1
5
24
1
-4
-1
12
-41
-25
2
1
-7
-10
-4
8
21
15
6
-9
-6
6
-20
-28
32
13
5
18
12
1
-1
-3
-1
0
-10
-13
-3
-8
-8
-42
2
-2
-5
-10
0
-3
16
-14
-52
-34
-13
-3
-5
-4
-19
-8
12
-6
-3
-7
-7
0
0
41
8
14
2
3
7
5
3
-27
-17
-10
-1
6
0
-1
-6
6
-4
3
0
-1
0
0
-8
-11
-35
-15
1
6
-1
6
-3
15
-19
-2
-1
-5
6
21
21
12
80
38
7
-3
7
-19
14
16
-2
0
-5
-1
-4
-2
12
-6
-20
-3
0
-13
-6
4
-16
-12
-35
-14
-5
22
11
-2
-17
15
-33
-2
-3
8
29
15
1
-7
81
27
9
2
-16
-7
48
14
-20
-10
-6
-13
-39
-35
-5
-13
-65
-26
-9
-36
-26
42
-4
0
35
2
13
35
17
10
-10
22
37
22
15
16
25
-10
-33
-36
-37
-17
-21
-10
-9
5
1
7
-40
-25
-23
-57
-15
-5
43
4
11
12
7
11
13
45
8
8
23
7
15
53
38
-60
-78
-19
0
-7
6
-33
-9
-51
21
-32
-3
7
-21
-10
-31
-33
-19
10
-46
-17
-19
-26
-20
64
-13
13
29
0
-1
0
15
120
54
-31
6
7
7
58
15
-1
-8
70
71
3
-26
-29
-18
-57
-38
-47
-101
-33
-14
-90
-35
-72
-3
8
-21
1
25
80
-4
24
17
-3
97
29
2
-30
24
44
21
-13
29
24
68
76
16
25
27
31
8
-1
-7
31
7
-21
-15
-16
-84
-4
-2
-32
18
-27
3
28
49
3
-21
-53
-21
-13
-23
-26
-28
-32
-50
-40
-41
-13
-29
1
46
17
-4
-56
12
-6
-8
-8
-62
-15
40
71
4
45
19
7
59
29
4
25
40
-16
-3
-25
-15
-4
4
-17
68
-4
-4
-5
-28
-35
-23
-33
-113
-23
8
22
17
-11
-37
-112
-25
-48
-3
-12
-54
18
18
29
-12
57
-16
-1
76
11
5
-86
6
21
5
14
14
40
35
127
48
-15
-23
6
8
-4
-2
6
-36
-13
42
-2
-67
-60
-24
-39
-29
-13
-61
-7
34
25
-21
-34
22
-15
10
-13
-33
14
25
62
101
46
51
12
12
19
31
61
-48
27
-8
0
67
16
28
-70
-23
-41
33
-10
-8
11
14
105
16
25
-15
5
-17
-28
-30
-59
35
-34
8
-14
-60
-20
-48
-50
-2
-74
-20
9
27
-17
-9
-2
7
-2
17
2
-35
-3
27
74
-11
5
-73
-28
12
2
-11
-60
-56
-3
49
3
-2
-22
-28
-33
10
-8
-1
-14
-47
-50
-19
-13
-2
-53
11
-9
-97
-41
-11
-35
-36
-46
-11
8
100
95
53
60
11
111
33
13
-27
10
4
-20
44
21
-25
15
-50
-6
-11
6
8
7
-35
-4
33
50
51
68
19
-70
2
1
6
-70
-26
-51
-106
49
-61
-27
24
9
0
16
57
98
88
24
-37
-8
-50
6
48
-9
48
21
41
35
77
68
25
-35
25
-12
-88
-26
26
-1
-52
-10
-55
8
95
69
-31
-74
-41
-1
-18
2
-32
-91
-24
23
38
54
-26
-2
-11
46
-42
-102
-15
-1
30
3
-54
1
16
70
9
-50
1
-35
25
-9
49
84
115
79
-17
-3
-72
-23
-9
-25
-80
-31
17
15
17
-16
-69
-79
-62
17
12
29
-81
30
29
-29
5
-57
27
-34
48
-34
-18
-25
-26
-93
-78
-37
102
105
70
49
0
32
-13
-17
-9
-43
-34
3
69
40
12
4
18
-38
-39
-49
-15
-33
14
24
-40
20
15
-25
-33
-122
9
5
-30
-8
13
10
-64
102
38
8
0
-23
1
69
91
61
-26
-10
-8
8
-65
23
29
-16
8
12
-36
9
53
-17
-71
-67
-48
-10
-69
4
38
2
-22
-114
-1
4
72
-10
89
117
-9
31
30
-12
-37
-45
-115
-122
93
6
19
17
-50
-64
-23
-40
-55
-22
-68
10
64
84
51
53
-10
-12
43
-2
40
2
23
8
3
24
1
-2
-52
-18
44
92
77
-50
-67
-45
17
83
-36
-34
-34
22
34
21
25
-105
-3
3
51
-9
-34
5
-15
110
-17
-47
-55
-73
-17
-6
127
40
54
27
-77
85
-10
13
-17
-37
-47
3
87
7
62
8
-33
-12
-30
16
30
-5
-22
-11
-28
-97
-33
-7
-27
-50
-40
0
-47
-22
-46
-41
-46
-26
17
-4
-99
-30
-8
63
44
51
20
-3
89
25
28
-47
1
27
11
25
-16
9
-18
-7
-11
-28
-23
-7
-12
-43
12
-4
-39
-49
9
3
-13
44
42
97
26
12
-67
-16
-21
-13
-47
-77
3
30
46
-15
-128
-113
-53
-17
40
-17
-7
11
69
118
48
-1
-24
-23
-8
11
-32
12
15
-2
-30
-61
-19
-13
-7
32
31
68
-26
89
0
-4
-10
23
38
-11
52
29
-18
8
103
-63
-30
53
38
-23
60
1
-97
24
-40
-109
-32
-67
0
6
57
45
35
39
-34
0
-28
-19
40
-32
-2
5
-15
13
55
10
-88
-77
4
38
41
-5
-51
-4
42
50
-31
-58
-54
23
49
0
-23
-6
14
3
11
-108
-6
-3
23
14
18
36
-1
93
74
1
35
27
-11
63
11
42
-82
8
-47
-88
-48
-51
15
-5
63
10
-18
10
15
8
-8
-39
-99
-29
-111
-25
39
-29
-74
-27
52
10
66
63
105
27
45
47
37
-3
22
5
3
33
57
46
11
1
-103
-46
-43
-1
11
-16
-1
6
-63
-28
-46
-52
-19
-54
6
-5
33
81
-18
-53
-78
4
-48
4
119
-10
34
-14
33
48
-32
-2
17
56
-3
53
41
3
25
6
19
4
-20
0
-13
-24
-3
-7
-68
-45
-18
-31
-7
-25
60
8
-33
-48
55
76
8
-59
-67
-26
52
-23
-8
-68
-88
78
44
30
22
51
-13
-70
61
48
-13
-3
-36
-50
-71
70
50
-1
-22
4
28
-15
48
-26
-42
-59
-17
-10
-79
-34
-28
14
20
-12
49
8
48
45
37
23
-56
6
-104
-3
77
30
-6
-63
0
19
73
-7
3
65
-18
16
8
18
17
1
-122
-90
-36
-28
20
-91
-55
-13
56
-2
-32
-37
-73
21
9
25
-2
19
37
56
80
65
-34
-16
-96
107
-4
25
1
31
101
23
54
17
-4
-8
3
-2
-20
-17
-64
5
0
-8
33
-24
52
-2
34
-48
-6
-12
-70
-19
-30
-4
35
-86
-18
-59
-10
29
-13
-10
-38
23
10
78
29
-1
-24
2
-67
-46
6
48
-1
-76
12
-32
-52
19
62
90
12
53
87
23
44
-16
-69
-55
22
53
22
9
-16
-4
-63
-86
13
-9
-18
-15
-44
8
43
-3
-21
-37
11
16
-20
1
46
21
-44
-48
-92
-23
79
14
33
53
-24
21
-14
12
-18
47
33
53
49
-21
-4
-1
31
84
-39
-16
10
14
-9
-4
-128
-98
-41
-77
-32
-97
-76
-28
-33
-3
15
-5
-82
7
-29
-2
127
100
8
13
12
36
38
36
8
75
48
36
60
-5
-3
-13
-108
-32
-45
-62
-22
4
-4
-4
-65
-72
-32
-18
-13
-117
-43
-23
-20
-51
41
47
40
21
52
4
-11
-4
-62
-62
-112
79
-61
6
71
41
56
-34
29
19
84
20
-3
-46
6
80
-8
-43
-11
-5
-65
-20
38
60
50
0
14
-7
85
-16
-16
-70
-22
53
33
-13
-73
-23
-46
-38
-14
11
0
-1
96
56
24
-1
14
18
14
28
-26
-34
-28
-12
-20
-22
-62
-18
-103
13
11
65
52
14
9
-1
52
78
2
-35
16
-13
-1
4
-85
1
-3
-17
-11
18
54
3
-46
-96
-11
-13
-16
-45
-73
-24
35
2
1
63
-22
54
8
7
-9
17
9
-62
42
-11
6
2
-78
-28
-33
57
19
-35
-51
-13
29
49
-17
-105
-48
34
55
-5
-91
-92
70
102
44
22
52
17
54
3
-22
-24
-36
31
-101
4
31
9
-15
7
38
-15
80
4
-63
-7
-47
-62
-53
-56
3
11
106
-57
22
-9
-14
30
-28
-24
-116
67
29
127
49
72
35
12
61
0
-5
-75
36
20
-13
3
43
64
-21
1
2
-10
22
0
-69
-37
-30
-18
1
-97
-69
1
61
-63
31
7
-51
-30
27
-35
-6
-31
-61
-41
-76
53
27
26
8
13
25
37
51
20
38
19
40
42
8
-9
29
-48
-20
-10
-6
-21
-34
-70
-73
-64
-53
-19
-120
-27
23
67
39
57
-6
-11
5
-60
2
-12
-44
46
-20
1
-26
17
-49
-64
-16
-49
26
15
-25
-29
-11
37
41
-92
35
6
58
26
57
72
-70
86
-44
-23
-108
77
10
-56
74
9
2
28
83
73
-22
-7
14
-28
-5
-17
-8
0
18
-18
-9
-43
19
19
85
56
10
-21
-8
-72
-15
-17
-45
-40
35
42
-68
45
-48
-25
-25
-40
-76
-39
18
27
48
13
-2
-31
-33
-26
31
19
45
13
-70
-35
-5
-20
-6
-29
-32
-7
38
-16
-18
-22
-23
-1
-49
-13
27
18
13
-20
-21
-4
57
11
-49
-22
3
38
12
19
68
-13
-128
-113
-26
13
8
8
-72
16
112
115
21
32
62
-53
24
3
-80
15
-12
-14
-86
111
34
-4
-65
-19
-60
-55
-10
-1
-22
8
33
18
52
10
23
-32
-19
3
52
0
72
54
17
-34
19
19
112
100
47
24
7
39
3
1
24
51
-42
-84
10
-3
-83
-29
-95
-101
-57
-74
-30
-4
28
5
-41
-42
5
75
-25
11
-63
-16
-33
-16
34
35
31
-63
5
1
69
-12
-6
29
-5
28
36
0
83
17
4
0
12
-17
21
10
-19
-23
-21
-40
-26
-33
-48
-34
-72
-42
-5
9
-21
-7
61
8
-48
-72
-6
13
-6
-58
6
-6
-26
44
11
-26
19
58
24
-1
19
-12
-18
-7
-22
72
36
17
16
68
-4
54
71
-15
-110
-7
-16
-97
-18
56
15
0
-7
6
-90
117
57
-60
9
-11
24
6
8
96
18
-8
10
-11
-42
2
63
-18
61
69
19
16
10
-14
6
3
69
127
36
-11
-4
-4
-88
-33
-72
-51
-82
-3
-45
-14
4
84
-3
-62
-3
3
3
2
-11
-23
-18
-8
20
-52
12
9
-11
39
-35
-39
-16
16
-38
-21
28
-126
-39
32
-17
-17
106
24
-102
-70
-46
-23
16
7
-2
-4
-14
-40
40
-26
-22
-26
-17
-23
-67
27
61
-20
-21
24
11
-5
-6
37
-16
7
5
-38
-55
-50
-53
-128
-62
-43
-41
32
-21
-15
-59
9
-23
-8
26
-12
-26
37
115
41
0
44
-6
42
54
37
98
127
127
86
97
66
-19
3
-42
-69
-37
-12
-6
3
16
-17
-61
-67
-49
-80
-46
-2
3
-12
-101
-107
55
-59
-15
-55
-66
1
67
104
81
100
14
6
18
-1
47
7
8
27
-9
7
-23
-9
-40
-109
-27
-46
21
-21
-13
11
61
50
-53
-6
-2
-29
57
-2
-119
-128
-48
-37
-16
5
-62
-30
25
42
2
-16
-4
-8
77
18
61
107
28
26
-13
5
-55
-15
36
40
12
29
34
24
-3
-13
-86
-81
-26
16
-1
-73
-52
-23
-4
90
-30
-43
-57
-6
34
13
-15
-125
-50
14
11
1
-13
-8
41
127
-25
1
14
41
21
36
102
-7
80
45
45
-16
9
15
-40
-101
23
6
25
-33
-5
-23
-26
-102
22
30
-47
33
18
2
-13
57
-20
-31
7
5
32
9
24
80
-3
-59
-45
31
19
20
15
7
22
62
28
-76
-21
-14
-79
-7
26
10
-10
4
3
11
55
-90
15
9
-20
66
-27
3
12
58
-93
-10
43
14
90
-5
-30
-39
17
0
0
1
25
18
-85
-16
-34
-34
-48
-21
-5
-15
0
37
2
12
35
-17
-50
-9
-112
99
41
-25
0
-15
-50
12
40
-43
-27
26
7
7
54
10
-106
-36
36
53
-7
-17
-42
-16
0
22
-36
-61
-50
-14
3
2
44
-61
-56
2
24
33
52
6
-10
81
11
-25
-3
-27
-48
12
83
-32
75
33
6
-96
-41
-21
-55
-18
1
67
37
79
44
9
10
-63
-79
-93
10
54
90
-10
-46
23
-35
-1
-35
7
-54
-2
25
-45
-50
-58
-32
-37
41
7
-81
4
41
-11
-72
-91
-52
-16
13
-43
-22
43
-28
38
43
23
-62
74
20
8
70
2
67
18
1
39
28
24
24
31
71
2
-111
-76
-9
-50
-9
-54
-75
13
28
-38
-3
1
-55
-23
-35
-5
68
25
28
51
-16
33
13
-22
-53
127
-116
-59
21
21
32
21
-89
-59
74
49
48
20
-35
-39
57
50
91
86
0
-4
-7
9
-9
-128
13
-38
-5
-18
-27
-2
88
109
-8
18
-7
-9
-37
-2
5
0
6
15
24
-33
63
16
49
17
90
100
-15
-78
-99
-28
-69
-67
-25
-55
-56
65
49
20
11
-67
-41
-75
2
5
-43
-24
-10
-107
-60
-6
-75
-7
11
-7
-128
20
7
0
17
-14
-48
6
51
53
10
33
35
9
54
-1
-45
39
7
10
17
18
-27
10
-6
68
0
6
27
-1
34
-6
-28
-128
-61
-53
-16
-25
1
-14
-37
16
-70
10
0
-7
-24
-1
36
-7
38
15
29
20
-16
-12
-11
-14
1
-23
-37
11
12
10
49
73
42
-32
37
-6
6
14
40
5
-8
-22
-39
-10
-14
0
24
0
15
41
1
13
8
-9
5
-35
-30
-5
-25
3
2
5
-49
-25
-14
-25
-3
-3
7
2
6
9
0
28
34
-9
-7
-12
-27
-5
20
-8
0
9
0
-1
17
12
62
-13
19
23
-4
-10
11
24
76
-15
-5
-4
-12
3
-7
-32
94
18
14
-13
-5
4
-5
-34
-55
10
-13
12
0
-7
25
-13
-95
-6
3
8
4
0
-1
-29
-128
9
-11
-3
20
-1
-24
-28
-64
0
-10
4
6
-2
-13
-4
-23
5
3
-9
6
29
31
41
-7
2
5
6
0
4
-21
-13
-32
-15
-3
-3
-11
-56
-20
2
7
2
8
1
-10
-37
13
25
-57
0
9
0
-1
-3
6
8
-37
3
6
0
3
-7
-47
-9
26
-11
-8
-3
-2
29
-2
-26
15
0
1
-1
3
5
23
54
-8
11
10
7
10
16
37
27
60
-3
-1
1
4
23
13
25
92
3
-7
7
-7
5
-11
29
110
9
9
1
-10
-22
-30
-37
101
-3
-10
-20
-12
-27
-7
-40
4
-11
-34
17
-7
-24
-11
17
-19
-6
52
-9
-11
28
-6
-31
19
1
-21
-15
17
61
5
-14
17
2
66
22
16
42
4
3
27
-4
-85
1
-10
-48
-2
-12
4
8
-7
4
14
52
-3
-7
-24
6
26
22
15
53
16
-4
50
-1
-32
-24
-43
-95
-26
4
-8
-5
16
-15
-8
30
4
-17
-42
-4
-20
9
2
-8
2
10
-32
5
-10
-10
9
25
-4
0
-9
4
0
10
15
3
7
3
-2
4
30
6
8
4
2
-2
-55
-23
-9
-14
-8
37
13
6
-11
12
18
2
4
29
3
-7
36
11
6
7
0
-27
3
-3
-8
-2
9
4
-3
-19
7
-4
-6
-6
-8
-2
8
17
10
4
-14
-9
9
7
-3
-23
-40
-14
-18
-5
-19
-17
3
88
33
12
8
6
3
-7
-9
-23
-16
-9
-5
-4
-17
4
24
31
27
5
-14
-2
-4
-8
-44
-60
-10
-9
-23
-10
8
7
20
-2
-3
7
17
0
-4
-5
-8
35
-10
-4
0
21
-3
-3
-1
-29
2
-4
-12
-22
-10
-6
-12
-92
-15
-6
-3
-7
-3
9
1
1
1
4
-8
-4
4
-9
8
75
16
-4
6
-3
-3
12
-3
-103
-32
0
-14
-4
-1
-17
-12
59
-15
-8
-9
-2
1
15
25
87
62
3
-14
-5
38
-8
-10
-67
18
9
39
16
-47
-6
-11
37
-56
-13
-10
-7
5
0
2
53
11
2
-11
-3
-11
7
-17
4
6
6
-6
10
9
4
12
5
-2
-6
-14
-3
17
-2
3
-71
1
2
0
3
-5
-7
-12
-49
-10
-8
-6
-2
-8
-2
2
27
-1
-1
9
1
3
7
8
4
2
2
-3
1
5
10
6
11
34
11
11
17
-2
-10
0
-76
-8
2
2
-2
-12
1
-9
14
-25
-7
-12
-11
10
-7
-19
-36
-3
-5
-10
-6
2
2
4
42
0
-2
0
6
-1
7
8
13
33
4
8
9
6
-13
-25
-53
-42
-9
2
-8
-14
1
0
-16
-9
7
-4
-3
8
-3
4
53
1
-3
-5
-1
-5
5
13
32
23
1
-4
0
5
-2
1
-5
-11
-3
7
2
2
7
3
-32
-10
-6
-11
9
4
-10
-2
15
18
-1
1
-21
-4
2
9
29
-8
-2
4
15
-2
-8
-1
-36
-9
-5
-1
-2
-1
3
2
2
-2
4
8
4
5
-12
-24
-52
-26
-8
-12
-6
-3
-1
1
40
12
-2
-10
-8
-6
3
4
35
23
2
8
5
-4
2
8
11
12
6
2
1
4
-5
1
-13
-11
-5
-4
2
-2
-4
-21
-36
-66
-7
10
-4
2
1
-1
-14
4
2
-2
0
-2
-3
-7
-6
-11
-1
-6
-3
-1
4
0
10
21
-1
-1
1
1
4
7
12
23
3
7
4
-1
-5
-10
-42
-14
-1
4
5
-2
0
-4
38
-5
-4
2
-3
6
0
0
-12
-1
4
6
3
0
1
3
-4
12
3
-6
-1
-1
0
2
1
-20
-2
-6
-5
0
-6
2
37
11
-5
-7
-8
0
3
9
40
16
4
6
-2
-2
-1
-12
-79
-5
2
-4
-2
0
-2
-5
-16
9
-2
-1
-2
-1
-2
-2
-18
-7
-4
1
-2
-4
-3
-7
-7
-19
-1
2
-1
0
6
9
-2
4
2
-1
2
-1
3
12
37
-5
2
-3
1
7
-2
-1
26
12
-4
-13
-9
-5
-2
-12
-55
-34
1
21
8
-1
-3
1
25
9
1
-2
0
0
4
-1
-27
-5
-1
3
2
0
2
13
30
5
0
-9
-1
-1
-2
-5
-6
5
5
3
1
3
-2
-2
32
9
-1
0
-3
-4
-5
-18
-32
-5
-3
-10
3
-3
1
-5
-2
-11
-1
3
2
1
5
4
-15
8
3
26
7
1
-2
4
11
4
-3
4
-2
4
-1
3
30
9
-1
0
-1
-5
-1
-1
-15
-3
1
4
2
-1
0
-2
7
5
1
-13
-1
-6
-8
-5
22
8
-6
0
-10
2
-2
-1
-11
-22
-1
4
5
1
-3
-2
3
-3
4
0
-2
1
2
2
-5
-7
-1
-14
-4
-3
2
3
13
6
-2
-8
-2
-5
-2
-4
-34
-6
-6
-7
-7
0
1
9
27
14
-4
4
2
1
-7
-22
-38
-8
-5
-10
-5
-2
1
0
-2
7
1
-7
2
-2
2
-1
-12
4
2
6
-2
0
-4
6
17
3
-3
-5
-7
0
2
6
7
10
-2
4
3
1
-5
-13
-11
-8
-6
-12
-3
-3
1
3
-2
2
1
3
-6
0
-2
-5
-22
-11
-7
2
-4
-1
-7
4
20
-21
-5
-11
-4
-1
-3
-8
-68
-34
-3
2
0
0
4
7
30
13
1
-5
0
1
-1
1
-4
-3
1
8
1
-2
1
-6
-7
10
1
-2
-1
1
1
6
22
5
-4
-1
-2
-1
-2
1
-2
5
0
5
-1
-1
0
-7
-20
-2
-4
-14
-4
-3
3
5
18
23
2
6
8
1
1
0
-1
-25
1
3
0
1
2
3
6
2
5
-3
0
2
-3
0
27
9
3
7
-4
-2
-1
-3
-8
-8
1
1
3
1
1
4
12
11
1
7
3
-2
0
3
36
11
-1
1
2
0
1
-2
-25
-14
-3
-3
2
0
-1
2
-13
4
-1
-9
-7
-2
2
0
-35
-6
-1
2
3
-1
-2
1
25
4
-1
0
2
-3
-3
-4
13
7
2
2
-1
1
0
0
-20
0
-5
-5
-2
-3
-1
-4
22
7
0
3
-1
-1
4
4
-13
-18
-1
-5
-1
-1
-8
-8
-54
-5
-3
1
3
2
-3
-2
28
4
-4
-3
-1
-1
0
-3
-4
2
1
0
-5
1
-6
-5
-6
-7
-6
-4
2
-4
5
4
13
-6
1
12
0
-1
-3
-8
-16
-6
-1
1
-1
-1
0
0
-8
7
0
-4
2
1
-1
-5
-20
-5
-6
-4
-13
0
1
4
14
-1
-12
-3
-3
-1
-4
0
17
-1
-7
-4
-4
0
-2
1
1
5
0
-3
-3
-1
-2
-1
-1
3
7
2
-1
-1
-1
-4
-6
-1
6
-3
2
-1
1
-1
-34
0
4
1
-3
-3
-3
0
-5
-15
1
-6
0
1
-3
-6
-10
1
-3
2
0
-2
-3
-2
31
1
2
3
-2
0
2
3
22
1
0
2
4
-1
1
-3
7
-1
-1
0
-2
-2
0
-2
-26
-3
-1
-4
-1
-2
-1
-3
-15
-7
-3
-2
1
-1
0
0
34
7
3
1
-2
-1
1
6
-2
4
0
-3
0
-2
-2
-14
-15
-13
-5
-1
-2
-2
-1
-5
-18
0
0
-4
0
-1
0
5
-16
-8
-1
-4
0
1
-3
-7
35
7
-1
-3
-1
-2
-1
2
14
2
-2
-3
-1
1
3
-3
-8
2
2
2
3
1
-1
2
4
-2
-2
-3
-2
-1
0
1
5
-6
-2
1
-1
1
-1
2
6
6
2
4
-1
0
3
3
-11
1
1
-3
1
-1
-4
-6
16
-3
-6
-4
-10
-3
0
1
0
3
-2
5
3
0
-1
0
-23
-3
-1
-2
2
-4
-1
1
12
5
-2
2
0
1
1
3
25
-3
1
2
1
0
0
-1
-47
8
-3
-3
-4
-1
-1
-2
22
-17
-4
-4
-3
0
-1
-3
-9
-1
-2
-1
-2
-2
1
1
-16
0
2
0
2
-1
-2
1
12
9
1
-3
-2
-2
-1
-5
-21
-3
0
1
0
2
1
2
19
5
0
-3
-2
-3
-1
-4
-21
5
-2
14
0
1
1
3
34
-2
-2
1
0
-1
3
5
-14
5
0
8
6
0
-3
-7
4
-11
-2
-4
-1
0
0
-3
-21
-5
-4
-6
0
-3
-3
2
8
5
1
-6
-4
-1
-2
-1
-3
0
0
-1
-1
0