0
10
15
3
-2
-2
-2
-1
-3
-10
-16
-4
2
-2
0
-1
2
-2
16
8
-1
1
-1
0
0
2
-10
-7
0
-1
-3
-1
0
1
31
1
-5
-2
1
-2
-2
-5
-16
-2
5
1
-1
1
-1
-4
13
4
1
-1
0
-2
-2
0
-2
-2
-6
-2
-1
-1
-2
-4
-5
-7
0
0
-1
-2
3
11
31
3
-2
0
0
-1
0
0
-10
1
-3
-1
0
1
-1
-3
-3
-9
-3
-2
-5
-2
-2
-2
-3
-4
-1
-1
1
-2
-2
0
-9
2
-2
-2
1
-1
-2
-1
-4
-1
-1
-2
-1
-1
-1
0
3
-6
-4
-2
-2
0
2
6
25
0
-2
-1
-1
-1
-1
-4
-44
-13
0
-1
-2
1
-5
-4
0
21
2
-1
-1
0
3
1
4
2
1
0
1
1
-1
1
11
2
-1
-1
0
-1
0
0
6
9
2
0
1
1
1
-1
-20
-10
-5
-4
-3
-3
-3
2
0
-8
-4
0
0
0
-2
-3
2
0
-2
-2
-1
1
1
2
5
3
1
-1
1
-1
1
-5
13
-1
-2
0
-2
-1
-2
-8
-7
1
-1
-3
-1
-1
1
15
-19
-11
-6
-1
0
-1
-2
9
45
-1
-5
-3
-5
0
-3
-10
-80
-1
2
0
-2
-1
-3
-8
-10
-15
-7
-4
-3
-2
0
-4
-1
3
2
-2
-2
-1
-1
2
9
2
1
0
2
-1
-1
8
20
0
-2
0
0
0
-2
0
-20
2
1
-1
0
0
1
-8
-4
-7
-3
0
0
0
-2
-5
33
15
2
-1
-3
-2
3
8
24
2
3
1
2
2
-7
-8
-15
-11
-4
-4
-6
-1
-1
-12
-6
-1
1
1
0
-1
1
15
-5
-8
-5
-1
-2
-2
0
4
32
3
-1
-2
1
-3
3
4
10
-9
-5
0
1
-2
-1
-2
21
29
13
3
0
0
1
-11
-23
-10
-4
-2
0
0
-4
0
-59
-2
0
-2
-3
1
5
5
16
5
1
1
1
2
-2
-15
-42
-11
-7
-2
-1
-1
1
28
19
0
-2
-1
0
0
-4
-5
17
-2
0
-1
-1
-2
1
0
-8
-1
-3
-1
0
-1
2
-1
33
11
4
0
2
1
-4
-10
-41
3
4
0
-4
1
2
-4
-2
-6
-3
-3
-2
0
3
6
12
-6
1
0
1
0
-2
-2
-4
13
-1
-1
1
0
-3
-8
-9
-10
-3
-1
-2
-3
-1
4
15
4
-2
0
-1
0
-1
0
-40
-4
0
0
-1
0
1
8
0
-15
-4
-2
-3
1
-1
-8
8
5
-2
0
2
-2
-3
-3
-25
-9
-5
1
0
1
-1
0
42
16
0
-1
-2
-2
-2
3
-40
-11
0
0
-1
0
-1
-10
-32
-12
-2
0
-1
-1
1
-1
25
1
-1
1
-1
-2
0
3
-2
4
-1
-1
0
-1
-4
-12
13
-6
-2
-3
-4
-3
1
15
14
5
1
1
0
0
1
0
-26
3
-2
-3
0
-1
-2
5
2
-11
0
-1
-1
-1
1
15
2
2
-1
1
1
0
-2
-18
-5
8
-5
-3
-1
-1
-2
-1
20
7
11
2
0
-1
3
0
-1
3
-1
1
0
-2
-1
-1
14
-8
-1
-2
-1
0
1
0
-31
-16
-3
0
0
0
5
11
36
5
-2
0
0
1
-12
-27
-30
2
1
-2
-4
0
0
19
13
-7
-3
-3
-1
-2
-8
-19
-2
-4
-3
-2
0
-2
-1
-2
14
-1
-2
-3
-1
-1
5
0
-5
3
-2
1
-1
0
-1
-6
-16
1
-4
-2
-1
0
2
2
25
1
1
-1
-1
1
1
7
-54
-1
-1
0
1
-1
0
2
4
1
-2
-1
-1
0
-2
-1
18
-2
-3
-1
-1
0
4
-4
-19
11
4
1
1
0
-9
-6
10
-4
-4
-1
0
-2
1
3
8
-5
1
0
-1
-2
-3
-11
-50
-8
-3
0
1
3
-2
5
14
-9
-2
1
2
1
0
-2
6
-5
-7
-5
0
-1
-2
16
-10
8
6
1
2
-1
-1
-5
47
7
1
-2
-4
-2
1
6
3
6
0
1
1
1
2
-17
-68
-15
-4
-3
-2
2
-5
5
26
-2
-3
-5
-4
-1
-10
10
-9
-3
-1
-1
2
-2
2
0
14
2
2
5
1
-2
-4
15
25
7
3
2
0
-2
3
-38
-7
6
1
-3
-7
-1
0
16
-6
0
-2
-2
0
1
0
3
-4
-29
-16
-6
10
-3
3
6
15
30
15
1
-18
2
3
5
-11
-9
-11
-4
28
2
-2
-5
-9
8
7
-3
-32
-12
-4
-66
-3
-3
-4
-1
-49
-6
5
7
3
-20
-11
3
69
15
0
35
-5
-19
-10
-4
45
6
10
11
8
11
11
6
15
-1
1
30
6
15
5
-2
-6
-3
-16
-25
36
2
0
-7
-75
-27
-9
10
-36
-11
-10
-13
-85
4
-6
-14
-39
-20
-9
4
91
6
0
-28
14
-6
-4
-2
-4
-1
-3
0
-4
4
0
-3
6
-1
7
6
14
12
16
10
-17
-10
0
-15
-5
0
-2
-4
-46
-7
-2
20
14
7
-4
-11
24
4
-2
5
6
-35
-17
-5
-4
-4
-1
-46
17
35
17
14
7
0
3
-36
-24
5
2
-1
-15
1
-3
7
0
1
0
2
8
0
-5
-3
1
-9
-18
-24
-3
1
-3
15
-2
-16
-4
0
-1
-3
4
-24
5
-11
-9
-15
-1
1
4
25
15
12
9
18
10
3
6
-62
-7
-6
0
12
4
-2
5
30
-9
7
15
28
-5
-3
12
32
-33
-9
-1
-16
8
3
0
-40
-20
-12
-28
-42
0
-6
3
43
24
31
45
16
-21
5
0
1
32
-2
4
34
110
8
0
-8
10
-9
-18
-6
-51
-3
3
24
-27
-16
-12
-7
26
-1
5
-8
9
-14
-10
7
2
-2
6
-1
28
35
-5
-63
-27
2
-24
-13
8
22
49
73
7
-5
-2
24
5
0
7
11
-19
-1
-4
-25
-17
-9
-11
-8
-37
-3
1
6
12
-5
-2
19
39
9
7
-8
-43
-16
-27
-49
-6
4
-7
-22
-3
6
27
23
10
-1
-19
32
11
40
17
36
33
-1
-3
-39
-16
0
-9
-18
-65
-10
-1
62
29
-7
-14
-11
-1
4
-2
49
-4
-21
-16
-9
38
11
7
-11
-17
-8
3
-7
-3
-9
6
-10
21
26
21
0
3
-4
-21
-40
-7
-2
1
22
-70
-13
7
17
-22
0
11
18
15
2
15
1
1
-12
-34
-82
22
9
-10
9
8
-18
0
47
-18
-9
6
-1
26
-8
20
25
56
9
-6
-78
-7
24
-4
-10
-32
-5
10
40
-2
29
13
8
5
4
-11
-26
-20
-43
-23
-43
-19
-14
6
14
-22
-19
-26
-54
-37
0
-11
-28
15
60
40
47
9
-10
-20
-59
-54
-11
18
38
29
5
-4
12
3
-7
-10
-12
20
-1
-1
-7
-50
-6
-4
-16
-31
-9
14
42
73
-17
-28
-48
7
0
-5
30
-10
-20
-2
16
12
-1
-6
24
-31
24
17
-5
8
12
-5
-13
1
-15
-7
22
8
-7
2
17
-26
0
13
14
15
3
13
-12
65
15
-11
-5
-12
-8
0
-29
-44
25
26
9
1
-1
4
56
11
10
-14
-36
-83
-32
-9
-3
10
1
1
30
-23
16
2
-9
-23
-25
-18
-25
74
18
-3
-69
-21
-28
-40
-67
10
10
3
8
30
28
44
67
52
18
1
12
24
16
1
-27
-50
-19
-2
-31
-24
-14
-13
1
-93
-7
-7
-23
-15
-53
-38
-47
16
-4
-5
-36
11
34
13
0
12
-2
6
-22
1
-16
-17
-10
-21
-4
4
32
0
0
1
9
32
5
-6
44
18
0
-4
22
-60
-3
2
-21
-2
-39
-9
9
1
4
-9
-2
3
5
23
17
31
-7
-1
9
5
3
-24
-47
-23
-4
-2
-33
-18
10
2
9
41
3
11
23
27
14
11
26
29
6
0
12
25
8
-18
-19
-32
-1
-6
-20
-45
-18
8
29
5
-3
23
37
34
-18
9
31
-23
-6
-14
-34
-76
-6
-13
-51
18
-1
2
-38
-11
-29
-16
5
-31
-3
-9
-7
21
3
6
8
41
-4
-6
-51
5
27
3
12
-12
-5
9
46
20
12
-7
-5
8
-1
-17
-40
-20
-27
-17
-48
-41
-5
-2
-15
-33
6
6
15
-25
-4
0
41
12
-10
0
-12
-33
-2
3
-4
22
1
-3
-3
0
-1
4
-4
3
8
7
-24
60
17
6
39
42
-1
11
63
33
5
-13
17
-10
16
2
6
14
-3
5
-8
-48
1
-15
2
10
1
7
-21
-12
-39
4
-11
-25
-1
-3
-10
-8
-14
-13
-14
-17
-11
4
-3
-2
43
35
56
15
-2
-9
60
82
1
-1
-11
-45
4
2
56
-9
-17
-10
17
33
0
0
-8
-24
51
31
-6
-55
-4
5
12
5
-27
-15
-9
18
0
-19
-66
33
6
-16
-17
22
-1
-4
-14
-47
-11
-3
-1
-79
-9
0
23
27
-12
-11
-17
55
1
-9
13
-56
-21
-2
-28
-26
3
3
9
2
7
5
-9
14
2
-12
-9
-4
9
3
21
-26
-12
4
13
42
1
-8
-14
7
7
-4
-11
-16
-14
-22
-13
-33
-8
-2
-26
-1
-34
-12
-35
-41
-9
11
77
25
51
17
43
52
15
2
-23
-67
-15
9
13
26
8
-1
10
10
-2
-10
-13
-8
4
6
11
3
-23
17
33
9
-7
9
43
30
46
22
26
21
-1
-9
34
-4
-37
-40
-77
-59
-2
9
-10
33
23
29
28
47
6
-19
-69
-52
-2
-6
5
-55
-12
3
-33
-32
-31
-17
-24
56
6
-4
-6
26
17
3
8
5
0
-5
6
26
3
2
8
7
-5
11
34
13
19
4
5
7
4
0
-44
7
-32
-27
-54
-17
-9
-1
60
3
21
20
-3
-34
-4
-5
-12
-17
-26
-4
33
-19
1
-9
-10
20
11
6
18
62
0
-6
0
-7
-28
-19
-57
-74
-5
11
3
10
25
14
35
73
8
3
-27
-1
25
16
3
-2
-5
2
-47
-7
-21
-10
-18
21
1
-5
22
-5
27
12
27
-69
-9
9
35
34
-18
1
-4
37
6
1
8
-7
-17
-11
-6
-5
1
10
31
12
31
9
-6
-21
7
-6
-34
-37
-4
-6
1
83
3
-7
-29
14
-2
2
14
-88
-25
3
23
-17
-6
-4
0
70
20
2
-4
5
-6
-11
-15
34
0
-7
15
10
-13
4
17
-29
-8
-5
10
43
58
16
13
-22
-1
3
6
17
-23
-28
-54
-14
-5
-14
-40
-68
-11
11
35
-83
-11
5
16
10
3
5
33
33
11
-2
-18
-35
-15
0
22
61
10
4
-21
23
10
6
-23
-49
-12
3
-8
-3
-2
-14
-20
7
12
-2
-11
15
-9
8
28
46
-3
1
27
6
-21
-15
-6
-27
-3
8
27
-34
26
2
-17
-48
-17
-1
1
-8
10
15
32
76
20
-1
0
12
4
7
-15
25
1
0
-77
-4
-5
-7
1
-46
-12
-2
46
55
-20
-18
-28
-44
-3
19
52
14
21
15
24
37
-2
-13
-34
-21
-23
-14
-20
-75
3
-3
-20
-21
4
13
10
75
8
-2
37
19
5
-5
-11
5
-4
0
-14
3
15
3
-7
-125
-17
9
1
12
1
-1
0
119
18
9
11
-46
-47
-29
-43
-26
-10
-4
-22
-40
35
-2
26
-9
5
-9
-25
-23
-45
15
-9
-23
0
1
-5
-16
24
2
10
53
-12
9
28
30
-7
-12
-32
-121
6
-7
-20
6
3
6
37
127
27
1
39
3
-15
-7
0
-6
-10
1
21
2
7
5
-13
-107
-6
-12
9
10
-12
-5
-18
-14
-15
4
-7
-20
9
10
-1
-35
-8
-7
30
-8
1
-10
-24
28
0
11
60
24
9
-14
-19
-125
-25
-9
-26
24
8
9
38
93
24
-8
-14
-26
-40
17
19
-36
-20
13
0
-19
49
-9
-11
-33
9
-22
-29
-8
-6
3
0
113
5
6
26
24
-15
-20
-29
-48
0
-3
-27
18
0
-5
0
38
5
6
28
26
0
-1
14
3
-3
-3
-45
-21
17
5
-32
-86
-18
3
-8
23
1
4
12
25
3
-5
-68
-34
-10
14
43
46
-1
-1
-7
8
-32
-24
-42
-96
-17
7
43
1
32
0
15
31
17
-14
-83
-53
-5
17
7
-19
-8
12
30
24
-83
-30
7
-9
-4
-1
-10
24
49
14
19
62
11
-3
-7
13
3
-4
-8
53
4
-9
31
-44
19
10
-26
-119
-36
-6
-74
-31
-8
-5
34
7
22
0
16
0
-44
-11
21
47
9
9
30
9
-19
1
10
2
6
-8
-13
14
-13
-8
-19
29
-12
-8
1
-4
33
0
-40
-112
-31
2
-44
22
-6
-7
-2
17
21
-5
24
-10
13
8
-1
53
-2
-3
19
-60
-21
-12
6
-26
-6
0
7
-11
6
11
-7
-59
4
-8
-27
9
4
1
1
67
-3
-1
-29
0
-29
-13
-18
-6
-2
-8
-26
-8
25
-7
-9
5
1
5
29
24
20
14
22
-57
-4
6
30
-21
4
-2
-23
49
2
0
-17
-20
-28
-2
21
-109
-10
2
4
21
-1
-4
6
54
9
-3
3
9
16
2
-14
34
-13
5
25
17
-12
-15
-24
-90
0
-3
-59
-50
-24
16
76
106
28
2
3
26
39
14
7
-49
-3
-2
8
-14
28
-2
-41
8
3
1
44
26
8
21
19
-70
-22
3
15
37
6
-12
-24
-24
-4
1
-2
-50
-16
0
36
82
16
6
-18
12
-4
0
-4
8
-4
-10
-16
-3
-17
-9
-31
-37
-15
3
-4
-3
7
3
-1
4
7
5
25
32
-10
11
27
3
-2
3
26
-30
-12
-10
17
51
2
2
-12
-4
19
-6
-10
-75
-6
3
59
10
9
-6
-21
43
7
-2
-34
44
-7
1
0
13
2
3
-5
-23
-22
-8
-13
10
-1
-4
16
-38
-14
-5
-16
-39
-4
3
-34
-20
15
2
8
26
0
-9
-28
-38
6
-13
-22
-5
1
1
61
60
-9
4
7
19
3
-15
-109
-5
18
-7
-3
-7
-13
-2
23
-7
1
-2
-38
-67
-7
-10
35
11
-14
-2
31
25
7
-7
-9
10
-7
-2
-4
40
4
1
-1
5
-23
-14
7
-7
-7
-2
11
4
5
12
8
13
-7
13
5
4
27
2
-22
-36
2
-11
45
15
-5
-1
12
60
18
-5
10
-14
1
5
17
80
11
-4
-25
-18
-33
-34
-37
-56
-15
-2
-25
0
-5
20
-3
-29
-11
-4
-22
-19
27
0
-5
-60
-4
7
28
16
11
10
-9
20
0
0
-16
20
2
5
27
-52
-2
4
-11
-44
-53
-28
-54
4
-1
-3
0
11
23
2
32
-28
-6
2
4
-3
6
11
0
27
3
1
-9
15
-15
-6
14
42
6
3
25
20
-6
-15
-14
22
-5
7
-23
7
-14
11
-9
-101
-7
-12
-55
-18
18
-5
-20
99
13
3
37
17
13
17
-14
-65
-3
-4
27
-3
18
5
66
58
5
-2
-72
-37
-32
-13
-18
24
-8
5
23
5
-13
-5
-6
-49
7
-6
20
-2
1
4
2
22
5
-9
-15
-25
-20
-8
-30
-41
-15
11
5
16
-9
-15
-4
12
7
-10
-19
-20
18
4
5
23
5
0
32
22
21
7
13
-12
-5
4
-12
-10
10
0
-7
-22
-1
-3
33
13
-9
0
0
-56
-6
5
1
2
-45
-13
1
25
-5
-8
-10
4
37
16
24
-39
-4
0
0
2
18
2
14
64
12
-1
-2
-15
-15
-4
-22
19
8
1
18
13
-12
-4
9
6
0
0
-11
4
-14
-1
-7
-10
-9
2
6
-26
3
4
0
-30
0
-4
-32
-7
12
1
-8
13
1
4
47
35
0
1
13
-3
-4
-3
-19
-34
-12
-10
-1
-13
-3
3
-20
28
11
-2
-13
-15
0
-3
6
-26
-16
6
-2
16
0
-4
-8
-16
25
12
13
-23
-5
2
3
0
3
-3
-5
21
0
-2
-11
21
-28
2
-1
1
0
-4
13
1
59
6
3
-2
-3
-1
-15
-13
-15
-3
8
1
1
-8
-23
-16
-12
-3
-9
8
-1
6
20
53
16
-8
-4
-8
-2
0
0
-29
-33
-5
-2
-13
-4
-1
14
4
21
16
8
15
4
-3
-11
-6
5
-9
-7
-9
-2
-3
-26
-60
-21
1
2
-4
1
9
36
27
-22
-12
-6
7
-1
-5
-10
-23
-28
-9
-4
-4
1
-3
-8
27
39
16
4
0
1
10
22
16
18
9
4
-9
-1
-9
-32
-1
-5
1
-4
-3
0
-1
-6
12
-13
-8
1
3
-4
-2
-14
-27
-26
-11
1
1
1
1
-5
11
5
6
1
-8
-1
3
14
-8
-3
-3
-1
6
0
4
5
23
44
5
2
-10
-2
2
1
-8
-18
-2
-7
5
-3
1
10
0
20
12
5
3
4
-9
-9
46
2
-5
-2
-6
-1
2
2
-76
-15
-6
2
1
2
-1
-15
-21
-25
1
-3
1
-3
0
-4
5
8
0
-2
-5
-3
-10
-16
3
29
-2
-1
-4
-5
3
11
46
-13
3
2
-4
-1
6
4
-19
20
2
2
9
3
-2
-4
25
-21
-5
-1
-6
-2
0
0
-3
13
-2
-2
-1
0
-1
1
-7
-21
-6
0
2
2
-2
-7
21
4
-2
-2
2
-2
-4
-9
-9
-3
-6
-3
-5
-3
8
10
-11
-1
1
2
5
3
1
-4
8
14
-3
-3
-1
-2
-5
-1
-1
-28
-3
1
0
-2
-9
0
7
7
-1
-1
-4
-3
-2
-2
-18
-3
1
0
2
1
4
6
-3
-2
2
3
0
-2
1
16
18
-8
-9
-2
-2
1
-6
1
27
25
2
-1
-3
-1
1
-7
-51
-16
4
1
-1
2
-2
-3
18
10
3
-2
-2
-2
-2
-5
-11
5
-6
-5
-3
-2
-4
-6
-5
-59
-20
-7
-3
-3
4
7
20
56
24
9
4
1
4
14
34
30
-1
-7
1
2
-7
-12
-59
-5
-2
2
2
0
12
25
-3
-3
-6
-11
-8
-3
-6
-10
15
-22
-4
3
0
-1
-6
-12
-41
-12
0
1
-2
-4
11
19
33
9
-1
-1
0
1
1
-5
-18
2
0
-2
-1
-2
-1
6
31
33
8
1
2
0
-3
3
23
7
0
-5
-5
-1
-6
-12
-43
-2
-4
-4
-3
-2
-2
-5
-25
-8
5
4
1
2
0
3
33
-5
-5
-3
0
-1
-3
-20
-28
-4
2
2
2
-1
-9
-6
18
-28
-11
-3
0
-2
-7
-7
12
8
3
1
-1
0
1
-1
-11
14
1
-5
-1
-2
-14
-12
9
-14
-3
-5
-5
-2
1
2
0
-5
-3
-5
-4
0
-1
-9
-1
26
5
7
7
1
0
13
8
-14
-10
-6
-5
-1
3
-18
12
-22
-7
-1
-1
-1
0
17
34
14
6
4
1
-1
-4
-15
-64
23
8
2
-4
-1
15
5
-11
-33
-10
-13
-9
-3
-2
17
1
14
4
11
12
0
-2
7
23
-42
-10
0
-6
-1
-2
-13
35
3
-8
-6
-4
-5
-5
-5
-35
17
7
4
-1
-2
2
7
9
-9
2
-4
-12
-2
-1
-14
-5
-10
-3
-1
10
3
9
18
8
10
-1
-4
2
1
-9
-12
5
12
3
1
-2
0
4
6
-23
-3
-2
2
2
-2
4
9
-1
9
3
-2
-5
-2
2
-9
21
0
3
-1
-4
0
3
21
-37
-27
-6
-3
2
2
-1
-1
6
34
7
7
-3
1
1
1
0
13
3
4
12
3
-3
7
8
-15
-1
3
1
0
-2
-6
-3
-7
-2
2
0
0
-1
-10
-37
1
-4
-4
-1
0
4
6
-13
-5
0
-5
-7
-1
-9
-17
1
-7
3
5
5
0
-6
-3
10
28
7
4
3
-2
4
3
5
-32
-9
-7
-10
-5
-3
-21
26
26
5
1
8
1
-6
-13
-93
-24
-3
1
4
-2
1
-6
23
-10
-5
-5
-5
1
-8
-7
-12
-4
-4
-1
0
-2
0
-11
18
-2
1
0
-4
-5
2
29
27
-1
-3
-4
-4
0
0
-2
-2
-14
-4
-2
0
-2
-1
5
6
14
6
0
-1
4
-3
-5
7
10
4
-9
-7
-1
-10
-8
-14
2
-1
9
4
0
5
2
-4
-14
-8
-3
0
-2
-3
1
23
2
0
4
0
0
-3
12
-24
8
1
2
3
0
14
10
1
-8
-1
-8
-4
-2
-7
-5
18
2
-2
2
-13
2
-4
13
16
-10
-5
-3
15
1
1
-12
-37
0
4
0
-3
-2
0
14
8
-19
3
-1
1
-1
5
2
4
24
2
1
-1
-2
-1
-20
-18
-12
-4
-4
-3
-1
-4
-12
-4
13
-6
-3
-6
-2
3
22
17
-7
-1
-2
-8
2
-1
3
4
-3
-1
0
16
-1
1
3
11
3
0
-3
-1
-1
5
21
0
-3
0
2
1
0
-2
-13
1
-7
-6
-4
-10
-2
-1
-4
1
-6
-1
-2
-2
0
6
7
-7
2
-1
0
-8
-3
-2
5
-12
-7
-2
2
3
0
-5
-1
10
4
2
0
3
-1
-4
-5
2
-5
-3
-2
-61
-4
-1
2
-7
6
4
4
86
14
6
9
31
-1
-2
1
-6
-1
-2
-10
-40
-2
-4
-1
0
4
-4
-16
-12
10
0
-5
18
-2
-1
-17
2
-8
2
-10
-50
-9
-3
13
-7
-30
-9
-8
-4
-1
1
1
18
51
13
12
12
-3
-2
-13
1
0
-4
2
-11
-1
-2
9
-14
-33
-2
0
-19
-4
-2
15
-4
47
3
1
10
1
-1
-35
25
-10
-3
17
0
1
-3
8
-13
-10
-4
-6
6
-1
0
-19
12
7
2
-1
1
0
-9
15
4
-31
-6
-16
-5
-2
-2
6
-8
3
-2
-9
-12
-4
3
8
24
-7
1
3
7
-3
2
-37
17
24
-7
-3
-7
0
5
22
-7
14
5
9
19
3
-1
26
0
-20
-3
-4
3
1
-3
-9
8
-20
-5
1
13
1
4
13
-8
37
5
-2
-13
-6
-11
-34
30
14
0
3
-9
-4
0
5
-36
-14
-5
-6
-9
0
0
-14
-48
1
-2
-11
-24
-5
1
1
-3
-36
-7
2
33
6
-1
-21
-14
13
6
12
14
3
1
-17
11
6
-2
-4
7
-4
5
40
3
-8
1
0
-5
1
-3
0
-10
-12
-5
-8
-17
-1
-1
-3
-1
-15
-4
1
-3
-2
7
3
40
-8
0
-8
-9
-3
-1
-8
-12
32
7
1
-4
2
-2
10
10
10
1
2
-1
-3
8
2
7
-18
-8
-6
-1
2
-8
13
-1
6
4
27
10
3
-5
-37
2
-8
-1
-1
13
-3
2
-65
3
-4
-11
-13
-4
1
6
11
-17
-8
4
-1
-10
-3
4
-1
-5
-4
2
-8
-2
2
-4
18
45
8
1
-12
13
-1
1
-29
-19
5
-2
8
-33
-3
-6
-28
-40
-14
-3
-3
16
-6
-3
-26
0
-6
-13
-41
-45
-1
-2
19
13
5
16
45
37
1
2
23
9
12
8
17
24
1
-1
-31
-3
-7
-8
-10
-31
-6
-6
7
-5
2
-10
-21
-87
-11
10
-14
3
-11
-8
1
73
13
5
34
-1
1
1
-6
11
5
5
48
4
14
6
6
32
10
-21
-20
0
-7
-2
-10
13
-5
-5
-8
-9
1
-6
-22
-106
-17
-7
12
-10
-42
-37
-45
-48
-7
-3
41
11
15
18
31
-63
4
2
10
33
-25
0
19
99
20
1
16
-35
63
8
-10
44
11
-15
35
-11
-1
18
16
4
1
-20
-27
15
-8
-25
-33
-81
-13
15
49
-4
-15
23
29
5
-9
-8
41
-30
0
10
40
-9
2
-10
-31
6
-5
-7
-40
-4
-3
-8
-53
-7
-6
-3
0
-13
-6
9
50
27
11
-5
-39
7
0
-4
5
-12
-32
-10
22
-27
-12
12
44
2
28
26
44
-41
-1
-18
-92
5
9
11
12
30
4
3
-10
-43
-10
-16
-49
63
7
0
-13
29
-3
-4
-2
-43
-5
-1
-19
-42
-23
-7
15
70
11
10
24
36
-28
-15
3
15
-1
-2
-31
-60
64
8
-14
-17
-1
7
10
39
4
-4
-27
-36
-5
-6
-16
-15
10
14
33
-32
-1
-13
91
7
-53
-33
-51
14
-4
-13
-40
21
46
39
68
-69
-12
7
-16
18
-12
-3
-7
46
8
-20
-3
-39
-23
-24
-47
-39
-10
4
-30
-58
28
35
57
51
10
3
34
33
-26
-22
-10
-14
-3
1
39
13
18
5
-1
9
-1
-13
-47
-37
-25
-20
-43
9
2
6
-2
14
-3
-17
-29
-62
-14
4
-55
-28
-3
0
56
16
7
17
15
18
-33
11
8
51
12
1
19
0
35
-3
-31
7
-3
3
-20
-11
16
15
3
-68
-8
-1
-2
27
-4
-2
50
68
8
9
35
8
-25
-9
-20
-22
-4
8
-24
11
39
34
51
-14
-4
3
-13
9
9
4
-10
17
1
-4
18
-2
-12
-10
-29
-2
0
-18
-78
-75
-8
-15
-25
-6
-6
0
40
27
-62
-6
3
-14
-6
-2
-16
-1
93
31
7
47
6
-1
-22
5
-24
-25
-43
-25
-1
1
50
-12
-4
-1
22
-3
-6
-11
25
26
11
5
21
11
-7
5
-73
13
-18
-7
-24
-82
-8
6
108
2
-10
-9
-30
54
14
1
-10
12
0
-5
44
55
7
7
4
19
13
15
20
26
-3
10
40
15
-28
-9
43
22
2
-11
-62
-7
23
4
-36
0
-3
-9
-55
-52
-21
-30
-93
-74
-7
4
7
39
15
23
67
19
-4
1
24
-10
-31
-15
-39
-9
0
5
31
-23
12
2
13
-10
1
-15
3
15
12
7
23
24
2
9
-24
4
-5
-6
-3
0
1
-4
19
1
4
2
-20
-7
-5
7
-11
8
-11
1
28
3
-1
0
-11
-7
0
-1
-10
33
7
-13
-34
-18
-7
-36
-91
-29
-2
3
60
-5
-35
1
70
16
2
4
-35
13
-4
0
-2
-70
-10
-17
-9
42
30
11
-18
10
0
0
-47
-50
-5
-6
10
-5
-5
9
46
-16
2
-9
-35
-26
-5
6
-18
-13
1
4
31
72
18
5
-7
0
-24
-15
-14
-34
-4
0
61
38
29
2
1
13
2
-10
-48
-22
29
20
17
0
1
-1
-4
-2
-3
3
3
-15
-13
0
-15
-13
-16
-13
-29
-75
-4
4
15
26
-33
-20
-13
114
21
2
-16
30
1
9
76
33
-10
-5
2
-40
-2
-1
-46
-117
-6
-6
-29
-14
-16
-10
7
102
7
1
-1
15
-10
-1
-14
-53
-7
-4
5
12
14
-10
-36
24
8
1
-3
18
-22
-11
3
20
-9
-12
-56
-28
10
16
24
-51
-7
8
2
8
22
14
14
-20
1
6
54
29
20
9
-20
25
3
-5
-6
-13
-3
-10
-31
-37
-8
-16
-2
-5
-4
13
21
22
0
-4
3
-42
-21
-4
-11
-19
-2
3
2
23
-4
-17
-1
-13
2
-5
-2
-31
32
27
66
37
1
13
43
14
-8
10
45
3
-3
1
43
22
18
-3
-31
-48
-1
-4
-18
-28
-12
-10
3
60
8
-8
14
31
35
4
-12
-11
0
5
-15
40
2
4
-31
-20
-10
-5
-45
-50
12
12
47
-36
-6
9
-5
-54
-45
-21
-50
71
3
-12
0
44
7
7
18
-32
-3
9
25
-31
-10
7
-11
54
7
6
44
43
49
14
-72
-36
-2
-12
-53
-29
-13
-10
60
16
0
-7
-7
-16
-24
-19
13
-32
-5
7
13
68
3
12
49
28
-1
-1
-51
-71
-42
-15
-1
2
2
-3
-20
30
48
22
-36
-6
4
7
-51
-38
-19
-23
-77
-17
-8
-2
12
3
2
25
81
-33
-7
-24
-31
23
-18
-12
-2
44
4
8
35
3
6
-4
-8
-10
0
1
-19
9
15
18
-28
13
-3
-16
-1
-8
36
1
0
-27
-4
0
9
-8
-6
6
28
-25
-4
-8
-5
-6
-20
-5
-36
-5
-3
-1
4
46
-3
1
1
-13
-5
7
-9
-54
-8
-18
16
-2
6
1
22
16
9
-5
-12
18
-6
-16
-6
-30
-12
10
61
-10
-1
-7
-5
-31
-11
-7
-26
-2
2
10
57
7
-2
14
15
15
3
19
30
25
18
-5
0
19
4
-18
-97
-3
6
1
-17
-20
-6
17
39
-11
-15
-3
4
-37
-2
12
26
34
-27
-28
-45
44
3
-17
78
-23
24
25
10
-26
1
6
-33
15
32
9
-52
-13
-2
-10
7
-19
-7
21
73
13
-1
-10
-28
12
-17
-21
-34
-19
-4
10
29
52
1
-10
3
7
-7
8
24
38
-10
-16
-74
-54
5
-7
-44
-51
-7
15
79
54
-1
8
-9
-20
6
-4
-67
-51
2
-2
-36
10
1
4
-2
47
-2
4
39
14
-10
-22
25
49
4
5
25
25
5
13
55
40
2
-19
-18
-11
1
6
-37
-38
-5
1
-36
-26
-20
-7
29
-35
-3
0
-15
-5
-27
-27
-13
43
-2
7
1
47
76
19
-2
-19
-2
2
-11
-53
4
11
7
-6
-1
1
19
11
-14
-2
-17
-17
0
-1
4
-18
-37
-29
-31
-32
-6
0
-15
-13
6
14
12
31
-2
1
58
24
2
-8
-46
-25
-7
1
-39
2
5
1
38
-26
3
12
9
12
-24
10
17
-8
0
-8
-43
-69
-27
-34
-58
19
3
-14
5
7
45
12
-4
-18
-6
-8
-10
2
2
-1
-33
-3
-1
-2
58
17
18
19
72
5
-2
4
1
16
-19
-15
-48
16
3
-1
-40
1
-45
-38
-16
-1
1
-4
20
-28
11
21
23
52
5
-20
-43
-1
23
12
24
-40
-8
6
46
18
-13
-14
-33
7
-4
-8
-42
0
20
-15
-14
-38
5
-6
-10
-25
-33
14
-5
43
1
5
3
-1
35
20
34
-78
-5
-5
32
26
-20
-6
41
102
15
-2
-7
0
0
-9
-13
12
-3
1
-10
-25
31
1
-7
-17
-2
-2
13
-6
0
-2
-16
-11
-3
4
28
41
-11
-10
-25
-32
-2
-1
-77
-22
5
6
25
-19
-3
-7
15
6
-9
-15
-4
24
-1
3
46
5
-6
5
-34
24
4
-2
-9
-1
20
9
23
-18
-4
12
-1
40
7
12
55
3
3
-7
27
-46
-31
-19
-13
31
8
-6
-16
-50
9
-5
-24
42
1
-4
22
11
-24
-10
-11
8
6
1
-10
15
3
0
-23
19
-3
9
-44
5
20
13
53
-12
8
1
6
-15
-34
2
24
0
2
-20
-22
-14
37
3
-57
-61
-10
-2
-27
-39
-2
-7
1
46
3
9
44
34
-8
5
18
8
0
-1
-14
1
-8
3
-13
-30
-3
6
12
25
18
1
5
-5
1
4
6
-2
-4
1
1
-4
-6
7
3
5
-4
2
24
-4
2
-18
-34
7
-17
-9
-13
37
-2
8
-16
-33
13
8
16
-28
-7
4
63
3
-10
-9
-10
31
8
-15
-52
-1
18
2
15
17
-3
5
-29
-2
14
7
-2
-12
-3
-6
13
41
-42
-30
-43
-46
-8
0
-33
-83
18
21
13
-4
2
10
42
57
-3
-2
-3
-14
-9
16
0
-34
-3
0
30
43
13
-17
-47
-22
-14
-11
-8
-20
-9
4
58
28
-15
6
-27
-52
-12
0
-18
2
-6
-9
11
-93
-9
-2
10
-13
0
-8
-20
30
7
7
23
2
-52
-7
51
57
3
0
-1
2
48
14
20
42
11
11
9
8
6
-7
-47
-3
-4
1
25
27
-15
-15
-27
-54
-17
2
-15
-59
17
14
27
-16
14
-1
-7
55
-50
-16
3
25
-4
-12
-57
-85
-7
-6
-29
-114
-13
0
-11
41
13
3
10
113
19
3
-8
-15
-7
1
12
48
1
-2
9
-5
-25
0
44
-5
0
2
-11
21
64
9
-14
-15
-3
-4
-29
-22
4
5
-16
-76
-8
1
-7
9
1
-10
21
-40
-1
5
4
24
-7
9
20
63
9
-2
49
30
-63
-14
-20
25
0
-7
1
-22
59
2
-9
-24
-5
14
-34
-1
0
0
-46
-7
1
-9
8
-16
17
7
29
-34
-18
2
41
13
-22
-8
4
8
14
3
17
28
-1
2
37
36
-2
-2
9
48
5
-1
-37
-28
-1
-1
-4
-62
-18
-13
-31
11
0
-10
-48
-25
25
6
45
31
-5
1
10
12
-16
4
19
-39
-3
5
46
-20
4
-1
-25
34
4
-4
-36
53
1
1
1
-36
-5
-7
-33
-33
0
-1
-22
19
-3
-4
6
-6
23
2
-13
-38
-1
-4
-19
5
-28
-20
-17
0
-5
-2
-17
29
20
11
-15
-25
0
-1
-11
22
-6
0
11
25
3
7
21
47
-4
-2
3
6
-4
-8
2
-10
12
1
-5
-11
-2
-3
8
-78
-23
-13
-5
0
1
-1
-11
-27
7
-1
-13
14
0
1
11
21
-19
1
8
-1
1
-4
5
21
10
5
11
-5
-5
-2
4
3
1
-8
-7
0
1
0
-11
1
0
-3
1
18
-1
-4
-13
-36
-16
-3
-4
-13
-3
2
9
36
9
6
13
1
-2
-9
12
-17
23
-12
-2
-8
-1
1
2
4
-13
8
-9
-4
0
3
19
-4
-3
4
0
10
-1
-2
-9
-1
30
7
8
-4
0
-1
16
29
-3
3
1
-2
0
1
-14
34
-33
-14
-11
7
-1
0
-1
-14
24
1
1
0
0
-5
-26
-41
-23
-3
14
8
0
11
34
17
13
-2
-6
-2
2
-11
-18
-21
-29
-12
-8
-2
-1
5
16
10
3
6
4
0
-1
-2
-8
-10
-2
1
-1
-6
-1
-1
-27
7
9
-1
-3
0
-2
3
18
-6
-22
-4
-1
1
0
1
-17
7
2
-9
-10
-7
-3
-25
0
28
12
10
7
-2
-1
-1
-2
-30
-27
-6
-4
-6
-1
5
7
21
13
12
5
5
2
-4
-9
6
3
-2
-4
-7
0
11
13
-34
6
2
-3
-4
-1
-4
-18
-10
-18
-7
-2
-4
-5
-15
-10
5
16
-8
-5
-4
-5
3
6
-7
14
4
3
3
0
3
-1
-11
-1
-3
2
1
-1
-2
8
29
-12
0
0
-2
1
6
16
11
15
-4
-3
1
-2
-2
-2
-2
0
8
4
-1
-1
-7
-11
-45
-11
-8
-5
-3
-3
19
21
-2
5
3
-4
-3
3
-15
-9
-4
0
-1
5
3
0
-2
6
15
-35
-13
-4
-4
-2
5
-3
19
38
14
5
2
1
7
11
-12
-7
-3
-2
-1
0
-1
-8
22
5
1
1
1
-6
-5
-8
-50
-20
-7
-1
-1
-2
0
8
-24
-15
-6
-4
-4
1
-13
-20
1
-7
0
-2
-2
-1
20
45
-12
20
-3
-6
-1
2
-8
-28
1
18
8
5
4
-1
-11
-14
11
-14
-3
1
-3
-4
0
-3
11
9
0
2
3
-1
3
-2
3
-7
1
-3
2
-1
20
37
-35
-11
-7
-8
-3
1
-8
-7
2
1
-1
4
-1
-1
-3
-10
-7
-3
0
3
3
-1
-5
-7
2
-7
-5
-1
-2
-2
-5
-1
8
-6
-2
-4
-3
-3
1
-4
26
-15
-5
-4
1
-3
-7
-3
-14
17
3
-2
-2
-2
10
11
9
7
0
-2
-1
2
-10
-10
9
-1
-1
2
-1
1
-2
-11
-44
-8
0
3
2
-1
-8
-13
5
-1
0
0
-1
-2
9
14
1
-5
3
1
4
0
-20
-27
29
-26
-11
0
-1
-3
5
5
1
-11
-4
4
3
2
4
11
10
4
-5
-9
-7
-4
-4
-7
-1
24
12
4
2
2
-2
-2
-1
13
3
-2
-4
-4
0
3
5
14
5
2
2
0
0
2
1
0
-2
0
-3
-1
15
15
-8
7
-4
-10
-8
-1
-6
-6
-10
-1
4
4
4
-3
12
6
15
12
-1
-3
-1
-2
-23
-24
19
-1
4
-6
-7
-2
1
-11
0
-9
2
13
7
2
8
10
-23
-5
-4
-4
-3
-3
-5
-7
4
-14
-4
-4
-2
-4
4
7
-21
-21
-15
-14
-4
-2
-15
-23
-15
21
6
-1
-5
-3
-2
-4
15
-3
4
5
2
1
25
42
4
-8
-8
-18
-7
-1
-4
-25
-18
11
13
10
6
0
-14
-7
9
-14
-9
-5
-3
-3
13
19
42
8
-4
-8
-1
-1
2
4
-21
7
3
-3
1
7
2
8
-33
-7
-3
0
0
3
-6
-3
-15
-25
-7
2
5
0
2
19
-4
16
2
-3
0
1
0
50
33
-4
-8
-2
-1
-2
0
-50
15
7
4
9
3
2
2
-95
-22
4
0
7
4
2
4
-92
-13
-18
-8
-2
-2
-3
-8
-70
11
10
0
7
3
2
2
0
-43
-21
-4
5
3
2
-4
29
-8
18
4
1
-1
-1
-14
35
0
-9
-5
-1
-1
-1
-12
32
-6
-17
-1
5
0
-3
2
65
46
23
3
-2
-2
1
6
47
-48
-12
-5
-5
-3
2
-3
25
-28
19
9
7
2
2
-1
17
4
-7
-3
-6
-5
-2
0
7
23
0
1
0
-1
-3
-7
5
17
9
1
-1
-1
1
-3
7
-3
-15
-4
1
2
2
0
1
14
13
3
-1
1
0
10
18
27
8
0
-5
-2
0
-6
16
14
-8
-4
-7
-5
-2
-2
-5
-23
-7
-2
2
0
1
-2
-3
11
-1
0
1
-1
-1
1
6
-12
6
3
2
-3
-1
-6
4
28
-23
-11
-6
3
-1
-1
5
-5
3
-2
-1
-4
0
-4
-14
-32
-1
-3
0
-1
-1
-2
1
4
2
2
2
0
-2
12
18
40
-4
0
0
-2
-4
-3
-29
-79
-8
-2
-2
-3
-1
-8
-13
17
18
2
0
1
-4
0
1
-9
-3
-3
-1
-1
-1
0
-11
-7
-2
1
-1
-1
-2
7
27
27
-9
-1
2
2
0
5
14
20
-3
0
0
0
0
-8
-12
7
12
1
-2
0
0
-5
-7
-34
-5
-3
-2
-4
-2
1
10
50
3
2
-3
-2
-1
-5
10
-24
-6
-2
-1
1
0
3
10
10
-19
-4
-1
1
0
-4
3
14
12
2
3
1
-1
6
9
-21
3
-2
-1
-2
1
0
-10
9
2
2
0
2
0
-4
3
6
4
-2
-2
-2
-2
-7
-29
-14
-53
-15
-7
-6
-2
-1
-33
-8
39
10
0
0
0
4
-2
9
-1
2
-1
-3
1
3
-32
32
-1
-3
-2
-1
-3
-5
-22
-30
-3
2
-3
-2
-2
-5
-25
6
-14
-3
-4
-4
-4
1
-32
-6
0
-2
0
1
-3
1
-6
-4
7
2
2
2
0
3
2
-1
-6
0
0
0
1
3
8
30
13
5
0
-2
0
-4
4
-4
-1
-4
-2
1
3
2
-8
-29
-9
-3
-3
0
-1
2
8
25
10
1
0
0
1
-9
-13
-14
-9
-4
-2
-2
-2
-3
5
10
-19
-2
0
-4
1
0
2
1
13
-6
1
0
-2
8
-1
2
26
9
4
2
-2
-7
10
3
-12
-6
-2
-4
-2
2
-6
-1
12
8
3
0
0
0
8
-10
-15
-5
0
-1
-1
2
14
0
-19
-9
-5
-2
-1
-13
-4
-1
21
8
1
-1
1
1
-9
-36
-27
-3
0
2
0
-8
-4
3
33
3
-4
-1
0
2
-3
-9
2
-5
-3
-2
-1
0
13
-6
-13
-4
-8
-5
-2
-13
-30
-51
-13
-3
1
0
-2
0
-11
12
7
9
2
2
0
6
70
33
-15
-3
-4
-5
-1
6
-2
12
5
-5
-2
9
2
-3
-10
3
2
-4
-9
-6
-3
-4
0
13
14
11
-2
-2
0
-10
-35
-34
4
3
1
3
-5
-3
-18
2
-10
-2
-5
-1
-1
12
56
30
-14
-10
2
-2
0
-16
-22
-26
5
1
-1
-1
0
0
-12
-3
6
-9
-6
-3
0
2
8
8
0
9
8
0
-3
0
-11
35
5
-1
0
1
-2
-8
-5
-14
-6
2
2
-1
-4
1
16
4
2
-3
0
2
3
10
7
31
-2
-9
-9
0
0
11
21
17
7
-2
-10
9
3
-1
7
-62
-1
24
36
0
-6
-6
-33
27
14
5
-6
-3
-4
-1
-26
-45
-17
-10
2
-6
-1
-7
12
5
-5
1
22
6
2
-2
4
9
-29
-19
-14
0
1
13
-9
-19
9
8
5
-7
-2
-6
3
22
21
9
0
6
3
-2
3
27
10
-7
-21
-15
-6
2
3
-61
-31
-14
-3
5
1
-2
5
11
-12
-7
0
-16
-5
7
24
-6
-2
-5
-7
-3
-2
-17
-71
-20
8
-5
-37
-23
-8
9
82
27
7
12
10
14
5
6
-5
-8
-12
-6
-2
1
4
5
16
-7
-8
-12
-10
15
-4
-1
24
-2
8
9
22
-29
-4
-6
-18
17
0
-2
1
18
0
-10
-14
1
1
-11
-19
37
5
3
24
22
13
28
53
20
0
-9
-41
-50
-8
-4
-7
2
0
2
4
41
-13
-27
-58
-16
3
4
22
-42
20
37
70
24
6
2
-20
39
0
-6
-10
-16
-4
-5
-2
-97
-32
-24
-37
-10
-1
-2
5
14
19
23
43
12
-8
-11
23
40
1
-12
-32
-9
-4
2
-20
-50
-23
-18
-21
-15
-2
4
29
24
6
-2
-4
-14
0
1
-2
-15
12
7
-2
-24
1
-11
-16
14
-6
-10
-26
26
3
-2
12
-11
6
10
-18
17
-1
4
2
-12
21
11
36
12
2
0
-13
-4
-18
-26
-50
8
2
0
42
14
15
26
78
-57
-14
-12
-39
-23
-31
-24
-20
2
2
1
-4
35
2
-5
-18
15
-2
15
-8
-55
15
20
24
7
3
1
-18
-5
-17
-13
-29
-12
-4
-15
-20
14
3
-23
-32
-23
-1
9
-1
24
-14
21
16
8
-1
-2
22
25
-10
-14
-12
-1
0
-2
-13
-17
1
-8
-30
0
3
3
-18
-19
-70
-13
18
-35
-8
3
74
53
86
13
5
31
-3
-12
-72
-23
-2
-4
-2
-36
-1
-2
10
20
14
13
-1
56
2
1
-5
-10
7
11
5
-25
3
5
-4
33
-18
-3
10
-3
0
-1
-14
-62
-52
-29
-51
-28
-11
-3
13
10
26
24
60
20
4
-11
28
27
13
8
2
-24
-4
-9
-38
13
0
6
25
28
7
1
22
-31
3
-13
-63
-26
-7
4
-36
-19
-43
-20
10
15
6
1
10
-5
16
22
33
-11
-11
5
21
6
24
24
33
7
0
-6
-15
56
13
3
26
7
3
5
-59
-52
-6
-10
-29
1
-4
5
23
20
-12
-11
-11
0
7
-15
-61
-78
-18
-16
-13
8
-2
8
27
-2
1
18
37
19
4
2
40
11
14
-8
-39
-10
-9
-3
11
-10
-7
-23
-30
-59
0
6
-5
-7
-31
2
9
19
3
1
3
59
17
5
19
0
-4
2
38
74
11
-5
-2
6
2
-15
-74
-92
-16
2
-33
25
-4
-5
10
22
-3
3
-13
-16
-3
-4
25
-15
-8
8
60
1
0
9
24
26
-25
-29
-62
10
5
3
-29
22
69
27
46
31
1
-9
46
19
-14
7
16
-9
2
-2
-30
-1
15
4
-14
-4
-5
-6
-16
-27
-45
-29
-45
-61
-9
9
-2
4
3
-1
9
40
6
6
15
-15
40
7
2
17
5
4
-17
15
-21
-12
-7
-13
4
-1
28
6
17
12
7
-1
2
-6
35
-41
-25
-15
-23
-3
-10
5
-19
2
-20
-1
7
-46
-5
1
-6
18
3
-5
-3
45
3
4
-22
-38
2
1
-15
-22
-1
5
4
47
8
-13
-10
7
-3
-7
0
-36
6
12
55
20
1
-5
-10
-35
0
6
-2
-27
-5
-6
-36
13
14
11
16
-11
-1
3
-3
4
-36
-21
-20
42
6
-8
-37
10
-4
-13
-42
19
4
-10
-32
-59
25
28
58
9
-2
-5
-41
8
3
11
9
14
-8
17
36
35
3
7
32
2
0
0
-29
-9
-37
-44
-59
-34
-4
-1
48
41
47
36
30
38
6
-3
-28
-39
0
2
-11
-13
0
0
10
-7
-12
-3
20
9
-2
11
17
15
-8
-31
-94
-26
1
-10
-8
25
17
31
58
18
-6
-2
-1
-65
-5
11
24
-49
-1
-6
14
31
12
13
25
57
7
-3
-27
1
-2
-10
-26
-9
-9
15
-22
-40
-46
-54
-89
-34
-3
-14
2
12
37
45
113
32
0
-10
-43
-31
6
12
-12
2
-3
-3
-19
-11
-3
2
20
-40
-6
2
-1
45
-41
-36
-61
-10
4
0
-41
-5
27
7
3
43
6
5
28
21
25
-15
-95
-4
8
10
65
4
33
44
123
14
-7
-9
-11
-5
-23
-6
-11
-59
-4
-2
28
46
-34
-32
-39
2
2
-21
-13
-92
-26
-21
-52
-11
-4
7
-15
9
23
29
44
6
2
10
17
9
-10
-4
2
7
0
2
4
22
25
0
-5
7
-3
6
2
27
14
19
-7
-55
-9
1
-30
-46
-25
-1
16
18
5
-7
10
3
-2
-11
-6
-41
-13
12
24
13
-7
-17
-51
-28
2
-6
-1
-24
10
11
66
30
-9
-6
-10
-6
-7
-10
-18
-38
4
-3
-55
-18
-3
8
32
127
20
10
28
20
-16
-35
-104
-34
0
-4
-3
23
9
40
99
2
-11
-17
-5
-32
-14
1
-5
-44
-10
7
46
43
62
19
-10
-15
-2
-7
-12
-35
-41
-50
-79
-4
-6
9
31
46
11
9
29
-90
-6
-3
37
17
-22
-15
13
51
9
-1
11
30
12
-5
-13
15
-4
-24
-12
-59
5
0
-1
-22
-6
6
-17
42
0
1
0
33
9
-6
-5
-19
-7
-11
-51
11
-2
10
11
14
-21
-27
-8
-41
-4
6
6
17
27
27
41
52
8
-20
2
-23
2
29
76
-28
-3
6
-6
35
-1
0
-14
52
6
-1
-32
-17
-31
-32
-38
-12
-8
7
0
-20
26
30
34
-36
-2
-9
40
48
-4
-7
4
25
2
7
-7
-27
-12
-16
-40
-77
-6
-19
-8
-27
20
30
49
78
10
-2
49
2
11
10
25
-14
-7
20
-1
27
-3
-38
-67
-1
8
-11
26
4
11
26
56
9
-12
7
0
42
4
-2
-14
-43
-7
-7
56
-6
-14
8
6
-54
-14
-7
-51
-32
-40
-45
-92
-20
1
-7
-37
-15
44
12
48
67
13
4
19
-24
-3
1
13
-5
-2
7
-22
23
-9
3
42
21
5
-11
80
-8
5
-4
-32
12
-7
1
-60
5
-8
-16
-46
-7
-1
-6
-8
-7
-24
-18
-75
-33
-3
-10
7
2
8
19
46
-12
-1
6
-13
33
-3
-13
-31
38
4
5
30
7
3
17
30
-14
0
4
11
-49
5
14
8
-26
-1
12
-23
-12
-21
5
38
37
-5
-17
-36
-29
-14
15
43
-8
-2
4
71
47
33
-10
-37
-2
8
12
54
7
2
-11
19
54
4
3
8
-13
-15
-12
-20
-28
-3
13
-4
-13
28
30
30
22
4
-5
-12
26
12
-2
-3
-32
-12
-10
13
9
-13
-15
-12
-20
-4
8
28
28
18
-1
-12
-38
1
-14
-53
-51
-29
-9
8
36
6
3
35
26
-14
-17
-70
-2
4
18
15
-17
12
10
77
-5
-10
-2
0
28
8
42
99
57
12
1
-33
-24
-13
-10
-26
-20
-7
-13
-60
-42
8
3
-5
-21
-2
-4
-24
-9
-13
-10
-27
53
11
-1
-41
-12
-20
-33
-70
8
-7
7
21
13
-16
2
26
-17
-3
-4
24
22
7
4
-9
-14
-9
-13
-28
-16
14
2
13
3
2
-13
36
28
3
1
-19
10
0
18
62
-25
-36
-17
-7
-13
6
-3
0
-4
8
-3
-22
20
-7
9
-2
39
15
4
-29
-85
-10
-6
-16
-15
-20
-15
5
-30
7
14
22
10
30
10
18
81
8
9
25
21
-22
-5
17
5
0
-29
-64
-18
-18
-8
-65
-1
-1
10
33
9
23
12
18
6
0
1
-41
-2
14
2
10
-42
-8
-15
3
-37
-13
-2
-5
-57
-3
5
-2
11
-33
-49
-85
93
16
-6
-34
-8
-32
15
40
-11
0
3
61
19
104
52
33
65
4
-1
-58
-58
-24
6
42
-32
4
0
37
-5
-4
4
-3
-15
3
-4
-32
-16
-20
-27
-42
27
-3
7
19
28
-8
-27
-59
-14
4
13
-33
6
26
35
71
38
2
7
43
-18
8
22
34
-19
-1
-7
21
3
12
-9
-22
-5
-8
-10
-44
-36
-35
-18
-61
-126
-22
5
-2
0
-14
-18
18
96
12
-3
-16
44
-22
6
46
-18
-8
-1
-59
-39
55
6
2
-19
3
2
57
10
-12
-12
-19
54
4
-4
32
13
-20
-22
-81
-85
-9
-4
-9
-1
-21
12
69
40
2
-10
4
-18
25
-1
-26
5
-9
-8
-50
-12
-5
-20
-56
-59
-4
9
18
-10
2
16
50
40
-2
-5
-36
-30
9
1
-21
-86
-3
7
-30
-6
-44
-26
-15
32
-1
6
19
15
15
32
78
24
6
-8
31
28
4
0
2
-10
-2
5
-45
-34
5
2
4
37
4
-1
-16
-8
-14
-28
-57
-10
2
-12
-58
-42
15
21
27
9
0
0
-20
-4
-7
-4
-14
-10
-7
-1
15
21
24
15
7
-51
-8
8
58
75
-7
-2
0
3
-1
-7
-32
-40
-34
-25
-15
-4
-1
-9
14
-3
-8
-25
-74
-14
-1
4
-38
-6
17
10
22
9
0
-2
0
1
-15
10
14
8
-2
3
70
22
-30
-32
-11
-19
-2
-1
-32
1
25
25
60
37
4
-4
-10
-20
-10
-5
-6
-6
-6
-3
-8
7
7
10
28
41
4
7
18
61
23
6
0
-27
0
-1
-38
-90
-27
-21
-39
17
3
6
77
42
-11
-6
5
9
-2
-10
-66
-44
20
24
18
-24
-4
1
-45
15
18
-4
-13
0
-4
-6
53
28
-25
-17
-24
5
-5
-3
23
34
34
13
12
-32
2
0
16
-96
-41
-9
-6
3
2
-4
-52
-30
-15
-7
10
-1
-1
11
17
46
26
7
5
24
1
-7
4
3
-3
-1
2
-28
-4
-6
-20
-11
-5
-5
0
3
-3
1
-29
-6
4
26
21
1
-1
1
-51
-9
1
-5
32
3
-3
1
32
29
12
2
-15
6
-3
2
5
-11
8
-5
-13
-10
2
-6
32
2
1
3
1
-1
-1
-2
-11
0
-6
-6
-25
-18
-8
2
-23
4
-6
-2
-13
7
0
1
23
34
-15
-13
4
40
7
0
23
18
30
10
12
17
1
-10
1
-72
-36
1
10
-30
-2
-10
-2
-1
0
-11
-15
0
-6
14
-5
15
7
3
-4
-12
0
-9
14
11
4
2
-1
-11
-3
-3
-23
13
1
-1
2
23
5
8
28
9
-10
-6
-6
15
-2
-10
-6
-5
-8
-15
-31
-25
0
-8
-18
15
-4
-1
4
13
-7
7
53
-5
8
17
36
-4
3
5
-14
-20
13
-2
-4
-3
3
3
10
41
18
1
14
9
-5
2
8
-13
-34
-16
-30
-11
0
-6
-32
13
19
-1
-21
3
0
4
-7
-23
-8
4
15
11
1
-12
-18
9
8
8
-11
-2
-4
0
-13
-4
-7
-3
37
-9
-2
5
4
-24
-3
-1
-2
12
1
-5
1
28
2
1
8
4
-1
-1
-17
-23
-2
-1
-9
-13
3
-5
-21
-21
2
-1
-4
-10
-3
6
7
26
-7
-10
-8
6
2
-13
-29
11
7
0
-8
4
-2
7
38
-10
-4
-1
17
4
-1
3
-12
-4
14
5
-2
-3
-1
-1
-7
11
7
3
-13
-19
-4
1
14
15
-19
-4
3
9
-1
0
-1
13
12
6
11
-7
-3
4
1
-19
-14
-7
3
5
2
0
10
-5
15
2
-16
-3
-2
-3
-13
-32
-1
-7
-4
2
-1
-1
-10
8
-33
8
5
-8
-4
5
24
6
13
-4
-10
5
2
5
9
28
9
-2
-5
-2
3
-9
-14
-30
-9
4
4
-5
-1
-7
2
-4
10
0
6
-3
-2
0
-2
-3
-16
-3
-7
6
2
3
0
87
9
3
7
-2
-1
0
9
-109
-15
-3
-2
-5
1
-13
-25
21
-15
1
-2
-3
-2
-3
1
19
22
2
2
3
-1
0
-2
-2
2
-2
-4
-5
-2
6
-9
36
-3
-4
-5
2
1
7
5
-46
-18
-10
-5
-3
0
-6
14
-19
14
11
6
2
-1
-7
-9
-6
-5
-6
-2
-1
-4
8
20
11
8
8
-1
0
3
-6
-7
12
20
-7
0
-3
-1
6
10
40
-17
-2
-1
-2
0
7
-14
-81
3
2
-6
-5
1
-6
3
19
14
2
-4
-4
-2
-18
-6
11
0
-1
1
-5
-2
-1
0
24
-9
-4
-4
0
-3
8
36
39
5
1
3
3
0
-4
-18
-70
-13
-4
0
-3
0
7
15
-2
0
2
0
-3
1
1
0
-1
0
-5
-6
-3
0
-17
-6
27
-26
-5
2
0
-3
-3
-18
12
20
6
4
2
-1
0
0
41
10
-1
1
4
-2
1
-7
-57
-11
2
2
2
2
6
3
-1
13
3
-2
-2
1
9
16
13
-14
-7
-6
-3
-4
8
-12
-18
13
8
1
0
2
-23
-25
8
-20
-2
0
-3
-2
-4
-6
-11
-25
-8
-2
-1
-3
-8
-6
28
19
-2
1
0
-2
14
20
39
0
-7
-5
-4
-1
12
18
-49
0
1
-1
2
2
-15
-13
-4
-9
2
0
-4
0
0
1
7
-6
-5
-2
-1
-3
4
7
-5
14
5
2
0
-1
1
6
24
8
-1
-3
-1
-2
-19
-21
1
13
-2
-1
-4
-5
5
4
2
-4
2
-1
0
1
-2
-1
-6
-2
2
2
1
0
9
17
-4
6
0
0
2
0
-2
-5
-33
-38
-16
-2
-1
-1
-12
-20
6
-5
-2
2
-3
-2
-10
-21
-15
-11
-3
4
0
-3
-2
2
10
-8
-5
1
-1
0
16
21
-1
24
-1
-10
-5
-2
-16
-25
5
-20
-1
7
6
-1
-4
-6
-12
-10
1
2
-2
-4
7
2
-13
-7
-4
-6
-3
-2
-3
-6
24
16
7
0
-2
-2
8
13
38
22
4
-4
0
-2
3
12
-66
-18
-5
-6
-3
1
-17
-27
-2
-2
2
2
0
-4
4
7
0
1
-5
-6
-3
-2
12
19
-33
-11
-3
0
-2
7
-8
-6
27
7
4
-1
-2
-2
2
7
23
6
-2
-2
-3
-1
5
0
-7
1
-2
-5
-3
1
7
21
1
19
8
-8
-4
5
-26
-47
12
18
11
20
9
-3
-3
-6
-13
0
-1
3
0
-1
11
19
8
0
2
2
2
0
-3
-2
-2
-5
-5
0
-1
-2
15
23
9
-10
-8
-8
-2
2
-1
-7
-1
1
1
1
0
0
-1
-8
-10
-6
-2
-2
-1
-3
-8
0
1
-10
-1
1
-1
1
22
34
21
-27
-10
-10
-5
1
-15
-36
-37
29
12
9
3
0
-9
5
0
-13
-3
6
3
2
-7
-26
-24
5
-1
-1
-4
-6
5
7
24
-9
-3
-3
-1
0
6
17
4
-6
-3
-6
-2
-1
8
1
2
20
-2
-3
-3
3
1
-1
59
-10
1
4
4
-1
-5
-1
-71
6
-1
-1
-1
0
0
-7
9
-18
-7
-5
-4
-3
-11
-24
-22
-7
0
0
0
-2
4
13
-2
-18
-6
0
1
-3
5
5
35
17
1
0
0
1
-6
-6
-39
-11
-6
-6
-4
-2
3
-8
-14
-12
0
5
3
-1
0
2
-10
-2
0
0
-2
0
0
3
-7
15
1
-2
1
0
-5
2
38
16
11
12
9
3
2
-11
-13
-1
-2
1
-2
0
1
-13
-24
-15
-2
1
1
-1
-8
-4
21
1
-3
-2
1
-3
2
0
-16
-22
-13
-7
-1
-1
-4
-2
13
15
11
2
1
0
-5
-4
25
8
1
-2
-2
-2
2
-9
-13
18
2
-1
-5
1
1
16
26
21
4
-2
-2
1
-1
-14
-34
-13
-4
1
-1
1
0
17
-33
-1
-3
-6
-5
-3
-5
-3
9
-8
-1
-2
-4
-4
3
-2
8
-6
0
-1
-2
-1
-6
5
15
5
-1
1
-1
0
-3
-16
-9
-5
-7
-10
-6
-4
0
0
-6
-5
1
4
2
1
2
13
-6
9
3
1
-1
2
-6
-11
18
-7
-3
2
3
1
0
1
-1
13
2
2
-1
0
0
5
-2
-11
-2
-1
-1
-3
-3
-7
2
-2
-3
-2
-2
-4
5
31
24
2
-2
-7
-7
-1
-5
-11
-2
-2
-6
-1
-15
-2
3
-13
-52
-1
7
2
13
4
-3
5
-6
-5
-2
-2
-1
0
-3
-9
-7
-7
-4
-5
-3
-5
-3
1
0
-30
-7
0
-2
-1
-2
11
29
39
8
-2
-1
-3
1
-17
-3
6
-1
-2
-3
0
-3
-8
-12
2
-1
0
3
-1
-3
-5
9
-16
1
-1
-2
-1
1
1
1
7
-5
-2
-4
-2
-1
-14
-21
-15
-1
1
4
1
3
14
6
11
8
4
2
2
-5
-13
9
5
1
2
5
-1
2
14
-4
-20
-9
-1
-7
-1
2
-13
6
3
2
0
0
-1
1
-4
-1
-4
-4
-1
-3
-2
1
10
19
8
1
-3
3
-1
2
-1
-37
-10
-1
1
-12
-1
-8
4
8
-5
-2
-2
14
-1
3
0
21
-3
-2
-2
-3
-1
1
-7
-29
16
3
4
12
1
-2
-4
7
-10
-7
-8
-16
-2
5
7
12
-2
-1
5
11
-2
-5
-7
-12
-6
-4
-2
-1
-1
-1
8
-9
17
6
1
1
0
-3
-17
9
-5
-1
3
1
-1
6
24
-8
-1
-4
-3
-11
-2
-6
-11
5
-13
-8
-5
-6
-3
-3
7
11
12
4
4
-14
-5
-6
-13
0
-4
-2
-2
20
4
1
-4
-15
-4
-2
1
-6
2
4
15
1
2
0
0
13
2
-5
-17
-42
-13
-5
-4
4
1
3
19
10
2
-1
-2
4
-3
-1
-7
2
-32
-15
-8
0
-1
-13
24
5
33
17
11
1
-3
2
-21
1
-2
0
-4
-8
0
3
-22
-4
-5
-2
1
-3
-3
3
3
13
2
-2
-4
-8
3
6
9
-7
-14
-5
-4
4
-1
-8
10
18
1
-2
-1
5
0
2
10
-3
-16
-5
-5
-11
-3
-3
-52
-34
19
4
3
14
-3
0
35
9
2
1
-4
-37
-5
-1
-7
-10
2
-4
-6
25
7
1
3
5
-10
-3
3
13
2
2
5
7
5
1
-5
-12
-5
-4
-22
-12
-5
-2
-3
-21
-3
-5
16
2
-3
-5
1
-3
-2
-11
-29
21
-26
-6
1
-9
-1
-5
21
-16
11
15
6
41
6
2
-20
-24
8
-4
-7
-21
-5
7
7
7
-1
2
0
-57
-3
3
2
-6
0
-4
-6
34
4
-12
-13
14
-10
-10
-2
5
3
7
10
25
-3
6
7
19
0
6
-22
3
-20
-9
-12
-11
-5
-6
28
-24
29
11
-2
-55
-9
8
4
-37
2
1
2
-18
-2
-1
-12
-6
-13
-2
2
21
2
-14
-21
5
2
-5
-1
49
5
-7
16
29
3
4
0
-1
-8
-1
40
13
7
5
-1
-9
-1
8
-6
2
-2
-6
-5
18
4
6
56
14
-10
4
8
7
-2
-10
-6
-6
-7
-8
-50
12
1
7
-2
15
17
-6
15
-65
-17
2
-1
-4
-7
-3
-1
2
7
1
-14
-14
-12
-4
23
70
6
10
-42
-2
-3
-10
-3
-2
3
12
63
19
12
14
8
-1
4
-8
-17
-9
-11
-4
-2
-6
-2
0
3
29
3
-3
-18
-32
-6
8
-8
-36
-13
-14
3
-5
-2
-18
12
27
-16
-2
4
2
-3
-10
-3
4
4
3
-8
-11
-4
-1
1
-3
-14
-6
-10
-2
3
-4
-15
34
28
0
-14
-42
-10
7
-33
-9
3
3
-16
51
1
-4
13
-7
16
6
24
-49
-3
-4
3
-3
12
9
7
-26
-11
2
-20
-23
-34
-35
-54
56
11
-2
-28
1
17
26
41
16
-1
-9
1
9
-11
1
17
0
3
4
19
-21
-4
-11
-25
-38
-6
1
20
4
33
25
24
-35
-4
-4
-36
-25
-11
-6
-13
18
2
4
14
43
7
-6
-5
17
1
1
-4
-62
-18
-3
-8
-13
-2
-2
-34
-7
-21
-10
-8
-9
-11
-5
29
7
39
32
36
-7
6
5
-13
-5
-30
-5
-15
-11
-7
3
22
26
50
9
12
-1
-3
0
1
-2
-23
-10
-12
-22
5
4
-28
-17
-54
-41
-11
70
7
-5
-66
-26
37
32
46
51
2
5
25
35
-4
11
1
9
-1
4
6
-3
22
15
6
-91
-22
1
27
32
-8
-12
-18
-57
-4
8
21
-39
-18
-17
-32
89
18
-8
-103
-17
-30
-26
-4
83
11
6
80
23
36
36
70
17
6
-19
-17
-15
-15
-8
-22
21
0
11
39
6
-14
-13
-20
-41
-12
-4
-20
-10
-5
-19
-25
-60
-5
-12
-1
-1
-5
22
36
22
0
3
-11
-1
24
6
2
-27
-5
2
31
37
22
6
-16
-19
-6
-6
-5
-34
-5
-6
-12
-1
0
3
-61
10
-6
-7
8
25
7
-7
104
-8
-31
-11
-17
-10
-1
6
-19
2
-38
-29
-54
-16
1
17
-18
31
102
58
70
3
-6
-15
0
34
9
25
77
45
11
1
-45
-37
0
3
-5
38
5
-12
3
19
-17
-2
0
-15
-5
-1
10
-2
2
-6
-23
-34
-1
2
-11
-16
-7
-14
-21
41
6
9
-20
35
22
-2
9
3
1
-15
-8
-21
-4
-6
-3
4
-2
-17
-29
-49
-40
-6
-3
-12
-6
3
42
-19
3
-3
-18
-18
-10
4
-4
3
-20
-9
-20
-80
-4
-2
-2
16
25
1
19
42
1
1
-4
0
-14
1
3
59
6
-7
-1
-5
32
4
4
17
-2
4
-3
-3
-12
-15
-21
4
6
-6
-23
5
5
-2
-16
-63
-14
4
42
-17
-31
0
16
6
8
-1
40
3
-2
-14
-9
-5
1
-1
-10
13
17
14
-12
-13
-8
-3
-39
-18
2
-9
-44
15
3
-2
43
54
13
9
63
-30
-7
-17
-12
-63
-52
-1
-35
-42
-10
-1
-1
37
24
-4
5
-79
-7
1
3
-59
16
-2
2
76
16
2
-11
26
-9
14
4
39
3
12
-20
45
23
0
-8
-9
0
-14
-39
0
-1
3
12
0
-3
-5
2
-32
-13
-3
-4
-20
-9
5
-30
-6
-12
-20
-33
15
9
-2
18
10
8
-1
6
-3
-1
8
24
-6
2
17
2
-70
-5
-7
-4
15
-2
-3
2
-29
2
13
16
-4
5
-11
-27
66
7
-26
2
1
-15
1
51
13
-5
-1
32
-1
-5
10
12
-22
-7
7
22
-16
-2
7
18
-91
-5
-2
-3
-2
-25
-12
1
45
6
11
-2
-6
31
-11
-67
22
16
-12
-47
8
-4
11
65
-16
-23
0
29
-3
51
52
33
-31
-1
7
5
22
15
-2
-40
-57
-9
-2
-8
-18
-15
1
29
94
16
9
-69
-27
-27
-41
-43
67
11
0
-28
2
-6
4
12
38
-3
-1
12
20
18
0
-7
-84
-11
13
15
-24
-32
-11
-22
-80
-10
-14
-57
-8
1
-15
-59
14
1
-3
61
54
-2
-6
43
27
-25
-14
-44
-68
-26
-12
1
-101
14
3
-5
-10
35
33
66
79
14
3
33
20
-7
-10
-25
-75
-2
5
-9
1
-2
-4
4
6
10
-13
-1
-9
-12
-1
-16
-3
-20
6
-26
-1
-41
-38
-101
-79
-8
13
101
66
34
41
113
112
13
-22
-65
-40
-10
2
-13
-7
-3
11
49
1
43
5
-39
-16
-9
-8
11
-5
3
-8
-55
-103
-38
-7
-48
-18
-4
-9
56
109
39
1
-17
-80
-54
-21
15
27
15
11
-8
11
5
15
17
-51
6
-14
22
23
-19
-14
-12
-6
3
-6
21
-4
6
1
-35
-54
-31
-1
-4
2
-6
5
13
-24
3
9
-4
49
-1
-9
-6
43
7
2
30
-7
-20
-8
-10
35
-3
-4
-13
-33
14
6
-33
-51
-16
7
32
31
7
1
-9
-65
2
-11
8
-36
-12
-5
-5
26
-7
3
-23
114
35
6
-9
-60
-40
4
72
-88
-40
-17
39
88
47
8
-21
42
-20
-7
2
59
17
0
11
8
25
0
-30
-128
-21
-2
31
-14
-27
-8
24
-9
22
-9
-26
3
14
-10
-43
50
-19
10
62
16
-9
6
7
49
-9
0
-46
-31
10
14
33
-19
-15
-17
-65
1
20
3
-18
-99
-9
9
-4
12
-26
-7
17
26
26
3
38
18
12
-21
-19
85
17
-3
4
58
22
36
67
38
10
0
-33
-64
-11
1
13
0
-7
9
-52
20
-9
-6
-36
-128
-17
9
62
18
25
-2
3
50
8
-4
-22
-69
-63
-26
-43
-72
-17
-12
-27
-13
37
23
18
61
12
7
30
42
13
-4
-17
78
11
-5
-43
-1
13
-9
-7
-71
-14
-2
82
-5
-9
3
26
79
9
14
-45
-40
-47
-32
-17
-32
4
-16
33
-29
24
31
19
-1
-6
-9
-19
0
15
9
-33
-128
-25
-7
7
44
26
-5
-6
45
-4
4
60
1
-53
-26
17
30
25
10
29
39
-9
-15
-8
68
10
-2
-24
-50
7
15
3
9
0
-7
30
17
-14
-17
-31
-2
-1
-13
54
-5
16
31
53
-69
-31
0
-56
-38
-22
-8
18
39
18
-4
-36
-21
1
-2
10
40
6
3
-21
-23
-24
-1
11
-65
1
17
28
13
40
8
-9
89
12
-5
5
15
-9
1
-9
-73
-21
1
-28
22
10
-5
9
-18
6
-15
-104
-60
8
7
-16
-3
-2
13
40
49
-15
-14
-49
-9
-8
-3
-45
-71
44
37
35
-38
-6
4
31
28
-29
-17
-36
-31
-7
-25
-86
-12
-13
1
44
26
-4
-1
-13
0
25
8
-6
4
9
5
-8
18
-19
-5
-5
-27
-12
-14
-37
9
-9
-14
-18
-27
-6
10
26
30
20
18
42
23
-1
-1
50
0
36
22
22
16
-1
-12
-54
18
-27
-30
-66
-13
-4
9
-1
0
40
21
77
66
9
5
6
-26
-42
-21
-40
-68
-4
1
-13
-48
-29
-6
-4
73
-7
-2
3
-1
-21
-18
-14
-121
-5
-6
-17
14
8
10
10
79
10
2
96
20
33
9
27
79
16
7
-16
26
0
5
-2
-57
-9
-6
10
-18
-2
-2
-27
-48
-15
-3
-10
-4
-37
-54
-92
-59
-6
-5
-38
5
25
52
78
25
5
5
15
18
8
5
11
15
10
5
29
14
2
-5
-3
13
-5
-22
-3
2
-9
-2
-16
-95
-14
11
4
11
-6
-27
-31
40
8
-12
-20
-70
-28
-9
4
20
6
4
-5
-19
45
26
11
56
10
11
20
-4
0
4
12
-4
-16
-3
-20
14
5
-9
-12
-38
1
-1
20
13
-14
4
0
-39
-18
-6
10
9
-3
-15
-22
-32
-12
7
10
-2
-14
15
19
60
24
2
49
28
13
-10
31
75
14
1
-57
-12
-7
-5
-8
26
11
6
22
29
18
-9
-24
2
-11
2
6
-26
-19
6
-33
-128
-22
-6
6
44
-1
-7
4
-96
-8
-8
-34
-10
-8
-5
24
119
26
8
45
28
-36
-17
-31
-53
-8
2
-9
-54
58
17
43
-54
-7
10
98
58
-19
-7
-8
115
23
12
-10
-9
22
12
17
-66
-8
-21
-21
-5
-14
-11
-16
-2
-8
-2
85
23
-56
-26
3
31
-11
4
-19
-14
54
21
-16
-26
5
3
16
57
5
-7
8
50
9
-9
-49
-71
-17
3
-4
6
4
-6
-38
-4
-16
-11
15
17
-8
4
12
23
6
-2
-25
-58
-16
-9
-25
-19
-3
2
-9
-35
-3
3
4
-1
14
-3
12
17
3
2
4
-12
-35
-1
-3
-9
0
4
-58
12
37
11
-10
1
-1
-32
-29
-81
-37
-11
-11
-26
-10
15
34
14
9
12
20
9
8
-5
-28
-3
16
2
0
67
10
-2
8
-12
-9
-11
-14
2
0
7
20
16
-2
-7
-11
-2
-3
-2
5
10
1
2
7
-20
-2
3
0
-8
2
8
-2
39
6
-1
-21
-29
-18
-11
-33
-61
-12
6
4
28
36
10
34
-16
-6
-1
-5
-6
-29
-9
16
60
14
1
7
27
33
13
3
34
7
-4
-13
-13
-19
-6
-21
-6
-7
5
-18
-16
-19
-7
-28
-39
-5
1
22
11
11
5
20
20
4
-2
-9
29
5
-13
-29
-31
-1
-10
-41
-14
-1
17
38
22
-3
-2
25
42
15
9
0
-25
-1
-1
-4
-28
-3
-1
2
8
-4
-9
-20
4
2
3
4
26
2
4
9
-12
-25
-14
-11
16
0
1
-11
-2
2
-1
6
5
4
-3
-18
36
16
7
-11
-30
-9
4
8
8
-2
1
-6
-68
-5
-5
-11
-61
-23
-8
1
75
6
-3
-18
-17
0
0
4
-7
3
-4
2
-41
-7
-4
3
6
0
-3
-5
7
13
7
3
6
-1
-3
11
1
2
-3
-7
-21
-4
3
-2
3
5
-2
-8
-12
-1
-5
12
27
-18
-4
-7
-7
-3
-1
-15
-9
4
3
7
12
2
-6
-10
-57
-7
0
-7
-17
-2
-1
1
19
-3
0
-2
22
0
1
-7
4
-5
1
5
-6
-1
3
7
-6
3
-6
-4
6
-4
1
12
17
18
-3
-4
-15
-3
-3
-11
-14
-32
-3
-2
15
3
0
0
46
41
12
7
0
-2
-2
-2
-57
-23
-1
-3
-35
-3
-2
-12
-17
-12
-7
1
45
3
-1
6
-3
-10
-5
-2
4
1
-1
-4
22
-6
-7
0
-2
-2
2
7
10
5
5
1
6
0
1
7
23
14
0
-2
-23
-2
0
-9
4
17
0
-1
4
-3
3
-5
-41
-17
-1
1
-2
2
-4
-1
6
-3
-3
-4
0
-4
-5
6
-2
-13
-6
-3
-13
-3
6
11
10
-5
-3
-2
2
-1
-11
-8
-5
4
-1
4
-3
-3
0
-6
-6
10
12
2
2
1
2
0
24
-2
2
-1
-4
-1
9
22
15
20
-2
-5
1
0
28
18
-77
-1
7
2
-1
7
-21
-9
13
-12
-7
1
5
0
-6
-6
-1
-14
-6
-2
-7
-3
2
-3
4
6
3
1
-2
-1
-1
16
25
-1
-2
-1
-3
-2
2
-16
-43
-3
0
0
2
2
1
-7
-10
10
-2
-1
-6
-2
29
63
-28
10
6
0
3
3
-27
-36
13
1
1
4
-2
-1
5
7
10
-12
-5
-1
1
-4
-4
-4
10
-29
-7
-2
-6
-4
2
3
34
29
7
0
3
-1
-4
-12
-62
-7
-3
-3
-3
-1
14
9
-7
-6
-8
-7
-1
-2
-6
-17
-25
2
9
6
4
-5
-30
-31
20
-9
1
12
2
-2
0
-2
24
-2
-4
1
1
-4
-7
-17
21
6
-3
0
1
-1
52
75
-8
26
-6
-26
-14
0
-41
-60
10
-22
5
16
8
2
-15
-18
12
9
3
6
1
-3
8
15
18
-4
0
-3
1
-1
16
17
-8
19
5
1
4
3
-10
-14
-37
-12
-6
-10
-8
-1
4
14
-7
-6
-3
-6
-2
-2
23
37
-21
12
-1
-10
-1
1
-30
-39
18
-8
8
15
4
2
-3
-4
-12
-6
-7
-1
-1
-3
-1
4
35
-4
-1
0
1
-1
8
10
-31
10
3
-1
-2
0
-14
-7
48
-13
-6
-2
-5
-2
8
4
-48
-10
-8
-5
-2
-3
9
23
-15
12
-3
-10
-8
0
-16
-24
9
5
9
5
0
-1
-9
-4
-17
-3
-5
-4
-6
-3
6
-2
30
-3
-1
-1
-1
2
7
10
13
-1
-6
-7
-4
-3
-6
3
25
-2
-6
2
1
-2
-7
-13
-26
-23
-1
3
-3
0
27
46
-6
3
-2
-12
-5
-1
-8
-29
-17
16
10
10
3
-2
-16
-21
-1
-10
-7
4
-3
0
-1
5
20
-13
-2
5
9
1
4
-9
0
11
-6
-5
-6
-3
5
19
2
-7
-3
-6
-4
0
-13
-7
15
-16
4
7
6
-3
-3
-5
-14
13
-1
-3
-4
-2
-2
1
3
-5
-1
-1
-1
-1
-1
-2
4
0
3
4
1
2
1
-9
17
-3
-2
-2
-3
1
4
8
6
-9
0
-2
-2
-3
-6
-10
-64
17
2
3
2
1
-8
-24
8
6
6
1
-3
-2
8
12
24
-11
-8
-4
0
1
-7
-2
-19
7
5
7
-1
1
-2
-4
29
-22
-7
0
-1
-3
2
8
8
-17
-11
-2
0
0
6
8
7
30
4
-1
-1
1
-1
-20
-41
-10
-4
-1
-1
-1
-19
-5
22
13
6
3
-1
-3
2
-2
-16
-17
-3
-1
1
0
-10
-6
10
-10
-4
-3
-2
-1
5
28
26
22
3
-1
0
0
0
-19
19
-7
0
-2
-2
0
-1
-5
-17
1
1
-1
-4
0
-7
-5
-54
-8
-1
-1
12
1
2
0
-2
0
-2
-4
-4
-1
5
0
30
-12
2
2
3
0
-4
-6
-27
4
0
-2
-3
1
2
2
4
20
10
3
-1
-1
-2
-8
-1
-3
-6
0
1
2
-1
13
23
6
-2
-4
-3
-2
1
-1
19
9
0
0
0
-3
-5
-8
-9
3
1
-3
-5
-1
3
3
11
-9
-1
-2
-1
2
5
3
8
-35
-7
1
1
-1
1
12
-15
45
10
3
1
1
5
1
-9
-18
-7
-2
0
0
-8
-9
24
23
0
-2
-6
-5
-8
-17
-14
-7
-7
-3
-2
-2
1
-1
3
-24
-7
-4
0
-2
6
11
8
0
1
1
0
-1
1
-12
-4
-13
-6
-3
-2
-1
5
-1
0
7
0
-7
-3
-3
6
7
9
-1
1
-4
-3
1
-27
-46
-49
0
1
1
3
-3
-1
-6
-5
-10
-2
-1
-5
-3
2
8
-5
17
4
1
9
3
-7
-4
59
-8
-7
-4
-2
-5
10
11
-5
8
-3
-6
-5
1
-18
-23
-5
0
3
5
0
0
-2
-5
-1
7
0
1
-2
-3
2
-3
8
0
1
1
-2
-1
5
16
3
-13
-4
-4
-6
-3
5
6
7
2
-6
-3
2
0
1
15
1
-2
2
1
-4
0
-11
-16
-15
-2
-3
0
4
-2
-6
-8
-19
-10
-4
-3
-7
-1
0
-3
-5
-13
-2
-1
2
-2
0
6
6
0
-3
1
5
-1
-4
-4
-14
7
2
-1
-6
-4
8
5
21
6
-1
-1
-8
-1
2
7
36
4
1
3
11
3
-1
-6
-45
1
2
0
2
3
6
16
11
-10
1
3
4
0
-6
-7
-5
0
0
2
-3
-2
2
1
-6
4
-1
-3
-9
-1
-3
-5
10
-1
-1
-1
-12
-2
7
3
-8
-4
-3
2
14
2
-5
3
9
2
2
-2
2
0
1
5
-7
-3
1
2
-3
0
-2
8
4
0
0
4
3
0
-10
-14
-15
-9
-4
-9
-15
-6
5
0
12
6
3
5
-14
3
-1
16
-5
4
1
-2
23
-1
-4
4
0
3
-3
-8
-10
-3
5
-9
-1
-6
-2
2
9
-3
5
5
8
-2
1
-3
-19
-1
1
0
-8
0
-1
6
25
2
-1
-3
-11
-22
-8
2
11
1
-11
7
3
28
12
-1
-13
-3
-6
1
16
2
-3
-4
6
-4
-5
-10
-54
-7
-3
-4
-45
-3
-9
2
17
-1
-6
-20
0
-6
-2
-7
-31
-18
-5
-2
-35
5
-3
-1
4
8
9
32
64
8
3
5
11
0
0
1
10
1
14
-12
0
-3
-3
0
-2
-2
18
11
7
-9
-2
-11
-21
-10
17
-2
4
-7
-4
-13
-72
-5
14
-2
26
7
-2
12
75
8
-11
-30
-54
-7
-1
-1
-1
2
-14
3
14
-6
-5
-5
0
-7
4
1
-10
-8
-3
-9
-42
-2
2
4
10
-22
-6
-7
26
4
-1
4
15
11
1
-2
-12
1
-2
-1
5
18
5
10
18
3
-7
-7
-13
12
1
5
49
1
-4
2
7
12
-2
-13
-50
-11
-2
6
8
-1
8
0
-71
-11
0
-3
-5
-20
-6
0
52
10
-3
-1
3
3
-6
3
1
5
-8
-1
-8
-26
-7
3
38
6
4
3
-11
27
14
8
10
1
-1
-6
5
2
-6
-6
-45
-9
2
7
-2
-3
6
-4
-21
-5
0
5
-2
1
-1
-5
-4
-2
8
-2
12
3
-4
-6
-22
-4
-2
-12
-18
-17
-7
5
31
6
-8
-3
-6
11
6
-3
25
-10
-6
-15
-20
-6
-1
-5
-89
-6
-3
23
21
-42
-23
-3
84
9
6
7
13
89
31
15
17
8
-7
-13
27
-18
0
-2
9
-4
-2
-4
-37
-1
3
-8
-47
-8
2
-10
-4
-17
-3
-2
-61
-12
0
12
9
-23
-20
-9
2
16
-14
18
13
5
4
18
81
8
4
-31
8
29
14
6
8
3
-1
26
-37
-5
-11
-12
1
-2
-8
-77
-28
-11
5
-3
-32
-14
-1
44
30
-2
-4
-19
-66
-8
10
-28
10
-14
-11
-5
61
3
3
33
-29
18
11
17
-28
-4
0
-3
13
1
0
1
14
8
2
-1
-28
-13
-11
-6
25
6
5
3
42
10
16
12
-25
-5
-17
8
5
-7
-5
-1
72
4
-10
-7
-12
3
0
-8
-67
-7
0
-30
-13
-4
3
12
25
-2
-9
20
10
14
-8
-25
6
1
16
-26
31
-13
7
14
5
5
-5
10
-4
-3
-24
-20
25
-6
3
5
-8
5
50
78
-22
-1
-8
0
-33
11
-1
-12
15
1
-4
-2
7
3
3
2
-63
-8
3
2
8
-10
-13
-14
21
6
4
5
12
-14
-29
2
50
2
-17
-3
5
-11
3
19
-49
-9
-6
-24
23
21
3
-11
32
18
5
36
32
10
3
-20
-16
-15
-5
-7
-48
-1
5
-8
-28
-5
9
27
19
-10
4
-8
-8
1
-13
-40
-12
3
-1
8
10
1
0
-18
-2
-57
-62
-73
-17
-4
7
29
9
55
50
71
25
2
1
2
-27
-35
-9
-9
-13
-1
1
-23
16
26
2
-6
-7
-7
6
27
-17
-2
4
-27
-13
6
-9
-16
-2
2
-12
5
8
-1
5
14
4
-11
-13
-3
-37
1
2
4
-7
11
-3
7
59
5
4
13
1
-16
18
31
29
1
-9
-38
-26
0
-6
-32
-89
-16
3
2
15
16
15
15
-29
-8
-7
-18
0
-12
-9
-13
-5
2
9
51
14
-1
11
50
97
22
-1
-36
-2
-19
-29
-44
12
5
-2
-10
1
12
-7
-7
31
2
0
15
-29
-50
-14
-82
-58
-14
3
-21
22
64
48
102
-24
-9
9
50
7
-7
-6
-28
-42
4
7
-19
-11
-3
-1
12
36
3
2
9
-11
-8
-15
-14
16
2
-4
-17
21
-8
4
1
-23
-8
-1
-7
-14
-17
-5
-17
10
0
2
14
25
11
-1
-8
-37
-4
-5
-36
-39
-8
8
23
6
0
2
3
-14
-11
-6
0
28
4
-17
-22
11
-1
-8
-14
-71
-17
-14
22
15
-11
-22
-35
-35
3
5
-1
22
23
8
19
86
10
-5
-21
-15
-15
7
-10
-24
-2
1
15
-16
-15
-10
5
19
2
3
18
-12
-9
-29
-46
-40
-6
-4
6
3
9
15
46
-16
-12
-5
38
2
17
12
7
19
3
1
-20
16
-7
-8
-29
-11
4
2
14
-6
-3
4
4
19
-2
-4
17
-12
-13
-12
-5
-35
-3
-12
-51
9
-19
-34
-50
-31
-14
19
78
25
2
1
1
22
9
-6
-37
-27
19
13
17
20
3
-12
-16
47
24
2
-9
-114
-17
-4
20
-57
-33
-9
9
36
11
1
1
-12
7
-4
-2
27
4
6
-11
2
2
0
-11
24
5
9
47
26
19
9
33
-15
-8
1
-30
15
13
19
33
-36
-7
-5
10
-53
-28
-11
2
46
9
-7
-7
-21
7
12
20
27
-2
-5
-22
-16
-19
-23
-86
-16
-1
1
34
24
11
23
62
-5
-8
2
-68
25
59
20
23
-24
-1
5
41
3
-24
-3
4
25
3
7
15
15
-4
-3
-6
18
6
-3
-76
-33
-18
-15
-31
-34
-11
-3
-7
10
-20
-9
-30
-90
-8
-10
-9
-9
16
4
32
94
13
0
6
2
8
2
-23
1
4
7
29
3
7
5
-22
-72
-7
1
-2
15
7
10
63
60
-5
-6
-23
-15
-29
-8
-6
-17
4
2
-2
-13
35
11
21
54
3
-8
10
4
-24
-8
-20
-78
-13
-10
-9
-2
-14
-7
-30
39
12
2
-45
3
7
3
6
-22
-5
-14
-6
-27
-34
-4
2
-28
-12
-2
-2
-6
15
1
6
19
4
8
10
-20
27
-6
-24
11
-1
20
91
14
-28
6
35
11
0
-2
-20
-9
8
0
-2
12
8
-5
9
-2
15
-13
-58
-31
0
8
-14
54
8
14
32
3
-3
-15
-58
-23
19
9
17
15
-5
15
5
-24
-18
-4
-19
-35
-3
2
12
7
-20
-12
11
39
4
-6
-39
-17
6
11
35
-35
-6
6
46
54
4
-4
-15
53
6
-10
7
19
29
8
22
-21
0
-5
-15
-24
2
-5
-8
70
8
-6
-19
10
-15
-12
-34
-30
-8
-7
-17
-38
-16
0
-14
-36
-13
6
80
11
-27
5
30
-44
12
1
-23
-16
25
8
-4
59
3
9
31
0
-17
-18
-40
-33
-6
-14
28
40
-16
-35
-64
-95
-13
5
-4
-9
49
51
77
109
11
6
-19
-23
-21
-9
-17
-52
-4
-3
17
36
-14
3
24
114
18
1
-29
-90
-26
-25
-26
-36
-1
-6
-60
19
39
14
30
-8
-11
-11
12
-10
-21
-6
10
3
-1
7
4
0
21
7
-11
-43
-4
3
-22
21
-18
-14
-20
10
7
-1
-2
25
-31
-9
5
47
3
4
41
11
67
38
33
25
-2
-11
-84
-29
-11
-20
-52
-117
-11
5
66
6
2
3
5
55
9
7
63
30
-15
-3
58
-11
-5
1
7
-7
-50
-15
-13
65
11
-5
2
6
4
-28
-38
19
-3
-12
-41
15
21
24
28
-62
-9
4
67
4
20
-2
-27
34
3
3
23
18
-11
-10
0
-43
-6
-8
48
-30
-8
-6
-25
-52
-5
-5
-29
13
0
16
41
69
5
1
-22
-19
-27
-11
-32
-70
-17
0
-10
-4
-8
-24
-39
-53
3
-9
1
-4
16
26
55
104
15
9
45
21
48
17
24
26
-2
-2
-22
-16
-25
-5
-28
5
4
1
-7
-4
19
1
10
2
-6
-1
1
-5
-40
-18
1
-4
-2
-3
-12
-18
14
-10
-13
-10
-3
8
17
-11
-2
17
-1
-37
-8
8
-45
-13
-3
0
-16
-66
-4
7
-52
2
-8
3
31
91
6
9
-22
-20
-12
7
8
3
9
5
-18
-5
14
-16
-40
20
0
-22
4
11
-31
-1
25
-2
-15
-5
-45
-34
35
11
-31
-4
0
9
41
28
-16
-11
-6
8
-4
-6
-34
-17
-16
-8
12
-28
-5
-1
-70
5
16
-10
-14
10
-3
4
33
13
-15
-6
-9
-33
2
0
-17
16
10
13
13
48
2
-11
-35
-47
-30
-26
-66
-3
-4
-3
19
7
20
29
75
-29
2
-11
2
-23
-7
-5
6
22
0
-8
-15
18
5
1
-13
-56
-5
-1
-11
3
26
0
3
47
8
8
37
34
-26
-11
-26
5
-2
1
42
6
2
12
11
0
0
2
21
-4
13
13
19
-108
-4
-2
-2
-20
15
-9
-4
67
9
-7
-38
7
-9
-16
-21
58
5
9
-13
-29
-20
-11
-27
-52
-5
-14
-5
-19
28
34
18
29
-13
-3
-12
14
-3
4
44
-103
0
14
17
10
8
7
34
115
20
-3
0
11
-3
-1
3
24
-7
8
-35
-5
-8
-29
-41
-38
-5
-3
-2
-14
-36
-23
-54
-52
1
20
41
20
29
34
30
15
-1
-4
23
-10
-42
-19
-22
-88
-4
-9
-30
-8
32
9
14
4
-8
-8
-5
22
9
-2
8
55
7
1
-29
-25
-18
-9
-25
1
2
4
16
30
17
3
-14
-23
-12
5
-24
-18
-32
-22
-18
-38
9
-24
-42
-23
19
29
93
112
4
-5
-11
-33
-7
4
-18
-73
-6
-10
-37
9
9
7
9
25
1
4
26
20
-15
-8
-8
-13
-5
10
17
21
-17
-29
-39
-14
-3
-2
7
15
53
16
7
0
-11
5
6
-43
10
27
28
-90
-3
-7
-14
-5
-30
-15
8
106
12
-10
30
13
12
9
-4
-8
2
-6
-17
-15
-16
-33
-57
-22
-11
-2
-42
4
-7
2
44
42
-1
-4
17
11
10
20
11
-9
3
12
26
10
22
6
-3
6
2
-6
30
-11
-12
-9
1
-40
-2
-2
-37
29
-6
-17
-27
-14
-8
-2
9
-12
6
10
1
24
2
-6
-53
-13
-10
-6
14
-14
-4
2
13
41
-24
-8
-19
7
2
-4
-6
26
44
-7
-33
-36
-1
-3
5
-47
-9
17
47
32
1
6
-4
-41
-5
5
-22
-23
-5
-8
20
-21
-17
-12
10
-11
-9
7
23
40
18
-4
-25
-7
3
13
-65
-3
-5
3
10
41
3
1
2
25
0
-3
-6
-9
-6
-6
-6
-10
-12
-4
-4
-72
3
3
52
-11
-3
-3
-5
113
15
4
0
21
17
12
44
-36
-13
5
16
8
-5
6
-16
1
6
-4
-14
17
39
1
29
2
-4
-2
-9
-36
-48
-18
-15
-52
-4
-9
12
18
10
-3
-21
-12
2
0
-15
28
12
9
15
44
3
-9
-29
-24
-5
-6
-34
-29
-3
6
15
1
-6
-9
9
1
-2
-3
47
23
17
28
43
22
-4
-3
-37
10
-8
2
-18
-49
-14
1
47
-22
-12
-26
-55
32
22
2
-6
2
-16
18
73
71
7
0
-6
13
-36
-22
-46
-33
-3
-5
35
16
51
4
-3
0
-3
8
9
26
8
-21
-36
-44
-10
-9
-19
-37
-5
16
28
40
12
-10
10
-8
-3
-12
-27
-71
-11
9
22
14
3
10
1
12
4
0
-24
-38
-49
-12
-24
-6
-8
-3
-1
-17
5
-15
20
6
5
0
-46
0
12
1
0
39
-3
-1
-9
-19
-34
-12
15
-52
2
7
12
23
24
17
23
42
4
11
4
18
15
8
-12
-11
-7
-8
1
-15
-15
5
1
-24
1
-1
9
-13
1
-7
-2
-12
-10
-2
-62
-5
3
1
-7
26
4
-2
36
27
31
30
25
12
2
-6
-64
-21
-14
-1
33
10
-1
-3
23
7
-18
-2
11
0
2
4
26
-4
5
12
28
19
1
-7
11
49
37
-8
-46
-28
-8
-1
-39
-43
-25
-25
-39
-9
0
-7
-11
-24
5
14
14
11
0
-5
6
5
-27
11
18
-16
-1
0
15
8
-30
-17
-20
-21
-5
0
23
22
29
-2
-9
27
5
2
-9
6
4
-6
-24
6
-2
-4
-21
-15
-4
-3
13
-27
-12
-1
7
-13
3
10
30
18
3
1
35
25
9
-6
-23
-5
3
-1
-19
-24
-13
-7
-5
-1
3
-4
-31
-23
12
8
12
30
-2
-11
-36
10
-14
-3
-14
-41
-9
4
35
-5
-26
-15
-13
-20
1
3
-2
6
62
12
-16
13
4
-7
11
-6
1
7
13
-3
0
8
33
-16
17
3
3
2
-2
0
5
-1
-4
-4
-6
2
3
-5
-22
-3
-30
-16
-4
-4
-1
-1
19
22
27
18
15
12
2
1
-29
-34
-22
-3
4
6
-1
-3
7
13
21
-3
-12
-21
-8
6
15
7
-27
-3
6
12
1
-3
-14
12
19
1
5
16
4
-4
8
9
-10
-12
-37
-12
-4
-1
-8
-11
-4
5
27
-7
-5
2
15
11
8
5
10
-7
-2
1
1
-3
-3
1
4
8
1
-4
-21
0
-1
-4
-9
0
-3
-2
-38
-28
2
-4
-10
-7
-1
1
3
5
-44
-16
-4
-2
-3
-1
2
-20
33
13
2
8
4
1
-9
9
7
-5
-3
-5
-1
-3
-10
-44
-4
-8
-3
1
-5
-5
28
6
27
15
5
0
5
4
20
8
-25
-5
-1
-1
2
-1
8
39
-9
-3
3
3
-1
-3
9
-16
2
0
-3
0
1
4
-7
-6
1
-7
-3
-2
-2
-5
19
12
-8
-1
5
-3
4
-1
-1
5
6
5
0
-2
-3
4
7
10
-16
-4
-8
-1
-2
-4
-22
-11
-6
-1
-3
-8
-2
6
-3
25
1
1
2
2
0
5
-4
-4
-7
-1
-1
5
-1
-5
0
-9
13
5
-4
-1
1
-2
-45
24
5
-1
0
-4
0
-2
54
-55
-21
-6
-2
0
1
-6
0
5
-20
-6
-4
-2
-2
-1
1
31
21
5
0
1
0
3
6
3
0
-1
-1
3
0
6
-11
-21
-6
-5
-1
1
0
-4
-8
-34
-12
-9
1
3
0
-15
-4
7
-4
-2
-1
-4
-2
-5
-2
-4
-21
-5
-1
-1
-2
-2
-10
14
13
1
1
0
-1
8
18
14
11
-3
0
0
-1
1
-9
-15
-11
0
1
0
2
2
-2
-7
9
1
0
-3
0
1
6
1
-9
-4
4
3
0
0
-3
6
-16
4
0
-2
-1
-1
10
15
28
3
-2
1
-2
-4
-11
-18
30
-1
-3
-3
-4
3
3
31
-2
14
4
3
0
7
26
-9
18
-1
-2
-2
-1
6
-15
-22
-23
-7
-3
0
1
-14
-11
-10
-31
-8
0
-2
-4
-3
-21
3
-2
-3
-2
-2
-5
-9
-10
12
10
0
3
3
-2
0
11
2
-23
-8
-6
-3
-5
4
10
10
22
4
0
0
2
14
5
-55
3
-1
-6
-1
-1
-49
-66
-33
-23
-3
-2
-7
-6
1
8
20
3
2
7
2
2
1
2
2
-11
-4
1
2
-2
0
1
27
7
-2
-5
-4
-3
8
5
-3
15
3
0
5
0
-10
-13
-12
4
3
-3
-3
-2
-10
-7
2
-21
-1
0
0
-3
-2
27
50
10
-6
-2
0
-1
21
-21
-84
-5
-2
-4
0
3
-6
18
23
0
2
-2
-2
-4
6
7
8
-9
-2
0
2
-1
5
6
2
-4
-2
-3
0
-1
1
0
-7
16
-1
1
3
0
1
-1
9
18
7
0
-2
-2
6
15
-22
5
-5
-6
-4
0
-22
-25
34
1
1
8
3
-1
-3
10
14
-28
-8
0
-3
-3
0
-4
-11
18
-1
-6
-2
-1
22
43
18
12
-3
-15
-5
-2
-38
-71
7
-9
3
7
3
-3
-6
-9
-48
-1
10
13
6
5
10
14
20
-14
-6
-1
0
0
0
1
-10
1
-1
1
0
-1
-5
-17
-6
1
1
-1
-3
-2
5
6
-19
-3
-2
-7
-5
-2
0
5
32
4
0
-2
-1
-2
10
20
-48
8
2
-2
0
2
1
-11
-7
-13
-8
-10
-10
-1
-6
-5
36
26
9
4
-1
1
0
5
21
-8
-4
-1
-2
-4
2
4
4
-8
-3
-5
-6
-3
-3
-20
-3
-5
5
5
2
-2
-2
-9
-16
36
8
-1
-5
-3
11
18
0
7
-4
-3
-3
0
6
-2
13
14
6
-1
0
3
-17
-9
12
8
3
12
7
-1
-4
-4
-1
-25
-4
-2
-2
-2
-4
-11
-30
2
0
1
1
0
-1
-3
-5
-16
-2
4
5
-1
15
23
-42
-2
-5
-6
1
4
8
21
15
-7
-4
-4
-1
3
1
-13
-13
-4
-5
-4
-1
-1
-7
-4
32
1
0
3
2
2
3
8
-3
-13
-3
-6
-2
-1
-1
1
13
16
3
-5
-3
-2
12
29
30
-6
2
3
3
3
-14
-26
-33
-15
-3
5
1
-3
1
12
-11
2
-6
1
0
1
4
11
17
27
9
-2
-3
-1
3
-15
-4
-6
-2
2
0
4
-17
5
-16
-10
1
-1
0
-3
-1
0
-13
18
1
3
1
1
3
4
15
-25
-3
-1
0
-2
-2
2
-3
31
5
1
1
-2
-10
-25
5
-3
0
3
1
-3
9
3
-13
-19
-7
-7
-3
-3
4
-6
-21
-8
-6
-2
-1
-2
-14
-9
-2
-9
-1
-1
-2
-2
1
-20
-22
-17
-4
0
-2
-1
4
36
25
6
-2
-5
-3
-1
-1
-22
-9
-1
-3
-1
-3
1
-3
-8
-7
-4
-3
0
0
-1
2
11
18
17
4
0
-1
-1
2
1
27
-27
-5
-5
-2
-3
0
12
-41
14
2
4
2
5
-7
-9
20
10
2
-1
-1
-2
1
-5
1
3
-2
-3
0
1
-9
-14
-20
-4
0
-1
-3
-2
7
13
31
-16
-7
-3
-1
-1
1
10
-26
-12
-4
-3
2
-1
-6
-9
13
0
-2
0
-2
-2
1
3
-6
-18
-6
-4
-3
0
6
11
6
27
4
1
0
2
3
-9
-4
-15
1
2
1
1
-2
5
10
-6
-4
-1
-4
-3
7
10
5
2
-4
-3
-2
2
-5
-1
23
0
-1
3
1
-1
2
-24
-12
-51
-9
-2
-2
0
3
16
2
47
3
-3
-2
3
-3
-2
30
19
7
4
-2
-2
-2
2
-5
-4
-2
-4
-2
-3
3
8
-22
-22
-3
-1
-1
0
-5
-16
-13
4
0
0
-2
-3
7
6
5
16
7
1
-1
1
-5
3
13
-9
-1
1
-1
-1
2
10
15
-13
-7
-3
3
-2
0
-8
-18
11
2
2
2
1
-3
-9
-8
20
2
-2
-2
0
-3
-1
9
-20
-2
0
0
1
-3
3
-9
10
2
-2
-4
-2
2
-1
8
-14
-4
-3
-12
-2
0
-7
-5
-1
-1
0
6
1
2
3
0
-7
-4
-2
8
1
-5
2
16
21
0
-2
0
-1
-4
-5
-46
-19
0
0
3
1
-6
-7
-2
-2
0
0
-5
-2
-2
-11
4
-4
-3
-3
-6
-3
-1
-2
-21
10
2
-3
-10
-1
-3
4
10
-9
-4
0
4
-2
0
-7
-14
-8
-3
-1
4
-2
-3
1
1
10
6
2
2
0
-2
9
15
9
0
-1
1
-1
-6
-7
12
-8
0
-2
-11
-6
-2
1
-16
-2
-1
0
-14
-2
7
-5
-5
-13
-9
-9
-6
1
-9
-13
-10
9
3
7
23
4
-2
8
5
-2
3
1
19
3
-2
0
3
3
1
1
-17
-2
2
-6
-9
2
-2
7
15
1
0
2
-1
-2
0
-1
-5
0
4
-2
4
-26
-16
-7
-5
0
-3
-4
-2
27
11
0
3
-4
4
23
19
-1
-2
-1
-19
-1
-5
-9
-20
7
-3
-2
-3
-4
5
6
3
-8
-1
-1
1
-3
3
-10
6
-23
-8
-7
-18
-3
-5
-3
-65
-23
-9
-4
26
3
3
0
14
26
9
5
8
1
-15
-4
10
0
0
1
-3
-1
0
-1
-25
-11
-4
-4
0
0
1
2
21
0
0
-2
-13
-4
3
-11
-21
-14
-6
-2
-4
0
-1
4
18
5
-2
-6
-20
-2
1
0
6
-1
2
-2
22
2
-4
-5
2
12
2
0
-3
-7
4
6
14
-5
-5
-14
2
-4
8
7
-4
4
2
7
-46
3
3
10
37
-15
-6
11
82
17
-6
-23
-81
19
7
10
13
6
-3
17
18
-26
-7
-9
-25
-4
-14
-50
-6
30
7
-5
-15
-11
5
40
-8
-9
6
-24
-57
-14
-1
11
43
-12
-5
20
-31
-1
0
4
5
21
9
31
56
8
3
7
-12
-23
-11
-12
34
11
-9
-22
-46
15
2
5
15
-3
-1
10
46
5
-1
2
-8
-4
4
-29
-42
-14
-7
-11
-43
-9
9
-7
32
-34
-7
-3
20
3
-6
31
1
21
-2
-5
-53
-10
1
2
-4
-2
7
-9
21
-1
-6
21
17
-6
-2
10
-6
1
3
28
-17
20
4
-12
9
-2
-3
-34
2
0
9
6
-14
-6
1
-19
-1
-11
-11
-11
26
3
-6
-10
50
24
0
-12
-24
-5
0
32
-76
-19
-7
-5
-6
0
-7
-18
14
-19
-8
7
-5
-6
11
28
19
-8
-4
-9
-12
6
-19
-57
-11
5
0
-5
28
-5
-6
1
10
11
10
26
18
3
6
23
-13
-2
-9
-9
5
2
-11
-1
24
16
9
-23
-26
-8
-6
16
-27
-13
-13
-9
-34
-1
-4
-25
7
-5
-5
-2
6
-6
5
-1
-13
-23
-4
12
-9
-2
-11
-28
24
20
-2
-1
35
5
5
48
2
16
-7
-29
-28
2
-4
48
49
14
12
27
10
-8
2
-14
-85
3
7
12
19
8
-1
-23
-12
-21
-12
-17
-50
-16
-9
-3
-6
-17
-8
7
23
1
-4
-13
-21
16
13
27
-6
2
-2
0
49
4
-4
-12
56
11
7
34
15
-27
-5
15
-3
-2
6
4
-1
32
5
-29
-12
-2
6
-16
3
-10
-5
2
-20
-4
-13
3
12
14
0
-21
-33
-12
2
4
-1
2
1
27
7
8
15
-22
-40
9
13
13
33
7
13
-2
8
-12
-8
-21
17
-1
-6
-14
-12
4
-1
-6
-49
-5
0
23
14
-13
-5
-7
14
4
0
11
20
-23
-9
-11
-12
-6
2
-14
26
12
-14
-22
-26
-4
1
-12
-32
-11
0
-1
31
7
1
32
-22
-7
-5
-19
-38
-10
9
16
15
-7
6
37
56
10
-7
20
2
-13
-8
-33
-22
-1
6
-14
8
-28
-19
9
21
3
-11
-73
-11
38
25
28
12
-1
3
-6
2
17
7
-14
-4
2
2
-5
11
-10
-2
14
51
6
7
1
11
-23
-14
-24
21
2
-10
0
-40
43
-3
-23
-6
-4
-4
-13
17
-2
21
37
-36
-7
7
-9
14
14
3
-11
-26
-6
0
7
3
3
5
13
-2
2
7
1
10
-21
-7
14
13
-3
-10
-17
-6
-7
-9
-16
-60
-5
-4
10
-14
-12
2
23
55
6
2
-2
22
47
13
-10
-41
1
2
15
8
-23
-19
-41
48
4
0
-9
6
17
27
32
-15
-8
1
-10
1
3
13
34
18
4
8
25
-37
-15
-7
-5
-18
-3
-1
3
19
3
2
-19
-29
-2
3
5
0
-10
-9
0
29
2
-9
-3
5
-9
-10
-19
-12
-4
7
-8
13
8
6
-5
-1
-3
-13
-8
2
-4
5
19
-26
-6
-2
-39
-5
-5
2
21
35
4
1
39
21
56
19
2
-28
-1
-6
-25
-16
2
-2
-2
39
6
11
12
-26
-17
6
15
-28
0
4
8
-1
-19
-17
-31
16
0
-1
-8
-17
-5
-3
5
-16
-3
3
-7
8
-18
-37
-66
2
7
-6
-59
-7
13
33
94
-6
-14
0
-21
-9
13
16
20
-33
-2
-14
-13
-7
-24
-10
-17
33
8
-5
42
24
23
7
10
37
2
-4
-46
-26
-21
-28
-57
-1
4
-5
2
-37
-12
-14
-16
1
-5
2
-11
4
-11
5
10
-36
-6
-5
-24
18
9
1
-12
-35
-8
3
27
-13
10
6
9
26
3
9
28
37
-6
-3
-5
-29
-1
-8
-21
-19
-10
-3
-21
6
-1
-6
10
7
9
10
33
-15
-8
3
-1
7
14
2
19
27
3
0
15
1
-9
-1
-9
19
4
3
-12
-19
-7
-7
33
-4
-1
0
5
10
-3
9
25
8
-3
-3
15
5
2
-2
-18
-11
-2
-1
-10
-16
-25
-7
-18
-4
0
-3
-27
34
27
-3
-32
0
2
-8
-17
-22
-6
-16
-19
-8
-3
17
26
4
-14
9
6
10
5
-3
-1
-2
9
0
3
1
-2
-2
4
11
0
-3
-33
-18
-7
4
20
36
-1
0
13
-15
-1
7
0
-16
-17
-15
-6
5
-3
-5
0
5
-8
-10
-4
13
-2
-4
-1
-36
-14
0
4
23
1
-2
-32
-11
1
0
1
-13
-3
-7
13
0
-17
-14
-33
-30
-7
1
34
0
10
2
34
27
3
2
28
18
6
-2
-16
-27
-2
3
8
-24
15
5
4
2
-3
2
2
17
1
0
-15
2
4
-13
3
-14
-14
-19
-27
-8
-1
-2
-20
-22
7
1
14
-4
-8
0
29
12
-25
4
5
-4
0
-8
-34
5
4
-9
-19
-10
-1
-4
-6
-27
5
8
14
1
1
15
22
21
-2
-8
10
17
2
5
1
-6
9
7
-13
-10
-5
-5
8
-37
-15
-21
-23
-16
3
0
4
8
0
16
54
23
-1
-4
1
-10
-10
5
4
21
3
-4
-40
0
-3
2
14
48
5
16
13
22
57
17
19
7
2
-7
3
4
-6
-9
-36
-33
-6
-9
-41
-38
-11
-2
-1
-22
-4
4
24
23
-13
0
9
-14
-2
0
1
-7
-7
-9
-43
-6
-3
9
-28
17
4
-13
-16
-23
-13
2
-11
6
28
36
53
17
3
-1
29
14
3
-6
-9
15
9
0
15
-22
-15
6
17
6
-2
-1
-27
-25
9
-6
-33
1
2
3
-4
-8
-19
-25
-34
-18
-3
-11
-12
15
10
11
27
-22
-15
-3
6
-20
-34
-4
-4
-15
3
8
18
14
21
9
-8
32
5
-10
-7
7
13
2
22
25
2
0
16
-13
10
4
3
-19
2
-11
-20
32
3
-5
1
15
-2
-5
3
-11
-14
-6
6
-13
-1
6
22
15
-19
-15
-43
0
-1
-2
-23
1
18
23
47
-29
-14
5
3
26
8
8
43
19
5
2
14
-61
-19
-11
-17
-3
4
2
-42
-22
27
20
2
-16
-1
-2
58
-1
-9
-18
-42
14
1
2
-5
6
-20
-2
-18
-27
-4
3
-11
34
29
10
17
3
-1
-2
23
14
-5
-20
-25
-22
-3
-14
-62
-27
-25
-33
-62
-22
-8
-14
33
10
29
34
44
-14
-6
-12
-14
5
-20
-5
20
11
5
0
5
9
-8
5
21
10
-2
-1
-10
-5
2
-4
4
15
6
-4
-17
-36
-5
-12
-25
45
1
2
3
7
-6
2
-25
-29
-9
1
6
-15
-11
-9
11
-31
-1
0
-18
16
10
3
20
35
5
2
5
26
22
4
-28
-34
-6
-2
-2
-66
-23
9
12
20
2
-10
-9
12
28
-2
-35
-15
1
-4
-12
-2
-12
1
38
25
0
7
0
2
-11
-10
14
-20
-5
-3
3
1
3
-4
-8
-33
-5
-4
-27
14
-12
-7
-8
48
8
-11
-6
-15
5
10
-5
-18
-1
-7
-3
19
-3
-8
-28
10
1
8
-2
11
6
3
5
1
-4
9
5
-18
-23
-12
-6
-49
-10
11
-6
20
16
8
-2
9
4
0
-22
-43
-6
-1
27
52
5
-1
10
-6
-11
-15
-31
-11
2
-8
28
21
13
14
40
18
-6
6
-6
-19
-13
-3
7
-21
-6
-1
21
68
9
1
5
-26
-4
-2
-22
-53
16
3
-8
-5
3
4
41
43
-6
-15
-28
31
-4
2
-3
-20
25
27
23
-11
3
-4
6
-63
-24
-12
-19
-40
-6
1
-30
40
4
3
27
53
10
1
-12
-2
-18
-11
-30
9
-1
2
32
7
-13
-13
-10
3
2
1
-27
-12
19
12
10
-2
2
0
34
40
11
1
-4
-20
-7
2
-19
-11
2
-2
-3
-27
0
5
11
-34
-32
-2
-18
-1
-11
-5
-36
2
-2
-12
-6
-54
-3
-8
-30
38
14
2
19
79
10
-2
13
-35
-5
5
3
-5
-2
4
13
-10
-4
-10
-26
-32
6
12
-26
20
-1
-2
4
25
-3
-11
19
7
7
-3
-20
-78
-17
5
13
5
9
8
14
-16
-1
-5
-24
-15
-16
-6
-4
88
6
-10
-16
4
10
-1
1
-11
5
10
49
33
1
3
2
63
4
-2
-57
-47
-9
-6
-35
-121
-10
3
-6
20
-32
-11
26
47
3
-9
27
-12
16
1
5
1
-1
11
-1
26
35
1
-11
19
2
-10
-6
12
-6
11
9
-23
-2
8
-14
-41
16
8
3
25
-1
-18
-1
-15
-31
-11
-12
-10
-2
0
-33
-19
-11
9
19
16
2
-10
-37
-39
-4
-5
20
9
-2
1
52
45
-1
-11
-31
-72
-4
7
13
24
6
-5
2
82
2
-1
-13
-20
-13
3
-27
-41
-3
11
37
14
23
10
58
104
16
1
1
23
11
-3
0
-10
-1
-2
1
2
-4
-4
-21
-43
-6
-2
23
10
-5
-21
-55
-39
-11
-4
50
-14
-19
10
24
-51
0
-9
-1
-16
8
1
7
79
12
13
-11
1
9
2
-1
-20
-5
-5
-18
55
-2
-3
0
9
-2
2
-47
-48
5
1
-18
-12
-4
0
2
5
2
-4
-5
-43
-6
18
33
16
-11
5
18
32
7
-16
-11
-22
-8
-5
15
-18
-6
-6
25
29
0
-3
-9
18
-5
-5
-29
-14
-4
7
1
7
3
0
-3
1
9
5
27
-1
3
2
2
-26
-13
-3
-7
-11
-3
-2
51
18
5
-4
-1
-28
-5
-1
13
6
-5
-11
-5
-21
2
-12
-38
-17
-2
5
-8
26
1
5
4
-3
-2
-3
3
-5
-4
1
33
-10
-13
-9
-5
18
7
-2
-7
5
-17
-10
-13
-21
-11
5
17
9
24
12
13
-4
1
0
-12
12
6
10
23
-10
0
2
0
-9
-5
4
-19
4
0
-4
-38
19
14
4
4
2
-2
-5
-8
-46
-9
-7
-12
-7
-3
4
20
15
-15
-8
6
-4
1
-1
-10
1
6
-1
-8
21
0
-15
-23
-10
-3
5
17
-14
-2
-3
-7
-7
1
-1
0
3
-2
4
20
9
26
8
1
5
3
0
-21
-11
-19
-8
-3
7
0
4
15
14
6
-1
-1
-11
-3
-3
-4
-28
-19
-8
-17
5
-2
-3
-31
-15
-6
-3
1
-13
-1
2
3
-5
4
2
-4
15
1
0
-3
19
3
0
4
-13
-1
0
9
42
10
5
-1
7
-1
-1
29
-77
-23
-8
-6
-5
2
-1
-12
22
11
-3
-2
11
-2
1
6
-33
-8
-4
-7
-5
-3
-1
-6
-8
-5
-1
-3
-8
-1
0
6
21
8
2
6
2
-1
-2
-15
0
-5
-3
-2
7
-1
1
13
-10
-38
-7
-3
-7
-3
-2
3
12
34
-1
-2
-1
-1
-1
-2
15
5
8
6
1
-1
-1
-6
-4
-10
1
1
4
-1
6
5
42
16
-6
-11
-6
1
-3
5
-36
-27
-3
1
2
-1
-7
-13
-7
-21
-6
0
-3
-2
-2
-16
-3
33
0
-2
1
-1
4
26
4
12
8
2
-3
-1
5
-1
25
-5
-5
-5
0
1
1
-4
12
1
0
0
-2
2
7
1
4
-11
0
-2
4
1
-16
-17
5
-19
-8
-2
-3
-1
-5
10
-14
26
11
0
-4
0
-3
-15
8
-2
2
-2
1
-2
0
-2
3
-23
-9
-1
0
2
4
-9
-3
22
8
0
1
3
0
10
2
-9
-6
-1
-2
-2
4
4
-12
-13
-7
-2
-2
-1
-5
-3
14
20
0
-2
0
0
-9
-6
-19
-27
-10
0
0
-1
-2
-4
-1
-17
3
3
1
0
-1
15
8
47
7
1
0
-1
1
6
38
1
2
-1
1
-4
-9
-14
-73
-4
-3
-1
-3
1
-9
-10
13
-18
-8
-4
-3
-4
3
0
-22
-17
-6
-2
-3
1
-7
-7
16
5
-1
2
-1
-1
6
2
-1
3
5
-1
0
0
-1
-7
26
17
1
1
-1
-2
0
-2
-31
-14
-3
1
1
1
1
0
26
10
3
-1
-1
-2
1
0
-36
-9
-5
1
1
-2
-2
-1
8
-6
-6
-3
0
-2
1
4
15
-4
-2
1
1
0
-3
-7
-23
-8
2
-1
-2
-1
-2
-3
18
-18
-3
1
1
-2
10
17
19
49
1
-1
1
1
-11
-11
3
-3
3
2
0
0
7
13
2
8
4
0
1
0
2
1
-43
-14
-2
-4
-6
-3
-4
-1
-8
-7
-1
1
1
-3
-2
-1
-4
-2
-1
0
-1
0
1
6
-1
-12
-5
-1
-1
-1
2
2
52
22
1
1
2
-1
2
0
-44
-19
0
-2
-3
2
-5
-5
1
-1
-2
-3
-1
-2
-5
-6
-12
-7
-5
0
-3
-2
2
3
14
15
5
1
1
-1
-1
0
4
-7
0
0
-2
-1
0
-3
-4
-12
-2
-2
-1
1
1
5
-17
0
-3
-4
-2
1
-5
-9
18
15
-1
-1
-1
-3
-5
-7
-2
-16
-1
-3
-3
-3
2
0
10
5
-1
-3
-3
-2
-6
-3
3
-4
-7
-3
0
0
-4
-4
-9
-6
2
-2
-1
1
1
-2
-39
7
-1
0
-2
0
-3
-3
7
5
4
1
-1
-2
3
3
11
0
-2
0
1
1
3
3
10
4
1
-1
0
0
-5
-6
0
-12
-5
-4
-1
-1
0
2
-16
1
-1
1
1
1
0
1
17
-5
-2
-2
-3
-1
0
0
-13
3
0
2
2
0
0
5
50
-4
-4
-6
-5
-3
2
5
-34
2
0
1
0
0
-7
-8
0
-6
-1
2
1
0
4
12
11
1
-4
-6
-4
-3
-4
-4
13
5
3
2
1
-2
5
11
10
4
-1
-4
-1
-3
-8
-12
-35
-22
-6
-1
-1
-2
7
16
26
36
8
-6
-4
1
-21
-29
-10
-9
8
10
1
4
-5
-4
27
0
-3
-2
-2
-2
5
11
-20
7
2
1
1
1
-10
-22
-27
-13
-6
0
-4
-3
15
24
12
-21
-11
-13
-5
-4
-4
-8
-43
20
9
6
2
2
-4
-3
39
3
1
0
-2
-2
0
1
-1
-3
-5
0
-2
-1
6
14
-14
10
2
-4
-1
-1
-2
-4
4
-37
-10
-5
-3
-4
3
-2
9
15
3
-1
1
-1
-1
1
-36
-2
1
2
-1
1
-3
-10
23
-9
-7
0
-1
0
-2
-7
3
-3
-3
-1
-1
0
5
-1
-12
0
1
0
-1
2
0
1
7
-6
-3
-3
-1
-1
-2
-2
-7
5
0
4
2
-1
-2
0
14
-2
-4
1
-1
0
-1
-3
-17
11
6
3
2
1
-2
1
10
5
1
1
2
0
6
5
-7
-4
-2
3
4
2
-4
1
17
3
2
1
-1
-1
-1
-5
7
-7
-3
0
2
-1
4
4
-26
5
4
2
2
0
-7
-9
2
4
1
-3
-2
1
-1
-1
28
5
0
-3
-1
-5
-3
-5
-58
-13
-5
0
-2
-1
2
0
-11
-4
-1
-2
-2
-2
4
6
-39
3
-4
3
1
0
1
1
-12
-10
1
0
0
2
2
10
17
17
2
-1
-2
-2
-5
-9
21
1
2
1
0
0
1
3
-2
2
-4
-3
-1
-2
2
4
16
-1
2
0
1
0
-7
-12
-23
-5
-3
-2
-2
-2
-2
-4
5
-6
-4
-1
-2
-1
-3
-3
1
5
5
1
0
-1
1
3
7
4
-2
0
2
-1
3
5
6
-3
-2
-3
-1
0
-3
-9
18
-3
-2
2
2
0
-8
-11
-16
-12
1
-4
-4
0
5
6
-17
0
-4
-5
-2
0
2
3
-7
-1
0
-1
-2
-1
-4
1
27
-8
-2
-3
0
-1
4
5
7
15
4
2
3
-1
-3
-5
2
-3
-3
0
-2
-1
-5
-6
-10
-1
2
-2
0
-1
-1
-6
-26
0
-2
0
-1
0
-5
-4
-5
-16
-6
-3
-3
0
-2
-5
-9
12
1
0
-1
-2
-1
7
30
-9
-10
-6
-2
-3
-5
-7
0
0
1
-1
-1
-1
1
-8
-18
-4
-1
0
-2
-3
-11
-2
31
7
1
-1
0
-1
2
-2
-21
-3
0
-2
-2
0
-2
12
-2
-11
-4
-5
-1
-4
-1
0
4
-4
-4
0
1
0
1
-8
-16
-5
-2
-3
-2
0
0
3
6
5
0
2
0
-2
-2
-4
31
-2
-1
-1
-4
1
0
0
-41
6
3
1
-1
1
3
-2
-4
1
-1
0
1
-1
-5
0
1
-4
1
1
-1
-2
4
1
3
4
0
-1
-2
-1
-2
1
19
1
0
-2
0
-2
2
0
-16
-9
-3
-1
0
-1
3
-1
6
-4
-5
-1
-1
0
-1
11
-11
-2
5
1
2
1
-1
-1
12
11
3
1
1
0
-1
0
-2
8
-2
-3
-1
-1
0
-2
-1
-5
-1
0
1
1
7
9
31
19
1
2
2
0
-15
-24
-77
-37
-7
-4
-5
0
0
1
14
-4
-4
-1
-4
-3
-5
-8
0
11
3
0
-1
0
1
3
-5
0
-4
0
-1
1
9
11
41
-11
-1
-1
1
0
-3
-10
-3
-8
-3
0
0
1
-5
-3
-16
22
2
-1
2
-1
-5
-9
-14
2
-1
-2
-2
-1
-2
7
29
13
3
3
2
-1
4
-15
-9
-7
-3
-1
1
-3
3
6
8
13
3
1
0
0
-3
-18
1
-17
-8
-2
0
-1
4
14
-3
-7
8
3
-1
2
-2
6
-9
37
4
-3
0
0
0
-5
-16
-25
-9
-4
-6
-3
-3
-17
8
-8
-4
-1
3
-2
7
13
-20
17
0
-2
2
-2
0
0
9
-7
-1
-4
-1
0
1
-5
-40
-1
2
0
-1
-1
-1
2
-13
1
1
-3
-4
-2
4
-3
1
-31
-12
-5
-1
-3
3
7
-5
13
3
3
5
0
1
-4
21
10
2
-3
-1
1
-4
13
-5
-10
-2
1
1
2
-7
-43
4
-16
-10
-11
-7
-3
-3
-7
-11
17
5
10
2
-1
1
35
14
-6
0
-4
-5
1
2
-22
-6
-8
-6
-6
-2
0
5
-24
21
15
6
-7
-5
-1
-1
43
25
-7
-12
9
-1
-3
3
38
-48
-17
2
-5
-5
0
-3
-6
24
-9
10
28
13
1
-2
-17
-15
13
-11
-5
1
1
11
73
16
-6
4
-16
-8
-2
-21
-53
16
-5
-4
4
-1
-1
5
0
-24
14
2
-16
-4
-4
-3
25
39
-26
-4
23
19
0
-15
31
-26
8
-1
-9
-36
-6
0
-84
-18
-10
-5
-8
9
-1
-2
59
-9
3
4
-15
-21
-4
3
-9
11
4
-1
-5
-8
2
-3
15
26
-2
-3
11
30
2
-6
-51
7
3
3
15
7
-2
2
-3
-37
-3
-1
-4
-3
2
1
16
8
5
-11
-34
-38
-7
5
-64
-20
-27
0
8
10
0
15
11
11
41
16
23
15
2
-10
33
35
13
5
-12
-16
-1
3
5
-18
22
5
2
-25
-3
-1
-21
-8
-49
-29
-27
-40
-9
-15
-72
-1
-21
-7
14
28
-2
8
11
24
11
9
30
52
6
-3
-8
-11
18
-13
-19
-5
-3
-14
31
-48
-18
20
12
21
5
10
28
11
6
-4
-15
-47
-8
0
-16
-5
-1
-4
18
23
4
2
28
24
-5
-14
-42
35
2
-10
-12
3
-2
2
26
7
0
3
51
12
-8
-1
-3
-23
-3
-15
13
17
7
-13
-28
-115
-11
-10
-24
7
7
17
21
105
5
15
8
-16
16
6
29
1
5
-3
-34
-16
-6
-11
-50
61
6
-5
28
-11
16
13
64
-22
-13
11
-52
-4
-6
4
-2
-78
0
-8
6
60
5
1
-13
28
3
-4
6
-56
-35
-35
-70
-46
-11
2
-37
-24
-14
4
20
22
3
-7
-25
-1
-25
-13
-3
-20
-5
13
8
16
65
37
8
-7
-4
-2
-3
39
-13
-24
-42
-38
1
1
-35
-30
-19
-9
-4
-2
3
-6
16
-32
-2
13
38
16
-5
4
-33
16
-25
-26
-39
31
10
-8
92
15
0
6
11
-1
0
-8
-29
8
-6
-14
-12
30
4
10
89
-24
-7
4
-30
-27
-7
-9
-59
-19
-4
3
11
-70
-3
-6
16
15
13
20
67
55
3
-2
-74
23
14
3
-9
-4
-5
2
30
-23
9
-12
-26
-22
5
4
21
-8
-15
2
9
13
2
8
10
39
25
16
16
9
2
12
13
-22
-3
-11
-16
29
5
-14
-3
4
-54
-18
-31
-8
-7
0
-65
-49
55
18
14
-16
-3
0
-2
0
4
5
28
1
0
19
17
13
-11
7
-18
13
0
-19
-11
2
40
-2
-10
0
-2
-2
22
32
-27
-13
6
9
0
2
33
8
-15
-10
-10
-50
-11
-2
-1
-1
1
-10
-49
-6
-2
-3
-29
-76
-15
7
63
46
9
-4
-19
-2
-13
-12
-24
48
1
5
-29
5
19
16
48
14
1
1
-9
9
-5
12
12
-65
-9
-3
-55
35
29
31
35
-7
-2
-7
72
2
-18
-8
7
15
4
5
11
-7
8
6
0
28
5
2
-4
-18
-18
-7
3
29
0
-5
22
23
23
-13
-38
-7
-6
4
-64
-14
4
6
10
-43
-7
0
-17
32
-32
-6
-15
-40
-3
-3
44
-2
27
10
16
36
11
-5
-16
-58
-38
-17
-48
1
1
-15
12
38
17
-1
16
2
-10
-4
22
-21
10
18
28
36
6
-4
-4
7
-17
-14
-39
-51
-2
10
19
24
2
2
36
34
1
5
18
-24
-3
-12
-52
-3
-2
-7
-27
-3
11
15
49
-16
-9
-9
-20
-15
-16
-9
-16
-49
-11
10
-10
21
14
-3
-6
38
8
6
23
-8
-15
-5
6
19
3
3
-21
25
2
-1
-48
-19
-2
2
14
-65
11
2
24
57
4
-8
6
61
-31
0
8
-30
-5
9
-46
-53
2
-7
-15
-6
1
4
33
12
10
0
-43
20
-7
-16
-38
-9
-9
3
38
-76
-14
13
17
16
15
11
28
17
6
-16
-11
-9
-11
-4
-4
26
3
-2
12
3
-6
-8
-11
-7
-2
2
-21
12
-5
-9
-27
1
2
1
-4
-12
16
0
28
4
-5
-6
-23
23
-25
-16
-33
-65
-10
-1
-16
-32
7
5
30
-4
3
1
42
42
20
3
-11
41
7
3
0
-37
-25
3
1
-22
-7
-1
21
-3
28
-1
-11
-22
3
-4
-40
-17
-26
-16
-13
19
-2
8
25
-3
-3
1
16
5
-2
-3
21
9
-21
-12
-15
-48
-1
1
10
21
42
30
26
-7
4
8
11
-16
0
-11
-9
69
9
-19
-9
3
-13
5
-5
14
-4
2
-12
11
-2
2
-22
-32
-8
4
-7
-2
-7
-6
22
-24
-9
0
30
36
6
-14
2
-17
4
-4
-9
-69
-6
0
11
70
7
-1
25
-33
-12
0
1
-27
-5
-1
-35
10
-4
2
-13
0
-5
-1
15
5
32
-1
-28
-19
-1
-9
-96
2
-32
-13
-22
-39
-5
0
61
22
42
15
14
-4
3
-1
10
-13
-28
-6
2
56
4
3
-13
-13
-18
-4
16
-10
-5
7
26
24
11
-10
-18
-1
3
-2
-36
5
12
18
37
16
-5
2
-25
8
-5
-4
-12
-13
-3
-8
2
-39
-14
-4
-6
-23
4
0
3
-4
-1
1
-2
45
4
0
2
49
18
-8
-9
15
3
-10
15
-45
-43
-40
-54
26
-2
-6
-60
-28
6
32
86
20
3
10
-7
16
21
11
35
-4
2
4
-8
29
0
-2
-16
-19
-5
6
21
2
20
3
-6
-13
4
7
28
33
-24
-23
-41
9
-2
-11
-9
-22
-25
-23
-51
-16
-13
-1
8
16
19
30
71
25
6
-8
3
16
0
-4
1
-46
-5
6
-16
-20
-9
0
-12
-31
-6
-2
18
17
20
4
-7
15
2
2
2
-8
1
-14
-33
-34
-2
-7
6
-8
-5
5
10
-2
0
-5
-3
-28
-74
-65
-115
8
-1
12
20
18
82
35
65
-34
-7
-6
-1
-27
-37
-17
-14
9
1
6
5
21
5
18
21
31
6
-4
51
10
10
9
-17
4
3
2
10
14
-18
-1
24
-3
6
-3
-2
-11
5
1
-4
27
2
5
0
10
14
-2
-7
7
2
1
-12
0
-24
-31
-78
-39
-8
3
94
-5
11
32
72
-24
4
-9
13
6
-11
-10
-1
-7
-5
-3
4
1
28
19
14
6
-2
8
-5
27
15
12
10
-52
-2
-19
-31
-20
8
-8
-21
57
3
-4
-92
-38
-24
-9
-17
0
2
10
18
0
-25
-14
-1
39
4
-7
-17
12
8
10
11
12
-1
-5
-13
41
1
13
47
8
-2
0
0
-61
15
2
-2
-9
-5
-5
-22
21
-17
-1
11
-36
-10
-18
-64
-42
4
15
42
68
10
7
-1
12
-26
-19
-40
29
2
1
12
18
17
-2
-4
24
4
-1
-8
-9
8
-6
-38
-4
0
12
22
12
34
36
66
-37
-14
5
5
10
-19
-6
-18
-52
-4
-14
-39
-25
-10
6
3
2
-3
1
4
1
33
10
13
36
9
-16
54
11
26
-15
-17
23
3
-7
-18
-35
-46
-9
-11
-4
-7
11
-13
30
19
9
9
-14
-5
3
41
21
-10
-3
-32
-55
-6
13
-17
-3
-12
-3
42
-9
2
3
-13
-16
-1
-9
2
3
2
-7
24
-8
39
5
2
-2
3
9
3
4
2
8
11
0
5
-19
25
19
6
-9
-12
10
-4
4
16
-3
-13
-12
-39
-20
2
-5
20
-12
-39
-5
16
42
4
6
45
15
9
-2
1
-16
-7
7
-23
-33
1
1
-17
-37
-1
-18
-10
5
4
-6
-19
-15
-8
5
1
1
-10
0
-14
-13
-3
-17
2
28
1
-1
-13
17
4
-2
-18
-2
-7
5
9
-4
-11
-4
33
31
39
-13
-54
-33
1
18
3
-49
-24
-4
52
53
1
-24
-67
-15
-8
-1
0
-34
-5
0
-19
36
4
0
4
-57
0
8
13
-10
-24
-25
-52
99
8
-3
-12
-16
2
20
41
-30
-7
0
-13
-61
1
7
-12
-5
1
12
42
16
-14
4
52
44
3
-3
11
28
6
4
-44
-61
-14
1
11
36
-4
-17
0
-33
2
-6
-18
-24
0
4
26
98
7
1
-23
-9
-16
4
-30
-49
1
8
6
-21
14
-8
0
-6
-5
-1
20
30
-6
2
-12
-49
0
14
-35
-18
15
-3
23
67
10
-15
-21
-7
-14
-23
-45
-5
-3
-17
-12
-27
-12
16
42
-9
0
-4
18
-7
33
-3
-43
5
-4
-1
69
24
-22
-7
-8
-36
-17
11
-8
-1
5
14
44
13
10
3
-8
9
6
3
18
-15
-5
-6
-38
26
-5
-13
-12
-8
-7
2
49
-8
18
14
2
-37
-2
-2
0
-3
9
1
9
50
9
-1
-20
-36
-3
4
18
59
11
13
63
22
-23
-7
-36
25
7
-4
-40
6
-10
-12
-2
-25
-17
0
10
-3
30
12
18
-59
-8
16
-5
46
17
5
-29
24
8
-9
-1
-56
-35
-9
19
41
2
7
-15
5
0
-4
-10
-10
-1
-27
-33
-8
9
7
11
17
-5
5
-18
-17
-7
2
-5
-30
3
-14
-19
-13
-21
-24
-24
29
-3
11
-17
14
7
10
4
-31
-3
-3
35
25
11
11
-1
-36
-8
7
-12
-18
0
-4
12
53
3
2
-3
12
-5
6
-1
-31
-3
-11
-26
-11
-18
-18
-29
-8
-1
9
32
6
-24
-8
3
-48
-15
-5
-25
-4
45
22
5
17
8
-8
-38
-37
6
5
0
-1
7
4
77
6
-5
-8
7
11
-3
5
4
-16
-25
-12
-28
22
8
2
100
34
0
5
68
-5
-7
11
-13
-3
32
10
14
18
11
-11
-56
-8
-5
0
-7
-17
-3
3
5
-42
-19
-10
-36
29
-1
3
4
52
-3
-5
16
-49
-10
6
-3
17
27
6
-15
-17
-1
-4
-2
-14
-30
6
16
19
3
6
18
-2
22
2
-2
-2
-3
-8
-56
6
-5
-19
-39
-29
1
-4
-7
32
17
3
-31
6
-10
-1
-38
-47
0
10
46
-36
3
1
-13
1
-22
-5
12
98
7
-2
45
1
12
-3
0
-38
-3
-3
62
13
-7
6
23
43
5
1
-10
-11
-7
-3
-7
24
3
-11
37
19
13
3
-7
20
4
3
-52
-34
-43
-9
-15
-23
-3
-10
-21
13
14
-4
-5
-29
-6
-1
14
15
-7
-31
-70
-22
-4
3
43
37
12
4
26
-26
-10
3
-15
-51
-24
-6
1
-4
7
-3
0
-3
35
17
2
10
2
13
26
51
-8
-5
-4
14
2
-18
-48
-66
-21
-20
-19
-6
-5
-4
-15
13
18
20
0
-5
-6
6
13
38
-25
-17
-1
-1
-2
-2
-12
-84
16
1
2
6
5
9
12
25
10
7
7
-1
-1
-1
-5
34
5
4
9
-1
-2
-3
-24
-64
-21
-4
-10
-6
-3
-3
4
47
4
5
16
3
-2
2
2
-10
-1
1
-1
-13
3
-9
-22
-3
-7
-6
-6
16
-1
3
7
24
-5
-6
-10
-10
-3
-9
10
-24
-4
-4
-2
-15
-4
3
-18
-20
14
5
3
6
3
4
1
2
8
1
3
12
-1
9
16
35
-9
-4
-2
-12
-2
-8
-43
-19
-4
3
8
-2
-2
1
9
65
-1
4
0
5
0
-4
-8
-69
-3
-7
-10
7
-5
-5
2
-17
14
6
7
-14
-2
2
-3
25
11
1
2
4
1
1
-13
-4
-3
1
-8
-2
0
-1
1
-11
-2
-4
0
-6
-1
-1
-1
30
-8
-5
-4
-12
-3
3
6
-30
-3
0
5
17
4
-3
-51
-20
-7
-3
-2
-3
0
-3
6
14
-3
4
2
2
-2
3
3
-9
9
-2
1
0
-1
3
16
-4
-17
-6
2
-4
1
-8
-33
-19
28
13
1
-12
-3
1
-2
10
-19
-15
-10
7
-2
-1
-18
-6
-7
9
1
-3
-1
-6
3
35
-4
-12
2
-3
-3
10
13
7
-28
-3
-4
2
3
-18
-10
-27
31
8
3
-2
0
5
16
3
-4
3
-2
-2
-1
6
-36
-31
-14
-5
-2
-1
0
-8
-10
21
-4
-8
-6
-3
-1
8
9
29
4
0
-2
0
-2
-4
-6
2
1
-5
3
-1
-1
-4
0
-8
5
4
1
1
-3
9
17
-19
8
0
0
0
2
9
12
4
-10
3
4
3
0
-14
-24
8
-8
-8
-1
1
1
-1
9
8
-6
3
3
-3
-5
10
9
43
29
3
-1
2
1
-10
-9
-26
-19
-6
-2
-2
-4
-3
-1
-13
28
7
0
0
2
8
17
53
-3
9
-1
-1
1
-23
-36
-71
-12
-6
-1
-4
-5
2
4
20
-10
-4
-1
1
-2
-1
-5
35
18
5
1
-2
-1
1
9
-32
-9
-3
-2
-5
-2
8
3
11
15
5
2
4
0
6
6
-8
-10
-4
-3
-3
0
-5
-11
-16
-10
0
-2
-3
-2
-6
-8
15
-4
-4
0
-1
-2
-2
3
2
-3
-2
0
-1
1
0
-4
-1
2
1
-2
-1
0
20
13
-7
-4
-10
-3
0
2
-20
-5
-9
-27
-3
-1
-1
-4
-1
-10
25
32
7
0
-2
-1
0
31
-27
2
-2
-1
-2
-1
1
1
18
-10
-4
-6
-3
-1
-3
-15
-12
23
-4
1
1
1
-1
12
9
-32
1
0
-1
1
-9
-13
54
6
2
1
-1
-3
-2
-6
-29
-16
-6
0
-1
-1
2
7
-2
7
1
-1
0
0
0
13
-11
-6
-7
-7
-4
-3
6
-3
25
7
3
4
7
1
-3
-3
32
-5
1
1
1
-3
5
1
-27
3
-1
1
2
-1
3
2
4
0
-1
0
1
0
-7
-11
-1
-39
-7
-1
-1
-1
4
7
-10
33
8
-1
-3
0
-6
-18
27
27
9
2
0
-3
-6
-4
-42
-1
-2
-4
-1
-5
12
16
4
-5
-3
-4
0
0
-8
-8
-17
-12
-5
-3
-2
-2
2
5
22
-16
-7
-3
-1
-1
13
25
-17
14
-3
-4
0
5
-28
-46
-1
-12
1
6
-3
-4
-3
-4
-15
-11
-6
-2
2
-2
13
17
36
-1
2
4
0
6
-8
-14
-1
-4
-3
1
1
-5
13
29
13
10
-3
-7
-1
3
-11
-23
-33
-4
1
0
-1
0
3
-5
-24
-1
1
-1
-2
0
16
35
44
1
-5
-15
-8
-4
-7
-28
-33
9
6
5
1
-3
-2
10
23
-13
-5
-3
-2
-2
-3
-3
-25
1
3
1
-1
0
6
2
0
16
-1
-3
-5
-1
-1
-2
2
-28
-1
-7
-6
-1
-9
-15
-6
24
5
6
1
-2
8
18
12
-2
-3
-6
-7
-1
-12
-23
-11
-3
-4
3
0
-1
1
14
3
-4
-4
0
1
-1
6
-2
-22
-12
-6
-1
-1
-2
-3
2
20
-12
-4
-2
0
1
-5
-11
-40
-3
1
2
1
0
3
11
2
5
-1
-7
-2
-1
8
10
19
0
-2
-2
1
2
-2
-8
-9
-10
-1
4
5
2
-14
0
32
-4
4
6
3
3
2
-13
-16
28
-1
-4
-2
-2
0
-2
9
-3
1
1
3
0
0
1
-22
-3
-1
-4
-3
-2
0
-3
-12
-8
-3
-1
-2
2
-4
3
9
-21
-1
2
-1
1
-5
-6
-7
13
-2
-2
-2
-3
-2
10
17
36
13
2
-1
-2
-5
3
67
-7
-1
7
3
1
-9
-48
-75
-32
-4
0
-3
0
-7
-7
11
-3
-4
0
-1
-2
-8
-12
0
-5
-1
0
-1
-2
9
14
6
10
3
-1
-1
-1
-1
-5
24
5
0
-1
-2
-3
-4
7
1
-7
0
0
-1
0
4
2
-3
10
-1
-3
0
0
11
35
0
-1
1
1
-1
3
-1
5
14
14
-1
4
2
-2
2
-2
-23
-14
-2
-1
-2
0
-5
4
9
13
-1
0
-2
-2
3
-6
-24
-12
-3
-2
-4
-2
6
20
30
13
1
-1
2
1
-4
-7
-18
-16
-2
-2
-7
2
0
-5
0
4
1
1
9
4
-10
-15
-16
-10
-3
-2
-3
-3
4
14
46
10
-1
-1
-2
-4
-2
-4
-38
0
-1
1
0
-1
6
7
2
-45
-6
-2
-1
-1
-8
-24
-6
38
-1
-3
1
-4
-1
12
-2
24
8
1
0
2
4
12
14
-11
-4
-1
3
1
-3
-8
-7
6
3
-1
-4
-1
-15
-19
-25
-14
-4
-2
0
-2
-1
-4
1
-7
-6
-4
2
0
7
14
44
8
1
0
1
-3
-7
-12
-40
-3
-4
-1
-14
-2
2
11
14
-14
-1
1
14
0
4
-2
-22
8
3
1
-4
2
-1
-5
-9
-10
-2
-3
8
4
-1
-6
2
5
-4
-2
-7
-3
2
-2
-6
-5
0
0
-4
-1
-9
-2
-22
-15
-5
-6
-3
-2
4
-3
16
15
6
2
-1
-2
-9
11
11
-1
-5
-3
-4
-4
-3
-10
-16
-3
0
0
-21
-1
3
11
8
-9
-1
5
23
4
3
0
11
13
0
0
2
1
3
-4
0
15
-3
-1
7
1
-10
-9
5
-29
1
0
-5
-7
2
6
2
21
3
-1
-28
-2
-3
7
22
-5
-3
-6
13
-1
-3
-14
-12
-7
-2
2
25
4
4
19
19
-1
-4
0
1
0
-4
-21
-18
-2
-2
-5
-7
0
6
6
8
-2
-3
0
-22
-4
-5
9
29
-29
-3
2
-2
0
-9
-38
-18
39
5
1
10
1
-2
8
-19
-2
-3
-4
-5
-4
1
-8
-22
-5
-4
-7
-7
-5
8
-17
14
7
2
-2
-11
0
7
62
30
-13
-1
5
29
4
-18
-12
0
-5
-3
-2
8
-1
1
0
-18
13
4
-1
0
-3
1
14
21
-1
-1
-1
-11
-3
7
-38
-52
-5
-3
-5
-15
-3
0
9
32
13
2
2
9
1
7
1
-26
-28
3
3
-3
-2
-14
4
3
-2
-3
-4
-5
-4
-6
-3
-24
14
2
-3
-2
0
2
2
-18
-15
-4
-3
-5
-3
-12
-68
-1
6
-8
-11
-12
-3
9
32
-8
-2
-6
-3
14
-2
4
2
34
3
10
26
-6
-2
-4
-3
-2
5
1
7
-5
-3
-9
-32
30
8
-1
-16
-6
0
-6
20
-44
-13
-8
6
-3
-4
3
-1
16
-7
-4
-7
25
1
10
15
16
-9
0
-39
-2
3
22
22
-54
-22
-25
19
7
8
-16
-42
-3
7
6
7
-22
-13
3
-9
58
-8
6
18
-1
-3
3
-8
-86
23
10
-2
0
-2
2
19
29
2
-24
-48
4
3
6
20
7
20
33
54
-3
-5
-18
-4
-23
-10
-6
-20
-11
0
10
-1
48
-1
-7
15
-9
-2
-15
10
-10
-8
-3
-29
-41
-11
-1
-14
-20
4
-5
6
-11
6
-8
26
-20
-7
-1
22
93
14
6
-14
-16
-10
-9
-20
8
-4
-3
17
-13
3
24
46
-56
-3
0
5
78
-6
-42
-58
61
9
2
19
-5
28
32
36
-13
-1
-7
-19
22
-18
-12
-13
5
1
-7
0
-15
-19
-12
1
1
-7
8
5
2
13
18
4
-36
-4
0
-16
48
2
-18
-26
-16
0
-5
6
3
-16
-5
7
1
-4
-4
9
1
-9
-24
-48
-14
-8
7
-12
-6
42
37
34
-4
-2
-5
-16
6
3
-1
-19
-12
-1
-3
7
12
18
14
65
12
-3
-6
-43
-11
-36
-15
-19
9
2
5
-42
23
-5
-35
-72
-57
-5
-29
11
-65
-26
16
46
17
-9
-4
16
-22
-1
-3
-38
-29
-2
12
12
25
24
23
23
14
6
-2
33
45
2
-8
45
61
5
2
-26
-36
-8
-10
-21
-24
-4
-9
-39
-42
-19
-7
-2
-9
-3
-5
11
9
-13
-6
-5
9
2
-11
-17
-16
-13
-1
-21
-13
0
21
38
8
33
21
15
-10
-3
5
1
-5
-14
-16
-69
2
7
5
-1
4
25
26
57
67
9
-11
-10
-27
-36
2
64
8
-2
7
2
16
-2
-22
-13
0
-1
7
-11
-31
25
16
1
-10
-5
-28
14
18
4
-19
-45
-30
-9
-7
-13
7
-14
15
-12
-4
0
6
-13
-45
-22
-18
-13
-2
0
6
8
4
15
10
26
-34
-5
-6
-1
24
17
-10
-33
25
1
12
4
-7
14
5
-5
18
6
-1
-29
-22
-46
-22
-25
-26
-5
0
7
19
14
-10
21
13
-1
7
-9
-5
4
31
42
-25
-1
-3
25
9
4
-16
-60
34
6
1
13
30
10
11
28
12
3
-2
10
17
-9
-8
-15
0
3
8
12
45
18
14
62
7
-5
6
12
-64
-12
-11
-30
-31
-2
3
-11
0
5
-9
-17
-27
-2
-10
14
15
-10
-15
-21
41
2
1
-4
-3
-14
15
24
4
2
5
8
25
29
11
10
-1
-2
-5
17
-71
12
1
-21
-11
3
0
8
37
-2
9
17
-28
-4
1
3
-4
-11
-21
-53
21
4
4
-23
-21
-10
8
48
27
0
5
7
59
15
5
-5
15
5
3
1
0
7
2
-24
10
-2
-9
-12
-27
-19
-10
22
-22
0
4
42
25
1
12
23
-8
-13
-10
-19
18
9
-2
7
-52
0
6
-9
-49
-25
-1
-1
52
4
5
-23
0
9
-1
-4
9
0
6
49
46
7
2
5
16
0
-1
0
-25
-17
-3
-16
-32
-6
-2
-13
-10
13
-3
6
-2
0
10
21
2
9
22
6
-15
-1
1
-79
-92
-6
-12
-11
-3
3
4
17
41
-2
-3
-25
-15
-3
-22
-21
-12
-30
-40
-67
-9
1
-5
50
-8
18
31
90
39
-5
8
-19
-16
-12
-8
-22
-34
1
-14
-11
-2
17
8
4
-4
-6
7
28
33
-6
0
5
4
1
-8
-40
-4
-5
-21
-46
-18
-4
-6
-15
-28
7
4
2
8
1
5
-6
-20
-24
-12
-13
-3
0
2
-14
28
0
10
33
42
5
0
15
18
-14
-2
-25
-25
-2
-6
-17
-22
8
3
34
16
4
8
28
41
23
-2
-5
14
-5
5
-4
5
15
13
16
-42
-6
-12
-8
-16
6
2
21
37
4
-7
-2
-28
-32
-18
-29
-8
3
5
-1
29
-15
-28
-67
11
4
4
-7
11
12
33
95
-21
-10
-16
42
-19
5
-2
-32
18
2
-11
35
47
-15
-7
0
-36
-6
-3
-8
-32
33
16
20
27
1
2
-2
-2
-26
-13
-20
-13
-3
10
-8
12
13
-7
-22
-30
-3
-8
3
1
17
21
20
24
-1
-2
-39
-13
-12
-6
-31
-3
-2
-3
18
-3
-1
-12
1
22
5
-12
-2
-14
-16
9
47
-4
-4
1
-11
24
12
-1
-19
5
-1
7
20
23
-14
1
10
-17
-7
-3
-22
-63
6
13
-12
-62
3
6
-12
28
-8
-10
8
77
6
-7
-28
-12
3
-4
-13
-4
-3
3
13
20
-3
-5
1
48
6
3
25
-9
-15
1
17
-20
-3
5
-27
-9
12
1
-20
-22
-1
7
-5
11
-26
-3
-7
6
1
3
-8
10
5
-13
-31
-16
2
-8
61
19
31
25
51
11
-6
0
-13
-42
-16
-3
-17
-35
-1
-6
5
7
-2
1
3
-3
-5
-8
-6
-8
-15
-1
-20
4
-4
-3
-3
31
-10
-38
-27
-9
-3
-1
-21
-66
-15
9
18
9
-2
8
22
-16
23
6
3
-8
3
-13
-10
-5
17
5
-13
-13
-4
5
-11
18
8
-7
-25
20
1
4
16
23
4
-2
23
-7
-8
1
-20
-11
-17
-12
-8
-8
-1
0
14
7
3
4
7
-41
-4
0
2
31
-2
-5
-4
50
14
0
-35
-67
-6
6
13
50
5
-8
-41
-19
-10
12
8
-3
0
10
0
-25
-9
2
28
4
-3
-4
-21
18
7
2
-2
-23
-2
5
0
70
9
-24
-38
-13
1
9
26
-4
10
15
4
-17
-2
-17
-32
-48
2
12
55
24
4
-3
-20
-21
-29
-8
-21
-7
-4
4
3
31
0
-3
-19
-17
0
-12
-60
-40
3
-24
-27
-32
-10
-7
13
25
9
6
8
21
4
16
0
-13
8
5
-23
7
1
-5
22
47
13
11
33
1
-4
4
19
35
-3
2
4
-15
-2
0
-10
-57
-21
-9
-1
-47
-5
-5
-25
-30
22
10
9
59
3
4
-2
-1
-9
-12
-54
-43
-7
1
21
19
-3
-7
26
19
4
1
-1
28
1
8
40
71
8
-12
-12
15
12
2
-19
-9
-3
15
44
-43
-43
-16
-31
-25
7
-18
-54
-40
37
21
31
-10
-9
-1
-26
9
0
-2
-4
-22
-6
12
-34
-47
-25
-7
35
26
2
-14
2
45
14
-8
-26
-16
-3
6
28
-3
-20
-11
-5
33
1
9
27
7
3
5
-8
1
0
0
-17
-57
-5
3
-12
-47
-7
2
-23
-6
-10
-4
4
21
1
-6
3
-2
-6
-6
-6
-1
3
5
-7
3
2
2
6
0
-2
4
47
42
2
-2
-4
1
-2
-10
-48
-57
2
-6
-23
-44
-1
-2
43
17
-8
-7
3
43
1
-1
-10
1
-3
-12
-14
-32
-7
11
-10
15
1
3
12
4
4
-2
1
3
-13
-9
-5
-22
-7
4
10
1
36
18
2
28
3
-4
13
21
5
-5
-13
-1
-1
-7
2
-3
18
1
-3
-21
-4
5
4
-12
-36
-32
-58
12
9
1
-26
18
22
42
80
-1
-15
-2
47
17
-6
-1
-32
-26
3
-11
-22
-49
-5
-12
50
11
-4
4
60
13
25
30
41
29
9
-11
-37
-11
-21
-30
-60
18
1
2
-14
4
7
3
-1
-15
-3
11
35
46
2
14
11
12
2
-3
-2
1
-4
-3
-2
14
-2
10
19
45
-18
-9
-31
-43
-7
-19
-29
-36
38
17
38
0
-8
-15
-27
-83
-35
-18
-46
-52
-2
-1
4
-3
16
14
37
51
4
-5
22
20
-6
-12
-27
18
5
5
-16
-2
-33
-12
8
4
-5
-1
4
43
36
12
-33
-25
-10
1
-62
-32
11
14
46
10
5
-9
1
-9
-17
0
14
9
6
-1
23
-1
8
-6
9
24
-1
3
10
64
-22
5
-1
-4
2
-13
27
-22
24
8
-7
-54
-10
10
-20
-24
0
-9
-20
17
1
-11
-10
4
-23
-5
20
3
3
2
24
-1
5
-2
-32
28
3
-15
-36
-33
13
11
40
1
-10
3
50
10
-5
-8
-19
-20
1
6
22
19
-11
-3
-23
-31
-1
-15
2
-7
7
-2
18
-8
-6
5
10
32
2
6
-6
24
4
-4
-33
-17
0
-7
-32
-23
-5
-2
-24
-19
-17
-4
36
1
-2
1
-3
25
-6
-14
-33
-20
0
17
6
-5
19
6
13
24
2
-6
-20
3
17
28
64
5
0
-3
36
23
6
3
-13
2
3
7
-10
2
-8
0
-2
8
-3
-15
-5
3
-22
-37
-75
-19
-5
4
-41
-16
-9
10
40
-7
2
10
-1
-40
-5
-4
-16
5
4
-13
7
-7
0
9
28
13
0
3
2
40
-3
-6
-18
-13
-7
5
43
9
22
-3
-26
-18
-2
-16
-37
-9
-1
-4
-2
-10
-4
6
-5
3
-8
0
51
-1
-4
-3
18
14
1
1
-13
-3
2
-10
27
-19
-27
-17
-22
2
-1
8
-6
-4
5
7
-6
5
-1
2
9
16
4
-8
-5
-20
-2
16
-19
33
7
6
4
10
-2
-7
-15
-12
-13
-19
-46
-1
7
-1
-45
0
0
21
62
28
-2
4
81
70
7
7
5
0
-4
5
6
-26
-15
3
19
-1
3
5
7
23
21
3
-11
-2
1
2
11
4
-6
-12
-26
2
-1
-10
-54
-44
-14
-5
-7
-1
-5
1
24
30
58
27
34
-10
3
6
17
5
-15
-15
-47
-1
-1
4
7
-11
6
-16
2
4
-3
-5
-35
-27
3
26
61
21
2
-3
-11
-10
-16
-4
-19
-13
-3
-8
-2
8
-2
-6
5
-17
-3
3
1
57
-9
-4
-20
13
1
-4
-5
-88
-3
-3
-24
-14
2
-6
-27
-2
-23
-7
12
9
-4
11
10
25
18
6
6
-1
1
2
21
2
-4
1
-7
-6
2
0
-7
10
8
2
-4
10
1
3
-2
-7
-2
1
0
-1
-2
1
-17
-28
-14
-4
3
-9
-3
-2
21
21
7
-1
-8
-3
1
-6
6
17
-5
-7
-16
6
3
5
2
-4
6
-2
-4
6
-1
-9
-15
-18
-12
-3
7
-13
-2
-8
-23
-16
-23
-9
-5
4
-3
3
0
23
45
17
-3
5
3
-3
8
-3
-8
-3
4
-7
-3
0
13
38
11
1
5
1
0
-3
-6
-58
-14
-1
-5
1
-1
-1
0
7
-5
-14
-9
1
-2
-2
-6
-2
-33
-5
-4
-5
0
-2
0
5
-6
1
5
0
-2
-1
-2
-14
32
6
-1
3
1
0
0
-15
-4
-2
-3
-3
-2
-5
-17
-6
4
-2
-2
1
0
2
11
24
-10
-3
1
-1
-1
-4
-8
7
-27
-2
-2
-4
-1
0
9
-6
9
0
-4
3
1
-4
-15
-10
-16
-5
0
-1
0
10
8
-15
-20
-4
-1
-4
0
-12
-17
17
-20
-1
-1
-2
-4
-2
-8
2
45
17
2
4
1
-6
3
-2
-3
-3
-2
-1
-2
-3
-5
11
14
-1
-1
-3
0
5
8
-78
-11
-5
-3
-1
0
-1
0
11
-36
-8
-5
-2
-3
-5
4
0
13
-1
0
-3
-1
-3
0
-16
13
5
3
1
-1
4
6
54
14
3
-2
0
0
-4
-7
-26
-19
-7
-4
-2
-1
3
12
-2
-14
0
2
1
-1
-1
-9
-19
32
3
2
-2
-1
-3
1
28
1
4
0
-2
1
0
-4
-1
-14
-4
-2
-2
-1
-4
1
4
6
-2
-1
0
-1
-5
-3
-6
-35
-4
0
-2
-2
3
2
27
44
8
0
0
0
-1
-5
8
3
2
-1
-1
0
3
5
-57
-7
-2
0
0
-2
-10
-10
24
-15
-5
-1
-3
-5
-3
-4
-19
22
5
2
1
-3
1
-3
9
-16
-8
-2
0
1
9
14
31
9
2
2
1
-1
25
29
-42
-1
-7
-2
2
4
-10
-9
-21
14
3
-1
-4
1
3
4
6
7
-2
-2
-1
-2
-3
-5
22
0
3
1
0
0
5
11
-2
-13
-6
-3
-1
2
4
5
-3
-13
-3
1
2
1
-1
-4
-2
-1
-5
-3
1
0
4
1
-15
2
3
0
-1
-1
0
1
45
25
8
2
1
1
2
3
-27
-2
-6
-3
-1
1
-18
-11
4
0
-2
-2
-1
-2
-4
-1
-2
-38
-3
-2
0
-4
-12
-24
21
40
0
-5
-3
-4
3
8
-8
-22
-5
0
0
1
0
-12
-28
23
10
0
0
0
-2
-1
0
-3
-5
-2
-4
-2
-13
-9
-25
-14
-4
-3
-2
-2
6
12
25
-9
-1
-2
-2
-3
3
1
-57
-12
-6
-3
-4
1
-5
-2
-21
14
0
-1
1
-1
-2
3
0
1
3
0
-1
0
-4
-2
11
0
-2
1
2
-3
1
-1
15
8
-10
-3
0
-1
0
-1
-3
-20
14
4
0
2
-20
-24
-1
2
-2
0
-2
-2
3
-2
-3
0
-2
-4
-3
-1
-9
-9
-3
-12
-1
-2
-4
-2
-6
-20
-2
10
-2
-2
1
-3
-13
-30
-7
-7
6
10
4
0
4
9
8
1
-1
-3
-1
-1
7
18
26
-5
-3
-5
-1
-1
1
2
12
8
-5
-4
-4
0
5
1
-46
-12
3
1
0
-2
-17
-29
31
-6
-4
4
0
-3
1
4
-30
-27
-7
1
1
-1
30
47
28
14
-4
-8
0
4
-1
4
38
8
10
8
2
0
-5
-11
-67
-12
-4
-5
-5
-3
-2
1
38
8
2
-1
-1
-2
-13
-22
-4
5
5
9
3
0
12
19
9
-31
-17
-14
-9
-3
11
27
-8
28
2
-13
-8
0
-9
-20
10
-2
4
8
3
-1
2
9
-5
12
-6
-11
-9
-3
-3
-13
-7
-2
3
8
2
-1
-8
-2
7
-16
-6
-2
-1
-1
18
39
-4
7
-7
-18
-11
-4
-26
-32
5
-3
-2
3
-4
-6
7
6
-18
16
1
-1
-2
1
6
0
5
-7
-4
-3
-2
-3
1
-6
17
-12
-3
-1
0
-2
-3
-6
-13
-1
-7
0
3
0
9
18
11
-5
-5
-11
-6
-1
-5
-18
-76
6
3
3
4
4
9
24
32
-11
-5
-5
0
2
-13
-32
5
1
1
-1
-2
-2
-4
2
11
1
5
7
3
2
4
8
24
6
-4
-1
0
2
0
-6
-6
-1
5
8
4
4
0
6
-8
-7
-6
0
0
1
-7
-9
-8
-7
0
-3
-4
2
-16
-7
-17
-27
-8
0
0
-4
-2
-4
-12
5
3
7
2
0
6
12
2
-31
-6
-3
-3
-2
-3
-6
-8
35
-1
2
1
-2
0
1
27
-4
-1
4
1
2
-1
5
5
3
-1
0
1
-3
8
4
-4
-6
-4
-6
-4
-3
-4
3
-13
-8
-1
0
1
-2
5
7
6
11
0
-3
-1
1
-9
-25
-11
-28
4
4
1
-1
4
1
14
17
3
0
-1
0
5
0
8
14
3
0
3
1
-6
-15
6
8
3
2
3
-3
-3
1
-3
-4
-5
-1
-1
1
-5
0
0
-6
-2
0
0
-2
-1
3
0
-4
-8
-4
-2
-2
1
6
13
-4
2
2
2
1
4
-2
-10
7
2
2
2
1
-7
5
-7
6
0
-1
1
-1
0
-9
-5
-7
-5
-5
-3
-1
3
-1
2
-2
1
0
-2
0
-3
-9
28
4
-5
-4
-5
-4
2
16
3
18
8
3
-6
1
-3
0
-2
-11
0
-1
8
-2
3
1
7
-7
-1
0
-19
-2
3
-1
-2
3
3
-1
22
2
0
-3
13
14
0
-3
-1
0
1
6
11
-32
-5
-4
-5
-2
-4
11
7
28
1
0
-2
-4
-3
-5
-20
20
7
0
-7
-2
1
0
8
-1
-2
0
1
-1
5
6
0
-4
2
-2
-3
0
1
-2
-2
-18
-4
-5
-6
0
10
5
-3
-11
2
4
-10
-2
-18
-8
23
19
1
3
18
2
3
-16
-33
0
-4
0
-7
-3
-8
-13
3
-10
-1
1
11
0
-3
0
-3
0
-5
-7
2
-1
3
3
-8
-8
-1
0
-30
-5
-10
7
11
8
-1
4
-6
-6
4
0
11
2
1
5
15
1
2
-21
-7
2
-1
3
16
4
-9
29
-2
-9
-4
-7
-5
-4
-3
-6
-11
1
-2
-6
-25
-1
4
-1
-11
6
3
0
16
0
-12
8
-2
-20
-7
-6
-16
-5
8
-13
-3
-51
-8
1
21
5
6
1
6
76
20
5
3
2
4
8
8
-4
-2
-4
-3
0
1
1
-15
-4
1
-3
-7
-2
-5
-16
-17
-5
-1
-2
-11
-5
3
2
-18
-32
-10
-3
3
-1
10
17
17
4
3
-3
3
-3
-7
-5
3
1
-6
-6
-16
-7
3
-17
-27
-17
-3
-18
-6
2
-10
-5
11
-12
-2
-8
0
-2
7
-4
9
27
1
19
5
0
-4
4
4
8
-3
10
-3
-6
14
-6
3
1
1
-2
7
2
4
-13
-15
-44
-21
-8
-5
-4
-9
24
-6
37
16
9
-27
-4
15
-6
-13
-17
-10
-13
-6
-3
-3
-4
-8
32
6
3
-37
3
-1
10
65
-8
1
15
55
6
3
-12
-50
-36
-17
-18
56
5
1
-23
-48
-23
-8
3
-2
-1
2
-11
-1
29
7
-30
-38
-12
5
11
-22
16
13
33
-26
-1
-6
59
67
0
1
-12
-18
1
-9
9
-18
25
12
-6
18
2
7
9
1
-30
-16
10
8
-2
-1
-10
-23
3
0
-20
-19
-4
-7
-58
-7
-1
-3
5
-24
-10
5
25
33
-12
-5
-22
-15
6
2
4
0
17
20
35
-6
-6
1
6
13
22
4
10
37
5
2
-17
-19
-9
-1
-9
19
1
-16
3
23
-11
-8
-1
-3
0
-8
1
-17
4
-4
5
6
-2
-9
-17
-13
-13
-10
-43
-12
-1
6
-36
6
-13
8
31
-26
-6
-16
13
0
23
26
20
6
2
-5
14
27
25
9
4
-7
1
5
-23
-28
-17
-4
-7
-16
-6
7
19
34
-17
-19
-45
15
-2
-15
-20
-24
-5
-17
-35
-25
-11
-4
-35
-9
20
15
79
92
16
5
32
17
0
0
-4
8
1
4
-11
-6
-3
3
-12
-15
-1
-5
-11
-19
-4
-18
-29
-43
-3
0
26
1
-17
0
28
23
2
-7
0
29
1
-2
6
-13
-5
6
-3
-27
-32
-38
-73
-16
5
13
14
56
73
54
84
15
-5
-6
-17
-13
-20
-1
-13
-3
0
1
7
9
11
7
13
-4
-1
-11
-2
-55
-13
-1
10
-58
-11
2
-9
29
-14
-21
-46
55
7
-2
-46
-14
-4
-32
-69
-20
2
4
52
53
19
66
118
73
2
-3
-2
-23
19
17
-11
3
2
3
-29
-48
-7
-1
0
-24
-3
8
48
29
-4
-5
-10
13
-3
-2
-32
-40
-39
-37
-51
-36
0
-5
1
34
14
-1
5
27
0
3
5
-8
-4
8
44
11
1
-1
-6
5
-3
23
3
-20
-7
-3
21
-4
22
-10
-44
-40
-2
-4
19
6
-4
17
44
-36
-6
16
34
17
-12
-5
19
36
14
-5
-23
-63
-8
-2
-34
-4
-4
3
-13
-18
7
-12
2
39
5
-13
-17
11
-66
-35
-21
6
6
4
16
33
86
38
14
-6
-7
11
-39
-20
0
5
9
-32
-4
-3
35
22
-8
0
2
2
0
7
4
-21
6
-7
-30
-13
3
0
-19
11
-26
-14
-28
3
-3
-6
11
-4
-1
-3
52
-42
-5
0
-3
-6
1
-4
-47
74
7
4
-32
1
-14
-28
24
24
-5
-6
63
19
-8
8
13
-25
1
2
11
5
17
12
9
16
-5
-11
-20
2
-64
-34
-41
-86
-10
-9
13
-16
84
34
-2
37
16
-1
-26
5
-7
-9
-1
33
0
-8
-11
0
-30
-20
-46
-19
1
4
6
21
27
-1
3
-13
-12
-7
-9
1
-35
0
11
-90
-15
-11
-24
-34
22
0
-15
84
11
10
18
33
39
2
-81
-76
-16
-2
-7
-26
-59
-2
85
-64
16
-22
19
54
64
29
55
74
8
9
0
-12
-37
-11
-7
-56
10
-14
-26
-32
-42
-24
-29
-5
-27
5
-23
-24
35
21
-22
-118
-23
15
27
-7
-8
-6
16
97
35
-6
-8
35
-74
-20
7
-7
-7
-3
42
39
50
6
2
14
14
-8
-7
-10
14
-2
-9
8
-7
2
-19
-22
-26
-1
-17
-81
-19
-1
-30
-16
-5
-29
-24
12
2
2
-5
30
-8
21
24
-36
-3
-5
12
11
47
17
2
34
5
7
-8
19
-5
-1
-19
1
-7
-13
19
-54
-25
-12
20
12
-3
3
-28
-16
-20
-6
35
36
7
1
3
21
3
-4
1
7
1
-7
-55
17
15
0
-20
32
-5
14
68
-10
-13
-7
-24
-21
-1
-3
22
4
10
3
16
-14
-3
0
-49
26
11
2
-9
75
10
6
46
-2
4
8
8
-56
-7
-8
-37
10
6
4
12
12
-2
-2
12
19
-7
-12
-12
52
6
8
9
-1
-60
-65
-113
-29
-5
-16
3
-103
11
46
68
-22
-5
-14
-35
39
20
8
18
-38
-8
-10
41
-2
-6
-6
-10
28
9
-1
-2
-21
-17
-3
3
-24
-1
-2
12
19
0
-21
-22
13
-3
3
-28
-35
11
8
-5
11
5
-1
3
-6
-4
-2
4
-34
-10
-7
18
5
14
8
10
-6
-3
-6
-25
20
-21
-9
2
3
2
-1
28
3
1
14
8
0
-1
-3
3
-63
-46
-15
-7
-21
-3
-2
-9
10
41
23
6
-2
6
15
18
28
14
-12
-54
68
6
7
-1
44
25
11
30
-51
-5
-8
-49
-39
-16
3
56
28
13
-12
13
-7
-10
8
20
34
-5
13
6
7
-13
-10
-2
-50
-8
5
-12
9
14
-6
-43
-2
1
8
17
25
8
-8
-52
8
1
-4
-14
-13
-4
-8
55
7
-2
1
-52
-17
18
18
20
-56
-8
-5
3
10
-20
-11
-14
56
5
-2
-13
22
17
11
10
-14
-4
0
-25
-26
-13
-8
-53
0
6
-3
33
5
-8
0
43
28
1
-2
-25
-61
-4
4
-1
-26
-7
-3
5
34
9
-7
-25
-23
-3
-3
-9
-31
-41
-54
-95
14
-3
1
-6
-26
9
30
55
23
-1
1
22
19
23
25
12
-60
5
4
-25
14
14
-1
24
125
11
6
25
-13
-15
-1
-6
-80
1
-8
-21
11
-2
-10
-13
60
2
-4
-13
-29
-10
-11
-1
-7
-5
11
14
22
-5
-12
-44
-43
2
1
6
-16
31
41
55
27
-12
-7
-3
37
-29
-15
6
-94
1
-1
-11
-5
24
5
9
99
11
-13
-43
-52
-29
-9
-3
-7
-8
2
58
40
27
11
-3
-17
-2
-10
-35
-29
-6
-4
-12
3
-7
2
12
-5
-29
-8
-2
-49
-8
9
35
2
-17
-10
2
17
3
-3
-25
-1
12
6
-5
-46
2
4
14
28
23
0
11
91
0
-5
7
0
-23
-13
-39
-128
-6
2
-8
7
-4
11
45
117
14
-5
8
-31
6
11
45
-7
-3
4
20
-1
-17
-20
-45
-72
-1
3
-9
-7
38
25
28
109
9
4
36
44
11
-1
-29
-18
0
-1
-20
-10
27
6
25
48
4
-1
-28
1
-37
4
-2
-17
-4
-8
48
-21
-2
-14
-8
-59
-20
3
-24
18
15
7
-11
-56
0
0
32
2
-29
-7
36
87
6
-6
13
-30
25
3
-21
-52
-3
-18
-32
5
-9
-4
-70
37
-10
-7
-26
-13
9
7
69
-51
-7
19
16
23
-7
-9
-4
57
9
-3
15
3
17
4
-10
0
-1
-2
-9
27
-28
-15
-33
-39
-5
-16
0
21
28
8
1
-29
-9
5
-25
-28
-24
1
26
29
4
-3
68
-21
-9
-1
27
1
-1
8
2
29
-55
-17
6
42
6
4
-11
20
78
18
-38
-18
-4
8
34
22
-14
-8
-5
-22
-5
-21
-35
-59
-30
-22
-9
-38
-10
5
-11
10
23
3
6
24
8
2
-9
1
-21
0
25
-12
-8
-3
-39
65
23
12
-14
-87
-7
15
29
-30
-16
-6
-6
63
5
-6
10
7
-2
-11
-8
-42
-5
-7
-25
-18
-10
-13
-20
-35
11
-4
-4
-24
20
14
27
86
4
-6
4
31
0
1
6
0
0
7
-4
-14
-8
5
20
-6
0
4
29
-20
5
-10
-36
-21
-9
-11
-20
-12
-68
-15
-41
-57
-8
10
-17
35
88
17
-7
-8
1
-5
-2
-52
-15
-6
31
27
-1
-7
-26
-8
-23
10
-4
-11
-3
-2
16
-9
19
0
2
32
0
3
-6
38
-19
-18
-71
2
-5
13
-20
2
20
16
59
-16
2
-4
4
7
-39
4
8
9
-9
-4
-5
-3
-7
-2
23
-30
4
-2
-39
25
23
4
21
119
18
9
-6
6
5
-1
-29
-53
-8
-8
15
-10
-25
-9
11
14
0
-2
3
-15
36
14
0
-43
-7
1
-2
-13
-15
-8
2
-36
-4
-3
9
41
-18
-6
-11
36
-1
2
5
-54
35
4
1
25
3
-9
31
19
-16
-10
-7
-40
-9
8
-3
-35
4
-2
-6
-35
2
-14
-2
-20
-17
-2
-11
38
4
2
22
41
-3
-14
-31
2
-4
1
-49
20
5
3
9
-17
-13
-12
18
-14
-38
9
24
-30
2
2
19
-4
19
7
40
71
7
7
-3
-1
-9
-5
-25
-9
-2
-7
-9
-51
-15
-6
-29
-34
1
0
15
47
1
0
12
10
-5
4
-43
-17
12
-3
-17
-83
-5
-3
3
-13
-28
-15
4
83
9
7
-9
-15
43
12
-17
-14
1
1
16
-13
-4
4
15
19
3
1
-14
-13
17
8
20
-22
-4
4
5
2
-31
-9
-20
-1
-1
10
-10
22
-7
-4
27
20
4
-6
-8
-8
12
-4
14
13
-1
0
-1
14
-33
-7
-19
0
-2
-10
21
1
33
9
6
-37
-4
2
-7
25
-2
-9
-13
39
3
3
-29
-29
-13
2
-22
-62
-10
4
11
-7
-16
14
31
42
8
-3
-1
1
30
10
9
2
3
-12
10
-14
-9
-1
11
9
3
4
4
26
0
-13
-19
46
3
-1
0
-13
1
-8
-21
-37
-8
8
22
11
2
-3
21
-8
-2
-6
-44
5
3
4
-27
-1
2
0
13
1
-15
4
7
-22
-7
-6
5
-20
7
-1
-4
-7
-2
-9
-61
-53
-33
-15
15
-25
-4
8
33
-3
25
18
-6
31
1
-3
-9
18
3
-2
0
-3
0
4
57
32
18
-4
-21
-20
2
7
24
30
-14
-2
25
64
3
-9
-6
-18
-8
-9
-4
2
-2
-1
-62
-23
-35
-4
-13
-85
-13
2
54
2
49
-6
-16
19
7
2
-8
1
-22
10
18
54
8
-5
16
7
14
-4
-17
-11
-3
3
10
-1
9
2
-1
8
2
-4
-11
21
-12
-10
5
-29
-15
7
-10
30
19
6
-1
-2
8
-9
-26
-71
-37
-5
6
30
2
-2
10
26
1
-9
-5
-23
-5
-4
-71
-22
18
14
-20
-25
-5
0
14
-1
5
0
-1
8
0
6
0
20
3
-1
26
-6
-2
4
30
-37
-10
-2
-3
20
4
-6
-6
7
-15
-9
-26
-6
1
8
6
26
31
28
57
43
2
4
-9
9
-8
-10
-18
-22
-1
-17
-25
-63
-1
2
4
2
1
11
-6
19
11
-2
6
16
1
-4
-41
-10
2
-10
-27
-75
-7
2
56
28
-1
-1
17
44
3
4
14
-2
-15
-2
-2
12
5
0
-6
-2
6
3
-21
31
3
-7
-20
-33
-8
-8
12
-28
-5
-2
-9
-20
-15
0
18
-14
-5
5
0
-10
18
4
-20
9
2
6
13
8
-5
4
-6
-9
-2
2
8
8
9
2
9
-6
-3
-8
1
-10
-18
-7
-3
-24
-1
-2
6
25
-26
-16
-7
3
0
-1
10
-23
35
21
3
6
-2
4
28
28
-10
-11
-18
-13
-1
0
-12
13
22
10
2
-3
0
-5
-16
-36
-13
-1
-6
7
-5
2
5
58
-24
-8
18
0
0
-10
-3
-68
-30
-8
-12
1
1
4
11
43
30
2
-9
-7
0
-1
-3
-10
8
0
9
12
1
-1
2
26
-2
-2
7
4
-1
3
11
8
10
2
-17
-11
-4
-1
-20
-54
-34
-9
-7
0
-1
2
-8
29
10
4
3
7
-1
-7
-2
-30
-1
-2
8
-4
0
2
11
36
19
5
-12
-4
-2
-3
-12
-34
-14
-4
1
-6
0
-1
9
27
8
1
-1
12
0
-5
-12
-16
-12
-8
3
-3
-2
4
14
21
18
1
-3
-2
0
-5
-34
-50
-25
-13
-12
-3
-3
0
17
12
12
7
5
-3
-1
-4
-9
0
7
1
3
2
-1
-1
1
-15
-39
-3
-7
-2
-4
6
14
59
19
-3
0
1
-3
1
-11
8
27
5
0
0
2
-5
-10
-2
-4
-2
3
-4
-4
0
6
26
8
0
-6
-3
2
-2
-6
-26
-13
-4
0
9
3
-5
-8
-20
-45
-8
-2
-5
-5
-1
-4
24
19
7
1
4
2
-1
3
-18
5
0
-6
-13
-2
7
13
31
6
2
0
-1
0
10
19
64
24
8
4
4
-1
-2
-14
-80
-27
-12
-1
-8
0
-9
-5
-57
-2
10
3
3
-3
0
4
48
0
8
1
1
1
-1
8
-3
-4
-6
-4
1
0
-4
-7
13
7
6
2
-1
-3
10
11
0
14
-6
-8
-3
0
-17
-14
-6
12
6
4
3
-5
-1
0
-3
2
-2
0
-4
1
0
-10
-69
-25
-8
-3
2
-1
-8
-6
20
9
-1
-1
1
-2
1
-2
-7
3
-7
-3
-4
-1
-5
-7
11
-13
2
0
-1
-3
-9
-4
6
13
0
2
0
0
-3
-12
15
-11
0
-2
1
0
7
14
-2
12
-7
-5
-1
-3
-8
-21
-13
4
1
2
1
1
14
24
-32
-14
-4
1
0
0
-14
-17
-18
-28
-4
-4
-4
-4
-1
-2
36
19
0
-2
-3
-2
7
11
-7
18
6
2
3
-1
5
18
24
3
0
-4
-1
2
-8
-9
10
-8
-7
0
0
0
7
8
-20
-5
5
2
-1
2
-7
-3
0
-19
-10
-6
-4
-2
-2
-2
21
30
5
2
2
1
7
7
-57
-6
3
-1
0
1
-10
-9
-8
-13
-4
2
-1
-2
-1
0
-11
8
0
-1
-4
-3
14
25
43
3
-1
-5
-3
2
-11
-19
-18
-15
-3
2
-1
0
8
10
5
23
4
-6
-5
-2
-7
-21
-11
-2
-1
4
1
1
-10
-17
-7
-8
2
6
2
-2
10
15
24
-2
-4
-2
0
1
3
5
-3
12
0
-2
-2
2
4
12
-3
5
2
-2
-1
-2
0
5
33
7
-5
-4
-4
-2
-8
-18
-31
-14
0
4
3
0
7
9
-1
-4
-3
-3
-1
-2
-2
9
37
-43
-4
-1
1
2
-14
-21
-40
19
10
5
2
-1
14
24
13
43
0
-8
-3
0
-19
-36
-10
-16
7
10
6
0
-3
0
21
-1
-7
-3
-3
-2
7
11
4
-18
-7
-5
0
-3
-22
-39
23
4
10
12
5
-1
5
5
22
-13
-6
-2
-1
0
10
19
-5
13
1
-3
-3
1
-8
-17
26
-19
-6
-1
-2
-4
10
12
-46
8
-2
-13
-8
-2
14
35
1
-28
-15
-19
-13
-2
-11
-10
-8
28
11
9
7
0
5
20
-2
10
-3
-11
-7
-4
1
-1
46
-29
-11
-3
-4
-2
-7
-3
-37
5
0
-2
-4
0
10
22
-1
-21
-9
-8
-9
-4
-11
-19
-12
-5
-1
0
-6
0
3
-5
-11
4
-1
-1
-4
-4
-3
-10
-26
-20
3
11
8
2
6
9
47
18
-6
-8
-4
-2
1
3
1
-3
6
12
9
6
0
5
-5
-10
-7
-6
-1
-4
11
16
3
18
0
-6
2
0
-19
-39
3
5
10
18
15
2
-5
-14
-85
-19
-11
-4
-3
0
8
11
22
1
2
-1
2
2
-11
-12
-11
-1
1
1
-1
0
6
3
2
7
-3
-4
-3
2
1
-3
9
-6
4
1
1
0
5
12
14
-1
-2
-6
-2
-2
-7
-7
-1
-5
4
5
2
0
6
9
-28
8
-3
-4
-4
-2
4
-1
15
-7
-2
2
2
0
-4
-1
-5
25
1
4
3
2
-4
-5
-3
-22
-5
-2
-1
-5
1
-2
18
0
3
1
1
-1
-2
-12
-31
-3
-8
-1
-1
-2
-7
-8
-4
8
4
1
-1
0
-3
-15
18
5
-1
5
6
0
3
-3
-23
1
1
1
1
0
1
15
24
-12
-4
0
0
-1
-4
-1
2
-5
-2
-2
-5
-2
-2
-11
6
4
1
1
-5
-4
10
21
-16
-14
-3
-5
5
1
-5
-4
24
10
-3
-2
-1
-3
-7
-1
-6
-14
0
0
3
-1
4
8
36
18
4
2
3
0
-3
3
2
-3
-1
-1
-2
-1
1
4
5
-26
-5
-4
-3
1
-1
-4
-7
35
5
1
-1
0
-1
2
3
2
-2
-1
0
-1
2
4
15
7
0
-4
-7
-2
-3
3
-19
0
2
2
0
0
5
2
0
-17
-1
3
4
0
3
5
14
5
0
-3
0
0
-13
-24
-37
-5
-1
3
-1
0
1
-3
1
5
2
1
-1
-1
0
-7
-5
-10
-5
-3
-3
-2
-1
3
9
2
-2
-1
-3
-2
-6
-10
-27
-4
0
0
-2
2
-2
-1
13
3
-2
-3
-14
-6
-1
6
5
-2
0
-2
2
-2
2
-3
-17
-4
-2
0
-9
1
0
-3
20
5
0
2
23
0
-4
-2
-9
2
-1
-1
0
-3
-2
-12
-40
-43
-11
-7
-7
-2
-3
-6
0
46
14
3
-6
-1
9
10
5
3
-1
-1
-4
-2
0
-2
15
7
-3
0
0
-1
-7
-9
9
-3
3
0
1
-2
4
5
-5
-25
-6
-2
-4
2
-3
3
1
-2
-4
0
1
3
-7
-2
11
7
2
-2
1
-1
0
-2
-1
8
-2
2
-4
2
-10
-8
10
-8
-1
0
13
1
-1
8
-12
1
2
-5
-10
-5
2
2
8
-4
-2
-9
-7
3
7
8
24
12
0
7
12
1
-7
-1
-26
-7
-1
-1
-3
-1
-2
-13
-7
1
-3
-2
-4
-2
-2
0
-24
-8
-1
-3
0
-2
0
-3
10
9
4
-2
-3
1
0
16
70
7
0
0
3
0
2
-8
-68
-21
-6
-3
-5
1
6
13
9
5
-3
0
1
-1
-9
0
1
13
3
0
-5
-2
6
-1
13
-7
-3
-1
-1
-5
-3
0
15
5
3
-3
-5
-3
-4
-4
-13
-2
2
1
2
0
3
17
-2
-13
-8
-5
-2
-1
-9
-20
-7
15
-2
-4
-1
-1
-9
2
7
-17
3
3
-4
-3
3
-7
-4
6
1
0
3
0
6
2
-7
-11
-5
-5
-24
-8
5
-3
-13
-3
-3
-6
6
3
-11
-13
-38
-4
-5
-8
4
-2
-3
-8
18
-5
1
11
8
0
0
3
-6
4
1
-14
-2
3
3
1
6
-4
1
9
15
-5
10
-7
2
5
1
-8
-18
0
0
16
-6
-4
-2
-2
-3
-1
-16
-14
12
4
-4
-3
-12
-4
-1
12
-37
-14
-5
-6
-11
-3
-6
-22
59
-26
-17
-4
-3
-4
3
24
-30
52
16
2
-6
-1
5
1
-52
-12
-4
-5
-4
3
-6
10
14
7
2
-3
-9
-5
2
-3
21
-15
-10
-14
-1
0
-9
-29
-2
-19
-15
4
42
6
0
0
16
3
18
21
0
-4
7
-3
-3
-5
-5
-33
-10
-1
-3
9
7
11
-3
35
-18
-6
1
20
13
1
6
13
-14
1
-3
-6
-13
-1
-1
20
51
5
7
-8
11
-8
-4
0
-5
-3
7
14
11
2
-4
-36
-44
-9
4
-24
25
8
-7
-34
-45
2
2
0
-24
1
19
63
65
12
3
22
13
2
2
-10
-56
5
-1
4
-19
15
8
22
43
-3
-19
-50
-16
-22
-16
-37
-20
-10
-5
-7
-12
-11
-11
-7
-12
1
-4
-5
-31
-59
-18
3
36
2
-5
9
3
70
31
-7
-12
2
-8
-50
7
19
4
4
-19
-11
18
73
46
22
0
-31
-30
-6
-15
-16
-25
-4
-1
0
-56
-5
-3
-16
-35
-33
-6
17
44
4
11
-1
-25
-45
-45
-59
63
13
-10
5
77
56
54
71
-19
-10
6
-7
10
6
11
52
13
-2
9
16
-48
-14
-4
-13
-16
2
1
14
30
32
22
4
24
2
-11
-6
-56
-46
-41
-67
-106
-16
3
-33
-7
-24
-21
-47
56
7
-2
-1
37
50
46
80
84
9
20
4
18
-44
-12
14
3
-1
8
-25
-63
18
-5
-29
-43
-1
-11
-12
-17
22
0
-9
-1
-4
-13
19
-15
-40
-24
-42
-70
-6
10
29
18
16
23
35
45
0
7
-13
40
-16
-13
-36
3
4
2
-4
-28
2
-2
-10
29
6
-15
-24
-10
-32
-39
-101
-19
-7
-6
12
36
0
14
107
-30
-3
-2
-25
-40
-9
-5
-9
4
-9
-2
46
34
24
10
-5
-56
-2
3
-5
25
-2
-10
-36
73
16
-6
6
-34
5
13
20
-58
-13
-1
-2
2
-8
-4
2
84
12
2
11
-1
-20
-6
-5
-9
-7
6
-10
36
7
13
9
-33
-7
3
-2
-12
37
7
-19
24
7
2
-9
36
2
-9
-24
1
0
-15
-8
-42
-51
-10
-1
-24
-7
3
-5
-12
28
16
74
14
0
2
-4
4
-3
0
-9
0
3
-2
8
34
3
-6
-28
-7
2
-2
-16
5
11
-1
3
15
-1
-8
10
-9
-11
-4
-17
-28
-2
0
31
-4
-9
-5
-3
16
-3
7
-6
31
-23
-10
-14
-88
-5
-9
-29
-32
30
4
-5
106
15
-6
15
0
26
43
99
-7
2
-4
-4
3
-5
0
-8
-52
-8
4
3
-20
-12
-7
4
49
6
7
-3
38
10
6
24
-18
-10
-7
18
-22
3
-18
-56
-33
-3
-6
-5
-37
-33
-4
-22
23
-4
-11
-14
-25
30
13
-8
-10
-6
4
19
6
-3
3
19
-37
-3
12
3
28
-34
-17
-2
43
8
-8
1
37
21
-13
-20
-25
-2
-4
3
-17
-4
6
10
8
0
3
3
-6
12
4
8
-3
-4
0
-1
11
1
-4
0
0
-1
3
-7
-7
-20
-4
-4
-2
3
-1
6
8
-11
-3
11
19
4
2
-24
4
15
3
-26
-54
-6
4
20
3
-9
-4
10
16
1
0
17
-28
-22
-5
-29
-5
1
0
0
8
25
8
60
71
8
0
-21
10
13
6
31
12
-2
3
0
5
-1
-12
-7
-40
-12
11
-49
-36
6
2
-22
-89
1
-8
43
24
-14
-12
-3
90
2
-1
-7
2
-5
1
-5
-51
-2
9
10
15
15
2
-12
48
0
2
3
6
0
-5
9
-12
-5
-3
-2
-14
-12
-4
-6
-11
-1
-8
13
5
-9
-26
-69
9
2
-11
-50
-33
-11
8
41
-11
-3
4
36
15
-3
-5
-5
33
2
-5
-15
12
13
4
-9
-56
-6
-2
36
32
6
5
-3
64
6
-3
-16
-28
-8
2
16
-51
-8
-3
10
18
9
0
-1
-5
2
7
10
-17
-15
-15
-14
14
4
11
-2
-14
-17
11
19
20
-1
4
-11
57
24
13
48
-13
1
-9
-11
-57
3
14
11
58
6
-4
5
15
8
-5
-23
-35
-10
7
2
10
9
26
45
5
-1
-6
21
-17
-15
-16
-34
-6
-1
-12
-14
27
26
3
1
-14
-4
9
-37
-29
-41
-21
-91
-20
4
-17
5
-44
38
31
102
29
-5
-2
-16
25
-18
-12
-33
-18
1
-14
-23
13
14
5
5
51
0
-3
18
-9
-4
-2
-4
-50
0
-5
-9
-11
-14
-29
-77
19
3
1
-31
36
10
10
26
7
-8
16
58
-28
3
14
43
5
-1
-7
-34
-58
-8
2
8
-28
-3
6
-10
36
-11
-19
-31
-13
1
-8
-2
-30
-14
-20
-48
0
-3
3
-17
-9
8
24
42
4
-4
3
6
29
13
8
26
-16
-7
-4
19
5
7
1
0
14
12
-3
2
-23
-20
-34
-59
15
2
-1
-18
-10
-11
3
22
-6
3
-1
-12
-22
2
6
21
-15
-7
7
29
-16
-4
0
-6
11
3
-1
-8
27
14
-3
-36
-29
-7
4
-24
-30
-27
-26
-14
23
4
-6
-2
16
14
15
43
7
-6
4
2
7
-11
-9
-37
-57
0
2
-20
-43
-8
12
51
39
9
8
39
73
14
-10
-34
-10
-1
-6
5
-87
-9
7
23
19
6
-9
13
53
-2
-3
-27
-55
-25
-7
-44
-26
21
8
-8
-55
4
-2
-3
49
-22
-12
-30
26
-9
14
-15
-24
9
5
18
2
5
-5
-19
25
-16
-3
30
54
1
15
43
-14
8
-4
5
-3
-2
-20
-19
-39
18
4
-39
-23
-3
-2
1
17
-7
-3
1
5
-7
-10
-23
-45
-16
-1
-4
-19
0
2
24
66
-4
9
-1
-3
-6
-1
-51
-56
-14
-20
-45
-78
-5
-1
56
20
35
40
75
53
-1
2
-24
-12
-8
3
-2
29
-1
7
15
8
10
3
-9
-26
9
-7
1
-4
-18
-12
7
111
15
8
-6
84
28
-2
-26
-27
-1
0
-13
-81
-2
-3
19
-15
-7
-6
-35
-29
-9
2
-12
-31
-7
-6
33
20
-33
-1
20
8
-2
7
-8
34
24
-2
-3
8
7
9
26
2
1
-7
-20
-4
5
-18
-42
-4
12
2
14
3
-10
14
26
-14
-16
2
34
-47
-1
-16
-6
38
-4
-11
-23
34
0
2
10
-25
17
6
18
-24
1
-11
12
-27
6
-1
-24
4
1
6
-37
9
-7
-12
-30
39
-7
2
13
3
-8
-5
-28
-37
0
-5
-25
19
-25
-13
17
14
1
-7
24
-24
29
-9
12
36
4
2
-34
-1
13
21
-33
-19
-6
9
48
8
1
-6
1
-9
6
-17
-49
-32
-22
-9
-11
-7
-6
12
46
22
-10
6
14
-20
-2
-8
3
12
13
1
3
-4
-3
-10
-22
-3
-12
-15
-25
-19
-14
5
16
22
0
0
3
-54
2
-2
-4
-3
-19
-6
-4
66
6
10
-8
13
9
-1
-7
-25
8
2
14
2
20
17
16
1
-6
-4
0
-30
8
4
14
-17
0
6
7
-7
-32
-4
-28
27
3
-1
22
21
13
-3
-13
3
1
-1
-13
-6
-16
-9
29
-12
-11
7
4
25
30
15
15
-31
2
-9
-1
28
12
7
19
54
8
-7
-10
-33
-17
-10
6
-2
1
-6
-16
20
-18
-13
-44
3
3
-7
62
18
8
-1
-4
-11
-13
7
-11
-15
-14
2
11
2
-1
-6
3
27
10
-2
-5
-29
-6
3
0
-25
6
-2
18
45
7
13
16
27
2
-2
19
29
7
-11
5
-18
1
-8
-14
2
0
-5
6
-23
-5
5
-12
-68
-17
5
3
1
-28
-6
-13
-36
1
-9
-15
27
15
13
8
89
8
16
10
2
-44
-28
-38
-32
-1
-5
35
3
79
35
48
6
-2
-3
16
6
2
7
8
-13
1
-5
10
8
-7
-16
-24
-1
-1
-6
11
35
-7
9
-8
-30
-1
-11
-16
-14
-15
-9
-20
11
-1
3
-22
2
-2
0
13
21
1
7
-23
-8
-9
-9
-4
5
1
-1
44
22
24
12
10
-34
-18
11
1
23
-10
-10
17
-13
9
-19
-29
-77
-9
-7
-28
25
9
6
3
16
4
4
8
21
-2
4
-27
-27
9
14
34
6
-5
-4
14
-32
-7
-1
-6
-84
-6
15
-16
23
-6
2
14
70
8
-3
-31
-93
-58
-16
-24
-48
-1
-13
7
22
71
6
9
53
5
2
11
-6
6
11
0
8
4
-4
1
12
-14
-12
-10
1
1
-2
7
21
10
-3
-8
-23
-7
7
-19
22
-17
-10
-7
-32
-4
-2
-19
-62
-29
-11
-42
28
3
-12
0
13
15
10
49
3
-8
-5
-14
11
6
19
30
-49
-12
-1
-12
-8
-6
-13
-41
15
-1
10
-8
23
4
-3
42
25
7
2
0
-20
-9
-5
0
39
5
2
-21
-16
-2
-7
-20
13
-3
6
-3
3
-5
0
-18
-18
-1
-6
-43
-19
-2
-8
-1
7
-3
2
42
13
-29
-5
-26
-35
-14
-3
4
17
29
12
28
-16
-3
-11
13
-20
-3
0
-6
16
2
-3
-25
41
28
8
19
24
4
3
3
-1
16
-6
-16
-27
1
-2
14
-19
-27
1
-23
17
1
4
12
-17
-9
-11
-5
-25
-5
5
18
25
-4
-1
-6
-7
-2
-8
-30
22
8
3
6
-1
-4
7
14
-3
14
13
4
8
0
-7
-1
-25
-17
-4
18
-33
-2
-7
40
9
-7
-8
-10
25
3
6
7
26
5
-5
-3
19
1
-1
-8
-38
-8
-11
-9
9
6
3
-12
19
-8
2
19
31
4
-1
21
22
6
-4
-23
-16
-7
1
4
-46
-2
3
4
-30
-1
2
1
62
12
-5
-21
-1
-1
-5
-4
29
7
11
15
-12
-2
1
6
-20
-6
2
9
26
1
-1
-5
-10
-4
-3
-9
-7
-3
-4
-1
5
3
-4
-6
9
0
7
-1
0
18
3
-7
-22
-2
-5
-12
9
-15
0
19
12
-2
-2
-1
-26
-9
6
-3
-11
1
-2
5
-5
-24
-8
-8
8
0
-1
-25
-51
6
-1
1
5
1
3
15
29
2
-4
0
-6
-2
-3
-3
-2
1
-6
-12
-11
-1
0
4
9
-3
-3
-4
3
-1
3
16
56
8
3
7
8
-1
-6
-15
-80
-23
-3
0
-5
1
-3
-24
11
0
-5
-8
-6
-1
2
-5
2
4
-3
4
4
0
-4
-22
-1
-16
5
4
4
1
2
18
42
17
0
-4
-3
0
-1
2
11
0
-2
-3
-6
-1
-2
-8
0
5
-7
0
3
0
5
6
-22
-9
3
0
4
1
-2
-8
13
40
8
2
0
1
2
2
7
-6
-2
-3
-3
-1
-6
-3
-16
8
1
0
1
1
-1
3
7
-43
-19
-7
0
-1
-1
-9
-53
-7
10
-1
-2
0
0
-2
28
16
-3
3
-1
0
7
9
-2
0
5
-1
3
1
-11
-21
-30
-63
-10
0
0
-2
-13
-7
40
29
-9
-6
-4
-4
-5
-14
-41
50
28
5
-2
-1
18
23
6
10
-2
-8
0
1
-17
-20
-17
-2
1
3
0
-2
-2
2
33
-39
-11
-3
-2
-2
-3
0
-17
-33
-11
-6
-4
-1
-8
-6
3
-3
-2
3
0
0
6
9
-3
35
6
1
-2
3
7
-4
0
-9
-2
-1
-2
-2
-20
-30
-7
-8
-4
7
0
-1
2
2
-3
-31
-4
-2
-3
-2
4
0
13
35
5
-1
1
-1
-7
-9
-7
-25
-6
2
0
-3
20
18
-3
9
-6
-11
-3
-1
-15
-18
13
-15
7
8
4
-1
-8
-9
-12
19
2
-1
-2
1
7
7
15
-14
-1
1
-2
-2
4
5
-4
-12
-6
-2
1
-3
-4
4
3
-20
-13
-5
-5
-2
3
4
-1
29
4
1
-2
0
3
4
-6
-17
1
1
1
2
-4
1
19
-6
-9
-4
-2
0
-6
-9
-15
19
3
1
-3
-1
3
3
-17
-2
-2
-1
1
-1
-1
3
-3
-1
-3
0
-1
0
-4
0
10
-8
-3
-2
-1
0
2
7
-14
16
3
1
0
0
-5
-8
11
-6
-3
-2
-2
-1
9
17
-12
8
2
-3
0
1
-3
-9
-22
-20
-2
0
-1
-1
-24
-24
17
30
2
0
-3
-8
4
4
-5
-16
-6
0
1
-1
6
15
4
18
2
-7
-5
-1
-5
-1
24
-1
3
4
0
0
5
15
-1
3
-5
-3
1
1
1
-1
15
-22
2
0
0
1
-3
-8
-16
9
-1
-1
0
-2
4
8
-3
-10
-4
-5
-4
-2
5
0
5
2
1
2
3
0
-3
0
-15
26
2
-3
-3
0
-10
-16
-8
-15
-5
1
1
-1
-3
2
-2
22
3
-1
-4
-2
2
0
13
-27
-7
-4
-2
-1
-5
-7
20
2
2
0
-1
-4
-1
-6
33
-8
-2
0
-1
-4
-6
-6
-99
6
-5
-1
-2
-1
4
5
-3
11
12
2
0
0
8
12
23
24
1
-2
-1
3
-7
-13
-36
-12
-4
0
1
-1
-6
-7
-13
-8
-1
-2
-3
-1
9
12
12
-3
-3
-2
-1
-1
-3
1
-5
-15
-6
-4
-7
-2
-1
-7
13
-1
2
0
0
-2
-2
1
30
-2
-2
1
2
1
-1
-3
-19
-10
-7
-1
0
-2
2
1
-4
34
17
4
2
0
-1
6
6
4
-4
0
-2
-2
5
7
10
-1
-3
-3
-2
-1
-2
-4
-17
-1
0
1
-2
2
-1
-4
-18
-10
-8
-5
-1
-3
-4
-3
13
-29
5
4
1
1
-6
-10
-48
26
4
-1
-3
-3
10
7
11
-10
-6
-5
-3
0
2
15
4
4
-6
-2
0
-1
-14
-14
12
-2
2
1
0
-2
1
4
-20
-22
-3
0
2
-3
-5
-6
14
0
-1
0
-2
-1
7
-7
-42
-23
-3
1
1
1
0
15
34
16
-3
-2
-4
2
-4
-13
31
-13
-3
-4
-3
-3
-2
-2
-17
11
4
0
0
-3
1
3
12
-13
-5
-2
0
-1
5
5
-48
3
-3
-3
-1
2
3
-3
20
6
-3
-2
-1
-2
-4
-7
-22
12
13
5
1
0
-1
0
38
6
0
2
-1
-1
3
-7
-35
-12
-6
-4
-2
0
-2
9
31
-8
3
-1
0
1
6
-6
-17
3
7
2
1
2
-10
1
9
33
2
1
-1
2
1
2
-3
11
7
3
-1
0
-1
1
12
-14
-4
-4
-4
0
-5
3
9
-9
-6
-5
-2
-4
-4
-9
-12
-10
2
6
3
-1
2
-2
-9
-1
-3
-3
-3
-2
4
9
36
37
8
2
2
-1
-4
-6
-33
-6
-4
-4
-2
0
2
2
16
-7
0
-2
0
0
-2
-13
-10
-22
-4
2
4
-2
4
8
3
14
-1
-2
-1
1
-13
-19
9
2
-2
0
0
-1
1
0
6
-11
-3
-1
-2
0
4
9
11
-5
-2
-5
-2
-2
-8
-9
3
-11
-3
4
3
0
-2
-8
-4
22
0
1
-2
1
-1
-3
-4
-16
-3
-3
-3
-2
0
2
17
13
5
2
0
1
3
7
2
-16
-9
-5
-3
0
2
11
39
15
0
-4
-1
-3
-7
-20
-61
-28
-3
0
-2
-2
2
0
7
24
-1
-1
-2
-1
4
0
-2
-15
-1
-1
-2
-1
-2
3
38
1
3
3
2
-1
3
6
-8
1
-1
-3
-2
-2
-2
-5
-24
-5
-3
1
3
-1
1
4
27
1
0
0
-1
1
5
3
-9
1
0
-1
-2
-2
-1
0
-9
-13
-6
-6
-3
-3
-5
-5
-1
7
3
4
1
1
-10
-3
3
5
0
1
-1
-3
2
4
-15
-13
-2
-1
-1
0
0
-5
-10
-4
-2
-2
0
0
4
3
7
-10
-3
-1
1
0
2
-1
-5
-26
-9
-3
-3
-3
-1
5
33
31
11
3
-1
2
1
0
-56
13
4
0
-1
-2
-3
-2
-16
-8
-8
-2
-2
1
-1
-4
-14
19
10
3
1
0
4
1
23
-50
-9
-3
0
-1
-8
-9
-5
24
2
-1
-3
-1
1
-1
-27
9
0
0
-2
-2
-2
6
33
17
0
-2
-1
0
3
3
-13
-11
-5
-3
-3
-4
-8
-16
10
-14
-4
-1
-1
-3
0
8
13
0
0
-3
-1
-1
-2
-14
-56
-11
2
5
2
0
5
3
1
4
-4
1
1
1
2
7
27
-8
-3
0
-1
0
-2
-3
-4
2
1
2
-1
1
-2
3
6
-4
-4
-4
-3
-1
-2
1
4
-11
-3
-3
-2
-1
4
1
5
15
4
4
4
1
-6
2
3
-5
1
-2
-2
1
-1
-1
17
3
0
-1
0
-2
-2
-3
-50
0
-9
-4
-2
0
4
10
26
-11
-2
0
1
1
-6
-12
3
9
1
-3
-4
-2
0
-6
-10
-7
0
-1
1
2
-2
-4
-12
2
-4
1
0
0
2
11
16
5
3
-2
0
0
3
-3
2
0
-2
-2
0
-2
-3
-1
-17
-9
-1
-1
-3
-2
0
-4
8
-3
-3
0
-1
-1