-3
-4
6
-8
-3
-3
-1
-1
0
-1
1
6
1
1
-1
-2
-2
1
-14
-4
-1
-4
-1
0
2
1
21
-1
-3
-7
-4
-3
0
-4
6
5
1
1
-3
-2
-4
-4
12
-1
-2
-14
-6
-1
-3
-7
-27
-10
-3
1
-1
-3
2
1
-13
-3
0
15
8
1
-7
-1
31
4
0
-3
-2
-1
3
11
45
8
2
-3
2
-3
-8
-17
-72
-7
-3
-4
-7
1
0
0
1
0
-2
-5
-3
-2
5
4
9
0
-1
1
3
0
0
10
-9
4
3
3
-1
-1
-2
-6
28
-1
-3
1
2
-1
-4
0
-59
-2
-3
-1
-2
0
2
0
-23
-6
-2
0
-1
2
6
7
24
7
1
0
1
0
0
6
32
9
1
2
1
-1
-8
-17
-55
-18
-3
-7
-8
-3
3
3
25
4
0
1
0
-2
-2
-4
-44
-13
-5
-1
-2
-1
-2
-6
0
6
2
4
2
0
3
6
78
9
2
-5
-1
-1
0
0
-27
3
0
6
3
1
-1
-1
9
-2
-2
-4
-3
-2
1
2
-3
3
0
9
4
1
1
0
11
4
0
-3
-2
0
1
0
8
-10
-3
-1
-1
-3
-4
-9
-7
-6
-1
-2
-1
1
0
2
-16
-5
-1
-6
-5
-3
-2
3
37
8
-1
1
0
0
1
1
19
3
-1
-2
1
0
-3
-3
25
5
-1
1
1
0
1
1
4
-7
2
-2
-1
0
-2
-5
-50
-10
-3
-1
-2
-2
-4
-10
30
-2
-2
-4
-3
-2
-5
-1
17
-3
-3
1
0
0
-7
-12
1
-4
-3
-8
7
-3
1
9
4
2
0
-3
-16
-2
3
3
1
1
3
7
3
-1
-1
3
-31
0
-1
-3
-3
0
1
-10
-6
-4
-4
5
4
0
-2
-1
33
7
2
-2
2
1
-3
-6
-30
-6
-2
-5
-4
-3
2
4
3
-4
-2
-1
-1
0
3
2
-34
3
0
-3
-4
1
-5
3
46
3
0
-5
0
-5
-3
-9
-34
-9
-1
-8
-4
-1
-3
-12
-52
-6
-1
11
4
-2
-2
0
17
1
-1
-4
-4
1
2
-2
-31
0
-1
6
7
-1
-1
4
35
3
-1
-6
0
-1
0
2
17
2
-1
-4
-2
-2
-4
-1
-5
-8
-2
-1
-3
-1
3
5
-1
2
-1
-2
-1
0
-5
-4
-4
0
-1
-9
-4
-2
2
1
1
0
2
13
6
0
1
-2
-8
-3
-1
-3
-3
-3
-5
-13
-11
-10
-5
-2
4
-3
2
8
13
5
1
3
-7
0
-3
-10
15
2
0
-5
-3
-1
-1
-1
-72
-11
-1
-7
-3
1
2
7
21
1
-1
5
0
2
1
7
10
0
-1
-5
1
-1
-3
-13
-22
-7
-1
-1
1
0
-1
7
41
7
1
2
-2
-1
1
-5
-10
-3
0
-5
-1
-2
1
5
10
9
3
5
3
2
1
2
1
-4
-3
-3
-1
-2
1
1
16
-2
0
-1
1
1
2
6
13
2
0
1
1
1
-1
-5
4
-2
-3
3
1
-3
-3
-1
28
-8
-2
-6
-4
-3
0
-5
-73
-6
0
4
3
0
-4
10
64
10
-2
-3
-4
-1
-5
-20
-43
-13
-1
1
-2
0
3
1
-18
2
2
0
1
0
-2
-7
5
-5
-3
-1
0
-3
1
5
26
3
1
1
2
2
2
3
-25
1
0
-1
1
1
-2
-5
-25
-2
-3
-8
-5
-1
5
8
30
10
3
4
7
1
-7
-7
-16
0
-1
-1
-8
-2
-3
-2
17
0
-1
-2
-1
-1
0
3
7
-2
-1
3
1
-1
2
8
54
6
-1
-13
-3
0
-3
-17
-97
-17
-4
12
3
0
0
10
40
1
-1
-1
-3
0
-1
1
-8
-1
2
4
2
-3
1
5
5
4
0
0
1
2
0
-9
-24
-5
-2
-9
-1
-2
-3
1
52
1
-1
-2
-2
-1
4
15
1
22
2
1
0
3
-8
-16
4
-19
-7
-4
-7
-6
6
11
-3
6
5
0
3
4
-1
-9
-22
-8
-4
-1
4
-3
3
5
13
8
0
-7
-7
0
-3
-2
40
0
1
6
-4
-2
2
3
-70
4
1
-1
0
2
-4
-8
-39
-15
-6
-9
-6
-4
-1
1
17
1
3
1
5
1
3
11
3
12
3
9
5
0
-6
-17
32
-13
-5
5
4
-5
1
9
-11
3
-2
0
-11
-4
-1
-5
30
-5
-7
-17
0
3
-1
-2
-26
-3
4
8
4
1
9
22
39
32
10
1
-1
1
-4
-8
-17
-9
-2
3
11
0
-1
-5
7
1
0
-1
5
-3
-8
-6
-63
-22
-14
-9
-20
-3
-8
-14
19
16
-11
-5
0
-4
5
5
5
-9
2
5
1
-4
-2
-7
14
-40
-7
-5
-8
-6
0
6
7
-5
12
4
-2
7
-14
-26
-29
-17
-11
-7
0
-5
0
-1
28
50
10
-2
0
-2
13
36
-6
81
7
-1
9
2
-12
-34
-1
-29
-14
-13
-15
-4
-9
-8
-50
-60
-19
0
-11
0
-4
-7
23
-7
-10
-3
2
-2
5
5
-13
-34
25
0
-3
1
11
17
23
65
10
-20
-8
0
-6
-20
-5
-25
7
14
15
-5
7
22
7
20
-1
9
-22
0
-18
-29
-71
-38
-26
-9
15
-6
-7
-19
-23
-15
-18
-16
8
0
26
55
67
18
3
-34
-22
-2
-22
-47
-29
-38
8
-3
9
-16
-7
-9
-10
15
21
38
-82
-5
6
9
11
5
4
50
63
23
5
11
-20
26
-3
-1
75
9
1
17
70
-3
-10
-51
-14
1
-12
-22
-41
-15
-14
5
-7
-8
-4
-1
49
6
-4
5
-27
-10
-3
-5
-63
2
-9
1
-47
-2
5
6
11
-23
3
-2
3
4
1
-3
20
-57
-21
-20
2
-3
2
3
-15
-7
4
-2
-12
-4
1
15
34
35
28
12
2
3
-2
-4
-23
-5
5
0
3
0
4
12
43
66
8
-2
-12
2
-7
-17
-37
-4
8
3
-3
0
-11
-33
-1
-7
-9
-38
-22
-8
2
8
-58
-16
-8
34
26
0
12
31
71
45
10
-10
7
3
-3
11
7
-12
-27
-64
-53
-19
-2
-19
14
-26
9
100
5
20
-2
0
-37
5
5
57
77
12
0
-7
-16
13
2
23
47
2
-8
-14
-4
-15
4
-20
8
-5
0
9
20
-3
-15
-67
-77
-8
2
-8
-8
-1
-16
19
41
0
1
-2
-57
-33
-10
-9
11
-4
7
24
71
99
34
7
0
1
-3
-6
-18
-57
3
-3
-18
-3
7
14
26
13
8
-20
-45
2
-17
-32
-34
-31
-7
-17
-3
-5
-2
-17
-39
-31
-14
19
1
-3
16
39
123
39
7
8
24
-5
-7
-9
-35
9
-7
-82
-44
-6
-4
-9
2
-12
-6
33
-41
-12
-4
-9
-74
-31
-1
-21
33
4
-15
-28
-21
1
-13
87
31
9
32
42
61
18
-2
11
74
13
-29
-44
-68
-22
18
1
-1
-6
9
27
73
23
2
8
-18
4
8
25
16
16
-5
-37
-35
-15
-21
-30
-45
-21
-27
-24
-51
1
12
14
5
-38
-5
-4
43
12
-4
-7
7
-2
19
7
-4
-7
-5
-20
-62
-17
-1
-46
-1
4
7
10
99
70
-10
30
-26
-8
-9
-15
-83
-17
-11
-31
12
6
5
10
48
-73
-19
19
-15
1
-1
-6
-17
21
21
-4
-21
-5
-11
-8
-23
-9
5
-11
-49
-11
18
27
50
37
0
-7
34
2
-4
-9
-32
10
-9
29
-13
-4
7
16
48
1
-12
-53
10
9
-7
-12
-4
-14
18
9
7
3
1
-1
-13
15
9
28
12
9
6
21
-22
24
7
49
94
3
2
0
8
6
-3
12
5
3
5
0
-28
-24
2
-16
-1
1
-17
-17
9
-39
-9
-41
-55
-13
5
19
28
27
-28
-18
-20
2
-13
-20
-15
61
51
16
46
-5
17
27
-49
-2
4
-12
-20
7
0
1
79
-41
0
22
-2
1
-7
-21
-48
-21
-8
-12
-40
-3
0
6
24
-11
-11
-16
1
-3
-3
0
-3
6
12
18
-1
1
2
-5
-8
11
2
5
-10
-12
-3
4
27
21
-2
-55
-38
9
5
10
-60
-20
-5
44
61
0
-14
-14
41
-1
-6
-19
-56
-16
-3
-3
-32
-34
-14
-18
-34
17
0
-10
15
-19
6
82
106
4
4
8
15
17
0
13
-26
5
6
2
-18
41
12
-11
78
1
2
6
13
6
-8
-9
-58
-5
9
24
69
-22
-3
-39
4
-2
-12
-30
-93
-12
-1
-16
-44
1
-5
-3
20
-37
-12
3
-1
-9
4
9
20
48
10
-10
-39
-4
-6
-13
-33
-7
3
-4
12
0
-1
7
37
38
-9
17
21
-10
-14
-27
4
-38
-7
-11
-39
7
16
35
1
10
-11
-78
10
-5
-3
-5
6
-6
23
96
1
-9
-13
-32
-68
-62
-22
-1
-35
14
3
0
-27
24
5
40
106
16
7
12
42
15
3
2
16
1
-5
-6
-23
10
-15
-92
-74
-14
-6
4
35
-5
3
-3
35
-16
7
10
19
16
8
24
-35
5
-15
-26
-38
-20
-5
69
123
13
4
4
13
28
2
-28
-58
-6
0
-5
6
14
3
2
14
-9
-13
-19
-22
-104
-23
-17
-39
-2
10
22
-24
114
33
-6
5
-10
-16
-30
-18
-42
-19
-17
-11
6
4
8
17
-28
-12
-36
-5
-9
-3
2
-16
0
6
9
-36
-18
-8
-25
-24
-24
-11
32
-17
12
17
29
57
29
8
19
71
8
-11
-14
-59
-25
2
-1
15
-3
-5
-8
20
5
-17
-13
-4
-3
4
4
8
-22
-1
-44
-49
-8
4
12
2
26
14
-27
-83
-10
3
-4
6
-11
4
81
93
25
5
-11
-35
25
7
8
39
2
2
22
46
-20
-20
14
30
5
-16
-24
-55
-8
23
32
30
3
1
-7
12
0
-5
-48
-56
-13
-3
8
8
-6
0
-7
-42
-7
9
7
69
5
-7
-28
0
-2
-1
-7
-70
43
-5
16
-28
-6
-4
12
64
-29
-9
10
-21
3
-7
-9
-69
-17
5
-3
16
8
-6
-12
19
-22
-8
-32
-7
-11
-11
-12
-5
-43
-14
6
6
-7
4
-2
-1
17
0
-4
-31
6
12
35
80
71
16
-42
22
-3
-16
-22
-65
-29
-5
39
-18
-5
1
-1
5
-41
-5
19
30
10
8
21
0
50
8
23
-18
-9
-2
-4
13
-35
-24
-30
3
-3
-1
-10
-32
14
11
6
13
17
9
7
4
-5
0
-9
18
8
4
8
16
-52
-21
6
22
-5
-2
-12
-16
60
25
28
-24
-8
-9
-10
-32
-10
-10
-9
-57
-6
3
7
32
2
9
-17
37
-2
-5
3
9
25
-7
-42
-16
-1
-19
-42
-47
-79
-18
3
-6
0
9
7
19
20
-13
10
21
5
-6
-7
-46
-34
20
10
1
-1
8
14
38
41
7
-40
0
-7
-3
-6
-10
18
-1
-3
-33
-6
-12
-15
-10
-13
0
36
6
-4
20
34
54
2
-11
-15
-22
-2
-4
-9
-28
7
5
-27
20
1
-4
3
8
-17
6
65
4
6
8
4
-8
-5
0
4
53
5
-5
-4
-11
22
-5
12
-5
4
26
43
83
59
12
-15
14
2
-27
-52
-64
-49
-17
-22
-38
-11
-7
0
-18
-32
-6
9
40
4
3
6
43
-8
-19
-32
-36
-10
1
-17
-116
1
28
18
-3
-2
-2
15
70
10
-7
-2
9
3
2
2
14
23
9
-1
-37
-6
0
2
19
15
-5
-40
-10
-2
-11
-10
13
-60
-54
-10
-16
-11
14
16
-54
26
37
7
-6
11
4
13
47
16
11
-6
-13
0
0
2
-28
5
5
-64
14
-3
-13
-19
-15
-7
7
76
-24
-17
8
12
13
-17
-15
38
28
20
-2
0
36
17
-4
-22
35
-5
3
6
-16
-11
-5
3
-24
6
-10
-16
-22
-23
-5
-52
19
-13
-7
-13
-15
-16
-8
9
-52
-10
6
14
11
9
3
14
25
11
4
3
2
22
-8
14
24
-2
-9
-12
-5
-17
20
-1
-22
7
-1
14
6
12
-8
-26
9
-4
2
-15
-70
-56
-13
-11
-45
-15
1
6
5
70
39
31
18
6
9
0
23
14
-11
4
6
9
5
20
31
-16
-3
-12
27
-4
-5
-2
-70
1
-2
-49
-39
-1
-19
-32
-7
-59
-15
25
14
-5
15
26
54
27
11
30
-8
6
-1
-16
-27
-1
-6
42
63
7
-4
2
17
10
6
11
-36
-2
4
4
4
-12
-6
8
28
2
1
10
3
11
-4
-10
29
-1
12
23
33
22
-1
-39
-47
-7
2
10
43
25
7
38
15
5
-10
-33
-101
-21
-7
-10
0
11
1
8
23
-2
-6
1
46
6
3
3
-7
49
22
-11
25
-10
-14
-14
-7
-52
-17
-19
-68
-4
5
11
36
-4
9
12
12
-4
-1
-11
-20
-11
1
-53
-30
-3
-3
-2
-32
-43
-12
25
-40
-4
1
-15
-11
1
-7
26
47
-3
-9
-5
31
46
9
21
15
1
-13
-23
-65
-62
-12
-29
-48
2
2
9
38
33
3
-41
-37
-13
3
18
44
12
3
2
-38
-13
3
7
-16
3
-11
26
14
-3
5
1
-10
22
-1
-3
-25
5
-4
-7
28
-28
-7
6
110
10
-8
-16
-56
18
3
-19
-36
7
3
0
-13
-27
-6
-5
36
-2
2
6
-2
2
3
7
-18
-6
3
8
10
33
16
-38
-26
-6
5
4
44
-2
3
-14
14
-1
-6
-10
-12
-8
5
42
-39
-11
-7
-19
-19
-25
-14
-4
-8
2
16
30
41
-19
-11
29
5
-1
0
-2
2
70
33
-5
45
7
-5
-15
-46
-44
-14
-33
-42
6
4
7
6
14
7
15
15
-1
2
10
65
-25
-26
-4
39
7
-3
-11
-70
30
14
-26
-17
-3
1
9
39
-8
-10
-21
-27
-5
-5
-7
7
9
14
35
14
0
-8
-8
-8
-7
-6
3
-4
-4
0
5
24
-12
-15
-2
-3
-8
2
0
9
29
-1
-17
19
7
-4
-5
-28
-59
-5
-5
-15
-6
0
-4
-13
10
21
46
-11
0
-4
1
23
10
-12
-6
-15
-3
-3
-9
-10
-2
3
-20
37
0
-1
5
28
-2
-1
17
23
2
4
2
-5
17
7
-12
-12
1
9
16
39
9
11
22
16
1
-12
-26
-97
-42
-23
-19
-55
-8
2
10
87
6
0
-11
-2
6
0
-18
-112
-17
-1
6
22
1
-4
1
55
-59
-17
0
3
1
-2
2
25
32
4
4
3
-4
-4
-4
-1
-11
1
-13
-28
-4
4
5
24
50
7
-6
-10
-1
-3
-12
-58
-62
-21
7
28
5
-2
-1
17
-6
9
-4
7
-3
-2
-6
-31
23
7
31
9
1
-12
-8
25
1
-2
-41
-56
-3
8
20
19
13
4
33
38
2
-2
-3
6
24
3
-20
-11
-5
-11
-22
-100
-45
-10
20
7
-1
0
-8
-20
-12
-5
-14
-11
-2
4
3
5
18
3
-6
-4
-7
1
6
-24
0
-1
6
-13
2
1
11
40
18
-3
-13
1
-4
3
6
14
5
2
-1
-3
2
-6
-11
-25
-11
1
-2
11
1
1
2
60
5
0
-8
0
-3
-3
-14
-52
-10
-4
10
-2
2
-1
3
16
-3
-2
4
19
3
4
-4
-6
1
4
0
-4
-5
-4
3
8
-5
3
9
-1
2
-2
5
27
10
-1
-17
2
-22
-2
1
40
7
-4
-17
-9
26
-1
-6
-56
-3
3
30
14
-4
1
-2
-13
-13
-3
-3
-8
-3
-1
-1
23
12
3
-3
0
-9
-1
-1
-17
-3
2
2
8
18
-1
-1
12
4
-1
-17
-13
-17
2
11
17
2
1
9
3
-18
7
-2
-24
4
-1
0
0
25
-4
3
-9
-1
0
4
7
8
-3
0
14
-1
-1
-8
-25
-9
2
-11
-38
-2
2
11
35
1
-2
5
25
2
-2
-7
1
15
5
-3
-25
4
1
2
0
-19
-4
1
30
-4
0
-1
-2
10
5
5
-14
-2
-2
-1
-10
16
-7
-1
25
-1
-4
-4
-8
-30
-8
-9
-14
-3
-1
5
5
-13
7
-9
16
9
0
-5
-3
5
1
12
2
-6
-3
-2
-5
-2
-2
-5
-21
-17
-3
-4
7
29
-6
-2
3
7
4
7
-2
-30
3
21
17
-9
-4
-7
4
48
4
17
36
-1
2
0
-10
10
1
-3
-18
12
2
-1
2
1
2
8
-26
-3
0
0
2
-6
-7
-13
-11
3
0
-2
3
-6
0
-3
11
1
-3
-1
-5
-24
4
6
-6
5
0
3
2
-11
-2
-8
41
-4
-3
-2
-7
-15
0
-1
-6
2
-1
-3
3
0
-2
-1
3
-2
-1
0
-6
9
-1
2
21
7
2
1
3
-20
6
5
45
6
0
0
-4
18
-9
-2
-66
-8
-2
-1
-4
-20
-8
-20
-13
-10
-1
1
8
9
-17
-19
-22
-6
-5
-3
-3
14
1
-3
-11
-9
0
0
-1
-15
12
35
27
11
2
0
3
8
0
-44
-9
0
-3
-4
-13
-11
-4
5
12
-5
4
-2
-3
-1
2
6
35
10
0
3
7
16
4
-37
-18
0
-1
-1
4
-6
-25
47
-92
-20
-3
-5
-9
-11
-1
-20
-8
13
2
-2
3
23
-4
-9
0
-14
-7
-6
-3
7
0
6
11
-8
-2
-2
0
-39
14
-3
41
12
1
4
9
18
-6
-12
-36
-1
-4
-3
-5
-8
7
48
11
-2
-1
3
1
3
-12
-49
10
2
0
-3
1
-8
5
35
-6
-5
1
1
-4
-6
4
36
-33
-10
1
-1
0
-5
-11
-86
-18
-2
-7
-1
6
-21
-8
-41
-46
-14
-8
-4
-5
44
-19
0
11
-9
-1
-6
-9
-7
11
-1
8
-2
5
1
1
7
5
39
-10
8
3
2
5
5
-10
-3
16
-5
-1
-4
-10
-17
2
-37
-10
16
-1
0
3
1
4
8
44
3
-1
1
1
-6
-2
-10
-39
-13
-4
-11
-5
-10
5
12
1
-3
-1
8
7
0
6
6
81
7
0
1
1
7
-2
0
-96
-14
-2
-10
-1
-7
-7
-10
-3
5
2
8
-2
21
3
12
27
-1
0
-1
-2
-34
-2
-6
3
1
-3
1
0
-3
5
18
80
12
-1
5
2
-7
-6
-19
-58
-6
-1
-4
-6
-1
8
26
-19
9
2
-5
1
11
-7
0
40
-11
-5
-1
-2
-5
-11
-18
-20
-6
-3
-5
-9
-5
-1
25
42
-1
-1
-1
-2
4
2
18
-4
0
2
1
3
3
10
2
-31
-4
-1
-1
1
-2
3
-4
14
2
-4
-1
-6
7
-10
5
13
3
3
3
7
-3
-1
-7
-20
-1
-2
-2
0
-2
2
-5
23
4
-1
-3
-1
4
0
-6
18
1
-2
1
-1
-2
3
0
-28
-18
0
-6
2
-1
-3
-5
5
4
0
0
-12
0
-3
-7
4
8
-1
6
3
4
13
26
30
5
0
0
0
0
-10
-16
-24
-5
-1
-6
-6
-5
0
-1
-21
1
-3
-10
-1
8
-1
-3
-17
-11
0
17
7
-3
-1
-9
-5
0
0
-1
-5
-3
11
17
17
6
1
1
0
-1
0
7
53
17
2
0
4
7
-2
-16
-63
-10
-2
-9
-8
-5
-5
-1
5
-15
-3
-3
0
-4
1
-11
1
1
-3
-2
-1
-2
-4
9
29
0
-1
0
1
-2
8
18
0
8
2
-3
-1
-1
-5
-13
13
-2
-2
1
1
-2
-4
-20
-47
-4
-1
-5
-6
-1
-2
-4
42
-7
-1
-3
0
-1
2
-1
-17
5
3
5
5
-1
-4
7
30
8
-3
-7
-5
1
-2
-10
-2
-5
-2
6
6
-5
1
-4
-13
-5
-2
-1
-7
-2
3
-4
7
-4
-2
-8
-6
1
-1
-3
-1
-6
-2
-3
-1
0
2
17
38
18
2
2
1
0
-5
-2
-72
-9
-2
-5
3
0
-2
0
11
-2
-3
-7
-6
-3
-3
-24
-22
-1
-2
9
-1
-2
0
7
5
-2
-1
-1
-1
1
0
7
-5
-2
0
4
2
0
-2
-6
-1
-2
1
-11
-2
-1
-2
9
6
8
1
7
5
-3
-1
0
41
1
-1
1
-1
0
1
-7
-68
-8
-2
-2
-3
-2
2
8
70
2
1
3
2
1
-3
-17
-20
-6
-2
-2
-2
2
-4
11
13
12
-1
0
1
-1
-4
0
3
-12
-2
-2
-2
3
-5
-9
19
3
0
0
-1
-1
9
8
14
-3
2
2
3
-3
-2
-8
-68
-7
-2
-3
-8
-2
4
5
37
17
1
5
7
-1
-2
-4
-56
-18
-7
-7
-2
1
-3
0
17
-4
0
2
0
-1
0
2
24
5
-1
-20
-7
-3
1
2
-20
0
1
14
-2
0
-6
-9
-11
4
0
7
3
0
7
1
-45
0
1
-1
3
-2
0
-10
-6
-14
-2
-2
-6
-3
-6
-3
36
5
-3
-12
-4
-1
3
6
-10
8
0
-2
0
-1
-3
4
28
2
-2
-1
-3
2
1
2
-29
-4
-1
-1
2
-1
0
1
1
-7
1
1
1
-1
-2
-7
-12
4
0
2
-1
-1
-1
2
5
1
-1
-6
1
-1
4
6
30
-3
0
0
-1
2
-2
-5
-24
-6
-2
1
4
1
-1
1
20
-3
-1
2
-3
-1
-3
5
14
8
3
1
0
1
-2
-13
-30
-8
-2
6
2
-2
2
-3
10
4
2
-2
-2
-2
0
-2
-5
6
-3
-11
-5
1
-6
2
19
1
-1
-7
-7
-2
-2
4
-11
3
0
6
12
1
2
6
30
-6
-1
0
2
2
0
-7
-31
-1
2
-2
0
2
-5
-14
-21
-5
-3
3
-3
-4
0
0
-1
3
0
-8
-6
1
-2
-3
17
3
0
-5
2
-2
0
9
-26
-11
-2
9
-4
0
2
1
-36
1
0
-1
4
1
-5
-12
8
-1
-5
-1
-5
-1
-1
-1
-14
-11
-4
0
4
0
-4
-8
12
-5
-3
-11
-14
-5
2
0
-1
4
-1
-5
-4
0
-1
0
-6
-1
-1
-6
5
-4
1
6
56
10
-1
2
1
-1
8
21
-34
14
12
37
18
8
-13
-22
-78
-25
-12
-9
-5
-7
-3
-1
26
-3
-6
-7
-28
-3
1
8
-19
5
-1
0
0
4
-1
-5
29
-3
-6
-10
19
0
17
36
127
38
13
8
8
4
-4
-14
-84
7
-1
5
16
-4
-18
-33
-13
-69
-12
-27
-29
-5
3
7
28
-1
5
15
-7
-2
-19
-34
-18
-29
-21
-19
0
-8
17
24
47
14
15
18
6
5
10
4
-8
56
21
18
17
-5
-7
17
9
-5
-6
-10
-9
6
-4
-5
-1
-1
3
-4
-8
-5
-15
-36
-56
-49
-35
-10
-20
-1
5
12
5
-7
7
3
18
4
2
-12
4
-25
10
2
13
-8
13
20
-39
42
25
5
1
5
4
27
62
21
7
-7
-13
1
-29
-43
17
26
-15
-14
-2
-13
5
10
14
-9
-17
-12
-26
-1
0
0
-25
6
4
25
0
2
2
-15
-36
-6
11
-28
8
6
-5
-9
-51
-18
-15
-10
-14
-11
0
4
-1
8
5
-15
-50
2
10
23
43
22
-8
34
43
8
-13
-30
-43
-22
-2
6
30
8
25
40
43
4
-5
19
67
13
-5
-5
14
27
31
-1
13
-5
-15
-17
-15
-59
-9
-11
-39
0
-2
6
39
17
0
-24
-31
-14
-2
-4
-17
-35
-13
20
-8
1
4
7
38
-25
-12
0
-4
-6
-9
-22
-22
31
-6
-7
-1
-7
3
22
39
67
10
-7
1
4
0
-10
-76
-23
6
4
-3
-5
0
-4
-8
9
8
-1
10
7
9
29
43
7
-4
-6
-1
-1
-5
-14
-6
-75
-25
-21
-20
-10
13
36
45
20
8
17
-16
5
-1
-1
7
-10
-4
-34
-13
-14
4
-3
18
3
9
58
11
19
13
22
18
40
7
40
116
19
-1
7
24
13
8
-8
3
5
-16
-46
-79
-27
-24
-21
40
2
6
16
25
3
-4
-35
-57
-18
-9
-16
-29
16
4
21
-60
-14
0
3
13
-31
2
-4
-5
0
-5
-7
21
2
-14
3
-9
-9
10
9
-21
44
22
-21
-6
1
-1
3
-8
-50
-8
-17
-48
-11
-9
-23
-32
46
13
3
28
-4
5
10
17
8
-31
17
-8
1
-4
-3
28
-52
8
-11
2
-5
-2
-11
-4
7
12
-10
19
9
-21
-34
-70
-46
-20
-29
-67
-15
-3
-2
42
23
12
28
-68
2
8
7
-66
5
-10
20
100
18
-8
-21
-16
17
5
-9
8
5
-9
-25
-41
-56
-8
35
59
-5
0
3
13
2
8
31
7
8
-5
-13
-9
-7
-10
-18
11
3
4
16
48
14
-13
-10
-19
-11
28
56
58
44
7
-30
-33
4
-19
-32
-68
-52
-13
-46
-48
-35
3
2
14
-96
-33
14
-58
7
1
9
16
93
52
26
92
12
-3
4
43
-2
0
-2
-14
10
24
50
40
53
19
-7
28
-1
-28
-52
-78
-67
-13
-24
-34
-21
3
0
6
-17
-19
28
-78
-4
7
9
7
11
2
-35
60
16
8
23
41
24
17
22
24
-4
-13
-32
-31
-3
-16
-17
-9
-6
-1
2
-20
-33
-13
10
-11
0
9
14
28
40
6
57
3
-4
-7
-21
-3
47
-7
-32
4
15
2
7
-33
-40
0
20
58
5
-2
-6
-25
-72
-18
-20
-50
-16
4
6
4
42
21
-35
-67
-2
-2
-9
-47
-19
-9
5
85
11
3
18
70
42
16
3
-13
-2
3
16
32
2
2
-18
-2
0
-5
-11
-5
-52
-39
-33
-58
-23
-24
-36
-103
-43
8
31
6
4
0
-12
8
64
25
-13
-18
3
17
24
32
15
5
-29
6
-2
-12
-18
23
26
14
7
-37
-4
-9
-2
6
-19
-11
81
53
12
2
2
-8
2
-12
-7
-3
-7
18
35
89
73
12
-38
24
0
-22
-31
-60
-73
-24
18
-12
1
4
-5
23
-34
-3
-21
-4
-3
10
26
-5
58
6
4
-5
-2
-14
-33
-24
-23
10
16
7
-3
3
1
5
-6
-2
-21
-64
-2
6
-2
-14
7
-6
-21
33
8
-3
15
12
-22
4
19
12
-9
-10
-16
-9
24
-17
-15
3
-1
6
12
-51
-35
-12
-4
11
0
3
11
22
16
27
30
-11
4
-2
-10
6
-13
-21
-22
-7
-6
0
-8
-10
-19
-12
-8
18
8
12
23
27
25
21
50
27
6
-7
-1
-25
26
5
-17
-57
-15
-9
-13
12
-50
-8
-15
2
2
-7
-9
-42
-34
-5
15
31
2
24
50
108
25
-11
4
7
3
-6
-17
-25
50
21
-42
25
-2
0
2
6
-4
1
18
-48
2
-13
-22
-72
-35
5
30
-4
-3
24
44
110
61
4
-42
27
4
-28
-38
-27
12
-8
37
7
-2
-2
-3
-15
-34
-16
-23
-15
-1
21
36
36
-11
2
7
17
5
-22
-59
-76
-51
1
-4
-16
-17
-6
-20
-43
27
6
1
-16
1
-2
-7
14
6
4
-22
-21
-2
10
28
47
47
-16
15
-19
-2
-9
-10
-11
14
26
-17
29
7
7
8
7
-50
-16
29
-6
3
10
18
15
42
21
-30
13
-5
-14
-27
-19
-18
-10
12
-3
-2
-15
-32
-38
-18
-12
32
28
5
16
33
54
4
-12
-47
-18
-6
12
19
26
31
23
44
38
4
-13
-20
-3
-1
3
-19
-35
-10
-6
-3
-21
-46
-21
-28
-31
1
4
6
18
-2
13
24
16
-1
-2
-3
-5
-3
-14
-15
21
-4
-13
-29
-48
-9
-4
-20
-80
-7
-4
-5
-13
1
-10
27
83
13
7
15
4
-22
-10
-32
5
-1
5
12
26
29
-1
-12
-70
-17
5
11
39
-57
2
54
68
22
-6
-20
-78
3
7
-7
3
-3
11
23
53
15
-1
7
-25
3
-12
-13
-17
-16
-17
-36
11
-6
-17
-28
-31
1
-4
1
-3
-4
2
3
32
39
6
5
-13
3
0
10
12
-34
-15
-83
-15
-5
-10
-24
-36
-13
7
70
-4
1
12
25
19
9
3
13
14
-2
-1
-3
12
5
1
2
11
2
-5
-3
-25
12
3
3
20
-3
13
15
41
15
-4
-21
-66
4
-2
-7
-33
-1
7
8
51
7
-16
-13
-11
-55
-18
-10
9
-14
-11
-18
-21
75
26
-5
-97
-8
1
2
1
-25
-3
21
76
14
8
14
23
-3
0
-8
-22
-4
-2
7
24
-1
1
-27
-24
-4
0
-8
-6
-28
-14
-23
-7
-4
4
10
-7
13
8
46
23
4
0
1
21
22
0
-5
49
4
-15
-12
-46
-22
-9
4
5
1
1
9
36
-35
-9
-10
-50
-8
-9
-24
-50
19
8
16
58
11
16
15
17
26
0
16
17
4
-7
6
3
-7
3
-15
-22
-2
1
1
7
-33
-10
10
33
-2
-1
2
3
-4
-12
-38
-40
-15
-14
-21
-23
7
-5
-8
-53
-7
8
1
-2
33
15
17
52
5
5
10
1
-20
-5
9
-7
-2
5
12
30
29
5
-26
-25
-3
-9
-19
-14
-38
-7
1
-31
-6
10
15
42
66
4
9
38
5
-6
-18
-68
-47
-9
0
-9
5
5
0
-9
-29
-13
5
62
20
6
15
7
11
14
43
-8
-9
2
4
5
-15
-9
21
-30
0
5
0
30
19
13
9
13
-4
-9
-7
-9
37
6
-8
-5
-1
-4
6
41
15
-3
-60
-33
-13
-4
-16
-36
-10
-3
22
-57
1
5
4
-19
-37
-8
10
70
15
-10
-15
2
-19
-1
-13
-51
-8
14
29
27
46
10
31
109
19
-4
3
42
-15
-17
-16
-32
-23
-5
-17
-63
13
7
3
-43
0
-1
-3
-44
-36
-4
-24
16
6
4
14
37
-29
-4
9
-23
-12
-4
-22
-54
40
0
-28
-50
2
7
-6
-15
-13
-6
6
73
9
0
31
71
60
20
-1
-15
-14
-12
-20
-7
-20
-19
-4
-33
-3
6
-6
-20
-41
-3
1
-10
3
0
15
50
-37
-10
4
47
14
3
0
16
49
18
-42
26
0
-2
5
-24
58
12
34
-42
-14
-2
-3
-13
-37
-6
11
15
-2
4
2
-22
-10
-13
-6
-15
2
1
-3
-2
-49
-11
31
17
2
7
26
36
-4
-26
-57
-33
-3
-5
-10
8
60
45
6
40
5
-3
3
-10
36
-14
14
-27
-8
2
2
0
-62
-8
7
15
1
3
-9
-6
-14
-3
-32
-16
7
20
48
34
48
-7
6
24
-17
-27
-36
-21
-22
10
-4
-109
-19
-4
-28
-7
-44
-13
29
95
26
1
10
23
38
15
-32
33
9
-9
-7
16
-55
-11
-4
-30
-14
10
20
25
1
-1
44
-35
-22
1
20
53
54
8
25
-36
13
-10
-40
-119
-72
1
10
27
17
7
13
39
42
8
-15
84
21
-5
-21
-21
-26
-9
-18
109
10
-7
-11
-5
46
15
12
-57
-14
11
22
35
19
-5
-15
-47
-12
-5
-13
-8
29
17
-14
-100
-15
8
14
-4
17
2
-2
2
5
-15
-18
3
-45
-35
-17
22
-7
-7
-8
-9
4
16
11
5
-3
10
27
20
22
8
4
-10
-3
-13
-32
11
0
4
-8
-41
-9
-8
-15
-30
16
-6
-52
-91
-2
7
12
-16
-39
-7
65
97
5
-2
-9
-29
-30
-19
-60
-12
-6
-8
-9
-6
0
17
86
29
19
5
19
29
17
4
1
10
-14
-15
-27
-25
-12
-9
-30
-96
-19
-7
-12
-3
-40
-14
2
56
17
17
36
60
33
-11
-8
22
3
-4
-23
-35
-44
13
12
28
-6
-1
-1
-19
-1
1
2
2
-2
-4
-4
-5
-6
-8
-35
-47
-6
1
-2
23
9
3
0
25
-3
-4
-3
-55
-40
-35
33
28
-1
9
24
39
98
33
-14
34
5
-2
-15
-5
-31
-4
5
-57
-1
4
5
-62
-45
-12
-33
-14
-2
5
13
32
62
15
-8
-11
-12
0
-17
-54
-17
-1
-16
-35
0
-1
-4
-23
-22
-6
51
74
14
-14
2
89
31
1
-22
-42
-11
13
15
-18
-7
13
2
7
13
-9
-9
25
-34
-26
4
11
-14
-8
-20
-28
55
30
-24
-28
-3
4
6
12
50
-1
15
8
7
6
13
-38
-34
-8
17
37
-12
4
23
57
-7
-12
-28
-115
0
4
-6
21
-52
-6
37
127
26
-8
-1
-29
25
7
-31
-9
-8
-6
-24
-22
30
-1
-16
-41
5
11
19
84
-40
2
6
60
7
-10
-7
-79
58
7
21
-30
-14
0
-5
-22
-16
0
-19
-27
0
0
6
42
-1
-5
4
-37
-6
-2
-14
-27
0
7
-4
5
-6
-7
5
23
-4
-9
-2
-43
-9
7
9
36
17
-9
-17
22
2
-8
-13
-40
-20
13
5
47
13
-12
-10
-11
8
3
39
14
-2
7
11
23
-22
-8
-25
-8
-4
5
-1
-44
26
11
35
8
1
-1
-3
11
-21
-9
-34
-50
-6
-2
-1
3
20
-1
-8
-16
-1
-2
-5
-37
-25
0
23
38
2
-2
4
36
-16
-10
-20
-53
-2
1
2
3
7
-1
-1
55
4
-1
-6
-31
-21
3
4
5
3
6
12
25
23
2
5
-8
-4
-6
-17
-5
-7
0
-13
-8
-3
-3
4
17
4
-1
3
-13
-7
-5
-19
-45
-25
-8
-2
7
-1
-1
6
44
16
-1
-10
-23
-1
2
8
12
0
3
2
30
3
2
-6
-20
-10
-5
4
-32
-3
-1
-2
-1
-3
-1
4
28
2
0
1
35
8
2
2
-6
-3
-2
-1
-12
-10
-2
-6
-3
1
-1
-3
33
19
3
2
-4
-4
-4
-1
-50
-30
-5
-4
1
-4
-3
2
-15
-1
-4
-1
-10
2
-1
-7
12
-3
-2
-5
-2
9
0
-4
-5
-10
-3
2
3
5
-4
0
10
12
1
0
-2
-49
6
10
39
9
0
4
-2
-3
-2
-2
-47
-18
-1
-1
13
-10
-2
2
12
10
-1
-5
-12
10
0
-4
-21
0
-3
-3
-5
14
-3
-3
-15
0
0
-3
3
-2
0
1
45
1
2
3
11
-17
3
7
17
-2
1
1
-4
26
-12
-9
-65
-3
-3
0
-4
2
-6
-3
4
1
-1
1
0
-20
8
-1
-4
-2
-2
-2
0
-24
12
-2
-13
-1
-1
-3
-2
63
4
12
34
6
-1
2
1
4
1
-6
-12
-5
-2
-1
4
-8
-10
-14
-7
8
3
1
-4
-17
-12
-2
-13
-9
-5
0
9
-36
8
-1
0
5
-1
-4
-5
40
-1
7
0
-2
1
3
-1
12
-4
7
-7
-4
-4
-3
-8
-22
2
-2
4
0
2
0
-7
9
-11
4
2
-8
-1
1
10
9
-1
-8
8
-3
-2
2
-1
1
-3
-13
39
8
-1
0
6
14
-15
12
-5
6
0
-1
-8
-31
6
9
16
-4
1
-1
-2
1
-1
4
-20
3
-2
0
4
12
0
10
11
6
2
-2
-3
38
-2
-21
-27
-4
-2
-1
-4
-35
2
10
65
8
-3
0
1
9
1
-14
-38
1
-1
-2
-3
-11
2
14
17
-3
-1
-2
5
21
-1
-6
9
-3
-2
0
0
-13
-15
-18
2
-7
-4
-3
-5
-33
3
-16
28
-3
2
-2
-4
-9
3
27
0
2
2
0
4
18
10
-7
-29
-4
1
3
-14
18
-14
4
-25
-8
-7
-4
17
-11
2
-13
30
1
3
0
-2
38
8
-5
-19
1
1
-1
2
22
-8
-8
12
19
1
-2
0
-20
8
-4
-57
-3
-1
0
-2
-13
-12
24
68
0
-8
-3
0
20
-6
-42
-105
-22
-4
-2
-6
-12
7
22
43
8
1
-1
5
12
-2
8
-110
-11
-3
-2
-1
23
9
11
-1
-6
0
-1
1
-20
-6
15
22
0
-3
-4
-12
-33
-10
-66
-36
-16
-7
-5
0
-43
-13
-67
48
7
-2
-2
-11
9
6
-16
14
0
5
1
16
-42
2
25
-33
0
2
-1
-1
17
-2
9
22
-3
3
-1
5
-1
2
-18
-5
-5
-4
-3
-4
-1
-3
6
-26
-2
-4
-3
-9
6
-5
-19
38
-5
-2
2
7
-7
-1
15
49
15
0
1
0
10
5
0
-49
4
3
2
1
-13
0
11
8
0
-2
-2
-8
-2
-4
0
-10
-7
-4
-1
3
-23
-1
1
2
-11
-1
-2
-5
24
16
15
32
15
4
0
5
2
-9
-4
-34
-13
-4
-1
0
-11
0
-20
20
5
0
0
0
28
-5
2
-27
-9
-1
-4
-7
-52
9
20
97
15
3
6
7
14
-6
-23
-105
-14
-3
-1
-1
7
4
-2
10
-2
1
3
1
12
1
-15
16
1
-3
2
3
4
2
20
29
2
1
-4
-7
-9
-2
2
33
3
-1
-2
-5
5
-6
-8
-6
-3
-4
-8
-8
-12
5
7
-50
-10
-2
3
-1
4
5
-1
41
-2
-3
0
3
11
-2
-7
-29
-2
-1
-1
-2
4
2
11
10
8
1
-2
-1
-4
3
11
8
1
1
-3
-3
5
1
7
-6
-1
1
0
-1
5
-3
-27
-2
3
-2
0
2
-2
-3
23
6
-3
0
-1
-2
-13
-2
6
9
4
-1
-11
-6
33
-4
4
-7
-2
0
3
2
0
1
-14
-49
-5
-1
4
-2
-15
-5
-12
9
5
0
5
3
-7
-2
7
6
-4
-1
1
5
-4
-6
-2
-31
-6
-2
-12
-15
-3
4
16
31
3
2
7
11
10
5
3
-12
-4
-4
2
11
0
-3
-30
0
5
-1
0
2
-6
2
17
10
-3
-2
-3
-3
2
6
8
-12
1
1
-3
-6
5
-6
-6
10
4
0
-5
-9
-7
2
6
-26
-16
1
4
2
5
-1
-17
18
10
-3
-2
3
-2
-6
5
7
0
-1
-1
-4
3
6
9
2
1
2
-1
1
-3
-9
-10
-12
1
-1
-1
-5
1
1
-12
-12
-5
0
1
1
-3
-3
3
-40
-9
-5
-5
-3
-3
-4
-11
10
1
-1
-7
-7
3
0
3
-21
-4
-1
1
2
-4
-3
6
39
2
1
5
2
-10
0
0
29
4
0
5
-1
1
5
-5
-17
-4
-2
4
4
0
-6
9
15
-3
-1
-1
0
-1
3
-3
-15
-4
-1
-2
2
-4
-1
1
25
6
-3
-4
-5
-1
4
6
40
9
0
1
0
-2
-2
2
-39
-14
0
-1
-3
2
-6
-11
13
8
-1
-3
-4
1
3
10
44
5
2
0
1
0
-3
3
-43
-6
-2
-2
-1
0
-4
-14
-19
1
-3
1
0
0
0
-4
13
-3
1
1
0
-3
0
3
13
-3
-1
-3
-2
0
4
4
11
4
-1
-1
0
-2
-5
10
6
1
-3
-1
-2
-2
-5
-6
-9
-1
-3
-1
-1
-1
1
1
-18
1
-1
-6
-4
-1
-6
-10
4
-11
-3
0
-3
-1
1
3
21
5
0
4
7
1
3
6
19
0
0
0
7
-1
3
11
-40
-1
0
-5
-5
-2
-12
-31
-36
-9
-5
-8
-8
1
4
2
13
0
0
8
6
-3
-1
-2
-44
-3
0
-2
3
0
2
5
9
2
2
2
3
-1
3
4
-14
5
1
-6
-3
-1
-4
2
58
4
-2
1
-4
-3
-1
-3
-28
-8
-1
-2
0
0
-2
1
10
-3
-1
-5
-2
-1
-2
0
10
1
0
-1
-1
-2
3
4
21
7
2
-3
0
-2
-1
5
-5
-5
-1
0
-2
3
-3
-10
-50
-7
-2
-3
-3
2
2
0
26
6
0
4
4
-2
0
1
-11
-5
-1
-5
-4
-1
-1
3
7
2
1
-2
-7
1
-1
-10
-10
-4
-3
1
3
-3
-2
-3
-5
-8
-3
2
3
0
1
4
-10
-3
-4
-6
-3
-2
-2
-3
2
-3
0
0
4
-2
-2
-2
62
11
2
26
1
0
4
6
-8
0
2
1
-2
-1
0
-4
-27
-10
-2
-3
-3
0
-2
-1
-2
-2
-1
-5
4
-1
-2
-2
5
-1
-5
-25
-17
-3
-2
2
11
4
-2
10
4
-1
2
5
-25
3
2
5
2
-3
-1
-7
25
-2
0
-1
-2
2
1
-7
-28
0
3
-1
1
-2
-5
-6
-15
-9
-1
-8
-6
-3
0
-2
-1
-2
-3
-9
2
2
-5
-8
-2
-6
-3
-4
-18
-5
5
17
62
7
0
-6
2
-1
-1
-12
-60
-13
-1
18
4
1
-5
-11
-5
26
-2
-1
2
-4
-1
0
-25
-32
-6
2
0
-2
-2
-5
1
7
7
-4
0
2
3
16
30
-13
2
-2
-11
-3
-10
-26
-24
-14
-4
-13
-2
-6
3
2
2
45
8
22
20
5
-3
-5
-19
9
-14
-13
10
-1
1
7
25
-43
-14
-5
-10
3
6
13
59
-4
8
9
-3
5
-4
0
-58
-13
-1
-1
-5
-2
-6
-3
-8
-14
-4
0
-2
-1
9
12
20
63
16
4
6
-1
-11
-26
-6
-2
-4
-14
-20
-8
4
23
58
1
-2
-1
-5
5
-1
-5
-30
-18
-19
-9
-3
0
-9
-24
-70
-84
-7
2
6
-6
18
37
56
41
18
4
11
6
-14
-19
23
-3
-10
-13
-24
-15
1
1
-61
14
10
0
-22
7
-12
-30
-16
2
-17
-17
28
1
5
5
9
-76
-22
11
24
-2
11
13
-20
55
21
5
18
7
8
12
9
-19
10
-7
-17
0
-19
-31
2
57
12
-58
4
-26
-7
-6
-83
-24
-4
8
-102
-5
5
-3
30
2
-8
31
87
20
-5
-10
16
-22
-8
26
77
6
25
47
33
49
14
49
49
13
-27
-55
-92
-6
-4
-73
-45
-30
-5
1
-1
-29
-18
-8
-89
-7
10
12
29
32
11
50
91
17
0
1
34
-24
1
-6
28
4
5
11
22
19
-9
16
40
0
4
8
-19
3
1
-13
-59
-3
-9
-18
-50
11
21
-10
-16
-9
-6
7
71
-78
-47
-16
-34
2
7
20
6
44
36
11
1
1
-12
-15
-10
0
16
-8
-6
-3
-14
-28
-10
-61
-32
-36
-52
-16
3
2
-33
46
18
24
9
6
6
9
12
12
-6
-8
2
7
-3
-3
49
-3
-9
-17
17
-9
-7
4
16
14
8
26
-13
3
-2
-3
-63
-35
-21
-59
-33
-7
0
5
11
-1
-3
34
-28
0
15
27
10
23
10
6
74
2
1
6
33
-16
-10
31
-5
12
6
9
21
28
12
38
53
10
1
5
6
55
1
-11
31
2
-4
-5
-62
-80
-14
-31
-7
-2
0
-1
-2
-1
-7
-4
-46
-10
-2
1
33
2
7
-2
-14
-5
-14
-29
-67
-29
-6
-19
13
2
-6
-9
19
-37
-15
-6
-23
-9
5
9
25
93
9
-14
-9
-14
-4
4
34
6
8
-22
-35
6
3
8
4
-22
-3
25
12
5
-3
0
21
32
9
9
-23
-4
-13
-33
-68
-56
-22
-36
-2
-7
-6
-1
-10
-4
0
21
-21
-6
6
6
31
6
6
-18
8
3
1
-14
-38
-16
6
94
75
14
5
13
51
7
5
-22
-11
-6
-1
0
2
-22
-10
-2
-22
-2
-2
-5
10
48
10
-11
44
8
-6
-8
10
-10
-5
-33
-24
-9
5
9
-42
-10
9
4
14
10
11
15
56
25
2
8
-4
-2
-27
-41
-46
-46
-17
16
-32
-10
0
-5
-10
-1
-8
-32
-8
-3
1
6
31
-7
0
4
-2
-2
9
14
10
56
0
-16
1
-11
-14
-24
-27
-21
-10
32
-13
-6
3
5
34
-20
-9
-15
-20
8
0
-5
-22
-45
2
1
34
7
2
-3
-54
0
8
-32
20
3
6
14
42
12
2
44
-31
-9
-1
-14
-47
10
4
40
56
9
6
15
47
23
-11
-14
1
3
8
16
27
22
10
-3
15
3
8
20
-4
2
1
-45
-30
-10
-22
-35
-63
-78
-21
-11
-47
-4
2
5
21
14
-4
2
-9
3
-6
-13
-28
-37
-1
-2
2
-2
19
43
87
70
23
1
-10
-1
-5
-4
-47
-39
-10
-6
2
-5
-4
-4
24
12
7
7
-2
2
-6
-10
-15
-15
-6
23
5
2
7
14
35
-29
3
-14
28
4
1
11
8
-25
-15
-27
-39
-12
5
-4
-14
63
16
22
31
6
-7
-6
-5
-31
-3
-16
-22
-3
10
11
-48
8
-3
-34
-21
2
0
8
43
33
10
28
18
-3
-8
-10
-29
-74
-16
6
-11
-3
9
18
80
101
1
-28
6
2
-14
-24
-39
-57
-3
30
17
3
3
16
17
13
11
-18
-2
-1
-4
-13
-74
-13
-3
-2
12
-3
-12
-20
-1
-29
-13
33
30
-8
1
2
9
0
-5
-4
-12
7
7
9
22
70
12
-12
38
-3
-1
16
15
-20
-2
-5
-7
6
-7
-1
-24
-48
-7
-10
-23
-3
3
8
34
56
2
-5
3
-6
-12
-20
-18
-7
2
17
-21
-3
1
2
7
-6
2
-12
-2
-4
-7
-13
-15
-3
7
2
-3
1
14
29
31
-27
-16
6
10
1
5
-6
-3
48
13
2
15
3
-2
-3
-11
-2
12
36
-14
-4
-8
-11
-13
-2
-5
7
-14
5
-2
-7
17
-47
-1
27
36
6
-3
-2
-14
-2
-7
-50
-6
0
-5
-13
-3
32
7
-23
-40
-19
7
19
16
23
7
-3
-44
-6
-9
-19
-38
-35
-7
33
12
8
-1
-4
-4
-29
-1
7
68
13
6
15
29
3
-19
-3
8
0
-2
-20
-24
41
30
-1
-14
-9
-10
-12
-25
-14
-9
-42
-27
-3
4
-9
-5
-27
-8
9
-34
-7
19
37
61
24
1
-15
-14
-5
-14
-18
-71
13
-15
13
4
-3
-9
-18
-48
-74
-4
-10
10
16
1
0
-5
-5
8
3
-57
-5
6
19
49
33
12
-1
74
7
4
-8
-22
-33
-13
10
-5
-13
-9
2
26
15
-6
-2
-25
4
-2
-1
-9
10
-1
-8
44
-2
-2
-4
18
-18
-9
-25
-82
-4
6
15
18
-4
-1
-48
0
5
-1
-8
7
3
-5
56
44
-13
-6
-13
-32
30
13
4
20
12
-11
-13
-29
-31
-8
23
-7
-14
4
0
-2
-1
0
-2
-49
6
12
29
84
19
-4
-32
45
-3
-15
-16
-47
-34
1
5
-55
2
-6
-16
-21
23
5
-57
16
8
3
17
40
26
-7
28
4
-7
15
25
21
21
9
13
-10
-7
2
0
-12
-69
-28
17
3
7
-9
-20
-20
30
18
10
12
-6
-3
-5
-11
-12
4
-60
-73
1
1
-3
-21
6
8
46
23
0
17
42
82
56
-15
-12
16
-15
-23
-40
-76
-50
24
21
-25
-9
0
-5
-7
12
-1
29
64
25
4
-13
-30
13
14
14
41
2
11
42
95
88
28
-37
-66
-19
-1
-4
-48
-61
-26
52
0
14
-8
-16
-28
-40
-8
-8
49
-1
-2
-4
-5
24
-8
-81
-25
5
23
36
76
19
0
57
47
6
-8
-7
5
-1
-5
-6
15
-5
-7
-18
-29
-32
-1
30
-56
-7
8
7
-11
-66
-15
-17
-8
4
9
21
44
92
31
-14
11
-7
1
12
14
-25
-13
-11
-32
-7
-5
-19
-38
-16
-10
1
5
13
-1
-4
5
-3
0
15
30
-10
-14
-12
-36
-15
-14
-22
-56
-4
10
26
29
61
10
-25
13
-6
-7
-18
-58
-61
-19
18
9
-3
1
-10
-9
-35
-2
-9
36
4
-7
-9
-23
-24
-4
-25
-8
4
6
12
43
21
-5
-14
-28
-18
-6
7
14
-7
2
11
-30
-5
-3
-3
-14
35
-4
-7
7
8
-13
-44
-54
-39
-10
56
63
14
6
9
6
-13
-3
-21
-14
2
10
21
29
19
15
-5
18
-9
-19
-10
-13
-80
-24
-26
-79
-18
-10
-24
-28
75
26
-5
-41
3
6
4
6
-3
-5
0
70
13
9
3
2
-16
-11
-18
28
3
1
8
45
41
28
61
7
-3
-5
-15
-32
-52
-27
-7
-27
-1
-11
-16
-31
-66
-4
22
11
4
10
14
36
38
-13
-22
16
-2
22
38
69
120
45
-26
-52
-11
-19
-29
-67
-98
-21
-32
-6
5
5
6
15
9
3
35
5
11
1
5
28
-11
3
1
19
-5
1
1
-22
40
4
-7
-50
-6
-6
-11
-4
20
1
3
9
-9
5
6
-20
-50
-20
-3
44
12
5
-2
25
57
29
34
46
8
-2
9
11
14
-2
-27
-2
-4
-6
-6
-9
-30
-5
-9
-28
-5
-9
-18
-25
16
10
34
39
4
0
5
-1
-6
-1
-2
12
-1
-4
-11
-20
-29
-10
-10
-15
1
8
23
10
-6
-3
-4
-21
-7
4
11
45
57
-11
-19
-21
-5
-5
-6
33
76
63
26
-50
-11
-9
-25
-74
-112
-26
-7
66
17
8
10
32
-11
3
0
5
1
6
-7
-70
-90
-20
1
11
-1
-15
8
51
43
18
-9
-9
0
-5
-8
-5
-8
-16
-35
-18
-10
8
9
49
26
9
-21
-15
-4
7
25
1
24
3
25
26
-1
-9
-32
-80
-93
-28
19
-7
4
-25
-33
-13
55
3
4
1
-9
7
9
-17
-26
1
56
21
3
0
-10
36
30
4
-31
-26
12
12
30
31
5
-4
-21
10
-11
-17
-44
-79
-20
-15
35
35
15
5
6
19
-19
-4
-16
42
-5
-3
-1
21
50
16
-3
-72
-11
0
4
-34
-42
-15
-22
9
3
5
14
22
-61
-30
-15
-30
-10
-2
-6
-15
49
10
5
-10
-3
-10
-9
-3
-12
5
3
12
0
-5
-7
-18
-23
-36
-9
-8
-3
20
55
59
37
20
-13
6
-10
-25
-55
-73
-52
-2
-9
-73
-7
0
0
9
-23
-4
-3
9
7
8
6
16
-27
-4
12
28
16
10
11
7
4
7
15
49
6
15
32
62
113
16
-5
-15
-7
-14
-23
-36
-29
-5
19
35
1
-6
-11
-11
-16
-11
-19
-66
-11
5
3
10
7
9
27
26
8
7
11
24
38
7
-23
12
-11
-5
-11
-26
-67
-27
-15
-57
-3
-1
1
2
44
5
13
35
7
-7
-16
-17
-11
-21
-24
-13
-7
4
15
16
-31
25
16
23
9
10
24
52
79
17
-26
-27
-17
-11
-31
-59
-37
-10
27
39
17
-6
-4
23
-9
-10
-18
1
2
5
11
27
-37
-37
-19
-19
-5
5
1
3
50
29
38
0
-2
-2
5
9
15
21
6
-17
-4
0
-5
-19
13
11
1
-13
5
-9
-4
7
-20
-6
-10
17
-6
0
-4
-6
13
-8
-72
-106
-9
4
1
-24
-33
-12
68
88
4
-2
-5
2
33
1
29
32
17
-6
-12
-23
-16
2
8
23
0
-7
-3
5
9
3
0
-11
-2
-6
-18
-10
-26
-26
-41
-7
-11
-6
-10
-28
-91
-11
-1
-48
-6
0
-4
12
103
49
10
27
7
-3
9
-11
-45
-6
-2
1
-5
8
18
42
-37
5
-38
-61
-4
2
10
17
-21
-2
55
9
-1
-9
-6
-23
16
-9
-5
30
3
-3
-6
1
-33
-15
-9
-18
-7
-3
-1
-20
43
14
4
3
2
-2
2
-17
-29
-27
-52
-25
-9
6
5
18
-25
-12
57
-19
-2
-5
-4
2
50
8
-30
70
8
4
5
53
-25
1
46
27
1
2
1
-39
69
18
-28
-84
-3
0
-1
-16
-49
-49
5
68
7
2
5
18
-15
17
20
26
-2
-7
-10
-22
8
2
-25
-43
-6
3
2
44
30
3
1
11
1
-4
-7
-13
-7
7
-26
-32
-2
-5
1
18
-46
-23
2
16
2
1
6
-29
-59
-15
-18
-15
-10
-8
0
26
79
41
21
-19
-1
4
-1
-8
-17
-8
-20
-4
-4
7
2
4
33
4
-4
-34
-10
-5
-6
-25
-19
-12
6
-10
1
-5
-16
-8
-23
-4
25
56
6
-3
4
1
-11
-5
-22
5
-7
-4
-13
-33
3
7
20
-12
3
0
-3
26
23
-5
-5
-6
3
1
2
1
-20
-2
11
66
-7
4
2
29
24
14
10
-14
15
2
1
-71
-26
-12
-24
-19
1
0
4
9
15
2
-2
-30
-12
-2
-6
3
4
0
-7
6
4
-2
4
-5
-32
-4
9
9
-2
-3
-7
5
8
-5
0
3
-5
-3
-7
-3
18
8
-7
-4
0
-4
-11
-20
-20
-4
-10
-22
-4
2
2
-10
-13
-4
-1
-6
-9
1
3
13
16
0
11
14
13
1
5
-12
21
7
-5
1
-3
-3
-3
16
-23
-9
-8
-11
-4
0
1
-1
-3
0
0
-24
-3
-1
-2
24
8
4
12
36
-4
-4
-1
-11
-7
0
-1
12
1
4
7
-45
-8
-2
-5
-15
12
-7
-6
-16
-6
-4
-2
-6
-17
0
-18
-19
-11
-1
2
-1
-18
-1
-3
0
9
-1
-3
-5
0
1
-4
18
4
-3
-5
-10
10
5
13
6
2
2
-1
2
8
-4
-7
6
-12
-3
7
9
-6
0
4
12
17
2
-5
-6
1
-3
-10
-6
-8
-2
-5
-14
23
0
2
-7
-11
0
3
6
9
1
1
37
12
4
2
3
5
-11
-9
-20
-14
-3
-3
-1
4
-1
-2
5
1
-1
-1
-6
-14
-5
-15
-13
-1
-2
-2
-8
-9
6
19
31
0
1
2
0
-2
1
-9
-3
10
5
1
2
2
-2
2
-4
-8
-2
-2
-4
-48
-4
-15
-23
-4
0
-1
1
22
4
30
17
2
-3
1
-4
-42
-6
-27
0
-3
-1
-4
-1
-27
0
5
13
16
1
-1
-2
22
-1
-11
-22
-22
-3
-1
-2
12
-2
7
6
5
2
1
3
5
2
4
-4
4
-2
0
0
-3
3
7
-5
5
2
-2
-1
-34
1
-26
-6
-1
-7
0
-1
39
-27
19
-23
-16
-4
-2
0
13
1
-17
-4
3
6
2
2
13
3
21
27
9
2
-2
-5
-4
-20
-12
17
3
0
-1
-3
-22
11
-6
0
5
2
5
11
12
5
9
-40
-10
-3
-3
4
33
5
15
-4
-6
-2
0
-2
-55
8
-2
6
1
-1
-1
-1
18
-1
4
-12
0
1
-6
-10
-8
-4
6
40
7
1
-1
1
-22
3
9
-53
-3
-2
-1
0
40
-4
-3
37
-2
-2
-2
-1
-31
5
13
-64
0
2
2
2
-3
0
21
85
13
1
-2
-3
33
-1
-50
-75
-24
-8
-3
-7
-40
9
45
51
9
0
3
5
-5
2
-53
-4
1
-1
1
2
3
1
34
48
5
-1
1
0
10
6
5
1
-9
0
2
3
-7
-2
-7
30
21
3
-1
-2
-25
5
9
-5
-13
-7
-4
-6
8
-7
-29
-28
0
-1
-5
-2
-14
1
21
54
6
2
2
0
21
-1
-6
-50
-13
-1
-1
2
4
-4
-18
16
3
-2
1
2
-2
7
-4
-8
-2
-3
2
0
-10
-10
7
1
-9
-2
1
-1
18
-1
26
21
11
4
2
-2
1
7
-4
-4
2
0
-5
-5
-9
0
23
-42
-5
-2
-2
2
2
-1
-34
-1
-5
-2
-5
-11
9
-6
-19
-52
-12
-2
-1
1
-6
5
-4
31
11
0
-1
1
6
-8
4
26
6
0
-8
-3
-13
-5
-2
1
12
-1
4
5
5
4
11
-9
-4
-1
3
2
5
-8
19
-4
-14
-5
0
-1
-3
5
-22
-8
-6
-2
-2
-1
14
-6
-3
13
2
1
-4
-2
16
4
6
11
3
2
-2
0
-2
-2
-21
-8
1
2
-1
2
4
1
18
-5
-6
0
0
-1
-10
-7
-8
27
3
-3
-4
0
-3
9
20
-32
-7
-1
-1
-4
3
-11
-18
-17
-6
-3
-2
-5
4
-5
-2
-19
0
-1
-1
1
-12
-6
-20
42
-1
-2
-2
-3
5
-2
-7
20
12
0
-3
0
-5
1
5
18
2
0
-1
-2
3
4
-3
-3
-7
-1
1
-1
-5
-1
27
27
3
0
-2
2
3
-5
-8
-43
-8
-3
-4
0
-2
1
-3
-5
-6
0
0
-1
2
-4
-23
-12
-4
0
1
-3
-2
1
4
-17
2
0
0
1
0
-5
-7
3
-2
0
-1
-2
-2
0
-3
28
-4
-2
-3
-5
-1
5
10
-4
18
0
-2
3
-2
-6
-18
-47
-23
-3
7
1
3
-2
-6
14
4
-2
-2
-1
-1
1
3
1
0
2
3
7
2
-1
6
-25
-1
0
2
-2
-4
-2
-6
1
8
0
-4
-4
1
-2
-1
-11
-8
-2
0
1
-2
0
10
3
0
1
-3
-1
-2
1
3
18
-4
1
1
0
-2
-3
-3
-9
4
-1
-5
-2
0
2
0
5
1
-2
0
0
-2
-7
-7
-12
-3
-2
-2
-3
1
4
1
6
-5
-3
-3
-3
-3
1
11
-43
-3
3
1
2
-2
-9
-16
15
1
-2
-4
-1
-1
1
0
-4
-4
0
6
1
1
-1
2
15
-2
-2
0
-3
-2
0
-6
11
-2
-1
0
-1
0
-1
3
-9
0
-2
-3
-3
-1
-5
-1
-7
2
-1
-1
-2
-1
-2
-9
-1
-2
-2
-2
-2
-3
2
3
12
7
-2
-4
0
-1
-1
-9
3
4
-2
4
1
-1
-3
-5
-29
-22
-3
-4
-4
-1
-3
2
31
3
-1
-6
-4
-2
1
8
-4
2
0
6
1
2
-3
-2
3
-4
-1
-1
-1
1
-1
-9
1
4
-1
0
1
0
0
-5
2
-9
0
-1
0
-2
1
-3
-10
8
-2
-3
-1
-1
0
1
3
-6
-2
-3
-3
-2
4
9
22
7
0
0
0
-1
-3
-4
-20
-7
-1
-2
-4
0
-2
4
-1
5
1
0
1
0
1
-5
14
3
-2
-2
-1
-1
0
-3
7
1
0
-4
0
-3
-3
-3
-28
1
-1
2
-1
-1
2
5
8
-5
-1
-1
0
-1
-1
1
-16
-2
1
-9
0
1
-1
-3
31
0
0
9
-1
-1
2
3
-10
4
0
5
7
0
-4
-13
-38
-15
-5
-1
-4
-3
-2
4
-20
-7
-2
3
3
-1
-3
-6
20
5
1
-4
-4
1
1
5
28
8
1
-1
0
-1
-3
3
23
-1
-1
-12
-5
-3
3
-3
-26
2
0
7
0
1
-2
2
10
-11
-6
-10
0
-2
2
3
-29
-4
-5
-16
-8
0
-1
-8
9
5
3
20
10
3
-5
-8
-24
-22
-4
-5
-5
-7
-2
-7
-1
0
0
0
-1
0
2
5
11
7
2
4
4
2
-6
-14
-9
-7
-5
-12
-7
-3
2
5
14
3
-1
-6
-4
2
-4
0
0
1
-3
5
-2
-5
-2
-6
-14
-5
-2
-4
0
1
-1
-6
-7
0
-1
-3
-3
-1
4
8
20
10
4
8
3
1
-3
-13
-43
-17
-6
-14
-1
-2
-6
-5
9
0
-4
3
-14
-6
5
17
28
12
7
3
10
2
-2
-10
-9
-8
-4
-22
5
2
5
9
3
14
6
28
2
1
-4
-8
-16
-8
-1
4
-3
-4
3
7
30
11
0
1
10
2
1
4
-29
-9
2
3
-2
0
-9
-9
-2
-6
-7
-20
-7
-5
0
-9
6
19
4
1
1
0
3
9
-26
-19
0
-1
-7
2
-6
-5
5
-1
-10
-6
-4
-2
7
9
11
-9
0
-2
0
1
-1
1
7
10
7
11
8
-2
-7
-5
-6
-32
-9
-9
-3
-1
8
19
69
22
13
11
-3
2
-15
-19
-34
17
0
-18
-5
3
10
5
-66
-42
-23
12
1
-3
6
7
22
13
3
0
-7
0
-14
-18
-11
-27
-4
-9
-1
-3
18
39
52
18
15
22
18
4
-15
-24
5
-31
-4
-24
-31
-6
-4
-8
-11
-29
-23
-20
-2
0
8
24
2
43
5
4
-4
-1
-3
-16
-28
-12
8
9
-15
-2
13
41
100
40
-5
-37
4
-1
-14
-23
-51
43
5
8
-24
-1
-15
-43
-38
-74
-23
-3
30
0
12
23
17
-88
-22
25
20
1
-9
-19
27
60
63
23
-32
-3
14
9
-42
14
9
-7
1
12
16
32
73
82
9
-18
34
3
-28
-63
-116
-56
-34
-22
7
1
3
20
19
-64
-27
-14
6
-1
0
-3
59
17
16
-12
-40
-18
-12
-17
-75
-51
-11
45
-8
0
10
9
62
56
9
2
2
-2
-17
-30
-80
-82
-23
-1
4
-2
0
5
-10
38
-3
-4
24
0
2
-5
-52
3
4
7
-36
-10
1
19
71
40
10
-21
12
6
-6
-10
11
38
-8
3
19
-3
-16
-28
-12
-28
-20
16
-9
-4
3
16
41
-46
6
22
35
10
4
12
0
-5
2
-21
-14
-1
-6
-17
-27
67
30
-9
21
0
-9
-10
-29
-12
-2
35
-15
-6
6
32
102
70
1
-12
-24
-9
2
-10
-78
-4
-3
-39
-41
-1
-7
-23
-7
-74
-20
-2
-16
5
9
11
34
17
18
43
77
-9
7
19
13
-8
-1
-33
-91
8
-5
-4
11
-21
-32
1
28
-4
5
14
-11
62
29
26
56
24
-5
-14
-18
-32
-6
-23
5
-2
1
8
-1
8
16
31
1
-1
-1
3
19
11
10
-69
-41
-23
0
13
-33
1
-9
6
-97
-12
10
9
20
-30
-15
39
52
20
-11
-18
-39
40
10
1
68
-1
-7
-6
17
-26
-13
-14
-39
8
11
25
28
-9
-6
-8
13
-14
-7
-17
-23
-2
-1
-32
-64
-16
-2
-8
-3
-9
-19
12
-47
5
1
-9
-20
16
10
46
119
24
1
-8
-12
-41
-7
-5
-9
2
14
55
123
39
6
-35
-66
-14
-15
-38
-44
25
10
17
-53
-17
-11
-19
-60
-21
-10
23
-13
-18
21
38
62
35
7
27
19
40
9
18
33
39
15
-2
121
30
-10
-2
-6
-72
-12
-84
-10
-12
4
11
-27
-6
-2
32
-43
-22
2
-2
5
49
21
-4
-49
-14
-15
-30
-62
-56
-19
-75
-51
-19
9
12
10
-7
-4
49
-103
-8
4
-6
-13
-10
1
49
73
68
1
9
29
13
-4
25
93
18
1
3
7
13
9
4
-83
4
11
12
63
-5
-7
-22
41
-7
-1
13
-65
-2
10
-46
-88
-28
4
8
55
18
-9
30
-21
-14
-29
-51
-123
-73
-8
16
29
1
0
-11
0
-21
-7
-9
-27
-6
8
21
57
24
-9
16
26
-5
11
35
64
0
39
-23
36
17
-1
-8
-61
0
-4
-2
-2
-10
2
-8
-33
2
-4
-44
31
1
3
-2
40
28
7
43
-16
7
-3
1
45
35
-7
-42
-32
-28
-2
10
-13
-52
-10
82
-69
11
-2
-11
-40
7
0
28
124
32
3
11
26
12
12
-42
-30
-7
-3
2
4
37
-2
-30
-17
-24
-1
-16
-4
-30
-12
20
13
-2
-6
2
15
0
-6
-6
-24
6
-1
3
12
37
16
10
25
-4
-11
-22
-32
-5
-23
-18
-36
-13
1
-5
-6
-43
-13
-3
19
11
2
1
-12
-70
-14
-4
9
-5
7
14
62
77
58
29
-6
-12
-37
-61
-128
-128
-53
-60
-82
1
8
12
54
22
-8
-22
75
-2
1
-5
-19
17
10
18
-1
-2
9
11
29
-34
-29
27
5
-1
-2
9
-14
25
5
-10
5
1
-6
-8
7
14
15
-18
-44
-10
-10
-14
0
-9
-13
-18
-12
-12
-5
-4
-19
-7
-10
-16
-43
-4
5
-9
-35
-22
2
67
39
21
0
4
30
11
1
-6
74
9
5
15
58
63
17
1
-7
-8
-5
-5
-73
-48
-13
-27
-32
-9
-5
-20
0
-40
-14
-11
-62
-13
11
26
45
-44
-9
-23
-54
1
2
-1
-6
97
53
34
52
13
-10
-11
9
48
3
-8
-8
-7
-3
-23
-90
-51
-3
-11
1
-1
16
36
89
26
2
1
11
2
-12
-2
15
-48
-24
-23
-72
-13
-2
-4
30
8
4
2
-10
1
-1
2
-1
9
1
40
48
1
5
1
3
46
6
-4
-29
-3
-6
-13
-46
-45
-14
-36
10
-1
-1
11
24
4
-1
12
-35
-10
-18
-35
-35
-37
-15
48
49
5
5
-1
-13
21
7
-45
12
6
6
12
12
15
-2
7
26
5
7
35
48
-45
-18
-14
-23
-3
-34
-52
-44
51
9
-3
0
-17
-3
-4
-24
-61
4
14
-27
9
12
8
-9
-46
-6
-44
-12
1
-6
-19
8
-84
-23
27
37
-8
8
21
35
117
45
-4
-24
3
-14
-20
-20
39
-14
-13
7
-8
-11
-2
-41
-19
-2
-30
-36
-3
-2
-3
6
-7
-4
22
33
0
16
22
54
-12
-3
57
28
12
3
-5
-20
-29
-4
-55
64
5
18
36
66
58
2
53
-34
-5
-21
-41
-84
-2
7
-48
56
19
0
-10
-35
-69
-23
17
52
-11
12
30
34
44
12
28
-64
-2
-2
-10
-12
-26
-4
1
71
20
12
19
25
30
9
-31
64
13
-6
-13
0
-17
-15
-9
-5
-12
-8
-18
-27
-6
-5
-3
-26
-2
0
14
29
24
13
3
-39
-25
-10
-31
-68
-21
-4
-18
-75
1
18
17
12
-31
7
-10
32
9
8
29
61
-29
0
3
-5
-15
-25
-46
-36
34
10
20
-53
-6
-2
1
4
-5
-10
-23
-14
-5
13
38
69
66
-5
-48
-11
1
-10
-24
-100
-29
1
56
23
8
6
-1
-5
-20
-9
29
27
3
1
0
16
19
4
8
-8
2
0
2
-37
-31
-5
13
16
7
-6
-8
28
10
0
-18
-28
-5
-1
1
-6
-17
-3
-2
18
2
12
21
51
38
-10
-35
-57
-23
-1
-8
-36
-30
17
5
-26
17
-2
-1
-7
36
0
19
46
5
1
-14
-9
-41
-9
13
37
5
11
26
50
19
16
-4
4
2
-10
-18
1
-4
-2
-49
-64
-14
-8
-7
-8
-33
-15
30
6
-7
-1
2
10
46
9
-12
30
7
-1
-4
-17
36
1
-42
-46
-8
-12
-16
-46
-47
-9
13
28
-11
2
0
-14
-24
9
24
-88
-7
-4
-6
-10
36
10
36
64
13
-6
0
36
29
11
9
56
10
-2
-7
-6
8
-11
-42
-5
-7
18
38
66
-19
-32
-40
-92
-22
-1
1
-17
24
25
23
5
15
-19
-45
-90
-92
-24
9
13
3
9
15
39
7
14
24
26
6
14
30
39
36
2
-6
14
-2
-1
-7
5
-27
-7
13
2
-2
-8
-14
-33
10
-6
3
-12
0
8
22
36
1
-17
-33
-21
-6
0
15
37
76
-7
-54
-52
-25
-25
-37
-67
-58
22
31
-53
6
-5
-27
-68
-77
-11
29
104
16
5
5
9
1
8
18
-18
3
2
-1
14
12
7
-27
43
2
4
17
37
58
-13
-14
-100
-22
-4
-15
-16
-4
-10
32
57
17
1
13
16
-24
-2
-4
31
7
0
-9
-20
-79
-42
-20
-5
-7
-17
-23
-8
79
77
-18
-14
-15
-12
-26
-50
-73
-15
10
7
-4
14
19
49
21
8
5
-23
10
-2
-8
-19
-3
8
-41
47
10
16
16
29
-49
-47
29
-23
-27
-13
-21
-36
90
40
50
-34
9
-10
-16
-38
-42
-6
20
100
22
-2
-7
7
13
32
35
28
9
14
28
49
-26
-28
-70
15
1
-4
7
27
29
7
-39
-84
-16
-6
-12
5
-15
-27
22
6
-10
-4
-19
-31
12
12
30
33
12
5
15
45
-22
-35
-47
13
-6
4
13
-42
3
9
38
-22
-10
-1
-13
-16
-9
-14
-35
-49
4
-9
-2
7
-21
7
29
45
1
0
-1
-7
-14
-16
-41
-13
-7
14
19
43
11
-5
-24
-107
-11
4
-1
-28
-3
4
17
79
28
-11
-3
-10
28
4
6
-6
1
3
7
12
-38
-20
30
-38
6
-3
10
6
-35
-5
1
39
-12
0
-10
-24
3
5
-18
-69
-4
5
10
35
-78
-49
-17
-3
-6
-17
-21
-52
111
97
11
-22
1
0
2
42
-33
-16
-12
55
1
6
16
32
4
5
-8
-100
-20
-3
1
13
30
19
9
92
18
16
13
24
40
-6
53
88
8
-8
-15
-21
-19
2
-38
-81
-22
3
6
12
2
2
42
71
7
-5
-8
-19
15
9
19
-23
15
2
6
16
-15
-18
-20
45
2
18
37
33
63
7
-12
-36
13
-13
-26
-45
-55
-26
-19
43
-8
-7
-7
-17
-8
11
1
-67
-11
17
24
28
-3
-19
-19
13
-1
-12
-35
-64
-79
-6
11
-31
-1
-7
9
30
-57
-17
-28
-104
-19
-4
-20
-32
96
81
32
41
4
-2
10
-6
-25
-26
-20
-40
-2
12
19
34
20
10
-13
28
2
-3
-15
-38
-20
-4
22
-24
-5
-5
-21
-26
-33
-27
-8
19
9
1
14
24
2
-7
13
28
1
10
3
17
-66
10
-16
-8
-9
2
13
39
76
18
-4
-27
-5
-10
-16
-39
-64
-25
-38
-38
-9
8
-2
-3
15
10
17
64
17
1
26
47
87
3
65
50
-9
0
-19
-44
-32
-14
10
-54
8
3
6
2
-33
-6
-14
60
4
-14
-30
-26
6
0
-9
-1
8
-7
-12
-14
-3
-6
-27
28
-3
2
10
25
25
0
-30
-31
-20
3
11
-1
89
9
14
-60
-13
-7
-12
-27
-44
-28
-17
-3
8
-1
-6
7
-6
14
14
8
7
3
7
28
34
11
-8
17
-10
-6
-11
-29
-43
-17
3
-20
1
8
16
61
3
1
0
-9
-4
-4
-2
-85
16
-5
2
-4
12
-2
4
-15
-15
-3
-2
27
-1
0
-4
25
14
5
-21
-9
-7
-8
-10
-43
-50
0
20
-53
-6
-1
3
21
3
-10
9
19
-13
-1
0
-5
19
12
1
15
17
-3
8
16
8
0
17
-16
-11
-5
-10
-8
-8
-5
-7
-7
6
-1
-2
18
-15
-10
-37
-5
7
-1
6
-1
22
6
11
-14
-13
0
0
11
-3
-5
0
-20
-8
-3
-9
-20
-20
-3
3
-6
0
-5
2
6
-17
-1
2
23
10
2
4
9
17
3
-20
-41
12
2
2
1
4
-5
9
53
-47
-6
-11
-5
-15
-2
-5
2
-9
5
-1
-2
9
-1
-3
-6
-38
-6
-12
-59
-8
-4
-11
-8
0
-5
-12
24
-6
-3
8
-18
31
-5
-3
-24
-7
-2
-17
-22
-31
12
9
40
3
-3
8
-17
38
0
-5
20
9
2
10
54
7
2
3
-2
3
1
-1
-18
14
-1
-1
6
-9
-3
-7
9
-11
-8
-11
-22
-5
-5
2
-11
16
4
7
7
-1
1
0
12
-16
-2
11
-12
-3
-2
-7
-7
23
-2
2
7
-3
-1
-1
-17
-4
-7
-8
-12
-5
0
7
11
3
6
3
9
10
5
-3
6
-9
-4
-15
3
0
-2
-2
-5
-9
6
15
2
-8
-1
2
2
10
-1
-14
-29
-4
0
3
5
1
-1
1
18
1
2
-2
15
2
1
11
-3
2
-1
-2
-15
-5
0
-5
-34
-8
-2
-2
2
25
-4
-5
46
16
-2
-1
7
20
0
1
-17
-8
1
2
-3
-29
6
6
29
3
0
4
-6
-14
-6
-1
-32
-15
-3
-5
-9
-1
-2
23
8
-6
-3
-4
0
-14
-1
-17
-12
3
1
2
7
24
-7
6
0
-1
-2
-4
-7
-8
6
-16
2
3
-1
-3
3
4
-6
1
-11
-5
0
0
-3
-1
2
10
21
1
0
0
7
4
11
34
14
17
2
3
4
-22
-4
4
-2
-3
0
-2
-8
3
5
3
-20
-1
-1
2
3
-1
-28
-86
-32
-17
-4
-9
-9
-13
3
-19
-17
-10
1
0
3
-13
8
59
54
11
-1
1
5
21
5
-14
18
3
-4
-2
-2
-22
0
28
69
24
4
1
4
2
-9
-17
-93
-25
-5
-5
-16
10
7
-14
-32
-16
0
-2
10
-14
-22
-23
-32
-4
0
0
2
16
13
46
55
3
-3
0
-5
-14
-6
-47
-7
8
-3
-2
8
14
-1
18
9
1
-1
-1
-7
-6
4
29
93
21
5
2
-2
3
-4
-20
-78
-10
-1
2
3
4
-11
-18
3
-7
0
-3
-9
1
-2
23
-43
-16
-2
-4
-2
1
7
-1
-1
3
0
0
1
-8
7
44
35
5
2
1
2
4
1
-20
-17
5
1
2
5
1
-5
-6
23
8
-1
0
-1
-6
12
-7
64
14
0
2
4
-6
-5
11
-15
6
-1
-1
-5
-10
4
5
-4
-25
-5
-8
-6
1
-11
-43
-16
-6
3
2
-1
-6
0
12
3
21
0
1
0
-3
7
-9
0
-16
-6
-9
2
28
2
4
18
6
-1
-2
-9
-46
-15
-10
-17
-6
-4
1
-4
-10
1
-1
-3
-6
4
11
6
-3
1
12
-5
6
0
-1
-5
3
0
8
11
-1
2
2
4
15
1
-1
56
5
-4
-10
-5
-2
-8
-13
-54
-22
-6
-5
-1
-1
-4
1
19
7
2
4
-3
-4
5
31
9
-2
-1
-2
0
13
5
-4
64
19
0
3
5
-2
-1
-44
-45
-9
-5
-5
-2
-1
1
17
22
1
2
-2
1
-3
-5
-7
-8
-5
-1
0
0
2
-3
-3
-21
-3
-1
-1
1
3
5
-6
-6
-9
-2
-3
-1
-3
0
-7
2
1
-3
-3
-1
-2
1
1
0
3
0
2
0
4
5
-9
-19
-3
0
0
1
0
-1
18
1
-7
-1
-2
-5
-2
-4
-16
-16
0
-2
-3
-1
-7
-8
2
13
1
-1
4
-3
7
4
-2
-10
0
1
1
6
0
-1
-1
13
1
-3
-5
-5
-1
-1
-5
-60
-12
-3
-3
8
-2
0
2
0
9
0
4
0
1
-4
-9
-23
-16
-3
1
-4
2
0
17
62
11
2
2
-1
-2
-3
-14
-33
-6
-2
-3
-2
-1
0
0
2
2
-2
-12
-3
4
-2
0
15
3
0
5
2
-3
-1
-2
-15
-2
0
1
2
2
5
0
19
2
-1
0
-3
-1
2
-1
8
0
1
5
3
2
-1
0
-19
7
1
-4
-4
-1
-1
6
-13
-10
-2
-4
-4
-3
-3
-20
-26
-11
-2
0
4
-3
0
2
9
7
0
0
2
1
-7
-10
9
4
-3
-10
-9
0
2
6
-1
-3
-1
0
-1
-1
2
5
20
4
1
-1
-2
0
3
1
-6
-3
-1
-2
0
0
4
-1
-22
-5
-2
-3
-1
0
-7
5
4
0
2
1
0
-1
-5
1
36
0
-3
1
-7
0
4
-3
-24
1
0
0
1
2
1
2
13
1
1
3
1
-2
1
0
2
3
0
-2
-3
-3
-4
-4
-15
-5
-1
0
2
-1
-7
-13
-46
-10
-2
1
0
-1
-1
-6
-2
-2
-3
-3
-1
1
0
5
-7
0
-1
-1
3
0
1
5
16
4
1
-1
-4
-1
1
8
36
4
0
2
3
-1
-1
-4
-18
-4
0
-2
0
-1
-4
-10
-21
4
-3
-4
-2
-2
-1
8
3
-1
0
1
0
-1
-1
-9
11
3
-4
-4
-3
-1
-3
2
7
-5
-1
2
0
-1
3
5
1
1
0
0
0
0
3
2
-11
1
-1
1
2
1
0
8
7
-2
1
0
-1
-2
1
-12
-32
-9
0
-1
-10
-1
-2
-1
-9
7
1
3
12
-1
5
15
46
23
2
0
1
-3
-10
-14
-41
-20
-7
-4
-18
-2
-1
1
24
-3
-4
-5
5
-3
-1
-4
3
1
0
1
1
1
0
-9
-59
-10
-2
4
12
6
3
7
35
32
7
0
15
2
-2
-2
-11
-12
-4
-7
-6
-1
3
8
18
-7
-4
-3
-9
0
-5
-11
-33
-10
-2
2
-7
-3
3
12
14
5
1
-1
-7
-1
0
-5
-46
8
1
2
-2
-2
-5
-12
-21
-12
-4
-5
-5
-4
-2
-2
28
2
0
-5
-6
-1
3
16
42
7
-2
-6
-3
1
0
-3
4
15
2
0
4
-1
-6
-9
-12
-20
-4
10
3
0
5
8
48
-1
3
7
1
-2
-7
-29
-99
-32
-3
-6
-2
-2
-1
5
29
-2
-1
0
1
0
1
2
1
2
0
-15
-6
0
-1
-5
7
2
-2
8
-3
-4
1
0
25
-5
-9
-3
4
3
-2
-6
11
-8
-3
4
6
-1
0
-4
-46
-7
10
10
1
-3
-2
8
75
10
8
-15
-12
1
0
-6
-44
2
-6
5
15
2
-3
-4
5
12
1
-7
-19
-2
8
20
36
34
8
9
2
2
-7
-19
-41
-18
-11
-12
-3
-2
-5
1
24
14
1
16
-5
1
2
0
-29
-42
-7
-33
-19
2
-3
-9
10
2
-5
17
10
-6
5
15
-11
-7
-10
-6
2
3
4
4
42
-2
19
-1
13
-2
-3
-4
-2
30
-5
1
-17
-2
3
8
1
8
12
-5
12
4
-4
-6
-6
-13
-11
0
8
-2
-4
-9
4
-11
-2
-1
-16
-7
3
18
28
-32
-10
7
-3
0
10
6
61
64
37
15
31
-2
-18
-20
-73
-13
-16
-38
-17
-4
-2
-7
34
-19
-11
17
-8
-3
-1
-10
-37
-20
-8
-6
-10
-7
-8
-27
-26
-80
-35
-4
22
0
1
-1
20
18
14
-5
15
-5
11
30
35
58
14
-3
5
-3
-10
-10
4
-8
-1
17
-20
5
-19
-45
-77
-44
-30
-15
20
-3
13
20
13
-13
-10
0
3
-2
-14
-33
-64
14
17
-16
4
-4
6
19
81
53
10
8
-32
-1
5
16
-17
35
8
5
17
4
-11
-20
-15
-49
-13
5
11
19
0
19
24
-11
-13
-8
-25
-5
2
4
10
0
11
7
24
3
-3
4
32
15
-2
-23
-46
-11
-5
-12
-35
-34
-24
-1
-36
-7
-4
-17
-57
-36
6
21
66
8
13
33
75
32
16
9
18
1
5
26
-71
17
9
-15
-55
-9
-25
-55
-46
-34
-13
8
-5
-3
2
4
7
-17
-14
-16
-61
-7
7
2
17
-4
-1
-5
51
-7
-1
5
2
-6
-2
45
52
16
14
27
42
41
22
29
44
7
3
10
18
-42
-20
-5
-9
3
4
-2
11
82
28
-6
22
-4
-4
5
9
-10
-11
-26
-86
-8
-8
-15
-23
-22
-3
-18
-7
-3
10
22
19
32
3
16
31
8
-18
-28
-17
-48
-21
-14
-29
-14
-6
-16
-4
4
14
-8
-60
-10
9
13
9
21
8
10
49
16
9
14
34
-41
-16
-10
26
-1
0
-10
-62
20
29
19
34
9
1
3
28
7
-1
-1
-25
0
6
14
36
20
9
-4
-13
-10
-7
-1
6
17
-2
-34
-77
-8
4
-1
-23
-22
-21
32
37
10
15
27
67
53
1
14
44
3
6
16
0
-49
17
21
-1
1
-7
-16
-36
4
-1
-6
17
-2
-7
-2
32
-22
-6
-30
-46
-5
-1
-10
-74
-21
-25
-19
-13
1
6
12
54
52
16
12
18
1
-1
10
14
24
10
-7
-13
-10
-9
-14
-41
-26
-6
-30
-38
3
-6
-8
8
-27
-12
20
36
-1
0
11
21
-7
-13
-5
-4
-6
-1
-8
-46
33
31
20
11
3
0
1
41
43
2
-8
-34
-8
-6
-9
-43
-28
-7
-29
1
0
2
-5
-29
-47
-34
1
14
7
3
-3
4
51
13
17
39
10
5
23
17
-15
6
-5
16
1
-15
-32
-70
-44
2
9
2
-10
-3
-5
11
47
15
-7
-49
-6
-9
-12
-13
-40
-22
7
5
-2
1
-2
-5
6
-7
9
10
-1
15
29
63
42
1
-30
-12
-5
8
21
-1
-2
8
1
-22
0
-15
-24
-33
-37
-12
5
28
7
-2
-8
-44
-18
-8
-1
39
-2
4
22
93
7
7
-3
-30
6
8
23
55
111
-2
-11
-5
-20
-9
-27
-51
-88
-6
-3
-22
17
-3
-6
-23
-32
-13
3
11
2
5
-3
20
-30
7
9
14
1
15
26
57
96
25
-4
1
-10
-13
-3
-58
-30
4
-18
-37
3
-4
-13
3
-6
-17
3
-33
-5
1
0
10
-15
-1
5
48
6
-5
5
20
2
-3
-20
-21
-5
-6
-18
-35
0
-8
25
-8
-9
-12
-24
-12
-21
2
0
4
3
3
12
35
16
0
-9
-12
1
-11
-31
-72
-54
-9
-31
-2
-4
19
37
80
69
9
10
-7
-6
-10
-32
-54
-64
-8
-22
-9
-10
-12
-14
-42
53
10
65
8
12
4
11
17
-115
-34
-5
35
7
-2
13
33
92
70
6
4
-2
-6
9
37
17
1
-12
-3
-3
0
-5
-16
-36
-14
-37
-21
-6
-10
-17
-47
7
15
25
-14
-2
9
15
51
-17
-28
-8
19
-5
9
14
4
49
-10
3
-22
-3
-12
-25
-68
-53
27
12
27
10
-2
-1
33
11
0
-9
-9
5
11
1
41
-24
-9
-10
-18
-6
17
39
36
37
5
-4
12
-3
-30
-41
-76
2
-6
61
-18
-15
-13
-38
-88
-65
-15
-17
-6
9
7
6
6
-6
-12
-7
-26
1
16
38
71
30
9
27
56
7
5
15
39
22
7
-14
13
-6
-10
-22
-5
-13
7
10
-31
-2
-10
-13
-20
-29
-20
-32
-10
-10
16
28
30
11
-3
-3
6
8
1
5
58
-14
-24
-5
-17
2
4
-12
-36
79
38
42
47
13
4
5
12
-28
-1
-1
5
-1
-1
-4
29
4
16
8
-1
-2
14
31
9
41
-4
-23
-21
-4
-17
-29
-83
-72
-18
-17
1
-2
-4
-11
25
17
-14
-9
-4
-3
-5
-11
-24
-42
-5
-19
-28
-1
1
-5
-11
-16
-1
-5
36
-1
11
24
44
29
5
41
-47
-5
-15
-11
-31
-10
4
14
69
-2
-16
-26
-52
-9
-14
-30
-23
-3
13
4
18
-1
-5
-24
-8
10
3
5
-40
-49
-10
12
35
-4
-1
15
7
59
10
17
19
0
-6
-16
-14
-2
-9
0
-12
0
-9
-18
-55
-37
2
-14
-12
-6
15
23
44
49
13
-17
-8
-2
5
-6
4
19
-14
-37
-31
-4
-2
9
-3
13
11
23
0
-8
-5
-6
3
-12
-10
-1
2
2
-1
8
-7
-59
-13
-14
-3
5
4
13
35
-14
1
7
-13
0
1
3
1
67
8
-21
-4
-2
-11
-17
-10
-21
-2
-7
-9
-15
-6
-11
5
30
0
0
-65
4
-1
-5
-16
-39
-15
39
67
11
10
11
26
25
17
37
63
12
-1
2
-5
8
-4
-17
-7
-10
-13
-18
-40
-30
-8
-1
-36
-9
6
11
34
-29
-8
-30
-9
2
-17
-27
-47
32
-4
-11
-17
-7
0
6
20
-1
2
11
18
4
15
24
62
16
4
4
6
-6
-3
-14
-17
60
25
11
-17
0
6
12
-17
-81
-6
9
21
9
-1
-2
-10
0
-10
-23
-52
-3
-1
-2
23
47
-14
-27
23
-4
-4
7
3
-71
6
16
-8
-2
-5
0
6
-9
0
-6
-8
-6
-7
-12
-29
-24
-9
2
-19
4
17
34
57
25
10
-22
15
-3
1
-9
9
15
1
14
-12
-9
-15
-29
-31
34
-3
-20
-6
2
7
9
18
-6
3
34
37
8
0
10
17
35
14
53
38
-1
-2
7
-19
33
1
-18
-47
-12
-18
-38
-68
-75
-19
15
18
5
1
2
32
1
-4
-29
-17
7
1
3
2
-13
-3
4
40
0
4
4
-16
12
6
3
-21
-3
7
-3
-12
-41
1
4
-14
5
-1
1
2
16
-7
-3
49
5
-10
-14
-51
-69
-15
-20
-29
-2
14
27
34
13
0
-13
6
2
-1
16
13
-5
-16
-13
16
-5
4
-2
24
-31
6
13
-48
26
8
7
36
25
8
-11
5
-26
-10
-26
-78
-66
-16
-4
53
2
14
34
76
88
1
9
6
-7
-12
-12
-27
12
36
14
39
-16
-2
-14
38
-3
-13
-13
-96
9
4
-8
-20
-11
-1
3
55
10
-2
7
-9
-43
-2
-10
-18
-13
22
62
119
94
0
-37
10
0
-30
-47
-97
-37
2
40
-5
2
-2
-8
-9
-39
-13
6
-2
52
0
-8
-39
-26
11
18
-5
-80
9
18
38
21
3
-9
15
-39
19
45
73
91
-5
-40
-27
-3
-22
-34
-45
-15
17
12
2
6
-1
-9
-15
-35
-2
13
11
26
-2
-11
-32
-24
-6
10
-15
3
5
16
55
52
21
-1
37
-11
-16
-23
-37
-11
-14
-4
-27
-16
-7
-18
-63
-23
-16
-21
-26
14
-4
-13
-7
-12
-3
1
1
-6
-6
-6
-33
-7
9
-10
21
16
19
49
107
91
7
-15
-13
-16
-12
-29
-38
-83
-14
-1
-14
10
-4
-9
-32
-50
-21
4
-8
2
-1
3
14
8
-24
16
8
0
5
7
36
48
57
43
30
-1
2
-4
-40
-24
-3
-13
-40
4
-2
-10
-4
-2
4
4
-5
3
5
15
29
0
-7
-30
43
8
-11
-21
-33
-12
-11
9
5
-9
5
-5
21
40
4
19
22
13
-4
-3
-15
-22
-4
-7
2
3
3
4
15
-5
14
-16
-36
-12
-3
-2
-3
-7
-22
-24
-63
-16
1
-5
3
12
18
35
46
25
-1
-7
-49
-7
-16
-23
-10
2
-3
1
14
5
4
14
14
-3
2
7
23
18
-5
-11
-6
-4
4
13
21
-87
-38
-19
-14
-2
2
7
17
123
53
9
-10
0
-3
-5
-8
-49
-3
23
46
8
-2
-2
-15
-31
-14
-11
-10
4
-2
-8
12
-11
2
-6
-24
-6
7
14
23
-14
-18
-14
24
4
-7
-23
-71
9
9
-3
4
-5
0
4
38
-3
-5
-22
-20
-9
-2
15
35
42
3
1
-9
1
-8
-8
-15
-37
-18
10
13
4
-15
-31
-44
-23
-7
12
16
4
1
-2
-21
-34
-10
-3
11
-6
1
1
0
47
9
-28
-37
0
7
19
58
21
0
4
12
-2
-17
-35
-104
-86
-15
18
11
-3
-1
-5
-8
31
-10
7
-36
-2
8
13
28
-30
15
24
6
6
12
13
34
9
-5
-9
-3
0
1
10
26
53
15
-10
-13
-2
-2
2
38
-5
-14
-7
-10
0
-5
-8
-67
40
20
3
-6
1
-14
-8
26
-24
-1
-22
9
-4
3
-10
-53
-17
-4
-15
-19
1
-1
6
26
7
0
-21
3
-1
-2
-2
31
13
-3
31
25
-5
3
3
-13
-26
4
32
10
3
6
18
44
57
0
-3
0
-2
-14
-26
-71
-48
7
-7
0
0
-5
-13
-7
-9
-14
-15
-9
2
-2
-7
0
-13
0
2
-1
-6
-4
9
-22
-18
-10
5
-14
-1
5
14
29
40
8
-8
12
-4
-7
-18
2
-67
-23
-21
-8
3
-6
-26
-88
51
19
-2
-26
25
2
-8
22
5
-10
11
8
-14
13
15
6
39
18
-13
-5
-2
1
15
42
3
3
28
38
-5
-9
-16
-21
-24
-2
16
-18
-2
6
19
-15
-39
-4
-19
-4
15
1
-9
4
-25
-13
-5
-13
-4
-9
1
36
33
-2
3
3
-18
-4
-25
-41
-29
-14
-15
-36
-7
3
11
20
13
10
-25
42
18
-14
-19
23
-3
-5
28
-4
-22
0
-3
-44
-11
3
6
-15
18
2
10
24
8
-2
22
28
-29
6
13
15
3
7
-9
-5
-3
-12
-17
-12
-6
-13
-1
16
5
8
8
0
2
-1
-28
-32
-11
-6
-2
-20
-7
-1
-17
-12
2
2
-6
33
16
-6
42
1
-5
5
16
-10
47
5
1
10
9
-1
-1
-46
1
4
-9
3
1
1
-8
8
-1
0
0
-8
2
-3
-6
-6
-36
-10
-17
-23
-7
-2
-4
5
59
17
8
14
0
-6
-3
-16
-47
-12
-5
6
0
2
14
16
4
-4
-8
6
3
-1
-4
26
-3
-5
-2
-21
-6
-4
-9
-21
-28
-8
3
3
1
7
14
28
45
13
17
-10
-5
2
0
-7
-5
1
0
28
19
-7
-10
-6
2
4
-1
-13
-2
11
14
-6
-20
-4
-4
-2
25
-2
4
56
28
8
-7
5
-50
-1
3
-52
-12
-7
-3
-19
-16
-8
-16
16
2
2
3
1
21
1
4
-6
-19
-2
-3
1
18
1
-7
-42
1
0
-8
3
8
-3
-7
-8
1
-2
7
0
2
2
8
-3
2
1
-2
2
-7
-1
-6
-19
-28
-4
-2
-2
-6
-2
-6
8
16
3
0
5
7
-3
3
24
0
-2
-7
-3
-12
-6
2
-2
6
4
5
0
1
-1
1
4
-19
-6
4
7
-34
-3
1
-3
18
2
-6
-10
30
2
-7
5
1
1
5
17
-5
-3
-7
1
-10
-1
2
-14
-56
-5
2
0
-7
-1
-1
-4
56
5
3
19
3
-1
-12
-8
37
10
5
33
11
1
5
9
49
-6
-4
-15
-6
-3
-3
-2
-30
-1
-13
-32
-17
-1
0
-5
4
4
12
-3
7
2
3
13
12
-18
-8
30
-13
-6
-6
-14
14
5
1
-15
2
0
1
-2
-13
3
-9
21
7
-1
-1
-1
4
-6
20
-4
-2
-2
-4
-1
18
1
-5
-10
4
-1
1
1
8
-2
6
-4
-8
-2
-1
4
15
3
17
44
14
0
-2
-9
-44
5
-31
-10
-2
-1
1
6
31
-1
-4
13
1
2
1
0
-24
-11
1
-44
-9
0
-1
-2
43
10
9
-7
-13
-3
-5
-5
-48
2
6
15
4
1
2
6
-19
3
7
10
9
2
3
-3
-8
-9
-18
0
-1
-4
-3
-1
-3
0
12
-21
-9
-1
1
1
8
-15
9
43
3
-1
-3
-5
-16
7
-9
-18
-9
-3
-3
-5
-20
20
18
23
10
3
1
0
22
-24
-18
16
4
-1
-1
2
-7
-11
-13
-48
-13
-3
-2
1
9
9
61
89
27
4
1
-3
-15
-5
-83
-85
-28
-7
-7
-6
-8
9
26
11
1
5
2
2
-33
11
-28
13
-1
0
-3
-2
-1
-6
-37
-32
-20
-6
-2
-3
-27
4
35
53
6
-1
-4
0
55
9
17
10
6
0
-1
-2
6
-22
-36
-20
4
1
0
-2
-21
-20
-12
-78
-21
-5
-6
-6
-11
-9
10
70
20
6
6
10
7
12
-24
-84
-14
-7
-8
-9
41
-2
0
12
-8
-2
-5
-6
-5
-7
-3
-17
3
1
1
5
-9
-10
-27
-9
-7
-3
-2
2
-23
-2
22
39
5
-1
0
1
4
11
21
44
16
6
7
6
-3
-3
-36
-88
-17
-2
-3
-5
2
-6
14
50
-3
-4
-10
-12
14
1
-1
2
5
3
2
4
-4
-1
-23
-7
1
-2
-2
-2
-4
7
53
29
-3
-2
1
-1
11
4
18
52
6
5
4
5
-13
-17
-23
-100
-10
-1
1
-3
8
17
-14
29
-3
-5
-1
2
-17
-5
5
68
6
0
1
3
-3
4
-7
-76
-10
-5
0
4
-3
1
-24
23
-3
-4
-2
-5
9
0
24
-7
10
4
2
0
-3
4
3
-14
-1
-1
-4
-6
14
6
-3
-29
6
2
2
4
-11
-11
-25
-14
-17
-4
-4
1
-9
13
27
31
10
2
5
5
47
-19
-22
-19
-7
-6
-8
-12
-36
-2
3
-4
4
3
1
-1
-11
2
20
25
3
1
-2
0
-11
-2
2
0
-1
0
-1
-1
9
-1
5
7
2
2
-2
3
-6
1
1
13
8
-1
0
-7
1
4
10
20
-9
1
2
0
8
-3
-1
-11
1
-2
0
3
-21
5
-5
21
5
1
2
3
19
1
7
-12
-7
-5
-4
-4
-16
0
-15
15
4
-1
-5
-4
1
-4
16
-3
2
2
5
0
-13
-1
-12
-32
-6
0
-5
-3
-1
6
1
7
-2
0
8
4
9
-3
13
0
8
1
-1
3
-2
-5
1
41
-5
-3
-1
1
-20
5
-19
-62
-4
-3
-1
-1
9
-6
27
16
1
1
-4
-6
2
0
1
19
1
1
2
4
5
0
7
-46
-6
-3
-6
1
-14
-2
-3
-2
1
-2
0
-5
19
0
-19
-3
-3
0
-1
0
-6
4
6
-1
-1
-2
-5
1
2
-9
-10
-34
-12
-4
-6
-6
4
8
22
48
15
3
11
4
-1
1
-9
-35
-11
-2
-2
-1
1
-2
-9
-40
-8
-1
-1
-5
3
-3
-8
12
1
-1
-4
4
-5
-3
7
23
-1
-2
-4
-2
1
-1
8
13
2
0
-1
-3
-4
-4
-2
23
1
0
2
0
-3
-3
-9
-8
0
-1
-2
-5
-8
2
6
-5
-4
-2
-1
-1
-1
0
-5
1
0
-1
-1
1
-2
-1
-2
19
-2
-1
-2
-1
-4
-1
10
-17
0
0
0
-4
2
3
-1
21
3
0
-3
0
2
0
-3
-11
-2
-3
-10
-2
-1
2
-15
-6
1
2
21
6
1
1
11
17
3
0
0
-3
-6
0
-2
-10
-8
-1
0
-1
0
-2
1
26
6
0
-6
-5
-3
-4
-8
-49
-1
-2
-7
-4
-1
-2
0
-8
-5
-3
-1
-3
-4
-1
-5
-4
-4
0
-2
-3
0
0
6
15
4
-1
1
2
-1
-1
5
13
-4
-1
-1
-1
-1
-2
-10
-1
6
-1
0
-1
0
0
5
20
-4
-1
-6
-4
1
0
-4
-13
4
2
5
2
-1
-4
0
5
-8
-3
2
7
-2
-2
-2
-13
-3
-1
3
-2
-3
1
-2
-3
4
-1
-7
-2
0
1
7
33
8
1
10
3
-1
0
-1
-12
-6
-3
-11
-5
-4
-1
0
-5
3
0
3
7
0
2
13
24
8
0
0
-1
0
-4
-20
-33
-9
-3
-13
-5
-2
-1
3
1
0
-6
-4
-11
-2
1
5
50
-3
-1
-6
-7
-1
-6
-14
-43
-7
2
11
10
-2
0
4
-15
-6
3
0
-3
-1
-1
3
2
0
-3
-13
1
-3
1
-3
2
4
5
22
2
-1
3
10
58
10
-2
-5
-6
-1
-3
-11
-82
-14
-4
-4
-6
1
-1
-2
21
-1
-3
-9
-2
0
-2
-1
-13
2
-3
-16
-9
-3
2
2
13
7
2
15
6
-1
-1
4
18
7
-1
0
6
0
3
8
-18
-7
1
5
-4
1
2
-1
-7
-11
5
-3
-5
2
-9
-17
-50
0
4
12
5
-5
1
6
87
7
-4
-4
-3
0
0
3
-21
13
-1
-9
1
1
-2
3
15
-8
-4
-16
-18
-4
3
1
-76
-29
1
25
12
3
-6
-9
8
-5
-6
-2
2
-2
2
10
62
19
6
-5
-4
0
-9
-20
-8
-10
-10
-7
-11
-8
-2
-1
-51
-31
-3
2
11
2
0
0
-20
-11
11
16
16
0
3
4
48
51
13
-2
3
2
-12
-13
8
0
-11
-15
-13
-2
-2
-6
10
-26
-10
-21
-10
-3
6
10
-21
11
2
12
10
3
-4
-8
-54
-65
-11
-11
-4
-4
1
-1
-14
50
12
18
11
0
2
3
102
50
7
-10
-8
-3
-7
4
-5
-33
-8
-9
-4
-1
-1
-16
-32
2
-1
-2
-4
1
0
5
-16
-54
-11
18
6
0
-6
-8
42
29
0
-21
-13
-2
6
2
-4
12
3
17
2
-2
-2
12
68
38
8
8
6
1
0
0
-28
-47
2
-4
-1
-3
-13
-23
43
20
-10
7
8
-4
0
0
15
-21
-13
-28
-40
-3
5
17
30
18
12
14
8
1
-1
-25
-30
38
7
12
-8
-4
-1
-1
-65
-51
-15
-13
11
4
1
-1
60
37
-3
-19
-5
-5
-2
18
0
-33
-5
-26
-17
-1
-10
-24
-42
-27
-27
15
17
-7
4
7
-3
4
30
29
-9
3
2
-7
43
28
2
22
34
-3
15
44
76
72
31
-5
-1
7
2
8
26
24
-14
-20
3
6
-1
-10
-38
-54
-11
-2
-5
0
10
14
-25
17
13
-4
10
1
-15
-44
-28
-45
-19
3
-2
-6
8
19
9
21
-1
-20
-9
2
5
7
48
33
6
-6
3
-1
-9
2
-28
-15
-6
-30
-36
-7
-2
-11
-17
-5
-12
26
0
1
3
12
47
16
9
35
48
5
-7
-19
-79
-14
-1
-22
-5
-3
1
2
15
9
7
7
-17
-5
1
0
-74
-29
0
12
9
5
-29
-61
-1
-76
-35
-20
-3
-9
14
32
48
66
15
2
1
-2
-1
5
-9
-50
-4
-17
-5
5
-10
-20
-40
-5
0
2
3
-5
10
15
-16
6
8
-12
-33
-8
0
8
69
11
-8
5
-17
1
-16
-32
-108
15
8
2
16
1
3
4
36
-16
-10
-8
-7
-4
10
22
39
51
19
-18
-8
9
-13
-17
-45
-78
-18
16
-30
-16
1
4
62
5
-7
-40
-60
6
7
4
13
9
14
72
127
9
-12
-12
-2
39
11
16
-39
-3
-1
-16
-56
-31
-15
-15
-16
11
6
14
43
26
7
24
82
-31
2
2
-34
31
0
-55
-128
-27
-6
4
28
-60
-10
-36
88
12
6
4
13
33
4
24
17
47
0
5
49
21
-2
15
127
2
-2
-8
-39
-10
-17
-15
-122
-19
27
52
-15
38
28
30
122
-1
-32
-45
-72
-51
-17
-66
-88
-50
-2
-22
-50
-42
-11
32
40
36
2
-1
56
-31
-11
12
127
11
2
3
-33
31
12
2
-128
1
11
35
123
18
0
-22
15
-8
-14
-35
-108
-2
-4
-27
-122
-26
-4
-7
7
9
7
9
-44
-9
-17
-27
-15
-19
-16
32
18
1
7
13
69
26
-7
-6
24
10
6
18
-27
5
5
23
-46
-7
14
27
24
-1
4
-10
41
10
-18
-40
-52
-63
-12
-41
-49
0
2
2
17
19
6
3
29
-7
9
5
-92
-56
-5
2
-40
5
-2
15
87
87
2
-35
17
3
9
22
24
-3
11
22
-14
-4
5
3
-40
6
4
42
40
8
3
22
127
53
13
8
21
11
-12
-28
24
-54
-8
-23
-34
-14
12
29
77
-4
-11
5
-19
-3
-5
-10
-52
-48
15
-1
25
11
1
4
31
45
1
-28
-8
-9
-2
2
-9
3
20
43
-37
3
-2
-12
-30
19
-1
-33
17
1
1
0
-33
-17
-21
10
-3
-1
-1
-7
-1
-2
-2
31
31
7
-7
-11
-16
-6
-3
-28
-5
2
-1
-7
-80
-42
3
-3
21
-1
0
-2
26
14
4
16
11
0
-4
-1
-4
53
-4
-18
21
-4
-3
-1
-2
-82
-22
11
3
1
-2
-4
-38
25
-1
-1
-14
-2
5
12
40
5
9
-4
-15
-10
-6
-6
-19
-20
-7
-11
-59
2
7
6
17
52
28
21
59
11
1
3
34
-18
-6
0
-4
-4
-7
-8
-64
30
9
-5
-2
0
-8
-14
-35
-34
-13
-26
-8
-3
-2
0
11
18
-4
21
-60
-13
-7
-10
24
20
1
-17
-21
-9
7
7
0
3
-6
34
74
11
13
14
16
-21
8
46
15
10
-17
-15
-44
-1
-7
-28
49
3
0
8
45
22
1
-19
-3
-6
-8
-10
-3
21
-10
-21
-128
-17
6
3
-11
-38
3
13
101
5
9
1
-27
-9
0
-37
-60
9
10
7
27
1
-5
27
85
0
1
8
20
-53
-10
-14
-61
-3
3
11
19
30
0
0
15
-1
-10
-14
-29
-34
0
-1
-19
4
9
15
79
45
13
-4
-14
-1
-1
9
42
40
9
-14
-7
-10
-10
-22
-62
-90
-33
-10
-52
-9
5
7
36
6
-7
9
30
-2
1
12
-14
-18
6
-20
-17
7
-8
-22
-26
-8
-12
-51
-26
-15
-21
-29
-33
-33
-12
10
-82
-20
4
-2
-24
-2
2
67
36
26
-2
-8
-12
-8
2
50
101
22
18
40
59
54
18
29
86
12
-15
-30
-51
-32
-12
-34
-39
-20
-9
-21
-19
1
-9
-16
-64
-14
11
15
44
-4
4
-18
-23
-2
4
8
-5
38
-5
-2
13
3
4
32
127
53
32
-5
-5
2
-18
-36
-109
-93
-32
-17
-17
-9
-2
3
28
-23
-7
-3
-25
-7
3
3
0
63
3
-6
17
-3
-5
-10
1
-11
10
10
-8
5
-1
-2
26
0
-7
-12
-17
-3
-2
-1
-43
13
6
-36
-25
-3
9
14
16
-8
-8
24
17
-1
9
11
43
49
15
21
17
0
-19
-25
-48
-58
-13
32
41
19
-2
-5
10
-1
-8
22
45
-2
4
13
37
5
10
-13
-40
-5
10
14
19
40
7
28
32
17
-2
-8
-31
-4
-6
-19
-8
-11
-2
-8
-37
-25
-3
-8
-7
0
8
17
23
1
18
-15
18
-2
-10
-15
5
-20
-22
-39
-74
-17
-8
-6
-1
32
3
0
-46
-5
1
0
-4
-28
-11
-3
36
8
-2
2
5
-15
6
17
0
-2
9
23
17
-2
-30
-57
-28
-15
-5
-11
-10
3
45
80
40
1
1
-8
-11
46
4
-3
-10
1
-5
-11
-2
-56
-5
-1
-16
-4
14
18
1
31
26
9
-19
19
-14
-17
-17
6
-35
-70
48
-27
-10
-16
-56
-31
-13
8
-94
0
-4
-20
-40
-18
2
25
94
15
9
22
23
10
3
-23
-27
-6
20
32
56
73
11
-24
-23
-8
-20
-23
-61
-42
-6
29
45
-8
-4
-12
13
8
-19
-9
-110
6
1
0
-24
2
8
26
124
20
14
16
9
17
17
-9
7
-5
-11
-9
15
-29
-27
-31
-6
-6
-5
-15
-30
-48
-13
-3
-35
-3
-4
2
5
-41
-5
11
23
5
1
-2
0
-9
1
7
9
-2
2
7
27
110
37
11
-29
-1
-9
-7
-29
-23
13
6
28
-6
3
1
35
21
0
-10
-29
2
2
6
11
-66
-35
-20
26
1
0
-2
-9
-5
15
51
9
1
0
-1
-2
1
-7
-24
-10
-3
-3
-3
-32
-12
-5
17
17
-3
4
7
33
4
17
1
-25
5
5
17
52
33
1
-34
-20
-7
-25
-19
-63
-1
1
20
7
3
-6
-9
-6
7
-11
7
11
-3
0
-3
-22
3
-7
-5
-41
-4
3
4
3
21
7
-11
15
-5
1
-1
-25
-67
-19
3
-30
-4
-5
-9
-2
-51
-31
10
85
10
7
21
37
100
58
13
7
7
9
-3
31
25
3
-13
4
-6
-7
-6
-28
-64
-16
-40
-54
-3
-2
-3
15
-29
-5
55
19
4
5
8
-24
47
9
-20
26
2
2
1
-40
-53
-13
-80
-66
-1
18
42
64
59
23
55
50
-14
-14
-31
-26
-30
4
49
-102
-2
4
0
12
7
-13
36
77
14
-1
3
25
-22
-5
-4
12
-2
1
9
22
69
15
-33
-3
3
-14
-25
-50
-6
-12
-63
-106
-29
3
-8
12
-35
-12
18
14
3
-5
-7
-8
-27
-10
6
3
7
-1
-18
-10
-23
-15
22
57
22
12
33
85
97
28
-18
78
6
-23
-32
-108
-105
-25
4
-59
-16
6
12
24
35
3
4
-10
1
1
-15
-18
9
-1
-15
-29
-8
5
11
61
-26
-7
-15
-15
0
6
20
22
63
16
-20
-5
-13
-16
-33
-98
-83
-27
15
-26
3
-2
-3
13
-2
-1
-13
26
6
7
6
-5
16
-7
-18
-22
-2
15
22
24
0
26
33
22
0
-13
-7
-10
-68
-2
-21
-17
-12
0
-15
-2
-13
-2
32
-42
16
-10
-14
-40
-19
3
30
102
13
0
16
57
48
-5
4
-20
-14
13
21
22
48
15
12
-41
6
-18
-34
-85
-45
-8
-16
61
-4
-2
-8
-5
-1
-2
-16
-46
-4
-4
-1
21
-6
-12
-17
0
4
2
9
18
23
-1
0
3
-8
6
22
29
-78
-22
-29
-43
-10
-1
-12
-33
108
68
19
7
4
-9
-24
-53
-72
-21
-9
-4
5
11
19
74
20
17
7
19
0
-7
-14
-66
-32
-8
0
10
2
2
-4
3
-45
-13
-7
-20
-10
5
9
29
24
-4
-22
-33
-7
5
5
14
32
8
21
39
13
-6
-6
39
36
3
14
36
2
-5
-1
-3
2
-12
-42
-29
-14
8
4
-9
1
-5
0
-63
6
8
19
50
-5
-1
-6
42
-10
-2
-11
-6
31
7
74
20
11
2
-5
-41
-47
-10
25
67
18
0
2
18
11
5
-16
0
7
-7
-11
-14
46
14
23
4
-11
-6
-7
-5
-44
-24
-74
-87
-21
-3
-8
10
-28
-11
2
-37
-2
-1
-6
4
-25
10
8
59
8
-1
1
-38
4
-1
-9
-21
-2
1
21
55
73
9
-14
-6
-8
-2
-2
-5
40
5
15
-8
-2
-7
-9
-8
-45
-19
-27
-45
-7
-12
-16
13
-38
-11
-3
67
11
10
24
13
20
-1
26
30
-1
-8
-21
-58
3
18
-26
0
3
-15
-20
-32
-30
-8
47
15
-1
0
-4
25
-10
-3
-33
-37
-6
3
2
-18
25
11
20
-16
-11
-7
-5
31
-9
-7
10
-12
-4
-6
-15
-28
-37
-25
-20
-1
1
-2
-12
-35
-3
13
38
36
9
6
11
48
34
2
-30
-39
-7
2
21
-3
12
-5
-18
11
-6
0
12
66
25
5
2
-8
1
-6
-4
-51
-48
-28
-16
-35
4
4
4
12
31
2
-5
36
5
15
12
31
3
10
-7
-11
-8
-15
-17
-51
-39
-4
-3
-11
-4
1
-10
-12
10
-10
36
24
2
2
10
12
-27
20
-12
6
1
4
7
9
-21
-5
14
-20
-5
3
1
17
16
-3
-59
12
-4
2
7
24
64
7
58
-43
-7
-8
-22
-57
-70
-13
25
10
13
-12
-17
-11
-9
-8
-8
2
-8
14
17
40
53
17
-29
27
0
-6
-9
-16
-43
-14
-21
-21
-2
2
5
4
7
2
-5
1
6
1
6
26
60
10
12
9
-1
-4
-1
-12
3
-24
3
-23
-5
3
7
-5
-27
6
-19
-17
-6
-8
-8
-8
-6
0
-8
4
-4
1
2
5
-60
-11
-9
-3
8
-5
-6
-36
-16
-3
7
-4
3
4
9
39
50
7
0
16
-1
-2
-4
23
31
-4
-14
-22
-10
-8
-12
-29
-49
-10
-6
5
1
9
13
33
81
17
14
3
1
-2
1
-6
-66
-4
18
26
4
2
-5
-39
-17
0
14
13
3
0
-7
-11
12
-2
-12
-5
2
-2
0
10
4
1
14
8
-4
-7
-7
-16
-12
-5
-23
-48
-11
3
4
-10
12
6
4
24
6
3
5
-39
-8
-2
-6
28
2
4
2
-11
3
7
12
-2
2
3
3
10
14
-3
-19
-6
-5
-13
-7
34
4
-3
-2
-7
-4
-2
-2
0
3
-5
-13
-9
-5
-2
9
9
-8
-1
6
0
-2
-2
-22
-43
4
5
13
5
0
0
0
26
10
-1
-10
0
-5
0
0
-3
13
4
5
-8
0
-1
-3
5
-22
-3
-5
-3
-2
1
0
-3
-6
-1
-6
9
2
-2
2
45
11
-1
-5
-8
-1
-2
2
6
17
1
-7
-11
-5
0
-3
-24
-13
0
15
12
2
-3
-1
-2
-3
-2
-3
2
0
1
-2
1
-2
1
-6
-8
-5
1
5
20
1
0
9
0
1
-2
-2
-2
-3
-1
-3
3
-2
-1
0
-33
6
-5
-7
-7
0
0
0
-9
1
-2
-3
0
-3
0
0
4
-10
0
4
1
2
1
1
12
6
-2
1
2
-2
-4
-5
-20
-8
-1
-3
1
-1
4
7
9
15
3
2
0
1
-2
-10
-7
-13
-6
-4
0
-1
-2
1
3
1
1
0
0
-1
-4
-3
-10
2
-1
0
-1
-2
3
-2
-9
0
-1
-1
-1
1
1
3
0
-11
3
3
-2
0
-1
2
-8
7
1
1
4
-15
1
2
25
11
-1
0
0
12
-3
-3
-34
-7
-5
-6
-4
9
3
-5
-6
-1
-4
0
2
61
-1
-1
-12
-9
0
-1
-5
-15
7
0
17
9
3
2
5
-10
-4
25
17
-3
0
1
1
-1
-3
-8
-36
-6
-2
0
-4
-15
2
-8
4
-6
1
0
2
13
0
5
9
0
-1
0
-3
1
1
5
23
1
0
-1
-3
-9
-8
-31
-19
-7
-1
1
7
-14
0
2
16
-3
-4
-2
1
78
0
4
26
15
3
-3
-8
-73
-4
-12
-77
-17
-2
2
3
-21
1
27
80
14
0
2
-4
0
-1
-12
-39
-10
-5
-4
1
10
-5
1
-26
-8
1
1
1
-6
-7
-18
29
8
-3
-6
-6
38
3
-3
3
9
-1
-1
3
10
4
30
48
0
-1
-2
-1
-29
9
4
-39
-25
-1
2
4
15
1
30
13
7
5
5
8
-19
-7
-7
6
4
-1
1
-6
-20
-20
-53
30
-5
-4
-7
-10
3
-8
-27
12
-3
-2
-3
4
24
7
8
-50
-14
3
-2
-3
-51
3
-5
84
25
0
5
7
-22
6
-2
-94
-12
0
0
-3
15
-13
-25
-23
-5
-2
-2
0
-12
1
-2
38
4
-2
1
0
48
6
13
-22
-9
-6
-2
2
8
14
42
83
31
8
6
2
-25
-13
-45
-61
-10
-5
-5
-7
15
-8
-4
4
-16
-5
-2
0
-19
-1
1
-28
-12
-1
-4
1
-12
-3
7
5
-3
-5
-3
-1
13
15
55
57
16
2
3
4
-7
-4
-67
17
18
1
1
1
-10
-7
6
-75
-28
-2
-5
-8
0
3
26
-5
-1
-2
1
3
-5
-4
-4
15
5
2
-1
1
7
5
-5
0
-3
-1
-2
3
5
0
4
-18
7
3
0
-2
5
-8
-18
-5
-2
-2
-1
0
-7
4
21
30
-6
-2
-3
-2
2
2
-1
-27
-11
-1
0
1
4
1
8
28
11
0
0
-1
-2
-1
0
22
-5
-2
-1
1
-16
-4
-12
8
-2
-3
-2
-3
8
-2
-5
-32
-10
0
-2
-3
8
8
29
-3
2
1
1
4
-3
-10
-47
-31
-7
-5
-4
-5
-10
0
0
28
1
-1
-1
1
6
1
7
4
-3
-3
-4
-4
-6
-3
-3
11
-9
-2
-1
-4
7
2
-2
-34
-3
-1
1
-1
-7
3
8
-2
6
0
0
-1
2
1
13
-3
2
0
-1
-1
2
0
-16
-3
5
0
-1
2
-7
5
12
13
-14
-1
-1
1
5
-3
7
25
12
1
3
-2
3
-1
-9
-4
-9
-2
-5
-3
-2
-6
-5
0
0
-1
-2
-1
-5
2
0
-2
-1
-2
-2
1
-6
1
1
13
8
-1
-1
2
-3
-5
-4
-7
-6
-1
-3
-3
3
0
1
20
4
1
1
1
-1
-1
-3
-18
0
0
-1
-2
-6
3
0
-2
1
2
2
0
3
-3
3
70
14
0
0
1
-2
-4
-10
-63
-22
-5
-5
-3
0
0
5
19
4
1
-3
-3
-5
2
5
-16
10
0
-9
-4
0
2
7
-3
-14
-4
-1
-1
1
-6
-11
5
-5
-1
4
3
0
-2
0
-19
3
1
7
6
-3
0
-1
-15
0
2
2
0
-2
4
11
8
18
2
-4
-3
0
0
-1
14
-11
-3
-6
-4
-1
-7
-9
19
6
0
-1
0
-1
-4
-9
-34
-5
-1
-1
-2
0
-2
-3
-65
-20
-2
-2
0
-1
4
6
21
10
-1
2
-1
-2
-2
-3
18
3
0
0
0
1
5
4
14
2
-4
-2
-5
-5
1
-9
-17
-7
-2
1
0
0
-4
-8
9
1
0
-3
-3
1
1
5
0
2
0
-2
-5
-4
-3
-5
-17
-7
-2
-2
0
1
-1
-1
19
5
1
2
1
2
-1
5
-10
-2
-1
-1
-3
-3
-3
-2
-3
-8
-3
-2
-4
0
3
8
23
3
0
2
2
0
-4
-7
13
-2
-3
-3
-5
1
1
2
-21
10
2
-3
3
-1
2
0
-6
3
1
12
5
1
-1
2
24
-6
-1
1
1
1
-1
-1
-43
-3
0
-2
0
-2
-4
0
22
2
-2
1
-6
1
1
2
8
-3
-1
-4
-1
-4
-3
-6
-40
-12
-2
-1
-2
-1
-1
-2
22
14
0
-2
1
-3
1
3
-2
-15
-1
-5
-3
-1
-2
0
-1
-3
-2
-1
-1
-1
-5
-5
3
8
-3
-1
-1
-2
-1
2
-2
-7
-1
-1
1
-1
-2
-6
-13
-3
2
0
0
-3
2
3
17
12
-1
-3
0
2
-2
-2
-46
-16
-3
-1
0
-1
-3
-6
-16
3
0
2
-2
0
2
0
-27
2
-1
-3
0
-2
1
5
19
6
0
-3
-2
1
-1
-2
-13
2
3
0
0
-1
0
4
22
4
1
-6
-2
0
-6
-9
-7
-4
-4
3
0
-4
0
-1
-8
0
2
2
-1
0
1
7
7
1
0
2
2
-1
-3
-3
28
-2
-2
2
-1
1
3
7
15
-1
5
-3
0
1
2
-1
-16
5
-4
-6
-5
0
-6
-9
4
-23
-12
-6
-3
-3
-2
-4
-13
-3
6
3
-4
1
2
1
10
2
-1
1
9
1
0
2
11
10
6
2
-11
-3
3
11
15
-8
-4
-1
17
4
1
-5
-14
8
1
3
-8
1
-4
-4
2
7
-5
-8
-9
-6
-8
-10
-29
0
4
-3
-68
-8
15
25
41
-14
-9
13
86
21
-9
-21
-22
22
18
6
16
-3
2
8
43
18
-6
-1
11
-2
-3
-5
-25
-20
-2
-5
-36
-4
-13
-21
-7
-15
-8
-14
-14
-7
6
2
21
-35
-12
0
-1
1
2
2
24
47
14
5
15
2
5
16
-6
26
3
4
11
-9
10
29
88
10
-6
-3
-35
1
-26
-48
-80
-70
-9
-15
-7
-10
-2
-12
-28
-13
-15
-9
-37
-3
3
6
24
-38
-4
-1
50
-3
4
9
-13
15
8
3
-72
6
13
29
37
53
15
17
94
14
7
-4
-41
2
9
-7
-30
-10
-9
-11
-31
12
-7
2
-4
11
-14
-33
-21
-28
-35
-13
17
-14
4
7
-9
-27
11
-2
-32
-1
14
9
-2
-47
0
2
9
8
13
27
85
26
30
0
36
-4
-17
-47
-70
20
15
39
-32
1
4
4
-26
-14
-15
-1
9
2
-3
12
65
-10
-12
3
3
-1
-1
-1
-52
50
1
-15
-6
-11
5
9
-36
-35
7
-16
-27
8
13
36
90
40
-15
-14
6
-10
-23
-35
-55
-88
-20
15
-20
9
-4
-11
9
-4
16
9
83
15
7
11
27
64
15
0
28
1
16
41
68
62
35
17
-13
0
-27
-42
-80
-42
-12
-25
-46
-20
2
7
53
-18
-22
-4
-6
-2
-4
-6
-4
-11
4
-9
-38
-2
-8
-13
-13
4
-13
-1
6
3
16
46
84
60
29
11
29
4
0
-26
-52
53
11
0
4
-6
-17
-27
-28
-108
-32
-13
-5
-5
2
-2
16
0
-18
2
-13
0
3
-1
-12
22
-1
-5
22
0
6
4
7
-27
-15
28
17
11
31
82
123
124
30
-23
29
-25
-28
-59
-109
-100
-24
-13
-128
6
3
4
17
-2
-8
31
123
23
12
25
64
-59
-66
-38
-40
-9
-21
-45
-78
62
75
50
28
2
-7
3
63
-88
-26
-16
-28
-3
0
-15
-73
-4
17
-3
-51
-8
1
0
-8
-30
-17
-9
17
4
-3
6
21
29
-11
-9
-30
-11
-1
2
-24
34
-9
-14
33
-9
-4
-6
-4
-17
-18
-17
-36
4
31
48
80
103
53
36
14
-8
-36
-54
-113
-119
-39
-47
-47
-7
4
9
18
10
15
39
34
17
6
16
36
15
-11
-53
22
-4
-4
-2
-21
-2
12
57
-19
7
10
8
29
25
-1
23
67
5
6
15
29
43
-10
-6
-12
-5
7
12
27
16
41
22
12
4
-20
-40
-87
-46
-7
-33
-22
-5
4
1
-14
-69
-14
-3
-54
5
-3
-6
-22
-29
-21
-11
42
-11
0
7
52
67
3
2
-36
-3
-11
-15
-30
-30
8
-15
20
6
9
15
39
25
-5
12
11
2
13
27
1
29
17
-6
-4
0
-7
-8
15
-1
-8
-10
-15
-15
-17
-23
-35
-36
-15
-11
-45
-1
6
0
-7
32
9
11
67
10
-12
-17
11
-57
-12
-4
-7
-11
1
8
-45
-4
5
7
-12
1
-9
4
19
11
-6
-45
-43
-29
-4
-19
-46
-28
-1
48
-26
18
9
-4
7
36
6
17
91
17
-3
-4
3
-17
-14
-1
-6
3
9
29
81
85
-2
-16
-16
-5
7
17
-8
-31
17
3
-7
3
-13
-20
-30
-64
-13
-9
-7
-4
10
11
18
-2
9
26
-12
8
1
0
-32
-63
-26
-5
52
3
-19
-14
51
56
9
-35
-51
-18
-6
-21
-37
19
1
9
5
2
3
11
47
-20
-3
1
26
-2
-6
-15
-85
-4
2
5
-28
2
17
29
36
8
10
-17
17
-12
5
7
1
-16
-5
-16
-38
5
-19
-26
-48
-43
-14
4
-62
-17
-4
-10
-5
-17
5
18
49
19
9
13
24
48
-14
13
72
1
-4
16
31
74
30
-23
-8
-14
-8
-30
-77
-58
-19
0
3
3
1
3
34
1
7
8
-43
0
6
6
-1
-17
-4
-7
35
3
6
8
33
46
11
6
-8
-5
-7
-10
-7
31
-5
-25
3
-1
11
32
65
4
-30
-14
-11
-13
-18
-26
-53
6
40
20
-30
4
6
-3
5
-34
-3
20
-27
6
4
2
-32
-4
23
22
46
7
2
-3
-1
-11
3
-8
4
4
-2
7
37
23
-15
-26
-17
-13
-2
5
1
9
-12
-5
-32
-5
-15
-29
-37
-27
-5
-9
-3
-1
0
-7
2
10
9
-27
-11
-8
6
15
9
-23
-8
-6
-49
-15
-19
-29
-54
-11
2
35
20
7
1
2
19
-13
-26
-3
44
7
-6
-16
-33
-4
15
27
70
19
-4
-4
3
-34
-16
-14
11
2
11
23
35
35
4
-25
-19
-13
-13
-10
-14
13
-2
-1
-27
-11
-6
-18
6
-8
0
7
-11
-2
8
21
-4
-30
-8
-7
1
8
-6
-15
-32
13
4
-2
-5
-8
2
3
3
31
-2
-3
-24
-3
2
14
60
29
5
-3
8
-4
4
5
-61
-29
12
18
1
12
1
-6
-34
-9
-12
-2
13
-2
-2
0
10
-10
2
-5
-10
2
0
5
-13
14
-13
-37
-28
-12
-2
2
49
30
-8
23
-30
-13
1
6
-9
-28
-2
-21
11
14
3
1
3
3
-1
40
46
8
-5
3
-21
-8
10
28
32
11
14
28
103
66
-4
-8
51
-1
-7
-16
-53
-48
12
-8
-58
-5
-3
-4
17
-4
-13
-8
-43
0
-3
-11
-9
-33
4
5
56
9
10
19
7
42
-27
-11
-20
-6
-11
-19
-17
-5
24
4
-4
5
2
11
5
0
0
-8
1
-2
-13
-18
9
-51
6
12
-42
-3
9
15
17
12
-6
-7
8
0
-12
-16
-22
-3
-19
-10
-11
-15
1
-6
-51
-2
-3
-9
-11
4
3
0
-2
-6
5
9
15
4
-15
-34
-40
-23
-7
-36
-9
-10
8
24
92
99
8
3
-38
-13
-17
-31
-44
-100
-31
-20
3
0
1
1
6
3
-5
31
-2
2
2
-8
6
9
3
9
38
3
4
15
32
42
9
4
-10
3
2
11
9
1
4
-17
3
0
2
4
53
-16
-13
1
18
2
-11
-25
-89
-26
16
5
5
8
-6
-13
-13
22
-9
-14
-10
-8
11
29
102
15
-10
0
-21
-11
-14
-22
-82
65
2
-10
-13
-5
6
11
20
-63
13
16
3
19
4
4
19
27
-8
-3
23
-3
-11
-24
-40
-54
-11
-9
-23
-14
-7
-16
-16
70
20
8
-1
1
-2
-10
-2
-2
-12
-12
-11
-3
13
18
26
9
20
1
3
8
2
16
30
31
9
21
5
-8
0
5
-18
-44
-12
-9
-49
-11
-9
-15
-23
-12
-9
21
19
18
11
15
18
-27
-1
5
94
11
3
-5
-2
75
23
11
-71
-7
-19
-26
-62
-81
-24
-11
75
8
-6
-8
-14
44
7
-6
-52
-11
11
24
42
-27
1
5
-8
1
14
27
24
91
21
1
31
-2
-7
5
-4
-6
-6
-22
-72
-21
-21
-39
-51
-74
-73
-23
-16
5
-1
-13
-51
-37
21
19
27
7
4
12
66
28
5
-2
12
4
10
13
-37
44
21
1
-26
-3
-6
-4
29
46
1
-5
10
-13
-10
-14
-49
-109
-26
-5
-23
-2
6
5
13
9
3
8
18
5
14
26
72
13
2
-4
12
2
-4
-5
-5
11
10
-21
-42
-20
-7
-10
-38
-30
-5
5
-7
-3
1
-6
-11
-4
4
47
-17
22
2
-8
7
4
0
21
104
18
-1
9
-9
-42
-20
-7
-22
-13
-12
-21
0
85
31
8
-4
5
-8
-12
-28
-70
-25
-36
-17
-12
12
7
29
10
-1
-7
-57
-6
10
17
45
21
23
0
19
-2
-10
8
-18
-13
-20
-11
-17
-4
-4
-13
-24
-40
-14
-11
20
3
2
0
28
-3
11
4
-39
-2
5
9
21
-9
7
5
36
2
8
7
23
12
-24
-10
-7
-8
7
19
47
127
48
0
22
-13
-18
-25
-62
-93
-40
-26
-81
-2
1
3
-13
-1
9
11
32
20
-7
-12
-65
-7
-5
8
45
-1
7
8
3
-12
-9
-10
15
4
1
8
31
9
-1
6
-4
-8
20
34
65
106
9
-11
-37
-8
-38
-69
-81
-71
10
5
-37
6
0
-7
-10
-48
-12
2
5
1
4
8
-2
17
16
15
33
7
4
-2
3
-8
-2
-1
27
5
4
20
29
-32
-33
-17
-3
-10
-3
4
1
88
39
2
-6
-4
-9
-8
20
-7
-7
-5
-19
1
-4
-17
-88
-18
0
9
-10
-3
12
18
34
-5
-14
-27
10
-5
-13
-18
-14
-76
-19
7
-35
3
15
11
-11
9
-1
0
33
3
-9
-9
22
-2
6
-10
10
-1
11
24
34
66
6
17
-30
-11
8
3
-29
-46
-5
-2
-12
7
-1
-3
37
30
4
2
33
0
-27
-46
-73
-54
-6
-8
-72
-10
2
-7
-15
-2
2
-6
57
20
6
16
28
-18
3
43
63
-1
3
9
-14
19
0
-3
-16
-1
-1
-5
-4
11
7
6
11
-5
4
7
5
21
-10
-21
-45
-8
-7
-6
14
-32
1
-16
-19
-4
-11
-21
-35
15
-2
-7
7
-6
-1
17
30
8
3
0
-15
2
7
1
14
-1
-1
5
-2
-2
0
-5
3
51
6
-7
13
-9
-2
-5
-49
-62
-4
1
-20
8
2
-1
2
-30
-4
-3
10
6
7
13
33
-32
-17
-2
3
-3
-8
-14
-13
109
42
1
22
-2
-4
-9
-10
-8
-14
-13
-39
-9
2
2
-1
-8
9
19
11
6
3
24
64
23
3
-18
30
1
-16
-18
-7
-21
-15
13
-29
-10
-2
-16
-52
13
6
-1
-46
-1
6
1
-9
-36
-11
7
66
14
1
5
15
11
20
22
29
2
6
9
23
14
-5
-30
-16
1
3
9
24
16
4
-1
-4
-7
-27
-28
-23
-35
-29
-13
-46
-17
3
2
-2
27
11
2
-23
0
0
7
-65
-61
-8
0
21
2
-1
-11
41
50
11
3
-8
-5
1
6
10
27
-12
-7
8
1
-13
-30
-53
19
19
3
-10
-2
6
6
-7
-55
-8
2
-12
0
4
23
45
3
-2
-10
11
-1
6
11
-9
88
21
12
28
-6
-6
-23
-41
-115
-31
6
-4
17
5
9
19
28
-17
-7
17
2
4
10
0
-4
8
-5
10
-2
7
4
23
6
3
-32
-17
-5
-1
3
21
6
7
54
8
-4
2
-1
-27
14
-3
9
2
5
2
16
15
-8
-9
0
21
2
-4
-13
-62
-25
-7
-3
-11
1
-5
-3
-5
30
6
-13
-18
-7
0
7
31
-30
1
-17
-9
0
-7
-9
-4
2
-1
4
6
-1
5
11
14
-8
7
11
-2
2
1
9
43
25
0
-11
-6
-5
0
-3
-30
9
-6
-2
4
-3
-3
-3
-16
-17
1
-1
4
1
-3
-6
21
13
1
4
-2
-1
2
-2
-19
-30
-4
-6
4
1
0
5
10
8
0
-1
-5
-1
1
-5
-5
-18
-1
8
8
4
0
3
-10
-16
-2
0
-7
1
-4
-2
28
14
-2
-3
-1
-2
-5
-9
-19
-9
-6
-8
1
6
-4
-8
-10
-11
-2
-2
-5
-14
1
2
32
12
5
6
0
2
3
6
2
1
-2
-11
-1
-2
0
9
20
2
-2
-4
0
-3
-8
-15
-24
0
-6
2
-5
-1
6
4
19
-7
2
-1
-12
3
-2
2
-9
10
-1
2
12
-5
0
-4
29
-4
-5
-8
-1
0
-2
1
-7
-4
0
-2
4
20
-3
-1
1
-4
-1
6
2
-26
0
-1
-15
3
1
-2
-8
0
2
3
-1
-10
-5
-1
-5
-10
1
4
12
1
0
1
12
-20
-4
-3
6
-13
-5
-1
-6
34
1
-4
13
12
-1
2
0
20
-4
-5
-16
-1
0
-3
1
7
0
1
1
13
-1
2
-3
-6
0
4
-7
-12
-3
1
4
10
-3
2
24
8
-2
-3
-10
-30
-2
-12
-21
-1
0
-1
2
10
-2
-3
-27
-7
0
-1
-2
-6
-5
-4
19
2
-2
1
-1
4
7
-6
2
3
1
-2
-2
15
-3
-7
4
5
-1
0
2
-17
5
40
37
1
-2
-3
-4
3
-7
-20
-81
-15
-1
1
4
-23
3
-4
-21
-7
-2
-2
-5
26
-4
10
14
13
0
0
-4
-26
0
-11
-29
-5
-1
-3
-3
47
4
13
-2
-37
-3
-3
2
6
-2
1
17
31
3
-1
-1
-3
1
-4
1
4
0
2
3
-11
-3
-4
4
-6
-6
-5
-1
4
-4
-4
-9
1
2
-1
-4
-11
1
0
-12
-12
0
0
2
-12
-1
3
4
1
-2
-3
-1
11
0
0
-9
-4
2
2
2
-10
2
-17
26
9
-2
-3
1
21
-4
17
-7
-8
-5
-3
-3
-40
0
0
9
8
1
-2
-5
12
4
-20
0
-14
1
1
1
7
-6
-3
-35
1
1
2
1
-31
2
29
0
-7
-3
-5
-6
-4
0
-6
35
6
3
1
1
4
-4
29
-80
-15
-4
-4
-9
-16
6
-38
56
12
3
1
4
4
-3
-30
-16
-5
1
3
4
-2
-6
-7
-42
-3
-5
-7
-7
14
7
-13
53
18
3
2
5
4
4
27
-33
-6
-2
0
-6
-5
-2
-3
-27
-7
-3
-2
-2
3
3
-5
14
-10
0
1
3
5
-7
-5
28
-2
-4
-2
-4
-7
2
31
71
20
-3
-3
-1
-5
-3
-13
-1
5
0
1
2
21
13
73
7
3
-3
1
6
14
-19
-91
-37
-11
-6
-5
-5
-51
3
24
3
-13
1
-2
-7
-2
7
21
38
11
6
2
2
0
-6
-32
-28
-13
-1
-5
-6
7
-3
6
57
5
-4
-4
-1
-4
-3
-18
-25
-9
-2
0
3
5
2
-2
46
8
-1
3
1
13
-2
8
7
4
1
3
1
-39
9
10
-30
-2
2
0
2
53
-5
-17
-22
-11
-2
-4
3
-2
1
11
-25
1
-5
-3
-8
5
-1
-12
75
30
4
1
1
-10
-1
-4
-9
3
-4
-2
-4
-6
2
25
18
-6
-4
1
2
12
-2
-32
27
-3
2
-2
-3
-3
-4
-2
-72
-18
-4
0
-3
2
3
12
61
21
8
5
2
-6
0
-1
-8
-1
0
-1
-1
0
-5
-14
-19
-10
-4
-2
0
-9
2
15
10
1
-3
-2
-2
0
4
4
10
-6
-2
-2
2
3
4
5
15
15
2
1
1
-8
0
-1
-49
-11
-1
-3
1
0
2
10
2
-10
-4
-4
-1
3
-1
11
4
-1
-3
-2
-3
-4
-9
-8
7
5
0
1
1
1
0
1
6
11
0
-1
0
-3
-1
-14
-38
-10
-5
-3
-3
-3
2
36
-45
-15
-1
0
-3
-5
-9
-32
4
4
-2
-2
0
-3
-1
10
4
-1
2
1
0
1
-4
-15
-3
-1
-1
-3
-6
-1
-2
-8
-24
7
1
4
2
-1
-2
1
2
12
-1
-1
-3
-2
-8
-7
-75
-45
-8
-6
-2
-3
0
-7
11
-2
-3
-8
2
-1
-2
11
38
2
2
15
-1
-2
4
1
-39
1
2
-1
-3
1
-2
-2
26
16
2
1
3
-5
3
-4
7
-1
0
0
-3
0
3
-1
-31
-9
2
-6
2
-2
-9
-3
25
10
-1
1
2
0
3
16
61
4
1
-5
-4
-3
-5
-16
-65
-11
-3
-3
-2
3
-1
-5
-32
0
1
-3
1
-2
3
2
1
-10
0
-1
-4
-1
1
-5
4
3
0
-3
2
-2
-2
1
22
6
1
5
3
-1
3
-1
-3
8
0
1
4
-2
2
15
50
-15
-4
-3
-3
0
1
7
-38
0
-2
-2
-6
1
2
-4
8
6
-2
-1
-2
-4
-5
-8
0
-3
-4
-5
-4
-2
0
0
-9
-2
0
1
2
-1
0
-1
14
8
2
2
3
-1
-1
-2
-3
-4
-3
-1
-1
1
-3
-2
3
-5
-1
-4
-2
-2
6
7
45
-5
-1
-1
0
-1
-3
7
-77
-9
-1
1
-1
0
-5
-8
-28
4
1
-1
-3
-3
-6
-13
8
-3
-6
-5
-4
-3
0
-7
-10
-1
-1
0
-1
-2
0
1
31
8
2
-2
0
-2
4
9
13
0
-1
4
0
0
0
6
4
5
1
2
1
-1
-5
-11
-24
-3
-2
-3
-3
-3
-6
-18
-59
-13
-3
-3
-4
-1
0
3
27
-2
0
0
1
-1
-2
-4
8
-4
0
-2
-1
0
2
6
-18
16
0
0
-1
-3
-1
4
30
6
1
3
0
0
-1
-1
1
-1
0
-2
-1
-2
-2
-8
-4
-9
-1
2
0
-2
-2
4
-10
-2
-3
-4
-2
0
-4
-10
7
-2
-2
-2
-1
-2
0
1
-1
-5
-1
0
0
-1
1
7
15
2
-1
-2
1
-2
3
8
28
3
1
1
3
1
-8
-30
-60
-17
-4
-3
-5
-2
1
-1
-38
6
1
0
-2
1
-1
-1
-15
-8
0
-4
-1
0
2
1
4
-4
-1
0
-1
1
3
11
29
6
1
1
3
0
-3
-6
25
-3
-4
1
-1
-4
-1
-3
-22
10
-1
-2
-3
1
-1
-1
-18
-23
-4
1
-3
3
1
2
31
-3
0
0
0
-2
-1
0
-27
-8
0
-2
-2
-1
-1
2
49
14
-2
-3
-2
-1
1
4
9
10
6
1
2
-1
-2
-2
12
-4
-6
-5
-3
-1
-1
-3
13
-2
-1
-4
0
0
1
-2
-63
-11
-3
4
1
2
-3
-6
-15
-5
-1
-6
-4
-1
-4
0
14
1
-3
-1
-5
-3
0
1
3
2
-1
3
2
0
2
-2
11
-7
0
1
4
-2
1
3
3
-2
-1
3
1
1
5
2
22
25
2
-2
1
0
-4
2
13
-11
-2
-1
-4
2
-4
-1
7
-8
0
-1
-3
-3
-3
-11
-32
-15
-4
-3
-2
-2
2
3
15
4
0
-2
1
1
-1
-2
3
5
-1
-1
-1
-1
3
13
44
13
3
-2
-1
2
-4
-14
-12
12
0
5
4
-2
2
-3
-40
-22
-6
-7
0
1
-2
-3
30
7
3
10
-2
0
-3
-6
-7
-8
-6
-12
-5
-5
1
-2
-5
7
1
10
9
-1
0
0
18
14
-2
0
-1
-1
4
3
-35
-11
-1
3
7
2
-3
7
35
-6
-1
-13
-4
-1
4
4
-18
11
4
2
-7
2
-3
-2
21
-10
0
0
5
-2
-8
-13
-26
-1
-5
-2
7
-3
1
5
-1
-21
-13
3
-4
0
3
15
17
48
29
4
2
-1
-7
-10
-18
-41
-15
-5
-6
0
6
-3
-32
-5
8
-2
-3
1
2
13
30
11
1
-3
-5
2
0
9
41
14
-7
-3
0
-2
-8
-24
-88
-49
-8
-1
-7
-3
10
20
45
15
1
-2
1
1
-15
-34
-54
29
6
2
-2
-7
-7
0
8
-47
-22
-9
-7
2
9
18
43
13
13
9
7
0
0
6
-15
-35
-22
-8
-3
-3
-8
-22
-3
51
30
9
1
-3
-7
-14
-63
-57
-21
-4
0
0
5
8
12
1
9
4
0
0
-10
-25
-25
-10
1
-9
-10
-2
9
23
33
-4
-8
7
18
1
-11
-31
-29
17
-5
-19
0
-9
-5
2
8
-9
-16
-6
-17
-2
4
14
17
32
2
0
-5
1
0
-5
-90
0
-2
7
1
2
-13
-28
-17
-20
-11
-2
1
-5
6
15
28
-12
-13
1
4
-1
-1
1
1
65
45
6
6
0
4
-2
14
-64
-12
0
-6
0
11
27
1
89
40
8
6
5
0
-2
-24
8
-11
-5
1
-1
-8
-16
13
31
-11
-4
-2
-5
0
7
58
-50
3
-6
2
0
8
16
31
-9
-7
-2
-8
3
-4
-6
-32
13
9
2
0
-2
-1
-6
-34
-45
-20
-8
0
-2
2
5
22
44
7
2
0
-2
-3
7
39
2
8
0
-7
1
-12
13
77
62
9
-2
-1
-2
-21
-33
-44
-28
-27
-6
-8
-7
-3
-5
-62
-65
-2
-2
-7
0
4
3
3
-26
-5
-22
5
-1
9
14
5
35
12
6
-19
-4
-6
-13
8
-25
-25
33
18
3
0
-2
-7
38
3
12
29
8
0
9
19
-14
9
16
7
1
14
23
35
4
18
-20
-10
3
-8
-3
-14
-44
-13
-15
2
-3
1
-8
-6
15
-10
-3
-18
-1
-1
-17
-44
4
-12
-10
-3
-1
-7
-16
-16
0
-20
0
7
-6
13
35
68
-1
26
0
-13
5
-12
-16
-39
-15
-10
-7
-7
-4
3
5
17
-9
-3
3
-1
-2
-2
-6
41
13
-1
2
0
-1
8
11
-46
0
8
-4
-2
0
9
26
39
14
1
2
13
3
-10
-14
-4
-29
-20
-36
-24
-6
-7
-20
-72
-13
3
18
12
0
8
26
38
10
13
17
-2
2
-1
-8
18
-4
-3
-10
-3
-4
-5
-5
-10
7
1
16
-32
-4
1
-5
-79
-8
-2
3
33
9
-3
-11
-4
6
2
-6
25
-1
-2
-2
14
41
-3
-2
-18
-10
-5
-14
-71
-77
-14
-4
5
1
8
18
51
15
10
-6
-6
0
-3
-3
5
-10
2
0
-9
-3
-15
-17
-24
-31
-16
-11
-4
2
7
16
12
43
6
3
-4
-2
4
8
-21
-27
-14
1
-3
-3
-2
-18
-20
44
17
-4
-3
-3
-4
-14
15
30
1
10
-2
0
9
12
-2
-33
-4
-14
-8
-1
-5
-1
9
-45
1
19
3
6
-20
-32
-29
-37
-23
-38
-32
-7
4
4
6
-6
-8
-8
-19
-3
3
4
45
32
7
44
39
1
6
7
6
11
9
-4
-9
0
4
11
20
37
0
9
16
3
-1
-1
13
19
-1
11
19
5
4
18
0
-10
11
-9
-6
-2
-6
-24
-16
-7
-3
-10
3
-3
-1
5
28
-12
-1
-2
-28
-3
5
6
-4
-50
-7
-12
0
-4
-5
3
-2
92
15
7
1
-3
8
15
28
-8
5
-7
-10
6
0
-7
3
-22
-6
3
-2
-3
-6
-7
-38
-25
2
0
5
-1
-12
-9
13
-8
-15
-15
-10
-3
-3
-3
26
26
-4
-4
-13
-8
2
5
-5
4
-5
-16
3
3
1
-7
-38
-11
-2
24
23
-3
5
-3
61
6
-1
2
-20
3
-4
-11
-89
13
1
11
46
5
-2
-6
4
-24
4
2
13
6
1
2
-1
-7
0
-17
-9
-4
-3
-2
9
-10
-3
-3
-4
-3
4
0
7
-12
8
-1
-9
-1
-1
2
-1
15
-3
0
-9
-8
-6
-13
-14
16
2
-10
-8
2
-1
-8
-37
-54
-19
3
4
-1
-2
4
50
28
2
-1
6
0
20
35
8
72
16
8
17
-1
-20
-22
-26
-19
-3
-1
-16
3
2
-4
-5
-67
-22
-10
5
1
-7
-8
4
-8
-3
-4
-4
-4
-4
2
20
-5
-10
-8
-16
-3
19
39
104
54
24
1
-4
-6
-10
-23
-67
4
5
-6
-10
0
-14
-26
-49
-64
-19
24
26
7
8
10
35
15
8
3
21
5
7
15
-2
7
3
11
-8
-2
-2
2
34
61
1
1
15
-7
-10
-13
-41
-79
-15
-8
-24
-1
-3
-10
23
-26
-2
-4
-13
-1
-2
-6
-84
-22
-1
-29
11
2
3
2
7
65
8
7
-19
-10
0
4
-1
5
4
1
-3
3
0
-6
-9
-58
-25
-3
-2
-2
1
5
-4
44
32
5
-7
-2
6
16
31
6
5
1
8
3
-2
1
18
20
-1
-14
-18
-3
-6
-17
-50
-7
2
8
2
-1
4
0
15
-15
-10
5
14
4
-4
4
-23
19
-22
-22
2
-4
-5
-15
-13
39
37
-7
15
-1
-3
8
3
-41
-13
-3
-18
-4
8
15
58
-8
1
19
-10
3
-10
-18
-63
-39
-1
10
5
-1
6
4
31
29
-8
-2
-2
-7
-1
3
17
45
4
-10
-14
-2
3
6
2
-25
-2
-10
12
0
13
31
25
29
16
-3
6
-1
-23
-40
-41
-36
-30
-11
-43
-10
2
5
-12
-18
9
-2
28
9
-1
-7
8
-57
-34
27
24
3
6
6
28
76
71
22
7
-2
6
17
46
-16
-7
-12
1
0
-11
-25
-96
-39
-10
4
-12
-3
-6
-19
-41
-17
3
-9
-10
-1
-3
-7
-12
-38
-26
-27
-1
0
8
18
41
51
6
14
11
-4
3
8
51
44
3
2
-6
-5
-8
-9
-16
-30
-17
-23
-17
2
-3
-1
-6
-42
-8
20
10
6
5
21
46
33
16
0
13
-2
-12
-13
-21
-14
-8
-1
-25
-6
1
1
-4
37
2
-26
-20
-7
-4
-15
-11
-19
-11
13
18
7
0
5
-17
-34
-22
2
11
-2
12
6
0
25
42
16
15
5
-6
-5
21
16
4
-12
-4
-10
-5
-5
-44
-42
-5
-14
-21
-1
-6
-15
-28
-6
-3
3
-6
-1
7
16
60
44
4
-1
4
-3
-5
-12
-31
-23
-20
-1
-18
-1
4
13
32
16
15
1
6
1
-5
-9
-18
-2
2
8
0
-4
-2
4
2
-6
-11
-40
8
-2
4
-2
1
29
17
50
9
4
-9
-13
17
-27
-27
-25
-21
-9
0
-7
-9
-4
2
18
21
3
-13
-17
-35
-14
-7
3
-36
-2
1
6
10
6
-11
-17
58
5
7
14
16
-4
4
15
15
0
-3
7
35
-2
7
-10
-40
-4
4
10
35
15
5
1
42
8
-16
-30
-92
-22
-8
-36
-53
-8
7
22
19
16
-13
15
0
2
0
-13
-10
-3
1
-13
1
-4
-5
-3
11
-53
-24
1
-13
-8
8
18
13
48
37
21
5
7
-12
-27
-30
-23
-11
-36
9
-6
0
5
-5
-18
-11
20
-15
1
6
0
42
16
2
-3
-12
-2
-6
-12
-61
-30
-14
-8
9
-3
6
6
0
17
5
5
11
-3
1
-8
-25
0
0
-10
-25
-1
-4
-1
-3
12
3
6
23
2
11
29
104
62
8
9
-5
-1
-9
-24
-52
-36
-4
15
33
7
-7
-16
-47
-15
-2
-15
6
-2
2
4
17
-9
-1
12
0
1
-11
-10
-12
41
-2
-15
-27
-7
9
22
46
44
13
-9
-14
-3
-11
-14
-27
-1
-19
-3
-8
-6
-1
-19
-17
-33
4
4
-1
-4
-3
-7
-20
-29
-8
-5
5
0
2
13
89
10
11
20
-13
4
-5
4
-17
42
10
-13
5
-3
3
9
35
-9
-7
-8
-11
-1
2
6
-2
-19
-10
10
-6
-5
-1
-11
-4
-6
11
-7
-16
2
7
10
11
-24
-8
-2
8
-1
-2
-4
-43
18
2
-6
-7
7
-4
-5
9
-21
4
32
66
9
1
-3
-4
-6
-8
-4
-10
-5
10
28
72
52
15
-9
-21
-10
3
10
-76
-21
0
7
-2
7
-7
-14
-16
-49
-12
-17
-10
1
-4
-8
-13
-19
-9
9
-2
2
1
5
14
-18
4
-1
4
-3
16
36
109
122
33
0
-5
-3
-10
-16
-47
-67
-14
0
-17
1
-6
-10
-17
1
2
5
9
1
2
-8
-32
-60
-7
-14
1
0
-10
-12
6
20
-9
6
-10
-3
9
13
38
-15
-1
-22
-4
-6
2
2
37
24
0
-15
-59
-12
-1
-1
-65
-10
3
43
53
24
-6
-12
-8
-37
-3
14
55
6
5
6
8
26
-3
-8
-8
-4
9
29
11
69
7
-37
-32
-6
-6
-10
5
-5
0
23
25
-14
-8
-27
-77
-103
-23
5
-58
2
5
8
21
14
6
2
68
9
0
-6
-17
-56
-8
-6
-10
-1
7
21
50
81
12
-5
11
-1
-2
1
-8
-10
-13
-12
5
-8
-5
-9
30
43
12
-7
-43
-6
-4
-13
-17
-14
-7
7
7
-3
-1
3
37
83
18
-2
-5
3
-3
-1
-86
-60
-7
-5
1
-6
-11
-30
-3
-34
-18
-9
-18
-8
-2
-12
-6
-20
5
25
17
10
7
7
29
23
-9
-21
-7
2
0
-1
-8
-6
-7
-22
-5
-6
-6
6
26
33
4
21
8
-6
-13
-22
-28
-24
-8
8
-7
-8
1
3
15
-21
-7
-25
-42
2
8
19
37
64
12
14
48
3
0
2
-7
-37
-8
11
-19
2
6
-1
6
-41
-16
2
65
15
-7
-3
-87
-11
6
6
11
2
-10
-9
20
26
-2
-26
-21
-6
4
11
-11
6
10
3
-9
0
2
17
23
38
1
7
-17
-6
2
1
47
9
3
-4
-12
-1
-2
-10
-52
-88
-14
2
11
3
4
6
12
4
0
2
-9
-2
0
3
4
35
12
-2
0
0
-2
-21
-45
-56
-19
-7
0
-3
0
11
50
38
10
11
5
0
1
-4
-11
6
4
-3
-6
-4
-6
-10
-11
-5
-9
-29
-22
-4
7
11
52
8
7
20
15
4
-3
-10
-35
10
-2
12
12
0
-3
2
-12
3
2
-21
-23
-5
-2
-17
-10
8
7
33
40
3
-3
-4
-48
-39
-13
-20
-24
2
6
16
72
28
10
12
3
-1
-2
-8
-22
-4
-6
-22
13
3
-13
-6
-36
-46
-14
0
-26
-4
-3
1
51
50
9
-3
9
-2
5
8
-3
-10
8
6
-1
1
6
16
4
22
10
10
5
4
0
-5
5
-30
-28
-19
-6
-7
-1
5
25
-39
6
3
-1
-1
4
-6
-42
-12
-11
-2
-2
4
1
1
17
13
4
7
10
-1
6
5
10
12
15
-3
-14
-5
-1
1
3
-11
-19
-31
-56
-4
1
-10
10
21
0
5
71
7
-3
1
-9
-47
-6
23
8
-3
6
8
79
43
10
-3
-12
5
-3
-9
-68
-31
-1
17
10
4
3
19
77
35
10
-23
-31
-3
-11
-29
-47
-23
-13
5
45
7
2
8
35
13
6
3
-3
0
-4
-5
-42
-6
1
1
-2
-5
12
10
21
-43
-12
-6
-31
-5
-3
1
-14
36
16
-2
-6
-3
-4
-4
-26
-40
-9
-5
-2
1
6
5
21
-6
3
5
7
2
-1
14
18
11
1
4
4
-1
0
-1
31
27
-7
-9
-23
-11
-11
-34
-95
-22
-4
3
8
4
-2
-1
4
-4
-4
-2
12
0
-2
-11
-10
14
3
3
-5
-8
-1
13
65
32
0
-9
-18
1
1
10
-3
-4
3
10
31
7
-5
-8
-17
-23
-12
-4
5
-2
-4
-5
-12
21
2
-2
-16
-4
5
4
-3
-8
0
3
-5
0
-3
-3
27
-10
0
-4
5
-2
3
8
43
44
9
0
3
-5
-7
-9
-67
-45
-9
-1
-12
-2
5
8
11
6
4
0
0
2
-2
1
-20
12
6
1
3
0
-3
2
21
4
-4
1
2
-3
-8
-20
-42
-3
-4
-4
-7
-2
4
1
18
-14
-1
2
4
-1
-4
-3
-26
7
1
-2
3
-1
2
5
8
-5
0
0
-4
-1
-5
-6
1
9
-1
-3
-1
-1
0
2
-14
-7
-3
0
1
0
1
-2
-20
-2
0
1
-3
-5
0
-2
-23
9
-1
-1
1
0
-6
-6
9
6
-1
0
-1
-2
1
2
6
-16
-1
0
-1
1
3
8
31
5
-2
-3
-5
-4
-2
-3
-43
-2
2
3
6
3
-6
-8
-5
-4
0
-3
-2
-2
1
1
1
-5
0
-1
-3
0
1
-1
-1
20
-2
0
2
-3
2
1
10
-12
1
-1
-1
-2
2
1
18
2
0
-3
-2
-1
3
3
-12
2
1
0
2
1
-1
-1
6
-7
-3
-2
-9
-5
-2
-5
11
10
1
3
0
-2
-2
-4
6
-4
-3
-9
-2
-1
1
0
0
1
-1
2
-4
-3
0
4
1
4
-2
-21
-8
1
-2
-5
-1
-9
-2
20
4
-3
-3
1
10
21
6
12
8
2
-3
10
-2
-24
-1
-2
2
-1
-2
-23
-11
-10
-4
-15
-4
-2
1
15
37
3
-1
-2
-10
1
-8
-11
-57
-12
-2
-2
-3
-3
-2
-7
-8
5
-1
1
2
-1
-3
0
-15
2
-1
3
5
0
1
-4
1
0
-3
-12
-4
-8
-1
0
7
-1
0
4
0
16
-1
0
23
12
0
-4
-2
-33
-5
2
-15
-4
-2
5
4
17
-2
-14
-16
-8
-1
-3
0
8
2
3
28
0
0
1
-3
-16
6
-5
31
1
0
-4
-2
1
0
19
-21
3
1
4
5
-1
-8
-16
-17
-3
-2
-2
0
-3
-2
-7
4
-1
0
-2
-2
8
-2
6
11
5
0
-2
1
7
0
-5
3
-1
1
4
1
-6
1
18
-2
-1
0
0
-1
4
1
-12
5
-6
-4
-4
-1
-14
-5
9
-21
4
-2
-1
-2
33
3
0
0
1
3
3
-5
5
-2
-25
-37
-12
-2
-8
-4
4
3
22
13
0
-1
-1
5
-2
5
9
-17
-2
-2
2
1
-2
-3
-17
53
2
-2
2
6
-7
3
16
-30
10
1
0
2
52
-13
10
-30
-27
-7
-7
-14
-33
5
-6
43
11
5
2
0
-2
-6
-10
-36
-4
1
-2
-2
-9
-1
-1
39
-1
-1
-3
-3
-13
-1
-24
15
29
7
7
2
-2
0
6
-76
-40
-8
-5
0
16
7
5
19
-2
0
3
4
1
2
-12
19
1
-3
1
5
1
2
-15
31
4
-2
0
-1
-10
0
93
6
21
5
3
-7
-29
-22
-69
-68
-8
-3
-3
-5
-2
-4
-16
7
-22
-5
-8
-6
-14
4
6
-21
8
2
-1
1
5
4
-29
33
16
-1
1
2
0
10
8
-6
-9
-3
1
2
23
-1
33
18
12
3
2
-6
-62
-2
-24
14
2
2
0
2
7
0
2
17
-2
-2
-2
-5
0
1
24
-44
-4
-2
3
3
-3
-1
-5
-19
5
-3
-1
0
3
3
-4
4
-6
-2
2
-2
8
-5
-19
18
-3
-4
-2
-2
-4
-1
7
2
2
-2
-7
-2
-5
5
1
32
14
1
4
1
1
3
21
-8
-3
-3
0
0
4
-10
-32
-39
-12
-2
-2
-1
5
-3
-8
40
2
-1
-2
-5
-4
3
-1
-23
-8
0
-2
2
1
3
13
34
4
0
-2
-1
7
-1
-10
5
15
0
-1
-2
0
9
29
62
6
2
-1
3
-7
-4
-8
-65
-6
-3
-5
-4
-1
1
-24
-35
-1
-1
1
3
4
3
24
20
-8
1
-1
-2
1
-2
-4
22
-4
-4
-5
-4
-8
-2
0
-17
0
1
1
-2
6
-1
3
-6
6
-1
-4
-4
0
-1
-18
-10
-12
-2
-1
-2
0
7
8
-3
4
0
0
4
-2
-5
24
10
-3
0
1
3
2
-7
-8
30
0
-1
0
-1
-1
-5
-24
-91
5
0
0
1
-3
2
6
-8
-17
-3
-3
-5
1
-4
-7
35
6
0
0
3
-1
-2
11
0
-7
-1
0
-1
0
-5
-28
9
1
-1
0
-2
0
6
19
-11
-2
-1
2
0
-1
1
-15
-18
-1
0
-3
-3
2
2
21
2
1
0
-1
-2
2
-2
-23
13
-8
-1
-5
-3
-2
-4
-3
-21
3
2
1
0
-3
-3
-14
23
3
-2
0
-3
-1
2
5
-8
-2
-1
0
0
2
1
10
14
11
1
2
3
0
-5
1
58
-3
-2
-2
-1
-3
3
7
-62
-7
0
2
0
0
-5
-10
-19
-14
-2
-7
-5
0
-9
2
7
-7
-4
1
0
-1
5
2
-7
5
1
2
-1
0
-7
6
48
9
1
1
2
0
-1
-5
-18
-1
0
0
-1
-1
0
-4
-25
-4
-3
-4
-2
-1
0
4
7
6
1
0
2
-1
4
2
39
5
0
-1
1
1
-6
-14
-37
-13
-4
-5
-4
-3
0
2
21
2
-1
-2
-1
-2
-1
-8
-34
-4
0
1
0
-1
2
7
4
3
-3
-2
-1
0
0
6
57
5
-1
0
2
0
1
3
-25
0
3
1
1
-2
-1
1
8
-2
-1
-3
-1
-1
0
-5
-23
-2
-3
-2
1
-2
-2
-2
-53
-2
1
1
-2
1
1
4
9
4
-1
1
2
0
-6
-9
-14
-7
-2
-2
-2
-4
-1
-3
-3
0
0
0
2
-1
2
-9
-10
-13
-1
2
1
0
5
24
70
13
-1
-1
-1
1
-1
-6
-83
-6
1
-1
-3
3
-5
-20
34
-6
-2
-2
2
-5
-4
-4
-2
3
-2
-3
-4
-1
0
1
-9
-3
-1
5
0
2
2
10
29
13
5
-8
-2
-4
-6
-13
-19
-11
-5
3
2
-3
0
6
29
4
-1
7
4
0
2
1
-38
8
6
-3
-1
0
-6
1
23
-7
-6
-7
-4
0
4
5
-1
9
1
-5
-3
0
6
12
15
8
2
-7
9
2
-8
-16
-24
-18
-9
13
3
-5
-3
1
22
2
-1
-2
-1
0
-3
1
12
-6
0
-8
-3
3
0
-2
-19
20
5
-6
-5
-2
9
8
-40
10
10
20
8
6
-5
-19
-44
-38
-14
5
10
-7
3
-3
48
15
-2
-2
-1
3
-1
4
23
6
-7
0
-2
-5
-2
0
7
5
7
-39
-21
0
-6
-9
12
-4
1
15
-5
-2
-1
-1
11
-18
6
21
9
1
-4
4
2
10
-3
-6
-5
2
4
2
-3
3
4
11
4
-1
-9
-23
-39
13
-13
-23
-15
-7
3
11
42
-11
-10
-16
-7
-1
6
-3
-33
14
15
13
2
-1
-8
4
54
9
-4
-12
-6
-4
-2
-12
-16
11
-1
-3
1
2
3
3
2
-3
-2
6
-1
-1
-6
-17
-61
-31
-7
-4
-3
-4
15
20
4
-31
-8
-1
9
5
-12
-28
4
57
9
3
3
-5
5
10
52
3
11
-18
-2
4
1
9
-45
5
9
7
-20
-1
-11
-12
70
46
-3
1
11
-6
-8
-17
-37
-58
-20
6
-8
-1
-6
-5
-54
-59
-14
-6
-3
-5
8
24
51
2
14
-5
3
9
-5
-17
-10
-24
-4
-7
-8
-7
18
42
42
33
26
21
21
6
-17
-25
-74
-15
-29
-39
-20
-4
-2
-9
28
-29
-11
23
3
0
7
5
-12
47
3
-2
1
-2
-1
0
34
3
-9
-50
-15
3
7
4
-38
-3
13
69
23
3
7
15
75
32
9
4
10
0
-3
-13
-54
8
2
6
11
-6
-1
13
-13
-71
-10
-10
-23
6
-3
-3
20
-21
-9
-17
-7
-1
-9
-16
-19
-39
-27
-3
1
-1
3
-1
25
0
5
4
-6
-3
18
24
29
37
6
7
10
-1
3
9
-44
40
33
0
9
4
1
12
54
19
-2
-4
-2
2
-13
-18
-40
-23
-39
-22
-17
-8
-9
-7
42
52
13
4
6
1
-10
-16
-16
-71
-11
-1
-7
-1
0
-7
-61
-16
1
-21
-10
0
19
43
43
-27
-6
31
16
2
-19
-30
-35
17
23
6
-3
-8
7
19
56
50
-9
0
-5
3
10
14
2
9
15
-61
-18
0
-13
-10
-19
-5
10
58
-6
0
6
8
6
-20
-8
34
41
9
4
1
2
19
2
4
15
-1
1
10
39
15
1
-1
6
-4
-14
-37
-71
-24
-11
-56
-43
0
2
19
23
4
-2
8
-10
-8
-12
-13
-25
-5
-6
9
-2
-3
2
-2
-17
-9
-10
7
10
-1
7
16
109
95
23
4
4
-1
-10
-18
-69
-65
-2
-12
-13
-2
-6
-16
-30
-60
-22
-22
-11
2
7
19
27
34
5
11
0
-7
-7
-24
-26
-51
0
-6
0
2
-2
-8
-5
-14
-13
-4
-3
-4
1
6
-4
35
9
5
0
-4
-3
4
9
25
3
6
-2
1
1
0
33
-8
-4
-5
6
5
13
17
-52
3
5
-6
1
2
2
-1
1
68
22
5
-3
-7
-19
-29
-56
-94
-38
-6
1
-1
2
2
2
-21
-4
-11
-1
-2
2
19
35
12
6
-35
-16
-4
3
8
20
2
-1
32
12
-5
-7
-21
-54
5
-8
-13
-2
-5
7
7
25
29
14
49
30
5
-9
-6
-43
-44
-14
1
-6
4
12
26
62
40
15
-10
-3
-2
-9
-15
-23
-6
-12
-13
-9
-5
-12
-23
-76
-81
4
-13
-9
-6
15
32
88
91
3
-1
3
3
1
8
11
-51
-4
-11
-6
4
0
10
16
27
5
16
0
-3
-2
-14
-45
-34
-11
-20
-6
0
-2
-21
-38
-50
6
15
9
-1
-2
0
-7
-2
8
0
6
0
2
2
29
23
2
-7
-11
-5
-4
0
-5
-25
-12
-13
-13
-3
0
-5
-20
13
-13
4
4
4
-4
1
15
18
8
-12
3
2
8
9
16
12
16
26
27
2
-6
-4
17
35
4
25
2
-2
-4
-12
-24
-16
-4
12
17
4
0
-13
-35
-14
-11
-12
-12
-4
8
26
92
41
7
-13
-8
1
-1
-1
-12
4
6
-21
-3
0
-27
-38
-29
-51
-35
-5
-7
-14
-2
-6
-1
-51
-6
-4
0
1
1
1
-23
33
17
8
-1
1
19
29
33
23
0
-5
-1
-1
-8
-6
-21
12
11
-2
-6
-4
-16
-29
-23
22
-9
-13
-10
-4
-5
-17
-29
-26
-9
13
4
3
1
12
17
-19
7
3
3
4
14
15
43
26
6
-5
1
-4
0
5
3
3
-23
-8
-5
-3
-16
-35
-89
-60
-2
8
2
2
-6
-5
0
16
-5
-11
-8
-1
4
24
65
29
6
7
19
-1
21
27
39
77
20
-12
-20
0
-28
-45
-43
-32
-17
20
-11
-8
-5
-12
-20
-87
-25
-2
2
2
6
4
-52
-20
7
1
-6
2
3
1
-12
-22
8
3
5
0
5
30
66
51
9
-13
-1
-4
3
12
18
61
1
-11
-6
-11
-12
-29
-40
-34
-12
-2
-7
6
6
-2
-47
-16
1
5
8
-1
-4
17
90
-47
-16
-5
-9
1
-5
-7
-26
50
12
-3
1
-3
11
17
45
84
22
4
2
0
-10
-13
-36
-15
-7
-1
-2
-5
8
-2
10
-15
1
-4
4
4
5
12
-3
-42
-5
1
-1
6
-7
-8
13
-6
-12
-48
-26
-9
-5
-6
-27
-17
-18
47
22
-10
7
0
-47
-24
1
19
24
15
-1
-6
11
7
4
-2
0
-3
3
12
64
29
10
-2
-4
-1
9
24
7
52
6
-17
6
1
-19
-39
1
-29
-23
-21
-12
-5
-10
-16
-66
-64
-11
0
8
1
12
20
44
-15
-3
-9
-17
0
-1
7
48
76
10
13
-4
0
-8
-25
-64
-16
7
9
5
-5
4
-4
-3
-11
11
2
6
3
-2
-8
6
-35
-3
8
0
-2
-7
-1
-3
-73
-23
-10
-8
-1
9
25
39
127
60
7
0
-1
-15
-43
5
-27
-31
-19
-8
-4
-1
3
-24
-43
0
13
5
0
-4
-2
31
11
11
-42
-7
5
11
16
-8
31
-7
28
-2
-13
-12
-18
-57
-59
-9
31
26
8
3
1
-5
1
3
18
14
5
-1
-6
2
-11
2
4
-9
-3
1
5
5
-1
2
-17
0
0
4
15
34
57
9
-15
-23
-10
-7
-19
-36
1
-17
2
1
1
3
-7
-26
-89
-15
-11
5
7
11
24
39
-5
-24
-14
-5
-2
10
45
68
119
19
12
1
-10
-27
-48
-82
-75
29
13
7
15
1
0
28
21
14
14
3
0
-1
-10
-17
5
9
-4
-2
2
6
26
57
-16
-29
-11
-10
-3
4
13
43
9
-7
-5
1
-8
-8
-10
-37
-12
6
9
3
2
5
13
29
-40
-12
-25
-8
3
0
0
-5
45
19
18
7
-7
-6
-2
-64
10
-11
10
17
-1
-6
-20
-61
-54
-21
-37
-11
2
4
4
50
-7
-8
41
0
-1
12
24
67
14
7
-22
4
8
4
6
-16
68
47
9
-2
-11
-2
5
44
35
-12
-2
0
-1
-6
-12
-57
-61
-33
-34
-14
-6
11
22
14
42
23
13
7
12
5
5
12
28
9
3
-2
-2
-7
-17
-21
63
4
9
-12
-7
15
20
44
24
26
6
12
8
-21
-23
-29
-40
-9
2
-3
-5
6
7
-15
0
-20
-22
-10
-8
-7
-6
10
-21
-17
-6
-10
-5
0
5
27
25
-2
0
-1
-1
5
5
-10
-40
-12
-1
5
1
-11
-24
-3
23
-3
-23
-31
-3
0
-1
-50
5
4
13
23
7
-1
2
-13
-34
-5
-16
2
-1
-3
-21
-60
0
8
17
6
-1
0
13
1
-12
-8
16
4
3
-5
-11
12
-32
0
-1
-19
-4
-4
-3
-18
15
2
-7
9
-6
4
2
38
33
6
-13
-4
-3
-13
-15
-35
-25
-3
7
0
0
1
4
39
18
3
1
4
-1
-8
-13
-29
-90
-29
-3
-6
-5
-3
-9
11
39
25
-10
-9
3
1
6
62
-38
-16
3
2
-5
9
15
-15
4
-10
3
-3
-3
-18
-34
-79
3
27
-1
-4
1
-5
-12
8
-6
-8
5
0
-3
14
22
72
-14
-4
-3
-2
-3
3
7
62
112
22
4
4
-7
-11
-13
-57
-49
-23
-8
-17
1
-2
-9
-76
-35
-15
-4
5
2
8
12
32
5
0
-1
10
4
9
24
58
63
24
1
3
-4
11
23
13
-2
0
20
10
6
-15
-22
-15
-36
-9
-13
8
2
6
17
29
-10
-16
-4
-16
-1
5
5
-20
19
0
9
14
-4
-3
3
20
58
13
9
-9
6
-4
-1
-12
-40
-9
0
-7
1
6
3
-27
10
9
-1
9
0
1
7
-31
-16
4
-6
-1
4
11
7
35
-24
-37
-10
-3
-11
-27
-30
-21
22
48
-3
-6
-9
-2
-7
16
-10
-14
-6
-1
5
3
-5
22
-19
10
8
0
4
2
1
-33
-54
-26
-10
-3
-1
14
28
46
25
7
6
-2
-14
-13
-20
-28
-10
-3
-2
-1
5
-12
-21
-36
-65
-17
-16
-1
4
6
6
51
34
9
13
9
-1
9
20
26
19
-9
8
-6
-1
-6
1
18
35
10
-14
-12
-10
-16
-31
-66
-94
-32
12
-33
4
-9
-18
-46
-2
8
-2
50
2
11
9
63
29
1
5
5
3
-1
-5
-74
5
-8
-23
5
-2
5
24
100
-4
-45
-14
-24
-15
-12
-18
-78
16
60
26
-10
8
2
-11
-26
-60
-17
-3
0
4
1
8
66
19
13
8
4
-6
4
-2
-63
-58
-33
-16
-4
-3
17
46
102
94
45
7
-5
-5
-20
-40
-102
-58
-38
-19
-6
10
7
-1
32
-2
-3
10
-2
-2
-8
-12
-30
12
19
4
3
-3
3
2
54
65
0
-19
0
-5
0
1
-54
-28
0
-3
-7
-3
-6
-11
-26
-44
-16
4
5
-5
-4
1
15
15
20
4
-10
6
2
7
65
21
-23
5
48
-1
-2
-4
-39
-37
8
8
6
7
-13
-11
-25
-36
-5
-8
-4
0
3
7
15
23
10
-14
3
-2
-4
5
11
1
-12
-1
-32
-5
0
-1
3
3
-13
-12
-11
-5
-1
-2
5
6
9
8
7
2
1
4
-23
11
10
-3
4
4
-10
-22
-41
-35
-11
-14
-19
-1
-2
-2
-7
-45
-29
0
1
-7
8
16
-16
65
40
7
-5
-6
-12
-16
-31
-43
6
4
8
5
-3
-13
11
-31
-11
-5
-1
0
4
11
23
17
4
5
0
-4
8
9
6
28
-11
-12
-5
-1
0
2
46
55
11
3
2
-7
-9
-16
-54
-56
-10
18
-7
0
7
16
55
40
12
0
36
7
2
3
-4
11
-6
5
3
0
-12
-17
-26
-13
5
4
10
-2
-7
-5
-41
-64
-12
-12
-19
-3
3
17
112
31
-10
-1
-2
-4
-2
-9
-72
-28
3
1
1
4
22
32
80
26
-38
-10
-2
-5
-30
-44
-53
-10
69
0
-6
1
9
3
-2
-13
-3
2
-6
2
4
13
19
-44
-3
4
7
2
-2
-12
-6
36
3
1
-4
0
13
23
60
27
-18
-8
3
-5
-5
-7
-58
-5
-5
-4
-14
-7
-5
-13
-4
-21
-8
-4
-3
3
7
2
30
7
15
9
3
-3
4
8
-1
14
-10
-8
10
0
-9
-12
-34
1
10
2
-9
0
-4
-6
11
20
-20
-7
-5
-5
-2
1
13
-24
6
5
1
1
5
3
-7
15
-9
-2
3
1
-2
2
14
-13
-3
-8
-9
0
2
0
-15
27
4
2
-1
-1
-2
-5
-28
-33
-3
-1
4
0
3
-3
-4
4
-9
-6
-8
3
2
6
7
36
5
2
-2
-3
-6
-7
-3
-9
-4
-2
1
-4
-1
2
9
-4
8
3
4
1
1
-6
-19
-4
-12
-4
-4
-4
-2
-2
-4
-17
-2
1
-1
-1
2
0
19
1
-1
-3
-2
0
-3
5
7
-12
-2
1
1
3
1
-1
-13
10
-2
-2
-3
-2
0
-1
2
6
4
-2
-1
1
-1
-4
22
-4
-1
0
-2
2
-2
-3
-13
-8
-1
-2
-1
-9
0
1
-4
-5
-3
0
-4
12
0
3
-2
19
4
-2
0
5
1
4
1
-10
-4
-1
0
-1
-3
-1
-11
2
1
1
1
7
-5
-1
-3
-10
-4
0
-2
-17
7
-3
2
17
4
-2
0
21
-1
-2
3
-22
-3
3
2
10
1
0
-12
-5
-1
-2
-1
17
-2
1
-8
-5
-2
0
5
-29
-7
3
-2
6
1
-4
-3
-18
6
9
24
9
0
1
-1
-16
0
-3
17
8
2
1
2
17
-4
-10
-23
-19
-5
-3
-6
5
-1
-4
-3
8
-1
0
1
-3
-1
2
14
-4
0
0
2
2
-10
-13
3
-6
-3
-4
-5
-26
2
2
-7
-1
-1
-1
-1
2
-2
-11
0
-1
1
3
-1
-25
11
11
11
14
0
-1
6
89
-9
5
-23
-27
-3
-3
-1
-6
14
11
9
-2
-1
-1
3
20
-9
-5
14
-2
0
-1
-5
-43
-2
-22
-41
-8
-2
0
-4
-34
-1
0
-23
19
0
0
-1
7
-3
3
5
2
0
0
1
16
3
13
34
-1
0
0
0
5
-3
-27
10
6
1
1
0
16
-14
23
51
-6
-3
-4
-10
-56
1
-6
-78
-9
1
2
-5
-10
19
-11
22
10
2
2
13
34
-20
38
4
-9
-4
-2
-4
-2
2
-12
-18
1
1
2
1
20
0
-17
70
16
4
-1
-1
-2
7
24
-13
-8
-8
-6
-6
-22
8
-12
-40
-9
-2
-3
0
37
2
17
21
11
3
2
3
-32
-1
-31
10
10
-2
0
0
16
-15
-41
-48
-9
3
0
-1
8
10
55
127
21
0
1
1
6
0
-22
-111
-17
-4
-4
-1
39
-12
-26
-62
-13
-5
-4
-6
-46
-2
28
-1
8
2
3
-2
-4
-4
-34
-9
-17
-2
-1
-4
-9
0
-23
-17
3
-1
2
3
0
4
28
58
32
2
1
5
3
-1
43
-12
-45
-10
-6
-7
21
-11
-34
-82
-18
-3
-6
-7
-40
18
47
29
3
0
0
8
20
-12
-64
-13
-15
-3
-2
-6
7
-1
5
68
29
6
4
3
-9
2
-6
-47
9
3
1
1
-4
4
25
3
-2
-2
-3
-3
-9
-6
-18
-21
-13
-6
-5
-5
-2
2
-12
-11
3
-3
-2
-2
-7
-3
2
-2
-3
-1
2
5
-18
8
2
-4
18
3
6
4
4
-5
9
-12
-14
-5
-3
-4
-5
-6
-35
0
-4
-4
-2
0
9
-7
13
-6
0
-1
-4
-6
-13
5
4
81
29
1
-2
-6
-14
8
4
-41
-20
-3
-4
-1
5
-10
22
-24
-1
1
-2
-1
1
-13
-78
-4
1
-1
2
2
-14
-2
-2
-30
-21
-2
-4
-5
-8
6
42
105
5
1
0
-1
15
-2
-19
-20
8
1
0
1
1
13
19
-7
9
-1
1
3
-9
-4
-16
21
20
-2
0
2
6
5
24
-15
-36
0
1
1
1
3
-3
-26
1
-2
-3
-5
1
0
-12
75
16
-1
-2
3
4
-14
2
-18
-15
-2
-4
-6
-3
-1
1
-32
11
1
0
0
-7
4
-2
-6
-5
-2
-1
0
24
4
21
24
0
-1
-1
-6
-38
-4
-78
-54
2
1
0
1
14
-7
26
11
-13
-4
-2
-3
-3
-7
-25
-53
-17
-2
-3
-6
4
3
19
15
14
2
0
1
7
0
4
33
-6
-2
-1
0
-2
2
3
43
29
4
4
4
-3
-3
-17
-15
-16
-1
0
-1
-3
-2
5
-13
-8
-6
-3
-3
0
3
13
32
-8
2
2
0
-5
1
15
-21
0
-1
-1
1
10
-5
-43
4
3
-1
-1
-4
-12
-2
-7
-14
-2
2
2
3
1
4
28
21
5
-3
0
-2
0
1
6
8
0
0
0
0
-1
1
6
11
4
-1
-1
2
-2
2
-3
-28
-4
-1
0
-1
0
-6
-29
-48
-21
-5
-7
-7
1
0
8
32
8
4
0
0
-1
1
13
15
-3
-3
-2
-3
-3
3
-2
-5
-2
1
2
2
3
-6
7
-5
1
2
2
2
-6
-8
-12
-8
-3
-1
0
-2
-2
2
18
18
3
-2
0
6
1
-4
6
12
4
0
-3
-3
3
5
-5
-31
-5
4
1
0
2
-4
-7
-3
-14
-7
-4
-2
-2
1
2
-2
13
-1
-1
-2
-2
-7
-2
5
-9
-4
-6
-4
-2
3
5
30
18
3
6
0
-3
0
1
21
5
4
3
2
1
-2
-7
-41
-39
-7
-2
3
1
-4
3
-1
-3
-1
-3
-11
-1
-3
-10
-9
0
-3
-9
6
0
3
9
40
29
-3
-7
-11
-4
1
-2
-75
-45
-3
8
9
0
-2
9
37
12
8
11
-14
0
1
4
16
22
6
3
8
1
-4
-12
-18
-3
-8
-10
-4
-2
9
10
33
6
-2
-8
-1
-2
-4
-7
-61
-2
0
-5
-1
-1
10
26
35
-5
2
8
4
5
-10
-17
-19
-12
-14
-27
-4
-7
-1
-1
-15
1
-3
15
1
1
5
14
21
4
-1
12
-5
4
8
14
48
44
9
9
6
2
-2
-11
10
-9
-5
-8
-3
-2
-7
-6
-49
-53
-2
-20
-4
0
7
12
16
17
3
18
13
0
-4
-11
-41
-6
12
5
-2
-2
-3
0
26
-9
-4
4
-2
-2
2
14
54
41
18
1
4
0
0
7
12
14
4
-12
1
5
-15
-28
-51
-17
-25
-15
-15
-10
4
6
-40
-36
-11
3
7
1
-4
5
46
-11
-6
2
-5
-5
17
37
101
83
48
11
12
5
-10
-19
-87
-18
-2
-7
-1
-2
-7
-7
-4
-21
-6
-2
-10
-2
-2
-10
-34
3
-23
1
-7
-2
3
-3
0
-40
-9
-2
6
0
-8
-17
3
-19
5
-4
-10
-7
5
-1
-21
0
-3
6
13
0
23
52
36
127
50
20
8
2
-32
-54
-86
-116
-54
-72
-33
-4
1
1
-14
-41
-12
10
-21
-7
8
8
5
8
17
68
81
-2
3
5
54
-4
-15
0
-79
3
-2
-15
-60
21
3
22
116
16
8
21
62
-34
-42
-41
-14
-2
20
40
84
109
66
16
11
3
-26
-47
-83
-87
-3
-9
-7
6
-4
-12
5
-51
-10
-7
-49
-11
-1
2
24
-10
-4
-11
4
1
10
23
56
36
-21
-8
-22
-10
-8
-24
-16
3
-15
-21
-3
-12
-1
11
-6
-7
-3
-5
-24
-2
31
56
90
63
20
9
26
9
-42
-81
-99
-83
-18
-50
-59
-10
-2
11
28
22
4
49
42
10
-3
0
-2
10
-2
21
32
-4
-3
0
53
35
20
27
5
-3
2
3
20
36
1
-15
-49
1
-5
-11
-5
-80
-18
-38
-6
-5
-13
-37
-54
-20
-5
1
28
1
4
8
22
36
6
-2
-13
1
7
19
-35
11
12
2
37
7
-12
-29
1
-25
-15
-5
-13
-10
19
40
67
43
7
8
-18
-4
-7
-4
0
-13
5
-13
-24
-6
-11
-35
-61
-46
-22
-16
-2
2
12
29
46
36
13
12
-1
-2
13
19
5
-30
-4
-9
-5
-5
-10
-10
-24
19
-5
-25
-20
-5
0
-5
-31
-76
-15
38
-19
13
16
30
61
88
24
46
81
13
-11
-19
-8
-52
-9
-9
0
4
-2
-10
-87
-53
-12
16
12
0
13
39
51
56
18
-36
4
-4
-20
-31
-31
-13
-29
-30
-48
-23
-3
-5
-24
-30
-6
10
-18
8
7
-9
-20
-14
-1
6
31
2
-6
-4
53
61
20
3
0
-1
6
8
9
-33
6
-6
1
6
-2
0
10
35
-3
-13
-22
-10
-16
-21
-24
-27
-5
-11
-10
-2
0
1
-6
6
-11
14
-38
-4
11
17
39
12
9
-7
50
4
-7
2
-5
80
-13
-10
-66
-16
-2
-13
-50
-74
-6
22
66
24
4
5
3
-10
4
-19
-9
-4
1
5
-6
13
9
-30
12
-1
-2
-2
13
-7
13
83
68
5
11
29
85
109
-12
-1
-47
-14
-19
-24
-87
-84
-6
21
31
15
-1
-13
-42
-66
-13
-19
-9
1
6
15
72
12
14
-23
-4
-3
3
4
-18
26
14
2
-4
-4
-15
-22
23
-55
-27
-22
-12
-7
4
-3
-72
1
-22
0
-19
-6
-2
1
51
42
26
2
6
5
0
4
0
-9
15
6
-1
0
19
23
47
53
8
-10
-3
-6
-23
-34
-29
-48
-26
2
-11
-4
4
2
-33
-15
-18
-5
3
6
-4
-16
-12
-30
5
2
14
3
12
14
-20
-3
4
-9
21
5
4
20
51
37
15
20
-14
-4
5
22
21
42
6
-2
-15
-14
-37
-74
-93
-91
-37
-58
-45
-8
10
11
2
-22
-6
55
-15
8
4
14
35
63
17
5
60
10
4
-4
-42
-15
29
43
37
14
0
16
91
0
-2
6
55
-4
-5
-11
-45
5
6
-10
-25
-13
2
2
8
13
3
-25
-39
-5
1
10
58
14
-16
-27
-24
-14
-13
-15
-56
-38
-22
-2
-23
7
-1
-2
-16
-5
4
-3
6
0
2
6
36
28
12
14
-9
2
7
2
9
-9
-6
-26
14
-6
-4
4
-27
57
26
3
-20
-10
-9
-7
47
-30
-22
-7
7
6
8
4
-1
-20
0
-10
10
3
2
13
-3
1
5
4
-7
-3
-10
-21
-17
-14
-11
13
-11
-6
9
19
14
39
5
19
34
6
-17
-19
-22
-7
-6
-6
-12
-7
-5
-12
-14
-21
-17
-26
-16
-5
10
16
36
-7
17
12
-19
4
13
21
24
84
19
5
45
1
-6
-8
-27
-79
-9
5
-6
2
-10
-15
-33
-3
-13
-23
-14
0
12
14
46
27
-9
1
-9
0
-3
-8
-2
-12
6
-3
1
-4
5
13
-52
38
14
2
2
-3
-8
-8
-29
-18
-13
-3
-12
-3
-7
-14
12
12
5
0
2
4
0
3
-10
-15
-21
-21
-15
-2
8
7
33
7
15
18
3
-3
7
-2
-19
-3
2
-7
-7
-2
4
12
1
9
8
-28
7
-1
1
15
19
24
17
52
-3
-3
-16
-44
-46
-53
-29
-2
0
-1
-4
-9
-20
4
0
1
27
8
14
7
-20
-15
-9
-22
-5
-4
2
9
24
11
5
1
16
-4
-8
-16
4
8
-12
-3
-42
-7
-5
-9
-26
-30
-2
15
2
-2
11
10
38
-12
3
-7
-8
-1
-2
18
7
37
11
-5
-2
0
-7
-8
-3
24
5
-1
4
5
-5
-16
-13
-16
-8
-6
6
0
6
17
8
-59
-30
9
6
-3
-7
-8
35
83
32
8
-12
1
-1
1
-23
-91
-16
-12
-3
-5
0
7
35
53
22
-6
-24
-1
0
3
-26
10
2
15
21
6
-7
-30
-8
-49
-18
-35
-15
-5
7
17
-26
55
10
41
19
3
-11
-13
-4
-1
-7
-40
-45
-9
-19
-30
-41
-63
-16
-1
9
-12
5
-12
-19
-29
-11
22
-14
1
5
14
40
17
8
-3
26
15
9
18
8
4
14
30
49
5
5
8
19
37
15
2
-69
-4
0
17
35
-9
-16
-28
22
6
-44
-68
-52
-15
-17
-20
28
-18
1
2
26
-55
-13
8
-23
13
-2
-1
36
-49
-3
-7
36
2
1
16
-6
45
16
0
-38
-19
-6
-6
31
46
12
-4
-60
3
-5
-7
-14
-24
-14
-13
18
-2
2
-12
19
18
16
10
-2
1
27
51
76
38
-18
-47
-29
-3
-12
-20
-68
-53
-9
35
20
-8
-3
-21
-76
-68
6
13
-18
3
4
4
7
23
7
6
21
4
-2
-2
-10
-3
4
-17
-17
-4
16
34
72
77
10
3
-5
-11
-18
-28
-64
-34
-25
-11
-33
-3
-5
14
30
5
-2
44
106
29
-15
-14
-50
-15
4
-32
52
-3
1
5
26
20
0
-28
-44
-10
1
12
7
-9
-6
42
-17
5
8
8
-17
21
-15
-16
-11
0
-5
-25
-26
-55
27
22
5
5
11
13
10
-52
-14
-20
-6
10
-10
-15
18
-23
-11
-19
6
-19
-13
-6
-1
85
18
-5
-35
-6
11
3
-31
-47
-22
-1
18
4
11
12
-9
-31
32
8
-58
-10
10
17
49
12
17
6
8
-2
8
13
17
25
10
12
7
7
-14
-29
-38
-38
-14
-5
54
15
2
17
48
31
-4
-13
33
-12
-24
-13
-43
-16
-17
5
-109
0
3
5
-14
-1
3
2
79
-7
1
17
101
45
1
17
-25
8
-10
-34
-91
-63
-23
9
84
16
4
10
37
38
13
-15
17
-7
-6
-8
28
-31
-7
8
-11
0
1
-2
-14
-6
-12
-15
-58
-12
8
29
42
11
-3
-9
-37
0
0
-4
-5
69
19
-8
38
-2
-9
-31
-53
-28
-10
-13
-53
-10
-6
-19
-13
-93
-37
1
16
-5
0
-6
-4
101
56
7
-21
1
-3
-13
-14
-22
-9
3
30
1
-10
-9
7
4
3
-9
-38
-7
-4
-9
-41
-12
-2
-1
1
-9
-3
2
28
2
-22
-57
-31
-12
6
-5
-29
-36
-5
28
-5
2
14
14
1
22
17
51
67
18
-7
-6
-1
3
-3
-3
23
-13
0
6
44
3
-5
-13
-61
0
13
14
22
31
4
-5
73
4
-1
3
-22
-25
-23
-14
-8
-8
2
-2
-4
-40
-3
24
3
10
-6
0
-23
-22
-2
-1
1
0
14
20
53
35
11
-17
-28
-5
-16
-18
-6
7
-22
-15
-30
-12
-11
-20
-57
-51
-15
-11
-26
-7
14
12
5
38
10
15
19
6
9
16
10
39
21
-2
1
-2
-9
-14
-4
-42
-1
-4
-39
6
-2
-3
1
34
16
14
57
0
-1
3
10
-38
-24
-8
7
-1
-2
-3
-8
46
13
31
25
-8
1
10
2
-6
-2
5
-44
-1
-8
-9
-6
-27
0
7
6
16
9
7
45
15
13
27
77
9
3
7
-2
-4
-10
-41
2
4
-3
-3
10
30
-3
-13
-33
-19
-2
-9
-28
-15
2
4
-45
1
5
5
12
-20
-3
16
18
4
-3
6
2
-4
-3
-20
-16
-7
6
5
-16
14
-6
-15
4
4
-7
-1
9
-4
-16
-5
-32
-6
6
1
-15
7
18
10
20
0
-2
-16
8
44
23
5
-12
0
2
10
-47
-47
7
6
23
-2
8
14
64
46
8
-4
-7
-1
-2
-4
-68
-20
-15
-10
8
-1
4
5
14
-23
-28
-4
3
-3
-9
-22
-21
3
0
12
-19
-4
-7
-13
-16
-13
4
14
26
-1
7
18
58
-1
-5
-9
1
7
-11
-18
-76
7
4
-8
-6
3
0
-6
-6
-5
-6
-18
26
-2
2
6
-10
-5
-4
-7
-44
-10
-3
-6
3
-2
-8
6
26
6
2
7
33
27
12
-9
6
-6
-2
4
-18
-52
-6
8
-19
0
-4
-21
1
-11
-6
-4
-30
0
3
2
-49
-38
-8
4
52
1
-8
3
36
19
-5
-8
-25
-4
-5
-8
-10
69
21
0
13
-2
1
9
-6
-53
8
10
20
6
-5
-11
24
-20
-3
-14
-41
-9
3
1
-27
-56
-11
-18
-24
-3
5
24
59
38
0
2
-29
-12
-6
-19
-22
32
-8
-7
45
7
-11
-10
-27
-11
-3
13
-16
-5
8
6
18
-24
-6
5
11
5
5
19
49
11
8
-5
0
-1
-3
9
24
74
8
-12
-47
-6
-4
-17
-60
-28
-18
-11
-14
7
-3
-5
18
-36
-10
4
54
7
13
12
1
-31
-2
6
0
2
13
20
94
102
11
-5
24
-9
-8
-19
-67
-32
3
2
-15
1
-5
-3
23
-22
-12
8
-28
2
-6
-8
15
15
-7
-20
0
-2
8
22
23
16
14
5
12
-5
-1
4
28
-8
-14
-41
-29
-4
5
6
-7
-4
13
49
-6
-6
-4
-10
-24
-28
-7
-17
20
5
-10
-13
-16
19
2
22
-2
-4
6
11
13
23
7
-5
23
10
-11
-10
-26
-9
-8
11
20
4
-5
-9
9
-1
1
1
11
3
-2
0
-32
-3
-1
-6
-4
-5
-4
-8
7
-39
-22
-24
-54
-14
-2
-4
-7
42
9
-3
-16
4
9
1
28
-15
18
17
47
10
3
11
-18
-28
0
-2
6
9
-9
11
-26
42
-1
10
1
-7
0
-5
31
8
-13
-16
-16
-7
1
-6
-53
25
1
0
-22
-7
-10
-16
7
-75
-14
-8
1
5
17
28
79
19
2
14
-2
-6
2
5
-18
-3
2
1
-4
3
-8
-21
-32
-10
7
-1
13
4
4
3
-16
-22
-11
-12
-8
-3
-2
-6
-1
12
6
18
-18
-10
4
8
26
6
6
5
28
7
-3
3
-20
-37
-9
6
23
3
10
18
83
64
8
-1
15
1
-12
-30
-74
-31
5
14
23
5
8
5
38
-4
-9
-37
-19
-3
-4
-3
-4
0
-3
12
0
-1
-4
-11
-41
-19
1
2
-7
-4
8
15
80
55
16
5
3
-4
-15
-16
-41
-6
-5
-6
-9
0
-5
0
5
-7
-2
-10
-16
-4
-2
-3
-61
-19
-10
-4
-6
-2
5
-1
-8
-2
5
3
3
1
-1
0
2
-13
3
10
1
-2
0
1
6
13
-2
-14
-15
-2
-4
-5
-4
-7
1
2
-3
0
0
1
10
11
1
2
-1
-1
-7
-15
-32
-19
-8
-7
5
-5
2
6
14
18
-1
0
-5
2
-1
0
5
-6
0
0
-2
-1
-3
1
-11
-11
0
-1
-4
0
0
0
3
33
1
2
4
-1
2
2
-8
-40
-6
-3
-4
-3
-1
-3
-13
6
3
5
-3
-3
0
5
43
17
1
-4
-2
-2
-5
-6
-14
-6
-1
2
2
2
-2
1
6
10
-2
-3
-5
-4
0
-1
2
-3
-1
1
2
22
-6
-3
9
4
1
2
3
1
8
1
-31
-15
-5
-2
-5
-24
2
-2
-1
3
0
-1
-5
-15
-4
-4
0
-3
0
-2
-4
3
-10
0
6
13
0
-5
-5
1
3
1
-24
-21
-1
-1
4
9
2
8
25
35
5
9
8
5
-2
-3
-5
-23
-7
-4
-2
8
-2
-8
-28
-5
-4
-11
3
-22
-6
2
25
4
2
6
-6
12
0
1
-34
-6
1
-1
-4
6
-2
-7
11
11
0
0
-1
8
-1
-4
54
11
-1
-4
-6
-6
2
1
-32
-13
-4
-4
3
-1
-3
-10
19
8
-1
-4
-4
-3
3
2
-19
-1
3
4
0
-9
-1
-3
-7
-10
-5
-3
-3
-4
11
5
45
10
3
3
7
39
2
7
-3
-6
-1
-1
-3
0
-11
-13
-39
-1
-2
-7
-4
-19
9
18
16
4
-1
5
-1
17
-2
4
-24
-4
2
1
3
-8
-5
7
29
5
-2
-4
-8
-39
-4
-12
-44
-7
-1
-3
-2
4
-5
-13
-37
-12
-5
-2
-3
-5
-5
4
16
-8
-5
-1
-3
-10
5
-19
28
-1
-2
-3
0
14
9
31
34
8
1
2
0
-16
1
-9
-3
13
3
6
7
3
-2
17
-7
-11
-1
-3
-3
-3
0
1
-2
-5
-2
-4
-4
45
1
-20
2
-5
-1
3
2
7
0
12
-41
-12
-5
-5
-4
6
-18
14
23
9
3
-1
-5
-55
0
-14
-3
5
-3
-3
-1
27
16
26
17
9
1
1
3
20
-23
-39
-11
-10
0
-2
-6
-8
6
-2
77
15
2
1
4
7
-14
-8
-115
-13
-1
0
-3
-27
-4
-6
10
-2
-3
-3
-2
3
17
13
25
8
-1
2
4
-9
-13
-12
-22
-20
-3
-4
-8
-2
0
29
37
3
2
3
1
-4
-5
-25
8
-10
-4
-3
-3
-2
3
34
20
10
1
2
0
-2
-2
-34
-44
-8
-7
-4
-1
-2
-8
-21
-21
-1
0
-1
0
-11
6
37
11
17
2
1
7
-1
-6
-5
-9
-35
-6
-3
-6
5
2
-5
9
8
1
2
5
-4
12
-5
-23
-4
-1
-3
-8
29
-8
-8
30
4
2
-1
-7
-68
1
-18
-63
0
2
3
10
41
6
9
-18
0
-7
-6
-3
5
0
4
42
3
0
-3
1
-12
-5
-10
-7
8
-1
-4
-4
9
10
10
26
-3
-1
4
2
-2
2
-10
13
8
3
3
2
6
0
8
7
-5
-2
0
1
0
0
6
1
-5
-5
-1
-1
1
-11
-20
6
6
1
-4
-4
-12
2
-11
-6
-2
0
0
2
5
-1
-2
20
5
-1
-2
-2
-14
1
-13
-20
-6
-1
0
0
3
-1
-7
18
2
-1
-1
-3
-1
6
25
10
2
1
1
-1
3
0
-6
-24
-5
-1
-2
-3
-4
5
37
83
8
0
0
1
0
-3
-24
-80
-10
0
1
0
1
-5
-26
-15
-5
1
-2
-2
2
1
13
61
6
0
0
2
-2
-3
-9
-22
-5
-2
-2
-1
3
2
11
34
10
-1
-2
-3
-8
1
9
-9
1
-2
1
6
4
-8
-9
-5
-7
-5
-3
-3
-5
-6
-31
-37
-7
-1
-1
-4
-1
3
11
24
7
1
-1
-1
-2
2
-2
-41
-8
0
0
-2
3
1
-3
20
6
0
2
2
-2
-4
11
-38
-2
-1
-1
-2
2
2
4
23
-1
-2
1
0
-6
-4
-1
6
-5
0
-4
-5
3
2
-2
-44
-1
-1
0
1
-4
-3
-7
-11
-15
-3
-2
-2
-1
3
10
15
4
0
1
2
-3
-6
-17
-5
0
-2
0
-4
-2
0
17
7
6
0
0
0
-3
0
-7
-3
-6
1
-1
-1
1
1
3
51
3
-1
-1
1
0
0
8
-55
-5
-1
0
-2
0
-6
-16
11
0
-5
-4
-6
-3
-1
-3
9
0
0
1
-1
0
0
5
7
3
0
1
3
0
2
2
17
5
2
0
-1
-2
2
2
-3
-1
0
3
2
-1
-1
-1
-18
-7
-1
-2
0
0
-1
-6
-32
-4
-4
-2
-3
-3
-1
7
49
1
-2
-2
-1
-2
-4
-15
-26
-12
-2
-2
-1
2
1
-2
13
3
0
-1
1
-1
-1
3
-13
1
1
0
0
-1
-3
-4
3
-3
-2
-4
-2
-1
1
8
10
1
-1
1
1
-2
-1
5
41
5
-1
2
0
1
-8
-14
-77
-3
0
-2
-4
-1
0
-2
9
5
-2
-1
-2
1
1
-4
-1
-2
1
-1
-1
-3
3
2
-1
0
-1
-2
-1
-1
1
5
11
3
0
-1
0
-1
0
8
18
-1
-1
0
1
-1
0
-4
-25
2
-1
0
-1
-1
1
-2
5
-2
1
2
1
0
-3
-11
-9
-1
0
-1
-1
-1
-2
-6
-26
-13
-3
-3
-3
-2
3
7
24
3
1
0
0
-1
-3
-4
-34
11
-1
1
2
1
-2
-2
7
-18
0
-2
-3
0
-1
-1
4
8
2
1
1
-2
-1
2
-2
-7
1
-1
-1
-1
0
-2
-26
-7
-1
1
1
-4
-1
7
57
16
-1
-1
-4
0
-3
-7
-64
-8
-2
-2
-3
-2
1
1
18
5
0
0
1
-2
-3
-7
-33
-1
-1
0
-2
-2
1
4
13
-5
-2
0
0
0
3
2
9
-1
0
0
1
-1
0
-1
-5
-4
-1
0
-1
-2
-1
1
28
5
2
0
0
-1
1
-2
-44
-12
-2
-1
0
-1
-4
-3
21
12
-3
-4
-3
-1
-5
-4
-11
-6
-2
-2
-2
-1
-2
4
32
0
-1
-4
-1
-2
-3
-4
-5
0
2
1
1
-2
-1
-1
-9
4
2
1
2
1
1
2
22
-2
-1
-1
-3
-1
-4
-3
-81
-10
-1
-3
-3
0
-3
-6
-13
0
-3
-2
-1
-2
2
4
15
2
-1
-1
0
0
-1
-3
-13
-12
-1
0
0
1
1
2
31
4
0
-1
-1
-1
2
5
9
-2
-2
-2
-1
-1
-1
1
12
6
1
0
1
0
0
-4
-35
0
-1
-1
1
-1
0
-7
-25
-17
-2
-2
-2
-2
-1
6
24
11
0
2
0
2
-2
-3
20
-10
-2
-1
-1
-3
-6
-8
-28
-3
-2
-3
-4
-1
-1
0
-4
1
-1
1
2
-2
-1
1
12
0
-2
-2
-2
-3
1
3
1
-2
0
1
0
0
-1
1
11
-4
-2
-1
2
1
1
2
34
19
1
0
0
0
-2
-2
-54
-13
-2
-2
-3
1
-1
-2
8
-4
-1
-1
-1
-1
0
3
-8
0
-1
0
0
0
-3
-5
1
-4
-2
-1
-3
-2
-1
1
28
5
-2
-1
-1
-1
-2
2
-11
-1
-1
1
-2
-1
-1
-5
1
-1
-3
-2
-1
-3
2
8
56
9
2
2
1
1
-6
-10
-53
-10
-3
-4
-6
-3
-5
-6
0
-5
-4
-2
-1
-2
1
1
12
-7
0
-1
0
0
-2
1
11
5
-2
1
-2
-1
2
1
11
-9
0
1
1
-1
1
-1
-2
1
0
-1
-1
0
2
6
10
5
-1
1
1
0
-3
-11
-11
-5
-3
-4
-3
-1
0
0
-8
6
0
0
1
-2
-4
-4
-16
1
-1
-2
-3
1
-3
-1
7
-3
-1
-1
-2
-3
-2
1
-14
-6
-2
-1
-2
-1
0
1
31
6
0
0
-2
-2
0
1
6
3
0
-1
-1
-1
-2
1
-6
5
-1
-2
-2
-1
1
7
-7
-5
-2
2
1
1
2
-1
29
6
2
0
2
-2
-4
-6
-23
-7
1
-1
-4
1
-2
0
13
4
0
0
-1
-1