-0.2903302186823419
-0.05482012782246722
-1.6595982931678288
-0.2903302186823419
-0.05482012782246722
-1.6595982931678288
-0.290087437087005
-0.05434327605238896
-1.6594090847982799
-0.290087437087005
-0.05434327605238896
-1.6594090847982799
-0.290087437087005
-0.05434327605238896
-1.6594090847982799
-0.290087437087005
-0.05434327605238896
-1.6594090847982799
-0.290545670931558
-0.05359273380898078
-1.659506250053512
-0.290545670931558
-0.05359273380898078
-1.659506250053512
-0.290545670931558
-0.05359273380898078
-1.659506250053512
-0.290545670931558
-0.05359273380898078
-1.659506250053512
-0.29074420478087487
-0.05291719767468206
-1.6595997853418851
-0.29074420478087487
-0.05291719767468206
-1.6595997853418851
-0.29074420478087487
-0.05291719767468206
-1.6595997853418851
-0.29074420478087487
-0.05291719767468206
-1.6595997853418851
-0.28980403328688414
-0.052276342494959556
-1.659710356273328
-0.28980403328688414
-0.052276342494959556
-1.659710356273328
-0.28980403328688414
-0.052276342494959556
-1.659710356273328
-0.28980403328688414
-0.052276342494959556
-1.659710356273328
-0.28922340982699096
-0.051825461470645366
-1.6597915631016014
-0.28922340982699096
-0.051825461470645366
-1.6597915631016014
-0.28922340982699096
-0.051825461470645366
-1.6597915631016014
-0.28922340982699096
-0.051825461470645366
-1.6597915631016014
-0.28974991508870096
-0.05150506583362903
-1.6598244024627808
-0.28974991508870096
-0.05150506583362903
-1.6598244024627808
-0.28974991508870096
-0.05150506583362903
-1.6598244024627808
-0.28974991508870096
-0.05150506583362903
-1.6598244024627808
-0.28995830683821056
-0.05084461912868971
-1.6600067797402442
-0.28995830683821056
-0.05084461912868971
-1.6600067797402442
-0.28995830683821056
-0.05084461912868971
-1.6600067797402442
-0.28995830683821056
-0.05084461912868971
-1.6600067797402442
-0.2891230486438967
-0.049634444580438856
-1.6603706260274964
-0.2891230486438967
-0.049634444580438856
-1.6603706260274964
-0.2891230486438967
-0.049634444580438856
-1.6603706260274964
-0.2891230486438967
-0.049634444580438856
-1.6603706260274964
-0.28863786007940084
-0.04859912240965949
-1.660616401280816
-0.28863786007940084
-0.04859912240965949
-1.660616401280816
-0.28863786007940084
-0.04859912240965949
-1.660616401280816
-0.28863786007940084
-0.04859912240965949
-1.660616401280816
-0.2878704003650712
-0.04788265133518488
-1.6613451157433896
-0.2878704003650712
-0.04788265133518488
-1.6613451157433896
-0.2878704003650712
-0.04788265133518488
-1.6613451157433896
-0.2878704003650712
-0.04788265133518488
-1.6613451157433896
-0.28848961553620217
-0.047253028512875224
-1.6622100147700016
-0.28848961553620217
-0.047253028512875224
-1.6622100147700016
-0.28848961553620217
-0.047253028512875224
-1.6622100147700016
-0.28848961553620217
-0.047253028512875224
-1.6622100147700016
-0.289275862320465
-0.046923176186392766
-1.662679116582237
-0.289275862320465
-0.046923176186392766
-1.662679116582237
-0.289275862320465
-0.046923176186392766
-1.662679116582237
-0.289275862320465
-0.046923176186392766
-1.662679116582237
-0.2905096011716641
-0.04643547829409106
-1.6636925178570587
-0.2905096011716641
-0.04643547829409106
-1.6636925178570587
-0.2905096011716641
-0.04643547829409106
-1.6636925178570587
-0.2905096011716641
-0.04643547829409106
-1.6636925178570587
-0.2920065142368095
-0.04599566741298102
-1.6643448810565162
-0.2920065142368095
-0.04599566741298102
-1.6643448810565162
-0.2920065142368095
-0.04599566741298102
-1.6643448810565162
-0.2920065142368095
-0.04599566741298102
-1.6643448810565162
-0.2927167176496594
-0.04555352733587866
-1.6646592623124534
-0.2927167176496594
-0.04555352733587866
-1.6646592623124534
-0.2927167176496594
-0.04555352733587866
-1.6646592623124534
-0.2927167176496594
-0.04555352733587866
-1.6646592623124534
-0.292716468776282
-0.045287244131419886
-1.6652215018062253
-0.292716468776282
-0.045287244131419886
-1.6652215018062253
-0.292716468776282
-0.045287244131419886
-1.6652215018062253
-0.292716468776282
-0.045287244131419886
-1.6652215018062253
-0.2943570638266406
-0.04572470739092028
-1.6658336702210514
-0.2943570638266406
-0.04572470739092028
-1.6658336702210514
-0.2943570638266406
-0.04572470739092028
-1.6658336702210514
-0.2943570638266406
-0.04572470739092028
-1.6658336702210514
-0.29609958146035664
-0.045820262591148665
-1.6658791948898797
-0.29609958146035664
-0.045820262591148665
-1.6658791948898797
-0.29609958146035664
-0.045820262591148665
-1.6658791948898797
-0.29609958146035664
-0.045820262591148665
-1.6658791948898797
-0.2936414705098439
-0.045860039633935666
-1.6658214855032962
-0.2936414705098439
-0.045860039633935666
-1.6658214855032962
-0.2936414705098439
-0.045860039633935666
-1.6658214855032962
-0.2936414705098439
-0.045860039633935666
-1.6658214855032962
-0.28865346065395414
-0.045929852268817774
-1.6662412019674238
-0.28865346065395414
-0.045929852268817774
-1.6662412019674238
-0.28865346065395414
-0.045929852268817774
-1.6662412019674238
-0.28865346065395414
-0.045929852268817774
-1.6662412019674238
-0.28420790468730717
-0.04593820108616422
-1.6660517613940795
-0.28420790468730717
-0.04593820108616422
-1.6660517613940795
-0.28420790468730717
-0.04593820108616422
-1.6660517613940795
-0.28420790468730717
-0.04593820108616422
-1.6660517613940795
-0.28153859101390694
-0.045088013367144186
-1.6653373843476948
-0.28153859101390694
-0.045088013367144186
-1.6653373843476948
-0.28153859101390694
-0.045088013367144186
-1.6653373843476948
-0.28153859101390694
-0.045088013367144186
-1.6653373843476948
-0.27979494670287797
-0.04317290802017806
-1.6653728685567535
-0.27979494670287797
-0.04317290802017806
-1.6653728685567535
-0.27979494670287797
-0.04317290802017806
-1.6653728685567535
-0.27979494670287797
-0.04317290802017806
-1.6653728685567535
-0.27900011165085964
-0.04125206442079355
-1.6656514239024334
-0.27900011165085964
-0.04125206442079355
-1.6656514239024334
-0.27900011165085964
-0.04125206442079355
-1.6656514239024334
-0.27900011165085964
-0.04125206442079355
-1.6656514239024334
-0.27631570764476643
-0.03917152435399367
-1.66545740924922
-0.27631570764476643
-0.03917152435399367
-1.66545740924922
-0.27631570764476643
-0.03917152435399367
-1.66545740924922
-0.27631570764476643
-0.03917152435399367
-1.66545740924922
-0.2749904572684872
-0.03987101094243223
-1.6640682378842695
-0.2749904572684872
-0.03987101094243223
-1.6640682378842695
-0.2749904572684872
-0.03987101094243223
-1.6640682378842695
-0.2749904572684872
-0.03987101094243223
-1.6640682378842695
-0.27015272930748435
-0.03922753523506952
-1.6623878346602734
-0.27015272930748435
-0.03922753523506952
-1.6623878346602734
-0.27015272930748435
-0.03922753523506952
-1.6623878346602734
-0.27015272930748435
-0.03922753523506952
-1.6623878346602734
-0.261908782697589
-0.038707581060787394
-1.6608223854563562
-0.261908782697589
-0.038707581060787394
-1.6608223854563562
-0.261908782697589
-0.038707581060787394
-1.6608223854563562
-0.261908782697589
-0.038707581060787394
-1.6608223854563562
-0.25604514175709897
-0.03735992438169513
-1.6606393709525988
-0.25604514175709897
-0.03735992438169513
-1.6606393709525988
-0.25604514175709897
-0.03735992438169513
-1.6606393709525988
-0.25604514175709897
-0.03735992438169513
-1.6606393709525988
-0.24849149796790126
-0.03505681169553266
-1.6590182297122145
-0.24849149796790126
-0.03505681169553266
-1.6590182297122145
-0.24849149796790126
-0.03505681169553266
-1.6590182297122145
-0.24849149796790126
-0.03505681169553266
-1.6590182297122145
-0.24056433111980627
-0.03322996645688109
-1.6584632355368563
-0.24056433111980627
-0.03322996645688109
-1.6584632355368563
-0.24056433111980627
-0.03322996645688109
-1.6584632355368563
-0.24056433111980627
-0.03322996645688109
-1.6584632355368563
-0.23040626543616693
-0.03267833289452953
-1.6584688603133384
-0.23040626543616693
-0.03267833289452953
-1.6584688603133384
-0.23040626543616693
-0.03267833289452953
-1.6584688603133384
-0.23040626543616693
-0.03267833289452953
-1.6584688603133384
-0.23061750790010746
-0.03406639106717719
-1.6576100380671754
-0.23061750790010746
-0.03406639106717719
-1.6576100380671754
-0.23061750790010746
-0.03406639106717719
-1.6576100380671754
-0.23061750790010746
-0.03406639106717719
-1.6576100380671754
-0.23907339253037435
-0.03618519866415007
-1.6561236441363714
-0.23907339253037435
-0.03618519866415007
-1.6561236441363714
-0.23907339253037435
-0.03618519866415007
-1.6561236441363714
-0.23907339253037435
-0.03618519866415007
-1.6561236441363714
-0.24707338734881257
-0.03874636884489933
-1.6563176554753867
-0.24707338734881257
-0.03874636884489933
-1.6563176554753867
-0.24707338734881257
-0.03874636884489933
-1.6563176554753867
-0.24707338734881257
-0.03874636884489933
-1.6563176554753867
-0.25055975414341064
-0.03899121633144524
-1.6556293514476281
-0.25055975414341064
-0.03899121633144524
-1.6556293514476281
-0.25055975414341064
-0.03899121633144524
-1.6556293514476281
-0.25055975414341064
-0.03899121633144524
-1.6556293514476281
-0.24631005275063267
-0.038145667286490804
-1.656663838067453
-0.24631005275063267
-0.038145667286490804
-1.656663838067453
-0.24631005275063267
-0.038145667286490804
-1.656663838067453
-0.24631005275063267
-0.038145667286490804
-1.656663838067453
-0.24360285741872573
-0.0359594343206069
-1.656877387164698
-0.24360285741872573
-0.0359594343206069
-1.656877387164698
-0.24360285741872573
-0.0359594343206069
-1.656877387164698
-0.24360285741872573
-0.0359594343206069
-1.656877387164698
-0.2424710960896376
-0.033831426271121554
-1.6569757602329667
-0.2424710960896376
-0.033831426271121554
-1.6569757602329667
-0.2424710960896376
-0.033831426271121554
-1.6569757602329667
-0.2424710960896376
-0.033831426271121554
-1.6569757602329667
-0.24537515755874675
-0.03096627917859558
-1.656682823929888
-0.24537515755874675
-0.03096627917859558
-1.656682823929888
-0.24537515755874675
-0.03096627917859558
-1.656682823929888
-0.24537515755874675
-0.03096627917859558
-1.656682823929888
-0.24712463011600158
-0.02881262889484339
-1.6562354504596783
-0.24712463011600158
-0.02881262889484339
-1.6562354504596783
-0.24712463011600158
-0.02881262889484339
-1.6562354504596783
-0.24712463011600158
-0.02881262889484339
-1.6562354504596783
-0.24749547387286777
-0.026385486166243657
-1.6554891356337147
-0.24749547387286777
-0.026385486166243657
-1.6554891356337147
-0.24749547387286777
-0.026385486166243657
-1.6554891356337147
-0.24749547387286777
-0.026385486166243657
-1.6554891356337147
-0.24499333114413693
-0.02384833334483602
-1.6541650300732154
-0.24499333114413693
-0.02384833334483602
-1.6541650300732154
-0.24499333114413693
-0.02384833334483602
-1.6541650300732154
-0.24499333114413693
-0.02384833334483602
-1.6541650300732154
-0.24223579001454135
-0.02132767824954538
-1.6523145334601665
-0.24223579001454135
-0.02132767824954538
-1.6523145334601665
-0.24223579001454135
-0.02132767824954538
-1.6523145334601665
-0.24223579001454135
-0.02132767824954538
-1.6523145334601665
-0.24157872458461163
-0.01839192225821199
-1.6505856288417284
-0.24157872458461163
-0.01839192225821199
-1.6505856288417284
-0.24157872458461163
-0.01839192225821199
-1.6505856288417284
-0.24157872458461163
-0.01839192225821199
-1.6505856288417284
-0.24515862255844645
-0.015835334617791196
-1.6498386759507653
-0.24515862255844645
-0.015835334617791196
-1.6498386759507653
-0.24515862255844645
-0.015835334617791196
-1.6498386759507653
-0.24515862255844645
-0.015835334617791196
-1.6498386759507653
-0.24649689086361848
-0.012792578274696693
-1.6487309606277052
-0.24649689086361848
-0.012792578274696693
-1.6487309606277052
-0.24649689086361848
-0.012792578274696693
-1.6487309606277052
-0.24649689086361848
-0.012792578274696693
-1.6487309606277052
-0.24408077233451694
-0.0100435066769946
-1.6476796531216336
-0.24408077233451694
-0.0100435066769946
-1.6476796531216336
-0.24408077233451694
-0.0100435066769946
-1.6476796531216336
-0.24408077233451694
-0.0100435066769946
-1.6476796531216336
-0.24337589892292952
-0.007876250876469194
-1.6465511896635898
-0.24337589892292952
-0.007876250876469194
-1.6465511896635898
-0.24337589892292952
-0.007876250876469194
-1.6465511896635898
-0.24337589892292952
-0.007876250876469194
-1.6465511896635898
-0.24404810127922463
-0.006083258431568059
-1.645204199828239
-0.24404810127922463
-0.006083258431568059
-1.645204199828239
-0.24404810127922463
-0.006083258431568059
-1.645204199828239
-0.24404810127922463
-0.006083258431568059
-1.645204199828239
-0.24437312873545097
-0.00431899617876218
-1.644203193214378
-0.24437312873545097
-0.00431899617876218
-1.644203193214378
-0.24437312873545097
-0.00431899617876218
-1.644203193214378
-0.24437312873545097
-0.00431899617876218
-1.644203193214378
-0.24345411121628233
-0.0031532833280549484
-1.6427771714055746
-0.24345411121628233
-0.0031532833280549484
-1.6427771714055746
-0.24345411121628233
-0.0031532833280549484
-1.6427771714055746
-0.24345411121628233
-0.0031532833280549484
-1.6427771714055746
-0.24270586296982566
-0.002239702285503941
-1.641930726472541
-0.24270586296982566
-0.002239702285503941
-1.641930726472541
-0.24270586296982566
-0.002239702285503941
-1.641930726472541
-0.24270586296982566
-0.002239702285503941
-1.641930726472541
-0.24400699088550265
-0.0021266101941819176
-1.6413378685666997
-0.24400699088550265
-0.0021266101941819176
-1.6413378685666997
-0.24400699088550265
-0.0021266101941819176
-1.6413378685666997
-0.24400699088550265
-0.0021266101941819176
-1.6413378685666997
-0.24532405945391667
-0.0018525264126868937
-1.6408548943328236
-0.24532405945391667
-0.0018525264126868937
-1.6408548943328236
-0.24532405945391667
-0.0018525264126868937
-1.6408548943328236
-0.24532405945391667
-0.0018525264126868937
-1.6408548943328236
-0.24426136136188062
-0.0022454188133411357
-1.6401062725200242
-0.24426136136188062
-0.0022454188133411357
-1.6401062725200242
-0.24426136136188062
-0.0022454188133411357
-1.6401062725200242
-0.24426136136188062
-0.0022454188133411357
-1.6401062725200242
-0.24439819861396245
-0.0032577638942953803
-1.6398079651777782
-0.24439819861396245
-0.0032577638942953803
-1.6398079651777782
-0.24439819861396245
-0.0032577638942953803
-1.6398079651777782
-0.24439819861396245
-0.0032577638942953803
-1.6398079651777782
-0.24410647559947596
-0.00429909192513179
-1.639159236279545
-0.24410647559947596
-0.00429909192513179
-1.639159236279545
-0.24410647559947596
-0.00429909192513179
-1.639159236279545
-0.24410647559947596
-0.00429909192513179
-1.639159236279545
-0.24422146062561811
-0.005663805485609303
-1.6389015999106673
-0.24422146062561811
-0.005663805485609303
-1.6389015999106673
-0.24422146062561811
-0.005663805485609303
-1.6389015999106673
-0.24422146062561811
-0.005663805485609303
-1.6389015999106673
-0.2442811374315345
-0.006437285722036691
-1.638806481577676
-0.2442811374315345
-0.006437285722036691
-1.638806481577676
-0.2442811374315345
-0.006437285722036691
-1.638806481577676
-0.2442811374315345
-0.006437285722036691
-1.638806481577676
-0.24521815420680282
-0.007240791410857705
-1.6387103874784072
-0.24521815420680282
-0.007240791410857705
-1.6387103874784072
-0.24521815420680282
-0.007240791410857705
-1.6387103874784072
-0.24521815420680282
-0.007240791410857705
-1.6387103874784072
-0.24665756992330884
-0.008403865182939934
-1.638566905634932
-0.24665756992330884
-0.008403865182939934
-1.638566905634932
-0.24665756992330884
-0.008403865182939934
-1.638566905634932
-0.24665756992330884
-0.008403865182939934
-1.638566905634932
-0.24695956381941916
-0.009860078607532746
-1.6389963711540816
-0.24695956381941916
-0.009860078607532746
-1.6389963711540816
-0.24695956381941916
-0.009860078607532746
-1.6389963711540816
-0.24695956381941916
-0.009860078607532746
-1.6389963711540816
-0.24733043794471762
-0.01176861779618674
-1.6395426656334382
-0.24733043794471762
-0.01176861779618674
-1.6395426656334382
-0.24733043794471762
-0.01176861779618674
-1.6395426656334382
-0.24733043794471762
-0.01176861779618674
-1.6395426656334382
-0.24693662618391363
-0.013082908470595069
-1.640425035723253
-0.24693662618391363
-0.013082908470595069
-1.640425035723253
-0.24693662618391363
-0.013082908470595069
-1.640425035723253
-0.24693662618391363
-0.013082908470595069
-1.640425035723253
-0.24637647654414915
-0.013994659816868413
-1.6409212104598432
-0.24637647654414915
-0.013994659816868413
-1.6409212104598432
-0.24637647654414915
-0.013994659816868413
-1.6409212104598432
-0.24637647654414915
-0.013994659816868413
-1.6409212104598432
-0.24663609764055822
-0.014142973651560625
-1.6413387213317903
-0.24663609764055822
-0.014142973651560625
-1.6413387213317903
-0.24663609764055822
-0.014142973651560625
-1.6413387213317903
-0.24663609764055822
-0.014142973651560625
-1.6413387213317903
-0.24689368770835654
-0.014312601394579213
-1.6419274430982393
-0.24689368770835654
-0.014312601394579213
-1.6419274430982393
-0.24689368770835654
-0.014312601394579213
-1.6419274430982393
-0.24689368770835654
-0.014312601394579213
-1.6419274430982393
-0.2467935158425531
-0.01429720280034141
-1.6425353469565191
-0.2467935158425531
-0.01429720280034141
-1.6425353469565191
-0.2467935158425531
-0.01429720280034141
-1.6425353469565191
-0.2467935158425531
-0.01429720280034141
-1.6425353469565191
-0.2462898688303761
-0.01395794075266788
-1.6427548319519307
-0.2462898688303761
-0.01395794075266788
-1.6427548319519307
-0.2462898688303761
-0.01395794075266788
-1.6427548319519307
-0.2462898688303761
-0.01395794075266788
-1.6427548319519307
-0.24630601477558356
-0.013465445650390064
-1.6429895163600488
-0.24630601477558356
-0.013465445650390064
-1.6429895163600488
-0.24630601477558356
-0.013465445650390064
-1.6429895163600488
-0.24630601477558356
-0.013465445650390064
-1.6429895163600488
-0.24773695199756515
-0.012671246500956645
-1.6431751840083595
-0.24773695199756515
-0.012671246500956645
-1.6431751840083595
-0.24773695199756515
-0.012671246500956645
-1.6431751840083595
-0.24773695199756515
-0.012671246500956645
-1.6431751840083595
-0.24879399728922702
-0.012184292710454694
-1.6431455587022383
-0.24879399728922702
-0.012184292710454694
-1.6431455587022383
-0.24879399728922702
-0.012184292710454694
-1.6431455587022383
-0.24879399728922702
-0.012184292710454694
-1.6431455587022383
-0.24977096998377732
-0.011480432501754513
-1.6434918980941082
-0.24977096998377732
-0.011480432501754513
-1.6434918980941082
-0.24977096998377732
-0.011480432501754513
-1.6434918980941082
-0.24977096998377732
-0.011480432501754513
-1.6434918980941082
-0.25108986095409047
-0.011121609672141998
-1.6437098292267203
-0.25108986095409047
-0.011121609672141998
-1.6437098292267203
-0.25108986095409047
-0.011121609672141998
-1.6437098292267203
-0.25108986095409047
-0.011121609672141998
-1.6437098292267203
-0.2528497859025804
-0.010704577964326804
-1.6440234504402145
-0.2528497859025804
-0.010704577964326804
-1.6440234504402145
-0.2528497859025804
-0.010704577964326804
-1.6440234504402145
-0.2528497859025804
-0.010704577964326804
-1.6440234504402145
-0.25262604343539163
-0.009443479044425888
-1.644442418881901
-0.25262604343539163
-0.009443479044425888
-1.644442418881901
-0.25262604343539163
-0.009443479044425888
-1.644442418881901
-0.25262604343539163
-0.009443479044425888
-1.644442418881901
-0.2524882513693
-0.00878601761408822
-1.6447906362883755
-0.2524882513693
-0.00878601761408822
-1.6447906362883755
-0.2524882513693
-0.00878601761408822
-1.6447906362883755
-0.2524882513693
-0.00878601761408822
-1.6447906362883755
-0.2524120368870439
-0.008526171465786995
-1.644823946479599
-0.2524120368870439
-0.008526171465786995
-1.644823946479599
-0.2524120368870439
-0.008526171465786995
-1.644823946479599
-0.2524120368870439
-0.008526171465786995
-1.644823946479599
-0.25233049261302676
-0.008105259895937224
-1.6449613689972291
-0.25233049261302676
-0.008105259895937224
-1.6449613689972291
-0.25233049261302676
-0.008105259895937224
-1.6449613689972291
-0.25233049261302676
-0.008105259895937224
-1.6449613689972291
-0.2537498394668758
-0.007344811880967392
-1.6454068857647235
-0.2537498394668758
-0.007344811880967392
-1.6454068857647235
-0.2537498394668758
-0.007344811880967392
-1.6454068857647235
-0.2537498394668758
-0.007344811880967392
-1.6454068857647235
-0.2550011447287836
-0.006534829193310796
-1.6455126258784578
-0.2550011447287836
-0.006534829193310796
-1.6455126258784578
-0.2550011447287836
-0.006534829193310796
-1.6455126258784578
-0.2550011447287836
-0.006534829193310796
-1.6455126258784578
-0.25440144692855615
-0.006244395206446407
-1.6454615178521899
-0.25440144692855615
-0.006244395206446407
-1.6454615178521899
-0.25440144692855615
-0.006244395206446407
-1.6454615178521899
-0.25440144692855615
-0.006244395206446407
-1.6454615178521899
-0.25440144692855615
-0.006244395206446407
-1.6454615178521899
-0.25440144692855615
-0.006244395206446407
-1.6454615178521899
-0.25440144692855615
-0.006244395206446407
-1.6454615178521899
-0.25440144692855615
-0.006244395206446407
-1.6454615178521899
-0.25484402880005
-0.006164368250087348
-1.6453866875306655
-0.25484402880005
-0.006164368250087348
-1.6453866875306655
-0.25484402880005
-0.006164368250087348
-1.6453866875306655
-0.25484402880005
-0.006164368250087348
-1.6453866875306655
-0.2563096050615865
-0.006498083461536538
-1.6455195890543353
-0.2563096050615865
-0.006498083461536538
-1.6455195890543353
-0.2563096050615865
-0.006498083461536538
-1.6455195890543353
-0.2563096050615865
-0.006498083461536538
-1.6455195890543353
-0.25715901945979974
-0.0072596612412403685
-1.6457727929742194
-0.25715901945979974
-0.0072596612412403685
-1.6457727929742194
-0.25715901945979974
-0.0072596612412403685
-1.6457727929742194
-0.25715901945979974
-0.0072596612412403685
-1.6457727929742194
-0.2576566607888366
-0.007665110578010875
-1.6460663290560689
-0.2576566607888366
-0.007665110578010875
-1.6460663290560689
-0.2576566607888366
-0.007665110578010875
-1.6460663290560689
-0.2576566607888366
-0.007665110578010875
-1.6460663290560689
-0.2581421758900715
-0.008640102822491747
-1.6467239931533901
-0.2581421758900715
-0.008640102822491747
-1.6467239931533901
-0.2581421758900715
-0.008640102822491747
-1.6467239931533901
-0.2581421758900715
-0.008640102822491747
-1.6467239931533901
-0.2582908046534548
-0.00920408265592661
-1.6469979934584393
-0.2582908046534548
-0.00920408265592661
-1.6469979934584393
-0.2582908046534548
-0.00920408265592661
-1.6469979934584393
-0.2582908046534548
-0.00920408265592661
-1.6469979934584393
-0.25891007867687965
-0.009209367915125381
-1.647523025807292
-0.25891007867687965
-0.009209367915125381
-1.647523025807292
-0.25891007867687965
-0.009209367915125381
-1.647523025807292
-0.25891007867687965
-0.009209367915125381
-1.647523025807292
-0.2586859450330622
-0.008303235176598082
-1.647989853622456
-0.2586859450330622
-0.008303235176598082
-1.647989853622456
-0.2586859450330622
-0.008303235176598082
-1.647989853622456
-0.2586859450330622
-0.008303235176598082
-1.647989853622456
-0.2571463668022636
-0.007375816004265251
-1.6480190740519065
-0.2571463668022636
-0.007375816004265251
-1.6480190740519065
-0.2571463668022636
-0.007375816004265251
-1.6480190740519065
-0.2571463668022636
-0.007375816004265251
-1.6480190740519065
-0.2559635871196563
-0.006407198208280972
-1.6476195906514595
-0.2559635871196563
-0.006407198208280972
-1.6476195906514595
-0.2559635871196563
-0.006407198208280972
-1.6476195906514595
-0.2559635871196563
-0.006407198208280972
-1.6476195906514595
-0.25580753221615904
-0.003806565794461496
-1.6470849266039744
-0.25580753221615904
-0.003806565794461496
-1.6470849266039744
-0.25580753221615904
-0.003806565794461496
-1.6470849266039744
-0.25580753221615904
-0.003806565794461496
-1.6470849266039744
-0.2532861911266844
-0.0011037082071255837
-1.645765227698573
-0.2532861911266844
-0.0011037082071255837
-1.645765227698573
-0.2532861911266844
-0.0011037082071255837
-1.645765227698573
-0.2532861911266844
-0.0011037082071255837
-1.645765227698573
-0.25064270815016465
4.118147890958608E-4
-1.643510253184372
-0.25064270815016465
4.118147890958608E-4
-1.643510253184372
-0.25064270815016465
4.118147890958608E-4
-1.643510253184372
-0.25064270815016465
4.118147890958608E-4
-1.643510253184372
-0.25139669810555865
-6.38663916713379E-5
-1.6422330608537528
-0.25139669810555865
-6.38663916713379E-5
-1.6422330608537528
-0.25139669810555865
-6.38663916713379E-5
-1.6422330608537528
-0.25139669810555865
-6.38663916713379E-5
-1.6422330608537528
-0.2564893488991378
-0.0011549669963328733
-1.6418530297180962
-0.2564893488991378
-0.0011549669963328733
-1.6418530297180962
-0.2564893488991378
-0.0011549669963328733
-1.6418530297180962
-0.2564893488991378
-0.0011549669963328733
-1.6418530297180962
-0.2600209403372953
-0.002461076363744206
-1.642220757289688
-0.2600209403372953
-0.002461076363744206
-1.642220757289688
-0.2600209403372953
-0.002461076363744206
-1.642220757289688
-0.2600209403372953
-0.002461076363744206
-1.642220757289688
-0.2630089138945685
-0.004274078277013864
-1.6426019259872076
-0.2630089138945685
-0.004274078277013864
-1.6426019259872076
-0.2630089138945685
-0.004274078277013864
-1.6426019259872076
-0.2630089138945685
-0.004274078277013864
-1.6426019259872076
-0.2643154121916559
-0.006638142485343763
-1.6429872773266796
-0.2643154121916559
-0.006638142485343763
-1.6429872773266796
-0.2643154121916559
-0.006638142485343763
-1.6429872773266796
-0.2643154121916559
-0.006638142485343763
-1.6429872773266796
-0.2636239484916087
-0.009164709993622526
-1.6431767384084157
-0.2636239484916087
-0.009164709993622526
-1.6431767384084157
-0.2636239484916087
-0.009164709993622526
-1.6431767384084157
-0.2636239484916087
-0.009164709993622526
-1.6431767384084157
-0.2647245076231068
-0.012274978331428694
-1.6426736741799342
-0.2647245076231068
-0.012274978331428694
-1.6426736741799342
-0.2647245076231068
-0.012274978331428694
-1.6426736741799342
-0.2647245076231068
-0.012274978331428694
-1.6426736741799342
-0.26942671539970703
-0.01519916100753832
-1.6417512457743881
-0.26942671539970703
-0.01519916100753832
-1.6417512457743881
-0.26942671539970703
-0.01519916100753832
-1.6417512457743881
-0.26942671539970703
-0.01519916100753832
-1.6417512457743881
-0.27394239444550567
-0.018063987609397276
-1.6404697033143318
-0.27394239444550567
-0.018063987609397276
-1.6404697033143318
-0.27394239444550567
-0.018063987609397276
-1.6404697033143318
-0.27394239444550567
-0.018063987609397276
-1.6404697033143318
-0.27647011493466056
-0.020925759016222924
-1.6403252707423626
-0.27647011493466056
-0.020925759016222924
-1.6403252707423626
-0.27647011493466056
-0.020925759016222924
-1.6403252707423626
-0.27647011493466056
-0.020925759016222924
-1.6403252707423626
-0.2758208782365062
-0.02451574611420169
-1.6412273761973477
-0.2758208782365062
-0.02451574611420169
-1.6412273761973477
-0.2758208782365062
-0.02451574611420169
-1.6412273761973477
-0.2758208782365062
-0.02451574611420169
-1.6412273761973477
-0.2725836644386483
-0.026701580861560752
-1.6427803844152562
-0.2725836644386483
-0.026701580861560752
-1.6427803844152562
-0.2725836644386483
-0.026701580861560752
-1.6427803844152562
-0.2725836644386483
-0.026701580861560752
-1.6427803844152562
-0.2653656939351087
-0.02838347402868204
-1.6443615913306062
-0.2653656939351087
-0.02838347402868204
-1.6443615913306062
-0.2653656939351087
-0.02838347402868204
-1.6443615913306062
-0.2653656939351087
-0.02838347402868204
-1.6443615913306062
-0.26514766579403576
-0.02942717840480872
-1.6457083125974263
-0.26514766579403576
-0.02942717840480872
-1.6457083125974263
-0.26514766579403576
-0.02942717840480872
-1.6457083125974263
-0.26514766579403576
-0.02942717840480872
-1.6457083125974263
-0.27041691673352247
-0.03042242804272117
-1.647004758662492
-0.27041691673352247
-0.03042242804272117
-1.647004758662492
-0.27041691673352247
-0.03042242804272117
-1.647004758662492
-0.27041691673352247
-0.03042242804272117
-1.647004758662492
-0.2730951735441914
-0.03066326949693696
-1.6486019251920687
-0.2730951735441914
-0.03066326949693696
-1.6486019251920687
-0.2730951735441914
-0.03066326949693696
-1.6486019251920687
-0.2730951735441914
-0.03066326949693696
-1.6486019251920687
-0.27319010297784163
-0.030410082632228955
-1.6486352509151538
-0.27319010297784163
-0.030410082632228955
-1.6486352509151538
-0.27319010297784163
-0.030410082632228955
-1.6486352509151538
-0.27319010297784163
-0.030410082632228955
-1.6486352509151538
-0.2751651392721357
-0.030934227052561034
-1.6499395764884965
-0.2751651392721357
-0.030934227052561034
-1.6499395764884965
-0.2751651392721357
-0.030934227052561034
-1.6499395764884965
-0.2751651392721357
-0.030934227052561034
-1.6499395764884965
-0.2753018204914917
-0.02971663120484901
-1.6505451494616254
-0.2753018204914917
-0.02971663120484901
-1.6505451494616254
-0.2753018204914917
-0.02971663120484901
-1.6505451494616254
-0.2753018204914917
-0.02971663120484901
-1.6505451494616254
-0.28387740157460173
-0.02872586276791569
-1.6508657062363932
-0.28387740157460173
-0.02872586276791569
-1.6508657062363932
-0.28387740157460173
-0.02872586276791569
-1.6508657062363932
-0.28387740157460173
-0.02872586276791569
-1.6508657062363932
-0.2855409912896241
-0.02841675245171929
-1.6524689042828549
-0.2855409912896241
-0.02841675245171929
-1.6524689042828549
-0.2855409912896241
-0.02841675245171929
-1.6524689042828549
-0.2855409912896241
-0.02841675245171929
-1.6524689042828549
-0.2845391856736059
-0.02867072208276158
-1.6551441844794634
-0.2845391856736059
-0.02867072208276158
-1.6551441844794634
-0.2845391856736059
-0.02867072208276158
-1.6551441844794634
-0.2845391856736059
-0.02867072208276158
-1.6551441844794634
-0.28446539109850916
-0.03000114052829951
-1.6571365498300814
-0.28446539109850916
-0.03000114052829951
-1.6571365498300814
-0.28446539109850916
-0.03000114052829951
-1.6571365498300814
-0.28446539109850916
-0.03000114052829951
-1.6571365498300814
-0.28465850965134254
-0.03181823167685193
-1.6569642160320426
-0.28465850965134254
-0.03181823167685193
-1.6569642160320426
-0.28465850965134254
-0.03181823167685193
-1.6569642160320426
-0.28465850965134254
-0.03181823167685193
-1.6569642160320426
-0.2846376661675508
-0.03296495983312832
-1.6552320101265185
-0.2846376661675508
-0.03296495983312832
-1.6552320101265185
-0.2846376661675508
-0.03296495983312832
-1.6552320101265185
-0.2846376661675508
-0.03296495983312832
-1.6552320101265185
-0.2836654983934288
-0.03342422418782962
-1.6544780456987391
-0.2836654983934288
-0.03342422418782962
-1.6544780456987391
-0.2836654983934288
-0.03342422418782962
-1.6544780456987391
-0.2836654983934288
-0.03342422418782962
-1.6544780456987391
-0.2847190497485523
-0.0332349902038353
-1.654055440119418
-0.2847190497485523
-0.0332349902038353
-1.654055440119418
-0.2847190497485523
-0.0332349902038353
-1.654055440119418
-0.2847190497485523
-0.0332349902038353
-1.654055440119418
-0.28536127146697554
-0.03299197474335429
-1.6527763304611551
-0.28536127146697554
-0.03299197474335429
-1.6527763304611551
-0.28536127146697554
-0.03299197474335429
-1.6527763304611551
-0.28536127146697554
-0.03299197474335429
-1.6527763304611551
-0.28572418565124363
-0.03291736627680522
-1.6509473653490574
-0.28572418565124363
-0.03291736627680522
-1.6509473653490574
-0.28572418565124363
-0.03291736627680522
-1.6509473653490574
-0.28572418565124363
-0.03291736627680522
-1.6509473653490574
-0.2859973877585621
-0.03301185140179027
-1.6497092159681435
-0.2859973877585621
-0.03301185140179027
-1.6497092159681435
-0.2859973877585621
-0.03301185140179027
-1.6497092159681435
-0.2859973877585621
-0.03301185140179027
-1.6497092159681435
-0.28757691181551676
-0.03282810170705526
-1.6491936051419294
-0.28757691181551676
-0.03282810170705526
-1.6491936051419294
-0.28757691181551676
-0.03282810170705526
-1.6491936051419294
-0.28757691181551676
-0.03282810170705526
-1.6491936051419294
-0.28765040357983307
-0.03323340612390274
-1.6489593566138696
-0.28765040357983307
-0.03323340612390274
-1.6489593566138696
-0.28765040357983307
-0.03323340612390274
-1.6489593566138696
-0.28765040357983307
-0.03323340612390274
-1.6489593566138696
-0.28438318080518526
-0.0346449143601526
-1.64818462963102
-0.28438318080518526
-0.0346449143601526
-1.64818462963102
-0.28438318080518526
-0.0346449143601526
-1.64818462963102
-0.28438318080518526
-0.0346449143601526
-1.64818462963102
-0.2816419911645987
-0.03567536304909667
-1.6482468446359173
-0.2816419911645987
-0.03567536304909667
-1.6482468446359173
-0.2816419911645987
-0.03567536304909667
-1.6482468446359173
-0.2816419911645987
-0.03567536304909667
-1.6482468446359173
-0.28527023789684247
-0.03681712195845067
-1.6478640773019528
-0.28527023789684247
-0.03681712195845067
-1.6478640773019528
-0.28527023789684247
-0.03681712195845067
-1.6478640773019528
-0.28527023789684247
-0.03681712195845067
-1.6478640773019528
-0.28674595787897095
-0.03708033501454077
-1.6474569124512906
-0.28674595787897095
-0.03708033501454077
-1.6474569124512906
-0.28674595787897095
-0.03708033501454077
-1.6474569124512906
-0.28674595787897095
-0.03708033501454077
-1.6474569124512906
-0.2842102893343022
-0.03718056447398578
-1.64826407726862
-0.2842102893343022
-0.03718056447398578
-1.64826407726862
-0.2842102893343022
-0.03718056447398578
-1.64826407726862
-0.2842102893343022
-0.03718056447398578
-1.64826407726862
-0.28115613314946825
-0.03701300107632746
-1.6485890431529773
-0.28115613314946825
-0.03701300107632746
-1.6485890431529773
-0.28115613314946825
-0.03701300107632746
-1.6485890431529773
-0.28115613314946825
-0.03701300107632746
-1.6485890431529773
-0.2773675718164852
-0.03566831377447046
-1.6488265936290578
-0.2773675718164852
-0.03566831377447046
-1.6488265936290578
-0.2773675718164852
-0.03566831377447046
-1.6488265936290578
-0.2773675718164852
-0.03566831377447046
-1.6488265936290578
-0.27326073387024225
-0.032962595050767485
-1.649418560106818
-0.27326073387024225
-0.032962595050767485
-1.649418560106818
-0.27326073387024225
-0.032962595050767485
-1.649418560106818
-0.27326073387024225
-0.032962595050767485
-1.649418560106818
-0.2688992531360092
-0.03038985559243623
-1.650423782039087
-0.2688992531360092
-0.03038985559243623
-1.650423782039087
-0.2688992531360092
-0.03038985559243623
-1.650423782039087
-0.2688992531360092
-0.03038985559243623
-1.650423782039087
-0.2639122429158473
-0.028307611371134897
-1.6520569314513989
-0.2639122429158473
-0.028307611371134897
-1.6520569314513989
-0.2639122429158473
-0.028307611371134897
-1.6520569314513989
-0.2639122429158473
-0.028307611371134897
-1.6520569314513989
-0.2579443659295494
-0.02700696088606853
-1.6527131268817503
-0.2579443659295494
-0.02700696088606853
-1.6527131268817503
-0.2579443659295494
-0.02700696088606853
-1.6527131268817503
-0.2579443659295494
-0.02700696088606853
-1.6527131268817503
-0.2578361226065093
-0.02548670032709688
-1.651777448064721
-0.2578361226065093
-0.02548670032709688
-1.651777448064721
-0.2578361226065093
-0.02548670032709688
-1.651777448064721
-0.2578361226065093
-0.02548670032709688
-1.651777448064721
-0.25667762867784005
-0.022146311165766625
-1.6485566013036295
-0.25667762867784005
-0.022146311165766625
-1.6485566013036295
-0.25667762867784005
-0.022146311165766625
-1.6485566013036295
-0.25667762867784005
-0.022146311165766625
-1.6485566013036295
-0.24709701791694097
-0.018121608765089336
-1.645895783997036
-0.24709701791694097
-0.018121608765089336
-1.645895783997036
-0.24709701791694097
-0.018121608765089336
-1.645895783997036
-0.24709701791694097
-0.018121608765089336
-1.645895783997036
-0.23228459323316636
-0.016135952084243
-1.6464535835634455
-0.23228459323316636
-0.016135952084243
-1.6464535835634455
-0.23228459323316636
-0.016135952084243
-1.6464535835634455
-0.23228459323316636
-0.016135952084243
-1.6464535835634455
-0.21702904678707774
-0.016927605986731015
-1.6487707042312787
-0.21702904678707774
-0.016927605986731015
-1.6487707042312787
-0.21702904678707774
-0.016927605986731015
-1.6487707042312787
-0.21702904678707774
-0.016927605986731015
-1.6487707042312787
-0.23177828338930173
-0.01781653089053105
-1.6468665576616743
-0.23177828338930173
-0.01781653089053105
-1.6468665576616743
-0.23177828338930173
-0.01781653089053105
-1.6468665576616743
-0.23177828338930173
-0.01781653089053105
-1.6468665576616743
-0.2471606066940975
-0.019100071759623152
-1.6432495660487867
-0.2471606066940975
-0.019100071759623152
-1.6432495660487867
-0.2471606066940975
-0.019100071759623152
-1.6432495660487867
-0.2471606066940975
-0.019100071759623152
-1.6432495660487867
-0.24969496781296055
-0.018642304087565138
-1.640938499315925
-0.24969496781296055
-0.018642304087565138
-1.640938499315925
-0.24969496781296055
-0.018642304087565138
-1.640938499315925
-0.24969496781296055
-0.018642304087565138
-1.640938499315925
-0.24396481830249095
-0.015892437087093828
-1.6407832155676454
-0.24396481830249095
-0.015892437087093828
-1.6407832155676454
-0.24396481830249095
-0.015892437087093828
-1.6407832155676454
-0.24396481830249095
-0.015892437087093828
-1.6407832155676454
-0.23642198039356466
-0.012620434271399292
-1.6404164490947528
-0.23642198039356466
-0.012620434271399292
-1.6404164490947528
-0.23642198039356466
-0.012620434271399292
-1.6404164490947528
-0.23642198039356466
-0.012620434271399292
-1.6404164490947528
-0.2358623372677382
-0.008825938510125312
-1.6393897762969905
-0.2358623372677382
-0.008825938510125312
-1.6393897762969905
-0.2358623372677382
-0.008825938510125312
-1.6393897762969905
-0.2358623372677382
-0.008825938510125312
-1.6393897762969905
-0.2415245111626387
-0.006016210460545215
-1.6375540995065707
-0.2415245111626387
-0.006016210460545215
-1.6375540995065707
-0.2415245111626387
-0.006016210460545215
-1.6375540995065707
-0.2415245111626387
-0.006016210460545215
-1.6375540995065707
-0.24540497942330808
-0.004423083288597987
-1.636275685543092
-0.24540497942330808
-0.004423083288597987
-1.636275685543092
-0.24540497942330808
-0.004423083288597987
-1.636275685543092
-0.24540497942330808
-0.004423083288597987
-1.636275685543092
-0.24265386701864988
-0.0031263683338129825
-1.6349481567816235
-0.24265386701864988
-0.0031263683338129825
-1.6349481567816235
-0.24265386701864988
-0.0031263683338129825
-1.6349481567816235
-0.24265386701864988
-0.0031263683338129825
-1.6349481567816235
-0.2379139240084449
-0.00166474312682667
-1.6334598807054268
-0.2379139240084449
-0.00166474312682667
-1.6334598807054268
-0.2379139240084449
-0.00166474312682667
-1.6334598807054268
-0.2379139240084449
-0.00166474312682667
-1.6334598807054268
-0.23537500646042245
7.367768063033605E-4
-1.6314762240937943
-0.23537500646042245
7.367768063033605E-4
-1.6314762240937943
-0.23537500646042245
7.367768063033605E-4
-1.6314762240937943
-0.23537500646042245
7.367768063033605E-4
-1.6314762240937943
-0.23656890076595136
0.003452188884458829
-1.629540398308842
-0.23656890076595136
0.003452188884458829
-1.629540398308842
-0.23656890076595136
0.003452188884458829
-1.629540398308842
-0.23656890076595136
0.003452188884458829
-1.629540398308842
-0.2351517825987234
0.0056890788470953715
-1.627885686485654
-0.2351517825987234
0.0056890788470953715
-1.627885686485654
-0.2351517825987234
0.0056890788470953715
-1.627885686485654
-0.2351517825987234
0.0056890788470953715
-1.627885686485654
-0.2350441630385367
0.008083903348928145
-1.6267779629654462
-0.2350441630385367
0.008083903348928145
-1.6267779629654462
-0.2350441630385367
0.008083903348928145
-1.6267779629654462
-0.2350441630385367
0.008083903348928145
-1.6267779629654462
-0.23499848933261108
0.009976807557485472
-1.6262168764333702
-0.23499848933261108
0.009976807557485472
-1.6262168764333702
-0.23499848933261108
0.009976807557485472
-1.6262168764333702
-0.23499848933261108
0.009976807557485472
-1.6262168764333702
-0.23407048987092963
0.011369210825195432
-1.6256761559349109
-0.23407048987092963
0.011369210825195432
-1.6256761559349109
-0.23407048987092963
0.011369210825195432
-1.6256761559349109
-0.23407048987092963
0.011369210825195432
-1.6256761559349109
-0.23469945209580675
0.012235006015044275
-1.6248284569884959
-0.23469945209580675
0.012235006015044275
-1.6248284569884959
-0.23469945209580675
0.012235006015044275
-1.6248284569884959
-0.23469945209580675
0.012235006015044275
-1.6248284569884959
-0.2348031128313524
0.013125263896586347
-1.6238914694858122
-0.2348031128313524
0.013125263896586347
-1.6238914694858122
-0.2348031128313524
0.013125263896586347
-1.6238914694858122
-0.2348031128313524
0.013125263896586347
-1.6238914694858122
-0.2323936358702163
0.014137117564436984
-1.6232049389249013
-0.2323936358702163
0.014137117564436984
-1.6232049389249013
-0.2323936358702163
0.014137117564436984
-1.6232049389249013
-0.2323936358702163
0.014137117564436984
-1.6232049389249013
-0.2332012626224033
0.0156534975835756
-1.6226933230993978
-0.2332012626224033
0.0156534975835756
-1.6226933230993978
-0.2332012626224033
0.0156534975835756
-1.6226933230993978
-0.2332012626224033
0.0156534975835756
-1.6226933230993978
-0.23384311407794098
0.016661513776912603
-1.6221260717222603
-0.23384311407794098
0.016661513776912603
-1.6221260717222603
-0.23384311407794098
0.016661513776912603
-1.6221260717222603
-0.23384311407794098
0.016661513776912603
-1.6221260717222603
-0.23409160133541984
0.01643795995420814
-1.6217543272838055
-0.23409160133541984
0.01643795995420814
-1.6217543272838055
-0.23409160133541984
0.01643795995420814
-1.6217543272838055
-0.23409160133541984
0.01643795995420814
-1.6217543272838055
-0.23399130513513008
0.016404535846254283
-1.621313003349994
-0.23399130513513008
0.016404535846254283
-1.621313003349994
-0.23399130513513008
0.016404535846254283
-1.621313003349994
-0.23399130513513008
0.016404535846254283
-1.621313003349994
-0.23340773265693515
0.01727207881145118
-1.6207147691611523
-0.23340773265693515
0.01727207881145118
-1.6207147691611523
-0.23340773265693515
0.01727207881145118
-1.6207147691611523
-0.23340773265693515
0.01727207881145118
-1.6207147691611523
-0.23495464703468397
0.017091508589371217
-1.620448406661052
-0.23495464703468397
0.017091508589371217
-1.620448406661052
-0.23495464703468397
0.017091508589371217
-1.620448406661052
-0.23495464703468397
0.017091508589371217
-1.620448406661052
-0.23520154230466184
0.016324283040110035
-1.620275069300278
-0.23520154230466184
0.016324283040110035
-1.620275069300278
-0.23520154230466184
0.016324283040110035
-1.620275069300278
-0.23520154230466184
0.016324283040110035
-1.620275069300278
-0.23369404383866085
0.015599201999827176
-1.6200843943252943
-0.23369404383866085
0.015599201999827176
-1.6200843943252943
-0.23369404383866085
0.015599201999827176
-1.6200843943252943
-0.23369404383866085
0.015599201999827176
-1.6200843943252943
-0.2335226312048276
0.015603583584085966
-1.6200835529093514
-0.2335226312048276
0.015603583584085966
-1.6200835529093514
-0.2335226312048276
0.015603583584085966
-1.6200835529093514
-0.2335226312048276
0.015603583584085966
-1.6200835529093514
-0.23501169638588915
0.01566341681973995
-1.6200216856937113
-0.23501169638588915
0.01566341681973995
-1.6200216856937113
-0.23501169638588915
0.01566341681973995
-1.6200216856937113
-0.23501169638588915
0.01566341681973995
-1.6200216856937113
-0.23621931844216354
0.01541090210487156
-1.62043786796641
-0.23621931844216354
0.01541090210487156
-1.62043786796641
-0.23621931844216354
0.01541090210487156
-1.62043786796641
-0.23621931844216354
0.01541090210487156
-1.62043786796641
-0.2362935416782585
0.014395240534420697
-1.6209282776036078
-0.2362935416782585
0.014395240534420697
-1.6209282776036078
-0.2362935416782585
0.014395240534420697
-1.6209282776036078
-0.2362935416782585
0.014395240534420697
-1.6209282776036078
-0.2357441806979144
0.013329135051012344
-1.621230395946406
-0.2357441806979144
0.013329135051012344
-1.621230395946406
-0.2357441806979144
0.013329135051012344
-1.621230395946406
-0.2357441806979144
0.013329135051012344
-1.621230395946406
-0.2346794455858251
0.01260902158294761
-1.6216553974293235
-0.2346794455858251
0.01260902158294761
-1.6216553974293235
-0.2346794455858251
0.01260902158294761
-1.6216553974293235
-0.2346794455858251
0.01260902158294761
-1.6216553974293235
-0.23518608626612628
0.011900189557168324
-1.6216639305074745
-0.23518608626612628
0.011900189557168324
-1.6216639305074745
-0.23518608626612628
0.011900189557168324
-1.6216639305074745
-0.23518608626612628
0.011900189557168324
-1.6216639305074745
-0.23518160735562096
0.01172880951414735
-1.6216436566670875
-0.23518160735562096
0.01172880951414735
-1.6216436566670875
-0.23518160735562096
0.01172880951414735
-1.6216436566670875
-0.23518160735562096
0.01172880951414735
-1.6216436566670875
-0.23494128405389725
0.0122948657425939
-1.6220565991369758
-0.23494128405389725
0.0122948657425939
-1.6220565991369758
-0.23494128405389725
0.0122948657425939
-1.6220565991369758
-0.23494128405389725
0.0122948657425939
-1.6220565991369758
-0.2335600467053099
0.012632988537360536
-1.6224308632646642
-0.2335600467053099
0.012632988537360536
-1.6224308632646642
-0.2335600467053099
0.012632988537360536
-1.6224308632646642
-0.2335600467053099
0.012632988537360536
-1.6224308632646642
-0.23305432629331832
0.013009547900339839
-1.6222979395392485
-0.23305432629331832
0.013009547900339839
-1.6222979395392485
-0.23305432629331832
0.013009547900339839
-1.6222979395392485
-0.23305432629331832
0.013009547900339839
-1.6222979395392485
-0.2335651779962508
0.012784246053523842
-1.622622407369532
-0.2335651779962508
0.012784246053523842
-1.622622407369532
-0.2335651779962508
0.012784246053523842
-1.622622407369532
-0.2335651779962508
0.012784246053523842
-1.622622407369532
-0.23262932087034124
0.013378923089762896
-1.6229442783816963
-0.23262932087034124
0.013378923089762896
-1.6229442783816963
-0.23262932087034124
0.013378923089762896
-1.6229442783816963
-0.23262932087034124
0.013378923089762896
-1.6229442783816963
-0.23264844743577923
0.014044466733266025
-1.6231959377288323
-0.23264844743577923
0.014044466733266025
-1.6231959377288323
-0.23264844743577923
0.014044466733266025
-1.6231959377288323
-0.23264844743577923
0.014044466733266025
-1.6231959377288323
-0.23345151054539237
0.014452790769334834
-1.6232539474796768
-0.23345151054539237
0.014452790769334834
-1.6232539474796768
-0.23345151054539237
0.014452790769334834
-1.6232539474796768
-0.23345151054539237
0.014452790769334834
-1.6232539474796768
-0.23362866688810718
0.014911587459400171
-1.6237412874279595
-0.23362866688810718
0.014911587459400171
-1.6237412874279595
-0.23362866688810718
0.014911587459400171
-1.6237412874279595
-0.23362866688810718
0.014911587459400171
-1.6237412874279595
-0.23294771844735904
0.01510173672117598
-1.6237583899689996
-0.23294771844735904
0.01510173672117598
-1.6237583899689996
-0.23294771844735904
0.01510173672117598
-1.6237583899689996
-0.23294771844735904
0.01510173672117598
-1.6237583899689996
-0.23226099982829376
0.015472940311556228
-1.623707337855228
-0.23226099982829376
0.015472940311556228
-1.623707337855228
-0.23226099982829376
0.015472940311556228
-1.623707337855228
-0.23226099982829376
0.015472940311556228
-1.623707337855228
-0.23226099982829376
0.015472940311556228
-1.623707337855228
-0.23226099982829376
0.015472940311556228
-1.623707337855228
-0.23226099982829376
0.015472940311556228
-1.623707337855228
-0.23226099982829376
0.015472940311556228
-1.623707337855228
-0.2324324217205499
0.015468249869901994
-1.6237081345372124
-0.2324324217205499
0.015468249869901994
-1.6237081345372124
-0.2324324217205499
0.015468249869901994
-1.6237081345372124
-0.2324324217205499
0.015468249869901994
-1.6237081345372124
-0.23234436613267703
0.015384894355264305
-1.6236977162503925
-0.23234436613267703
0.015384894355264305
-1.6236977162503925
-0.23234436613267703
0.015384894355264305
-1.6236977162503925
-0.23234436613267703
0.015384894355264305
-1.6236977162503925
-0.231748687750174
0.016050797462226915
-1.6233339953511594
-0.231748687750174
0.016050797462226915
-1.6233339953511594
-0.231748687750174
0.016050797462226915
-1.6233339953511594
-0.231748687750174
0.016050797462226915
-1.6233339953511594
-0.23348039530413092
0.016065406339781044
-1.622832905151103
-0.23348039530413092
0.016065406339781044
-1.622832905151103
-0.23348039530413092
0.016065406339781044
-1.622832905151103
-0.23348039530413092
0.016065406339781044
-1.622832905151103
-0.23502554745701995
0.015318893907995807
-1.6229354921873353
-0.23502554745701995
0.015318893907995807
-1.6229354921873353
-0.23502554745701995
0.015318893907995807
-1.6229354921873353
-0.23502554745701995
0.015318893907995807
-1.6229354921873353
-0.23380139438504666
0.01484677091032389
-1.6227814648287886
-0.23380139438504666
0.01484677091032389
-1.6227814648287886
-0.23380139438504666
0.01484677091032389
-1.6227814648287886
-0.23380139438504666
0.01484677091032389
-1.6227814648287886
-0.2337098024860249
0.01517631461443507
-1.6222090956267083
-0.2337098024860249
0.01517631461443507
-1.6222090956267083
-0.2337098024860249
0.01517631461443507
-1.6222090956267083
-0.2337098024860249
0.01517631461443507
-1.6222090956267083
-0.23433286661581662
0.015831315030712934
-1.6216849276704626
-0.23433286661581662
0.015831315030712934
-1.6216849276704626
-0.23433286661581662
0.015831315030712934
-1.6216849276704626
-0.23433286661581662
0.015831315030712934
-1.6216849276704626
-0.2368429570615145
0.015479327728405153
-1.6219302864004457
-0.2368429570615145
0.015479327728405153
-1.6219302864004457
-0.2368429570615145
0.015479327728405153
-1.6219302864004457
-0.2368429570615145
0.015479327728405153
-1.6219302864004457
-0.23753226157500715
0.014735580505637577
-1.622198855747984
-0.23753226157500715
0.014735580505637577
-1.622198855747984
-0.23753226157500715
0.014735580505637577
-1.622198855747984
-0.23753226157500715
0.014735580505637577
-1.622198855747984
-0.23655716057618573
0.014351887167862738
-1.6219678578342056
-0.23655716057618573
0.014351887167862738
-1.6219678578342056
-0.23655716057618573
0.014351887167862738
-1.6219678578342056
-0.23655716057618573
0.014351887167862738
-1.6219678578342056
-0.23526576402780022
0.015025539388590348
-1.6216862073525984
-0.23526576402780022
0.015025539388590348
-1.6216862073525984
-0.23526576402780022
0.015025539388590348
-1.6216862073525984
-0.23526576402780022
0.015025539388590348
-1.6216862073525984
-0.2355467644025951
0.015669749560507287
-1.6213322253671363
-0.2355467644025951
0.015669749560507287
-1.6213322253671363
-0.2355467644025951
0.015669749560507287
-1.6213322253671363
-0.2355467644025951
0.015669749560507287
-1.6213322253671363
-0.2375547695470078
0.01647194633542627
-1.6207529055075849
-0.2375547695470078
0.01647194633542627
-1.6207529055075849
-0.2375547695470078
0.01647194633542627
-1.6207529055075849
-0.2375547695470078
0.01647194633542627
-1.6207529055075849
-0.2379974141176789
0.017355008282244715
-1.6198193022118594
-0.2379974141176789
0.017355008282244715
-1.6198193022118594
-0.2379974141176789
0.017355008282244715
-1.6198193022118594
-0.2379974141176789
0.017355008282244715
-1.6198193022118594
-0.23792481344620922
0.0187582340034546
-1.617552890207192
-0.23792481344620922
0.0187582340034546
-1.617552890207192
-0.23792481344620922
0.0187582340034546
-1.617552890207192
-0.23792481344620922
0.0187582340034546
-1.617552890207192
-0.23861981639740001
0.02050319698570424
-1.614465877484383
-0.23861981639740001
0.02050319698570424
-1.614465877484383
-0.23861981639740001
0.02050319698570424
-1.614465877484383
-0.23861981639740001
0.02050319698570424
-1.614465877484383
-0.2379346563581824
0.02218678845217292
-1.6121376034929626
-0.2379346563581824
0.02218678845217292
-1.6121376034929626
-0.2379346563581824
0.02218678845217292
-1.6121376034929626
-0.2379346563581824
0.02218678845217292
-1.6121376034929626
-0.23925796075527053
0.02358956054980781
-1.6111074948130797
-0.23925796075527053
0.02358956054980781
-1.6111074948130797
-0.23925796075527053
0.02358956054980781
-1.6111074948130797
-0.23925796075527053
0.02358956054980781
-1.6111074948130797
-0.24342057656010854
0.02353623770474785
-1.6108980934600075
-0.24342057656010854
0.02353623770474785
-1.6108980934600075
-0.24342057656010854
0.02353623770474785
-1.6108980934600075
-0.24342057656010854
0.02353623770474785
-1.6108980934600075
-0.24807584008624334
0.021397887324918846
-1.6106114336429906
-0.24807584008624334
0.021397887324918846
-1.6106114336429906
-0.24807584008624334
0.021397887324918846
-1.6106114336429906
-0.24807584008624334
0.021397887324918846
-1.6106114336429906
-0.2514961980125677
0.018887458288725133
-1.6106856439071227
-0.2514961980125677
0.018887458288725133
-1.6106856439071227
-0.2514961980125677
0.018887458288725133
-1.6106856439071227
-0.2514961980125677
0.018887458288725133
-1.6106856439071227
-0.25135788367647616
0.01591241041151076
-1.6115262561702006
-0.25135788367647616
0.01591241041151076
-1.6115262561702006
-0.25135788367647616
0.01591241041151076
-1.6115262561702006
-0.25135788367647616
0.01591241041151076
-1.6115262561702006
-0.25192854166513895
0.012994074440048256
-1.6145555455225755
-0.25192854166513895
0.012994074440048256
-1.6145555455225755
-0.25192854166513895
0.012994074440048256
-1.6145555455225755
-0.25192854166513895
0.012994074440048256
-1.6145555455225755
-0.2502403211517744
0.009848249901021552
-1.6184088179532072
-0.2502403211517744
0.009848249901021552
-1.6184088179532072
-0.2502403211517744
0.009848249901021552
-1.6184088179532072
-0.2502403211517744
0.009848249901021552
-1.6184088179532072
-0.2508992692392675
0.00734487190847648
-1.621579558200854
-0.2508992692392675
0.00734487190847648
-1.621579558200854
-0.2508992692392675
0.00734487190847648
-1.621579558200854
-0.2508992692392675
0.00734487190847648
-1.621579558200854
-0.2558728363592486
0.004462009737090971
-1.6227214388883753
-0.2558728363592486
0.004462009737090971
-1.6227214388883753
-0.2558728363592486
0.004462009737090971
-1.6227214388883753
-0.2558728363592486
0.004462009737090971
-1.6227214388883753
-0.26316821452558625
0.003167468006087265
-1.624508382252302
-0.26316821452558625
0.003167468006087265
-1.624508382252302
-0.26316821452558625
0.003167468006087265
-1.624508382252302
-0.26316821452558625
0.003167468006087265
-1.624508382252302
-0.26791193474123753
0.001068182346854138
-1.626863661912208
-0.26791193474123753
0.001068182346854138
-1.626863661912208
-0.26791193474123753
0.001068182346854138
-1.626863661912208
-0.26791193474123753
0.001068182346854138
-1.626863661912208
-0.27586398315108146
-0.0014331426665246938
-1.6282075326617331
-0.27586398315108146
-0.0014331426665246938
-1.6282075326617331
-0.27586398315108146
-0.0014331426665246938
-1.6282075326617331
-0.27586398315108146
-0.0014331426665246938
-1.6282075326617331
-0.2766694087505256
-0.0010005012109438256
-1.6293175677923903
-0.2766694087505256
-0.0010005012109438256
-1.6293175677923903
-0.2766694087505256
-0.0010005012109438256
-1.6293175677923903
-0.2766694087505256
-0.0010005012109438256
-1.6293175677923903
-0.2734564476593738
-9.79430918446239E-4
-1.6317505283085556
-0.2734564476593738
-9.79430918446239E-4
-1.6317505283085556
-0.2734564476593738
-9.79430918446239E-4
-1.6317505283085556
-0.2734564476593738
-9.79430918446239E-4
-1.6317505283085556
-0.2746141129273372
-0.002985701152058845
-1.6333941709731856
-0.2746141129273372
-0.002985701152058845
-1.6333941709731856
-0.2746141129273372
-0.002985701152058845
-1.6333941709731856
-0.2746141129273372
-0.002985701152058845
-1.6333941709731856
-0.2766892830331865
-0.0010596103181047878
-1.6334959542330207
-0.2766892830331865
-0.0010596103181047878
-1.6334959542330207
-0.2766892830331865
-0.0010596103181047878
-1.6334959542330207
-0.2766892830331865
-0.0010596103181047878
-1.6334959542330207
-0.2929649087780308
7.578132099150368E-4
-1.6319079366610638
-0.2929649087780308
7.578132099150368E-4
-1.6319079366610638
-0.2929649087780308
7.578132099150368E-4
-1.6319079366610638
-0.2929649087780308
7.578132099150368E-4
-1.6319079366610638
-0.30827296002019583
0.0022160825652094594
-1.6301988827819356
-0.30827296002019583
0.0022160825652094594
-1.6301988827819356
-0.30827296002019583
0.0022160825652094594
-1.6301988827819356
-0.30827296002019583
0.0022160825652094594
-1.6301988827819356
-0.308839075698098
0.0034827935112163996
-1.632058267108111
-0.308839075698098
0.0034827935112163996
-1.632058267108111
-0.308839075698098
0.0034827935112163996
-1.632058267108111
-0.308839075698098
0.0034827935112163996
-1.632058267108111
-0.2990451520052929
0.004128772291481735
-1.6396044694663878
-0.2990451520052929
0.004128772291481735
-1.6396044694663878
-0.2990451520052929
0.004128772291481735
-1.6396044694663878
-0.2990451520052929
0.004128772291481735
-1.6396044694663878
-0.2916326628845904
0.003204034786559821
-1.6446548382778345
-0.2916326628845904
0.003204034786559821
-1.6446548382778345
-0.2916326628845904
0.003204034786559821
-1.6446548382778345
-0.2916326628845904
0.003204034786559821
-1.6446548382778345
-0.2933995554860057
0.0014268488212238356
-1.6450150975858973
-0.2933995554860057
0.0014268488212238356
-1.6450150975858973
-0.2933995554860057
0.0014268488212238356
-1.6450150975858973
-0.2933995554860057
0.0014268488212238356
-1.6450150975858973
-0.3035529162049385
-0.0025109986209878275
-1.6431662085289302
-0.3035529162049385
-0.0025109986209878275
-1.6431662085289302
-0.3035529162049385
-0.0025109986209878275
-1.6431662085289302
-0.3035529162049385
-0.0025109986209878275
-1.6431662085289302
-0.31378567294638715
-0.004739868850187165
-1.6416350030523792
-0.31378567294638715
-0.004739868850187165
-1.6416350030523792
-0.31378567294638715
-0.004739868850187165
-1.6416350030523792
-0.31378567294638715
-0.004739868850187165
-1.6416350030523792
-0.31242721539355456
-0.006069731386872232
-1.6431690902890523
-0.31242721539355456
-0.006069731386872232
-1.6431690902890523
-0.31242721539355456
-0.006069731386872232
-1.6431690902890523
-0.31242721539355456
-0.006069731386872232
-1.6431690902890523
-0.30604479110538535
-0.00618699413187703
-1.6437465819144699
-0.30604479110538535
-0.00618699413187703
-1.6437465819144699
-0.30604479110538535
-0.00618699413187703
-1.6437465819144699
-0.30604479110538535
-0.00618699413187703
-1.6437465819144699
-0.30219311595962006
-0.006322916019913062
-1.643279241890754
-0.30219311595962006
-0.006322916019913062
-1.643279241890754
-0.30219311595962006
-0.006322916019913062
-1.643279241890754
-0.30219311595962006
-0.006322916019913062
-1.643279241890754
-0.3025968342747148
-0.0070943126008637504
-1.6419387581564926
-0.3025968342747148
-0.0070943126008637504
-1.6419387581564926
-0.3025968342747148
-0.0070943126008637504
-1.6419387581564926
-0.3025968342747148
-0.0070943126008637504
-1.6419387581564926
-0.3042337441439656
-0.00792154729431456
-1.6406809482326874
-0.3042337441439656
-0.00792154729431456
-1.6406809482326874
-0.3042337441439656
-0.00792154729431456
-1.6406809482326874
-0.3042337441439656
-0.00792154729431456
-1.6406809482326874
-0.304381664644225
-0.008675565911799733
-1.6398665157955776
-0.304381664644225
-0.008675565911799733
-1.6398665157955776
-0.304381664644225
-0.008675565911799733
-1.6398665157955776
-0.304381664644225
-0.008675565911799733
-1.6398665157955776
-0.2993337041860302
-0.010242504289656128
-1.6392729632236192
-0.2993337041860302
-0.010242504289656128
-1.6392729632236192
-0.2993337041860302
-0.010242504289656128
-1.6392729632236192
-0.2993337041860302
-0.010242504289656128
-1.6392729632236192
-0.2990180478665737
-0.012025305113381062
-1.639006059609581
-0.2990180478665737
-0.012025305113381062
-1.639006059609581
-0.2990180478665737
-0.012025305113381062
-1.639006059609581
-0.2990180478665737
-0.012025305113381062
-1.639006059609581
-0.30170971672620717
-0.012506767994669085
-1.6375324721474338
-0.30170971672620717
-0.012506767994669085
-1.6375324721474338
-0.30170971672620717
-0.012506767994669085
-1.6375324721474338
-0.30170971672620717
-0.012506767994669085
-1.6375324721474338
-0.29901861684240816
-0.012399787084508104
-1.6368558840405016
-0.29901861684240816
-0.012399787084508104
-1.6368558840405016
-0.29901861684240816
-0.012399787084508104
-1.6368558840405016
-0.29901861684240816
-0.012399787084508104
-1.6368558840405016
-0.2954756759401567
-0.011317699143804236
-1.6368471648105245
-0.2954756759401567
-0.011317699143804236
-1.6368471648105245
-0.2954756759401567
-0.011317699143804236
-1.6368471648105245
-0.2954756759401567
-0.011317699143804236
-1.6368471648105245
-0.2929890714380305
-0.012151673279411346
-1.6395171166004447
-0.2929890714380305
-0.012151673279411346
-1.6395171166004447
-0.2929890714380305
-0.012151673279411346
-1.6395171166004447
-0.2929890714380305
-0.012151673279411346
-1.6395171166004447
-0.2906255572063754
-0.012653004566362156
-1.6417191066921941
-0.2906255572063754
-0.012653004566362156
-1.6417191066921941
-0.2906255572063754
-0.012653004566362156
-1.6417191066921941
-0.2906255572063754
-0.012653004566362156
-1.6417191066921941
-0.2839602104618846
-0.011110242500233214
-1.644216633834316
-0.2839602104618846
-0.011110242500233214
-1.644216633834316
-0.2839602104618846
-0.011110242500233214
-1.644216633834316
-0.2839602104618846
-0.011110242500233214
-1.644216633834316
-0.2751056070807309
-0.012034174312500905
-1.6463572442733447
-0.2751056070807309
-0.012034174312500905
-1.6463572442733447
-0.2751056070807309
-0.012034174312500905
-1.6463572442733447
-0.2751056070807309
-0.012034174312500905
-1.6463572442733447
-0.256808431072401
-0.009504600523589153
-1.647745479146648
-0.256808431072401
-0.009504600523589153
-1.647745479146648
-0.256808431072401
-0.009504600523589153
-1.647745479146648
-0.256808431072401
-0.009504600523589153
-1.647745479146648
-0.23858666848595567
-0.0057117718110750075
-1.648894657890223
-0.23858666848595567
-0.0057117718110750075
-1.648894657890223
-0.23858666848595567
-0.0057117718110750075
-1.648894657890223
-0.23858666848595567
-0.0057117718110750075
-1.648894657890223
-0.21984264033892217
-0.00249873910225647
-1.6493047861335892
-0.21984264033892217
-0.00249873910225647
-1.6493047861335892
-0.21984264033892217
-0.00249873910225647
-1.6493047861335892
-0.21984264033892217
-0.00249873910225647
-1.6493047861335892
-0.21601396288655136
-4.052285621017426E-4
-1.6482181876458581
-0.21601396288655136
-4.052285621017426E-4
-1.6482181876458581
-0.21601396288655136
-4.052285621017426E-4
-1.6482181876458581
-0.21601396288655136
-4.052285621017426E-4
-1.6482181876458581
-0.22627136687878205
-8.8591256161914E-5
-1.644993690998369
-0.22627136687878205
-8.8591256161914E-5
-1.644993690998369
-0.22627136687878205
-8.8591256161914E-5
-1.644993690998369
-0.22627136687878205
-8.8591256161914E-5
-1.644993690998369
-0.24031159641256936
-6.064584459754923E-4
-1.6406380650357837
-0.24031159641256936
-6.064584459754923E-4
-1.6406380650357837
-0.24031159641256936
-6.064584459754923E-4
-1.6406380650357837
-0.24031159641256936
-6.064584459754923E-4
-1.6406380650357837
-0.24898237261407202
-0.0011339417112587963
-1.638255634834913
-0.24898237261407202
-0.0011339417112587963
-1.638255634834913
-0.24898237261407202
-0.0011339417112587963
-1.638255634834913
-0.24898237261407202
-0.0011339417112587963
-1.638255634834913
-0.23680668089940762
0.001241114074158344
-1.637108123487726
-0.23680668089940762
0.001241114074158344
-1.637108123487726
-0.23680668089940762
0.001241114074158344
-1.637108123487726
-0.23680668089940762
0.001241114074158344
-1.637108123487726
-0.22661097828801768
0.003613423930884851
-1.6360261784699086
-0.22661097828801768
0.003613423930884851
-1.6360261784699086
-0.22661097828801768
0.003613423930884851
-1.6360261784699086
-0.22661097828801768
0.003613423930884851
-1.6360261784699086
-0.2378924550662079
0.0057142932047131055
-1.6350368807731044
-0.2378924550662079
0.0057142932047131055
-1.6350368807731044
-0.2378924550662079
0.0057142932047131055
-1.6350368807731044
-0.2378924550662079
0.0057142932047131055
-1.6350368807731044
-0.24439261898731787
0.005147483569555903
-1.6330117256861891
-0.24439261898731787
0.005147483569555903
-1.6330117256861891
-0.24439261898731787
0.005147483569555903
-1.6330117256861891
-0.24439261898731787
0.005147483569555903
-1.6330117256861891
-0.2425502408183602
0.005181453523143903
-1.6324788692463756
-0.2425502408183602
0.005181453523143903
-1.6324788692463756
-0.2425502408183602
0.005181453523143903
-1.6324788692463756
-0.2425502408183602
0.005181453523143903
-1.6324788692463756
-0.2388092119181488
0.0052351287956067345
-1.6308111729587649
-0.2388092119181488
0.0052351287956067345
-1.6308111729587649
-0.2388092119181488
0.0052351287956067345
-1.6308111729587649
-0.2388092119181488
0.0052351287956067345
-1.6308111729587649
-0.2378703066776386
0.006157804955812129
-1.6298710675518135
-0.2378703066776386
0.006157804955812129
-1.6298710675518135
-0.2378703066776386
0.006157804955812129
-1.6298710675518135
-0.2378703066776386
0.006157804955812129
-1.6298710675518135
-0.2421528415780693
0.006927939265932645
-1.628950351307294
-0.2421528415780693
0.006927939265932645
-1.628950351307294
-0.2421528415780693
0.006927939265932645
-1.628950351307294
-0.2421528415780693
0.006927939265932645
-1.628950351307294
-0.2407861006576307
0.008281594911200228
-1.628145839957664
-0.2407861006576307
0.008281594911200228
-1.628145839957664
-0.2407861006576307
0.008281594911200228
-1.628145839957664
-0.2407861006576307
0.008281594911200228
-1.628145839957664
-0.23749318587423413
0.00902329308586737
-1.6270786512382898
-0.23749318587423413
0.00902329308586737
-1.6270786512382898
-0.23749318587423413
0.00902329308586737
-1.6270786512382898
-0.23749318587423413
0.00902329308586737
-1.6270786512382898
-0.23612465013985298
0.009749568528369421
-1.625678973916462
-0.23612465013985298
0.009749568528369421
-1.625678973916462
-0.23612465013985298
0.009749568528369421
-1.625678973916462
-0.23612465013985298
0.009749568528369421
-1.625678973916462
-0.23815262322504396
0.011356259523113674
-1.6241478369527806
-0.23815262322504396
0.011356259523113674
-1.6241478369527806
-0.23815262322504396
0.011356259523113674
-1.6241478369527806
-0.23815262322504396
0.011356259523113674
-1.6241478369527806
-0.2398993769711912
0.01188580042140573
-1.623704764259678
-0.2398993769711912
0.01188580042140573
-1.623704764259678
-0.2398993769711912
0.01188580042140573
-1.623704764259678
-0.2398993769711912
0.01188580042140573
-1.623704764259678
-0.23790267272442664
0.012287923288530497
-1.622951944723252
-0.23790267272442664
0.012287923288530497
-1.622951944723252
-0.23790267272442664
0.012287923288530497
-1.622951944723252
-0.23790267272442664
0.012287923288530497
-1.622951944723252
-0.2341811429304133
0.013680785370663001
-1.6215154876502758
-0.2341811429304133
0.013680785370663001
-1.6215154876502758
-0.2341811429304133
0.013680785370663001
-1.6215154876502758
-0.2341811429304133
0.013680785370663001
-1.6215154876502758
-0.23550860871650445
0.014671567183755284
-1.6209510315925761
-0.23550860871650445
0.014671567183755284
-1.6209510315925761
-0.23550860871650445
0.014671567183755284
-1.6209510315925761
-0.23550860871650445
0.014671567183755284
-1.6209510315925761
-0.23857362731138054
0.015500344283483139
-1.6199538114805594
-0.23857362731138054
0.015500344283483139
-1.6199538114805594
-0.23857362731138054
0.015500344283483139
-1.6199538114805594
-0.23857362731138054
0.015500344283483139
-1.6199538114805594
-0.2370897277761738
0.01586484744770185
-1.6193710625570348
-0.2370897277761738
0.01586484744770185
-1.6193710625570348
-0.2370897277761738
0.01586484744770185
-1.6193710625570348
-0.2370897277761738
0.01586484744770185
-1.6193710625570348
-0.2357840911030575
0.016295794355001118
-1.6181909603042028
-0.2357840911030575
0.016295794355001118
-1.6181909603042028
-0.2357840911030575
0.016295794355001118
-1.6181909603042028
-0.2357840911030575
0.016295794355001118
-1.6181909603042028
-0.23492077696136504
0.017062303379338263
-1.6177489740953237
-0.23492077696136504
0.017062303379338263
-1.6177489740953237
-0.23492077696136504
0.017062303379338263
-1.6177489740953237
-0.23492077696136504
0.017062303379338263
-1.6177489740953237
-0.23762557649793434
0.017489055811021594
-1.6173096785949999
-0.23762557649793434
0.017489055811021594
-1.6173096785949999
-0.23762557649793434
0.017489055811021594
-1.6173096785949999
-0.23762557649793434
0.017489055811021594
-1.6173096785949999
-0.23753780253246265
0.017405459182736036
-1.61729892372258
-0.23753780253246265
0.017405459182736036
-1.61729892372258
-0.23753780253246265
0.017405459182736036
-1.61729892372258
-0.23753780253246265
0.017405459182736036
-1.61729892372258
-0.238770380232156
0.018145077980889063
-1.6167070501568794
-0.238770380232156
0.018145077980889063
-1.6167070501568794
-0.238770380232156
0.018145077980889063
-1.6167070501568794
-0.238770380232156
0.018145077980889063
-1.6167070501568794
-0.23894731889024534
0.018778631538247065
-1.6157417036287285
-0.23894731889024534
0.018778631538247065
-1.6157417036287285
-0.23894731889024534
0.018778631538247065
-1.6157417036287285
-0.23894731889024534
0.018778631538247065
-1.6157417036287285
-0.23763706393256448
0.018763117962660458
-1.6153760075828048
-0.23763706393256448
0.018763117962660458
-1.6153760075828048
-0.23763706393256448
0.018763117962660458
-1.6153760075828048
-0.23763706393256448
0.018763117962660458
-1.6153760075828048
-0.23806921833855524
0.01850688657335267
-1.6152643946355607
-0.23806921833855524
0.01850688657335267
-1.6152643946355607
-0.23806921833855524
0.01850688657335267
-1.6152643946355607
-0.23806921833855524
0.01850688657335267
-1.6152643946355607
-0.23815291294182528
0.01841920665874301
-1.6152546890794717
-0.23815291294182528
0.01841920665874301
-1.6152546890794717
-0.23815291294182528
0.01841920665874301
-1.6152546890794717
-0.23815291294182528
0.01841920665874301
-1.6152546890794717
-0.23685010180730154
0.01851332609826939
-1.6154238661221374
-0.23685010180730154
0.01851332609826939
-1.6154238661221374
-0.23685010180730154
0.01851332609826939
-1.6154238661221374
-0.23685010180730154
0.01851332609826939
-1.6154238661221374
-0.2356350546390376
0.01869133926028599
-1.615603649486227
-0.2356350546390376
0.01869133926028599
-1.615603649486227
-0.2356350546390376
0.01869133926028599
-1.615603649486227
-0.2356350546390376
0.01869133926028599
-1.615603649486227
-0.23581280982663946
0.0188180107793265
-1.6159679469484054
-0.23581280982663946
0.0188180107793265
-1.6159679469484054
-0.23581280982663946
0.0188180107793265
-1.6159679469484054
-0.23581280982663946
0.0188180107793265
-1.6159679469484054
-0.233988338849145
0.018814162516195058
-1.6155987802556036
-0.233988338849145
0.018814162516195058
-1.6155987802556036
-0.233988338849145
0.018814162516195058
-1.6155987802556036
-0.233988338849145
0.018814162516195058
-1.6155987802556036
-0.23374166572287047
0.019480598025974447
-1.615153308772588
-0.23374166572287047
0.019480598025974447
-1.615153308772588
-0.23374166572287047
0.019480598025974447
-1.615153308772588
-0.23374166572287047
0.019480598025974447
-1.615153308772588
-0.23548438277355396
0.02001690624997073
-1.614716201346724
-0.23548438277355396
0.02001690624997073
-1.614716201346724
-0.23548438277355396
0.02001690624997073
-1.614716201346724
-0.23548438277355396
0.02001690624997073
-1.614716201346724
-0.23479453947307832
0.020405295613722455
-1.6144925049150431
-0.23479453947307832
0.020405295613722455
-1.6144925049150431
-0.23479453947307832
0.020405295613722455
-1.6144925049150431
-0.23479453947307832
0.020405295613722455
-1.6144925049150431
-0.23263175270430786
0.021102812452343783
-1.6141118123583074
-0.23263175270430786
0.021102812452343783
-1.6141118123583074
-0.23263175270430786
0.021102812452343783
-1.6141118123583074
-0.23263175270430786
0.021102812452343783
-1.6141118123583074
-0.23318149623696643
0.022321748807700735
-1.6140015662287475
-0.23318149623696643
0.022321748807700735
-1.6140015662287475
-0.23318149623696643
0.022321748807700735
-1.6140015662287475
-0.23318149623696643
0.022321748807700735
-1.6140015662287475
-0.2353678156296744
0.022884842632915812
-1.6140112758567204
-0.2353678156296744
0.022884842632915812
-1.6140112758567204
-0.2353678156296744
0.022884842632915812
-1.6140112758567204
-0.2353678156296744
0.022884842632915812
-1.6140112758567204
-0.2354515612645012
0.022797183951225933
-1.6140018785891292
-0.2354515612645012
0.022797183951225933
-1.6140018785891292
-0.2354515612645012
0.022797183951225933
-1.6140018785891292
-0.2354515612645012
0.022797183951225933
-1.6140018785891292
-0.2344958222193687
0.0227424774172937
-1.613895725234522
-0.2344958222193687
0.0227424774172937
-1.613895725234522
-0.2344958222193687
0.0227424774172937
-1.613895725234522
-0.2344958222193687
0.0227424774172937
-1.613895725234522
-0.2341631662537198
0.02328472901515919
-1.6137818731228535
-0.2341631662537198
0.02328472901515919
-1.6137818731228535
-0.2341631662537198
0.02328472901515919
-1.6137818731228535
-0.2341631662537198
0.02328472901515919
-1.6137818731228535
-0.23435425718282252
0.024137786978929036
-1.613884561599653
-0.23435425718282252
0.024137786978929036
-1.613884561599653
-0.23435425718282252
0.024137786978929036
-1.613884561599653
-0.23435425718282252
0.024137786978929036
-1.613884561599653
-0.2352174962215079
0.024169653456133238
-1.6134661072348824
-0.2352174962215079
0.024169653456133238
-1.6134661072348824
-0.2352174962215079
0.024169653456133238
-1.6134661072348824
-0.2352174962215079
0.024169653456133238
-1.6134661072348824
-0.2359203729940376
0.024507797277953568
-1.6134296196757278
-0.2359203729940376
0.024507797277953568
-1.6134296196757278
-0.2359203729940376
0.024507797277953568
-1.6134296196757278
-0.2359203729940376
0.024507797277953568
-1.6134296196757278
-0.23654730479343591
0.02527634881954636
-1.613443562183209
-0.23654730479343591
0.02527634881954636
-1.613443562183209
-0.23654730479343591
0.02527634881954636
-1.613443562183209
-0.23654730479343591
0.02527634881954636
-1.613443562183209
-0.2358715419421269
0.0259257526340947
-1.6139446888339053
-0.2358715419421269
0.0259257526340947
-1.6139446888339053
-0.2358715419421269
0.0259257526340947
-1.6139446888339053
-0.2358715419421269
0.0259257526340947
-1.6139446888339053
-0.23595527659497448
0.02583808564203654
-1.6139353968635246
-0.23595527659497448
0.02583808564203654
-1.6139353968635246
-0.23595527659497448
0.02583808564203654
-1.6139353968635246
-0.23595527659497448
0.02583808564203654
-1.6139353968635246
-0.2353575854350341
0.026149641607828397
-1.613616764190082
-0.2353575854350341
0.026149641607828397
-1.613616764190082
-0.2353575854350341
0.026149641607828397
-1.613616764190082
-0.2353575854350341
0.026149641607828397
-1.613616764190082
-0.23544228702836947
0.026797380301106663
-1.6132582432145695
-0.23544228702836947
0.026797380301106663
-1.6132582432145695
-0.23544228702836947
0.026797380301106663
-1.6132582432145695
-0.23544228702836947
0.026797380301106663
-1.6132582432145695
-0.23552996200988605
0.026881112034635012
-1.613269342714356
-0.23552996200988605
0.026881112034635012
-1.613269342714356
-0.23552996200988605
0.026881112034635012
-1.613269342714356
-0.23552996200988605
0.026881112034635012
-1.613269342714356
-0.23588767820739578
0.02682333132493976
-1.6137036343935953
-0.23588767820739578
0.02682333132493976
-1.6137036343935953
-0.23588767820739578
0.02682333132493976
-1.6137036343935953
-0.23588767820739578
0.02682333132493976
-1.6137036343935953
-0.2370901625718989
0.025920256118640118
-1.6137897025495507
-0.2370901625718989
0.025920256118640118
-1.6137897025495507
-0.2370901625718989
0.025920256118640118
-1.6137897025495507
-0.2370901625718989
0.025920256118640118
-1.6137897025495507
-0.2371536395844344
0.024763485103707638
-1.614000373683682
-0.2371536395844344
0.024763485103707638
-1.614000373683682
-0.2371536395844344
0.024763485103707638
-1.614000373683682
-0.2371536395844344
0.024763485103707638
-1.614000373683682
-0.2370659523569605
0.02467977908214886
-1.6139893023488425
-0.2370659523569605
0.02467977908214886
-1.6139893023488425
-0.2370659523569605
0.02467977908214886
-1.6139893023488425
-0.2370659523569605
0.02467977908214886
-1.6139893023488425
-0.23887802573436712
0.02419094976167481
-1.614130660045649
-0.23887802573436712
0.02419094976167481
-1.614130660045649
-0.23887802573436712
0.02419094976167481
-1.614130660045649
-0.23887802573436712
0.02419094976167481
-1.614130660045649
-0.23964965125036167
0.023968610611967756
-1.6136804676162717
-0.23964965125036167
0.023968610611967756
-1.6136804676162717
-0.23964965125036167
0.023968610611967756
-1.6136804676162717
-0.23964965125036167
0.023968610611967756
-1.6136804676162717
-0.23791018278443887
0.024067777802583762
-1.613146164022153
-0.23791018278443887
0.024067777802583762
-1.613146164022153
-0.23791018278443887
0.024067777802583762
-1.613146164022153
-0.23791018278443887
0.024067777802583762
-1.613146164022153
-0.23748802473903136
0.024858027216635718
-1.6131466713207712
-0.23748802473903136
0.024858027216635718
-1.6131466713207712
-0.23748802473903136
0.024858027216635718
-1.6131466713207712
-0.23748802473903136
0.024858027216635718
-1.6131466713207712
-0.2399254595705392
0.025159186606739457
-1.6131319170425233
-0.2399254595705392
0.025159186606739457
-1.6131319170425233
-0.2399254595705392
0.025159186606739457
-1.6131319170425233
-0.2399254595705392
0.025159186606739457
-1.6131319170425233
-0.24037349244591735
0.025801830614776065
-1.6127822945503827
-0.24037349244591735
0.025801830614776065
-1.6127822945503827
-0.24037349244591735
0.025801830614776065
-1.6127822945503827
-0.24037349244591735
0.025801830614776065
-1.6127822945503827
-0.23925433438881982
0.026518664747098478
-1.6120697479907222
-0.23925433438881982
0.026518664747098478
-1.6120697479907222
-0.23925433438881982
0.026518664747098478
-1.6120697479907222
-0.23925433438881982
0.026518664747098478
-1.6120697479907222
-0.23925407809077076
0.027892595151822148
-1.6107554571699378
-0.23925407809077076
0.027892595151822148
-1.6107554571699378
-0.23925407809077076
0.027892595151822148
-1.6107554571699378
-0.23925407809077076
0.027892595151822148
-1.6107554571699378
-0.23951596723667656
0.029399387365584364
-1.6090279986119929
-0.23951596723667656
0.029399387365584364
-1.6090279986119929
-0.23951596723667656
0.029399387365584364
-1.6090279986119929
-0.23951596723667656
0.029399387365584364
-1.6090279986119929
-0.2394220754971004
0.031208790746864064
-1.6062884595360314
-0.2394220754971004
0.031208790746864064
-1.6062884595360314
-0.2394220754971004
0.031208790746864064
-1.6062884595360314
-0.2394220754971004
0.031208790746864064
-1.6062884595360314
-0.2401969674958528
0.03295168291566862
-1.6039911193502374
-0.2401969674958528
0.03295168291566862
-1.6039911193502374
-0.2401969674958528
0.03295168291566862
-1.6039911193502374
-0.2401969674958528
0.03295168291566862
-1.6039911193502374
-0.2420069654839976
0.03409260412254954
-1.6022496992043924
-0.2420069654839976
0.03409260412254954
-1.6022496992043924
-0.2420069654839976
0.03409260412254954
-1.6022496992043924
-0.2420069654839976
0.03409260412254954
-1.6022496992043924
-0.24407610730479298
0.0344101309748564
-1.600849567535869
-0.24407610730479298
0.0344101309748564
-1.600849567535869
-0.24407610730479298
0.0344101309748564
-1.600849567535869
-0.24407610730479298
0.0344101309748564
-1.600849567535869
-0.24702061155496724
0.033872916791858595
-1.6006648208980305
-0.24702061155496724
0.033872916791858595
-1.6006648208980305
-0.24702061155496724
0.033872916791858595
-1.6006648208980305
-0.24702061155496724
0.033872916791858595
-1.6006648208980305
-0.24927516641033476
0.032405593554708866
-1.6010461737050692
-0.24927516641033476
0.032405593554708866
-1.6010461737050692
-0.2527926374028762
0.02982402721658772
-1.6011285624221265
-0.2527926374028762
0.02982402721658772
-1.6011285624221265
-0.2527926374028762
0.02982402721658772
-1.6011285624221265
-0.2527926374028762
0.02982402721658772
-1.6011285624221265
-0.2583392201427776
0.027745175780263913
-1.6018222320924627
-0.2583392201427776
0.027745175780263913
-1.6018222320924627
-0.2583392201427776
0.027745175780263913
-1.6018222320924627
-0.2583392201427776
0.027745175780263913
-1.6018222320924627
-0.2560616940248549
0.026426867631305674
-1.6028339609818265
-0.2560616940248549
0.026426867631305674
-1.6028339609818265
-0.2560616940248549
0.026426867631305674
-1.6028339609818265
-0.2560616940248549
0.026426867631305674
-1.6028339609818265
-0.26140649364114565
0.02554317605284903
-1.6056737323874166
-0.26140649364114565
0.02554317605284903
-1.6056737323874166
-0.26140649364114565
0.02554317605284903
-1.6056737323874166
-0.26140649364114565
0.02554317605284903
-1.6056737323874166
-0.2664747997323986
0.02462060074943621
-1.608065284238068
-0.2664747997323986
0.02462060074943621
-1.608065284238068
-0.2664747997323986
0.02462060074943621
-1.608065284238068
-0.2664747997323986
0.02462060074943621
-1.608065284238068
-0.2707328127708317
0.023584359486703853
-1.6093800566473984
-0.2707328127708317
0.023584359486703853
-1.6093800566473984
-0.2707328127708317
0.023584359486703853
-1.6093800566473984
-0.2707328127708317
0.023584359486703853
-1.6093800566473984
-0.2762383387238967
0.022206016750665483
-1.6117099114428803
-0.2762383387238967
0.022206016750665483
-1.6117099114428803
-0.2762383387238967
0.022206016750665483
-1.6117099114428803
-0.2762383387238967
0.022206016750665483
-1.6117099114428803
-0.2717019054832368
0.020521096518931834
-1.6144655030813857
-0.2717019054832368
0.020521096518931834
-1.6144655030813857
-0.2717019054832368
0.020521096518931834
-1.6144655030813857
-0.2717019054832368
0.020521096518931834
-1.6144655030813857
-0.2656872312950631
0.021451061153669886
-1.6188662830059573
-0.2656872312950631
0.021451061153669886
-1.6188662830059573
-0.2656872312950631
0.021451061153669886
-1.6188662830059573
-0.2656872312950631
0.021451061153669886
-1.6188662830059573
-0.27749737772602723
0.02275619835233625
-1.6194764460971995
-0.27749737772602723
0.02275619835233625
-1.6194764460971995
-0.27749737772602723
0.02275619835233625
-1.6194764460971995
-0.27749737772602723
0.02275619835233625
-1.6194764460971995
-0.300635833337441
0.02682501485704522
-1.6191298034086676
-0.300635833337441
0.02682501485704522
-1.6191298034086676
-0.300635833337441
0.02682501485704522
-1.6191298034086676
-0.300635833337441
0.02682501485704522
-1.6191298034086676
-0.3106756509916881
0.02457129438901302
-1.6226183821590001
-0.3106756509916881
0.02457129438901302
-1.6226183821590001
-0.3106756509916881
0.02457129438901302
-1.6226183821590001
-0.3106756509916881
0.02457129438901302
-1.6226183821590001
-0.31576725544942164
0.022800076459388603
-1.6274896751836496
-0.31576725544942164
0.022800076459388603
-1.6274896751836496
-0.31576725544942164
0.022800076459388603
-1.6274896751836496
-0.31576725544942164
0.022800076459388603
-1.6274896751836496
-0.302647521867236
0.019216877587075937
-1.6338117873423756
-0.302647521867236
0.019216877587075937
-1.6338117873423756
-0.302647521867236
0.019216877587075937
-1.6338117873423756
-0.302647521867236
0.019216877587075937
-1.6338117873423756
-0.2884001552452668
0.017641874989349902
-1.6373906995720517
-0.2884001552452668
0.017641874989349902
-1.6373906995720517
-0.2884001552452668
0.017641874989349902
-1.6373906995720517
-0.2884001552452668
0.017641874989349902
-1.6373906995720517
-0.2874472865648544
0.017526738829482236
-1.6377985307493155
-0.2874472865648544
0.017526738829482236
-1.6377985307493155
-0.2874472865648544
0.017526738829482236
-1.6377985307493155
-0.2874472865648544
0.017526738829482236
-1.6377985307493155
-0.29545283480684653
0.01727780453341078
-1.6365613476452205
-0.29545283480684653
0.01727780453341078
-1.6365613476452205
-0.29545283480684653
0.01727780453341078
-1.6365613476452205
-0.29545283480684653
0.01727780453341078
-1.6365613476452205
-0.3015624062470268
0.01724577013126741
-1.6355062915444227
-0.3015624062470268
0.01724577013126741
-1.6355062915444227
-0.3015624062470268
0.01724577013126741
-1.6355062915444227
-0.3015624062470268
0.01724577013126741
-1.6355062915444227
-0.29770417234845853
0.01742081610178147
-1.6351278768928292
-0.29770417234845853
0.01742081610178147
-1.6351278768928292
-0.29770417234845853
0.01742081610178147
-1.6351278768928292
-0.29770417234845853
0.01742081610178147
-1.6351278768928292
-0.2923112560837984
0.017898426459427682
-1.6353875693491986
-0.2923112560837984
0.017898426459427682
-1.6353875693491986
-0.2923112560837984
0.017898426459427682
-1.6353875693491986
-0.2923112560837984
0.017898426459427682
-1.6353875693491986
-0.290033004034001
0.017900796580672482
-1.6346587404354123
-0.290033004034001
0.017900796580672482
-1.6346587404354123
-0.290033004034001
0.017900796580672482
-1.6346587404354123
-0.290033004034001
0.017900796580672482
-1.6346587404354123
-0.2884506032061053
0.017867001482237417
-1.634021075837903
-0.2884506032061053
0.017867001482237417
-1.634021075837903
-0.2884506032061053
0.017867001482237417
-1.634021075837903
-0.2884506032061053
0.017867001482237417
-1.634021075837903
-0.28755389209913934
0.017127655607649627
-1.633292940515652
-0.28755389209913934
0.017127655607649627
-1.633292940515652
-0.28755389209913934
0.017127655607649627
-1.633292940515652
-0.28755389209913934
0.017127655607649627
-1.633292940515652
-0.28776246757401375
0.015692707152033893
-1.6329124883350505
-0.28776246757401375
0.015692707152033893
-1.6329124883350505
-0.28776246757401375
0.015692707152033893
-1.6329124883350505
-0.28776246757401375
0.015692707152033893
-1.6329124883350505
-0.2882259058964232
0.013860244514504126
-1.6322169398012931
-0.2882259058964232
0.013860244514504126
-1.6322169398012931
-0.2882259058964232
0.013860244514504126
-1.6322169398012931
-0.2882259058964232
0.013860244514504126
-1.6322169398012931
-0.28689506730538317
0.011008869773063487
-1.6304802281628332
-0.28689506730538317
0.011008869773063487
-1.6304802281628332
-0.28689506730538317
0.011008869773063487
-1.6304802281628332
-0.28689506730538317
0.011008869773063487
-1.6304802281628332
-0.28619687641863
0.008846170792694263
-1.6280674508200401
-0.28619687641863
0.008846170792694263
-1.6280674508200401
-0.28619687641863
0.008846170792694263
-1.6280674508200401
-0.28619687641863
0.008846170792694263
-1.6280674508200401
-0.2892029791428276
0.007847918372262406
-1.6265503346568149
-0.2892029791428276
0.007847918372262406
-1.6265503346568149
-0.2892029791428276
0.007847918372262406
-1.6265503346568149
-0.2892029791428276
0.007847918372262406
-1.6265503346568149
-0.2884196618563357
0.00779681840481693
-1.626450202502265
-0.2884196618563357
0.00779681840481693
-1.626450202502265
-0.2884196618563357
0.00779681840481693
-1.626450202502265
-0.2884196618563357
0.00779681840481693
-1.626450202502265
-0.28517381952792353
0.0074841105435178076
-1.626203792768939
-0.28517381952792353
0.0074841105435178076
-1.626203792768939
-0.28517381952792353
0.0074841105435178076
-1.626203792768939
-0.28517381952792353
0.0074841105435178076
-1.626203792768939
-0.28020012855060694
0.007341321020357938
-1.62632000123486
-0.28020012855060694
0.007341321020357938
-1.62632000123486
-0.28020012855060694
0.007341321020357938
-1.62632000123486
-0.28020012855060694
0.007341321020357938
-1.62632000123486
-0.27671026885900574
0.007390457483246965
-1.6266479980830681
-0.27671026885900574
0.007390457483246965
-1.6266479980830681
-0.27671026885900574
0.007390457483246965
-1.6266479980830681
-0.27671026885900574
0.007390457483246965
-1.6266479980830681
-0.2738330784009768
0.009589453828529404
-1.6277168986665616
-0.2738330784009768
0.009589453828529404
-1.6277168986665616
-0.2738330784009768
0.009589453828529404
-1.6277168986665616
-0.2738330784009768
0.009589453828529404
-1.6277168986665616
-0.26884006821114637
0.011313242636221939
-1.630170042982857
-0.26884006821114637
0.011313242636221939
-1.630170042982857
-0.26884006821114637
0.011313242636221939
-1.630170042982857
-0.26884006821114637
0.011313242636221939
-1.630170042982857
-0.26745714399940246
0.011010989226995897
-1.6314247963156212
-0.26745714399940246
0.011010989226995897
-1.6314247963156212
-0.26745714399940246
0.011010989226995897
-1.6314247963156212
-0.26745714399940246
0.011010989226995897
-1.6314247963156212
-0.261688329008768
0.011397109746345318
-1.6284587184759964
-0.261688329008768
0.011397109746345318
-1.6284587184759964
-0.261688329008768
0.011397109746345318
-1.6284587184759964
-0.261688329008768
0.011397109746345318
-1.6284587184759964
-0.254363868237478
0.012238992538996565
-1.6248411630575612
-0.254363868237478
0.012238992538996565
-1.6248411630575612
-0.254363868237478
0.012238992538996565
-1.6248411630575612
-0.254363868237478
0.012238992538996565
-1.6248411630575612
-0.2448203923571341
0.013311496071119889
-1.6252295990823395
-0.2448203923571341
0.013311496071119889
-1.6252295990823395
-0.2448203923571341
0.013311496071119889
-1.6252295990823395
-0.2448203923571341
0.013311496071119889
-1.6252295990823395
-0.22983374749037241
0.014534898259913193
-1.6263553108974365
-0.22983374749037241
0.014534898259913193
-1.6263553108974365
-0.22983374749037241
0.014534898259913193
-1.6263553108974365
-0.22983374749037241
0.014534898259913193
-1.6263553108974365
-0.22022557192495254
0.015831715820669726
-1.6271788831146472
-0.22022557192495254
0.015831715820669726
-1.6271788831146472
-0.22022557192495254
0.015831715820669726
-1.6271788831146472
-0.22022557192495254
0.015831715820669726
-1.6271788831146472
-0.22568299052780605
0.012896073783855195
-1.6256884586736975
-0.22568299052780605
0.012896073783855195
-1.6256884586736975
-0.22568299052780605
0.012896073783855195
-1.6256884586736975
-0.22568299052780605
0.012896073783855195
-1.6256884586736975
-0.24487766256261825
0.009726200004359576
-1.6218327963268646
-0.24487766256261825
0.009726200004359576
-1.6218327963268646
-0.24487766256261825
0.009726200004359576
-1.6218327963268646
-0.24487766256261825
0.009726200004359576
-1.6218327963268646
-0.25359764474594626
0.00834507904671189
-1.6179830903528742
-0.25359764474594626
0.00834507904671189
-1.6179830903528742
-0.25359764474594626
0.00834507904671189
-1.6179830903528742
-0.25359764474594626
0.00834507904671189
-1.6179830903528742
-0.24314877461349305
0.008779618274668789
-1.6163949990629987
-0.24314877461349305
0.008779618274668789
-1.6163949990629987
-0.24314877461349305
0.008779618274668789
-1.6163949990629987
-0.24314877461349305
0.008779618274668789
-1.6163949990629987
-0.23338554718712415
0.011387975155794544
-1.6160239349285845
-0.23338554718712415
0.011387975155794544
-1.6160239349285845
-0.23338554718712415
0.011387975155794544
-1.6160239349285845
-0.23338554718712415
0.011387975155794544
-1.6160239349285845
-0.2390842002224003
0.013775414148578705
-1.6160962280200617
-0.2390842002224003
0.013775414148578705
-1.6160962280200617
-0.2390842002224003
0.013775414148578705
-1.6160962280200617
-0.2390842002224003
0.013775414148578705
-1.6160962280200617
-0.24495003944873797
0.015152443280946053
-1.6158890692860186
-0.24495003944873797
0.015152443280946053
-1.6158890692860186
-0.24495003944873797
0.015152443280946053
-1.6158890692860186
-0.24495003944873797
0.015152443280946053
-1.6158890692860186
-0.24532728526200787
0.0164389807819664
-1.6152698779600743
-0.24532728526200787
0.0164389807819664
-1.6152698779600743
-0.24532728526200787
0.0164389807819664
-1.6152698779600743
-0.24532728526200787
0.0164389807819664
-1.6152698779600743
-0.2456818557896318
0.01720085175844383
-1.6146712594342607
-0.2456818557896318
0.01720085175844383
-1.6146712594342607
-0.2456818557896318
0.01720085175844383
-1.6146712594342607
-0.2456818557896318
0.01720085175844383
-1.6146712594342607
-0.24175791905368693
0.017284119243778397
-1.6139407547378464
-0.24175791905368693
0.017284119243778397
-1.6139407547378464
-0.24175791905368693
0.017284119243778397
-1.6139407547378464
-0.24175791905368693
0.017284119243778397
-1.6139407547378464
-0.24299157468207055
0.017985150433241517
-1.6136929724060871
-0.24299157468207055
0.017985150433241517
-1.6136929724060871
-0.24299157468207055
0.017985150433241517
-1.6136929724060871
-0.24299157468207055
0.017985150433241517
-1.6136929724060871
-0.24542853257515912
0.01877650241341538
-1.612513800521464
-0.24542853257515912
0.01877650241341538
-1.612513800521464
-0.24542853257515912
0.01877650241341538
-1.612513800521464
-0.24542853257515912
0.01877650241341538
-1.612513800521464
-0.24534256807270713
0.019375827166598098
-1.6111955510504188
-0.24534256807270713
0.019375827166598098
-1.6111955510504188
-0.24534256807270713
0.019375827166598098
-1.6111955510504188
-0.24534256807270713
0.019375827166598098
-1.6111955510504188
-0.2439505026436265
0.019872718088605183
-1.6101960424160968
-0.2439505026436265
0.019872718088605183
-1.6101960424160968
-0.2439505026436265
0.019872718088605183
-1.6101960424160968
-0.2439505026436265
0.019872718088605183
-1.6101960424160968
-0.24325578910267354
0.020612934651265315
-1.6099285243308397
-0.24325578910267354
0.020612934651265315
-1.6099285243308397
-0.24325578910267354
0.020612934651265315
-1.6099285243308397
-0.24325578910267354
0.020612934651265315
-1.6099285243308397
-0.2455353640583192
0.02131789479568638
-1.6095239646092494
-0.2455353640583192
0.02131789479568638
-1.6095239646092494
-0.2455353640583192
0.02131789479568638
-1.6095239646092494
-0.2455353640583192
0.02131789479568638
-1.6095239646092494
-0.24353460420333525
0.022113567267307857
-1.608290708699044
-0.24353460420333525
0.022113567267307857
-1.608290708699044
-0.24353460420333525
0.022113567267307857
-1.608290708699044
-0.24353460420333525
0.022113567267307857
-1.608290708699044
-0.2420576640153832
0.022460937893797033
-1.6077916889359125
-0.2420576640153832
0.022460937893797033
-1.6077916889359125
-0.2420576640153832
0.022460937893797033
-1.6077916889359125
-0.2420576640153832
0.022460937893797033
-1.6077916889359125
-0.24155736616838752
0.02336949845995931
-1.607548487392764
-0.24155736616838752
0.02336949845995931
-1.607548487392764
-0.24155736616838752
0.02336949845995931
-1.607548487392764
-0.24155736616838752
0.02336949845995931
-1.607548487392764
-0.2438918319935209
0.023431983036380923
-1.6074128715045426
-0.2438918319935209
0.023431983036380923
-1.6074128715045426
-0.2438918319935209
0.023431983036380923
-1.6074128715045426
-0.2438918319935209
0.023431983036380923
-1.6074128715045426
-0.2433631946805325
0.02349378235726297
-1.6069779209386006
-0.2433631946805325
0.02349378235726297
-1.6069779209386006
-0.2433631946805325
0.02349378235726297
-1.6069779209386006
-0.2433631946805325
0.02349378235726297
-1.6069779209386006
-0.2446740893121477
0.023224722232634627
-1.6068778490102875
-0.2446740893121477
0.023224722232634627
-1.6068778490102875
-0.2446740893121477
0.023224722232634627
-1.6068778490102875
-0.2446740893121477
0.023224722232634627
-1.6068778490102875
-0.24397904924604552
0.02365351591287404
-1.6063120716346777
-0.24397904924604552
0.02365351591287404
-1.6063120716346777
-0.24397904924604552
0.02365351591287404
-1.6063120716346777
-0.24397904924604552
0.02365351591287404
-1.6063120716346777
-0.24501523032377373
0.023666282370534288
-1.6060666107414985
-0.24501523032377373
0.023666282370534288
-1.6060666107414985
-0.24501523032377373
0.023666282370534288
-1.6060666107414985
-0.24501523032377373
0.023666282370534288
-1.6060666107414985
-0.24578136721090627
0.023319528506402887
-1.605251672410512
-0.24578136721090627
0.023319528506402887
-1.605251672410512
-0.24578136721090627
0.023319528506402887
-1.605251672410512
-0.24578136721090627
0.023319528506402887
-1.605251672410512
-0.24541757480774717
0.02324903476504091
-1.6044546070598515
-0.24541757480774717
0.02324903476504091
-1.6044546070598515
-0.24541757480774717
0.02324903476504091
-1.6044546070598515
-0.24541757480774717
0.02324903476504091
-1.6044546070598515
-0.24446058238217783
0.02321138265152221
-1.604176460963051
-0.24446058238217783
0.02321138265152221
-1.604176460963051
-0.24446058238217783
0.02321138265152221
-1.604176460963051
-0.24446058238217783
0.02321138265152221
-1.604176460963051
-0.24521921060823032
0.022619027133418273
-1.6039384692795637
-0.24521921060823032
0.022619027133418273
-1.6039384692795637
-0.24521921060823032
0.022619027133418273
-1.6039384692795637
-0.24521921060823032
0.022619027133418273
-1.6039384692795637
-0.24433127799105098
0.021637370895972043
-1.6035455374972625
-0.24433127799105098
0.021637370895972043
-1.6035455374972625
-0.24433127799105098
0.021637370895972043
-1.6035455374972625
-0.24433127799105098
0.021637370895972043
-1.6035455374972625
-0.24553379837100736
0.020803475455278338
-1.6031105891768755
-0.24553379837100736
0.020803475455278338
-1.6031105891768755
-0.24553379837100736
0.020803475455278338
-1.6031105891768755
-0.24553379837100736
0.020803475455278338
-1.6031105891768755
-0.24553379837100736
0.020803475455278338
-1.6031105891768755
-0.24553379837100736
0.020803475455278338
-1.6031105891768755
-0.24553379837100736
0.020803475455278338
-1.6031105891768755
-0.24553379837100736
0.020803475455278338
-1.6031105891768755
-0.24457006596038347
0.020498255775937613
-1.6035820682205182
-0.24457006596038347
0.020498255775937613
-1.6035820682205182
-0.24457006596038347
0.020498255775937613
-1.6035820682205182
-0.24457006596038347
0.020498255775937613
-1.6035820682205182
-0.24586565458810994
0.019877445947835838
-1.6035214689458652
-0.24586565458810994
0.019877445947835838
-1.6035214689458652
-0.24586565458810994
0.019877445947835838
-1.6035214689458652
-0.24586565458810994
0.019877445947835838
-1.6035214689458652
-0.245949811830069
0.019790292633596995
-1.6035115450913622
-0.245949811830069
0.019790292633596995
-1.6035115450913622
-0.245949811830069
0.019790292633596995
-1.6035115450913622
-0.245949811830069
0.019790292633596995
-1.6035115450913622
-0.245949811830069
0.019790292633596995
-1.6035115450913622
-0.245949811830069
0.019790292633596995
-1.6035115450913622
-0.245949811830069
0.019790292633596995
-1.6035115450913622
-0.245949811830069
0.019790292633596995
-1.6035115450913622
-0.2451748121873128
0.020028420594118006
-1.6037926732569248
-0.2451748121873128
0.020028420594118006
-1.6037926732569248
-0.2451748121873128
0.020028420594118006
-1.6037926732569248
-0.2451748121873128
0.020028420594118006
-1.6037926732569248
-0.24501260618793366
0.020545370094492633
-1.6038546789470263
-0.24501260618793366
0.020545370094492633
-1.6038546789470263
-0.24501260618793366
0.020545370094492633
-1.6038546789470263
-0.24501260618793366
0.020545370094492633
-1.6038546789470263
-0.24493456996118482
0.020975155709009208
-1.603906770151841
-0.24493456996118482
0.020975155709009208
-1.603906770151841
-0.24493456996118482
0.020975155709009208
-1.603906770151841
-0.24493456996118482
0.020975155709009208
-1.603906770151841
-0.2451197252346009
0.021849726348108976
-1.6038425551508682
-0.2451197252346009
0.021849726348108976
-1.6038425551508682
-0.2451197252346009
0.021849726348108976
-1.6038425551508682
-0.2451197252346009
0.021849726348108976
-1.6038425551508682
-0.24645115930436595
0.02258923076374947
-1.604039859075594
-0.24645115930436595
0.02258923076374947
-1.604039859075594
-0.24645115930436595
0.02258923076374947
-1.604039859075594
-0.24645115930436595
0.02258923076374947
-1.604039859075594
-0.2469744287335271
0.02309380640076687
-1.6041084956437974
-0.2469744287335271
0.02309380640076687
-1.6041084956437974
-0.2469744287335271
0.02309380640076687
-1.6041084956437974
-0.2469744287335271
0.02309380640076687
-1.6041084956437974
-0.24664419826110978
0.023785143074796015
-1.60419032720917
-0.24664419826110978
0.023785143074796015
-1.60419032720917
-0.24664419826110978
0.023785143074796015
-1.60419032720917
-0.24664419826110978
0.023785143074796015
-1.60419032720917
-0.2469134937037491
0.02457251136534874
-1.6041173475016461
-0.2469134937037491
0.02457251136534874
-1.6041173475016461
-0.2469134937037491
0.02457251136534874
-1.6041173475016461
-0.2469134937037491
0.02457251136534874
-1.6041173475016461
-0.24527677445676999
0.02539231915128364
-1.604021425558473
-0.24527677445676999
0.02539231915128364
-1.604021425558473
-0.24527677445676999
0.02539231915128364
-1.604021425558473
-0.24527677445676999
0.02539231915128364
-1.604021425558473
-0.2457141905183629
0.02600521917927947
-1.6039288220575305
-0.2457141905183629
0.02600521917927947
-1.6039288220575305
-0.2457141905183629
0.02600521917927947
-1.6039288220575305
-0.2457141905183629
0.02600521917927947
-1.6039288220575305
-0.24660462001457023
0.026676645976276024
-1.604026405175139
-0.24660462001457023
0.026676645976276024
-1.604026405175139
-0.24660462001457023
0.026676645976276024
-1.604026405175139
-0.24660462001457023
0.026676645976276024
-1.604026405175139
-0.2474880806257989
0.027219433713244024
-1.6037605675349829
-0.2474880806257989
0.027219433713244024
-1.6037605675349829
-0.2474880806257989
0.027219433713244024
-1.6037605675349829
-0.2474880806257989
0.027219433713244024
-1.6037605675349829
-0.2480915044708299
0.027679475791251577
-1.6034783467952722
-0.2480915044708299
0.027679475791251577
-1.6034783467952722
-0.2480915044708299
0.027679475791251577
-1.6034783467952722
-0.2480915044708299
0.027679475791251577
-1.6034783467952722
-0.2482598027419205
0.027911861910263024
-1.602987811067735
-0.2482598027419205
0.027911861910263024
-1.602987811067735
-0.2482598027419205
0.027911861910263024
-1.602987811067735
-0.2482598027419205
0.027911861910263024
-1.602987811067735
-0.24878239027348045
0.0281286036697248
-1.6025886329581591
-0.24878239027348045
0.0281286036697248
-1.6025886329581591
-0.24878239027348045
0.0281286036697248
-1.6025886329581591
-0.24878239027348045
0.0281286036697248
-1.6025886329581591
-0.2493920649159553
0.02842968819529719
-1.6022013579615655
-0.2493920649159553
0.02842968819529719
-1.6022013579615655
-0.2493920649159553
0.02842968819529719
-1.6022013579615655
-0.2493920649159553
0.02842968819529719
-1.6022013579615655
-0.24886801861202534
0.028833777456766678
-1.601808188699098
-0.24886801861202534
0.028833777456766678
-1.601808188699098
-0.24886801861202534
0.028833777456766678
-1.601808188699098
-0.24886801861202534
0.028833777456766678
-1.601808188699098
-0.2486024500088704
0.029223737491166395
-1.6008091540124045
-0.2486024500088704
0.029223737491166395
-1.6008091540124045
-0.2486024500088704
0.029223737491166395
-1.6008091540124045
-0.2486024500088704
0.029223737491166395
-1.6008091540124045
-0.24928088822709332
0.02978149922609123
-1.599063363520823
-0.24928088822709332
0.02978149922609123
-1.599063363520823
-0.24928088822709332
0.02978149922609123
-1.599063363520823
-0.24928088822709332
0.02978149922609123
-1.599063363520823
-0.2505474628446788
0.03033213867074508
-1.5966299064966902
-0.2505474628446788
0.03033213867074508
-1.5966299064966902
-0.2505474628446788
0.03033213867074508
-1.5966299064966902
-0.2505474628446788
0.03033213867074508
-1.5966299064966902
-0.2492283463495949
0.03114162029977865
-1.5951431642701408
-0.2492283463495949
0.03114162029977865
-1.5951431642701408
-0.2492283463495949
0.03114162029977865
-1.5951431642701408
-0.2492283463495949
0.03114162029977865
-1.5951431642701408
-0.24551775931357894
0.032205677945636564
-1.5959941551015238
-0.24551775931357894
0.032205677945636564
-1.5959941551015238
-0.24551775931357894
0.032205677945636564
-1.5959941551015238
-0.24551775931357894
0.032205677945636564
-1.5959941551015238
-0.2459592790744134
0.03266071461277434
-1.5957976129066216
-0.2459592790744134
0.03266071461277434
-1.5957976129066216
-0.2459592790744134
0.03266071461277434
-1.5957976129066216
-0.2459592790744134
0.03266071461277434
-1.5957976129066216
-0.25080893614516536
0.032320885490595544
-1.5953186469214982
-0.25080893614516536
0.032320885490595544
-1.5953186469214982
-0.25080893614516536
0.032320885490595544
-1.5953186469214982
-0.25080893614516536
0.032320885490595544
-1.5953186469214982
-0.25652229409209065
0.030946795832112763
-1.594720138342474
-0.25652229409209065
0.030946795832112763
-1.594720138342474
-0.25652229409209065
0.030946795832112763
-1.594720138342474
-0.25652229409209065
0.030946795832112763
-1.594720138342474
-0.26068890449548243
0.028571806600955315
-1.595263929117174
-0.26068890449548243
0.028571806600955315
-1.595263929117174
-0.26068890449548243
0.028571806600955315
-1.595263929117174
-0.26068890449548243
0.028571806600955315
-1.595263929117174
-0.25918251180514057
0.026111006294460434
-1.5962243112686683
-0.25918251180514057
0.026111006294460434
-1.5962243112686683
-0.25918251180514057
0.026111006294460434
-1.5962243112686683
-0.25918251180514057
0.026111006294460434
-1.5962243112686683
-0.2597041594528492
0.02432926241977474
-1.5978275599447036
-0.2597041594528492
0.02432926241977474
-1.5978275599447036
-0.2597041594528492
0.02432926241977474
-1.5978275599447036
-0.2597041594528492
0.02432926241977474
-1.5978275599447036
-0.2656324074259093
0.023541389697198847
-1.599285426935263
-0.2656324074259093
0.023541389697198847
-1.599285426935263
-0.2656324074259093
0.023541389697198847
-1.599285426935263
-0.2656324074259093
0.023541389697198847
-1.599285426935263
-0.27154801121801225
0.02206086979995812
-1.6006449526453497
-0.27154801121801225
0.02206086979995812
-1.6006449526453497
-0.27154801121801225
0.02206086979995812
-1.6006449526453497
-0.27154801121801225
0.02206086979995812
-1.6006449526453497
-0.2749673642452288
0.021906633585994543
-1.602063249877018
-0.2749673642452288
0.021906633585994543
-1.602063249877018
-0.2749673642452288
0.021906633585994543
-1.602063249877018
-0.2749673642452288
0.021906633585994543
-1.602063249877018
-0.2772379674866951
0.020316691727424327
-1.6044861721415735
-0.2772379674866951
0.020316691727424327
-1.6044861721415735
-0.2772379674866951
0.020316691727424327
-1.6044861721415735
-0.2772379674866951
0.020316691727424327
-1.6044861721415735
-0.27729831408572875
0.017891769697810707
-1.6062399001065122
-0.27729831408572875
0.017891769697810707
-1.6062399001065122
-0.27729831408572875
0.017891769697810707
-1.6062399001065122
-0.27729831408572875
0.017891769697810707
-1.6062399001065122
-0.2765083992983425
0.016496963204750668
-1.6082156633294145
-0.2765083992983425
0.016496963204750668
-1.6082156633294145
-0.2765083992983425
0.016496963204750668
-1.6082156633294145
-0.2765083992983425
0.016496963204750668
-1.6082156633294145
-0.2794434575329281
0.014089874248443596
-1.6100883374689
-0.2794434575329281
0.014089874248443596
-1.6100883374689
-0.2794434575329281
0.014089874248443596
-1.6100883374689
-0.2794434575329281
0.014089874248443596
-1.6100883374689
-0.281973180607899
0.013784791139258328
-1.611290067912293
-0.281973180607899
0.013784791139258328
-1.611290067912293
-0.281973180607899
0.013784791139258328
-1.611290067912293
-0.281973180607899
0.013784791139258328
-1.611290067912293
-0.2814595114942023
0.014003811230255098
-1.6122745897639064
-0.2814595114942023
0.014003811230255098
-1.6122745897639064
-0.2814595114942023
0.014003811230255098
-1.6122745897639064
-0.2814595114942023
0.014003811230255098
-1.6122745897639064
-0.28217788928204257
0.013600934663617293
-1.6150152679298042
-0.28217788928204257
0.013600934663617293
-1.6150152679298042
-0.28217788928204257
0.013600934663617293
-1.6150152679298042
-0.28217788928204257
0.013600934663617293
-1.6150152679298042
-0.2814276464356702
0.013706640462022655
-1.61746556454677
-0.2814276464356702
0.013706640462022655
-1.61746556454677
-0.2814276464356702
0.013706640462022655
-1.61746556454677
-0.2814276464356702
0.013706640462022655
-1.61746556454677
-0.29465038379868297
0.015482223646705847
-1.6182135043942123
-0.29465038379868297
0.015482223646705847
-1.6182135043942123
-0.29465038379868297
0.015482223646705847
-1.6182135043942123
-0.29465038379868297
0.015482223646705847
-1.6182135043942123
-0.30967177570817267
0.015440100016449345
-1.618551830671964
-0.30967177570817267
0.015440100016449345
-1.618551830671964
-0.30967177570817267
0.015440100016449345
-1.618551830671964
-0.30967177570817267
0.015440100016449345
-1.618551830671964
-0.3200935431190421
0.015001784219815512
-1.6203515129939592
-0.3200935431190421
0.015001784219815512
-1.6203515129939592
-0.3200935431190421
0.015001784219815512
-1.6203515129939592
-0.3200935431190421
0.015001784219815512
-1.6203515129939592
-0.3232922939336661
0.015570671364148766
-1.6228441644983995
-0.3232922939336661
0.015570671364148766
-1.6228441644983995
-0.3232922939336661
0.015570671364148766
-1.6228441644983995
-0.3232922939336661
0.015570671364148766
-1.6228441644983995
-0.30964019463338643
0.014409147318134688
-1.6257312699809756
-0.30964019463338643
0.014409147318134688
-1.6257312699809756
-0.30964019463338643
0.014409147318134688
-1.6257312699809756
-0.30964019463338643
0.014409147318134688
-1.6257312699809756
-0.3021614220345195
0.015377321835863024
-1.6264045914371343
-0.3021614220345195
0.015377321835863024
-1.6264045914371343
-0.3021614220345195
0.015377321835863024
-1.6264045914371343
-0.3021614220345195
0.015377321835863024
-1.6264045914371343
-0.30651669917301266
0.015295282719724636
-1.6261805471434179
-0.30651669917301266
0.015295282719724636
-1.6261805471434179
-0.30651669917301266
0.015295282719724636
-1.6261805471434179
-0.30651669917301266
0.015295282719724636
-1.6261805471434179
-0.3206923990656488
0.012683710828014838
-1.6254050774732576
-0.3206923990656488
0.012683710828014838
-1.6254050774732576
-0.3206923990656488
0.012683710828014838
-1.6254050774732576
-0.3206923990656488
0.012683710828014838
-1.6254050774732576
-0.3251976789153861
0.011451367427259558
-1.6247259807910417
-0.3251976789153861
0.011451367427259558
-1.6247259807910417
-0.3251976789153861
0.011451367427259558
-1.6247259807910417
-0.3251976789153861
0.011451367427259558
-1.6247259807910417
-0.31612963127548266
0.011847019861380986
-1.6259226776415436
-0.31612963127548266
0.011847019861380986
-1.6259226776415436
-0.31612963127548266
0.011847019861380986
-1.6259226776415436
-0.31612963127548266
0.011847019861380986
-1.6259226776415436
-0.3054004060038004
0.012149251826580889
-1.6275186689575143
-0.3054004060038004
0.012149251826580889
-1.6275186689575143
-0.3054004060038004
0.012149251826580889
-1.6275186689575143
-0.3054004060038004
0.012149251826580889
-1.6275186689575143
-0.30310129856888524
0.01111192029645645
-1.6278600792211724
-0.30310129856888524
0.01111192029645645
-1.6278600792211724
-0.30310129856888524
0.01111192029645645
-1.6278600792211724
-0.30310129856888524
0.01111192029645645
-1.6278600792211724
-0.3095792494223914
0.008940267972320582
-1.6266240557085136
-0.3095792494223914
0.008940267972320582
-1.6266240557085136
-0.3095792494223914
0.008940267972320582
-1.6266240557085136
-0.3095792494223914
0.008940267972320582
-1.6266240557085136
-0.31130299640369247
0.00525412750781491
-1.6247505171845762
-0.31130299640369247
0.00525412750781491
-1.6247505171845762
-0.31130299640369247
0.00525412750781491
-1.6247505171845762
-0.31130299640369247
0.00525412750781491
-1.6247505171845762
-0.3088517835895429
0.0023093955693826206
-1.6233133460445204
-0.3088517835895429
0.0023093955693826206
-1.6233133460445204
-0.3088517835895429
0.0023093955693826206
-1.6233133460445204
-0.3088517835895429
0.0023093955693826206
-1.6233133460445204
-0.3055787725828108
9.182758749395601E-4
-1.6232562011419758
-0.3055787725828108
9.182758749395601E-4
-1.6232562011419758
-0.3055787725828108
9.182758749395601E-4
-1.6232562011419758
-0.3055787725828108
9.182758749395601E-4
-1.6232562011419758
-0.29989854849739866
3.6341901954687456E-4
-1.6227128050679016
-0.29989854849739866
3.6341901954687456E-4
-1.6227128050679016
-0.29989854849739866
3.6341901954687456E-4
-1.6227128050679016
-0.29989854849739866
3.6341901954687456E-4
-1.6227128050679016
-0.2965526233049727
-7.486764613736892E-5
-1.6227181189609272
-0.2965526233049727
-7.486764613736892E-5
-1.6227181189609272
-0.2965526233049727
-7.486764613736892E-5
-1.6227181189609272
-0.2965526233049727
-7.486764613736892E-5
-1.6227181189609272
-0.29242310437836116
-0.0015907343045305138
-1.622481454806206
-0.29242310437836116
-0.0015907343045305138
-1.622481454806206
-0.29242310437836116
-0.0015907343045305138
-1.622481454806206
-0.29242310437836116
-0.0015907343045305138
-1.622481454806206
-0.29662238200537056
-0.0011741118897598513
-1.6224688991075322
-0.29662238200537056
-0.0011741118897598513
-1.6224688991075322
-0.29662238200537056
-0.0011741118897598513
-1.6224688991075322
-0.29662238200537056
-0.0011741118897598513
-1.6224688991075322
-0.2976229776758493
7.084785551892402E-4
-1.6219675325657201
-0.2976229776758493
7.084785551892402E-4
-1.6219675325657201
-0.2976229776758493
7.084785551892402E-4
-1.6219675325657201
-0.2976229776758493
7.084785551892402E-4
-1.6219675325657201
-0.28689614940579183
0.004329165817287489
-1.6217490667317593
-0.28689614940579183
0.004329165817287489
-1.6217490667317593
-0.28689614940579183
0.004329165817287489
-1.6217490667317593
-0.28689614940579183
0.004329165817287489
-1.6217490667317593
-0.2689654207913832
0.008633770326573083
-1.6235344690821558
-0.2689654207913832
0.008633770326573083
-1.6235344690821558
-0.2689654207913832
0.008633770326573083
-1.6235344690821558
-0.2689654207913832
0.008633770326573083
-1.6235344690821558
-0.2575319913278411
0.013036995993951951
-1.6261067361670296
-0.2575319913278411
0.013036995993951951
-1.6261067361670296
-0.2575319913278411
0.013036995993951951
-1.6261067361670296
-0.2575319913278411
0.013036995993951951
-1.6261067361670296
-0.2586609810136249
0.013340206790447248
-1.6255469050941875
-0.2586609810136249
0.013340206790447248
-1.6255469050941875
-0.2586609810136249
0.013340206790447248
-1.6255469050941875
-0.2586609810136249
0.013340206790447248
-1.6255469050941875
-0.26137793872729037
0.014783756354595293
-1.6226311839499703
-0.26137793872729037
0.014783756354595293
-1.6226311839499703
-0.26137793872729037
0.014783756354595293
-1.6226311839499703
-0.26137793872729037
0.014783756354595293
-1.6226311839499703
-0.25322575301300454
0.017496969823171196
-1.619320528978154
-0.25322575301300454
0.017496969823171196
-1.619320528978154
-0.25322575301300454
0.017496969823171196
-1.619320528978154
-0.25322575301300454
0.017496969823171196
-1.619320528978154
-0.22982402884225048
0.01994444781550719
-1.6208946010013607
-0.22982402884225048
0.01994444781550719
-1.6208946010013607
-0.22982402884225048
0.01994444781550719
-1.6208946010013607
-0.22982402884225048
0.01994444781550719
-1.6208946010013607
-0.20929929434219716
0.020689804643493924
-1.6242714873105808
-0.20929929434219716
0.020689804643493924
-1.6242714873105808
-0.20929929434219716
0.020689804643493924
-1.6242714873105808
-0.20929929434219716
0.020689804643493924
-1.6242714873105808
-0.22370009979701794
0.021498595042356582
-1.621511741409934
-0.22370009979701794
0.021498595042356582
-1.621511741409934
-0.22370009979701794
0.021498595042356582
-1.621511741409934
-0.22370009979701794
0.021498595042356582
-1.621511741409934
-0.24837783037586345
0.02001211218753448
-1.616792429749074
-0.24837783037586345
0.02001211218753448
-1.616792429749074
-0.24837783037586345
0.02001211218753448
-1.616792429749074
-0.24837783037586345
0.02001211218753448
-1.616792429749074
-0.2515148268000454
0.02066001418470773
-1.6152629082395134
-0.2515148268000454
0.02066001418470773
-1.6152629082395134
-0.2515148268000454
0.02066001418470773
-1.6152629082395134
-0.2515148268000454
0.02066001418470773
-1.6152629082395134
-0.2322524476619853
0.023255337124163677
-1.61435888021962
-0.2322524476619853
0.023255337124163677
-1.61435888021962
-0.2322524476619853
0.023255337124163677
-1.61435888021962
-0.2322524476619853
0.023255337124163677
-1.61435888021962
-0.22321709040706436
0.027018607572009485
-1.6142205131131169
-0.22321709040706436
0.027018607572009485
-1.6142205131131169
-0.22321709040706436
0.027018607572009485
-1.6142205131131169
-0.22321709040706436
0.027018607572009485
-1.6142205131131169
-0.23002687152570314
0.029198356888688135
-1.613710804159029
-0.23002687152570314
0.029198356888688135
-1.613710804159029
-0.23002687152570314
0.029198356888688135
-1.613710804159029
-0.23002687152570314
0.029198356888688135
-1.613710804159029
-0.23610269844129478
0.02891653056975586
-1.6136072210445935
-0.23610269844129478
0.02891653056975586
-1.6136072210445935
-0.23610269844129478
0.02891653056975586
-1.6136072210445935
-0.23610269844129478
0.02891653056975586
-1.6136072210445935
-0.23439308486880756
0.029438940104119776
-1.6139026864672603
-0.23439308486880756
0.029438940104119776
-1.6139026864672603
-0.23439308486880756
0.029438940104119776
-1.6139026864672603
-0.23439308486880756
0.029438940104119776
-1.6139026864672603
-0.2284115956626071
0.03069119904944763
-1.6138547470660096
-0.2284115956626071
0.03069119904944763
-1.6138547470660096
-0.2284115956626071
0.03069119904944763
-1.6138547470660096
-0.2284115956626071
0.03069119904944763
-1.6138547470660096
-0.22757359321254922
0.03251293939662912
-1.6132664079068373
-0.22757359321254922
0.03251293939662912
-1.6132664079068373
-0.22757359321254922
0.03251293939662912
-1.6132664079068373
-0.22757359321254922
0.03251293939662912
-1.6132664079068373
-0.23096592616112763
0.033171141880096865
-1.6122775012737722
-0.23096592616112763
0.033171141880096865
-1.6122775012737722
-0.23096592616112763
0.033171141880096865
-1.6122775012737722
-0.23096592616112763
0.033171141880096865
-1.6122775012737722
-0.2297548202685861
0.034132381022619486
-1.611669739592175
-0.2297548202685861
0.034132381022619486
-1.611669739592175
-0.2297548202685861
0.034132381022619486
-1.611669739592175
-0.2297548202685861
0.034132381022619486
-1.611669739592175
-0.22881851125222233
0.035526923125279525
-1.6110302991415701
-0.22881851125222233
0.035526923125279525
-1.6110302991415701
-0.22881851125222233
0.035526923125279525
-1.6110302991415701
-0.22881851125222233
0.035526923125279525
-1.6110302991415701
-0.23056224212815565
0.036499322575302195
-1.6098756094900208
-0.23056224212815565
0.036499322575302195
-1.6098756094900208
-0.23056224212815565
0.036499322575302195
-1.6098756094900208
-0.23056224212815565
0.036499322575302195
-1.6098756094900208
-0.2318406874190589
0.03690012244347296
-1.608470140996288
-0.2318406874190589
0.03690012244347296
-1.608470140996288
-0.2318406874190589
0.03690012244347296
-1.608470140996288
-0.2318406874190589
0.03690012244347296
-1.608470140996288
-0.23123434139033927
0.03796390333768143
-1.6076250471388767
-0.23123434139033927
0.03796390333768143
-1.6076250471388767
-0.23123434139033927
0.03796390333768143
-1.6076250471388767
-0.23123434139033927
0.03796390333768143
-1.6076250471388767
-0.23011542121683032
0.039017691011312326
-1.6069418724349454
-0.23011542121683032
0.039017691011312326
-1.6069418724349454
-0.23011542121683032
0.039017691011312326
-1.6069418724349454
-0.23011542121683032
0.039017691011312326
-1.6069418724349454
-0.2312389952667441
0.03968631249874258
-1.606261033706729
-0.2312389952667441
0.03968631249874258
-1.606261033706729
-0.2312389952667441
0.03968631249874258
-1.606261033706729
-0.2312389952667441
0.03968631249874258
-1.606261033706729
-0.23174987137003422
0.03976758480621627
-1.6054999587056191
-0.23174987137003422
0.03976758480621627
-1.6054999587056191
-0.23174987137003422
0.03976758480621627
-1.6054999587056191
-0.23174987137003422
0.03976758480621627
-1.6054999587056191
-0.23104646240147278
0.040212146383491174
-1.6047539516555729
-0.23104646240147278
0.040212146383491174
-1.6047539516555729
-0.23104646240147278
0.040212146383491174
-1.6047539516555729
-0.23104646240147278
0.040212146383491174
-1.6047539516555729
-0.2293115398820375
0.0413895394384136
-1.6038089346259634
-0.2293115398820375
0.0413895394384136
-1.6038089346259634
-0.2293115398820375
0.0413895394384136
-1.6038089346259634
-0.2293115398820375
0.0413895394384136
-1.6038089346259634
-0.22939864467710938
0.042429842201592446
-1.6030616799319886
-0.22939864467710938
0.042429842201592446
-1.6030616799319886
-0.22939864467710938
0.042429842201592446
-1.6030616799319886
-0.22939864467710938
0.042429842201592446
-1.6030616799319886
-0.23009218732918263
0.0433851552932025
-1.6022322906055664
-0.23009218732918263
0.0433851552932025
-1.6022322906055664
-0.23009218732918263
0.0433851552932025
-1.6022322906055664
-0.23009218732918263
0.0433851552932025
-1.6022322906055664
-0.23077577893429932
0.043826790164994564
