7
25
71
12
5
7
3
1
5
17
51
11
3
5
2
1
4
14
44
10
3
4
2
1
4
12
38
8
2
4
2
1
4
11
41
8
2
3
2
1
3
10
38
8
2
6
3
1
3
10
36
8
2
8
5
1
3
9
34
7
2
8
5
1
3
9
36
8
2
7
5
1
4
9
35
9
2
7
5
1
4
9
34
8
2
7
5
1
3
9
33
8
2
6
5
1
3
8
31
8
2
6
4
1
3
8
31
8
2
6
4
1
3
8
30
8
2
6
4
1
3
7
29
8
2
6
4
1
3
7
28
8
2
6
4
1
3
7
28
9
2
5
4
1
3
7
27
9
2
5
4
1
3
7
26
9
2
5
4
1
3
7
26
8
2
5
4
1
3
6
26
8
2
5
4
1
3
6
26
9
2
5
4
1
3
6
26
9
2
5
4
1
3
6
25
8
2
5
3
1
3
6
25
8
2
5
3
1
3
6
25
8
2
5
4
1
3
6
25
8
2
5
4
1
2
6
25
8
2
5
4
1
2
6
24
8
2
5
3
1
2
6
25
8
2
5
4
1
2
6
29
8
2
5
4
1
2
6
29
8
2
5
3
1
2
6
29
8
2
5
3
1
2
6
28
8
2
5
3
1
2
6
28
8
2
5
3
1
2
6
28
7
2
5
3
1
2
5
28
7
2
5
3
1
2
5
27
8
2
5
3
1
2
5
28
8
2
4
3
1
2
5
28
8
2
4
3
1
2
5
27
8
2
4
3
1
2
5
27
8
2
4
3
1
2
6
27
8
2
4
3
1
2
6
27
8
2
4
3
1
2
6
27
8
2
4
3
1
2
5
27
8
2
4
3
1
2
5
26
8
2
4
3
1
2
5
27
7
2
4
3
1
2
5
26
7
2
4
3
1
2
4
24
7
2
4
3
1
2
4
24
7
2
4
3
1
2
4
24
8
2
4
3
1
2
4
26
8
2
4
3
1
2
4
25
8
2
4
3
1
2
4
25
8
2
3
3
1
2
4
25
8
2
3
2
1
2
4
25
8
2
3
2
1
2
4
24
8
2
3
2
1
2
4
24
8
2
3
2
1
2
4
24
8
2
3
2
1
2
4
24
8
2
3
2
1
2
4
24
8
2
3
2
1
2
4
23
8
2
3
2
1
2
4
23
8
2
3
2
1
2
4
23
8
2
3
2
1
2
4
23
8
3
3
2
1
2
5
25
8
3
3
2
1
2
5
25
8
3
3
2
1
2
5
26
9
3
3
2
1
2
5
26
9
3
3
2
1
2
5
26
9
3
3
2
1
2
5
29
9
3
3
2
1
2
5
30
9
3
3
2
1
2
5
30
10
3
3
2
1
2
5
31
10
3
3
2
1
2
5
32
12
3
2
2
1
2
6
32
12
4
2
2
1
2
6
34
13
4
2
2
1
5
9
37
18
6
4
4
2
5
9
38
18
6
4
4
2
5
9
37
19
7
4
4
2
5
9
37
19
7
4
4
2
5
11
41
26
7
4
4
2
6
12
45
30
8
5
4
2
6
12
45
30
8
5
4
2
6
12
46
30
9
5
5
3
6
13
49
31
9
5
5
3
7
13
49
34
9
6
5
3
8
16
50
35
9
6
6
3
8
16
51
35
9
6
6
3
8
16
51
37
10
7
6
3
9
18
53
39
11
7
6
3
9
19
55
39
11
7
6
3
11
20
56
39
11
9
8
3
11
21
57
39
11
9
8
3
12
21
58
39
12
10
9
3
12
22
60
40
12
10
9
4
12
22
60
40
12
10
9
4
13
22
61
40
12
10
9
4
13
22
61
40
12
10
9
4
13
22
63
40
12
10
9
4
13
23
63
41
12
10
9
4
13
25
65
42
12
10
9
4
13
25
65
42
13
10
9
4
13
26
65
44
13
10
9
4
14
26
65
45
14
10
9
4
14
26
65
47
14
10
9
4
14
26
66
48
16
11
9
4
15
28
66
49
16
11
10
4
16
28
68
50
16
11
10
4
16
30
68
50
16
11
10
4
16
30
69
50
17
11
10
4
16
30
69
50
17
11
10
4
16
30
69
51
17
11
10
4
16
30
69
51
17
11
10
5
16
30
69
51
18
11
10
5
16
30
70
51
18
11
10
5
16
33
70
51
18
11
10
5
17
36
72
51
18
11
10
5
17
36
72
51
19
11
10
5
17
37
73
52
20
11
10
5
18
37
74
52
20
11
11
5
19
38
74
52
20
11
11
5
19
38
74
52
20
11
11
5
19
39
73
54
20
12
11
5
19
39
74
53
21
12
11
5
19
40
74
54
21
12
11
5
19
40
73
55
21
12
11
6
19
40
72
54
21
11
11
6
19
41
72
54
21
11
11
6
19
41
72
55
20
11
11
6
19
42
74
55
21
12
11
6
19
44
74
53
21
12
11
6
19
44
72
52
21
12
11
6
19
44
72
53
21
12
11
6
19
44
72
53
21
12
11
6
19
44
70
53
21
12
11
6
19
45
71
53
22
11
10
6
19
46
71
53
23
11
10
6
19
46
70
53
23
11
10
6
19
46
71
53
23
11
10
6
18
46
70
52
24
11
10
6
18
45
68
54
24
11
10
6
17
45
68
57
24
10
9
6
18
48
69
60
26
10
9
6
18
49
68
61
26
10
9
6
18
49
67
63
29
10
9
6
18
49
67
63
29
11
10
6
18
50
68
65
29
11
10
6
18
50
68
67
29
11
10
6
18
51
68
67
29
11
10
6
18
51
68
67
29
11
10
6
18
50
65
67
30
12
10
6
18
50
66
66
29
12
10
6
18
49
66
65
29
11
10
6
18
49
67
65
29
11
10
6
18
49
67
64
29
11
10
6
19
49
68
64
28
11
10
6
17
49
68
63
28
11
10
6
17
49
67
63
28
11
10
6
17
48
68
63
28
11
10
6
17
48
67
63
28
11
9
6
17
48
67
63
28
11
9
6
17
48
67
63
27
11
10
6
17
48
67
63
27
11
10
6
17
48
67
63
27
11
10
6
17
48
66
63
27
11
10
6
17
46
67
63
27
11
10
6
16
44
65
63
27
11
10
6
16
44
65
64
26
12
10
6
17
46
65
66
26
12
11
6
17
47
64
65
26
12
11
6
16
47
63
65
26
12
11
6
16
47
63
66
28
13
11
6
16
46
64
67
28
13
11
6
15
46
62
67
27
13
11
6
15
46
64
66
27
13
11
6
15
45
65
65
28
13
11
6
15
46
65
65
28
13
11
5
15
45
64
65
28
13
11
5
16
45
64
65
27
13
11
5
16
44
62
65
27
13
11
5
16
42
60
65
27
13
11
5
16
42
59
64
27
13
11
5
16
42
59
64
27
12
11
5
16
42
59
64
27
12
11
5
16
42
59
64
26
12
11
5
16
41
57
63
26
12
11
5
16
40
56
63
25
12
11
5
18
40
58
63
25
13
12
5
17
40
58
62
25
12
12
5
17
39
58
62
24
12
11
5
18
39
59
60
23
12
12
5
18
39
58
57
23
13
12
5
17
36
57
55
22
12
11
5
17
35
58
53
21
12
11
5
17
34
57
51
18
12
11
5
17
37
60
51
17
11
11
5
17
36
58
50
17
11
11
4
17
37
61
50
17
11
11
4
18
37
60
49
17
11
11
4
18
37
60
49
17
11
11
4
18
38
60
49
16
11
11
4
18
37
62
50
17
11
11
5
18
37
61
50
17
11
11
5
18
37
62
51
17
11
11
5
18
38
62
52
18
11
11
5
17
38
60
52
18
11
11
5
17
38
63
55
18
11
11
5
17
38
64
55
19
11
11
5
17
38
63
55
19
11
11
5
17
38
63
55
19
11
11
5
17
38
63
55
22
11
11
5
17
38
65
56
22
12
11
5
17
39
65
56
22
12
11
5
17
40
66
57
22
11
11
5
18
41
67
57
22
11
11
5
17
41
66
57
22
11
11
5
17
41
66
59
22
11
11
5
17
40
66
57
23
11
10
5
16
37
67
56
23
11
9
5
16
36
66
56
23
11
9
5
17
36
66
56
23
10
9
5
17
36
66
55
21
9
8
5
17
36
66
53
21
9
8
5
17
36
66
54
21
9
8
5
17
37
67
56
21
9
8
5
17
37
66
55
20
9
8
5
17
37
66
55
20
9
8
5
16
37
66
56
20
9
8
5
16
38
66
56
21
9
8
5
16
39
66
57
21
9
8
5
16
39
67
56
21
9
8
5
16
39
67
56
20
9
8
5
16
39
68
54
20
9
8
5
17
41
67
54
20
9
8
5
17
40
68
55
21
9
8
5
17
41
68
55
21
9
8
5
17
41
69
56
21
9
8
5
15
44
67
56
22
9
8
6
15
44
68
58
22
9
8
6
15
44
68
58
22
9
7
6
14
46
68
58
23
9
7
6
16
47
68
58
24
10
8
7
16
48
68
58
24
10
8
7
16
48
67
59
24
10
8
7
16
48
67
59
24
10
8
7
15
47
65
59
24
10
8
7
15
46
64
57
24
10
8
7
15
45
63
56
25
10
8
7
14
45
62
56
25
10
7
7
14
46
63
56
25
10
7
7
14
45
64
56
25
10
7
7
14
46
62
57
24
10
7
7
15
46
63
58
24
10
7
7
15
48
61
56
24
10
8
6
15
48
62
57
24
10
8
6
15
48
61
56
24
11
8
7
15
48
59
54
24
10
8
7
15
48
58
56
23
10
7
7
15
48
58
56
23
10
7
6
15
47
57
56
23
10
7
6
15
47
60
56
21
10
7
6
15
47
60
56
20
9
7
6
15
47
61
57
20
9
7
7
15
48
62
59
21
10
7
7
15
47
62
60
21
10
8
7
15
47
62
61
22
10
8
7
15
47
62
59
21
10
8
7
15
47
62
59
21
9
7
7
16
48
60
60
20
9
7
7
15
48
60
60
20
9
7
7
15
47
60
60
21
10
7
7
15
48
60
60
21
10
7
7
16
48
61
60
21
10
8
7
16
49
61
60
22
10
8
7
16
49
59
60
22
10
8
7
16
49
59
61
22
10
8
7
16
48
61
62
22
10
8
7
16
48
62
62
22
10
8
7
16
48
61
62
22
10
8
7
15
47
61
62
22
10
8
7
16
47
60
62
22
10
8
7
15
47
61
63
22
10
8
7
15
47
60
63
22
10
8
7
15
47
61
64
23
10
8
7
15
47
61
64
22
10
8
7
15
46
61
63
22
10
9
7
15
46
61
63
22
10
9
7
15
43
61
63
21
10
9
6
16
43
59
63
21
10
9
6
16
43
60
63
21
10
9
6
15
42
59
65
21
10
9
6
14
40
59
65
20
9
8
6
14
39
59
65
20
9
8
6
14
39
59
65
21
9
8
6
14
38
62
65
20
9
8
6
14
38
61
65
21
9
8
6
14
39
62
66
21
9
8
6
16
40
62
66
20
9
9
6
16
40
64
66
20
9
9
5
16
39
63
66
20
9
9
5
15
39
62
66
20
9
9
5
16
39
62
67
21
9
9
5
15
39
61
68
21
9
9
6
15
37
63
68
21
9
9
6
15
36
64
69
21
8
9
6
16
37
66
68
21
8
9
6
16
39
66
68
21
9
9
7
16
42
68
68
21
9
9
7
16
42
68
69
20
9
9
8
16
42
70
69
21
9
9
9
16
43
69
68
21
9
10
15
16
43
67
68
21
9
10
15
16
43
67
67
21
9
10
15
16
43
67
66
20
9
10
15
16
43
66
67
20
9
10
15
16
43
67
67
20
9
10
16
16
43
69
67
20
9
10
16
16
43
68
68
20
9
10
16
16
42
69
68
20
9
10
16
16
42
69
68
20
9
10
16
16
42
69
68
19
8
10
16
16
43
70
68
19
9
10
16
15
42
70
68
19
8
10
16
16
41
71
70
19
9
10
16
15
42
70
68
19
8
10
16
15
42
70
68
19
8
10
16
15
41
71
67
19
8
10
16
15
43
73
67
20
8
10
16
15
43
73
67
20
8
10
16
15
43
73
68
20
8
10
16
15
42
72
68
20
8
10
16
15
44
74
67
20
8
10
17
15
45
74
67
20
8
10
17
15
44
73
67
19
8
10
17
15
44
73
67
19
8
10
17
15
45
73
67
19
8
10
17
15
45
74
67
19
8
10
17
15
45
74
67
19
8
10
17
15
46
74
68
20
9
11
17
16
47
76
68
21
9
11
17
16
47
77
67
20
9
11
17
16
47
77
67
21
9
11
17
17
47
77
67
21
9
11
17
17
48
77
68
21
9
11
17
16
48
75
67
21
9
11
17
16
49
76
68
21
9
11
17
16
49
76
68
21
9
11
17
15
48
77
68
21
9
11
17
15
48
75
68
21
9
11
17
16
48
75
68
20
9
11
17
15
48
76
68
20
9
11
17
16
49
77
66
20
9
12
17
17
50
77
66
21
10
12
17
17
50
75
66
21
10
12
17
17
50
75
65
21
10
12
17
16
49
73
65
21
10
13
17
16
48
73
65
21
10
13
17
16
45
72
63
21
10
13
17
16
46
72
64
22
10
15
16
16
46
72
65
21
10
19
15
16
45
71
64
22
10
19
11
16
46
71
65
22
10
19
11
15
46
72
67
23
10
20
11
15
45
71
66
24
11
20
11
15
45
71
64
24
11
20
10
16
45
70
62
23
11
20
9
16
44
69
62
23
11
21
9
16
46
69
62
24
11
21
9
16
47
69
61
24
11
21
9
16
48
69
61
24
11
21
9
16
48
68
61
23
11
22
9
16
47
68
60
23
11
22
9
16
47
69
60
24
11
22
9
16
47
70
57
24
11
23
9
16
47
70
57
24
11
23
9
16
48
72
57
24
11
23
9
16
48
69
57
24
11
23
9
17
48
68
56
23
11
23
9
17
48
68
56
23
11
23
8
17
48
68
55
23
11
24
8
17
48
69
55
23
11
24
8
17
46
69
56
23
11
28
8
17
45
69
56
23
13
29
8
17
45
69
54
23
17
30
8
17
45
70
54
23
17
30
8
17
45
70
54
23
17
31
10
17
45
70
54
23
17
31
10
16
45
70
54
23
18
31
10
16
43
69
52
22
18
31
9
15
42
66
49
21
18
36
9
15
42
66
49
21
21
36
9
15
42
66
48
20
24
38
9
14
42
65
47
19
25
41
9
14
41
65
45
19
25
42
9
14
40
65
45
19
25
42
9
14
39
63
44
19
25
42
9
14
39
63
44
19
25
42
9
14
38
61
44
19
25
42
9
14
38
61
44
19
26
42
10
13
38
60
44
19
26
42
10
13
38
60
43
18
28
42
10
12
35
59
41
18
29
42
11
11
34
60
38
17
32
44
11
11
34
59
38
17
33
45
11
11
34
58
38
17
33
45
12
11
34
58
37
16
33
45
12
11
34
58
37
16
33
46
13
11
33
57
36
16
33
46
13
12
32
55
33
15
34
47
14
12
32
54
31
15
35
49
15
13
31
55
31
14
35
49
16
13
31
54
30
14
35
52
16
13
30
51
26
12
35
54
18
12
30
50
25
11
36
54
19
12
30
50
25
11
36
54
19
12
30
50
25
11
36
55
19
12
30
50
24
11
37
56
19
12
28
49
24
9
37
56
20
12
24
48
23
9
37
56
22
12
23
48
23
9
37
57
24
12
23
51
23
9
38
58
25
12
23
51
22
9
38
58
25
12
22
48
22
7
38
58
25
12
21
44
22
6
38
58
25
12
20
45
22
6
38
58
26
12
19
42
22
6
38
59
26
12
18
42
21
6
38
59
27
11
13
41
20
6
38
61
27
11
13
41
20
6
38
61
27
11
13
41
19
6
38
62
27
11
13
39
19
6
38
62
27
11
12
35
16
5
39
61
27
11
12
36
16
5
38
61
28
11
12
36
15
5
37
61
28
11
12
35
15
4
36
61
28
11
9
32
14
4
37
61
28
11
9
32
12
4
37
62
28
11
9
32
11
3
36
62
28
11
9
34
11
3
36
63
28
11
9
34
11
3
36
60
28
11
9
34
11
3
35
62
28
11
9
34
11
3
33
61
28
11
9
34
11
3
32
59
28
12
9
34
13
4
32
59
28
12
9
34
13
4
33
59
28
12
9
34
13
4
33
59
28
12
9
34
13
4
33
59
29
12
9
34
13
4
33
60
29
12
9
34
13
4
32
60
29
12
9
34
12
4
33
60
29
12
9
34
12
4
31
62
29
12
9
34
12
4
31
61
29
12
8
35
11
4
26
60
29
12
8
36
12
4
26
60
29
12
8
36
12
4
26
59
28
12
8
37
12
4
26
59
29
12
8
37
12
4
26
59
29
12
8
37
12
4
26
59
28
11
9
37
13
4
25
57
28
11
9
36
13
4
24
57
28
11
9
36
13
4
24
57
27
11
9
38
13
4
24
54
27
10
9
38
13
4
24
52
25
10
9
38
13
4
23
52
25
10
9
38
13
4
23
53
25
10
9
39
13
4
23
52
25
10
9
39
13
4
22
51
25
10
8
39
13
4
21
50
25
10
8
39
13
4
21
50
23
9
8
39
13
4
23
49
20
9
8
37
13
4
22
48
19
9
8
38
13
4
23
48
19
9
8
37
13
4
23
48
19
9
8
37
13
4
23
48
18
8
8
37
13
4
23
48
18
8
8
38
13
4
23
47
17
8
8
38
13
4
23
47
17
8
9
39
14
4
23
44
17
8
9
38
14
4
23
44
16
8
9
38
14
4
23
42
16
8
9
38
14
4
23
42
16
8
9
38
14
4
22
41
16
8
9
38
14
4
22
41
14
8
9
37
14
4
22
40
14
8
9
37
14
4
22
40
14
7
9
37
14
4
22
39
14
7
9
37
14
4
22
38
13
7
9
37
14
4
22
37
13
7
9
35
14
4
22
36
13
7
9
35
14
4
21
36
13
7
9
36
14
4
22
32
12
7
9
36
14
4
23
32
12
7
9
36
14
4
23
32
12
7
8
35
11
4
23
32
12
7
8
36
11
3
22
31
12
7
8
37
11
3
21
31
12
6
8
36
11
3
21
31
11
6
8
36
11
3
21
29
9
6
8
36
11
3
21
29
9
6
8
37
11
3
21
29
9
6
8
38
11
3
21
25
8
4
8
38
11
3
21
25
8
4
8
37
11
3
21
25
8
4
8
36
11
3
21
25
8
4
8
36
11
3
20
25
8
4
8
36
11
3
20
24
7
4
8
36
11
3
19
24
7
4
8
36
11
3
19
24
7
4
8
35
9
3
20
24
7
4
7
35
9
3
19
19
6
4
7
35
9
3
19
17
6
4
7
34
9
3
19
17
6
4
7
33
8
3
19
17
6
4
7
34
8
3
19
17
5
4
7
33
8
3
18
13
5
4
7
34
8
2
18
13
5
4
7
34
8
2
18
13
5
4
7
34
8
2
18
13
5
4
7
34
8
2
18
13
5
3
7
34
9
2
16
13
5
4
7
33
9
2
15
13
4
3
7
32
9
2
13
12
4
3
7
33
9
2
13
12
4
3
7
33
9
2
13
12
4
3
7
34
9
2
12
10
4
3
7
34
9
3
12
10
4
3
7
35
10
3
12
9
4
3
7
34
9
3
12
9
3
3
8
36
10
3
12
9
3
3
8
37
10
3
12
8
3
3
8
37
10
3
12
6
2
3
8
38
11
3
12
6
2
3
8
38
13
3
12
6
2
3
8
38
13
3
12
6
2
3
9
38
15
4
12
6
2
3
9
39
15
4
12
6
2
3
9
39
16
4
12
6
2
3
9
39
16
4
12
6
2
3
9
39
16
4
12
6
2
3
9
40
16
4
12
6
2
4
11
43
16
5
10
6
2
5
15
43
17
8
7
5
2
5
15
45
17
9
7
5
2
5
15
45
17
9
7
5
2
5
15
48
17
9
7
5
2
5
16
48
17
9
7
5
2
6
17
51
20
9
7
5
2
6
17
51
21
9
7
5
2
6
17
51
21
9
7
5
2
6
17
51
21
9
6
4
2
6
17
52
22
9
6
5
2
7
17
54
22
9
6
5
2
7
17
54
24
9
6
5
2
7
18
55
24
10
6
5
2
7
18
56
25
10
6
5
2
8
18
58
26
10
6
5
3
8
21
59
29
13
8
6
3
11
22
59
31
13
10
8
3
12
22
60
32
13
10
8
3
12
22
60
33
13
9
8
3
12
23
63
33
13
9
8
3
12
23
65
34
14
9
9
3
12
23
65
35
14
9
9
3
14
28
67
38
14
10
9
3
14
28
69
38
14
10
10
3
14
28
69
38
15
10
10
3
14
28
69
38
15
10
10
3
14
28
69
41
15
11
10
4
15
29
70
41
15
11
10
4
15
30
71
42
15
11
10
4
15
30
71
42
15
11
11
4
15
30
71
44
15
11
11
4
15
30
71
45
16
11
11
4
16
30
71
45
16
12
12
4
17
32
72
46
16
12
12
4
17
32
71
49
16
12
12
4
18
32
72
51
16
12
12
4
18
32
72
51
16
13
13
4
18
32
71
51
16
13
13
4
18
33
71
51
16
13
13
4
18
33
71
51
17
13
13
4
18
33
71
52
17
13
13
5
18
33
72
52
17
13
13
5
18
33
73
52
17
13
13
5
18
33
73
51
16
13
13
5
19
33
74
54
19
13
13
5
19
34
74
54
19
13
13
5
19
34
74
56
20
13
13
5
19
34
74
56
20
13
13
5
19
34
74
57
20
13
13
5
19
34
74
57
20
13
13
5
19
32
73
57
19
13
13
5
19
33
73
60
20
14
13
5
19
34
73
61
20
14
13
5
19
36
70
62
20
14
14
5
19
36
70
64
21
14
14
5
19
35
68
65
21
14
14
6
20
37
68
65
21
14
14
6
20
38
68
65
21
14
14
6
20
38
68
66
22
14
14
6
20
38
66
67
23
14
14
6
19
38
65
67
23
14
14
6
19
40
65
67
23
14
14
6
19
40
64
68
23
14
14
6
19
40
63
69
23
14
14
6
19
40
61
69
23
14
14
6
19
39
62
68
22
13
13
6
17
42
61
67
22
12
12
6
17
42
62
67
22
12
12
6
17
42
63
68
23
12
12
6
18
42
61
69
23
12
12
6
19
45
62
69
24
13
12
6
19
45
61
68
24
13
12
6
17
44
59
69
25
12
12
6
17
44
57
71
25
12
12
6
18
44
57
72
25
12
12
6
18
44
58
71
25
12
12
6
17
44
58
70
25
12
12
7
18
45
59
70
26
12
12
7
18
44
60
70
26
12
12
7
18
44
60
70
26
12
12
7
17
45
60
68
26
12
11
7
17
45
59
69
26
12
11
7
17
45
62
69
26
11
11
7
16
44
60
70
26
11
11
6
16
44
61
69
26
11
11
7
17
46
62
67
26
11
11
7
17
48
62
67
26
11
11
7
17
51
64
68
26
11
11
7
18
52
63
68
26
11
11
7
18
52
64
68
26
11
11
7
18
52
63
68
26
11
11
7
18
52
61
68
26
11
11
7
18
53
60
70
27
11
11
7
18
54
63
70
28
12
11
7
19
53
61
68
26
12
12
7
19
53
61
69
26
12
12
7
19
53
61
68
26
12
12
7
19
54
61
68
27
12
12
9
18
54
61
68
27
12
12
9
18
54
60
68
27
12
12
9
19
54
60
68
27
12
12
9
19
54
61
67
27
12
12
8
19
53
61
66
27
12
12
8
19
52
63
66
27
11
11
8
19
52
63
64
26
11
11
9
19
52
63
63
26
11
11
9
19
51
63
63
26
11
11
9
19
50
63
63
26
12
11
9
19
50
63
64
26
11
11
9
19
50
64
63
25
12
11
9
19
51
64
62
25
12
12
8
19
50
64
63
25
12
12
8
20
51
64
62
25
12
12
9
20
51
64
62
25
12
12
9
20
51
65
61
25
12
12
9
20
51
64
62
25
12
12
9
20
48
64
62
25
12
12
9
20
49
64
62
25
12
12
9
20
49
61
61
24
12
13
8
20
49
60
61
24
12
12
9
19
47
58
60
23
12
12
8
19
47
57
61
23
12
12
9
19
45
60
60
22
12
12
9
19
46
62
59
22
11
12
8
19
46
63
59
22
11
11
8
19
46
63
59
22
11
11
8
19
45
62
60
22
11
11
8
19
45
60
61
21
11
11
8
18
45
62
61
23
11
11
9
19
46
62
63
23
12
11
9
19
46
61
62
24
12
11
9
19
46
63
64
24
12
11
9
21
47
60
65
24
12
11
9
21
47
60
65
24
12
11
9
20
47
60
64
24
12
11
9
19
45
57
64
24
12
11
9
19
45
58
65
24
12
11
9
19
41
57
64
24
12
11
9
19
39
57
65
24
12
11
9
18
40
56
65
24
12
11
9
18
41
59
65
25
13
11
9
18
41
59
67
25
13
11
9
19
43
59
67
25
13
11
9
19
43
57
68
24
12
10
9
18
44
58
68
24
12
10
9
17
44
58
68
24
12
10
9
18
45
59
67
24
12
10
10
18
44
58
67
24
12
10
9
18
44
58
67
23
12
10
9
18
47
58
68
23
12
10
9
17
49
59
68
23
12
10
9
17
49
59
69
23
11
10
9
17
49
58
70
23
12
10
9
18
49
57
70
23
12
11
9
18
51
56
70
23
12
11
9
18
54
57
72
23
12
11
9
18
54
57
71
24
12
11
8
18
54
58
71
24
12
10
9
18
54
57
72
25
12
11
9
18
55
58
72
25
12
10
9
18
57
58
73
25
12
10
9
19
57
58
73
28
12
11
9
19
57
59
73
28
12
11
9
19
56
59
72
28
11
10
9
19
58
59
72
28
12
11
9
20
58
59
72
28
12
12
9
20
58
61
72
28
12
12
9
20
58
61
72
28
12
12
9
21
59
61
73
28
12
12
10
21
59
61
73
28
12
12
10
21
59
62
73
29
12
12
10
21
60
63
75
28
12
12
9
21
60
60
73
28
12
12
9
21
60
59
74
28
12
12
10
22
60
59
74
29
12
12
10
22
60
59
75
29
13
12
10
22
60
58
75
29
13
12
10
22
59
58
76
29
13
13
10
22
60
56
76
27
12
13
9
21
59
56
75
27
12
12
9
21
59
56
75
27
12
12
9
24
61
56
72
26
12
13
9
23
60
56
72
26
13
13
9
23
60
57
71
26
12
13
9
23
61
58
72
26
13
13
9
23
61
60
71
26
12
13
9
23
60
62
71
26
12
13
9
24
60
64
73
26
12
13
9
24
60
64
72
26
12
13
9
24
60
64
72
26
12
13
9
24
61
62
73
25
11
13
9
24
62
64
72
25
11
13
9
24
60
64
70
25
11
13
9
24
61
63
70
24
11
13
9
24
61
63
70
24
11
13
9
24
61
63
71
25
11
13
9
24
60
63
71
24
11
13
9
24
60
64
72
24
11
13
8
24
61
64
72
24
11
13
8
24
59
64
71
24
11
13
8
24
58
64
71
24
11
13
8
24
58
64
71
24
11
13
8
24
59
66
70
23
11
13
8
23
60
66
71
23
11
12
8
23
58
66
72
23
11
13
8
23
56
67
71
24
12
13
8
24
55
69
70
24
12
14
8
24
56
68
70
23
12
14
8
24
55
69
68
23
12
14
8
25
54
68
69
23
12
14
8
24
51
68
69
23
12
14
9
23
51
68
67
20
12
14
9
23
51
67
67
20
12
14
9
23
51
69
68
20
12
14
9
23
49
69
68
21
12
13
9
22
49
70
68
21
11
12
9
22
49
69
68
21
11
12
9
22
49
69
69
21
11
12
9
22
47
69
68
22
12
12
9
22
48
70
68
21
12
13
9
22
47
70
67
21
12
13
9
23
50
71
64
21
12
13
9
23
50
71
65
21
12
13
10
23
50
71
64
21
12
13
10
23
50
71
62
20
12
13
9
22
50
71
62
20
12
13
9
23
51
71
61
22
13
13
9
23
51
71
60
22
13
13
9
23
51
72
60
22
13
13
9
23
51
72
63
22
13
13
9
24
51
72
63
23
13
13
10
21
50
72
64
25
13
13
10
21
50
74
63
25
13
13
10
21
51
75
63
25
13
13
10
21
52
75
62
24
13
13
10
21
53
75
62
24
13
13
10
21
53
73
64
25
13
13
10
21
54
71
64
28
14
13
10
20
53
71
65
29
14
13
9
20
53
70
65
29
14
13
9
20
52
70
64
29
14
13
9
20
51
69
65
29
14
13
9
20
51
71
64
29
14
13
9
21
50
71
63
29
14
13
9
21
50
71
64
29
14
13
9
21
50
71
62
29
14
13
9
22
51
71
62
29
14
13
9
22
50
71
61
29
14
13
9
22
49
71
61
29
14
13
9
22
50
71
62
29
14
13
9
22
49
69
63
29
14
13
9
22
48
69
60
29
14
13
9
22
47
68
60
29
14
13
9
22
48
68
59
29
14
13
9
22
48
68
60
30
14
13
9
22
49
66
61
30
14
13
9
21
48
64
61
30
14
12
9
21
49
64
61
30
14
12
9
21
49
64
61
30
14
12
9
21
50
65
60
29
13
12
9
21
50
65
59
29
13
12
8
21
52
65
59
29
14
12
7
21
52
65
59
29
13
12
7
21
52
63
58
28
13
12
7
20
52
63
58
28
13
12
7
20
52
62
57
28
13
12
7
20
52
61
57
28
13
12
7
20
51
62
55
28
13
12
7
20
51
61
57
27
13
11
7
19
50
60
58
27
12
10
7
19
50
60
58
27
12
10
7
19
47
57
58
27
12
10
6
18
47
57
58
27
12
10
6
18
47
56
58
27
12
10
6
18
47
58
57
27
12
10
6
18
47
57
57
27
12
10
6
17
47
57
56
25
12
10
6
17
46
57
56
25
12
10
6
17
46
56
56
25
12
11
6
17
46
55
53
25
11
12
6
16
45
55
53
24
11
12
7
15
43
54
51
22
11
12
6
15
43
52
51
22
12
12
6
15
42
49
51
22
12
12
7
14
39
49
51
22
12
12
7
14
38
47
51
22
13
13
8
14
37
47
48
21
14
14
8
14
36
46
45
16
16
14
8
14
35
46
43
16
16
14
8
14
35
46
43
15
16
14
8
14
35
46
41
15
16
14
8
13
34
45
41
14
18
14
8
13
34
42
41
14
18
14
8
13
33
42
40
14
18
14
9
12
33
41
40
14
18
14
9
11
32
41
39
14
18
14
9
10
32
39
38
13
18
14
9
10
32
39
38
13
18
14
9
10
31
38
38
13
18
15
10
10
31
38
37
13
18
14
10
10
30
38
34
13
18
15
11
9
30
41
34
13
20
15
11
9
30
42
33
13
20
16
11
8
27
42
33
13
19
16
12
8
26
42
27
10
20
16
12
8
26
42
25
7
19
16
12
7
26
42
24
7
19
16
12
7
24
41
24
6
19
16
12
7
24
41
23
6
20
17
12
7
22
37
22
6
20
17
13
7
22
37
22
6
21
17
13
7
17
36
22
6
21
17
14
7
16
36
22
6
21
18
14
7
16
39
22
6
21
22
14
7
16
38
22
6
22
22
14
6
14
38
22
6
22
25
14
7
14
38
22
6
22
26
14
6
15
37
21
5
22
26
15
6
14
37
18
5
22
26
15
6
14
38
14
4
22
26
15
7
14
37
13
4
22
26
16
6
14
37
12
4
22
27
16
7
14
37
13
4
24
27
16
7
14
37
12
4
24
28
16
6
11
35
12
4
24
31
16
7
11
35
12
3
24
32
17
7
10
34
12
3
24
33
17
7
10
34
12
3
24
35
17
7
9
35
11
3
25
39
18
7
9
35
11
3
25
39
18
7
9
36
10
3
27
41
17
7
9
36
9
3
27
41
18
7
8
35
9
3
27
41
18
7
8
35
9
3
27
41
18
7
8
35
8
3
27
41
17
7
8
33
8
3
27
41
17
7
8
33
8
3
26
41
17
7
8
33
8
3
25
41
17
7
9
32
8
3
25
41
17
7
9
35
9
3
25
41
17
8
9
34
10
3
25
42
17
8
10
34
10
3
24
42
17
8
10
35
10
3
24
42
17
8
10
36
10
3
24
42
16
8
10
36
10
3
24
42
16
8
10
38
10
3
24
42
16
8
10
38
10
3
24
42
16
8
10
38
10
3
25
42
16
8
10
38
10
3
25
42
16
8
10
38
10
3
24
42
16
8
10
39
10
3
24
42
15
8
10
36
10
3
23
42
15
8
10
35
10
3
23
41
15
8
10
36
10
3
23
41
14
8
10
35
10
3
23
41
14
8
10
36
9
3
24
41
14
8
10
35
9
3
24
41
14
8
10
37
9
3
24
41
14
8
10
37
9
3
24
41
14
8
10
37
10
3
23
41
14
7
10
37
10
3
23
41
13
7
10
37
10
3
23
41
12
7
10
37
10
3
22
40
12
7
10
35
9
3
22
38
12
7
10
35
9
3
22
38
12
7
10
35
9
3
22
37
12
7
10
35
9
3
22
36
12
7
10
34
9
3
22
36
11
7
10
34
10
3
22
36
11
7
10
34
9
3
22
36
10
7
10
34
9
3
22
35
9
7
10
34
9
3
22
35
9
6
10
34
9
3
20
35
9
6
10
36
10
3
20
34
9
6
10
36
10
3
19
32
9
6
10
35
10
3
19
30
8
5
10
35
10
3
19
29
8
5
10
35
10
3
19
26
7
5
10
35
10
3
18
20
5
5
9
34
10
3
18
19
5
5
9
34
10
3
15
15
5
4
9
34
9
3
14
14
4
4
9
34
9
3
13
13
4
4
9
34
9
3
13
13
4
4
9
34
9
3
13
13
3
4
9
34
9
3
13
13
3
4
9
34
9
3
13
12
3
4
9
34
9
3
12
11
3
4
8
34
9
3
12
10
3
4
8
32
9
3
12
10
3
3
6
32
7
2
12
9
3
3
6
33
7
2
12
8
2
3
6
32
7
2
12
8
2
3
6
32
7
2
11
8
2
3
6
33
7
2
11
8
2
3
6
30
7
2
10
7
2
3
6
30
7
2
10
7
2
2
6
30
7
2
10
7
2
2
6
30
7
2
10
7
2
2
5
30
7
2
10
7
1
2
5
28
7
2
10
7
2
2
6
29
9
2
10
7
1
2
6
32
10
2
10
7
1
2
7
33
11
2
10
7
1
2
7
33
11
2
10
6
1
2
7
33
13
2
6
4
1
2
7
34
15
3
6
4
1
3
8
33
17
4
7
5
2
4
11
33
18
5
7
5
2
4
11
33
18
5
7
5
2
4
11
33
18
5
7
5
2
4
11
33
19
5
7
5
2
5
11
35
19
5
7
6
2
6
12
33
20
6
7
6
2
6
12
34
20
6
7
6
2
6
12
38
20
6
7
6
2
6
12
39
21
7
7
6
2
6
13
42
24
7
7
6
2
6
13
42
24
7
7
6
2
6
13
42
24
7
7
6
2
6
17
46
25
7
7
6
2
7
19
46
25
7
7
6
3
7
19
47
26
8
7
6
3
7
19
46
26
8
7
7
3
7
20
46
26
8
7
7
3
8
25
48
27
8
7
7
3
9
26
48
27
8
8
7
3
10
27
50
29
9
8
8
3
10
27
52
29
9
8
7
3
10
27
52
29
9
8
7
3
10
29
52
29
9
8
7
3
10
31
54
32
10
8
8
3
11
31
56
34
10
9
8
3
11
32
59
34
10
9
8
3
11
32
59
36
10
9
9
3
11
32
60
37
11
9
9
3
11
32
63
38
11
9
9
4
11
32
63
38
11
9
9
4
12
35
65
38
11
9
9
4
12
36
67
38
11
9
9
4
12
37
67
39
11
9
9
4
12
37
67
39
11
9
10
4
12
37
67
39
11
9
9
4
12
39
67
40
12
9
10
4
12
39
67
41
12
9
10
4
13
39
69
42
12
9
10
4
13
39
70
43
12
9
10
4
13
39
70
45
13
10
10
4
13
39
71
46
15
10
10
4
13
40
72
46
15
10
10
4
13
41
72
47
15
10
10
4
13
41
72
46
15
10
10
4
13
41
72
47
15
10
10
4
13
42
71
48
15
10
10
4
13
42
73
50
15
10
10
4
13
42
73
52
17
10
10
4
13
42
72
51
17
10
10
4
14
42
74
51
16
10
10
4
14
42
76
51
16
10
10
4
14
42
75
51
16
10
10
4
14
43
76
53
17
10
10
4
14
43
76
54
17
10
10
4
14
44
76
56
17
10
10
4
14
45
76
56
17
10
10
4
14
45
76
57
17
10
10
4
14
45
74
57
17
11
10
4
14
45
74
57
17
11
10
5
15
45
74
57
18
11
10
5
15
45
75
58
18
11
10
5
15
45
75
59
18
11
10
4
15
44
73
59
19
11
10
5
15
44
73
60
19
11
10
5
15
44
72
59
19
11
10
5
15
45
73
61
19
11
10
5
15
44
73
62
19
12
10
5
15
42
73
62
19
11
10
5
15
41
72
62
19
11
10
5
15
42
72
62
19
11
10
5
16
41
72
64
19
11
10
5
16
45
74
64
19
11
10
5
16
44
75
64
19
11
10
5
17
42
75
62
19
11
10
5
16
43
73
62
22
12
10
5
17
43
72
63
22
13
10
5
17
43
71
62
22
13
10
5
19
43
70
61
23
14
11
6
18
43
68
61
23
14
11
6
19
44
68
62
22
14
11
6
19
42
68
61
23
14
11
6
19
41
67
61
23
14
11
6
20
44
67
61
23
14
11
6
20
44
67
61
23
14
11
6
21
45
68
61
23
14
12
6
21
44
68
62
23
15
12
6
21
45
67
61
23
15
12
6
21
45
66
61
23
15
13
6
22
45
66
62
23
15
13
6
23
46
66
61
23
15
14
6
23
46
65
61
21
15
14
6
23
46
64
61
21
15
14
6
23
45
63
61
22
15
14
7
23
45
64
64
23
16
14
6
25
46
64
66
23
16
14
6
25
45
64
65
23
16
14
6
25
46
63
63
23
16
14
6
25
46
66
64
22
16
14
6
25
46
67
63
23
16
14
6
24
46
65
63
23
16
14
6
24
46
64
64
23
16
14
6
24
46
64
65
24
16
14
6
24
46
65
65
24
16
14
6
25
45
66
65
24
16
14
6
25
45
67
64
24
16
14
6
25
46
69
64
24
16
14
6
25
46
69
64
24
16
14
6
25
46
69
64
24
16
14
6
25
46
70
64
23
16
14
6
24
46
68
63
23
16
14
6
24
46
68
64
24
16
14
6
24
46
68
63
24
16
14
6
24
46
68
62
23
16
14
6
25
49
68
62
23
15
14
6
25
50
70
62
23
15
14
6
24
49
71
60
23
15
14
6
24
49
71
62
23
15
14
6
25
49
70
63
23
15
14
6
25
50
70
63
23
15
14
6
25
50
69
62
23
15
14
6
24
51
68
61
23
15
14
7
24
49
69
61
23
15
14
7
24
48
68
61
23
15
14
7
24
49
67
62
24
16
15
7
24
48
67
63
22
15
15
6
24
48
67
62
21
14
14
6
24
48
69
62
21
14
14
6
23
48
69
62
21
14
14
6
23
48
70
62
21
13
14
6
22
48
69
62
22
13
13
6
22
47
68
62
22
14
13
6
22
47
67
62
22
14
14
6
22
45
67
63
22
14
14
6
23
45
68
63
22
14
14
6
23
44
68
64
22
14
13
6
23
44
68
64
22
13
13
6
23
44
69
63
22
13
13
6
22
43
68
63
22
13
13
6
21
44
69
62
22
13
12
6
21
43
69
62
23
13
12
6
21
43
69
62
24
13
12
6
21
43
69
62
24
13
12
6
21
43
69
62
24
13
12
6
21
42
69
60
23
13
12
6
19
42
68
58
23
13
12
6
19
43
68
59
23
13
12
6
19
43
67
59
23
13
12
6
19
44
65
59
24
13
12
6
19
45
66
58
23
12
12
6
19
46
66
61
23
12
12
6
20
47
67
60
23
13
12
7
20
46
67
59
22
12
12
7
20
46
66
58
22
12
12
7
20
46
65
58
22
12
12
7
20
46
66
58
22
12
12
7
20
44
64
58
22
12
12
7
20
44
67
57
22
12
12
7
20
44
67
57
22
13
11
7
20
44
66
57
22
13
11
7
20
45
67
57
22
13
11
7
20
45
66
56
22
13
12
7
20
45
66
57
22
13
12
7
20
45
67
57
22
13
12
7
20
41
67
59
22
13
12
7
20
41
65
60
22
13
12
7
20
41
62
60
22
13
12
7
21
41
62
59
22
13
12
7
21
41
62
58
22
13
12
7
20
41
62
58
22
13
12
7
20
43
64
59
22
13
12
7
20
41
64
60
22
13
12
7
20
41
62
60
22
13
12
7
20
42
62
60
22
13
12
7
21
44
63
59
21
12
11
7
21
45
64
57
20
12
11
7
21
45
65
58
21
12
11
7
21
45
64
57
21
12
11
7
21
44
65
57
20
12
11
7
21
45
65
58
20
12
11
7
21
45
65
57
19
12
11
7
21
45
65
58
19
12
11
7
21
45
66
58
19
12
11
7
21
45
66
58
19
12
11
7
19
45
65
58
19
12
10
7
20
45
66
57
18
12
11
7
20
46
66
57
18
12
11
7
21
45
65
57
18
12
11
7
21
45
65
57
18
11
11
7
21
45
66
57
19
12
11
7
21
45
65
56
17
12
11
7
21
45
65
57
16
11
11
6
21
45
65
57
17
11
11
6
21
45
65
57
17
12
12
7
21
46
65
56
17
12
11
7
22
47
65
55
16
11
11
6
24
47
65
54
18
13
13
6
23
46
65
54
18
13
13
6
24
46
65
53
17
13
13
6
23
45
62
53
18
13
13
6
23
44
63
50
18
14
13
6
22
42
60
50
18
13
13
6
22
42
60
50
18
13
13
6
23
44
62
50
18
14
13
6
23
46
65
49
18
14
13
5
24
46
63
49
18
14
13
5
23
46
62
49
18
14
13
5
23
45
59
49
18
13
13
5
23
45
58
48
18
13
13
5
23
45
58
49
18
13
13
5
23
44
58
48
18
13
13
5
23
45
60
50
18
13
13
5
23
45
62
50
18
13
13
5
23
45
61
49
18
13
13
5
23
46
62
47
17
13
13
5
23
46
61
47
18
13
13
5
23
45
62
47
18
13
13
5
22
45
63
46
18
13
13
5
22
45
63
45
18
13
13
5
22
44
63
45
18
13
13
5
22
42
61
44
18
13
13
5
22
42
62
43
18
13
13
5
22
42
62
43
18
13
13
5
22
41
63
44
18
13
13
5
21
39
62
44
18
12
13
4
20
39
62
44
18
12
12
4
20
38
60
44
18
12
12
4
20
40
59
44
18
12
12
4
20
40
58
47
18
12
12
4
20
40
59
46
18
12
12
4
20
39
59
46
18
12
12
4
20
40
60
46
18
12
12
4
19
39
58
46
19
12
12
4
19
39
58
47
19
12
12
4
19
38
59
47
18
12
12
4
19
39
59
46
19
12
11
4
19
39
59
46
19
12
11
4
19
38
61
46
19
12
11
4
18
38
61
45
19
12
11
4
18
39
59
45
18
11
11
4
19
38
60
45
18
12
11
4
19
38
62
43
17
12
11
4
19
38
62
44
17
12
11
4
19
38
62
43
17
11
11
4
19
37
61
44
17
11
11
4
18
35
61
46
17
11
11
4
16
34
64
48
16
9
9
5
17
37
66
48
16
10
10
5
17
37
67
48
16
9
10
5
17
37
67
48
15
9
10
5
18
36
67
47
15
9
10
5
19
38
67
49
15
9
10
5
19
38
67
49
14
10
11
5
18
36
65
48
14
10
11
5
18
35
65
48
14
10
11
5
18
36
65
48
14
10
11
5
18
36
66
51
14
10
11
5
18
36
66
51
14
10
11
5
17
36
67
51
14
10
11
5
17
36
66
51
14
10
11
5
18
36
67
51
15
10
11
5
18
35
65
50
15
10
11
5
18
36
63
50
15
10
11
5
17
37
64
50
15
10
11
5
17
36
64
50
15
10
11
5
17
37
64
49
14
10
10
5
17
36
64
49
14
10
11
5
17
38
63
48
14
10
11
5
17
39
63
48
14
10
11
5
18
39
64
48
14
11
12
5
20
42
65
48
14
12
13
5
20
42
65
48
14
11
13
5
20
42
65
48
14
11
13
5
20
42
63
49
14
11
13
5
21
43
65
51
14
12
13
5
21
43
66
51
14
12
14
5
21
44
66
52
14
12
14
5
21
43
66
53
15
12
14
5
21
43
65
50
17
13
14
5
22
44
65
50
18
13
14
5
22
44
65
52
19
14
15
5
22
44
64
50
18
14
15
5
22
44
64
50
19
14
15
5
22
44
65
50
19
14
15
5
22
44
67
52
19
14
15
6
21
43
66
52
19
14
15
5
21
43
65
52
19
14
15
5
22
43
64
52
20
15
15
5
23
44
64
54
20
15
16
6
23
44
64
54
20
15
16
6
23
45
64
55
20
15
16
6
23
46
63
54
20
15
16
6
23
48
65
54
20
15
16
6
23
48
65
54
20
15
16
6
23
47
65
54
20
15
16
6
23
47
67
52
21
16
16
6
23
49
66
52
21
16
16
6
22
49
64
51
21
15
15
6
22
50
64
53
21
15
15
6
23
50
67
53
21
15
15
6
22
51
66
53
21
15
15
6
22
51
68
52
21
15
15
6
22
52
70
51
21
15
14
5
22
52
71
52
21
15
15
5
22
51
69
54
21
15
15
5
22
51
69
56
23
15
15
5
22
52
68
54
23
15
15
5
22
52
69
54
23
15
15
5
22
52
68
54
23
15
15
5
23
53
69
54
23
15
15
5
23
53
69
54
23
15
15
5
23
53
69
53
22
15
15
5
23
54
70
53
22
15
15
5
23
54
69
53
22
15
15
5
23
54
70
53
22
15
15
5
23
54
70
53
22
15
15
5
23
54
70
54
22
15
15
5
23
53
70
54
22
15
15
5
23
52
70
55
22
15
15
5
22
53
71
55
22
15
14
5
20
50
70
55
22
14
13
5
20
50
69
54
22
14
13
5
20
50
69
54
22
14
13
5
20
50
68
53
22
14
13
5
19
50
66
51
22
14
13
5
19
49
66
51
22
13
12
5
19
48
66
50
22
13
12
5
19
47
66
48
21
13
12
5
19
47
66
49
19
12
12
5
18
47
66
48
19
12
12
5
18
46
66
47
18
12
12
5
18
46
66
47
18
12
12
5
18
46
67
46
18
12
12
5
18
46
66
46
18
11
11
5
19
46
64
44
17
11
11
5
18
46
64
44
17
11
11
5
18
46
64
44
17
11
11
5
17
46
64
44
17
11
10
4
16
45
64
41
16
11
10
4
15
45
63
41
16
10
10
4
15
44
63
40
16
11
10
4
14
43
63
40
16
10
9
4
14
41
60
40
16
11
10
4
14
41
60
40
16
11
10
4
14
41
60
40
15
13
10
4
14
41
58
40
14
13
10
5
14
38
56
38
13
13
10
4
14
36
55
38
13
13
11
4
14
35
54
36
13
13
11
5
13
35
53
36
13
14
11
5
13
34
53
35
13
14
11
5
12
33
51
35
13
14
11
5
12
31
48
35
13
15
11
5
12
30
46
33
12
14
11
5
11
29
45
30
12
15
11
5
11
29
45
25
8
15
11
5
11
27
45
25
8
16
12
6
11
27
43
25
8
20
13
6
11
26
43
23
8
20
13
6
9
24
42
23
8
20
12
7
8
24
42
23
8
23
13
7
8
24
41
23
8
24
13
8
8
19
39
23
8
25
14
7
8
19
39
22
8
26
15
7
9
19
38
21
8
26
15
7
9
19
36
21
8
26
15
8
9
18
35
17
7
26
16
8
9
18
35
17
7
26
16
8
8
18
34
14
6
26
18
8
9
16
32
14
6
26
18
8
9
15
32
14
6
26
18
8
8
14
32
14
6
27
18
9
9
14
32
13
6
28
20
9
9
14
32
13
6
28
20
9
9
14
32
12
6
28
21
10
9
13
31
11
5
28
21
10
8
13
31
11
5
28
21
10
8
13
31
11
5
28
21
10
8
13
28
11
5
28
21
10
8
13
27
11
5
28
21
10
8
13
26
11
5
28
21
10
8
13
26
11
5
28
21
10
8
13
25
11
5
28
21
10
8
11
22
10
4
28
21
10
8
11
22
10
4
28
21
10
8
11
21
9
4
29
21
10
8
10
21
9
4
29
21
10
8
10
21
9
4
29
21
10
8
10
21
9
4
29
21
10
8
11
21
9
4
29
21
10
8
11
21
9
4
31
21
10
8
11
22
9
4
31
21
10
8
11
22
9
4
31
21
10
8
11
22
9
4
31
21
10
8
11
22
9
4
30
21
10
8
11
22
9
4
30
20
10
8
11
22
9
4
30
20
10
8
11
22
9
4
30
20
10
8
11
22
9
4
30
20
10
8
11
20
9
4
30
20
10
7
10
20
9
4
30
20
10
7
10
21
9
4
29
20
10
7
10
21
10
4
29
20
10
7
10
20
9
3
29
19
10
7
10
20
9
3
29
19
10
7
10
20
9
3
29
19
10
7
10
20
9
3
28
19
9
7
10
21
9
3
26
18
9
7
10
22
9
3
26
18
9
7
10
22
9
3
26
18
9
6
10
23
9
3
24
18
9
6
10
23
9
3
23
18
8
6
9
22
9
3
21
17
8
6
9
22
8
3
20
17
8
6
9
22
8
3
20
17
8
6
10
22
8
3
20
17
8
5
9
23
8
3
20
16
8
5
9
23
9
3
20
15
8
5
9
23
9
3
19
13
7
5
10
23
9
3
19
13
7
5
9
23
9
3
19
13
7
5
9
25
9
3
18
12
6
5
9
25
8
3
17
9
6
5
9
25
8
3
17
9
6
4
10
24
8
3
17
8
5
4
10
25
8
3
17
8
5
4
10
25
8
3
17
7
5
4
10
24
8
3
17
7
5
4
9
24
8
3
17
7
5
4
9
25
8
3
17
7
5
4
9
24
8
3
17
7
5
4
9
24
8
3
17
7
4
4
9
24
8
3
17
7
4
4
9
24
8
3
17
7
4
4
9
24
7
3
17
6
4
4
9
24
7
3
16
7
4
4
9
24
8
3
15
7
4
4
9
26
8
3
15
7
3
4
9
27
7
3
15
7
3
3
8
27
8
3
15
6
3
3
8
27
8
2
12
6
3
3
8
26
8
2
11
6
3
3
8
27
8
2
11
6
3
3
8
27
8
2
9
6
3
3
8
27
8
2
9
6
2
3
8
27
8
2
8
6
2
3
8
27
7
2
8
6
2
3
8
27
8
2
8
6
2
3
7
26
7
2
8
5
2
3
7
27
7
2
8
5
2
3
7
27
7
2
8
6
2
3
6
28
7
2
8
5
2
3
6
28
6
2
7
5
2
3
6
28
6
2
7
5
2
3
6
28
6
2
7
5
2
3
6
28
6
2
7
5
2
3
6
28
6
2
7
5
2
3
6
27
6
2
7
4
2
2
6
27
7
2
6
4
2
2
6
27
7
2
6
4
2
3
6
26
8
2
6
4
2
2
6
27
9
2
6
4
2
3
6
28
10
2
5
4
2
3
6
29
10
2
5
3
2
2
6
31
10
2
5
4
2
2
6
33
10
2
5
4
2
2
6
34
11
2
5
3
2
3
7
36
14
3
5
4
2
3
7
39
15
3
5
4
2
3
7
39
15
3
5
4
2
3
7
39
15
3
5
4
2
3
7
38
15
3
5
4
2
3
7
39
15
3
5
4
2
3
8
40
15
3
5
4
2
4
8
40
16
3
5
4
2
4
8
40
18
4
5
4
2
4
8
40
18
4
5
4
2
4
8
43
19
4
5
4
2
4
9
43
20
4
5
4
2
4
9
43
20
4
5
4
2
4
10
45
20
4
5
4
2
4
10
45
21
4
5
4
2
4
11
45
21
4
5
4
2
5
11
45
21
4
4
4
2
5
11
45
21
4
4
4
2
5
12
46
22
4
4
4
2
5
13
47
22
5
4
4
2
5
15
47
23
5
4
3
2
6
15
47
23
5
4
3
2
6
16
47
24
5
4
4
2
6
16
50
26
7
6
5
2
6
18
52
26
7
6
5
2
6
18
52
26
7
6
5
2
6
18
53
26
7
6
5
2
6
18
53
26
7
6
5
2
6
21
56
28
7
6
5
3
7
21
57
29
7
6
6
2
7
22
57
30
7
6
6
3
8
25
58
31
7
6
6
3
8
26
58
31
7
6
6
3
8
26
59
31
7
6
6
3
10
31
59
33
8
7
6
3
13
35
61
35
9
7
7
4
13
37
63
37
9
7
7
4
13
38
64
40
9
7
7
4
13
38
65
44
10
7
7
4
13
38
66
47
10
7
7
4
14
39
68
48
10
8
7
4
14
39
67
48
10
8
7
5
14
39
67
48
10
8
7
5
14
40
68
48
10
8
7
5
14
40
69
48
10
8
7
5
14
42
69
48
10
8
7
5
14
42
70
48
10
8
7
5
14
43
69
49
12
8
7
5
14
43
69
49
12
9
7
5
14
47
69
49
12
9
7
5
14
47
69
48
12
9
7
5
14
48
68
48
12
9
7
5
14
48
68
49
13
9
7
5
14
49
68
50
14
9
7
5
14
49
69
50
14
10
8
5
14
49
69
50
14
10
8
5
14
49
69
50
14
10
8
5
14
49
69
52
14
10
8
5
15
50
69
52
14
10
8
5
15
51
69
51
14
10
8
5
15
51
70
51
14
10
8
5
15
51
70
51
14
10
8
5
15
51
70
51
14
10
8
6
16
53
70
52
15
10
8
6
16
54
72
53
15
10
8
6
16
56
73
52
14
10
8
6
16
56
73
53
14
10
8
6
16
56
73
53
15
10
8
6
16
56
74
54
15
10
8
6
16
56
74
54
15
10
8
6
16
56
73
54
15
10
8
6
16
55
73
54
15
10
8
6
16
56
74
54
15
10
8
6
16
57
72
53
15
9
8
6
17
56
71
53
15
10
8
6
17
56
71
53
15
10
8
6
17
57
70
54
16
10
8
6
17
57
72
57
17
11
8
6
17
56
70
56
17
11
8
6
17
56
70
56
17
11
8
6
17
57
70
55
17
11
8
6
17
55
69
55
17
12
9
6
17
55
68
55
17
12
9
6
17
55
68
55
17
12
9
6
17
52
67
54
17
11
9
5
15
50
66
54
17
12
9
5
15
48
64
54
17
12
9
5
15
48
63
53
18
12
9
5
15
48
62
50
18
12
9
5
17
51
62
46
17
12
10
5
19
51
60
47
19
13
11
5
19
50
60
48
19
13
11
5
19
51
60
48
19
13
11
5
19
51
61
48
19
13
11
5
19
51
59
47
19
13
11
4
20
51
59
47
19
14
12
5
20
50
57
47
19
14
12
4
19
51
58
47
18
14
12
4
20
52
59
47
18
14
12
5
20
49
57
47
18
13
12
5
20
49
57
47
18
13
12
4
20
48
57
47
18
13
12
4
20
48
57
48
18
13
12
4
20
48
59
48
17
13
12
4
20
48
58
48
17
13
11
4
21
50
61
48
17
13
12
5
21
50
61
48
17
13
12
5
21
51
62
48
17
13
12
5
20
51
62
47
17
13
12
5
20
50
65
49
17
13
12
5
20
50
62
51
18
13
12
4
20
50
62
51
17
13
12
4
20
50
62
51
17
13
12
4
20
48
60
51
18
13
12
4
20
48
58
51
18
14
12
4
20
46
59
53
18
14
12
4
20
46
60
52
18
14
12
4
20
46
60
52
18
14
12
4
21
46
60
50
18
14
12
4
21
46
60
51
18
14
12
4
20
46
60
51
18
14
12
4
21
46
59
51
18
14
12
4
21
45
58
52
20
16
13
4
22
45
59
53
21
17
14
4
22
45
58
53
21
16
14
4
22
46
59
53
21
16
14
4
22
45
60
51
20
16
14
4
22
45
60
48
19
16
14
4
22
45
60
48
19
16
14
4
22
45
61
48
19
16
14
5
22
45
62
50
20
16
14
5
22
46
63
50
20
16
14
5
22
46
65
50
20
16
14
5
22
47
66
50
20
16
14
5
22
46
66
50
20
16
14
5
22
46
66
49
20
16
14
5
23
47
65
48
20
16
14
5
23
47
66
47
19
16
14
5
23
47
66
47
19
16
14
5
21
44
65
47
19
16
14
5
20
43
65
47
19
16
13
5
20
43
65
47
19
16
14
5
20
44
65
47
19
16
14
5
20
42
65
47
19
16
14
5
19
42
65
48
19
16
13
5
19
42
66
48
19
16
13
5
19
42
67
49
19
16
13
5
19
41
67
48
19
16
13
5
19
39
66
48
19
16
13
5
20
39
67
50
21
17
14
5
20
39
67
52
22
18
14
5
20
40
66
52
22
18
14
5
20
41
66
51
22
18
14
5
20
41
64
51
22
18
14
5
20
42
67
51
24
19
15
5
20
40
66
51
25
20
16
5
20
39
66
51
25
20
16
5
20
39
65
50
25
20
16
5
21
38
64
50
25
20
16
5
24
41
63
50
25
20
16
5
24
41
64
47
24
20
16
5
24
42
64
47
24
20
16
5
24
41
63
47
24
20
16
5
24
41
64
47
24
20
17
5
24
40
63
45
24
20
16
5
24
40
63
46
24
20
16
5
25
40
63
47
26
21
17
5
25
41
64
47
26
21
17
5
25
41
63
47
26
21
17
5
25
41
63
46
26
21
17
5
25
41
63
46
26
21
17
5
25
41
62
47
26
21
17
5
24
40
62
45
24
19
16
5
24
40
62
45
23
19
16
5
23
41
62
47
24
19
16
5
23
40
62
48
24
19
16
5
23
40
63
48
24
19
16
5
23
40
61
48
24
19
16
5
23
40
61
48
24
19
16
5
25
40
60
50
24
19
16
5
24
39
59
49
26
20
16
5
24
41
60
49
27
20
17
5
24
41
60
49
27
20
17
5
24
41
62
49
27
20
17
5
24
41
62
49
27
20
17
5
24
41
62
48
27
20
16
5
23
41
62
48
27
20
16
5
23
41
62
49
27
20
16
5
24
41
64
52
27
20
16
5
24
41
64
52
27
20
16
5
23
41
64
51
27
19
16
5
23
42
66
52
27
19
16
5
23
42
66
54
27
19
16
5
23
42
66
54
27
19
16
5
23
42
67
52
27
19
16
5
23
43
65
52
27
19
16
6
23
43
65
52
27
19
15
6
23
43
65
52
27
19
15
6
24
43
65
52
27
19
16
6
23
43
65
50
26
18
15
6
23
44
65
48
25
18
15
6
23
44
66
48
25
18
15
6
23
43
66
48
25
18
15
6
23
45
66
47
25
18
15
6
23
43
64
48
23
17
15
6
23
43
62
48
22
16
14
6
23
43
61
47
22
16
14
6
23
45
62
48
22
16
14
6
23
45
63
50
24
18
15
6
23
44
63
51
25
19
16
6
22
44
63
51
25
18
15
6
22
45
64
51
25
19
15
6
23
45
64
51
25
19
16
6
23
45
65
52
25
18
16
6
23
44
65
52
25
19
16
6
23
44
66
50
25
19
16
6
22
44
64
51
26
18
15
6
22
43
63
53
26
18
15
6
22
44
64
53
26
18
15
6
22
44
64
53
26
18
15
6
22
44
64
53
26
18
15
6
22
44
64
53
26
18
15
6
22
44
64
54
26
18
15
6
22
45
66
54
27
18
15
6
22
44
67
52
27
18
15
6
22
46
67
51
27
19
15
6
22
47
65
51
28
19
16
6
22
47
65
52
28
19
16
6
22
47
65
52
28
19
16
6
21
47
65
50
28
19
16
6
21
47
68
49
25
18
15
6
21
46
67
51
25
17
15
6
21
46
65
52
25
17
15
6
21
46
63
53
26
17
15
6
21
46
63
53
26
17
15
6
21
48
63
53
26
17
15
6
21
48
63
53
26
17
15
6
21
48
65
53
26
17
15
6
21
49
62
50
25
17
15
6
21
49
62
50
25
17
15
6
21
49
62
50
26
17
15
6
21
48
63
50
26
17
15
6
21
48
63
49
26
17
15
6
21
48
64
49
26
17
15
6
21
49
63
49
25
17
15
6
21
48
65
49
25
17
15
6
21
47
64
50
25
17
15
6
21
47
64
50
25
17
15
6
21
49
64
50
25
17
15
5
22
51
64
53
28
18
16
5
23
51
65
54
28
18
16
5
23
51
64
54
28
18
16
5
23
51
65
55
28
18
16
5
24
50
64
55
28
18
17
5
24
50
65
57
28
18
16
6
25
51
67
57
28
18
16
6
25
51
67
57
28
18
16
6
24
51
66
58
29
18
16
6
25
51
66
58
30
18
16
6
23
51
68
59
29
17
16
6
23
51
68
59
29
17
16
6
23
51
67
59
29
17
16
6
23
50
67
59
29
17
16
6
22
51
65
58
29
17
16
6
24
52
66
58
29
17
16
6
28
54
65
59
30
21
20
6
27
54
65
58
28
20
20
7
28
55
67
57
27
21
20
7
28
54
68
57
27
21
20
7
29
55
68
57
27
21
20
7
29
55
68
57
27
21
20
7
29
55
68
59
28
21
20
7
29
56
70
61
30
23
21
7
30
55
68
62
30
23
22
7
30
55
68
64
30
23
22
7
30
53
68
64
29
23
22
7
30
53
68
65
29
23
21
8
30
53
68
64
29
23
21
8
30
52
68
64
29
22
21
8
30
52
68
64
29
22
21
8
30
52
66
64
29
23
21
8
30
52
66
62
29
23
22
8
30
51
67
63
29
23
22
8
30
51
66
62
29
23
22
8
30
50
67
63
30
23
22
8
30
49
66
63
30
24
23
8
30
49
66
65
30
24
22
8
30
49
64
65
30
24
22
8
31
50
65
66
31
24
23
8
32
50
65
67
31
24
23
8
32
49
66
67
31
24
23
8
32
50
64
67
31
24
23
8
32
50
64
69
32
25
23
8
32
50
65
68
32
25
23
9
32
49
65
70
33
25
23
9
32
49
63
70
33
25
23
8
32
49
63
70
33
25
23
8
32
49
64
72
35
25
23
9
32
47
63
73
35
25
23
9
31
46
64
72
33
24
22
8
31
44
62
71
32
24
22
8
31
44
64
71
33
24
22
9
31
44
64
72
33
24
22
9
32
45
64
71
33
24
22
8
32
44
63
69
33
24
23
8
32
43
62
69
32
24
22
8
32
43
62
69
32
24
22
8
32
43
62
69
32
24
22
8
31
43
61
67
30
23
22
8
30
40
59
64
30
23
21
8
30
40
59
65
30
23
21
8
30
41
59
66
30
23
21
8
30
41
59
66
30
23
21
8
30
41
59
66
30
23
21
8
28
39
59
66
30
22
20
8
25
36
59
65
29
19
17
7
25
36
57
65
29
19
17
7
24
35
55
65
29
19
16
7
24
35
54
65
29
19
16
7
23
34
54
64
29
19
16
7
23
34
54
64
29
19
16
7
23
34
55
63
28
19
16
7
22
33
52
60
26
17
15
7
21
33
52
59
26
17
14
7
21
33
50
57
25
16
14
7
21
33
50
56
25
16
15
7
21
32
50
56
25
18
15
8
21
32
49
56
24
18
16
8
21
32
49
56
24
18
19
8
21
32
49
56
24
18
19
8
21
32
48
56
24
20
19
9
21
32
48
56
24
20
19
9
20
32
46
55
23
21
21
9
20
32
46
55
23
21
21
9
20
32
46
53
21
20
23
10
19
30
45
53
21
21
27
12
19
30
46
51
21
22
26
12
19
30
47
50
21
22
27
12
17
27
45
49
19
23
26
12
17
27
45
48
19
23
28
12
17
27
44
47
18
23
28
12
17
26
44
46
18
23
28
12
16
26
44
43
17
22
28
13
16
26
41
43
17
23
28
13
16
26
41
39
16
23
29
13
15
25
41
39
16
23
30
13
15
25
40
39
16
23
30
13
15
25
40
35
11
23
30
13
15
25
39
31
10
24
30
13
15
23
39
29
10
24
30
13
14
23
39
29
10
24
30
13
14
23
36
29
9
25
31
13
13
22
34
27
9
25
34
14
8
19
33
27
9
25
33
14
8
19
33
25
7
25
33
14
7
19
32
25
7
25
33
14
8
19
33
24
7
25
33
15
8
18
32
24
7
25
34
15
8
16
32
24
7
25
34
15
8
16
31
24
7
26
35
15
8
16
31
22
7
26
36
15
8
12
31
17
5
26
36
16
8
12
31
16
5
26
36
16
8
12
30
16
5
26
37
16
8
11
30
15
5
26
37
16
8
10
32
15
5
26
37
16
8
10
31
15
5
27
37
16
8
10
31
14
5
27
37
16
8
10
31
14
5
27
38
16
7
10
31
14
5
28
39
16
8
10
31
12
4
28
39
16
7
9
30
10
4
29
39
16
7
8
30
10
4
29
39
16
7
8
30
10
4
30
39
16
7
7
30
10
4
30
39
16
7
7
30
10
4
30
39
16
7
8
33
11
4
29
39
15
7
10
35
12
4
29
38
15
7
9
36
12
4
28
37
14
7
9
36
12
4
29
38
14
7
9
36
12
4
28
37
14
7
10
36
12
4
27
37
14
7
10
36
12
4
27
36
14
7
10
36
12
4
27
36
14
7
10
37
13
4
27
35
13
7
10
37
12
4
26
32
11
7
10
36
11
4
24
32
11
7
10
36
11
4
25
32
11
7
10
37
11
4
24
32
11
7
9
37
11
4
24
31
11
7
9
36
11
4
24
31
11
7
9
36
11
4
24
31
11
7
9
36
11
4
24
31
9
7
9
36
11
4
24
31
9
7
9
35
11
4
24
30
9
7
9
35
11
4
23
29
9
7
10
36
11
4
23
29
9
7
10
36
10
4
23
29
9
6
10
36
10
4
23
29
9
6
10
36
11
4
23
29
9
6
10
36
11
4
22
28
9
6
10
36
11
4
21
28
9
6
10
36
11
4
21
24
9
6
10
37
11
4
20
24
8
6
10
39
12
4
20
24
8
6
10
38
12
4
20
24
7
5
10
39
12
4
20
24
6
4
10
39
12
4
20
23
6
4
10
39
12
4
20
22
6
4
10
39
12
4
19
21
4
4
10
38
12
4
19
20
4
4
10
38
12
3
19
20
3
4
10
38
12
3
19
19
3
4
10
38
12
3
18
18
3
4
10
39
12
3
19
17
3
4
10
37
12
3
18
17
3
4
10
38
11
3
18
17
3
4
10
38
12
3
17
17
3
4
10
38
12
3
17
16
3
4
10
38
12
3
16
13
3
4
10
38
11
3
16
13
3
4
10
37
11
3
14
12
3
4
10
37
11
3
13
12
3
4
10
37
11
3
12
12
2
4
10
37
11
3
12
12
2
4
10
37
11
3
12
12
2
4
10
35
11
3
12
12
2
3
8
33
9
2
11
12
2
4
8
32
9
2
11
12
2
4
8
31
9
2
11
10
2
4
8
31
9
2
11
10
2
3
7
31
9
2
11
10
2
3
7
31
9
2
10
9
2
3
7
33
9
2
10
9
2
3
7
32
9
2
10
9
2
3
7
32
9
2
10
9
2
3
7
32
9
2
10
9
2
3
7
31
9
2
9
9
2
3
7
31
9
2
9
9
2
3
7
31
9
2
9
6
2
3
7
31
9
2
9
6
2
3
7
32
10
2
9
6
2
3
7
32
10
2
8
6
2
3
7
34
10
2
8
6
2
3
7
34
10
2
8
6
2
3
8
34
12
2
7
6
2
3
7
34
12
3
7
6
2
3
8
35
15
3
7
6
2
3
8
36
15
3
7
6
2
3
9
38
16
3
7
6
2
4
9
38
16
3
7
6
2
4
12
38
16
3
7
6
2
4
11
38
17
4
7
6
2
4
13
39
16
4
7
5
2
5
14
38
16
4
6
5
2
5
14
38
16
4
7
5
2
5
15
37
18
4
7
5
2
5
17
37
18
4
7
5
3
6
19
40
20
4
7
5
3
6
21
41
20
4
7
5
3
6
20
43
20
4
7
5
3
6
20
44
21
5
7
6
3
7
21
45
21
6
8
6
3
7
21
48
25
7
8
6
3
8
22
50
27
8
7
6
3
8
23
52
28
8
7
6
3
8
23
52
29
8
7
6
3
8
23
53
30
8
7
6
3
8
23
53
33
8
7
6
3
8
23
53
34
9
6
6
3
8
23
53
35
9
6
6
3
8
26
55
36
9
6
5
3
8
26
57
37
9
6
5
3
8
27
57
38
9
6
5
3
8
27
56
38
9
6
5
3
8
27
57
38
9
6
5
3
8
27
57
39
9
7
6
3
10
28
60
40
9
8
7
4
10
27
60
42
9
8
7
4
10
28
60
42
9
8
7
4
10
29
61
42
10
8
7
4
10
29
60
43
10
8
7
4
10
30
62
43
10
8
7
4
10
31
61
43
12
9
8
4
10
34
63
44
13
11
8
4
10
36
63
44
13
11
8
4
11
38
64
44
13
11
9
4
12
38
64
46
13
11
9
4
12
38
65
47
13
11
9
4
12
38
65
47
13
11
9
4
12
42
65
47
14
11
9
4
13
42
65
48
14
12
9
4
13
42
65
48
14
12
9
4
13
42
64
49
14
12
9
4
13
43
64
49
14
12
10
4
13
43
65
49
14
12
10
4
13
43
64
49
14
12
10
4
13
44
64
48
14
12
10
4
14
44
64
49
14
12
10
4
14
44
63
49
14
13
10
4
15
47
65
52
15
13
10
4
15
47
65
53
16
14
11
4
15
47
66
54
16
14
12
4
15
47
66
54
16
15
12
4
15
47
66
54
16
15
12
4
16
48
66
55
18
15
12
4
16
49
68
55
18
15
12
5
16
48
69
55
18
15
12
5
16
47
68
55
18
15
12
5
16
47
69
55
18
16
13
5
19
48
68
57
19
17
13
5
19
49
68
57
18
16
13
5
19
50
67
57
18
16
13
5
19
50
66
55
18
16
13
5
19
49
65
56
19
17
14
5
20
50
66
58
20
17
14
5
20
50
67
58
19
17
14
5
20
51
68
57
20
17
14
5
20
51
68
56
21
18
14
5
21
51
69
55
21
18
15
5
21
53
69
55
21
18
15
5
21
52
68
55
21
18
15
5
21
52
67
55
22
19
15
5
21
52
67
54
22
19
15
5
21
52
67
55
22
19
15
5
22
53
67
56
22
19
15
5
22
53
68
56
22
19
15
5
21
53
67
55
22
19
15
5
22
56
67
56
22
19
15
5
22
56
67
55
22
19
15
5
22
56
68
55
22
19
15
5
23
56
69
55
22
19
15
5
24
56
68
55
22
19
15
5
24
55
68
55
21
19
15
5
24
54
66
54
20
18
15
5
24
52
67
55
20
18
15
5
24
51
66
56
20
18
15
5
24
52
65
54
20
18
15
5
24
52
64
54
20
18
15
5
24
52
65
54
22
19
16
5
25
51
65
54
22
20
17
5
25
51
65
53
22
20
16
5
25
51
65
53
22
20
16
5
25
51
65
52
22
20
17
5
26
51
65
52
23
21
17
5
26
52
65
53
23
21
17
5
26
52
65
53
23
21
17
5
26
51
64
53
23
21
17
5
26
51
65
53
23
21
17
5
26
51
66
52
23
21
17
5
25
48
66
50
22
21
17
5
25
48
66
50
22
20
17
6
25
49
66
48
22
20
17
6
25
49
66
49
22
19
17
6
25
48
65
49
22
19
17
6
25
47
65
48
21
19
16
6
25
47
63
48
21
19
16
5
25
48
62
49
21
19
16
5
25
49
62
49
21
19
16
5
24
48
59
48
21
19
16
5
22
48
59
47
21
18
15
5
22
48
60
47
21
18
15
5
23
47
60
48
21
18
15
5
23
48
61
51
22
19
16
5
23
49
61
48
21
18
15
5
22
48
59
46
21
18
15
5
22
48
57
46
21
18
15
5
22
47
57
48
22
18
15
5
22
47
57
48
22
18
15
5
21
47
55
49
22
18
15
5
21
45
55
48
22
18
15
5
21
45
55
48
22
18
15
5
22
46
55
47
21
17
15
5
22
47
56
49
24
19
16
5
24
47
56
52
28
21
17
5
24
48
58
50
28
21
17
5
24
47
57
50
28
21
17
5
24
47
55
50
28
21
17
5
23
44
56
49
27
21
17
6
23
45
56
49
28
21
17
6
24
46
57
49
27
21
17
6
24
48
56
49
28
21
17
5
23
48
57
49
28
21
17
5
23
48
57
53
29
21
17
6
23
48
58
53
29
21
17
6
23
48
58
51
29
21
17
6
23
47
58
51
29
21
17
6
23
47
58
51
29
21
17
6
23
47
58
54
30
22
17
6
25
48
59
54
29
22
17
6
25
46
59
54
29
21
17
6
25
48
59
54
29
21
17
6
25
50
59
55
30
21
17
6
25
49
60
55
30
21
17
6
24
49
61
55
29
21
17
6
24
48
61
55
29
20
17
6
24
49
61
56
29
20
17
6
24
50
61
58
30
20
17
6
25
50
60
57
30
20
17
6
25
50
59
57
30
20
17
6
25
51
58
57
30
21
17
6
25
52
58
58
30
20
17
6
26
51
58
59
30
20
17
6
26
52
58
59
30
21
17
6
26
52
59
59
30
21
17
6
26
51
58
59
30
21
17
6
27
53
59
59
30
21
17
6
29
54
62
59
30
21
18
6
29
53
63
58
30
21
18
6
29
54
63
58
30
21
18
6
29
53
63
58
30
21
18
6
29
53
65
59
30
21
18
6
29
55
65
58
30
22
18
6
28
55
65
56
29
21
18
6
28
54
64
56
29
21
18
6
28
54
66
56
29
21
18
6
29
55
66
56
29
21
18
6
29
55
65
55
28
21
18
6
29
56
65
54
27
20
18
6
29
56
67
54
27
20
18
6
29
56
67
53
27
21
18
6
29
56
68
54
27
21
18
6
29
56
68
54
27
21
18
6
28
55
66
52
25
19
17
6
27
56
67
49
21
17
16
6
27
55
65
50
21
17
16
6
27
55
66
50
21
17
16
6
27
55
66
51
22
17
16
6
27
55
67
51
22
18
17
6
27
55
66
51
22
18
16
6
26
54
66
51
22
18
16
6
25
52
65
51
22
17
16
6
25
52
65
50
21
17
16
6
26
54
65
48
21
17
16
6
28
54
64
49
21
18
18
6
28
55
65
48
21
18
18
6
28
55
65
48
21
18
18
6
28
55
66
48
21
18
18
6
28
56
66
45
20
18
17
6
25
54
64
47
20
16
16
6
25
55
65
47
20
16
16
6
25
53
65
48
20
16
15
6
25
53
65
48
19
16
16
6
26
53
64
48
20
16
16
6
25
54
63
49
20
16
16
6
25
55
64
48
20
16
16
6
25
55
64
46
19
16
16
6
25
53
65
47
19
16
16
6
25
53
65
47
19
16
15
5
27
56
65
47
18
16
16
6
26
55
64
46
18
16
16
6
27
56
64
45
18
16
16
6
26
55
63
43
18
16
16
5
26
55
63
43
17
15
16
5
26
55
64
43
17
15
16
5
25
55
64
42
17
15
15
5
25
54
64
42
17
15
15
5
23
51
61
45
18
15
15
6
23
51
59
46
18
15
15
6
23
51
60
46
18
15
15
6
23
51
61
47
18
15
15
6
23
54
60
45
17
15
15
6
23
51
62
45
17
15
15
6
23
51
61
45
17
15
15
6
23
51
61
45
17
15
15
6
24
51
60
45
18
16
15
6
24
51
60
45
18
16
15
6
24
51
60
47
18
16
16
6
24
49
60
47
18
16
16
6
24
49
57
48
18
16
16
7
24
50
58
50
18
16
16
7
24
51
57
50
18
16
16
7
25
52
57
50
18
16
16
7
24
51
57
50
18
16
16
7
25
50
57
51
18
17
17
7
25
50
57
51
18
17
16
8
26
51
56
50
18
17
17
8
26
51
56
49
17
17
17
8
26
52
55
50
18
17
17
8
26
51
55
51
18
17
17
8
26
53
55
52
18
17
17
9
27
53
56
53
19
18
17
9
27
53
56
53
19
18
18
9
27
51
55
53
18
17
17
9
25
51
56
53
17
16
17
9
25
50
55
53
17
16
16
9
25
50
55
53
17
16
16
9
25
50
55
55
18
16
16
9
25
51
55
56
19
17
17
9
26
51
55
54
18
18
18
9
26
50
53
56
18
18
18
9
26
52
53
55
18
18
18
9
26
50
52
56
18
18
18
9
26
52
52
56
18
18
18
9
26
51
52
58
18
18
18
9
26
50
52
58
19
19
18
9
26
50
52
58
19
19
18
9
27
50
51
57
19
19
19
9
27
50
53
57
20
19
19
9
25
47
53
57
20
19
18
9
25
47
53
58
20
19
18
9
24
46
52
58
20
19
18
9
24
47
53
58
20
19
18
9
24
47
53
59
20
19
18
9
24
47
52
59
20
19
18
9
25
47
52
58
20
19
18
9
25
47
52
59
21
19
18
9
25
49
53
56
21
20
19
8
26
49
53
56
22
21
20
8
26
49
53
56
22
21
20
8
26
49
51
56
23
21
20
8
25
45
51
56
23
21
20
8
26
47
48
57
23
21
19
8
26
46
48
58
23
21
20
8
26
47
48
59
23
21
20
8
25
48
47
59
23
20
19
8
25
48
48
58
23
20
19
8
25
48
48
57
23
20
19
8
25
49
48
58
23
20
19
8
25
51
48
57
23
20
19
8
26
50
47
57
27
22
20
8
27
49
47
57
27
23
21
8
26
48
47
57
27
23
20
8
26
48
47
58
27
22
20
7
26
50
46
56
27
22
20
7
26
50
45
58
27
22
20
6
25
49
47
59
27
22
20
6
25
49
47
60
28
22
20
6
26
48
48
60
29
23
20
7
27
50
48
61
30
23
21
7
27
48
46
60
30
23
21
6
26
48
44
61
30
23
21
6
27
49
45
62
32
23
21
6
26
49
46
62
32
23
21
6
25
49
47
62
32
23
20
6
25
49
47
62
32
23
21
6
25
49
46
62
33
23
21
6
27
49
46
60
34
25
22
6
28
48
47
60
35
25
23
6
27
47
47
60
35
24
22
5
27
49
47
59
35
25
22
5
27
48
47
61
36
25
22
5
27
47
47
60
36
25
22
5
27
46
47
61
36
25
22
5
27
46
47
58
36
25
22
5
27
46
48
58
36
24
22
5
27
47
48
58
36
24
22
5
26
47
47
58
36
24
22
5
26
47
46
57
36
24
22
5
26
47
46
57
36
24
21
5
26
47
47
56
35
24
21
5
26
47
47
56
35
24
21
5
26
45
47
56
36
24
21
5
26
45
47
56
36
24
21
5
26
45
46
56
35
24
21
5
26
44
46
56
35
24
21
5
26
44
47
56
35
24
21
5
26
43
46
56
35
23
21
5
25
43
46
55
33
22
20
5
25
43
46
55
33
22
20
5
25
43
46
55
33
22
20
5
25
43
45
54
33
22
20
5
24
41
44
53
33
22
20
5
23
41
44
52
33
22
19
5
23
41
44
52
33
22
19
5
23
39
44
51
33
22
19
5
23
39
42
51
33
22
19
5
22
39
42
51
33
21
19
5
22
37
42
51
32
21
19
5
22
34
42
51
32
22
19
5
21
34
42
48
29
19
18
5
20
34
42
48
29
19
17
5
20
34
42
48
29
19
17
5
20
34
42
46
29
20
17
5
19
31
42
46
28
20
17
6
19
31
42
44
28
21
17
6
19
31
40
43
28
21
17
6
19
31
40
41
27
21
18
6
18
30
40
41
26
22
17
7
16
27
40
38
24
21
17
7
16
26
40
37
24
22
17
7
16
26
40
34
24
23
17
7
15
24
40
32
20
23
17
7
15
24
39
31
20
23
17
7
15
23
36
31
20
23
17
7
15
23
36
31
20
23
17
7
15
22
36
31
19
23
17
7
13
22
36
30
16
22
15
7
8
22
35
28
14
21
14
7
8
22
35
27
14
21
14
7
8
18
35
25
11
21
14
7
8
18
35
19
9
21
14
7
7
18
35
19
8
21
13
7
7
18
35
17
8
21
13
7
6
17
34
16
7
21
13
7
6
15
34
16
7
21
13
7
6
13
34
16
7
21
13
7
6
12
34
14
6
21
13
7
6
11
32
15
6
21
14
7
5
11
31
14
6
21
14
7
5
11
30
14
5
21
14
7
5
11
29
14
5
20
14
7
5
11
28
14
5
21
17
7
5
11
28
13
5
21
17
7
5
11
27
13
5
21
18
7
5
11
27
13
5
21
18
7
5
11
25
12
4
21
18
7
4
10
25
12
4
21
18
8
4
10
24
12
4
21
18
8
4
10
24
12
4
21
18
8
4
10
25
11
3
22
19
8
4
10
23
11
3
22
23
8
3
10
23
11
3
23
25
8
3
9
23
11
3
23
25
8
3
7
23
11
3
23
25
8
3
6
22
11
3
23
26
8
4
5
22
11
3
23
30
8
4
6
22
11
3
24
30
8
4
6
22
10
3
24
30
8
4
6
22
8
3
24
30
8
4
6
22
8
3
24
31
8
4
6
22
8
3
24
31
8
4
7
25
8
3
24
31
8
4
7
26
8
3
24
31
8
4
7
28
8
3
23
31
8
4
7
30
8
3
23
31
8
4
7
30
8
3
23
31
8
4
7
29
7
3
23
31
8
4
7
28
7
3
22
31
7
4
7
29
8
3
22
31
7
5
7
30
8
3
21
31
7
5
7
30
8
3
20
30
7
5
7
30
8
3
20
30
7
5
7
31
8
3
19
31
7
4
7
30
8
3
19
31
7
5
7
31
8
3
19
30
7
5
7
30
8
3
20
30
7
5
7
30
8
3
19
30
7
5
7
30
8
3
19
30
7
5
7
30
8
3
19
31
7
5
7
30
8
3
19
31
7
5
7
30
8
3
19
31
7
5
7
31
8
3
19
31
7
5
7
31
8
3
19
31
7
5
7
31
8
3
19
31
7
5
7
31
8
3
19
31
7
5
7
30
8
3
19
31
7
5
7
30
8
3
19
30
7
5
7
30
8
3
19
31
7
5
7
32
8
3
19
31
7
5
7
32
8
3
19
31
7
5
7
32
8
3
19
30
6
5
8
34
8
3
19
29
6
5
8
33
8
3
19
29
6
5
8
34
8
3
19
29
6
5
8
34
8
3
19
28
6
5
8
34
8
3
19
28
6
5
8
34
8
3
19
28
5
5
8
36
8
3
18
28
5
5
9
37
9
3
18
28
5
5
9
37
9
3
17
28
5
5
9
37
9
3
17
24
5
5
9
39
9
3
16
23
5
5
9
38
9
3
16
22
5
5
9
39
10
3
16
22
5
5
9
41
10
3
16
22
5
5
9
41
10
3
16
16
4
4
9
41
10
3
14
15
3
4
8
41
10
3
14
15
3
4
8
41
10
3
14
15
3
4
9
41
10
3
13
13
3
4
8
41
10
3
13
13
3
4
8
40
10
3
13
12
3
4
8
39
10
3
13
12
3
4
8
38
9
3
13
12
3
4
8
36
9
3
10
12
3
4
8
36
9
3
10
11
2
4
8
36
10
3
9
11
2
4
8
37
10
3
9
11
2
4
8
36
9
3
9
10
2
3
8
35
9
3
9
9
2
3
8
35
9
2
8
9
2
3
8
36
9
2
8
9
2
3
8
36
9
2
8
9
2
3
9
36
9
2
8
8
2
3
9
36
9
2
8
8
2
3
9
36
9
2
7
8
2
3
9
36
9
2
7
8
2
3
9
36
10
2
7
8
2
3
9
38
10
2
7
7
2
4
10
38
10
3
7
7
2
3
10
38
10
3
7
7
2
3
10
38
11
3
7
7
2
3
10
38
11
3
7
6
2
3
10
38
11
3
7
6
2
3
11
40
11
3
6
6
2
3
11
40
11
3
5
6
2
4
11
40
12
3
5
6
2
4
12
41
12
3
4
5
2
4
12
40
12
3
4
5
2
4
12
41
12
3
4
4
2
4
12
41
12
3
4
4
2
4
12
40
12
3
3
3
2
4
12
40
12
3
3
3
2
4
12
40
12
3
3
3
2
4
12
40
12
3
3
3
2
4
12
41
13
5
3
3
2
4
12
41
12
5
3
3
2
4
13
39
13
5
3
3
2
4
12
39
15
5
3
3
2
4
12
41
15
5
3
3
2
4
12
41
15
5
3
3
2
5
12
40
15
5
3
3
2
5
13
42
17
6
3
3
2
5
13
42
17
6
4
3
2
5
15
42
17
6
4
3
2
5
20
45
17
6
4
4
2
5
20
46
17
6
4
4
2
5
20
47
19
6
4
4
2
6
20
48
24
6
4
4
2
7
20
49
26
6
4
4
3
7
21
50
26
6
5
4
3
8
22
50
26
6
5
5
3
8
22
51
26
7
5
5
3
8
22
51
29
8
5
5
3
8
22
54
33
9
6
5
3
8
22
55
33
9
6
5
3
8
23
57
33
9
6
6
3
9
23
57
33
9
6
6
3
9
24
57
33
9
6
6
3
10
24
58
33
10
7
6
3
10
24
58
33
10
7
6
3
10
26
57
35
10
8
7
3
10
26
58
35
10
8
7
4
10
26
58
37
11
8
7
5
10
26
60
37
11
8
7
5
10
26
60
38
13
8
7
5
11
27
60
38
13
9
7
5
11
28
61
38
13
9
7
5
11
28
60
38
13
9
7
5
12
29
62
39
15
10
8
5
13
30
63
42
17
12
9
5
13
30
65
43
17
12
9
5
13
32
65
43
17
12
10
5
13
32
66
44
17
12
10
5
14
34
65
44
17
14
11
5
14
34
66
44
18
14
11
5
14
34
66
44
18
15
11
5
15
36
66
46
18
15
12
6
15
36
66
46
18
15
12
6
16
37
67
46
19
15
12
6
17
39
68
48
19
15
12
6
18
39
69
48
19
16
13
6
18
39
69
48
19
16
13
6
18
40
69
50
21
17
14
6
18
40
69
52
22
18
14
6
18
40
68
54
22
18
14
6
19
42
68
54
22
18
14
6
19
44
69
54
22
18
14
6
19
46
69
56
22
18
14
6
20
46
68
56
22
18
15
6
20
47
68
56
22
18
15
6
20
47
68
57
22
18
15
6
20
46
68
56
22
18
15
6
20
48
68
59
22
18
15
6
20
47
67
59
22
18
14
6
20
46
65
59
23
18
14
6
20
46
65
59
23
18
14
6
20
47
67
59
23
19
15
7
21
47
67
60
23
19
16
7
20
47
66
60
24
20
16
7
21
47
66
60
24
20
16
7
21
47
66
60
24
20
16
7
21
48
66
61
24
20
16
7
22
48
66
61
24
20
17
7
22
48
64
59
23
20
17
7
22
50
64
59
23
20
17
7
22
50
64
59
23
20
16
7
21
51
64
60
23
20
17
7
21
51
64
60
23
20
17
7
21
53
65
60
23
20
16
7
22
54
65
62
23
20
17
7
22
54
66
62
23
20
17
7
22
54
65
62
23
20
18
6
22
54
65
61
23
20
18
6
23
54
63
62
23
20
18
6
23
55
65
62
22
20
18
6
23
55
65
62
22
20
18
6
23
55
64
62
22
20
18
6
23
55
65
62
22
20
18
6
23
54
62
61
21
19
18
6
23
54
61
59
19
18
17
6
23
54
61
60
19
19
18
6
23
54
61
60
19
19
18
6
23
54
61
60
20
19
18
6
23
53
63
61
23
19
17
6
25
53
64
61
23
20
18
6
25
53
64
61
23
19
18
5
25
52
64
61
23
19
18
5
25
52
64
63
24
19
18
5
24
52
62
62
24
19
18
6
24
52
61
62
24
20
18
6
24
52
60
62
24
20
18
6
24
53
60
62
24
20
18
6
24
54
61
60
22
19
18
6
24
55
62
59
22
19
17
6
24
55
65
57
22
19
17
6
24
54
66
57
22
19
17
6
24
53
65
57
23
19
17
6
24
52
66
56
23
19
17
6
24
53
65
56
23
19
17
6
24
53
65
58
23
19
17
6
24
53
65
60
23
19
17
6
24
54
65
59
23
19
17
6
24
54
66
57
23
19
18
5
25
55
67
58
23
19
18
6
25
54
67
58
23
19
18
6
25
54
67
58
23
19
18
6
24
53
64
60
24
18
17
5
24
53
63
59
28
20
18
5
25
53
63
58
27
20
19
6
25
53
65
58
27
20
18
6
25
53
65
58
27
21
19
6
25
53
64
57
28
20
19
6
25
53
64
59
30
20
18
7
25
53
65
59
30
20
18
7
25
51
64
59
30
20
18
6
25
51
62
61
30
20
18
6
28
52
63
61
32
23
20
6
28
53
64
62
32
23
21
6
27
51
64
62
32
23
21
6
27
50
64
60
32
23
20
6
27
51
63
59
32
23
20
6
27
51
64
59
33
23
20
6
28
51
64
60
33
23
20
6
27
52
65
59
33
23
20
6
27
51
64
59
34
23
20
6
27
51
64
59
33
23
20
6
28
51
64
59
33
24
21
7
28
52
65
59
34
24
21
7
28
52
65
60
34
24
20
7
28
52
65
60
34
24
20
7
28
51
64
61
35
25
21
7
30
54
64
62
35
25
22
7
30
54
64
64
35
25
22
7
29
53
61
63
34
25
22
7
28
53
59
65
34
24
21
7
29
53
59
65
34
24
21
7
29
53
59
64
34
25
22
7
29
53
59
63
33
24
22
7
29
54
60
64
33
24
21
7
30
54
60
64
35
25
22
7
32
55
62
66
36
26
23
7
32
55
62
67
36
26
23
7
32
52
61
67
36
26
23
7
32
52
60
67
35
26
23
7
32
52
59
67
35
26
23
7
32
51
58
69
35
26
23
7
32
51
59
69
35
26
23
7
32
50
58
69
35
26
23
7
33
50
59
70
36
27
24
7
33
50
59
70
37
28
24
7
33
50
59
69
37
28
24
7
33
49
59
69
37
28
24
7
33
49
57
69
37
28
24
7
33
49
56
68
37
28
24
7
33
49
56
67
37
28
24
7
35
49
56
69
37
29
25
7
35
49
57
68
36
29
25
7
34
49
57
67
34
28
24
7
33
49
58
67
34
27
23
7
34
49
55
67
34
27
23
7
34
48
55
68
34
27
23
7
34
48
55
68
34
27
24
7
34
48
55
66
32
27
23
6
34
47
54
66
32
27
23
6
34
48
54
66
32
27
24
6
34
47
54
65
32
27
24
6
32
45
53
64
30
25
22
6
32
43
51
64
30
25
21
7
33
44
50
65
30
25
22
7
34
45
51
65
31
25
22
7
33
45
52
66
31
25
22
7
33
45
51
66
31
25
22
7
33
45
51
65
31
25
22
7
33
44
48
65
31
25
22
6
33
44
48
66
30
25
22
6
33
45
48
65
32
25
22
7
33
45
48
66
33
26
22
6
33
43
48
66
33
26
22
6
32
43
48
66
33
26
22
6
32
43
48
68
33
26
22
6
31
42
48
65
31
25
21
6
30
39
48
64
31
24
20
6
30
39
48
62
30
24
20
6
30
39
49
62
31
24
20
6
30
39
49
62
31
24
20
6
29
39
50
62
31
24
20
6
29
39
49
62
31
24
19
6
29
39
50
63
31
24
19
6
29
39
50
62
31
24
19
6
27
38
50
61
30
22
18
6
25
36
48
60
28
21
17
6
25
36
49
59
29
21
17
6
27
37
49
60
29
22
18
6
27
37
50
59
28
22
19
6
27
37
49
59
28
22
19
6
27
38
49
57
29
22
19
6
27
39
48
57
29
22
19
6
27
39
50
56
28
22
19
6
26
39
49
56
27
21
18
6
26
38
49
53
26
20
18
6
26
37
49
53
26
20
18
6
26
38
50
53
26
20
18
6
26
38
51
53
26
20
18
6
27
39
51
53
27
21
19
6
27
39
51
53
27
20
19
6
25
39
51
51
26
19
18
6
25
39
52
51
26
19
17
6
26
40
55
51
26
19
18
6
27
41
56
53
29
19
18
6
27
42
56
54
29
19
18
6
27
42
56
53
28
19
18
6
26
42
56
52
28
18
18
6
26
42
56
52
28
18
18
6
28
46
56
53
29
19
18
6
29
46
57
53
29
20
19
6
29
47
57
52
29
20
19
6
29
47
57
52
29
20
19
6
29
47
57
53
29
20
19
6
28
47
59
52
29
20
19
6
27
45
59
53
28
19
18
6
27
45
58
52
28
19
18
6
27
46
58
52
28
19
18
6
27
46
59
55
28
19
18
6
27
46
60
58
28
19
18
6
29
49
62
57
28
19
19
6
28
49
62
58
26
18
19
6
28
48
62
57
25
17
18
6
28
49
60
58
25
17
18
6
28
49
61
58
25
17
18
6
29
50
61
56
25
18
19
6
29
50
61
56
25
18
19
6
29
50
61
56
25
18
19
6
29
50
61
56
25
18
19
6
29
51
61
56
24
19
20
6
29
50
61
53
24
18
19
6
28
50
61
54
24
18
19
6
29
50
62
54
24
18
19
6
29
50
60
53
24
19
20
6
31
51
62
54
25
20
21
6
31
51
65
54
24
20
21
6
31
51
64
54
24
20
21
6
32
52
63
54
24
21
21
6
30
52
65
53
24
21
21
8
30
52
64
55
24
20
20
7
30
52
63
57
24
20
20
8
30
52
65
58
26
21
20
8
30
52
67
58
26
21
20
8
30
53
66
59
26
21
20
8
30
54
66
58
26
20
20
8
30
54
66
58
26
20
19
8
30
54
67
60
26
20
19
8
30
54
67
60
26
20
19
7
30
53
67
60
25
20
19
7
29
53
69
61
25
20
19
7
29
55
69
61
25
20
19
7
29
57
70
62
25
20
19
7
31
58
69
61
25
21
20
7
30
58
67
61
24
21
20
7
29
59
67
59
22
21
20
7
29
59
68
61
24
21
20
7
30
59
68
63
24
21
20
7
30
59
68
63
24
21
20
7
30
59
68
65
24
21
20
7
28
57
68
64
24
21
20
7
28
56
68
64
23
20
19
7
28
56
67
64
23
20
19
7
28
56
68
64
23
20
19
7
28
56
69
64
23
20
19
7
28
56
68
66
23
20
19
7
28
56
68
66
24
20
19
7
28
57
68
66
24
20
19
7
28
56
68
65
23
20
19
7
28
56
67
63
23
20
19
7
28
56
66
60
23
20
19
7
27
54
65
61
23
19
18
7
27
53
65
60
23
19
18
7
27
53
66
60
23
19
18
7
26
52
66
59
23
19
18
7
26
52
66
59
23
19
18
7
26
52
65
59
23
19
17
7
26
52
65
59
23
19
17
7
26
53
65
59
23
19
17
7
25
52
65
58
23
18
17
7
25
52
65
58
23
18
17
7
25
52
65
58
23
18
17
7
25
51
65
58
22
18
17
7
25
52
65
58
22
18
17
7
24
53
65
59
22
16
16
7
22
51
64
57
21
15
15
7
22
51
62
57
21
15
15
7
21
51
61
57
21
15
15
7
21
49
61
56
21
14
14
7
21
48
60
56
21
14
13
5
21
48
60
55
21
14
13
5
21
48
60
53
20
15
13
5
20
48
58
51
19
14
13
5
20
47
55
51
18
14
13
5
19
45
54
50
18
13
12
5
19
44
54
50
18
15
13
5
19
44
54
50
18
15
13
5
19
43
53
47
18
17
13
5
19
43
51
47
18
17
13
6
19
42
50
47
18
17
13
6
18
42
47
45
18
16
14
8
18
39
46
45
18
16
14
8
17
36
44
44
18
15
13
8
14
34
44
44
18
15
11
8
14
33
43
44
18
15
12
8
13
30
42
43
16
15
12
8
13
29
41
39
13
15
12
8
12
29
40
36
12
15
11
8
12
29
40
36
12
15
11
8
11
27
39
33
11
15
11
8
11
26
40
32
11
16
11
8
10
26
38
31
11
16
11
8
9
25
39
31
11
16
11
8
8
25
38
30
11
16
13
9
8
25
37
29
11
16
15
9
7
23
34
23
9
16
15
9
7
23
35
20
7
16
15
9
8
21
35
20
7
16
15
9
8
21
35
19
7
16
16
9
7
21
35
19
7
16
16
9
7
21
34
19
7
16
16
9
7
20
32
17
7
17
16
9
7
20
33
17
7
17
16
9
7
20
34
17
7
17
21
9
7
20
34
17
7
17
24
10
7
18
34
17
6
18
24
10
7
18
34
16
5
18
24
10
7
17
35
16
5
18
24
10
7
16
34
16
5
19
27
11
7
16
34
16
5
21
28
11
7
16
34
16
5
21
28
11
7
16
33
15
5
21
28
11
7
16
34
15
5
21
28
11
6
14
30
13
5
21
29
11
5
9
30
8
3
21
29
11
5
9
28
8
3
21
30
13
5
9
28
8
3
21
30
13
6
9
27
8
3
23
32
14
5
9
27
8
3
23
33
14
5
8
27
8
3
24
33
14
5
8
27
7
3
24
33
14
5
8
28
8
3
24
33
14
5
9
31
8
3
25
33
14
5
9
31
8
3
25
33
14
5
9
32
8
3
25
33
14
5
9
32
8
3
24
33
14
5
8
33
8
3
24
33
14
5
8
33
8
3
23
33
14
5
9
34
8
3
23
33
14
5
9
34
8
3
24
33
13
5
9
34
8
3
24
33
13
5
9
34
8
3
24
33
12
5
9
34
8
3
24
33
12
5
9
34
8
3
24
33
12
5
9
34
8
3
24
33
12
5
9
34
7
3
24
33
12
5
9
33
7
3
23
33
12
5
9
33
7
3
23
33
12
5
9
34
7
3
23
33
12
5
9
34
7
3
23
33
12
5
9
34
7
3
23
33
12
5
9
34
7
3
23
33
12
5
9
34
7
3
23
33
12
5
9
34
7
3
23
32
12
5
9
34
7
3
23
31
12
4
9
33
7
3
23
31
12
4
9
32
7
3
23
31
12
4
9
33
7
3
23
31
11
4
9
33
7
3
23
30
11
4
9
33
7
3
23
30
11
4
9
33
7
3
23
30
11
4
9
34
7
3
23
30
11
4
9
33
7
3
22
30
11
4
9
31
7
3
22
27
11
4
9
31
7
3
22
24
10
4
9
31
7
3
22
24
10
4
9
30
8
3
22
24
10
4
9
30
7
3
22
24
10
4
9
30
7
3
21
20
9
3
9
30
7
3
19
20
9
3
9
31
7
3
19
19
9
3
9
31
7
3
19
19
9
3
9
31
7
3
19
19
9
3
9
31
7
3
18
18
8
3
9
31
8
3
18
17
8
3
9
31
8
3
18
17
5
3
9
31
8
3
18
16
5
3
9
31
8
3
16
10
4
3
9
31
8
3
16
9
4
3
9
31
8
3
14
8
3
3
9
31
8
3
14
8
3
3
9
30
8
3
14
7
3
3
8
28
7
3
13
7
3
3
8
28
7
2
12
7
3
3
8
28
6
2
12
7
3
3
8
27
6
2
11
7
3
2
8
26
6
2
11
7
3
3
8
26
7
2
11
7
3
3
8
25
6
2
11
6
3
3
8
25
6
2
10
6
2
3
8
24
6
2
10
6
2
3
8
24
6
2
9
6
2
3
8
25
6
2
9
6
2
3
8
25
6
2
9
5
2
2
7
25
6
2
9
5
2
3
8
25
6
2
9
5
2
3
8
25
6
2
9
5
2
3
7
26
6
2
9
5
2
3
8
29
7
2
8
5
2
3
8
31
7
2
8
5
2
3
8
32
8
3
8
5
2
3
8
34
8
3
7
5
2
3
9
36
8
3
6
5
2
3
9
37
8
3
6
5
2
3
10
39
8
3
6
4
2
5
10
41
9
3
6
5
2
5
11
42
9
3
6
5
2
5
11
41
14
5
6
5
2
6
11
44
15
5
6
5
2
6
13
46
16
6
6
5
2
7
13
46
16
6
6
5
2
7
14
46
21
9
8
6
3
8
14
48
24
10
8
7
3
8
20
51
24
10
8
7
3
9
21
51
26
10
8
7
3
9
21
51
27
11
9
8
3
10
21
51
27
12
10
9
3
11
25
52
28
12
9
9
3
11
26
53
28
12
9
9
3
11
26
55
28
12
9
9
3
11
27
55
29
12
9
9
3
12
29
57
34
14
11
10
3
14
31
56
36
16
12
10
3
14
31
57
37
16
12
11
3
14
32
57
39
16
12
11
3
14
32
57
39
16
12
11
4
14
32
59
39
17
12
11
4
15
33
59
39
17
12
11
4
15
33
60
41
17
12
11
4
15
34
61
42
17
13
11
4
15
36
62
42
17
13
11
4
15
36
62
42
17
13
11
4
15
38
62
42
17
13
11
4
15
42
63
46
18
13
11
5
16
43
63
46
18
13
11
5
16
43
63
48
18
13
11
5
16
43
64
48
18
13
12
5
18
44
66
49
20
15
12
5
18
44
66
51
20
15
12
5
18
44
66
51
20
15
12
5
18
44
66
53
22
15
13
5
19
44
67
53
22
16
13
6
19
45
69
54
22
16
13
6
19
45
68
54
22
16
13
6
20
46
69
54
22
16
13
6
20
46
70
54
22
16
13
6
20
47
70
54
22
16
13
6
20
47
71
55
22
16
13
6
20
47
70
56
22
16
13
6
20
47
70
56
23
16
14
6
20
48
71
56
23
17
14
6
20
49
70
56
23
17
14
6
20
48
70
56
23
17
14
6
20
49
71
58
24
17
14
6
21
49
72
60
24
18
14
6
21
50
73
61
24
17
14
6
21
50
73
61
25
18
14
6
21
51
73
62
25
18
14
6
21
51
72
62
25
18
14
6
22
52
70
62
25
18
14
6
21
52
71
62
25
18
14
6
22
54
71
61
24
17
14
6
22
54
72
60
24
18
15
7
22
52
70
60
24
18
15
7
23
52
70
60
24
18
15
7
22
52
70
61
23
17
14
7
22
52
72
61
24
18
14
7
22
51
72
61
24
18
14
7
22
51
71
62
24
18
14
7
22
51
70
62
24
18
14
7
23
51
70
62
24
18
15
6
22
51
70
60
23
17
14
7
21
49
71
58
21
16
14
7
21
49
73
58
22
17
14
7
21
49
74
57
22
16
14
7
22
49
74
58
23
17
14
7
22
49
73
59
23
17
14
7
21
49
74
59
23
17
14
7
21
50
73
58
24
17
14
7
21
49
74
57
24
17
14
7
21
48
74
57
24
17
14
7
21
49
74
58
24
17
14
7
21
47
75
58
24
17
14
7
21
44
74
55
23
17
14
7
21
44
74
55
23
17
14
7
21
44
74
54
23
17
14
7
21
44
74
55
23
17
14
7
19
43
73
53
21
16
13
7
19
43
73
52
21
16
13
7
19
44
74
53
22
16
13
7
19
46
75
53
21
16
13
6
18
46
75
53
21
15
13
6
19
46
73
53
21
15
13
6
18
46
73
52
21
15
13
6
18
46
72
54
22
15
12
6
18
46
72
54
23
16
13
6
18
45
72
54
22
16
13
6
19
47
71
53
22
16
13
6
19
47
71
53
22
16
13
6
19
48
71
54
22
16
12
6
19
47
70
54
22
15
12
6
19
47
70
54
22
15
12
6
19
47
70
54
22
15
12
6
18
47
69
51
21
15
12
6
18
47
69
49
20
14
12
6
18
48
66
48
20
14
12
6
18
47
67
48
20
14
12
6
17
47
66
47
19
14
12
6
17
47
66
46
19
14
12
6
16
44
66
46
19
14
11
6
19
46
68
48
20
14
12
6
21
47
68
49
20
14
12
6
20
48
67
48
20
14
12
6
20
50
66
48
20
13
12
6
20
50
66
47
20
13
12
6
21
49
66
47
20
14
12
6
21
50
67
47
19
13
11
6
21
50
66
48
19
14
12
6
21
50
67
48
19
14
12
6
21
49
66
47
19
14
12
6
20
49
65
47
19
13
12
6
20
48
65
47
19
13
12
6
21
50
64
46
19
13
12
6
20
51
61
46
19
13
11
6
21
52
60
46
21
13
11
5
21
52
61
48
19
13
12
5
21
53
61
47
19
13
11
5
21
53
60
47
19
13
11
5
21
52
60
48
19
13
12
5
22
53
59
47
19
13
12
5
23
54
60
48
19
13
12
5
24
56
62
48
19
13
13
5
24
56
61
48
19
13
12
5
24
56
60
48
20
14
13
5
24
56
60
48
20
14
13
5
24
57
61
48
20
14
13
5
24
57
60
47
20
14
13
5
24
57
61
49
20
14
13
5
25
58
63
49
20
14
13
5
25
60
65
48
20
14
13
5
25
60
63
47
19
13
13
5
25
60
63
47
19
14
13
5
25
59
63
47
19
14
13
5
25
59
63
47
19
14
13
5
25
58
63
45
18
13
13
5
25
58
63
45
18
12
13
5
25
59
62
46
18
13
13
5
25
58
63
46
18
13
13
5
25
58
63
46
18
13
13
5
25
58
64
46
19
13
14
5
25
58
64
47
19
13
13
5
25
57
64
46
19
13
13
5
25
58
63
46
19
13
13
5
25
58
63
46
19
13
13
5
25
57
63
46
19
13
14
4
25
57
62
47
19
13
13
4
25
57
63
48
18
13
13
4
25
58
64
48
19
13
13
4
26
59
63
48
19
13
13
4
26
59
66
48
19
13
13
4
24
58
64
46
18
13
13
4
22
56
64
45
18
13
13
4
22
55
64
45
18
13
12
4
22
53
65
46
18
13
12
4
22
54
65
47
18
13
12
4
21
54
65
46
18
12
12
4
21
53
62
46
18
13
12
4
21
53
62
44
18
12
11
4
21
53
64
45
18
12
11
4
20
55
67
46
18
12
11
4
20
55
68
46
18
12
11
4
20
55
69
46
18
12
11
4
20
53
69
46
18
12
11
4
20
53
69
48
18
11
11
4
20
52
70
50
16
11
11
4
20
51
69
47
16
11
10
4
21
52
69
48
17
11
11
4
21
52
69
49
17
12
11
5
21
53
71
48
17
12
11
4
21
52
71
48
17
12
11
5
20
52
71
49
18
12
11
5
20
49
70
49
19
13
11
5
20
49
70
50
19
13
12
4
19
49
70
49
19
13
11
4
19
48
70
50
19
13
11
5
20
47
70
53
22
15
13
4
23
48
71
56
23
17
15
5
23
49
70
54
23
17
15
5
23
47
69
54
22
17
15
5
22
44
66
53
22
17
15
5
23
45
67
53
22
17
15
5
23
45
67
53
22
17
15
5
24
45
67
53
23
18
16
5
24
45
67
53
23
18
16
5
25
48
68
53
23
19
17
5
25
49
68
53
23
19
17
5
26
48
69
54
23
19
17
6
26
51
71
55
23
19
17
6
25
50
71
57
23
18
16
6
25
50
70
56
22
18
16
6
25
49
69
55
22
18
16
6
25
49
70
56
22
18
16
6
25
49
70
56
22
18
16
6
26
50
69
58
23
18
16
6
26
50
69
58
23
18
17
6
26
50
69
59
23
18
17
6
26
50
68
57
23
18
17
6
25
49
68
57
23
18
17
6
25
48
69
57
23
18
17
6
25
48
67
57
23
18
17
6
25
48
67
57
22
18
16
6
25
48
67
57
22
18
16
6
25
49
66
57
22
18
16
6
25
49
67
56
22
18
16
6
25
50
67
55
22
18
16
6
25
50
67
55
22
18
16
6
25
51
67
57
23
18
16
6
25
51
66
58
23
18
16
6
25
51
64
57
23
18
16
6
25
49
62
57
23
18
16
6
25
50
60
57
23
18
16
6
25
50
59
57
23
18
16
6
25
50
59
58
23
18
16
6
25
50
59
56
23
18
16
6
25
50
58
54
23
18
16
6
25
50
58
54
23
18
17
6
25
50
58
54
23
18
16
6
24
49
58
54
22
18
16
6
24
50
56
54
22
18
16
6
24
50
55
55
22
18
17
6
24
49
53
53
21
17
16
6
23
49
53
54
20
16
16
6
23
48
53
53
20
16
16
6
23
49
52
53
20
16
16
6
24
49
52
54
21
17
16
6
23
50
52
52
18
15
15
6
21
49
53
50
19
15
14
6
21
49
54
50
18
15
14
6
21
49
54
50
18
15
14
6
21
48
54
51
18
15
14
6
21
47
54
51
18
15
14
6
23
47
53
52
19
15
14
7
23
47
53
53
20
15
14
7
23
47
55
53
20
15
14
7
22
44
54
52
19
14
14
7
22
44
53
53
19
15
14
7
21
43
51
52
19
15
14
7
22
40
49
49
19
15
14
7
22
40
48
48
19
15
14
7
22
40
48
48
19
15
14
7
22
40
48
49
20
15
15
7
22
42
48
48
20
15
15
7
22
41
51
49
20
15
15
7
22
40
51
49
20
15
15
7
22
40
51
48
20
16
15
7
23
40
52
48
20
16
15
7
23
40
54
48
20
16
15
7
23
42
54
48
20
16
15
7
23
42
53
49
20
16
15
7
23
42
53
52
23
17
15
7
23
42
54
53
23
17
15
7
23
42
55
55
24
17
15
7
23
41
55
56
24
17
15
7
23
40
53
57
24
17
15
7
23
39
53
58
25
18
16
7
23
40
54
58
25
18
16
7
23
39
54
56
24
18
16
7
24
41
56
57
24
18
16
7
24
43
56
59
27
18
16
7
24
44
56
61
27
18
16
8
24
42
56
60
27
19
16
7
25
43
59
60
27
19
16
7
25
43
58
60
27
19
16
7
25
43
60
60
27
19
16
7
25
43
60
59
27
19
16
7
24
44
61
59
27
18
16
7
24
44
60
59
27
18
16
7
24
45
63
60
27
18
16
7
24
43
64
62
28
19
16
7
24
43
66
62
28
19
16
7
24
44
66
61
28
19
16
7
24
44
66
61
28
19
16
7
24
44
66
62
28
19
16
7
24
44
66
62
28
19
16
7
24
44
66
60
27
18
15
7
24
43
65
60
27
18
15
7
23
43
64
59
26
17
14
6
23
42
64
59
26
17
14
6
23
42
64
59
26
17
14
6
23
42
64
59
26
17
14
6
21
42
63
59
26
17
13
6
19
42
64
58
25
17
13
6
19
42
64
57
24
15
12
6
19
42
63
57
24
15
12
5
19
42
63
57
24
15
12
5
18
42
63
57
24
15
12
5
18
42
63
57
24
15
11
5
17
42
62
57
24
15
11
5
17
42
62
56
24
15
11
5
17
41
62
56
24
15
11
5
17
41
62
56
24
15
11
5
17
40
61
55
24
15
11
5
16
40
59
54
24
15
11
5
16
40
58
54
24
15
11
5
16
39
58
54
23
15
11
5
15
39
57
52
23
15
10
5
15
39
55
52
23
15
10
5
15
37
54
52
23
15
10
5
15
36
54
52
23
15
10
5
15
36
54
49
20
15
9
5
15
36
51
48
20
15
9
5
14
36
50
45
19
14
9
5
14
36
51
44
19
14
10
6
14
36
50
42
19
15
10
6
13
35
50
41
18
14
9
6
13
33
49
40
18
15
17
6
13
33
49
40
17
16
19
6
12
29
47
38
17
16
23
7
10
27
47
35
13
16
23
7
10
26
46
32
13
16
23
8
10
26
46
32
12
20
27
8
9
23
42
32
12
21
29
11
9
23
42
31
12
24
32
11
9
23
40
31
12
24
32
11
9
23
40
31
12
26
32
13
9
21
37
31
12
26
32
13
9
21
37
31
12
28
33
13
8
17
33
28
11
28
34
13
8
17
30
22
8
28
34
13
7
17
25
21
8
28
34
13
7
15
27
21
8
29
35
13
7
15
27
21
8
29
35
13
7
15
27
18
6
29
35
13
7
15
29
17
6
29
35
13
7
14
29
17
6
30
36
13
6
13
30
17
6
30
36
13
6
13
29
16
6
30
37
13
5
11
27
15
6
31
37
13
6
10
27
15
5
31
37
14
6
10
27
15
5
31
37
14
6
10
26
15
5
31
38
14
5
10
22
12
5
31
38
14
6
10
22
9
4
31
38
14
6
10
23
9
4
31
38
14
6
10
24
9
4
31
38
14
5
10
24
10
4
31
38
14
6
10
24
10
4
33
38
14
6
10
24
10
4
33
38
14
6
9
24
10
4
33
38
14
6
9
24
10
4
33
38
14
6
9
25
9
4
33
39
14
5
8
25
9
4
33
39
14
5
8
25
9
4
33
39
14
5
8
25
9
4
33
39
14
5
8
25
9
3
33
39
14
5
7
25
8
3
33
39
14
5
7
25
8
3
33
39
14
5
7
27
8
3
33
39
14
5
7
31
8
3
33
39
14
5
7
31
8
3
33
39
14
5
7
31
8
3
32
39
14
5
7
33
8
3
33
39
14
5
7
32
8
3
33
39
13
5
7
33
8
3
32
39
13
5
7
33
9
3
32
39
13
5
7
33
9
3
32
36
13
5
7
35
9
3
31
35
13
5
7
35
9
3
31
33
13
5
7
35
9
3
31
33
12
5
7
36
9
3
31
32
12
4
7
36
9
3
28
29
12
4
7
36
9
3
28
27
9
4
7
36
9
3
25
23
9
4
7
36
9
3
25
23
9
4
7
36
9
3
23
23
7
4
7
36
9
3
23
23
7
4
7
36
9
3
21
22
7
4
7
37
9
3
20
20
6
4
7
37
9
3
20
20
6
4
7
37
9
3
20
20
6
4
7
35
9
3
19
19
6
4
7
35
9
3
19
18
6
4
6
35
8
3
19
18
6
4
6
33
8
3
18
18
6
4
6
32
8
2
17
16
6
4
5
32
8
2
16
15
6
4
6
33
8
2
16
13
6
4
6
34
8
3
15
13
5
4
6
34
8
3
14
13
4
4
6
34
8
3
14
13
4
3
6
34
8
3
14
12
3
3
6
34
8
3
14
12
3
3
6
34
8
3
14
12
3
3
6
33
8
2
14
11
3
3
6
34
9
2
13
11
3
3
6
34
8
2
13
11
3
3
6
34
8
2
10
10
2
3
6
34
8
2
8
10
3
3
6
34
8
2
8
9
2
3
5
34
8
2
8
10
2
3
5
33
8
2
8
12
2
3
6
33
8
2
8
12
3
3
5
33
8
2
7
12
3
3
6
33
8
2
8
17
3
3
6
33
8
2
7
17
3
3
6
33
8
2
7
17
2
3
5
33
8
2
7
17
3
3
5
31
8
2
7
17
3
2
5
28
8
2
7
17
3
2
5
31
8
2
7
17
3
2
5
31
8
2
7
17
3
2
5
29
8
2
6
17
3
2
5
29
8
2
6
17
3
2
5
29
8
2
6
17
3
2
5
29
8
2
6
17
2
2
5
29
8
2
6
17
2
2
5
27
7
2
6
17
2
2
5
27
7
2
6
18
2
2
5
27
7
2
6
18
2
2
5
27
7
2
6
18
2
2
5
28
7
2
5
18
2
2
5
29
7
2
5
18
2
2
5
29
7
2
5
18
2
2
5
29
7
2
5
18
2
2
6
28
8
2
5
18
3
3
6
28
8
2
5
18
3
3
6
28
8
2
5
18
3
3
6
28
8
2
5
18
3
3
6
27
8
2
4
18
3
3
7
29
8
2
4
17
3
3
7
29
8
2
4
17
3
3
7
29
9
2
4
17
3
3
7
30
9
2
4
17
3
3
8
30
9
2
4
17
3
3
8
30
9
2
4
17
3
3
8
32
9
2
4
17
3
3
8
31
9
3
4
17
3
3
8
32
9
3
4
17
3
3
9
33
10
3
4
17
3
3
11
34
13
3
4
17
3
3
11
34
13
3
3
17
3
3
11
34
14
4
4
17
3
3
11
37
15
4
4
17
3
4
15
38
16
4
4
17
4
5
17
39
20
5
4
18
4
5
17
39
20
5
4
18
4
5
18
40
20
5
4
18
4
5
18
40
22
5
5
18
4
5
18
43
23
5
5
18
4
5
19
43
23
5
5
17
4
6
20
45
26
6
5
16
4
6
20
47
26
6
5
16
4
7
21
47
26
6
5
15
4
7
21
47
26
7
5
9
4
7
21
48
26
7
5
9
4
7
21
50
29
7
5
8
4
7
23
50
33
7
5
8
4
7
24
52
33
7
5
7
4
7
25
53
33
7
6
7
4
7
25
52
33
7
6
7
4
7
25
54
35
8
6
7
4
7
26
55
37
8
6
7
4
8
26
56
39
9
6
7
4
8
26
56
39
9
6
7
4
8
26
57
39
10
6
7
4
10
27
57
40
10
7
8
5
10
27
58
42
11
7
8
5
10
32
59
42
11
7
8
5
10
32
59
43
11
7
8
5
10
32
59
43
11
7
8
5
10
33
58
43
12
7
8
5
10
34
58
45
12
7
8
5
12
34
58
46
12
9
9
5
15
34
59
49
14
11
10
5
15
34
59
50
14
11
10
5
15
34
59
50
14
11
10
5
15
35
59
49
14
11
10
5
16
35
60
50
14
12
11
5
16
35
61
52
14
12
11
5
16
35
60
53
15
12
11
5
17
37
61
53
15
12
11
5
17
37
61
54
15
12
11
5
17
37
62
54
15
12
11
5
17
38
64
55
15
12
11
5
17
38
67
58
15
12
12
5
17
39
66
58
15
13
12
5
17
39
66
58
16
13
12
5
17
39
65
58
16
13
12
5
18
39
65
58
16
13
12
5
18
38
65
61
16
13
12
5
18
39
65
61
16
13
12
5
18
40
66
61
16
13
12
5
18
40
64
61
16
13
12
5
18
39
64
61
16
13
12
5
18
38
63
60
16
12
12
5
18
38
64
61
16
13
12
5
18
38
64
61
16
13
12
5
18
38
65
60
16
12
12
5
18
38
65
60
16
13
12
4
18
38
65
60
16
14
13
4
18
37
65
59
16
14
13
4
18
37
63
59
16
14
13
4
18
38
64
59
16
13
12
4
18
38
65
59
16
14
13
4
19
38
65
60
16
14
13
4
19
38
64
58
16
14
13
4
19
37
64
56
16
14
13
4
19
37
63
56
16
14
13
4
19
37
63
56
16
14
13
4
19
38
63
57
16
14
13
4
19
37
61
57
16
14
14
4
19
37
62
56
16
14
14
4
19
37
61
55
16
14
14
4
19
37
62
55
15
14
14
4
19
38
61
55
15
14
13
4
18
37
62
56
16
14
13
4
18
37
61
55
15
14
13
4
18
33
61
54
15
14
12
4
18
33
61
54
15
14
12
4
18
33
61
54
15
14
13
4
18
32
61
55
14
14
12
4
18
31
61
53
14
14
12
4
17
31
61
54
14
13
12
4
14
31
62
54
13
11
11
4
14
31
62
54
13
11
11
4
14
31
62
54
13
11
11
4
14
32
62
54
13
11
11
4
13
32
62
53
13
11
10
4
13
31
61
51
13
11
10
4
13
30
62
50
13
11
10
4
12
29
62
50
13
11
10
4
12
29
62
50
13
10
10
4
12
30
61
49
12
10
10
4
12
30
59
48
11
10
10
4
11
30
57
45
12
10
9
4
11
30
57
44
12
10
9
4
12
30
59
47
11
10
9
4
11
30
61
47
11
10
9
4
12
33
61
47
11
10
9
4
12
33
60
43
11
10
9
4
12
32
60
43
11
10
9
4
12
31
61
43
11
10
9
4
12
31
62
42
11
10
9
4
12
31
62
42
11
10
9
4
12
31
61
41
11
10
9
4
11
32
61
41
11
10
9
4
11
32
62
41
11
10
9
4
11
31
63
41
11
10
9
4
11
31
61
41
10
9
9
4
10
32
61
41
10
8
8
4
10
32
60
41
10
8
8
4
10
32
61
42
10
8
7
4
10
33
62
44
10
8
7
4
10
33
61
45
10
8
7
4
9
32
61
44
9
7
6
4
9
32
60
44
10
7
6
4
10
32
60
45
10
8
7
4
10
33
61
45
10
8
7
4
10
33
60
46
12
8
7
5
10
34
61
45
11
7
6
5
10
34
61
44
11
7
6
5
10
36
60
44
11
7
6
5
10
36
59
47
12
8
7
5
10
35
58
47
13
9
7
5
10
35
58
46
13
9
7
5
10
38
59
46
13
9
8
5
11
38
59
47
14
9
8
5
11
38
60
48
14
9
8
5
11
38
59
48
14
9
8
5
11
38
59
48
14
9
8
5
11
38
60
48
14
10
8
5
15
39
62
50
16
10
9
5
14
40
63
48
15
10
9
5
14
41
61
45
15
10
9
5
15
41
61
45
15
10
9
5
17
45
63
47
16
11
10
5
19
46
63
48
17
12
12
5
19
46
65
48
17
12
12
5
19
46
65
49
17
12
12
5
20
46
65
48
17
13
12
5
20
47
66
48
17
13
12
5
20
47
66
49
17
13
12
5
20
46
67
49
17
13
12
5
20
46
66
49
17
13
12
5
20
46
66
49
17
13
12
5
20
45
66
50
18
13
12
5
20
45
64
49
18
13
12
5
20
45
64
49
18
13
12
5
20
46
65
51
18
13
13
5
21
46
65
52
18
13
13
5
21
46
65
53
18
13
13
5
21
46
63
53
18
13
13
5
21
47
63
53
19
13
13
5
21
48
63
54
19
13
13
5
21
48
63
54
19
13
13
5
21
49
64
54
19
13
13
6
21
50
64
54
19
13
13
6
22
51
61
55
21
14
15
6
22
51
61
55
21
15
15
6
22
51
61
56
21
15
15
6
22
51
61
56
21
15
15
6
22
51
60
55
21
15
15
6
22
51
60
53
21
15
16
6
22
51
62
53
21
15
16
6
22
51
60
53
21
15
16
6
22
51
60
53
21
15
16
6
22
51
60
53
21
14
16
6
22
51
60
54
21
14
16
6
23
51
59
53
20
15
17
5
22
50
58
54
20
15
17
5
22
51
59
54
20
15
17
5
22
50
61
55
20
15
17
5
22
50
61
52
20
14
17
5
22
50
61
52
19
14
16
5
22
51
64
53
19
14
16
5
22
49
64
51
19
13
16
5
22
48
63
50
19
14
16
5
22
48
62
49
19
13
16
5
22
48
63
52
19
13
16
5
22
50
63
51
19
13
16
5
22
50
63
53
19
13
16
5
20
51
61
52
18
13
16
5
20
50
61
52
18
13
16
5
20
49
61
52
18
13
16
5
20
49
61
52
18
13
16
5
18
46
59
51
17
12
15
5
16
45
59
50
16
11
14
5
16
45
58
50
16
11
14
5
16
45
58
50
16
11
14
5
15
46
57
51
16
11
14
5
16
45
55
51
16
11
14
5
16
45
54
51
16
11
14
5
16
46
55
51
16
11
14
5
16
46
55
51
16
11
14
5
16
46
56
51
16
11
14
5
16
47
56
49
16
11
14
5
16
47
56
51
16
11
14
5
16
47
55
52
16
11
14
5
15
45
53
49
16
11
14
5
14
43
53
48
16
10
13
5
14
44
53
48
16
10
13
5
14
44
53
47
16
11
13
5
14
43
53
46
15
11
13
5
14
42
53
46
15
11
13
5
14
42
53
46
15
11
13
5
14
40
52
46
15
11
13
5
14
41
51
46
15
11
14
5
13
39
51
45
12
10
12
4
13
39
51
45
12
9
11
4
13
39
52
47
13
9
11
4
13
39
52
46
13
9
11
4
13
39
52
47
13
9
11
4
13
38
51
47
13
9
10
4
13
38
49
47
13
9
10
4
13
38
52
48
13
9
10
4
15
38
54
49
13
10
10
4
15
40
54
48
13
10
10
4
15
40
53
46
13
10
10
4
14
39
53
46
13
9
9
4
15
39
56
47
15
11
10
4
15
38
56
48
16
12
11
4
15
39
55
47
16
12
11
4
15
39
56
47
16
12
11
4
15
38
56
47
16
12
11
4
15
38
53
47
16
12
11
5
15
38
52
47
16
12
11
5
15
38
52
47
16
12
11
5
15
38
53
47
16
12
11
4
15
38
51
44
16
12
11
5
15
36
52
44
16
12
11
5
15
36
52
43
15
12
11
5
15
34
51
44
16
12
11
4
15
34
51
44
16
12
11
4
15
34
51
44
16
12
11
5
14
34
54
44
16
12
11
4
14
34
55
44
16
12
11
4
14
33
54
43
16
12
10
4
14
33
54
44
16
12
11
4
14
33
54
44
16
11
11
4
14
32
54
42
16
11
12
4
14
32
55
42
16
11
11
4
13
31
54
42
15
11
11
4
13
30
53
41
15
11
11
4
13
30
52
41
15
11
11
4
13
29
53
42
15
11
11
4
13
29
53
44
15
11
11
4
13
29
56
42
15
11
11
4
13
29
56
41
15
11
11
4
13
31
56
42
15
11
11
4
13
32
56
42
15
11
11
4
13
32
56
43
16
11
11
4
13
33
56
45
17
12
12
4
13
33
57
45
17
12
12
4
13
33
57
45
17
12
12
4
14
33
59
45
17
12
12
4
14
34
59
46
17
12
12
5
13
32
60
45
17
12
12
5
13
32
60
45
17
12
12
5
13
33
60
45
17
12
12
5
13
33
60
43
16
11
12
5
13
33
60
43
16
11
12
4
13
33
60
43
16
11
12
4
13
33
60
42
16
11
12
4
13
33
61
43
16
11
12
4
14
35
58
42
16
12
12
4
12
34
57
42
16
11
12
4
12
32
57
42
16
11
12
4
12
32
57
43
16
11
12
4
13
33
57
43
16
11
12
4
12
33
54
42
14
10
11
4
11
33
53
40
13
9
11
4
11
32
52
41
13
8
10
4
11
32
51
41
13
8
10
4
11
32
53
41
13
8
10
4
11
32
54
41
13
8
10
4
11
32
53
42
13
8
10
4
11
32
53
42
13
8
10
4
11
32
53
42
13
8
10
4
11
32
54
42
13
8
10
4
11
32
54
42
13
8
10
4
11
32
55
41
13
8
10
4
11
31
54
38
13
8
10
4
11
31
54
38
13
8
10
3
11
31
55
38
13
8
10
3
11
31
52
39
12
8
10
3
11
30
52
39
12
8
10
3
11
30
52
38
12
8
10
3
11
30
52
38
12
8
10
3
11
30
52
37
12
8
10
3
11
30
52
37
12
8
9
3
11
30
51
37
12
8
9
3
11
30
52
37
12
8
9
3
11
30
51
37
12
8
9
3
11
30
51
37
12
8
9
3
11
30
50
37
12
8
9
3
11
30
49
34
12
8
9
3
10
30
46
34
12
8
9
3
10
30
46
33
12
8
9
3
10
27
46
33
12
8
9
3
10
26
46
33
12
8
9
3
10
25
46
30
10
7
8
3
9
24
45
27
9
5
7
3
9
24
44
27
9
5
7
3
9
24
44
27
9
5
7
3
9
23
42
27
9
5
7
3
9
22
40
26
8
6
7
2
9
22
39
25
8
5
7
2
9
21
39
25
8
5
8
2
8
20
38
25
8
5
8
2
8
19
37
24
8
5
7
2
8
19
37
24
8
5
7
2
8
19
37
24
8
5
7
2
8
19
37
24
8
5
7
2
8
19
35
22
8
6
7
2
6
15
35
22
7
6
7
2
6
15
35
21
7
6
7
2
6
15
35
21
7
6
7
2
6
14
34
20
6
6
7
2
5
12
34
20
6
7
7
2
5
12
34
19
6
7
7
2
4
11
34
19
6
7
7
2
4
11
35
17
6
7
7
2
3
11
35
17
5
7
6
2
3
10
32
17
5
7
7
2
3
9
30
15
5
7
7
2
3
9
30
12
5
7
7
3
5
8
30
11
5
7
7
4
5
8
30
11
5
8
7
4
5
8
28
11
5
8
7
4
5
8
26
11
3
7
7
5
5
7
26
11
3
7
7
5
5
7
26
11
3
7
7
5
5
7
26
11
3
8
7
5
5
7
25
10
3
8
7
5
5
7
24
9
3
8
7
5
5
6
23
9
3
8
7
5
5
6
21
9
2
8
7
5
5
6
21
9
2
8
7
5
5
6
21
9
2
8
7
5
5
6
21
9
2
8
7
5
5
6
21
9
2
8
7
5
5
6
20
9
2
8
7
5
5
6
20
9
2
8
7
5
5
6
20
9
2
8
7
5
5
5
20
9
2
8
7
5
5
5
21
8
2
8
7
5
5
5
25
8
2
8
7
5
5
5
29
8
2
8
7
5
5
5
29
8
2
8
7
5
5
6
29
8
2
8
7
5
5
6
29
8
2
8
7
5
5
6
29
8
2
8
7
5
5
6
30
8
2
8
7
5
5
6
29
7
2
8
7
5
5
6
30
7
2
8
7
5
5
6
30
7
2
8
7
5
5
6
30
7
2
8
6
5
5
6
30
7
2
8
6
5
5
6
30
6
2
8
5
5
5
6
30
6
2
8
5
5
5
6
30
6
2
8
5
5
5
6
30
6
2
8
5
5
5
6
30
6
2
8
5
5
5
6
30
6
2
7
5
5
5
6
30
5
2
7
5
5
5
6
30
6
2
7
5
5
5
6
30
5
1
6
5
5
5
6
30
5
1
6
5
5
5
6
30
5
1
6
5
5
5
6
30
5
1
6
5
5
5
6
30
5
1
5
5
5
5
6
29
5
2
5
5
5
5
6
29
5
2
5
5
5
5
6
29
5
1
5
4
5
5
6
29
5
1
5
3
5
5
6
29
5
1
4
3
4
3
6
29
5
2
4
3
3
3
6
29
5
2
4
3
3
3
6
28
5
2
4
3
3
3
6
27
5
2
4
3
3
3
6
27
5
2
4
3
2
3
6
27
5
2
4
2
2
3
6
27
5
2
4
2
2
3
6
27
5
2
3
2
2
3
6
27
5
2
3
2
2
3
6
27
4
2
3
2
2
2
6
27
4
2
3
2
2
2
6
27
4
1
3
2
2
2
6
27
4
1
3
2
2
2
6
27
4
1
3
2
2
2
6
27
4
1
3
2
2
2
6
27
4
1
3
2
2
2
6
27
4
1
3
2
2
2
6
27
4
1
3
2
2
2
6
26
4
1
3
2
2
2
6
26
4
1
3
2
2
2
6
21
4
1
3
2
2
2
5
16
4
1
3
2
2
2
5
16
4
1
3
2
2
2
4
16
4
1
3
2
1
2
4
16
4
2
3
2
1
2
4
15
5
2
3
2
1
2
4
15
5
2
2
2
1
2
4
16
5
2
2
2
1
2
4
15
5
2
2
2
1
2
4
16
5
3
2
2
1
2
4
16
5
3
2
2
1
2
4
16
5
3
2
2
2
2
4
16
5
3
2
2
3
2
4
17
5
4
2
2
3
1
4
17
7
4
2
2
2
1
4
17
7
4
2
2
2
1
4
17
7
4
2
2
3
1
4
17
8
4
2
2
3
1
4
17
8
4
2
2
3
1
4
17
8
4
2
2
3
1
4
17
8
4
2
2
3
1
4
17
8
4
2
2
3
1
4
17
10
5
2
2
3
1
4
17
10
5
2
2
3
1
4
17
11
5
2
2
3
1
4
17
11
5
2
2
3
1
4
17
11
5
2
2
3
2
4
20
11
5
2
2
3
2
5
20
12
5
2
2
3
2
5
20
12
5
2
2
3
2
5
22
12
5
2
2
3
2
9
28
12
5
2
2
3
2
9
31
14
5
2
2
3
2
9
31
14
5
2
2
3
2
9
32
14
5
2
2
3
2
10
32
14
5
2
2
3
2
10
32
15
5
2
2
3
2
10
32
15
5
2
2
3
3
10
33
15
5
2
2
3
3
10
34
15
5
2
2
3
3
11
34
15
5
2
2
3
5
11
34
16
6
4
4
3
5
12
34
16
6
4
4
3
5
12
34
18
6
4
4
3
6
16
35
21
7
4
4
3
6
16
37
23
7
4
4
3
7
17
39
24
7
5
5
3
7
18
40
24
7
5
5
3
8
24
43
30
8
5
5
4
8
24
45
30
8
6
6
4
9
24
45
30
9
7
7
4
9
25
47
30
9
7
7
4
9
25
47
31
9
7
7
4
9
25
47
31
10
8
7
4
9
26
48
32
11
8
7
4
9
27
48
32
11
8
7
4
9
28
48
33
12
8
7
4
10
28
48
33
12
9
7
4
10
28
48
33
12
9
7
4
10
29
49
33
12
9
7
4
10
30
50
36
12
9
8
4
10
30
51
36
13
9
8
4
10
31
52
36
13
9
8
4
10
31
53
36
13
10
8
4
10
32
54
36
14
11
8
4
11
33
54
36
14
11
8
4
12
35
54
38
15
11
9
4
12
36
54
39
15
11
9
4
12
36
57
39
15
11
9
4
12
36
57
40
15
11
9
4
13
36
57
40
16
11
9
4
13
36
57
41
16
11
9
4
13
37
57
42
16
11
9
4
13
37
58
43
16
11
9
4
13
37
59
44
16
11
9
4
13
37
60
45
16
12
9
4
13
37
61
47
17
12
9
4
13
37
61
47
17
12
9
4
13
37
62
47
17
12
9
4
15
37
62
47
18
14
11
4
15
37
62
47
18
14
11
4
15
38
59
48
18
14
11
4
15
38
60
51
18
14
11
4
15
38
60
51
18
14
11
4
15
38
61
51
18
14
11
4
15
38
61
51
18
14
11
4
16
39
61
51
18
14
11
4
16
39
61
51
19
14
12
4
16
40
61
51
19
15
12
4
16
39
63
52
19
15
12
4
16
39
65
54
19
15
12
4
16
40
66
55
19
14
11
4
17
42
67
55
19
14
11
4
17
42
67
55
19
14
11
4
16
41
66
54
19
14
11
4
16
41
65
53
19
14
11
4
16
41
66
53
19
14
11
4
16
40
66
53
19
14
11
4
15
37
64
50
19
14
11
4
15
38
64
51
19
14
11
4
15
38
66
52
18
14
10
4
15
38
66
52
18
14
10
4
15
38
67
54
18
14
10
4
15
39
67
54
18
13
10
3
15
39
67
53
18
13
10
3
15
38
67
54
18
13
10
4
15
38
69
56
19
13
10
4
15
39
70
56
19
13
10
4
15
39
70
59
19
13
10
4
15
38
71
59
20
13
10
4
15
37
71
59
20
13
10
4
15
37
70
60
20
13
10
4
15
38
70
60
21
13
10
4
15
38
69
60
20
13
10
4
15
38
68
60
20
12
10
4
15
37
70
63
20
13
10
4
16
39
72
62
19
12
10
4
16
40
72
61
20
13
10
4
16
40
72
62
20
13
11
5
16
41
72
64
20
13
11
5
16
41
74
65
20
13
11
5
17
43
74
65
21
13
11
5
17
44
74
65
20
13
11
5
17
43
75
64
20
13
11
5
17
44
74
63
20
13
11
5
17
46
74
63
20
13
11
5
17
46
74
61
20
13
11
5
17
46
73
61
21
13
11
5
17
46
73
61
20
12
11
5
16
46
75
63
20
11
10
5
16
46
76
64
20
11
10
5
16
46
76
63
20
11
10
5
16
46
74
61
20
11
10
5
16
45
76
61
20
11
10
5
16
45
75
62
20
11
10
5
16
45
75
62
20
11
10
5
16
48
75
62
20
11
9
5
16
48
75
62
20
11
10
5
16
48
76
62
20
11
10
5
16
48
74
62
20
11
10
5
17
48
72
60
20
12
10
5
16
47
73
59
20
12
10
5
16
46
73
59
19
12
10
5
16
46
73
59
19
12
10
5
16
47
73
61
19
12
10
5
17
47
72
61
19
12
11
5
17
48
71
61
19
12
11
5
17
48
72
61
20
12
11
5
17
48
72
61
20
12
11
5
17
48
73
61
20
12
11
5
17
48
70
61
20
12
11
5
17
48
69
61
21
12
11
5
17
48
70
60
20
12
11
5
17
47
70
61
20
12
11
5
18
47
70
63
21
13
12
6
17
47
70
62
21
13
12
5
18
48
69
60
20
13
12
5
17
47
69
62
20
13
12
5
17
48
69
60
20
13
12
5
18
48
68
62
20
13
12
5
18
48
68
60
19
13
12
5
18
48
68
61
19
13
12
5
18
47
69
61
19
12
11
5
18
46
70
62
19
13
11
5
18
46
71
61
19
13
12
5
18
46
69
59
19
12
12
5
16
42
67
61
19
12
11
5
16
42
68
61
18
12
11
5
16
43
66
60
18
13
11
5
16
43
66
58
18
13
11
4
17
44
64
56
19
13
11
4
16
42
64
57
19
13
12
4
18
43
64
58
19
14
13
4
18
43
63
58
19
14
13
4
18
43
63
59
20
14
13
4
19
41
62
59
20
15
14
4
19
42
62
59
21
15
14
5
19
42
62
59
20
15
14
5
19
42
63
59
20
15
14
5
19
42
61
58
20
15
14
5
20
42
60
56
20
15
14
5
20
41
61
56
20
16
14
5
20
42
61
56
20
16
14
5
20
42
59
56
20
16
15
5
21
42
60
56
20
16
15
5
21
42
61
58
20
16
15
5
20
39
61
58
20
16
15
5
20
39
60
58
20
16
14
5
20
38
60
58
20
16
14
5
21
39
60
59
21
17
16
5
24
39
60
59
22
18
17
6
24
40
58
60
22
19
18
6
24
40
58
60
22
18
18
5
24
40
59
60
23
18
18
5
24
40
59
60
23
18
18
5
24
39
61
60
23
18
18
5
24
39
61
60
23
19
18
5
24
39
59
60
23
19
18
5
24
39
59
59
23
19
18
5
25
39
57
59
24
19
19
5
25
38
57
59
23
19
19
5
25
40
57
60
24
20
19
5
25
40
56
60
24
20
19
5
25
40
58
60
25
20
19
5
25
42
60
58
24
20
19
6
25
43
60
60
24
20
19
6
25
42
59
60
24
20
19
6
25
43
58
59
24
19
19
6
25
43
59
61
25
20
19
6
25
43
58
58
25
20
19
6
25
43
58
59
25
20
19
6
25
43
58
59
24
20
19
6
25
43
58
61
25
20
19
6
27
44
57
60
25
20
19
6
27
44
57
61
25
20
19
6
27
44
57
61
25
20
19
6
27
46
57
59
25
20
19
6
28
46
56
59
25
20
19
6
27
45
57
60
25
19
19
6
27
45
58
61
25
19
19
6
27
44
59
61
25
19
19
6
27
43
59
60
24
19
19
6
26
41
60
60
24
18
18
6
26
42
63
61
25
18
18
6
26
42
62
60
24
19
18
6
26
42
62
59
24
18
18
6
26
41
62
59
24
18
18
6
26
41
61
59
24
18
18
6
26
42
61
59
24
18
18
6
26
42
62
59
24
18
18
6
25
42
62
59
23
17
17
6
25
41
61
60
23
17
17
6
25
40
61
60
25
17
17
6
25
41
63
61
27
17
17
6
25
41
63
60
27
17
17
6
24
41
64
59
27
17
16
6
24
41
65
58
27
17
16
6
24
40
65
58
27
17
16
6
24
40
65
59
27
17
16
6
23
39
65
59
26
16
15
6
20
39
65
59
25
14
13
6
20
39
65
58
25
14
13
6
19
41
64
59
25
13
12
6
20
41
64
58
25
13
13
6
20
41
65
57
25
13
13
6
20
42
63
57
25
13
12
6
20
42
63
57
25
13
12
6
21
43
63
57
25
13
12
6
20
43
63
57
25
12
12
6
19
43
63
56
25
12
11
6
19
43
63
56
25
11
11
6
19
42
63
53
24
11
11
6
19
42
64
54
24
11
11
6
19
44
62
55
24
11
10
6
19
42
61
55
24
10
10
6
19
41
61
52
24
10
10
6
19
42
61
53
24
10
10
6
19
41
62
53
24
10
10
6
19
42
61
50
23
9
10
6
19
41
61
49
23
9
9
6
19
42
61
49
23
9
9
6
19
41
61
49
23
9
9
6
19
42
61
48
23
9
9
5
15
42
60
51
23
9
8
5
15
44
60
50
23
9
8
5
15
44
60
52
23
9
8
5
15
42
61
52
24
10
8
5
14
41
61
52
24
10
8
5
14
40
61
52
24
10
8
5
14
40
61
49
23
9
7
5
14
41
60
50
23
9
7
5
14
42
60
51
24
9
7
6
14
41
58
52
24
9
7
6
14
42
55
51
24
9
7
6
12
43
56
51
24
8
6
6
13
43
55
51
24
9
7
6
13
44
55
51
24
9
7
6
13
44
57
51
24
9
7
6
13
44
56
51
24
9
7
6
13
44
54
51
24
9
7
6
13
44
54
52
24
9
7
6
13
44
54
51
24
9
7
6
13
44
54
50
22
9
7
6
13
44
52
50
20
8
7
5
13
44
50
50
20
8
7
5
13
44
49
50
20
8
7
5
13
44
47
49
20
8
7
5
13
44
48
49
19
8
7
5
13
45
50
48
19
8
7
5
13
45
52
47
19
8
7
5
13
46
52
47
19
8
7
5
13
46
52
47
19
8
7
5
13
44
53
46
19
8
7
5
12
43
52
46
18
8
7
5
12
42
51
46
18
8
7
5
12
42
51
46
18
8
7
5
12
42
51
46
17
8
7
5
11
40
51
46
17
8
7
5
11
40
51
46
17
8
7
5
11
40
51
46
17
8
7
4
11
39
51
46
17
8
7
4
11
39
51
45
17
8
7
4
10
38
52
45
16
9
7
4
10
36
52
43
15
8
7
4
10
36
50
43
15
8
7
4
10
36
49
43
15
8
7
4
10
34
49
42
15
9
7
4
9
34
48
41
15
9
7
4
9
33
47
41
15
9
7
4
9
33
47
41
15
9
7
4
9
32
47
40
14
9
7
4
9
32
47
40
14
9
7
4
9
31
44
38
13
8
6
4
9
31
44
33
12
8
6
4
9
28
44
33
12
9
6
4
9
28
45
30
11
9
7
4
8
28
42
30
11
10
6
4
8
28
42
28
10
10
6
4
8
28
40
28
10
10
7
4
8
28
40
27
10
11
7
4
8
27
40
27
10
11
7
3
8
26
39
23
9
11
7
3
8
26
39
20
7
11
7
3
8
25
38
20
6
12
7
3
8
22
39
20
6
12
7
3
6
21
39
19
5
12
7
3
5
21
39
19
5
13
6
3
5
20
38
19
5
14
8
3
5
20
38
19
4
14
8
3
5
19
38
18
4
14
8
2
5
19
38
17
4
15
8
2
5
19
38
17
4
15
8
2
5
18
37
15
4
15
8
2
5
18
37
15
3
15
8
2
5
18
37
15
3
15
8
2
5
17
37
14
3
15
9
3
4
17
37
14
3
15
9
3
4
17
34
14
3
15
10
3
4
15
31
14
3
16
10
2
4
13
28
14
3
16
10
3
3
9
28
12
3
17
10
3
3
8
27
11
3
19
10
3
3
8
26
11
3
19
10
2
3
7
26
11
3
19
10
2
3
8
26
11
3
19
10
2
3
8
26
11
3
19
11
2
3
8
26
10
3
19
11
2
3
8
25
10
3
19
11
2
3
8
25
10
3
19
11
2
3
9
26
10
3
19
11
2
4
10
25
9
3
19
11
3
4
10
25
9
3
20
11
3
4
10
21
9
3
20
11
3
4
10
21
9
3
20
11
3
4
10
21
9
3
20
11
3
4
10
21
8
3
20
11
3
4
10
21
9
3
20
11
3
4
10
21
9
3
20
12
3
4
10
20
7
3
21
12
3
4
10
21
7
3
20
12
3
4
10
20
7
3
21
12
3
4
10
20
7
3
21
12
3
4
10
20
7
3
21
12
3
4
10
21
7
3
21
12
3
4
10
20
7
3
20
12
3
4
10
19
7
3
20
12
2
4
10
19
7
3
20
11
2
4
10
19
7
3
20
11
2
4
10
19
6
3
20
11
2
4
10
19
7
3
19
11
2
3
10
19
6
3
19
11
2
3
10
19
6
3
20
11
2
3
9
19
6
3
20
11
2
3
9
19
6
3
19
11
2
3
9
17
7
3
19
11
2
3
9
17
7
3
19
11
2
3
9
18
7
3
18
11
2
3
9
17
7
3
17
10
2
4
10
21
7
3
17
10
2
4
10
21
7
3
18
10
2
4
10
22
7
3
17
10
2
4
10
22
7
3
17
10
2
4
11
22
8
3
17
10
2
4
11
22
8
3
17
9
2
4
11
23
8
3
16
9
2
4
11
23
8
3
16
8
2
4
11
23
8
3
16
8
2
4
11
23
8
3
16
8
2
3
11
23
8
3
16
8
2
3
11
23
8
3
16
8
2
3
11
24
8
3
14
7
2
4
11
24
8
3
12
7
2
4
11
24
8
3
12
7
2
4
11
24
8
3
12
7
2
4
11
24
8
3
11
7
2
3
11
24
8
3
11
7
2
4
11
24
8
3
11
7
2
4
12
25
8
3
11
7
2
4
12
25
8
3
11
7
2
4
11
25
8
3
11
7
2
3
10
25
8
3
11
7
2
3
10
25
8
3
10
6
2
3
10
26
8
3
9
6
2
3
10
25
8
3
9
5
2
3
10
25
8
2
9
5
2
3
10
25
8
3
8
5
2
3
9
25
7
2
8
5
2
3
10
25
7
2
8
4
1
3
10
25
7
2
8
4
1
3
9
25
7
2
8
4
1
3
9
25
7
2
8
4
1
3
9
25
7
2
7
4
1
3
9
26
7
2
7
4
1
3
9
25
7
2
7
4
1
3
9
26
7
2
7
4
1
3
9
27
10
2
7
4
1
4
9
30
12
3
7
5
1
4
10
31
12
4
7
5
1
4
14
31
13
4
7
5
2
5
15
33
15
4
7
5
2
5
16
33
16
4
7
5
2
5
18
35
16
4
6
5
2
5
18
36
16
4
6
5
2
5
18
36
16
4
6
5
2
5
19
37
17
4
6
5
2
5
20
38
17
5
6
5
2
7
23
40
17
5
6
6
2
7
23
41
22
5
6
6
2
7
22
41
22
5
6
6
2
7
23
42
23
5
6
6
2
7
23
43
23
5
6
6
2
7
23
45
23
6
6
6
2
7
24
45
24
6
6
6
3
7
24
45
24
6
6
7
3
8
27
47
27
7
7
7
3
8
28
48
27
7
7
7
3
9
30
49
30
7
7
7
3
9
30
49
30
7
7
7
3
9
31
49
30
7
7
7
3
9
31
49
30
7
7
7
3
9
31
49
30
7
7
7
3
9
31
49
30
7
7
7
4
9
31
50
30
7
7
7
4
9
31
52
31
8
7
7
4
10
32
55
33
8
7
7
4
10
33
56
33
8
7
7
4
10
35
56
34
8
7
7
4
10
36
57
34
8
7
7
4
10
36
57
34
8
7
7
4
10
36
58
35
9
8
7
4
10
36
59
35
9
8
7
4
10
37
62
35
10
8
7
5
10
37
64
35
10
8
7
5
10
38
64
36
10
8
7
5
11
42
64
38
10
8
7
5
11
42
67
38
11
8
7
5
11
42
67
39
11
8
8
5
12
42
67
40
11
8
8
5
12
43
68
40
11
8
8
5
12
43
68
41
11
8
8
5
12
44
68
41
11
8
8
5
12
44
68
43
12
9
8
5
12
45
69
44
14
9
8
5
12
45
70
45
14
9
8
5
12
48
71
46
14
9
8
5
12
49
70
45
14
9
8
5
12
49
70
45
14
9
8
5
12
48
72
47
15
10
9
6
12
48
72
47
15
10
9
6
12
47
71
46
15
10
9
6
13
48
72
49
15
10
9
6
13
47
71
49
16
10
9
6
13
48
72
49
16
10
9
6
13
49
72
49
16
10
9
6
13
49
72
50
17
10
8
6
13
49
72
49
17
10
8
6
12
48
70
50
17
10
8
6
13
50
70
48
17
10
8
6
13
50
69
49
17
10
8
6
13
49
70
48
17
10
8
6
13
49
70
50
17
10
8
6
13
49
70
53
18
10
8
6
13
50
70
54
18
10
8
6
13
50
71
54
18
10
8
6
13
48
70
53
18
10
8
6
13
48
69
55
19
10
8
6
12
47
70
55
19
10
8
6
12
47
73
56
19
10
8
6
13
48
73
57
19
10
8
6
13
48
73
58
19
10
9
6
13
48
75
58
19
11
9
6
14
49
75
58
19
11
9
6
14
48
74
58
20
11
9
6
14
50
73
59
19
11
9
6
14
50
71
58
19
11
9
6
14
49
71
60
19
11
9
6
14
48
73
59
19
11
9
6
14
48
72
59
19
11
9
6
14
47
73
60
19
11
9
6
14
47
72
59
19
10
9
6
14
48
72
59
19
10
9
6
14
48
71
59
19
10
9
6
14
48
71
59
19
11
9
6
14
47
71
59
19
11
9
6
14
45
72
58
19
11
9
6
14
45
70
58
19
11
9
6
14
45
70
58
19
11
9
6
13
46
70
58
19
11
9
6
13
45
69
57
19
11
9
6
13
45
69
59
19
11
9
6
13
45
69
59
19
11
9
6
14
45
69
58
19
12
10
6
14
44
69
57
19
12
10
7
14
44
69
56
19
12
10
6
14
40
68
56
19
12
10
6
14
40
68
56
19
12
10
6
14
40
67
56
19
12
10
6
14
40
65
55
18
12
10
6
15
41
66
55
18
12
10
6
15
42
68
55
18
12
10
6
14
41
66
53
18
11
10
6
15
42
66
52
17
11
10
6
15
44
65
52
17
12
10
6
15
42
65
52
17
12
10
6
15
44
67
52
17
12
10
6
15
44
67
52
17
12
11
6
15
43
67
52
17
13
11
6
15
41
67
52
17
13
11
6
15
43
67
52
17
13
11
6
15
42
66
51
17
13
11
6
15
43
65
51
17
14
12
6
15
43
64
49
17
14
12
6
15
43
65
47
17
14
12
6
16
43
63
47
16
14
12
6
16
43
64
47
16
14
12
6
16
43
65
46
16
14
12
6
15
43
64
44
15
14
12
6
15
43
61
43
16
14
12
6
14
42
61
43
16
14
12
6
15
42
61
42
16
14
12
6
19
44
61
42
18
16
14
6
19
45
63
42
17
16
14
6
19
45
63
43
18
16
14
6
20
44
63
45
22
17
14
6
21
46
62
47
23
18
15
6
21
47
62
45
23
18
15
6
21
47
59
45
23
18
15
6
21
47
60
46
23
18
15
6
21
47
59
46
23
18
15
6
21
46
60
46
23
18
15
6
21
46
59
46
23
18
15
6
21
46
58
47
23
18
15
6
21
46
56
47
23
18
15
6
22
46
56
47
23
18
15
6
22
45
55
47
23
18
16
6
22
46
55
47
23
18
16
6
23
45
56
46
23
19
16
6
23
45
57
47
23
18
16
6
22
45
58
47
23
18
16
6
23
46
59
45
23
18
16
6
23
47
60
46
23
18
16
6
23
48
60
47
22
18
16
6
23
48
60
47
22
18
16
6
23
48
59
47
22
18
16
6
24
49
61
47
22
18
16
6
24
49
63
47
22
18
16
6
24
49
64
47
22
18
16
6
24
49
65
46
22
18
16
6
24
49
63
46
22
18
16
6
24
48
62
46
22
18
16
6
24
48
63
46
22
18
16
6
24
48
65
46
22
18
16
6
24
46
65
46
22
18
16
6
24
46
65
46
22
18
16
6
24
44
63
46
22
18
16
6
24
45
63
48
22
18
16
6
23
45
63
47
22
18
16
6
23
46
63
47
22
18
16
6
23
45
63
47
22
18
16
6
23
45
64
47
22
18
16
6
23
44
66
47
22
17
15
6
23
44
66
45
22
17
15
7
23
44
65
45
22
17
15
7
23
44
65
46
22
17
15
7
23
44
65
45
22
17
15
7
23
44
66
44
22
17
15
7
23
44
66
44
22
17
15
7
23
44
67
44
22
17
15
7
23
43
66
43
22
17
15
7
23
43
66
43
22
16
15
7
20
40
65
43
20
15
13
7
20
40
63
43
21
15
13
7
20
40
63
41
20
15
13
7
19
40
63
37
15
14
12
6
17
38
63
35
14
13
11
6
17
37
64
37
14
13
11
6
17
36
64
37
14
13
11
6
17
36
65
34
14
13
11
6
17
36
65
34
14
13
11
6
17
38
65
35
14
12
11
6
17
37
66
35
14
13
12
6
17
37
66
34
14
13
12
6
17
37
66
33
14
13
12
6
16
37
67
32
14
12
11
6
16
37
67
33
14
12
11
6
16
37
66
35
14
12
11
6
15
38
65
35
14
11
10
6
15
37
65
35
14
11
10
6
15
37
64
35
14
11
10
6
15
36
64
34
14
11
10
6
14
34
63
34
13
11
10
6
14
33
62
32
13
11
10
6
14
33
63
32
13
11
10
6
14
33
64
32
13
11
10
6
13
31
62
32
13
10
9
6
13
31
62
32
13
10
9
5
13
31
61
32
13
10
9
5
13
32
61
31
14
11
9
5
13
31
62
33
13
11
9
5
13
31
62
34
14
11
9
5
12
30
61
34
13
10
9
5
12
31
59
34
13
10
8
5
12
31
60
34
13
10
8
5
12
31
60
35
14
10
8
5
12
31
61
35
14
10
8
5
12
31
61
33
13
10
8
5
12
30
61
33
13
10
8
5
13
30
64
35
14
11
9
5
14
30
65
38
15
13
11
5
14
30
65
38
14
13
11
5
14
30
63
38
13
12
11
5
14
30
63
38
13
12
10
4
14
29
63
38
13
12
11
4
14
29
63
38
13
12
11
4
14
29
62
39
13
12
11
4
14
29
62
39
13
12
10
3
14
29
63
38
13
12
10
4
14
29
62
38
13
12
10
4
14
31
63
38
13
12
10
4
14
31
63
38
13
12
10
4
14
31
64
38
13
12
10
4
14
30
66
38
12
12
10
4
15
32
65
39
13
12
11
4
15
31
65
39
13
12
11
5
15
30
65
39
13
12
11
4
15
31
65
38
13
12
11
4
15
31
64
38
13
12
11
4
15
31
63
38
13
12
11
4
15
31
63
40
13
12
11
4
15
29
64
42
16
13
11
4
16
30
62
42
16
14
12
4
16
29
62
42
16
14
12
4
16
30
62
42
16
14
12
5
15
29
61
42
16
14
12
4
15
29
61
41
16
14
12
4
15
31
60
40
16
14
12
4
16
32
61
41
16
14
13
4
18
32
62
41
16
15
14
4
18
32
62
41
16
15
14
4
18
32
62
41
16
14
14
5
18
32
62
41
16
14
13
5
18
32
63
41
16
14
13
4
18
32
62
41
16
14
13
4
17
32
61
41
16
14
13
4
18
32
60
41
16
14
13
4
18
32
60
42
16
15
13
4
18
32
59
42
17
15
14
4
18
32
59
42
17
15
13
4
18
34
58
41
17
15
13
4
18
34
57
40
17
15
13
4
18
34
57
40
17
15
13
4
18
33
57
40
17
15
13
4
18
33
57
40
17
15
14
4
18
33
58
39
16
15
14
4
18
33
55
39
16
15
14
5
18
33
55
39
16
15
14
4
18
33
55
39
16
15
14
4
17
31
53
37
16
14
13
4
16
31
49
33
15
12
12
4
16
31
49
33
15
12
12
4
16
31
48
33
15
12
12
4
16
31
48
33
15
12
12
4
16
31
49
33
15
12
11
4
16
31
49
33
15
12
11
4
16
32
49
33
14
12
11
4
16
31
48
33
14
12
11
4
16
31
44
33
14
12
11
4
16
31
44
33
14
12
11
4
16
30
43
33
14
12
11
4
16
30
42
33
14
12
11
4
16
30
41
33
14
12
11
4
15
29
38
33
14
12
11
4
15
28
38
32
14
12
11
4
14
28
38
32
14
12
11
3
14
27
38
30
14
11
11
3
14
27
37
30
14
11
11
3
14
27
36
30
14
11
11
3
14
27
36
30
13
11
11
3
14
27
36
28
13
11
11
3
14
26
35
24
10
10
10
3
13
26
35
24
9
8
8
3
13
26
35
24
8
8
8
3
13
25
35
24
8
8
8
3
13
25
35
24
8
8
8
3
13
25
34
24
8
8
8
3
13
23
34
24
8
8
8
3
12
19
34
22
8
7
8
3
8
19
31
20
8
6
6
3
8
19
30
19
8
6
6
3
8
19
30
19
8
6
6
3
8
19
30
19
8
6
6
3
8
19
28
19
7
7
6
3
8
19
28
18
7
8
6
3
8
18
28
18
7
9
6
3
8
18
28
17
7
9
6
3
7
18
29
17
6
9
6
4
7
18
28
16
6
8
6
4
7
16
27
15
5
9
6
4
5
11
28
15
5
9
6
4
5
11
28
15
5
9
6
4
5
11
28
15
5
9
6
4
5
11
28
15
4
9
6
4
4
11
27
15
4
9
5
4
4
10
25
14
3
9
5
4
4
10
25
14
3
9
5
4
4
10
25
13
3
9
5
4
4
10
25
12
3
9
5
4
4
10
25
12
3
9
6
4
4
10
24
12
3
9
6
4
4
9
24
12
3
9
5
4
4
9
25
12
3
9
6
4
4
9
25
12
3
10
6
4
4
9
24
12
3
10
6
4
4
9
24
11
2
9
6
4
4
8
23
11
2
10
6
4
4
8
23
9
2
10
6
4
4
8
24
9
2
10
7
4
4
8
24
9
2
10
7
4
4
7
24
8
2
10
7
4
4
7
24
8
2
10
7
4
4
7
25
8
2
11
7
4
4
7
25
8
2
11
7
4
4
7
24
8
2
11
7
4
3
7
25
8
2
11
7
4
3
7
25
8
2
11
7
4
3
7
26
8
2
11
7
4
3
7
26
8
2
11
7
4
3
7
26
8
2
11
7
4
3
7
26
8
2
11
7
4
3
7
24
8
2
11
7
4
3
7
25
8
2
11
7
4
3
7
26
8
2
11
7
4
4
7
26
8
2
11
7
4
3
7
26
8
2
11
7
4
3
7
26
8
2
11
7
4
3
7
27
7
2
11
7
4
3
7
30
7
2
11
7
4
3
7
30
7
2
11
7
4
3
6
30
7
2
11
7
4
3
6
30
7
2
11
7
4
3
6
32
7
2
11
7
4
3
6
32
8
2
11
7
4
3
5
32
7
2
10
7
4
3
5
32
7
2
9
7
4
3
5
32
7
2
9
7
3
3
5
31
7
2
9
7
2
3
5
31
7
2
10
7
2
3
5
30
7
2
9
7
2
3
5
30
7
2
9
7
2
3
5
30
7
2
9
7
2
3
5
30
7
2
9
7
2
3
5
30
7
2
9
7
2
3
5
30
7
2
8
6
2
3
5
30
7
2
8
6
2
2
5
30
7
2
8
6
2
2
5
30
7
2
8
6
2
2
5
30
7
2
8
6
2
2
5
30
7
2
8
6
2
3
5
31
7
2
8
6
2
3
5
31
7
2
8
6
2
3
5
31
7
2
8
6
2
2
5
31
7
2
8
6
2
2
5
30
7
2
8
6
2
2
5
32
7
2
8
6
2
2
5
33
7
2
7
5
1
2
5
33
7
2
7
5
1
2
5
32
7
2
7
5
1
2
5
32
7
2
7
5
1
2
5
32
7
2
7
5
1
2
5
32
7
2
7
4
1
2
5
31
7
2
6
4
1
2
5
31
7
2
6
4
1
2
5
32
7
2
6
4
1
2
5
31
7
2
6
4
1
2
5
31
7
2
6
4
1
2
5
31
7
2
6
3
1
2
5
31
7
2
6
3
1
2
5
31
7
2
6
3
1
2
5
33
7
2
6
3
1
2
5
33
7
2
6
3
1
2
5
32
7
2
6
3
1
2
5
32
7
2
6
3
1
2
5
32
7
2
6
3
1
2
5
32
7
1
6
3
1
2
5
32
6
1
6
3
1
2
5
30
6
1
6
3
1
2
4
29
6
1
6
3
1
2
4
29
7
2
6
3
1
2
4
29
6
1
6
3
1
2
4
29
6
1
6
3
1
1
4
27
6
1
6
3
1
1
4
27
5
1
5
3
1
1
4
27
6
1
5
3
1
1
4
27
6
1
5
3
1
1
4
27
6
1
5
3
1
1
4
27
5
1
5
3
1
1
4
27
5
1
4
3
1
1
4
27
5
1
3
3
1
1
4
25
5
1
3
2
1
1
4
25
5
1
3
2
1
1
4
26
5
1
3
2
1
2
4
26
5
1
3
2
1
2
4
25
5
1
2
2
1
1
4
26
5
1
2
2
1
1
4
26
6
2
2
2
1
1
4
26
5
2
2
2
1
1
4
26
5
2
2
2
1
1
4
26
5
1
2
2
1
1
3
26
5
1
2
2
1
1
3
26
5
1
2
2
1
1
3
26
5
1
2
2
1
1
3
26
5
1
2
2
1
1
3
26
5
1
2
2
1
1
3
24
5
2
2
2
1
1
3
23
5
1
2
2
1
1
3
24
5
2
2
2
1
1
3
24
5
1
2
2
1
1
3
24
5
1
2
2
1
1
3
23
5
1
2
2
1
1
3
23
5
1
2
2
1
2
3
23
5
1
2
2
1
2
3
23
5
1
2
2
1
2
3
23
5
1
2
2
1
2
3
23
5
1
2
2
1
2
3
23
5
1
2
2
1
2
3
23
5
1
2
2
1
2
3
23
5
1
2
2
2
2
3
22
5
1
2
2
2
2
3
20
4
1
2
2
2
2
3
20
4
1
2
1
2
2
3
20
4
1
2
1
2
2
3
20
4
1
2
1
2
2
3
20
4
1
2
1
2
2
3
19
4
1
2
1
2
2
3
19
4
1
2
1
2
2
3
20
4
1
2
1
2
2
3
19
4
1
2
1
2
2
3
19
4
1
2
1
2
2
3
19
4
1
2
1
2
2
3
19
4
1
2
1
2
2
3
19
4
1
2
1
2
2
3
19
4
1
2
1
2
2
3
18
4
1
2
1
2
2
3
20
4
1
2
1
2
2
3
20
4
1
2
1
2
2
3
20
4
1
2
1
2
2
3
20
4
1
2
1
2
2
4
20
4
1
2
1
2
2
4
20
4
1
2
1
2
2
4
21
4
1
2
1
2
2
4
21
4
1
2
1
2
2
4
21
4
1
2
1
2
2
4
21
4
1
2
1
2
2
4
21
4
1
2
1
2
2
4
20
3
1
2
1
2
2
4
20
3
1
2
1
2
2
4
20
3
1
2
1
2
2
4
20
3
1
2
1
2
2
4
20
3
1
2
1
2
2
4
20
3
1
2
1
2
2
4
21
3
1
2
1
2
2
4
21
3
1
1
1
2
2
4
21
3
1
2
1
2
2
4
21
3
1
2
1
2
2
4
21
3
1
2
1
2
2
4
21
3
1
2
1
2
2
4
21
3
1
2
1
2