6
2
32
4
1
0
0
3
4
2
23
2
1
0
0
2
3
2
19
2
1
0
0
2
3
3
20
8
1
0
1
2
3
3
18
7
1
0
1
2
3
3
18
7
1
0
1
2
3
4
22
6
1
0
1
2
4
4
34
6
1
1
2
2
3
5
32
7
1
1
2
2
4
7
33
10
2
1
2
2
3
7
36
13
2
1
2
1
3
7
35
12
2
1
2
1
3
7
34
12
2
1
2
1
3
7
33
11
2
1
1
1
3
6
32
11
2
1
1
1
3
6
32
11
2
1
1
1
3
6
31
11
2
1
1
1
3
6
30
11
2
2
1
1
4
6
31
12
2
2
2
1
4
6
30
11
2
2
2
1
4
6
30
11
2
2
2
1
4
6
32
11
2
2
2
1
4
6
34
11
2
2
2
1
4
6
34
11
2
2
2
1
4
6
33
11
2
2
2
1
3
6
33
11
2
2
2
1
3
6
32
10
2
2
2
1
3
5
34
10
2
2
2
1
3
5
34
10
2
2
2
1
3
5
35
10
2
2
2
1
3
5
34
10
2
2
2
1
3
5
35
10
2
2
2
1
3
5
34
10
2
2
2
1
3
5
34
10
2
2
2
1
3
5
33
10
2
2
2
1
3
5
33
10
2
2
2
1
3
5
32
9
2
2
2
1
3
5
32
9
2
2
2
1
3
5
34
9
2
2
2
1
3
5
35
9
2
2
2
1
3
5
34
9
2
2
2
1
3
5
34
9
2
2
2
1
3
5
33
9
2
2
2
1
3
5
34
9
3
2
2
1
3
5
34
9
3
2
2
1
3
5
34
10
3
2
2
1
3
4
33
11
3
2
2
1
3
4
33
10
3
2
2
1
3
4
33
13
4
2
2
1
3
5
33
17
6
2
2
1
3
5
33
17
6
2
2
1
3
5
33
17
6
2
2
2
3
5
33
17
6
2
2
2
3
5
33
17
6
2
2
2
3
5
33
17
6
2
2
2
3
5
33
17
6
2
2
2
3
5
32
17
6
2
2
2
3
5
31
17
7
2
2
2
3
4
31
18
7
2
2
2
3
4
30
17
7
2
2
2
3
4
29
17
7
2
2
2
3
4
29
18
7
3
2
2
3
4
29
18
7
3
2
2
3
4
29
18
7
3
2
2
3
4
29
18
7
3
2
2
3
4
29
19
8
3
2
2
3
4
33
19
8
3
2
2
3
4
34
19
8
3
2
2
3
4
33
19
8
2
1
2
3
5
34
19
8
3
2
2
3
5
34
19
8
3
2
2
3
5
34
20
8
3
2
2
3
5
36
21
8
3
2
2
3
6
37
21
8
3
2
2
3
6
38
21
8
3
2
2
3
6
38
21
8
3
2
2
4
6
38
22
8
3
2
3
4
7
41
22
8
3
3
4
4
9
42
22
8
4
3
4
7
10
42
24
8
4
3
4
7
11
43
25
8
4
3
4
7
11
46
25
8
4
3
6
7
11
48
25
9
4
3
8
8
11
48
25
9
4
3
9
8
13
49
26
9
5
4
9
8
14
49
26
9
6
5
12
9
19
52
26
10
7
5
13
9
22
55
26
12
8
7
13
11
22
54
26
13
14
10
14
11
23
55
26
13
14
11
17
14
25
55
26
13
14
11
18
14
28
56
27
14
14
11
18
15
28
56
28
14
16
12
18
15
29
57
32
14
16
12
18
15
30
57
34
15
16
13
18
16
31
59
34
15
17
14
20
21
32
60
36
17
18
16
20
22
32
61
37
17
18
16
20
22
32
62
38
17
18
16
21
22
32
62
39
16
18
16
21
22
32
62
40
17
18
16
21
22
32
62
40
17
19
16
21
22
33
62
40
17
19
16
21
22
37
64
40
17
19
16
21
22
37
65
41
18
19
17
22
22
38
66
43
18
20
18
26
22
38
67
43
18
20
18
26
23
38
68
45
18
20
18
26
23
40
68
45
19
20
18
27
23
41
68
45
19
20
18
27
23
41
68
45
19
20
18
27
23
42
69
45
18
20
18
27
23
42
69
45
18
20
18
27
23
42
69
46
18
20
18
27
23
42
70
46
18
20
18
27
24
43
71
46
19
21
19
27
24
43
70
46
19
21
19
27
24
43
71
46
19
21
19
27
24
43
72
46
19
21
19
27
24
43
71
47
19
21
19
27
25
45
71
48
19
21
19
27
25
45
71
47
19
21
19
28
25
46
70
48
19
21
20
28
25
48
69
48
19
21
20
28
25
49
69
48
19
22
20
28
25
50
69
49
19
22
20
28
26
50
70
50
19
22
20
28
26
52
68
53
19
22
20
28
26
52
67
53
19
22
20
28
25
52
67
53
19
22
20
29
25
52
67
54
19
22
20
29
26
53
64
54
19
22
20
29
26
54
64
54
19
22
20
28
25
54
66
55
19
22
20
28
26
54
66
55
19
21
20
28
26
54
66
55
19
21
20
27
26
54
64
56
19
21
20
27
26
53
62
57
19
21
20
27
26
53
62
57
18
18
20
27
26
55
63
58
18
18
20
25
25
56
63
58
18
19
20
25
26
55
63
58
18
19
20
25
25
55
64
57
18
19
20
25
25
55
64
57
18
18
20
25
26
54
66
58
17
18
19
27
26
55
64
58
17
18
20
26
21
55
65
57
15
16
20
30
21
55
64
57
16
16
20
31
21
55
63
56
15
16
20
31
21
56
63
55
15
16
20
31
21
56
64
54
15
16
20
32
21
56
65
54
15
16
20
32
22
56
66
54
15
16
20
32
22
53
64
54
15
16
20
32
23
53
64
53
14
16
19
32
23
53
62
52
14
15
19
29
23
54
61
52
14
16
20
29
23
54
61
50
14
15
19
31
23
54
60
50
13
15
19
31
24
55
61
51
14
15
20
31
25
55
61
51
14
15
20
31
25
55
60
52
14
15
20
32
25
55
60
52
14
15
20
32
25
55
60
51
14
15
20
32
25
56
60
51
14
15
20
31
25
56
60
51
13
15
20
31
25
56
60
51
13
15
20
31
25
56
59
51
13
15
20
31
25
57
59
52
13
15
20
31
25
58
60
52
13
15
20
32
24
56
60
51
13
14
21
32
24
56
62
52
13
14
21
32
24
56
62
52
13
14
22
31
24
54
62
52
13
14
23
32
25
53
62
51
13
15
23
32
24
52
64
51
13
15
23
32
24
53
65
53
14
15
23
32
24
52
64
51
14
15
24
32
24
53
66
51
14
15
24
32
24
53
66
49
14
15
24
31
24
53
67
48
14
15
24
31
24
53
69
49
14
15
24
32
24
52
69
49
14
15
24
32
24
52
70
48
13
15
25
32
25
52
70
48
13
15
25
32
25
52
71
49
13
15
25
32
24
51
70
47
13
15
25
32
24
53
70
46
13
14
24
32
25
56
69
47
12
14
24
32
24
54
70
46
12
14
24
32
23
53
71
46
12
13
24
32
23
52
71
47
11
13
24
32
23
52
72
46
11
11
23
32
23
52
72
45
11
11
23
32
23
52
70
44
11
12
23
30
22
51
71
46
11
12
23
30
23
51
72
45
11
12
22
26
23
52
72
45
11
12
23
25
23
52
73
45
11
12
23
25
23
51
73
45
11
12
23
24
23
51
74
45
11
12
22
26
24
51
73
45
11
12
23
26
24
53
72
45
11
12
23
25
24
53
73
45
11
12
23
25
24
56
73
45
11
12
24
25
24
56
73
45
11
12
24
24
23
57
74
45
10
12
24
24
23
56
74
47
11
11
24
22
23
55
75
47
11
11
24
21
22
55
76
47
11
11
23
21
21
54
76
47
11
11
23
21
21
55
76
46
11
11
23
21
21
55
76
46
11
12
23
21
21
55
76
47
11
11
23
21
22
56
76
47
11
12
24
21
22
56
76
47
11
12
24
21
23
56
76
48
11
12
24
21
23
56
76
48
11
12
23
22
22
57
75
47
10
12
24
22
22
58
73
47
10
12
24
22
22
58
74
48
10
13
23
22
23
58
75
49
12
14
23
22
24
59
75
49
12
14
22
22
24
58
75
49
12
14
25
22
24
58
77
50
13
16
27
22
25
61
75
49
13
16
27
22
25
61
74
46
14
18
27
23
25
60
75
45
15
19
26
24
25
59
73
45
15
19
26
25
26
58
72
46
15
19
27
24
26
58
72
47
15
19
27
24
25
58
70
46
15
19
27
24
25
59
69
46
15
19
27
24
25
60
67
46
15
18
26
24
24
60
66
46
15
18
26
23
25
60
66
46
15
19
26
23
25
60
66
46
15
19
27
23
25
58
66
47
15
19
27
23
25
56
66
46
15
21
28
23
25
56
64
47
16
21
28
24
25
56
63
48
16
21
28
24
25
55
64
48
16
22
30
24
26
56
63
48
16
22
30
24
25
56
62
48
16
22
30
25
25
56
63
46
16
23
32
25
25
56
62
45
16
22
31
25
25
56
59
46
16
22
32
25
25
57
59
47
16
23
32
26
25
57
58
47
17
23
32
27
25
57
58
47
17
23
32
29
26
58
56
47
17
23
34
28
26
58
57
47
17
23
33
28
26
58
58
48
17
23
34
28
27
60
59
51
19
24
34
29
27
59
60
54
19
24
34
29
28
59
61
54
19
24
34
29
29
59
61
55
19
24
37
30
29
59
63
56
19
24
37
31
29
59
63
57
19
25
38
31
29
60
61
58
20
25
39
31
29
61
63
58
20
26
39
31
30
61
63
58
20
28
39
31
30
61
64
58
20
27
40
31
31
61
65
58
20
28
40
31
31
59
65
58
20
28
40
31
31
59
64
58
20
29
41
32
31
59
64
58
20
29
42
33
33
60
64
58
20
30
44
33
34
59
65
58
21
30
44
33
34
57
67
58
21
30
44
32
36
57
66
56
20
30
45
34
35
57
64
55
20
30
45
34
35
58
64
55
20
30
45
34
35
58
64
55
20
29
43
34
35
58
62
55
19
28
42
34
34
56
62
55
19
28
42
34
34
55
61
55
18
27
42
34
34
56
61
55
17
27
41
33
34
57
63
56
17
27
42
33
34
57
65
56
17
27
42
33
34
57
65
54
17
27
42
33
34
57
65
55
17
27
42
32
34
55
65
55
18
27
42
33
34
54
65
55
18
27
42
33
34
54
65
55
18
27
42
33
34
54
65
55
18
27
42
34
36
55
65
55
18
28
43
35
36
54
65
55
18
28
43
35
36
54
65
55
18
26
41
35
37
54
65
54
17
26
41
35
38
54
65
53
17
26
41
35
38
54
63
53
17
25
40
36
37
54
63
53
17
25
40
36
37
54
62
53
17
25
40
35
38
54
63
53
17
25
39
35
38
54
64
55
17
25
41
35
37
54
64
54
17
25
41
35
37
53
65
53
17
25
41
34
38
53
68
54
17
24
41
33
38
53
69
54
17
24
41
31
37
52
71
55
17
24
39
31
37
53
70
55
17
24
40
31
37
50
70
56
16
24
39
31
35
48
72
55
15
24
39
30
35
48
71
55
15
24
39
31
35
47
71
54
15
24
39
31
34
47
70
54
14
23
36
30
34
47
70
53
14
23
36
30
34
48
71
52
14
23
36
30
34
46
71
52
14
23
36
30
34
45
69
50
14
21
36
30
33
45
70
50
13
19
36
30
33
44
70
50
13
19
36
30
32
44
70
50
13
19
36
30
32
45
70
50
13
19
35
29
32
45
70
49
13
18
35
28
31
44
70
49
13
16
34
27
30
43
70
49
13
15
34
26
29
43
71
50
12
14
34
27
29
42
69
51
12
14
36
28
27
43
69
51
13
15
38
26
27
46
69
53
13
14
38
27
28
47
68
53
13
14
38
27
27
49
68
53
12
14
39
28
27
49
68
53
12
14
39
28
27
49
69
53
12
14
40
27
28
49
69
53
12
15
42
28
28
48
69
54
12
15
43
29
28
47
67
52
12
15
42
29
28
47
65
53
12
15
43
29
27
49
66
53
12
15
43
30
27
49
66
52
11
14
43
30
27
50
66
52
11
14
43
30
26
49
68
52
11
14
43
30
26
50
67
53
11
14
43
30
27
51
67
52
11
14
43
29
24
50
67
52
10
13
42
27
24
49
68
52
10
13
43
27
23
49
69
53
10
13
43
27
22
49
70
53
10
13
43
27
21
49
70
53
10
13
43
26
21
48
69
53
10
13
43
26
21
48
69
53
10
13
42
26
21
48
69
53
10
13
43
26
21
48
68
52
10
13
43
26
21
48
66
50
10
13
41
26
22
48
67
50
10
13
41
26
21
48
66
50
10
13
41
26
21
48
64
49
9
13
41
26
21
48
62
48
9
13
41
26
21
48
60
47
9
13
42
26
21
46
59
47
9
13
41
26
21
46
58
45
9
13
41
26
21
46
55
42
8
12
41
25
20
45
54
39
8
12
41
25
19
45
53
39
8
12
41
24
19
44
53
38
8
12
41
24
19
44
50
35
7
12
41
24
19
41
49
35
7
12
40
24
19
42
48
35
7
12
40
24
18
41
47
35
7
12
40
23
18
42
46
35
8
12
40
23
18
41
44
35
8
12
40
23
18
41
43
35
7
12
40
23
17
40
43
35
7
12
40
23
17
40
42
35
7
11
39
23
17
40
42
35
7
11
39
23
17
40
43
35
7
11
36
23
17
40
40
33
7
11
36
22
16
40
40
32
7
11
34
20
16
39
40
31
7
11
31
20
16
35
40
27
7
11
31
20
14
31
39
27
6
11
30
18
14
28
39
27
6
11
28
18
14
27
39
27
6
11
28
18
14
27
37
25
6
11
27
17
13
27
38
24
6
9
24
16
13
26
39
24
6
9
23
14
13
26
39
24
6
9
22
14
13
26
39
23
6
9
21
13
13
23
38
23
6
9
21
11
13
22
36
23
6
9
21
11
13
21
36
23
6
9
21
10
13
21
33
22
6
9
20
10
12
19
33
20
6
9
20
10
12
18
33
20
6
8
20
9
12
18
33
20
6
8
19
9
12
17
30
20
6
8
19
9
12
17
28
17
6
8
19
9
11
17
26
14
5
8
19
8
11
17
26
14
5
8
19
8
10
16
26
14
5
8
19
8
9
16
26
14
5
8
19
8
9
16
26
13
5
7
18
8
9
16
26
13
5
8
17
11
8
15
25
13
5
7
17
11
6
14
23
13
5
7
17
10
6
14
25
13
5
7
17
10
6
14
26
13
5
6
17
10
6
14
28
13
5
7
17
10
6
14
28
13
4
6
14
9
6
13
28
12
4
6
14
9
6
13
28
12
4
6
13
9
6
12
28
12
4
6
13
9
6
11
28
12
4
7
13
9
6
11
27
11
4
7
12
9
6
11
27
11
4
7
12
9
6
11
27
10
4
6
12
9
6
11
27
9
4
6
12
9
6
9
26
9
3
6
11
9
6
9
27
10
3
6
9
9
5
7
29
9
2
6
9
9
6
7
30
9
2
6
9
9
6
7
30
8
2
6
9
9
6
7
30
9
2
6
8
9
6
7
31
8
2
6
9
9
6
6
31
8
2
6
8
9
6
6
30
7
2
6
8
9
6
6
30
7
2
6
8
9
6
6
30
7
2
6
8
9
6
7
30
7
2
6
8
9
6
8
30
7
2
6
8
9
6
8
30
7
2
6
8
9
6
8
31
7
2
6
8
9
5
8
32
7
2
6
8
9
5
8
32
7
2
6
8
9
6
8
31
7
2
6
8
9
6
8
30
7
2
6
8
9
6
8
29
7
2
6
8
9
5
8
29
7
2
6
8
9
5
8
29
7
2
6
8
9
5
8
29
7
2
6
8
9
5
8
29
7
2
6
8
9
5
8
29
7
2
6
8
9
5
8
29
7
2
6
8
9
5
8
29
7
2
6
8
9
5
8
29
7
2
6
8
9
5
8
29
7
2
6
8
9
5
8
29
7
2
6
8
9
5
8
29
7
2
6
8
9
5
8
29
7
2
6
8
9
5
8
29
7
2
6
7
9
5
8
29
7
2
6
7
9
5
8
29
7
2
6
7
9
5
8
29
7
2
6
7
5
5
8
29
7
2
6
7
5
5
8
29
7
2
6
7
5
5
8
28
7
2
6
7
5
5
8
27
7
2
6
7
5
5
9
25
7
3
5
7
5
4
8
25
7
2
5
6
4
4
8
25
7
2
5
6
4
4
8
25
7
2
5
6
4
4
8
25
6
3
5
6
4
4
8
24
6
3
4
6
3
4
8
25
7
3
4
6
3
4
8
25
7
3
4
5
3
4
8
24
7
3
4
5
3
4
8
24
6
3
4
5
3
4
8
24
7
3
3
4
3
4
8
23
6
3
3
4
3
4
8
20
6
3
3
4
3
3
8
20
6
3
3
4
3
3
8
20
6
3
3
4
2
3
8
20
6
4
3
4
2
3
8
18
6
4
3
3
2
3
8
18
6
4
3
3
2
3
8
18
6
4
3
3
2
3
8
18
6
4
3
3
2
3
8
18
7
4
3
3
1
3
7
17
8
4
2
3
2
3
7
17
8
4
2
3
2
3
7
17
13
4
2
3
2
3
6
15
17
4
2
3
2
3
6
15
17
4
2
3
1
3
6
15
17
4
2
3
1
3
6
15
17
4
2
3
2
3
5
15
18
5
2
2
1
2
5
15
18
5
2
2
1
2
5
18
18
5
2
2
2
3
5
21
18
5
2
2
2
3
5
21
18
5
3
3
4
3
6
22
19
5
3
3
4
3
6
22
19
5
3
3
5
3
6
22
19
5
3
3
5
5
7
25
23
5
3
3
5
5
7
28
26
6
4
11
9
6
12
31
27
6
4
14
10
6
12
33
27
6
4
14
10
6
16
32
27
6
4
15
10
6
18
32
29
6
4
17
10
7
18
34
29
7
5
17
10
7
18
34
29
7
6
18
10
7
20
34
29
8
7
22
16
7
21
33
30
8
8
23
17
7
22
34
31
9
8
23
18
7
22
34
31
9
8
24
18
8
23
35
33
9
8
25
19
9
23
35
34
9
8
25
19
9
24
38
35
9
9
27
20
9
28
39
37
9
9
27
21
9
28
39
38
9
9
31
23
10
28
40
39
10
10
31
23
12
30
39
40
10
10
32
23
12
30
40
40
10
10
32
23
14
31
41
40
10
10
32
24
14
32
41
42
10
10
32
24
15
32
41
42
10
11
34
24
15
33
43
42
10
11
35
24
17
33
43
42
10
12
35
26
17
34
44
42
11
12
35
26
18
34
44
42
11
12
36
26
18
34
45
42
10
13
37
28
18
34
46
42
10
13
39
29
18
35
50
42
10
13
39
29
18
35
50
43
10
13
39
29
19
38
52
45
11
14
39
30
20
38
52
45
11
14
40
30
20
39
53
45
11
14
40
30
22
41
55
47
13
14
40
30
25
42
56
48
15
15
40
31
25
42
56
48
15
16
42
33
25
43
56
47
15
16
42
33
25
43
56
46
15
16
42
33
26
44
56
46
15
16
42
33
26
45
59
46
15
17
42
34
26
46
59
46
15
17
42
34
27
46
59
46
15
17
42
34
27
46
61
46
15
17
43
38
27
46
62
47
15
17
43
39
27
47
62
47
16
17
44
39
27
48
62
47
16
18
45
38
28
48
62
47
16
19
45
39
28
48
63
47
16
19
46
39
28
48
63
47
16
19
46
40
28
49
62
45
16
19
46
40
28
49
61
44
16
19
45
40
28
48
59
44
16
19
44
40
28
49
59
44
16
19
44
40
28
48
61
46
16
19
44
40
28
47
62
45
16
19
43
40
28
48
62
45
15
18
43
40
28
48
62
45
15
18
43
41
28
48
64
46
15
18
42
40
30
48
65
47
16
18
41
40
30
48
65
46
15
18
41
40
30
49
66
46
15
18
40
40
33
49
65
45
15
18
40
40
33
49
66
44
15
18
41
40
33
49
65
45
15
18
40
40
33
49
64
43
15
18
40
40
33
49
65
43
15
18
39
39
34
50
65
43
15
17
39
39
33
49
65
42
15
18
38
39
33
49
65
42
15
18
38
39
32
50
64
42
14
18
38
39
32
50
65
44
14
17
38
41
32
50
65
44
14
17
36
41
32
50
63
44
15
17
36
41
31
50
63
44
14
17
36
40
32
51
64
46
15
17
36
41
31
51
65
46
15
17
35
41
31
52
64
46
15
17
34
41
32
53
65
46
15
16
32
40
32
52
63
46
15
17
34
41
32
53
63
47
15
17
37
41
32
52
61
45
15
16
36
41
32
52
61
45
15
17
38
41
32
52
61
45
15
18
40
41
32
51
61
44
14
17
42
42
30
50
61
44
13
16
42
41
30
50
61
43
13
16
40
40
30
50
62
43
13
16
40
42
30
50
64
46
12
16
41
42
30
49
64
47
13
16
41
42
30
49
62
47
13
17
41
42
31
49
62
47
15
18
42
42
30
51
62
47
15
18
42
42
31
51
61
47
15
19
41
38
31
52
60
47
15
19
41
38
30
51
60
47
15
19
41
38
30
50
61
48
15
18
40
39
31
50
63
48
15
18
40
39
31
50
62
48
15
18
40
39
30
50
62
48
15
17
40
39
31
50
62
49
15
17
40
38
31
49
62
49
16
17
40
38
31
49
62
49
16
18
40
38
31
49
62
49
16
18
40
38
31
49
61
48
16
18
40
38
31
49
60
48
16
18
40
38
31
51
62
48
16
18
40
39
32
53
63
48
16
18
40
38
32
53
62
47
16
18
39
37
30
53
61
46
16
18
40
37
30
53
63
47
16
18
40
37
29
53
64
47
16
18
42
37
26
53
65
48
16
18
41
37
26
52
65
48
16
18
41
37
26
52
66
47
16
18
41
37
26
50
67
48
16
18
40
36
25
51
67
48
16
18
39
36
25
51
67
48
16
18
39
37
25
51
67
50
16
18
39
37
25
51
68
50
16
18
39
37
25
51
68
50
17
18
39
37
25
51
70
48
17
18
39
34
25
51
70
48
16
18
40
34
26
51
70
48
16
18
41
34
26
51
70
49
17
18
41
34
25
50
69
48
16
18
42
34
25
50
69
48
16
18
42
33
25
50
71
51
17
18
43
33
25
49
70
51
17
19
43
32
24
49
70
51
17
19
43
32
23
48
72
50
17
19
42
31
23
48
74
50
17
19
42
32
24
48
76
52
18
19
40
32
23
51
77
53
18
19
39
31
21
50
75
53
18
19
38
32
21
50
76
52
17
18
38
32
20
50
76
53
17
18
38
32
20
50
76
53
17
19
38
29
20
51
74
50
17
19
39
29
20
50
74
51
17
19
38
30
22
51
75
51
17
18
38
30
23
51
76
50
15
17
37
31
23
49
76
52
16
17
37
31
22
48
77
52
15
16
37
31
22
48
76
52
16
16
36
31
23
49
76
52
16
16
37
31
23
49
75
51
16
16
38
29
23
50
73
51
16
16
37
29
23
51
74
52
16
16
37
30
23
51
76
51
16
16
37
30
23
52
76
50
16
16
37
30
23
51
77
50
16
16
37
31
24
52
78
50
16
16
37
31
24
52
78
50
15
16
37
32
24
52
79
50
15
16
38
32
24
52
78
50
15
16
39
32
24
48
77
50
15
16
39
31
24
47
76
50
15
16
39
31
24
48
76
51
15
16
39
30
24
48
76
50
15
16
39
30
24
51
74
50
15
16
38
31
27
51
72
51
15
16
37
32
29
52
74
52
15
16
37
32
29
52
73
52
15
16
38
31
29
52
72
52
15
16
38
31
32
55
73
51
16
17
38
33
33
54
73
51
15
17
40
33
33
54
73
51
16
17
40
33
33
54
72
48
15
17
40
33
34
53
72
49
17
18
40
34
34
53
73
49
16
18
40
34
34
53
70
48
16
18
40
34
34
52
70
48
16
18
39
34
35
52
71
49
17
19
39
34
34
53
72
50
17
18
39
34
36
55
74
51
17
19
40
34
35
56
73
51
17
19
41
34
35
55
71
49
17
19
41
33
35
55
70
49
17
18
41
33
35
55
70
48
17
18
40
34
35
54
69
48
16
18
38
34
35
55
66
49
17
18
38
33
35
55
65
48
16
18
39
33
35
52
62
45
15
18
38
33
36
53
63
46
15
18
38
32
36
53
62
46
15
18
39
32
36
53
62
46
16
18
39
32
36
54
61
46
16
18
39
34
36
54
61
47
16
18
38
35
36
54
61
48
16
18
38
34
34
53
61
48
16
17
38
34
34
53
59
48
16
17
38
33
34
53
59
46
15
17
39
33
34
53
60
46
15
17
39
33
34
53
60
46
15
17
39
33
33
52
60
46
15
17
38
33
33
51
60
46
15
17
38
33
34
51
62
49
15
17
38
33
33
50
61
49
15
17
40
32
33
52
59
50
15
17
41
31
34
52
59
52
15
17
40
31
35
52
60
53
15
17
40
31
34
52
58
53
15
17
41
31
34
52
59
53
15
17
42
31
34
52
58
52
15
18
41
30
34
52
58
52
15
17
42
31
34
53
58
52
15
17
43
30
34
52
59
52
15
17
44
30
34
53
58
52
15
17
45
30
34
54
58
52
15
17
47
31
34
51
58
53
15
17
48
30
32
50
57
52
14
18
50
30
30
50
55
49
14
18
50
30
30
50
55
49
14
18
50
30
30
50
56
51
15
18
51
31
27
47
56
52
14
18
53
29
26
48
55
51
14
18
52
28
27
48
55
53
14
19
54
29
30
48
58
56
16
19
57
32
28
48
58
57
15
19
60
31
28
48
57
57
15
19
60
32
28
48
58
57
15
19
60
32
28
51
58
57
15
19
61
32
28
52
57
56
14
18
62
33
28
51
57
55
14
18
62
33
26
49
56
53
14
18
62
35
26
49
56
54
14
17
62
35
26
49
57
54
14
17
62
35
26
49
58
54
14
17
62
35
26
50
60
53
14
17
62
34
26
50
61
54
14
17
62
36
27
49
61
53
13
17
62
36
27
49
61
53
13
17
62
36
27
50
62
53
13
17
62
36
27
50
62
52
14
17
62
36
27
52
63
52
14
17
62
36
28
52
63
52
13
17
62
37
28
51
62
52
14
17
62
36
28
51
62
52
14
16
62
36
28
51
65
52
14
16
64
36
29
52
65
54
15
16
66
37
29
52
65
54
15
16
66
37
29
51
65
55
15
16
65
38
30
52
65
55
15
17
65
38
30
52
65
55
15
17
66
41
30
52
64
54
15
17
67
43
30
52
65
55
15
17
68
43
30
53
63
52
15
17
68
43
30
53
63
52
15
17
67
43
30
51
63
51
15
17
67
43
29
51
63
49
15
17
67
43
27
51
61
49
15
16
68
43
26
51
61
49
15
16
68
43
27
51
60
49
15
17
68
43
27
51
61
49
15
17
68
43
27
51
62
49
15
16
68
43
27
51
62
49
15
17
68
44
27
52
62
48
15
17
68
44
27
51
62
48
15
17
68
44
28
52
62
48
15
17
66
44
28
53
63
48
15
17
66
45
28
52
63
49
15
16
64
45
28
52
64
49
15
16
66
45
28
53
65
49
15
16
66
45
28
52
63
48
15
17
66
45
28
53
63
49
15
15
64
44
28
53
63
49
15
15
64
44
27
53
64
47
15
15
61
44
24
53
61
43
13
14
59
42
24
53
61
42
13
14
58
41
24
53
61
42
13
14
58
41
24
53
61
42
13
14
58
40
24
50
61
41
13
14
57
40
24
49
61
41
13
14
57
41
24
50
60
41
13
14
57
40
24
50
62
41
13
14
56
39
24
50
62
41
13
14
54
39
24
50
61
43
13
14
54
39
24
50
60
42
13
14
54
39
24
50
59
42
13
14
54
39
24
50
57
41
13
14
54
38
24
49
60
43
13
14
54
38
23
49
60
42
13
13
53
38
23
47
58
42
13
13
53
37
22
46
57
43
12
13
53
37
22
44
57
43
12
13
53
37
21
44
57
44
12
13
53
37
20
44
57
44
12
13
53
35
20
44
57
42
11
13
53
35
20
44
55
41
11
13
50
35
19
43
53
39
10
13
49
33
19
43
53
39
10
13
49
33
17
43
52
37
10
13
49
32
16
43
51
37
10
12
49
32
16
42
51
37
10
12
47
27
16
43
51
38
9
11
46
26
16
43
52
37
9
11
45
25
16
42
53
37
8
11
45
25
16
41
52
37
8
11
44
25
15
41
51
37
8
11
44
25
15
40
50
35
8
11
44
25
15
40
50
35
8
11
41
24
15
40
50
35
8
11
41
24
15
40
50
35
8
10
40
24
15
39
50
35
8
10
40
24
15
39
47
35
8
10
39
23
14
39
47
35
7
9
37
21
14
36
45
34
7
9
36
19
14
34
45
34
7
9
35
19
11
32
45
33
7
9
35
19
11
30
44
33
7
9
34
17
11
30
44
33
7
9
34
16
10
29
42
33
7
8
30
16
10
28
41
33
8
8
30
15
10
27
41
32
9
7
28
15
10
26
39
29
8
7
28
15
10
26
39
30
8
7
28
14
9
25
38
29
8
7
28
14
9
23
38
29
8
7
26
14
8
23
37
29
8
6
24
14
8
23
37
29
8
5
23
13
8
23
37
29
8
5
21
13
8
23
37
29
8
5
20
13
8
23
36
29
8
5
20
11
8
22
35
31
10
5
20
11
7
19
31
31
10
5
20
11
7
18
31
29
10
5
19
11
7
18
30
27
9
5
18
11
7
17
29
26
9
5
18
10
7
14
29
26
9
5
17
10
6
14
30
26
9
5
17
8
6
14
26
24
9
4
16
8
6
14
27
25
9
4
16
8
6
14
28
24
9
4
16
7
6
14
27
24
9
4
16
6
6
14
27
24
9
4
14
6
5
14
27
21
9
5
14
6
5
14
27
21
9
6
13
6
5
13
27
21
9
6
12
5
5
13
26
21
9
6
11
5
5
12
27
20
9
6
10
5
5
12
26
20
9
6
10
4
5
12
26
20
9
6
10
3
5
12
27
20
9
6
10
3
5
13
30
20
9
6
9
3
4
9
29
19
9
6
9
3
4
9
29
19
9
6
7
3
4
10
28
19
9
6
7
3
4
9
29
19
9
6
6
3
4
9
30
19
9
6
6
3
4
9
30
19
9
6
6
3
4
9
30
18
9
6
6
3
4
9
29
18
9
6
6
3
4
9
30
18
9
6
6
3
4
9
30
18
9
6
6
2
4
9
30
18
9
6
5
2
4
8
30
18
9
6
5
2
4
8
30
18
9
6
5
2
4
8
30
18
9
6
5
2
4
8
30
18
9
6
5
2
4
8
30
18
9
6
5
2
4
8
31
16
9
6
5
2
4
8
31
15
9
6
5
2
4
8
31
15
8
6
5
2
4
8
31
14
7
6
5
2
4
8
31
14
7
6
5
2
4
8
31
13
7
6
5
2
4
8
31
13
7
6
5
2
4
8
31
13
7
6
5
2
4
8
31
13
7
6
4
2
3
8
31
13
7
6
4
2
3
8
31
13
7
6
4
2
3
8
31
13
7
6
4
2
3
8
31
13
6
6
4
2
3
8
31
8
4
6
4
2
3
8
31
8
4
6
5
2
3
8
31
8
4
6
4
2
3
7
31
8
4
6
4
2
3
7
31
8
3
6
4
2
3
7
31
8
3
6
4
2
3
7
30
8
3
6
4
2
3
7
29
7
3
6
4
2
3
7
28
7
3
6
4
2
3
7
28
7
3
6
4
2
3
7
29
7
3
6
4
2
3
7
28
7
3
6
4
2
3
7
28
7
3
5
4
1
3
7
28
7
3
3
3
1
3
7
28
7
3
3
3
1
3
7
28
7
3
3
3
1
3
7
28
7
3
3
3
1
3
7
28
7
3
3
3
1
3
7
28
7
3
3
3
1
3
6
27
7
3
3
3
1
3
6
24
6
3
3
3
1
3
6
24
6
3
3
3
1
3
5
24
7
3
3
3
1
2
5
23
7
3
3
2
1
2
4
22
7
3
3
2
1
2
4
21
7
3
2
2
1
2
4
21
7
3
2
2
1
2
4
21
7
3
2
2
1
2
3
20
7
3
2
2
1
2
4
20
7
3
2
2
1
2
4
20
7
3
2
2
1
2
4
20
8
3
2
2
1
2
4
20
9
3
2
2
1
2
4
20
9
3
2
2
1
2
4
20
9
3
2
2
1
2
4
20
9
3
2
2
1
2
4
21
9
3
2
2
1
2
4
20
9
3
2
2
1
2
4
23
10
3
2
2
1
2
4
24
10
3
2
2
1
2
4
26
10
3
2
2
1
2
4
26
10
3
2
2
1
2
4
26
10
3
2
2
1
2
4
27
10
3
2
2
1
2
4
27
10
3
2
2
1
2
4
27
10
3
2
3
3
3
6
29
11
3
2
4
7
3
8
29
11
3
2
4
7
3
8
29
12
3
2
4
7
5
8
29
12
3
2
4
13
5
8
31
13
3
2
4
17
5
8
31
13
4
3
4
18
5
8
31
14
4
4
4
18
5
8
32
14
4
4
6
19
6
8
32
17
4
4
6
19
7
9
36
20
4
4
7
19
7
12
38
21
5
4
7
19
9
15
38
21
5
4
7
19
11
15
38
23
5
5
8
22
11
15
42
30
6
6
10
23
11
18
43
32
7
7
15
23
13
19
43
32
7
7
15
24
14
19
43
33
7
7
16
24
14
19
44
33
7
7
16
24
14
20
46
33
8
7
19
24
15
23
49
34
8
7
20
24
15
23
52
34
8
8
20
24
15
23
52
34
8
9
21
29
16
23
53
34
8
9
21
30
16
24
54
35
8
9
23
30
18
24
54
35
8
10
27
31
18
24
54
37
9
10
27
31
18
24
54
38
9
11
27
31
18
25
55
38
10
11
27
31
18
27
57
40
10
11
27
32
18
30
58
42
10
11
27
32
18
30
59
42
10
11
28
33
18
30
60
42
10
11
28
33
18
30
60
42
10
11
28
33
19
31
62
42
10
11
28
33
19
32
62
42
10
11
28
33
19
32
63
42
10
11
28
33
19
33
65
45
11
12
28
34
19
33
68
47
12
12
28
34
20
33
68
47
12
12
29
34
20
34
68
47
12
13
29
34
20
35
68
48
12
13
29
34
20
35
69
48
12
13
29
34
20
36
69
48
12
13
29
34
20
36
70
48
12
13
29
35
20
36
69
48
12
13
29
35
21
36
69
49
13
13
30
36
21
38
70
50
13
13
31
36
21
39
71
51
13
13
31
36
21
39
72
51
13
14
32
36
21
39
72
51
13
14
32
36
22
39
71
51
13
15
32
36
24
40
71
52
13
15
32
36
24
40
72
53
14
15
32
36
23
41
73
54
14
15
32
34
24
41
72
53
14
15
33
34
24
43
72
53
14
15
33
34
24
44
73
54
14
15
34
33
24
44
72
54
14
15
33
34
24
44
72
53
14
15
33
35
24
45
71
53
14
15
34
35
23
44
71
53
14
15
34
34
23
43
71
54
14
15
34
34
22
43
72
53
14
15
34
34
22
44
72
50
14
15
34
34
22
45
73
50
13
14
32
34
21
44
75
50
13
14
33
34
21
45
75
50
13
15
33
34
21
46
75
50
13
15
34
35
22
46
75
52
13
15
32
35
23
46
74
54
14
15
32
35
23
46
73
54
14
15
32
35
23
46
75
54
14
14
32
31
23
47
74
54
14
15
31
30
23
48
73
53
15
15
30
30
22
50
74
53
15
15
27
30
23
51
75
52
15
15
27
30
23
52
75
51
14
14
27
30
23
52
76
52
14
14
28
30
24
51
76
52
15
14
28
30
24
49
77
51
14
14
28
31
24
49
77
51
14
14
28
30
24
49
77
51
14
14
28
30
24
50
77
52
14
14
28
29
23
50
75
52
14
14
28
29
23
49
76
52
14
14
28
30
23
49
77
52
14
14
28
30
23
49
75
50
14
14
28
30
23
49
73
48
13
13
28
30
23
49
73
48
13
14
27
30
23
49
74
48
13
14
27
31
23
49
74
48
13
14
28
31
22
49
73
48
14
14
28
31
23
49
73
49
14
14
28
31
23
50
71
49
14
14
29
31
23
50
73
50
14
14
29
31
23
50
75
50
13
14
30
30
23
50
75
49
13
14
29
30
23
49
74
48
13
14
29
30
24
51
75
48
13
14
28
30
24
51
75
48
13
14
28
31
23
50
75
48
13
12
28
30
21
50
75
48
13
12
28
30
21
50
75
47
12
12
28
31
21
49
75
46
12
12
28
31
22
48
75
47
13
13
28
29
23
47
75
47
13
13
28
30
23
47
75
46
13
13
27
30
23
47
77
47
13
13
29
30
24
47
78
48
13
13
29
29
24
46
78
47
13
13
29
29
24
46
77
47
12
13
29
29
24
46
78
48
12
13
29
29
25
46
78
49
12
14
29
29
26
46
76
49
12
14
30
28
26
44
74
47
12
14
30
27
25
44
73
47
12
14
29
27
26
44
73
47
12
14
29
27
25
44
73
47
12
14
29
26
25
43
72
45
12
14
29
26
24
44
70
42
11
14
29
26
24
43
71
43
11
14
28
26
24
43
71
43
11
14
28
27
24
43
71
43
11
14
28
27
24
41
72
43
10
13
29
26
23
39
73
44
10
13
29
27
23
39
72
43
10
13
29
27
22
38
73
43
10
13
29
30
23
39
72
43
10
14
29
30
22
39
69
42
11
14
29
32
22
39
68
42
11
14
29
31
22
39
68
42
11
14
30
31
22
39
67
42
11
14
30
31
23
38
69
42
11
14
31
31
23
38
69
42
11
14
31
32
23
38
68
41
11
14
30
32
23
40
69
41
11
14
31
31
23
40
69
41
11
14
30
31
23
40
69
42
11
14
31
32
23
40
69
43
10
14
31
33
23
40
68
43
10
13
31
31
24
40
68
43
10
13
30
32
27
41
68
43
10
13
30
34
27
40
68
42
10
13
30
34
26
39
68
43
10
13
30
34
27
39
68
44
10
14
30
34
27
39
66
46
10
14
29
37
27
38
66
46
10
14
29
36
27
38
66
46
10
14
31
36
27
38
67
49
11
14
31
39
27
39
68
51
12
14
32
40
27
39
69
51
12
14
32
40
27
39
69
51
12
14
32
40
27
38
69
51
12
14
32
39
27
39
69
51
13
15
34
40
27
40
68
51
13
15
33
40
27
40
68
51
13
15
33
39
27
40
68
52
13
15
33
40
27
41
66
52
13
15
32
40
26
41
65
51
13
15
32
40
26
41
65
51
13
15
32
40
26
41
66
51
13
15
31
40
27
43
65
49
13
15
32
39
26
44
65
50
13
14
32
39
26
44
65
49
13
14
31
39
26
44
65
49
13
14
32
39
27
44
65
49
14
14
31
39
28
44
66
49
14
14
31
39
28
43
67
51
14
14
32
39
29
43
67
53
15
14
32
39
29
42
67
53
15
14
32
40
29
42
66
53
15
14
32
41
29
43
66
52
15
14
34
40
29
43
66
52
15
14
34
40
29
43
65
52
15
14
34
40
29
42
63
52
16
14
33
40
29
41
64
53
16
14
35
40
29
42
65
53
16
14
35
38
29
42
65
53
15
14
34
38
29
43
67
53
15
13
34
36
29
43
66
53
15
13
35
36
29
43
67
53
15
13
33
36
30
43
67
53
15
13
33
36
29
43
65
52
15
13
33
36
29
43
65
52
15
13
33
36
29
43
66
53
15
13
33
36
29
41
64
53
15
13
33
36
29
42
64
54
15
13
33
36
29
41
64
54
15
13
33
36
29
41
64
53
15
13
34
35
29
41
64
53
15
13
34
35
29
41
64
54
15
13
34
35
26
39
66
54
14
13
35
33
29
41
67
55
16
14
38
34
31
42
67
55
17
15
38
34
31
42
66
52
17
15
38
34
30
42
65
50
17
15
38
30
30
42
66
51
17
15
38
32
31
42
66
52
17
15
36
32
30
41
64
50
17
15
37
28
30
40
63
46
16
15
36
27
30
41
61
46
16
15
36
27
30
41
61
46
17
16
36
27
30
41
61
50
16
15
36
27
30
41
60
49
16
15
34
27
30
39
62
50
16
15
34
27
30
40
62
49
16
15
34
27
31
39
65
50
16
16
34
27
31
38
65
52
17
16
34
29
31
39
65
52
17
16
34
29
32
38
65
52
17
16
34
29
32
42
64
52
17
16
35
29
31
40
63
53
17
16
34
29
32
40
62
54
17
16
35
29
32
39
63
54
17
16
35
29
32
40
63
54
17
16
34
29
31
40
62
54
17
16
35
32
30
40
62
54
17
16
35
33
30
40
61
52
17
16
35
33
29
42
61
50
16
16
35
33
29
42
62
51
16
16
35
31
29
42
61
51
16
16
35
31
28
41
60
52
16
16
34
31
28
42
59
52
15
15
34
31
28
42
59
51
15
15
35
31
28
43
59
51
15
15
35
31
28
44
58
50
15
15
34
32
28
43
56
51
15
15
34
32
28
43
57
51
15
15
34
34
28
46
56
51
15
16
34
34
28
47
56
51
15
16
34
34
29
47
55
51
15
16
34
34
28
49
56
52
15
16
35
36
28
49
58
52
15
16
36
36
28
49
56
52
15
16
36
36
29
49
56
51
15
16
35
37
28
49
57
51
15
16
36
39
28
49
57
49
15
16
36
38
28
49
57
49
16
16
36
38
28
49
56
49
15
16
36
38
28
49
55
48
15
16
36
38
28
49
58
49
15
16
36
39
28
49
58
49
15
16
36
39
26
48
58
48
14
15
33
39
22
47
57
47
13
14
32
39
23
47
56
48
13
14
32
41
23
48
56
50
13
14
32
41
23
48
55
49
13
14
33
40
23
48
56
48
13
13
33
40
22
48
56
48
12
13
33
40
22
48
56
48
12
13
33
40
22
48
56
48
12
13
33
40
22
47
56
48
12
13
33
40
22
48
55
44
12
13
33
40
22
49
55
47
12
12
33
40
22
49
55
48
12
12
33
40
22
48
54
49
12
12
34
40
20
49
52
46
11
11
34
40
20
51
52
44
9
10
34
38
20
50
53
44
9
10
33
38
20
50
53
44
9
10
34
39
19
48
53
44
9
10
33
39
19
48
52
42
9
10
33
39
18
48
53
43
9
9
32
39
18
48
54
45
9
9
32
39
18
47
54
45
9
10
32
39
18
47
53
44
9
9
32
36
21
47
53
44
9
10
31
36
22
46
53
45
9
10
31
36
22
45
53
44
9
10
30
36
22
46
53
43
9
9
30
36
22
46
53
43
9
9
29
36
22
46
53
42
9
9
29
36
22
45
52
42
9
9
29
36
22
44
53
42
9
9
29
36
21
44
54
42
9
9
28
36
21
43
54
42
9
9
28
35
22
43
54
41
9
10
28
35
21
42
53
41
9
10
28
33
21
39
52
41
9
9
27
33
21
37
52
41
9
9
27
33
21
37
52
41
9
9
27
33
21
34
51
39
9
9
26
31
21
34
49
39
9
9
25
31
20
34
50
39
8
9
25
30
20
35
50
39
8
9
24
28
20
35
49
39
8
9
24
26
20
35
49
39
8
9
24
26
20
35
50
39
8
8
24
26
20
34
49
39
8
8
23
26
20
35
50
39
8
8
23
26
20
34
48
38
8
8
21
24
20
34
45
38
8
8
21
24
20
34
45
38
8
8
20
24
20
33
45
38
8
8
20
23
18
33
45
37
8
8
20
20
18
32
46
34
8
8
20
20
18
32
48
34
8
7
19
20
19
32
46
35
8
7
19
20
19
32
46
34
8
7
18
20
18
32
47
35
8
7
18
19
18
32
46
34
8
7
18
19
18
32
46
34
8
7
17
17
18
32
46
34
8
7
17
17
17
30
46
31
8
7
16
17
17
30
45
28
7
7
16
16
17
29
45
28
7
7
15
16
17
29
44
28
7
7
15
16
17
25
44
27
7
6
15
16
17
25
41
27
8
6
15
15
16
25
41
26
7
6
14
14
16
25
41
26
7
6
14
14
16
24
41
26
7
6
13
14
16
21
41
22
8
6
14
14
16
21
38
20
8
6
14
13
16
21
38
20
8
6
13
13
15
21
38
20
8
6
13
13
10
21
38
19
8
6
13
13
9
21
37
20
8
6
13
11
9
20
36
21
8
6
13
11
9
19
36
21
8
6
12
11
9
19
37
21
8
6
12
10
9
19
37
21
8
6
12
8
9
18
36
21
8
6
10
8
8
18
36
26
10
6
9
8
8
18
34
30
13
6
9
7
8
17
33
29
13
6
9
7
7
17
33
29
13
5
9
7
7
16
33
29
13
5
8
7
6
16
32
32
13
5
8
7
6
16
33
34
13
5
8
7
6
16
32
34
13
5
7
7
6
16
32
34
13
5
7
7
6
15
32
34
13
5
7
7
6
14
31
34
13
4
7
6
5
12
30
34
13
4
7
6
5
12
31
34
13
4
6
6
5
12
31
34
13
4
5
6
5
11
29
34
13
4
5
6
5
11
29
34
13
4
5
5
5
9
27
34
13
4
5
5
5
9
27
34
13
4
5
5
5
9
28
33
14
4
5
5
5
9
30
33
14
4
5
5
5
9
30
33
14
4
5
5
5
9
30
33
14
4
5
5
4
9
28
33
14
4
5
3
4
9
26
33
13
4
5
3
4
9
26
33
13
4
4
3
3
9
26
33
13
4
4
3
3
9
25
33
13
4
4
3
3
8
24
33
13
4
3
3
3
8
24
33
13
4
3
3
3
7
25
32
13
4
3
3
3
7
26
32
13
4
3
3
3
7
26
32
13
4
3
2
3
7
26
32
13
4
3
2
3
7
27
32
13
4
3
2
3
7
27
32
13
4
3
2
3
7
27
32
13
4
3
2
3
7
27
32
13
4
3
2
2
7
28
32
13
4
3
2
3
7
29
32
13
4
3
2
2
8
30
32
13
3
2
2
2
8
30
31
12
3
2
2
2
8
30
32
12
3
2
2
2
8
30
32
12
3
2
2
2
8
29
32
12
3
2
2
2
8
29
31
12
3
2
2
2
8
29
31
12
3
2
1
2
8
29
30
12
3
2
1
2
8
29
30
12
3
2
1
2
8
29
30
12
3
2
1
2
8
29
30
12
3
2
1
2
8
30
27
10
2
2
1
2
8
30
24
7
2
2
1
2
8
30
24
7
2
2
1
2
8
30
24
7
2
2
1
2
8
30
24
7
2
2
1
2
8
30
20
6
2
2
1
2
7
30
17
6
2
2
1
2
7
30
17
6
2
2
1
2
7
30
18
6
2
2
1
2
7
30
17
6
2
2
1
2
7
30
17
6
2
2
1
2
7
30
18
6
2
2
1
2
6
28
17
6
2
2
1
2
6
28
17
5
2
1
1
2
6
28
16
5
2
1
1
2
6
28
16
5
2
1
1
2
6
28
16
5
2
1
1
2
6
28
16
5
2
1
1
2
6
27
16
5
2
1
1
2
5
24
16
5
2
1
1
2
5
23
16
5
2
1
1
2
5
23
16
5
2
1
1
2
5
23
17
5
2
1
1
2
5
23
20
6
2
1
1
2
6
23
20
6
2
1
1
2
6
23
20
6
2
1
1
2
5
23
20
6
2
1
1
2
5
23
20
6
2
1
1
2
5
23
21
7
2
1
1
2
5
21
21
7
2
1
1
2
5
21
21
7
2
1
1
2
5
21
21
7
2
1
1
2
5
21
21
7
2
1
1
2
5
20
21
7
2
1
1
2
5
20
21
7
2
1
1
2
5
20
21
7
2
1
1
2
5
19
22
7
2
1
1
2
5
18
22
7
2
1
1
2
5
16
21
7
2
1
1
2
5
14
21
7
2
1
1
2
5
14
21
6
2
1
1
2
5
14
20
6
2
1
1
2
5
14
20
6
2
1
1
2
5
15
20
6
2
1
1
2
5
15
20
6
2
1
1
2
5
16
20
6
2
1
1
2
6
18
21
6
2
1
1
2
6
19
21
6
2
1
1
2
6
19
21
6
2
1
1
3
6
22
21
6
2
1
6
3
6
24
20
6
2
1
7
3
6
24
19
5
2
2
10
4
8
26
19
6
3
2
11
4
8
28
19
6
3
2
11
5
9
28
19
6
3
5
15
5
10
33
22
6
3
8
16
5
10
33
23
6
3
13
17
6
11
33
24
6
3
15
17
6
12
34
25
6
3
16
17
7
12
34
25
7
3
16
17
9
14
35
25
7
6
18
18
9
14
35
25
7
6
19
20
10
17
37
25
7
7
19
21
10
17
40
25
8
7
19
25
11
18
40
27
9
8
22
25
12
21
40
27
9
8
22
26
13
22
40
27
9
9
23
27
13
23
41
27
9
9
23
28
15
23
41
28
9
10
25
28
15
25
43
30
10
10
27
28
16
25
46
32
11
10
27
29
16
26
47
32
11
10
28
33
17
26
48
32
11
10
30
34
17
26
48
31
10
10
30
35
18
27
51
32
10
10
30
35
18
28
53
36
11
11
31
36
18
28
53
36
11
11
31
36
18
29
54
36
10
11
32
38
19
29
55
37
11
12
34
39
19
29
55
38
11
12
34
39
19
29
55
38
11
12
34
39
19
30
56
38
11
12
34
39
19
30
56
38
11
13
35
39
19
30
56
39
11
13
35
39
19
31
56
38
11
13
36
40
21
33
57
38
12
14
37
40
23
34
59
40
12
14
37
40
24
37
60
40
12
14
37
41
24
37
60
41
12
14
37
41
24
37
61
41
12
14
37
41
24
39
63
42
13
14
37
41
24
39
65
43
13
14
37
41
25
39
66
44
13
15
37
42
25
39
69
46
14
15
38
42
25
39
69
46
14
15
38
42
26
40
69
46
14
15
38
42
27
40
70
47
14
15
38
42
30
41
70
47
14
15
39
42
30
41
73
47
14
15
39
42
30
41
72
47
14
15
39
42
31
42
72
47
14
15
39
42
31
42
73
47
14
15
40
41
31
41
73
47
14
15
40
41
31
42
72
48
14
15
40
41
31
42
72
48
14
15
40
40
31
45
72
46
14
15
40
42
31
45
71
46
14
15
38
42
31
46
71
46
14
15
38
42
31
46
71
45
14
15
37
42
31
46
72
45
14
15
37
42
30
45
71
46
14
15
37
42
31
46
71
46
14
14
36
41
30
46
71
46
14
14
36
41
31
46
69
46
14
14
37
39
30
47
70
45
13
14
35
41
30
47
69
46
13
14
35
40
30
46
69
46
13
13
34
39
30
46
70
46
13
13
34
39
29
47
70
46
13
13
33
39
29
46
69
44
13
13
31
40
29
46
68
43
13
13
31
41
29
46
67
43
12
13
30
37
28
46
69
43
12
13
29
36
28
48
69
44
12
13
29
36
28
48
69
44
12
13
29
36
28
48
68
40
12
13
28
36
28
49
67
42
12
13
28
35
28
49
68
44
12
13
28
33
28
50
67
43
12
12
25
32
28
50
67
43
12
12
25
33
28
49
67
44
12
12
25
33
28
50
68
45
12
12
24
32
28
50
68
45
12
11
23
33
28
52
68
45
12
11
24
33
28
52
68
45
12
12
24
33
29
53
67
46
11
10
24
35
27
52
66
45
11
10
23
35
27
50
66
46
12
11
24
35
27
50
66
45
12
11
24
35
27
51
66
45
12
11
26
35
27
49
64
44
12
11
29
36
27
50
63
46
12
11
29
36
27
50
61
44
12
11
29
36
27
50
59
43
11
11
29
36
27
50
58
42
11
11
30
36
27
49
58
42
11
11
30
36
25
50
57
42
11
11
30
36
21
49
57
42
11
10
29
36
21
49
54
42
11
10
29
37
21
49
53
43
11
10
29
37
21
50
55
43
11
11
29
37
21
50
54
46
12
11
28
37
21
50
54
46
12
11
28
37
21
51
55
45
12
11
27
37
21
51
54
45
12
11
27
37
20
48
53
45
12
11
27
34
20
49
55
45
12
11
27
33
21
50
55
45
12
11
27
33
20
50
56
45
12
11
27
33
20
50
55
44
12
11
27
33
20
51
56
47
12
11
27
33
20
51
56
47
12
10
28
33
21
50
56
48
11
10
29
33
21
50
56
48
11
10
28
33
21
49
56
48
11
10
29
31
21
48
56
48
11
10
30
32
21
48
57
48
11
10
30
32
20
51
57
48
11
11
30
32
24
52
57
49
12
12
31
31
24
52
57
49
12
12
31
31
24
53
57
48
12
12
32
30
25
53
57
48
12
12
32
31
26
52
54
47
12
12
32
32
26
51
53
47
12
12
32
31
26
50
50
46
12
12
32
32
26
51
51
48
12
12
33
33
26
50
54
47
12
12
33
33
26
50
55
46
12
12
33
33
26
50
55
45
12
12
33
33
26
50
55
45
12
12
34
33
26
50
55
43
12
12
34
33
26
50
54
42
12
12
34
33
26
49
54
43
12
12
34
33
26
50
55
42
12
12
35
34
26
50
56
44
12
12
35
35
24
49
56
43
12
11
34
32
24
49
56
43
12
11
34
31
24
49
55
42
10
11
34
32
24
49
55
43
10
11
34
31
24
49
55
43
10
11
32
31
24
49
55
43
10
10
29
31
24
48
54
41
10
10
29
31
24
49
55
41
9
10
30
31
24
50
57
41
10
10
31
31
24
52
60
42
10
10
32
31
24
52
62
42
10
10
35
31
24
53
62
42
10
10
35
31
24
53
62
43
10
10
35
30
24
53
62
44
10
10
35
30
24
53
63
44
10
10
35
30
24
53
61
44
10
10
35
29
24
53
62
41
9
10
35
29
24
53
61
41
9
10
35
29
24
52
62
44
10
10
36
29
24
53
63
46
11
11
36
30
25
55
66
47
11
11
36
30
25
55
64
47
11
11
37
30
25
53
64
47
11
11
38
30
25
53
63
48
11
11
38
30
25
54
64
48
11
11
38
30
25
54
64
45
11
11
38
30
25
54
64
45
11
11
38
30
25
53
63
44
11
11
37
30
25
54
63
44
11
11
37
30
26
54
65
44
11
11
37
29
26
54
65
44
11
11
36
29
26
54
64
44
11
11
36
28
25
53
64
44
11
10
37
29
22
52
64
45
10
8
36
29
22
52
64
45
9
8
37
29
22
52
64
46
10
8
36
29
21
52
64
46
10
8
36
28
19
52
64
47
10
8
36
28
19
52
65
47
10
9
35
28
19
52
65
47
10
10
35
28
19
51
64
49
10
10
35
26
19
51
62
49
10
10
35
26
19
51
63
49
10
10
35
25
19
51
63
49
10
10
35
25
19
51
65
50
10
10
35
25
19
50
66
50
10
10
35
28
19
50
66
50
10
10
34
29
20
51
68
52
11
10
34
28
19
48
67
52
11
10
33
27
19
48
67
50
11
10
32
27
19
49
68
50
11
10
32
27
19
49
68
50
11
10
32
27
20
50
68
51
12
11
32
27
22
51
68
50
12
11
33
27
22
51
68
51
12
11
33
27
21
51
68
50
12
11
33
27
21
51
68
51
12
11
33
26
21
50
68
51
12
11
32
26
21
50
66
51
12
11
32
26
20
48
63
51
12
11
29
26
21
47
62
51
13
12
26
26
21
46
62
51
13
12
27
26
22
46
62
51
13
12
27
26
22
46
64
50
13
12
28
26
22
46
65
49
13
12
28
28
23
45
65
50
14
12
28
28
22
45
64
50
14
12
28
29
22
46
65
51
14
12
28
29
22
45
64
49
13
12
28
28
23
44
63
47
13
12
27
28
22
41
61
45
13
12
28
28
22
41
61
46
13
12
27
28
23
42
61
47
14
13
28
28
24
43
63
47
14
13
28
28
24
42
61
46
14
13
28
28
24
40
61
47
14
13
28
28
24
41
61
47
14
13
28
29
24
41
62
46
14
13
28
30
23
40
62
46
14
13
28
30
23
41
61
46
14
13
29
30
23
42
61
46
14
13
29
30
23
42
61
47
14
13
28
30
23
40
60
48
14
13
29
29
23
40
60
48
14
13
30
29
23
40
60
48
14
13
29
29
24
39
59
48
15
13
29
29
24
39
60
47
15
13
30
29
24
39
60
48
16
15
32
28
25
39
59
48
16
14
33
28
25
41
59
48
16
15
37
28
24
41
59
45
16
15
36
29
25
41
62
47
16
15
36
29
25
41
59
47
16
15
36
29
25
41
59
47
16
15
36
29
25
41
57
46
16
15
36
29
24
41
56
46
16
15
36
26
24
42
55
47
16
15
36
25
24
41
52
45
15
15
37
25
24
41
51
45
16
15
38
26
25
42
51
46
15
15
38
26
26
41
50
47
16
16
39
26
26
40
53
47
16
16
39
26
25
41
52
47
16
15
39
25
24
39
52
47
16
15
40
25
24
39
52
46
16
15
43
25
24
39
52
50
16
15
44
24
24
40
53
49
16
15
44
24
24
40
52
49
16
15
44
25
24
40
54
48
16
15
44
25
24
40
54
49
16
15
44
24
24
42
54
48
15
15
44
25
24
42
54
48
15
15
44
27
24
43
54
48
15
15
44
27
24
44
52
47
14
15
44
27
24
44
51
47
15
15
45
26
23
44
51
47
14
15
45
26
23
43
53
48
14
15
46
25
23
43
52
48
15
15
46
25
23
45
54
48
15
15
46
25
24
44
53
48
14
15
46
25
24
44
54
48
14
15
45
25
24
45
54
49
14
15
45
25
23
45
54
48
13
14
44
25
22
44
54
48
13
14
45
25
21
44
54
48
13
14
47
26
22
47
55
48
13
14
48
26
23
46
55
48
13
14
50
25
23
48
55
49
13
14
50
24
23
48
55
49
14
14
50
23
24
48
56
49
13
14
51
23
24
47
57
49
13
14
51
24
24
47
56
49
13
14
52
24
24
47
57
47
13
14
52
24
24
47
58
47
13
14
54
24
23
47
58
48
13
14
54
24
23
47
59
47
12
14
55
24
23
47
59
49
13
14
58
25
22
47
59
48
11
12
57
25
22
47
59
48
11
12
58
25
22
46
59
48
11
11
56
25
22
47
60
47
11
12
56
24
22
47
59
46
11
12
56
27
22
49
60
46
12
12
56
27
23
49
61
46
12
12
56
27
23
49
61
46
12
11
56
27
23
49
61
46
12
11
57
27
23
47
62
45
11
11
57
27
23
47
62
45
11
11
57
27
23
47
62
45
11
10
56
26
21
47
63
44
11
10
56
26
20
47
63
44
10
10
55
26
20
47
61
43
10
10
55
27
20
46
63
43
10
9
55
27
20
46
63
43
10
9
54
27
19
46
63
43
10
9
51
27
19
47
62
39
9
9
51
26
19
46
61
39
9
9
51
26
19
46
61
39
9
8
51
26
19
46
60
39
9
8
50
26
19
46
61
38
9
8
50
26
18
44
60
38
9
8
50
25
18
44
59
38
9
8
49
23
18
43
59
38
9
8
49
23
17
43
59
38
9
8
49
23
17
43
59
38
9
7
49
22
17
43
59
38
9
7
48
22
17
43
57
36
9
7
47
22
17
42
58
34
8
7
47
22
17
41
57
34
8
7
46
22
15
41
57
34
8
7
46
21
15
41
56
34
8
7
46
21
15
40
56
34
8
7
46
21
15
40
56
33
8
7
46
21
15
39
54
32
7
7
45
21
15
39
54
33
8
7
43
20
13
36
53
33
8
6
42
20
12
35
53
33
8
6
40
20
12
33
53
32
8
6
39
20
11
33
51
31
8
6
39
20
10
32
50
31
8
5
38
20
10
31
50
31
8
5
38
18
9
31
50
30
8
5
35
18
9
31
49
30
8
5
35
18
9
31
47
29
8
5
31
18
9
30
47
31
9
5
31
18
9
29
46
30
9
5
28
18
8
29
45
27
8
5
22
15
8
29
46
26
8
5
22
15
8
29
46
27
9
4
16
15
8
28
46
27
9
4
14
15
8
26
45
27
9
4
14
14
8
26
43
25
9
4
14
10
7
22
42
25
8
3
12
9
6
22
40
25
8
3
12
9
6
21
40
25
8
3
11
9
5
21
39
24
8
3
7
8
5
21
38
24
8
3
4
8
5
21
38
24
8
3
4
8
5
21
38
24
8
3
3
8
5
19
36
24
8
3
3
7
5
19
35
24
8
3
3
7
4
19
35
24
8
2
3
6
4
18
32
24
8
3
3
4
4
17
32
24
8
3
3
4
4
17
31
23
8
3
3
4
4
15
31
23
8
3
3
4
4
14
31
23
8
3
3
4
4
14
31
23
8
2
3
4
4
13
31
23
8
2
3
4
4
13
31
23
8
2
3
4
4
12
31
23
8
2
2
3
4
12
31
23
8
2
2
2
4
11
30
23
8
2
2
2
4
11
28
23
8
2
2
2
3
11
27
23
8
2
2
2
3
9
27
23
8
2
2
2
3
8
27
23
8
2
2
2
3
8
26
23
8
2
2
2
3
8
22
22
8
2
2
2
3
7
22
23
8
2
2
2
3
7
21
23
8
2
2
2
3
7
21
23
8
2
2
2
3
7
21
23
8
2
2
1
3
7
21
23
8
2
2
1
3
7
20
23
8
2
2
1
3
6
20
22
8
2
2
1
3
6
19
22
7
2
2
1
3
6
19
21
7
2
2
1
3
6
19
21
7
2
2
1
3
6
19
21
7
2
2
1
3
6
19
21
7
2
2
1
3
5
19
21
7
2
2
1
3
5
19
21
7
2
2
1
3
5
19
21
7
2
2
1
2
5
19
19
6
2
2
1
2
6
19
19
6
2
2
1
2
5
19
19
6
2
2
1
2
5
15
18
6
2
2
1
2
5
15
18
5
2
2
1
2
5
15
18
5
2
2
1
2
5
16
17
5
2
2
1
2
5
16
17
5
2
2
1
2
5
16
17
5
2
2
1
2
4
16
17
5
2
2
1
2
4
16
17
4
2
2
1
2
5
16
17
4
2
2
1
2
5
15
17
4
2
2
1
2
5
15
17
5
2
2
1
2
5
15
17
5
2
2
1
2
5
15
17
5
2
2
1
2
5
15
17
5
2
2
1
2
4
15
17
5
2
2
1
2
4
15
17
4
2
2
1
2
4
14
17
4
2
2
1
2
4
14
17
4
2
2
1
2
4
13
17
4
2
2
1
2
4
13
17
4
2
2
1
2
4
13
17
5
2
2
1
2
4
10
17
5
2
2
1
2
4
9
17
5
2
2
1
2
4
9
19
5
2
2
1
2
4
9
19
5
2
2
1
2
4
11
19
5
2
2
1
2
3
13
19
5
2
2
1
2
3
13
19
5
2
2
1
2
3
13
19
5
2
2
1
2
4
13
19
5
2
2
1
1
4
14
19
5
2
2
1
1
4
14
19
5
2
2
1
1
4
14
18
5
2
1
1
1
4
14
18
5
2
1
1
1
3
14
18
5
2
1
1
1
3
14
17
5
1
1
1
1
3
15
18
5
1
1
1
1
3
15
17
5
1
1
1
1
3
15
17
5
1
1
1
1
3
16
17
5
2
1
1
1
3
16
17
5
2
1
2
1
3
16
17
5
2
1
2
1
3
16
17
5
2
1
2
3
5
18
18
5
2
2
2
5
11
18
19
6
4
5
3
5
11
18
19
6
4
5
3
6
11
21
18
6
4
5
3
10
12
21
20
7
5
9
7
10
12
23
20
7
5
13
7
10
13
28
23
7
6
14
8
12
16
30
25
8
6
16
15
12
16
35
25
8
6
16
15
13
19
36
25
8
6
18
15
13
23
37
25
9
6
21
16
14
23
37
25
9
6
23
16
14
23
38
25
9
6
23
17
15
26
40
25
9
7
26
20
15
29
40
26
9
7
26
21
16
30
42
28
9
8
30
21
16
30
42
28
9
8
31
21
17
31
42
28
10
8
32
25
17
33
42
29
10
8
32
28
18
36
42
30
10
9
32
28
19
41
43
30
10
9
33
28
19
41
44
31
10
9
33
29
19
41
46
31
10
9
33
30
19
42
46
31
10
9
33
30
19
43
46
31
10
9
33
31
20
43
48
31
11
11
34
32
21
43
48
32
11
12
35
32
22
44
48
32
11
12
35
33
22
44
48
32
11
12
35
33
23
44
49
33
11
12
35
34
23
46
50
32
11
12
35
34
23
48
53
33
11
12
37
35
23
48
54
33
11
13
40
35
23
48
55
34
11
13
41
35
24
48
56
36
11
13
41
35
24
49
56
36
11
14
41
35
24
50
56
36
11
14
42
35
24
50
56
36
11
14
42
35
25
50
57
36
12
14
42
35
25
50
56
36
12
14
42
36
25
50
57
36
12
14
42
36
25
51
57
37
12
14
42
36
25
51
57
37
12
14
42
36
26
51
57
38
12
14
42
37
26
51
58
38
12
14
45
37
26
51
58
38
12
14
45
38
26
51
58
38
12
14
45
38
28
51
58
38
12
14
45
38
28
51
59
40
12
14
46
38
28
52
59
41
12
14
46
38
28
52
61
40
12
14
46
38
28
52
61
40
12
14
46
38
28
52
60
40
12
14
47
38
28
52
60
40
12
14
47
38
27
52
60
40
12
14
46
38
27
53
59
40
12
14
46
38
27
53
60
40
11
13
46
41
26
53
59
39
11
13
46
39
26
53
59
41
11
13
46
39
26
53
58
41
11
13
45
39
26
53
58
41
11
13
44
39
26
53
58
41
11
13
43
39
26
53
57
42
11
13
43
39
25
51
56
42
11
14
43
38
25
50
56
41
11
14
43
38
27
53
55
42
12
14
40
38
27
53
56
42
12
14
40
38
27
53
55
42
11
14
39
36
26
52
55
42
12
14
39
34
26
50
55
41
12
14
39
34
26
47
55
41
12
14
39
34
26
47
54
41
13
14
40
33
26
48
53
44
12
14
41
33
26
47
53
47
13
14
41
33
26
47
54
47
13
14
42
32
25
46
53
47
13
13
41
31
25
47
53
46
13
12
40
30
25
46
53
46
13
13
43
30
25
46
55
46
13
13
46
35
25
46
54
46
13
13
47
35
25
47
56
48
14
13
48
34
25
46
55
47
14
13
46
34
26
46
54
47
14
13
44
33
25
46
52
47
14
13
44
33
25
48
51
45
14
13
44
34
25
47
51
47
14
13
44
34
26
47
53
47
14
13
45
34
26
47
54
47
14
14
45
34
26
47
54
47
14
13
46
35
26
46
54
47
14
13
46
36
26
46
54
47
14
13
47
36
26
46
56
48
14
13
47
36
27
46
56
49
14
14
48
37
27
46
56
50
14
14
48
37
28
46
57
50
15
14
47
37
28
46
58
53
15
15
48
37
28
48
61
56
15
15
48
36
26
48
62
56
15
15
48
36
26
48
62
55
15
15
47
37
27
47
61
55
16
15
46
37
27
48
60
55
16
15
46
37
26
47
60
55
16
15
46
37
27
47
60
55
16
15
47
38
27
48
60
56
16
15
48
38
27
48
61
56
16
15
48
38
27
47
61
56
16
15
48
38
27
47
58
55
16
16
48
35
27
47
58
55
16
16
48
35
27
47
56
55
16
16
48
36
27
46
56
55
17
17
49
37
27
45
56
55
17
17
49
37
27
47
59
56
17
17
48
37
27
49
61
57
17
17
48
37
27
50
62
58
17
17
48
37
28
52
64
58
17
17
48
37
26
49
64
57
16
16
48
36
26
49
64
57
16
16
48
36
25
48
64
57
16
16
48
38
25
49
64
57
15
15
48
38
26
49
64
58
16
16
48
38
26
48
65
58
16
16
48
39
26
48
67
58
15
16
48
40
26
47
67
56
15
17
47
41
26
47
69
54
15
17
47
41
27
48
68
54
15
17
46
41
27
48
68
54
15
17
46
42
27
48
69
54
14
16
46
41
26
48
69
54
14
16
44
41
26
48
67
54
14
16
41
37
26
48
68
54
14
16
40
37
26
45
66
52
14
16
39
38
26
45
65
52
14
16
39
38
25
45
65
52
14
16
39
38
25
45
66
53
14
16
39
38
25
43
66
53
14
16
39
38
26
43
66
52
15
16
39
38
25
43
65
52
14
16
38
39
25
43
65
52
14
16
37
39
25
43
66
52
14
16
37
39
24
44
67
52
14
16
38
39
25
44
66
53
14
16
37
39
25
44
64
53
15
17
37
39
25
45
65
53
15
17
36
38
23
45
66
52
15
16
35
39
22
45
66
52
15
16
35
39
22
46
64
49
14
16
34
39
22
44
63
47
14
16
33
39
23
44
62
47
14
16
34
39
22
44
63
48
14
16
33
39
21
45
64
48
14
15
34
38
23
47
64
48
14
15
34
41
23
47
65
48
14
16
34
41
23
47
66
48
13
16
33
41
24
46
66
48
13
16
32
40
24
47
66
48
13
16
33
40
24
46
66
48
13
16
33
40
24
46
68
48
13
15
32
40
24
46
70
49
13
15
32
40
24
46
70
47
13
15
32
39
24
46
70
46
12
14
32
38
24
45
71
46
12
14
32
38
24
44
69
45
12
14
32
38
24
41
67
44
12
14
32
38
24
40
66
42
12
14
30
38
24
38
64
42
12
14
30
38
24
37
64
43
12
14
30
38
24
37
65
43
12
14
30
38
24
38
65
42
11
14
30
37
24
37
66
42
11
14
30
36
23
38
66
42
11
13
30
36
23
39
65
41
11
13
30
35
23
39
64
41
11
13
30
36
23
40
63
41
11
12
30
36
24
40
61
41
11
12
30
35
23
40
61
41
11
12
31
35
23
40
61
41
11
12
32
35
23
40
60
41
11
12
33
37
24
40
61
42
11
12
34
37
26
40
61
45
12
12
35
38
25
40
62
48
12
12
36
38
25
40
63
48
12
12
36
38
25
40
64
49
12
12
36
39
26
40
64
50
12
12
36
39
25
40
64
50
11
11
35
40
26
40
64
50
11
11
35
40
25
40
65
50
11
11
35
40
25
40
65
51
11
11
35
39
25
41
65
52
11
11
35
39
26
42
64
52
11
12
34
38
25
42
63
52
11
11
33
37
26
42
63
51
11
11
34
36
26
44
65
52
12
12
34
37
26
43
67
53
11
11
34
38
27
43
68
53
11
11
35
38
27
44
67
53
11
11
35
37
27
42
68
53
12
12
35
37
28
42
68
53
12
12
35
37
30
42
67
53
12
12
35
37
30
42
66
52
12
12
34
37
29
43
65
52
12
12
34
37
28
40
65
52
12
13
34
34
28
41
65
53
13
13
34
34
28
40
66
54
13
13
34
34
27
41
67
54
13
13
34
34
27
41
68
53
13
13
32
34
27
42
68
54
14
14
32
34
29
43
66
54
15
15
32
34
29
43
64
56
15
15
32
34
29
43
64
56
15
15
32
34
29
43
65
56
15
15
31
34
32
46
66
57
16
16
31
34
34
48
66
58
17
17
32
35
34
48
66
58
17
17
32
35
34
48
66
58
17
17
33
35
34
48
66
58
17
18
33
35
34
48
67
57
17
18
34
36
34
49
67
57
17
18
34
36
34
48
67
57
17
18
34
36
34
49
67
57
17
18
34
37
35
51
68
60
17
18
34
37
35
51
68
59
17
18
34
37
35
52
68
59
17
18
34
35
35
52
69
60
17
18
34
35
35
53
70
60
17
18
34
36
34
53
71
61
17
18
33
35
34
53
71
62
17
18
32
35
34
53
71
61
17
18
31
33
35
55
71
60
17
18
29
35
34
56
73
58
17
18
27
35
34
56
72
57
17
18
28
34
35
56
71
57
17
18
28
34
35
56
71
56
17
18
28
33
35
56
71
57
17
18
27
33
35
56
70
57
17
18
28
32
35
56
71
56
17
18
27
32
35
57
70
56
17
18
27
32
34
57
71
56
17
18
27
32
35
57
70
55
17
18
27
32
34
56
70
55
17
18
26
32
34
56
71
55
17
18
26
32
35
56
72
58
17
18
25
32
35
55
69
55
16
17
25
30
35
57
67
54
16
17
26
29
34
58
66
54
16
17
25
29
35
58
65
55
16
17
25
30
36
59
65
55
16
17
26
30
35
59
65
54
16
17
26
32
34
59
65
54
16
17
26
32
34
59
66
54
16
18
26
33
34
58
66
54
16
18
27
34
34
58
65
54
16
17
27
34
34
57
65
53
15
17
27
34
34
57
64
52
15
16
27
34
34
57
63
53
15
16
28
33
34
57
63
53
15
17
29
34
34
56
62
52
14
16
28
35
32
56
62
52
13
15
28
35
32
56
62
50
13
15
28
35
32
56
62
50
13
15
28
35
32
56
62
50
13
15
28
35
30
54
62
50
12
14
28
35
28
53
62
50
11
13
27
34
28
53
62
51
11
12
27
34
28
53
62
51
11
12
28
34
28
53
62
51
10
11
28
33
28
53
62
51
10
11
26
32
28
53
61
51
10
11
26
32
28
53
62
51
10
11
26
32
27
53
61
51
10
11
27
32
27
50
60
48
10
11
27
31
26
49
60
50
10
11
26
31
26
48
61
51
10
11
27
31
26
47
60
51
10
11
27
31
26
46
58
50
10
10
27
31
26
46
56
49
10
10
27
30
26
46
56
48
10
10
27
30
26
46
56
50
10
10
27
30
23
43
55
51
10
10
27
28
23
42
53
51
10
10
28
27
23
43
53
50
10
10
28
27
24
43
51
49
10
10
27
27
23
43
50
49
10
10
27
26
23
43
51
48
10
9
27
26
23
42
53
47
10
9
27
26
23
43
52
47
10
9
27
26
23
42
52
47
10
9
27
26
23
41
52
46
10
9
27
26
22
41
52
46
10
9
27
26
23
41
51
46
10
9
27
26
22
41
51
46
10
9
27
26
21
41
49
43
9
9
27
26
21
39
49
42
9
9
26
26
20
36
48
42
8
9
26
26
20
34
48
41
8
9
25
25
20
34
48
40
8
9
25
24
18
33
48
40
8
8
24
23
17
32
47
40
8
7
23
21
17
32
47
40
8
7
23
21
17
32
46
39
7
5
23
20
17
31
46
39
7
5
22
18
16
31
46
38
7
5
22
18
16
31
45
39
7
5
22
18
16
30
43
39
7
5
22
18
16
30
43
37
7
5
21
18
16
30
43
37
7
5
20
18
16
30
43
37
7
5
20
13
16
28
42
36
7
5
20
13
16
28
42
36
7
5
19
13
15
27
41
36
7
5
19
13
15
26
40
36
7
4
19
13
12
26
37
36
7
4
18
13
12
24
35
32
7
4
18
12
12
23
35
32
7
4
17
12
11
23
35
32
7
4
15
12
11
22
34
32
7
4
15
12
11
22
33
32
7
4
15
12
11
22
33
32
7
4
15
11
10
21
30
31
7
4
13
10
10
20
30
31
7
4
12
10
10
20
30
31
8
4
12
9
10
20
28
28
8
4
12
9
10
20
28
26
7
3
10
8
10
19
28
26
7
3
10
7
10
19
28
27
7
4
10
7
10
18
27
26
7
3
10
7
10
18
27
26
8
3
10
7
10
17
27
24
7
3
9
7
9
17
27
20
7
3
9
7
9
16
27
20
7
3
8
6
8
13
26
19
7
3
6
6
6
12
26
19
7
3
6
6
6
12
26
20
7
3
5
5
6
13
25
19
7
3
5
5
6
13
21
19
7
3
5
5
5
7
20
19
7
3
4
5
5
6
19
20
8
3
4
5
4
6
19
20
8
2
4
4
4
6
19
20
8
2
4
4
4
6
19
20
8
2
4
4
3
6
19
20
8
2
3
3
3
6
19
21
8
2
2
3
3
6
19
21
8
2
2
3
3
6
19
21
7
2
2
3
3
6
19
21
8
2
2
2
3
6
19
21
8
2
2
2
3
6
19
21
8
2
2
2
3
6
19
21
7
2
2
2
3
6
17
21
8
2
2
2
3
6
17
21
8
2
2
2
3
6
17
21
8
2
2
2
2
6
17
21
7
2
2
2
2
6
16
18
7
2
2
2
2
6
16
18
7
2
2
2
2
6
17
18
7
2
2
2
2
6
16
18
7
2
2
2
2
6
16
18
7
2
2
2
2
6
15
18
7
2
2
2
2
6
15
18
7
2
2
1
2
6
15
18
7
2
2
1
2
6
15
19
7
2
2
1
2
6
15
18
7
2
2
1
2
6
16
19
7
2
2
1
2
6
16
19
6
2
2
1
2
6
16
18
6
2
2
1
2
6
16
18
6
2
2
1
2
6
16
18
7
2
2
1
2
6
16
18
7
2
2
1
2
6
16
19
7
2
2
1
2
6
16
18
6
2
2
1
2
6
16
18
6
2
2
1
2
6
16
18
6
2
2
1
2
6
16
18
6
2
2
1
2
6
16
18
6
2
2
1
2
6
16
17
6
2
2
1
2
6
16
17
6
2
2
1
2
6
16
17
6
2
2
1
2
6
16
17
6
2
2
1
2
7
18
18
6
2
2
1
2
7
18
18
6
2
2
1
2
7
18
18
6
2
2
1
2
7
18
18
7
2
2
1
3
6
18
18
6
2
2
1
2
5
18
18
6
2
2
1
2
5
19
17
6
2
2
1
2
5
20
17
6
2
2
1
2
6
23
17
6
2
2
1
2
6
23
16
6
2
2
1
2
6
23
16
6
2
2
1
2
6
23
16
6
2
2
1
2
6
26
16
6
2
2
1
2
6
27
15
6
2
2
1
3
7
28
15
6
2
2
1
3
7
28
15
6
2
2
1
3
8
29
15
6
2
2
2
3
8
30
17
6
2
2
2
3
8
31
17
6
3
2
2
3
8
32
17
6
4
2
2
3
8
32
18
6
4
2
2
3
8
32
18
6
4
2
4
3
9
32
18
7
4
3
13
3
9
34
18
7
5
3
15
3
9
35
18
7
5
3
15
5
9
38
19
7
5
4
15
7
10
40
21
7
6
7
16
7
10
40
21
8
8
7
20
7
10
41
21
8
10
8
20
8
11
44
25
8
10
8
21
8
11
48
26
8
10
10
22
9
11
48
26
8
11
13
22
11
12
48
26
9
11
13
23
12
12
49
28
10
12
16
23
12
14
49
29
10
12
16
23
12
16
50
30
10
12
16
27
13
18
50
31
10
12
19
27
13
18
51
31
10
13
20
27
13
18
52
31
11
15
23
29
13
20
53
33
11
15
24
31
14
21
54
32
11
15
27
34
14
21
55
33
11
15
31
34
14
25
56
35
11
15
31
35
14
27
56
35
12
15
31
36
14
32
59
35
12
15
31
36
14
33
60
35
11
15
31
36
14
33
61
36
11
15
32
37
15
33
61
36
11
16
33
37
15
33
61
36
11
16
34
37
15
34
63
37
11
16
34
37
16
36
63
39
12
17
35
37
18
40
63
43
13
18
36
37
18
41
66
43
13
18
37
38
18
41
66
43
13
18
37
39
18
42
66
44
13
18
37
39
18
42
65
46
13
18
37
39
18
42
66
48
13
18
38
40
18
43
66
48
14
19
38
40
19
44
65
48
14
19
38
40
19
44
65
48
14
19
38
42
19
45
66
48
14
19
38
42
19
45
67
50
14
19
38
42
19
45
66
50
14
19
39
42
20
45
66
51
15
20
39
42
22
45
67
51
16
21
39
42
22
45
67
51
16
21
39
42
22
45
66
51
16
22
40
42
22
45
66
51
16
22
40
43
22
45
66
51
16
22
40
43
22
45
66
51
16
21
40
43
22
46
66
51
16
22
40
43
22
46
66
51
16
22
40
43
22
46
66
51
16
22
41
41
23
47
65
51
16
22
41
40
23
48
65
51
16
22
41
40
23
48
64
51
16
22
41
40
22
48
63
50
16
21
41
40
22
48
62
50
16
21
41
38
22
48
62
50
16
20
41
38
22
48
60
48
16
20
41
38
22
48
58
48
16
20
41
38
22
48
60
50
16
19
40
37
21
48
61
50
15
19
40
37
21
48
61
51
15
19
40
38
21
48
62
51
15
19
40
38
21
48
61
51
15
19
40
35
21
47
62
52
15
19
39
35
20
47
61
52
15
19
39
35
20
47
60
52
15
17
38
34
20
46
59
51
14
17
38
32
20
46
59
51
15
17
37
29
20
46
59
50
14
17
34
30
20
45
58
50
15
17
33
29
20
43
58
49
14
17
33
29
20
40
57
49
14
17
33
29
20
40
57
50
14
17
33
29
20
40
56
50
15
17
33
29
20
40
56
49
15
17
32
29
20
40
56
49
15
17
32
29
20
39
54
48
15
16
32
29
19
39
53
49
15
16
31
30
20
36
54
47
15
16
31
30
20
34
51
47
15
15
31
29
20
34
51
47
15
15
31
27
20
34
52
47
15
15
31
28
20
34
52
44
15
15
33
28
20
34
51
43
15
15
32
29
20
34
53
45
14
15
32
28
20
32
55
45
14
15
33
28
20
32
55
46
14
15
32
26
20
32
55
46
14
15
32
26
20
32
54
44
14
15
32
26
20
32
54
44
14
15
32
26
19
35
55
43
13
13
32
28
17
35
53
43
12
11
33
27
16
35
54
43
12
11
33
27
16
35
56
44
12
11
32
28
16
37
57
44
12
11
32
27
16
37
57
43
12
11
32
27
16
37
56
43
12
11
33
29
17
37
56
43
12
11
33
30
17
37
56
43
12
11
33
30
17
37
56
43
12
10
32
30
16
35
56
44
12
10
32
30
17
35
56
44
12
10
32
31
17
35
56
44
12
11
34
31
17
35
56
44
12
11
36
31
17
35
57
44
12
11
37
31
17
35
57
44
12
11
39
31
17
35
57
43
12
12
43
32
17
36
57
43
12
13
45
32
18
36
56
41
12
13
45
32
18
36
54
40
12
13
45
32
17
37
54
38
12
13
46
32
17
36
53
37
12
13
46
34
17
35
54
37
12
13
46
34
17
36
53
35
12
13
46
34
17
36
53
35
11
13
46
34
18
36
53
35
11
13
45
34
18
37
54
35
12
13
45
34
18
37
55
35
12
13
44
34
18
37
54
35
12
13
45
33
18
37
55
39
12
13
45
32
18
37
55
43
12
13
46
32
18
36
54
43
12
13
46
32
20
38
54
43
12
13
46
32
20
38
55
43
12
13
47
32
20
38
55
43
12
13
46
32
19
38
55
44
12
13
46
32
20
39
58
45
12
13
46
32
19
39
58
42
10
12
48
32
17
40
59
40
9
12
48
33
17
40
59
40
9
12
49
33
17
40
60
41
9
12
49
33
17
39
59
41
10
12
50
33
17
39
60
41
10
12
49
33
18
41
60
40
10
12
50
31
18
40
58
39
10
12
51
31
18
41
59
40
9
12
52
32
18
41
59
41
9
12
53
32
18
41
59
42
10
12
53
33
18
41
60
42
10
12
53
33
18
41
60
42
10
12
53
33
18
38
61
46
11
12
53
32
18
41
62
47
11
12
53
32
18
41
61
47
11
12
53
31
18
41
59
46
11
12
54
31
18
40
59
46
11
12
56
31
18
40
59
46
11
13
57
31
18
41
59
48
11
13
57
30
18
41
59
50
12
13
57
29
19
41
60
50
12
13
58
30
19
41
61
50
12
13
59
30
19
41
61
50
12
13
59
29
19
41
61
50
12
13
59
29
19
41
61
51
12
13
59
28
19
41
61
52
12
13
57
28
19
41
60
52
12
13
57
28
19
41
60
53
12
13
56
28
21
44
61
55
13
12
55
27
21
43
61
55
12
12
53
27
21
43
60
55
12
12
53
27
21
43
60
55
12
12
53
27
20
43
61
55
12
12
52
26
21
43
60
55
12
12
52
25
21
43
60
55
13
12
52
25
20
43
60
55
13
12
52
25
21
42
60
55
13
12
52
25
21
42
60
55
13
12
53
25
21
41
60
56
13
12
55
25
21
42
59
56
13
12
56
25
21
42
60
56
13
12
56
25
22
42
60
54
12
12
56
25
22
42
60
51
12
12
56
25
22
42
60
51
12
12
56
25
20
41
60
50
12
12
56
25
20
41
60
50
12
12
55
25
21
42
60
50
12
12
55
27
21
42
61
50
12
12
55
26
20
41
59
51
12
12
56
26
20
40
60
53
12
12
55
25
20
38
60
53
12
12
54
23
20
38
59
53
12
12
53
23
20
40
60
53
12
12
54
24
20
40
60
53
12
12
55
24
20
40
60
53
12
12
54
25
20
39
60
53
12
12
54
25
20
39
59
52
12
12
53
25
21
38
57
52
12
12
52
24
21
40
58
51
12
12
51
23
22
41
60
51
12
11
51
22
22
41
60
51
12
12
51
22
22
41
60
51
12
12
51
22
21
41
59
48
11
11
51
22
21
38
59
47
11
11
51
22
21
38
58
47
11
11
50
22
21
38
59
48
11
11
51
22
21
38
60
47
11
12
49
24
21
38
60
47
12
12
50
25
21
38
60
45
11
12
52
25
21
38
59
43
10
12
52
24
20
38
58
44
11
12
51
23
21
38
58
45
11
12
50
23
21
38
58
45
11
13
51
23
20
38
57
44
11
13
51
24
20
38
57
44
11
13
50
24
20
38
57
42
11
13
50
24
20
38
58
42
11
13
50
24
20
38
58
41
11
13
50
24
18
35
56
38
10
11
48
24
18
35
56
38
10
12
48
24
18
35
57
38
10
12
48
24
18
35
57
38
10
12
49
24
18
34
57
39
10
12
49
24
18
34
57
41
10
12
49
24
18
34
57
40
10
11
49
24
19
35
57
40
10
12
49
24
18
35
57
40
9
12
49
24
21
35
58
41
9
12
48
24
20
35
58
40
9
11
46
25
20
35
58
40
9
11
45
25
20
35
57
43
9
11
45
25
20
34
57
43
9
11
45
24
19
34
58
43
9
11
45
24
20
34
58
43
9
11
44
25
20
34
58
43
10
12
44
29
20
34
57
43
9
11
44
28
20
34
57
43
9
11
44
27
20
34
57
44
10
11
44
27
21
35
56
43
10
11
44
27
23
35
55
41
10
12
44
28
23
35
55
41
10
12
45
28
23
35
56
41
10
12
45
28
23
33
54
41
10
12
44
27
23
34
54
41
10
12
43
27
23
35
55
41
10
12
43
28
23
35
56
41
10
12
44
28
24
35
55
40
10
12
44
28
23
37
56
40
10
12
45
28
23
35
55
40
10
12
45
28
22
35
52
38
10
12
45
28
22
34
50
38
9
12
45
28
22
34
50
38
9
12
46
28
22
36
52
38
9
12
46
29
22
40
55
38
9
12
47
31
23
39
55
38
9
12
47
31
23
39
55
38
9
11
47
32
23
39
55
38
9
11
46
31
22
38
57
38
9
10
44
31
23
38
57
38
9
10
42
32
23
38
58
42
10
10
42
33
23
38
59
43
10
10
41
33
23
38
59
42
9
10
41
33
23
38
59
42
9
9
40
33
24
39
58
42
9
9
40
33
24
39
58
42
9
9
40
33
24
38
58
42
9
9
40
33
24
38
58
44
9
9
40
33
24
38
58
45
9
9
40
34
24
38
58
47
10
9
42
34
24
38
58
47
10
9
42
34
25
39
57
47
10
9
42
34
24
42
57
48
10
9
41
34
25
43
58
47
10
9
43
35
25
43
59
46
10
9
44
35
25
44
58
46
10
9
44
35
25
46
58
46
11
9
45
35
25
46
58
46
11
9
46
35
23
46
57
45
11
9
46
35
22
49
56
45
11
9
45
34
23
49
57
45
11
9
45
34
23
52
59
43
11
10
45
34
23
53
61
42
11
10
46
34
23
53
60
42
11
9
47
35
23
54
59
42
11
10
47
34
23
53
59
42
11
9
47
31
23
53
59
42
11
9
47
31
23
53
59
43
11
9
46
32
23
53
58
41
10
9
46
32
22
52
58
42
10
9
46
32
20
52
57
41
10
9
46
31
20
52
56
41
10
9
45
31
21
52
56
42
10
9
45
32
21
52
56
42
10
9
44
32
20
52
56
42
10
9
44
32
20
51
54
42
10
9
45
31
20
51
54
42
10
9
45
31
19
51
54
42
10
9
44
31
19
50
53
43
10
9
44
31
19
50
53
43
10
9
44
31
19
50
53
43
10
9
43
31
19
50
53
43
10
9
43
31
19
50
53
43
10
9
42
31
20
49
52
43
10
9
41
30
19
47
49
44
10
9
41
27
19
47
49
44
10
8
41
27
19
47
48
44
10
8
41
27
19
47
46
44
10
8
40
26
19
47
46
44
10
8
40
25
19
47
46
44
10
8
40
24
19
47
45
40
9
8
39
23
19
47
45
38
8
7
39
23
18
46
45
39
8
7
40
22
18
46
44
39
8
8
40
22
17
46
44
39
8
8
41
23
17
46
45
39
9
8
41
22
17
46
44
38
9
8
41
22
16
46
44
37
9
7
41
21
16
46
44
34
8
7
41
20
16
45
44
33
8
7
38
19
16
45
44
33
8
7
38
19
15
44
43
32
8
7
38
19
15
42
43
31
8
7
38
19
14
40
42
31
7
7
35
17
14
40
41
31
7
7
34
16
14
40
41
31
7
7
33
16
14
36
41
31
7
6
32
16
13
36
41
31
7
6
31
16
13
36
40
31
7
6
31
16
13
32
40
31
7
6
31
16
13
31
39
32
8
6
30
16
12
26
35
33
9
6
30
15
11
23
30
33
9
6
29
15
11
23
30
32
9
6
26
14
10
23
30
32
9
6
26
13
9
22
30
32
9
6
26
13
9
22
29
33
10
6
26
12
9
22
29
32
10
6
26
10
9
22
29
33
10
6
26
9
9
22
29
32
10
6
25
9
9
21
28
31
10
5
25
9
9
20
28
31
11
5
25
9
8
19
28
30
11
5
24
8
8
19
28
29
11
5
24
8
8
19
28
28
11
5
24
8
8
18
27
28
11
5
22
8
8
18
26
28
11
5
19
8
8
18
26
28
11
5
18
8
7
17
26
28
11
5
18
7
7
17
24
27
11
5
18
7
7
17
24
27
11
5
18
7
7
17
24
27
11
5
18
7
6
16
23
27
11
5
18
7
5
15
23
26
12
5
17
7
5
13
23
27
12
4
16
7
5
12
22
29
13
5
16
6
5
12
22
29
13
5
16
5
5
12
23
29
13
5
16
5
5
11
20
29
13
5
16
5
5
11
19
28
13
5
16
5
4
10
19
28
13
5
16
5
4
10
17
28
13
5
16
5
4
10
17
28
13
4
14
4
4
10
17
28
13
4
14
4
4
6
17
28
13
4
9
3
3
6
17
27
13
4
9
3
3
6
16
27
13
4
8
3
3
6
16
27
13
4
7
3
3
6
16
27
13
4
6
2
3
6
16
27
13
4
5
2
3
6
16
27
13
4
4
2
2
5
16
27
13
4
4
2
2
5
16
27
13
4
4
2
2
5
16
27
13
4
4
2
2
5
17
27
13
4
4
2
2
5
21
26
13
4
4
2
2
5
21
26
13
4
4
2
2
5
21
26
13
4
4
2
2
5
22
25
13
4
4
2
2
5
24
25
13
4
4
2
2
5
24
24
12
3
4
2
2
5
26
22
11
3
3
2
2
5
26
22
11
3
3
2
2
5
26
22
11
3
3
2
2
5
26
23
11
3
3
2
2
5
28
23
10
3
3
2
2
5
29
21
10
3
3
2
2
5
29
21
10
3
3
2
2
5
29
20
10
3
3
2
2
5
29
20
10
3
3
2
2
5
29
20
9
3
3
1
2
5
29
20
8
2
3
1
2
5
29
20
8
2
3
1
2
5
29
20
8
2
3
1
2
5
29
20
8
2
3
1
2
5
30
19
8
2
3
1
2
5
30
19
8
2
3
1
2
5
30
19
8
2
3
1
2
5
30
19
8
2
3
1
2
5
30
19
8
2
3
1
2
5
30
19
8
2
3
1
2
5
30
18
7
2
3
1
2
5
30
18
7
2
3
1
2
5
30
18
7
2
2
1
2
5
30
16
7
2
2
1
2
5
30
12
5
2
2
1
2
5
30
12
5
2
2
1
2
5
29
12
5
2
2
1
2
5
29
12
5
2
2
1
2
5
29
11
4
2
2
1
2
5
29
11
4
2
2
1
2
5
29
11
4
2
2
1
2
4
29
11
4
2
2
1
2
4
29
11
4
2
2
1
2
4
29
11
4
2
2
1
2
4
29
11
4
2
2
1
2
4
29
11
4
2
2
1
2
4
29
11
4
2
2
1
2
4
29
11
4
2
2
1
2
4
29
11
4
2
2
1
2
4
29
11
4
2
2
1
2
4
29
11
4
2
2
1
2
4
29
11
4
2
2
1
2
4
29
11
4
2
2
1
2
4
29
11
4
2
1
1
2
4
26
11
4
2
1
1
2
4
26
11
4
2
1
1
2
4
26
11
4
2
1
1
2
3
25
11
4
2
1
1
2
4
23
10
4
2
1
1
2
4
23
10
4
2
1
1
2
5
20
10
4
2
1
1
2
5
20
10
4
2
1
1
2
7
22
10
4
1
1
1
2
8
27
9
4
1
2
1
2
8
25
8
4
1
2
1
2
8
24
8
4
1
2
1
3
12
28
9
4
1
2
1
3
12
30
9
4
1
2
1
4
12
32
11
4
2
2
3
4
12
34
12
4
2
3
3
4
13
34
13
4
3
4
4
5
13
35
14
5
4
6
5
5
13
35
14
6
5
6
6
6
17
37
14
6
5
8
7
8
22
37
21
7
5
11
12
10
23
38
25
9
7
20
12
11
26
41
27
9
8
22
12
11
30
42
29
10
9
26
12
12
30
46
29
11
9
26
13
12
31
49
30
11
9
28
15
12
31
50
33
12
10
28
15
17
31
50
37
14
11
29
16
17
31
51
37
14
11
30
16
17
31
51
38
14
11
31
18
17
32
51
38
14
11
32
19
17
32
51
37
14
11
32
20
18
32
51
38
14
11
32
20
18
32
51
38
14
11
32
20
18
35
52
38
14
11
32
20
18
35
52
38
14
11
32
21
18
36
53
40
15
12
33
22
18
37
55
40
16
12
33
22
18
37
55
41
16
13
34
22
18
37
55
41
16
13
34
22
19
40
56
41
16
14
34
23
19
40
56
41
16
14
34
23
19
40
56
41
16
14
34
23
19
41
57
41
16
14
34
23
19
41
57
41
16
14
34
23
20
41
57
42
16
14
34
23
20
42
58
42
16
14
35
23
20
42
58
42
16
14
35
23
20
42
60
43
16
14
35
24
20
42
60
43
16
14
35
24
20
43
60
43
16
14
35
25
20
43
60
43
16
14
37
25
20
43
60
45
17
15
37
26
20
43
61
47
18
15
37
26
20
46
62
49
18
15
37
26
20
48
63
49
18
15
38
26
20
48
63
49
18
16
38
26
20
48
63
49
18
16
38
26
20
48
62
50
18
16
38
26
20
47
60
50
18
16
38
27
22
48
61
52
18
16
39
28
22
48
60
52
19
16
40
28
22
48
59
53
19
16
40
29
22
48
58
52
19
16
40
29
22
48
58
52
19
16
40
28
22
48
57
52
19
16
40
29
22
48
56
52
19
16
41
28
22
49
56
53
19
16
41
28
22
49
57
53
18
16
41
29
22
47
55
54
18
16
41
29
21
46
55
51
18
15
40
27
20
47
56
50
17
15
37
27
21
46
57
52
17
14
36
27
20
43
56
51
17
14
36
27
20
43
54
52
16
14
36
27
21
43
51
51
16
14
35
26
20
43
50
49
15
14
35
26
17
44
50
46
14
13
34
26
17
44
51
46
14
13
34
26
17
44
52
48
14
13
33
24
17
45
52
49
14
13
33
24
18
46
52
49
14
13
33
24
18
46
52
49
14
13
33
24
18
46
53
49
14
13
33
24
19
45
53
49
14
13
33
26
19
45
55
49
14
13
33
25
19
45
55
48
13
12
32
24
19
45
53
49
13
12
32
24
19
46
54
48
13
12
32
25
19
46
54
48
13
12
32
25
19
44
53
48
13
11
32
25
18
44
54
48
13
11
34
25
21
45
54
48
14
12
37
25
21
44
54
49
14
12
37
27
21
44
54
49
14
12
38
27
22
45
54
49
13
12
39
27
22
44
54
49
14
12
39
27
22
44
54
49
14
12
39
28
21
44
52
48
14
12
39
28
21
44
54
48
14
12
38
27
21
46
54
48
14
12
38
27
22
46
55
48
14
12
37
28
22
46
56
46
13
11
37
27
22
49
57
45
12
11
37
27
22
47
56
43
12
11
37
28
22
45
55
44
12
11
36
27
22
45
55
44
12
11
35
27
22
45
55
44
12
11
35
27
22
45
55
45
12
11
36
27
22
45
55
46
12
11
36
27
20
45
56
44
12
10
35
26
21
46
57
44
11
10
37
26
21
45
57
44
11
10
38
26
21
45
58
44
11
10
38
26
21
47
59
45
11
10
38
26
22
49
59
44
11
10
38
26
22
48
59
44
11
10
38
26
22
48
61
43
11
10
38
28
22
49
61
43
11
10
39
27
22
49
61
43
11
10
38
27
22
48
62
43
11
11
40
27
22
48
61
43
11
11
41
27
22
49
59
40
11
11
40
27
23
50
59
40
10
10
38
27
23
50
61
39
11
11
38
27
23
50
63
39
10
10
38
27
23
50
63
39
10
10
38
27
23
49
63
40
11
10
38
27
23
50
65
39
11
11
37
27
23
51
64
39
11
11
38
27
22
52
64
37
12
12
39
27
21
51
66
37
12
12
38
26
21
51
66
41
12
12
39
26
21
51
65
41
12
12
39
26
21
50
65
42
12
12
39
25
21
50
62
41
11
12
41
25
21
50
62
42
11
12
41
25
21
49
64
44
11
12
41
25
21
49
64
44
11
12
41
25
21
49
65
45
11
12
42
25
21
48
66
46
11
12
42
24
21
50
67
47
11
12
40
25
19
49
66
48
11
13
39
27
19
50
66
49
12
13
39
26
19
51
66
49
12
13
39
26
18
51
66
49
12
12
38
26
18
51
66
49
12
12
40
26
18
51
66
49
12
12
40
25
18
51
67
49
12
12
40
25
18
51
65
49
12
12
41
25
18
51
66
49
12
12
41
25
18
51
65
49
12
12
41
24
18
51
65
49
12
12
41
25
18
49
63
49
12
12
41
24
18
49
64
49
13
13
41
24
18
48
64
48
12
12
42
24
18
50
65
48
12
12
43
24
19
51
67
48
13
13
43
24
19
53
66
47
13
13
43
24
19
53
67
47
12
13
44
25
19
52
66
48
12
13
46
25
20
53
65
48
12
12
44
26
20
53
66
48
12
12
43
25
20
53
65
48
12
12
43
26
19
54
63
47
12
12
43
26
18
53
63
49
13
13
43
26
18
55
64
50
13
13
42
27
18
54
63
51
13
13
43
27
19
57
62
50
13
13
42
27
19
57
62
50
13
13
42
27
19
57
62
51
13
13
41
28
19
57
63
50
13
13
40
28
19
56
62
50
13
13
40
27
17
55
62
50
13
13
41
27
17
57
60
50
13
13
41
29
17
57
58
50
13
13
41
29
17
57
57
50
13
13
41
30
17
57
57
50
13
13
41
31
17
57
55
50
13
13
40
31
18
56
56
49
13
13
40
31
18
55
56
49
13
13
39
32
18
56
54
49
13
13
39
31
18
56
54
46
13
13
40
31
19
56
56
47
13
13
40
31
19
56
56
47
13
13
40
32
19
57
55
46
13
13
39
32
19
58
56
45
13
13
40
32
20
59
54
44
13
13
40
33
20
59
54
44
13
13
40
33
20
60
56
42
13
13
39
34
20
62
56
42
13
13
39
36
20
60
55
41
13
13
39
36
20
62
55
42
13
12
38
34
20
61
55
40
12
12
38
33
21
60
55
40
12
12
38
33
21
61
55
41
12
12
38
33
21
61
58
41
12
13
35
33
22
61
58
42
13
13
35
33
22
61
56
42
13
13
35
33
22
60
56
42
13
13
35
33
22
60
55
42
13
13
35
33
22
60
55
43
13
13
35
33
22
60
57
44
13
13
35
33
23
61
57
44
13
13
35
33
23
61
57
44
13
13
36
34
23
61
56
44
13
13
35
35
23
60
56
44
13
13
34
35
23
59
55
44
12
13
34
35
23
58
55
44
13
13
35
35
23
57
55
43
12
13
35
35
23
57
55
41
12
13
32
34
22
56
55
42
12
13
33
34
23
58
56
44
12
13
33
34
24
61
57
44
13
14
36
33
24
59
57
43
13
14
39
33
24
58
57
42
13
14
38
33
25
57
57
40
13
14
39
32
25
57
57
39
12
14
38
31
25
55
57
39
12
14
38
31
25
54
57
39
12
14
38
31
25
54
57
39
12
14
38
31
25
55
57
39
12
14
38
31
25
55
56
38
12
14
38
31
25
54
56
38
12
13
38
31
25
53
58
40
12
13
38
30
25
54
60
41
12
13
37
32
25
54
60
41
12
14
38
32
25
54
61
41
12
14
39
31
25
54
60
41
12
14
40
30
24
54
59
41
11
13
40
30
24
54
61
41
11
13
40
30
24
54
63
41
12
13
40
30
24
54
63
41
12
13
38
30
23
54
61
40
12
13
38
30
23
53
61
40
12
13
38
30
23
52
61
40
11
13
38
31
23
51
62
40
11
13
37
30
23
50
62
40
11
13
37
29
23
49
61
41
11
13
38
29
24
48
60
41
11
13
39
29
23
46
58
40
11
13
39
26
23
48
58
39
11
13
40
26
23
47
58
37
10
13
39
26
24
47
60
39
10
13
39
27
24
47
60
39
10
13
38
27
23
47
60
38
10
12
39
27
23
47
58
39
10
12
39
27
22
48
59
39
9
11
39
30
22
50
59
38
10
11
39
32
22
50
59
39
10
11
39
32
22
50
59
39
10
11
38
32
22
51
59
38
9
11
38
32
22
51
58
37
9
11
38
32
22
48
58
37
9
11
38
32
21
48
58
37
9
11
38
31
21
48
58
37
9
11
39
29
21
48
58
37
9
11
39
29
21
48
57
37
10
11
39
29
21
49
57
37
10
11
38
30
21
49
60
37
10
11
37
30
21
49
60
37
10
11
37
30
21
50
61
36
10
11
36
30
20
47
59
34
9
11
36
30
19
44
58
34
9
10
33
30
19
44
58
35
9
11
31
30
19
44
58
35
9
11
31
30
18
44
57
35
9
10
31
30
18
44
56
35
9
10
30
30
18
43
57
37
9
10
32
31
18
45
59
37
9
10
32
31
18
45
59
37
9
10
32
31
18
44
58
37
9
10
32
31
18
44
59
38
9
10
32
31
18
44
60
38
9
10
32
31
18
44
60
38
9
10
32
30
18
42
59
36
9
11
32
28
19
42
59
37
10
10
31
29
19
43
58
36
10
11
31
29
19
42
59
36
10
11
31
29
19
41
59
36
10
11
31
29
19
42
58
37
10
11
31
29
19
41
55
37
9
10
31
29
19
41
56
37
10
10
31
29
18
41
55
37
10
10
31
28
18
42
57
40
10
10
31
28
18
42
57
40
10
10
31
26
18
43
59
40
10
10
32
27
18
43
58
40
10
10
31
27
18
43
58
40
10
10
30
27
17
43
57
40
10
10
30
26
17
43
56
40
10
10
30
26
17
41
57
40
10
10
29
26
17
42
58
40
10
10
30
26
17
41
56
38
10
10
31
26
16
41
56
37
10
10
32
26
16
40
57
37
10
10
32
26
16
40
56
37
10
10
32
25
16
39
56
36
9
10
32
22
16
38
55
37
9
10
32
21
16
38
55
37
9
10
32
21
16
39
55
36
9
10
32
21
16
38
54
36
9
10
32
21
16
38
55
36
9
10
32
21
16
38
56
36
9
10
32
21
16
39
56
36
9
10
30
21
16
40
54
36
9
9
30
21
16
39
54
36
9
9
30
20
14
39
54
36
8
9
30
20
14
38
54
36
8
9
30
20
14
38
52
36
8
9
29
19
14
37
51
36
8
9
29
19
14
37
50
36
8
9
29
19
14
37
50
36
8
9
29
19
14
37
50
35
8
8
29
19
13
36
50
35
8
8
28
19
13
36
50
35
8
7
28
19
13
36
49
34
8
7
28
19
13
36
50
35
8
7
28
19
13
36
49
33
8
7
26
16
12
34
47
33
8
7
24
16
12
33
47
34
8
7
24
16
11
33
47
34
8
7
24
16
11
33
47
33
8
7
24
16
11
33
45
33
8
7
24
16
11
33
43
32
8
7
24
16
11
33
42
32
8
7
24
16
10
33
42
31
8
6
23
15
10
32
41
31
8
6
22
15
10
32
40
31
8
6
21
15
10
32
40
31
8
6
21
15
9
30
39
30
7
5
20
15
9
30
39
30
7
5
20
14
9
30
39
30
7
5
20
14
9
30
39
30
7
5
19
14
9
29
36
27
7
5
19
14
9
29
36
26
7
5
19
13
9
27
32
26
7
4
18
13
8
27
32
26
7
4
18
13
8
26
31
26
7
4
18
13
7
26
31
26
7
4
17
13
7
26
31
25
7
4
17
12
7
26
30
25
7
4
16
12
6
25
28
25
7
4
14
12
5
24
28
25
7
4
13
12
5
24
28
26
7
3
8
12
5
24
25
25
7
3
7
11
5
24
25
25
7
3
7
11
4
24
24
25
7
3
6
10
4
22
24
23
7
3
5
5
4
20
24
23
7
3
5
4
4
17
24
23
7
3
5
4
4
17
24
23
7
3
4
4
4
16
23
23
7
3
4
4
4
16
21
23
7
3
4
3
3
12
21
23
7
3
4
3
3
11
20
23
7
3
3
3
4
11
22
25
8
3
3
3
4
11
22
24
8
3
3
2
4
11
21
24
8
3
3
2
4
11
21
24
8
3
3
2
4
11
22
24
8
3
3
2
4
10
22
24
8
3
3
2
4
9
22
24
8
3
3
2
4
9
22
24
7
3
3
2
4
9
23
24
7
3
3
2
3
9
22
24
7
3
3
2
3
9
22
24
7
3
3
2
3
8
21
23
7
3
3
2
3
8
21
23
7
3
3
2
3
8
21
23
7
3
3
2
3
8
20
21
7
2
2
2
3
8
20
21
7
2
2
2
3
7
18
21
7
2
2
1
3
7
19
21
7
2
2
1
3
7
19
21
7
2
2
1
3
7
19
20
7
2
2
1
3
7
19
20
7
2
2
1
3
6
19
20
7
2
2
1
3
6
18
20
7
2
2
1
3
6
18
20
7
2
2
1
3
6
18
20
7
2
2
1
3
5
18
20
7
2
2
1
3
5
18
19
6
2
2
1
3
5
18
18
6
2
2
1
3
6
18
18
6
2
2
1
3
6
18
18
6
2
2
1
3
6
18
17
6
2
2
1
3
6
18
17
6
2
2
1
3
7
20
17
6
2
2
1
3
7
20
16
6
2
2
1
3
7
21
16
6
2
2
1
3
7
21
16
6
2
2
1
3
7
21
16
5
2
2
1
3
7
21
16
5
2
2
1
3
7
21
16
5
2
2
1
3
7
21
16
6
2
2
1
3
7
22
16
6
2
2
1
3
7
24
17
5
2
2
1
3
7
24
17
5
2
2
1
3
7
24
17
5
2
2
1
3
7
24
17
5
2
2
1
3
7
24
17
5
2
2
1
3
7
24
17
5
2
2
1
3
7
24
17
5
2
2
1
3
6
24
18
6
2
2
1
3
6
24
18
5
2
2
1
2
5
23
16
5
2
1
1
2
5
23
16
5
2
1
1
2
5
23
18
5
2
1
1
2
5
23
19
5
2
1
1
2
5
22
18
5
2
1
1
2
5
22
19
5
2
1
1
2
5
21
19
5
2
1
1
2
5
21
19
5
2
1
1
2
5
21
19
5
2
1
1
2
6
21
19
6
2
1
1
2
6
21
18
6
2
1
1
2
6
21
18
6
2
1
1
2
6
21
18
6
2
1
1
2
6
21
18
6
2
1
1
2
6
21
19
6
2
1
1
2
6
20
19
5
2
1
1
2
6
19
19
5
2
1
1
2
6
19
19
5
2
1
1
2
6
19
19
5
2
1
1
2
6
19
19
5
2
1
1
2
6
20
19
5
2
1
1
2
6
20
19
6
2
1
1
2
6
20
20
6
2
1
1
2
6
20
20
5
2
1
1
2
6
20
20
5
2
1
1
2
6
21
20
6
2
1
1
2
6
22
20
6
2
1
1
2
6
22
20
5
2
1
1
2
6
22
20
5
2
1
1
2
5
22
20
5
2
1
1
2
5
22
20
5
2
1
1
2
5
22
20
5
2
1
1
2
5
20
20
5
2
1
1
2
5
20
20
5
2
1
1
2
5
21
20
5
2
1
1
2
5
20
20
5
2
1
1
2
5
22
20
6
2
1
1
2
5
25
21
6
2
1
1
2
5
25
21
6
2
1
1
2
6
25
21
6
2
1
1
2
6
25
21
6
2
1
1
2
6
22
21
6
2
1
1
2
6
22
21
6
2
1
1
2
6
23
21
6
2
1
1
2
6
23
21
6
2
1
1
2
6
23
21
6
2
1
1
2
6
23
22
6
2
1
1
2
6
23
20
6
2
1
1
2
6
23
19
5
2
2
1
3
6
24
19
6
2
2
1
3
6
26
20
6
2
2
1
3
6
29
20
5
2
2
2
3
6
29
18
5
2
2
3
3
7
31
20
5
2
2
3
3
7
32
22
5
2
2
4
4
8
32
24
6
2
4
5
4
13
33
26
6
3
5
8
5
15
33
29
7
3
7
9
6
16
33
32
9
5
7
10
6
17
38
35
9
5
7
17
7
18
42
35
10
5
8
23
11
18
45
35
10
6
18
26
12
19
46
37
11
9
22
26
12
20
46
37
11
9
23
28
12
20
46
37
11
9
23
29
12
20
47
37
11
9
23
29
13
20
49
37
11
9
24
29
13
22
52
37
11
9
24
29
14
23
53
37
11
10
24
29
14
25
56
42
11
10
24
31
15
25
57
44
11
10
25
31
15
26
58
45
11
10
25
31
15
26
58
45
11
11
25
31
15
27
59
44
11
11
26
32
15
27
59
45
11
11
26
32
17
29
59
47
12
12
27
33
17
29
59
47
12
12
27
33
18
30
59
49
13
12
29
33
19
31
60
51
14
12
29
34
19
31
61
51
14
12
29
34
19
31
61
51
14
12
29
35
19
32
61
52
14
13
29
35
19
32
62
52
14
13
29
35
19
32
62
52
14
13
30
35
19
32
63
53
14
13
30
35
19
32
63
55
14
13
32
35
20
32
62
55
14
13
32
36
20
32
62
55
14
13
33
36
21
33
62
55
14
13
34
36
21
33
63
55
14
13
34
36
21
34
65
56
14
13
35
36
21
35
67
57
14
13
35
37
21
35
68
57
14
13
35
37
21
37
68
59
15
13
35
37
21
37
68
60
15
13
35
37
21
37
68
60
15
13
36
37
21
37
68
60
15
13
36
37
21
37
68
60
15
13
36
37
22
37
69
60
15
14
36
37
22
38
69
60
15
14
37
37
22
38
68
61
15
14
37
37
22
38
67
61
15
14
37
37
22
38
67
61
15
15
37
38
22
38
66
61
15
15
38
38
22
40
66
61
15
15
39
38
22
40
66
61
15
15
39
38
22
38
66
60
15
15
39
37
22
38
66
59
15
15
38
37
22
37
66
57
13
14
39
37
21
37
63
56
13
14
39
35
21
37
61
56
13
14
39
32
20
37
60
56
12
14
35
30
19
38
60
56
12
12
33
30
19
38
60
57
12
12
32
27
19
38
61
57
12
12
33
27
20
38
60
58
12
12
33
27
20
38
59
58
12
12
32
26
20
38
56
58
12
12
32
26
19
38
57
58
12
12
36
27
22
38
55
57
12
13
36
25
22
38
55
55
12
12
36
26
22
38
54
55
12
12
36
27
22
38
56
55
12
12
37
27
22
37
56
55
12
12
37
26
21
37
56
55
12
12
37
26
20
36
58
53
11
11
37
25
20
38
59
54
11
11
36
26
20
38
61
52
10
10
35
25
20
38
63
50
10
11
36
24
20
38
62
50
9
11
36
24
20
39
61
51
10
13
37
23
20
38
61
51
10
13
37
23
21
38
62
51
10
13
37
23
21
38
61
51
10
13
37
23
20
38
61
50
10
13
37
23
20
39
61
49
10
13
36
24
20
39
62
48
10
13
36
23
19
39
63
48
10
13
35
23
19
39
62
48
10
13
34
24
19
39
61
48
10
13
34
24
19
43
59
47
11
14
34
23
19
43
58
47
11
14
34
25
19
43
57
47
12
14
33
25
19
42
57
45
11
14
34
25
19
41
57
44
11
14
35
27
19
42
57
44
11
14
34
28
19
41
58
45
11
14
34
28
19
41
58
45
11
14
34
28
19
43
59
47
12
14
34
28
20
44
59
47
12
14
34
30
20
44
58
46
12
14
35
30
19
44
59
47
12
13
35
30
19
44
59
47
12
13
35
29
19
45
59
48
12
13
35
29
19
44
59
48
11
13
34
29
19
44
59
47
11
13
33
29
19
44
59
47
11
13
33
30
20
44
59
49
11
13
33
30
20
45
59
49
11
13
33
30
20
45
59
49
11
13
33
30
21
45
58
49
12
13
33
31
21
45
58
50
12
13
33
31
21
44
58
49
12
13
34
32
21
44
59
48
12
13
34
32
21
44
59
50
12
13
33
32
22
46
58
50
12
13
33
32
22
46
58
50
12
13
33
32
22
46
59
50
12
13
33
32
21
48
58
51
13
13
29
32
19
47
56
49
13
14
29
32
19
47
55
49
13
14
31
32
19
47
55
49
13
14
33
33
19
47
54
49
13
14
31
33
19
47
54
48
14
15
31
32
21
47
54
48
14
15
32
32
21
47
52
48
14
15
32
33
20
47
49
48
14
15
33
33
21
50
47
50
14
15
33
33
21
51
44
50
15
16
33
33
21
52
45
50
16
17
34
33
21
51
47
49
16
15
32
33
21
51
47
49
16
15
33
33
21
51
48
50
16
15
33
33
22
51
50
51
16
15
33
33
22
51
49
51
16
15
33
33
22
51
49
51
16
15
33
33
22
51
49
50
16
15
33
32
22
52
47
51
16
15
35
32
22
54
50
51
16
15
35
32
24
56
50
52
17
15
36
32
24
53
52
52
16
15
36
32
24
52
50
51
16
15
36
31
24
52
53
51
16
15
37
31
27
53
53
53
16
15
36
31
28
53
53
54
16
15
36
30
28
53
53
55
16
15
38
29
28
53
52
54
16
15
38
29
28
53
54
54
16
15
39
29
28
53
52
53
16
15
41
29
28
52
51
53
16
15
42
28
28
51
51
53
16
15
41
28
28
53
51
52
16
16
41
29
28
52
52
53
16
16
42
29
28
52
52
52
16
16
42
29
28
53
52
52
16
16
43
29
28
53
52
52
16
16
43
29
29
54
55
52
16
16
43
28
29
56
55
51
16
16
43
28
28
55
54
50
16
17
44
28
29
55
54
51
16
17
45
27
28
55
56
51
16
17
46
27
28
55
56
52
17
18
48
27
28
55
57
51
17
18
49
26
28
55
56
51
17
18
49
26
28
55
55
49
17
18
50
26
28
54
55
49
16
17
50
25
28
54
56
49
16
17
50
25
27
54
56
49
16
17
50
25
27
52
56
48
16
17
50
25
27
52
58
47
15
17
50
25
27
52
60
47
15
17
49
24
27
53
59
47
15
16
48
24
27
53
59
47
16
17
48
25
27
52
58
47
15
16
48
25
26
52
59
49
15
16
48
25
26
52
59
49
15
16
48
25
26
51
60
50
15
16
48
26
25
48
59
50
15
15
48
25
26
47
61
51
14
15
48
26
27
47
62
51
13
14
47
27
27
47
60
51
13
14
47
27
27
47
61
51
13
14
47
27
26
47
60
50
13
14
47
28
26
48
58
48
13
14
48
28
26
48
58
48
12
13
48
28
26
48
58
48
12
13
48
27
26
48
59
48
12
13
48
29
26
48
61
48
13
14
47
29
26
45
59
48
12
14
48
29
24
42
59
46
12
14
47
29
24
42
58
46
12
14
48
29
24
42
58
47
12
14
48
29
24
42
55
47
12
14
47
29
21
42
55
45
12
14
47
28
19
42
56
44
12
13
47
30
19
43
57
44
11
13
45
31
20
42
58
44
11
13
45
32
20
42
56
44
11
13
44
31
20
41
56
44
11
13
42
31
20
41
56
44
11
13
42
31
19
41
56
44
11
13
43
31
19
43
56
44
10
12
43
31
19
43
56
43
10
12
41
31
19
43
57
44
10
12
42
31
19
43
59
44
10
12
41
31
19
43
59
46
11
12
41
31
19
44
56
46
11
12
41
30
19
41
56
47
11
12
42
30
19
41
56
47
11
12
41
30
19
41
56
47
11
12
40
30
18
41
55
46
11
11
39
30
18
41
55
45
9
10
36
30
18
41
54
45
9
10
35
30
18
41
53
46
9
10
35
30
17
41
54
46
9
10
34
30
17
40
54
45
9
10
34
30
17
41
53
45
10
11
36
30
17
41
55
45
10
11
36
31
18
41
55
45
10
11
36
31
18
41
53
46
10
11
36
31
18
41
51
46
10
11
36
32
18
40
51
47
10
11
36
31
17
40
51
47
9
11
36
30
17
40
51
47
9
11
35
30
17
40
51
44
9
11
35
30
17
40
52
45
10
11
34
30
17
40
51
44
9
11
33
29
17
39
51
43
9
11
34
29
17
39
49
43
9
11
34
30
16
38
51
42
9
11
35
28
16
38
51
42
9
10
35
29
16
38
52
42
9
10
35
28
16
39
53
43
9
10
34
28
16
38
56
43
9
11
34
28
16
38
55
43
9
11
34
28
16
37
55
43
9
11
34
28
16
37
55
44
9
11
33
26
16
36
53
45
9
10
33
26
15
37
54
44
9
10
33
25
16
37
56
44
9
10
33
26
16
38
56
45
9
10
33
26
15
38
57
44
8
10
34
26
16
38
57
44
9
10
35
26
15
39
57
44
9
10
35
26
15
39
57
43
8
10
35
24
15
38
57
44
9
11
35
22
14
38
56
43
9
10
35
21
14
39
56
42
9
10
35
21
14
39
56
42
9
11
34
21
14
39
56
42
9
11
34
21
14
39
58
43
9
10
32
21
14
37
59
44
10
11
33
22
14
37
61
44
10
10
34
22
14
37
60
43
10
11
34
22
14
36
57
42
10
10
33
21
13
36
57
41
10
10
33
21
13
33
57
41
10
10
33
22
13
33
57
40
10
10
33
22
13
33
57
40
10
10
33
22
13
34
57
40
10
10
33
22
13
34
57
40
10
10
33
22
13
36
57
40
10
10
34
22
13
37
57
40
10
10
33
22
13
36
58
38
10
10
33
23
13
36
57
38
10
10
33
23
13
36
58
38
10
10
33
24
13
38
58
38
10
10
32
23
12
38
56
39
10
10
32
22
12
38
58
42
10
9
31
22
12
38
58
42
11
9
32
22
12
39
59
42
11
9
32
20
12
39
59
42
11
9
31
20
12
39
58
41
11
9
31
20
12
39
59
41
11
9
31
20
12
39
59
42
11
9
32
20
12
39
58
40
11
9
32
20
12
39
57
40
11
9
32
20
11
39
57
40
11
9
32
20
11
39
57
40
10
9
32
19
10
39
56
40
10
9
30
19
10
39
56
40
10
9
30
19
10
38
55
40
10
9
30
19
9
37
53
39
10
9
30
19
9
37
50
38
10
8
29
19
9
37
50
39
10
8
29
19
9
37
50
38
10
8
29
19
9
37
51
38
10
8
29
19
9
37
51
37
10
8
29
19
9
36
49
37
10
8
27
19
8
36
48
37
10
8
27
18
8
35
48
35
10
8
25
17
8
35
48
35
10
8
24
17
8
35
50
35
10
8
23
17
8
33
50
35
10
8
23
17
8
33
49
36
10
8
23
17
8
33
48
34
10
8
23
17
7
33
48
34
10
7
22
16
7
32
47
34
10
7
22
16
7
31
47
35
10
7
22
16
7
31
47
35
10
7
22
16
7
31
45
35
10
7
22
15
7
29
43
33
9
6
20
14
6
28
41
33
9
6
20
14
6
28
41
32
9
6
20
14
6
28
41
32
9
6
20
14
6
28
41
32
8
5
19
13
6
28
41
32
9
5
19
12
6
28
40
32
11
6
19
12
6
27
40
32
11
6
19
12
6
25
40
32
10
5
17
11
6
25
40
31
11
5
17
11
6
22
39
31
11
4
16
11
5
21
39
31
11
4
16
10
5
21
38
31
11
4
16
8
5
20
38
31
11
4
16
6
6
20
37
31
11
4
15
6
5
15
37
30
11
4
14
6
5
15
36
28
11
4
14
6
5
15
33
25
11
4
13
6
4
14
33
23
10
4
10
6
4
10
32
23
10
4
10
6
4
9
32
23
10
4
9
5
4
9
32
23
10
4
9
5
4
9
31
23
10
4
9
5
4
9
31
23
10
4
8
5
4
7
31
23
10
3
8
3
4
7
31
23
10
3
5
3
3
7
31
23
10
3
5
3
3
6
31
23
10
3
4
3
3
5
28
23
10
3
4
3
3
5
28
23
10
3
4
2
3
5
28
23
10
3
3
2
3
5
28
23
10
3
3
2
3
5
28
23
10
3
3
2
3
5
28
22
10
3
2
2
3
5
27
22
10
3
2
2
3
5
25
22
10
3
2
2
3
4
25
22
10
3
2
2
3
4
24
22
10
3
2
2
3
4
24
22
10
3
2
2
3
4
24
22
10
3
2
2
3
4
22
22
9
3
2
2
3
3
15
23
10
3
2
2
3
3
15
22
10
3
2
2
3
3
15
23
10
3
2
2
3
3
15
23
10
3
2
1
3
3
15
23
10
3
2
2
3
3
15
23
10
3
2
1
3
3
14
23
10
3
2
1
2
3
14
22
10
3
2
1
2
3
14
21
10
3
2
1
2
3
14
21
10
3
2
1
2
3
14
21
10
3
2
1
2
3
14
20
10
3
2
1
2
3
14
20
10
3
2
1
2
3
13
19
10
3
2
1
2
3
13
19
9
3
2
1
2
3
13
18
7
2
1
1
2
3
13
19
7
2
1
1
2
3
13
19
7
2
1
1
2
3
13
19
7
2
1
1
2
3
13
20
7
2
1
1
2
3
14
20
6
2
1
1
2
3
14
20
6
2
1
1
2
3
14
20
7
2
1
1
2
3
15
20
7
2
1
1
2
3
15
20
7
2
1
1
2
3
15
20
6
2
1
1
2
3
15
20
6
2
1
1
2
3
14
19
6
2
1
1
1
3
14
19
6
2
1
1
1
3
14
19
6
2
1
1
1
3
14
19
6
2
1
1
1
3
14
18
6
2
1
1
1
3
14
19
6
2
1
1
1
4
14
20
6
2
1
1
1
4
11
22
6
2
1
1
1
4
11
22
6
2
1
1
1
4
11
22
6
2
1
1
1
4
11
22
6
2
1
1
1
4
11
22
6
2
1
1
1
4
11
22
6
2
1
1
1
4
11
22
6
2
1
1
1
4
11
22
6
2
1
1
1
4
11
23
6
2
1
1
1
5
11
23
7
2
1
1
1
5
11
23
6
2
1
1
1
5
11
23
6
2
1
1
1
5
10
23
6
2
1
1
1
5
10
23
6
2
1
1
1
5
10
23
6
2
1
1
1
5
10
23
6
2
1
1
2
5
11
22
6
2
1
1
2
5
11
23
6
2
1
1
2
5
12
21
5
2
1
1
2
5
12
21
5
2
1
1
2
5
12
21
5
2
1
1
2
5
13
21
5
2
1
1
2
5
14
20
5
2
2
2
2
5
14
21
5
2
12
2
2
5
15
21
5
2
16
3
3
5
17
21
5
2
16
10
3
6
18
21
5
2
17
10
3
6
25
21
5
3
17
10
3
8
29
21
5
3
24
11
4
8
31
21
5
3
25
11
4
8
33
21
5
3
26
13
6
8
36
21
5
3
26
16
6
9
38
20
5
3
26
16
8
12
38
20
5
4
26
19
9
12
39
20
5
4
27
20
10
12
39
19
5
4
28
22
13
14
43
19
5
5
31
23
13
15
44
19
6
5
31
24
14
15
45
20
6
6
35
24
14
17
46
22
6
7
38
25
14
18
47
22
6
7
38
25
15
21
47
23
6
7
39
25
15
21
47
23
6
7
39
26
16
21
49
24
8
9
41
26
17
25
49
24
8
9
41
27
17
25
51
24
8
9
41
27
17
26
52
25
8
9
41
27
18
27
52
25
8
9
41
27
18
28
54
25
8
9
42
27
20
30
55
28
9
10
42
27
22
31
55
28
10
10
42
27
22
31
55
28
10
10
42
27
22
31
55
29
10
10
42
28
22
31
57
31
10
10
42
28
22
31
60
34
11
10
42
28
22
32
62
36
11
11
43
28
23
33
62
36
11
11
44
28
23
36
63
36
11
11
44
29
23
39
63
38
11
11
45
29
23
39
63
38
12
11
45
29
23
39
65
39
12
11
45
29
23
40
66
40
12
11
45
31
23
41
67
40
12
11
45
31
23
42
68
40
12
12
46
31
24
42
69
41
12
12
46
31
24
43
69
41
12
12
46
33
24
44
69
45
12
12
46
34
24
44
70
44
13
12
47
34
25
45
70
44
13
13
47
34
26
46
70
44
13
13
47
35
26
46
72
45
13
13
49
35
26
46
72
45
13
14
50
36
27
47
72
45
13
14
50
36
28
48
72
45
13
14
49
37
28
48
72
47
13
14
49
37
28
48
72
48
13
14
49
35
28
49
72
48
13
14
49
36
31
52
73
51
16
15
49
36
32
52
71
51
18
16
46
35
32
52
70
51
18
16
46
35
32
52
70
51
18
16
45
35
32
52
69
52
18
16
46
34
33
54
69
53
19
17
47
34
33
55
69
53
19
17
47
33
33
58
69
53
19
18
48
33
33
58
68
53
19
18
48
32
33
59
67
55
21
20
47
33
34
59
67
56
21
19
48
32
34
59
67
57
21
19
46
32
34
58
67
56
21
20
43
33
37
58
66
57
22
20
42
34
37
58
68
58
22
21
42
36
37
58
68
58
23
21
42
37
37
59
67
57
23
21
41
37
37
59
67
57
23
21
41
38
36
60
66
57
23
21
41
38
36
59
67
60
23
21
41
38
36
59
68
60
23
21
41
38
36
59
67
59
23
21
41
38
36
58
66
58
23
21
41
38
34
58
66
57
22
21
41
38
34
59
66
59
23
21
40
38
36
60
66
58
23
21
40
38
38
60
67
59
23
21
41
38
39
61
67
59
23
21
44
38
39
61
66
58
23
20
43
38
39
61
66
58
23
20
42
38
39
60
65
58
23
20
43
38
39
59
66
57
23
21
43
38
39
60
67
59
23
21
43
38
39
62
68
60
24
21
43
38
39
61
67
59
24
21
43
37
40
62
67
59
24
21
44
37
40
62
66
60
24
21
42
37
40
62
65
59
24
21
42
37
40
61
66
59
24
21
42
36
40
61
66
57
23
21
42
35
40
62
65
58
24
21
42
35
40
63
65
59
25
21
42
36
39
62
66
59
25
21
42
36
40
62
64
59
25
21
41
37
39
62
65
61
25
21
40
37
39
61
67
62
25
21
40
37
39
61
68
63
25
21
40
39
39
63
69
61
25
22
41
39
40
63
69
61
25
22
41
39
40
63
69
62
26
22
41
40
38
60
67
59
24
21
41
41
38
61
67
59
23
20
41
41
37
61
67
59
23
20
40
41
37
62
66
59
23
20
41
41
37
61
65
60
23
20
42
41
36
59
65
60
22
20
41
41
37
58
65
60
23
20
41
40
36
56
66
60
22
19
38
40
36
56
66
60
22
19
38
41
36
55
66
59
21
17
37
40
35
55
67
58
21
17
36
40
35
55
66
58
21
17
36
40
35
56
68
59
21
17
36
39
32
56
68
58
21
17
36
39
33
55
67
57
20
16
36
37
33
55
67
57
19
15
36
36
33
54
67
58
19
15
36
36
33
52
67
57
19
15
36
35
33
51
67
58
19
15
36
35
33
52
66
55
18
15
36
35
33
54
65
56
18
15
36
35
34
54
65
57
18
15
36
35
34
54
65
56
18
15
36
35
34
54
66
57
18
15
36
35
34
52
67
57
18
15
36
36
32
52
68
57
18
15
36
35
30
52
66
55
18
15
36
35
28
51
64
52
18
15
33
35
28
51
64
52
18
15
34
36
28
51
65
52
18
15
34
36
28
49
65
53
18
15
33
36
28
49
64
54
17
14
32
36
28
48
64
52
17
14
32
37
30
45
62
50
16
13
32
36
30
45
64
51
16
13
32
38
31
44
65
51
16
13
34
38
31
44
65
51
16
13
34
38
30
45
65
51
16
13
34
38
30
44
64
51
16
13
34
39
31
44
64
51
16
13
35
39
31
43
64
50
15
12
34
39
30
41
64
49
14
12
34
39
30
41
63
48
14
12
34
38
30
41
64
48
14
12
33
38
30
41
63
48
14
11
33
39
29
41
61
47
13
11
33
39
28
41
60
45
13
11
32
37
28
39
59
45
12
10
29
37
27
39
59
45
12
10
29
37
27
39
58
44
12
10
28
37
27
39
58
44
12
10
29
35
26
37
58
45
12
10
29
37
27
39
58
45
12
12
31
37
26
39
58
45
12
12
30
37
27
39
60
44
12
12
28
37
27
39
60
43
12
12
28
37
26
41
59
42
11
11
28
38
26
41
59
43
11
11
28
37
26
41
59
43
11
11
28
36
25
43
60
45
11
11
28
36
25
42
58
44
11
11
29
37
25
42
57
44
11
11
29
37
24
41
56
42
10
10
29
36
24
42
58
43
10
10
29
36
23
43
58
44
10
10
30
35
23
43
57
44
9
10
30
35
23
43
57
44
9
10
29
35
23
43
57
45
9
10
29
35
23
43
58
45
9
10
29
35
23
43
60
45
9
10
29
35
22
40
61
44
9
10
29
37
22
40
61
43
9
10
29
37
22
40
62
43
9
10
33
37
22
40
60
43
9
11
34
37
22
41
60
42
9
11
34
37
22
41
59
42
9
11
34
38
21
41
60
42
9
12
34
38
21
41
59
42
9
11
35
38
21
41
58
42
9
12
34
38
21
40
58
42
9
12
34
38
21
41
59
41
9
12
34
38
21
44
62
41
9
12
34
37
21
45
63
42
9
12
33
37
18
45
63
41
9
12
33
37
18
45
61
40
9
12
33
34
16
45
59
40
9
12
31
34
16
45
59
41
9
12
31
35
16
45
59
41
8
12
31
35
16
44
60
40
8
12
31
33
16
45
60
40
8
12
31
33
15
45
61
40
8
12
32
33
15
45
62
42
8
13
32
33
18
45
62
43
9
13
33
34
18
45
61
42
9
13
35
34
18
45
61
41
9
13
35
33
18
45
60
41
9
13
35
32
18
45
60
41
9
13
35
32
18
45
60
40
9
13
37
32
18
44
60
40
9
13
37
32
18
44
61
40
9
13
37
34
18
46
61
40
10
14
37
34
20
46
62
39
10
14
37
33
20
45
62
39
10
13
35
33
20
44
62
39
10
12
35
32
20
45
61
39
10
12
36
32
20
44
61
40
10
12
36
32
20
42
61
40
10
12
36
32
20
43
60
38
9
12
36
31
20
44
60
38
9
13
36
31
20
42
59
35
9
13
36
31
20
42
61
35
9
13
36
31
20
43
61
35
9
13
36
32
21
43
60
34
9
13
36
32
21
42
58
33
9
13
36
32
21
42
58
32
9
13
35
32
21
42
58
32
9
13
35
32
21
42
58
32
9
13
35
32
21
42
59
31
9
13
36
32
21
42
58
31
9
13
35
32
21
41
56
30
9
13
35
32
21
42
53
30
9
13
35
30
22
42
54
31
9
13
35
30
22
42
54
31
9
13
33
30
22
42
54
30
9
11
32
29
22
42
57
31
9
11
32
29
22
41
58
30
9
11
32
27
22
41
58
30
9
11
32
27
22
42
59
30
9
11
31
26
22
43
59
31
9
11
31
28
22
43
58
31
9
11
32
28
22
43
57
31
9
11
32
28
22
39
55
31
9
11
32
28
22
38
54
30
9
11
31
28
21
38
56
30
9
11
32
28
21
38
57
31
9
11
32
29
21
37
58
31
9
11
32
29
21
38
58
30
9
11
32
29
22
38
58
30
9
11
32
30
23
38
58
30
9
11
32
30
23
37
58
32
9
11
31
30
23
37
57
32
9
11
31
30
23
38
56
28
9
11
30
30
21
38
56
28
9
11
29
28
21
38
56
28
9
11
27
27
21
38
56
29
9
11
28
27
21
39
56
29
9
11
28
27
21
39
56
29
9
11
28
27
21
39
58
29
9
10
26
28
22
40
58
29
9
11
27
26
22
39
58
28
9
11
28
23
21
37
58
28
8
10
28
23
20
37
57
28
8
10
27
25
20
38
58
29
8
10
27
26
20
38
58
30
8
10
28
26
20
40
58
31
8
10
28
26
20
41
60
30
8
10
27
26
20
40
61
32
8
9
27
26
20
40
62
33
8
9
27
26
21
42
62
33
8
9
28
26
21
41
62
33
8
9
27
26
21
41
63
35
8
9
27
26
22
44
63
37
8
9
27
26
22
44
63
37
8
9
28
26
22
44
63
37
8
9
30
26
21
44
63
37
8
9
30
26
21
44
63
39
9
9
31
26
21
44
65
41
9
10
31
26
21
45
67
41
9
10
32
25
21
45
67
41
9
10
32
25
22
46
67
41
9
10
32
26
21
47
67
41
10
10
32
26
20
47
67
41
10
10
32
26
20
48
68
41
10
10
31
26
20
48
68
41
9
10
31
26
20
48
66
41
10
10
31
28
20
48
63
42
10
10
30
28
20
48
62
42
10
10
30
28
20
47
62
42
10
10
32
28
20
46
62
41
10
10
31
26
20
46
62
41
10
10
31
27
20
46
62
41
10
10
30
26
20
46
62
42
10
10
30
26
20
46
63
42
10
10
30
26
20
45
61
41
10
10
30
26
20
45
59
41
10
10
30
25
20
46
59
42
10
9
30
25
20
45
58
41
10
9
30
24
19
45
58
42
10
9
30
24
18
45
58
41
10
9
30
24
18
45
58
40
9
9
30
24
18
45
58
40
9
9
30
24
18
44
58
40
9
9
30
24
17
44
58
40
9
9
30
24
17
44
58
40
9
9
29
23
17
44
58
39
9
9
29
23
16
42
58
39
9
9
29
23
16
42
58
39
9
9
28
23
16
42
56
39
9
8
28
22
16
42
55
39
9
8
26
22
16
42
55
39
9
7
26
22
16
41
55
39
9
7
25
22
16
41
54
40
9
7
25
19
15
40
53
39
9
7
25
18
15
40
53
40
9
7
25
18
15
38
53
38
9
7
25
17
14
37
49
38
9
7
24
17
14
37
48
37
10
8
24
17
14
35
47
37
11
8
24
17
13
33
47
37
11
8
24
17
13
33
47
38
11
7
24
17
13
33
43
36
11
7
24
17
12
29
43
35
11
7
23
15
10
28
41
35
11
7
22
15
10
27
41
35
11
7
18
15
10
27
41
35
11
7
18
14
10
27
40
33
11
6
17
14
10
27
38
30
10
6
16
14
10
25
34
30
10
6
13
14
8
25
33
30
11
5
13
14
8
24
33
30
11
5
13
13
8
19
33
30
10
5
13
13
8
18
32
30
10
5
12
12
8
16
28
30
10
5
12
12
7
15
27
30
11
5
12
12
7
15
27
31
10
5
12
7
7
14
27
30
10
4
12
7
7
14
27
30
10
4
11
7
7
14
27
30
10
4
7
7
7
14
27
30
10
4
7
7
7
14
26
29
10
4
7
7
7
14
26
30
10
4
6
7
7
13
23
28
10
4
5
6
6
13
17
28
10
4
5
5
6
13
17
28
10
4
4
5
6
12
17
28
10
4
4
4
6
11
15
26
10
4
4
4
6
11
15
27
10
4
4
4
6
10
16
26
10
4
4
3
6
10
15
26
10
3
3
3
6
10
15
26
10
3
3
3
5
9
12
26
10
4
3
3
5
9
12
27
10
4
3
3
5
9
12
27
10
4
3
3
5
9
11
27
10
4
3
3
5
9
11
27
10
4
3
2
5
9
11
27
10
4
3
2
5
9
11
27
10
4
3
2
5
9
11
27
10
4
3
2
5
9
11
27
10
3
2
2
5
9
11
27
10
3
2
2
5
9
11
27
10
3
2
2
5
9
11
26
9
3
2
2
5
9
11
26
9
3
2
2
5
9
11
25
9
3
2
2
5
9
11
25
9
3
2
2
4
9
11
25
9
3
2
2
4
9
11
23
8
3
2
2
4
9
11
23
7
2
2
2
3
8
11
23
7
2
2
2
3
8
11
21
6
2
2
1
3
8
11
21
6
2
2
1
3
8
11
21
6
2
2
1
3
8
11
20
6
2
2
1
3
8
11
20
6
2
2
1
3
7
11
20
6
2
2
1
3
7
11
19
6
2
1
1
3
6
11
19
6
2
2
1
3
7
11
19
6
2
1
1
3
6
11
18
5
2
1
1
3
6
11
17
5
2
1
1
3
6
11
17
5
2
1
1
2
6
11
17
5
2
1
1
2
6
11
16
5
2
1
1
2
6
11
16
4
2
1
1
2
6
11
13
4
2
1
1
2
5
11
13
4
2
1
1
1
4
10
13
4
2
1
1
1
4
10
13
4
2
1
1
1
4
10
13
4
2
1
1
1
4
10
13
4
2
1
1
1
4
10
13
4
2
1
1
1
4
10
13
4
2
1
1
1
4
10
13
4
2
1
1
1
4
10
13
4
2
1
1
1
4
9
13
4
2
1
1
1
4
9
13
4
2
1
1
1
4
10
13
4
2
1
1
1
5
11
13
4
2
1
1
1
5
11
13
4
2
1
1
1
5
11
13
4
2
1
1
1
5
11
12
4
2
1
1
1
5
12
11
3
2
1
1
1
5
12
11
3
2
1
1
2
6
13
11
4
2
1
1
2
6
13
11
4
2
1
1
2
6
13
11
4
2
1
1
2
6
14
11
4
2
1
1
2
6
14
11
4
2
1
1
2
6
14
11
3
2
1
1
2
6
14
10
3
2
1
1
2
6
18
10
3
2
1
1
2
6
18
10
3
2
1
1
2
6
19
10
3
2
1
1
2
6
19
10
3
2
1
1
2
6
19
10
3
2
1
1
2
6
20
9
3
2
1
1
2
6
20
9
3
2
1
1
2
6
23
9
3
2
1
1
2
6
23
9
3
2
1
1
2
6
23
9
3
2
1
1
2
6
23
10
3
2
1
1
2
6
24
11
4
2
1
1
2
6
24
11
4
2
2
1
2
6
25
11
4
2
2
1
2
6
25
11
4
2
2
1
2
6
25
12
4
2
2
1
2
6
25
12
4
2
2
1
2
6
27
13
4
2
2
1
2
6
27
13
4
2
2
1
2
6
29
13
4
2
2
2
2
6
29
13
4
2
2
2
2
6
30
13
4
2
2
2
2
6
30
13
4
2
2
2
2
6
30
13
4
3
2
2
2
7
31
13
4
3
2
2
4
7
33
15
4
3
2
2
4
7
34
17
5
4
3
3
4
7
35
17
5
4
3
3
4
7
38
17
5
4
3
3
4
7
38
19
5
4
3
4
4
7
38
19
5
5
3
4
4
7
39
19
5
5
3
4
4
7
39
19
5
5
4
4
5
7
39
20
5
5
4
4
6
11
39
20
5
5
4
4
6
11
39
20
6
5
5
4
6
11
42
22
6
6
5
4
7
11
42
22
5
5
5
5
7
11
43
22
6
5
5
7
8
13
45
24
6
5
5
8
9
14
46
24
6
6
5
8
10
14
46
27
6
6
5
8
11
16
48
29
7
6
7
9
12
17
48
29
7
6
8
10
12
17
48
32
7
6
9
10
12
17
50
32
8
7
12
10
12
21
50
36
8
8
12
11
12
21
50
38
9
9
13
19
13
21
52
38
9
12
15
23
12
21
52
38
9
13
19
24
13
22
52
38
9
13
22
24
13
24
52
39
10
13
27
25
13
24
52
39
10
13
28
25
13
25
53
40
10
14
28
25
13
25
55
40
10
14
31
26
13
26
55
40
10
14
32
27
14
26
57
41
10
14
32
27
14
26
57
41
10
14
32
27
16
31
58
41
11
15
32
27
16
31
60
41
11
15
34
28
18
32
60
41
11
15
34
29
19
32
60
42
11
15
35
32
19
33
60
42
11
16
36
32
19
34
60
42
12
16
37
32
19
36
60
42
12
16
38
32
19
36
61
44
12
17
38
34
20
37
62
44
12
17
38
35
20
37
62
44
12
17
38
35
20
37
62
45
12
17
39
35
20
37
61
45
12
17
39
35
20
39
62
45
12
18
39
36
20
40
62
45
12
18
39
36
20
41
62
45
12
18
39
36
20
41
64
45
12
18
39
37
20
41
65
46
12
18
39
38
20
41
65
47
13
18
39
38
21
41
65
47
13
18
39
38
21
41
65
47
13
18
39
38
22
42
63
47
13
18
39
38
22
42
63
48
13
18
41
39
23
46
64
49
13
18
41
39
23
47
65
50
13
18
42
39
23
47
65
51
13
18
42
39
23
47
64
53
14
18
42
39
23
47
64
53
14
18
42
39
23
47
65
53
14
18
42
39
24
48
63
53
14
19
43
39
24
48
62
53
14
19
44
39
23
48
62
53
14
20
44
39
23
49
61
52
14
20
44
39
23
52
61
52
14
20
44
39
23
53
62
51
14
20
44
39
23
52
62
51
14
20
44
39
22
52
62
51
13
20
44
38
23
53
62
50
13
20
44
38
23
53
61
50
13
20
43
38
23
54
62
48
13
19
43
38
23
54
62
48
13
19
43
36
23
56
62
48
13
17
43
33
23
56
62
49
13
16
41
32
24
56
62
50
13
16
41
33
24
56
63
50
12
16
38
33
24
56
62
50
12
16
37
32
24
56
62
50
12
17
40
32
24
56
60
50
13
16
38
31
24
56
60
50
13
17
37
31
24
56
58
50
13
17
39
31
24
56
56
50
13
17
39
31
23
55
57
50
13
18
40
31
23
55
55
51
13
18
39
30
22
55
57
53
13
18
39
30
22
55
57
52
13
18
38
27
21
55
58
52
12
17
36
27
22
56
58
52
12
17
36
27
22
54
58
53
13
17
35
26
22
54
58
52
13
17
35
24
22
54
57
52
12
16
35
22
21
55
57
52
12
17
34
22
21
56
57
52
12
17
35
22
22
56
57
52
12
16
35
23
21
55
56
52
12
16
35
23
21
55
56
53
12
16
35
23
22
57
56
53
12
16
36
23
22
59
55
54
12
16
37
21
23
59
53
56
14
17
37
20
22
59
52
54
14
17
37
19
22
59
52
54
14
17
37
19
22
60
53
55
14
17
37
19
21
59
54
55
14
17
38
19
22
59
55
54
14
19
35
18
21
56
55
55
14
19
35
18
21
55
54
54
14
18
35
18
21
55
54
52
14
19
35
18
21
57
57
51
13
19
35
18
20
57
57
51
13
19
35
17
20
58
57
51
13
19
35
17
20
59
60
51
13
18
34
18
21
59
60
52
13
18
33
18
21
59
59
52
13
17
33
18
21
57
60
52
13
17
33
18
20
54
59
52
13
17
33
18
20
54
58
51
13
17
33
18
20
54
56
51
13
17
33
18
20
54
56
51
13
18
35
18
20
53
57
50
13
18
35
19
20
53
58
52
13
18
35
19
19
52
56
52
13
18
35
19
19
52
55
53
13
18
35
18
19
50
55
52
13
18
35
18
19
50
55
53
13
18
35
18
19
51
55
52
13
18
34
20
18
50
55
52
13
18
34
20
19
50
55
52
13
18
34
21
19
50
55
53
13
18
30
20
19
50
55
54
13
18
31
20
19
51
55
54
13
17
31
20
20
54
56
55
13
17
29
20
20
53
56
55
13
17
29
20
19
52
55
55
13
17
28
20
19
53
57
54
13
17
28
21
18
53
55
53
13
17
28
22
18
54
57
52
13
17
29
21
18
56
56
52
13
17
28
21
19
54
55
53
13
18
28
22
19
54
57
52
13
18
28
22
19
57
56
52
13
18
28
22
20
57
56
52
13
18
28
22
20
56
56
52
13
18
28
22
20
56
56
54
13
18
28
22
19
56
58
54
13
18
28
21
19
56
57
54
13
18
29
21
19
55
58
53
13
18
28
21
19
54
59
53
13
18
28
24
20
52
58
53
13
18
27
24
20
52
58
50
12
17
27
25
20
54
57
51
12
18
28
24
20
54
57
51
12
18
28
24
20
53
56
50
12
18
29
24
20
53
55
50
12
18
32
24
20
53
55
49
12
16
32
24
19
53
54
49
13
17
33
25
19
53
55
50
13
17
33
25
19
53
55
49
12
17
33
25
19
52
54
49
13
16
32
25
19
51
54
50
12
17
33
25
19
51
56
52
13
17
33
25
19
50
56
52
13
17
33
25
19
51
58
51
13
18
32
25
19
52
61
51
13
19
33
25
19
53
61
51
13
20
33
25
19
53
61
51
13
20
36
26
19
52
61
51
14
20
36
26
19
53
60
52
14
20
37
26
18
52
60
53
14
19
36
25
18
52
60
53
15
19
35
25
18
53
60
52
14
19
36
25
19
53
60
52
15
19
36
25
19
53
62
50
14
19
36
25
20
53
63
49
15
19
37
25
20
54
62
49
15
19
37
25
19
53
61
49
14
19
37
22
19
53
61
49
14
19
37
23
19
53
61
50
14
19
36
22
19
53
61
48
14
19
36
22
19
53
62
48
14
19
36
22
19
52
64
49
14
19
37
22
18
50
64
46
14
19
37
22
19
50
64
46
14
19
37
22
19
50
65
46
14
19
39
23
19
49
63
46
14
19
39
22
18
48
63
48
14
19
39
21
19
48
62
50
15
19
39
21
18
45
62
51
15
19
39
21
17
45
65
53
15
18
39
21
17
45
65
55
15
18
39
21
17
43
67
56
15
18
39
20
18
46
67
56
14
18
39
20
18
46
67
55
14
18
39
20
18
47
67
53
14
18
39
20
18
47
66
53
14
17
39
21
19
46
67
53
14
17
38
22
19
46
66
53
14
17
38
22
19
49
65
54
15
18
40
20
18
49
65
54
15
18
41
19
18
51
65
54
15
19
43
19
18
49
65
54
15
19
43
19
18
49
65
54
15
20
43
19
18
49
65
54
15
20
42
19
18
49
65
54
14
20
39
19
18
49
65
56
15
20
39
19
18
50
67
55
14
20
39
18
18
52
66
55
14
21
39
19
20
52
66
55
14
21
39
19
20
53
65
54
14
21
39
18
20
54
65
55
15
21
39
18
21
54
64
53
15
21
40
18
20
54
62
53
15
21
40
20
21
53
60
53
15
21
41
21
21
52
57
54
15
22
40
21
21
52
57
54
15
23
44
21
21
52
59
55
15
23
41
21
21
52
59
55
15
23
41
21
21
52
59
55
15
23
41
22
22
53
60
54
14
23
42
22
22
53
59
55
15
23
42
22
22
52
59
55
15
23
42
22
22
52
60
54
15
23
42
23
22
52
59
54
14
23
42
24
21
52
57
54
14
23
42
24
21
52
57
53
14
23
45
25
21
54
58
53
14
23
45
25
24
55
59
54
15
23
46
24
25
56
60
55
16
24
47
24
26
57
61
55
16
24
49
26
26
57
60
54
16
25
49
26
26
56
59
55
17
24
48
26
26
56
59
55
17
25
47
28
26
56
58
55
17
25
47
32
27
56
58
56
17
25
48
32
27
56
58
55
17
25
48
33
27
57
59
56
18
25
48
33
29
57
61
54
18
25
49
33
29
58
61
54
18
25
49
33
29
58
58
51
18
25
49
34
30
59
58
50
19
26
49
34
30
58
55
49
19
26
51
34
30
56
55
49
19
26
51
34
30
56
57
50
19
26
51
34
30
55
57
50
19
26
51
34
30
55
56
49
19
26
51
34
30
55
58
49
19
26
51
33
30
55
59
50
19
26
51
33
29
53
59
51
19
25
51
33
29
53
59
51
19
25
50
34
29
51
61
52
18
25
50
36
30
51
61
53
19
24
51
36
30
51
60
52
19
23
50
36
30
52
61
53
19
24
50
36
30
52
61
53
19
24
51
37
30
52
61
51
19
23
50
37
31
51
59
51
18
23
50
37
31
49
59
51
18
23
50
37
30
48
59
51
18
23
50
37
30
47
61
51
18
23
50
37
30
46
61
49
18
22
50
37
30
45
60
49
17
22
50
37
30
45
62
49
17
22
50
36
30
46
63
49
17
21
49
36
30
45
64
48
17
19
49
36
30
45
65
48
17
18
46
36
30
45
63
47
17
18
46
35
30
45
64
47
17
18
46
35
30
45
64
47
17
17
47
34
30
45
64
47
17
18
45
35
30
46
64
45
16
17
47
35
30
46
64
45
16
17
47
35
30
46
63
46
16
17
48
35
30
47
64
48
16
17
48
34
30
45
64
49
16
17
47
34
30
45
64
49
16
17
47
34
30
44
63
49
16
17
46
34
28
42
65
46
15
16
47
34
27
42
63
45
14
14
46
34
26
40
63
45
14
14
44
33
26
42
64
46
14
14
45
33
26
41
64
43
13
14
45
33
26
41
63
44
13
13
45
32
25
41
63
44
13
12
45
28
25
41
64
44
13
12
44
28
25
41
64
44
13
12
43
27
24
40
63
42
11
12
43
26
22
40
61
42
9
12
42
26
22
40
61
42
9
12
42
26
22
38
61
43
10
12
42
27
21
38
63
41
8
11
42
28
21
39
64
43
9
12
41
28
20
38
63
43
8
11
44
28
20
38
62
43
8
11
43
28
20
38
62
43
8
11
43
28
20
38
62
43
8
11
43
28
19
38
60
43
8
11
43
28
20
38
59
42
8
11
44
28
20
37
59
40
7
11
42
27
20
37
59
39
8
11
43
25
20
39
58
40
9
12
43
23
19
39
58
39
9
12
43
23
19
39
58
39
9
12
43
23
19
38
58
38
8
11
43
23
19
38
58
38
8
11
43
22
19
38
58
38
8
11
43
22
17
38
58
38
8
11
43
21
17
38
57
38
8
11
43
21
17
38
57
39
8
11
43
21
17
38
56
39
8
11
43
21
16
38
55
40
8
11
44
21
17
39
55
41
9
11
43
22
17
39
52
40
9
11
43
21
17
39
52
41
9
11
43
21
17
39
51
41
9
11
43
21
17
38
50
40
9
11
43
21
15
38
50
40
9
11
43
21
15
38
49
39
9
11
42
21
16
38
48
40
9
11
42
20
15
37
49
40
9
11
42
19
14
36
49
40
9
11
40
19
13
35
49
40
9
11
39
19
13
35
49
40
9
11
39
19
13
33
47
37
9
11
39
19
13
33
47
37
9
11
39
19
13
33
47
37
9
11
36
19
13
33
48
37
9
10
35
18
14
34
47
39
9
11
35
18
14
35
48
39
9
10
35
18
14
34
48
38
9
10
35
17
14
33
46
38
9
10
33
17
14
33
44
38
9
10
33
17
14
33
44
38
9
10
32
17
14
34
44
38
9
11
32
16
14
33
44
37
9
11
32
16
14
33
44
37
9
11
32
16
14
32
44
36
9
11
31
16
14
32
43
36
9
11
32
16
14
31
43
36
9
10
32
15
14
31
41
35
9
10
32
14
13
31
38
35
9
10
31
11
13
30
36
32
8
10
30
11
13
29
36
32
8
10
26
11
13
30
35
32
8
10
26
11
13
29
36
31
8
9
26
11
13
29
36
31
8
9
26
11
13
29
36
31
8
9
26
11
13
28
37
31
8
9
25
10
13
28
37
31
8
9
25
10
12
28
36
30
7
8
24
10
12
25
35
28
6
7
20
10
12
24
35
27
6
6
17
9
12
24
35
27
6
6
17
9
12
24
35
26
6
6
16
9
11
24
35
26
6
6
16
9
11
24
34
26
6
6
15
9
11
24
34
26
7
6
15
8
11
24
34
26
7
6
14
8
11
23
33
25
7
6
13
8
11
22
32
25
7
6
11
8
11
21
32
23
6
6
11
6
9
21
32
22
6
5
10
5
9
20
32
22
6
5
10
5
8
19
32
22
6
5
9
5
8
19
32
22
6
5
9
5
8
19
31
22
6
5
9
5
8
19
31
22
6
5
9
5
8
18
31
22
6
5
9
5
8
18
30
21
6
5
9
5
8
18
30
22
7
5
9
4
8
18
28
21
7
5
9
4
9
18
28
23
8
5
8
4
9
18
28
23
8
5
8
4
9
18
28
23
8
5
8
4
9
18
28
23
8
5
8
4
9
17
27
23
8
5
8
3
9
16
26
22
8
5
8
3
6
14
21
19
8
4
8
3
6
12
21
19
8
4
7
3
6
12
19
19
8
4
7
3
6
11
19
19
8
4
7
3
6
9
19
19
8
4
7
3
6
9
19
20
8
4
7
3
6
8
17
20
8
4
7
2
6
8
16
20
8
3
7
2
6
8
15
20
8
3
5
2
6
8
15
20
8
3
5
2
6
8
15
20
8
3
3
2
6
9
15
20
8
3
3
2
6
8
15
20
8
3
3
2
6
9
14
20
8
3
3
2
6
8
14
20
8
3
3
2
6
8
14
20
9
3
2
2
6
8
14
21
9
3
2
2
6
8
13
21
9
3
2
2
6
8
13
21
9
3
2
2
6
8
13
21
9
3
2
2
6
8
10
21
9
3
2
2
6
8
9
20
9
3
2
2
6
8
9
20
9
3
2
2
6
7
9
20
9
3
2
2
6
6
9
20
9
3
2
2
6
6
9
20
9
3
2
2
6
6
9
20
9
3
2
2
6
6
8
20
9
3
2
2
6
6
8
20
9
3
2
2
6
6
8
20
8
3
2
2
6
6
8
20
8
3
2
2
6
6
8
20
8
3
2
2
6
6
8
19
8
3
1
2
6
6
8
18
8
3
1
2
6
6
6
18
8
3
1
2
6
6
6
18
8
3
1
2
6
6
6
18
8
2
1
2
6
6
6
18
8
3
1
1
6
6
6
18
8
3
1
1
6
6
5
18
8
2
1
1
6
6
5
18
8
2
1
1
6
6
5
18
8
2
1
1
6
6
5
17
7
2
1
1
6
6
5
18
7
2
1
1
5
6
5
14
6
2
1
1
5
6
5
14
6
2
1
1
4
6
5
14
6
2
1
1
4
6
4
14
6
2
1
1
4
7
4
14
6
2
1
1
4
7
4
14
6
2
1
1
4
7
4
14
6
2
1
1
4
7
3
14
6
2
1
1
4
7
3
14
6
2
1
1
4
7
3
14
6
2
1
1
4
7
3
13
6
2
1
1
4
6
3
13
6
2
1
1
4
6
3
13
6
2
1
1
4
6
3
13
6
2
1
1
4
6
3
13
6
2
1
1