0
10
15
3
2
2
2
1
2
10
15
3
2
2
1
1
2
8
15
5
1
1
1
0
1
7
14
5
1
1
1
0
1
6
18
5
2
1
1
1
1
6
18
4
3
1
1
1
1
5
17
4
2
1
1
1
1
5
16
4
3
1
1
1
1
5
15
4
3
1
1
1
1
6
17
4
3
1
1
1
1
5
17
4
3
1
1
1
1
5
16
5
3
1
1
1
1
5
16
4
3
1
1
1
1
5
15
4
2
1
1
1
1
5
15
4
2
1
1
1
1
5
14
4
2
1
1
1
1
5
15
4
2
1
1
1
1
5
18
5
2
1
1
1
2
4
17
7
2
1
1
1
2
4
17
6
2
1
1
1
2
4
17
6
2
1
1
1
2
4
16
6
2
1
1
1
1
4
16
7
2
1
1
1
2
4
16
7
2
1
1
1
2
4
16
6
2
1
1
1
2
4
15
6
2
1
1
1
1
4
15
6
2
1
1
1
1
4
15
6
2
1
1
1
1
5
15
6
2
1
1
1
1
5
17
6
2
1
1
1
1
5
22
6
2
1
1
1
2
5
22
7
3
1
1
1
2
5
21
6
3
1
1
1
1
5
21
6
3
1
1
1
1
5
21
6
3
1
1
1
1
5
21
6
3
1
1
1
1
5
21
6
3
1
1
1
1
5
21
7
3
1
1
1
1
5
21
6
3
1
1
1
2
5
21
7
3
1
2
1
2
6
21
6
2
1
2
1
2
6
21
7
3
1
2
1
2
6
21
6
3
1
2
1
2
6
21
6
3
1
1
1
2
6
21
8
3
1
1
1
2
6
21
8
3
1
1
1
2
6
22
8
3
1
1
1
2
6
22
8
3
1
1
1
2
6
23
8
3
1
1
1
2
7
23
8
3
1
1
1
2
7
23
8
3
1
1
1
2
7
22
8
3
1
1
1
2
7
23
8
3
1
1
1
2
7
23
8
3
1
1
1
2
7
23
8
3
1
1
1
2
7
23
8
3
1
1
1
2
7
23
8
3
1
1
1
2
7
23
8
3
1
2
1
2
7
23
8
3
1
2
1
2
7
23
8
3
1
2
1
2
7
23
8
3
1
2
1
2
7
23
8
3
1
1
1
2
7
24
8
3
1
1
1
2
7
24
8
3
1
1
1
2
7
25
9
3
1
1
1
2
7
25
9
3
1
1
1
2
7
25
9
3
1
1
1
2
7
25
9
3
1
1
1
2
7
25
8
3
1
1
1
2
8
25
8
3
1
1
1
2
8
25
8
3
1
1
1
2
8
25
8
3
1
1
1
2
8
25
8
3
1
1
1
2
8
25
8
3
1
1
1
2
8
25
8
3
1
1
1
2
8
25
8
3
1
1
1
2
8
25
8
3
1
1
1
2
8
25
8
3
1
1
1
2
8
26
8
3
1
1
1
2
9
25
8
3
1
1
1
2
9
23
8
3
1
1
1
3
9
23
8
3
1
1
1
3
9
23
8
3
1
1
1
3
9
23
8
3
1
1
1
3
9
23
8
3
1
1
1
3
9
23
8
3
1
1
1
3
9
24
8
3
1
1
1
3
9
23
8
3
1
1
1
3
9
23
8
3
1
1
1
3
9
23
8
3
1
1
1
3
9
23
8
3
1
1
1
3
9
23
8
3
1
1
1
3
9
24
8
3
1
1
1
3
9
24
8
3
1
1
1
3
9
24
7
3
1
1
1
3
9
24
7
3
1
1
1
3
9
23
7
3
1
1
1
3
9
23
7
3
1
1
1
3
9
24
7
3
1
1
1
3
8
24
7
3
1
1
1
3
9
24
7
3
1
1
1
3
9
24
7
3
1
1
1
3
9
24
7
3
1
1
1
3
10
24
7
3
1
1
1
3
10
24
7
3
1
1
1
3
10
24
8
3
2
2
1
3
10
24
9
4
2
3
1
3
10
24
9
4
2
5
1
3
10
24
9
4
2
6
2
3
14
23
9
4
2
9
2
3
14
23
9
4
2
13
3
3
15
23
9
5
2
15
3
3
15
23
9
5
2
15
3
3
15
22
9
5
2
15
3
4
16
22
9
5
2
18
5
4
16
22
9
5
3
22
5
4
16
22
10
5
3
25
5
4
16
22
10
5
3
25
5
4
16
22
10
5
3
25
5
4
16
22
10
6
3
25
5
4
16
22
10
6
3
26
5
4
16
22
10
6
3
26
5
4
16
22
11
6
4
26
5
4
17
22
12
7
4
26
5
4
18
22
12
6
4
26
5
4
18
22
12
6
4
26
5
4
18
22
12
7
5
26
5
4
18
22
12
7
5
26
5
4
18
21
12
7
5
26
5
4
18
21
12
7
6
26
5
4
20
21
12
7
6
26
5
4
20
21
12
7
7
27
5
4
21
21
12
7
8
27
5
4
22
21
12
8
10
27
5
4
22
22
13
10
10
27
5
4
22
22
13
10
11
31
5
4
22
20
13
11
11
32
5
4
23
21
13
11
11
32
5
4
23
21
13
11
11
32
5
4
23
21
14
11
14
32
5
5
23
21
14
13
17
32
5
5
23
21
14
13
17
32
5
5
23
20
14
13
17
33
5
5
23
20
14
13
18
33
5
5
23
21
14
13
19
33
5
6
23
21
14
14
19
33
5
6
24
20
15
14
20
33
5
6
24
20
15
14
20
35
6
6
26
18
15
14
20
35
6
6
27
17
16
14
20
35
6
6
27
18
16
14
20
35
6
6
27
18
16
15
20
35
6
7
27
17
16
15
20
36
6
7
27
18
16
15
20
36
6
7
27
18
16
16
23
37
6
7
27
18
16
15
24
37
6
7
27
18
15
15
25
37
7
7
29
18
16
15
25
37
7
7
29
18
16
15
25
37
6
7
28
18
17
16
25
37
7
8
28
18
17
16
26
36
6
8
28
18
19
17
27
35
6
8
29
20
19
17
28
35
6
8
29
20
19
17
28
35
6
8
29
20
19
17
28
34
5
8
29
22
19
18
29
32
5
8
29
22
19
18
29
29
5
8
29
22
19
18
29
29
6
8
29
22
19
18
29
29
6
8
30
22
19
18
29
29
5
8
30
24
19
18
29
29
6
8
30
25
20
18
29
29
5
8
31
25
19
18
29
31
7
8
30
25
18
18
30
31
7
8
30
25
19
18
30
33
8
8
31
25
19
19
31
33
8
8
31
25
19
20
32
33
8
8
31
25
19
20
33
34
9
8
31
26
19
20
33
37
9
8
31
26
21
20
33
37
9
8
30
26
21
20
33
37
9
8
30
26
21
21
33
37
9
8
30
25
21
21
33
37
9
8
30
25
21
20
32
38
9
8
30
25
22
19
32
38
9
8
30
24
22
19
32
35
9
8
30
24
22
20
33
34
9
8
30
24
21
19
33
35
9
8
30
24
21
19
33
35
9
8
30
24
21
20
32
35
9
8
30
25
21
18
30
35
9
8
31
26
21
18
31
35
9
8
31
28
21
18
32
35
9
8
31
28
21
19
31
34
9
8
31
27
21
18
31
35
9
8
32
27
22
18
31
35
9
8
32
27
21
18
30
35
9
8
32
27
21
18
31
34
9
8
31
27
21
18
31
34
9
8
31
27
21
18
31
34
8
8
31
28
21
18
31
34
8
8
31
27
21
17
31
35
9
8
31
28
21
17
32
34
9
8
31
28
21
17
32
34
9
8
31
29
21
17
30
34
8
8
31
29
21
17
29
34
8
8
31
28
21
17
29
33
8
8
29
28
22
17
30
33
8
8
30
31
22
17
30
33
8
7
30
31
21
17
30
34
8
7
30
31
22
17
29
34
8
7
30
31
21
16
28
34
8
7
30
30
21
16
27
34
8
7
30
31
21
16
27
36
8
7
31
30
21
16
27
36
8
7
30
29
21
16
27
36
8
7
30
29
21
16
27
36
8
7
30
29
20
16
27
37
8
7
30
30
20
16
27
37
8
7
30
29
20
16
27
37
8
7
30
28
21
16
27
37
8
7
31
28
22
16
28
38
8
7
31
29
22
16
28
36
7
7
31
29
22
16
27
36
7
7
31
29
22
16
27
35
6
7
30
29
22
15
26
35
6
7
30
29
22
15
27
35
6
7
30
29
23
15
27
35
5
8
31
30
23
15
27
33
5
8
31
30
22
15
26
34
6
8
31
30
21
14
26
34
6
8
31
30
21
14
26
34
6
8
31
30
21
14
26
34
6
8
31
30
22
15
27
33
6
8
32
30
21
15
27
33
6
8
32
30
22
15
27
33
6
8
32
30
22
14
26
34
6
8
32
30
22
14
28
35
6
8
32
30
22
15
28
36
6
8
32
30
22
14
28
36
6
8
32
29
22
15
27
36
6
7
32
29
23
15
27
37
6
7
32
27
23
14
26
37
6
7
32
27
23
14
26
37
6
7
32
27
23
14
26
37
6
7
31
28
23
14
26
39
6
7
31
28
23
14
26
41
7
7
31
28
22
14
26
41
7
7
31
27
22
14
26
41
7
7
30
27
22
14
26
41
7
7
30
28
24
14
26
41
7
7
30
28
24
15
27
41
7
7
30
29
24
15
26
42
7
7
30
29
24
15
26
42
7
7
30
28
24
15
26
43
7
7
30
29
23
15
26
44
7
7
30
28
23
15
26
43
8
7
30
29
23
14
25
44
8
7
29
26
23
14
25
44
8
7
29
27
23
14
25
44
8
7
28
26
22
14
26
44
8
7
28
26
21
13
26
45
8
6
29
26
21
13
26
45
8
6
30
26
22
14
26
44
8
7
30
26
22
14
26
44
8
7
31
25
22
14
26
45
8
7
31
25
22
14
26
46
8
7
31
25
22
14
26
46
8
7
31
25
22
14
26
49
9
7
31
25
22
13
26
52
9
7
31
25
22
14
26
51
9
7
29
26
22
14
26
51
9
7
29
24
22
14
26
51
9
7
29
24
23
14
26
51
9
7
29
25
22
14
25
54
9
7
29
24
22
13
26
57
9
7
29
24
21
12
23
56
10
7
29
24
21
12
23
58
10
6
28
23
21
12
23
57
10
6
27
23
20
11
23
57
10
6
27
22
20
11
23
57
10
6
29
22
20
12
23
60
10
6
29
22
20
12
24
61
11
6
28
23
20
11
23
61
11
7
27
23
21
11
23
61
11
7
27
23
21
11
22
63
11
7
27
23
21
11
23
63
11
7
27
23
21
11
21
63
11
7
28
23
20
11
21
62
11
7
28
23
20
11
21
63
11
7
27
24
20
11
21
63
11
7
29
24
20
11
22
62
11
7
28
24
20
11
22
64
11
7
29
24
20
11
22
64
12
7
31
25
20
11
23
64
12
7
31
24
23
12
23
63
12
7
31
25
24
12
23
62
11
7
30
24
24
12
23
62
11
7
31
25
24
12
23
64
12
7
32
26
24
12
23
64
12
7
32
25
24
12
23
64
12
7
33
25
24
11
22
64
12
7
32
23
24
11
22
63
12
7
32
23
24
11
22
65
13
7
33
23
24
11
22
64
13
7
33
22
24
11
21
64
13
7
33
24
24
11
21
64
13
7
33
24
24
11
21
65
13
7
33
24
24
11
21
65
13
7
33
23
24
11
21
65
13
7
33
23
24
11
21
64
13
7
33
24
24
11
21
64
13
7
32
24
24
11
21
64
13
7
31
23
25
11
21
66
13
7
30
23
24
11
20
66
13
7
30
23
24
11
20
66
13
7
30
23
24
11
21
66
13
7
31
23
25
11
23
68
13
7
31
24
25
11
23
66
13
7
31
24
25
11
24
63
13
7
31
23
24
11
23
64
13
7
31
23
24
11
23
64
13
6
31
24
23
11
24
65
13
6
31
24
23
11
24
65
13
7
31
23
23
11
24
63
13
6
31
23
23
11
23
60
13
6
31
24
23
11
23
60
13
7
31
24
23
11
23
59
13
6
31
24
23
11
23
59
13
6
32
24
23
11
23
60
13
6
32
25
23
11
23
59
13
6
31
25
23
10
23
57
12
6
31
25
23
10
23
56
12
6
31
25
23
10
23
55
11
6
31
25
22
10
23
55
11
5
32
27
22
10
23
53
11
5
35
27
22
10
22
53
11
5
35
26
22
10
23
53
12
5
35
26
22
10
23
53
12
5
35
26
22
10
23
52
11
5
35
26
22
10
23
52
11
5
33
26
22
10
22
52
11
6
33
26
22
9
21
50
11
6
33
26
22
9
21
51
11
5
31
25
22
9
22
52
11
5
31
24
19
9
22
52
11
5
32
24
17
10
22
52
11
5
32
24
18
10
22
52
11
5
32
24
18
10
22
49
10
5
30
23
18
10
22
50
10
5
30
24
18
10
23
49
10
5
30
24
18
10
23
49
10
5
30
24
18
10
23
49
10
5
30
24
18
10
22
47
9
5
29
24
18
10
22
47
8
5
29
24
18
10
22
49
8
5
30
23
18
10
23
51
8
5
30
23
18
11
23
51
8
5
30
23
18
11
24
51
8
5
32
23
18
11
24
51
8
5
32
23
18
11
24
51
8
5
32
23
18
10
24
51
8
5
31
23
18
10
24
50
9
5
31
23
17
11
24
48
9
5
31
23
18
11
24
48
9
5
32
23
18
11
24
47
8
5
32
23
18
10
24
46
8
5
31
22
17
10
21
44
8
5
31
22
18
10
21
44
8
6
31
22
18
10
21
44
8
6
30
22
18
10
21
44
7
6
30
21
18
10
21
44
7
6
30
20
18
10
20
42
7
5
30
20
18
10
20
42
7
5
30
20
18
10
20
42
7
5
30
20
18
10
20
42
7
5
31
20
18
10
20
42
7
5
31
20
18
10
19
42
7
5
31
21
18
10
19
40
7
5
30
21
18
10
19
40
6
5
29
20
18
10
19
40
7
5
29
20
18
10
19
40
7
5
29
20
18
10
19
40
6
5
29
19
20
10
19
39
7
5
29
19
20
10
19
39
7
5
28
17
20
10
19
39
6
5
23
18
20
10
19
39
6
5
23
19
21
10
18
38
6
5
23
19
21
10
18
38
6
5
23
19
21
10
18
38
6
5
23
20
21
10
18
38
6
5
24
21
21
10
18
38
6
5
24
21
21
10
17
37
6
4
23
21
22
10
17
36
5
5
23
21
22
10
17
35
5
5
23
21
21
9
16
34
5
5
23
21
21
9
16
34
5
5
23
21
21
9
16
32
5
5
22
21
21
9
16
32
5
5
22
21
21
9
16
32
5
5
22
21
21
8
14
32
5
5
22
21
21
8
13
31
5
5
22
20
21
8
13
31
5
5
22
21
21
8
13
31
5
5
22
24
21
8
13
30
4
5
22
24
21
7
13
27
4
4
21
24
21
7
13
23
4
4
20
24
21
7
12
21
4
4
20
24
21
7
8
20
4
5
17
24
21
7
8
19
4
4
17
24
21
7
8
18
4
4
16
24
21
7
8
18
4
4
16
24
21
7
7
17
3
4
16
24
21
6
7
17
3
4
16
24
21
7
7
17
3
4
16
24
21
6
7
16
3
4
15
24
21
6
7
16
3
4
15
24
21
6
7
14
3
4
15
24
20
6
7
14
3
4
15
24
20
6
6
13
3
4
15
24
19
6
5
9
2
4
15
24
19
6
5
9
2
4
15
24
20
6
4
9
2
4
15
25
20
6
4
8
2
4
15
25
20
6
4
7
2
4
14
25
20
6
4
7
2
4
12
25
21
7
4
7
2
4
12
24
23
7
4
7
2
4
12
25
23
7
4
7
2
4
12
26
23
7
4
6
2
4
12
26
23
7
4
6
2
4
13
26
23
7
4
5
2
5
13
26
23
7
4
5
2
5
13
26
21
7
4
5
2
5
13
27
21
7
4
5
2
5
12
27
21
7
3
5
2
5
12
26
21
7
3
5
2
5
12
26
21
7
3
4
2
5
12
27
21
7
3
4
2
5
12
27
21
7
3
4
2
5
12
26
20
7
3
4
2
5
10
26
20
7
3
4
2
5
10
26
20
6
3
3
2
5
10
25
19
6
3
3
2
5
10
25
19
6
3
3
2
5
9
25
19
6
3
3
2
5
9
25
20
6
3
3
2
5
9
25
19
6
3
4
2
5
9
25
20
6
3
3
2
5
9
25
20
6
3
3
2
5
10
27
19
6
3
3
2
5
10
27
19
6
4
3
2
5
10
27
19
6
4
4
2
5
10
26
20
6
4
4
2
5
10
24
20
6
4
4
2
5
10
25
20
6
4
4
2
5
10
25
20
6
4
4
2
5
10
25
20
6
4
4
2
5
10
24
20
6
4
4
2
5
10
24
19
6
4
4
1
5
10
24
19
6
4
4
1
5
10
24
19
6
4
4
1
5
10
24
19
6
4
4
1
5
11
24
19
6
4
4
1
5
10
24
20
6
4
4
1
5
10
24
20
6
4
4
1
5
10
24
20
6
4
4
1
5
10
24
20
6
4
4
1
5
11
25
20
6
4
4
1
5
11
25
20
6
4
4
1
5
11
25
20
6
4
4
1
5
11
25
20
6
4
4
1
5
11
24
20
6
4
4
1
5
11
24
20
6
4
5
1
5
11
27
21
6
4
5
1
5
11
27
21
6
4
5
1
5
11
27
19
6
4
5
1
5
11
27
17
5
4
5
2
5
12
27
17
5
4
5
1
5
12
25
17
5
4
5
2
5
11
25
17
5
4
4
2
5
11
25
17
5
4
5
2
5
11
25
17
5
4
5
1
5
11
24
17
5
4
5
1
5
11
25
17
5
4
5
1
5
11
24
16
5
4
5
1
5
11
24
16
5
4
5
1
5
11
24
16
5
4
5
1
5
11
23
16
5
4
5
1
5
11
23
16
5
4
5
1
5
11
23
16
5
4
5
1
5
11
23
16
4
4
5
1
5
11
23
16
4
4
5
1
5
11
23
16
5
4
5
1
4
11
23
16
4
4
5
1
4
11
23
16
4
4
6
1
4
11
23
16
4
4
6
1
5
12
23
16
4
4
6
1
5
11
23
15
4
4
6
2
5
11
23
15
4
4
6
1
5
11
21
15
4
4
6
2
4
11
21
14
4
4
6
1
4
11
21
14
4
3
6
1
4
11
21
13
3
3
10
2
4
11
20
13
3
3
16
2
4
11
20
13
3
3
16
2
4
11
21
13
3
3
16
2
4
11
21
13
3
3
16
2
4
11
21
13
3
3
17
3
4
11
21
13
3
4
17
3
4
11
21
15
4
4
17
3
4
11
21
15
4
4
17
3
4
11
20
16
4
4
17
3
4
11
20
16
4
4
18
3
4
12
20
16
4
4
18
3
4
12
20
16
4
4
17
3
4
12
20
16
4
4
17
3
4
12
20
16
4
5
17
3
4
12
20
16
4
5
18
3
4
12
20
16
4
5
18
3
4
13
20
17
4
5
18
3
4
13
20
16
4
5
18
3
4
14
20
16
4
5
18
3
4
14
20
16
4
5
18
3
4
14
15
16
4
5
18
3
4
14
15
16
4
5
18
3
4
14
16
16
4
5
18
3
4
14
17
16
4
5
18
3
4
14
16
17
4
5
19
3
4
14
17
17
4
5
19
3
4
14
17
17
4
6
19
3
4
15
17
17
4
5
19
3
4
15
17
17
4
5
19
3
4
15
17
17
4
5
19
3
4
15
17
17
4
5
19
3
4
15
17
18
4
5
19
3
3
15
17
18
4
5
19
3
3
15
17
18
4
5
19
3
3
15
17
18
4
6
19
3
3
16
16
18
4
6
19
3
3
18
16
18
4
7
19
3
3
18
16
17
4
7
19
3
3
18
16
17
4
7
19
3
3
18
17
17
4
7
19
3
3
18
17
17
4
7
20
3
4
19
18
17
4
7
20
3
4
19
18
17
4
9
21
3
4
19
18
17
5
11
21
3
4
19
18
17
5
11
21
3
4
20
18
17
5
11
22
3
4
20
18
17
5
12
25
3
4
20
18
17
5
12
27
4
4
20
18
17
5
12
27
4
4
21
18
17
5
12
26
4
5
22
18
17
5
12
23
4
5
22
17
17
5
12
28
4
5
22
16
18
7
14
28
4
5
22
16
18
8
14
30
4
5
22
17
19
8
14
32
5
5
22
18
20
8
15
33
5
5
23
18
19
8
15
32
5
6
23
18
19
9
15
34
6
6
24
18
19
9
16
34
6
6
25
18
17
9
17
34
6
6
24
18
17
9
18
34
6
6
26
18
17
9
17
34
6
7
26
18
17
9
18
34
6
7
26
18
17
9
18
35
6
7
27
18
18
10
19
35
6
7
30
18
18
10
19
35
6
7
29
19
18
10
21
36
6
7
29
19
17
10
21
37
6
7
29
20
18
10
21
38
6
7
29
21
18
11
21
38
6
7
30
22
19
11
21
38
6
7
29
22
19
11
21
38
6
7
29
22
19
11
22
39
6
7
32
21
20
12
23
38
6
8
32
21
21
13
25
39
6
8
32
21
21
13
25
40
6
8
32
22
21
13
25
40
7
8
32
23
21
14
27
41
7
8
32
24
22
14
27
41
7
8
33
24
22
14
27
41
7
8
34
24
22
15
27
41
7
8
34
24
21
15
28
42
7
8
34
24
21
15
29
42
7
9
34
24
22
15
29
42
7
8
35
24
22
15
29
42
7
8
34
24
22
15
29
43
7
8
33
24
22
15
30
45
7
9
33
24
23
15
30
45
7
9
34
24
23
16
31
45
7
9
33
24
23
16
31
45
7
9
33
23
23
16
31
44
7
9
35
25
23
16
31
44
7
9
35
25
25
16
30
44
7
9
35
25
28
16
30
44
7
9
35
25
28
17
30
44
7
9
35
25
28
17
30
44
7
9
36
26
28
17
30
42
7
9
37
26
28
17
31
43
7
9
40
26
28
17
31
43
7
9
39
26
28
17
31
44
7
8
39
26
28
17
32
44
7
9
39
26
29
17
32
41
7
9
40
26
28
16
32
41
7
9
41
27
28
16
34
41
7
9
41
27
28
17
35
39
6
9
41
27
27
17
36
38
6
8
41
27
27
16
36
38
6
8
41
27
27
16
35
37
6
8
40
27
27
16
35
37
6
8
40
26
27
16
35
37
6
8
40
26
27
16
35
37
6
8
39
26
27
16
35
37
6
8
39
26
27
16
37
37
6
8
39
26
27
16
38
37
6
8
39
26
27
16
37
38
6
8
37
27
27
16
37
38
6
8
38
27
27
16
37
37
6
8
38
27
27
16
37
36
6
8
38
26
27
16
37
36
6
8
38
26
27
16
37
37
6
8
39
25
26
16
37
37
6
8
39
25
26
16
37
36
6
8
39
25
26
16
37
36
6
8
37
25
25
15
36
38
6
7
37
25
24
15
35
40
7
7
37
25
24
15
37
39
7
7
37
25
24
14
37
42
7
7
37
24
24
14
36
44
7
7
36
23
24
13
36
45
7
7
36
23
24
13
36
45
7
7
35
23
24
13
36
45
7
7
36
23
24
13
36
45
7
7
35
23
24
13
35
45
7
7
36
23
24
13
35
44
6
7
36
23
23
13
35
44
7
7
36
23
23
13
35
44
6
7
36
23
23
13
34
43
6
7
36
24
23
13
34
42
6
7
36
24
23
13
35
43
6
7
36
24
23
13
35
43
6
7
36
24
23
13
35
43
6
7
35
22
23
13
35
44
6
7
34
22
22
13
35
44
6
7
34
23
17
12
35
44
6
7
35
24
17
12
35
44
6
7
34
25
18
12
36
45
6
7
34
26
18
12
36
45
6
7
33
26
18
12
36
44
6
7
29
27
19
12
37
44
6
7
30
27
19
12
37
43
6
7
30
27
19
12
37
43
6
7
30
28
19
13
38
43
6
7
29
30
20
13
37
43
6
7
29
29
21
12
35
42
6
7
29
29
21
12
36
42
6
7
29
29
20
13
37
42
6
8
29
29
20
13
37
43
6
7
30
29
20
13
37
43
6
7
30
29
20
13
37
43
6
8
30
29
21
13
37
43
6
8
30
29
21
13
37
43
6
8
29
29
21
13
37
43
6
7
29
30
21
12
35
43
6
7
28
31
21
12
34
43
6
7
28
31
21
12
34
41
6
7
28
31
20
12
35
41
6
7
27
30
20
12
35
41
6
8
27
30
20
12
35
41
6
8
27
30
20
12
34
40
5
8
31
30
20
12
34
40
6
9
30
30
20
12
34
40
6
9
29
30
20
13
35
41
6
9
31
30
20
13
35
41
5
9
32
30
20
13
35
40
5
9
32
30
20
13
37
36
4
9
32
30
20
13
35
36
4
9
32
30
20
13
35
32
4
9
32
31
20
13
36
30
4
9
32
31
20
14
38
30
4
9
32
31
20
13
39
30
4
9
33
31
20
13
39
31
4
9
32
31
20
14
39
31
4
9
33
31
19
14
40
31
4
10
32
31
19
14
40
32
4
9
32
31
19
13
40
31
4
9
32
31
20
14
40
32
4
9
32
31
22
14
40
32
4
9
32
32
22
14
40
32
4
9
32
32
22
14
39
32
4
9
32
32
22
14
38
32
4
9
31
32
22
14
38
31
4
9
32
32
22
14
39
30
4
9
33
31
22
14
39
31
4
9
33
31
22
14
39
31
3
9
33
32
22
15
39
30
3
9
33
31
22
15
39
29
3
9
33
30
22
15
39
28
3
9
33
30
22
15
40
27
3
9
33
29
21
15
39
27
3
9
32
29
22
16
38
27
3
9
33
29
22
16
38
27
3
9
33
28
22
16
38
28
3
9
33
26
22
16
38
28
4
9
33
26
21
16
38
28
4
9
33
25
21
15
36
29
3
9
33
25
22
15
35
30
3
9
33
25
22
15
35
33
4
9
32
25
22
15
35
33
4
9
32
26
22
15
35
33
4
8
32
26
21
15
35
33
4
8
32
26
21
15
35
33
4
8
34
26
21
15
35
33
4
8
34
26
21
15
35
33
4
8
35
24
21
15
35
33
4
8
35
24
21
15
35
33
4
8
35
25
21
15
35
33
4
8
35
25
22
15
35
34
4
8
34
26
22
15
35
34
4
8
34
26
22
15
35
34
4
7
31
26
22
15
35
34
4
7
31
26
22
15
36
34
4
7
31
26
22
15
36
33
4
7
29
25
22
14
37
34
4
7
29
26
22
14
36
35
4
7
30
26
22
14
34
35
4
7
29
26
22
14
34
35
4
7
29
25
22
14
34
35
4
7
29
25
22
14
33
34
4
7
28
24
22
13
31
33
4
7
29
24
22
13
29
33
4
7
28
24
22
13
29
32
4
7
29
24
22
13
29
32
4
7
30
24
22
13
28
31
4
7
30
24
22
13
28
31
4
7
30
24
23
14
28
31
4
7
30
27
23
13
28
31
4
7
31
27
20
13
28
31
4
7
31
27
20
13
28
31
5
8
31
27
20
13
28
31
5
8
32
27
20
13
28
32
5
8
32
27
20
13
28
34
5
8
31
27
20
13
28
34
5
8
31
27
21
13
28
35
5
8
31
27
22
13
28
35
5
8
30
25
21
12
28
35
6
8
30
25
21
12
28
36
6
7
31
26
21
12
28
36
6
7
29
27
22
12
26
36
6
8
31
30
22
12
25
39
6
8
30
30
21
10
25
43
7
8
30
30
21
10
25
42
7
7
29
30
21
10
26
42
7
7
29
30
23
10
25
42
7
7
28
30
22
10
25
43
7
7
28
30
22
10
26
43
7
7
28
30
21
9
25
43
7
7
29
30
23
9
25
40
7
7
29
31
24
9
25
40
7
7
29
30
24
9
26
40
7
7
29
30
24
9
26
41
7
7
29
30
24
9
26
40
7
7
27
30
24
9
26
41
7
7
27
31
24
9
26
41
7
7
27
32
24
9
26
40
7
7
27
32
24
9
27
41
7
7
27
32
24
9
26
41
7
7
28
31
24
9
26
41
7
7
28
31
24
9
26
41
7
7
29
32
24
8
26
41
7
7
29
32
24
8
26
41
7
7
28
32
24
9
25
41
7
7
28
32
24
9
25
41
7
7
28
32
23
9
23
41
7
7
28
32
23
9
23
40
7
7
27
32
23
9
23
40
7
7
27
34
24
9
23
40
7
7
27
34
23
9
23
40
7
7
27
34
24
9
23
40
7
7
27
34
24
9
23
40
7
6
27
34
24
9
23
40
7
6
27
33
23
9
23
40
7
6
25
34
24
9
23
39
7
6
24
34
23
9
23
39
7
6
24
34
24
9
23
39
7
6
24
34
23
8
22
39
7
6
24
32
23
8
22
39
7
5
23
31
23
8
22
39
7
5
23
31
23
8
22
38
6
4
22
31
24
8
22
38
6
4
21
31
24
8
21
37
6
4
21
31
24
8
21
35
6
5
21
31
24
7
21
35
6
5
21
31
23
8
20
34
6
5
21
31
22
7
20
33
6
5
21
31
22
7
19
33
6
5
21
31
22
7
18
32
5
5
21
30
22
7
18
32
5
5
21
29
21
7
18
32
5
6
20
27
21
7
18
28
5
6
20
27
21
7
18
23
4
6
20
27
21
7
17
22
4
6
20
27
21
7
16
22
4
6
20
27
19
7
16
22
4
6
20
27
19
7
16
19
4
6
20
27
19
7
16
19
4
6
20
27
20
7
16
16
4
6
18
26
17
6
15
16
4
6
18
26
15
6
15
16
3
6
18
26
16
6
14
16
3
6
18
26
15
6
13
15
3
6
17
27
15
6
13
15
2
6
17
27
15
6
12
14
2
7
17
26
15
6
11
13
2
7
17
24
16
6
10
13
2
7
16
24
16
7
8
13
2
7
16
24
16
7
8
11
2
7
14
24
16
7
7
10
2
7
14
24
16
7
7
9
2
6
13
24
16
7
7
9
2
7
13
24
16
7
6
7
2
7
14
24
16
6
6
7
2
7
15
24
16
6
6
6
2
7
15
24
16
6
5
5
2
7
14
23
16
6
5
5
2
7
14
23
16
6
5
5
2
8
15
20
16
6
5
5
2
8
15
20
16
6
5
4
2
8
15
20
16
6
5
4
2
8
15
20
15
6
5
4
1
8
15
20
16
6
5
4
2
8
15
20
16
6
5
4
2
8
15
20
16
6
5
3
2
8
15
19
16
6
4
3
2
8
15
19
15
6
4
3
2
8
15
20
15
6
4
3
2
8
15
20
15
5
4
3
2
8
15
20
15
5
4
3
2
9
15
20
15
6
4
3
2
9
15
19
14
5
4
3
2
9
15
19
14
5
4
3
2
9
15
18
14
6
4
3
2
9
14
18
14
6
4
3
2
8
14
18
14
5
3
3
2
8
14
18
14
5
3
3
2
9
14
18
14
5
4
3
2
9
13
18
14
5
4
3
2
9
13
18
13
5
4
3
2
9
13
18
13
5
4
3
2
9
13
18
13
5
4
3
2
9
14
18
13
5
4
3
2
9
14
17
13
5
4
3
2
9
14
17
13
5
4
3
2
9
14
17
13
5
4
3
2
9
14
17
13
5
4
3
2
9
15
17
13
5
5
3
2
9
15
17
13
5
5
3
2
10
15
17
13
6
5
3
2
10
15
18
13
6
5
3
2
10
15
18
13
6
5
3
2
10
15
18
13
5
5
3
2
10
15
17
13
5
5
3
2
9
15
17
14
5
5
3
2
9
17
18
14
6
5
3
2
9
18
18
13
5
5
3
2
9
22
18
12
5
5
3
2
9
26
18
12
5
5
3
2
9
27
18
12
5
5
3
2
9
27
18
12
5
5
3
2
9
28
17
12
5
5
3
2
9
28
17
12
5
5
3
2
9
28
17
12
5
5
3
2
9
29
18
12
5
5
3
2
9
30
20
12
5
5
3
2
9
30
20
12
5
5
3
2
9
30
20
12
5
5
3
2
8
29
20
12
5
5
3
2
8
29
20
12
5
5
3
2
8
29
20
12
5
5
3
2
8
29
20
13
5
5
3
2
8
29
20
13
5
5
3
2
8
30
20
12
5
5
3
2
8
30
20
12
5
5
3
2
8
30
20
12
5
5
3
2
8
30
20
12
5
5
3
2
8
29
19
13
5
5
3
2
8
29
19
13
5
5
3
2
8
29
20
13
5
5
3
2
7
29
20
12
5
5
3
2
8
29
20
12
5
5
3
2
8
30
23
12
5
5
3
2
8
30
23
12
5
5
3
2
8
30
23
12
5
5
3
2
8
30
23
11
5
5
3
2
8
30
24
12
5
5
3
2
7
30
24
12
5
5
3
2
7
30
24
12
5
5
3
2
7
30
24
12
5
5
3
2
7
30
25
12
5
5
2
2
7
30
25
12
5
5
2
2
7
30
25
12
5
5
2
2
7
30
25
12
5
5
2
2
7
30
25
11
4
4
2
2
6
30
25
11
4
4
2
1
6
30
25
11
4
4
2
1
5
29
25
13
4
3
2
2
5
29
25
14
4
3
2
2
5
29
25
14
4
3
2
1
5
30
25
14
4
3
2
2
5
30
25
14
4
3
2
1
5
30
24
14
4
3
2
1
5
30
24
14
4
3
2
1
5
30
24
13
4
3
2
1
5
29
24
14
4
3
2
1
5
29
24
14
4
3
2
1
5
25
24
14
4
3
2
1
5
22
24
13
4
3
2
1
5
19
24
13
4
2
2
1
5
20
24
13
4
2
2
1
5
19
24
13
4
2
2
1
4
18
24
13
4
2
2
1
4
18
24
14
4
2
2
1
4
16
23
13
4
2
2
1
4
14
22
13
4
2
2
1
4
14
22
13
4
2
2
1
4
14
22
13
4
2
2
1
5
14
21
14
4
2
2
1
4
14
22
14
4
2
2
1
5
14
22
15
4
2
2
1
5
14
22
15
4
2
2
1
4
14
21
15
4
2
2
1
5
14
22
15
4
2
2
1
5
14
22
15
4
2
2
1
5
17
23
15
4
2
2
1
5
17
23
15
4
2
2
1
5
17
22
15
4
2
2
1
5
17
22
15
4
2
2
1
5
18
22
15
4
2
2
1
5
18
22
15
4
2
2
1
5
19
22
15
5
2
2
1
5
19
20
15
5
2
2
1
5
19
19
15
5
3
2
1
5
19
19
15
5
3
2
1
5
19
20
15
5
3
2
1
5
19
20
15
5
3
2
1
5
19
20
15
5
3
2
1
5
19
20
15
5
3
2
1
5
19
20
15
5
3
2
1
5
19
20
15
6
6
2
2
5
19
20
15
6
6
2
2
5
20
21
15
6
6
3
2
6
20
21
15
6
7
3
2
5
20
21
15
7
7
3
2
6
20
21
15
7
7
3
2
6
20
21
15
7
7
3
2
6
19
22
14
7
7
3
2
6
19
23
13
7
7
3
2
6
19
23
13
7
7
4
2
6
19
23
13
7
7
4
2
6
21
23
13
7
9
5
2
6
24
23
13
7
9
5
2
6
23
23
13
7
9
5
2
6
23
23
13
7
9
6
2
6
23
23
13
7
10
7
2
6
24
23
13
7
10
7
2
6
24
23
13
7
10
9
2
7
24
22
13
8
12
9
2
7
25
23
13
8
12
9
2
7
24
24
13
9
15
10
2
7
25
25
13
11
18
10
3
7
25
25
13
11
18
10
3
6
25
29
13
11
19
11
3
6
25
29
14
11
19
11
3
7
25
29
14
11
20
11
3
7
25
30
14
12
20
11
3
7
25
30
14
12
20
11
3
6
25
30
13
12
20
12
3
7
25
30
13
12
21
12
3
6
25
30
12
12
21
12
3
6
25
30
12
12
21
12
3
6
25
30
12
12
22
12
3
6
26
29
12
13
25
15
3
6
26
29
13
13
25
15
3
6
24
29
13
13
25
15
3
7
24
30
13
14
25
15
3
7
25
30
13
14
26
15
3
7
25
30
13
14
26
15
3
7
24
30
13
14
26
15
3
7
24
30
13
14
26
15
3
7
23
30
13
14
27
15
3
6
23
30
16
14
27
16
4
6
25
31
20
14
27
17
4
7
27
31
20
14
27
17
4
7
27
31
20
15
27
19
4
6
27
31
20
15
27
19
4
6
27
31
21
15
27
19
4
6
27
32
22
15
28
20
4
6
27
32
22
15
29
20
4
6
27
31
22
15
28
20
4
6
27
31
22
15
29
21
4
6
27
30
22
15
30
21
4
6
28
31
23
15
30
21
4
6
28
31
22
16
30
21
4
6
28
30
23
16
30
21
4
6
28
31
23
16
31
21
4
6
29
32
23
16
31
21
4
6
29
31
22
16
31
21
4
7
30
33
22
16
31
21
4
7
31
33
22
16
31
21
4
6
29
33
22
16
31
21
4
6
27
32
22
16
32
22
4
6
27
32
23
16
32
22
4
6
27
33
23
16
32
22
4
6
27
35
23
16
32
22
4
6
29
37
23
16
32
22
4
6
29
37
23
16
32
22
4
6
29
37
23
16
32
21
4
6
29
37
23
16
33
21
4
6
29
36
25
16
33
22
4
6
30
36
25
15
31
22
4
6
30
36
25
15
31
21
4
6
30
33
25
16
32
23
4
6
30
33
25
15
31
24
4
6
30
33
26
15
31
24
4
6
30
32
26
15
31
24
4
6
30
32
26
15
31
24
4
6
30
32
26
15
31
23
5
6
30
32
26
15
31
24
5
6
30
32
26
15
30
25
5
6
30
33
26
15
30
25
5
6
30
33
26
15
29
25
5
6
30
34
26
14
28
24
4
6
29
34
26
14
28
24
4
6
30
34
26
14
28
24
4
6
30
33
26
14
28
25
4
6
30
33
26
14
28
25
4
6
30
34
26
14
29
25
4
6
31
34
26
14
29
25
4
6
31
34
26
14
29
25
4
6
31
34
27
15
30
25
4
6
32
34
26
16
30
25
4
6
30
34
23
16
31
25
4
6
29
34
23
16
31
24
4
6
29
33
23
16
33
23
4
6
29
34
23
17
34
23
4
6
29
35
22
17
34
24
4
6
29
34
21
16
34
25
4
6
29
34
21
16
33
25
4
6
29
34
22
18
35
25
4
7
28
34
23
19
39
25
4
7
29
34
23
19
38
25
4
7
28
34
22
19
38
26
4
7
28
34
22
19
38
26
4
7
29
34
22
19
38
26
4
7
29
34
23
19
40
26
4
7
29
33
23
20
44
26
4
7
29
33
23
20
44
28
4
7
28
32
24
20
44
28
4
7
28
34
24
20
44
28
4
7
27
34
24
21
44
28
4
7
27
34
24
20
44
26
4
7
27
34
24
20
44
26
4
7
27
33
24
21
44
27
4
7
27
32
24
20
44
27
4
7
25
30
24
21
44
28
5
7
25
30
24
21
44
28
5
7
25
30
24
21
44
28
5
7
25
29
24
20
44
29
5
7
26
29
22
20
43
33
5
7
25
29
22
21
46
34
5
7
25
30
22
21
48
34
6
7
25
30
21
21
47
33
6
7
26
30
23
21
47
33
6
7
26
31
23
22
49
33
6
8
26
31
22
22
49
35
6
8
26
31
23
22
49
36
6
7
26
31
22
22
49
36
6
8
26
32
22
22
49
35
6
8
26
33
22
22
49
35
6
8
25
32
22
22
49
35
6
8
26
32
22
22
49
36
6
8
26
31
23
23
49
36
6
9
26
31
23
23
50
36
6
9
25
31
23
23
50
37
6
9
25
32
22
23
50
36
6
9
25
32
23
24
50
37
6
9
25
31
22
23
50
37
6
9
24
31
22
23
50
38
6
9
24
31
23
24
50
40
6
9
25
31
22
23
50
40
6
9
24
31
21
23
50
39
6
9
24
30
21
23
51
39
6
9
24
31
21
23
51
40
6
9
25
31
21
23
49
40
7
9
26
31
22
23
50
40
7
9
26
30
23
23
50
41
7
9
26
30
23
23
50
40
7
9
26
30
23
23
51
40
7
9
28
29
22
22
49
40
7
9
30
29
21
21
47
40
7
9
29
29
21
21
48
40
7
9
29
29
21
21
48
39
7
9
29
29
21
21
48
40
7
9
29
29
20
21
48
39
7
9
28
29
20
21
46
40
7
9
27
29
20
20
43
40
7
9
28
30
19
20
44
39
7
9
29
30
19
20
44
39
7
9
30
27
19
20
43
40
7
9
30
27
19
19
43
40
7
9
30
27
19
20
43
40
7
9
30
27
19
20
43
40
7
9
30
27
19
20
43
40
7
9
30
26
19
20
43
40
7
9
31
27
19
20
43
40
7
9
31
27
19
20
43
40
7
10
31
27
19
20
44
39
7
9
31
27
19
20
46
40
7
9
30
28
19
20
46
36
6
10
31
28
19
20
43
35
6
10
31
28
19
19
41
36
6
9
32
28
20
20
42
36
6
9
31
27
18
19
43
36
6
9
32
27
17
18
41
36
6
9
31
26
17
18
41
34
6
9
31
26
16
18
41
33
6
10
33
26
17
18
41
33
6
9
33
25
17
18
41
33
6
9
32
25
17
18
41
35
6
9
33
25
17
18
41
35
6
9
33
25
18
18
41
36
6
9
33
25
18
17
40
35
6
10
34
24
18
17
40
35
6
10
34
24
18
17
40
34
6
10
35
24
18
16
40
35
6
10
35
24
17
16
39
35
6
10
34
23
18
17
41
38
7
10
34
23
18
17
41
36
6
10
35
23
23
18
41
36
6
10
36
24
23
18
41
36
6
9
36
24
23
17
40
36
6
9
36
24
24
17
40
36
6
9
36
24
24
18
41
36
6
9
36
24
24
18
42
35
6
9
36
23
23
18
40
35
6
9
35
23
22
18
39
34
5
9
36
24
23
18
40
38
6
9
36
23
23
18
40
40
6
9
34
24
23
18
40
40
6
9
34
25
24
18
40
40
6
9
35
25
24
18
38
41
6
9
35
25
24
18
40
43
7
9
35
25
25
18
40
43
7
9
35
25
25
18
40
43
7
9
35
24
25
18
41
43
7
9
35
24
25
18
41
43
7
9
35
24
25
18
41
45
7
9
34
23
25
18
41
45
7
9
33
23
25
19
42
45
7
9
34
23
25
18
42
45
7
9
34
24
25
18
42
45
7
9
34
23
25
18
43
44
6
9
35
24
25
19
43
44
6
9
35
24
25
19
43
44
6
8
34
23
24
19
43
44
6
8
35
25
24
18
42
44
6
8
35
25
25
19
40
44
6
8
35
25
25
18
39
44
6
8
35
25
25
18
39
44
6
8
34
24
25
18
39
44
6
8
36
24
25
19
39
43
6
8
35
24
25
18
39
43
6
8
35
24
25
18
39
43
6
8
35
24
25
19
39
44
6
8
35
25
25
19
39
44
6
8
35
28
26
19
39
44
6
7
36
29
25
19
39
44
6
7
37
29
25
19
39
44
6
7
37
29
25
19
39
42
5
7
38
29
25
19
39
42
5
7
38
29
26
19
39
41
5
7
38
32
26
19
39
41
5
6
38
32
26
19
38
41
5
6
37
33
26
19
38
41
5
6
37
33
26
19
38
41
5
6
37
33
26
19
38
40
5
6
37
33
25
18
36
38
5
6
38
33
25
18
36
37
5
6
37
33
20
16
35
36
5
6
36
32
20
16
35
36
5
6
36
32
20
16
35
36
5
6
36
32
20
16
35
36
5
5
36
31
20
16
34
36
5
5
36
32
20
15
32
36
5
5
35
32
20
15
32
36
5
5
35
33
21
15
32
36
5
5
34
33
20
14
31
32
4
5
34
33
20
14
31
29
4
6
34
32
20
14
30
28
3
6
34
32
18
14
30
29
3
6
33
32
18
14
30
28
3
6
33
32
18
14
28
25
3
6
33
32
18
14
26
25
3
6
33
32
18
14
26
25
3
6
33
32
18
14
25
23
3
6
33
32
18
14
24
23
3
6
32
32
18
14
24
19
3
6
32
32
18
13
24
19
3
6
32
32
17
13
22
18
3
6
32
32
17
13
22
18
3
6
32
32
18
13
23
18
3
6
31
32
17
12
21
18
3
6
30
32
17
12
21
18
3
6
30
32
17
12
21
18
3
6
30
32
17
11
21
16
3
6
29
30
17
11
21
16
3
6
29
30
16
11
21
16
3
6
30
30
16
10
18
16
3
6
29
30
16
10
18
16
3
6
29
30
16
10
18
16
3
6
28
30
16
9
18
16
3
6
27
30
15
9
16
15
3
6
27
30
16
9
16
15
3
6
27
30
16
9
16
14
3
6
27
29
15
9
16
14
3
6
27
26
16
8
15
13
3
6
25
25
16
8
15
13
3
5
23
25
15
7
14
13
3
6
22
25
15
7
14
13
3
6
21
25
15
7
14
13
3
6
21
24
14
7
14
12
3
6
20
24
13
7
14
12
3
6
19
28
13
7
14
12
3
6
19
27
13
7
14
12
3
6
19
27
13
7
14
11
2
5
19
27
13
7
14
11
2
6
19
28
13
6
14
11
2
6
17
29
13
6
13
11
2
6
17
28
13
6
13
11
2
6
17
28
13
6
13
11
2
6
17
28
13
6
13
11
2
6
17
28
14
6
12
11
2
6
16
29
14
6
12
11
2
6
16
31
14
6
12
9
2
6
16
31
13
6
12
9
2
6
16
29
12
6
12
8
2
6
16
29
12
5
12
8
2
6
17
30
12
5
12
8
2
6
17
31
12
5
12
8
2
6
16
31
12
5
12
7
2
6
16
31
12
5
12
7
2
6
16
31
13
5
11
6
2
6
16
31
13
5
11
6
2
6
14
32
13
5
9
6
2
6
14
33
13
5
9
6
2
6
14
32
13
5
9
5
2
6
14
32
12
4
8
5
2
6
13
32
12
4
8
5
2
7
14
32
12
4
8
5
2
7
14
32
13
4
7
5
2
7
14
32
13
4
5
5
2
7
14
33
13
4
5
5
2
7
14
33
13
4
5
5
2
7
14
33
13
4
5
4
2
7
14
33
13
4
5
4
2
7
14
33
13
4
5
4
2
7
13
33
13
4
5
4
2
8
12
33
13
4
4
4
2
8
12
33
13
4
4
4
2
8
12
33
13
4
4
3
2
8
12
33
13
4
4
3
2
8
12
33
14
5
4
3
2
8
13
33
14
5
4
3
2
8
13
33
14
5
3
3
2
8
13
33
14
5
3
3
2
8
13
33
13
4
3
2
1
9
13
33
13
4
3
3
1
9
13
32
13
4
3
3
2
9
13
32
13
4
3
2
2
8
13
32
14
4
3
2
2
9
13
33
14
4
3
2
2
9
13
32
14
5
3
2
2
9
14
28
14
5
3
2
2
9
13
28
14
5
3
2
2
9
13
28
13
5
3
2
2
9
13
28
13
5
3
2
2
9
13
28
13
5
3
2
2
9
13
27
13
4
3
2
2
9
14
27
13
4
3
2
2
9
15
27
13
4
4
3
2
9
15
27
13
4
4
3
2
10
15
27
13
4
4
2
2
9
15
27
13
4
4
2
2
10
15
24
13
4
4
2
2
10
15
24
13
4
4
2
2
9
15
24
13
4
4
2
2
9
15
24
13
4
4
2
2
10
15
23
13
5
4
2
2
10
16
22
14
5
4
2
2
10
16
22
14
5
5
2
2
10
16
22
14
5
4
2
2
10
16
22
14
5
4
2
2
10
16
22
13
5
4
2
2
10
16
21
14
5
5
2
2
10
16
21
14
5
5
2
2
10
16
23
13
5
5
2
2
10
16
23
14
5
5
2
2
10
16
24
13
5
5
2
2
9
16
23
13
5
5
2
2
9
16
24
13
4
4
2
2
9
16
24
13
5
5
2
2
9
16
24
13
4
5
2
2
9
15
23
13
4
5
2
2
9
15
23
13
4
5
2
2
9
15
23
13
5
5
3
2
9
15
23
13
5
5
3
2
9
15
23
13
5
5
3
2
8
15
24
13
5
5
3
2
8
15
24
14
5
5
3
2
8
15
24
14
5
5
3
2
8
15
24
14
5
5
3
2
8
15
24
13
5
5
3
2
8
15
24
13
5
5
3
2
8
15
24
13
5
5
3
2
8
15
25
13
5
5
3
2
8
15
25
13
5
5
3
2
8
14
25
13
5
5
3
2
8
14
25
13
5
5
3
2
8
14
25
13
5
5
3
2
7
14
24
12
5
5
3
2
7
14
24
12
5
5
3
2
7
14
22
12
5
5
3
2
7
14
22
12
5
5
3
2
7
14
22
12
5
5
3
2
7
14
22
12
5
5
3
2
7
14
22
12
5
5
3
2
7
14
21
12
5
5
3
2
7
14
23
12
5
5
4
2
7
14
23
12
5
5
4
2
6
13
23
11
4
4
4
2
6
13
22
12
4
4
4
2
6
12
23
13
5
4
4
2
6
13
23
13
5
4
4
2
5
12
23
13
4
4
4
2
5
12
23
13
4
4
4
2
5
12
23
13
4
4
4
2
5
12
23
13
4
4
4
2
4
12
23
13
4
3
4
2
4
11
22
12
4
3
4
2
4
11
22
13
4
3
4
2
3
10
22
13
4
3
4
2
3
10
22
13
4
3
4
2
3
10
22
13
4
3
4
2
3
10
23
12
4
3
4
2
3
10
21
12
4
3
4
2
3
10
19
12
4
3
4
2
3
10
19
12
4
3
5
1
3
10
19
12
4
3
5
1
3
9
19
12
4
3
5
1
3
10
18
12
4
3
5
1
3
10
18
12
4
3
5
1
3
10
18
12
4
3
5
1
3
10
18
12
4
3
6
1
3
10
18
12
4
3
6
2
3
10
17
12
4
3
6
2
3
10
17
12
4
3
6
2
3
10
17
12
4
3
6
2
3
11
16
12
4
3
7
2
3
11
17
11
4
3
7
2
3
11
17
11
4
3
7
2
3
11
17
12
4
3
7
2
3
12
17
12
5
3
7
2
3
12
16
12
5
3
7
2
3
12
16
12
5
3
7
2
3
12
15
12
5
3
7
2
3
12
15
12
5
3
7
2
4
12
15
12
5
3
7
2
4
12
15
12
5
3
7
2
4
14
16
13
5
3
7
2
4
15
16
13
5
3
9
2
4
15
16
12
5
3
9
2
3
14
16
12
5
3
10
2
3
14
16
12
5
3
10
2
4
15
16
12
5
3
10
2
4
15
16
12
5
3
10
2
4
15
16
13
5
3
10
2
4
15
16
13
5
3
12
2
4
15
14
13
5
3
12
2
4
15
14
13
5
3
14
2
4
15
14
13
5
3
15
2
4
15
15
12
5
3
15
2
4
15
14
11
5
3
15
2
4
15
14
11
5
4
15
2
4
16
15
12
5
4
17
3
4
16
15
12
5
4
17
3
4
16
16
12
5
4
17
3
5
16
15
12
5
4
19
3
5
16
16
12
5
4
19
3
5
17
16
12
5
4
19
3
5
17
16
11
5
4
19
3
5
18
16
11
5
4
19
3
5
18
16
11
5
8
19
3
5
18
16
12
5
8
21
4
5
18
15
12
5
8
21
4
5
19
15
12
5
9
23
4
5
19
15
12
6
9
23
4
6
21
14
12
6
9
23
4
6
21
14
12
6
9
23
4
6
21
15
12
6
9
23
4
6
21
16
12
6
9
23
4
6
21
16
12
6
9
23
4
6
21
16
12
6
9
23
4
6
21
16
12
6
9
23
4
6
21
17
12
6
9
24
4
6
22
17
12
6
10
25
4
6
22
17
12
6
10
26
4
6
22
17
13
6
10
26
4
6
22
17
13
8
13
27
5
6
22
16
13
9
14
27
5
6
22
16
14
9
14
27
5
6
22
16
13
8
14
28
5
6
22
16
13
9
15
28
5
6
22
16
13
9
15
28
5
6
22
17
13
9
15
28
5
6
22
19
13
9
15
28
5
6
22
19
13
9
15
28
5
6
23
19
14
10
16
28
5
6
23
19
15
10
16
28
5
6
22
19
16
10
16
28
5
6
21
19
16
10
16
28
5
6
22
19
18
12
16
29
5
6
24
19
19
12
17
30
5
6
24
20
19
13
17
30
5
6
24
20
19
13
17
33
6
6
24
20
19
13
17
34
6
6
24
21
19
13
18
36
6
6
28
21
19
13
18
37
6
6
30
21
20
14
20
37
6
7
30
21
20
14
21
37
6
7
30
21
20
14
21
37
7
7
30
21
20
15
21
38
7
7
30
21
20
15
22
38
7
7
30
21
20
15
22
38
7
7
30
21
20
15
22
37
7
7
30
21
20
15
22
37
7
7
31
21
20
15
22
37
7
6
34
21
20
15
22
36
7
6
34
21
21
15
23
37
7
7
34
21
25
17
25
36
7
7
34
22
25
18
27
37
7
7
34
22
25
18
27
37
7
7
34
22
25
18
27
37
7
7
34
22
25
18
27
37
6
7
34
22
25
18
27
37
6
7
34
23
26
18
27
36
6
7
33
23
26
18
27
36
6
7
32
24
26
18
27
36
6
7
33
24
26
18
27
36
6
7
33
23
26
18
27
37
6
7
33
23
26
18
27
38
6
7
33
23
26
18
27
39
6
7
33
23
27
18
27
39
6
7
33
23
27
18
27
39
7
7
33
22
26
18
27
39
7
7
33
22
27
18
27
39
7
7
34
22
27
18
27
38
7
7
34
22
27
18
27
38
7
7
34
22
26
17
27
37
6
7
34
24
26
17
27
37
7
7
34
25
27
17
28
38
7
7
34
25
27
17
27
39
7
7
34
27
27
16
27
40
7
7
34
27
27
16
27
40
7
7
34
27
27
16
27
40
7
7
34
25
27
16
27
40
7
7
34
26
27
16
27
40
7
7
34
26
27
16
27
40
7
7
34
26
26
16
27
40
7
8
34
26
25
16
27
41
7
8
34
26
25
16
27
42
7
8
34
26
24
15
27
41
7
9
32
25
23
14
27
41
7
8
33
25
23
14
27
41
7
9
33
25
23
14
28
41
6
9
33
24
23
14
27
41
6
9
32
24
24
14
29
39
6
9
30
24
23
14
30
37
7
9
28
24
24
15
29
37
7
8
28
24
24
15
29
38
7
8
27
24
24
15
29
40
7
8
29
24
24
15
30
40
7
8
29
24
24
15
29
40
7
8
29
24
24
15
29
42
7
8
29
24
24
15
29
43
7
8
30
23
24
15
31
43
7
8
30
25
24
15
31
43
8
9
27
26
24
15
31
46
8
9
27
26
24
16
31
47
9
8
27
26
19
13
30
48
9
8
27
26
19
13
28
48
9
8
26
25
19
13
28
47
9
8
26
25
20
14
32
49
9
8
30
27
21
15
35
51
9
9
31
27
21
15
35
50
9
9
32
27
21
15
35
51
9
9
32
27
21
15
36
53
11
8
32
26
21
15
37
55
12
8
32
28
22
15
37
55
12
9
32
28
22
15
37
54
12
9
32
28
22
15
37
54
12
9
32
28
22
15
37
54
13
9
32
28
21
15
37
54
13
9
32
29
21
15
37
54
13
9
32
29
21
15
37
54
13
9
32
29
21
15
37
54
13
9
32
30
21
15
37
55
13
9
32
30
21
15
37
55
13
9
31
34
21
15
37
55
14
9
32
35
22
15
36
57
15
9
32
35
21
15
36
57
15
9
33
34
21
15
36
59
16
9
33
33
21
15
36
58
16
9
33
33
21
15
37
58
16
9
34
33
21
15
37
58
16
9
34
33
21
15
37
58
16
9
35
33
21
15
37
60
16
9
35
33
22
15
37
60
17
9
35
33
22
15
37
61
17
9
35
34
22
16
38
61
17
9
36
35
22
16
38
61
17
9
36
35
22
16
38
62
17
8
37
35
22
16
38
63
17
8
37
36
24
16
38
64
17
8
37
36
24
17
38
63
17
8
37
37
24
17
38
63
17
8
38
37
24
17
37
64
17
8
39
37
24
16
36
65
17
8
39
37
24
15
36
65
17
8
40
37
24
16
36
65
17
8
40
37
24
16
36
66
17
8
39
37
24
15
35
65
17
8
39
37
25
16
35
65
17
9
39
38
25
16
35
65
17
8
39
38
24
16
35
64
17
8
39
38
24
16
34
64
17
8
39
38
25
16
35
65
18
8
39
37
24
16
35
63
18
8
39
37
24
16
33
63
18
8
39
37
24
16
33
62
18
8
39
37
25
16
33
64
18
8
39
37
25
16
33
64
18
8
39
37
24
15
30
63
18
8
40
37
24
14
26
61
17
8
39
37
24
14
27
61
17
8
39
38
24
15
26
62
17
8
39
39
24
15
26
60
17
8
40
39
24
15
25
58
16
8
40
37
23
14
25
58
16
8
40
37
23
14
25
58
16
8
40
37
23
14
25
58
16
8
40
37
23
15
25
57
15
8
41
37
24
15
26
57
15
8
42
36
24
15
27
57
15
9
42
36
25
16
29
58
15
9
42
36
25
16
29
58
15
9
41
37
26
16
29
58
15
8
41
36
26
16
29
61
15
8
41
33
25
16
29
61
14
8
42
30
25
16
29
61
13
8
42
30
25
16
29
61
12
8
42
30
25
16
29
58
12
8
42
30
25
18
32
59
12
8
42
30
25
19
33
59
12
8
41
30
25
19
33
58
12
8
41
30
25
19
33
58
12
9
40
30
25
19
33
58
12
9
40
30
25
19
33
58
11
9
40
31
25
19
33
57
11
9
40
30
26
19
31
57
11
9
40
29
26
19
31
57
11
9
39
29
26
19
31
55
11
9
38
29
25
19
31
54
11
9
38
27
24
19
31
54
11
9
38
27
23
18
31
54
11
9
38
27
23
18
31
54
11
9
39
27
23
18
31
53
11
9
37
27
23
18
31
52
11
8
36
27
23
18
31
54
12
8
36
27
22
17
31
56
12
8
36
27
22
17
31
56
12
8
37
27
22
18
31
56
12
8
36
28
23
17
32
56
11
8
38
29
23
17
32
58
12
8
38
28
23
17
32
58
12
9
38
28
23
17
31
58
12
9
39
28
24
17
31
58
11
9
38
27
25
17
30
58
11
9
38
28
25
17
30
58
11
9
39
30
25
17
30
57
11
8
39
30
25
17
30
56
11
8
39
30
25
17
31
55
11
8
39
30
25
17
31
56
11
8
36
29
25
17
31
56
11
8
35
28
25
17
30
56
11
8
36
26
25
16
29
55
11
9
36
28
25
16
29
55
11
9
34
28
25
16
29
55
11
9
34
28
25
16
29
56
11
9
34
28
25
16
29
56
10
8
34
28
25
16
29
56
10
8
34
28
24
16
28
56
10
8
33
28
24
16
28
56
11
8
32
28
24
15
27
57
11
8
32
28
24
15
25
56
11
8
32
28
23
15
24
56
11
8
32
28
23
15
24
55
11
8
32
28
23
15
24
52
11
8
32
28
23
15
25
51
11
8
30
28
23
15
24
50
10
8
29
28
23
15
25
50
10
8
30
28
23
15
25
49
10
8
30
28
23
13
22
49
10
8
30
29
22
11
19
49
10
8
30
28
22
11
19
49
10
8
29
28
23
11
19
49
10
8
30
28
23
11
18
47
10
7
30
29
23
10
18
47
10
7
30
27
22
10
18
48
10
7
30
28
22
10
18
48
10
7
30
28
22
10
18
48
10
7
29
29
22
10
18
48
10
7
29
29
22
10
18
48
9
7
29
29
22
9
18
47
9
7
29
29
22
9
17
47
9
7
28
29
22
9
17
46
8
7
27
29
22
9
17
45
8
7
27
30
21
9
17
45
8
7
27
29
21
9
16
42
7
7
27
29
21
9
16
40
7
7
27
29
21
9
16
36
6
7
26
29
21
9
15
35
6
7
26
28
20
8
14
35
6
7
22
27
20
8
14
31
6
7
22
28
20
8
14
29
5
6
22
28
20
8
13
30
5
6
19
28
19
7
13
30
5
6
19
28
17
7
13
30
5
6
18
27
17
7
13
29
5
6
17
26
17
7
13
29
5
6
16
26
17
7
13
29
5
6
16
26
17
7
12
28
4
6
16
26
17
7
12
27
4
6
16
26
17
7
12
27
4
6
16
26
17
7
12
27
4
6
14
26
16
7
12
27
4
4
13
23
15
7
12
27
4
3
12
23
15
6
12
27
4
4
12
23
15
6
12
25
4
5
12
26
15
6
12
25
4
6
12
26
15
6
12
25
4
6
12
26
15
6
12
25
4
6
12
26
15
6
12
25
4
6
12
26
15
6
11
23
3
6
12
26
14
6
10
23
3
6
12
26
14
6
9
21
3
7
15
26
13
6
9
21
3
8
16
26
13
5
9
21
3
8
15
26
13
5
8
20
3
8
15
26
13
5
7
20
3
8
15
26
14
5
6
19
3
8
14
27
14
5
4
19
3
8
14
27
14
5
4
19
3
8
14
27
14
5
4
19
3
9
14
27
14
5
4
18
3
9
14
27
13
5
4
18
3
9
14
27
13
5
4
18
3
12
18
27
14
5
5
18
2
13
19
27
14
5
5
15
2
13
20
25
14
4
5
11
2
13
20
25
14
4
5
11
2
13
20
25
14
4
5
11
2
13
20
25
14
4
6
11
2
13
20
25
14
4
6
11
2
14
20
26
14
4
6
11
2
14
21
25
14
5
6
11
2
14
21
25
14
5
6
10
2
14
21
25
14
5
6
10
2
14
21
25
14
5
6
10
2
14
21
26
14
5
6
10
2
14
21
27
14
5
6
10
2
15
21
27
14
5
6
9
2
15
21
27
13
5
6
9
2
15
21
26
12
5
6
9
2
15
21
25
11
5
6
8
2
15
21
25
11
5
6
5
2
15
21
25
11
5
6
5
2
15
21
25
12
5
6
5
2
15
22
25
12
5
6
5
2
15
23
25
12
5
6
4
2
16
23
25
11
5
6
4
2
16
23
25
11
5
6
4
2
16
23
25
11
5
6
4
2
16
23
25
11
5
6
4
2
16
23
25
12
5
6
4
2
16
23
25
12
5
6
4
2
16
23
25
12
5
6
4
2
16
23
24
12
5
6
4
2
15
23
24
11
5
6
4
2
15
23
22
11
4
6
4
2
15
23
24
11
4
6
4
2
15
23
24
11
4
6
4
2
15
23
24
11
4
6
4
2
15
23
24
11
5
6
4
2
15
23
23
12
5
6
4
2
15
23
23
12
5
6
4
2
14
21
23
13
5
6
4
2
14
21
24
13
5
6
4
2
14
21
24
13
5
6
4
2
14
21
24
12
5
6
4
2
14
21
23
12
5
6
4
2
14
21
22
12
5
6
4
2
14
21
22
12
5
6
4
2
14
21
22
12
4
6
4
1
13
20
23
12
4
6
4
1
13
20
23
12
4
6
4
1
13
20
23
12
4
6
4
1
11
17
23
12
4
5
3
1
10
15
23
12
4
5
3
1
9
15
23
11
5
5
3
1
9
15
23
11
5
5
3
1
9
15
24
11
4
5
3
1
9
15
23
11
4
4
3
1
9
15
23
11
4
4
3
1
8
14
23
12
4
4
3
1
7
13
23
14
5
4
3
1
7
13
23
14
5
4
3
1
8
13
23
14
5
4
3
1
8
13
22
14
5
4
3
1
7
13
21
14
5
4
3
1
7
13
20
14
5
4
3
1
7
13
20
14
5
3
3
1
7
12
20
14
4
3
3
1
7
12
20
14
4
3
3
1
8
14
21
14
4
3
3
1
8
14
21
14
4
3
3
1
8
14
20
15
4
3
3
1
8
14
22
14
4
3
3
1
7
12
22
14
4
3
3
1
7
12
21
14
4
3
3
1
7
12
21
14
4
3
3
2
7
12
21
14
4
3
3
2
7
12
21
14
4
3
3
2
7
12
21
14
4
3
3
2
7
12
21
14
4
2
3
1
7
12
21
14
4
2
3
1
7
12
21
14
4
2
3
1
7
12
21
14
4
2
3
1
7
12
21
14
4
2
3
1
7
12
21
14
4
2
3
1
7
12
20
14
4
2
3
1
7
11
20
14
4
2
4
2
7
11
21
14
4
2
4
2
7
11
21
14
4
2
4
2
7
12
20
13
4
2
4
2
7
11
20
13
3
2
4
2
7
11
20
12
3
2
4
2
7
11
20
12
3
2
5
2
6
11
19
12
3
2
5
2
6
11
19
12
3
2
5
2
6
11
19
12
3
2
5
2
6
11
19
11
3
2
5
2
6
10
19
11
3
3
5
2
6
10
19
11
3
3
6
2
6
10
17
11
3
3
6
2
6
11
17
11
3
3
6
2
6
11
17
11
3
3
7
2
6
11
16
11
3
3
8
2
6
11
16
11
3
3
8
2
6
11
16
12
3
3
8
2
6
10
16
12
4
3
8
2
6
10
18
12
4
3
10
2
6
10
18
12
4
4
10
2
6
10
18
12
4
4
11
2
6
10
18
11
4
6
14
2
6
10
18
9
4
6
14
2
7
10
18
9
3
6
14
2
7
10
18
9
3
6
15
3
7
10
18
9
3
6
18
3
8
10
18
8
3
6
21
3
8
11
20
8
3
6
21
3
8
11
20
8
3
6
21
3
8
11
20
8
3
6
21
3
8
11
20
8
3
7
22
3
7
9
19
9
3
7
22
3
7
9
19
9
3
7
22
3
7
9
19
9
3
7
23
3
7
9
17
9
3
7
24
3
7
9
17
9
3
7
26
4
6
8
17
9
3
7
27
4
6
8
17
9
4
7
27
4
6
8
17
10
4
7
27
4
6
8
17
10
4
7
27
4
6
8
17
10
4
7
28
4
6
7
17
10
4
7
28
4
6
7
17
10
4
7
28
4
6
7
17
10
4
7
28
4
6
7
17
10
4
7
29
4
6
7
17
10
4
7
29
4
6
7
17
10
4
7
32
4
6
8
17
12
5
7
34
5
6
8
16
17
7
7
34
5
6
8
15
17
7
7
34
5
6
8
16
17
7
7
34
5
6
8
16
17
7
7
35
5
6
8
16
18
7
8
35
6
7
9
16
18
7
8
37
6
7
10
16
18
8
8
37
6
7
10
17
18
8
8
37
6
7
15
17
18
8
8
37
6
7
16
18
18
8
9
39
6
7
16
18
18
8
8
39
6
7
17
18
18
8
9
40
6
7
17
18
18
8
9
39
6
7
17
19
19
8
9
40
6
7
17
20
19
8
9
40
6
7
17
20
19
8
9
41
6
7
17
20
19
8
9
42
6
7
17
20
18
8
9
42
6
7
17
20
18
8
10
42
6
7
18
20
18
8
10
42
6
7
18
19
18
9
10
42
6
7
18
19
18
11
15
42
6
7
18
19
18
11
15
41
6
7
18
19
18
11
14
41
6
7
18
19
18
11
14
42
6
7
18
19
18
12
14
42
6
7
18
19
18
12
14
43
6
7
18
19
18
12
14
42
7
6
19
19
18
12
14
40
7
6
18
19
18
12
15
40
7
6
19
19
18
12
15
40
7
6
19
19
18
12
15
40
7
6
20
19
20
15
18
40
7
6
20
19
21
16
20
40
7
6
20
19
22
16
20
40
7
6
20
19
22
16
20
39
7
6
21
19
22
16
21
39
7
6
21
19
22
16
21
38
7
7
21
19
22
16
21
37
7
7
21
19
22
16
21
38
7
6
21
19
21
17
21
38
6
7
22
20
21
17
21
40
7
7
21
20
21
17
22
40
7
7
22
20
21
17
22
40
7
7
23
20
21
17
23
42
7
7
23
20
21
17
24
42
7
7
23
19
21
17
24
42
7
7
23
20
22
17
26
42
8
7
23
20
24
19
30
41
8
7
24
20
23
18
30
39
7
7
24
20
20
18
30
40
7
7
24
19
20
18
30
40
7
7
24
19
20
18
30
39
7
7
24
19
20
18
30
38
7
7
24
19
20
18
30
39
7
6
25
20
20
18
30
37
7
6
24
20
19
18
30
37
7
7
24
19
19
18
30
38
7
7
22
19
19
18
31
39
7
7
21
19
20
18
31
39
7
7
21
19
20
18
31
39
7
7
21
19
20
18
31
38
7
7
21
19
20
18
31
39
7
7
21
18
19
18
32
39
7
7
22
17
20
18
32
39
7
6
22
17
20
18
32
37
7
6
22
17
20
18
32
36
7
6
21
17
20
18
32
36
7
6
22
17
20
19
33
37
7
7
25
17
20
19
33
37
7
7
25
18
20
19
33
37
7
7
25
19
20
17
31
40
8
7
25
20
21
17
31
40
8
7
25
20
21
17
31
39
8
7
25
20
21
17
31
39
8
7
26
20
21
17
31
39
8
6
27
20
21
17
31
39
8
6
26
21
21
17
31
39
7
6
26
21
21
17
31
39
7
6
26
20
21
18
33
39
7
6
26
20
21
18
35
39
7
6
27
20
23
18
35
39
7
6
28
20
21
16
33
39
7
6
28
20
20
14
32
39
7
6
30
21
19
14
32
39
7
6
29
20
19
14
32
41
7
6
29
20
19
14
32
43
8
6
29
20
19
14
32
43
8
6
29
20
19
14
33
44
8
6
29
20
19
14
34
44
8
6
30
21
20
14
33
44
8
6
29
20
20
14
33
43
7
6
29
20
20
14
33
44
8
6
29
20
20
14
34
44
8
6
29
20
21
14
33
42
7
6
28
20
21
13
32
42
7
6
28
21
21
13
32
42
7
6
28
20
20
13
30
42
7
7
31
20
18
11
27
41
7
7
30
20
18
11
27
41
7
7
30
20
19
11
28
41
7
7
30
21
19
11
28
41
7
7
31
21
19
12
28
41
7
8
31
22
19
12
28
41
7
8
31
21
19
12
28
41
7
8
31
21
19
12
29
41
7
8
32
22
19
12
29
42
7
7
32
22
19
12
29
41
7
7
32
22
19
11
28
42
7
7
32
22
19
11
29
40
7
7
32
23
19
11
29
40
7
7
34
23
19
11
29
41
7
7
34
23
20
11
28
41
7
7
34
23
20
11
28
41
7
8
34
23
20
12
30
43
7
8
34
23
21
14
31
46
7
8
34
23
21
14
31
46
7
8
34
24
21
13
31
49
8
7
33
27
21
13
31
49
7
7
32
27
22
13
31
49
7
7
32
27
22
13
31
49
7
7
32
26
22
13
31
46
7
7
32
25
21
13
31
46
7
7
32
25
22
13
31
47
7
7
32
25
24
14
31
47
7
7
34
25
24
15
32
49
7
7
35
25
24
14
32
50
7
7
36
24
23
14
33
49
7
7
36
24
24
14
33
50
7
7
36
24
24
14
31
50
7
7
36
24
24
14
30
51
7
7
36
24
23
14
30
51
7
7
36
24
23
14
30
51
7
7
36
24
23
14
30
52
7
7
35
24
23
14
30
52
7
7
35
24
23
14
30
52
7
7
35
24
23
15
30
50
7
7
35
24
23
15
31
53
7
7
35
24
24
15
31
52
7
7
35
24
24
15
30
51
7
7
35
24
24
15
30
51
7
7
35
24
24
15
30
50
7
7
35
24
24
15
30
49
7
7
35
24
24
16
30
49
7
7
35
24
24
16
30
50
7
7
36
24
23
16
30
51
7
7
36
24
23
16
30
51
7
7
36
24
23
16
31
51
7
7
34
24
23
16
30
51
7
7
34
24
24
16
31
51
7
7
35
24
24
16
30
51
7
7
35
23
24
16
29
51
7
7
36
23
24
16
29
51
7
7
36
23
24
16
29
51
7
7
36
23
24
16
29
51
7
7
36
24
24
16
30
51
7
7
35
23
24
16
32
51
7
7
35
23
24
16
32
51
7
7
35
23
24
16
32
50
7
7
35
23
24
16
31
51
7
7
36
22
24
16
32
50
7
7
34
22
24
17
31
50
7
7
34
22
24
17
31
52
7
7
34
23
24
16
31
52
7
6
34
22
24
16
30
51
7
6
34
22
23
14
28
49
6
7
34
22
23
15
28
49
7
7
34
22
23
15
28
49
6
7
34
18
22
15
29
51
7
7
33
17
22
14
28
51
7
7
33
17
22
15
29
51
7
7
33
18
22
15
30
51
7
7
33
18
22
16
30
52
7
7
34
17
23
16
30
53
7
7
33
17
21
15
30
52
7
7
31
17
21
15
29
50
7
7
30
17
21
15
29
50
6
7
29
17
21
15
28
50
7
7
29
17
21
15
28
49
7
8
30
18
21
15
31
52
7
8
29
18
20
15
30
52
7
8
28
18
20
15
30
52
7
8
28
18
20
15
30
52
7
8
27
18
20
15
30
51
6
8
27
18
22
15
30
50
7
8
27
19
21
16
30
51
6
8
27
19
22
16
29
52
6
8
27
19
22
15
28
50
6
8
27
19
21
16
29
50
6
8
27
19
21
16
30
51
6
8
27
19
20
16
30
51
6
8
27
19
20
16
30
51
6
8
28
19
20
16
30
51
6
8
28
19
20
16
30
51
6
8
27
19
20
16
30
50
6
8
27
19
20
16
30
48
6
8
27
20
20
16
30
48
6
8
27
20
21
16
29
49
6
7
27
21
21
16
30
49
6
7
27
21
20
16
30
49
6
7
26
21
20
16
30
49
6
7
26
22
20
16
30
49
6
8
26
22
20
16
30
49
6
8
25
22
20
16
30
49
6
8
25
22
20
16
30
49
6
7
26
21
19
15
28
52
6
7
25
21
19
15
27
52
6
7
26
21
19
15
27
52
6
7
26
21
20
15
27
51
6
7
26
21
21
15
28
51
6
7
25
21
21
15
27
51
6
7
24
21
21
15
27
52
6
7
25
22
21
15
28
50
6
7
25
22
21
15
28
49
6
7
25
22
21
15
28
48
6
7
25
21
20
15
28
48
7
7
26
21
20
15
29
48
7
7
26
21
20
15
30
47
7
7
26
21
21
15
30
44
6
7
27
21
22
15
30
44
6
7
26
22
22
15
30
44
7
7
26
22
21
15
30
44
7
6
26
22
21
14
30
45
7
7
26
22
20
14
29
43
7
6
26
23
21
14
30
43
7
6
26
23
21
14
30
43
7
6
26
22
21
14
29
43
7
6
26
22
21
14
29
44
7
6
26
22
21
14
30
44
7
6
25
22
21
13
27
41
7
6
25
22
21
13
26
40
7
6
25
22
21
13
26
40
7
6
26
22
21
13
26
40
7
5
26
22
21
13
26
40
7
5
28
22
20
13
26
40
7
5
28
21
20
13
26
38
7
5
28
21
20
13
27
35
6
5
28
22
20
13
27
35
6
5
28
23
20
12
27
35
6
5
28
23
20
12
26
34
6
5
28
23
21
12
26
34
6
5
27
23
21
12
26
34
6
5
27
23
21
12
26
34
6
5
27
23
21
12
26
34
6
5
27
23
21
12
26
34
6
5
26
23
21
12
27
34
6
5
26
22
21
12
27
34
6
5
26
22
20
12
26
34
6
5
27
22
20
12
25
34
6
5
27
21
20
12
25
34
6
5
28
21
20
12
25
34
6
5
27
20
22
12
25
34
6
5
26
20
22
12
25
34
6
5
26
20
22
12
25
34
6
5
26
20
22
12
25
32
6
5
25
20
22
12
25
28
6
5
26
20
23
12
25
28
6
5
26
20
23
12
24
28
6
5
26
20
22
12
24
28
6
5
26
20
22
12
24
27
6
5
26
19
22
12
24
27
6
5
26
19
22
12
24
26
6
4
25
19
22
12
24
26
6
4
25
19
22
12
24
26
6
4
25
19
22
12
23
26
6
4
24
19
22
12
23
25
5
4
24
19
22
11
22
24
5
4
24
19
22
11
20
22
5
4
24
19
22
11
19
22
5
4
23
19
21
11
19
22
4
4
23
19
21
10
18
21
4
4
24
19
21
10
17
20
4
4
24
19
22
10
17
18
4
4
23
19
22
10
17
18
4
4
23
19
21
10
17
18
4
4
23
19
21
10
16
18
4
4
23
19
21
10
16
17
4
4
22
19
20
10
16
15
4
4
22
18
20
9
16
14
4
4
23
18
20
9
16
14
3
3
23
18
20
9
16
13
3
4
23
18
20
9
16
13
3
4
21
18
20
9
16
13
3
4
21
18
19
8
16
13
3
4
21
20
19
8
15
13
3
4
20
20
19
8
15
13
3
4
20
20
20
8
14
12
3
3
20
19
19
8
13
12
3
4
19
18
19
8
12
12
3
3
19
18
19
7
11
12
3
4
19
18
18
7
11
11
3
4
19
18
18
7
11
11
3
4
19
18
18
7
11
10
3
4
19
18
18
7
10
10
3
4
19
18
18
7
10
10
2
4
19
18
18
7
9
9
2
4
18
18
18
7
9
9
2
4
18
18
18
7
9
9
2
4
18
18
18
7
8
8
2
4
17
18
19
7
8
6
2
4
16
18
18
6
8
6
2
4
17
18
16
6
8
5
2
4
17
18
17
6
7
5
2
4
16
18
17
6
7
5
2
4
16
18
17
6
7
5
2
4
16
18
17
6
7
5
2
4
16
18
16
6
7
5
2
4
16
18
16
6
7
5
2
5
16
19
16
6
7
4
2
8
18
20
16
6
7
4
2
8
18
20
16
6
7
3
2
8
18
20
16
5
5
3
2
8
18
20
16
5
3
3
2
8
18
20
16
5
3
3
2
8
18
20
16
5
3
3
2
8
18
20
16
5
3
3
2
8
17
21
16
5
3
3
2
9
17
24
15
5
3
2
2
9
18
24
14
5
3
2
2
9
18
24
14
4
3
2
2
9
18
23
14
4
3
2
2
9
17
23
14
4
2
2
2
9
17
23
14
4
2
2
2
9
17
23
14
4
3
2
2
9
17
23
14
4
3
2
2
9
17
23
14
4
3
2
2
9
17
23
15
4
3
2
2
10
18
23
15
4
3
2
2
11
21
23
14
4
3
2
2
11
20
24
14
4
4
2
2
11
21
24
15
4
4
2
2
11
21
24
15
4
4
2
2
11
21
24
14
4
4
2
2
11
20
24
14
4
4
2
2
11
18
23
14
4
4
2
2
11
18
24
14
4
4
2
2
11
19
24
14
4
4
3
2
11
19
24
14
4
4
3
2
11
18
24
14
4
4
3
2
11
18
24
14
4
4
3
2
11
19
24
14
4
4
3
2
11
19
24
15
4
4
3
2
11
19
24
15
4
4
3
2
11
19
24
15
4
4
3
2
11
19
24
15
4
4
3
2
11
19
24
15
4
4
3
2
11
19
24
15
4
4
3
2
11
19
24
15
4
4
3
2
12
19
25
14
4
5
3
2
12
19
25
14
4
5
3
2
12
19
24
14
4
5
3
2
12
19
25
14
4
5
3
2
12
19
25
13
4
5
3
2
11
19
25
13
4
5
3
2
12
19
25
13
4
5
3
2
12
19
25
13
4
5
3
2
12
19
25
13
4
5
3
2
12
19
25
13
4
5
3
2
12
19
24
13
4
5
3
2
10
17
24
12
4
5
3
2
10
17
24
13
4
4
3
2
10
17
24
13
4
4
3
2
10
17
24
14
4
4
3
2
10
17
24
14
4
4
3
2
10
17
24
14
4
5
3
2
10
17
24
14
4
5
3
2
10
17
23
14
4
5
3
2
9
17
20
14
4
5
3
2
9
17
20
14
4
5
3
2
9
18
20
14
4
5
3
2
9
18
20
14
4
5
3
2
9
18
20
14
4
5
3
2
9
18
20
14
4
5
3
2
9
18
21
14
4
5
3
2
9
17
20
14
4
4
3
2
9
17
20
14
4
4
3
2
9
17
21
13
4
4
3
2
8
16
21
14
4
4
2
2
6
13
21
14
4
4
2
2
6
13
20
14
4
3
2
2
6
13
20
14
4
3
2
2
6
13
20
14
4
3
2
2
6
13
20
14
4
3
2
2
6
13
20
14
4
3
2
2
6
13
19
14
4
3
2
2
6
13
18
14
4
3
2
2
6
13
18
16
4
3
2
2
6
13
18
17
4
3
2
2
6
13
18
17
4
3
2
2
6
13
18
17
4
3
2
2
6
13
18
17
4
3
2
2
6
13
18
16
4
3
2
2
6
13
18
17
4
3
2
2
6
13
18
16
4
3
2
2
6
13
18
17
4
3
1
2
6
13
18
16
4
3
1
2
6
13
18
16
4
3
2
2
6
13
18
17
4
3
1
2
5
13
17
17
4
2
1
2
5
12
17
17
4
2
2
2
5
12
17
17
4
2
2
2
5
12
16
17
4
2
2
2
5
12
16
17
4
2
2
2
5
12
17
17
4
2
2
2
5
11
17
17
3
2
2
1
5
11
16
17
3
2
3
1
5
11
17
17
3
2
3
1
5
11
16
16
3
2
3
2
5
11
17
17
3
2
3
1
4
11
16
17
3
2
3
1
4
11
16
16
3
2
3
1
4
11
16
16
3
2
3
2
4
11
17
15
3
2
4
2
4
10
17
16
3
2
4
2
4
10
16
15
3
2
5
2
4
10
16
15
3
2
6
2
4
10
16
15
3
2
6
2
4
10
16
15
3
2
6
2
4
8
16
15
3
2
6
2
4
8
16
15
4
3
6
2
4
8
16
16
4
3
6
2
4
8
16
16
4
3
7
2
4
8
15
15
4
2
7
2
4
8
14
15
4
2
7
2
4
8
14
16
4
3
7
2
4
8
17
16
4
3
8
2
4
8
17
16
5
3
8
2
4
8
16
16
4
3
8
2
4
8
16
16
4
3
8
2
4
8
16
16
4
3
8
2
4
8
16
16
4
3
8
2
4
8
17
16
4
3
9
2
4
8
17
15
4
3
9
2
4
8
17
15
4
3
9
2
4
8
17
16
4
3
9
2
4
8
16
16
4
3
11
2
4
7
17
14
4
4
16
3
4
7
20
13
4
4
16
3
4
8
20
13
4
4
17
3
4
10
20
14
4
4
17
3
4
12
20
13
5
5
18
4
4
12
21
13
5
6
19
4
4
12
21
13
5
7
20
4
4
12
21
14
5
7
21
4
4
12
22
14
5
7
21
4
4
12
22
14
5
7
21
4
4
12
23
14
5
8
22
4
4
13
24
14
5
8
22
4
5
13
24
14
5
8
23
5
5
13
24
14
5
8
23
5
5
14
24
14
5
8
23
5
5
14
24
14
5
8
24
5
5
15
24
14
5
8
24
5
5
15
23
14
5
8
24
5
5
15
24
14
5
8
24
5
5
16
26
15
5
8
24
5
5
16
26
15
6
8
24
5
5
16
26
15
6
8
24
5
5
18
26
15
6
8
24
5
6
18
26
15
6
9
25
5
6
18
26
15
6
9
25
5
6
18
26
15
6
10
25
5
6
18
26
15
6
10
25
5
6
19
26
15
6
10
25
5
6
19
26
15
6
10
25
5
6
19
27
15
6
10
25
5
6
20
27
16
6
11
26
5
6
21
27
16
6
11
25
5
6
21
30
16
6
11
26
5
6
22
30
16
6
12
27
6
6
22
30
15
6
12
27
6
6
21
30
15
6
12
27
6
6
21
31
15
6
12
28
6
6
22
31
16
6
13
28
6
6
22
31
16
6
13
28
6
6
22
29
16
6
13
28
6
6
22
29
16
6
13
28
6
6
22
29
16
6
14
28
6
6
22
30
16
6
14
28
6
7
22
30
16
7
14
28
6
7
22
29
16
6
14
29
6
7
22
29
16
6
14
29
6
7
23
29
16
7
14
29
6
7
23
30
16
7
15
29
6
7
23
30
16
7
15
30
6
6
23
30
16
7
15
29
6
7
23
30
16
7
16
28
6
7
23
28
16
7
16
28
6
7
23
27
16
7
16
28
6
6
24
27
16
8
17
28
6
6
24
27
16
8
16
27
6
6
24
27
16
8
16
28
6
7
24
27
16
8
16
27
6
7
23
27
17
8
16
26
5
7
23
27
17
8
17
27
5
7
23
26
17
8
17
27
6
7
23
25
17
8
17
26
5
7
23
25
17
8
17
26
5
7
23
25
16
9
17
26
5
7
23
25
16
9
18
27
5
7
23
25
18
9
18
28
5
7
22
25
18
9
19
29
5
7
22
25
18
10
19
29
5
7
22
25
18
10
20
28
5
7
22
25
18
10
19
28
5
7
21
22
17
10
20
29
5
7
21
22
17
10
20
29
5
7
21
22
17
10
20
29
5
6
19
22
17
10
20
29
5
6
19
22
17
10
20
29
5
6
20
22
17
10
20
29
5
6
21
22
19
10
20
29
5
6
21
22
19
10
19
29
5
6
21
22
19
10
20
30
5
6
21
22
19
10
20
30
5
6
20
22
19
10
20
29
5
6
19
22
19
11
22
29
5
6
20
21
19
12
25
29
5
6
20
17
19
12
25
29
5
6
20
17
19
12
25
29
5
6
21
17
19
12
25
29
5
6
22
17
19
13
26
29
5
6
22
17
19
13
26
28
5
6
21
17
19
13
26
28
5
6
21
17
18
13
26
29
5
6
22
17
18
13
26
29
5
6
22
18
18
13
26
29
5
6
22
18
18
13
26
29
5
6
22
17
18
13
26
29
5
6
22
17
18
13
26
29
5
5
22
17
18
13
26
28
5
5
22
17
18
13
26
28
5
5
22
17
18
13
27
28
5
5
22
17
18
13
26
28
5
5
22
16
18
13
27
27
4
6
22
16
18
13
27
27
4
5
22
17
18
13
26
26
4
6
22
17
18
13
26
26
4
6
22
17
18
13
26
25
4
6
19
17
17
12
26
25
4
6
19
17
17
12
26
26
4
6
19
17
17
12
26
25
4
6
19
17
17
12
26
24
4
6
19
17
16
12
26
25
4
6
20
17
16
12
25
24
4
6
20
17
16
12
26
24
4
6
20
17
16
12
26
25
4
5
21
17
16
12
26
25
4
5
20
17
16
12
26
23
4
5
20
17
16
12
26
22
4
6
20
17
15
12
26
21
4
6
21
18
14
12
25
20
4
6
21
18
15
11
25
20
4
6
21
18
15
11
25
20
4
6
21
17
14
11
25
20
4
6
21
17
14
11
25
20
4
6
21
17
14
11
25
19
4
6
21
18
14
11
25
19
4
6
21
18
14
11
26
20
4
6
21
18
14
11
26
19
4
6
21
18
14
11
26
20
4
6
21
18
15
11
26
20
4
6
20
18
15
11
26
19
4
6
21
18
14
11
26
19
4
6
21
19
14
11
26
19
4
6
21
18
14
11
27
19
4
6
22
19
14
10
25
19
4
6
20
19
15
10
23
19
4
6
20
19
14
10
22
19
4
6
20
19
14
10
22
18
4
6
20
19
14
10
23
18
4
6
19
19
14
10
22
18
4
6
19
18
14
10
22
18
4
6
19
18
15
10
22
18
4
6
19
18
15
10
22
17
4
6
18
18
15
10
22
17
4
6
18
17
15
10
22
17
4
6
18
18
15
10
22
17
4
6
18
18
15
10
22
17
4
6
18
18
15
10
22
17
4
6
18
18
15
11
23
17
4
6
18
18
15
11
23
17
4
6
18
20
15
11
23
17
4
6
19
20
16
11
23
17
4
6
21
20
15
11
24
17
4
6
20
19
15
11
24
18
4
6
20
20
16
11
23
18
4
5
20
20
16
11
24
18
4
6
22
20
16
12
25
18
4
6
23
20
17
13
26
18
4
6
22
20
17
13
26
18
5
6
22
20
17
13
26
18
5
6
23
20
17
13
26
18
5
6
23
20
16
13
26
19
5
6
22
19
16
13
26
19
5
6
22
20
16
13
26
19
5
6
22
20
16
13
26
20
5
6
21
20
17
13
26
20
5
6
21
22
17
13
26
20
5
6
21
22
17
13
26
20
5
6
21
22
17
13
27
20
5
6
21
21
17
13
27
21
5
6
21
21
17
13
27
21
5
6
21
21
17
13
26
22
5
6
21
21
17
13
26
22
5
6
20
21
17
13
27
22
5
6
20
21
17
13
27
22
5
6
20
21
17
13
26
23
5
6
20
21
17
12
25
23
5
6
21
22
17
12
26
24
5
6
20
22
17
13
26
23
5
6
20
22
16
12
26
23
5
6
20
22
16
12
26
23
5
6
20
23
16
12
26
23
5
6
20
24
16
12
26
23
5
6
20
25
16
13
25
23
5
6
20
25
16
13
26
23
5
6
20
26
16
12
25
24
5
6
20
27
16
12
25
25
5
6
20
27
16
12
25
25
5
6
20
26
16
12
25
25
5
6
21
26
16
12
24
24
5
5
21
27
16
12
24
24
4
5
21
27
15
12
24
25
4
5
21
27
16
12
24
24
5
5
22
27
16
12
24
25
5
5
22
28
16
12
24
27
5
5
22
28
16
12
24
27
5
5
22
28
16
12
24
28
5
5
22
28
15
12
24
28
5
5
22
28
15
11
23
30
5
5
22
28
15
11
22
30
5
6
22
26
15
11
22
32
5
6
21
26
15
11
22
32
5
6
21
27
15
11
21
33
5
6
22
27
14
11
22
37
5
6
22
27
14
11
22
38
5
6
23
27
15
10
21
37
5
6
21
27
15
9
20
37
5
6
20
27
15
8
19
38
5
6
20
28
14
8
19
38
5
6
20
28
15
8
18
38
5
6
21
28
15
8
19
38
5
6
21
28
15
8
18
37
5
6
22
29
15
8
19
38
5
6
23
29
15
8
19
40
5
6
22
29
15
8
19
40
5
6
23
29
15
8
20
42
5
6
23
27
15
8
20
42
5
6
23
27
14
8
20
43
5
6
23
27
14
9
20
43
6
6
24
27
14
9
21
43
5
6
24
27
14
9
21
44
6
7
24
27
14
9
21
44
6
6
24
28
14
9
20
44
6
6
25
29
14
8
20
44
6
6
25
29
14
8
20
44
6
7
25
29
14
8
20
44
6
7
25
29
14
8
21
44
6
7
25
29
14
8
20
44
6
7
26
29
14
8
20
44
6
7
25
28
14
8
19
43
6
7
25
29
14
8
19
43
6
7
26
27
14
8
19
43
6
7
26
26
14
8
19
43
6
7
26
25
14
8
19
43
6
7
26
25
13
7
19
43
6
7
26
24
13
7
18
43
6
7
26
23
13
7
18
43
6
7
26
23
13
7
18
43
6
7
26
23
13
7
18
43
6
7
26
23
13
7
18
43
6
7
26
23
13
7
18
42
6
7
26
23
13
7
18
42
6
7
26
23
12
7
18
42
5
7
25
23
12
7
18
42
5
7
25
23
12
7
18
40
5
7
25
22
12
7
18
40
5
7
25
22
13
7
18
40
5
7
25
22
13
7
18
40
5
7
25
22
13
7
17
38
5
7
25
22
13
7
17
38
5
7
25
22
13
7
17
36
4
7
25
22
13
7
17
36
4
7
24
22
13
7
17
35
4
7
23
22
13
7
17
31
4
7
23
24
13
7
16
30
4
6
23
24
12
7
16
30
4
6
23
24
12
7
16
30
4
6
23
24
12
6
16
30
4
6
23
24
11
6
16
30
4
5
23
24
11
6
16
30
4
5
22
24
12
6
16
30
4
5
22
23
13
6
16
30
4
5
21
22
13
6
15
28
4
5
20
22
13
6
15
26
4
5
20
23
13
6
15
25
4
5
20
23
13
6
12
20
4
5
20
23
13
6
12
20
4
5
20
23
14
6
12
19
3
5
20
23
14
5
9
18
3
5
19
23
14
5
9
17
3
5
19
23
14
5
9
13
3
5
19
23
14
5
9
13
3
5
19
22
14
5
9
13
3
5
18
21
14
5
8
13
3
5
18
21
14
5
8
11
3
5
17
21
15
5
8
10
2
4
17
20
15
6
8
10
2
4
17
20
15
6
8
10
2
4
16
20
15
6
8
9
2
4
16
20
15
6
7
9
2
4
16
20
16
6
7
9
2
4
15
20
16
6
7
9
2
4
15
20
17
6
7
8
2
4
14
20
17
6
7
7
2
4
14
23
17
6
7
7
2
4
13
23
17
5
7
7
2
4
13
23
17
5
6
6
1
4
13
23
17
5
6
6
1
4
13
23
17
5
5
6
1
4
13
23
17
5
5
6
1
4
12
24
17
5
5
6
1
4
12
23
17
5
4
6
1
4
11
23
17
5
4
6
1
4
11
23
17
5
4
5
1
4
11
23
17
5
3
5
1
4
11
24
17
5
3
5
1
4
11
24
17
5
3
5
1
4
10
24
18
5
3
5
1
4
10
24
18
5
3
4
1
4
10
23
18
5
3
4
1
4
9
24
18
5
3
4
1
4
9
24
18
5
3
3
1
4
9
24
18
5
2
3
1
4
9
23
18
5
2
3
1
4
9
22
18
4
2
3
1
4
8
22
18
4
2
2
1
4
8
22
18
4
2
2
1
5
8
22
18
4
2
2
1
5
8
22
18
4
2
2
1
5
8
22
18
4
2
2
1
5
8
22
17
4
2
2
1
5
8
22
17
4
2
2
1
5
8
22
17
4
2
2
1
5
8
22
17
4
2
2
1
5
8
21
17
4
1
2
1
5
8
21
16
4
1
2
1
5
8
21
16
4
1
1
1
5
7
21
15
4
1
2
1
5
7
21
15
4
1
1
1
4
7
21
15
4
1
1
1
5
7
21
15
4
1
1
1
4
7
21
15
4
1
1
1
4
6
21
15
4
1
1
1
4
6
21
15
4
1
1
1
4
6
21
15
4
1
1
1
4
6
22
14
3
2
1
1
4
6
23
14
3
2
1
1
4
6
23
14
3
2
1
1
4
6
23
14
3
2
1
1
4
6
23
14
3
2
1
1
4
6
23
13
3
2
1
1
4
6
23
13
3
2
1
1
4
6
24
13
3
2
2
1
5
7
23
13
3
2
2
1
5
7
21
13
3
2
2
1
5
7
21
12
3
2
2
1
5
8
21
12
3
2
2
1
5
8
21
13
3
3
2
1
5
8
22
13
3
3
2
1
5
8
22
13
3
3
2
1
5
8
22
13
4
3
2
1
5
9
22
13
3
3
2
1
5
9
21
14
4
3
2
1
5
9
21
14
4
3
2
1
5
9
22
14
4
3
2
1
5
9
22
14
4
3
2
1
5
9
21
14
4
3
2
1
5
8
21
12
4
3
2
1
5
8
21
12
4
3
2
1
5
8
21
12
4
3
2
1
5
8
21
12
4
3
2
1
5
8
21
12
4
3
2
1
5
8
21
12
4
3
2
1
5
8
21
11
4
3
2
1
5
8
20
11
4
3
2
1
5
8
19
11
4
3
2
1
5
8
19
11
4
3
2
1
5
8
19
11
4
3
2
1
5
8
19
11
4
3
2
1
5
8
21
11
4
3
2
1
5
8
21
11
4
3
2
1
5
8
22
11
4
3
2
1
5
8
21
11
4
3
2
1
5
8
22
11
4
3
2
1
5
8
22
11
4
3
2
1
5
8
22
11
4
3
2
1
5
8
22
10
4
3
2
1
5
8
21
10
4
3
2
1
5
8
21
10
4
3
2
1
5
8
21
10
4
3
2
1
5
8
21
10
4
3
2
1
5
8
21
10
4
3
2
1
5
8
21
10
4
3
2
1
5
9
21
10
4
3
2
1
5
9
21
10
4
3
2
1
5
9
20
10
4
3
2
1
5
9
20
11
4
3
2
1
5
9
20
11
4
3
2
1
5
8
20
11
4
3
2
1
5
8
20
11
4
3
2
1
5
8
20
11
4
3
2
1
5
8
20
10
4
3
2
1
5
8
19
9
4
3
1
1
4
7
20
9
4
3
2
1
4
7
19
9
4
3
1
1
4
7
19
9
4
3
2
1
4
6
19
9
4
3
1
1
3
5
20
9
3
2
1
1
3
5
19
8
3
2
1
1
3
5
18
8
3
2
1
1
3
5
18
8
3
2
1
1
3
5
18
8
3
2
1
1
3
5
18
7
3
2
1
1
3
5
19
6
3
2
1
1
3
5
19
6
3
2
1
1
3
5
18
6
3
2
1
1
3
5
18
6
3
2
1
1
3
5
18
6
3
2
1
1
3
5
19
6
3
2
1
1
3
5
19
6
3
2
1
1
3
5
18
6
3
2
1
1
3
5
18
6
3
2
1
1
3
5
18
6
3
2
1
1
3
5
18
6
3
2
1
1
3
5
19
7
3
2
1
1
4
6
22
9
3
2
1
1
4
6
21
9
3
2
1
1
4
6
21
9
3
2
1
1
4
6
21
9
3
2
1
1
4
6
20
9
3
2
1
1
4
6
20
9
3
2
1
1
4
6
19
9
3
2
1
1
4
6
19
9
3
2
1
1
4
6
20
9
3
2
1
1
4
7
20
9
3
2
1
1
4
7
20
9
3
2
1
1
4
7
19
9
3
2
1
1
4
7
19
9
3
2
1
1
4
7
19
11
3
2
1
1
4
7
19
11
3
2
2
1
4
7
19
11
3
2
2
1
4
8
20
11
3
2
2
1
4
8
19
12
3
2
2
1
4
7
20
11
3
2
1
1
4
7
20
11
3
2
2
1
4
7
20
12
4
2
2
1
4
7
20
12
4
2
2
1
4
7
20
12
4
2
2
1
4
8
20
12
4
2
2
1
4
10
20
12
4
2
2
1
4
10
20
13
4
3
2
1
4
11
20
12
4
3
2
1
4
11
20
12
4
3
2
1
4
12
19
13
4
3
2
1
4
13
20
13
4
3
2
1
4
14
21
13
4
3
2
1
3
14
21
13
4
5
3
1
3
14
20
13
4
5
3
1
4
17
21
13
4
5
3
1
5
19
21
13
4
5
3
1
5
19
21
13
4
6
3
1
5
19
21
13
4
7
4
1
5
20
21
14
4
7
6
1
5
23
21
14
5
7
6
1
5
24
21
14
5
7
7
1
5
24
21
14
5
7
7
1
5
24
21
14
5
7
8
1
5
25
21
14
5
7
8
1
5
25
21
14
5
8
8
1
5
26
21
14
5
9
10
2
5
27
22
14
5
9
10
2
6
27
22
15
5
9
10
2
6
28
22
15
5
10
10
2
6
28
22
15
5
10
11
2
6
28
22
17
7
10
12
2
6
29
19
16
7
10
13
2
6
29
19
16
7
11
15
2
6
29
19
16
7
12
15
2
6
30
20
16
7
12
15
2
6
30
20
16
7
12
16
2
6
30
20
16
7
12
17
3
6
30
20
16
8
13
17
3
6
30
20
16
8
14
17
3
6
31
19
16
8
14
18
3
6
31
20
16
8
14
24
3
7
31
20
16
8
15
28
3
7
31
20
16
8
15
28
3
7
31
20
16
8
17
29
3
7
32
20
15
8
19
29
4
7
32
20
15
8
19
31
4
7
32
21
15
8
19
32
4
7
32
23
15
10
21
32
4
7
33
23
16
10
22
32
4
7
33
22
16
10
22
33
4
7
33
22
18
11
22
33
4
7
33
23
18
11
22
33
4
7
33
23
18
11
22
33
4
7
33
23
18
12
23
33
4
7
34
23
18
12
24
33
4
7
35
24
18
12
24
33
4
7
36
24
18
12
24
34
4
8
37
24
18
12
24
34
4
8
38
24
18
12
24
35
4
8
38
24
18
12
26
36
4
8
39
24
18
12
26
36
4
8
39
23
18
12
26
36
4
8
39
23
18
12
26
36
4
8
39
23
18
13
26
36
4
8
38
23
18
13
26
36
5
8
37
23
20
13
26
36
5
8
38
24
21
13
26
37
5
7
38
23
21
13
26
36
5
8
38
23
21
13
26
36
5
8
36
23
21
13
26
36
5
8
35
23
22
13
26
36
4
8
35
23
22
13
26
37
5
8
35
23
22
13
27
36
5
8
35
25
22
13
29
37
5
8
35
25
22
13
29
38
5
8
35
25
22
14
29
37
5
8
34
25
22
14
29
38
5
8
35
25
21
14
29
38
5
8
36
25
22
14
29
38
5
8
36
25
21
14
29
38
5
8
36
25
20
14
29
38
5
8
34
25
20
14
30
38
5
7
36
25
20
14
29
38
5
7
36
25
21
14
29
38
5
7
36
24
21
13
29
38
5
7
36
26
22
14
30
38
5
7
36
26
22
14
30
38
5
7
36
26
22
14
30
38
5
7
36
26
22
14
30
38
5
7
35
26
22
14
30
38
5
7
35
26
22
14
31
35
5
7
35
26
22
14
32
32
5
7
35
26
22
14
31
32
5
7
35
26
22
14
31
32
5
7
35
26
22
14
29
32
5
7
34
27
22
14
30
30
5
7
34
27
22
14
30
31
5
7
34
27
22
13
29
30
5
7
34
28
22
13
28
30
5
7
35
28
21
13
29
30
5
7
35
28
20
11
30
32
5
7
35
27
20
11
29
32
5
8
35
27
19
11
29
32
5
8
35
27
19
11
29
32
5
8
34
27
19
10
28
31
5
7
32
27
19
10
29
31
5
7
32
27
20
10
29
32
5
7
29
27
20
10
29
32
5
7
29
27
20
10
29
31
5
7
29
28
20
10
27
30
5
7
27
28
20
10
27
31
5
7
27
28
21
10
27
31
5
7
27
28
20
10
27
31
5
7
27
27
20
10
27
31
5
7
27
27
21
11
28
31
5
7
27
27
20
11
27
32
5
7
26
26
18
10
27
32
5
7
26
26
18
10
27
33
5
7
26
26
18
10
27
33
6
6
26
27
17
10
27
33
6
6
26
28
17
10
27
34
6
6
26
28
17
10
27
34
5
6
26
28
17
10
26
34
6
6
26
26
17
10
25
33
5
6
29
26
18
10
25
33
5
6
30
27
19
10
24
33
5
6
30
27
19
10
24
33
5
6
29
26
19
9
24
33
5
6
28
26
19
9
24
33
5
6
28
26
19
9
24
32
5
6
28
26
19
9
24
32
5
6
28
27
18
9
24
32
5
6
27
27
18
9
24
32
5
6
27
27
18
9
24
32
5
7
26
28
19
11
25
32
5
7
27
27
18
11
27
32
5
6
27
26
18
11
27
32
5
6
27
27
18
11
27
32
5
6
27
27
18
11
26
31
5
6
27
27
18
11
26
31
5
6
27
27
19
12
26
31
5
6
27
27
19
12
27
31
5
6
27
27
19
12
27
31
5
6
27
27
19
12
27
31
5
6
27
27
19
12
27
31
5
6
27
27
19
12
27
31
5
6
27
25
19
12
27
30
5
6
27
24
21
15
31
29
5
6
26
23
24
16
32
30
5
6
26
23
24
16
32
30
5
6
25
23
24
16
32
28
5
6
26
23
24
16
31
28
4
5
26
23
24
16
32
28
5
5
26
23
24
16
32
28
5
5
26
23
24
16
31
28
5
5
26
23
24
17
33
29
5
5
29
23
24
17
34
27
4
5
29
23
24
17
34
27
4
5
28
22
24
18
34
27
4
6
28
22
24
18
34
27
4
6
28
22
24
18
34
28
4
6
31
22
24
18
34
28
4
6
30
22
24
18
34
29
4
6
30
22
24
18
34
28
4
6
30
23
23
17
34
28
4
6
30
24
23
17
34
26
4
6
30
24
23
17
34
27
4
6
32
25
23
17
35
28
4
6
32
25
24
17
35
28
4
6
31
25
24
17
35
28
4
6
31
23
24
17
36
27
4
6
31
22
24
18
37
27
4
6
31
22
24
18
37
28
4
7
31
23
24
18
37
28
4
7
28
23
24
18
36
28
5
7
28
23
24
18
37
28
5
7
28
23
24
18
37
27
5
7
28
23
24
18
36
27
5
7
29
23
24
18
37
28
5
7
28
23
24
18
37
28
5
7
28
23
24
18
37
28
5
7
28
23
25
18
37
27
5
7
28
23
25
18
37
27
5
8
29
22
25
18
37
27
5
8
29
21
24
17
36
27
5
8
27
21
24
17
34
27
5
8
28
21
24
17
34
27
5
8
28
21
24
17
34
27
5
8
28
21
24
17
34
27
5
8
28
20
24
16
34
28
5
8
28
20
24
16
33
28
5
8
28
20
24
15
32
27
5
8
28
21
24
15
32
27
5
8
28
21
24
15
33
28
5
9
30
21
24
15
33
28
5
9
30
22
24
15
33
29
5
9
30
22
25
16
34
32
5
9
30
22
22
13
30
32
5
9
30
23
19
12
29
32
5
9
30
23
18
12
30
32
5
9
30
23
18
12
30
33
5
9
30
24
18
12
30
33
5
9
30
24
18
12
30
36
5
9
30
24
18
12
30
37
5
9
30
24
18
12
30
37
5
9
30
24
18
11
28
37
5
9
27
24
18
10
27
38
5
9
27
24
18
11
27
38
5
10
27
25
18
11
28
38
5
10
28
24
18
11
28
37
5
9
29
25
19
11
28
37
6
9
26
24
18
11
29
37
6
9
26
24
18
10
29
36
6
9
26
24
18
11
29
36
6
9
27
24
18
11
28
37
6
9
27
22
18
11
28
37
6
9
27
22
18
11
28
38
6
9
27
22
18
10
28
37
6
9
28
22
18
10
28
37
6
9
27
22
18
10
28
38
6
9
27
22
18
10
28
38
6
9
27
24
18
9
26
38
6
9
27
24
18
9
26
37
6
10
27
23
18
9
26
37
6
10
27
24
18
9
26
37
6
10
26
24
17
9
26
37
6
10
26
23
16
9
26
37
6
10
27
23
16
9
26
38
6
10
26
23
16
9
26
38
6
10
26
23
16
9
25
38
6
10
26
23
16
10
25
38
6
10
26
23
16
10
25
38
6
10
27
23
17
10
25
39
6
9
27
23
17
10
25
39
6
9
29
23
17
10
25
38
6
9
29
23
16
10
25
38
7
9
31
24
16
10
27
38
7
9
31
23
17
10
27
38
7
9
32
23
17
10
26
38
7
9
32
24
17
10
27
38
7
9
32
25
17
10
27
39
7
9
32
25
17
10
27
39
7
9
32
25
17
10
26
38
7
9
32
24
17
10
25
38
7
8
32
24
17
11
26
38
7
8
31
24
17
11
26
37
7
8
32
24
17
10
26
34
7
8
32
24
17
10
25
37
7
8
32
23
17
10
25
37
7
8
33
23
17
10
24
37
7
8
33
22
17
10
23
36
6
8
33
22
17
9
23
36
6
8
34
22
18
9
23
34
6
8
34
22
18
9
23
33
6
8
34
22
18
10
25
33
6
8
35
22
18
10
25
33
7
8
34
23
18
10
25
31
6
8
34
23
19
10
24
31
6
7
34
24
19
10
23
31
6
8
35
26
18
10
23
31
6
8
34
26
18
11
23
31
6
8
34
26
19
11
22
31
6
8
34
29
19
11
22
31
6
8
33
29
19
11
22
31
6
8
32
29
19
10
22
30
6
8
33
30
19
10
22
30
6
8
33
31
19
10
22
28
6
8
31
31
18
10
21
28
6
8
31
31
18
10
21
28
5
8
31
31
18
10
21
27
5
7
31
30
18
10
21
27
5
7
31
29
17
10
20
26
5
7
31
29
17
10
20
26
5
6
31
30
17
10
20
26
5
6
31
30
17
10
20
26
5
6
31
31
17
10
20
26
5
6
31
33
17
9
20
25
5
6
31
32
17
9
20
25
5
6
31
33
17
9
20
24
5
6
31
32
17
9
20
23
5
6
30
32
17
9
20
23
5
6
30
33
17
9
20
22
4
6
30
33
15
8
20
22
4
6
30
33
15
8
20
22
4
6
28
33
15
8
20
22
4
5
28
33
15
8
19
22
4
5
25
32
15
8
17
22
4
5
25
32
15
8
17
22
3
5
24
32
15
9
17
22
3
5
24
32
15
9
16
21
3
5
24
31
15
9
16
20
3
5
24
31
15
9
16
20
3
6
24
32
15
9
15
20
3
6
24
32
15
9
15
20
3
6
23
32
15
8
14
20
3
6
23
32
15
8
14
20
3
6
23
31
15
8
12
19
3
6
23
31
14
8
12
13
3
6
22
31
14
8
12
12
3
6
20
31
14
8
12
11
3
6
20
31
14
8
12
10
3
6
20
31
14
8
12
10
3
6
18
31
13
8
11
9
3
6
18
31
14
8
11
8
3
6
18
32
14
7
6
8
3
6
17
31
14
7
5
7
2
7
17
31
14
7
5
7
2
7
18
33
13
7
5
7
2
7
18
32
13
7
5
6
2
7
16
31
13
6
4
6
2
7
16
31
13
6
4
6
2
7
16
31
13
5
4
6
2
7
16
29
12
5
4
6
2
7
16
29
12
5
4
6
2
7
16
28
12
5
4
6
2
7
16
27
12
5
4
6
2
7
16
26
12
5
3
6
2
7
16
26
12
5
3
6
2
8
15
26
13
5
3
5
2
8
15
26
13
5
3
5
2
7
16
26
13
5
3
5
2
7
16
26
13
5
3
5
2
7
16
26
14
5
3
5
2
7
16
26
14
5
3
4
2
7
15
27
14
5
3
4
2
7
15
25
14
5
3
4
2
7
15
23
14
5
3
4
2
7
15
23
14
5
3
4
2
7
15
23
14
5
3
4
2
7
15
24
14
5
2
4
2
7
15
24
14
5
2
4
2
7
15
24
14
5
2
3
2
7
15
23
15
5
2
3
2
7
13
23
16
5
2
3
2
7
13
23
16
5
2
3
2
8
13
24
16
5
2
3
2
8
13
24
16
5
2
3
2
8
13
24
16
5
2
2
2
8
13
24
16
5
2
2
2
8
13
24
16
5
2
2
2
9
14
24
16
4
2
2
2
9
14
24
15
4
2
2
2
8
14
24
15
4
2
2
2
9
14
24
15
4
2
2
2
9
14
24
15
4
2
2
2
9
14
24
15
4
2
2
2
9
14
24
15
4
2
2
2
9
15
25
15
4
3
2
2
9
15
25
15
4
3
2
2
9
15
25
15
4
3
2
2
9
15
25
15
4
3
2
2
9
15
25
15
4
3
2
2
9
15
25
15
4
3
2
2
9
15
25
15
4
3
2
2
9
15
24
15
4
3
2
2
9
15
24
14
4
3
2
2
9
15
23
14
4
3
2
2
8
15
21
14
4
3
2
2
8
15
21
15
4
3
2
2
8
15
21
14
4
3
2
2
8
15
21
14
4
3
2
2
8
15
21
14
4
3
2
2
8
15
21
14
4
3
2
2
8
15
21
14
4
4
2
2
8
15
21
15
4
4
2
2
8
15
21
15
4
4
2
2
8
15
22
15
4
4
2
2
8
15
22
15
3
4
2
2
7
15
22
14
3
4
2
2
7
15
21
14
3
4
2
2
7
14
21
15
4
4
2
2
7
14
23
15
4
4
2
2
7
15
25
15
4
4
2
2
8
15
25
14
4
4
2
2
7
15
24
14
4
4
2
2
8
15
24
14
4
4
2
2
8
15
24
14
4
4
2
2
8
15
24
14
4
4
2
2
8
15
24
14
4
4
2
2
8
16
23
14
4
4
2
2
8
16
23
14
4
4
2
2
8
16
23
14
4
4
2
2
8
16
23
14
3
4
2
2
8
16
24
13
3
4
2
2
8
16
24
12
3
4
2
2
8
16
23
13
3
4
2
2
7
16
23
13
3
3
3
2
7
16
23
13
3
3
3
2
7
16
24
12
3
3
3
2
7
16
24
12
3
3
3
2
6
14
24
14
3
3
3
2
6
15
24
15
3
3
3
2
6
15
24
15
3
3
3
2
6
15
24
15
3
3
3
2
6
14
24
15
3
3
3
1
6
14
23
15
3
3
3
2
6
14
23
15
3
3
3
2
6
13
23
15
3
3
2
1
6
13
23
15
3
2
3
1
6
13
23
15
3
2
4
1
6
13
23
15
3
2
4
1
6
13
23
15
3
2
4
2
6
13
23
15
3
2
4
2
5
13
23
14
3
2
4
2
5
12
23
14
3
2
4
2
5
12
23
15
3
2
4
2
5
12
23
15
3
2
4
2
5
12
23
14
3
2
5
2
5
12
23
14
3
2
6
2
5
12
23
15
3
2
6
2
5
12
23
15
3
2
6
2
5
12
22
15
3
2
6
2
5
12
22
15
3
2
7
2
5
12
22
15
3
2
7
2
5
12
22
15
3
2
8
2
5
12
22
15
3
2
8
2
5
13
22
15
3
2
8
2
5
13
22
15
3
2
8
2
5
13
22
15
3
2
8
2
5
14
23
16
3
2
9
2
5
14
23
15
3
2
9
2
5
14
21
15
3
2
9
2
5
12
18
15
3
2
9
2
5
15
19
15
3
2
10
2
6
15
19
15
3
2
10
2
5
15
19
15
3
2
10
2
5
15
19
15
3
2
10
2
6
16
20
15
3
2
10
2
6
16
20
15
3
2
10
2
5
15
21
15
3
2
10
2
6
15
21
15
3
2
10
2
6
15
21
15
3
2
10
2
6
15
21
15
3
2
10
2
6
18
21
15
3
3
10
2
6
18
20
15
3
3
10
2
6
18
21
15
3
4
10
2
6
18
21
15
3
4
10
2
6
18
21
15
3
5
10
2
6
19
21
15
3
5
10
2
6
19
20
15
3
5
11
2
6
19
20
14
3
7
11
2
7
19
22
13
5
8
11
2
7
19
22
12
5
8
11
3
7
19
23
12
5
8
11
3
7
19
26
13
5
8
11
3
7
19
26
13
6
11
11
3
7
20
26
13
7
13
11
3
7
20
26
13
7
13
11
3
7
19
26
13
7
13
11
3
8
19
26
13
7
14
13
3
8
20
26
13
7
14
13
3
8
20
26
13
7
14
18
4
8
20
26
13
8
15
18
4
8
20
26
13
8
16
20
4
8
20
28
13
10
18
21
4
8
20
28
13
11
19
22
4
8
20
28
13
11
19
22
4
8
20
28
14
11
19
21
4
8
20
28
14
11
19
22
4
8
20
29
13
12
19
22
4
8
20
29
14
12
19
22
4
8
20
29
13
12
20
22
4
8
20
29
14
13
21
21
4
8
21
29
14
13
21
21
4
8
21
29
14
13
23
21
4
8
21
29
15
13
23
21
4
8
22
29
15
14
25
23
4
9
22
30
15
15
26
23
4
9
22
30
15
15
26
23
4
9
21
30
14
15
27
23
4
9
22
31
14
15
27
25
4
9
22
31
14
15
27
25
4
9
23
31
14
15
27
25
4
9
21
31
14
15
27
24
4
8
21
31
15
15
28
24
4
9
22
31
15
15
28
25
4
9
22
31
15
15
29
24
5
9
21
30
16
16
30
26
5
9
21
30
16
16
32
26
5
9
21
30
16
16
32
26
5
9
21
30
16
16
32
26
5
10
21
30
16
16
32
26
5
10
21
30
16
17
32
26
5
10
19
31
16
17
32
26
5
10
18
31
17
17
33
27
5
10
18
30
17
17
33
27
5
10
18
30
17
17
33
27
5
10
18
30
18
17
33
27
5
10
18
30
18
17
33
27
5
10
18
30
18
18
33
27
5
9
18
30
18
18
34
28
5
9
18
29
18
17
34
28
5
9
17
29
18
18
34
28
5
9
17
29
18
18
35
28
5
9
17
27
18
18
35
28
5
9
17
27
18
17
35
28
5
9
17
27
17
17
34
29
5
9
17
27
18
17
34
29
5
8
17
26
18
17
34
29
5
8
17
28
18
17
34
28
4
8
17
29
18
17
34
28
4
8
17
28
18
17
35
25
4
8
17
28
18
17
35
26
4
8
17
30
18
17
35
25
4
8
17
28
18
16
34
23
4
8
17
28
18
15
34
23
4
8
18
28
18
15
34
23
4
8
18
28
18
15
34
24
4
8
18
29
18
15
34
25
4
8
18
28
18
15
34
25
4
8
19
29
18
15
34
25
4
8
19
29
18
14
33
25
4
8
19
29
17
13
33
25
4
8
19
29
17
14
33
25
4
8
22
32
17
14
31
25
4
8
21
32
16
14
31
25
4
9
21
32
17
14
31
24
4
8
22
31
16
14
33
25
4
8
22
31
17
14
33
25
4
8
22
30
16
14
33
25
4
8
22
30
16
14
32
23
4
8
22
30
16
14
33
23
4
8
22
29
16
14
33
23
4
8
22
29
16
14
33
23
4
8
22
30
16
14
33
24
4
7
21
30
16
14
33
24
4
7
21
30
16
14
32
24
4
7
22
30
16
13
31
22
3
7
22
30
15
14
30
23
3
7
22
30
15
13
30
23
4
7
21
30
15
13
30
23
3
6
21
30
15
14
31
23
3
6
21
30
15
14
33
23
4
7
22
30
15
14
34
23
4
7
23
30
15
14
33
23
4
7
23
31
16
14
33
24
4
7
23
31
16
14
33
23
4
7
22
30
15
14
33
24
3
7
22
30
15
14
33
24
3
7
23
30
15
13
33
23
4
7
23
30
15
13
32
23
3
7
23
30
15
13
32
23
3
7
23
30
15
13
32
23
3
7
23
30
15
13
31
23
4
7
23
30
15
13
31
24
4
7
23
30
15
13
31
26
4
7
23
30
15
13
31
26
4
7
23
30
15
13
31
27
4
7
23
30
14
13
31
27
4
7
24
28
14
13
31
27
4
7
24
28
15
13
31
27
4
7
24
28
15
13
30
27
4
7
25
28
15
13
30
26
4
7
25
27
15
13
30
27
4
7
25
27
15
13
30
27
4
7
25
27
15
13
30
27
4
7
24
27
15
14
30
27
3
7
24
28
15
14
30
26
3
7
24
28
15
14
30
25
3
7
24
28
15
14
30
25
3
7
23
27
15
14
30
25
3
7
23
27
15
14
31
24
3
7
24
27
15
14
31
24
3
7
23
27
15
14
31
25
4
7
21
24
15
14
31
26
4
7
21
25
15
14
30
27
4
6
22
25
15
13
29
27
4
6
21
26
14
12
26
26
4
6
21
26
14
12
26
26
4
6
21
27
14
12
27
26
4
6
20
27
14
12
27
26
4
6
20
28
14
12
27
26
4
6
20
28
15
12
27
26
4
6
20
28
14
12
27
26
4
7
22
28
14
12
27
26
4
7
22
28
14
12
27
26
4
7
22
28
14
12
27
26
4
7
22
28
14
13
27
26
4
7
22
29
14
12
27
25
4
7
22
30
14
12
27
25
4
7
22
30
14
12
27
27
4
7
22
30
14
12
26
27
4
7
22
30
14
11
23
27
4
6
21
30
14
11
23
29
4
6
21
29
14
11
23
29
4
7
22
29
14
11
23
28
4
7
23
30
15
11
23
28
4
7
23
30
14
11
23
28
4
7
24
31
15
11
24
28
4
7
23
31
15
11
23
28
4
7
23
31
15
11
23
29
4
7
24
31
15
11
23
29
4
7
24
32
15
11
22
29
4
7
24
32
15
11
22
29
4
7
24
31
15
11
22
28
4
7
24
30
15
11
22
26
4
7
24
31
15
11
22
26
4
7
25
32
15
11
23
26
4
7
25
32
15
11
22
26
4
7
25
32
14
11
22
27
4
7
25
32
14
11
22
27
4
7
25
32
14
11
22
27
4
7
24
32
14
10
21
27
4
7
24
31
14
10
21
26
4
7
24
31
14
10
21
27
4
7
24
31
15
11
22
27
4
7
24
31
15
12
24
27
5
7
25
30
15
11
25
27
5
7
25
30
15
12
26
27
5
7
26
31
15
12
26
27
5
7
27
30
15
13
27
27
5
7
26
30
15
13
27
27
5
7
27
31
15
13
27
27
5
7
27
31
15
13
27
27
5
7
27
31
15
13
28
26
5
8
27
30
16
13
28
25
5
8
26
32
17
13
29
26
5
8
26
32
17
13
29
27
5
8
26
32
17
14
29
27
5
8
26
31
18
13
29
27
5
8
26
31
18
13
29
27
5
8
27
31
18
13
29
27
5
8
27
31
18
13
29
27
5
8
27
30
18
13
29
27
5
7
26
31
18
13
28
27
5
8
26
31
19
13
28
28
5
7
26
31
18
13
28
28
5
8
26
31
19
13
28
28
5
8
26
30
19
13
28
28
5
8
27
29
19
13
29
27
5
8
27
29
18
13
29
26
5
8
28
29
18
13
28
26
5
8
27
29
18
13
28
26
5
8
28
29
18
13
28
24
5
8
28
29
18
13
28
24
5
8
27
29
17
12
28
24
5
7
26
28
17
12
28
24
5
8
26
28
17
12
28
24
5
8
26
28
17
13
29
24
5
7
26
27
17
13
29
24
5
7
26
27
16
13
29
23
5
7
26
27
17
14
31
23
5
8
26
26
17
14
31
23
5
8
26
27
17
14
31
22
5
8
26
27
17
14
31
22
5
8
26
27
17
14
31
23
5
8
26
27
17
14
32
23
5
8
26
25
17
14
32
22
5
8
25
25
17
14
32
21
5
8
25
25
17
14
32
21
5
8
25
25
17
14
32
21
5
8
25
25
17
14
32
20
5
8
25
25
16
14
32
20
5
8
25
26
17
14
32
20
5
8
25
26
16
14
33
20
5
8
26
26
16
14
33
20
4
8
28
27
15
12
31
20
4
8
27
28
15
12
31
20
4
8
27
27
16
12
30
20
4
8
26
27
15
12
30
19
4
8
27
27
15
11
29
19
4
8
27
28
17
11
29
19
4
8
26
27
17
11
30
19
4
8
26
27
17
12
30
19
4
8
27
27
17
12
31
18
4
8
26
26
16
12
30
18
4
7
26
23
16
12
30
17
4
7
26
25
16
12
29
16
4
7
26
28
16
11
29
16
4
7
26
28
15
11
29
16
4
8
26
27
15
11
29
15
3
8
25
27
15
11
28
15
3
7
25
27
14
11
28
15
3
7
25
27
14
11
28
15
3
7
25
26
14
11
28
15
3
7
25
26
14
11
28
13
3
7
25
25
14
11
28
13
3
7
25
25
13
11
28
13
3
7
24
26
14
11
28
12
3
7
24
25
14
11
27
12
3
7
23
25
15
11
27
12
3
7
23
25
15
11
27
11
3
7
23
26
15
11
27
11
2
7
23
27
15
11
27
11
2
7
22
27
15
11
26
10
2
7
22
26
16
11
26
10
2
7
22
26
16
11
25
10
2
6
22
26
16
11
25
9
2
6
22
26
16
10
24
9
2
6
22
26
16
10
24
9
2
6
22
26
16
10
24
9
2
6
22
26
16
9
21
9
2
6
21
26
16
9
20
9
2
6
21
26
16
9
20
9
2
5
21
26
17
9
20
8
2
6
21
25
17
9
20
8
2
6
20
25
18
9
19
8
2
5
20
25
18
9
19
8
2
5
20
25
18
9
18
8
2
5
19
27
18
9
18
8
2
5
19
27
18
9
18
8
2
5
19
27
18
9
18
8
2
5
19
27
18
9
18
7
2
4
19
28
18
9
18
7
2
4
19
28
18
8
17
7
2
4
18
28
19
8
14
6
2
4
14
27
19
8
14
6
2
4
14
27
19
8
14
6
2
4
14
26
19
8
14
6
2
4
14
26
19
8
13
6
2
4
11
26
19
8
13
6
1
4
11
26
19
7
12
6
1
4
11
26
19
7
11
6
1
4
11
27
19
6
11
6
1
4
10
27
19
5
6
5
1
4
10
27
19
5
6
5
1
4
10
27
19
5
6
4
1
4
10
26
19
5
5
4
1
5
10
24
19
5
4
4
1
6
10
24
19
5
4
3
1
5
10
24
19
5
4
3
1
5
9
24
19
5
3
3
1
5
9
24
19
5
3
3
1
5
9
24
19
5
3
3
1
5
9
23
19
5
3
3
1
5
9
23
19
5
3
3
1
5
9
24
19
5
3
3
1
5
9
24
19
5
2
3
1
6
9
24
19
5
2
2
1
6
8
24
19
5
2
2
1
6
9
24
19
5
2
2
1
6
9
24
19
5
2
2
1
6
9
24
19
5
2
2
1
6
9
22
19
5
2
2
1
6
9
23
19
5
2
2
1
6
9
23
19
5
2
2
1
6
9
24
19
5
2
2
1
6
9
24
19
5
2
2
1
6
9
24
19
5
2
2
1
6
8
24
19
5
2
2
1
6
8
24
19
5
2
2
1
6
8
24
18
5
2
1
1
7
9
24
18
5
2
1
1
7
9
24
18
5
2
1
1
7
9
24
18
5
2
1
1
7
9
24
18
5
2
1
1
7
10
24
17
5
2
1
1
7
10
24
17
5
2
1
1
7
10
24
17
5
2
1
1
7
10
22
17
5
2
1
1
7
10
23
16
4
2
1
1
7
11
23
16
4
2
1
1
7
11
23
16
4
2
1
1
8
12
22
16
4
2
1
1
8
12
23
16
5
3
1
1
8
12
24
16
5
3
2
2
8
12
25
15
5
3
2
2
8
13
25
15
5
3
2
2
9
13
25
16
5
3
2
2
9
14
25
16
5
4
2
2
9
14
25
16
5
4
2
2
9
14
24
14
5
4
2
2
9
14
24
14
5
4
2
2
9
14
23
15
5
4
2
2
9
15
23
14
5
5
3
2
10
16
23
14
5
5
3
2
10
16
23
14
5
5
3
2
10
15
22
14
5
5
3
2
9
15
22
14
5
5
3
2
9
15
22
14
5
5
3
2
9
15
22
14
5
5
3
2
9
15
24
14
5
5
3
2
9
16
24
14
5
5
3
2
9
16
24
14
5
5
3
2
9
16
24
14
5
5
3
2
9
16
25
14
5
5
3
2
9
16
24
14
5
5
3
2
9
16
23
14
5
5
3
2
9
16
23
14
5
5
3
2
9
16
24
13
5
5
3
2
9
16
23
12
5
5
3
2
9
16
23
12
5
5
3
2
9
16
23
13
5
5
3
2
9
16
23
13
5
5
3
2
9
16
23
13
5
5
3
2
9
16
23
13
5
6
3
2
9
16
22
13
5
6
3
2
9
16
21
12
5
6
3
2
9
16
21
13
5
6
3
2
9
16
21
13
5
6
3
2
9
16
21
13
5
6
3
2
9
16
21
13
4
6
3
2
9
16
21
13
4
6
3
2
9
16
21
13
4
5
3
2
9
16
21
13
5
6
3
2
9
16
21
13
5
6
3
2
9
15
22
13
4
5
3
2
9
15
22
13
4
5
3
2
8
15
21
13
4
5
3
2
8
15
21
13
4
5
3
2
8
15
21
13
4
5
3
2
8
15
20
13
5
5
3
2
8
15
20
13
4
5
3
2
7
13
19
13
4
5
4
2
7
13
19
13
4
5
5
2
7
13
16
13
4
5
5
2
7
13
15
13
4
5
5
2
7
13
15
14
4
5
5
2
7
12
15
13
4
5
5
2
6
12
15
13
4
4
5
2
6
12
15
13
4
4
5
2
6
12
15
13
4
4
5
2
7
11
15
13
4
4
5
2
7
11
16
13
3
4
6
2
6
10
16
13
3
3
5
2
6
10
16
13
3
3
6
2
5
9
16
13
3
3
6
2
5
9
16
13
3
3
7
2
6
10
16
13
3
3
7
2
6
9
16
13
3
3
7
2
5
10
16
13
3
3
8
2
6
10
12
13
3
3
8
2
5
10
11
13
3
3
8
2
5
8
11
13
3
3
9
2
5
9
11
13
3
3
9
2
5
9
11
15
3
3
9
2
6
9
11
18
4
3
9
2
6
9
11
18
4
3
9
2
5
9
11
18
4
3
9
2
5
9
11
18
4
3
9
2
5
9
11
18
4
3
9
2
5
9
11
18
4
3
9
2
5
9
11
17
4
3
10
2
5
9
11
17
4
4
10
2
5
9
11
17
4
4
10
2
5
9
11
18
4
5
10
2
5
9
11
18
4
5
10
2
6
9
11
18
4
5
10
2
6
9
11
18
5
5
10
2
6
9
11
19
6
5
11
2
6
9
11
19
6
5
11
2
6
9
11
20
6
5
12
2
6
9
14
20
6
6
14
3
6
9
16
20
6
6
16
3
6
10
17
20
6
6
16
3
6
10
17
21
6
7
17
3
6
10
17
21
6
9
17
3
6
13
20
21
6
9
17
3
6
13
20
21
7
9
18
3
6
13
20
22
7
9
18
3
6
13
20
22
7
9
18
3
6
15
20
21
7
9
18
3
6
16
20
21
7
10
18
3
6
16
20
22
7
11
18
3
6
16
20
22
7
11
18
4
6
16
21
22
7
11
19
4
7
16
21
21
7
11
19
4
7
16
21
21
7
11
19
3
7
16
21
21
8
13
19
3
7
17
21
21
8
13
19
4
7
17
21
21
8
14
19
4
7
17
21
21
8
14
19
4
7
17
21
21
8
14
19
4
7
17
22
21
9
15
19
4
7
17
21
21
9
16
19
4
7
18
21
21
9
19
23
4
7
18
22
21
9
19
23
4
7
19
22
21
9
19
23
4
7
19
22
21
10
20
24
4
7
19
22
22
10
20
24
4
7
19
22
22
10
20
24
4
7
18
22
22
11
22
24
4
7
18
24
24
13
25
24
4
7
19
24
24
13
25
24
4
7
18
24
24
13
25
24
4
7
18
25
23
13
26
25
5
7
18
25
21
13
26
26
5
7
20
25
21
14
28
26
5
7
21
26
21
17
33
28
5
7
21
26
21
17
33
28
5
7
21
27
21
17
33
28
5
7
22
27
21
17
33
28
5
7
22
28
21
18
33
29
5
7
22
28
21
18
33
29
5
7
22
28
21
18
34
29
5
7
22
28
21
18
34
29
5
7
23
28
21
18
34
30
5
6
23
28
21
18
35
30
5
7
23
28
20
18
35
30
5
7
23
29
20
18
35
30
5
6
23
29
20
18
35
31
5
6
23
29
21
18
35
30
5
6
23
28
24
19
35
29
5
7
24
28
24
19
35
28
5
7
24
27
24
19
35
28
5
7
24
27
23
19
35
28
5
7
24
27
23
19
35
28
5
7
23
25
23
19
36
28
5
7
23
25
23
19
36
30
5
7
23
25
23
19
37
30
5
7
25
25
23
19
36
30
5
7
23
25
23
19
37
30
5
7
23
25
25
20
37
32
5
7
23
25
27
20
36
33
5
7
24
25
27
20
36
33
5
7
24
25
27
21
37
33
5
7
24
25
28
20
37
33
6
6
24
24
28
20
37
35
6
7
24
25
28
20
37
37
6
7
23
25
29
20
38
38
6
6
23
25
30
20
40
39
7
7
23
26
31
20
41
41
7
7
23
26
31
20
41
41
7
7
23
26
31
21
40
41
8
7
23
26
32
21
40
44
8
7
23
26
32
21
39
45
9
7
23
26
33
21
39
45
9
7
23
27
34
21
39
45
10
7
23
27
34
21
38
44
10
7
23
27
34
21
38
46
10
7
24
27
34
21
38
46
10
7
24
27
34
21
37
46
10
7
24
26
33
19
35
46
10
7
24
26
33
19
35
46
10
7
24
27
33
19
35
46
10
7
24
26
33
19
36
46
10
7
24
26
33
19
35
45
10
7
24
26
33
19
34
45
10
7
25
25
33
16
30
44
10
7
25
24
33
16
30
44
10
7
26
24
33
16
30
45
10
7
26
23
33
16
30
46
10
7
26
23
33
15
29
46
10
7
26
22
33
15
29
46
10
7
26
22
34
18
32
46
10
8
26
27
34
19
34
46
10
8
26
27
34
19
33
46
10
8
27
27
34
18
33
46
10
8
26
27
34
18
33
46
10
8
26
26
34
19
32
46
10
8
26
26
34
19
32
46
10
8
26
26
32
18
32
46
10
8
26
26
30
17
32
46
10
7
26
26
30
17
32
46
10
7
26
26
30
17
32
46
10
7
26
27
31
17
32
46
10
7
26
27
31
18
32
46
10
8
26
27
31
18
32
46
10
8
26
28
32
18
31
46
10
8
26
28
32
17
32
46
10
8
25
28
32
17
32
46
10
8
25
28
32
17
32
46
10
8
25
28
30
17
32
45
10
8
25
28
28
16
33
44
10
8
25
29
28
16
34
44
10
8
26
29
28
16
34
45
10
8
26
29
28
16
34
45
10
8
26
29
27
16
34
44
10
8
26
29
27
16
34
42
10
8
26
28
27
16
33
41
9
8
26
29
25
16
31
40
9
7
26
29
24
16
30
39
9
7
26
29
24
17
33
38
9
7
26
29
23
17
33
38
8
7
26
29
23
18
33
35
7
6
26
29
23
18
33
37
6
6
26
28
21
17
33
39
6
6
25
28
19
17
33
40
6
6
26
28
19
17
33
40
6
6
25
28
19
18
34
38
5
6
25
28
19
18
35
39
5
7
25
28
20
18
34
40
5
6
25
28
19
18
34
42
5
7
26
29
19
18
34
42
5
6
27
29
19
18
34
43
5
7
27
29
19
18
34
42
5
7
27
29
20
18
34
43
5
7
26
29
20
18
34
43
5
6
25
29
20
18
34
43
5
6
25
29
20
18
34
45
5
6
24
29
20
18
34
47
5
6
23
29
20
18
35
49
6
6
22
29
20
18
35
49
6
6
23
29
20
18
36
50
6
6
23
29
19
16
32
52
6
6
23
26
19
15
31
52
6
6
23
25
19
15
31
52
5
5
22
25
20
15
31
52
5
5
23
25
20
15
31
52
6
5
24
25
20
15
31
53
6
5
24
25
20
15
31
54
6
6
24
25
21
15
32
55
6
6
24
25
21
15
33
55
6
6
24
25
20
15
34
55
6
7
24
25
20
14
34
56
6
7
24
23
20
14
34
56
6
7
24
24
19
14
35
56
6
7
24
24
19
14
34
56
6
7
24
23
19
14
34
55
6
6
25
23
19
14
33
55
6
6
25
23
21
14
33
55
6
6
25
23
23
14
33
55
6
6
25
23
23
14
33
55
6
7
26
24
24
15
32
55
6
7
26
24
24
15
31
55
6
7
25
24
24
14
31
55
6
7
25
26
24
14
31
55
6
7
25
26
24
14
31
56
6
7
25
26
24
14
30
56
6
7
25
26
24
14
30
57
6
7
25
25
24
15
30
58
6
7
25
25
24
14
30
58
6
7
25
24
23
12
27
58
6
7
25
24
23
12
26
58
6
7
25
24
25
11
27
57
7
7
25
25
28
12
27
55
6
7
25
26
28
12
27
54
6
7
25
26
28
12
27
53
6
7
25
25
28
12
27
53
6
7
25
26
28
12
28
53
6
8
25
26
28
11
28
53
6
7
25
25
28
10
28
51
6
7
25
25
28
10
28
49
6
7
25
24
28
10
28
52
6
7
23
24
28
10
29
53
7
7
23
23
28
10
29
53
6
7
23
23
28
10
29
53
6
7
22
23
28
10
29
53
6
7
22
24
28
10
29
53
6
7
22
25
28
10
29
51
6
7
22
25
28
10
28
48
7
7
22
26
28
10
28
46
6
8
22
25
28
10
27
46
6
8
22
26
28
10
26
45
6
8
23
26
28
9
26
42
6
8
23
25
28
9
26
42
6
8
23
25
28
9
26
43
6
8
23
25
28
9
27
43
6
8
22
26
28
9
27
42
6
8
22
27
28
9
27
42
6
8
22
27
27
9
27
41
6
8
22
27
27
9
26
42
6
7
21
27
28
9
25
42
6
7
21
27
28
9
23
42
6
7
21
27
28
9
23
41
6
7
21
27
28
9
23
41
6
7
21
27
28
9
23
41
6
7
21
26
28
9
23
40
6
7
21
26
28
9
23
40
6
7
19
26
28
9
23
41
6
7
19
26
27
9
23
41
5
7
19
26
25
9
22
41
6
7
19
26
25
9
23
42
6
6
18
25
25
8
23
41
6
6
18
25
25
8
23
41
5
6
18
25
25
9
23
42
5
6
17
23
25
9
23
40
5
6
17
23
24
9
23
39
5
6
18
23
24
8
23
39
5
6
18
23
25
8
23
39
5
6
18
23
24
8
23
37
5
6
20
24
25
8
23
37
5
6
20
23
25
9
23
37
5
6
20
23
25
9
22
37
5
6
21
24
23
8
22
36
5
6
21
24
20
8
22
37
5
6
21
23
20
8
21
37
5
6
23
23
20
8
21
39
5
6
24
23
21
8
22
39
5
6
24
22
21
8
19
39
5
5
24
22
21
7
18
39
5
5
24
22
20
7
18
39
5
5
24
22
20
7
17
39
6
6
23
22
20
8
17
36
5
6
23
25
21
8
17
35
5
5
23
25
21
8
16
35
5
5
25
25
20
8
17
35
5
5
26
25
20
7
17
35
5
6
26
24
20
7
17
34
5
6
26
24
19
7
17
34
5
5
25
24
19
7
17
34
5
5
25
23
20
8
19
34
5
5
26
23
20
8
19
34
5
6
26
24
20
8
19
34
5
6
25
24
20
8
19
34
5
6
25
24
19
8
19
35
5
6
26
24
19
8
18
34
5
6
26
24
19
8
18
34
5
5
26
23
19
8
18
34
5
6
26
23
19
8
18
34
5
6
26
23
19
8
18
32
5
6
26
23
19
8
18
30
4
6
26
23
18
8
18
30
4
6
26
23
18
8
18
30
4
6
26
23
18
8
17
30
4
6
26
23
18
8
17
30
4
5
26
23
18
8
17
30
4
5
26
23
18
9
17
30
4
5
26
23
18
9
17
30
4
5
26
24
17
9
17
29
4
5
26
25
18
9
17
29
4
5
26
26
18
9
16
28
4
5
26
27
18
8
16
27
4
5
26
27
18
8
16
27
4
5
25
27
18
8
16
27
4
5
26
27
18
8
16
26
4
5
26
28
19
8
16
26
4
5
26
28
19
8
15
26
4
5
25
29
19
8
15
26
4
5
25
29
19
8
15
26
4
5
25
29
19
8
15
26
4
5
23
29
18
8
15
25
4
5
23
29
18
8
15
25
4
5
23
29
18
8
15
25
4
5
22
29
18
8
15
25
4
5
22
29
18
8
14
23
4
5
22
29
18
8
14
23
4
5
20
29
19
8
14
20
3
5
19
30
17
8
14
20
3
5
19
30
18
8
14
18
3
5
19
30
17
8
14
18
3
5
19
30
17
8
14
18
3
5
19
30
17
7
14
18
2
5
19
30
18
7
14
18
2
4
18
29
18
7
14
17
2
4
18
28
18
7
14
17
2
5
15
29
18
7
13
17
2
5
16
30
18
7
13
17
2
5
16
32
18
7
13
17
2
5
15
32
18
8
13
16
2
5
15
33
18
7
12
16
2
5
15
33
18
6
9
15
2
5
15
33
18
6
9
15
2
4
15
32
18
6
9
15
2
5
15
32
18
6
9
15
2
5
14
32
18
6
8
11
2
5
11
33
18
6
8
9
2
5
11
33
18
6
8
9
2
5
11
33
18
6
7
7
2
5
11
33
18
6
7
6
2
5
11
33
18
6
7
6
2
5
11
33
18
6
6
6
2
5
11
33
18
6
6
6
2
5
11
33
18
6
6
6
2
5
12
33
18
6
6
5
2
5
12
33
18
6
6
5
2
5
12
33
17
5
6
5
2
5
11
33
18
5
6
4
2
6
12
33
17
5
6
4
2
6
11
33
17
5
5
4
2
6
11
32
17
5
5
4
2
6
11
30
17
5
5
4
2
6
11
30
17
5
5
4
2
6
11
31
17
5
4
4
2
6
11
31
17
5
4
4
2
6
11
31
17
5
4
4
2
6
12
30
16
5
4
4
2
6
12
30
16
5
4
4
2
6
12
30
16
5
4
4
2
6
12
29
16
5
3
3
2
6
12
29
16
5
3
3
2
7
12
29
16
5
3
3
2
7
12
29
16
5
3
3
2
7
12
29
16
5
3
3
2
7
11
28
16
5
3
3
2
7
11
29
16
4
3
3
2
7
11
29
16
4
3
3
2
7
11
29
16
5
3
3
2
7
12
28
16
5
3
3
2
7
12
28
16
5
3
3
2
8
13
28
17
5
3
3
2
8
13
28
17
5
3
3
2
8
13
28
17
5
3
3
2
8
14
28
15
5
4
3
1
8
14
28
15
5
4
3
1
8
14
28
15
5
4
2
1
8
14
28
16
5
4
2
1
8
14
27
15
5
4
2
1
9
15
25
15
5
5
3
1
9
15
23
16
5
5
3
1
9
15
22
16
5
5
3
1
9
15
23
16
5
5
3
2
9
15
24
16
5
5
3
1
9
15
24
16
5
5
3
2
8
15
24
16
5
5
3
1
9
15
24
16
5
5
3
1
9
15
22
16
5
5
4
2
8
15
23
16
5
5
4
2
8
15
23
16
5
6
4
2
8
15
23
16
5
6
4
2
9
16
23
16
5
6
4
2
9
16
23
16
5
6
4
2
9
16
26
17
5
6
4
2
9
16
26
17
5
6
4
2
9
16
25
16
5
6
4
2
9
16
25
16
5
6
4
2
9
16
25
16
5
6
4
2
9
16
25
16
5
6
4
2
9
16
25
16
5
6
4
2
9
16
25
16
5
6
4
2
9
16
25
16
5
6
4
2
8
16
25
16
5
6
4
2
9
16
25
16
5
6
4
2
8
16
24
16
5
6
4
2
8
16
24
15
5
6
4
2
8
16
24
15
5
6
4
2
8
15
23
15
5
6
4
2
8
15
23
15
5
6
4
2
8
15
24
15
5
6
4
2
8
15
24
15
5
6
4
2
8
15
24
15
5
6
4
2
8
15
23
15
5
6
4
2
8
15
24
15
5
6
4
2
8
15
24
15
5
6
4
2
8
15
24
15
5
6
4
2
8
15
23
15
5
6
4
2
8
15
23
16
5
6
4
2
8
15
23
15
5
6
4
2
8
14
22
15
5
6
4
2
7
14
22
14
5
6
4
2
7
13
22
14
5
6
4
2
7
13
22
14
5
6
4
2
7
13
22
14
5
6
4
2
6
12
22
14
5
6
4
2
6
12
22
14
5
6
4
2
6
12
22
14
5
6
4
2
6
12
22
13
4
6
4
2
6
12
21
13
4
5
4
2
6
11
21
13
4
5
4
2
5
11
21
12
4
4
4
2
5
10
22
12
4
4
4
2
5
10
21
11
3
4
5
2
5
10
20
11
3
4
5
2
5
10
21
12
4
4
5
2
5
10
21
14
4
4
5
2
5
10
21
14
4
4
5
2
5
10
21
14
4
4
5
2
5
10
20
13
4
4
5
2
5
10
20
14
4
3
5
1
5
10
20
14
4
3
5
1
5
9
20
14
4
3
5
1
4
8
20
14
4
2
4
1
5
8
16
13
3
2
5
1
4
8
15
13
3
2
5
2
4
7
15
13
3
3
5
2
4
7
16
14
3
3
5
2
4
7
16
14
3
3
5
2
4
7
16
14
3
3
5
2
4
7
16
14
3
2
5
2
4
7
16
14
3
2
5
2
4
8
19
14
3
2
5
2
4
8
21
13
3
2
5
2
4
8
21
13
3
2
5
1
4
8
21
13
3
2
5
1
4
8
20
13
3
2
5
2
4
8
20
13
3
2
5
2
4
7
20
13
3
2
5
2
4
8
20
13
3
2
5
2
4
8
20
13
3
2
5
2
5
8
20
14
3
2
5
2
5
8
20
14
3
2
5
2
4
7
20
14
3
2
6
2
4
7
20
14
3
3
6
2
5
7
20
13
3
3
6
2
5
7
20
13
3
3
6
2
5
7
20
13
3
4
6
2
5
7
20
13
3
4
7
2
5
7
20
12
3
4
7
2
5
8
20
12
3
4
7
2
5
8
20
12
3
4
7
2
5
8
20
12
3
4
7
2
5
9
22
12
4
4
7
2
5
9
22
14
5
4
7
2
5
9
23
14
5
4
7
2
5
9
23
14
5
4
8
2
5
9
23
14
5
4
8
2
5
10
23
15
5
4
9
2
5
10
23
15
6
5
9
2
5
10
23
15
6
7
9
2
5
10
23
15
6
8
10
2
5
10
23
15
6
9
10
2
5
10
23
15
6
9
12
2
5
10
23
15
6
9
12
2
5
10
22
13
6
10
13
3
5
11
22
12
5
11
15
3
5
10
23
12
6
14
17
3
5
11
22
12
6
14
19
3
5
11
23
12
6
15
20
3
6
13
23
12
6
16
20
3
6
13
23
12
7
16
20
3
6
13
23
14
7
16
21
3
6
13
23
17
8
16
21
3
6
15
23
18
8
16
21
4
6
18
24
18
8
16
21
4
7
18
24
18
8
16
23
4
6
18
24
18
8
16
23
4
7
18
24
19
10
18
25
4
7
18
27
21
13
21
25
4
7
18
26
21
13
22
25
4
7
18
27
21
13
22
25
4
7
18
26
21
13
22
25
4
7
18
25
22
14
24
29
5
7
19
25
22
15
25
30
5
7
19
26
23
16
27
33
5
7
19
26
24
16
27
33
5
7
19
27
24
16
28
33
5
8
19
27
24
16
28
33
5
8
19
27
25
16
28
35
5
8
19
27
25
17
29
35
5
8
19
28
25
17
29
35
5
8
19
28
25
17
29
35
5
8
20
28
25
18
32
35
5
8
20
29
25
18
36
36
5
8
20
29
25
18
36
36
5
8
21
29
26
18
36
36
5
8
21
29
26
18
36
38
6
8
21
30
26
18
36
39
6
8
21
30
26
18
36
40
6
8
21
30
26
18
36
40
6
7
21
30
26
18
36
41
6
7
21
30
26
18
36
41
6
7
20
29
26
18
36
41
6
8
20
29
26
18
36
41
6
8
20
28
26
18
38
41
6
8
20
28
26
18
38
41
6
8
20
28
26
18
38
41
6
8
20
28
26
18
38
41
6
8
20
28
26
18
38
41
6
8
20
28
26
18
38
41
6
8
20
29
26
18
37
42
6
8
21
29
27
18
37
45
7
8
21
29
27
19
40
44
7
8
21
29
27
19
40
45
7
8
21
29
27
19
39
45
7
8
20
29
27
19
39
45
7
8
21
29
27
19
39
44
7
8
20
30
27
19
39
43
7
8
20
30
27
19
39
43
7
8
19
30
27
19
39
43
6
8
19
30
28
19
39
44
7
8
19
30
27
19
39
44
7
8
19
30
25
18
39
44
7
8
18
30
25
18
39
43
6
7
15
29
24
18
39
43
6
7
15
29
25
18
39
42
6
7
15
29
24
18
39
42
6
7
15
29
23
17
38
42
6
7
15
26
22
15
37
42
6
7
15
27
22
15
36
42
6
7
15
26
23
15
37
43
6
7
15
26
22
15
37
43
6
6
15
24
21
14
36
41
6
7
16
25
21
14
36
42
6
7
17
25
20
12
34
42
6
6
17
24
19
12
34
43
6
6
17
23
19
12
34
43
6
6
17
23
19
12
34
43
6
6
17
23
18
12
33
42
6
6
16
23
18
12
34
41
6
6
18
22
18
12
34
41
6
6
18
22
18
12
34
41
6
5
18
22
17
10
31
42
6
5
19
22
17
10
27
43
6
5
18
22
17
10
27
43
6
5
17
21
17
10
27
42
6
5
17
21
17
10
27
41
5
6
17
21
17
10
27
41
5
6
17
22
17
10
28
39
5
6
17
24
17
10
28
40
5
6
17
23
17
10
28
40
5
6
17
23
16
11
28
40
5
6
18
23
17
11
29
40
5
6
18
22
15
11
29
39
5
6
18
23
16
11
30
40
5
6
18
23
17
12
33
40
5
6
19
23
17
12
33
40
5
6
19
23
17
12
33
40
5
6
19
23
17
12
33
41
5
6
18
23
17
13
35
41
5
6
19
23
17
13
35
39
5
7
20
23
16
13
35
36
4
7
21
25
16
11
32
36
4
7
21
25
16
12
33
35
4
7
21
25
16
12
33
35
4
7
21
25
16
12
34
35
4
7
21
25
16
12
33
34
4
7
21
24
15
12
33
34
4
6
21
24
15
13
34
34
4
6
21
24
15
13
34
34
4
6
21
24
14
13
34
34
4
6
21
24
14
12
34
33
4
6
21
24
14
12
34
34
4
6
21
24
15
13
34
34
4
6
21
24
15
13
35
34
4
6
21
24
15
13
35
35
4
6
21
25
15
13
36
35
4
6
22
27
15
13
36
34
4
6
22
30
15
13
36
34
4
6
22
30
14
13
36
35
6
7
23
31
14
13
35
35
5
7
22
31
14
13
35
35
6
7
22
31
14
13
35
34
5
7
22
31
15
13
35
33
5
7
22
31
14
13
35
30
5
7
22
32
15
13
36
30
5
7
22
32
15
13
36
29
5
7
22
32
15
13
36
29
5
7
22
34
15
13
36
29
6
7
23
34
15
13
35
31
6
7
23
34
15
14
36
32
6
7
23
34
15
14
36
32
6
7
23
34
15
14
36
31
6
7
23
34
16
14
36
33
6
7
23
36
16
14
36
33
6
7
23
37
16
14
36
33
6
7
23
37
16
14
36
33
6
7
23
38
16
14
36
33
6
7
23
37
16
14
36
33
6
7
24
36
16
14
36
32
6
8
24
36
16
14
36
32
6
8
25
36
17
13
35
32
6
8
24
36
16
13
35
33
6
8
24
36
16
13
35
33
6
8
24
36
15
13
33
33
6
8
25
36
14
12
30
33
6
8
24
36
14
12
30
33
6
7
25
36
14
12
30
32
6
7
25
36
15
12
30
32
6
7
25
36
15
12
28
32
6
8
26
35
15
12
28
32
6
8
25
36
15
12
28
32
6
8
26
35
15
12
28
32
6
8
26
34
15
12
27
32
6
8
26
34
15
11
27
32
6
8
26
34
15
11
26
33
6
8
26
34
15
11
26
34
6
8
26
34
15
11
26
34
6
8
26
34
15
10
25
34
6
8
26
34
15
10
24
34
6
8
25
34
16
10
25
34
6
8
25
34
16
10
25
34
6
8
25
34
16
10
24
34
6
8
25
34
16
10
24
34
6
8
25
34
16
10
24
35
6
8
25
34
16
10
23
34
6
8
25
34
16
10
23
34
6
8
26
32
16
10
23
34
6
8
26
30
16
10
22
34
6
8
26
29
16
10
22
33
5
8
25
29
16
9
22
33
6
8
25
29
16
9
22
33
5
8
25
29
16
9
22
33
5
8
25
29
16
9
22
33
6
8
24
29
16
9
22
34
6
7
24
28
16
10
21
36
6
8
24
28
17
10
22
36
6
8
25
27
20
11
23
36
6
8
25
26
20
11
23
36
6
8
24
25
20
11
22
34
6
8
22
25
20
10
19
34
6
8
22
25
20
10
20
33
6
8
22
25
20
10
20
33
6
8
22
25
19
10
20
30
5
8
23
22
19
10
19
30
6
8
23
19
19
10
19
30
6
8
23
22
19
10
20
30
6
8
23
22
19
10
19
30
6
8
23
22
19
10
20
30
6
8
23
22
19
10
20
32
6
8
22
22
19
10
20
33
6
8
22
26
20
10
20
33
6
8
22
25
22
10
19
34
6
8
22
25
22
10
19
34
6
8
22
25
22
11
19
34
6
8
21
25
22
10
18
33
6
8
22
25
23
11
18
33
6
8
21
27
23
11
19
34
6
8
21
26
22
11
20
33
6
8
21
26
22
10
20
34
6
8
20
26
22
11
21
34
6
7
19
26
22
11
21
34
6
7
17
26
22
10
21
34
6
7
18
26
22
11
22
34
6
7
17
26
22
10
21
34
6
7
18
26
22
10
21
33
6
7
19
26
22
10
22
33
6
7
19
26
23
11
22
32
6
7
19
27
22
10
22
32
6
7
19
27
23
10
22
33
6
7
19
27
22
10
22
33
6
7
19
27
23
10
22
33
6
7
19
27
23
10
22
33
6
7
19
27
22
10
22
33
6
7
20
27
22
10
21
32
6
7
20
26
22
10
21
32
6
7
20
26
22
10
21
32
6
7
19
26
22
10
21
32
6
7
19
26
22
10
21
32
6
7
19
27
22
10
21
32
6
7
19
27
22
10
21
32
5
7
19
27
22
10
21
32
5
7
19
27
22
10
21
32
5
7
19
28
22
10
21
30
5
7
19
29
22
10
21
30
5
6
19
29
22
10
21
27
5
6
19
29
21
9
20
27
5
6
18
29
18
8
19
27
5
6
18
29
18
8
19
27
5
6
18
29
18
8
19
27
5
6
18
28
18
8
19
27
5
6
18
28
18
8
19
27
5
6
18
29
18
8
19
27
5
6
18
30
18
8
19
27
5
6
16
29
18
7
19
26
4
6
16
29
18
7
18
26
4
5
16
28
18
7
18
26
4
5
16
30
18
7
18
26
4
5
16
30
18
7
17
26
4
5
16
30
18
7
17
23
4
5
16
30
18
7
17
21
4
5
16
27
16
7
17
20
4
4
16
27
13
7
17
19
4
4
16
27
13
7
17
19
4
4
16
27
13
6
17
19
4
4
16
27
14
6
17
18
3
4
16
27
14
6
17
18
3
4
15
26
13
6
16
17
3
4
15
26
14
6
14
17
3
4
15
27
14
6
14
16
3
4
15
27
14
6
12
16
3
4
15
27
14
6
11
15
3
4
15
27
17
6
11
14
3
4
15
27
17
6
11
14
3
4
15
28
19
7
10
14
3
5
14
28
19
7
11
14
3
5
14
28
18
7
10
13
2
5
14
28
19
7
9
13
2
5
13
28
19
7
9
13
2
5
13
27
19
7
9
12
2
5
13
27
19
7
8
12
2
5
13
27
19
7
8
12
2
6
13
27
19
7
8
11
2
6
13
27
19
7
8
11
2
6
13
27
20
7
8
11
2
6
12
27
20
7
8
11
2
6
13
27
20
7
8
10
2
7
12
27
20
7
7
9
2
7
12
27
20
7
7
9
2
7
12
26
20
7
7
9
1
7
12
26
20
7
7
8
1
7
11
26
21
7
6
8
1
7
11
25
21
7
6
6
1
7
11
23
21
7
5
6
1
7
11
23
21
7
5
6
1
7
11
23
21
7
5
5
1
7
11
23
21
7
5
5
1
7
11
23
21
7
5
5
1
7
11
23
21
7
5
4
1
7
11
23
21
7
4
3
1
7
11
23
21
7
4
3
1
7
12
23
21
7
4
3
1
7
11
22
21
7
4
3
1
8
11
22
21
7
4
3
1
8
11
22
22
7
3
2
1
8
12
22
22
7
3
2
1
8
11
21
22
7
3
2
1
8
11
18
21
7
3
2
1
8
11
18
22
7
3
2
1
8
11
18
22
7
3
2
1
8
10
18
22
7
3
2
1
8
10
17
21
7
3
2
1
8
10
17
22
7
3
2
1
8
10
17
22
7
3
2
1
8
10
17
22
7
3
2
1
8
10
17
22
7
3
2
1
8
10
17
22
7
3
2
1
8
10
17
22
7
3
2
2
8
10
22
21
6
3
2
2
8
10
21
21
6
3
2
2
8
10
21
21
6
3
2
2
8
11
21
21
6
3
2
2
8
10
21
19
6
3
2
2
8
10
20
19
6
3
2
1
8
10
19
17
5
3
2
1
7
10
20
17
5
3
2
2
7
9
20
17
5
3
2
1
7
9
19
17
4
3
2
1
7
9
19
17
5
3
2
1
7
9
19
17
5
3
2
2
7
9
19
16
5
3
2
1
7
9
20
16
5
3
2
1
6
8
20
16
5
3
2
2
6
8
20
16
5
3
2
1
6
8
21
15
5
3
2
2
6
8
21
15
5
3
2
1
6
8
21
15
5
2
2
1
6
8
21
15
5
2
2
2
6
8
21
15
5
2
2
2
6
8
21
15
5
2
2
2
6
8
22
15
5
2
2
1
6
8
22
15
4
2
2
1
6
8
23
15
4
2
2
2
6
8
23
15
4
2
2
2
6
8
23
15
4
2
2
2
6
8
24
14
4
2
2
2
6
8
24
14
4
2
2
2
6
8
24
15
5
2
2
2
6
8
24
14
5
2
2
2
6
8
25
14
5
2
2
2
6
8
25
14
5
2
2
2
5
8
25
14
5
2
2
2
6
8
25
15
5
2
2
2
5
7
25
14
5
2
2
1
5
7
25
14
5
2
2
1
5
7
25
14
5
2
2
1
4
7
25
14
5
2
2
1
4
7
25
14
5
2
2
1
4
7
25
15
5
2
2
1
4
7
26
15
5
2
2
1
4
7
26
15
5
2
2
1
4
7
26
15
5
2
2
1
4
7
26
15
5
2
2
1
5
7
26
15
5
2
2
1
5
7
26
14
5
2
2
1
5
7
26
14
5
2
2
1
5
7
25
14
5
2
2
1
5
7
25
14
5
2
2
1
5
7
21
14
5
2
2
1
5
7
21
14
4
2
2
1
4
7
21
14
5
2
2
1
4
7
21
14
5
2
2
1
4
8
22
15
5
2
2
1
4
7
22
15
5
2
2
1
4
7
22
15
5
2
2
1
4
7
23
15
5
2
2
1
4
7
23
15
5
2
2
1
4
7
23
15
4
2
2
1
4
7
23
14
4
2
2
1
4
7
23
14
4
2
2
1
4
7
23
14
4
2
2
1
4
7
23
14
4
3
2
1
5
7
23
14
4
2
2
1
4
7
23
14
4
2
2
1
4
7
22
13
4
2
2
1
4
7
22
13
4
2
1
1
4
7
22
14
4
2
2
1
4
7
22
15
4
2
2
1
4
7
23
14
4
2
2
1
4
7
23
14
4
2
2
1
4
7
23
14
4
2
2
1
4
6
22
16
4
2
1
1
4
6
22
16
4
2
1
1
4
6
22
16
4
2
1
1
4
6
23
16
4
2
1
1
4
6
22
16
4
2
1
1
4
6
22
16
4
2
1
1
4
7
21
16
4
2
1
1
4
7
22
16
4
2
2
1
4
7
22
16
4
2
1
1
4
7
21
16
4
2
2
1
4
7
21
16
4
2
2
1
4
7
21
15
4
2
2
1
4
7
21
15
4
2
2
1
4
7
21
15
4
2
2
1
4
7
21
15
4
2
2
1
4
7
21
15
4
2
2
1
4
7
22
15
4
2
1
1
4
7
22
15
4
2
1
1
4
7
22
15
4
2
2
1
4
7
22
15
4
2
2
1
4
7
22
14
4
2
1
1
4
7
22
14
4
2
1
1
3
6
22
14
4
2
1
1
3
6
22
14
4
2
1
1
3
6
22
14
4
2
1
1