-1
-2
-4
0
2
0
-4
0
-1
-1
3
-7
-5
-1
0
0
1
-1
6
0
-3
-2
4
-2
-2
-1
-3
3
-5
-3
-5
0
-1
-5
-27
-5
0
-1
2
0
1
2
-9
-1
-1
0
-4
-2
-2
1
14
0
1
1
-3
-1
-1
1
-2
0
0
-2
-1
-2
-3
-5
-22
-1
-2
2
-2
-2
-2
-1
14
3
4
0
1
1
-1
1
7
1
-4
1
1
-1
-1
-1
-13
-6
3
-1
-2
-1
-1
4
14
2
-2
1
-1
-1
-2
1
14
3
1
0
3
2
3
-2
-13
-7
2
2
1
0
-1
2
1
3
-1
-3
-3
1
-2
-5
17
-8
-6
-5
2
-1
-2
-1
-15
-3
-3
-3
-3
-2
-2
-2
3
1
-2
-3
-3
-1
-4
-7
-30
-9
-4
-3
0
-2
-1
0
-11
-2
-1
-3
-3
-2
1
0
2
4
2
0
2
-1
0
0
-5
-2
3
2
2
-1
1
1
3
4
0
0
-5
-1
0
0
-3
1
0
1
8
-1
-1
-5
0
0
-2
0
0
-2
-1
0
-5
-2
0
-4
-3
-3
0
-1
3
2
-1
3
-1
-1
1
3
14
0
0
-3
-3
1
-3
-4
-12
-7
-1
-4
-2
0
0
1
4
3
1
4
-2
0
2
5
34
5
1
2
1
1
-8
-17
-46
-11
-5
-4
-6
-2
0
2
6
1
1
-2
-2
1
0
2
-8
10
-2
-1
-8
-1
-2
-5
-5
-12
-4
-1
11
-2
2
9
13
1
0
0
-3
-2
-1
-2
5
-4
-1
0
2
-1
0
1
-6
-1
-1
-5
4
0
-1
0
-6
3
0
0
-17
-2
0
-1
15
3
-1
0
-1
-2
-1
0
-22
-3
-2
-1
0
0
-2
-3
9
-6
-2
0
1
0
2
-5
-15
-3
-2
-5
0
-1
-1
3
17
4
4
0
0
1
0
4
9
2
-1
0
-4
0
0
-6
-9
-4
0
-3
2
0
-4
-5
-17
0
-1
0
2
-1
1
1
-20
-5
2
-1
-5
-3
-2
-2
-12
2
-2
0
1
-2
1
7
27
0
0
2
3
-1
0
-4
-12
0
-2
-3
-1
1
0
0
-9
-4
-2
-2
1
0
-2
-3
6
2
-2
-4
-4
-1
-2
0
-15
-8
-1
-2
-1
-2
-1
-2
4
1
2
2
-1
1
-1
0
4
4
0
4
3
1
0
1
6
-2
-1
0
1
-1
1
-1
-14
1
-2
-4
-6
1
-2
2
26
2
-5
-3
-1
-1
0
-2
-8
-6
1
-1
0
0
-1
-1
-1
3
4
3
1
-2
-2
-2
12
1
-2
1
-1
-2
-1
0
-11
2
-2
-1
1
0
-1
-1
-24
-5
-5
-5
-2
-1
-1
-1
5
-2
0
-2
-3
2
1
1
-3
-1
0
3
1
0
-3
-6
-36
-5
0
-1
0
-1
-1
0
19
-1
-3
-3
-3
-3
-1
-1
1
5
-2
-1
0
-2
-1
-4
-10
-6
-4
-1
-3
-2
-1
0
12
1
1
-1
-2
-2
2
4
8
3
2
2
0
1
-4
-6
-14
-8
-3
0
-1
1
0
2
15
3
-2
-3
0
-4
0
2
2
-1
-4
2
2
-1
-1
0
16
6
7
2
-1
1
-2
0
-25
-5
-1
1
-1
0
-4
-3
-10
-3
-6
-2
-2
-1
-1
-2
-9
-2
0
-1
0
-1
1
2
14
2
-1
-1
0
0
0
1
17
3
1
2
-1
-1
2
2
0
-4
2
0
0
0
0
1
13
0
0
-2
-2
-1
-2
-5
-29
-6
-5
-1
-2
-1
0
-1
-22
-2
-1
-4
-2
-2
0
1
17
2
0
0
0
-1
-4
-7
-15
-7
-6
-1
-2
-1
3
0
4
3
0
0
-1
0
5
5
3
0
-1
-1
2
2
1
-1
2
-1
-2
1
2
1
-11
3
5
2
5
-1
-1
-2
-10
-13
-6
-8
-4
-2
-2
-3
3
-5
0
0
-5
-1
-1
-2
0
4
32
4
5
0
-2
2
7
3
-24
0
-3
-3
-2
1
-7
-3
-22
-6
-3
-1
-1
-3
-6
0
8
1
-2
-3
0
0
8
-10
8
1
1
1
0
-1
-13
10
-22
-9
0
-3
-3
0
0
-13
-2
-1
2
0
2
0
-1
3
-16
-4
-1
-3
0
1
-2
2
-13
2
-1
-3
0
-2
8
1
11
1
-1
3
3
0
0
3
5
6
-3
-1
1
0
-4
-6
-5
-6
-1
1
-2
-5
-11
-8
-6
-6
0
-2
-2
-2
12
5
15
0
-1
-2
-2
-5
11
18
8
9
1
0
0
2
-7
-22
16
-8
0
1
-2
3
24
7
-8
0
-1
-2
-2
-2
4
-8
1
-1
-2
-1
-2
-1
-12
-8
-13
-6
-3
1
-2
-3
-3
14
5
7
5
2
-1
2
-2
-5
-18
-3
-2
-2
-2
1
6
-1
-1
-3
-3
-5
-1
1
3
-1
20
-5
2
0
-2
-3
-11
-2
0
0
-1
0
-1
-5
1
-3
-42
-6
-2
-3
-2
-1
2
7
14
10
0
0
-1
1
-9
-4
-14
0
-1
-2
-1
0
2
-1
37
7
1
1
1
-2
3
9
5
1
1
2
3
0
-7
-13
-34
-10
-3
-2
-2
0
8
11
0
0
0
1
1
5
5
-27
-7
2
2
0
2
5
3
15
-7
-3
-2
0
-4
-7
-9
2
36
8
2
0
-1
-7
-3
0
-50
-13
-5
-4
-5
-2
15
12
-6
4
-1
-2
0
0
7
-13
4
2
2
-2
-2
8
-28
-10
-9
-7
-1
-1
-2
-6
11
-7
30
0
-3
-3
-3
-6
0
1
-13
-4
-3
-4
-1
-2
11
2
-20
-4
-1
-1
0
1
-15
5
21
2
1
1
2
1
2
9
12
15
2
1
0
-1
5
-4
24
0
-3
0
-1
3
-17
-3
4
-1
0
2
1
0
8
-2
-26
-10
-2
-4
-4
-3
-25
-13
-12
-4
0
-1
-2
0
3
21
5
5
-1
-2
-1
-1
22
-4
9
1
2
4
5
10
-50
-11
12
7
-1
-1
-5
-6
32
11
7
-4
-1
-2
1
-3
-27
-7
12
5
2
1
0
-2
-23
-23
-29
-15
-7
-2
0
-6
31
3
-19
3
-1
-2
1
5
-3
16
51
4
-4
-3
0
2
43
16
-27
-8
3
2
1
3
-11
2
21
7
1
-1
-5
-6
2
-10
42
-6
0
1
-1
-2
-4
1
-9
2
-2
-3
0
-3
5
-8
6
2
-1
-1
1
0
-2
8
-3
0
-1
1
3
0
34
6
4
3
1
0
3
2
-20
-1
6
0
-1
1
0
-4
-40
-5
7
3
1
2
2
2
10
-19
-21
-7
-6
-7
-8
-2
-35
1
-14
-3
1
2
-3
-12
70
-22
-22
0
-1
0
3
10
7
8
23
-6
-2
-4
-1
-8
-43
0
-9
1
-4
-3
-3
-7
25
8
7
5
2
2
2
6
-20
5
-21
-6
0
1
-2
-2
35
-3
1
-2
-1
-2
-1
1
-27
11
20
6
4
3
3
8
-32
-6
8
3
0
0
-9
-6
14
-25
-16
-21
-2
-1
1
2
-5
1
-23
0
-3
-3
-5
-5
21
-8
14
-3
1
-4
-2
-5
18
12
-25
1
-6
-3
0
4
-43
-8
33
12
6
3
-2
-2
35
19
-15
-6
0
-3
7
-12
8
-12
-33
-5
-3
2
6
3
-11
8
-12
9
-1
-4
-7
-7
-9
-32
-25
-16
-7
-4
-3
0
-32
-32
-56
-10
-4
0
-2
7
19
26
30
15
3
-2
1
-18
17
-7
6
-8
1
4
0
16
-2
6
-4
0
-5
-4
-3
-7
-15
3
20
3
2
2
-1
8
23
6
-27
-6
-1
-1
-6
7
-24
41
12
-13
-4
-5
-3
-14
55
-38
0
9
-1
-1
6
-3
-37
10
12
-1
-5
-3
2
1
-4
-19
34
-3
-5
-2
-8
2
34
-16
-14
-5
-1
-1
1
-2
-80
12
11
11
4
1
-12
-2
36
8
-7
-15
-5
-3
3
24
38
-7
11
11
5
1
8
-22
31
-21
-37
-6
-7
-6
-1
6
-43
58
21
-2
0
2
-13
-9
80
-18
-17
-7
4
3
-2
0
-89
44
4
-10
-3
-4
-16
-19
29
-30
26
10
1
2
16
18
91
-9
-67
0
0
1
17
2
-116
-23
76
12
-4
-5
-13
3
39
7
-79
-18
-12
-2
-1
-18
-38
-17
20
7
10
4
0
4
53
34
82
20
6
5
-1
26
-45
-37
-96
-32
-7
-1
1
-10
11
-18
20
4
-6
-5
-3
13
-51
77
7
18
-4
-7
-13
-33
-50
-27
25
-30
-3
-5
-6
-13
52
14
-3
-1
6
1
-8
-22
-46
-43
-16
-16
-8
-3
-4
12
87
-3
-5
6
5
2
4
-4
-20
55
-1
5
-2
-1
-8
12
7
-23
32
30
-3
-4
-8
11
58
26
14
-17
6
4
15
4
65
-61
-18
-11
2
6
7
25
19
80
22
37
-11
-13
5
-12
-73
-34
-12
-9
3
0
12
1
23
45
41
7
-3
-7
-9
-25
36
-68
-17
-43
-1
4
3
36
-46
-24
-31
-4
5
2
-14
-17
42
17
-19
31
-6
1
-13
-5
-75
85
52
-2
2
-3
3
-22
59
-27
-39
-21
3
2
-2
-15
63
43
-10
42
13
8
8
28
-20
-110
19
-4
-11
-1
24
48
5
32
42
-8
5
3
-12
-24
-128
14
-20
11
-15
-10
7
22
-15
-6
-21
-32
-6
-7
-13
-63
20
-31
43
13
5
-3
2
4
-62
21
-24
13
-6
2
13
41
-36
62
52
18
-3
0
-9
-15
-106
-128
-20
-27
4
2
-3
36
74
97
-5
-30
-9
-6
-7
-38
9
34
-43
21
7
5
-5
-27
-9
-57
47
52
7
7
20
46
-47
-81
10
-55
-18
-9
-3
-26
26
127
-5
-22
3
0
-5
2
-7
-128
-41
-19
5
-3
9
-25
21
82
15
24
1
3
3
16
-60
55
5
2
6
1
6
-15
-87
-123
9
18
3
10
9
-8
-15
-6
6
-1
-4
-2
-10
-16
20
36
-32
14
4
-8
-9
-12
9
-30
1
-26
-21
1
13
6
108
39
-67
-2
-1
-13
-44
-47
-17
-88
-4
-55
-8
2
17
113
-49
-82
11
-16
-1
-6
-29
-96
-25
22
7
20
3
5
13
68
-33
29
12
3
6
-5
-10
-43
-48
-56
-13
42
7
10
8
38
41
103
-23
-45
-17
-14
-5
-15
21
-79
1
-21
-2
0
5
7
-3
82
-11
51
11
11
13
20
84
-58
-8
-71
4
-4
-7
9
-23
-57
-48
-20
-2
12
27
77
67
95
80
30
-9
-10
-32
-99
-29
-6
-68
-53
-12
-1
10
2
-12
-94
-19
-24
-10
1
-5
38
-104
-28
41
10
16
2
-31
44
-13
19
-37
-19
-3
-7
3
-17
18
-119
41
55
8
4
17
-15
-7
127
0
43
-9
-7
-18
-62
31
1
18
-17
14
10
6
3
-18
38
5
39
9
-4
-5
13
-128
82
-36
-11
5
1
-4
-4
94
9
-10
100
-1
3
29
49
1
-72
38
-42
13
8
24
27
24
36
-25
5
-5
-3
-13
-24
5
62
-10
-10
2
5
2
35
41
115
0
-18
1
-4
-28
-8
41
92
57
29
-12
-12
-16
-78
-3
-28
-12
28
7
1
11
8
-52
35
-45
40
9
8
39
103
-94
16
32
-28
-3
-5
-28
-41
81
-19
-3
101
-4
-1
-18
-37
16
-10
-12
-109
27
8
5
-24
-23
26
47
-25
-3
-3
-11
-24
35
-17
0
7
-8
-3
15
11
-41
-22
-64
44
0
2
6
-38
109
-9
41
39
2
5
-18
75
72
0
11
-16
14
-1
-19
12
-57
12
59
55
1
-7
-6
-62
54
107
-4
3
-1
-2
3
1
4
-43
-38
26
-15
-2
17
19
-7
-29
-22
-57
-12
-8
-15
-30
-47
9
17
-30
-21
-8
-24
5
-90
-50
10
-12
12
-6
24
94
-107
-29
-24
25
-2
-1
-1
-71
29
-100
-25
55
-18
-5
-3
6
48
-8
25
46
8
2
17
-17
-67
0
-18
-71
-5
-2
-42
3
57
1
-12
-10
-1
-3
1
45
33
-93
7
-81
-6
-1
4
-14
40
85
-23
19
2
4
19
48
-53
-48
-46
-28
-13
-6
7
-29
-46
-54
50
13
3
5
-12
-37
68
-10
24
9
0
-2
5
9
-81
-73
9
-20
-4
4
5
19
84
-77
-9
-82
-13
-9
8
-15
25
1
-8
79
-9
-9
-13
-9
-128
5
18
36
-6
-5
-2
32
84
61
-34
-93
3
2
11
-38
-50
-21
12
51
-10
-3
-15
-45
45
-58
-14
-45
-4
1
30
79
36
35
53
12
11
-5
-49
-47
76
61
-40
43
3
0
14
-39
-56
-74
30
-17
8
7
-2
13
-64
7
-21
-21
7
6
23
-7
21
35
17
13
-21
-3
-17
-25
-92
-98
23
97
22
6
30
31
-59
127
44
-106
-17
-14
-3
9
60
-30
-17
10
-3
2
-4
-9
-60
38
-18
39
9
7
17
-31
-52
64
8
-9
-15
-3
-11
60
39
-39
-7
44
9
4
26
0
-48
67
-11
-27
-2
-5
-24
7
70
8
8
-4
-15
-9
13
8
116
-100
42
37
10
-2
-18
26
-6
-7
-31
29
3
-3
-20
-57
-54
35
-12
6
-2
0
8
-55
39
-60
2
23
4
0
3
3
-74
21
-21
-51
-4
0
-3
23
12
72
-7
-82
-5
-8
-16
0
-47
-46
28
22
-3
-1
0
-2
-123
4
-17
10
-12
-1
14
20
-62
-19
-68
-45
-17
-5
16
-49
111
96
44
-3
-1
2
0
15
-16
16
-33
-63
2
3
-12
-1
92
-50
32
-15
-3
-7
8
-13
76
5
-36
-54
-9
-2
-18
11
31
-60
-17
34
13
7
38
19
85
-42
-6
22
-21
-7
-7
51
-31
52
22
30
3
3
3
-28
104
19
8
-15
5
-1
-14
-64
15
-46
4
40
-5
-1
1
31
-44
21
12
-21
9
-3
-3
-9
-23
-86
-18
-24
-6
3
-3
29
-99
-47
23
58
18
-1
4
-8
-98
-3
-40
61
-10
-4
-24
-20
109
-7
18
-65
2
-4
-3
40
-62
25
-7
-26
9
0
3
-13
47
27
18
8
1
2
15
1
-21
-16
29
-67
-15
0
-6
3
76
-19
-45
60
5
5
-8
-2
1
46
-7
-78
9
-7
-26
-11
-58
-30
-7
-14
0
-3
-11
-19
-2
-23
-5
-17
16
6
19
23
29
123
-20
-19
-11
2
17
80
58
11
-9
11
-4
1
-22
6
36
-59
40
0
-12
-5
-5
19
-24
-56
-1
34
16
4
-6
-16
-30
49
-15
-61
-3
-7
-2
-37
26
-35
-36
59
14
-2
18
18
-35
-55
-19
-38
-11
1
-10
8
39
-5
14
27
1
2
6
35
-32
10
34
18
0
-4
-7
-29
-13
-33
-28
-12
-16
-9
-6
5
-17
-10
6
9
-1
0
-10
-46
-36
-24
-11
-52
-13
-10
-3
-22
-47
18
41
53
21
-4
-16
-46
-5
50
-14
-55
-4
5
0
6
30
54
-17
36
11
11
14
-6
12
-67
15
-12
-14
-9
-2
7
38
-18
-39
-18
-10
-1
-8
13
-7
40
30
81
-8
-3
2
-3
14
-12
-22
-91
24
11
-4
11
92
107
-13
26
-12
-2
3
-19
-11
-23
-3
14
-4
-4
7
21
125
-23
32
-9
17
9
-1
0
10
-56
1
99
1
-2
-22
59
53
1
20
-16
2
-7
-24
-45
-38
-15
1
26
5
5
15
29
-49
-6
-9
3
-3
2
-3
-26
9
28
20
-16
-4
-5
16
9
-69
50
-42
11
4
-5
-5
7
122
-1
28
-6
1
-2
-15
-38
48
-59
-1
-10
7
6
22
95
-55
23
1
37
10
-8
-20
-99
101
0
5
-48
9
13
20
35
-100
-23
-36
71
-8
1
2
49
-18
62
13
-55
-24
-8
21
-16
-32
-21
-12
31
2
2
-1
1
-97
19
20
23
2
6
-8
-8
33
19
-6
12
-1
5
22
11
-75
24
7
14
-17
-5
0
58
12
31
-7
-44
13
0
3
-36
41
92
9
15
-7
-6
5
13
-97
27
-50
-30
1
4
-10
-26
-17
-59
5
68
0
-6
-9
14
59
-21
20
-128
-3
-7
9
-2
-23
-17
-14
92
4
5
1
5
68
-51
-1
-49
-2
2
-1
-24
-7
-107
-22
-4
4
5
31
48
-35
-74
18
97
-28
-13
-42
-59
-17
-20
-11
-1
18
6
3
-20
-3
-21
17
-80
-22
-10
-27
5
27
67
-4
-47
2
0
16
-22
-3
-30
-1
88
6
1
23
83
-6
-43
-19
14
-14
-1
-32
-40
-50
5
2
56
-1
9
52
58
-66
-18
35
60
13
-14
-71
-103
97
26
-13
-68
-12
-6
5
31
-25
38
-8
23
5
6
13
-17
33
50
38
30
8
-8
-33
64
-61
-28
-23
22
-19
0
20
-42
25
-3
36
-53
1
-15
-21
3
-12
-44
-21
7
-10
-1
12
11
-81
9
14
42
19
-2
-16
-28
-57
20
12
-44
-13
-12
8
17
-35
75
-33
-3
17
23
-4
6
-22
-45
-26
-2
-11
-9
19
86
44
-13
62
40
-14
-20
-32
-78
31
-4
-28
-8
6
2
-15
-14
-51
-22
-19
-59
-8
8
45
29
-82
-26
-13
0
-9
0
-12
36
104
-37
20
-6
5
3
11
-49
44
-19
-9
54
-4
-7
-29
-9
-10
-9
18
-81
5
9
6
52
13
67
6
-20
-19
-13
-22
-67
-10
-12
-9
38
-1
1
8
-4
89
88
17
29
0
7
-1
-5
-23
21
-16
34
7
-1
-6
-18
33
59
8
18
9
1
20
20
15
51
5
44
1
3
4
23
59
-2
-24
-45
-3
2
-4
-37
-35
53
-3
93
-11
-8
2
4
24
-65
2
-72
-6
-12
4
28
68
-92
5
9
1
8
5
7
7
80
13
-84
16
-1
-11
11
1
-68
9
127
-10
3
13
-13
-68
-35
-9
-15
-3
2
-7
74
-17
45
44
-6
-11
0
13
-67
42
-83
-31
-53
-5
-11
-14
2
4
-14
-1
30
-12
-7
-6
-20
82
-81
-15
-64
2
7
1
47
-25
69
-13
20
-14
-8
3
-39
26
0
-14
7
27
17
11
34
-53
92
11
18
14
1
-18
-2
88
-53
-23
10
-15
3
15
-14
68
-35
-53
-28
22
18
36
85
-49
7
-3
-10
-16
-7
-8
-13
-73
-60
5
54
-2
-4
10
15
90
85
12
-8
28
8
-14
-44
20
-54
-65
-61
-2
-7
-16
46
46
72
72
99
-18
-15
-5
-92
16
21
-41
-35
8
10
8
31
-62
-19
3
31
4
1
12
-65
-5
-40
-6
4
-3
1
-2
57
-79
22
-27
-9
14
6
44
10
-24
-84
19
36
-2
-1
-41
-9
-106
127
45
-8
3
-7
14
-17
48
100
14
-33
-5
13
9
80
-27
-33
-24
-20
28
5
27
108
59
124
2
-13
-15
-3
-3
-45
-20
-15
6
15
31
18
7
20
-108
-7
-49
-39
2
2
3
48
-60
36
76
21
-19
-17
-42
-11
71
-57
-26
-92
-27
-12
37
-24
35
-48
-40
80
1
8
-15
-6
55
-27
-2
81
-4
-7
13
-30
-36
10
28
34
-22
-3
-40
-47
47
-73
-23
-86
5
-3
5
-40
23
50
28
72
-14
-9
-28
-3
-83
-41
-11
-33
5
11
31
-21
-29
-18
57
-7
-3
6
-2
-1
-11
-91
-26
-7
-8
8
23
102
26
59
75
-55
5
-29
-32
-124
-9
79
3
20
6
1
-4
-10
14
-33
-38
-13
4
6
-19
17
1
73
2
45
17
21
5
44
-56
-117
-23
59
-20
-5
24
-1
77
-47
23
-8
-46
-27
-21
-14
-27
42
-6
-94
45
20
9
-9
-32
-32
3
0
8
-9
-22
-29
108
-13
-1
-64
-24
-9
41
59
-76
67
54
-93
-36
-33
-60
-44
-72
-10
-55
-5
-3
12
36
-49
107
82
-10
-115
34
4
-34
0
-89
-60
-39
55
27
33
29
102
22
18
2
-71
-5
6
9
-35
123
33
-39
37
17
0
5
45
-49
-40
10
115
-4
-15
-43
-7
-54
127
87
-81
-23
-23
4
-42
-57
-5
-60
85
19
10
2
103
-39
-57
14
31
-15
3
-8
-57
-33
5
-19
-119
-20
-4
16
2
25
66
13
23
11
-2
-30
-2
-97
-73
1
57
8
-7
10
7
98
62
26
31
-1
-6
2
87
-58
-87
9
7
-16
2
-21
-52
29
-22
-35
40
-15
-5
-28
-50
-19
85
47
-36
28
12
-2
-37
49
-35
-14
13
-10
3
-5
67
-49
92
-33
-25
-36
-4
48
-5
45
-70
-4
-8
37
26
48
42
-14
-15
4
-13
0
-13
-20
-26
-50
-32
-34
-10
-20
-15
-19
-76
1
-11
7
21
-14
-1
0
51
63
-45
-29
28
-2
-4
-2
-32
72
7
-14
39
6
2
-4
-59
86
-1
24
-69
19
13
32
44
34
25
20
39
11
-4
19
50
-20
-11
11
-60
-5
-7
-32
-19
42
-128
-46
-7
-4
5
20
-15
-29
4
-27
17
-1
-5
-1
25
-59
-78
40
70
6
1
-9
-54
-19
26
-12
10
-3
-4
-21
17
-60
-103
-24
10
-13
5
30
100
-4
3
13
-38
27
-8
-53
-128
36
-12
-4
-24
2
0
-9
113
-10
-1
2
28
-25
-11
-4
-54
-33
96
2
-76
-3
2
-21
52
86
-58
-32
-36
-3
-9
-7
35
55
69
35
-67
4
7
31
-79
70
54
-24
27
13
21
-8
68
68
9
54
47
2
-24
-15
-92
-96
-19
-27
53
-19
-3
1
0
61
-73
21
83
-18
-7
-3
-8
-25
74
-29
-94
42
8
-16
36
-49
-15
-43
-81
-19
-4
-48
-97
-68
31
16
-16
15
14
60
110
19
84
63
68
32
-16
-75
-128
-98
30
-28
-53
-22
-18
-2
19
36
-43
-16
46
11
7
24
81
-73
69
35
31
-13
-20
-22
-102
91
97
-17
17
-3
5
-2
35
-18
8
-1
8
-5
-3
-9
-33
0
20
-57
-5
3
16
32
70
-72
-7
42
12
-18
-12
-6
-64
-37
71
1
-57
1
-3
-18
-19
-64
59
4
118
1
-3
-9
-75
51
50
29
-14
-4
6
5
31
76
-33
-8
34
-3
4
11
44
-71
12
-50
34
12
8
21
35
-83
49
82
20
-4
-16
9
-18
-27
-25
12
16
-8
-14
-37
-21
18
33
-70
-123
34
19
29
107
78
70
75
91
-9
-25
15
-105
33
-73
-75
-70
-3
21
6
53
-32
56
15
-22
29
1
12
9
115
-128
31
66
-11
0
22
11
-42
-51
-42
-17
23
16
-31
17
127
21
24
85
-16
3
-4
78
-1
-99
-55
-17
13
9
40
-77
-27
44
-10
-4
-1
-5
-75
-68
-60
-37
-19
13
-16
-20
1
37
56
-42
18
20
-7
-2
7
72
-75
-18
60
-73
-24
-8
-34
-105
-42
-29
-30
117
7
14
47
111
-82
-73
-2
-47
-27
-8
24
19
9
-58
-27
-5
3
-6
-55
-36
-56
-27
-8
35
11
14
-9
-76
-26
-97
-6
34
1
-14
38
9
55
62
1
-73
-31
-31
-88
-8
-84
-110
-15
4
29
20
37
-31
5
-66
6
28
5
-5
-6
-24
43
25
3
-90
-11
-3
-9
-12
100
-82
-42
2
8
24
54
125
-79
-68
47
-8
-13
-17
-16
-70
70
0
-29
43
-27
-25
2
34
17
40
31
-105
-3
-12
-33
-52
26
-12
-50
-9
21
26
28
127
-1
73
19
-78
-19
-20
-23
-84
-85
37
-26
11
13
18
30
51
27
79
66
3
-12
-11
-34
-39
-86
18
-33
14
2
0
-19
-96
62
-63
-18
-21
-8
-2
16
70
5
103
51
103
18
5
44
31
17
19
-40
-67
-10
12
-26
29
-65
-48
-22
-51
-20
-6
13
97
-17
65
86
-23
-11
-21
-44
-104
106
53
-23
13
5
8
15
39
-16
-70
-61
41
30
33
28
105
-68
-72
58
-23
-23
-18
-10
-63
53
-84
-77
-59
2
-4
1
-37
-87
-32
53
-33
-19
-15
-34
28
-98
-74
-13
111
29
1
6
-56
46
-43
-19
-51
35
10
-19
13
41
-98
-42
-75
-7
-3
83
121
6
-24
46
4
-20
-16
9
6
-45
-3
-23
0
-3
-4
32
70
81
54
-13
80
-3
18
32
-12
-67
44
16
-2
28
1
-65
-1
45
7
6
58
4
-11
3
-9
-37
-80
-30
55
-36
3
-15
-59
97
-64
19
-49
19
12
47
123
59
4
16
3
-11
-4
1
-68
5
-128
-22
-37
13
18
-8
41
-19
118
27
70
-57
-35
-34
-52
50
-70
0
-4
31
8
2
49
-34
-32
-40
-6
8
5
40
-32
-48
-80
44
-39
4
-2
-6
58
49
-11
-1
10
-21
-25
2
-20
17
-17
-9
29
-13
5
-11
-76
63
67
15
90
-5
-12
10
107
90
69
-4
-87
24
8
-20
-95
18
10
-47
-31
9
18
10
25
-128
5
16
-43
10
-10
-5
-89
48
14
-12
113
-1
8
12
52
-19
-7
-9
2
-10
-7
-11
-2
110
-36
-22
-22
9
8
-4
28
25
-84
9
93
-9
-13
4
36
-83
51
-26
-90
23
-3
-46
-99
95
-20
2
127
22
14
43
106
-21
-67
62
-1
-1
2
21
-70
-74
73
-43
-33
27
6
-24
77
12
-28
45
78
-16
2
-9
-38
-100
-94
-52
36
6
12
18
49
58
83
84
-92
-21
-26
-54
-44
-104
-34
-18
83
-31
-7
71
47
71
36
9
-89
-5
19
46
76
-111
34
40
-77
-7
-31
-103
-128
46
0
-66
31
-4
-4
5
74
78
-65
-1
-63
5
1
3
-38
74
24
12
79
-14
-2
-65
70
-19
53
-30
-59
12
7
25
-9
60
97
47
8
15
12
8
-6
28
10
27
24
-11
-9
-39
-88
-61
-61
-106
-24
-3
8
29
72
13
48
8
22
-14
-3
-16
-18
-43
-114
-6
-27
47
12
10
-53
-34
60
74
-6
-19
-4
-9
-64
8
-10
-19
-60
25
12
3
0
19
19
-61
-19
-28
-6
13
103
-15
-72
46
8
-20
-13
-5
8
26
31
3
61
-15
5
4
26
-100
-7
11
30
10
5
36
53
121
49
10
10
-11
-14
-47
-48
-3
50
-28
-20
-3
12
19
23
19
24
-1
-7
-1
-13
-23
-37
-37
-45
10
24
-11
-1
7
14
-6
-32
-16
-15
3
7
-20
-39
-14
41
-17
41
-9
-1
17
27
-33
4
17
-31
-11
-19
-5
-106
31
-3
8
13
12
6
-11
-41
-7
28
14
33
-1
3
10
8
-14
19
-9
-10
9
12
8
34
13
37
-19
-3
10
8
-6
7
1
15
16
3
-17
-14
4
-11
-1
-27
3
2
-4
8
4
-20
-21
-22
13
30
7
-9
3
12
-7
-15
-13
-33
0
-1
3
36
-19
-21
0
35
-16
-2
-12
-18
26
-12
-9
-29
7
4
-20
12
-27
-83
-2
28
8
5
55
-17
6
16
3
15
-10
-8
-35
-12
-12
11
4
-8
-7
-1
1
-13
-3
20
11
19
0
-4
1
26
-19
1
1
-13
4
5
-35
-6
1
-5
-3
21
12
9
20
6
21
-15
26
-9
-13
-11
3
-4
-23
-51
-9
12
-1
-1
9
3
-11
-21
-2
-10
-9
-7
6
21
-15
-13
-18
-6
-1
-6
-35
-27
-10
6
-17
5
-1
3
-17
2
-11
3
15
7
-5
-2
16
-3
4
9
-24
-11
-2
4
-8
-18
15
8
9
3
-2
-2
4
57
-5
-5
0
3
5
3
49
-39
1
-9
-8
-2
-2
-1
-8
-13
-14
-12
23
-6
0
1
-49
4
4
-4
-17
3
-2
0
54
6
-1
27
-13
-2
-3
-12
-20
0
0
9
17
13
1
-1
16
4
-14
34
-40
-36
-9
-7
-7
-10
9
15
25
10
8
7
-33
9
-4
-9
15
1
-1
1
-6
-8
6
14
-5
6
-2
0
8
-15
-16
4
-10
3
-5
-15
-7
15
-1
-54
9
-1
-2
-2
15
-1
1
-19
6
4
1
2
7
8
-12
4
-18
1
0
-1
-16
-2
0
-1
10
3
0
0
-4
-10
-2
23
-1
-1
3
4
-21
1
-3
2
-27
4
1
-1
38
1
-5
-7
19
0
-4
-5
-36
16
0
9
-26
3
-3
4
32
-44
-3
-35
-52
-19
-8
-6
-10
-3
5
10
15
8
6
4
-21
13
-4
18
0
0
0
-1
10
-11
-1
23
7
12
-1
1
1
18
1
18
39
3
-4
4
3
-6
-5
-20
-52
-3
-1
-12
-25
-6
-9
-14
37
2
0
0
28
-2
7
-5
-41
0
2
5
-11
5
19
7
-1
3
3
3
11
-7
-41
3
51
5
5
-5
-2
12
3
-1
-31
-17
-8
-2
-78
-9
-14
14
14
-2
-4
-4
72
33
7
14
19
-3
-3
-3
-14
-44
4
7
1
-3
-3
1
45
-7
3
17
-8
9
6
6
-8
12
-2
4
52
-7
-7
-8
-37
-5
-9
25
-11
16
8
15
22
32
-2
18
67
6
-1
-1
-27
20
-4
-33
-96
-30
-11
-21
40
-68
-21
-5
-31
-16
-9
-11
-21
-2
3
-6
-20
-4
0
-2
3
-5
0
-25
19
9
2
9
-14
-1
4
-13
-9
10
9
11
2
19
59
-15
71
22
10
1
-22
41
-14
-8
-38
-9
-4
5
60
-40
-3
9
33
-10
-2
-6
-35
12
27
10
-55
4
-16
-6
-16
10
6
-7
1
-20
-3
-8
34
18
-8
-35
31
18
7
2
-19
1
4
-4
-40
-16
-3
21
14
-6
-37
-16
-10
-18
-2
-20
-26
-4
25
15
4
25
0
4
-24
-2
-6
25
17
-28
-6
-13
-7
10
-2
8
9
13
1
4
31
-24
-29
17
28
22
8
7
2
22
3
-23
49
1
0
6
3
29
3
6
9
9
-7
-11
-50
-31
2
-5
-24
-5
-4
-7
49
-11
24
35
3
-9
0
13
15
20
-23
-3
-63
-13
3
-11
-17
-26
6
18
69
35
4
4
-20
22
-7
14
0
-6
0
-5
-24
1
11
7
22
4
3
4
-3
0
-17
3
0
-1
-4
7
26
-34
-4
3
-66
-8
-1
-1
-26
9
-7
12
5
0
-7
-19
30
18
19
-19
52
-4
0
0
10
-9
0
-4
-75
-24
-9
-3
-12
-12
-5
1
22
-10
-2
1
-1
10
-10
-1
-12
-3
0
4
21
-4
12
3
57
22
6
-1
14
3
8
2
14
6
0
5
-37
-8
28
-22
-30
-13
-11
-4
57
-11
15
-21
-39
-20
-2
-10
-52
4
-18
-1
20
6
-2
-3
0
-1
-13
15
13
10
3
-4
41
-13
1
14
-32
2
10
9
-14
15
10
-8
16
-15
-2
-2
-33
-10
-7
6
-10
4
2
5
32
36
-8
-8
10
18
0
7
-25
-17
-3
6
-18
-10
-2
-12
13
7
-7
-4
-5
-5
-7
0
-2
-5
-7
-9
-14
11
-4
-7
-4
1
-13
-21
-66
-37
-9
0
-52
-3
-7
6
50
9
-1
-3
63
3
2
-5
-14
6
2
4
7
2
0
-11
-14
-17
-4
-1
11
-8
-16
-2
-17
8
0
-4
-19
1
-3
6
25
12
1
3
-12
-6
3
-34
-25
-42
-18
-5
-19
-3
-22
13
-16
13
8
1
8
-14
-6
-13
0
-20
-5
-10
1
1
-8
6
70
10
5
1
-15
20
-4
2
-73
16
2
-2
11
-2
-21
-1
95
-3
-2
-10
-33
-13
0
-2
-5
2
-5
3
26
-29
-4
-4
-53
-14
-1
-1
-1
0
17
11
66
15
5
3
-2
2
-2
-2
-19
-18
-2
6
14
-6
0
16
15
-13
1
-6
-43
-1
6
-10
42
26
1
2
12
-5
-31
-10
-67
-19
0
3
-6
23
20
-11
-13
-1
-8
-10
-16
-5
9
12
30
0
8
20
41
3
-5
-17
-33
-13
-7
-24
-38
-3
-1
11
45
9
-4
-1
12
5
-6
-7
-44
-5
0
1
-10
0
2
-4
19
10
-1
-7
-7
1
-3
-24
-58
-11
2
8
9
6
13
13
51
25
10
5
2
-11
5
-10
-10
-13
-3
-1
-29
-2
0
6
-19
11
4
8
76
-9
-2
15
66
2
-4
-5
-35
7
-4
-12
-53
-35
-9
-9
-23
-4
12
1
23
10
0
8
65
-3
-3
-1
28
3
6
3
0
10
3
3
-34
5
3
8
-7
-5
8
4
73
0
-1
-5
-17
-5
1
10
-29
-5
0
-1
3
4
-3
-12
-22
0
-10
-2
-11
-5
4
18
44
9
4
2
27
2
-2
-6
13
7
0
1
-13
-12
1
7
10
-11
-3
-5
7
4
-2
-3
69
30
-3
-5
-91
-9
-8
-20
-98
-29
-10
-13
26
3
7
10
3
14
7
5
42
7
-3
-5
20
-12
1
-1
-29
-4
5
7
40
14
5
1
7
2
3
-1
-78
-30
-4
1
-16
1
1
-4
-17
38
2
0
-2
-6
-2
-15
13
9
-4
-3
4
2
0
5
-22
-22
-2
6
40
1
-3
-1
-11
-5
-1
1
-2
-4
4
-1
-19
0
1
-2
7
-3
0
7
30
12
3
5
-10
-3
-5
-12
-31
-5
-5
-15
6
2
-3
2
35
0
-1
0
2
-2
5
8
38
8
3
5
-45
-1
-6
-9
-5
1
-5
-5
10
2
-3
-1
-30
-17
-1
-3
6
1
-1
-4
12
3
-1
-1
-9
-2
-1
-4
14
10
4
0
1
-1
0
-2
-1
-1
-2
1
-26
-1
-3
-5
-45
-17
-4
-6
41
-1
1
3
19
4
-3
1
-12
-3
-5
0
19
23
-3
-4
-42
0
1
6
3
-19
2
5
56
5
0
-1
-11
2
-1
-5
-24
-1
-2
8
8
1
-1
3
-5
0
-3
-12
-55
-15
-6
0
11
-5
-1
11
4
25
6
0
-8
-3
3
7
28
-1
3
2
-3
2
-1
-7
-29
5
0
0
5
0
0
-3
22
-16
-7
-1
4
0
-4
-2
-15
6
-5
-4
-16
-4
-1
1
4
4
-4
1
-2
-6
4
4
29
8
2
-5
-9
9
-1
-3
-15
-7
3
5
5
-2
0
-7
-20
-8
-2
-2
76
1
-2
-5
7
6
6
-7
-34
-2
-3
3
2
-15
-5
-1
8
-5
-7
-2
31
6
1
-1
0
-3
3
0
-29
-6
0
2
-13
-1
0
7
12
-5
-2
0
-2
2
-3
-9
-14
0
-4
-10
-53
-4
1
-1
-38
-8
-2
-2
68
2
-1
0
13
-4
2
2
-30
-2
1
5
20
15
1
2
14
2
-1
-4
0
-5
-1
2
-11
-2
-1
-1
-19
-11
-4
-4
-11
-3
-1
7
6
10
-4
-4
-6
0
-1
-11
-6
-19
-2
-2
1
2
-3
-1
-20
-4
-2
-2
21
-3
5
4
-2
2
2
1
-7
1
-1
9
19
2
-1
-6
0
-2
-2
-8
-27
-2
-7
-5
-18
-3
-4
-13
2
3
0
3
30
-1
0
9
-11
1
4
-1
-23
2
2
0
11
-14
0
0
4
1
-8
-18
-22
0
-6
-1
9
-3
1
0
1
1
1
-2
-7
-3
3
4
-4
0
2
-1
0
-2
-1
-5
-4
-8
0
3
4
0
0
7
43
23
6
6
6
-2
-2
-4
-12
-15
-6
2
-20
1
-4
-4
-29
-8
-5
-12
27
-8
0
-5
-26
-1
-2
-5
43
0
-1
7
40
2
-2
1
21
2
-2
-2
-19
-2
-1
3
0
-3
4
10
55
13
3
0
-10
2
-4
-20
-39
-12
-4
-3
-41
-4
2
1
-11
-4
2
-2
10
0
2
6
53
9
0
-3
5
-1
-1
-6
-23
-4
0
5
-19
0
-1
4
33
14
5
2
-7
-2
1
0
-39
2
0
0
-8
1
-3
0
19
-15
-7
-1
0
-2
-1
-1
13
3
0
-1
-8
0
2
-1
-1
4
-1
-1
-6
1
3
8
13
8
4
0
-3
4
-4
-14
-49
-7
-2
-3
3
-1
0
5
29
1
-7
-5
4
1
3
-4
-20
-8
1
4
2
1
-6
-8
-29
-14
-8
-4
-32
-6
-3
8
27
11
-3
-3
20
1
1
-10
-12
-4
-1
3
-4
0
-3
3
-19
-2
2
-2
-11
0
1
0
10
6
-2
0
-5
-3
1
2
-8
-6
-1
-1
-57
3
-5
-5
-11
-7
-5
-1
25
0
-1
9
24
11
0
-1
-9
-1
0
-3
7
-8
-3
-3
18
-1
0
4
39
4
4
5
-4
0
0
3
9
3
2
-2
-18
-2
-1
1
-45
-8
-7
-3
12
-1
2
6
7
-17
-3
0
-7
-1
-2
-4
29
34
0
0
34
1
-1
-2
0
0
-1
1
-8
1
-7
2
11
-4
-1
-6
-15
3
-4
1
6
1
-3
1
34
-1
1
1
-12
-8
-3
1
9
-2
-2
-6
-16
-4
1
1
-5
1
0
1
9
8
1
1
-3
-3
1
9
61
7
2
-2
-13
0
-4
-15
-82
-34
-9
-6
-1
1
-2
-5
-14
10
1
0
-1
-4
2
1
27
6
-1
1
-15
0
-2
-3
-4
-6
1
-3
-2
1
2
3
30
7
0
-2
15
-3
1
5
-7
-3
0
1
-6
0
-1
-6
-10
6
1
1
2
-1
0
-2
-5
-7
-4
-2
0
-2
-1
6
13
14
2
3
-1
-1
-2
-5
-20
-10
-6
-3
-14
0
-1
-2
16
2
-3
-2
4
-3
2
-2
-16
2
2
3
6
1
0
1
7
0
-3
-3
-3
-2
2
6
28
-1
4
-1
5
2
-1
-7
-38
-7
-2
-1
-7
-2
1
-1
-25
3
1
2
0
4
-1
4
24
-5
-2
0
-6
-1
-1
2
18
17
1
2
10
-2
-1
-2
0
-5
0
-2
-2
-2
-2
-8
-20
-12
-5
0
2
0
2
2
-1
6
3
1
1
-1
-3
-6
-21
-5
-7
-1
-2
-2
0
0
27
0
0
-1
-8
-3
-2
-4
-53
-8
0
-6
-11
-2
-1
-2
-8
-4
-3
-1
3
0
-2
1
8
-3
0
-4
-6
0
1
-3
-5
-1
1
-1
0
0
-1
2
24
7
0
-1
0
-2
-2
-3
-12
0
2
-2
-1
0
-1
-4
-11
3
0
1
2
-1
1
4
14
-17
-2
-1
2
0
-3
-4
-4
1
0
0
-4
-1
-1
1
6
6
0
-2
-7
0
-3
-4
-10
-2
-6
-4
-5
-1
-2
0
14
5
-6
-3
2
1
-1
3
11
0
3
2
-2
-1
0
-8
-33
-4
0
0
-1
-2
2
0
15
2
6
0
2
0
0
-3
-20
-5
-3
3
1
-1
0
1
16
1
-2
-4
-4
-1
-2
-1
-11
0
0
1
-2
-2
1
0
-9
-6
-1
-1
-1
0
-1
-2
6
-4
-3
-5
0
-3
0
2
0
4
-1
-1
-1
-1
1
1
3
-4
-4
-2
0
-2
-3
-2
-3
-2
1
1
0
0
0
3
-8
6
-1
0
-2
-1
-1
-5
4
-5
-2
-1
-1
-1
1
-4
10
10
6
2
-1
0
-3
-4
-34
-15
-5
-2
-5
-2
1
-1
6
12
2
-1
1
-1
2
3
7
-7
-4
-1
-1
-1
0
3
-1
4
2
2
1
-1
3
-4
17
-1
-2
-3
0
1
0
-2
-29
-6
-2
-1
-1
-2
-12
-3
7
4
-3
-4
-4
-3
-4
-4
-7
-2
-6
-2
0
-3
9
3
7
1
3
-2
-1
0
-1
-3
8
3
-2
2
0
2
-16
-9
-12
8
7
2
1
-3
1
8
3
-27
-8
-2
-2
-5
-7
-12
2
13
2
-2
-1
-1
21
1
0
0
1
-1
-1
3
8
7
2
7
0
1
0
1
4
0
5
-3
-5
-2
1
2
-27
2
3
-3
-3
0
0
-5
2
-4
-3
-10
0
-1
0
-3
5
4
-5
-3
1
0
0
-1
11
1
-2
3
2
0
1
-1
5
12
2
-4
-2
0
0
3
-17
-7
3
15
-4
-1
-3
-2
-6
-23
-3
-22
-1
-2
-2
1
-7
25
4
5
0
-4
-5
-9
5
-11
-14
-7
0
0
1
0
-5
2
1
-5
0
-2
1
0
5
4
1
9
-3
-1
-1
1
0
-7
-6
5
3
2
2
3
2
2
-12
1
1
1
1
-1
-7
13
32
-5
-3
-3
-4
-4
-15
-22
0
0
-3
2
6
7
13
-4
-20
0
4
1
-1
-3
-13
-10
7
3
-1
-2
1
-3
-22
-11
-16
-6
-1
-1
-1
-6
-1
7
10
2
-4
-7
-5
-7
3
-5
5
-2
-2
-1
-1
0
-11
-3
6
0
-3
2
1
2
5
12
-1
-1
1
-1
2
3
6
11
-1
-2
-4
-1
-2
0
-1
-7
2
2
2
0
0
-1
8
-8
-37
-12
-4
-4
-5
-3
13
-3
11
1
1
2
2
1
-17
1
-11
-1
-1
0
2
-1
32
2
5
-2
-1
-3
4
11
-46
10
15
1
-5
-5
-1
-3
11
-21
-13
-1
0
-1
-15
-8
8
8
-8
-2
3
0
-2
-5
10
4
10
0
0
3
-3
7
6
2
23
1
2
1
5
0
9
1
-4
-4
-4
-1
3
6
-10
2
5
-2
-3
-4
-4
0
6
14
13
3
1
-1
0
-5
-12
-10
8
4
2
2
1
2
-19
1
-50
-7
-4
1
-4
-8
15
-12
-41
-14
-4
1
-2
14
-42
-14
11
-6
-7
-8
6
-6
32
16
1
-3
-3
-3
-10
-27
3
-1
35
9
2
-1
-9
-5
13
16
6
10
4
5
7
0
-10
-2
-35
-8
1
5
-2
-12
-3
-19
10
4
0
3
6
13
-34
-5
-25
-9
-9
-9
-2
-2
14
14
66
5
-2
-4
-11
-17
22
-17
15
4
1
-3
11
42
-40
6
-5
-1
5
1
-24
-1
24
17
35
9
5
3
24
10
45
2
-35
-8
-3
-3
-4
-7
-26
-7
34
3
1
1
0
-11
24
0
-42
-4
-5
-3
-8
10
13
5
13
-3
-1
2
-6
3
8
-3
-51
-4
1
-2
8
4
-52
5
34
5
-5
2
2
2
57
5
-82
-13
-4
1
20
-2
10
-21
49
-18
-11
-7
-40
-9
-6
24
4
20
-1
-1
-4
-4
-63
-38
-36
-4
1
2
-10
-2
37
35
87
11
-2
-10
12
39
22
-9
-64
-10
2
2
10
-9
-39
-33
-15
-5
5
4
-1
1
36
29
56
11
-2
-9
-15
-33
-61
19
-24
-10
0
4
5
14
5
-15
3
1
0
-4
-5
2
5
10
10
-6
-2
-6
-26
-2
26
13
24
15
8
7
40
11
0
-49
-43
-5
-4
4
5
-20
41
90
29
-7
-5
-3
-5
1
-35
-35
-24
-11
1
-5
3
-25
-43
39
29
-1
2
7
-6
20
109
15
40
1
5
1
-9
-1
-74
-114
39
-2
-4
-7
6
-15
-87
53
-18
-6
-9
-2
4
20
22
-24
-49
16
6
2
-13
-4
83
8
-2
-8
-6
-1
2
-15
55
27
27
12
3
1
4
28
79
-23
9
-22
-3
1
4
-30
52
-10
-67
6
-2
-3
-5
4
-59
49
18
6
7
5
2
6
17
18
-34
3
0
-4
2
-13
31
-18
-22
13
-8
-6
4
49
-49
-55
30
-20
-7
-8
-12
-38
10
27
-9
-6
-7
-11
-13
-7
33
-63
26
33
11
15
26
20
-43
-87
-29
-5
9
13
14
22
97
59
24
-2
-12
-12
-8
-28
-37
-50
-40
-21
-4
-1
-4
-8
-20
-26
-37
9
4
3
6
-6
27
-3
-8
18
2
-5
-3
16
-4
-2
-28
-48
0
2
5
14
4
-39
34
37
4
7
1
2
-95
23
-38
-17
0
6
2
2
7
84
21
77
2
-3
5
-8
-110
-17
52
-94
6
8
10
49
-27
41
-25
-18
-14
-6
19
-45
-111
-56
-7
44
23
3
-8
6
80
3
52
-10
-4
-6
-7
-31
-84
-51
-24
41
12
10
1
12
-35
9
19
18
-5
-8
-21
4
7
25
-3
-11
-2
-1
8
1
-52
-21
-6
3
-14
-2
-9
-9
67
15
-22
-39
9
-5
0
8
-37
-84
25
16
7
9
13
41
22
35
-25
-7
-26
-12
3
1
-64
84
10
-22
6
-6
-12
-63
54
-56
-27
0
-3
-2
10
5
-61
83
44
30
-1
-9
-51
-117
82
12
-13
-53
-11
-3
14
22
-23
-20
-2
22
1
7
13
44
-36
-9
-27
-18
-16
-3
15
13
78
-77
0
5
9
4
35
98
53
-38
16
-5
14
-1
-4
-29
50
-32
20
-14
-3
15
5
32
-51
67
14
115
16
-5
-1
-85
-58
-46
-42
-49
3
3
10
54
-66
-51
15
34
-15
-2
-8
-30
-7
36
-5
-24
0
-6
-34
-8
115
79
43
7
5
18
22
63
-75
7
-10
18
3
-8
4
-39
36
97
-43
-53
-12
4
24
39
-119
20
-1
0
1
-5
-9
-1
-66
-33
-4
-43
-18
-15
-36
-49
94
-15
36
48
-8
-5
-3
-27
-45
64
-47
-10
1
-8
-20
-27
86
-53
-18
-10
15
7
31
16
44
74
0
-4
-13
-4
5
25
-42
-23
25
42
-8
-8
-80
-43
-14
-61
5
2
12
-3
-1
17
-60
-82
29
-15
-2
-1
-12
-30
-2
-23
0
45
19
16
30
88
116
122
-51
11
-5
-10
-8
-69
24
-62
-5
-6
4
2
0
0
-61
80
-37
-17
-7
-11
-25
-35
71
-112
46
66
-7
-9
12
27
8
-15
-3
-106
-10
5
27
14
35
16
21
-43
10
-3
-5
75
-21
100
83
-9
0
2
-16
-88
20
20
-128
-56
-38
-9
5
46
12
-120
34
55
-2
-4
5
-7
2
-15
-14
-23
-7
1
1
25
116
71
36
88
17
8
12
32
-70
-59
-26
-101
-13
-11
-36
-49
-128
36
16
-50
-11
1
28
43
35
-37
-42
1
-6
-5
-63
-37
19
-90
-3
45
-7
-1
10
-21
-43
82
27
-4
16
6
-4
-16
47
-43
-72
-19
5
9
-14
-8
21
87
49
42
-15
-15
2
-5
16
-88
-9
-105
-1
-14
-27
-33
-14
-28
-14
82
-5
6
-3
-45
76
71
-25
-120
18
8
41
45
-14
-39
33
55
-6
-1
-7
-3
-37
-97
-67
-29
2
10
25
75
108
22
-25
-31
3
9
6
118
16
20
-17
111
-3
-3
-19
-73
40
41
57
-77
-7
-4
14
-39
61
100
-60
-57
4
-5
7
59
-58
-58
62
-26
-1
0
-18
-32
-19
-25
-80
-17
5
8
-4
77
100
9
13
2
8
6
36
4
-33
-16
26
38
-28
-23
-36
-44
27
-39
1
5
7
-8
-8
-11
-19
-5
46
25
3
6
-21
2
-128
52
-36
1
-10
4
29
-13
127
58
66
84
-3
-5
17
39
-27
-48
-32
-80
-11
-4
-17
-11
2
-121
46
9
15
-4
-12
23
41
15
10
83
13
-9
-14
2
-41
43
55
61
7
8
12
-101
36
24
-7
-53
5
0
-23
-16
-84
7
-21
17
-15
3
3
90
-109
-68
36
-20
-24
-11
-20
-70
9
-81
-13
-70
-9
-14
-25
-44
-44
-33
-41
75
4
-9
14
13
-88
104
62
-34
-1
-4
-28
-88
-13
-14
15
54
9
16
13
30
18
-79
-36
51
0
11
3
35
-68
-44
26
22
3
-6
-13
-86
-23
-41
-31
24
-4
0
6
61
14
42
11
25
10
-16
-31
-8
-6
-36
0
-6
15
8
29
-5
-16
90
-10
100
24
5
6
6
123
-77
15
-82
-3
13
11
7
-14
60
-39
10
5
3
11
45
-9
-50
8
55
-2
2
-5
-1
-64
19
-44
-10
-15
1
10
77
25
51
52
92
5
-13
-10
-108
86
73
-58
-11
11
21
26
127
29
37
-13
-99
-15
-17
-32
-84
-25
-16
42
109
16
-8
-12
-32
-113
13
-2
-79
13
5
5
14
63
-29
15
-44
-22
3
38
60
34
-46
-37
-20
-3
9
-4
74
24
-1
12
-22
-19
-15
-24
-119
-7
29
-2
-37
7
-2
15
-22
-41
-57
-22
24
14
-1
-25
-17
-38
-41
19
49
-7
4
23
43
-1
3
24
-48
11
7
46
25
96
-26
-43
47
-9
-3
19
22
36
91
61
-1
12
5
-20
18
-99
8
-61
-56
-28
-15
24
6
11
2
18
-51
14
9
-19
-38
64
34
-9
41
-2
-4
-6
42
-91
-65
-3
4
1
-5
-16
-33
-75
27
38
-39
4
0
29
-25
99
-29
40
12
-10
-9
-13
-7
60
37
-16
-75
6
10
8
49
-33
-33
18
84
-26
-15
-20
-83
84
23
-73
-91
-14
7
-3
86
47
-39
9
-78
2
5
1
-44
-88
64
-12
65
-13
-10
44
65
-55
-66
-50
-35
0
0
5
-35
-8
46
-1
13
-1
-6
-29
-36
-25
-4
14
55
3
12
20
-30
16
-12
9
-92
-15
-4
-18
-56
-7
-32
-17
-12
7
-3
6
-19
6
16
7
-15
4
5
20
25
-23
14
-57
-1
-1
-5
-24
110
47
1
14
43
-1
3
-24
-82
107
0
13
-42
-12
-6
2
17
-60
86
5
96
17
-2
-11
-27
-25
124
5
83
-29
-4
16
122
-56
7
38
39
18
18
-17
-96
56
-54
-33
66
16
-2
43
79
-59
-14
77
-59
-9
-2
-44
-91
-7
-83
-60
23
2
3
27
7
-109
-43
-48
-13
-15
-15
-4
-17
41
56
15
-6
-15
6
-7
23
56
34
-12
54
32
17
27
117
-86
109
73
-76
-1
-14
-50
-128
38
-90
-51
78
14
13
24
94
-11
85
71
-81
-8
-11
-19
-128
117
45
-15
9
-36
-13
20
108
-33
-56
11
-36
6
-7
-15
-87
-25
6
-2
43
-12
-11
-12
22
-120
-31
-66
43
22
14
-8
-5
26
-28
32
-59
36
14
26
72
-35
-82
-4
50
-15
7
17
60
49
47
17
-87
-14
-8
-1
-23
14
-27
-14
-23
7
8
-25
-8
-77
-56
-59
-29
-3
13
-11
-28
104
-53
-52
35
3
-12
-15
95
-49
-98
69
97
18
-9
-1
-50
92
-97
-8
-70
4
0
10
77
-77
28
18
5
-14
-12
-27
-50
-14
60
38
-94
-30
-17
-18
-32
80
-13
-18
12
24
12
-5
38
8
-23
38
105
10
-5
-14
-80
-83
-128
-10
-38
-20
-13
17
49
5
16
-68
-31
16
17
6
29
46
-36
74
1
-34
-12
8
-2
-118
35
9
1
-3
4
30
-41
122
40
-51
20
15
4
-17
36
49
91
28
31
-6
11
1
-10
-68
-15
-43
-115
-13
-18
-3
14
-84
11
-47
48
-32
-13
-33
-36
102
50
68
33
-3
-8
-5
-38
13
9
17
-36
16
8
37
35
19
86
-66
19
4
16
22
87
-48
-74
22
-14
-25
-28
-12
-49
-119
-43
25
105
28
19
-3
-44
55
-99
-32
-56
-15
0
29
47
-54
-9
61
30
-19
-16
5
-1
120
11
-10
-87
-9
-4
-8
-34
-72
-42
-22
101
17
2
9
5
93
-29
-34
19
-5
6
12
30
-60
-4
1
-11
5
-2
-8
-11
69
57
8
49
2
6
4
1
-4
-11
2
-60
-15
4
14
34
-51
79
33
62
6
-9
-20
-49
-61
-55
-31
-17
-16
-10
-2
13
48
58
16
35
16
10
-9
13
1
75
26
-17
-7
-10
-29
46
61
-7
31
-13
2
-6
21
-29
45
-21
-38
-25
13
7
34
45
-117
-10
16
24
5
-7
4
22
-16
-22
-28
10
5
7
27
-74
26
-61
-24
-51
27
4
-28
-27
-18
2
77
22
-1
-6
-1
-4
20
59
-20
52
5
4
0
42
100
-27
1
-25
-22
-8
27
12
34
17
-55
-9
16
9
20
15
-17
61
14
76
1
19
-15
-17
68
-7
-12
-72
-26
-2
15
64
30
-19
25
82
24
-3
-6
-24
-51
-35
-11
-52
-16
-14
-4
3
93
18
4
-78
-9
20
-21
29
-121
1
-6
-51
-10
-10
-8
-4
-30
-46
5
-7
-2
-9
1
8
-59
92
42
126
-12
4
-22
18
-103
-43
-91
-69
-2
-6
-27
-76
69
5
-2
-4
29
18
27
44
-79
-44
-48
70
29
11
-6
88
-37
62
61
-93
-22
-26
-57
-126
-65
0
7
-46
12
-9
7
-31
8
-78
-3
4
13
22
18
39
-59
-30
-68
-1
-31
-10
-2
42
-21
103
-21
-25
70
35
78
67
-24
-38
13
43
-37
-27
-50
-68
-66
77
61
5
6
-14
-29
-65
-68
5
19
-37
25
-8
-34
-105
-23
-42
-57
110
-27
1
34
54
127
-12
-28
-3
4
4
36
102
-9
-68
-10
-104
7
-2
25
54
33
-55
14
60
-24
-9
-71
-94
18
-41
1
-77
14
-1
0
-37
28
26
25
22
49
10
9
43
6
-73
-38
-24
-10
13
-21
-27
49
43
7
-4
-7
-9
-5
29
-56
-47
16
104
-40
-22
-43
-12
-35
63
-6
51
-9
22
2
-38
82
48
4
40
-1
-25
41
83
-39
28
61
-76
4
-1
-26
-5
-19
-29
-37
38
-11
8
-15
-41
9
-51
-27
-54
2
-7
14
65
-111
94
29
65
-14
-5
-8
-3
36
13
47
-2
-11
-1
49
-71
-55
22
24
48
-2
-10
-1
-6
-34
-73
-25
-26
1
13
27
93
-28
-57
-33
-76
-11
2
6
-14
0
47
-5
-54
8
-15
-76
-90
-34
-62
-15
91
16
9
-10
54
65
127
29
53
-11
-9
9
-33
22
31
-10
71
-36
-15
-24
26
91
-36
-29
80
12
2
27
30
20
37
3
-25
-2
10
-4
42
0
80
17
17
30
19
-2
-113
63
-48
-6
74
20
13
45
81
39
63
17
2
1
-8
-35
-2
-84
43
70
-50
-18
-7
8
-26
118
-95
8
16
-6
-9
-2
39
-64
99
16
9
-8
4
-21
-28
-23
59
2
-17
-5
13
92
82
14
-5
-37
-23
15
-17
-14
-17
19
110
51
78
-19
-13
-28
34
43
-24
-70
-69
7
3
-11
-60
-51
-6
-42
-39
-22
2
8
102
127
50
-38
35
-3
13
45
-6
-17
-103
-7
7
13
-13
-21
-42
-4
-28
-34
-64
-3
8
-23
-9
115
20
29
91
-1
22
30
19
0
-45
-53
-43
18
-7
-52
84
66
68
-4
32
17
10
31
-4
57
88
93
-19
-2
-11
-23
-76
-1
-76
-40
-72
4
-1
15
68
-12
-8
30
-80
5
14
-13
-24
7
-61
-34
105
-12
11
30
85
-73
36
-46
-53
-12
-17
21
47
53
30
28
-78
-15
-13
-24
-27
63
-5
-67
91
-1
-5
6
-12
-68
-86
-38
-6
-27
3
5
51
-98
-67
-11
-69
1
-12
-13
6
-28
-28
-13
56
-2
-6
-31
-106
23
-27
24
34
12
8
28
-69
-44
-43
5
-56
-18
-11
-3
-51
-58
-68
-20
85
37
14
21
111
-54
95
41
53
-4
-8
-1
-73
88
-49
15
-25
-49
-11
-53
13
-53
40
2
40
30
21
14
15
-20
69
112
107
-9
-10
17
-92
38
-12
13
-104
-16
15
-13
127
67
-23
20
-2
17
-24
14
-52
-38
65
13
-3
9
0
-27
-67
88
-74
-55
14
18
36
-12
36
6
44
9
104
-54
-26
19
78
-24
37
19
-112
26
8
-2
7
116
4
-1
-53
40
-7
-17
-2
38
-10
28
-49
-2
-12
-22
-75
-44
-35
-72
47
26
28
24
20
23
44
7
-38
-9
-7
-17
106
-35
55
28
58
-31
-14
-28
-72
-5
57
-69
-69
-20
14
63
115
40
-7
74
-128
22
-23
-70
-113
-17
-32
-42
127
-10
19
53
110
56
8
79
-77
-3
-5
-41
-17
18
-13
8
59
-10
-4
-38
80
-44
76
-71
48
-16
1
55
-71
-60
-40
-7
-60
-2
4
6
-4
32
-37
-18
-74
-8
-9
-3
-16
-14
11
10
49
3
-10
27
13
0
52
-32
-68
3
0
6
70
-32
14
21
-16
-9
-5
-49
-91
-26
-21
-22
-9
3
0
24
0
18
-37
1
19
-22
-9
-12
-27
9
-14
7
90
-11
3
-12
-19
-18
-18
10
-2
7
16
31
22
13
-24
-5
24
-3
-3
-4
39
-30
-88
-49
-44
-2
-4
-41
-60
-28
-59
61
39
1
-9
19
-13
-6
0
-8
-47
-6
-4
2
5
-18
20
0
0
-11
-3
8
6
-8
21
-28
19
0
5
19
-27
-37
-41
15
-41
6
-8
-37
-50
14
-2
11
-4
-9
-18
20
-1
-32
8
1
-12
5
2
-12
7
6
0
36
-8
5
6
-11
-43
4
-27
-29
-33
6
4
-79
63
-12
-7
30
23
-8
-7
69
-14
-14
-30
-14
7
-7
-7
-6
-24
31
-24
8
-3
6
4
1
-33
-6
-33
-30
-12
9
5
10
-12
0
-77
-9
56
-10
-7
-40
-3
-11
67
15
-69
9
-7
3
-9
0
9
-40
-45
-5
-8
-24
-5
1
-32
-10
-17
8
5
-19
-19
-33
-40
-25
-19
-10
-2
25
-7
-14
0
1
11
-10
0
1
-11
20
3
25
45
0
-6
-7
9
-13
20
1
6
-1
-1
10
8
-9
19
35
12
12
3
-16
-5
-6
-21
-26
2
-1
1
-24
5
1
4
21
13
3
6
10
-3
0
-22
6
7
-8
-22
56
11
-15
11
35
-2
-7
-3
-42
-15
1
-28
-59
1
-2
-3
39
8
18
-16
39
10
13
4
-74
24
-29
-41
-38
-7
-1
4
111
-49
-11
6
16
6
2
-5
-60
9
-5
5
-9
-2
-5
10
28
-17
-22
25
1
6
2
7
3
5
28
-39
28
-5
0
-15
-51
1
10
-4
-3
9
0
1
15
36
-38
-17
-33
-8
-6
-13
-21
-29
25
10
-5
-2
-1
-10
36
-22
-7
4
17
9
7
7
11
19
-3
8
4
0
0
3
8
-12
4
-2
49
10
-3
1
-25
7
-7
14
-26
-7
-6
-5
-13
32
1
32
-29
6
2
4
29
-37
-1
15
-7
0
-3
0
-18
0
0
-7
0
2
-4
-6
-3
10
-7
1
10
1
1
-5
-5
-10
14
-2
-21
-2
4
14
-7
27
-8
-3
3
3
1
2
-1
-9
16
8
-26
8
1
-3
-35
3
-31
-8
-12
0
-6
-12
42
-16
8
24
-1
-7
-11
-2
4
14
-16
38
33
15
2
6
28
-24
17
26
-7
-8
-3
-3
-9
11
13
24
24
9
5
7
-12
-10
-7
17
-11
-4
0
2
-18
12
0
19
29
16
6
0
-12
1
7
3
25
-4
5
-2
-31
3
2
-1
-18
-20
-9
-6
34
-15
-10
-7
47
22
2
6
4
16
-21
-50
-97
-27
-9
-6
10
30
2
-20
30
8
-2
-5
1
-6
-8
-40
-6
-4
0
-3
-1
-8
31
-17
26
1
-2
-5
-27
16
4
8
-10
4
2
9
32
-10
-7
16
10
7
1
0
-2
3
-1
25
24
0
7
2
7
-11
15
11
1
-5
-9
4
28
22
-29
17
-7
-3
2
-6
-95
3
5
-4
-111
-24
-10
6
112
-9
5
34
72
-5
9
14
-36
-7
-30
-41
-86
-3
-16
-34
-25
-8
-7
-6
-16
2
-4
-12
5
-10
13
-6
28
1
-1
0
1
5
7
7
21
18
5
10
4
14
0
9
-28
-9
5
12
-6
10
0
14
21
11
7
1
6
-50
-20
-7
-12
-7
-3
-3
-22
5
25
-13
-14
9
-4
-3
16
-18
-22
-16
39
12
8
0
-17
21
8
-51
-96
-49
-13
-12
4
-6
0
8
16
8
4
3
-6
6
-21
-27
32
-33
-19
-4
-47
-13
12
52
-8
17
17
-1
23
-9
-53
15
78
10
-10
1
12
13
14
10
-27
-8
-5
-9
6
-9
7
8
-24
-7
0
-7
10
14
-6
15
52
-2
2
22
7
-11
16
17
8
28
6
-4
14
6
-8
1
-63
-14
7
6
4
2
-2
-4
62
22
-4
-10
-16
-2
-3
13
58
-8
2
2
-18
-4
19
-24
-75
-21
-9
-1
3
-4
-13
-1
31
2
4
5
-3
-1
22
1
-60
-1
2
-12
-20
17
-1
-6
20
-9
1
14
34
-48
27
7
29
-9
-10
-14
-73
-17
-10
-5
-20
1
1
1
19
20
-30
-5
65
28
5
0
-60
-23
23
-7
-89
-8
-4
-5
62
8
23
10
99
5
6
17
-15
-8
2
-2
-16
1
-7
-10
12
11
-12
2
-7
31
8
0
3
17
-18
-17
-36
-36
-10
-10
-16
-1
8
4
19
-11
5
7
12
4
-2
-11
57
-4
-6
-4
-12
-6
3
7
16
-3
-2
-4
23
0
-1
-4
45
13
1
-2
-37
2
-4
8
-47
-11
-4
-1
33
10
5
10
42
1
2
0
-19
-8
3
-9
-90
-23
-1
1
-16
-3
2
6
58
25
5
3
9
-1
-1
-12
-64
-12
-4
-4
-10
-3
-14
1
15
13
-6
-9
-73
-2
-1
-2
-17
-5
-4
1
86
-2
-4
-9
-48
-21
3
-5
-24
7
-5
-1
-34
-7
-7
-4
27
4
6
5
-4
10
3
3
1
0
-9
-5
-2
-24
-6
5
0
-43
26
-16
-68
25
-6
-5
-19
-2
-5
6
-5
4
4
-4
-36
10
0
-8
22
1
-2
8
66
-13
14
2
22
-4
4
-5
1
10
-13
-1
-31
-4
-4
2
-6
4
3
3
-25
1
4
1
-24
-6
5
-1
-11
5
1
0
25
10
-11
-2
-21
-10
1
-2
-13
9
-9
1
38
-12
-5
-3
-61
-9
0
-20
-26
-4
-8
-4
70
5
-37
-15
-73
1
-8
-6
-25
-8
8
-3
48
-8
-1
1
-19
8
-7
1
14
-8
0
-3
6
-2
4
-4
48
0
2
5
36
-1
1
13
4
-11
2
6
20
-1
18
-6
-38
-1
3
-4
-15
-2
-8
3
57
14
-3
-6
-13
15
6
8
-29
2
7
2
-5
3
-9
-1
39
12
-1
-2
10
-1
-1
1
6
7
-2
-1
-34
6
-7
-1
1
6
7
7
5
-7
5
2
-4
11
2
2
22
3
6
3
97
-19
2
-3
-34
-3
-11
-13
-99
14
-7
-4
-22
38
-4
1
2
0
-2
-5
19
-22
-8
1
7
0
-3
-1
3
1
6
-3
-24
11
5
6
13
0
-3
1
1
-8
0
2
3
0
4
-9
-45
-13
-2
-2
19
6
-6
-4
1
10
-3
-1
-43
2
5
5
48
-5
2
-11
-75
2
2
-1
-13
10
-2
2
92
-12
-3
0
23
-4
-5
-2
-25
5
2
13
23
-5
4
1
-19
-15
-6
-15
-55
7
-4
0
8
5
-4
5
3
-5
-1
-1
-8
-7
1
0
-22
-6
-3
-1
12
2
1
8
38
2
2
1
-18
8
4
-6
-6
1
-3
-1
19
-6
-6
-1
24
2
-5
-7
-16
-5
8
14
3
-14
9
6
13
6
-10
-7
58
37
-11
-7
-9
-6
2
3
-43
1
5
0
-3
0
-2
-7
19
-14
-3
3
15
-7
-1
-9
-5
7
-4
-7
-73
1
4
5
-4
-1
5
5
44
3
0
-1
-21
-20
-5
-1
24
-8
-4
-1
15
12
5
4
10
3
14
1
25
0
-1
-2
-23
0
-10
-6
-50
-20
-7
-2
-31
0
-1
-5
-20
14
2
2
35
-5
-6
-11
72
-25
-7
-9
-37
-4
-2
0
-8
9
-5
5
39
3
1
0
18
-2
-4
-13
2
0
0
1
10
-11
-1
1
-14
0
2
4
-13
2
3
6
2
-6
-3
-5
37
12
-3
-1
-6
1
-2
-4
37
0
-2
-2
-3
1
2
0
8
-6
0
0
3
3
0
-5
-53
-4
-6
-4
3
-4
-2
8
16
12
3
4
4
-3
-4
-11
4
-13
-4
-3
9
-4
3
5
3
1
1
-2
-10
1
0
-1
28
24
6
5
15
1
-5
-1
-18
-18
-2
-3
10
-3
2
-3
-69
-24
-1
1
-36
4
3
7
41
4
1
3
19
0
-3
-12
-53
-23
-10
-7
-27
-2
-7
2
-17
0
-2
-3
29
1
3
7
41
8
5
4
-14
2
0
-5
-49
-16
-2
-3
-3
-5
5
3
3
13
1
-2
-6
2
0
-3
-14
-7
-1
2
-5
3
0
1
17
-1
-3
-1
7
-5
5
-2
19
6
1
2
7
5
5
1
6
5
-1
-4
-28
-7
-21
-17
-53
-8
-4
-1
63
1
0
5
35
17
4
0
6
-3
-4
-7
-25
-1
-1
-1
-16
0
4
8
-1
-4
0
3
9
2
4
0
27
0
0
-2
-20
1
0
2
12
7
6
2
15
1
-2
-7
43
6
-2
-2
-16
-1
-5
-6
-34
-16
-4
-1
15
-3
7
6
-8
6
2
-2
-23
1
-5
-16
-42
-11
-9
-3
20
2
-1
5
-14
4
0
-2
-19
-4
-1
1
12
9
5
3
26
-1
-2
-4
-17
-3
-3
-2
1
-6
0
0
-3
1
0
-1
-6
-2
0
-6
7
5
0
-1
3
-3
-2
-1
-40
-13
-2
-2
-9
-3
0
0
21
1
-2
0
12
0
3
6
-16
14
5
1
9
1
-7
-7
-29
-24
-8
-5
-12
-1
0
0
45
15
5
2
4
1
0
-9
-50
-18
-5
0
-12
-2
-2
8
22
4
2
-7
3
0
-1
-1
17
-5
-3
1
22
-3
-2
2
-3
0
3
4
-24
1
2
5
21
-7
3
1
0
-2
-8
-12
-21
8
-9
-7
-14
-11
-1
2
-19
-5
2
-2
-11
10
-2
-1
24
-2
-5
-4
18
-2
-1
1
2
3
1
2
-7
2
1
-4
-24
-10
2
1
8
-4
1
7
37
22
-3
-8
-4
-2
-6
-12
-36
-15
-5
0
12
2
-4
3
-9
6
0
-2
-4
-3
2
1
20
-5
3
4
9
3
3
-3
-4
2
0
0
-12
-2
-4
-1
-7
-9
-5
-6
-3
-1
0
2
27
5
-1
-5
-1
-3
1
-3
-11
-3
-1
0
-12
3
-2
-2
-23
-7
-3
0
8
0
0
2
16
9
5
0
0
-3
-3
-12
-20
1
0
-2
-11
-2
-1
-4
-16
-4
1
1
4
2
-5
1
-1
-9
-2
1
2
-1
9
16
1
10
0
1
1
1
-6
-21
-25
-12
-5
-6
-8
5
1
5
20
6
1
1
-1
-7
-2
3
3
8
-3
-1
6
-4
-2
-2
-8
7
-2
2
6
1
-1
5
10
-2
-2
0
-3
-4
1
-3
3
-2
0
-1
2
3
-3
6
11
1
2
2
-3
1
6
-5
22
-9
-3
0
-5
-2
0
1
-12
-5
-3
-1
-1
0
-4
-5
-16
-13
-3
-5
2
1
1
-1
27
10
2
0
-7
0
0
-1
-6
3
0
0
2
4
0
0
4
-5
0
2
2
-4
1
2
7
11
1
-1
-6
-1
3
0
-18
-2
1
-2
-1
3
-2
-2
-1
-3
-3
1
6
-2
2
8
44
11
3
-2
-8
0
-2
1
-21
-5
-2
1
-1
-2
-2
-3
5
-4
-3
-1
0
-2
-1
-2
-5
0
-3
-2
-1
-1
-3
-3
-5
-3
-4
-1
2
0
7
3
-3
1
-1
2
2
1
-6
-4
6
-4
-4
-1
-3
-1
-2
2
4
-1
0
-3
-9
-3
-1
1
13
-4
0
0
1
-2
-5
-8
-12
-4
-2
-1
-2
0
4
6
2
4
1
0
1
0
-3
1
-5
-6
-2
-3
-4
0
0
1
6
8
4
2
1
0
1
0
-4
6
0
-2
5
0
6
-1
5
-11
-5
-3
-4
-1
-18
1
12
9
0
-1
-1
-2
5
2
-9
-8
0
0
-1
-5
-4
-1
19
5
2
3
-3
0
-1
-5
7
6
-1
-2
0
1
19
-5
-9
-1
-6
-2
-3
-1
5
15
-7
-4
-4
-2
-1
-1
-32
-8
-5
-5
2
1
0
-6
3
-14
11
-5
-3
-1
-1
-2
2
1
-14
1
0
-2
-2
-1
1
-6
2
5
2
2
0
1
11
10
-3
-5
-6
-2
-1
-1
0
-2
8
7
-1
-2
1
0
-11
2
9
12
0
0
-5
-4
-4
0
-5
-8
-2
-1
-4
-2
2
-3
-7
-5
-1
-1
1
1
1
1
-6
1
5
6
0
1
-3
-1
1
-3
-4
-2
-3
-1
-38
-21
3
8
4
1
3
6
4
-15
2
-1
4
0
-1
-6
-13
10
2
-4
-7
-7
-4
-7
6
-4
3
-10
7
0
-2
-2
5
18
-1
4
0
0
0
-1
27
-9
-3
-1
-5
-2
-1
5
-2
2
3
9
0
1
2
4
-34
20
0
2
1
2
1
0
-2
-7
-14
-2
-4
-2
-2
-8
2
-24
8
0
-3
-1
-2
-4
10
6
-5
-8
0
-1
0
-1
25
7
-10
-6
1
-1
0
-1
10
4
1
0
1
0
0
2
-13
10
-1
1
-1
1
-2
1
7
-8
-1
5
-3
-2
1
-6
-8
0
0
-7
-1
0
2
0
2
-13
-7
7
-1
-3
-2
-4
28
4
1
-8
4
3
3
3
15
46
-4
0
-1
2
2
5
-40
-33
-3
1
-1
3
1
-2
-39
-43
2
-4
-5
-6
-6
-10
6
2
26
-3
-8
-7
-1
6
26
-12
-8
-2
4
3
-5
-3
12
88
0
1
-2
-5
-6
-10
-5
-17
-1
-2
-1
3
-2
-3
-16
-5
-11
0
-3
-5
-1
-2
-14
-7
-1
-2
1
4
5
6
13
-4
-2
-2
-2
0
-3
7
-3
11
5
-1
-7
-6
-2
-3
0
-6
1
1
0
1
-2
-6
-7
-11
-9
0
0
-1
-31
0
16
-16
-8
-4
0
-1
23
-3
-8
17
2
1
1
1
10
15
4
21
-7
1
-7
1
3
-7
4
-21
1
-8
4
-4
-14
-8
-11
-29
1
4
3
3
4
-3
6
8
12
0
-2
-3
-1
-2
9
-1
-16
-2
-3
2
3
-2
-68
-11
3
-2
-6
-6
-1
-2
34
-14
-4
1
2
-2
-8
4
17
-4
-17
-6
0
1
5
-3
9
3
18
15
1
-3
-6
-4
1
4
-50
-22
-6
-2
4
-9
-12
-3
22
6
1
-4
0
5
38
6
-7
1
0
1
-3
0
-45
-2
2
-5
-2
1
-2
9
-1
-3
9
5
5
1
3
-22
1
-10
-17
-6
-6
-6
-11
-3
27
14
10
-3
-3
-3
-9
11
-41
2
7
-2
-6
-6
9
-3
17
14
22
5
4
1
13
-6
-42
-28
12
0
4
3
-3
-5
10
-6
-37
-2
-2
-7
-17
-2
30
30
-5
-3
0
-1
19
12
-59
2
-27
-6
-6
-1
3
1
37
-4
19
-3
-7
-3
-3
3
-37
-19
-6
6
5
2
16
-4
8
2
13
4
4
1
-6
-5
31
-2
-9
-8
-3
1
-4
-1
4
13
-11
2
3
0
8
16
-9
2
27
-2
-3
2
-8
12
-2
20
-10
-3
-1
-4
-9
-53
-2
-18
0
6
3
4
12
7
-14
-36
-6
1
0
2
-13
-11
23
16
-13
-7
-3
-3
-3
-3
-26
3
7
8
4
2
-11
13
24
6
38
5
-1
-4
10
10
-14
9
-27
0
-1
4
1
-5
-11
-3
45
6
2
-3
-2
-13
-3
-21
-54
-18
0
3
16
20
32
3
-30
-8
-7
-10
-28
3
-37
-5
18
0
0
3
5
1
-10
44
49
15
4
5
5
-2
22
-49
-22
-7
-9
-7
-13
5
4
-17
11
-10
-6
-5
6
-15
24
-3
-17
-18
-4
-3
3
0
-27
33
-38
2
-2
-2
-8
-4
-12
-20
-12
-9
-4
-1
-3
4
32
37
30
18
5
0
1
17
-1
-77
-35
-10
-5
-6
-2
-8
13
0
-25
13
2
3
2
-2
76
17
54
7
0
-9
-6
4
-87
-74
-10
-12
-4
-4
-9
-15
18
58
-21
19
9
15
25
72
-33
-27
6
-13
-4
-1
0
-21
28
12
23
23
-1
-10
5
-44
-48
3
-21
1
7
4
5
-8
-14
22
53
17
1
-6
-7
-16
-61
-4
-9
-22
-9
1
11
27
-42
-20
-26
7
4
11
13
35
68
70
8
-5
-2
-3
-15
-3
-58
-19
44
12
5
3
0
25
108
70
-1
18
7
-4
-5
-14
27
-52
-6
-26
-10
-4
-13
-6
13
41
0
-1
0
8
12
22
53
-64
-74
4
-12
-9
-13
-16
62
24
5
-25
4
-4
-14
0
-47
-28
-12
5
0
6
-2
47
57
52
36
33
7
-3
2
-50
-20
-30
48
-20
6
4
3
-29
38
-40
18
32
5
-2
-13
-19
21
-51
-45
-39
-8
-7
-6
2
42
-35
-8
-2
-8
7
6
28
-44
-7
21
58
8
-7
4
-1
6
16
7
-25
-25
-10
-5
5
28
76
-10
-20
29
9
14
19
16
-3
-2
19
-7
-2
-6
-10
-97
79
7
3
2
-3
9
19
-33
-91
-39
-28
-13
-2
-12
-41
-18
25
31
-6
5
-8
-7
41
54
117
-15
14
9
8
1
6
42
-19
-1
-53
7
-10
-51
-110
-1
-21
-19
95
5
11
35
49
-63
103
22
-73
-30
-4
-13
-8
-44
-93
-42
-28
23
13
22
96
14
83
-33
-50
-36
-25
-29
-76
11
3
-10
51
12
1
15
20
-29
-87
9
-1
-19
-3
-22
-53
26
-85
-2
69
21
13
2
60
115
92
-14
-25
-7
-4
0
11
-94
20
17
-44
0
-3
-5
22
25
69
26
64
-6
0
4
-66
-9
-106
-26
-71
-20
-9
-1
-25
-50
-105
-85
39
-6
-1
22
52
-22
-44
-12
25
21
8
-6
-52
46
25
-31
-11
5
7
-8
57
-106
63
74
-18
-18
-18
-2
-112
110
-85
4
-41
7
-3
-12
51
90
30
-4
33
-5
-9
15
10
-91
-40
3
-25
7
15
14
-49
16
29
-27
11
-21
-21
-13
23
-78
4
74
29
-19
2
3
70
15
-35
17
-122
1
-5
15
-47
30
36
-30
18
-2
-8
-15
-83
72
-61
1
29
-3
-8
-22
19
90
78
-11
-58
8
18
40
61
-93
96
62
38
5
10
-35
66
23
7
6
41
5
-2
11
13
4
-79
-35
-34
-3
-4
0
14
-1
78
26
64
0
-12
-24
-81
52
-50
-11
35
-27
-7
2
3
63
-58
-27
-44
25
14
20
59
42
4
17
-59
-11
3
-24
-1
1
-43
-52
-31
-10
-7
8
18
89
-62
-2
59
29
18
6
-14
-11
-22
-23
-65
-45
-35
-25
-71
-41
-79
-12
81
9
5
20
-18
69
41
-27
-70
-24
-5
-16
20
3
95
51
44
29
12
34
67
-14
-38
-58
-16
10
4
-16
47
-77
65
-42
44
1
6
-2
66
71
8
47
65
3
6
27
-61
-21
71
-68
-103
-4
-2
6
79
-33
2
35
11
-5
-14
15
-46
-88
-47
59
17
-1
-5
15
-49
-1
-39
-11
60
19
25
1
17
-33
34
-19
-12
-15
-16
-25
-17
-42
86
45
22
-8
0
50
59
90
-42
-4
8
31
13
-12
-23
-92
-123
35
10
-16
2
-18
-69
79
5
-38
43
27
17
-4
19
-23
-12
3
-25
5
4
-11
-31
18
23
-21
63
3
9
37
79
-97
102
83
-18
20
-3
-17
-78
-10
-35
-19
39
-8
4
6
0
-11
-93
22
49
6
5
0
9
-65
72
39
-102
-11
-4
-25
-13
-16
36
-58
77
7
9
67
102
-5
-16
43
-128
-13
-17
-61
-68
14
36
30
58
19
1
-4
4
43
39
-14
13
5
-2
3
-79
-63
-17
-25
-34
-16
-3
-19
72
-98
42
32
-42
-31
3
-10
-82
89
-45
-32
28
-9
-4
0
-24
85
-2
26
-66
2
-5
3
52
55
-31
-19
50
17
10
32
22
-33
-25
-8
76
-14
-14
-3
32
-34
-58
-29
-77
41
12
-63
32
-128
21
57
-80
-41
-27
9
-109
40
-57
-19
34
5
7
-6
-32
75
-101
-2
-20
-14
-5
21
85
77
-36
-42
43
-17
3
21
71
-55
-20
-50
46
25
9
33
31
69
77
55
12
8
-8
-57
-29
-64
11
-3
-76
-13
2
39
-22
79
17
22
48
3
-3
11
32
-12
-36
-8
61
-2
16
1
25
-16
-5
33
46
-8
-18
-3
-51
59
-101
-41
-17
4
1
0
-3
87
65
63
58
-3
-13
12
68
73
-17
-26
-58
-4
3
-22
-78
-54
-91
55
11
19
6
3
17
-109
46
-32
2
6
4
11
54
57
112
60
-34
-45
-37
-33
-90
1
14
26
92
-17
-3
10
-18
60
11
-96
-127
41
10
-10
57
-36
27
67
63
-1
-14
6
-111
-78
-29
-62
89
16
19
39
111
-9
127
37
-49
-3
-5
-33
18
-65
-125
-41
-94
-27
-21
-20
-53
-13
-35
9
-6
6
6
5
59
-56
-29
-8
19
-22
7
29
-19
9
16
-4
37
33
20
-12
-56
5
-9
48
48
-13
-6
-16
-56
3
-86
-75
-39
-11
-1
-35
-28
-91
-33
47
9
-4
1
18
3
-14
8
22
-63
1
1
19
7
-51
32
-58
37
7
1
-30
21
37
-27
-6
54
-35
-18
7
-56
-73
-1
5
-98
4
6
-37
-82
3
-48
-7
85
10
0
-5
51
49
92
-15
-60
-10
0
34
27
6
87
-1
2
0
1
-4
89
18
60
7
-97
-5
-5
-2
-90
24
-2
-7
25
4
-16
-15
-33
1
3
56
36
-6
9
18
36
-37
-22
17
-12
50
23
14
33
7
-18
-21
-10
-16
-24
-30
19
4
75
-8
36
-1
3
-4
-17
-63
-3
-72
-62
-33
-12
12
4
-82
-47
73
40
11
0
-20
-54
33
5
-22
16
-5
6
-6
53
63
-61
40
-95
-42
-31
-8
-60
36
-3
-45
9
10
-4
6
12
37
19
7
32
-4
-2
5
-27
-32
11
-20
-25
56
25
-6
12
-80
17
1
75
-41
-15
-12
27
64
73
47
-106
-29
-12
39
67
89
-42
-26
65
-46
-17
-27
-68
77
44
27
-14
40
7
11
-43
127
37
-44
2
13
9
6
58
-49
-65
22
59
19
12
-1
-31
-74
-21
-30
3
-10
-24
-9
-6
38
-62
4
72
-28
9
10
22
-65
-108
7
-72
-14
-13
-18
-75
24
55
38
49
10
5
3
3
62
-5
2
-128
9
11
8
47
-99
-50
-19
6
-15
-16
-17
-33
-78
6
-6
10
19
24
53
31
6
21
-49
62
-7
-9
-22
-1
127
29
16
-41
-5
0
-1
-9
-102
15
-5
-64
-3
3
8
24
86
41
-20
-22
5
-5
-36
68
-53
10
33
-45
-9
-7
11
-76
-8
52
18
23
12
3
1
-21
10
-7
-21
114
-8
-11
2
-16
-8
-14
-31
-77
15
15
-3
61
37
-81
-18
113
-3
3
-8
-13
-54
-11
0
-50
-28
-15
-8
0
-15
-8
36
79
26
3
32
29
-75
-114
-14
90
16
4
-39
-37
-44
-9
66
10
-38
-27
-30
-59
-110
-27
-35
-72
-1
3
13
-32
52
9
-13
-88
3
6
-2
64
40
-17
12
41
-4
-2
10
-39
28
-2
7
25
52
23
43
13
-11
-18
-44
45
2
10
-9
44
69
16
-2
-15
-3
-9
-21
45
47
15
7
-43
-7
-6
15
10
-103
49
13
-28
-7
3
-36
45
127
31
43
30
3
-7
54
-67
-70
-7
-27
-19
51
29
6
-14
-100
-97
-23
-14
-30
-31
-6
57
-56
-3
-4
-43
5
-7
-10
-56
-33
59
1
76
4
3
-8
46
-18
4
5
-38
-27
-1
13
-20
-58
14
-68
-13
-13
-5
9
-7
35
-62
9
-67
-8
-4
2
18
12
-13
11
81
23
-4
-39
-61
26
-59
-25
-73
-10
0
5
16
-32
-6
41
10
5
11
7
34
39
48
-5
79
5
3
2
2
10
-1
-5
-19
1
-10
3
11
10
-5
12
-22
0
6
-14
-46
4
29
27
4
-7
-11
5
21
9
-32
-7
4
-9
12
5
28
41
49
4
-90
0
2
2
37
-49
0
-1
17
-2
5
-19
-35
57
51
41
30
9
11
27
40
-66
-28
-44
-45
-16
-11
-33
-65
-95
-13
-21
72
2
3
7
47
54
-38
47
12
-13
-16
-10
-70
-33
65
26
20
21
6
-13
-3
-32
36
-22
71
13
10
12
49
22
8
0
-77
-15
-6
19
3
-96
-46
-11
74
-17
-22
-26
-22
43
-72
12
84
-3
23
12
-20
84
-10
-12
0
58
12
41
13
-39
-8
27
9
-3
1
-56
-82
110
-2
-13
23
4
7
4
16
-47
-85
-65
-6
-23
-14
-8
3
-34
8
37
-3
-35
-17
-25
-75
59
-26
-26
-98
22
10
16
51
16
-87
-5
66
-4
12
24
24
-88
67
1
-99
14
-4
-11
-11
56
98
52
-56
-33
-20
-8
-2
12
-27
-2
40
8
-3
-26
15
-107
42
-17
69
-17
-9
-2
-45
37
55
38
-20
3
1
7
44
-12
-47
-30
13
12
-6
-2
56
-60
61
-17
-27
-2
15
9
-85
105
101
16
-17
-27
-13
13
76
33
-43
10
30
21
2
-2
-115
-20
1
2
-82
-12
-21
-35
-21
-11
-21
-9
38
-12
-13
9
26
-13
30
-49
7
3
0
1
40
-10
-90
-40
-12
14
12
7
-29
19
-53
32
-51
2
6
10
5
29
-8
-22
-96
7
-7
25
78
-88
4
56
-31
-14
-14
-38
-89
21
62
45
-17
-30
-9
-7
53
14
-57
-110
-10
39
33
16
24
46
1
64
66
-3
16
9
45
-30
-4
-46
-37
6
-24
-12
19
-20
-68
29
-19
-25
-11
-31
-63
15
38
17
54
10
21
46
75
-22
-14
-18
-1
-9
-3
-44
-34
6
-32
12
40
17
-2
-3
58
6
47
28
-18
22
10
3
-43
102
-21
-39
41
-10
7
30
58
36
-77
-23
37
-6
-7
8
7
48
-10
47
-29
12
16
7
19
-4
-86
-48
-10
-1
-7
1
-18
-74
-51
48
25
2
-12
-9
4
31
-15
48
74
-19
-1
26
78
-25
89
-32
-115
12
-1
-41
-100
44
19
11
25
4
9
16
77
-67
-61
37
61
-2
4
-24
-26
-88
38
6
-6
-35
-15
-22
-67
22
61
-9
-72
22
12
54
75
87
44
-34
54
-12
-3
4
44
-51
65
-14
20
4
2
-23
-31
-11
-37
-30
61
0
-5
-3
-3
66
-12
24
22
-15
10
15
26
-66
11
-40
3
10
-4
15
-2
-2
53
50
-5
-8
15
2
-32
16
62
69
88
-1
-15
-1
13
-37
-94
-113
-78
-16
-8
-11
-60
-53
-104
30
48
-5
-9
1
45
83
-24
3
77
3
-9
-12
-61
-84
-16
-69
14
12
26
20
21
4
-38
60
-16
8
-17
-17
4
-37
77
-12
-108
-24
-17
-1
-53
-106
-37
-2
34
-27
-12
-19
12
-58
88
-28
-128
32
16
18
33
51
5
45
88
-17
-10
-53
-101
50
16
7
91
23
8
13
27
-48
-25
-19
-47
-38
-23
-25
-56
39
-57
31
-5
15
11
16
-20
60
8
-28
47
1
16
2
41
-25
-2
40
27
-1
-8
-26
-28
40
-14
-60
68
6
-2
33
98
6
34
24
34
-18
-14
-39
-105
-65
-42
47
13
10
17
31
80
-3
16
-20
-19
-9
-3
-13
-29
16
-92
-66
-100
9
-1
-4
32
8
30
38
-12
-10
-15
-12
-2
-49
21
10
73
-9
1
17
11
-23
51
-13
-31
9
5
-20
-2
59
-1
-11
-54
11
12
-26
26
-10
61
7
21
-3
-10
37
-17
-84
-31
-6
-28
26
-2
-27
-84
22
-71
-64
-50
-19
-3
4
33
23
40
31
12
6
6
9
-26
-6
-29
-34
-72
4
-7
-13
23
59
8
15
101
-4
7
28
34
9
6
2
7
3
4
2
-10
-18
50
-34
-64
-8
-8
-14
-23
34
-71
9
29
8
1
-7
-10
-10
21
7
5
-10
-1
6
9
42
-8
31
-10
6
5
3
30
26
-31
28
22
-9
-7
-11
-12
23
-18
-51
4
-5
2
9
19
13
-41
17
7
17
9
7
-16
14
2
6
-48
-7
-10
2
-2
0
17
7
8
-3
2
-3
2
-10
-14
-26
2
6
3
0
31
-39
17
-20
-33
-26
-12
1
-26
19
31
-21
10
11
3
-15
-23
21
74
17
-9
1
-4
38
-14
-12
-20
24
22
17
9
5
17
15
-3
-32
-46
-18
-6
-27
-23
8
-2
5
-1
-10
-6
-6
-3
-11
5
7
5
3
7
1
6
-12
5
23
7
7
2
-3
-23
-2
20
2
7
0
-2
-16
19
12
-37
-9
50
-2
6
25
17
-27
23
12
-27
4
-2
-4
-33
4
-28
20
10
-3
-1
1
-7
4
-4
-18
-10
5
0
-4
6
-18
23
-41
-3
1
1
-7
8
-1
-15
-14
8
-4
-1
9
17
-1
-5
-7
-7
-4
3
-18
0
-2
7
12
11
-4
-13
0
-2
-10
-11
22
4
3
6
17
-10
8
-1
2
-14
0
-2
1
3
28
-32
-58
-28
-9
-6
-8
-3
-18
10
-3
0
1
4
6
-3
-2
20
-1
-11
-3
-1
2
6
7
-20
3
-5
3
-4
-7
8
2
13
14
4
1
3
-2
-7
-2
-11
-9
-1
2
1
15
13
-17
4
1
-7
-1
5
-24
-5
2
20
7
-3
-4
-12
-44
0
-21
14
20
2
1
-5
46
-2
-6
8
12
13
1
-1
-4
-1
4
-60
-33
-9
-3
0
-2
-4
1
-20
7
-9
-10
-1
-15
4
-5
0
-12
3
2
4
11
-10
-4
-46
-2
-10
-11
-10
-5
-1
3
13
13
6
12
6
-2
-2
9
18
7
6
7
1
-51
2
5
30
1
-1
0
6
56
-7
-7
49
-35
-5
-5
10
-20
-10
-5
30
-37
-8
-11
-32
-5
15
-7
4
-7
2
0
-2
66
-11
4
11
8
-7
-4
-4
-45
-12
1
14
-7
-2
1
5
5
48
-8
12
39
2
2
8
16
-28
2
9
24
3
1
-1
-15
-2
-5
0
-31
6
0
2
-29
12
11
-3
-12
1
-1
14
46
1
1
6
11
-2
-5
-26
-78
-2
-15
-10
-16
-12
-7
-8
57
15
-5
-16
5
3
-3
4
-12
-17
1
-27
15
12
1
-8
-2
-7
-3
-4
61
17
7
13
-67
8
-17
-12
-25
-10
-6
10
103
-3
28
-20
9
-3
-3
-18
-55
-57
-5
16
-25
-7
0
-4
-28
14
-2
10
11
-4
-4
-10
16
-20
3
9
-12
12
12
11
-39
8
-6
16
0
-4
-3
2
17
19
4
26
16
8
1
1
-29
-14
-5
19
-3
-2
-4
4
37
3
4
-5
24
1
3
5
-28
-7
3
-4
-56
1
-3
-10
15
19
-11
-29
11
-15
-4
-11
-9
-23
-4
-4
-7
3
-6
6
16
13
-3
-10
-74
-20
-5
-3
15
-7
0
-4
28
2
5
3
-29
2
7
6
-3
8
3
5
3
4
-9
11
54
9
5
11
57
0
-31
0
56
18
1
-9
-78
-33
16
-4
-83
-29
-9
-15
73
-18
-1
18
14
-10
-2
-11
-83
-4
31
-1
-39
-12
2
5
92
11
-68
-1
48
-4
-2
-8
-33
20
3
3
72
35
12
16
4
-8
3
-37
-51
-16
-12
-3
13
0
-19
7
-40
-5
5
4
3
-20
35
-15
-47
-17
2
-4
-21
56
-8
15
22
7
5
5
-9
18
2
14
7
11
2
-3
37
-7
-8
-9
-29
-21
-12
-3
-76
-10
22
-7
25
25
4
3
47
-3
-7
-13
-36
-17
-5
-3
10
2
9
7
11
19
5
6
-50
-13
29
-30
-55
-19
-7
-10
92
55
5
-6
40
8
-6
-8
-70
-46
-1
-6
-4
-4
13
16
-2
1
-3
20
81
36
2
5
5
6
-14
20
-13
-28
-7
-17
-13
-1
12
20
-42
-4
-8
-3
13
-5
-8
0
66
-4
-9
-4
-2
-3
-16
-3
-62
-14
3
2
34
3
1
14
60
20
10
15
-43
-7
11
5
35
9
-2
-9
18
-26
-16
-9
-36
15
-7
-8
-43
18
21
2
8
-29
-4
11
65
7
-33
6
-1
7
6
-8
-15
-11
8
-7
-36
-2
-2
11
28
7
11
9
8
8
1
-14
-64
2
-9
-15
-17
-14
-3
-6
41
-3
-3
14
46
27
4
-1
-13
-3
-1
-10
-60
-23
-2
5
4
3
-16
3
-13
10
-4
-6
-25
-9
7
-2
-5
-13
-1
-1
17
28
3
-17
24
-12
-2
0
-22
-2
9
5
-29
9
7
-1
39
3
0
-9
-38
-17
-11
2
27
-7
-7
2
23
-7
-4
-10
-23
1
-4
-2
1
15
0
-10
-12
0
4
-17
-23
-20
-5
-1
39
-2
-1
1
34
11
2
6
1
10
-23
4
37
16
1
-2
-3
3
12
4
20
1
1
1
-14
-16
-17
7
68
-4
-1
1
10
-2
3
1
-15
-6
-9
-8
-27
-2
-15
-10
-47
3
2
2
61
-9
4
-8
-51
15
0
5
-10
-4
4
3
-15
13
1
-6
-11
12
-3
-4
-58
-21
3
8
5
-4
7
9
100
15
-5
-11
2
-7
-11
-16
-65
-29
-5
4
14
-1
7
-13
-13
4
4
-1
-3
2
-15
-10
3
-10
-5
3
-11
-5
-16
-4
-25
4
-1
1
-65
0
58
5
23
-2
-3
1
49
11
-10
-7
-29
0
-1
6
-31
5
30
7
47
7
8
-4
-4
0
2
-5
-6
0
-3
-2
-3
-8
-17
8
1
19
-1
-2
-19
6
1
-3
11
4
-3
1
-6
-4
-4
-9
-30
-11
-1
10
15
5
9
0
1
-20
-1
-16
13
0
-10
8
16
27
2
-1
-8
-3
4
8
48
-1
-5
-5
-10
-7
-9
5
29
-3
3
0
19
1
1
-10
11
10
-1
8
-7
-11
-7
2
-21
-4
-1
0
2
-1
-4
0
13
-20
-7
0
13
-2
-3
-8
-28
-10
-2
0
-13
-5
14
2
5
13
2
1
-6
4
-29
-2
25
-11
-1
0
-9
-7
2
5
-21
4
-1
-1
-23
11
-15
9
24
14
-2
-4
17
-5
5
2
-23
-8
4
1
-1
-4
0
-6
-12
-10
-2
0
10
-4
3
13
28
6
9
8
-3
0
-2
-5
37
24
-5
-16
24
1
-1
-5
-16
-25
-1
0
-1
-8
-7
-4
-8
4
0
-1
-29
0
1
4
21
3
2
2
14
-4
6
1
-13
-24
-2
-4
-38
-5
-1
-2
21
6
-1
0
8
5
-8
-7
-30
-24
-11
-6
-6
-6
5
1
-11
-3
0
-5
-13
-2
-3
-4
21
3
-1
2
-6
1
-3
-1
16
17
-1
-5
-10
-5
-1
1
8
-13
1
-1
4
0
-1
7
46
3
-10
-9
-1
1
-2
8
-17
-19
-3
-1
14
-1
-2
-3
-23
6
-1
1
10
-5
1
4
11
5
7
6
-18
-1
-3
-4
-25
-28
-5
-3
13
-2
9
4
1
13
4
0
8
1
-13
-16
-32
-14
-10
-2
-16
-6
9
7
68
1
2
3
3
7
-6
-14
-67
-1
-4
-3
-14
-5
-6
1
-3
9
5
4
2
0
8
7
2
-10
-1
-2
-1
0
-1
-5
-32
5
4
0
5
-4
-2
-4
6
-7
-1
-2
-9
-1
-3
-5
-17
-4
-5
-5
10
2
12
7
-12
-2
2
3
4
3
-4
-8
5
6
-5
2
18
-1
6
4
11
8
4
1
-35
-3
-2
-9
-5
3
-2
3
2
-1
-3
6
31
1
2
1
6
0
-4
-4
-17
-21
-6
-6
-11
-8
0
-1
15
16
3
0
10
2
5
3
14
-1
0
-1
-24
2
-14
-3
10
7
-2
-1
-3
-3
2
0
-13
-12
-5
-1
13
1
-5
-2
-20
9
1
2
-41
-3
1
2
23
-4
2
-1
20
3
0
-3
-27
-7
-4
0
-27
-3
-4
-5
24
16
-3
-6
2
-1
-5
-1
-9
-1
1
-2
11
0
4
-4
-8
-12
-2
1
1
0
2
3
3
2
4
2
9
0
1
0
-1
1
-2
2
-15
1
4
-1
18
2
3
-1
12
-3
-3
-7
-6
0
-3
-1
7
-3
-5
-10
-6
-14
-7
-6
-4
-2
5
3
-15
1
2
3
-3
1
3
6
38
24
0
3
13
0
-10
-11
-42
-38
-1
-2
2
-3
-3
-3
12
13
0
-4
-15
-2
0
0
-25
-19
-8
-7
-72
3
1
1
-17
-10
-2
-1
57
-4
3
-3
42
19
3
1
-21
-4
1
4
13
-6
0
2
-2
1
-4
-3
-1
4
-1
-5
5
-3
2
0
-26
-1
0
-2
-15
0
-1
0
31
1
-1
1
8
0
0
-3
-15
-11
-1
-2
-1
-1
-4
-4
-26
-1
-4
-2
12
-4
-1
7
19
8
3
-1
-2
0
1
-4
-18
0
-5
-2
30
2
-11
-9
-2
-7
1
-2
-2
-1
0
3
21
7
3
2
10
0
1
-1
-5
-6
1
5
-11
-2
-5
-9
-29
1
-9
-8
-27
-4
3
1
-10
-12
-8
-2
6
-3
-2
-7
-7
-9
1
-2
13
1
-4
-5
-6
0
-1
-1
5
1
-2
10
24
1
3
-1
-9
-1
4
4
18
13
6
2
18
1
1
5
2
2
-1
-1
-26
-1
-5
-12
-9
-13
-10
-5
34
-7
1
6
2
3
4
3
5
2
1
-4
-26
-12
-3
-1
18
1
-4
2
36
14
0
0
16
-2
0
0
-36
-1
2
-3
-21
1
-2
-5
28
2
-4
2
-8
0
2
7
1
12
2
0
7
0
-1
2
16
-1
1
-1
9
-3
-3
-8
4
-4
-5
-3
-2
2
-2
0
-38
-12
0
-3
-3
0
0
4
57
7
2
2
-12
0
-5
-2
-21
3
-2
0
-9
-3
-2
-7
9
-14
-2
-1
-7
-1
5
6
22
3
-1
1
5
-2
-3
3
-9
9
-1
-5
-10
-3
1
0
-41
2
0
-1
6
1
-2
1
6
-7
-3
1
0
0
2
1
1
2
2
1
-3
0
-3
-6
8
6
-4
-3
-5
-2
0
3
3
-3
3
3
6
-1
0
-5
-14
-4
0
0
-3
-1
0
-3
-3
5
0
-3
0
-1
3
-2
-12
6
1
-1
-4
1
-1
-4
0
-6
-4
-2
8
0
-1
5
3
-2
-2
-1
-5
3
0
-2
4
8
4
-1
-2
-4
-2
1
-13
2
0
-1
-2
-1
-1
-5
13
-6
1
-1
-2
-1
2
1
-15
-4
-2
-2
0
0
0
-1
5
8
-2
4
21
4
-2
-5
-9
-17
-1
-1
-6
-2
0
2
6
1
-5
-2
5
1
2
0
22
13
3
1
-9
-2
-2
0
-13
-11
0
-1
-7
-3
-1
-6
10
2
-3
-1
0
-2
-2
-1
-6
0
1
-1
0
-2
-2
-3
-24
-15
2
1
-1
-2
-1
2
-4
5
-5
-4
-7
-1
-2
-3
-30
-4
2
0
-3
-2
0
0
23
-1
-1
-3
-1
1
-1
-1
6
9
0
2
0
1
-1
-6
-1
0
-2
-1
0
-1
-1
0
-9
1
-2
-2
-3
-2
1
3
-4
-4
-2
0
-1
0
-1
-2
9
1
-2
-1
0
-2
1
3
-2
-7
1
-2
-2
-1
0
-3
5
1
-1
-2
-1
1
1
2
-7
10
3
-1
2
1
1
-8
14
-18
-3
3
-2
3
-23
-16
6
14
3
1
-5
0
5
27
-4
-7
-7
-2
-4
-5
0
-9
-1
-9
-3
-4
0
-4
1
1
-19
3
-2
-5
-4
0
5
-2
5
6
0
-1
2
1
-4
-9
-25
-3
0
1
2
2
0
4
10
3
2
0
0
-2
6
2
8
3
-1
-1
-1
-1
-13
-1
-8
-10
-2
-1
-3
-4
-9
-9
6
12
3
1
-1
-2
1
-6
6
-22
-3
-2
-2
-2
1
-2
-2
4
1
0
1
-2
7
7
-13
-5
0
1
-1
-1
0
8
6
-2
-4
0
-1
-1
14
-8
0
7
2
1
3
8
8
2
0
-4
-4
-7
-5
-5
7
-3
-4
-10
-3
-1
0
1
-7
-8
6
2
2
-3
-3
-5
5
9
-3
2
-1
1
2
-2
4
1
-2
4
1
1
3
5
-16
6
2
2
-2
3
0
1
17
-6
1
-5
-2
-3
-4
-4
-16
-18
-3
-2
-3
-2
-3
-2
3
32
0
4
1
-1
-1
-8
-1
-31
-6
-6
-1
-1
-3
-1
-5
3
4
-2
0
0
-53
4
-2
5
-2
-1
-2
-3
45
-4
-4
1
-4
-1
0
0
-2
3
4
-13
-3
0
2
0
3
3
-6
-4
-1
-5
1
-3
1
-3
1
17
-1
4
-2
-1
-14
1
-8
-17
0
0
-2
0
-2
-1
8
12
1
4
1
4
6
-2
9
-2
-5
-4
-3
-2
16
2
-4
-4
-1
4
-1
-1
-10
-3
-10
2
-3
-10
0
-2
0
-4
-6
-8
0
-1
-4
-5
-10
-5
7
-2
-4
2
1
2
11
2
-3
-4
-1
-4
-1
1
-2
1
-6
-4
-6
2
-1
1
-3
9
15
11
8
-3
-2
-3
-4
-6
-12
-5
4
3
0
0
7
-1
4
12
0
-3
-1
-2
-5
-1
-9
-23
8
1
1
1
-2
-2
-4
8
-17
-5
1
-3
0
1
-4
-2
-3
0
-2
0
10
-2
11
8
2
2
0
1
-7
7
-18
5
1
0
-5
-2
0
3
-31
-30
22
5
-2
-5
0
-9
-3
-3
-35
-10
-3
-3
-3
-9
-7
-10
-9
-3
0
-1
-4
0
20
10
-5
1
3
1
6
-11
7
13
2
1
2
0
8
12
-1
8
10
1
1
1
-17
-2
-5
-8
0
-2
-1
-3
-4
-3
2
-2
-4
-2
-1
-2
-3
-8
6
11
-3
1
-2
0
5
-4
5
-7
7
-4
-4
-3
3
1
-8
6
-14
0
-2
1
2
4
5
-7
1
8
-4
0
-1
3
1
-12
5
-20
7
1
-4
-9
-19
25
11
3
-2
1
4
3
0
-19
12
12
0
0
-2
-4
-10
1
-15
-5
-4
-4
2
0
15
5
-13
4
-2
2
-4
9
-24
-8
3
2
0
-2
-4
1
3
2
15
-12
-6
-2
7
-6
6
2
28
11
1
1
3
-3
15
9
-33
-5
-1
-2
-3
-1
-12
-6
8
1
0
-3
2
-1
-2
2
-1
-3
-3
1
-6
1
11
-8
-6
-4
-1
-3
-5
6
-17
5
4
6
-1
0
3
-6
-6
-3
2
2
-2
0
6
3
4
-5
-6
-7
5
0
-4
-3
-4
-2
-1
-3
2
2
4
-1
8
4
2
0
-4
-2
-6
4
49
-6
-2
-1
-1
-1
5
7
-37
-4
5
0
-5
-5
-6
-17
-11
7
33
0
5
3
-2
-3
-26
-43
-73
-5
-10
-8
-7
4
24
14
-6
-12
-1
1
4
-6
-13
1
0
1
1
1
2
5
8
9
1
0
1
0
-2
-3
-16
13
35
10
4
2
-2
-1
30
8
12
8
3
4
4
-1
-17
-3
-12
-9
3
2
2
7
8
-16
-36
-22
-6
-5
-2
-3
-2
4
4
9
-1
1
2
-3
11
-20
-47
-12
-9
-6
-4
0
-19
13
32
10
4
0
-1
0
-2
5
5
10
1
2
0
2
18
-4
7
-9
-1
-1
10
6
-32
0
24
-3
1
-3
-26
-11
25
-9
-14
6
-1
1
12
1
0
-8
-42
-1
-2
-5
3
-3
-9
9
1
-11
-5
-3
-23
0
-17
-3
8
2
3
4
7
11
-17
-8
7
-2
-4
-7
3
-13
-5
-3
-73
-15
-5
5
-10
-7
27
4
102
23
7
2
-10
-10
-28
7
-53
-13
-11
-12
40
52
-29
-23
36
-13
-3
-4
-19
-35
17
21
72
13
3
0
12
-9
17
5
-48
-8
1
5
3
29
-8
-2
33
10
5
4
-6
-2
50
-12
-11
15
1
2
-2
13
-24
11
93
15
3
1
0
-6
16
-22
-81
-20
-9
-5
-8
-9
-2
9
-31
-5
-2
-3
3
1
30
34
-16
-10
0
5
5
22
-11
-22
3
6
4
-5
-25
-3
60
23
12
1
-1
7
9
10
-6
-32
32
15
8
1
-52
-29
-4
-1
-32
-33
-11
1
17
1
18
8
-35
4
-8
-20
-8
-41
6
-3
10
14
5
-1
11
1
-49
-11
-54
-5
0
5
-2
-36
2
25
94
28
10
2
1
14
19
-17
13
-8
1
5
3
4
-39
-1
-26
-3
-5
-4
3
6
53
-15
-31
-18
-2
-2
5
1
31
6
18
13
0
-1
-52
-8
-1
-14
-35
-31
-18
-13
45
28
-14
10
17
10
6
0
3
-28
18
12
66
20
3
1
1
63
-21
-25
-83
-31
-7
-12
4
-41
29
12
-6
2
9
15
-13
-23
-14
10
73
17
-2
-4
-55
-13
-4
19
40
0
-6
1
49
-24
-18
-46
34
14
8
2
8
58
18
75
-21
-3
-5
-1
-7
-33
13
-78
-43
-12
-4
-8
-3
-26
-48
52
-35
-19
-9
0
5
-34
78
27
7
3
2
-5
-6
23
16
-86
-17
-10
-2
5
8
11
-33
25
10
-4
-3
-4
-2
16
48
6
78
18
8
3
-8
1
6
-13
-83
-22
-15
-8
5
-26
-82
24
21
11
10
1
-3
39
-3
-5
-34
-5
-11
-4
2
-4
2
-42
-27
-4
2
-1
-9
-7
-98
40
36
5
-10
-12
0
-26
28
-73
15
3
7
9
13
32
-17
42
74
-1
6
6
-15
30
-60
-17
-17
2
5
-3
4
-34
53
-17
41
19
-8
-9
-5
-12
64
7
-15
19
-11
-13
-25
-23
-73
18
-17
-40
-15
-6
0
-37
-32
-82
50
-16
6
13
26
76
98
67
20
4
25
10
6
14
-38
93
18
-48
-17
-15
-12
-5
61
-14
-25
41
14
7
27
14
-83
-34
-21
-23
-24
-16
-22
-9
-23
-12
14
28
2
9
10
-23
81
-55
28
67
6
-4
1
-26
-48
81
-21
-52
-12
2
3
13
-61
8
7
11
-1
-8
-13
-29
-93
92
-22
-17
-1
12
25
11
-61
-103
-19
57
4
1
-16
11
38
9
7
4
6
-5
-13
-34
127
-15
-8
14
-6
2
14
28
23
-10
-81
-42
-3
-8
-17
16
34
-13
-10
-3
-7
1
-4
4
27
18
62
7
-3
-10
-6
-25
-56
9
-54
8
3
4
17
55
14
-91
-44
-4
8
4
4
1
-35
66
-14
57
-5
-10
-29
-17
-71
-65
22
-29
-1
4
12
25
84
-6
-10
-17
-15
-16
-6
-34
-48
5
-21
4
-8
-3
22
48
91
50
-4
-15
17
19
37
59
-31
1
44
90
-5
-14
-27
-97
-30
-35
-29
-73
10
7
7
-11
90
101
54
24
-11
-6
-8
10
-49
-86
-34
-24
11
8
29
17
68
-48
-44
2
-12
0
11
4
7
127
34
5
-5
-10
-8
24
-82
-128
9
62
4
2
-33
-43
-85
55
-14
-128
-25
-18
-8
-35
-24
-124
-67
-25
26
21
25
72
44
8
59
93
7
-5
-9
-18
75
-120
-46
-100
-16
-2
-9
-24
-32
127
-13
-2
-27
-14
-29
-7
-108
63
4
43
-3
2
17
5
104
-39
-27
-16
18
21
-2
24
42
-27
7
84
-26
-18
-13
68
6
-66
41
-86
34
25
30
-23
6
-19
38
-8
-9
-9
-22
-35
-56
47
-73
56
-3
-5
-14
-1
48
-20
19
2
-5
1
-11
-11
-35
-111
-23
-34
8
-2
0
7
12
114
70
87
1
-4
18
34
-17
-43
-7
6
-3
-1
-6
-5
20
43
19
-47
6
-8
-7
41
-124
-17
113
102
13
6
-6
-99
79
21
-81
-73
-5
-8
-4
24
-56
-6
-29
46
3
8
-8
-13
53
44
-59
20
19
7
31
49
-74
-31
4
61
-2
-8
-9
-27
65
-53
33
-73
-11
2
-4
18
-3
-53
-21
9
-12
4
7
60
-75
51
2
-54
-11
-8
-12
-78
-18
-9
20
40
18
3
32
49
-23
24
-67
-23
-9
-3
-1
74
9
27
63
23
2
1
-30
-98
30
-53
-65
-77
-6
-11
-27
-38
-29
36
-18
12
0
-1
12
51
-31
-106
2
78
1
1
11
8
104
90
-2
-128
-2
-4
-18
-12
-93
35
70
104
11
-5
-10
-5
76
-55
-47
-13
-11
15
-9
-12
-83
20
14
24
-10
-4
-2
-4
-123
69
-5
-15
6
-6
10
22
70
-56
33
28
1
10
-2
-47
-42
-86
-52
-42
-12
-10
19
12
36
-23
-7
30
14
6
-43
-31
26
1
20
-41
-10
-13
9
-9
-128
9
-53
16
8
16
32
-10
88
-47
-4
28
-23
-19
-19
64
-65
-8
48
-4
12
4
28
-37
3
55
8
-3
-25
-12
-36
-33
-60
-31
-6
14
35
22
22
65
16
36
-17
-67
-21
-7
-10
44
-56
-23
-50
70
10
7
-5
-70
96
41
-31
-21
-19
-11
8
33
-30
-27
37
-19
7
17
31
52
-21
127
34
74
5
-11
-33
-42
16
35
-43
-51
14
9
17
53
-80
-31
64
10
0
2
16
-11
1
12
-66
25
-21
-2
-23
69
-47
115
45
-41
30
7
25
-71
12
33
26
11
1
6
1
-80
-29
-128
6
19
25
12
20
54
32
55
28
51
-2
-16
-12
-48
-89
17
-21
-87
-55
-13
-30
-34
79
-45
-34
-62
-12
-5
34
-9
127
-33
25
74
25
4
21
49
-70
-54
8
2
-3
-5
-5
-29
44
-68
38
69
-2
15
12
41
90
32
-28
28
18
13
14
48
-118
15
-21
-32
-2
1
-5
-69
108
-27
4
-47
-8
1
11
19
-1
56
-73
80
-2
-14
2
3
56
0
22
-106
-35
-6
-18
87
51
-64
28
3
-5
-10
-28
-17
-42
18
37
8
-1
3
7
-31
99
-27
11
71
26
21
3
94
-79
63
27
-115
-11
-7
5
-18
-63
-73
-40
46
4
-3
-12
-54
-24
-34
-36
-21
-6
-5
-7
-18
120
-22
33
-16
-8
-1
26
127
-107
-6
93
91
18
-1
-28
-95
37
-63
-47
-5
1
11
16
85
67
58
-1
-39
-12
-12
4
-42
-19
-79
-42
-78
12
14
-15
-46
-7
76
51
-77
-17
-17
-12
-12
-7
67
-11
14
-8
-3
21
-7
-50
-16
13
-5
-3
-8
9
37
122
40
-30
-5
5
4
-14
-10
-15
59
-60
42
12
1
17
67
-29
-5
62
90
-23
-11
-36
-86
-51
64
17
-20
0
5
8
8
-128
-18
28
77
19
-4
1
-28
76
-81
-53
53
0
-6
-29
-35
-42
7
-36
-74
17
15
-9
82
107
-2
2
-23
-11
-10
16
109
-60
-69
76
45
4
-6
-9
-128
29
9
28
-45
-6
4
2
39
-104
-46
-34
22
18
11
-19
16
-1
-37
6
-24
-6
-14
-10
-9
61
42
-37
-36
-17
-23
-28
37
38
-29
31
63
-12
-9
-11
-42
-33
-7
-1
3
9
9
-8
-43
89
12
-32
-51
25
21
9
21
51
29
-41
8
-9
-12
-14
31
35
-63
8
127
25
6
2
-9
29
84
77
-81
-30
-18
-28
-93
-76
105
-26
67
15
3
1
14
-8
-48
-7
-84
-27
-16
15
20
80
-82
18
-20
16
14
-3
79
5
2
-25
-62
-10
-10
19
-36
-66
65
22
-7
-3
-10
-30
-70
-3
-21
48
5
15
14
-16
-34
-75
86
-81
-82
-1
12
26
22
18
-25
15
-6
-11
-15
-12
31
0
35
10
29
-13
-9
8
49
-48
6
6
19
0
-9
-5
51
-117
50
8
-1
-19
7
-26
-126
88
6
24
5
-3
-7
28
49
-29
-54
-8
9
-9
-6
-18
-75
-26
-44
-19
-36
-3
0
0
-7
-13
-9
7
64
4
-1
28
77
-26
59
-25
25
17
14
6
52
63
-73
23
42
-14
2
-20
39
67
27
2
-97
20
-9
14
-57
20
-64
-96
-43
9
-10
-21
15
40
-12
42
-20
-15
-21
-4
-29
-66
-76
-30
-45
16
13
8
91
-40
127
22
48
-9
20
2
-56
1
44
7
-111
-15
-16
28
3
-58
-2
-35
61
-11
4
-4
6
78
-2
24
10
-9
15
36
75
-114
-7
11
-51
14
-17
-44
-95
19
-35
52
73
13
3
23
82
64
15
-29
-30
10
11
15
13
25
-12
24
11
-14
8
1
19
-68
-4
0
11
-9
-2
8
14
31
-36
3
95
-2
-2
-23
13
-20
47
-24
-70
2
2
13
-15
-13
44
-61
1
16
3
-14
-51
119
1
44
28
-1
4
32
90
-18
7
35
77
-16
-2
-30
6
31
-14
13
-14
4
11
37
80
-123
-27
-27
111
-1
-15
-30
-104
7
12
-11
-35
-9
-1
8
71
-2
18
-28
-57
-22
-15
0
-24
87
-9
7
68
8
18
18
46
-88
2
-24
12
-17
-27
-25
-44
-42
-83
-17
-37
1
2
13
7
-6
-23
34
37
4
-8
-11
-2
-91
98
60
60
-14
-14
-39
-125
23
-48
-96
-22
2
3
41
96
49
-63
32
6
-19
8
-49
-107
-27
-8
-46
18
18
-10
-23
-62
32
-120
21
-68
29
10
24
59
-15
26
-22
-17
-33
-17
-35
-69
47
16
29
119
7
0
17
39
3
3
-14
-122
7
16
31
-5
43
-5
25
62
1
-5
-10
4
-79
-80
6
-25
7
6
14
-4
77
0
-16
22
-13
0
22
35
-30
-62
-99
-42
7
23
12
57
36
34
49
-40
-33
-38
-41
-46
45
40
45
47
34
16
-7
55
-128
-21
-61
-43
-2
0
-27
-108
108
89
54
-39
3
-3
15
44
-37
-101
-40
7
-27
-12
12
19
67
-10
30
71
29
15
9
18
-91
9
-9
-12
-18
-19
-32
-47
-53
-4
4
59
1
1
15
57
77
72
26
71
1
5
13
3
28
-57
0
-22
-9
-4
-16
-105
-3
-30
25
9
34
0
18
66
-16
-14
-14
-42
-19
-5
-14
-9
-36
-11
-2
34
-5
-13
-16
10
4
-4
3
-70
-1
13
25
25
127
-1
-46
88
-17
1
-5
13
8
40
37
-75
-10
-29
-6
-75
36
-61
-44
4
2
29
29
41
-44
72
40
-7
18
0
-12
-66
-20
-54
-24
-46
-1
4
-17
-15
-11
11
-13
99
8
9
5
25
-11
55
4
-80
18
5
-21
13
-48
-47
-14
28
-25
-2
0
-45
54
92
-8
-55
6
-2
9
-10
-16
0
-9
-43
-14
7
25
21
-111
-26
6
-60
6
9
-45
-82
51
-12
1
65
-1
-19
-8
6
28
3
6
-84
-2
0
4
44
24
14
-11
-22
-6
-6
-9
-4
-5
20
-21
21
6
7
22
60
32
13
22
-54
11
-4
22
-82
12
-52
8
89
6
12
13
31
6
-45
-9
-3
2
-7
-13
-22
-60
42
-16
53
-4
-11
-13
57
108
-1
24
-75
-22
-3
-7
17
7
-6
5
5
3
1
20
29
-77
-17
-8
86
17
9
-8
-8
37
-42
33
34
-2
-15
-4
-45
36
-87
-29
16
-1
1
8
31
-79
53
28
-55
11
0
3
21
23
-54
-27
-36
28
7
14
39
-27
-44
-34
90
10
-1
-13
-50
-21
127
56
50
-3
0
-9
20
55
-33
5
-75
18
4
0
-11
2
-61
-26
74
-7
9
5
87
-30
20
36
31
-1
-6
10
-69
26
-9
-1
-7
1
1
-7
37
-40
6
-78
41
-37
-13
-19
9
3
-42
45
20
33
-13
-1
-9
16
3
-26
-39
-4
0
4
31
-35
8
43
-3
-6
-1
-4
-32
-45
-39
-31
-24
-13
0
6
-23
2
33
9
-9
-11
5
8
-48
38
-5
-30
-67
-19
-14
-15
25
-12
23
-6
-9
9
-2
-2
-5
34
-1
31
73
15
7
11
-24
-42
22
-14
-53
-41
-11
-20
-37
-23
-3
-34
-109
51
21
19
43
-20
-38
36
14
4
-19
3
-22
-82
5
-31
64
5
6
-16
-15
-17
-33
-22
9
-15
-8
26
60
55
-31
-11
-34
-13
7
-29
-69
-34
-3
-10
45
-21
-15
7
36
92
40
27
-128
11
3
2
8
-22
-40
-29
19
-11
-5
-20
-57
-68
-41
13
100
0
0
25
34
34
19
7
-46
-19
2
-22
-35
-6
-9
20
80
4
-7
15
71
-14
-32
0
-11
-13
2
-8
-23
-48
58
-6
-71
-17
-14
-12
-1
13
-48
-3
23
4
8
44
74
-27
43
-3
-73
16
2
-13
-88
-24
-46
-2
-35
6
-1
-14
-56
23
24
-2
-49
-1
-5
-15
14
-55
-22
-11
3
1
-7
-1
16
9
-29
9
-12
-42
-17
-15
29
66
31
47
67
-7
-10
-20
-40
8
-52
24
19
12
7
18
7
-92
5
-58
-43
-1
5
-27
-24
108
31
34
127
4
3
12
-34
-42
57
-32
22
6
16
-5
7
-12
-81
-18
-17
-38
-13
-22
45
34
-67
-33
15
17
-9
19
-21
-5
17
-19
38
7
-7
-12
12
-14
9
84
106
5
1
16
64
-15
-4
-41
56
8
9
-24
-71
-3
67
13
-78
4
5
6
16
-25
-59
4
59
-12
10
28
31
57
7
-3
-128
-8
-12
-34
-23
12
-33
10
12
6
-5
0
42
-11
50
-2
-32
-13
-3
-15
-36
-1
-16
-33
-30
-14
-17
11
3
-21
61
-6
-30
21
31
0
-71
-90
-33
-1
5
-1
-9
24
1
21
52
-19
33
5
-1
-22
21
-16
-48
-5
-13
-3
2
4
-22
-79
-57
0
96
-13
11
22
33
26
30
-41
-47
43
8
40
34
9
1
45
-5
10
13
-46
-72
-78
-27
11
8
4
2
-9
-25
71
21
24
5
1
-7
12
48
-35
51
9
9
-40
-6
1
-67
-25
-40
-46
84
19
12
31
76
46
77
76
-82
-6
4
-14
-26
87
10
13
39
-6
-10
-5
-23
-57
-4
-5
-56
-1
3
13
28
53
43
-42
12
-12
1
14
21
5
84
-20
44
1
5
-19
3
44
22
11
-14
2
-18
15
45
18
12
11
2
-2
-6
-2
-49
59
-34
-32
-46
9
-4
-2
-58
-15
-3
32
70
3
8
7
36
-29
-56
-61
-30
3
5
-20
2
70
105
28
-27
-15
-13
16
16
-55
-128
-6
-9
-24
-7
26
95
36
-18
-41
-11
15
-10
-32
-32
5
17
10
-48
8
-2
-3
-30
5
-17
16
68
9
15
-9
22
-26
-15
8
-16
29
2
2
15
28
46
14
-28
-10
-14
-7
-4
-57
5
-25
-26
-26
-22
-21
-51
12
36
54
92
0
16
6
15
-33
-36
-35
-102
-8
-1
-4
-13
-52
13
-20
35
6
10
12
122
14
58
31
-43
-7
-16
-5
-104
54
-5
1
61
4
1
1
18
0
24
37
26
-8
-4
-8
-23
1
-37
-27
-21
2
4
-4
7
1
-13
-10
2
-5
1
15
52
-17
-29
-37
-10
-7
-1
-9
-10
3
44
40
32
-4
3
-2
-27
-14
-56
-32
-36
-5
-4
16
13
44
-33
16
-23
13
4
-9
45
7
33
11
-14
-1
-12
-40
-84
19
-13
-6
-9
6
1
6
1
-21
-6
11
15
2
-3
-24
-20
-15
-9
-12
25
0
6
20
42
8
-22
7
-13
-2
-5
-6
-11
-44
-12
-12
-3
-17
3
-7
8
12
49
-3
-13
17
4
11
10
-9
-37
-1
-5
-2
0
-5
-17
-4
-19
-26
-14
7
4
4
21
-16
23
8
11
-14
-10
-6
-18
-14
-1
-2
-6
-11
-1
9
-2
-10
8
-7
2
-1
-5
-13
6
3
10
32
24
4
0
6
3
9
-30
-19
-57
-2
0
-4
1
-2
-6
1
13
3
-3
-1
0
10
12
19
-5
1
1
0
-4
0
-38
-5
13
-6
-1
5
10
8
10
0
23
-1
-4
-5
-4
-11
-26
-2
-10
-3
3
-2
-9
-17
-25
4
7
-1
-2
2
-11
2
-22
-15
-9
-1
6
28
11
4
-42
27
12
5
0
-2
-1
2
-17
-13
-10
-2
-1
-1
-9
-29
-1
-7
14
1
1
6
-1
3
-48
-7
-10
-1
1
-26
7
9
10
-6
6
-2
-12
13
-5
-10
14
-16
5
-4
12
16
-1
10
39
16
-1
-4
-24
1
-10
-5
25
-7
-19
1
1
-15
3
-8
25
12
13
4
9
-24
-3
-6
-4
13
4
-1
-15
78
-5
-1
-18
-17
0
-1
14
7
7
-8
-5
-16
-11
-6
-6
-9
0
9
7
13
13
6
2
8
-1
-6
14
-29
-8
-4
-1
-29
0
5
10
15
-1
1
6
-15
0
0
-3
3
3
1
-10
4
0
2
23
12
6
-5
4
-25
-1
-2
6
-5
-8
7
-4
-20
-6
0
7
-13
4
-1
10
16
-2
-7
-5
-26
-9
-9
-15
-48
3
7
18
33
14
3
-3
62
0
3
11
-7
-11
-10
-4
-49
-12
5
14
-11
-2
-3
7
48
38
-1
30
11
8
5
-1
20
0
-7
3
-77
-13
-6
-14
-12
-5
-5
-19
65
19
4
3
-4
-3
14
-12
-21
0
1
-4
-52
12
6
-5
36
2
1
3
46
-2
7
-11
-41
-2
4
5
-7
-4
-14
-15
57
10
1
0
3
0
-27
-15
-72
-23
-7
-7
-19
-10
4
19
7
1
-4
2
5
1
3
-3
20
12
2
4
-10
-5
-5
-9
6
4
4
12
14
7
17
-14
42
9
3
-7
-91
-1
7
-5
-31
0
-6
-3
91
-55
-44
26
36
10
1
23
68
7
22
10
-31
-13
-3
-41
-42
-4
-12
25
26
15
-1
-5
34
-32
5
19
-43
-8
3
-3
-42
24
31
8
11
7
3
7
-49
-19
-23
10
6
-1
0
18
67
-11
-3
8
88
9
6
1
-25
30
-9
-7
-40
-20
-9
-8
-60
-62
-33
-12
4
-5
-12
-14
-37
-19
-1
7
52
-11
-8
0
83
3
23
-13
-55
-2
3
-6
41
44
-9
-25
-61
-14
-7
19
10
-16
0
-12
-17
-6
3
-10
-56
-2
44
7
78
31
4
-15
-63
8
-33
-16
5
-6
-4
4
16
9
5
-14
58
8
0
4
67
17
14
-1
-117
-36
-2
1
-42
-5
7
-10
-2
9
-2
4
-59
-16
-12
-5
26
5
-9
-12
60
-23
9
12
16
26
10
10
-64
32
-19
-20
-26
-20
-10
-15
76
14
-7
0
3
-5
7
13
6
-8
8
6
-38
-3
7
0
-58
-23
4
7
50
13
0
4
54
0
9
16
85
15
-6
-12
-5
17
-8
-19
-106
-34
-8
-7
-4
39
14
18
-53
21
-2
0
-28
-20
-11
13
37
-15
-1
-12
-2
19
11
-1
34
1
0
9
32
-5
3
4
-54
21
-4
10
-4
14
-12
3
-28
-16
3
-7
-4
-25
2
-3
-38
-5
-7
-5
-19
22
-13
-1
32
-3
9
8
-7
4
-6
-2
-17
8
-1
1
1
-14
-9
-1
42
-3
5
8
11
4
7
1
-27
-5
6
7
-28
-4
10
-6
-16
-2
-10
-14
14
-4
-27
-2
14
-9
-2
-2
30
9
-11
-6
41
-9
-12
-13
-18
-13
3
1
14
-18
7
1
-25
4
3
-5
34
24
-5
7
43
18
-12
0
-58
-23
1
-1
-18
-8
4
-2
-1
6
-2
-5
25
0
-2
5
-8
7
8
7
-25
2
0
-1
8
-3
-2
0
-44
-3
4
-23
-64
-24
-14
-9
65
-10
-7
3
17
-8
-1
-1
-6
0
10
0
-31
-3
1
-1
3
27
6
11
84
32
5
4
-21
-64
-2
-7
-41
-3
-8
-12
-33
4
5
-11
-57
-9
-3
5
11
-3
-10
-21
-16
-15
-7
-7
21
-3
2
-2
-46
-5
1
-2
12
17
-4
2
51
0
-2
6
-24
-6
8
8
2
5
5
5
5
-5
-5
6
31
13
-1
-11
-20
-7
-5
-10
-3
-11
-2
-4
46
16
6
-2
15
-1
-2
3
-5
-8
6
2
43
-2
4
4
-7
8
1
8
-13
16
0
-4
-2
-3
-1
-11
-17
-11
-1
-1
-22
-1
3
10
47
29
10
10
5
1
-9
-1
-39
10
-8
-10
19
1
1
-2
-16
-29
-5
0
-12
-4
2
-3
-68
21
-1
-4
-25
1
-7
7
-18
-5
0
0
-9
0
43
10
77
18
10
11
0
-2
-7
-13
86
4
-6
-5
17
-9
0
4
-23
13
2
0
-16
9
-1
-8
-39
-23
3
0
-20
0
-7
6
22
28
-1
-3
51
-3
-11
-8
-2
-4
-3
0
-46
4
8
9
25
-10
5
1
78
2
-5
0
13
13
2
-3
3
11
-12
-6
0
-7
-1
2
-26
-52
-12
-9
-48
-12
-6
-4
-7
0
-2
-1
26
5
-3
-7
-31
-3
7
0
-12
3
-1
-2
-4
12
-6
10
2
-7
2
1
13
1
-3
-11
-30
-14
-7
-2
13
-4
-4
4
-69
-13
-3
-1
-27
-2
2
-8
50
-7
-2
-3
18
-7
2
-6
-8
5
-5
-3
-19
10
-1
6
56
7
1
2
-16
-4
2
-6
-12
-18
1
-3
26
8
-1
0
-17
-3
2
2
-3
-5
-5
-6
-31
-33
-9
-6
-7
11
-2
-4
-31
14
2
1
13
-4
0
5
33
2
2
4
-7
2
-4
-12
26
-6
-3
-3
-4
-7
-2
6
7
2
1
-3
-11
4
10
15
16
26
3
3
24
5
-3
-10
-1
-16
-4
-4
-16
-1
-3
-3
10
2
5
0
-7
-8
-4
-9
-34
4
-8
-4
-54
7
3
0
-17
25
4
1
39
3
0
-1
50
-4
-1
8
8
-11
-3
-1
-3
-13
-5
-6
-5
-18
-1
4
-3
-3
0
-1
0
10
-2
-3
-17
-5
2
1
-12
3
-5
-7
0
-23
-4
-3
-19
-11
4
8
8
11
-1
3
2
7
-4
-9
-27
1
-2
-2
-9
-1
-2
1
-2
-21
-5
-4
22
-8
-2
4
4
-3
-1
-2
-6
15
2
6
-6
5
2
2
2
0
0
-1
54
6
7
-1
22
0
-6
-7
-48
-13
-2
-3
-12
0
1
0
-21
10
2
2
-11
0
-2
-4
7
3
-7
-7
1
5
-4
-1
-12
1
-4
0
4
-5
1
-5
29
-9
-3
3
1
-4
4
1
-23
-3
0
-3
7
-1
-1
1
4
0
-2
-5
-76
-7
-3
0
4
-6
-3
3
55
7
4
4
44
-5
3
0
4
-7
-5
-9
-26
-5
-6
-2
4
-2
-2
-3
-12
5
0
1
15
3
2
-1
-4
-7
-1
0
-12
-1
0
6
13
13
0
-4
5
2
-1
-7
15
13
1
-1
-9
-2
-1
5
-16
-4
0
1
21
2
-3
-14
-54
-17
-5
-2
-12
-3
-3
-6
8
4
-5
-6
5
-2
2
6
-3
-8
2
0
-16
1
-4
-1
52
14
-1
1
9
-3
2
8
24
5
3
3
10
4
-1
3
12
1
3
-2
-16
3
-2
-6
-10
-2
-1
1
3
-2
1
3
-17
-7
1
1
8
0
-4
0
13
1
-4
-4
-13
-6
-2
-4
4
-14
-4
-1
-13
-1
6
14
37
22
3
7
0
2
-4
-11
-32
-16
-7
-8
34
0
-1
1
31
16
5
4
-7
4
-6
-11
-47
-18
-6
-4
-8
-3
2
1
4
1
0
-2
3
1
-1
-4
24
-14
-4
-1
-13
-4
-6
-2
-8
8
1
3
6
-1
8
4
-5
4
2
-2
-1
2
-3
-4
8
-4
-4
-3
4
-1
-1
1
-20
-1
1
1
-1
-5
1
-2
-31
-18
-5
-3
-10
0
-3
-2
21
7
0
2
3
-1
-2
-1
-11
-5
-4
-4
-5
-3
-2
2
-14
7
0
0
-7
3
-2
-5
-1
-10
0
-3
0
0
-3
1
-30
3
-5
0
-1
-1
-2
-1
11
-10
1
-1
-1
0
-1
-5
0
4
5
2
1
1
0
1
-27
-6
-3
-4
-4
-2
-2
-3
11
-5
-4
0
0
-4
-1
1
9
7
-4
-3
-7
-3
0
1
2
8
-4
-1
0
-3
-1
-3
-3
-3
5
2
2
2
3
5
-3
2
2
0
0
1
-2
-4
-4
0
-3
0
0
0
-2
-6
-5
-3
-4
-3
-3
-1
0
1
-2
-4
-3
-5
0
0
-3
-2
8
3
0
0
3
0
0
0
-4
6
6
-2
-2
-1
0
0
10
-2
-4
1
0
1
-1
4
-1
0
1
0
-4
0
2
1
16
0
2
-2
0
1
-2
-6
-14
-2
-4
-2
-1
-1
0
2
0
3
-1
-3
-4
0
-3
-4
1
-4
-2
-2
-1
-2
0
3
16
6
2
3
1
2
-2
-3
-22
-1
3
2
0
-1
-1
-3
-1
-1
-1
-2
-1
-1
2
2
2
0
-3
0
2
-1
-2
-5
-7
6
-3
-3
-4
-1
2
0
15
-1
0
0
1
-2
-10
-3
-14
8
-1
0
-2
0
9
3
0
-11
3
2
0
-1
2
1
-7
6
3
-2
-1
0
5
3
-4
-15
-4
-2
-2
1
5
-7
-2
-1
-3
0
0
-3
-13
-7
12
0
1
-1
2
-2
-2
4
-10
0
-3
-3
-4
-7
5
-6
-2
11
8
6
1
3
9
4
-2
-7
0
0
0
1
-1
0
2
-4
-8
-5
0
1
-3
-6
-8
-3
2
-1
0
-1
-4
3
-2
5
-4
-3
-1
-2
-6
2
12
-4
1
-1
0
-1
2
-3
-5
3
2
4
0
0
-2
2
-10
-4
-1
2
0
3
-9
-1
5
-3
-3
-3
-4
-5
4
-4
-6
0
-1
1
2
1
0
-3
3
0
1
-3
-2
-5
4
-6
0
-2
-1
1
4
3
1
-3
0
3
-2
-2
-2
0
3
23
5
-5
0
-1
-2
-4
-12
-6
-5
2
-4
0
2
4
-7
5
-2
-3
-6
-2
-2
-5
7
-14
7
1
6
-2
-1
-1
-2
-13
-8
-1
2
1
1
0
3
20
6
1
0
-1
-2
2
4
-2
-3
0
1
0
-2
-7
-21
1
2
-2
-3
1
1
1
5
2
-5
-4
-2
-7
-3
-4
14
-1
-1
2
-2
0
0
1
-16
-25
-3
-2
1
0
-6
-2
1
27
-6
-3
-2
0
-1
-4
-3
-26
8
6
1
1
6
14
-1
0
3
-10
-2
0
-4
-33
-1
4
-5
-5
-5
-3
-2
1
1
-8
-5
1
4
1
0
0
-6
8
-4
-2
-3
0
0
4
1
2
0
3
-4
-2
-1
4
1
-7
1
-2
0
1
2
0
-3
-4
-7
-1
-7
-2
1
-2
8
7
-2
1
3
0
-6
-9
-17
-1
12
2
0
-1
-10
3
17
3
-2
-4
-2
-1
3
-8
-3
-8
-30
-8
-5
-4
2
7
-8
-6
3
0
1
3
-7
-1
19
-10
2
-2
1
-2
3
4
-11
8
5
0
4
0
-4
1
28
5
19
1
-2
-3
-3
9
-8
-3
0
0
-2
1
-2
-8
-19
-19
-2
-7
-6
-6
-5
7
15
5
0
6
1
5
5
22
-12
-3
1
1
1
0
-4
-26
-13
-13
-2
-3
-6
-4
11
8
30
20
12
2
-3
-3
-17
-11
2
-24
3
-8
5
2
3
-11
-7
1
-4
3
1
-3
-9
8
16
7
-47
-18
-7
-5
1
-2
-5
-10
5
8
0
0
6
11
-7
11
-12
-4
-6
-2
2
12
-15
2
30
5
3
8
0
-18
-22
-17
18
-4
1
-1
-15
-22
-13
8
-39
3
1
-2
-7
35
8
-2
2
3
-4
-9
15
-50
0
10
11
0
-2
1
4
23
10
2
-1
0
1
2
-4
3
-9
2
10
13
3
4
1
-3
0
-6
-31
-12
-7
-7
-8
12
1
3
20
6
0
1
13
0
11
1
27
2
2
3
-19
0
-5
10
-33
-11
1
3
-6
-11
49
-34
3
11
0
9
-15
35
14
16
-19
-8
-6
-21
-9
-24
-94
-17
-16
-8
-3
0
-60
-1
18
-19
-13
-13
-4
-6
72
-25
-16
18
1
0
3
1
2
7
-4
-10
17
8
1
5
-4
8
31
12
1
11
3
1
8
2
-11
4
42
7
5
5
-14
-2
-8
25
26
0
-5
-4
1
-12
0
-3
57
8
2
5
0
0
-14
-14
-104
-46
-18
-14
12
8
3
-19
35
-2
-5
-1
-3
-1
-4
7
40
-1
8
2
5
-16
12
-10
3
14
8
5
-4
5
31
44
15
23
8
4
20
7
-25
6
31
2
-1
1
2
0
-13
-49
-12
-2
-7
-8
-22
-2
-19
-10
-100
-31
-10
-6
0
-4
24
5
18
-2
-4
-2
5
1
56
6
-20
2
5
5
1
2
-54
15
15
16
6
5
-8
-4
-4
1
-3
-5
-4
-6
18
5
6
4
30
-1
-2
3
22
-1
-13
-4
15
6
3
-4
-9
-9
56
34
-19
-11
-8
3
4
14
-1
-41
63
1
-7
-11
-14
7
20
8
-83
-22
-5
0
1
9
-37
-30
19
-10
-7
-9
-10
-32
-4
4
-16
9
7
5
-3
-1
-39
8
9
-10
2
9
16
3
-4
1
71
34
11
4
-15
6
-5
2
29
-20
-14
-10
-5
-17
-7
-17
-32
-3
-2
-3
5
-6
-3
18
-43
-6
-6
-5
-7
11
-27
-30
4
-12
0
2
14
-16
1
16
-20
5
0
0
-9
17
-20
-8
31
11
1
-4
0
-13
26
44
50
10
6
-3
4
7
35
-11
-4
18
5
0
3
29
-47
2
-59
6
5
2
-1
-12
40
9
83
-11
-3
2
7
-1
-2
-21
-28
4
5
4
-11
-8
-19
5
-21
2
-7
-8
-3
-10
5
11
14
-3
-2
1
-2
20
26
-6
-54
-10
-2
-5
2
1
-45
-50
10
10
-4
4
-2
-2
1
35
114
6
3
-5
-52
-12
28
17
55
14
7
7
43
9
-27
-49
-4
3
-7
-9
3
17
77
43
-25
-8
-4
0
-1
-3
-30
-14
-29
-11
-6
-5
1
-36
54
32
-24
0
-2
0
-12
-15
-105
-78
-26
-7
-2
6
-1
34
79
76
23
11
9
2
20
11
-104
-48
22
11
-4
-6
2
-42
41
5
-45
-62
-2
-15
-22
-23
-51
18
44
30
8
5
17
41
56
-22
-17
-5
1
0
-4
-41
26
-64
-29
3
-7
1
20
64
-32
-27
59
47
-3
-2
-10
-33
-53
29
-78
-24
3
2
-22
-34
19
18
43
28
7
-1
5
23
70
7
-7
-30
2
4
10
15
-44
-9
-8
13
-19
-6
-4
46
51
10
39
-39
-6
-16
-11
-42
-19
-8
-34
-9
-4
-3
-8
-20
39
-55
-45
19
14
16
33
48
12
80
31
12
2
4
-28
-16
-27
-23
27
19
2
-3
-4
-41
-14
-16
-56
-36
-3
8
11
24
-32
51
50
46
14
-4
-31
-74
-16
-77
-71
-21
0
0
5
25
-1
76
7
-52
0
2
0
3
21
14
-79
-85
-27
-15
-12
-1
-70
-76
44
33
-1
-2
25
33
18
-67
20
-14
13
18
25
75
-12
111
31
10
-10
-17
-35
-106
-26
-66
12
116
21
11
7
32
-63
4
-22
-128
-32
-9
-7
-6
-60
-89
-8
14
8
-10
-12
-44
27
31
-4
9
-10
0
6
36
-109
-66
-2
3
-16
-1
-1
7
115
14
49
-4
6
4
13
29
-85
-57
-67
57
10
10
-9
-1
90
21
44
-104
-9
-9
41
80
0
-59
42
22
-9
-16
-64
-125
91
117
-5
49
8
7
17
18
-56
11
-54
-126
-30
-12
-24
-31
-8
-56
-55
20
25
16
34
34
-40
-41
68
28
0
-15
-18
-10
46
83
49
-74
-5
-10
-28
-28
86
72
-39
14
14
6
9
41
-95
-49
9
70
-19
-4
-12
-7
37
4
-13
4
26
10
27
7
-72
-64
-80
-14
-11
-12
5
-35
83
8
83
-4
-1
0
17
-6
98
17
-42
61
25
9
-12
-15
-31
-54
-56
7
-22
-10
4
-41
37
12
7
3
2
9
0
33
-79
-45
-1
-38
-1
9
18
15
80
20
14
-39
-1
-4
0
26
27
127
32
-58
-13
-1
-8
13
-75
-27
-23
88
25
14
11
67
3
-5
-30
-75
-33
-22
6
-73
106
6
-8
31
-3
1
-20
-33
37
57
17
-23
20
13
14
76
29
-55
-67
-84
-7
6
-10
11
62
-24
87
127
11
-19
10
-14
-62
45
-13
-53
-7
-11
-40
-22
15
-73
-1
5
-13
-8
14
11
-43
-46
38
3
-4
-1
1
-17
127
-51
-36
19
10
16
27
78
-70
-93
-48
-2
6
8
27
24
-94
60
69
-26
-13
-2
-21
-5
46
-28
-1
38
17
-7
-16
-67
-96
-2
-20
43
18
12
-7
-12
-45
-40
-11
-34
-28
-19
-17
-13
48
-22
4
34
26
29
28
14
84
-69
-30
-16
-11
-9
-8
-1
53
53
51
35
-36
-29
-19
14
-37
15
37
6
17
-2
-13
-58
120
-2
-23
-33
-7
6
28
43
-32
20
35
49
5
8
0
-22
-65
-22
-20
-25
16
11
-1
33
47
39
-19
53
-3
11
24
21
-67
-53
-12
-49
-17
-27
-9
-13
27
-68
15
-2
-10
4
15
26
-30
22
-64
-16
-1
-5
-6
33
-67
-2
104
-42
-11
-8
-26
-58
-53
-24
-33
16
-1
7
-5
-11
37
15
-63
60
-7
-22
-16
39
-21
46
79
-24
11
6
-13
-21
-49
-12
-93
1
-2
1
24
6
19
61
-63
63
-10
-2
4
32
70
76
-7
16
-26
-15
-15
-14
-12
94
10
-38
5
-3
-25
34
59
-90
-15
-9
-1
14
-26
-43
-60
-54
64
2
-13
-20
-13
-1
-120
-5
-19
12
2
-6
0
-28
61
-43
17
48
1
-4
1
49
-11
84
31
7
9
8
-15
-42
100
-12
-15
16
10
2
20
8
-77
-64
45
-35
-1
13
-2
0
94
14
65
0
-2
-3
19
-28
10
-13
-55
36
-10
-8
-2
34
7
-21
47
-7
2
9
-7
-17
-29
12
26
-62
-13
-16
-10
-59
-3
-2
-36
50
-23
5
17
56
96
43
-2
-21
5
-3
20
67
-50
84
-33
15
20
7
17
68
-16
-50
-27
-50
3
7
-47
-25
-67
-35
12
4
8
22
-6
15
90
-32
-38
1
11
-9
-12
-16
-41
-26
-21
104
-3
-6
5
-7
-78
63
-1
-75
-2
-2
25
69
29
-14
12
6
-36
-19
-24
-116
-128
-9
30
0
-2
-20
-1
7
-35
-53
-25
20
9
16
-4
-28
89
127
19
38
6
10
27
7
-91
-1
-28
-34
19
20
0
3
99
-8
22
31
-16
-11
-8
-11
89
9
-34
-90
-3
6
15
72
1
-49
32
88
10
4
-29
-74
36
-12
-74
-92
-5
-13
11
43
-7
-7
49
80
0
-3
-26
-16
-35
95
-23
-93
-24
-23
-19
13
11
-2
29
58
25
24
20
4
86
12
3
14
6
18
6
3
6
-59
34
25
13
-13
22
36
12
-34
-38
21
-13
-13
-36
-70
61
18
6
-74
14
0
19
2
-116
8
19
93
-8
-4
-3
-25
-32
-9
-50
-72
-18
13
28
44
-64
-41
44
25
12
4
-5
-27
4
21
-25
124
-32
-9
2
39
-17
58
-38
-90
-7
-16
-34
27
23
-103
-20
-17
12
21
37
-4
-59
15
78
16
4
-3
-12
-8
-97
-41
-12
89
-14
7
19
-5
54
17
52
-41
11
-7
26
28
-77
-62
-32
-77
1
-7
-53
-56
15
34
-3
-9
-1
-8
-12
-4
42
-95
-6
-33
24
10
19
73
10
10
29
81
-15
-18
-16
-90
106
36
4
-72
24
11
6
21
-98
-20
-3
-61
-14
1
-8
-27
94
13
29
-86
22
5
-14
11
19
14
-91
27
-3
10
11
-15
0
-19
92
43
3
-2
8
33
5
17
-48
44
12
9
-20
1
-1
74
-10
15
-10
-11
10
16
-50
32
25
-48
-7
-13
-20
-12
2
12
2
0
-18
-3
4
13
9
9
43
80
-1
4
9
22
8
33
-45
-97
12
-1
26
14
47
17
23
18
37
9
-64
-78
32
-54
-30
14
-25
-13
2
-60
12
-48
5
-47
-9
-5
8
-26
-60
-12
-22
53
20
9
12
16
-36
-64
4
65
-11
1
-36
-38
-42
43
5
-47
1
-3
10
39
31
9
-27
-128
-26
-3
8
-13
1
51
-32
58
-16
3
6
49
-87
-128
-69
-34
-8
-20
1
-22
26
15
-10
67
15
4
7
-8
18
49
33
30
11
2
15
9
-62
-55
43
-24
-5
-2
-37
-60
-12
57
-5
101
-17
-4
14
-8
-46
100
-30
-15
8
20
24
42
2
-46
11
-8
-20
-26
-10
16
31
-39
-1
-57
8
2
-21
-7
-27
32
-44
-26
5
5
30
20
-3
-31
16
41
-13
1
-30
-44
28
26
24
-34
13
0
7
37
-17
14
-8
62
-12
-14
-23
-77
-4
-29
9
-42
20
8
24
41
-37
-15
-23
-103
-5
6
1
43
49
24
1
46
-2
16
15
22
-6
51
52
-24
2
-28
-48
-71
23
-19
34
-2
12
8
25
4
-50
-5
-17
66
7
16
12
44
23
-41
41
99
-20
-5
-10
-65
17
39
-1
-21
-6
-16
-9
-12
-11
18
-32
83
-7
10
13
21
1
-61
-102
-89
19
7
3
98
31
-74
70
59
-3
1
3
-48
-64
96
22
-71
-22
-14
-26
-45
26
6
-55
7
12
-1
-13
-28
-36
-18
46
44
-18
-23
9
8
67
-11
-58
-33
17
23
14
73
-1
-27
-15
40
-7
0
25
-43
-11
-3
34
-128
-4
3
-8
16
-30
39
5
27
-8
-5
-9
-52
44
11
-8
-47
1
-3
5
59
-89
-6
9
70
-6
5
0
-11
10
66
-3
-33
-12
-2
11
-6
-25
-57
8
-20
0
6
11
0
-40
43
-8
-4
6
-5
-16
-41
-27
-78
-50
-55
-3
5
-3
48
-85
-38
56
68
0
-1
12
18
-14
18
-3
11
5
-18
-29
-8
34
38
-41
-46
-17
0
23
37
-14
10
39
93
2
7
-11
-53
0
26
-5
7
18
11
-4
49
19
-5
-31
-35
-8
-7
4
-72
-123
-16
-20
7
8
-10
-13
-17
102
-18
-54
42
-7
-1
48
101
-6
14
12
-15
8
9
-32
-41
-47
3
72
87
-18
-1
-3
-8
0
27
-3
-22
9
-2
-7
-4
-22
-4
-8
-19
-4
-2
7
30
26
-45
17
21
-11
-9
18
0
58
31
-6
-21
0
5
19
75
-57
-4
10
-9
12
-2
-27
-96
34
-26
-6
19
17
16
-15
21
22
24
-2
-14
-2
5
28
48
-123
-32
41
27
-18
-19
-37
-120
30
88
48
-15
-17
-16
27
39
-15
-60
8
-65
8
-5
6
-8
8
12
23
-128
32
9
2
1
-1
-20
-75
14
-1
0
-1
10
-26
-54
-25
79
26
20
-2
8
-46
27
24
-80
18
-10
1
-29
50
-97
52
49
-18
9
-4
-10
88
76
-34
9
-5
-13
26
76
9
-77
41
23
-21
-17
-8
-33
35
-44
-40
-29
53
18
1
61
-28
12
-15
4
12
18
22
7
60
-35
-9
-1
-11
-8
-2
-13
9
-8
27
68
18
-1
2
52
-78
22
-19
3
-30
-10
-1
-71
-75
8
-39
-88
-37
-24
-31
-18
-8
7
19
9
0
-3
-1
-24
-33
9
-11
-10
5
-1
-30
-50
-25
5
33
22
-13
8
7
8
56
-62
-30
-35
6
-10
-34
-12
-38
49
32
-20
-2
3
27
-37
-83
-1
7
-3
46
-10
-5
-37
2
56
0
6
-25
-1
23
47
-57
-20
-54
-39
-17
-3
8
38
109
18
11
-43
51
22
3
22
-34
-46
8
51
-18
3
5
26
-3
-2
-35
-33
8
-14
-4
38
56
12
19
61
12
10
-12
6
-69
-98
-24
-22
-14
7
-18
18
63
-53
-51
-10
-22
-9
17
4
62
20
78
34
-13
-19
-64
-70
74
-16
-39
56
7
7
10
20
-50
-76
79
3
22
8
-22
-25
23
9
-84
28
-5
17
12
21
-24
-30
-3
-37
-38
-26
6
-16
-50
26
52
99
9
8
13
-39
93
90
-20
-40
-6
-29
-8
99
-8
-24
16
-38
6
4
7
11
5
26
18
6
-6
-1
-24
-52
-67
39
-5
5
12
-7
-20
-22
60
27
6
44
8
8
19
-5
24
111
-15
-67
2
2
-3
18
-41
-56
-42
-33
-6
0
-12
12
26
9
2
47
-25
-12
-1
-15
7
7
-4
-31
16
23
25
15
21
24
-31
-29
-10
-34
-23
-28
40
-46
26
54
8
14
7
12
-83
56
13
-21
-8
-3
-2
7
51
-70
-17
97
5
18
41
75
-87
-2
92
-23
-9
-21
-34
-109
49
58
-25
13
15
-5
-2
24
-58
-34
25
-64
18
3
3
-12
-72
3
-100
-16
-19
-11
-14
-7
-3
-12
36
2
-22
-2
-56
-21
82
-14
-28
120
5
-1
54
38
14
-3
-8
-20
-1
-17
2
-9
-36
-25
70
-30
-8
17
-6
-46
-30
-16
-117
-73
18
11
18
57
-20
28
30
11
-18
-8
-10
-20
49
2
-14
-4
-24
-13
2
15
-31
37
16
18
10
0
-5
-1
39
-84
32
127
-15
10
21
-10
-22
32
-29
-56
17
13
4
2
-39
-39
-14
-8
9
11
6
-14
-49
99
14
38
-33
-27
-41
-8
-16
-45
46
40
1
15
23
10
32
78
-13
23
-1
-2
16
30
35
-39
41
10
-6
-2
-16
-39
-46
-4
-20
-16
-18
-11
-27
-36
-17
-19
-49
-15
-1
1
-18
8
4
-52
2
37
-8
18
19
69
46
22
26
38
-6
-24
7
-73
-12
-41
12
-89
10
19
-4
-40
39
49
-49
-11
7
-3
35
58
-76
-38
18
-57
-17
-8
-34
-11
42
-14
-96
-47
-21
4
11
43
72
42
80
127
31
12
12
3
-53
-13
8
-108
-4
2
-4
-23
-53
-31
5
-36
2
0
6
-33
-2
4
-45
-10
-14
-3
-13
42
-3
18
-27
39
7
-8
7
-24
23
-48
-49
-42
-21
-6
-7
37
39
106
34
10
13
10
3
-12
26
-42
48
13
-13
-23
1
12
-26
-48
-82
-12
-8
3
-11
3
-82
51
-1
-11
18
17
19
14
-37
-53
-9
-25
4
-15
-2
0
39
51
73
-4
13
1
-14
-8
-96
-27
-30
-23
-2
0
20
107
24
-37
-35
25
-21
-10
-68
-68
-30
-13
-24
-92
-16
2
-10
12
-54
-54
11
-101
41
-8
-4
17
-14
48
21
26
4
-5
9
19
60
10
74
93
3
22
27
14
5
37
-46
56
2
-17
-33
-26
21
-7
-81
-61
13
7
11
27
63
43
39
9
-23
-13
-15
-48
-23
12
17
65
-3
9
8
-15
-40
-38
75
30
13
0
0
-33
64
-8
-65
40
-5
-6
2
51
30
-11
36
7
-34
-20
-12
-86
-13
-61
-11
-29
1
-7
14
-11
57
-21
-6
41
42
18
10
12
-40
19
5
24
-19
4
2
17
-31
-74
-15
20
-2
3
0
21
-29
101
28
-70
15
-10
-46
-40
-8
-8
27
14
-13
12
19
-20
-25
2
19
51
0
3
8
14
-35
-88
-14
-3
1
5
-18
-45
14
92
2
-29
22
12
46
127
-15
-60
3
-35
-18
-13
-9
-94
-4
17
56
119
4
-13
-17
-51
37
-52
-41
-56
-14
-2
10
20
-10
13
11
11
-15
11
19
3
86
-36
-16
11
36
6
16
127
-94
8
-20
-26
-8
-7
-20
-81
50
-29
-7
18
9
-6
-16
-66
-31
-49
77
15
6
1
8
-4
32
65
-79
57
-17
-8
0
19
-20
-30
30
-75
-12
10
7
18
10
39
21
64
25
8
29
77
109
-48
-33
81
7
-1
-9
-32
14
-78
5
-76
-17
2
18
-11
42
89
-9
25
13
12
15
29
-73
23
22
-23
-15
-3
-2
-14
34
-36
-22
18
-12
-19
-21
-11
-26
5
46
9
7
0
-15
-26
41
24
-27
-7
-2
1
-63
6
20
-63
-9
-34
4
15
63
53
-96
-4
27
-15
-4
-18
5
-20
9
-1
-17
-55
-7
-3
-8
-18
-12
-45
9
-25
-2
-2
-18
-30
11
14
34
15
-5
-7
-5
32
-19
25
-39
-20
11
4
-1
16
-5
-10
-37
15
-12
-8
-1
-20
12
-57
13
-7
-6
9
17
14
-25
62
-32
4
14
3
-9
-7
28
38
28
-33
-7
-3
-4
-23
-15
-29
10
-6
-9
-5
-10
6
-9
-6
21
27
-6
-11
15
2
38
11
-36
-21
-6
-1
-24
-9
-1
-24
-31
-17
-3
-3
9
0
2
0
-31
18
0
-6
-19
19
-29
11
23
2
-8
-6
39
-8
18
34
25
-19
-1
-6
-9
-12
21
12
-10
3
4
13
-6
-4
-7
18
25
-3
5
3
12
3
-1
-10
-13
14
5
3
-11
2
-1
-3
7
-11
-5
-5
-6
-6
-1
-30
-3
-13
3
6
-14
15
-22
-9
0
4
-4
-11
-8
-7
4
-6
9
2
-3
-11
-71
35
-9
-39
-12
2
-4
4
80
-24
-6
-50
-6
-12
1
0
-22
-8
2
-30
17
10
3
10
7
-2
11
-11
-12
9
1
7
-7
5
1
8
20
-4
-1
-6
-11
-1
-2
-2
-27
-7
-8
-3
-46
0
-1
-9
20
-4
-4
-6
57
2
10
-13
-9
1
-2
0
-2
-4
-18
20
3
-7
1
-14
3
-9
8
12
-26
-12
-1
-10
14
4
-16
1
31
7
4
14
-64
6
-4
9
22
2
1
9
68
-3
-9
-5
23
9
4
-12
-57
4
19
16
-43
-11
-9
2
59
-19
-12
36
13
-11
-7
-11
51
-23
6
-12
-22
-4
-5
0
-70
-2
-13
11
2
4
12
12
-52
19
39
10
0
10
5
-8
-5
-17
-70
16
24
6
0
16
-1
4
1
30
-49
-6
-5
0
28
-4
-4
21
32
-8
-12
-18
77
5
-28
-18
17
-5
-5
-16
-33
-17
34
12
-48
-1
1
5
-4
3
14
5
51
14
7
10
-27
-9
39
-3
-64
-5
5
20
-75
23
-24
7
56
9
5
8
38
13
3
27
54
14
4
-16
-40
-3
-41
7
-62
-1
-8
-22
39
10
12
12
6
-23
-12
9
-8
-24
11
28
-16
-16
7
5
50
45
-9
8
-45
-2
-13
-16
-97
40
17
9
12
-9
0
2
88
-91
-40
-5
75
20
10
4
-76
-34
-2
7
-88
-34
-7
-13
12
-13
10
-8
38
9
3
14
98
23
-18
-23
27
3
-1
-12
-77
-13
14
29
74
43
13
33
97
39
-19
-21
-80
-36
-12
-18
-66
-68
3
-1
-68
-8
-1
4
70
-7
11
-17
46
13
-3
4
61
19
20
-9
-36
0
10
-3
-80
-20
-6
-8
127
51
9
16
45
50
13
-36
-95
-24
-21
-38
-10
-62
-31
-11
-46
-43
-12
15
20
23
-4
-3
-52
-30
1
-20
-21
-23
2
15
40
26
0
-4
-35
-3
20
17
68
23
4
5
-60
9
14
8
11
26
16
21
19
32
0
4
-104
-14
-12
-13
-39
-60
-3
3
69
-16
-20
-10
98
14
-11
16
36
31
16
7
24
-1
-5
-9
-40
-18
-7
-16
-59
-11
2
20
68
16
11
7
7
34
6
9
-48
10
4
-1
-45
-5
-10
-4
38
-2
-6
10
18
6
12
25
49
29
9
4
20
8
31
-20
-17
1
-11
-9
57
7
-7
-7
36
-7
-1
3
-46
2
4
-3
-14
-28
0
3
23
1
9
-2
-29
-7
6
1
-28
4
-4
-22
30
-5
-17
-12
8
-2
-22
-3
-25
9
7
8
-15
-1
-11
7
-33
-19
0
-1
-39
-3
-1
-10
19
32
-7
-8
-15
5
-13
6
-18
-7
-2
15
52
10
12
6
6
6
5
-14
-39
0
0
-4
-17
-17
5
4
3
13
-12
11
-22
0
1
-4
-15
3
2
-6
1
-21
-16
-18
19
0
-5
-2
-22
-7
-1
13
68
-5
9
4
40
12
7
7
5
5
1
-2
30
1
-1
-6
-8
-1
-8
0
-29
15
6
3
8
1
-1
-16
-68
-23
-7
-6
-31
8
1
7
44
18
-2
-3
0
-2
2
3
-28
-3
3
7
48
1
-10
-7
21
-10
-2
-8
-66
-1
5
-3
53
10
5
7
15
-8
3
2
-13
4
-2
-2
-10
-3
4
-6
-15
-18
0
-1
-16
-9
-8
-5
51
-4
-1
-4
-7
3
7
12
-33
10
-1
-1
-12
0
11
-16
-29
2
-3
3
-35
-1
-24
-3
5
-4
-8
-12
32
-1
2
5
14
-5
1
4
37
5
-10
-3
-88
-14
-2
-2
-13
-3
7
1
21
-7
-3
-4
-14
6
1
5
-14
1
9
6
-67
-5
-1
4
9
10
-4
3
36
6
7
-1
10
-10
-7
-2
2
0
3
6
-11
-3
6
5
23
-2
5
-12
29
0
-4
-5
-13
-4
-6
-10
-10
0
2
2
-1
-3
-4
6
66
9
1
4
0
5
-10
-13
-60
-26
-10
-20
-22
-5
-1
0
51
7
-4
0
91
4
1
0
-42
-3
-1
-1
-26
6
8
1
40
1
3
4
14
-50
-13
-8
-22
5
-1
1
-3
-8
3
-9
-20
-23
2
1
10
9
-1
-4
-20
0
0
-4
-11
-3
4
-2
-38
12
-1
-2
-30
12
-15
-5
61
-3
-4
1
43
-2
5
1
-73
-23
1
3
-3
-8
-2
10
38
35
-1
-1
-23
7
-4
-12
18
-9
-1
-6
-16
7
0
2
-23
-2
0
3
14
-6
9
5
11
1
1
1
-10
7
-12
-19
-48
-19
-11
-9
10
-7
-7
-2
-8
-2
-3
-3
1
3
5
5
8
2
1
-3
-27
-3
17
2
31
0
-3
-1
1
-1
-38
3
-24
-12
1
-1
1
-5
0
-13
21
0
-5
-4
-21
0
3
1
4
5
6
12
19
4
-3
-7
3
10
-2
-12
-26
-3
10
9
11
-11
-2
-1
4
-1
4
0
-9
1
6
3
4
9
-5
1
-12
1
-2
-1
2
1
-3
-4
29
6
0
-2
-8
-2
3
-11
-14
-10
-4
0
5
-3
-7
10
-4
1
-3
-8
8
3
1
-14
-32
-13
-6
-5
-29
-3
3
6
17
1
2
4
49
-2
-1
-3
14
7
-2
-3
-47
-5
5
-2
-18
7
1
7
60
6
-4
2
27
-3
-5
-5
1
-3
-2
-5
-5
-5
-3
-3
-25
0
4
6
11
13
5
2
-8
-5
3
-7
-4
-8
-2
3
11
-1
-4
-7
-18
-4
-1
-2
2
-2
-2
3
15
5
1
2
-6
-2
7
5
-9
-22
-2
-1
16
1
-1
0
9
14
-4
-3
-33
0
0
0
5
15
0
-2
-8
-1
-2
1
-21
-12
-2
1
-13
-4
2
-4
-17
-10
-1
2
19
-1
-1
-2
35
0
-1
-3
-16
0
1
4
-18
-11
-1
-4
-1
1
-5
-8
-35
-8
-7
-6
-12
-3
-1
-3
56
8
0
1
3
-1
-6
-7
-64
-6
-5
-7
-6
1
2
3
14
1
0
1
3
-1
0
-3
8
3
0
0
0
2
2
4
15
-1
2
-1
-12
1
3
-3
-17
-5
-1
1
6
0
-6
1
-14
-1
0
3
19
2
3
-1
-4
3
-1
1
-2
2
-4
-4
-25
-6
-3
-1
-1
1
-1
0
18
-1
3
2
9
3
0
-6
-15
9
-3
-6
-31
-6
1
10
-13
-2
-1
2
10
2
-4
-10
59
-3
-7
-6
10
-1
-3
-13
-67
-17
-2
-2
-11
-3
2
2
28
5
3
2
-17
2
-2
2
21
11
3
2
6
-1
2
-1
-27
-11
-2
3
25
-3
1
6
34
3
0
-2
-9
1
3
2
-14
-2
2
2
4
2
-10
-19
-19
-14
-11
-9
-22
-5
3
4
-18
14
4
0
4
2
-2
3
20
-3
0
1
17
-1
2
6
10
5
2
1
4
0
-1
8
39
4
1
-1
12
3
-9
-11
-47
-20
-2
-1
-12
-1
-4
-2
6
6
-3
-1
-2
-3
0
-2
2
-7
0
2
20
-2
2
3
15
3
0
0
-8
-2
3
2
-2
14
1
-1
3
0
-3
-1
-38
-16
-3
-2
-6
0
-1
-4
8
-1
-1
-3
-5
-2
0
2
-1
-1
-3
-1
1
-2
2
2
-2
6
-1
-2
-7
-1
-2
-1
21
3
2
1
-4
-1
0
1
0
-1
-1
-4
-1
0
-2
-7
-28
-3
0
0
-5
0
1
0
-12
-7
0
0
-2
-4
-1
-2
-1
1
-3
0
-34
0
-3
-1
-5
4
-3
-5
36
-5
0
1
10
-1
1
-3
13
-2
-1
-3
-8
-4
-1
-1
-18
0
-1
-3
5
-7
0
2
1
-2
0
3
-2
3
0
3
-13
1
-3
-4
-22
-5
-6
-5
-5
-5
-5
-6
-14
-3
-2
-2
9
0
4
3
8
9
-1
-4
0
2
-3
-2
20
-14
-5
1
-11
-3
-2
-2
-26
-1
2
1
14
2
0
4
4
4
3
2
-3
2
1
1
30
7
-4
-3
2
0
0
-3
1
2
0
-3
-2
2
-2
-1
-7
-3
-3
-3
-12
0
2
3
11
5
0
-3
-2
-1
-2
-3
-20
-6
-3
-3
11
-2
-3
-4
5
-4
-2
-1
-1
0
-1
1
7
4
4
1
-12
-1
1
4
11
7
1
2
11
-1
0
6
32
0
1
-1
3
-2
-4
-14
-43
-5
-1
-2
-16
-3
-1
2
12
0
-1
0
8
3
-1
-2
-5
-6
-4
-4
0
0
1
-1
6
2
0
0
0
-2
0
1
-3
7
4
-1
2
0
-3
0
-12
-5
-3
0
-9
-3
1
-1
8
-5
-3
-1
3
-1
-1
0
-11
4
2
-2
14
1
-3
0
5
5
-3
-2
-6
0
1
-2
18
5
2
4
1
-2
-1
0
-7
-3
0
2
0
0
0
2
-8
-3
-3
2
-4
0
-2
-7
-7
-8
-4
-1
0
-1
-1
-2
-2
-4
-1
-2
-4
-2
-3
-1
-12
3
-5
-2
-5
-1
-1
1
10
-9
5
2
-3
-1
0
3
16
6
-2
-3
4
-2
2
-3
-23
-8
-3
-2
-4
0
-4
-4
1
-5
-2
-2
-5
-2
1
-2
-5
6
2
0
-1
0
3
6
3
5
-1
0
1
0
-6
-8
0
-5
-2
-2
-2
-2
3
4
12
0
0
-3
-1
0
-3
-5
8
-6
-5
-1
0
2
-1
0
-17
-5
-2
-3
-4
-1
1
1
6
7
1
2
-3
0
-4
0
-4
8
4
-1
0
0
-4
-4
0
-6
-1
2
-1
-3
1
1
1
3
3
1
0
0
0
-1
3
-3
-3
-2
0
-2
0
-2
-5
-1
1
0
1
0
7
5
1
10
-1
-4
-2
-1
-16
-6
-9
-16
-4
-1
1
1
1
-4
5
8
3
1
-2
-1
0
0
8
0
4
0
0
0
-2
-1
-19
-1
-4
-1
-1
-1
3
-3
0
0
-1
-2
-1
0
0
-4
-13
-4
0
0
-3
-1
0
-1
1
-1
-1
0
-1
0
0
-3
23
4
-2
-2
0
-2
10
0
1
-10
-1
-1
0
-1
-2
5
6
3
2
-1
-1
1
-8
-12
-8
10
-4
-2
-2
-1
8
-2
-12
-13
-1
-1
-1
-1
2
4
-17
4
-1
0
-2
-2
-4
-1
4
-4
3
4
1
2
-14
6
-2
-4
-7
-3
-1
-2
-27
-21
4
1
-4
-3
-4
-8
-6
-7
7
3
-3
-4
-2
-7
-7
-3
-3
-2
0
-2
2
2
20
3
5
-1
4
0
2
2
0
27
-8
2
2
3
-1
2
2
-4
27
2
1
1
1
2
-3
-5
-22
-6
-5
-2
-1
0
-6
3
-6
-4
0
-4
-1
0
13
-8
5
-1
-1
2
0
5
-12
7
3
2
0
0
-1
2
-8
13
-11
1
0
-3
-4
-7
4
-26
5
-5
-4
-5
-3
-3
8
3
-4
-1
-1
1
-1
0
3
5
-8
0
0
-1
4
0
-2
10
14
1
-3
-2
-4
-3
-6
-7
-3
-1
2
3
2
-3
-7
-8
-2
-2
2
-1
-1
-2
15
7
-11
-2
1
-1
-2
3
11
-15
4
4
0
-1
4
2
-15
10
-1
-1
-2
1
2
-1
-5
-8
25
5
-4
-5
-6
-3
-7
-11
-29
-13
-3
1
1
2
24
8
-1
-4
-2
-3
0
-2
-4
-4
14
3
1
0
-5
3
1
5
-4
2
3
4
2
-1
-15
4
15
8
1
1
1
1
-34
-24
16
-1
-4
-2
-3
-5
24
14
-24
-10
-3
-1
-1
-5
-18
-3
5
2
0
-1
2
-2
6
-4
-10
0
-1
0
0
5
-21
-1
16
4
2
0
5
1
-12
0
-8
0
-1
0
-4
2
8
-19
-33
-6
-2
-2
-2
-9
8
-15
-37
-10
-8
-5
-4
-8
17
7
18
3
2
0
-4
4
-12
-3
4
1
2
1
-2
1
24
43
7
4
0
-2
11
8
-38
-19
2
4
-1
2
1
-7
46
-5
-4
1
-1
0
-4
9
-9
13
26
5
2
2
1
-2
-8
6
-21
-11
-5
-7
-17
-12
-1
7
25
5
1
-4
-7
-7
22
2
-27
-3
-1
2
4
3
11
-27
-3
-4
0
3
0
8
-1
7
-10
-1
-1
-1
2
2
16
0
14
0
-1
0
0
-3
-15
-9
-27
-3
-2
-1
-2
-1
13
30
27
6
-1
-2
-3
-5
-11
-27
3
-3
2
3
3
3
-5
15
-14
-4
-3
-3
-5
-6
30
-39
26
6
-1
0
4
13
14
-14
-5
-13
-5
-12
-10
-19
0
-1
2
4
6
3
0
-5
31
-4
-37
-2
-3
-1
1
2
-76
7
-18
-7
-2
-1
-3
-10
3
-5
-8
1
-7
-2
7
11
-25
-7
23
14
3
4
-2
1
21
15
13
-11
0
-3
-6
-2
-32
84
1
1
1
0
2
3
31
-68
14
-16
-7
-6
-7
4
-16
5
-32
2
-5
0
19
15
20
-6
5
1
-1
4
10
3
-24
-30
36
2
0
-5
-20
-20
18
19
-39
-8
0
2
9
-5
-14
34
16
0
-6
-6
0
13
14
-9
-25
-5
3
5
8
18
49
-10
19
-4
-8
-5
-2
-5
-7
68
-6
17
3
4
-8
-2
9
-58
-29
-18
4
-1
5
-15
-12
-39
36
6
-3
2
10
13
-24
21
9
7
10
0
-6
-6
20
27
-39
-13
0
1
5
12
46
16
0
44
-6
-3
-1
-1
-11
14
-27
-52
-8
2
-5
20
-11
-26
-12
0
-4
-4
0
-29
-1
-8
-2
-5
-4
-5
0
-19
57
21
28
26
-1
-4
-15
-13
-71
-28
2
-3
4
-1
7
3
0
30
-13
-35
-13
2
2
58
-8
-12
50
23
12
-4
-12
-35
16
69
-10
-7
-10
-6
-13
4
-7
-92
26
9
14
-5
-8
-51
-10
10
-57
-29
-4
-3
-13
-12
44
-12
15
-5
-12
-3
6
34
25
5
15
35
33
15
1
6
-44
9
-9
0
-21
-7
0
28
67
11
33
15
13
4
-4
-11
-128
-95
-45
-12
-8
-10
-8
-33
63
6
-22
-58
-29
-8
-13
-7
46
125
18
46
17
3
17
12
17
-51
0
-31
-9
-9
10
9
-36
93
16
17
4
16
9
27
-95
-39
-22
-17
1
-4
-10
-29
62
-30
-55
-4
-26
-8
6
19
-1
14
20
-10
10
5
12
23
20
-65
60
20
15
-6
-32
8
-80
-20
0
-11
-3
2
19
-16
-7
-11
14
0
9
3
-15
-19
37
45
-25
-19
-4
-1
15
26
-11
14
38
12
-9
-2
0
10
58
-74
-39
-9
-2
-6
2
32
-82
70
37
-31
-3
-9
-38
-58
12
-58
-9
83
-8
18
28
2
-15
-15
6
-58
21
17
36
39
55
42
6
43
-11
-15
-26
14
-45
51
-50
-41
-13
-8
-22
-97
3
-99
-97
31
9
3
-19
-7
45
19
6
-82
-9
-2
-10
7
-68
10
20
72
21
9
40
-2
53
8
-7
-13
3
-8
22
68
5
24
87
15
-16
-9
-24
-9
-13
29
-93
14
-12
-1
11
-27
-36
3
22
-46
20
21
4
22
-52
-32
-26
-34
9
-5
5
48
-65
17
50
-9
-5
17
-17
-41
68
23
-46
24
-16
-31
-26
-51
36
-18
10
21
10
16
22
28
-17
39
-24
-9
-10
-12
-22
-38
97
7
-18
26
33
17
-5
-8
-59
34
0
11
-17
-5
7
48
44
88
-11
-38
-35
-15
0
-13
123
-105
88
16
2
-3
13
-15
-39
5
-18
49
1
-3
-8
-48
-82
-30
14
-6
11
12
-8
7
11
-44
21
35
11
1
-20
50
0
-35
20
11
3
9
-13
-51
33
-2
-59
18
-14
-25
-28
-36
104
-46
35
-33
22
26
39
88
-120
-40
-18
8
-15
8
-5
4
73
53
25
5
8
-12
-2
-57
46
-10
54
-24
-16
-7
22
66
-11
8
-14
-25
-22
-15
-7
-77
-74
-61
42
-8
5
-20
-59
-79
-18
9
16
44
13
14
9
37
-61
7
14
-70
8
3
4
11
-49
-15
-6
108
-13
-11
3
-52
43
26
-14
-43
-4
17
14
2
26
-32
-38
-111
-3
1
19
107
-34
62
16
57
3
-17
-6
-75
27
50
43
58
29
9
-1
26
27
-54
-37
-77
-19
8
16
17
-86
3
-53
73
-1
-2
-6
-3
27
43
17
58
-27
-11
12
77
-61
-28
-40
-51
-13
-3
-20
38
72
-15
84
-69
-34
-18
31
-9
-42
-46
-48
-36
15
9
8
65
11
48
29
-7
7
-1
-16
-22
-92
-24
-56
18
-4
0
-16
-82
61
10
-19
-30
19
1
7
79
-6
-4
65
94
-6
9
24
-24
-16
-39
-22
-99
-8
-15
-11
-1
83
-33
16
21
-2
0
-16
-22
-89
32
-39
-16
10
13
25
-29
77
8
35
10
0
1
24
93
-120
25
1
-68
0
3
7
-64
18
-27
-23
-8
8
-15
-58
-72
-40
24
-22
-57
15
1
-17
-86
-32
-41
35
26
-2
4
28
17
39
-77
30
28
-10
-13
-12
-50
-26
-4
3
12
-13
2
36
59
30
49
19
111
22
-10
4
6
-38
18
24
-1
-15
10
-57
-60
115
23
-67
-61
25
32
49
121
-72
23
13
21
14
10
12
-28
-52
-24
-76
50
-33
-39
-52
-84
38
48
74
-13
-2
-5
12
74
5
-9
-14
42
-7
5
-3
-8
15
12
25
-10
-3
6
4
-49
-11
-27
-14
-23
8
21
35
58
32
86
-17
31
7
-10
-15
37
-116
-18
-10
-64
-35
-2
9
-52
12
69
6
1
-5
-7
-1
23
-65
-57
-16
17
1
-8
-24
83
116
35
-38
-54
11
16
23
-112
-30
-54
38
-33
-2
-12
-33
25
50
46
10
-23
12
2
7
79
-11
27
46
-7
-3
-2
-4
-73
-26
7
-16
44
21
1
-9
0
-14
-53
-34
111
14
2
12
-23
-45
-41
-12
-87
-26
-12
-6
53
2
16
69
-48
-8
-4
-15
-58
-51
-47
-94
-32
7
4
-3
25
27
36
10
40
-29
-4
1
-96
38
-3
0
8
15
-27
7
56
29
16
84
66
16
4
-14
20
-1
29
-33
33
-21
-8
6
-51
22
72
-20
19
-15
-11
-7
48
82
34
-7
7
33
25
12
-7
67
-41
9
-85
-2
8
-3
49
-40
-54
-64
-28
-26
1
-20
27
-15
28
38
88
-20
-25
21
5
-60
-31
-9
25
-7
-8
2
-24
25
39
-43
-54
26
12
10
104
69
4
4
3
-19
-11
-45
-111
93
-1
16
-14
15
8
19
40
-6
-2
6
62
46
-2
-7
-17
-20
3
-27
124
-8
9
25
14
-113
-67
12
-64
-9
7
-16
14
51
-40
-31
-15
30
2
-10
39
1
-7
24
-9
-21
6
15
-42
-15
-14
-17
21
-1
-5
-10
-52
112
21
1
14
8
6
8
51
-24
-88
30
-26
-14
-11
25
-38
118
-19
-19
-30
-3
6
5
65
5
-2
12
62
-12
-3
14
-28
-50
-6
-40
-64
-36
-30
2
-3
-95
22
-7
-120
34
0
-52
-97
-66
-29
-22
61
-18
11
28
76
4
-98
26
52
-16
-14
-4
79
-14
39
79
9
33
-2
-12
-89
1
15
-49
1
-3
14
-1
118
-41
12
48
-118
-23
-1
1
-69
47
25
-54
-107
15
-2
-16
-31
-107
-51
53
98
-19
3
-1
18
-41
-32
-44
-25
10
5
46
45
-9
29
6
20
-13
-11
-90
-84
65
13
8
-75
-10
-9
23
62
13
0
-4
-8
11
6
-3
-37
16
-17
13
16
7
-11
-15
-8
-44
-79
-23
24
-11
19
53
20
-57
10
23
96
-1
1
-40
-28
110
49
-7
-83
-24
-29
7
43
-22
-35
56
55
14
5
-15
-11
61
-67
-60
-19
17
12
43
109
-31
98
21
55
19
6
-52
-97
10
-51
-35
4
8
18
22
32
-94
72
-18
20
-22
7
1
41
61
57
54
73
-22
-25
-23
-91
41
-17
-110
-128
-35
2
11
74
21
16
14
-2
14
-10
-3
-87
-60
20
14
-18
2
-5
-2
-12
-13
13
28
61
-28
4
1
32
82
-63
0
-34
22
4
9
-31
-8
20
-43
56
15
18
8
46
14
-76
-13
-12
-12
7
-1
-21
10
14
41
-7
3
-15
-18
-68
-46
-14
10
11
-25
-11
-8
-24
-22
-42
-15
33
-14
2
41
49
39
-35
-30
1
22
7
-14
7
-40
-68
1
-16
4
-10
-9
25
-56
15
3
69
15
6
30
-20
49
-11
19
68
-14
-9
-31
18
-21
-17
72
-98
-6
-6
-4
-12
-3
28
-17
27
18
9
15
109
-41
-23
-19
-45
-22
-14
-24
-52
-34
-100
60
92
19
-12
0
32
16
40
4
-37
4
6
10
25
38
-36
-10
-54
6
5
6
-11
-49
30
6
5
22
-8
-3
-33
44
56
-4
-37
-11
-2
19
7
15
38
11
60
-20
-1
-22
29
-13
18
-27
-33
16
11
10
8
8
50
10
71
6
12
26
-7
49
78
27
-92
1
-9
-43
-51
96
-30
-35
52
-25
-19
-3
37
-16
71
-5
5
22
9
-7
-15
-43
-9
7
75
-9
12
11
-5
-79
-6
-12
-96
-16
-15
-16
5
12
49
26
41
10
4
48
11
12
-4
-15
10
-10
-5
-44
-84
15
-64
3
64
21
-3
-11
30
-108
-44
21
86
5
19
8
3
1
-7
-62
-111
0
0
6
6
-2
-39
11
55
-24
-31
-16
36
42
2
-11
-106
-28
5
34
66
-45
61
-4
18
19
4
-19
-106
-30
-3
-3
13
4
-14
-18
2
4
92
37
-18
-34
-5
10
7
1
-75
-1
57
-7
15
6
11
74
-8
7
-81
4
-4
20
113
-111
-10
-21
54
-25
-26
-83
-97
42
86
-6
-99
13
2
-4
-2
20
18
16
28
0
-10
0
-18
-7
-35
-16
58
6
14
29
85
4
-34
-16
-22
4
10
-37
-5
12
-45
-39
39
-2
7
38
-54
-32
16
47
-11
17
-19
-27
-18
-31
-7
7
25
20
0
3
-32
64
-15
7
10
17
25
39
67
-31
-7
-68
-57
-10
-8
0
102
12
-6
3
-25
-10
-5
-8
-59
-7
-57
-19
15
1
-3
-12
-6
-1
4
7
127
-21
5
9
15
31
-8
-42
-67
40
9
15
20
-41
60
37
33
4
-13
32
38
49
-5
-34
-13
-24
-14
-31
-29
-16
59
34
25
8
7
-19
-74
-15
-44
12
109
10
24
45
9
-6
-13
-30
-39
2
0
-38
23
-21
4
19
-58
-16
-1
35
-16
86
33
6
-36
23
-10
-38
-10
-27
-30
43
15
-21
-6
-33
-47
-46
-8
0
4
8
-2
17
-9
-29
45
23
113
9
12
6
82
-23
-85
-51
-12
-9
4
20
24
-37
2
53
-107
4
-8
-25
-60
10
-76
-27
-22
-8
-4
-18
-14
44
27
11
47
1
8
-20
10
12
-1
-57
-12
-12
-13
73
14
43
-15
50
39
3
-6
-48
-14
19
17
-78
49
2
11
30
37
-30
-74
5
-50
-25
1
43
81
-41
74
14
-81
17
-5
-27
-101
24
-12
-21
-38
-22
0
36
71
26
53
16
10
0
-11
-31
-58
-6
-57
-8
82
1
12
14
-5
-62
97
34
7
6
1
1
15
58
24
6
-9
-3
-19
-3
12
59
6
18
-31
15
11
-13
40
-25
-44
-29
13
-4
-16
30
-1
-74
-36
2
11
-4
21
-1
-55
42
37
-28
-42
17
-1
-32
55
-11
-85
2
16
-25
-13
27
-38
47
59
23
-42
9
5
-30
-25
-14
11
10
34
-2
0
63
118
-54
-59
-13
104
-22
-3
-62
-43
10
44
-11
-29
15
14
-18
-14
-38
99
-16
-20
2
-5
-26
4
105
-89
17
79
16
9
16
87
-128
74
37
2
-6
-9
10
-99
31
-18
-24
78
-14
8
4
32
12
14
-6
-70
20
-14
-4
-79
1
-40
18
94
-1
-14
-10
-6
16
22
-54
-78
-4
1
24
-42
-18
0
26
-11
-27
-9
-8
-3
17
-1
-1
76
14
14
17
74
18
-50
-9
11
-52
-15
-6
-64
-30
-70
9
-40
33
-1
-2
6
-75
-13
-10
-5
19
17
10
-6
39
17
6
20
14
14
-11
54
-5
-10
-8
-37
-16
-14
-33
-76
6
-18
21
3
-17
-9
-12
-31
-4
-22
-3
-26
-10
-14
-18
6
31
-22
-16
-63
14
17
19
63
9
36
31
-39
23
18
9
15
-20
-10
-10
30
-3
6
48
7
13
-14
-32
57
-26
-14
-31
-32
-33
-29
-17
-77
-15
1
-21
-113
-3
18
9
-31
25
10
25
110
32
56
60
39
-2
-15
-60
-31
13
-3
-9
-2
-21
-4
25
-3
-7
-34
-23
-21
-22
-15
-2
2
9
-7
-5
-3
10
10
43
109
18
14
-10
4
23
24
39
-1
-24
-9
41
86
15
-13
-50
-9
45
67
-7
-28
-20
-12
-22
-17
-11
24
5
-69
1
-2
-29
-25
24
-56
-36
56
-12
-4
41
127
-13
34
16
-28
-8
-4
1
-43
-21
-21
-5
38
12
-4
-8
-55
30
-2
-11
7
1
6
29
49
5
-22
-11
27
-3
2
1
-50
-27
51
47
-37
2
2
1
-14
-10
-26
-26
7
-8
-13
-4
-7
6
6
-1
-11
-7
-20
-29
-37
-13
-36
-11
18
1
11
13
12
25
17
-29
-39
10
-6
24
64
-17
13
27
-3
-3
-4
-21
-28
-9
-9
6
3
0
2
-20
-19
-10
11
-28
6
-3
-3
43
-4
16
-1
11
-44
2
4
10
26
-16
-4
7
20
-3
8
-9
-4
6
-11
-29
-12
-3
-8
-10
-27
-9
-12
32
6
2
9
-15
7
29
-4
-10
-11
2
-13
52
25
-10
-21
29
11
-8
2
10
-6
-6
-16
-14
-2
-5
-4
-31
-9
-8
-7
-30
-3
4
-4
-49
-14
11
-52
-1
-12
5
14
60
26
-1
-49
18
5
-1
-2
34
-5
3
-54
-12
-34
-13
-12
-50
-21
-2
-21
26
8
-4
3
21
12
-1
5
16
-14
1
-4
-7
13
3
23
42
21
18
9
9
-5
3
38
50
15
-1
4
6
-10
2
33
-47
2
-4
-3
-37
1
11
-43
-19
-12
-5
-5
-20
10
-10
7
-9
10
-3
-5
-27
14
-28
17
-36
4
0
2
-7
-16
3
26
-13
-5
-4
-16
65
9
-6
51
-14
-4
4
16
-26
7
4
-15
-30
-14
-6
-11
-81
-11
5
-3
15
5
4
1
82
-3
2
10
37
17
9
22
25
-4
-5
-26
0
-4
0
-6
-45
9
-14
-10
1
-28
-16
-32
4
16
36
25
12
3
-4
-8
-71
-48
4
-23
-81
-37
-16
-13
-16
8
-9
18
61
11
11
12
37
9
-19
12
-4
10
-2
-3
-40
-15
-8
14
83
20
17
12
73
11
17
-20
-9
20
0
9
-79
20
-11
-3
-89
-36
-15
-27
54
21
4
24
3
-4
-2
5
15
-20
20
13
-25
-3
-3
-19
1
6
-36
34
35
10
11
22
35
-40
11
33
-31
7
-3
10
-68
-4
29
30
39
10
3
15
37
67
-9
21
-27
-13
-1
5
2
-60
-41
-24
32
-21
-11
0
8
-24
11
13
-30
-5
-4
-47
-33
4
-16
9
-18
14
6
7
42
-2
0
7
-8
-9
1
27
25
22
5
10
96
26
9
39
38
16
12
1
-48
-14
3
3
58
-23
-28
-23
-37
-28
-11
-37
-112
-17
-1
-1
6
23
-4
1
-15
45
18
5
-5
-7
-1
-36
-1
-10
-9
8
79
2
3
32
-32
-7
22
3
-17
23
12
24
-67
-2
-13
-30
-48
-25
-6
-9
59
-15
6
1
19
17
-6
-31
-101
16
-22
-21
-5
-15
-16
6
88
-12
-20
-2
-13
-11
-10
-33
98
11
-23
-19
21
17
8
14
-15
-11
8
9
5
-7
6
3
-43
4
24
10
30
4
16
12
-74
10
-11
-20
8
4
-11
7
-9
-34
14
3
-8
-37
-19
-11
16
26
-16
5
-1
18
8
-1
-20
14
-15
11
59
3
-2
-10
-1
-17
18
23
55
16
15
22
47
6
-3
-1
-32
-27
-3
-14
-44
-5
10
-3
-70
-14
-5
10
8
0
4
5
63
33
-4
-11
32
6
2
3
-23
-29
-3
-1
-15
-7
-7
-3
1
1
3
-3
3
4
-2
-1
9
22
0
2
12
-13
1
-14
-31
-3
2
0
-90
3
4
-17
7
0
-1
1
81
-8
-5
-4
40
4
-4
-5
19
-2
-4
-21
-15
9
-4
-3
19
8
14
6
-9
-8
2
2
-1
1
-2
5
-69
-14
-11
-4
-39
-7
-4
-14
3
-3
2
2
-14
-3
3
5
-9
-11
-2
-15
15
2
-9
6
-1
6
-7
1
-21
-7
16
6
25
18
9
8
47
2
-3
8
32
8
8
8
-35
6
7
-4
-54
-19
-3
-7
-4
-1
-17
-9
-71
-3
0
2
-4
2
20
-13
49
-2
-8
3
-80
-8
5
6
-25
8
8
5
62
-3
-6
-13
0
-2
-5
-11
-15
-1
-1
15
15
0
0
6
13
-2
-10
17
40
21
3
-4
3
1
-2
-13
-38
4
-1
-6
-42
-1
2
10
27
-18
-2
-1
7
-7
4
-12
0
3
-2
5
31
2
-5
6
-1
-4
2
1
-5
0
-4
-10
-1
-12
-9
-4
-14
0
-7
9
36
-1
3
7
15
1
5
-1
39
-8
-3
-5
6
3
-3
-12
-50
2
-3
-2
11
-6
-10
-1
40
3
-6
-7
-32
-2
2
-12
25
7
0
3
-32
-4
3
-2
-78
-31
4
3
5
3
-7
-9
-1
22
-6
-11
83
3
1
4
36
-14
-4
4
-9
2
-3
-6
-45
-6
-2
-11
-14
-1
1
5
28
7
1
3
19
-5
1
7
38
-13
5
7
-13
8
-8
1
-22
17
-3
-6
-42
-7
-5
-8
13
-17
-2
-4
16
1
-2
-6
-30
-2
-2
-4
-22
-6
-7
6
-12
-21
-5
-6
-9
-2
-2
-1
8
-2
0
-2
-53
-6
2
1
-11
10
-2
3
59
-1
0
-12
-35
1
0
-3
-4
5
-4
0
-7
-7
3
0
-7
-5
8
9
7
22
7
8
13
-3
-3
-3
10
-9
0
-4
-3
5
0
4
25
17
1
-2
20
2
-5
-8
0
-4
0
4
-11
-7
1
-3
-33
-2
0
-7
11
13
-5
-16
-31
1
-9
-3
-8
-7
-2
3
29
1
-1
0
3
-2
-1
-5
-18
-1
0
-2
-64
-2
4
-2
36
7
-1
-2
10
0
0
7
-68
-9
-1
-1
12
-1
-1
-10
15
-5
-4
-2
-2
-9
-3
-5
-6
18
0
5
4
0
1
5
-6
-23
-2
-3
-11
0
5
3
32
9
-3
-2
-6
-2
-6
-5
-30
1
0
-2
-17
3
8
4
15
5
4
1
15
2
-7
-8
-30
-7
-7
-3
15
-4
3
3
42
12
14
11
5
3
-4
-3
-23
-1
-11
-5
-10
-4
-4
2
2
-6
-2
-1
2
-4
2
-6
4
9
3
4
-7
-5
-1
-5
-19
-4
-1
-5
12
1
1
11
3
-12
-4
-4
-8
3
-5
-14
-22
-9
0
1
3
-4
-2
5
-14
8
4
4
21
0
4
-1
-9
-17
-6
-2
-23
0
5
7
-9
20
4
4
4
-1
-2
0
36
-22
-6
-3
-6
0
0
-3
-20
4
-1
0
-15
-1
-3
5
-9
9
5
1
22
-1
1
-10
32
-28
-12
-9
-39
2
0
-2
-16
-15
1
7
54
-2
-1
-3
-4
6
4
-3
-14
3
1
7
8
-3
-2
-2
-4
-3
2
0
8
10
1
-2
12
0
2
2
-29
2
1
-3
-68
2
-2
-1
33
4
-6
0
43
1
-5
-7
-3
7
-3
-1
-10
-2
-2
-1
22
1
8
2
15
-5
0
-5
2
-14
-7
-6
-3
-1
-2
2
-30
-2
5
-1
-25
-5
1
4
19
13
0
0
-4
-1
0
-2
-5
7
1
-1
-1
-1
4
6
36
9
4
3
0
-1
-7
-16
-14
-19
-13
-5
-1
-3
-9
-5
6
2
-1
0
6
-3
3
0
14
-7
-2
4
1
-2
0
4
-54
0
-3
-9
-6
-1
2
9
27
12
-1
-3
45
-3
-2
-7
-1
-20
-4
-2
-18
-3
-5
-4
2
23
1
2
6
-1
-5
-4
22
8
-9
-3
14
0
2
0
-21
-21
4
0
-27
1
-2
-1
4
-6
3
2
0
0
2
6
-21
-1
3
-4
5
1
-3
1
-4
2
-5
-1
-5
-2
-1
-7
-7
8
1
-2
-15
0
1
5
19
-7
1
4
10
-2
-3
-1
1
3
-4
-1
4
-2
2
-2
5
6
5
2
-3
0
0
5
21
-6
-2
1
14
-5
4
-1
-6
3
0
0
-7
7
-4
-3
8
3
-1
-6
-15
-2
-4
-9
-21
-6
1
0
8
-2
-1
6
11
3
-3
0
-3
-3
0
3
-9
-1
0
-3
-5
-1
0
-3
8
-4
1
2
5
0
-4
-4
-28
6
1
-1
-8
0
-1
3
1
3
0
3
1
1
-1
1
4
4
-2
-2
-4
-2
3
2
-15
-11
-2
-2
2
-1
0
0
17
10
0
3
7
-2
-2
2
7
8
3
-1
-10
-1
-6
-14
-53
-20
-10
-7
-5
-2
4
3
7
16
2
5
-4
0
-2
0
-11
-21
-2
-7
-8
-1
-2
1
3
9
-2
-1
16
4
-2
-2
4
0
4
2
-10
-2
0
-3
2
-9
0
-1
4
-3
0
4
17
5
1
1
-4
-2
2
-3
-21
1
1
0
2
4
-3
-3
-9
1
-1
-3
-13
-2
-4
-9
-34
-7
-3
-4
-2
1
0
3
10
10
-2
-1
8
-2
0
-1
-4
-16
1
-2
-4
-1
0
6
30
15
4
2
4
-2
-3
-3
9
3
-3
0
-2
-2
0
-3
1
-14
-4
-2
5
0
0
1
0
3
2
-2
-4
-1
-1
-2
-3
4
-3
-2
1
-1
0
1
-5
-14
1
-1
0
0
-1
0
3
7
-1
-1
2
-1
-1
-1
-1
5
-4
-3
-9
0
-1
-2
-2
-4
-1
-2
2
-2
7
-1
0
3
-4
-2
2
1
-7
0
-10
-16
3
0
0
1
6
-4
3
11
-2
0
-5
-4
-1
-8
-12
-15
7
0
1
-1
-8
2
3
-3
-6
-3
-1
-3
4
-3
-4
2
-3
-1
0
-2
-3
1
0
-1
3
-1
-1
1
2
2
19
9
0
1
2
3
2
5
-15
3
-2
1
-3
-1
-4
-6
11
-4
-5
-3
-1
0
-3
1
-15
-5
-1
0
-3
-1
2
-3
3
4
1
1
-2
-1
-7
1
7
-5
1
1
2
4
1
19
14
5
-1
-2
4
-3
-2
-30
-17
-10
-2
0
0
1
0
10
-7
-2
-1
-4
-2
-2
-19
-9
1
-1
-1
1
-1
-1
-2
0
-5
-1
3
-1
-3
-6
5
11
5
-4
-3
-1
-2
0
-2
-8
-7
-12
-2
-1
1
0
5
3
-3
1
1
-1
-3
1
1
-1
-1
8
-2
-1
-3
1
-8
-3
-6
-12
-1
0
0
2
13
4
1
3
-8
-3
-3
-1
-3
15
-9
-1
-2
-1
2
-2
3
-27
5
4
7
3
2
-1
-11
11
6
-1
-2
-3
-1
3
2
-20
-8
-1
-1
-1
1
-3
6
0
26
3
2
0
-2
-4
-8
3
-65
-5
-4
0
1
-2
7
11
5
-1
-2
0
-2
-4
-7
6
11
1
-6
-2
-2
3
3
-8
0
-5
6
1
-3
-2
-4
4
14
0
2
-2
-1
0
1
-11
14
-1
-1
1
1
-1
0
2
-3
1
-1
-2
-2
0
-19
-11
-14
-4
-4
-3
-3
-1
7
5
16
-1
-5
-1
1
9
-2
11
-15
4
3
-3
-2
-9
13
-12
21
-1
1
1
2
0
-36
3
41
6
-1
-1
0
-8
-2
-6
-35
-12
2
1
1
-3
-12
-12
20
1
-6
-3
-3
6
-5
1
-1
6
0
-2
-4
-12
44
5
-27
-1
1
-1
1
11
-43
12
6
-2
-2
-1
1
5
4
12
17
-5
0
1
-2
-21
-22
-22
-16
0
0
0
-1
12
9
-9
-6
-5
-5
-4
-7
-18
30
3
9
2
0
-3
-1
15
31
5
-27
4
4
4
5
15
-51
29
32
0
2
0
2
-4
-7
-43
-24
7
1
0
1
-7
10
-17
-64
-15
-1
1
-8
6
-1
-8
-25
-4
-9
-7
10
-18
10
9
11
8
1
-4
-15
-12
14
15
19
-2
0
1
20
16
-12
4
29
5
0
-1
-4
-12
-2
-18
-2
2
4
0
0
5
18
27
-21
-5
0
3
-1
-2
-6
0
-21
5
1
7
-8
3
12
-16
36
-7
-8
-9
0
-6
-4
9
-1
0
-1
1
-50
14
-21
-4
-11
-1
-2
2
57
-11
-37
-19
2
-8
-3
-8
-22
6
14
21
53
22
7
3
3
-12
-18
-30
-77
-21
-5
-5
-17
-2
9
6
-11
-7
-4
-4
-5
10
26
9
-22
-5
1
2
15
7
-7
5
12
0
0
-1
-12
-13
19
18
55
18
-2
1
13
22
0
-6
-79
-7
4
5
-9
-6
-44
-24
-17
-14
-11
-5
10
1
12
-16
-54
-8
-5
-8
-12
-14
39
14
7
7
6
2
15
8
-47
7
-20
-1
-5
-3
-9
-5
10
15
33
9
6
6
-7
0
-8
-41
12
-2
-2
6
4
12
-9
35
2
1
-1
-12
-7
-17
7
-21
0
-1
-2
5
6
11
8
1
-64
-8
-2
-4
18
-10
2
2
13
11
5
4
31
7
41
-2
-8
-6
0
10
-15
4
-70
-27
62
8
0
-9
-10
-3
20
33
50
22
6
4
-8
3
-3
-19
-16
-23
-11
0
-2
43
-13
-19
22
5
-4
-5
7
-22
32
-21
-36
-24
-7
-4
5
26
-5
17
3
3
-1
0
-15
-27
24
15
37
18
5
1
2
-2
2
1
18
4
10
3
11
4
35
30
48
15
1
1
-25
-22
-73
-35
20
5
2
-3
7
1
29
-11
-10
-16
-8
-9
-9
5
-28
-1
1
-2
-1
4
11
-14
49
0
8
-2
-5
0
-3
11
-19
38
24
8
4
7
18
11
-13
-6
-17
3
-1
-2
-1
-5
13
22
17
1
-7
-6
-11
-23
48
-29
10
-2
12
3
12
10
20
-11
-35
-17
-8
-5
-22
-28
-19
-42
26
6
9
11
16
15
-3
36
35
6
-2
-2
9
36
-6
5
-45
4
-3
-2
-14
-61
85
22
10
10
0
-1
-1
-10
-17
9
-36
-16
2
1
12
-3
18
-11
-34
-12
0
5
3
39
74
-8
16
7
-2
-13
-17
10
-76
-37
2
-10
5
9
-6
2
-84
22
-38
29
-8
-10
-34
-68
21
-38
29
28
-14
-7
6
20
-54
74
9
-41
-1
-5
-24
-15
4
-74
22
10
-5
-7
5
3
13
-8
-3
-33
-1
0
-20
1
29
5
-10
17
-4
-7
4
-10
-32
-27
36
-7
-2
7
-9
-18
90
17
8
4
7
-7
6
4
-86
28
34
14
1
6
0
-9
47
7
-24
-65
-3
-2
3
19
-58
-7
-32
61
-7
5
10
1
66
27
14
-35
-3
-7
-4
4
44
11
15
-31
-6
-10
-14
-31
-40
-52
12
41
13
11
14
-34
-15
-20
31
20
4
3
8
44
-70
85
33
-11
-12
-4
-18
-52
11
-26
-18
18
7
7
14
29
2
-45
31
11
0
4
3
17
-24
102
42
-24
-5
-8
-2
-8
-38
-38
-44
23
-6
8
23
27
-53
8
3
1
11
-1
10
14
67
27
-57
-33
-17
-13
-30
-4
52
-36
-19
-9
6
5
9
-13
-50
-20
-3
-20
-12
-10
-24
-12
-66
8
37
50
4
8
33
8
-37
-100
6
-34
13
13
17
73
-69
50
38
-26
-23
-24
-63
-65
-28
21
-95
10
16
-1
-22
-5
127
-33
58
-6
-27
-2
19
-24
-68
115
-1
41
17
-8
2
9
-67
-47
-31
-26
7
9
26
50
-39
-45
-44
-40
-7
-13
-28
-23
78
23
11
40
8
7
-23
8
-37
-41
14
-25
-1
-4
-21
-74
-19
3
37
44
11
18
13
80
-10
23
-48
-26
-18
-11
51
12
-91
-104
-31
-10
-4
-3
-43
26
-69
-25
15
5
-4
-18
26
-26
34
-20
-8
21
13
-3
3
-24
52
27
61
-30
-20
-12
-13
46
14
69
5
52
14
-1
13
-46
-69
-39
8
-62
-34
0
-17
-5
-40
-18
-53
-23
-6
-12
-30
-60
66
70
-7
78
57
38
-3
55
35
-1
2
-33
-4
8
23
-44
-15
-18
-74
13
-4
-18
26
98
44
-7
21
2
-30
-7
-5
-52
-38
-88
19
-39
-26
-8
-23
8
-67
127
-46
5
26
18
15
30
53
39
43
55
16
20
34
-11
97
-44
-42
-82
-46
-35
-20
-39
-21
-5
-1
25
12
0
12
34
58
-32
-19
-84
9
-23
-27
-23
-102
-37
-19
6
15
14
51
58
9
42
54
27
13
20
-8
15
-50
44
-26
9
-18
11
62
98
-100
-100
45
-20
3
-21
-89
-67
127
89
1
-45
-12
-23
-36
-18
-67
64
-15
65
14
17
6
17
-38
-61
-27
-41
-21
4
13
37
-74
28
-55
-22
-1
-15
10
14
46
64
67
5
-17
-9
-20
-38
44
-41
-19
23
43
46
62
67
108
-23
2
72
12
-7
-8
16
-42
66
67
-98
-6
-32
-25
-55
32
-83
-31
55
16
45
9
62
127
-24
-12
16
-21
-23
-20
22
-28
-80
41
-21
-8
2
48
-35
88
-62
6
-11
25
23
22
-33
-87
4
-22
19
-24
-23
-45
-39
-70
-48
-45
-92
-42
-34
-3
69
11
-12
23
-3
1
-7
-25
-39
52
25
-5
113
4
29
-13
27
-71
127
-17
-94
1
5
-1
-85
-10
-97
-76
35
32
16
13
34
-114
12
-48
64
2
-32
-35
-56
47
24
18
-77
-34
-19
38
115
64
-37
-17
43
23
24
25
-57
-14
29
50
48
5
-27
-55
-119
37
7
28
-45
-27
-25
-22
71
70
-81
-83
11
-24
16
-23
-71
-39
-54
17
3
21
3
13
30
-69
-21
19
-12
-8
14
54
31
127
78
80
-4
0
6
-12
-90
15
48
-85
92
-23
7
28
90
-123
-36
75
-96
-14
-13
-52
-126
105
-25
-35
9
25
13
58
54
14
35
-3
-21
33
34
-45
85
-50
4
39
18
-15
-25
-18
-31
-29
-109
-32
22
14
-13
-7
21
7
71
32
3
-18
-9
-9
-16
-35
0
15
48
-13
4
1
-14
69
-59
-61
-35
21
1
45
62
2
63
-2
-21
28
4
-25
48
-16
24
105
-21
4
10
-41
-46
-74
-57
-95
67
-17
4
34
-24
-16
-54
4
-25
-53
-18
5
1
97
90
-6
-35
1
-5
-5
-60
113
-49
-78
57
-32
10
18
69
9
-44
21
-102
-5
-5
-27
-39
41
-77
-13
89
75
49
53
16
-61
49
-25
1
3
-10
3
36
-32
1
12
21
-9
-13
-16
-10
87
-72
-65
-38
-31
-5
34
51
-126
100
66
37
-5
-14
-56
-27
102
-11
20
12
1
3
11
43
8
-79
6
59
10
11
2
-48
19
43
3
35
-13
-12
13
73
-99
-21
36
-128
-4
-18
-35
-43
-69
-15
-29
-3
-36
5
-15
-12
-128
38
31
46
36
19
37
85
127
68
-46
11
2
-13
-14
84
-32
-83
-63
31
-49
-30
-13
-68
30
74
64
67
-11
6
1
1
38
-71
-87
-96
4
1
10
-47
12
7
79
34
34
14
-25
-51
-44
8
80
19
-1
-8
-32
13
76
-30
-94
36
-9
-16
24
44
-45
100
-103
79
-10
2
-6
-23
25
-70
-94
24
22
19
1
-29
42
98
-11
8
-29
7
52
92
79
-24
58
-103
22
3
-50
-9
-27
63
127
15
31
1
-3
-19
-107
69
87
25
10
2
15
58
-27
-17
62
0
-7
4
-2
-26
24
-35
15
-44
-18
-3
5
25
19
9
78
-48
-26
-13
3
26
36
24
-17
12
14
17
1
-5
-12
-67
74
-6
-7
-22
-6
7
38
7
7
78
13
13
-7
33
36
-36
-48
-17
-29
-46
11
-52
-34
-20
13
4
20
9
63
16
-103
106
26
-45
42
36
27
72
-90
-109
14
63
39
18
-69
-47
-36
19
-51
26
12
23
-3
18
-89
48
78
-32
6
-16
23
-18
84
-18
62
-25
-27
-22
-27
-41
6
5
-51
5
-13
7
26
48
4
98
41
-1
33
10
13
84
11
-49
5
-33
-20
0
-27
-72
79
-22
-21
41
0
1
-3
17
-25
69
2
21
-4
0
19
-44
-29
-128
-81
-104
-58
-36
-28
-3
-15
45
34
25
29
4
0
-31
53
6
-5
71
19
3
3
25
-99
-20
-55
-55
-29
-10
13
10
12
-69
-4
-59
28
6
39
123
16
-94
25
11
12
-16
-52
-77
-55
53
32
79
1
-6
-7
-75
2
-27
-32
40
17
18
36
32
30
-15
-63
36
16
40
-5
28
13
-12
82
29
-11
-42
5
7
79
42
-24
5
5
12
-11
46
31
-11
27
33
15
7
16
-39
-77
-26
30
-22
-29
-11
-27
1
-38
17
-51
5
-27
-8
-4
-86
-35
-16
-13
88
-18
-5
20
124
14
-47
-31
-128
-38
-15
10
-58
-13
90
49
86
10
15
-3
-40
7
-30
-15
43
-1
-24
-44
-11
11
-8
-44
-5
-6
1
7
-14
-111
-28
36
15
7
-21
-9
55
-2
-64
0
16
7
-3
12
-17
45
12
-45
-21
-4
23
4
34
-35
9
-18
-7
27
16
23
-7
68
8
19
12
-2
-2
-14
6
-14
73
-17
5
-11
-7
1
33
-11
-29
18
-55
-55
-35
5
-45
52
-38
-35
-77
23
-7
-1
1
-77
70
-27
36
34
54
41
57
7
113
87
27
-44
-47
-83
-128
46
-10
-11
-1
66
25
26
87
-59
-88
-59
29
-41
6
9
83
35
44
31
-33
15
-23
-12
-97
35
-77
31
-30
-29
-30
-13
-9
5
-60
-58
-46
19
26
5
13
-7
67
89
72
-41
-7
-9
-52
52
-1
-90
-45
42
-13
-21
87
-46
-25
69
-118
8
19
3
-52
98
84
53
-18
-14
0
3
4
29
37
-52
-18
30
6
36
22
-102
7
11
9
-45
-12
-26
-32
67
28
-62
10
6
-9
-1
50
-21
-34
2
15
-7
14
5
-13
-37
51
27
-76
7
-1
0
-12
35
16
54
28
-4
-2
-31
-75
-17
-72
-43
-1
14
8
39
11
7
76
41
42
-10
5
-7
50
72
-48
-52
-42
-19
-39
-14
-1
-5
-28
34
-50
8
-19
17
-36
57
-8
-51
-38
-14
7
6
33
-48
49
-40
-34
18
37
12
-28
11
45
73
3
41
-13
-23
-22
-15
-10
15
109
-27
-1
6
77
32
17
0
-20
-4
18
9
-67
-78
-82
10
89
10
-4
-4
10
38
26
-26
29
27
-5
-24
-64
127
66
39
-3
-6
16
44
102
-42
-89
-51
79
19
1
-9
34
-29
4
32
0
-12
-6
-16
-53
88
-50
-3
42
-35
-17
-16
-39
-63
-1
-39
56
-9
-10
-13
94
-7
12
-33
-18
11
-3
39
-5
-11
14
1
-10
-14
-9
-44
-83
-31
-90
-15
-19
-21
-2
15
30
-14
-74
-17
36
14
0
7
25
1
50
34
-40
-5
11
-17
-8
-27
76
-24
3
2
2
-8
37
37
16
1
-29
-26
-23
30
-17
50
-37
9
7
-25
-13
-15
-82
-62
-47
14
83
-5
17
21
36
-106
66
-13
-75
-29
-13
-32
-46
36
-2
5
65
10
8
9
73
18
-29
-39
-82
67
43
36
13
66
79
74
-41
47
-24
-28
-91
-37
-86
-21
-15
-22
-24
32
76
-27
54
37
12
3
27
-2
-15
-60
-104
-29
-27
-41
-36
-13
-40
12
44
-61
-12
-6
31
19
61
-11
-78
-36
6
-12
-18
4
6
-25
16
17
-41
8
9
-11
-11
20
34
17
41
-6
18
6
11
-18
-18
37
-11
-39
-48
-10
65
127
-12
35
12
-10
-18
-34
-50
-57
5
-51
-56
43
46
22
14
16
-57
1
72
-44
-26
-19
-9
-54
21
-18
43
16
6
23
61
31
26
-7
-71
18
13
-3
-72
-70
2
-20
45
30
20
-8
-18
-24
-74
-23
23
-6
9
-5
21
28
17
3
-20
18
0
-8
-29
-89
24
-1
-13
-10
6
18
64
46
5
15
6
-31
-26
-9
15
-12
44
9
-113
26
-12
-19
-63
-41
-34
16
109
-2
4
12
-1
6
1
-8
16
1
12
-3
-4
2
13
-23
-88
-13
5
8
0
-17
-48
-35
53
-24
-20
-4
-8
0
5
49
-32
-4
-17
-26
-45
38
8
-9
5
13
-7
13
19
-45
-13
-22
-5
3
13
-11
17
-53
-10
11
-3
18
16
40
4
70
43
-14
35
2
12
-14
-19
2
1
10
-37
11
3
4
-15
-76
-107
-20
35
3
-21
-19
-1
4
54
28
-49
-23
-9
8
-22
-34
-51
-21
10
37
12
-2
-26
16
18
-7
4
21
24
14
23
68
-93
-52
-17
-6
6
6
111
-68
32
85
75
-54
-32
-26
-16
-108
-68
-1
-128
-27
-37
-43
-117
-9
-21
27
122
16
17
25
20
11
-26
-3
47
10
2
-6
-8
38
51
-6
-49
-15
-4
-10
39
46
-4
-45
54
-44
2
7
22
-38
9
42
-66
62
8
-17
35
10
54
24
-14
-12
-2
15
-53
59
0
8
-33
15
7
6
70
-56
32
14
-17
-13
-22
4
-43
-18
-13
-8
-52
-25
-22
-26
-72
-10
-26
-14
22
-2
12
-2
5
21
19
-3
18
33
11
-22
-54
-62
26
-35
-19
46
40
30
75
22
-16
33
22
-40
-38
-10
3
-54
-1
37
48
-20
-6
-4
-56
21
-20
-92
-32
8
-3
-12
4
27
-32
-23
9
15
9
10
49
29
-43
1
49
-18
-10
14
-6
33
28
41
6
29
7
2
2
-31
21
-35
62
-2
8
9
-11
52
51
-13
-22
3
7
3
43
16
-38
-39
-20
-6
1
-1
7
11
63
-5
-4
-13
-16
-10
-12
31
-13
10
-44
-10
8
14
43
29
42
16
-31
-2
-5
-26
-65
-48
-8
-2
-9
-7
0
10
-23
12
3
-38
-9
1
16
11
43
-81
25
49
25
8
-10
-22
-59
11
-26
46
48
-43
-32
5
13
55
3
-82
-91
23
14
-13
10
-10
-82
28
40
9
-2
18
61
48
30
-43
-66
25
15
-9
-31
6
-65
43
24
14
-3
-19
-77
-38
22
-2
-23
14
12
25
96
22
5
-15
26
-11
-31
-71
-124
-13
-4
5
46
-14
2
6
3
-17
-54
-30
-87
10
2
7
55
-62
124
4
17
-14
30
1
-17
56
-7
23
55
11
-18
21
27
-24
43
29
62
-14
-10
-2
14
-7
15
24
21
-6
-2
-13
-35
28
-58
-18
76
-15
-7
13
36
-47
48
-8
-47
-4
3
6
14
-29
-24
24
-1
-4
2
12
-34
7
-33
-41
28
-12
-3
-8
77
-58
33
58
49
10
-24
-4
-36
19
-7
-52
-2
-9
1
-15
-22
19
-15
2
-58
-9
-24
-2
-14
-2
-4
6
99
23
26
23
37
40
-14
2
-7
-18
1
-16
-28
-88
-35
-20
-58
-16
6
4
33
74
-1
17
32
14
4
24
-27
10
12
4
108
-5
0
0
33
-39
-89
10
-73
-6
-19
-21
-15
49
43
40
-38
-1
7
72
65
17
-9
-18
54
4
18
-52
6
-36
-3
34
4
-5
-12
8
-80
2
-25
-29
-15
-31
-11
-8
16
-28
67
10
-23
15
7
9
-8
-52
-33
-12
-26
-15
-11
9
33
-21
-11
-3
-22
11
12
11
13
48
-44
-57
93
-26
5
-13
13
-81
16
16
-38
10
-15
1
-41
63
29
-43
-80
-21
-6
28
74
62
27
43
-5
-4
-6
-40
-47
3
-1
12
7
6
3
20
-22
-29
-85
-43
-1
-12
5
-20
29
7
32
32
71
-11
-23
-6
-87
-5
34
-39
-78
16
14
67
117
34
67
22
-17
7
-5
-76
-73
-41
-48
10
12
-10
-1
-9
2
-28
3
23
-12
11
3
-6
13
17
15
-6
-7
-7
-3
-35
22
-29
-4
-1
31
-9
12
80
21
31
12
-16
-50
-7
-13
-29
-17
-39
-37
-1
54
15
9
-3
-19
19
-1
-13
-25
5
3
4
-3
-16
-9
33
-6
22
4
-3
15
10
3
21
20
-5
-3
-21
-34
-14
-29
-20
-13
-10
-1
25
22
-11
12
23
1
-6
-3
-12
-35
3
8
-17
5
8
6
-12
16
16
20
-17
3
-2
-4
22
2
22
0
11
2
8
6
-13
26
-17
-6
-5
-19
-9
-13
-9
-32
2
-2
48
9
1
-3
15
19
19
-6
13
-3
5
5
-17
-23
-11
-13
-28
-15
16
25
13
22
-15
-30
109
-5
-13
-17
-51
-13
15
20
109
11
0
-3
67
14
2
-5
84
-4
2
5
-15
1
-15
-5
44
-5
0
-4
-5
-12
5
-7
-14
2
-7
1
-9
-3
6
-20
-51
2
-9
-7
-6
3
-5
-12
-35
-10
7
-1
6
-8
0
1
-65
16
12
6
-1
-1
-3
-44
-83
-5
-1
2
9
-8
-9
-35
-64
3
5
-1
-10
13
8
-44
-93
23
0
14
-11
-13
5
-64
-100
-29
-20
0
-1
-5
-8
-21
-112
-7
-4
-22
-83
-9
-1
27
7
-2
0
0
84
44
-10
20
14
5
5
-6
-17
-34
-14
33
16
-2
1
1
8
12
-1
33
16
3
1
8
-13
-5
6
28
-48
-4
4
20
-8
17
5
55
-1
10
5
-6
-41
-13
8
-17
34
4
5
4
-4
14
11
-19
-7
-12
-10
-21
-22
17
-2
3
-8
-3
-5
-24
-57
-2
-17
14
19
2
3
2
84
-44
-16
2
-64
-18
-7
-2
37
5
-16
-16
14
9
2
18
10
-23
6
-32
7
8
8
11
8
-8
16
-20
-1
-9
-5
-13
-80
0
-11
13
34
0
2
-5
-16
4
15
10
-33
-12
-6
5
45
19
-32
24
25
0
3
-11
-24
-35
33
1
-13
-2
-7
0
-76
15
18
10
8
4
2
15
45
-8
0
-12
-65
-24
-4
12
-2
24
-22
-9
37
21
2
-14
16
-39
-4
10
50
23
0
-7
-29
-25
-27
10
-17
-41
-11
-6
70
85
-4
50
55
12
-2
-16
84
-101
-14
21
-96
-20
-5
7
-50
1
0
50
59
48
15
7
40
23
5
21
54
3
4
3
-65
-35
-14
22
16
-11
-4
5
-81
31
11
0
-65
-27
-10
0
-13
2
-25
7
46
1
-6
-10
61
2
16
15
-27
4
-1
-26
3
-1
-22
-11
-15
-11
6
-9
96
37
42
17
42
24
9
16
8
-46
-4
-20
-6
-9
4
21
-27
20
-4
-16
-30
-27
-9
-11
-14
-11
11
-22
2
16
2
-8
-37
-6
-10
-8
-16
12
7
9
9
17
19
-23
9
29
-6
16
62
23
-38
-10
-22
-20
-7
-22
-93
-27
3
5
45
10
-2
-7
2
-3
5
4
-13
-13
-4
-4
-4
22
9
12
16
-20
0
-1
20
8
-2
5
-18
4
4
14
-3
-31
2
1
27
28
-4
-3
-44
14
-2
16
39
8
3
-1
67
7
-17
-26
-75
-36
-14
-15
-13
-1
5
1
62
5
0
2
-14
-15
4
-5
-96
-26
-5
2
28
9
-21
1
7
1
-3
-6
-65
5
20
7
31
20
5
-2
56
-1
8
-2
16
-1
-1
2
10
0
13
9
51
27
5
4
14
-3
0
-9
3
-6
-1
-1
-24
2
-19
-14
-34
-36
-11
-9
-63
-2
4
-10
-9
9
3
-3
43
-1
-1
4
38
24
1
4
31
-5
-7
-14
36
-6
-4
-8
-25
-1
-4
-4
-38
-10
3
0
1
8
13
3
41
19
4
3
-1
-5
-9
-11
-69
-47
-9
-1
-17
-6
7
-3
5
21
4
-2
18
8
-3
-6
19
-9
-6
0
3
0
-5
4
-2
20
1
1
-22
-3
4
12
20
6
8
5
19
0
7
3
-46
-17
-4
-4
-3
2
-2
-5
-9
-19
-1
6
15
-2
-4
11
60
17
0
-8
-34
-2
-3
-2
-10
6
-1
4
-3
0
4
11
10
12
3
1
28
3
-4
-5
31
-8
-7
-6
-7
-6
1
2
-1
-8
-5
-6
-14
-3
-4
-4
-39
-5
-6
-2
30
2
5
3
31
-6
2
6
-2
-3
-7
-8
-57
19
-2
-6
12
1
3
12
26
-3
3
4
-23
-6
8
-8
17
-8
-5
-3
-12
0
-15
-7
-40
-13
-4
-10
0
2
13
4
-27
-2
3
2
-12
2
3
-9
-14
7
2
2
9
-2
1
1
42
4
3
3
-8
-5
2
-6
10
-9
-4
1
2
2
-4
8
5
5
5
2
5
2
-6
-8
-17
-8
-6
-5
6
1
0
4
21
-8
4
3
8
-3
-1
-17
-17
9
-6
-4
-28
-3
-6
-1
-60
-30
-7
-4
4
-2
-1
0
11
6
-1
-2
35
3
-2
1
-21
-12
3
2
-10
-1
4
-1
-23
14
2
0
-2
-3
-2
-1
-6
12
-1
-1
-1
0
-1
-8
6
2
3
-1
-68
-2
-3
-3
-13
-20
-7
2
64
1
1
4
31
9
1
2
-11
1
-1
2
50
12
5
0
25
-1
1
-5
-51
-27
-4
0
-41
-2
-3
-8
14
10
-1
-6
31
-3
2
2
19
-9
1
1
-2
-4
-2
5
16
8
-1
-4
-17
1
-6
-6
-36
-16
-12
-9
11
-4
2
6
7
4
4
5
-19
0
-5
-22
-8
-20
-3
-4
11
-3
2
3
-3
13
4
2
-6
-1
3
-1
18
11
3
3
11
1
-3
-5
-25
-15
-7
-5
-26
-1
4
15
6
4
5
2
20
4
-10
-21
4
-12
-5
-8
-25
-2
3
-3
5
1
1
5
5
-2
-3
3
-9
22
0
-1
-23
-2
3
4
27
-1
2
1
-2
1
-1
-4
-61
-2
-2
2
-5
-2
0
2
-1
-5
1
-2
22
2
2
0
-19
5
6
2
9
-1
-5
-4
-62
-13
-8
-4
-33
-5
1
4
35
2
-3
-4
-13
0
-1
3
11
8
4
5
13
0
-5
1
-4
-3
-7
-9
29
-2
-4
-8
-29
-9
-1
1
-2
1
1
4
19
6
5
4
2
-2
1
7
6
5
-2
2
-14
0
-3
-17
-11
-3
-3
-3
-19
-3
-3
0
-6
-9
-5
-5
4
0
-2
1
-8
-12
0
-1
4
0
2
1
3
13
2
-5
3
-1
2
-1
42
2
2
5
-1
-2
-2
-6
-12
0
-5
-4
-3
-2
0
0
11
1
0
-3
-20
1
0
0
-7
4
1
4
18
0
-3
-2
17
-8
-5
-7
-15
1
1
-1
7
11
4
5
-3
0
3
7
-9
-9
0
2
14
0
-4
-13
-10
0
-7
-5
6
-2
-2
2
28
2
-2
2
-21
-1
-2
3
14
-2
-4
-4
4
-1
-3
-7
-55
-2
0
-2
9
0
1
2
25
-13
-2
-2
0
-2
1
-3
-20
-3
-1
2
-6
0
-3
-7
-74
-4
-6
-2
2
-5
0
2
31
-9
2
3
8
-1
0
-2
-18
11
2
-4
-5
1
-1
0
8
-6
-4
-3
-3
1
0
1
10
10
3
-2
-10
0
0
-2
2
-15
-2
0
3
0
-7
-7
-32
-8
-3
-1
3
0
3
3
30
13
2
2
0
4
-1
2
6
4
3
2
5
-1
-4
-10
-10
-1
-2
-3
-3
-2
0
2
5
1
2
2
-4
0
5
7
-7
2
1
4
-46
-1
-3
-7
3
-24
-8
-6
40
-4
0
3
8
11
-1
-1
3
-1
-4
-2
15
-9
-4
-4
6
-1
-5
-5
-1
11
2
-3
-13
-3
3
8
6
-8
1
7
4
2
-4
-6
-39
2
0
-1
-13
-2
2
0
3
-4
-4
-2
1
0
-4
-5
-15
-11
-2
-2
4
-1
-1
-1
51
8
-2
-2
-6
2
1
4
1
-3
0
2
11
-2
2
7
32
14
2
-1
-8
0
-5
-13
-25
-27
-13
-7
8
-5
0
6
26
16
7
-3
-7
0
-2
0
13
-2
1
0
6
0
3
4
-2
10
5
4
-4
1
2
7
38
6
2
2
18
-3
-4
-4
-10
-11
-6
-4
-4
0
-1
2
11
-1
-3
-3
-5
1
-1
-6
-19
-9
0
0
4
-1
-1
2
13
6
2
0
1
-1
0
-6
-14
-5
-1
-1
-13
-3
2
3
17
6
0
-2
0
-2
-5
-8
-21
-9
-2
-2
3
-3
-1
-3
-5
1
2
0
-3
0
2
-1
-13
1
0
0
-1
0
-3
-5
8
0
-6
-3
0
0
1
-2
-4
0
-1
1
2
-1
-4
2
0
7
0
-3
-4
-2
-1
-1
14
-2
-4
0
-1
-1
0
-2
-4
1
3
1
1
-3
2
1
0
-7
-1
-1
-1
0
-5
-9
-17
-6
-3
-2
1
-3
-2
-1
4
-1
0
1
-2
0
1
2
14
0
-2
0
-3
-2
-2
-6
-16
-2
-3
-2
1
-2
0
0
-19
-9
-2
-1
2
2
0
3
18
4
-2
0
-3
-1
-2
-3
-9
-7
-3
-2
-4
0
-1
-1
5
2
4
1
0
0
0
0
-6
-1
-3
-2
3
2
-1
0
-1
0
0
-1
-3
-1
0
0
4
1
2
1
3
0
-3
-2
-5
-7
-3
-3
-1
-1
1
2
-14
3
-1
-3
-5
-2
-3
0
50
2
0
0
3
-2
-1
-5
-40
-5
-1
-1
1
-1
-2
-2
-13
-2
-8
-4
-3
-3
0
2
4
1
0
0
0
0
-2
-1
-3
-3
4
4
-1
-1
-2
-5
8
5
4
2
-1
0
0
-2
-1
-9
-1
-1
-2
0
7
2
2
12
-4
0
2
-2
-6
-2
-2
-6
0
-1
-2
0
0
-1
4
8
0
-1
-2
0
-5
3
-1
-4
0
-2
-3
-2
15
1
0
3
-2
0
0
3
2
-4
-2
-4
-5
-2
-1
-1
5
-2
6
6
9
3
1
0
1
-6
5
1
0
1
1
-4
-4
2
-21
-5
-1
-1
-3
0
1
2
-3
10
-5
-4
-3
0
-5
5
3
-10
-10
-5
-3
-2
4
5
-1
4
6
-1
0
0
-12
-22
7
-4
1
3
-1
-1
3
-1
-14
1
-2
-4
-1
-2
-7
-1
2
0
-2
1
-2
-1
8
2
3
2
3
1
-1
-1
-2
5
-1
-8
1
-2
-1
-2
-11
-6
-9
-2
-2
-3
0
-1
2
-5
3
-5
-2
-1
-1
4
-18
6
-6
-7
-5
-1
-1
-2
3
-10
-4
-3
0
-2
-3
0
3
0
1
-1
1
3
6
1
-3
4
1
-4
-2
-4
-3
-6
-2
-10
-4
2
-3
-1
1
-3
-6
-4
3
5
-2
1
1
3
-2
24
1
-1
5
-4
-7
-8
0
-20
-16
-5
-1
1
1
0
-4
-3
-4
-1
-2
-2
-3
-2
-2
2
13
-5
-4
-2
0
-1
6
-2
1
6
2
2
0
3
-6
5
-1
0
-3
0
-1
-2
15
-5
1
0
5
2
2
3
-15
1
-9
2
3
1
0
-1
-6
-17
-2
-11
-5
0
-1
3
6
11
-2
3
-6
-6
-3
-6
-8
-4
6
-4
-5
-5
-2
-6
2
20
8
3
3
1
2
-1
0
-10
-8
-2
-1
0
-1
2
2
-5
-7
-4
-2
-3
-7
-7
-7
-3
-1
1
-1
1
7
2
0
8
5
-3
2
-2
-7
-6
-1
-5
4
4
1
0
-4
-2
-4
4
6
-2
1
1
3
7
-8
-2
-5
-4
-5
-2
1
-2
6
-3
7
-3
-4
-4
-10
-4
3
1
-3
3
6
3
2
1
3
1
-3
-1
-1
-1
-6
2
3
-2
4
3
1
0
2
1
-3
-5
-12
-4
-3
-1
7
3
10
5
-2
-4
-3
-4
-5
-4
-11
1
9
0
2
1
-9
-3
0
-4
-2
0
-1
-3
8
2
-5
-1
-6
-2
-2
-4
-3
-7
0
4
2
0
-4
-3
1
-1
5
5
-6
-7
0
2
3
1
0
-2
-2
1
0
3
-2
8
4
-2
22
-2
4
0
4
-5
-3
-4
-8
-2
-1
0
-1
-4
-4
-5
-19
2
-6
-3
-3
-1
7
6
19
-1
-2
2
-6
-1
11
-7
-21
2
0
-2
2
3
-16
-11
-6
-1
-3
1
5
18
13
8
10
4
-1
0
4
-23
-21
-2
-2
5
3
-1
-6
-5
9
27
23
6
-1
0
-2
0
10
-6
3
1
3
2
9
-4
-29
-20
-45
-12
-6
0
-15
3
24
-12
-5
1
-2
-7
11
-4
14
2
19
-9
-9
-9
-5
5
-11
2
-8
-3
2
-2
-3
3
12
-1
-17
-8
-1
0
8
15
4
2
-11
-2
-3
6
-60
-20
-6
-3
-9
3
1
-4
40
31
2
5
21
0
-3
-5
-13
-58
2
4
29
6
5
3
15
24
-4
-1
-2
-5
0
2
-5
-1
-7
-11
-33
-3
-1
1
-9
-1
-1
-1
-7
-3
0
0
-3
11
1
2
7
1
2
-1
-3
-5
-29
-2
9
-10
-4
-4
13
-2
1
-10
4
-1
-3
8
-1
-7
-11
17
1
-2
0
-4
-24
-3
-4
-27
-24
-6
-4
-4
0
-8
12
12
4
2
-2
-4
19
8
-7
-16
-3
-2
5
2
2
-10
-3
13
16
3
-2
1
0
11
5
22
18
8
7
8
7
-2
-1
-16
3
-14
-8
-11
-38
-1
-3
-6
48
16
2
-2
45
0
-9
-9
-74
-28
-10
-6
1
0
