-0.7954828060917308
0.03204463310337147
0.8385416190074756
-0.7954828060917308
0.03204463310337147
0.8385416190074756
-0.7954828060917308
0.03204463310337147
0.8385416190074756
-0.7954828060917308
0.03204463310337147
0.8385416190074756
-0.7961366712999873
0.03191517665659485
0.8385725952813345
-0.7961366712999873
0.03191517665659485
0.8385725952813345
-0.7961366712999873
0.03191517665659485
0.8385725952813345
-0.7961366712999873
0.03191517665659485
0.8385725952813345
-0.7961366712999873
0.03191517665659485
0.8385725952813345
-0.7961366712999873
0.03191517665659485
0.8385725952813345
-0.7961366712999873
0.03191517665659485
0.8385725952813345
-0.7961366712999873
0.03191517665659485
0.8385725952813345
-0.7961366712999873
0.03191517665659485
0.8385725952813345
-0.7961366712999873
0.03191517665659485
0.8385725952813345
-0.7961366712999873
0.03191517665659485
0.8385725952813345
-0.7961366712999873
0.03191517665659485
0.8385725952813345
-0.7963058501678822
0.03181472301586077
0.8384910678528548
-0.7963058501678822
0.03181472301586077
0.8384910678528548
-0.7963058501678822
0.03181472301586077
0.8384910678528548
-0.7963058501678822
0.03181472301586077
0.8384910678528548
-0.7963509877397533
0.03171164977262726
0.8385335889271529
-0.7963509877397533
0.03171164977262726
0.8385335889271529
-0.7963509877397533
0.03171164977262726
0.8385335889271529
-0.7963509877397533
0.03171164977262726
0.8385335889271529
-0.7962053451727178
0.03164564091996114
0.8385093520208409
-0.7962053451727178
0.03164564091996114
0.8385093520208409
-0.7962053451727178
0.03164564091996114
0.8385093520208409
-0.7962053451727178
0.03164564091996114
0.8385093520208409
-0.796454802044329
0.0318626748300594
0.8387640569395511
-0.796454802044329
0.0318626748300594
0.8387640569395511
-0.796454802044329
0.0318626748300594
0.8387640569395511
-0.796454802044329
0.0318626748300594
0.8387640569395511
-0.7966462595187855
0.031931588450787356
0.8390821835001325
-0.7966462595187855
0.031931588450787356
0.8390821835001325
-0.7966462595187855
0.031931588450787356
0.8390821835001325
-0.7966462595187855
0.031931588450787356
0.8390821835001325
-0.7966462595187855
0.031931588450787356
0.8390821835001325
-0.7966462595187855
0.031931588450787356
0.8390821835001325
-0.7966462595187855
0.031931588450787356
0.8390821835001325
-0.7966462595187855
0.031931588450787356
0.8390821835001325
-0.7966914215619684
0.03182853484520998
0.8391247133419241
-0.7966914215619684
0.03182853484520998
0.8391247133419241
-0.7966914215619684
0.03182853484520998
0.8391247133419241
-0.7966914215619684
0.03182853484520998
0.8391247133419241
-0.7965457894901928
0.03176247548940383
0.839100478264907
-0.7965457894901928
0.03176247548940383
0.839100478264907
-0.7965457894901928
0.03176247548940383
0.839100478264907
-0.7965457894901928
0.03176247548940383
0.839100478264907
-0.7965457894901928
0.03176247548940383
0.839100478264907
-0.7965457894901928
0.03176247548940383
0.839100478264907
-0.7965457894901928
0.03176247548940383
0.839100478264907
-0.7965457894901928
0.03176247548940383
0.839100478264907
-0.7964426839840427
0.03171733212409192
0.839121401301076
-0.7964426839840427
0.03171733212409192
0.839121401301076
-0.7964426839840427
0.03171733212409192
0.839121401301076
-0.7964426839840427
0.03171733212409192
0.839121401301076
-0.796704211310921
0.03207977743858757
0.8390187155553087
-0.796704211310921
0.03207977743858757
0.8390187155553087
-0.796704211310921
0.03207977743858757
0.8390187155553087
-0.796704211310921
0.03207977743858757
0.8390187155553087
-0.7968862320312435
0.03223056743292398
0.8388311796191119
-0.7968862320312435
0.03223056743292398
0.8388311796191119
-0.7968862320312435
0.03223056743292398
0.8388311796191119
-0.7968862320312435
0.03223056743292398
0.8388311796191119
-0.7970892350143182
0.03233879705724233
0.8385405073006897
-0.7970892350143182
0.03233879705724233
0.8385405073006897
-0.7970892350143182
0.03233879705724233
0.8385405073006897
-0.7970892350143182
0.03233879705724233
0.8385405073006897
-0.7969435772969024
0.032272760820505786
0.8385163401597012
-0.7969435772969024
0.032272760820505786
0.8385163401597012
-0.7969435772969024
0.032272760820505786
0.8385163401597012
-0.7969435772969024
0.032272760820505786
0.8385163401597012
-0.7963445367735812
0.03256849670096808
0.8381732082287122
-0.7963445367735812
0.03256849670096808
0.8381732082287122
-0.7963445367735812
0.03256849670096808
0.8381732082287122
-0.7963445367735812
0.03256849670096808
0.8381732082287122
-0.7952270221988311
0.03268478587205735
0.8379269267300142
-0.7952270221988311
0.03268478587205735
0.8379269267300142
-0.7952270221988311
0.03268478587205735
0.8379269267300142
-0.7952270221988311
0.03268478587205735
0.8379269267300142
-0.7942193051633955
0.032341420463208204
0.8371593950270442
-0.7942193051633955
0.032341420463208204
0.8371593950270442
-0.7942193051633955
0.032341420463208204
0.8371593950270442
-0.7942193051633955
0.032341420463208204
0.8371593950270442
-0.7947519253124415
0.031280926096958615
0.8358080602901785
-0.7947519253124415
0.031280926096958615
0.8358080602901785
-0.7947519253124415
0.031280926096958615
0.8358080602901785
-0.7947519253124415
0.031280926096958615
0.8358080602901785
-0.7954715692006104
0.029970628341610007
0.8340213100722027
-0.7954715692006104
0.029970628341610007
0.8340213100722027
-0.7954715692006104
0.029970628341610007
0.8340213100722027
-0.7954715692006104
0.029970628341610007
0.8340213100722027
-0.79790238662019
0.028030316176249702
0.8323262314415513
-0.79790238662019
0.028030316176249702
0.8323262314415513
-0.79790238662019
0.028030316176249702
0.8323262314415513
-0.79790238662019
0.028030316176249702
0.8323262314415513
-0.8005877997925035
0.02600853736658761
0.8308941333780037
-0.8005877997925035
0.02600853736658761
0.8308941333780037
-0.8005877997925035
0.02600853736658761
0.8308941333780037
-0.8005877997925035
0.02600853736658761
0.8308941333780037
-0.8024815983013485
0.02351412423747417
0.8305252260362154
-0.8024815983013485
0.02351412423747417
0.8305252260362154
-0.8024815983013485
0.02351412423747417
0.8305252260362154
-0.8024815983013485
0.02351412423747417
0.8305252260362154
-0.8034455336133093
0.02115371473217953
0.831084445283546
-0.8034455336133093
0.02115371473217953
0.831084445283546
-0.8034455336133093
0.02115371473217953
0.831084445283546
-0.8034455336133093
0.02115371473217953
0.831084445283546
-0.8034355186066536
0.018871465261554695
0.8311653001036111
-0.8034355186066536
0.018871465261554695
0.8311653001036111
-0.8034355186066536
0.018871465261554695
0.8311653001036111
-0.8034355186066536
0.018871465261554695
0.8311653001036111
-0.8012150643182432
0.016490920502297578
0.8306355691267802
-0.8012150643182432
0.016490920502297578
0.8306355691267802
-0.8012150643182432
0.016490920502297578
0.8306355691267802
-0.8012150643182432
0.016490920502297578
0.8306355691267802
-0.7968054571495328
0.014232738524276317
0.8298796013835681
-0.7968054571495328
0.014232738524276317
0.8298796013835681
-0.7968054571495328
0.014232738524276317
0.8298796013835681
-0.7968054571495328
0.014232738524276317
0.8298796013835681
-0.7926323947781481
0.012064578727600353
0.829478735266022
-0.7926323947781481
0.012064578727600353
0.829478735266022
-0.7926323947781481
0.012064578727600353
0.829478735266022
-0.7926323947781481
0.012064578727600353
0.829478735266022
-0.7895044062678348
0.009774996238524961
0.8297443742639282
-0.7895044062678348
0.009774996238524961
0.8297443742639282
-0.7895044062678348
0.009774996238524961
0.8297443742639282
-0.7895044062678348
0.009774996238524961
0.8297443742639282
-0.7874088896579376
0.007446423902914786
0.8301745992845178
-0.7874088896579376
0.007446423902914786
0.8301745992845178
-0.7874088896579376
0.007446423902914786
0.8301745992845178
-0.7874088896579376
0.007446423902914786
0.8301745992845178
-0.7852487072570686
0.005827285485993222
0.8303059861822321
-0.7852487072570686
0.005827285485993222
0.8303059861822321
-0.7852487072570686
0.005827285485993222
0.8303059861822321
-0.7852487072570686
0.005827285485993222
0.8303059861822321
-0.7821064124326578
0.004246749019793346
0.8305550831298741
-0.7821064124326578
0.004246749019793346
0.8305550831298741
-0.7821064124326578
0.004246749019793346
0.8305550831298741
-0.7821064124326578
0.004246749019793346
0.8305550831298741
-0.7782634791968364
0.0032994254694161504
0.8309697626770846
-0.7782634791968364
0.0032994254694161504
0.8309697626770846
-0.7782634791968364
0.0032994254694161504
0.8309697626770846
-0.7782634791968364
0.0032994254694161504
0.8309697626770846
-0.7738985069752247
0.002861271415331141
0.8311200926104105
-0.7738985069752247
0.002861271415331141
0.8311200926104105
-0.7738985069752247
0.002861271415331141
0.8311200926104105
-0.7738985069752247
0.002861271415331141
0.8311200926104105
-0.7708608248074389
0.0023901177913607336
0.831492769016192
-0.7708608248074389
0.0023901177913607336
0.831492769016192
-0.7708608248074389
0.0023901177913607336
0.831492769016192
-0.7708608248074389
0.0023901177913607336
0.831492769016192
-0.7707843039357387
0.002282901101864336
0.8316568616869545
-0.7707843039357387
0.002282901101864336
0.8316568616869545
-0.7707843039357387
0.002282901101864336
0.8316568616869545
-0.7707843039357387
0.002282901101864336
0.8316568616869545
-0.7719411344702158
0.0018509020501533832
0.8314553753582407
-0.7719411344702158
0.0018509020501533832
0.8314553753582407
-0.7719411344702158
0.0018509020501533832
0.8314553753582407
-0.7719411344702158
0.0018509020501533832
0.8314553753582407
-0.7732369331497723
0.0017775581820481828
0.831281992091355
-0.7732369331497723
0.0017775581820481828
0.831281992091355
-0.7732369331497723
0.0017775581820481828
0.831281992091355
-0.7732369331497723
0.0017775581820481828
0.831281992091355
-0.7740282748770574
0.001778804441818655
0.8310927821829401
-0.7740282748770574
0.001778804441818655
0.8310927821829401
-0.7740282748770574
0.001778804441818655
0.8310927821829401
-0.7740282748770574
0.001778804441818655
0.8310927821829401
-0.7740089384101841
0.0019896985750569736
0.8305918445935268
-0.7740089384101841
0.0019896985750569736
0.8305918445935268
-0.7740089384101841
0.0019896985750569736
0.8305918445935268
-0.7740089384101841
0.0019896985750569736
0.8305918445935268
-0.7741180225448061
0.002751071888953679
0.8298663435012416
-0.7741180225448061
0.002751071888953679
0.8298663435012416
-0.7741180225448061
0.002751071888953679
0.8298663435012416
-0.7741180225448061
0.002751071888953679
0.8298663435012416
-0.7749623683282536
0.003588938163975346
0.8292675897039535
-0.7749623683282536
0.003588938163975346
0.8292675897039535
-0.7749623683282536
0.003588938163975346
0.8292675897039535
-0.7749623683282536
0.003588938163975346
0.8292675897039535
-0.7764809848890093
0.0045262390150448495
0.8288525863261784
-0.7764809848890093
0.0045262390150448495
0.8288525863261784
-0.7764809848890093
0.0045262390150448495
0.8288525863261784
-0.7764809848890093
0.0045262390150448495
0.8288525863261784
-0.7782099220792786
0.005381422954938804
0.8284014151854695
-0.7782099220792786
0.005381422954938804
0.8284014151854695
-0.7782099220792786
0.005381422954938804
0.8284014151854695
-0.7782099220792786
0.005381422954938804
0.8284014151854695
-0.7791011151239159
0.0061140900592819986
0.8278420758602929
-0.7791011151239159
0.0061140900592819986
0.8278420758602929
-0.7791011151239159
0.0061140900592819986
0.8278420758602929
-0.7791011151239159
0.0061140900592819986
0.8278420758602929
-0.7794882290724142
0.006921796968340147
0.8272673988533716
-0.7794882290724142
0.006921796968340147
0.8272673988533716
-0.7794882290724142
0.006921796968340147
0.8272673988533716
-0.7794882290724142
0.006921796968340147
0.8272673988533716
-0.7794588215665864
0.007720409518703653
0.8267655157050643
-0.7794588215665864
0.007720409518703653
0.8267655157050643
-0.7794588215665864
0.007720409518703653
0.8267655157050643
-0.7794588215665864
0.007720409518703653
0.8267655157050643
-0.7798759278505542
0.008294656383043919
0.8263392733358248
-0.7798759278505542
0.008294656383043919
0.8263392733358248
-0.7798759278505542
0.008294656383043919
0.8263392733358248
-0.7798759278505542
0.008294656383043919
0.8263392733358248
-0.7804054278183534
0.008496876738039554
0.8258911461186741
-0.7804054278183534
0.008496876738039554
0.8258911461186741
-0.7804054278183534
0.008496876738039554
0.8258911461186741
-0.7804054278183534
0.008496876738039554
0.8258911461186741
-0.7811317359696831
0.008365118589502292
0.8255116737319409
-0.7811317359696831
0.008365118589502292
0.8255116737319409
-0.7811317359696831
0.008365118589502292
0.8255116737319409
-0.7811317359696831
0.008365118589502292
0.8255116737319409
-0.7817805567107693
0.0081269521237102
0.8252972582586644
-0.7817805567107693
0.0081269521237102
0.8252972582586644
-0.7817805567107693
0.0081269521237102
0.8252972582586644
-0.7817805567107693
0.0081269521237102
0.8252972582586644
-0.7817996283578112
0.008084527102430234
0.8251937861699887
-0.7817996283578112
0.008084527102430234
0.8251937861699887
-0.7817996283578112
0.008084527102430234
0.8251937861699887
-0.7817996283578112
0.008084527102430234
0.8251937861699887
-0.7815592735600634
0.008123432666754627
0.8248308873106468
-0.7815592735600634
0.008123432666754627
0.8248308873106468
-0.7815592735600634
0.008123432666754627
0.8248308873106468
-0.7815592735600634
0.008123432666754627
0.8248308873106468
-0.7818234206176855
0.008086272692876432
0.824482309204314
-0.7818234206176855
0.008086272692876432
0.824482309204314
-0.7818234206176855
0.008086272692876432
0.824482309204314
-0.7818234206176855
0.008086272692876432
0.824482309204314
-0.7828059588560268
0.008044337852525254
0.8243593755170976
-0.7828059588560268
0.008044337852525254
0.8243593755170976
-0.7828059588560268
0.008044337852525254
0.8243593755170976
-0.7828059588560268
0.008044337852525254
0.8243593755170976
-0.7840569708736362
0.008068857891029332
0.824139871194544
-0.7840569708736362
0.008068857891029332
0.824139871194544
-0.7840569708736362
0.008068857891029332
0.824139871194544
-0.7840569708736362
0.008068857891029332
0.824139871194544
-0.7845965238872001
0.008079388939208402
0.8239441496843667
-0.7845965238872001
0.008079388939208402
0.8239441496843667
-0.7845965238872001
0.008079388939208402
0.8239441496843667
-0.7845965238872001
0.008079388939208402
0.8239441496843667
-0.7848607228935239
0.00804158136381738
0.8235956117864202
-0.7848607228935239
0.00804158136381738
0.8235956117864202
-0.7848607228935239
0.00804158136381738
0.8235956117864202
-0.7848607228935239
0.00804158136381738
0.8235956117864202
-0.784818121399868
0.008022481162420669
0.8235506366976517
-0.784818121399868
0.008022481162420669
0.8235506366976517
-0.784818121399868
0.008022481162420669
0.8235506366976517
-0.784818121399868
0.008022481162420669
0.8235506366976517
-0.78526775259425
0.008239649235507553
0.823269676457599
-0.78526775259425
0.008239649235507553
0.823269676457599
-0.78526775259425
0.008239649235507553
0.823269676457599
-0.78526775259425
0.008239649235507553
0.823269676457599
-0.7851216918162833
0.00817558994034147
0.8232438365324741
-0.7851216918162833
0.00817558994034147
0.8232438365324741
-0.7851216918162833
0.00817558994034147
0.8232438365324741
-0.7851216918162833
0.00817558994034147
0.8232438365324741
-0.7857432650588958
0.00839590560636805
0.8231346902251018
-0.7857432650588958
0.00839590560636805
0.8231346902251018
-0.7857432650588958
0.00839590560636805
0.8231346902251018
-0.7857432650588958
0.00839590560636805
0.8231346902251018
-0.7866008385684734
0.008473393244292495
0.8231365323108208
-0.7866008385684734
0.008473393244292495
0.8231365323108208
-0.7866008385684734
0.008473393244292495
0.8231365323108208
-0.7866008385684734
0.008473393244292495
0.8231365323108208
-0.7865581528822494
0.008454241677722843
0.8230916073181529
-0.7865581528822494
0.008454241677722843
0.8230916073181529
-0.7865581528822494
0.008454241677722843
0.8230916073181529
-0.7865581528822494
0.008454241677722843
0.8230916073181529
-0.7864547331934414
0.008409318247359552
0.8231107557072419
-0.7864547331934414
0.008409318247359552
0.8231107557072419
-0.7864547331934414
0.008409318247359552
0.8231107557072419
-0.7864547331934414
0.008409318247359552
0.8231107557072419
-0.7867683357417691
0.0083722089203004
0.8230566531994458
-0.7867683357417691
0.0083722089203004
0.8230566531994458
-0.7867683357417691
0.0083722089203004
0.8230566531994458
-0.7867683357417691
0.0083722089203004
0.8230566531994458
-0.7870763715409941
0.008629528019217849
0.8230013852762124
-0.7870763715409941
0.008629528019217849
0.8230013852762124
-0.7870763715409941
0.008629528019217849
0.8230013852762124
-0.7870763715409941
0.008629528019217849
0.8230013852762124
-0.7872574713036304
0.008780032435957753
0.8228169098029102
-0.7872574713036304
0.008780032435957753
0.8228169098029102
-0.7872574713036304
0.008780032435957753
0.8228169098029102
-0.7872574713036304
0.008780032435957753
0.8228169098029102
-0.7875206603979266
0.009140705439347472
0.8227187922300011
-0.7875206603979266
0.009140705439347472
0.8227187922300011
-0.7875206603979266
0.009140705439347472
0.8227187922300011
-0.7875206603979266
0.009140705439347472
0.8227187922300011
-0.7876163768672222
0.009602626346108926
0.8227004969820272
-0.7876163768672222
0.009602626346108926
0.8227004969820272
-0.7876163768672222
0.009602626346108926
0.8227004969820272
-0.7876163768672222
0.009602626346108926
0.8227004969820272
-0.7876163768672222
0.009602626346108926
0.8227004969820272
-0.7876163768672222
0.009602626346108926
0.8227004969820272
-0.7876163768672222
0.009602626346108926
0.8227004969820272
-0.7876163768672222
0.009602626346108926
0.8227004969820272
-0.7877377158010422
0.010003853892587481
0.8228282921869848
-0.7877377158010422
0.010003853892587481
0.8228282921869848
-0.7877377158010422
0.010003853892587481
0.8228282921869848
-0.7877377158010422
0.010003853892587481
0.8228282921869848
-0.7877377158010422
0.010003853892587481
0.8228282921869848
-0.7877377158010422
0.010003853892587481
0.8228282921869848
-0.7877377158010422
0.010003853892587481
0.8228282921869848
-0.7877377158010422
0.010003853892587481
0.8228282921869848
-0.7877377158010422
0.010003853892587481
0.8228282921869848
-0.7877377158010422
0.010003853892587481
0.8228282921869848
-0.7877377158010422
0.010003853892587481
0.8228282921869848
-0.7877377158010422
0.010003853892587481
0.8228282921869848
-0.7877825842185979
0.009900443793825816
0.8228710082501824
-0.7877825842185979
0.009900443793825816
0.8228710082501824
-0.7877825842185979
0.009900443793825816
0.8228710082501824
-0.7877825842185979
0.009900443793825816
0.8228710082501824
-0.7876791691751661
0.009855573834951252
0.8228902546981826
-0.7876791691751661
0.009855573834951252
0.8228902546981826
-0.7876791691751661
0.009855573834951252
0.8228902546981826
-0.7876791691751661
0.009855573834951252
0.8228902546981826
-0.7877611740767743
0.01006582045106656
0.8229765796155877
-0.7877611740767743
0.01006582045106656
0.8229765796155877
-0.7877611740767743
0.01006582045106656
0.8229765796155877
-0.7877611740767743
0.01006582045106656
0.8229765796155877
-0.7883892647831888
0.010268032706338139
0.8231160929167579
-0.7883892647831888
0.010268032706338139
0.8231160929167579
-0.7883892647831888
0.010268032706338139
0.8231160929167579
-0.7883892647831888
0.010268032706338139
0.8231160929167579
-0.7884534167691153
0.010121898907244506
0.8230554370038823
-0.7884534167691153
0.010121898907244506
0.8230554370038823
-0.7884534167691153
0.010121898907244506
0.8230554370038823
-0.7884534167691153
0.010121898907244506
0.8230554370038823
-0.7883500163864435
0.010077029975840954
0.8230747142065153
-0.7883500163864435
0.010077029975840954
0.8230747142065153
-0.7883500163864435
0.010077029975840954
0.8230747142065153
-0.7883500163864435
0.010077029975840954
0.8230747142065153
-0.788307275171196
0.010057757613244542
0.823029842939096
-0.788307275171196
0.010057757613244542
0.823029842939096
-0.788307275171196
0.010057757613244542
0.823029842939096
-0.788307275171196
0.010057757613244542
0.823029842939096
-0.788716322547234
0.009519444644748309
0.8230624519881916
-0.788716322547234
0.009519444644748309
0.8230624519881916
-0.788716322547234
0.009519444644748309
0.8230624519881916
-0.788716322547234
0.009519444644748309
0.8230624519881916
-0.7893129062290039
0.00911369339974766
0.823160168121774
-0.7893129062290039
0.00911369339974766
0.823160168121774
-0.7893129062290039
0.00911369339974766
0.823160168121774
-0.7893129062290039
0.00911369339974766
0.823160168121774
-0.7892544323718076
0.008965445919952929
0.8232222231111177
-0.7892544323718076
0.008965445919952929
0.8232222231111177
-0.7892544323718076
0.008965445919952929
0.8232222231111177
-0.7892544323718076
0.008965445919952929
0.8232222231111177
-0.7892544323718076
0.008965445919952929
0.8232222231111177
-0.7892544323718076
0.008965445919952929
0.8232222231111177
-0.7892544323718076
0.008965445919952929
0.8232222231111177
-0.7892544323718076
0.008965445919952929
0.8232222231111177
-0.7895052752740985
0.008675152175647096
0.8229785443194538
-0.7895052752740985
0.008675152175647096
0.8229785443194538
-0.7895052752740985
0.008675152175647096
0.8229785443194538
-0.7895052752740985
0.008675152175647096
0.8229785443194538
-0.7898774364324028
0.008786177545845628
0.8228623662379073
-0.7898774364324028
0.008786177545845628
0.8228623662379073
-0.7898774364324028
0.008786177545845628
0.8228623662379073
-0.7898774364324028
0.008786177545845628
0.8228623662379073
-0.7900000350024978
0.008788192086787022
0.8227397676678123
-0.7900000350024978
0.008788192086787022
0.8227397676678123
-0.7900000350024978
0.008788192086787022
0.8227397676678123
-0.7900000350024978
0.008788192086787022
0.8227397676678123
-0.7899551698341539
0.008891550560019067
0.8226969097280399
-0.7899551698341539
0.008891550560019067
0.8226969097280399
-0.7899551698341539
0.008891550560019067
0.8226969097280399
-0.7899551698341539
0.008891550560019067
0.8226969097280399
-0.78975415673362
0.00912031534085197
0.8223752901342046
-0.78975415673362
0.00912031534085197
0.8223752901342046
-0.78975415673362
0.00912031534085197
0.8223752901342046
-0.78975415673362
0.00912031534085197
0.8223752901342046
-0.7892568211795299
0.009466252697814745
0.8220065924492941
-0.7892568211795299
0.009466252697814745
0.8220065924492941
-0.7892568211795299
0.009466252697814745
0.8220065924492941
-0.7892568211795299
0.009466252697814745
0.8220065924492941
-0.7888279506112056
0.009770989228535835
0.821829065408762
-0.7888279506112056
0.009770989228535835
0.821829065408762
-0.7888279506112056
0.009770989228535835
0.821829065408762
-0.7888279506112056
0.009770989228535835
0.821829065408762
-0.788931364052561
0.009815795100925402
0.8218098202688225
-0.788931364052561
0.009815795100925402
0.8218098202688225
-0.788931364052561
0.009815795100925402
0.8218098202688225
-0.788931364052561
0.009815795100925402
0.8218098202688225
-0.7895478259712898
0.010329885503500414
0.8216982133607192
-0.7895478259712898
0.010329885503500414
0.8216982133607192
-0.7895478259712898
0.010329885503500414
0.8216982133607192
-0.7895478259712898
0.010329885503500414
0.8216982133607192
-0.7855768293601038
0.011724192540004647
0.8222936127232278
-0.7855768293601038
0.011724192540004647
0.8222936127232278
-0.7855768293601038
0.011724192540004647
0.8222936127232278
-0.7855768293601038
0.011724192540004647
0.8222936127232278
-0.7846761200571739
0.013677042271078976
0.8220434598795684
-0.7846761200571739
0.013677042271078976
0.8220434598795684
-0.7846761200571739
0.013677042271078976
0.8220434598795684
-0.7846761200571739
0.013677042271078976
0.8220434598795684
-0.7865520236819884
0.016306166820793857
0.8208934504013939
-0.7865520236819884
0.016306166820793857
0.8208934504013939
-0.7865520236819884
0.016306166820793857
0.8208934504013939
-0.7865520236819884
0.016306166820793857
0.8208934504013939
-0.7849356250673009
0.018498643598721505
0.8195615322637634
-0.7849356250673009
0.018498643598721505
0.8195615322637634
-0.7849356250673009
0.018498643598721505
0.8195615322637634
-0.7849356250673009
0.018498643598721505
0.8195615322637634
-0.7806977022548917
0.02125437557586424
0.8195672986150511
-0.7806977022548917
0.02125437557586424
0.8195672986150511
-0.7806977022548917
0.02125437557586424
0.8195672986150511
-0.7806977022548917
0.02125437557586424
0.8195672986150511
-0.7847097501304827
0.02362425075426944
0.8200452550273829
-0.7847097501304827
0.02362425075426944
0.8200452550273829
-0.7847097501304827
0.02362425075426944
0.8200452550273829
-0.7847097501304827
0.02362425075426944
0.8200452550273829
-0.788995371675733
0.025311556115773556
0.8199086333748363
-0.788995371675733
0.025311556115773556
0.8199086333748363
-0.788995371675733
0.025311556115773556
0.8199086333748363
-0.788995371675733
0.025311556115773556
0.8199086333748363
-0.78428191155774
0.02665373803433311
0.820166928460549
-0.78428191155774
0.02665373803433311
0.820166928460549
-0.78428191155774
0.02665373803433311
0.820166928460549
-0.78428191155774
0.02665373803433311
0.820166928460549
-0.7807834221496871
0.028205035073747404
0.8206592373225252
-0.7807834221496871
0.028205035073747404
0.8206592373225252
-0.7807834221496871
0.028205035073747404
0.8206592373225252
-0.7807834221496871
0.028205035073747404
0.8206592373225252
-0.7793711426774754
0.029916871103178155
0.820771042714367
-0.7793711426774754
0.029916871103178155
0.820771042714367
-0.7793711426774754
0.029916871103178155
0.820771042714367
-0.7793711426774754
0.029916871103178155
0.820771042714367
-0.7796957602074981
0.03143665017493199
0.8188942636750296
-0.7796957602074981
0.03143665017493199
0.8188942636750296
-0.7796957602074981
0.03143665017493199
0.8188942636750296
-0.7796957602074981
0.03143665017493199
0.8188942636750296
-0.7798991235882321
0.032953460376478234
0.8171410784108122
-0.7798991235882321
0.032953460376478234
0.8171410784108122
-0.7798991235882321
0.032953460376478234
0.8171410784108122
-0.7798991235882321
0.032953460376478234
0.8171410784108122
-0.7774903876101681
0.03423400820785291
0.8172416438192641
-0.7774903876101681
0.03423400820785291
0.8172416438192641
-0.7774903876101681
0.03423400820785291
0.8172416438192641
-0.7774903876101681
0.03423400820785291
0.8172416438192641
-0.7738230377445552
0.035514020559774526
0.8173322736259839
-0.7738230377445552
0.035514020559774526
0.8173322736259839
-0.7738230377445552
0.035514020559774526
0.8173322736259839
-0.7738230377445552
0.035514020559774526
0.8173322736259839
-0.7718457931928231
0.03684798487678228
0.8167527083999478
-0.7718457931928231
0.03684798487678228
0.8167527083999478
-0.7718457931928231
0.03684798487678228
0.8167527083999478
-0.7718457931928231
0.03684798487678228
0.8167527083999478
-0.769933035863871
0.036779866507591706
0.8162078247400264
-0.769933035863871
0.036779866507591706
0.8162078247400264
-0.769933035863871
0.036779866507591706
0.8162078247400264
-0.769933035863871
0.036779866507591706
0.8162078247400264
-0.7669957351004631
0.03595695471280267
0.8166062514084174
-0.7669957351004631
0.03595695471280267
0.8166062514084174
-0.7669957351004631
0.03595695471280267
0.8166062514084174
-0.7669957351004631
0.03595695471280267
0.8166062514084174
-0.7647679968379494
0.035970125712069964
0.8179859536625836
-0.7647679968379494
0.035970125712069964
0.8179859536625836
-0.7647679968379494
0.035970125712069964
0.8179859536625836
-0.7647679968379494
0.035970125712069964
0.8179859536625836
-0.7666219820164585
0.03599225212532134
0.8188456670728499
-0.7666219820164585
0.03599225212532134
0.8188456670728499
-0.7666219820164585
0.03599225212532134
0.8188456670728499
-0.7666219820164585
0.03599225212532134
0.8188456670728499
-0.7673963667570369
0.035654678059171545
0.8182434043632233
-0.7673963667570369
0.035654678059171545
0.8182434043632233
-0.7673963667570369
0.035654678059171545
0.8182434043632233
-0.7673963667570369
0.035654678059171545
0.8182434043632233
-0.7665367698657071
0.035102378946088086
0.8174954064585536
-0.7665367698657071
0.035102378946088086
0.8174954064585536
-0.7665367698657071
0.035102378946088086
0.8174954064585536
-0.7665367698657071
0.035102378946088086
0.8174954064585536
-0.765818960170472
0.03462418197101349
0.8181311634692717
-0.765818960170472
0.03462418197101349
0.8181311634692717
-0.765818960170472
0.03462418197101349
0.8181311634692717
-0.765818960170472
0.03462418197101349
0.8181311634692717
-0.7678579796207147
0.03414126290583199
0.8196605074709027
-0.7678579796207147
0.03414126290583199
0.8196605074709027
-0.7678579796207147
0.03414126290583199
0.8196605074709027
-0.7678579796207147
0.03414126290583199
0.8196605074709027
-0.770373255905238
0.03285389184204073
0.8211477176702132
-0.770373255905238
0.03285389184204073
0.8211477176702132
-0.770373255905238
0.03285389184204073
0.8211477176702132
-0.770373255905238
0.03285389184204073
0.8211477176702132
-0.7706665312478739
0.03199738294512699
0.821542981382452
-0.7706665312478739
0.03199738294512699
0.821542981382452
-0.7706665312478739
0.03199738294512699
0.821542981382452
-0.7706665312478739
0.03199738294512699
0.821542981382452
-0.7696213413835026
0.031460515223628506
0.8209780014770945
-0.7696213413835026
0.031460515223628506
0.8209780014770945
-0.7696213413835026
0.031460515223628506
0.8209780014770945
-0.7696213413835026
0.031460515223628506
0.8209780014770945
-0.768545710405099
0.030747781773988018
0.8211260018823217
-0.768545710405099
0.030747781773988018
0.8211260018823217
-0.768545710405099
0.030747781773988018
0.8211260018823217
-0.768545710405099
0.030747781773988018
0.8211260018823217
-0.7691714131473832
0.029983231215441924
0.8213571984365977
-0.7691714131473832
0.029983231215441924
0.8213571984365977
-0.7691714131473832
0.029983231215441924
0.8213571984365977
-0.7691714131473832
0.029983231215441924
0.8213571984365977
-0.7713812699387413
0.029561917276506294
0.8214482800478786
-0.7713812699387413
0.029561917276506294
0.8214482800478786
-0.7713812699387413
0.029561917276506294
0.8214482800478786
-0.7713812699387413
0.029561917276506294
0.8214482800478786
-0.7725852362437131
0.02912273357981508
0.8215252148590407
-0.7725852362437131
0.02912273357981508
0.8215252148590407
-0.7725852362437131
0.02912273357981508
0.8215252148590407
-0.7725852362437131
0.02912273357981508
0.8215252148590407
-0.7734295369307675
0.02905083313361445
0.8218741156440031
-0.7734295369307675
0.02905083313361445
0.8218741156440031
-0.7734295369307675
0.02905083313361445
0.8218741156440031
-0.7734295369307675
0.02905083313361445
0.8218741156440031
-0.774138332272986
0.02860013577135851
0.8224470915646236
-0.774138332272986
0.02860013577135851
0.8224470915646236
-0.774138332272986
0.02860013577135851
0.8224470915646236
-0.774138332272986
0.02860013577135851
0.8224470915646236
-0.7738002416446169
0.027837940712369162
0.8227099270759163
-0.7738002416446169
0.027837940712369162
0.8227099270759163
-0.7738002416446169
0.027837940712369162
0.8227099270759163
-0.7738002416446169
0.027837940712369162
0.8227099270759163
-0.7728817213546283
0.027508601599227793
0.8225248173610805
-0.7728817213546283
0.027508601599227793
0.8225248173610805
-0.7728817213546283
0.027508601599227793
0.8225248173610805
-0.7728817213546283
0.027508601599227793
0.8225248173610805
-0.7727133344553242
0.02760940871838795
0.8226070122317695
-0.7727133344553242
0.02760940871838795
0.8226070122317695
-0.7727133344553242
0.02760940871838795
0.8226070122317695
-0.7727133344553242
0.02760940871838795
0.8226070122317695
-0.7738084846951636
0.0274202994604265
0.8227060633487603
-0.7738084846951636
0.0274202994604265
0.8227060633487603
-0.7738084846951636
0.0274202994604265
0.8227060633487603
-0.7738084846951636
0.0274202994604265
0.8227060633487603
-0.7755135195411339
0.0273033939111933
0.8230469720044096
-0.7755135195411339
0.0273033939111933
0.8230469720044096
-0.7755135195411339
0.0273033939111933
0.8230469720044096
-0.7755135195411339
0.0273033939111933
0.8230469720044096
-0.77793241670349
0.027304245862915733
0.8236097523955511
-0.77793241670349
0.027304245862915733
0.8236097523955511
-0.77793241670349
0.027304245862915733
0.8236097523955511
-0.77793241670349
0.027304245862915733
0.8236097523955511
-0.7783176966322356
0.027205799244696786
0.8239922058646778
-0.7783176966322356
0.027205799244696786
0.8239922058646778
-0.7783176966322356
0.027205799244696786
0.8239922058646778
-0.7783176966322356
0.027205799244696786
0.8239922058646778
-0.7770987209774586
0.02739108755472673
0.8240163801253578
-0.7770987209774586
0.02739108755472673
0.8240163801253578
-0.7770987209774586
0.02739108755472673
0.8240163801253578
-0.7770987209774586
0.02739108755472673
0.8240163801253578
-0.7754081021537788
0.027759165842245227
0.8235721637835103
-0.7754081021537788
0.027759165842245227
0.8235721637835103
-0.7754081021537788
0.027759165842245227
0.8235721637835103
-0.7754081021537788
0.027759165842245227
0.8235721637835103
-0.775862225560523
0.028081360262762662
0.8235400686459616
-0.775862225560523
0.028081360262762662
0.8235400686459616
-0.775862225560523
0.028081360262762662
0.8235400686459616
-0.775862225560523
0.028081360262762662
0.8235400686459616
-0.7767044132967332
0.028181014403413234
0.8238870869052609
-0.7767044132967332
0.028181014403413234
0.8238870869052609
-0.7767044132967332
0.028181014403413234
0.8238870869052609
-0.7767044132967332
0.028181014403413234
0.8238870869052609
-0.7778413724964127
0.028012780443888722
0.8240308303124408
-0.7778413724964127
0.028012780443888722
0.8240308303124408
-0.7778413724964127
0.028012780443888722
0.8240308303124408
-0.7778413724964127
0.028012780443888722
0.8240308303124408
-0.7773426100586045
0.0277942712302515
0.8240214389537648
-0.7773426100586045
0.0277942712302515
0.8240214389537648
-0.7773426100586045
0.0277942712302515
0.8240214389537648
-0.7773426100586045
0.0277942712302515
0.8240214389537648
-0.776268435868284
0.027713730273080515
0.8235631907121435
-0.776268435868284
0.027713730273080515
0.8235631907121435
-0.776268435868284
0.027713730273080515
0.8235631907121435
-0.776268435868284
0.027713730273080515
0.8235631907121435
-0.7761826418194568
0.027524062931322618
0.8232269600172507
-0.7761826418194568
0.027524062931322618
0.8232269600172507
-0.7761826418194568
0.027524062931322618
0.8232269600172507
-0.7761826418194568
0.027524062931322618
0.8232269600172507
-0.7760787981651419
0.027479439490651795
0.8232468713596961
-0.7760787981651419
0.027479439490651795
0.8232468713596961
-0.7760787981651419
0.027479439490651795
0.8232468713596961
-0.7760787981651419
0.027479439490651795
0.8232468713596961
-0.7760787981651419
0.027479439490651795
0.8232468713596961
-0.7760787981651419
0.027479439490651795
0.8232468713596961
-0.7760787981651419
0.027479439490651795
0.8232468713596961
-0.7760787981651419
0.027479439490651795
0.8232468713596961
-0.7761234421736667
0.027375635136100387
0.8232885963694822
-0.7761234421736667
0.027375635136100387
0.8232885963694822
-0.7761234421736667
0.027375635136100387
0.8232885963694822
-0.7761234421736667
0.027375635136100387
0.8232885963694822
-0.7757201937249756
0.027619601565341937
0.823262472059669
-0.7757201937249756
0.027619601565341937
0.823262472059669
-0.7757201937249756
0.027619601565341937
0.823262472059669
-0.7757201937249756
0.027619601565341937
0.823262472059669
-0.7756255859122098
0.028121163167598804
0.8231796371741317
-0.7756255859122098
0.028121163167598804
0.8231796371741317
-0.7756255859122098
0.028121163167598804
0.8231796371741317
-0.7756255859122098
0.028121163167598804
0.8231796371741317
-0.7757229338000652
0.028686719906432814
0.8234155395460754
-0.7757229338000652
0.028686719906432814
0.8234155395460754
-0.7757229338000652
0.028686719906432814
0.8234155395460754
-0.7757229338000652
0.028686719906432814
0.8234155395460754
-0.7756812591426779
0.028666762169102484
0.8233709116253953
-0.7756812591426779
0.028666762169102484
0.8233709116253953
-0.7756812591426779
0.028666762169102484
0.8233709116253953
-0.7756812591426779
0.028666762169102484
0.8233709116253953
-0.7755490947232435
0.02908148102994204
0.8234982675884931
-0.7755490947232435
0.02908148102994204
0.8234982675884931
-0.7755490947232435
0.02908148102994204
0.8234982675884931
-0.7755490947232435
0.02908148102994204
0.8234982675884931
-0.7754861281075562
0.029330187266182965
0.8238128423949276
-0.7754861281075562
0.029330187266182965
0.8238128423949276
-0.7754861281075562
0.029330187266182965
0.8238128423949276
-0.7754861281075562
0.029330187266182965
0.8238128423949276
-0.7761103672960292
0.029654947892122578
0.8239505034097376
-0.7761103672960292
0.029654947892122578
0.8239505034097376
-0.7761103672960292
0.029654947892122578
0.8239505034097376
-0.7761103672960292
0.029654947892122578
0.8239505034097376
-0.7763396934917061
0.029805867854620572
0.8240588950731346
-0.7763396934917061
0.029805867854620572
0.8240588950731346
-0.7763396934917061
0.029805867854620572
0.8240588950731346
-0.7763396934917061
0.029805867854620572
0.8240588950731346
-0.7751005617879111
0.030032715530238105
0.8241887123639337
-0.7751005617879111
0.030032715530238105
0.8241887123639337
-0.7751005617879111
0.030032715530238105
0.8241887123639337
-0.7751005617879111
0.030032715530238105
0.8241887123639337
-0.7731996474225529
0.029847635948981904
0.8243910440444178
-0.7731996474225529
0.029847635948981904
0.8243910440444178
-0.7731996474225529
0.029847635948981904
0.8243910440444178
-0.7731996474225529
0.029847635948981904
0.8243910440444178
-0.7726418056629544
0.029480491895697115
0.824443048320736
-0.7726418056629544
0.029480491895697115
0.824443048320736
-0.7726418056629544
0.029480491895697115
0.824443048320736
-0.7726418056629544
0.029480491895697115
0.824443048320736
-0.7748381736942511
0.0282070504644336
0.823880738552867
-0.7748381736942511
0.0282070504644336
0.823880738552867
-0.7748381736942511
0.0282070504644336
0.823880738552867
-0.7748381736942511
0.0282070504644336
0.823880738552867
-0.7768720049066508
0.02687181634682986
0.8222906098096998
-0.7768720049066508
0.02687181634682986
0.8222906098096998
-0.7768720049066508
0.02687181634682986
0.8222906098096998
-0.7768720049066508
0.02687181634682986
0.8222906098096998
-0.7802830140124761
0.025160772748547156
0.8200972059971819
-0.7802830140124761
0.025160772748547156
0.8200972059971819
-0.7802830140124761
0.025160772748547156
0.8200972059971819
-0.7802830140124761
0.025160772748547156
0.8200972059971819
-0.7876154936919357
0.02168383576770871
0.8178545026116721
-0.7876154936919357
0.02168383576770871
0.8178545026116721
-0.7876154936919357
0.02168383576770871
0.8178545026116721
-0.7876154936919357
0.02168383576770871
0.8178545026116721
-0.7915143863201233
0.019711417698480744
0.8162973347956132
-0.7915143863201233
0.019711417698480744
0.8162973347956132
-0.7915143863201233
0.019711417698480744
0.8162973347956132
-0.7915143863201233
0.019711417698480744
0.8162973347956132
-0.7922698238763732
0.018761116204253737
0.8166708807671151
-0.7922698238763732
0.018761116204253737
0.8166708807671151
-0.7922698238763732
0.018761116204253737
0.8166708807671151
-0.7922698238763732
0.018761116204253737
0.8166708807671151
-0.7895117511025738
0.01850965713743281
0.8168667919293836
-0.7895117511025738
0.01850965713743281
0.8168667919293836
-0.7895117511025738
0.01850965713743281
0.8168667919293836
-0.7895117511025738
0.01850965713743281
0.8168667919293836
-0.7837934631018038
0.01871457973474206
0.816080527354647
-0.7837934631018038
0.01871457973474206
0.816080527354647
-0.7837934631018038
0.01871457973474206
0.816080527354647
-0.7837934631018038
0.01871457973474206
0.816080527354647
-0.7781763062341395
0.01823141146829523
0.8156311100034843
-0.7781763062341395
0.01823141146829523
0.8156311100034843
-0.7781763062341395
0.01823141146829523
0.8156311100034843
-0.7781763062341395
0.01823141146829523
0.8156311100034843
-0.7744360483040498
0.01762872039237441
0.815699056217129
-0.7744360483040498
0.01762872039237441
0.815699056217129
-0.7744360483040498
0.01762872039237441
0.815699056217129
-0.7744360483040498
0.01762872039237441
0.815699056217129
-0.7741852066662448
0.0170569716992613
0.8162972086386356
-0.7741852066662448
0.0170569716992613
0.8162972086386356
-0.7741852066662448
0.0170569716992613
0.8162972086386356
-0.7741852066662448
0.0170569716992613
0.8162972086386356
-0.7729253288547812
0.016287392413029393
0.8185929828997007
-0.7729253288547812
0.016287392413029393
0.8185929828997007
-0.7729253288547812
0.016287392413029393
0.8185929828997007
-0.7729253288547812
0.016287392413029393
0.8185929828997007
-0.7710284012253255
0.015677644274557555
0.8204952348550015
-0.7710284012253255
0.015677644274557555
0.8204952348550015
-0.7710284012253255
0.015677644274557555
0.8204952348550015
-0.7710284012253255
0.015677644274557555
0.8204952348550015
-0.7688593174723504
0.014689688317517602
0.8211325806527259
-0.7688593174723504
0.014689688317517602
0.8211325806527259
-0.7688593174723504
0.014689688317517602
0.8211325806527259
-0.7688593174723504
0.014689688317517602
0.8211325806527259
-0.7671153280331526
0.013135742438645999
0.8205752412391468
-0.7671153280331526
0.013135742438645999
0.8205752412391468
-0.7671153280331526
0.013135742438645999
0.8205752412391468
-0.7671153280331526
0.013135742438645999
0.8205752412391468
-0.7651461522531449
0.012102687397643988
0.8198075595910426
-0.7651461522531449
0.012102687397643988
0.8198075595910426
-0.7651461522531449
0.012102687397643988
0.8198075595910426
-0.7651461522531449
0.012102687397643988
0.8198075595910426
-0.7642041219972064
0.010923578278380823
0.8189546847105005
-0.7642041219972064
0.010923578278380823
0.8189546847105005
-0.7642041219972064
0.010923578278380823
0.8189546847105005
-0.7642041219972064
0.010923578278380823
0.8189546847105005
-0.7657907265576734
0.009952734105862728
0.8180615906897198
-0.7657907265576734
0.009952734105862728
0.8180615906897198
-0.7657907265576734
0.009952734105862728
0.8180615906897198
-0.7657907265576734
0.009952734105862728
0.8180615906897198
-0.7685127751904623
0.009375478078457008
0.8175766636224108
-0.7685127751904623
0.009375478078457008
0.8175766636224108
-0.7685127751904623
0.009375478078457008
0.8175766636224108
-0.7685127751904623
0.009375478078457008
0.8175766636224108
-0.7712315161806061
0.008919524678231186
0.8170961594501424
-0.7712315161806061
0.008919524678231186
0.8170961594501424
-0.7712315161806061
0.008919524678231186
0.8170961594501424
-0.7712315161806061
0.008919524678231186
0.8170961594501424
-0.7720182796863302
0.008018103079209558
0.8161449908675235
-0.7720182796863302
0.008018103079209558
0.8161449908675235
-0.7720182796863302
0.008018103079209558
0.8161449908675235
-0.7720182796863302
0.008018103079209558
0.8161449908675235
-0.7715037011188267
0.0070971136456972955
0.8151188908948626
-0.7715037011188267
0.0070971136456972955
0.8151188908948626
-0.7715037011188267
0.0070971136456972955
0.8151188908948626
-0.7715037011188267
0.0070971136456972955
0.8151188908948626
-0.7713112327319248
0.006343653772141976
0.8145431066523893
-0.7713112327319248
0.006343653772141976
0.8145431066523893
-0.7713112327319248
0.006343653772141976
0.8145431066523893
-0.7713112327319248
0.006343653772141976
0.8145431066523893
-0.7719584475541409
0.0061029752642213905
0.8143281030600413
-0.7719584475541409
0.0061029752642213905
0.8143281030600413
-0.7719584475541409
0.0061029752642213905
0.8143281030600413
-0.7719584475541409
0.0061029752642213905
0.8143281030600413
-0.7730722820319246
0.005867487130363155
0.8143351014527678
-0.7730722820319246
0.005867487130363155
0.8143351014527678
-0.7730722820319246
0.005867487130363155
0.8143351014527678
-0.7730722820319246
0.005867487130363155
0.8143351014527678
-0.7747214985496156
0.005935381992701188
0.8141481808283427
-0.7747214985496156
0.005935381992701188
0.8141481808283427
-0.7747214985496156
0.005935381992701188
0.8141481808283427
-0.7747214985496156
0.005935381992701188
0.8141481808283427
-0.7756963771920161
0.005908167085144246
0.8137765164781895
-0.7756963771920161
0.005908167085144246
0.8137765164781895
-0.7756963771920161
0.005908167085144246
0.8137765164781895
-0.7756963771920161
0.005908167085144246
0.8137765164781895
-0.775892724581857
0.006311163587716203
0.8134901078250145
-0.775892724581857
0.006311163587716203
0.8134901078250145
-0.775892724581857
0.006311163587716203
0.8134901078250145
-0.775892724581857
0.006311163587716203
0.8134901078250145
-0.7759667206853643
0.006711811894325363
0.8133260891238677
-0.7759667206853643
0.006711811894325363
0.8133260891238677
-0.7759667206853643
0.006711811894325363
0.8133260891238677
-0.7759667206853643
0.006711811894325363
0.8133260891238677
-0.7763352783209232
0.007116299461290371
0.8132115742683668
-0.7763352783209232
0.007116299461290371
0.8132115742683668
-0.7763352783209232
0.007116299461290371
0.8132115742683668
-0.7763352783209232
0.007116299461290371
0.8132115742683668
-0.7770406603984445
0.007543281201315051
0.8131908991168493
-0.7770406603984445
0.007543281201315051
0.8131908991168493
-0.7770406603984445
0.007543281201315051
0.8131908991168493
-0.7770406603984445
0.007543281201315051
0.8131908991168493
-0.7777718960608827
0.007908790720505734
0.8133160818236715
-0.7777718960608827
0.007908790720505734
0.8133160818236715
-0.7777718960608827
0.007908790720505734
0.8133160818236715
-0.7777718960608827
0.007908790720505734
0.8133160818236715
-0.778399286012978
0.008229889759548416
0.8134597534437957
-0.778399286012978
0.008229889759548416
0.8134597534437957
-0.778399286012978
0.008229889759548416
0.8134597534437957
-0.778399286012978
0.008229889759548416
0.8134597534437957
-0.7788568791873655
0.008426658269038875
0.8134292076770491
-0.7788568791873655
0.008426658269038875
0.8134292076770491
-0.7788568791873655
0.008426658269038875
0.8134292076770491
-0.7788568791873655
0.008426658269038875
0.8134292076770491
-0.7788568791873655
0.008426658269038875
0.8134292076770491
-0.7788568791873655
0.008426658269038875
0.8134292076770491
-0.7788568791873655
0.008426658269038875
0.8134292076770491
-0.7788568791873655
0.008426658269038875
0.8134292076770491
-0.77879757987075
0.008278361700247764
0.8134903543205098
-0.77879757987075
0.008278361700247764
0.8134903543205098
-0.77879757987075
0.008278361700247764
0.8134903543205098
-0.77879757987075
0.008278361700247764
0.8134903543205098
-0.779344141978662
0.008267560624316021
0.8135445593718276
-0.779344141978662
0.008267560624316021
0.8135445593718276
-0.779344141978662
0.008267560624316021
0.8135445593718276
-0.779344141978662
0.008267560624316021
0.8135445593718276
-0.7801613716168718
0.008150215633064867
0.8135038750481524
-0.7801613716168718
0.008150215633064867
0.8135038750481524
-0.7801613716168718
0.008150215633064867
0.8135038750481524
-0.7801613716168718
0.008150215633064867
0.8135038750481524
-0.780726673004367
0.008096982553525462
0.8134543674641144
-0.780726673004367
0.008096982553525462
0.8134543674641144
-0.780726673004367
0.008096982553525462
0.8134543674641144
-0.780726673004367
0.008096982553525462
0.8134543674641144
-0.7810607347970623
0.007893463045479564
0.8132942615708021
-0.7810607347970623
0.007893463045479564
0.8132942615708021
-0.7810607347970623
0.007893463045479564
0.8132942615708021
-0.7810607347970623
0.007893463045479564
0.8132942615708021
-0.7815410267736862
0.007753153968804315
0.8131599144963884
-0.7815410267736862
0.007753153968804315
0.8131599144963884
-0.7815410267736862
0.007753153968804315
0.8131599144963884
-0.7815410267736862
0.007753153968804315
0.8131599144963884
-0.7814372823163926
0.00770868103582667
0.8131787033290353
-0.7814372823163926
0.00770868103582667
0.8131787033290353
-0.7814372823163926
0.00770868103582667
0.8131787033290353
-0.7814372823163926
0.00770868103582667
0.8131787033290353
-0.7814817602873251
0.0076049397515218714
0.8132212365673394
-0.7814817602873251
0.0076049397515218714
0.8132212365673394
-0.7814817602873251
0.0076049397515218714
0.8132212365673394
-0.7814817602873251
0.0076049397515218714
0.8132212365673394
-0.7817337118094345
0.007590158685704482
0.813226206795504
-0.7817337118094345
0.007590158685704482
0.813226206795504
-0.7817337118094345
0.007590158685704482
0.813226206795504
-0.7817337118094345
0.007590158685704482
0.813226206795504
-0.7816299786112983
0.007545682383564812
0.8132449921158098
-0.7816299786112983
0.007545682383564812
0.8132449921158098
-0.7816299786112983
0.007545682383564812
0.8132449921158098
-0.7816299786112983
0.007545682383564812
0.8132449921158098
-0.7816299786112983
0.007545682383564812
0.8132449921158098
-0.7816299786112983
0.007545682383564812
0.8132449921158098
-0.7816299786112983
0.007545682383564812
0.8132449921158098
-0.7816299786112983
0.007545682383564812
0.8132449921158098
-0.7815262418354804
0.007501202225834849
0.8132637736211316
-0.7815262418354804
0.007501202225834849
0.8132637736211316
-0.7815262418354804
0.007501202225834849
0.8132637736211316
-0.7815262418354804
0.007501202225834849
0.8132637736211316
-0.7815262418354804
0.007501202225834849
0.8132637736211316
-0.7815262418354804
0.007501202225834849
0.8132637736211316
-0.7815262418354804
0.007501202225834849
0.8132637736211316
-0.7815262418354804
0.007501202225834849
0.8132637736211316
-0.7815262418354804
0.007501202225834849
0.8132637736211316
-0.7815262418354804
0.007501202225834849
0.8132637736211316
-0.7815262418354804
0.007501202225834849
0.8132637736211316
-0.7815262418354804
0.007501202225834849
0.8132637736211316
-0.7814412754746684
0.007414182170296346
0.8131788072603195
-0.7814412754746684
0.007414182170296346
0.8131788072603195
-0.7814412754746684
0.007414182170296346
0.8131788072603195
-0.7814412754746684
0.007414182170296346
0.8131788072603195
-0.7817417265517431
0.007001175707198348
0.8132265059554634
-0.7817417265517431
0.007001175707198348
0.8132265059554634
-0.7817417265517431
0.007001175707198348
0.8132265059554634
-0.7817417265517431
0.007001175707198348
0.8132265059554634
-0.7820124254799736
0.00694385336196512
0.8131278321285182
-0.7820124254799736
0.00694385336196512
0.8131278321285182
-0.7820124254799736
0.00694385336196512
0.8131278321285182
-0.7820124254799736
0.00694385336196512
0.8131278321285182
-0.7819087000374371
0.006899369936313452
0.8131465884040253
-0.7819087000374371
0.006899369936313452
0.8131465884040253
-0.7819087000374371
0.006899369936313452
0.8131465884040253
-0.7819087000374371
0.006899369936313452
0.8131465884040253
-0.7821536641719253
0.006903166227249501
0.8129016242695368
-0.7821536641719253
0.006903166227249501
0.8129016242695368
-0.7821536641719253
0.006903166227249501
0.8129016242695368
-0.7821536641719253
0.006903166227249501
0.8129016242695368
-0.7821981373764259
0.006799442883014466
0.8129442143969988
-0.7821981373764259
0.006799442883014466
0.8129442143969988
-0.7821981373764259
0.006799442883014466
0.8129442143969988
-0.7821981373764259
0.006799442883014466
0.8129442143969988
-0.7820944117254197
0.0067549669885084195
0.8129629636627878
-0.7820944117254197
0.0067549669885084195
0.8129629636627878
-0.7820944117254197
0.0067549669885084195
0.8129629636627878
-0.7820944117254197
0.0067549669885084195
0.8129629636627878
-0.7820499346817938
0.006858693947786811
0.812920377194932
-0.7820499346817938
0.006858693947786811
0.812920377194932
-0.7820499346817938
0.006858693947786811
0.812920377194932
-0.7820499346817938
0.006858693947786811
0.812920377194932
-0.7821941601992345
0.007093943229209334
0.8129440036045426
-0.7821941601992345
0.007093943229209334
0.8129440036045426
-0.7821941601992345
0.007093943229209334
0.8129440036045426
-0.7821941601992345
0.007093943229209334
0.8129440036045426
-0.7827524144754582
0.007059019424280209
0.8126448220663389
-0.7827524144754582
0.007059019424280209
0.8126448220663389
-0.7827524144754582
0.007059019424280209
0.8126448220663389
-0.7827524144754582
0.007059019424280209
0.8126448220663389
-0.7827524144754582
0.007059019424280209
0.8126448220663389
-0.7827524144754582
0.007059019424280209
0.8126448220663389
-0.7827524144754582
0.007059019424280209
0.8126448220663389
-0.7827524144754582
0.007059019424280209
0.8126448220663389
-0.7827524144754582
0.007059019424280209
0.8126448220663389
-0.7827524144754582
0.007059019424280209
0.8126448220663389
-0.7827524144754582
0.007059019424280209
0.8126448220663389
-0.7827524144754582
0.007059019424280209
0.8126448220663389
-0.7819714061368401
0.006693286241799429
0.8122257283385101
-0.7819714061368401
0.006693286241799429
0.8122257283385101
-0.7819714061368401
0.006693286241799429
0.8122257283385101
-0.7819714061368401
0.006693286241799429
0.8122257283385101
-0.7819714061368401
0.006693286241799429
0.8122257283385101
-0.7819714061368401
0.006693286241799429
0.8122257283385101
-0.7819714061368401
0.006693286241799429
0.8122257283385101
-0.7819714061368401
0.006693286241799429
0.8122257283385101
-0.7824071241227132
0.0066563771736619344
0.8120491012603629
-0.7824071241227132
0.0066563771736619344
0.8120491012603629
-0.7824071241227132
0.0066563771736619344
0.8120491012603629
-0.7824071241227132
0.0066563771736619344
0.8120491012603629
-0.7827113928308799
0.006808126485031247
0.811742797219336
-0.7827113928308799
0.006808126485031247
0.811742797219336
-0.7827113928308799
0.006808126485031247
0.811742797219336
-0.7827113928308799
0.006808126485031247
0.811742797219336
-0.7831620916790729
0.0070229127355858345
0.811462089555086
-0.7831620916790729
0.0070229127355858345
0.811462089555086
-0.7831620916790729
0.0070229127355858345
0.811462089555086
-0.7831620916790729
0.0070229127355858345
0.811462089555086
-0.7833831639673751
0.006964933819943922
0.8110689911001111
-0.7833831639673751
0.006964933819943922
0.8110689911001111
-0.7833831639673751
0.006964933819943922
0.8110689911001111
-0.7833831639673751
0.006964933819943922
0.8110689911001111
-0.783769374789386
0.0069272624662374245
0.8105977808121638
-0.783769374789386
0.0069272624662374245
0.8105977808121638
-0.783769374789386
0.0069272624662374245
0.8105977808121638
-0.783769374789386
0.0069272624662374245
0.8105977808121638
-0.7841624193102482
0.006871099064562566
0.8103767700308611
-0.7841624193102482
0.006871099064562566
0.8103767700308611
-0.7841624193102482
0.006871099064562566
0.8103767700308611
-0.7841624193102482
0.006871099064562566
0.8103767700308611
-0.7845981690118964
0.006833597739037818
0.8102001026103652
-0.7845981690118964
0.006833597739037818
0.8102001026103652
-0.7845981690118964
0.006833597739037818
0.8102001026103652
-0.7845981690118964
0.006833597739037818
0.8102001026103652
-0.7844516945017078
0.006770544664093032
0.8101745365108691
-0.7844516945017078
0.006770544664093032
0.8101745365108691
-0.7844516945017078
0.006770544664093032
0.8101745365108691
-0.7844516945017078
0.006770544664093032
0.8101745365108691
-0.7844516945017078
0.006770544664093032
0.8101745365108691
-0.7844516945017078
0.006770544664093032
0.8101745365108691
-0.7844516945017078
0.006770544664093032
0.8101745365108691
-0.7844516945017078
0.006770544664093032
0.8101745365108691
-0.7843479568841987
0.0067262334165076685
0.8101932750131859
-0.7843479568841987
0.0067262334165076685
0.8101932750131859
-0.7843479568841987
0.0067262334165076685
0.8101932750131859
-0.7843479568841987
0.0067262334165076685
0.8101932750131859
-0.7843479568841987
0.0067262334165076685
0.8101932750131859
-0.7843479568841987
0.0067262334165076685
0.8101932750131859
-0.7843479568841987
0.0067262334165076685
0.8101932750131859
-0.7843479568841987
0.0067262334165076685
0.8101932750131859
-0.7842442156640592
0.006681918318470932
0.8102120097190167
-0.7842442156640592
0.006681918318470932
0.8102120097190167
-0.7842442156640592
0.006681918318470932
0.8102120097190167
-0.7842442156640592
0.006681918318470932
0.8102120097190167
-0.7842014897556979
0.006663187846493061
0.8101676936051215
-0.7842014897556979
0.006663187846493061
0.8101676936051215
-0.7842014897556979
0.006663187846493061
0.8101676936051215
-0.7842014897556979
0.006663187846493061
0.8101676936051215
-0.7842458057722244
0.006559452672195191
0.8102104196108516
-0.7842458057722244
0.006559452672195191
0.8102104196108516
-0.7842458057722244
0.006559452672195191
0.8102104196108516
-0.7842458057722244
0.006559452672195191
0.8102104196108516
-0.7841420684475479
0.006515133883493766
0.8102291430214441
-0.7841420684475479
0.006515133883493766
0.8102291430214441
-0.7841420684475479
0.006515133883493766
0.8102291430214441
-0.7841420684475479
0.006515133883493766
0.8102291430214441
-0.7841420684475479
0.006515133883493766
0.8102291430214441
-0.7841420684475479
0.006515133883493766
0.8102291430214441
-0.7841420684475479
0.006515133883493766
0.8102291430214441
-0.7841420684475479
0.006515133883493766
0.8102291430214441
-0.7839408339224518
0.006868671541417931
0.8099102183777172
-0.7839408339224518
0.006868671541417931
0.8099102183777172
-0.7839408339224518
0.006868671541417931
0.8099102183777172
-0.7839408339224518
0.006868671541417931
0.8099102183777172
-0.7835984656494681
0.007263370718872232
0.8098176337469627
-0.7835984656494681
0.007263370718872232
0.8098176337469627
-0.7835984656494681
0.007263370718872232
0.8098176337469627
-0.7835984656494681
0.007263370718872232
0.8098176337469627
-0.7838043993347293
0.007474448830305547
0.8097817387143912
-0.7838043993347293
0.007474448830305547
0.8097817387143912
-0.7838043993347293
0.007474448830305547
0.8097817387143912
-0.7838043993347293
0.007474448830305547
0.8097817387143912
-0.7840510658413654
0.00787625374382622
0.8097880934141966
-0.7840510658413654
0.00787625374382622
0.8097880934141966
-0.7840510658413654
0.00787625374382622
0.8097880934141966
-0.7840510658413654
0.00787625374382622
0.8097880934141966
-0.7841496993109855
0.008337548814178091
0.8097704627246568
-0.7841496993109855
0.008337548814178091
0.8097704627246568
-0.7841496993109855
0.008337548814178091
0.8097704627246568
-0.7841496993109855
0.008337548814178091
0.8097704627246568
-0.7835810459070074
0.008686386925777292
0.8098195012296975
-0.7835810459070074
0.008686386925777292
0.8098195012296975
-0.7835810459070074
0.008686386925777292
0.8098195012296975
-0.7835810459070074
0.008686386925777292
0.8098195012296975
-0.7827774471725386
0.009179718654884067
0.8097580878786044
-0.7827774471725386
0.009179718654884067
0.8097580878786044
-0.7827774471725386
0.009179718654884067
0.8097580878786044
-0.7827774471725386
0.009179718654884067
0.8097580878786044
-0.7822275928067913
0.009485966221095437
0.8097037836298439
-0.7822275928067913
0.009485966221095437
0.8097037836298439
-0.7822275928067913
0.009485966221095437
0.8097037836298439
-0.7822275928067913
0.009485966221095437
0.8097037836298439
-0.7819927132374599
0.009630544136222307
0.8095932427437594
-0.7819927132374599
0.009630544136222307
0.8095932427437594
-0.7819927132374599
0.009630544136222307
0.8095932427437594
-0.7819927132374599
0.009630544136222307
0.8095932427437594
-0.7817529507353768
0.009671256594932247
0.809230826692054
-0.7817529507353768
0.009671256594932247
0.809230826692054
-0.7817529507353768
0.009671256594932247
0.809230826692054
-0.7817529507353768
0.009671256594932247
0.809230826692054
-0.7813651477155247
0.009771701986439283
0.8088447090125271
-0.7813651477155247
0.009771701986439283
0.8088447090125271
-0.7813651477155247
0.009771701986439283
0.8088447090125271
-0.7813651477155247
0.009771701986439283
0.8088447090125271
-0.7812612846414728
0.009727494964725783
0.808863507009079
-0.7812612846414728
0.009727494964725783
0.808863507009079
-0.7812612846414728
0.009727494964725783
0.808863507009079
-0.7812612846414728
0.009727494964725783
0.808863507009079
-0.7812612846414728
0.009727494964725783
0.808863507009079
-0.7812612846414728
0.009727494964725783
0.808863507009079
-0.7812612846414728
0.009727494964725783
0.808863507009079
-0.7812612846414728
0.009727494964725783
0.808863507009079
-0.7815303654168615
0.009271222303199359
0.8085126605671245
-0.7815303654168615
0.009271222303199359
0.8085126605671245
-0.7815303654168615
0.009271222303199359
0.8085126605671245
-0.7815303654168615
0.009271222303199359
0.8085126605671245
-0.7815441066342766
0.009124818671362191
0.8081568732401072
-0.7815441066342766
0.009124818671362191
0.8081568732401072
-0.7815441066342766
0.009124818671362191
0.8081568732401072
-0.7815441066342766
0.009124818671362191
0.8081568732401072
-0.7818284496277201
0.008920298569145986
0.8077022896679089
-0.7818284496277201
0.008920298569145986
0.8077022896679089
-0.7818284496277201
0.008920298569145986
0.8077022896679089
-0.7818284496277201
0.008920298569145986
0.8077022896679089
-0.782112690779728
0.008715655239970236
0.8072477784020602
-0.782112690779728
0.008715655239970236
0.8072477784020602
-0.782112690779728
0.008715655239970236
0.8072477784020602
-0.782112690779728
0.008715655239970236
0.8072477784020602
-0.782112690779728
0.008715655239970236
0.8072477784020602
-0.782112690779728
0.008715655239970236
0.8072477784020602
-0.782112690779728
0.008715655239970236
0.8072477784020602
-0.782112690779728
0.008715655239970236
0.8072477784020602
-0.7822248589376419
0.008569258389781318
0.8074809954923429
-0.7822248589376419
0.008569258389781318
0.8074809954923429
-0.7822248589376419
0.008569258389781318
0.8074809954923429
-0.7822248589376419
0.008569258389781318
0.8074809954923429
-0.7832881986325995
0.00786904828436919
0.8077997792519547
-0.7832881986325995
0.00786904828436919
0.8077997792519547
-0.7832881986325995
0.00786904828436919
0.8077997792519547
-0.7832881986325995
0.00786904828436919
0.8077997792519547
-0.7846436623577181
0.008448583785948765
0.8078143291961241
-0.7846436623577181
0.008448583785948765
0.8078143291961241
-0.7846436623577181
0.008448583785948765
0.8078143291961241
-0.7846436623577181
0.008448583785948765
0.8078143291961241
-0.7855608175728505
0.011495575038247304
0.8072937538716575
-0.7855608175728505
0.011495575038247304
0.8072937538716575
-0.7855608175728505
0.011495575038247304
0.8072937538716575
-0.7855608175728505
0.011495575038247304
0.8072937538716575
-0.7842469264230355
0.01441533839662155
0.8042905249124348
-0.7842469264230355
0.01441533839662155
0.8042905249124348
-0.7842469264230355
0.01441533839662155
0.8042905249124348
-0.7842469264230355
0.01441533839662155
0.8042905249124348
-0.7709474946407614
0.015868204479219643
0.8031888710136778
-0.7709474946407614
0.015868204479219643
0.8031888710136778
-0.7709474946407614
0.015868204479219643
0.8031888710136778
-0.7709474946407614
0.015868204479219643
0.8031888710136778
-0.7740108222803826
0.018641259251524163
0.8026014306456218
-0.7740108222803826
0.018641259251524163
0.8026014306456218
-0.7740108222803826
0.018641259251524163
0.8026014306456218
-0.7740108222803826
0.018641259251524163
0.8026014306456218
-0.7880998326758741
0.02152961141208688
0.803279104338897
-0.7880998326758741
0.02152961141208688
0.803279104338897
-0.7880998326758741
0.02152961141208688
0.803279104338897
-0.7880998326758741
0.02152961141208688
0.803279104338897
-0.7942343657285926
0.02326192756421454
0.8038686785582831
-0.7942343657285926
0.02326192756421454
0.8038686785582831
-0.7942343657285926
0.02326192756421454
0.8038686785582831
-0.7942343657285926
0.02326192756421454
0.8038686785582831
-0.7875475821413631
0.02374586340725427
0.8039791373094889
-0.7875475821413631
0.02374586340725427
0.8039791373094889
-0.7875475821413631
0.02374586340725427
0.8039791373094889
-0.7875475821413631
0.02374586340725427
0.8039791373094889
-0.7775705695689286
0.025292496283474575
0.8021767225685351
-0.7775705695689286
0.025292496283474575
0.8021767225685351
-0.7775705695689286
0.025292496283474575
0.8021767225685351
-0.7775705695689286
0.025292496283474575
0.8021767225685351
-0.7753956540556551
0.0279855633776279
0.799913031520948
-0.7753956540556551
0.0279855633776279
0.799913031520948
-0.7753956540556551
0.0279855633776279
0.799913031520948
-0.7753956540556551
0.0279855633776279
0.799913031520948
-0.7733868636476618
0.030910489303492408
0.7986847020817475
-0.7733868636476618
0.030910489303492408
0.7986847020817475
-0.7733868636476618
0.030910489303492408
0.7986847020817475
-0.7733868636476618
0.030910489303492408
0.7986847020817475
-0.7728765362146404
0.033488521282429524
0.7978348829173907
-0.7728765362146404
0.033488521282429524
0.7978348829173907
-0.7728765362146404
0.033488521282429524
0.7978348829173907
-0.7728765362146404
0.033488521282429524
0.7978348829173907
-0.7733151793069075
0.036027992049930686
0.7973115409755054
-0.7733151793069075
0.036027992049930686
0.7973115409755054
-0.7733151793069075
0.036027992049930686
0.7973115409755054
-0.7733151793069075
0.036027992049930686
0.7973115409755054
-0.7715582855426444
0.03811303412242881
0.7969505851394912
-0.7715582855426444
0.03811303412242881
0.7969505851394912
-0.7715582855426444
0.03811303412242881
0.7969505851394912
-0.7715582855426444
0.03811303412242881
0.7969505851394912
-0.7647752889604748
0.03945944199252333
0.7965384232593984
-0.7647752889604748
0.03945944199252333
0.7965384232593984
-0.7647752889604748
0.03945944199252333
0.7965384232593984
-0.7647752889604748
0.03945944199252333
0.7965384232593984
-0.7595272984578395
0.03985494148346474
0.7960318728792626
-0.7595272984578395
0.03985494148346474
0.7960318728792626
-0.7595272984578395
0.03985494148346474
0.7960318728792626
-0.7595272984578395
0.03985494148346474
0.7960318728792626
-0.7562493452572141
0.039454488793010487
0.7949887379113459
-0.7562493452572141
0.039454488793010487
0.7949887379113459
-0.7562493452572141
0.039454488793010487
0.7949887379113459
-0.7562493452572141
0.039454488793010487
0.7949887379113459
-0.7562114750823918
0.038328841011351304
0.7946778468167263
-0.7562114750823918
0.038328841011351304
0.7946778468167263
-0.7562114750823918
0.038328841011351304
0.7946778468167263
-0.7562114750823918
0.038328841011351304
0.7946778468167263
-0.7586236896823277
0.03688038876350684
0.7942009268762658
-0.7586236896823277
0.03688038876350684
0.7942009268762658
-0.7586236896823277
0.03688038876350684
0.7942009268762658
-0.7586236896823277
0.03688038876350684
0.7942009268762658
-0.7629864795189196
0.03598017562107148
0.7940707707174197
-0.7629864795189196
0.03598017562107148
0.7940707707174197
-0.7629864795189196
0.03598017562107148
0.7940707707174197
-0.7629864795189196
0.03598017562107148
0.7940707707174197
-0.7658162835177085
0.034349403386796
0.7951345957316902
-0.7658162835177085
0.034349403386796
0.7951345957316902
-0.7658162835177085
0.034349403386796
0.7951345957316902
-0.7658162835177085
0.034349403386796
0.7951345957316902
-0.765640750829769
0.032878342809504746
0.7955578240166783
-0.765640750829769
0.032878342809504746
0.7955578240166783
-0.765640750829769
0.032878342809504746
0.7955578240166783
-0.765640750829769
0.032878342809504746
0.7955578240166783
-0.7635628060542424
0.03222318889986224
0.7950836213518374
-0.7635628060542424
0.03222318889986224
0.7950836213518374
-0.7635628060542424
0.03222318889986224
0.7950836213518374
-0.7635628060542424
0.03222318889986224
0.7950836213518374
-0.7616270262518885
0.031304453598567684
0.7941243210450153
-0.7616270262518885
0.031304453598567684
0.7941243210450153
-0.7616270262518885
0.031304453598567684
0.7941243210450153
-0.7616270262518885
0.031304453598567684
0.7941243210450153
-0.7612478953573367
0.030406289908764265
0.7937310896512548
-0.7612478953573367
0.030406289908764265
0.7937310896512548
-0.7612478953573367
0.030406289908764265
0.7937310896512548
-0.7612478953573367
0.030406289908764265
0.7937310896512548
-0.7636062827658354
0.02928258936657726
0.7940871939731627
-0.7636062827658354
0.02928258936657726
0.7940871939731627
-0.7636062827658354
0.02928258936657726
0.7940871939731627
-0.7636062827658354
0.02928258936657726
0.7940871939731627
-0.7655069457773855
0.028363737550866984
0.7947344909251057
-0.7655069457773855
0.028363737550866984
0.7947344909251057
-0.7655069457773855
0.028363737550866984
0.7947344909251057
-0.7655069457773855
0.028363737550866984
0.7947344909251057
-0.7659475336573928
0.027613317127647138
0.7945453121025414
-0.7659475336573928
0.027613317127647138
0.7945453121025414
-0.7659475336573928
0.027613317127647138
0.7945453121025414
-0.7659475336573928
0.027613317127647138
0.7945453121025414
-0.7644582150927062
0.026836949511486165
0.7941571643147806
-0.7644582150927062
0.026836949511486165
0.7941571643147806
-0.7644582150927062
0.026836949511486165
0.7941571643147806
-0.7644582150927062
0.026836949511486165
0.7941571643147806
-0.762846612203028
0.026284546551157015
0.7941462527853078
-0.762846612203028
0.026284546551157015
0.7941462527853078
-0.762846612203028
0.026284546551157015
0.7941462527853078
-0.762846612203028
0.026284546551157015
0.7941462527853078
-0.7641173568341939
0.025987843591171022
0.7949184100985502
-0.7641173568341939
0.025987843591171022
0.7949184100985502
-0.7641173568341939
0.025987843591171022
0.7949184100985502
-0.7641173568341939
0.025987843591171022
0.7949184100985502
-0.7659351719968197
0.025675206195507307
0.7957412521024539
-0.7659351719968197
0.025675206195507307
0.7957412521024539
-0.7659351719968197
0.025675206195507307
0.7957412521024539
-0.7659351719968197
0.025675206195507307
0.7957412521024539
-0.7659351719968197
0.025675206195507307
0.7957412521024539
-0.7659351719968197
0.025675206195507307
0.7957412521024539
-0.7659351719968197
0.025675206195507307
0.7957412521024539
-0.7659351719968197
0.025675206195507307
0.7957412521024539
-0.7648127437916586
0.02642882089230171
0.7952484045134132
-0.7648127437916586
0.02642882089230171
0.7952484045134132
-0.7648127437916586
0.02642882089230171
0.7952484045134132
-0.7648127437916586
0.02642882089230171
0.7952484045134132
-0.7638248194994668
0.02667667384509728
0.7951302689907066
-0.7638248194994668
0.02667667384509728
0.7951302689907066
-0.7638248194994668
0.02667667384509728
0.7951302689907066
-0.7638248194994668
0.02667667384509728
0.7951302689907066
-0.7645653385328793
0.0264250263439442
0.7954958097721923
-0.7645653385328793
0.0264250263439442
0.7954958097721923
-0.7645653385328793
0.0264250263439442
0.7954958097721923
-0.7645653385328793
0.0264250263439442
0.7954958097721923
-0.7660836457471952
0.026133583451340228
0.7960207886034967
-0.7660836457471952
0.026133583451340228
0.7960207886034967
-0.7660836457471952
0.026133583451340228
0.7960207886034967
-0.7660836457471952
0.026133583451340228
0.7960207886034967
-0.7664390479964214
0.026282622935228924
0.7960069524049506
-0.7664390479964214
0.026282622935228924
0.7960069524049506
-0.7664390479964214
0.026282622935228924
0.7960069524049506
-0.7664390479964214
0.026282622935228924
0.7960069524049506
-0.7662242228860079
0.026681950711773546
0.7957976149065381
-0.7662242228860079
0.026681950711773546
0.7957976149065381
-0.7662242228860079
0.026681950711773546
0.7957976149065381
-0.7662242228860079
0.026681950711773546
0.7957976149065381
-0.766069016332759
0.027352918626151287
0.7955296236437134
-0.766069016332759
0.027352918626151287
0.7955296236437134
-0.766069016332759
0.027352918626151287
0.7955296236437134
-0.766069016332759
0.027352918626151287
0.7955296236437134
-0.7670307153801748
0.027756445210242765
0.7955064732131794
-0.7670307153801748
0.027756445210242765
0.7955064732131794
-0.7670307153801748
0.027756445210242765
0.7955064732131794
-0.7670307153801748
0.027756445210242765
0.7955064732131794
-0.7687135377944564
0.0279507711308114
0.7959530618968702
-0.7687135377944564
0.0279507711308114
0.7959530618968702
-0.7687135377944564
0.0279507711308114
0.7959530618968702
-0.7687135377944564
0.0279507711308114
0.7959530618968702
-0.7688244523038265
0.02819875957307321
0.7964387964600912
-0.7688244523038265
0.02819875957307321
0.7964387964600912
-0.7688244523038265
0.02819875957307321
0.7964387964600912
-0.7688244523038265
0.02819875957307321
0.7964387964600912
-0.7676736371040339
0.028356847870233633
0.7966535260077409
-0.7676736371040339
0.028356847870233633
0.7966535260077409
-0.7676736371040339
0.028356847870233633
0.7966535260077409
-0.7676736371040339
0.028356847870233633
0.7966535260077409
-0.7669468160290525
0.028202210150542688
0.7970392876616045
-0.7669468160290525
0.028202210150542688
0.7970392876616045
-0.7669468160290525
0.028202210150542688
0.7970392876616045
-0.7669468160290525
0.028202210150542688
0.7970392876616045
-0.7673546281141137
0.028553389764201142
0.7978242140913561
-0.7673546281141137
0.028553389764201142
0.7978242140913561
-0.7673546281141137
0.028553389764201142
0.7978242140913561
-0.7673546281141137
0.028553389764201142
0.7978242140913561
-0.7682639402518561
0.028596970371961804
0.7983620023579926
-0.7682639402518561
0.028596970371961804
0.7983620023579926
-0.7682639402518561
0.028596970371961804
0.7983620023579926
-0.7682639402518561
0.028596970371961804
0.7983620023579926
-0.7685432454433805
0.028448412900101343
0.7987632776838707
-0.7685432454433805
0.028448412900101343
0.7987632776838707
-0.7685432454433805
0.028448412900101343
0.7987632776838707
-0.7685432454433805
0.028448412900101343
0.7987632776838707
-0.7684821195082656
0.028300499460589008
0.7988241065518153
-0.7684821195082656
0.028300499460589008
0.7988241065518153
-0.7684821195082656
0.028300499460589008
0.7988241065518153
-0.7684821195082656
0.028300499460589008
0.7988241065518153
-0.7684386940644178
0.028405008662406098
0.798782559929493
-0.7684386940644178
0.028405008662406098
0.798782559929493
-0.7684386940644178
0.028405008662406098
0.798782559929493
-0.7684386940644178
0.028405008662406098
0.798782559929493
-0.7684386940644178
0.028405008662406098
0.798782559929493
-0.7684386940644178
0.028405008662406098
0.798782559929493
-0.7684386940644178
0.028405008662406098
0.798782559929493
-0.7684386940644178
0.028405008662406098
0.798782559929493
-0.7685367443833214
0.027688981706971847
0.7993644890658476
-0.7685367443833214
0.027688981706971847
0.7993644890658476
-0.7685367443833214
0.027688981706971847
0.7993644890658476
-0.7685367443833214
0.027688981706971847
0.7993644890658476
-0.7683814929976078
0.02676449862661184
0.7996888792709699
-0.7683814929976078
0.02676449862661184
0.7996888792709699
-0.7683814929976078
0.02676449862661184
0.7996888792709699
-0.7683814929976078
0.02676449862661184
0.7996888792709699
-0.7683814929976078
0.02676449862661184
0.7996888792709699
-0.7683814929976078
0.02676449862661184
0.7996888792709699
-0.7683814929976078
0.02676449862661184
0.7996888792709699
-0.7683814929976078
0.02676449862661184
0.7996888792709699
-0.7683204869598943
0.02661653121620331
0.7997496530756668
-0.7683204869598943
0.02661653121620331
0.7997496530756668
-0.7683204869598943
0.02661653121620331
0.7997496530756668
-0.7683204869598943
0.02661653121620331
0.7997496530756668
-0.7681744114690835
0.026553842842819753
0.7997253421252729
-0.7681744114690835
0.026553842842819753
0.7997253421252729
-0.7681744114690835
0.026553842842819753
0.7997253421252729
-0.7681744114690835
0.026553842842819753
0.7997253421252729
-0.7684995270117366
0.0260069651060995
0.8001663306073145
-0.7684995270117366
0.0260069651060995
0.8001663306073145
-0.7684995270117366
0.0260069651060995
0.8001663306073145
-0.7684995270117366
0.0260069651060995
0.8001663306073145
-0.7684282694954194
0.025291191562484733
0.8005778527564873
-0.7684282694954194
0.025291191562484733
0.8005778527564873
-0.7684282694954194
0.025291191562484733
0.8005778527564873
-0.7684282694954194
0.025291191562484733
0.8005778527564873
-0.7686044782585152
0.024579401354464785
0.8007421408637889
-0.7686044782585152
0.024579401354464785
0.8007421408637889
-0.7686044782585152
0.024579401354464785
0.8007421408637889
-0.7686044782585152
0.024579401354464785
0.8007421408637889
-0.7683351122625859
0.023824299449449436
0.8005844022526466
-0.7683351122625859
0.023824299449449436
0.8005844022526466
-0.7683351122625859
0.023824299449449436
0.8005844022526466
-0.7683351122625859
0.023824299449449436
0.8005844022526466
-0.7681890330423661
0.02376163536893967
0.8005598622889535
-0.7681890330423661
0.02376163536893967
0.8005598622889535
-0.7681890330423661
0.02376163536893967
0.8005598622889535
-0.7681890330423661
0.02376163536893967
0.8005598622889535
-0.7681890330423661
0.02376163536893967
0.8005598622889535
-0.7681890330423661
0.02376163536893967
0.8005598622889535
-0.7681890330423661
0.02376163536893967
0.8005598622889535
-0.7681890330423661
0.02376163536893967
0.8005598622889535
-0.7680103754983475
0.02289995131534407
0.8007376461323523
-0.7680103754983475
0.02289995131534407
0.8007376461323523
-0.7680103754983475
0.02289995131534407
0.8007376461323523
-0.7680103754983475
0.02289995131534407
0.8007376461323523
-0.7685626638218013
0.022002333916331857
0.8007820985266089
-0.7685626638218013
0.022002333916331857
0.8007820985266089
-0.7685626638218013
0.022002333916331857
0.8007820985266089
-0.7685626638218013
0.022002333916331857
0.8007820985266089
-0.7687961851691621
0.021336321863399895
0.8006335548893216
-0.7687961851691621
0.021336321863399895
0.8006335548893216
-0.7687961851691621
0.021336321863399895
0.8006335548893216
-0.7687961851691621
0.021336321863399895
0.8006335548893216
-0.7688567771454031
0.02079375118777853
0.8003162427309821
-0.7688567771454031
0.02079375118777853
0.8003162427309821
-0.7688567771454031
0.02079375118777853
0.8003162427309821
-0.7688567771454031
0.02079375118777853
0.8003162427309821
-0.7695304419263609
0.020192026180971653
0.8002403315869155
-0.7695304419263609
0.020192026180971653
0.8002403315869155
-0.7695304419263609
0.020192026180971653
0.8002403315869155
-0.7695304419263609
0.020192026180971653
0.8002403315869155
-0.7698261388455645
0.01937975724093524
0.8000297357466002
-0.7698261388455645
0.01937975724093524
0.8000297357466002
-0.7698261388455645
0.01937975724093524
0.8000297357466002
-0.7698261388455645
0.01937975724093524
0.8000297357466002
-0.7701994753887443
0.018967848702293552
0.7996562383667768
-0.7701994753887443
0.018967848702293552
0.7996562383667768
-0.7701994753887443
0.018967848702293552
0.7996562383667768
-0.7701994753887443
0.018967848702293552
0.7996562383667768
-0.7707642086974136
0.018219682681140416
0.7993477725296659
-0.7707642086974136
0.018219682681140416
0.7993477725296659
-0.7707642086974136
0.018219682681140416
0.7993477725296659
-0.7707642086974136
0.018219682681140416
0.7993477725296659
-0.7709583387296811
0.016946212449511035
0.7991532324641363
-0.7709583387296811
0.016946212449511035
0.7991532324641363
-0.7709583387296811
0.016946212449511035
0.7991532324641363
-0.7709583387296811
0.016946212449511035
0.7991532324641363
-0.7711691754514595
0.015753838725732904
0.7988563064499123
-0.7711691754514595
0.015753838725732904
0.7988563064499123
-0.7711691754514595
0.015753838725732904
0.7988563064499123
-0.7711691754514595
0.015753838725732904
0.7988563064499123
-0.7712180086845707
0.01412371164041691
0.7986354475677402
-0.7712180086845707
0.01412371164041691
0.7986354475677402
-0.7712180086845707
0.01412371164041691
0.7986354475677402
-0.7712180086845707
0.01412371164041691
0.7986354475677402
-0.7714363734423269
0.012616423236839654
0.7985879182204257
-0.7714363734423269
0.012616423236839654
0.7985879182204257
-0.7714363734423269
0.012616423236839654
0.7985879182204257
-0.7714363734423269
0.012616423236839654
0.7985879182204257
-0.7718011145033077
0.011342886365197544
0.7985660461679672
-0.7718011145033077
0.011342886365197544
0.7985660461679672
-0.7718011145033077
0.011342886365197544
0.7985660461679672
-0.7718011145033077
0.011342886365197544
0.7985660461679672
-0.7724264049579623
0.010447603000606341
0.7981981743062272
-0.7724264049579623
0.010447603000606341
0.7981981743062272
-0.7724264049579623
0.010447603000606341
0.7981981743062272
-0.7724264049579623
0.010447603000606341
0.7981981743062272
-0.7737813580521803
0.009686179647257301
0.7977021948989872
-0.7737813580521803
0.009686179647257301
0.7977021948989872
-0.7737813580521803
0.009686179647257301
0.7977021948989872
-0.7737813580521803
0.009686179647257301
0.7977021948989872
-0.7745018253070266
0.009148061956563683
0.7970678634256947
-0.7745018253070266
0.009148061956563683
0.7970678634256947
-0.7745018253070266
0.009148061956563683
0.7970678634256947
-0.7745018253070266
0.009148061956563683
0.7970678634256947
-0.7752834962749674
0.007525679915617495
0.7961147998013172
-0.7752834962749674
0.007525679915617495
0.7961147998013172
-0.7752834962749674
0.007525679915617495
0.7961147998013172
-0.7752834962749674
0.007525679915617495
0.7961147998013172
-0.7746850085266774
0.005145483647528627
0.7943894073721044
-0.7746850085266774
0.005145483647528627
0.7943894073721044
-0.7746850085266774
0.005145483647528627
0.7943894073721044
-0.7746850085266774
0.005145483647528627
0.7943894073721044
-0.7726575194243638
0.003177845471300243
0.7927094244051018
-0.7726575194243638
0.003177845471300243
0.7927094244051018
-0.7726575194243638
0.003177845471300243
0.7927094244051018
-0.7726575194243638
0.003177845471300243
0.7927094244051018
-0.773275209976848
0.0011714847481530822
0.7920861131585755
-0.773275209976848
0.0011714847481530822
0.7920861131585755
-0.773275209976848
0.0011714847481530822
0.7920861131585755
-0.773275209976848
0.0011714847481530822
0.7920861131585755
-0.7767092679024683
-6.379403577934236E-4
0.791842003277248
-0.7767092679024683
-6.379403577934236E-4
0.791842003277248
-0.7767092679024683
-6.379403577934236E-4
0.791842003277248
-0.7767092679024683
-6.379403577934236E-4
0.791842003277248
-0.7795090327837917
-0.002050794150763988
0.7914601100480031
-0.7795090327837917
-0.002050794150763988
0.7914601100480031
-0.7795090327837917
-0.002050794150763988
0.7914601100480031
-0.7795090327837917
-0.002050794150763988
0.7914601100480031
-0.7790701766945165
-0.003119080824979281
0.7913803387439232
-0.7790701766945165
-0.003119080824979281
0.7913803387439232
-0.7790701766945165
-0.003119080824979281
0.7913803387439232
-0.7790701766945165
-0.003119080824979281
0.7913803387439232
-0.7747816940976354
-0.003136316145844471
0.7922107123251667
-0.7747816940976354
-0.003136316145844471
0.7922107123251667
-0.7747816940976354
-0.003136316145844471
0.7922107123251667
-0.7747816940976354
-0.003136316145844471
0.7922107123251667
-0.7700271995314311
-0.0032821876021275017
0.7922092383258711
-0.7700271995314311
-0.0032821876021275017
0.7922092383258711
-0.7700271995314311
-0.0032821876021275017
0.7922092383258711
-0.7700271995314311
-0.0032821876021275017
0.7922092383258711
-0.7662458218114927
-0.003757225037390987
0.792443068351137
-0.7662458218114927
-0.003757225037390987
0.792443068351137
-0.7662458218114927
-0.003757225037390987
0.792443068351137
-0.7662458218114927
-0.003757225037390987
0.792443068351137
-0.7648990642648851
-0.004172079300055016
0.7935277130575163
-0.7648990642648851
-0.004172079300055016
0.7935277130575163
-0.7648990642648851
-0.004172079300055016
0.7935277130575163
-0.7648990642648851
-0.004172079300055016
0.7935277130575163
-0.7647578314011254
-0.004181252789088452
0.7943609324955475
-0.7647578314011254
-0.004181252789088452
0.7943609324955475
-0.7647578314011254
-0.004181252789088452
0.7943609324955475
-0.7647578314011254
-0.004181252789088452
0.7943609324955475
-0.7661374229669219
-0.004535840357890214
0.7948826266298057
-0.7661374229669219
-0.004535840357890214
0.7948826266298057
-0.7661374229669219
-0.004535840357890214
0.7948826266298057
-0.7661374229669219
-0.004535840357890214
0.7948826266298057
-0.7700707264500335
-0.005122863825656357
0.7946676353147708
-0.7700707264500335
-0.005122863825656357
0.7946676353147708
-0.7700707264500335
-0.005122863825656357
0.7946676353147708
-0.7700707264500335
-0.005122863825656357
0.7946676353147708
-0.7731217258356098
-0.006130362709136284
0.7942978346108124
-0.7731217258356098
-0.006130362709136284
0.7942978346108124
-0.7731217258356098
-0.006130362709136284
0.7942978346108124
-0.7731217258356098
-0.006130362709136284
0.7942978346108124
-0.7737702222189591
-0.0073372767843365196
0.7934740182089615
-0.7737702222189591
-0.0073372767843365196
0.7934740182089615
-0.7737702222189591
-0.0073372767843365196
0.7934740182089615
-0.7737702222189591
-0.0073372767843365196
0.7934740182089615
-0.7737098608990493
-0.0074853218349294655
0.7935340717630784
-0.7737098608990493
-0.0074853218349294655
0.7935340717630784
-0.7737098608990493
-0.0074853218349294655
0.7935340717630784
-0.7737098608990493
-0.0074853218349294655
0.7935340717630784
-0.7737098608990493
-0.0074853218349294655
0.7935340717630784
-0.7737098608990493
-0.0074853218349294655
0.7935340717630784
-0.7737098608990493
-0.0074853218349294655
0.7935340717630784
-0.7737098608990493
-0.0074853218349294655
0.7935340717630784
-0.7737098608990493
-0.0074853218349294655
0.7935340717630784
-0.7737098608990493
-0.0074853218349294655
0.7935340717630784
-0.7737098608990493
-0.0074853218349294655
0.7935340717630784
-0.7737098608990493
-0.0074853218349294655
0.7935340717630784
-0.7736056538425108
-0.0075291700215060235
0.7935514775926347
-0.7736056538425108
-0.0075291700215060235
0.7935514775926347
-0.7736056538425108
-0.0075291700215060235
0.7935514775926347
-0.7736056538425108
-0.0075291700215060235
0.7935514775926347
-0.7735630172926137
-0.007546571601429916
0.793507628242411
-0.7735630172926137
-0.007546571601429916
0.793507628242411
-0.7735630172926137
-0.007546571601429916
0.793507628242411
-0.7735630172926137
-0.007546571601429916
0.793507628242411
-0.7730791693937678
-0.008094258099111722
0.7933836575091875
-0.7730791693937678
-0.008094258099111722
0.7933836575091875
-0.7730791693937678
-0.008094258099111722
0.7933836575091875
-0.7730791693937678
-0.008094258099111722
0.7933836575091875
-0.7724901685104519
-0.008390856538680437
0.793278429624365
-0.7724901685104519
-0.008390856538680437
0.793278429624365
-0.7724901685104519
-0.008390856538680437
0.793278429624365
-0.7724901685104519
-0.008390856538680437
0.793278429624365
-0.7724901685104519
-0.008390856538680437
0.793278429624365
-0.7724901685104519
-0.008390856538680437
0.793278429624365
-0.7724901685104519
-0.008390856538680437
0.793278429624365
-0.7724901685104519
-0.008390856538680437
0.793278429624365
-0.7732281062927966
-0.008449515925953418
0.793407338849167
-0.7732281062927966
-0.008449515925953418
0.793407338849167
-0.7732281062927966
-0.008449515925953418
0.793407338849167
-0.7732281062927966
-0.008449515925953418
0.793407338849167
-0.7736619333668534
-0.008490099881530917
0.793233397118101
-0.7736619333668534
-0.008490099881530917
0.793233397118101
-0.7736619333668534
-0.008490099881530917
0.793233397118101
-0.7736619333668534
-0.008490099881530917
0.793233397118101
-0.7739654123139051
-0.008339713444512536
0.7929302563140229
-0.7739654123139051
-0.008339713444512536
0.7929302563140229
-0.7739654123139051
-0.008339713444512536
0.7929302563140229
-0.7739654123139051
-0.008339713444512536
0.7929302563140229
-0.7740605095858979
-0.008277047140612252
0.7926617969261962
-0.7740605095858979
-0.008277047140612252
0.7926617969261962
-0.7740605095858979
-0.008277047140612252
0.7926617969261962
-0.7740605095858979
-0.008277047140612252
0.7926617969261962
-0.7744097037848275
-0.008647482523668202
0.7923987652694148
-0.7744097037848275
-0.008647482523668202
0.7923987652694148
-0.7744097037848275
-0.008647482523668202
0.7923987652694148
-0.7744097037848275
-0.008647482523668202
0.7923987652694148
-0.7751575643644023
-0.009146858649567465
0.7921701568203737
-0.7751575643644023
-0.009146858649567465
0.7921701568203737
-0.7751575643644023
-0.009146858649567465
0.7921701568203737
-0.7751575643644023
-0.009146858649567465
0.7921701568203737
-0.7755054809073088
-0.009395971036513592
0.7919085153017961
-0.7755054809073088
-0.009395971036513592
0.7919085153017961
-0.7755054809073088
-0.009395971036513592
0.7919085153017961
-0.7755054809073088
-0.009395971036513592
0.7919085153017961
-0.7759575167194789
-0.009601403502999727
0.7916296537160166
-0.7759575167194789
-0.009601403502999727
0.7916296537160166
-0.7759575167194789
-0.009601403502999727
0.7916296537160166
-0.7759575167194789
-0.009601403502999727
0.7916296537160166
-0.7762955297377033
-0.009537277498065568
0.791118173108798
-0.7762955297377033
-0.009537277498065568
0.791118173108798
-0.7762955297377033
-0.009537277498065568
0.791118173108798
-0.7762955297377033
-0.009537277498065568
0.791118173108798
-0.7767982733700979
-0.009281718851401098
0.7905291470082735
-0.7767982733700979
-0.009281718851401098
0.7905291470082735
-0.7767982733700979
-0.009281718851401098
0.7905291470082735
-0.7767982733700979
-0.009281718851401098
0.7905291470082735
-0.7777863863114701
-0.008774235014259151
0.7900621361328454
-0.7777863863114701
-0.008774235014259151
0.7900621361328454
-0.7777863863114701
-0.008774235014259151
0.7900621361328454
-0.7777863863114701
-0.008774235014259151
0.7900621361328454
-0.7787223393828638
-0.008311707495911863
0.7899069531974453
-0.7787223393828638
-0.008311707495911863
0.7899069531974453
-0.7787223393828638
-0.008311707495911863
0.7899069531974453
-0.7787223393828638
-0.008311707495911863
0.7899069531974453
-0.779718949088252
-0.007701548778944615
0.7896908961263241
-0.779718949088252
-0.007701548778944615
0.7896908961263241
-0.779718949088252
-0.007701548778944615
0.7896908961263241
-0.779718949088252
-0.007701548778944615
0.7896908961263241
-0.7801345000868467
-0.007110682382581603
0.7896223257621524
-0.7801345000868467
-0.007110682382581603
0.7896223257621524
-0.7801345000868467
-0.007110682382581603
0.7896223257621524
-0.7801345000868467
-0.007110682382581603
0.7896223257621524
-0.7802981880229317
-0.00650286761706749
0.7895455517039246
-0.7802981880229317
-0.00650286761706749
0.7895455517039246
-0.7802981880229317
-0.00650286761706749
0.7895455517039246
-0.7802981880229317
-0.00650286761706749
0.7895455517039246
-0.7801064437359619
-0.006043238253345578
0.7894777619952212
-0.7801064437359619
-0.006043238253345578
0.7894777619952212
-0.7801064437359619
-0.006043238253345578
0.7894777619952212
-0.7801064437359619
-0.006043238253345578
0.7894777619952212
-0.7798536298871048
-0.005436449483368919
0.7894712815849179
-0.7798536298871048
-0.005436449483368919
0.7894712815849179
-0.7798536298871048
-0.005436449483368919
0.7894712815849179
-0.7798536298871048
-0.005436449483368919
0.7894712815849179
-0.7803993094476459
-0.00503650161793632
0.7895316660686099
-0.7803993094476459
-0.00503650161793632
0.7895316660686099
-0.7803993094476459
-0.00503650161793632
0.7895316660686099
-0.7803993094476459
-0.00503650161793632
0.7895316660686099
-0.7807361225533761
-0.004428748627690313
0.7896276595880282
-0.7807361225533761
-0.004428748627690313
0.7896276595880282
-0.7807361225533761
-0.004428748627690313
0.7896276595880282
-0.7807361225533761
-0.004428748627690313
0.7896276595880282
-0.7809434119033878
-0.003925110311999767
0.7895934554335049
-0.7809434119033878
-0.003925110311999767
0.7895934554335049
-0.7809434119033878
-0.003925110311999767
0.7895934554335049
-0.7809434119033878
-0.003925110311999767
0.7895934554335049
-0.7812194852257671
-0.0034649737073843
0.7897497771501943
-0.7812194852257671
-0.0034649737073843
0.7897497771501943
-0.7812194852257671
-0.0034649737073843
0.7897497771501943
-0.7812194852257671
-0.0034649737073843
0.7897497771501943
-0.7815389900817402
-0.0031089343728564985
0.7899489594053934
-0.7815389900817402
-0.0031089343728564985
0.7899489594053934
-0.7815389900817402
-0.0031089343728564985
0.7899489594053934
-0.7815389900817402
-0.0031089343728564985
0.7899489594053934
-0.781459492738063
-0.0027969291737773056
0.7901148086901971
-0.781459492738063
-0.0027969291737773056
0.7901148086901971
-0.781459492738063
-0.0027969291737773056
0.7901148086901971
-0.781459492738063
-0.0027969291737773056
0.7901148086901971
-0.780963798182314
-0.0026080136010394523
0.7903511111420152
-0.780963798182314
-0.0026080136010394523
0.7903511111420152
-0.780963798182314
-0.0026080136010394523
0.7903511111420152
-0.780963798182314
-0.0026080136010394523
0.7903511111420152
-0.78067645020243
-0.002505026688700567
0.790552010028549
-0.78067645020243
-0.002505026688700567
0.790552010028549
-0.78067645020243
-0.002505026688700567
0.790552010028549
-0.78067645020243
-0.002505026688700567
0.790552010028549
-0.7802664745856025
-0.0021079718930374623
0.7908754842805102
-0.7802664745856025
-0.0021079718930374623
0.7908754842805102
-0.7802664745856025
-0.0021079718930374623
0.7908754842805102
-0.7802664745856025
-0.0021079718930374623
0.7908754842805102
-0.7802988982419196
-0.001943747936057094
0.7912750670846621
-0.7802988982419196
-0.001943747936057094
0.7912750670846621
-0.7802988982419196
-0.001943747936057094
0.7912750670846621
-0.7802988982419196
-0.001943747936057094
0.7912750670846621
-0.7802988982419196
-0.001943747936057094
0.7912750670846621
-0.7802988982419196
-0.001943747936057094
0.7912750670846621
-0.7802988982419196
-0.001943747936057094
0.7912750670846621
-0.7802988982419196
-0.001943747936057094
0.7912750670846621
-0.7803424536750917
-0.002047908697912073
0.7913179532526836
-0.7803424536750917
-0.002047908697912073
0.7913179532526836
-0.7803424536750917
-0.002047908697912073
0.7913179532526836
-0.7803424536750917
-0.002047908697912073
0.7913179532526836
-0.7801954102257828
-0.002109250508626797
0.7912921806909005
-0.7801954102257828
-0.002109250508626797
0.7912921806909005
-0.7801954102257828
-0.002109250508626797
0.7912921806909005
-0.7801954102257828
-0.002109250508626797
0.7912921806909005
-0.7804229503168052
-0.002654559524523706
0.7911512838678788
-0.7804229503168052
-0.002654559524523706
0.7911512838678788
-0.7804229503168052
-0.002654559524523706
0.7911512838678788
-0.7804229503168052
-0.002654559524523706
0.7911512838678788
-0.7808409852901397
-0.0030698726510439197
0.791079179726649
-0.7808409852901397
-0.0030698726510439197
0.791079179726649
-0.7808409852901397
-0.0030698726510439197
0.791079179726649
-0.7808409852901397
-0.0030698726510439197
0.791079179726649
-0.7807804089797571
-0.0032175772279038535
0.7911398532002172
-0.7807804089797571
-0.0032175772279038535
0.7911398532002172
-0.7807804089797571
-0.0032175772279038535
0.7911398532002172
-0.7807804089797571
-0.0032175772279038535
0.7911398532002172
-0.7810861303872286
-0.003658240438253957
0.7908344233831329
-0.7810861303872286
-0.003658240438253957
0.7908344233831329
-0.7810861303872286
-0.003658240438253957
0.7908344233831329
-0.7810861303872286
-0.003658240438253957
0.7908344233831329
-0.7813740507244196
-0.00405603620892119
0.7906332438318429
-0.7813740507244196
-0.00405603620892119
0.7906332438318429
-0.7813740507244196
-0.00405603620892119
0.7906332438318429
-0.7813740507244196
-0.00405603620892119
0.7906332438318429
-0.7814535282844391
-0.004367985153857461
0.7904674145085406
-0.7814535282844391
-0.004367985153857461
0.7904674145085406
-0.7814535282844391
-0.004367985153857461
0.7904674145085406
-0.7814535282844391
-0.004367985153857461
0.7904674145085406
-0.7814970834052717
-0.004472116221844196
0.7905104206790581
-0.7814970834052717
-0.004472116221844196
0.7905104206790581
-0.7814970834052717
-0.004472116221844196
0.7905104206790581
-0.7814970834052717
-0.004472116221844196
0.7905104206790581
-0.7814970834052717
-0.004472116221844196
0.7905104206790581
-0.7814970834052717
-0.004472116221844196
0.7905104206790581
-0.7814970834052717
-0.004472116221844196
0.7905104206790581
-0.7814970834052717
-0.004472116221844196
0.7905104206790581
-0.7813929513223214
-0.004515674613760738
0.7905280887683839
-0.7813929513223214
-0.004515674613760738
0.7905280887683839
-0.7813929513223214
-0.004515674613760738
0.7905280887683839
-0.7813929513223214
-0.004515674613760738
0.7905280887683839
-0.7813499488226844
-0.004533338777854054
0.7904845299682536
-0.7813499488226844
-0.004533338777854054
0.7904845299682536
-0.7813499488226844
-0.004533338777854054
0.7904845299682536
-0.7813499488226844
-0.004533338777854054
0.7904845299682536
-0.781827775781496
-0.004679299179746516
0.7903528733394838
-0.781827775781496
-0.004679299179746516
0.7903528733394838
-0.781827775781496
-0.004679299179746516
0.7903528733394838
-0.781827775781496
-0.004679299179746516
0.7903528733394838
-0.7818382940681297
-0.005120892823165481
0.7899965441003279
-0.7818382940681297
-0.005120892823165481
0.7899965441003279
-0.7818382940681297
-0.005120892823165481
0.7899965441003279
-0.7818382940681297
-0.005120892823165481
0.7899965441003279
-0.781580223197059
-0.005745870280108
0.789735494167879
-0.781580223197059
-0.005745870280108
0.789735494167879
-0.781580223197059
-0.005745870280108
0.789735494167879
-0.781580223197059
-0.005745870280108
0.789735494167879
-0.781597809589878
-0.005788917038366242
0.7896313614176261
-0.781597809589878
-0.005788917038366242
0.7896313614176261
-0.781597809589878
-0.005788917038366242
0.7896313614176261
-0.781597809589878
-0.005788917038366242
0.7896313614176261
-0.7814936730925434
-0.005832456404240462
0.7896489440633634
-0.7814936730925434
-0.005832456404240462
0.7896489440633634
-0.7814936730925434
-0.005832456404240462
0.7896489440633634
-0.7814936730925434
-0.005832456404240462
0.7896489440633634
-0.7814936730925434
-0.005832456404240462
0.7896489440633634
-0.7814936730925434
-0.005832456404240462
0.7896489440633634
-0.7814936730925434
-0.005832456404240462
0.7896489440633634
-0.7814936730925434
-0.005832456404240462
0.7896489440633634
-0.7815372169047354
-0.005936591104614851
0.7896919915768348
-0.7815372169047354
-0.005936591104614851
0.7896919915768348
-0.7815372169047354
-0.005936591104614851
0.7896919915768348
-0.7815372169047354
-0.005936591104614851
0.7896919915768348
-0.7815372169047354
-0.005936591104614851
0.7896919915768348
-0.7815372169047354
-0.005936591104614851
0.7896919915768348
-0.7815372169047354
-0.005936591104614851
0.7896919915768348
-0.7815372169047354
-0.005936591104614851
0.7896919915768348
-0.7815372169047354
-0.005936591104614851
0.7896919915768348
-0.7815372169047354
-0.005936591104614851
0.7896919915768348
-0.7815372169047354
-0.005936591104614851
0.7896919915768348
-0.7815372169047354
-0.005936591104614851
0.7896919915768348
-0.7814330803950945
-0.005980137854944154
0.789709566742661
-0.7814330803950945
-0.005980137854944154
0.789709566742661
-0.7814330803950945
-0.005980137854944154
0.789709566742661
-0.7814330803950945
-0.005980137854944154
0.789709566742661
-0.781476631629584
-0.006084272476321111
0.7897526143325414
-0.781476631629584
-0.006084272476321111
0.7897526143325414
-0.781476631629584
-0.006084272476321111
0.7897526143325414
-0.781476631629584
-0.006084272476321111
0.7897526143325414
-0.7814335840090578
-0.0061018398729977075
0.7897090631286976
-0.7814335840090578
-0.0061018398729977075
0.7897090631286976
-0.7814335840090578
-0.0061018398729977075
0.7897090631286976
-0.7814335840090578
-0.0061018398729977075
0.7897090631286976
-0.7814511480209891
-0.006144886679543943
0.7896049302768409
-0.7814511480209891
-0.006144886679543943
0.7896049302768409
-0.7814511480209891
-0.006144886679543943
0.7896049302768409
-0.7814511480209891
-0.006144886679543943
0.7896049302768409
-0.7813905625962276
-0.006292567896286064
0.7896655381938308
-0.7813905625962276
-0.006292567896286064
0.7896655381938308
-0.7813905625962276
-0.006292567896286064
0.7896655381938308
-0.7813905625962276
-0.006292567896286064
0.7896655381938308
-0.7816604474887549
-0.006647522300596241
0.7895689109539892
-0.7816604474887549
-0.006647522300596241
0.7895689109539892
-0.7816604474887549
-0.006647522300596241
0.7895689109539892
-0.7816604474887549
-0.006647522300596241
0.7895689109539892
-0.7819483153822333
-0.007340489668372438
0.7893678519831779
-0.7819483153822333
-0.007340489668372438
0.7893678519831779
-0.7819483153822333
-0.007340489668372438
0.7893678519831779
-0.7819483153822333
-0.007340489668372438
0.7893678519831779
-0.7820277824665053
-0.007947355363559906
0.7892018762105041
-0.7820277824665053
-0.007947355363559906
0.7892018762105041
-0.7820277824665053
-0.007947355363559906
0.7892018762105041
-0.7820277824665053
-0.007947355363559906
0.7892018762105041
-0.7818805409865562
-0.008008383382147943
0.7891757849402121
-0.7818805409865562
-0.008008383382147943
0.7891757849402121
-0.7818805409865562
-0.008008383382147943
0.7891757849402121
-0.7818805409865562
-0.008008383382147943
0.7891757849402121
-0.7819241034237994
-0.008112498866664241
0.7892189039015128
-0.7819241034237994
-0.008112498866664241
0.7892189039015128
-0.7819241034237994
-0.008112498866664241
0.7892189039015128
-0.7819241034237994
-0.008112498866664241
0.7892189039015128
-0.7819241034237994
-0.008112498866664241
0.7892189039015128
-0.7819241034237994
-0.008112498866664241
0.7892189039015128
-0.7819241034237994
-0.008112498866664241
0.7892189039015128
-0.7819241034237994
-0.008112498866664241
0.7892189039015128
-0.7818805409865562
-0.008008383382147943
0.7891757849402121
-0.7818805409865562
-0.008008383382147943
0.7891757849402121
-0.7818805409865562
-0.008008383382147943
0.7891757849402121
-0.7818805409865562
-0.008008383382147943
0.7891757849402121
-0.7817764184070619
-0.008051944398839396
0.7891932486543445
-0.7817764184070619
-0.008051944398839396
0.7891932486543445
-0.7817764184070619
-0.008051944398839396
0.7891932486543445
-0.7817764184070619
-0.008051944398839396
0.7891932486543445
-0.7816538705783236
-0.007462598093698998
0.7893157364102131
-0.7816538705783236
-0.007462598093698998
0.7893157364102131
-0.7816538705783236
-0.007462598093698998
0.7893157364102131
-0.7816538705783236
-0.007462598093698998
0.7893157364102131
-0.7818076506630235
-0.00658642685503885
0.789594920429765
-0.7818076506630235
-0.00658642685503885
0.789594920429765
-0.7818076506630235
-0.00658642685503885
0.789594920429765
-0.7818076506630235
-0.00658642685503885
0.789594920429765
-0.7825508096654026
-0.0055358221965982725
0.7899766687788656
-0.7825508096654026
-0.0055358221965982725
0.7899766687788656
-0.7825508096654026
-0.0055358221965982725
0.7899766687788656
-0.7825508096654026
-0.0055358221965982725
0.7899766687788656
-0.7819130553378547
-0.004176112915132159
0.7904402298831141
-0.7819130553378547
-0.004176112915132159
0.7904402298831141
-0.7819130553378547
-0.004176112915132159
0.7904402298831141
-0.7819130553378547
-0.004176112915132159
0.7904402298831141
-0.781212071880464
-0.002252954987255046
0.7909669024646443
-0.781212071880464
-0.002252954987255046
0.7909669024646443
-0.781212071880464
-0.002252954987255046
0.7909669024646443
-0.781212071880464
-0.002252954987255046
0.7909669024646443
-0.7817883297252872
-2.208078001588735E-4
0.7908209201281228
-0.7817883297252872
-2.208078001588735E-4
0.7908209201281228
-0.7817883297252872
-2.208078001588735E-4
0.7908209201281228
-0.7817883297252872
-2.208078001588735E-4
0.7908209201281228
-0.7794325527050211
0.0018898544831672892
0.7906738810506642
-0.7794325527050211
0.0018898544831672892
0.7906738810506642
-0.7794325527050211
0.0018898544831672892
0.7906738810506642
-0.7794325527050211
0.0018898544831672892
0.7906738810506642
-0.7781188173679985
0.004212543048749165
0.7903518289212587
-0.7781188173679985
0.004212543048749165
0.7903518289212587
-0.7781188173679985
0.004212543048749165
0.7903518289212587
-0.7781188173679985
0.004212543048749165
0.7903518289212587
-0.7799564094681203
0.007402818709877454
0.7896359271041407
-0.7799564094681203
0.007402818709877454
0.7896359271041407
-0.7799564094681203
0.007402818709877454
0.7896359271041407
-0.7799564094681203
0.007402818709877454
0.7896359271041407
-0.7799939821359813
0.00979132972317302
0.7888266548836649
-0.7799939821359813
0.00979132972317302
0.7888266548836649
-0.7799939821359813
0.00979132972317302
0.7888266548836649
-0.7799939821359813
0.00979132972317302
0.7888266548836649
-0.7782479463839418
0.012156671846406803
0.7886875469758934
-0.7782479463839418
0.012156671846406803
0.7886875469758934
-0.7782479463839418
0.012156671846406803
0.7886875469758934
-0.7782479463839418
0.012156671846406803
0.7886875469758934
-0.7798850421072115
0.015421984781999224
0.7891123388413974
-0.7798850421072115
0.015421984781999224
0.7891123388413974
-0.7798850421072115
0.015421984781999224
0.7891123388413974
-0.7798850421072115
0.015421984781999224
0.7891123388413974
-0.7821950204777909
0.018193423598306075
0.7886013063171058
-0.7821950204777909
0.018193423598306075
0.7886013063171058
-0.7821950204777909
0.018193423598306075
0.7886013063171058
-0.7821950204777909
0.018193423598306075
0.7886013063171058
-0.7798281598896728
0.020118336750779158
0.7877205840830881
-0.7798281598896728
0.020118336750779158
0.7877205840830881
-0.7798281598896728
0.020118336750779158
0.7877205840830881
-0.7798281598896728
0.020118336750779158
0.7877205840830881
-0.7796072566502413
0.022548575336396797
0.7872624853476095
-0.7796072566502413
0.022548575336396797
0.7872624853476095
-0.7796072566502413
0.022548575336396797
0.7872624853476095
-0.7796072566502413
0.022548575336396797
0.7872624853476095
-0.7750706053551624
0.024945964349589653
0.788051816397662
-0.7750706053551624
0.024945964349589653
0.788051816397662
-0.7750706053551624
0.024945964349589653
0.788051816397662
-0.7750706053551624
0.024945964349589653
0.788051816397662
-0.7743962877392195
0.026594194865053385
0.7892438249203995
-0.7743962877392195
0.026594194865053385
0.7892438249203995
-0.7743962877392195
0.026594194865053385
0.7892438249203995
-0.7743962877392195
0.026594194865053385
0.7892438249203995
-0.7739841484819602
0.027510651151801124
0.7898293232669867
-0.7739841484819602
0.027510651151801124
0.7898293232669867
-0.7739841484819602
0.027510651151801124
0.7898293232669867
-0.7739841484819602
0.027510651151801124
0.7898293232669867
-0.7721317901298073
0.028723509080062888
0.7894731120133153
-0.7721317901298073
0.028723509080062888
0.7894731120133153
-0.7721317901298073
0.028723509080062888
0.7894731120133153
-0.7721317901298073
0.028723509080062888
0.7894731120133153
-0.7685271492983856
0.029531350476884155
0.7895933507980473
-0.7685271492983856
0.029531350476884155
0.7895933507980473
-0.7685271492983856
0.029531350476884155
0.7895933507980473
-0.7685271492983856
0.029531350476884155
0.7895933507980473
-0.763730441451952
0.030187372520231903
0.7898865153870647
-0.763730441451952
0.030187372520231903
0.7898865153870647
-0.763730441451952
0.030187372520231903
0.7898865153870647
-0.763730441451952
0.030187372520231903
0.7898865153870647
-0.7629451720736357
0.03044442170765628
0.7892284521598221
-0.7629451720736357
0.03044442170765628
0.7892284521598221
-0.7629451720736357
0.03044442170765628
0.7892284521598221
-0.7629451720736357
0.03044442170765628
0.7892284521598221
-0.760334230026475
0.029973054487026793
0.7897092480176972
-0.760334230026475
0.029973054487026793
0.7897092480176972
-0.760334230026475
0.029973054487026793
0.7897092480176972
-0.760334230026475
0.029973054487026793
0.7897092480176972
-0.7570254523572121
0.02948028662395589
0.7898642409572443
-0.7570254523572121
0.02948028662395589
0.7898642409572443
-0.7570254523572121
0.02948028662395589
0.7898642409572443
-0.7570254523572121
0.02948028662395589
0.7898642409572443
-0.7546081280217829
0.029526011968869045
0.7893053530182488
-0.7546081280217829
0.029526011968869045
0.7893053530182488
-0.7546081280217829
0.029526011968869045
0.7893053530182488
-0.7546081280217829
0.029526011968869045
0.7893053530182488
-0.7539548469316485
0.029277790976551935
0.7890194074205648
-0.7539548469316485
0.029277790976551935
0.7890194074205648
-0.7539548469316485
0.029277790976551935
0.7890194074205648
-0.7539548469316485
0.029277790976551935
0.7890194074205648
-0.7537067614763685
0.028685597317184633
0.7892580215454159
-0.7537067614763685
0.028685597317184633
0.7892580215454159
-0.7537067614763685
0.028685597317184633
0.7892580215454159
-0.7537067614763685
0.028685597317184633
0.7892580215454159
-0.7519686724737911
0.027910932518676643
0.7891138034486992
-0.7519686724737911
0.027910932518676643
0.7891138034486992
-0.7519686724737911
0.027910932518676643
0.7891138034486992
-0.7519686724737911
0.027910932518676643
0.7891138034486992
-0.7500545003195763
0.02716302006976812
0.7885469926205368
-0.7500545003195763
0.02716302006976812
0.7885469926205368
-0.7500545003195763
0.02716302006976812
0.7885469926205368
-0.7500545003195763
0.02716302006976812
0.7885469926205368
-0.7510580773717446
0.026058668142413026
0.7882924239941835
-0.7510580773717446
0.026058668142413026
0.7882924239941835
-0.7510580773717446
0.026058668142413026
0.7882924239941835
-0.7510580773717446
0.026058668142413026
0.7882924239941835
-0.7534835966980098
0.024981739998407203
0.7890903442943781
-0.7534835966980098
0.024981739998407203
0.7890903442943781
-0.7534835966980098
0.024981739998407203
0.7890903442943781
-0.7534835966980098
0.024981739998407203
0.7890903442943781
-0.7542931713002391
0.023551316478200697
0.7896264936955805
-0.7542931713002391
0.023551316478200697
0.7896264936955805
-0.7542931713002391
0.023551316478200697
0.7896264936955805
-0.7542931713002391
0.023551316478200697
0.7896264936955805
-0.752929199505918
0.022589561993677117
0.7893561682076616
-0.752929199505918
0.022589561993677117
0.7893561682076616
-0.752929199505918
0.022589561993677117
0.7893561682076616
-0.752929199505918
0.022589561993677117
0.7893561682076616
-0.7504913743732228
0.022090005158209452
0.7888840897111458
-0.7504913743732228
0.022090005158209452
0.7888840897111458
-0.7504913743732228
0.022090005158209452
0.7888840897111458
-0.7504913743732228
0.022090005158209452
0.7888840897111458
-0.7492051260782013
0.021654260069694654
0.7884544996553724
-0.7492051260782013
0.021654260069694654
0.7884544996553724
-0.7492051260782013
0.021654260069694654
0.7884544996553724
-0.7492051260782013
0.021654260069694654
0.7884544996553724
-0.7507581762952946
0.021342304031180655
0.7885198100676726
-0.7507581762952946
0.021342304031180655
0.7885198100676726
-0.7507581762952946
0.021342304031180655
0.7885198100676726
-0.7507581762952946
0.021342304031180655
0.7885198100676726
-0.752111966171024
0.02102113857571764
0.7891264957037158
-0.752111966171024
0.02102113857571764
0.7891264957037158
-0.752111966171024
0.02102113857571764
0.7891264957037158
-0.752111966171024
0.02102113857571764
0.7891264957037158
-0.7519902234792328
0.02001314870443541
0.7892330814293527
-0.7519902234792328
0.02001314870443541
0.7892330814293527
-0.7519902234792328
0.02001314870443541
0.7892330814293527
-0.7519902234792328
0.02001314870443541
0.7892330814293527
-0.7520334707930243
0.019908164144126977
0.7892740327420436
-0.7520334707930243
0.019908164144126977
0.7892740327420436
-0.7520334707930243
0.019908164144126977
0.7892740327420436
-0.7520334707930243
0.019908164144126977
0.7892740327420436
-0.7517963550014783
0.019662335600929788
0.7889090562299987
-0.7517963550014783
0.019662335600929788
0.7889090562299987
-0.7517963550014783
0.019662335600929788
0.7889090562299987
-0.7517963550014783
0.019662335600929788
0.7889090562299987
-0.7524309656353565
0.019632600688976074
0.7881876832162978
-0.7524309656353565
0.019632600688976074
0.7881876832162978
-0.7524309656353565
0.019632600688976074
0.7881876832162978
-0.7524309656353565
0.019632600688976074
0.7881876832162978
-0.7548379344847621
0.019871293966392485
0.7880079105200949
-0.7548379344847621
0.019871293966392485
0.7880079105200949
-0.7548379344847621
0.019871293966392485
0.7880079105200949
-0.7548379344847621
0.019871293966392485
0.7880079105200949
-0.7567555961012576
0.019614319134530638
0.7885654906069605
-0.7567555961012576
0.019614319134530638
0.7885654906069605
-0.7567555961012576
0.019614319134530638
0.7885654906069605
-0.7567555961012576
0.019614319134530638
0.7885654906069605
-0.757179184311904
0.019005262062536627
0.7887328064404778
-0.757179184311904
0.019005262062536627
0.7887328064404778
-0.757179184311904
0.019005262062536627
0.7887328064404778
-0.757179184311904
0.019005262062536627
0.7887328064404778
-0.7570945529210034
0.018797630604358483
0.7886442866675724
-0.7570945529210034
0.018797630604358483
0.7886442866675724
-0.7570945529210034
0.018797630604358483
0.7886442866675724
-0.7570945529210034
0.018797630604358483
0.7886442866675724
-0.7573180477150592
0.018741918877510148
0.7882497690870941
-0.7573180477150592
0.018741918877510148
0.7882497690870941
-0.7573180477150592
0.018741918877510148
0.7882497690870941
-0.7573180477150592
0.018741918877510148
0.7882497690870941
-0.7582082198765111
0.01891544569083794
0.78778821497359
-0.7582082198765111
0.01891544569083794
0.78778821497359
-0.7582082198765111
0.01891544569083794
0.78778821497359
-0.7582082198765111
0.01891544569083794
0.78778821497359
-0.7592756808143292
0.018770161628964083
0.7877448245643055
-0.7592756808143292
0.018770161628964083
0.7877448245643055
-0.7592756808143292
0.018770161628964083
0.7877448245643055
-0.7592756808143292
0.018770161628964083
0.7877448245643055
-0.7607482489696848
0.01805731433634253
0.787975052096435
-0.7607482489696848
0.01805731433634253
0.787975052096435
-0.7607482489696848
0.01805731433634253
0.787975052096435
-0.7607482489696848
0.01805731433634253
0.787975052096435
-0.7622594079408478
0.017432833239122442
0.787998488096845
-0.7622594079408478
0.017432833239122442
0.787998488096845
-0.7622594079408478
0.017432833239122442
0.787998488096845
-0.7622594079408478
0.017432833239122442
0.787998488096845
-0.7629673567956754
0.01662094849528335
0.7877106468407478
-0.7629673567956754
0.01662094849528335
0.7877106468407478
-0.7629673567956754
0.01662094849528335
0.7877106468407478
-0.7629673567956754
0.01662094849528335
0.7877106468407478
-0.7620606616578856
0.015973245358013057
0.7874115898946307
-0.7620606616578856
0.015973245358013057
0.7874115898946307
-0.7620606616578856
0.015973245358013057
0.7874115898946307
-0.7620606616578856
0.015973245358013057
0.7874115898946307
-0.7614666146713823
0.01557820144014384
0.7870589177515435
-0.7614666146713823
0.01557820144014384
0.7870589177515435
-0.7614666146713823
0.01557820144014384
0.7870589177515435
-0.7614666146713823
0.01557820144014384
0.7870589177515435
-0.7629826369365743
0.01505465981160304
0.7873371744893766
-0.7629826369365743
0.01505465981160304
0.7873371744893766
-0.7629826369365743
0.01505465981160304
0.7873371744893766
-0.7629826369365743
0.01505465981160304
0.7873371744893766
-0.7641362827223147
0.014699498141604872
0.7873796096132907
-0.7641362827223147
0.014699498141604872
0.7873796096132907
-0.7641362827223147
0.014699498141604872
0.7873796096132907
-0.7641362827223147
0.014699498141604872
0.7873796096132907
-0.7648228149891833
0.01446911702255556
0.7872039750095561
-0.7648228149891833
0.01446911702255556
0.7872039750095561
-0.7648228149891833
0.01446911702255556
0.7872039750095561
-0.7648228149891833
0.01446911702255556
0.7872039750095561
-0.7644004499250553
0.01466059832715535
0.7870289271763887
-0.7644004499250553
0.01466059832715535
0.7870289271763887
-0.7644004499250553
0.01466059832715535
0.7870289271763887
-0.7644004499250553
0.01466059832715535
0.7870289271763887
-0.764081502659459
0.015018218758613311
0.7868371477646027
-0.764081502659459
0.015018218758613311
0.7868371477646027
-0.764081502659459
0.015018218758613311
0.7868371477646027
-0.764081502659459
0.015018218758613311
0.7868371477646027
-0.7647500785056174
0.015123736836858689
0.7867691174739501
-0.7647500785056174
0.015123736836858689
0.7867691174739501
-0.7647500785056174
0.015123736836858689
0.7867691174739501
-0.7647500785056174
0.015123736836858689
0.7867691174739501
-0.7652108085287471
0.015314352958622308
0.786739164438043
-0.7652108085287471
0.015314352958622308
0.786739164438043
-0.7652108085287471
0.015314352958622308
0.786739164438043
-0.7652108085287471
0.015314352958622308
0.786739164438043
-0.7656529552291982
0.015252437577287588
0.7868109800124773
-0.7656529552291982
0.015252437577287588
0.7868109800124773
-0.7656529552291982
0.015252437577287588
0.7868109800124773
-0.7656529552291982
0.015252437577287588
0.7868109800124773
-0.7655482292445954
0.015209352381089688
0.7868292565419398
-0.7655482292445954
0.015209352381089688
0.7868292565419398
-0.7655482292445954
0.015209352381089688
0.7868292565419398
-0.7655482292445954
0.015209352381089688
0.7868292565419398
-0.7659522792595497
0.015059757206796441
0.7871090028283411
-0.7659522792595497
0.015059757206796441
0.7871090028283411
-0.7659522792595497
0.015059757206796441
0.7871090028283411
-0.7659522792595497
0.015059757206796441
0.7871090028283411
-0.7658484338459911
0.014305052064040579
0.787120303076659
-0.7658484338459911
0.014305052064040579
0.787120303076659
-0.7658484338459911
0.014305052064040579
0.787120303076659
-0.7658484338459911
0.014305052064040579
0.787120303076659
-0.7655494872098757
0.013491873903690058
0.7868122062523351
-0.7655494872098757
0.013491873903690058
0.7868122062523351
-0.7655494872098757
0.013491873903690058
0.7868122062523351
-0.7655494872098757
0.013491873903690058
0.7868122062523351
-0.7658512722151676
0.012240114516842378
0.7862411811666634
-0.7658512722151676
0.012240114516842378
0.7862411811666634
-0.7658512722151676
0.012240114516842378
0.7862411811666634
-0.7658512722151676
0.012240114516842378
0.7862411811666634
-0.7690428343712417
0.010830342154036061
0.7847538159697578
-0.7690428343712417
0.010830342154036061
0.7847538159697578
-0.7690428343712417
0.010830342154036061
0.7847538159697578
-0.7690428343712417
0.010830342154036061
0.7847538159697578
-0.7749491589374892
0.009015380972296667
0.7830428053548647
-0.7749491589374892
0.009015380972296667
0.7830428053548647
-0.7749491589374892
0.009015380972296667
0.7830428053548647
-0.7749491589374892
0.009015380972296667
0.7830428053548647
-0.7817969799501556
0.006918453393385738
0.7814294905196127
-0.7817969799501556
0.006918453393385738
0.7814294905196127
-0.7817969799501556
0.006918453393385738
0.7814294905196127
-0.7817969799501556
0.006918453393385738
0.7814294905196127
-0.783695164107898
0.005344468050365952
0.7812471849142224
-0.783695164107898
0.005344468050365952
0.7812471849142224
-0.783695164107898
0.005344468050365952
0.7812471849142224
-0.783695164107898
0.005344468050365952
0.7812471849142224
-0.7827111657705137
0.0039844554104549405
0.7813656825168248
-0.7827111657705137
0.0039844554104549405
0.7813656825168248
-0.7827111657705137
0.0039844554104549405
0.7813656825168248
-0.7827111657705137
0.0039844554104549405
0.7813656825168248
-0.7811394030511486
0.003337195628465277
0.7813839616217078
-0.7811394030511486
0.003337195628465277
0.7813839616217078
-0.7811394030511486
0.003337195628465277
0.7813839616217078
-0.7811394030511486
0.003337195628465277
0.7813839616217078
-0.7772370199629971
0.003345983046414863
0.7811499521188486
-0.7772370199629971
0.003345983046414863
0.7811499521188486
-0.7772370199629971
0.003345983046414863
0.7811499521188486
-0.7772370199629971
0.003345983046414863
0.7811499521188486
-0.7737210378529417
0.00253682594314205
0.7812990740682378
-0.7737210378529417
0.00253682594314205
0.7812990740682378
-0.7737210378529417
0.00253682594314205
0.7812990740682378
-0.7737210378529417
0.00253682594314205
0.7812990740682378
-0.7706777720025711
8.208470447506037E-4
0.7819129227927355
-0.7706777720025711
8.208470447506037E-4
0.7819129227927355
-0.7706777720025711
8.208470447506037E-4
0.7819129227927355
-0.7706777720025711
8.208470447506037E-4
0.7819129227927355
-0.7703910632806198
-3.2911740507434334E-4
0.7814979916937548
-0.7703910632806198
-3.2911740507434334E-4
0.7814979916937548
-0.7703910632806198
-3.2911740507434334E-4
0.7814979916937548
-0.7703910632806198
-3.2911740507434334E-4
0.7814979916937548
-0.7715477920520183
-0.0015989049360564187
0.7803298298948278
-0.7715477920520183
-0.0015989049360564187
0.7803298298948278
-0.7715477920520183
-0.0015989049360564187
0.7803298298948278
-0.7715477920520183
-0.0015989049360564187
0.7803298298948278
-0.7735868956382532
-0.0027517240039815856
0.7793164910816961
-0.7735868956382532
-0.0027517240039815856
0.7793164910816961
-0.7735868956382532
-0.0027517240039815856
0.7793164910816961
-0.7735868956382532
-0.0027517240039815856
0.7793164910816961
-0.7752063377371678
-0.0035304628323366326
0.7795930972898398
-0.7752063377371678
-0.0035304628323366326
0.7795930972898398
-0.7752063377371678
-0.0035304628323366326
0.7795930972898398
-0.7752063377371678
-0.0035304628323366326
0.7795930972898398
-0.7767441770658158
-0.004754022538187873
0.7806411458903927
-0.7767441770658158
-0.004754022538187873
0.7806411458903927
-0.7767441770658158
-0.004754022538187873
0.7806411458903927
-0.7767441770658158
-0.004754022538187873
0.7806411458903927
-0.7758185283083079
-0.006058997473714957
0.7819038256617702
-0.7758185283083079
-0.006058997473714957
0.7819038256617702
-0.7758185283083079
-0.006058997473714957
