-0.9006090060445394
0.005469752620896657
0.4512684966956039
-0.9006090060445394
0.005469752620896657
0.4512684966956039
-0.9006334557795134
0.005362602532268545
0.4513202157479582
-0.9006334557795134
0.005362602532268545
0.4513202157479582
-0.9006334557795134
0.005362602532268545
0.4513202157479582
-0.9006334557795134
0.005362602532268545
0.4513202157479582
-0.9006334557795134
0.005362602532268545
0.4513202157479582
-0.9006334557795134
0.005362602532268545
0.4513202157479582
-0.9006334557795134
0.005362602532268545
0.4513202157479582
-0.9006334557795134
0.005362602532268545
0.4513202157479582
-0.9007406035330773
0.005387053251415033
0.45130803901847055
-0.9007406035330773
0.005387053251415033
0.45130803901847055
-0.9007406035330773
0.005387053251415033
0.45130803901847055
-0.9007406035330773
0.005387053251415033
0.45130803901847055
-0.9007772268677375
0.00522818414255875
0.45125262068150873
-0.9007772268677375
0.00522818414255875
0.45125262068150873
-0.9007772268677375
0.00522818414255875
0.45125262068150873
-0.9007772268677375
0.00522818414255875
0.45125262068150873
-0.9007772268677375
0.00522818414255875
0.45125262068150873
-0.9007772268677375
0.00522818414255875
0.45125262068150873
-0.9007772268677375
0.00522818414255875
0.45125262068150873
-0.9007772268677375
0.00522818414255875
0.45125262068150873
-0.9007772268677375
0.00522818414255875
0.45125262068150873
-0.9007772268677375
0.00522818414255875
0.45125262068150873
-0.9007772268677375
0.00522818414255875
0.45125262068150873
-0.9007772268677375
0.00522818414255875
0.45125262068150873
-0.9014804188492814
0.005331587713334044
0.4514239709558911
-0.9014804188492814
0.005331587713334044
0.4514239709558911
-0.9014804188492814
0.005331587713334044
0.4514239709558911
-0.9014804188492814
0.005331587713334044
0.4514239709558911
-0.9015048748680119
0.005224464202905526
0.45147573676942676
-0.9015048748680119
0.005224464202905526
0.45147573676942676
-0.9015048748680119
0.005224464202905526
0.45147573676942676
-0.9015048748680119
0.005224464202905526
0.45147573676942676
-0.9015048748680119
0.005224464202905526
0.45147573676942676
-0.9015048748680119
0.005224464202905526
0.45147573676942676
-0.9015048748680119
0.005224464202905526
0.45147573676942676
-0.9015048748680119
0.005224464202905526
0.45147573676942676
-0.9020490985708909
0.0052948687156462405
0.4513687780567443
-0.9020490985708909
0.0052948687156462405
0.4513687780567443
-0.9020490985708909
0.0052948687156462405
0.4513687780567443
-0.9020490985708909
0.0052948687156462405
0.4513687780567443
-0.9020735493566526
0.005187758419155831
0.45142057561493754
-0.9020735493566526
0.005187758419155831
0.45142057561493754
-0.9020735493566526
0.005187758419155831
0.45142057561493754
-0.9020735493566526
0.005187758419155831
0.45142057561493754
-0.9021806572133304
0.005212210213391975
0.45140838808567063
-0.9021806572133304
0.005212210213391975
0.45140838808567063
-0.9021806572133304
0.005212210213391975
0.45140838808567063
-0.9021806572133304
0.005212210213391975
0.45140838808567063
-0.9021806572133304
0.005212210213391975
0.45140838808567063
-0.9021806572133304
0.005212210213391975
0.45140838808567063
-0.9021806572133304
0.005212210213391975
0.45140838808567063
-0.9021806572133304
0.005212210213391975
0.45140838808567063
-0.9027004811849119
0.005386217239716312
0.45151559473947345
-0.9027004811849119
0.005386217239716312
0.45151559473947345
-0.9027004811849119
0.005386217239716312
0.45151559473947345
-0.9027004811849119
0.005386217239716312
0.45151559473947345
-0.9032721319113874
0.0055725030538431135
0.45164715655595655
-0.9032721319113874
0.0055725030538431135
0.45164715655595655
-0.9032721319113874
0.0055725030538431135
0.45164715655595655
-0.9032721319113874
0.0055725030538431135
0.45164715655595655
-0.9030520769613545
0.005801835019831136
0.4516383270569331
-0.9030520769613545
0.005801835019831136
0.4516383270569331
-0.9030520769613545
0.005801835019831136
0.4516383270569331
-0.9030520769613545
0.005801835019831136
0.4516383270569331
-0.9025811602833489
0.006141188752430233
0.4517093209725574
-0.9025811602833489
0.006141188752430233
0.4517093209725574
-0.9025811602833489
0.006141188752430233
0.4517093209725574
-0.9025811602833489
0.006141188752430233
0.4517093209725574
-0.9026055153145646
0.006761715172048175
0.45183555485709925
-0.9026055153145646
0.006761715172048175
0.45183555485709925
-0.9026055153145646
0.006761715172048175
0.45183555485709925
-0.9026055153145646
0.006761715172048175
0.45183555485709925
-0.9028834712859786
0.007495241601064124
0.4520686408378555
-0.9028834712859786
0.007495241601064124
0.4520686408378555
-0.9028834712859786
0.007495241601064124
0.4520686408378555
-0.9028834712859786
0.007495241601064124
0.4520686408378555
-0.9028952579716982
0.008167621114667727
0.4523018731369429
-0.9028952579716982
0.008167621114667727
0.4523018731369429
-0.9028952579716982
0.008167621114667727
0.4523018731369429
-0.9028952579716982
0.008167621114667727
0.4523018731369429
-0.9030020022751059
0.008919714276766234
0.4523637812275845
-0.9030020022751059
0.008919714276766234
0.4523637812275845
-0.9030020022751059
0.008919714276766234
0.4523637812275845
-0.9030020022751059
0.008919714276766234
0.4523637812275845
-0.9027968327216557
0.009320192602044362
0.45243505248777655
-0.9027968327216557
0.009320192602044362
0.45243505248777655
-0.9027968327216557
0.009320192602044362
0.45243505248777655
-0.9027968327216557
0.009320192602044362
0.45243505248777655
-0.9027589032948695
0.010203213280783004
0.45283075908987136
-0.9027589032948695
0.010203213280783004
0.45283075908987136
-0.9027589032948695
0.010203213280783004
0.45283075908987136
-0.9027589032948695
0.010203213280783004
0.45283075908987136
-0.9021524481343854
0.011126022499441333
0.45301732564879815
-0.9021524481343854
0.011126022499441333
0.45301732564879815
-0.9021524481343854
0.011126022499441333
0.45301732564879815
-0.9021524481343854
0.011126022499441333
0.45301732564879815
-0.9014210393460034
0.012357552662606429
0.45302507156027594
-0.9014210393460034
0.012357552662606429
0.45302507156027594
-0.9014210393460034
0.012357552662606429
0.45302507156027594
-0.9014210393460034
0.012357552662606429
0.45302507156027594
-0.9008874041010019
0.013690265924786707
0.4531768943836477
-0.9008874041010019
0.013690265924786707
0.4531768943836477
-0.9008874041010019
0.013690265924786707
0.4531768943836477
-0.9008874041010019
0.013690265924786707
0.4531768943836477
-0.900363309283675
0.014744303944967707
0.45330108576790595
-0.900363309283675
0.014744303944967707
0.45330108576790595
-0.900363309283675
0.014744303944967707
0.45330108576790595
-0.900363309283675
0.014744303944967707
0.45330108576790595
-0.899864645225564
0.01569516635558477
0.45321139767615276
-0.899864645225564
0.01569516635558477
0.45321139767615276
-0.899864645225564
0.01569516635558477
0.45321139767615276
-0.899864645225564
0.01569516635558477
0.45321139767615276
-0.8997662154508749
0.016119843788918235
0.4532712208060228
-0.8997662154508749
0.016119843788918235
0.4532712208060228
-0.8997662154508749
0.016119843788918235
0.4532712208060228
-0.8997662154508749
0.016119843788918235
0.4532712208060228
-0.8992576457293923
0.016836362649137314
0.45385420467111925
-0.8992576457293923
0.016836362649137314
0.45385420467111925
-0.8992576457293923
0.016836362649137314
0.45385420467111925
-0.8992576457293923
0.016836362649137314
0.45385420467111925
-0.8957475028076731
0.017484681005914323
0.4537343816394323
-0.8957475028076731
0.017484681005914323
0.4537343816394323
-0.8957475028076731
0.017484681005914323
0.4537343816394323
-0.8957475028076731
0.017484681005914323
0.4537343816394323
-0.900230525253061
0.01802637973760801
0.45267125742060377
-0.900230525253061
0.01802637973760801
0.45267125742060377
-0.900230525253061
0.01802637973760801
0.45267125742060377
-0.900230525253061
0.01802637973760801
0.45267125742060377
-0.8995390641068665
0.019835318096839822
0.45217049546203836
-0.8995390641068665
0.019835318096839822
0.45217049546203836
-0.8995390641068665
0.019835318096839822
0.45217049546203836
-0.8995390641068665
0.019835318096839822
0.45217049546203836
-0.8915192025304952
0.024930497035480826
0.45284037903583496
-0.8915192025304952
0.024930497035480826
0.45284037903583496
-0.8915192025304952
0.024930497035480826
0.45284037903583496
-0.8915192025304952
0.024930497035480826
0.45284037903583496
-0.8828001520162169
0.0313144870285849
0.4537091646446713
-0.8828001520162169
0.0313144870285849
0.4537091646446713
-0.8828001520162169
0.0313144870285849
0.4537091646446713
-0.8828001520162169
0.0313144870285849
0.4537091646446713
-0.879504571740516
0.03859026781612959
0.45553537457271404
-0.879504571740516
0.03859026781612959
0.45553537457271404
-0.879504571740516
0.03859026781612959
0.45553537457271404
-0.879504571740516
0.03859026781612959
0.45553537457271404
-0.8683128044715323
0.046523081150022454
0.4587866835862241
-0.8683128044715323
0.046523081150022454
0.4587866835862241
-0.8683128044715323
0.046523081150022454
0.4587866835862241
-0.8683128044715323
0.046523081150022454
0.4587866835862241
-0.8561712457599738
0.055659196182264475
0.46234089460119887
-0.8561712457599738
0.055659196182264475
0.46234089460119887
-0.8561712457599738
0.055659196182264475
0.46234089460119887
-0.8561712457599738
0.055659196182264475
0.46234089460119887
-0.8530406419194378
0.0636749424914381
0.46651271122338
-0.8530406419194378
0.0636749424914381
0.46651271122338
-0.8530406419194378
0.0636749424914381
0.46651271122338
-0.8530406419194378
0.0636749424914381
0.46651271122338
-0.8493911406738401
0.07038061728411615
0.47086345878496966
-0.8493911406738401
0.07038061728411615
0.47086345878496966
-0.8493911406738401
0.07038061728411615
0.47086345878496966
-0.8493911406738401
0.07038061728411615
0.47086345878496966
-0.8400147816006317
0.0788747708119946
0.4746083656804945
-0.8400147816006317
0.0788747708119946
0.4746083656804945
-0.8400147816006317
0.0788747708119946
0.4746083656804945
-0.8400147816006317
0.0788747708119946
0.4746083656804945
-0.8314348895896436
0.08923704370816218
0.47823753140909153
-0.8314348895896436
0.08923704370816218
0.47823753140909153
-0.8314348895896436
0.08923704370816218
0.47823753140909153
-0.8314348895896436
0.08923704370816218
0.47823753140909153
-0.8274967536567857
0.0996853981519807
0.4821838720607826
-0.8274967536567857
0.0996853981519807
0.4821838720607826
-0.8274967536567857
0.0996853981519807
0.4821838720607826
-0.8274967536567857
0.0996853981519807
0.4821838720607826
-0.8275670948523197
0.10895220038296438
0.4854287661188787
-0.8275670948523197
0.10895220038296438
0.4854287661188787
-0.8275670948523197
0.10895220038296438
0.4854287661188787
-0.8275670948523197
0.10895220038296438
0.4854287661188787
-0.8248464225406298
0.11746593861857617
0.4889742436810728
-0.8248464225406298
0.11746593861857617
0.4889742436810728
-0.8248464225406298
0.11746593861857617
0.4889742436810728
-0.8248464225406298
0.11746593861857617
0.4889742436810728
-0.8202104438014626
0.12472327565379598
0.49246533903715245
-0.8202104438014626
0.12472327565379598
0.49246533903715245
-0.818352711197888
0.1311341986372175
0.4960412792919835
-0.818352711197888
0.1311341986372175
0.4960412792919835
-0.818352711197888
0.1311341986372175
0.4960412792919835
-0.818352711197888
0.1311341986372175
0.4960412792919835
-0.8185915891465002
0.13735894101722146
0.49911684991307625
-0.8185915891465002
0.13735894101722146
0.49911684991307625
-0.8185915891465002
0.13735894101722146
0.49911684991307625
-0.8185915891465002
0.13735894101722146
0.49911684991307625
-0.8193240732999739
0.14259971345209915
0.5018105275533616
-0.8193240732999739
0.14259971345209915
0.5018105275533616
-0.8193240732999739
0.14259971345209915
0.5018105275533616
-0.8193240732999739
0.14259971345209915
0.5018105275533616
-0.8186252246990471
0.1471186281393441
0.5034911086529552
-0.8186252246990471
0.1471186281393441
0.5034911086529552
-0.8186252246990471
0.1471186281393441
0.5034911086529552
-0.8186252246990471
0.1471186281393441
0.5034911086529552
-0.8164704043217977
0.1506708955357606
0.5045676892845813
-0.8164704043217977
0.1506708955357606
0.5045676892845813
-0.8164704043217977
0.1506708955357606
0.5045676892845813
-0.8164704043217977
0.1506708955357606
0.5045676892845813
-0.8162836584485025
0.153524233816845
0.5058724764918634
-0.8162836584485025
0.153524233816845
0.5058724764918634
-0.8162836584485025
0.153524233816845
0.5058724764918634
-0.8162836584485025
0.153524233816845
0.5058724764918634
-0.8174871261760457
0.15521117500994416
0.5070304336117252
-0.8174871261760457
0.15521117500994416
0.5070304336117252
-0.8174871261760457
0.15521117500994416
0.5070304336117252
-0.8174871261760457
0.15521117500994416
0.5070304336117252
-0.8186649538096303
0.15562258516379998
0.5071871823644105
-0.8186649538096303
0.15562258516379998
0.5071871823644105
-0.8186649538096303
0.15562258516379998
0.5071871823644105
-0.8186649538096303
0.15562258516379998
0.5071871823644105
-0.8190510608661917
0.1555157205328253
0.5063926666707766
-0.8190510608661917
0.1555157205328253
0.5063926666707766
-0.8190510608661917
0.1555157205328253
0.5063926666707766
-0.8190510608661917
0.1555157205328253
0.5063926666707766
-0.8186635272404214
0.15526657936895225
0.5057841785592813
-0.8186635272404214
0.15526657936895225
0.5057841785592813
-0.8186635272404214
0.15526657936895225
0.5057841785592813
-0.8186635272404214
0.15526657936895225
0.5057841785592813
-0.8204335962761713
0.15364147773298584
0.5052920922952572
-0.8204335962761713
0.15364147773298584
0.5052920922952572
-0.8204335962761713
0.15364147773298584
0.5052920922952572
-0.8204335962761713
0.15364147773298584
0.5052920922952572
-0.8211794437076676
0.15147553280796397
0.5045596209975314
-0.8211794437076676
0.15147553280796397
0.5045596209975314
-0.8211794437076676
0.15147553280796397
0.5045596209975314
-0.8211794437076676
0.15147553280796397
0.5045596209975314
-0.8215791738687168
0.14945701305315254
0.5034637911212753
-0.8215791738687168
0.14945701305315254
0.5034637911212753
-0.8215791738687168
0.14945701305315254
0.5034637911212753
-0.8215791738687168
0.14945701305315254
0.5034637911212753
-0.8238302419680192
0.14739434337932972
0.5026150426825994
-0.8238302419680192
0.14739434337932972
0.5026150426825994
-0.8238302419680192
0.14739434337932972
0.5026150426825994
-0.8238302419680192
0.14739434337932972
0.5026150426825994
-0.8258548914604458
0.14572287398499398
0.5018741962233165
-0.8258548914604458
0.14572287398499398
0.5018741962233165
-0.8258548914604458
0.14572287398499398
0.5018741962233165
-0.8258548914604458
0.14572287398499398
0.5018741962233165
-0.8257014387536471
0.1437206532338298
0.5011712556766704
-0.8257014387536471
0.1437206532338298
0.5011712556766704
-0.8257014387536471
0.1437206532338298
0.5011712556766704
-0.8257014387536471
0.1437206532338298
0.5011712556766704
-0.8262547503559899
0.14106388197971675
0.5000921257490311
-0.8262547503559899
0.14106388197971675
0.5000921257490311
-0.8262547503559899
0.14106388197971675
0.5000921257490311
-0.8262547503559899
0.14106388197971675
0.5000921257490311
-0.8267512913506293
0.13868777267841922
0.4987671239066811
-0.8267512913506293
0.13868777267841922
0.4987671239066811
-0.8267512913506293
0.13868777267841922
0.4987671239066811
-0.8267512913506293
0.13868777267841922
0.4987671239066811
-0.8291455695088873
0.13727753381291505
0.49809216088461533
-0.8291455695088873
0.13727753381291505
0.49809216088461533
-0.8291455695088873
0.13727753381291505
0.49809216088461533
-0.8291455695088873
0.13727753381291505
0.49809216088461533
-0.8315995473994781
0.13610744630552157
0.4973085876543847
-0.8315995473994781
0.13610744630552157
0.4973085876543847
-0.8315995473994781
0.13610744630552157
0.4973085876543847
-0.8315995473994781
0.13610744630552157
0.4973085876543847
-0.8304854142503452
0.13526361030587528
0.49703801401999437
-0.8304854142503452
0.13526361030587528
0.49703801401999437
-0.8304854142503452
0.13526361030587528
0.49703801401999437
-0.8304854142503452
0.13526361030587528
0.49703801401999437
-0.8300490382348962
0.13431352162820875
0.4970344988746801
-0.8300490382348962
0.13431352162820875
0.4970344988746801
-0.8300490382348962
0.13431352162820875
0.4970344988746801
-0.8300490382348962
0.13431352162820875
0.4970344988746801
-0.8307324571875129
0.1329121279446201
0.49653508575449956
-0.8307324571875129
0.1329121279446201
0.49653508575449956
-0.8307324571875129
0.1329121279446201
0.49653508575449956
-0.8307324571875129
0.1329121279446201
0.49653508575449956
-0.8314370921342382
0.13225484094523351
0.49616414096591
-0.8314370921342382
0.13225484094523351
0.49616414096591
-0.8314370921342382
0.13225484094523351
0.49616414096591
-0.8314370921342382
0.13225484094523351
0.49616414096591
-0.8323197312762594
0.13197433121489804
0.4959061875620871
-0.8323197312762594
0.13197433121489804
0.4959061875620871
-0.8323197312762594
0.13197433121489804
0.4959061875620871
-0.8323197312762594
0.13197433121489804
0.4959061875620871
-0.8328972439466762
0.13110153568317365
0.4957335730139475
-0.8328972439466762
0.13110153568317365
0.4957335730139475
-0.8328972439466762
0.13110153568317365
0.4957335730139475
-0.8328972439466762
0.13110153568317365
0.4957335730139475
-0.8329216499082641
0.13099274980242032
0.49577994527103536
-0.8329216499082641
0.13099274980242032
0.49577994527103536
-0.8329216499082641
0.13099274980242032
0.49577994527103536
-0.8329216499082641
0.13099274980242032
0.49577994527103536
-0.8329680253641828
0.1310119246268851
0.4958043544314541
-0.8329680253641828
0.1310119246268851
0.4958043544314541
-0.8329680253641828
0.1310119246268851
0.4958043544314541
-0.8329680253641828
0.1310119246268851
0.4958043544314541
-0.8331021620888704
0.13092734003002066
0.49583139485743943
-0.8331021620888704
0.13092734003002066
0.49583139485743943
-0.8331021620888704
0.13092734003002066
0.49583139485743943
-0.8331021620888704
0.13092734003002066
0.49583139485743943
-0.8336094303771062
0.13117126385718367
0.49575641242928425
-0.8336094303771062
0.13117126385718367
0.49575641242928425
-0.8336094303771062
0.13117126385718367
0.49575641242928425
-0.8336094303771062
0.13117126385718367
0.49575641242928425
-0.8340465281863801
0.1310940262155684
0.4962155226485678
-0.8340465281863801
0.1310940262155684
0.4962155226485678
-0.8340465281863801
0.1310940262155684
0.4962155226485678
-0.8340465281863801
0.1310940262155684
0.4962155226485678
-0.8337571165271896
0.13072437977793228
0.49678838523231167
-0.8337571165271896
0.13072437977793228
0.49678838523231167
-0.8337571165271896
0.13072437977793228
0.49678838523231167
-0.8337571165271896
0.13072437977793228
0.49678838523231167
-0.8324900180190619
0.13083293000962257
0.4975010188488717
-0.8324900180190619
0.13083293000962257
0.4975010188488717
-0.8324900180190619
0.13083293000962257
0.4975010188488717
-0.8324900180190619
0.13083293000962257
0.4975010188488717
-0.8319709948640805
0.13136182887355927
0.49807853497734594
-0.8319709948640805
0.13136182887355927
0.49807853497734594
-0.8319709948640805
0.13136182887355927
0.49807853497734594
-0.8319709948640805
0.13136182887355927
0.49807853497734594
-0.8318905328119958
0.13178219215421574
0.4984494067514336
-0.8318905328119958
0.13178219215421574
0.4984494067514336
-0.8318905328119958
0.13178219215421574
0.4984494067514336
-0.8318905328119958
0.13178219215421574
0.4984494067514336
-0.8324099714228433
0.13207505720742568
0.4987744406163291
-0.8324099714228433
0.13207505720742568
0.4987744406163291
-0.8324099714228433
0.13207505720742568
0.4987744406163291
-0.8324099714228433
0.13207505720742568
0.4987744406163291
-0.8327864885190304
0.1317563204936315
0.4993453624584683
-0.8327864885190304
0.1317563204936315
0.4993453624584683
-0.8327864885190304
0.1317563204936315
0.4993453624584683
-0.8327864885190304
0.1317563204936315
0.4993453624584683
-0.832830535814192
0.13160164620022316
0.4992819915654975
-0.832830535814192
0.13160164620022316
0.4992819915654975
-0.832830535814192
0.13160164620022316
0.4992819915654975
-0.832830535814192
0.13160164620022316
0.4992819915654975
-0.832830535814192
0.13160164620022316
0.4992819915654975
-0.832830535814192
0.13160164620022316
0.4992819915654975
-0.832830535814192
0.13160164620022316
0.4992819915654975
-0.832830535814192
0.13160164620022316
0.4992819915654975
-0.8330767995597469
0.13171562313093202
0.4993773550787523
-0.8330767995597469
0.13171562313093202
0.4993773550787523
-0.8330767995597469
0.13171562313093202
0.4993773550787523
-0.8330767995597469
0.13171562313093202
0.4993773550787523
-0.8330767995597469
0.13171562313093202
0.4993773550787523
-0.8330767995597469
0.13171562313093202
0.4993773550787523
-0.8330767995597469
0.13171562313093202
0.4993773550787523
-0.8330767995597469
0.13171562313093202
0.4993773550787523
-0.8324408195471227
0.13149228546665034
0.499581461296659
-0.8324408195471227
0.13149228546665034
0.499581461296659
-0.8324408195471227
0.13149228546665034
0.499581461296659
-0.8324408195471227
0.13149228546665034
0.499581461296659
-0.8315832823778974
0.13104607772421117
0.49973619099121414
-0.8315832823778974
0.13104607772421117
0.49973619099121414
-0.8315832823778974
0.13104607772421117
0.49973619099121414
-0.8315832823778974
0.13104607772421117
0.49973619099121414
-0.8326401076401879
0.13079623790470213
0.5000399700427165
-0.8326401076401879
0.13079623790470213
0.5000399700427165
-0.8326401076401879
0.13079623790470213
0.5000399700427165
-0.8326401076401879
0.13079623790470213
0.5000399700427165
-0.8326595290034869
0.13075031209306967
0.4999302896929083
-0.8326595290034869
0.13075031209306967
0.4999302896929083
-0.8326595290034869
0.13075031209306967
0.4999302896929083
-0.8326595290034869
0.13075031209306967
0.4999302896929083
-0.8316258233288062
0.13092249426648414
0.5003384441526402
-0.8316258233288062
0.13092249426648414
0.5003384441526402
-0.8316258233288062
0.13092249426648414
0.5003384441526402
-0.8316258233288062
0.13092249426648414
0.5003384441526402
-0.83115870602454
0.1307904358384904
0.5009474365704041
-0.83115870602454
0.1307904358384904
0.5009474365704041
-0.83115870602454
0.1307904358384904
0.5009474365704041
-0.83115870602454
0.1307904358384904
0.5009474365704041
-0.8311834224078507
0.1306816707813616
0.5009936673503816
-0.8311834224078507
0.1306816707813616
0.5009936673503816
-0.8311834224078507
0.1306816707813616
0.5009936673503816
-0.8311834224078507
0.1306816707813616
0.5009936673503816
-0.8316437322282118
0.13090769001716807
0.500894419460262
-0.8316437322282118
0.13090769001716807
0.500894419460262
-0.8316437322282118
0.13090769001716807
0.500894419460262
-0.8316437322282118
0.13090769001716807
0.500894419460262
-0.8315254994921677
0.13138855318987755
0.5008191202993751
-0.8315254994921677
0.13138855318987755
0.5008191202993751
-0.8315254994921677
0.13138855318987755
0.5008191202993751
-0.8315254994921677
0.13138855318987755
0.5008191202993751
-0.8307415858063809
0.13181723987232866
0.5007456952297967
-0.8307415858063809
0.13181723987232866
0.5007456952297967
-0.8307415858063809
0.13181723987232866
0.5007456952297967
-0.8307415858063809
0.13181723987232866
0.5007456952297967
-0.8301434296186411
0.13211794613249253
0.5008798667758856
-0.8301434296186411
0.13211794613249253
0.5008798667758856
-0.8301434296186411
0.13211794613249253
0.5008798667758856
-0.8301434296186411
0.13211794613249253
0.5008798667758856
-0.8303799926398745
0.13115610078182202
0.5010297705106117
-0.8303799926398745
0.13115610078182202
0.5010297705106117
-0.8303799926398745
0.13115610078182202
0.5010297705106117
-0.8303799926398745
0.13115610078182202
0.5010297705106117
-0.8304047130758399
0.13104731841117295
0.5010759541371959
-0.8304047130758399
0.13104731841117295
0.5010759541371959
-0.8304047130758399
0.13104731841117295
0.5010759541371959
-0.8304047130758399
0.13104731841117295
0.5010759541371959
-0.8304241449721866
0.13100152812155533
0.5009662308969196
-0.8304241449721866
0.13100152812155533
0.5009662308969196
-0.8304241449721866
0.13100152812155533
0.5009662308969196
-0.8304241449721866
0.13100152812155533
0.5009662308969196
-0.8307265622692654
0.13080433309249545
0.5006444231929741
-0.8307265622692654
0.13080433309249545
0.5006444231929741
-0.8307265622692654
0.13080433309249545
0.5006444231929741
-0.8307265622692654
0.13080433309249545
0.5006444231929741
-0.8322215413432111
0.13024189240332218
0.49998784959382075
-0.8322215413432111
0.13024189240332218
0.49998784959382075
-0.8322215413432111
0.13024189240332218
0.49998784959382075
-0.8322215413432111
0.13024189240332218
0.49998784959382075
-0.8327953265374888
0.12943309962047161
0.499659355505213
-0.8327953265374888
0.12943309962047161
0.499659355505213
-0.8327953265374888
0.12943309962047161
0.499659355505213
-0.8327953265374888
0.12943309962047161
0.499659355505213
-0.8339115627591255
0.12860295166358274
0.4989499570788558
-0.8339115627591255
0.12860295166358274
0.4989499570788558
-0.8339115627591255
0.12860295166358274
0.4989499570788558
-0.8339115627591255
0.12860295166358274
0.4989499570788558
-0.8345720473654368
0.12810064071986954
0.4986447785328785
-0.8345720473654368
0.12810064071986954
0.4986447785328785
-0.8345720473654368
0.12810064071986954
0.4986447785328785
-0.8345720473654368
0.12810064071986954
0.4986447785328785
-0.835188499983558
0.12775294708365204
0.4984030323940937
-0.835188499983558
0.12775294708365204
0.4984030323940937
-0.835188499983558
0.12775294708365204
0.4984030323940937
-0.835188499983558
0.12775294708365204
0.4984030323940937
-0.8353364877618432
0.12706842346950928
0.4980165692325858
-0.8353364877618432
0.12706842346950928
0.4980165692325858
-0.8353364877618432
0.12706842346950928
0.4980165692325858
-0.8353364877618432
0.12706842346950928
0.4980165692325858
-0.8348487333721276
0.126161281990225
0.49783286343392835
-0.8348487333721276
0.126161281990225
0.49783286343392835
-0.8348487333721276
0.126161281990225
0.49783286343392835
-0.8348487333721276
0.126161281990225
0.49783286343392835
-0.8358122147918586
0.12504966921398036
0.4978136795589838
-0.8358122147918586
0.12504966921398036
0.4978136795589838
-0.8358122147918586
0.12504966921398036
0.4978136795589838
-0.8358122147918586
0.12504966921398036
0.4978136795589838
-0.8375885440498345
0.12392116399478831
0.49755828002117725
-0.8375885440498345
0.12392116399478831
0.49755828002117725
-0.8375885440498345
0.12392116399478831
0.49755828002117725
-0.8375885440498345
0.12392116399478831
0.49755828002117725
-0.838288171567912
0.12308894177654926
0.4971056375699447
-0.838288171567912
0.12308894177654926
0.4971056375699447
-0.838288171567912
0.12308894177654926
0.4971056375699447
-0.838288171567912
0.12308894177654926
0.4971056375699447
-0.8386378028432163
0.1226727285514208
0.496879562326696
-0.8386378028432163
0.1226727285514208
0.496879562326696
-0.8386378028432163
0.1226727285514208
0.496879562326696
-0.8386378028432163
0.1226727285514208
0.496879562326696
-0.8393267288522134
0.12199824533343225
0.49678073972854375
-0.8393267288522134
0.12199824533343225
0.49678073972854375
-0.8393267288522134
0.12199824533343225
0.49678073972854375
-0.8393267288522134
0.12199824533343225
0.49678073972854375
-0.8392523336889115
0.12112395749010052
0.49701213892080814
-0.8392523336889115
0.12112395749010052
0.49701213892080814
-0.8392523336889115
0.12112395749010052
0.49701213892080814
-0.8392523336889115
0.12112395749010052
0.49701213892080814
-0.8399738092493139
0.11983566774281863
0.4970577855761511
-0.8399738092493139
0.11983566774281863
0.4970577855761511
-0.8399738092493139
0.11983566774281863
0.4970577855761511
-0.8399738092493139
0.11983566774281863
0.4970577855761511
-0.8405037702323358
0.11815406537415132
0.4972578783750165
-0.8405037702323358
0.11815406537415132
0.4972578783750165
-0.8405037702323358
0.11815406537415132
0.4972578783750165
-0.8405037702323358
0.11815406537415132
0.4972578783750165
-0.8415141559816322
0.11620784069308282
0.49719370143041985
-0.8415141559816322
0.11620784069308282
0.49719370143041985
-0.8415141559816322
0.11620784069308282
0.49719370143041985
-0.8415141559816322
0.11620784069308282
0.49719370143041985
-0.8427797222932417
0.11421719456653416
0.49687600661561465
-0.8427797222932417
0.11421719456653416
0.49687600661561465
-0.8427797222932417
0.11421719456653416
0.49687600661561465
-0.8427797222932417
0.11421719456653416
0.49687600661561465
-0.84377650879856
0.11239392522360507
0.4965035134172187
-0.84377650879856
0.11239392522360507
0.4965035134172187
-0.84377650879856
0.11239392522360507
0.4965035134172187
-0.84377650879856
0.11239392522360507
0.4965035134172187
-0.8452809579520162
0.1105783684642318
0.4961314931702865
-0.8452809579520162
0.1105783684642318
0.4961314931702865
-0.8452809579520162
0.1105783684642318
0.4961314931702865
-0.8452809579520162
0.1105783684642318
0.4961314931702865
-0.8463130508139399
0.10886892817961744
0.4956728747440953
-0.8463130508139399
0.10886892817961744
0.4956728747440953
-0.8463130508139399
0.10886892817961744
0.4956728747440953
-0.8463130508139399
0.10886892817961744
0.4956728747440953
-0.8470968379876945
0.10704470271622077
0.49511867693128797
-0.8470968379876945
0.10704470271622077
0.49511867693128797
-0.8470968379876945
0.10704470271622077
0.49511867693128797
-0.8470968379876945
0.10704470271622077
0.49511867693128797
-0.8476514585660659
0.10461439627482755
0.4943017753337169
-0.8476514585660659
0.10461439627482755
0.4943017753337169
-0.8476514585660659
0.10461439627482755
0.4943017753337169
-0.8476514585660659
0.10461439627482755
0.4943017753337169
-0.8487250090308013
0.10197069447583736
0.49329212262606414
-0.8487250090308013
0.10197069447583736
0.49329212262606414
-0.8487250090308013
0.10197069447583736
0.49329212262606414
-0.8487250090308013
0.10197069447583736
0.49329212262606414
-0.8487980817508123
0.09980612448028799
0.4927388233082715
-0.8487980817508123
0.09980612448028799
0.4927388233082715
-0.8487980817508123
0.09980612448028799
0.4927388233082715
-0.8487980817508123
0.09980612448028799
0.4927388233082715
-0.8511612395003203
0.09724482533366847
0.49235051342563657
-0.8511612395003203
0.09724482533366847
0.49235051342563657
-0.8511612395003203
0.09724482533366847
0.49235051342563657
-0.8511612395003203
0.09724482533366847
0.49235051342563657
-0.8542963626086374
0.09431268886260263
0.4919049240662666
-0.8542963626086374
0.09431268886260263
0.4919049240662666
-0.8542963626086374
0.09431268886260263
0.4919049240662666
-0.8542963626086374
0.09431268886260263
0.4919049240662666
-0.856971523558511
0.09115494600636861
0.4915612480154019
-0.856971523558511
0.09115494600636861
0.4915612480154019
-0.856971523558511
0.09115494600636861
0.4915612480154019
-0.856971523558511
0.09115494600636861
0.4915612480154019
-0.8603912981818703
0.08766212809985902
0.4915401988605145
-0.8603912981818703
0.08766212809985902
0.4915401988605145
-0.8603912981818703
0.08766212809985902
0.4915401988605145
-0.8603912981818703
0.08766212809985902
0.4915401988605145
-0.8627119777232102
0.08446528370947626
0.491639908083743
-0.8627119777232102
0.08446528370947626
0.491639908083743
-0.8627119777232102
0.08446528370947626
0.491639908083743
-0.8627119777232102
0.08446528370947626
0.491639908083743
-0.8654242531512059
0.08107891447832902
0.4916855132269458
-0.8654242531512059
0.08107891447832902
0.4916855132269458
-0.8654242531512059
0.08107891447832902
0.4916855132269458
-0.8654242531512059
0.08107891447832902
0.4916855132269458
-0.87053162915064
0.07727294507210206
0.49213889586489795
-0.87053162915064
0.07727294507210206
0.49213889586489795
-0.87053162915064
0.07727294507210206
0.49213889586489795
-0.87053162915064
0.07727294507210206
0.49213889586489795
-0.8740347493561228
0.07199375317341869
0.4927372930279013
-0.8740347493561228
0.07199375317341869
0.4927372930279013
-0.8740347493561228
0.07199375317341869
0.4927372930279013
-0.8740347493561228
0.07199375317341869
0.4927372930279013
-0.8766125181818856
0.0679175106196987
0.4920372832503903
-0.8766125181818856
0.0679175106196987
0.4920372832503903
-0.8766125181818856
0.0679175106196987
0.4920372832503903
-0.8766125181818856
0.0679175106196987
0.4920372832503903
-0.8798759459961979
0.06594194654318743
0.49043505627638434
-0.8798759459961979
0.06594194654318743
0.49043505627638434
-0.8798759459961979
0.06594194654318743
0.49043505627638434
-0.8798759459961979
0.06594194654318743
0.49043505627638434
-0.8830293126762789
0.06522592578926004
0.48922861060422557
-0.8830293126762789
0.06522592578926004
0.48922861060422557
-0.8830293126762789
0.06522592578926004
0.48922861060422557
-0.8830293126762789
0.06522592578926004
0.48922861060422557
-0.8849453868708915
0.06316804548587916
0.4893875193327098
-0.8849453868708915
0.06316804548587916
0.4893875193327098
-0.8849453868708915
0.06316804548587916
0.4893875193327098
-0.8849453868708915
0.06316804548587916
0.4893875193327098
-0.8876436101021572
0.05855450004811861
0.4887074186171192
-0.8876436101021572
0.05855450004811861
0.4887074186171192
-0.8876436101021572
0.05855450004811861
0.4887074186171192
-0.8876436101021572
0.05855450004811861
0.4887074186171192
-0.8888806434402913
0.052976276647730344
0.4865373770054287
-0.8888806434402913
0.052976276647730344
0.4865373770054287
-0.8888806434402913
0.052976276647730344
0.4865373770054287
-0.8888806434402913
0.052976276647730344
0.4865373770054287
-0.8896755386531482
0.0495381585992653
0.48474294142187097
-0.8896755386531482
0.0495381585992653
0.48474294142187097
-0.8896755386531482
0.0495381585992653
0.48474294142187097
-0.8896755386531482
0.0495381585992653
0.48474294142187097
-0.8891744625777275
0.04885876410474299
0.4844903327728138
-0.8891744625777275
0.04885876410474299
0.4844903327728138
-0.8891744625777275
0.04885876410474299
0.4844903327728138
-0.8891744625777275
0.04885876410474299
0.4844903327728138
-0.8882174244784857
0.05012874276298923
0.4853202327321287
-0.8882174244784857
0.05012874276298923
0.4853202327321287
-0.8882174244784857
0.05012874276298923
0.4853202327321287
-0.8882174244784857
0.05012874276298923
0.4853202327321287
-0.8865388996186974
0.05107294016864962
0.48471905486212974
-0.8865388996186974
0.05107294016864962
0.48471905486212974
-0.8865388996186974
0.05107294016864962
0.48471905486212974
-0.8865388996186974
0.05107294016864962
0.48471905486212974
-0.886213009724538
0.051243991753311104
0.48294226134245555
-0.886213009724538
0.051243991753311104
0.48294226134245555
-0.886213009724538
0.051243991753311104
0.48294226134245555
-0.886213009724538
0.051243991753311104
0.48294226134245555
-0.8863092065889091
0.051449501503827134
0.48185798871801194
-0.8863092065889091
0.051449501503827134
0.48185798871801194
-0.8863092065889091
0.051449501503827134
0.48185798871801194
-0.8863092065889091
0.051449501503827134
0.48185798871801194
-0.8864669359709747
0.05148973994336015
0.48186775586365316
-0.8864669359709747
0.05148973994336015
0.48186775586365316
-0.8864669359709747
0.05148973994336015
0.48186775586365316
-0.8864669359709747
0.05148973994336015
0.48186775586365316
-0.8857283522887369
0.05073292075552613
0.48270581521764494
-0.8857283522887369
0.05073292075552613
0.48270581521764494
-0.8857283522887369
0.05073292075552613
0.48270581521764494
-0.8857283522887369
0.05073292075552613
0.48270581521764494
-0.8860554784733242
0.04940852949376772
0.4826701820823152
-0.8860554784733242
0.04940852949376772
0.4826701820823152
-0.8860554784733242
0.04940852949376772
0.4826701820823152
-0.8860554784733242
0.04940852949376772
0.4826701820823152
-0.8866548160357921
0.04821541014138325
0.4818764169242047
-0.8866548160357921
0.04821541014138325
0.4818764169242047
-0.8866548160357921
0.04821541014138325
0.4818764169242047
-0.8866548160357921
0.04821541014138325
0.4818764169242047
-0.8875337806898073
0.04742542936835109
0.48150820216653945
-0.8875337806898073
0.04742542936835109
0.48150820216653945
-0.8875337806898073
0.04742542936835109
0.48150820216653945
-0.8875337806898073
0.04742542936835109
0.48150820216653945
-0.8871491851484132
0.04687385089921478
0.48200969412916056
-0.8871491851484132
0.04687385089921478
0.48200969412916056
-0.8871491851484132
0.04687385089921478
0.48200969412916056
-0.8871491851484132
0.04687385089921478
0.48200969412916056
-0.8864392344370003
0.04629892200276218
0.4823328583904963
-0.8864392344370003
0.04629892200276218
0.4823328583904963
-0.8864392344370003
0.04629892200276218
0.4823328583904963
-0.8864392344370003
0.04629892200276218
0.4823328583904963
-0.8862945299126688
0.04576097064523215
0.48216604376573025
-0.8862945299126688
0.04576097064523215
0.48216604376573025
-0.8862945299126688
0.04576097064523215
0.48216604376573025
-0.8862945299126688
0.04576097064523215
0.48216604376573025
-0.8866324936531153
0.04466819401629003
0.48172572939355834
-0.8866324936531153
0.04466819401629003
0.48172572939355834
-0.8866324936531153
0.04466819401629003
0.48172572939355834
-0.8866324936531153
0.04466819401629003
0.48172572939355834
-0.8869802581049832
0.04374774301754631
0.4813681109605304
-0.8869802581049832
0.04374774301754631
0.4813681109605304
-0.8869802581049832
0.04374774301754631
0.4813681109605304
-0.8869802581049832
0.04374774301754631
0.4813681109605304
-0.8870054490174877
0.04364041130534703
0.48141844411417206
-0.8870054490174877
0.04364041130534703
0.48141844411417206
-0.8870054490174877
0.04364041130534703
0.48141844411417206
-0.8870054490174877
0.04364041130534703
0.48141844411417206
-0.8868275105573769
0.04358454293459969
0.4822689070984352
-0.8868275105573769
0.04358454293459969
0.4822689070984352
-0.8868275105573769
0.04358454293459969
0.4822689070984352
-0.8868275105573769
0.04358454293459969
0.4822689070984352
-0.8856401698411486
0.043341488507100207
0.4826740418225337
-0.8856401698411486
0.043341488507100207
0.4826740418225337
-0.8856401698411486
0.043341488507100207
0.4826740418225337
-0.8856401698411486
0.043341488507100207
0.4826740418225337
-0.8846551018316512
0.04298759391103011
0.48276695352886534
-0.8846551018316512
0.04298759391103011
0.48276695352886534
-0.8846551018316512
0.04298759391103011
0.48276695352886534
-0.8846551018316512
0.04298759391103011
0.48276695352886534
-0.8839819378050633
0.04276672098972191
0.4826575324801887
-0.8839819378050633
0.04276672098972191
0.4826575324801887
-0.8839819378050633
0.04276672098972191
0.4826575324801887
-0.8839819378050633
0.04276672098972191
0.4826575324801887
-0.8839819378050633
0.04276672098972191
0.4826575324801887
-0.8839819378050633
0.04276672098972191
0.4826575324801887
-0.8839819378050633
0.04276672098972191
0.4826575324801887
-0.8839819378050633
0.04276672098972191
0.4826575324801887
-0.8846298404037989
0.04257595061162129
0.48335516643909565
-0.8846298404037989
0.04257595061162129
0.48335516643909565
-0.8846298404037989
0.04257595061162129
0.48335516643909565
-0.8846298404037989
0.04257595061162129
0.48335516643909565
-0.8841259772442458
0.042725323818846424
0.48395168565629504
-0.8841259772442458
0.042725323818846424
0.48395168565629504
-0.8841259772442458
0.042725323818846424
0.48395168565629504
-0.8841259772442458
0.042725323818846424
0.48395168565629504
-0.8827377419094447
0.04378756113875594
0.48400504113033027
-0.8827377419094447
0.04378756113875594
0.48400504113033027
-0.8827377419094447
0.04378756113875594
0.48400504113033027
-0.8827377419094447
0.04378756113875594
0.48400504113033027
-0.8812324201747095
0.04517226182060077
0.4833543538609643
-0.8812324201747095
0.04517226182060077
0.4833543538609643
-0.8812324201747095
0.04517226182060077
0.4833543538609643
-0.8812324201747095
0.04517226182060077
0.4833543538609643
-0.8803758805892516
0.047042979222108074
0.48337763521902705
-0.8803758805892516
0.047042979222108074
0.48337763521902705
-0.8803758805892516
0.047042979222108074
0.48337763521902705
-0.8803758805892516
0.047042979222108074
0.48337763521902705
-0.8794069113858277
0.04872405366184716
0.48306941922019464
-0.8794069113858277
0.04872405366184716
0.48306941922019464
-0.8794069113858277
0.04872405366184716
0.48306941922019464
-0.8794069113858277
0.04872405366184716
0.48306941922019464
-0.8777188389693221
0.04973066067403878
0.482313747752568
-0.8777188389693221
0.04973066067403878
0.482313747752568
-0.8777188389693221
0.04973066067403878
0.482313747752568
-0.8777188389693221
0.04973066067403878
0.482313747752568
-0.8768906271847644
0.04999181566175842
0.4815591395567079
-0.8768906271847644
0.04999181566175842
0.4815591395567079
-0.8768906271847644
0.04999181566175842
0.4815591395567079
-0.8768906271847644
0.04999181566175842
0.4815591395567079
-0.8771494622060718
0.05002041071433849
0.48029517086502566
-0.8771494622060718
0.05002041071433849
0.48029517086502566
-0.8771494622060718
0.05002041071433849
0.48029517086502566
-0.8771494622060718
0.05002041071433849
0.48029517086502566
-0.8765287753101502
0.05145394353628971
0.47986950807838874
-0.8765287753101502
0.05145394353628971
0.47986950807838874
-0.8765287753101502
0.05145394353628971
0.47986950807838874
-0.8765287753101502
0.05145394353628971
0.47986950807838874
-0.870479967694693
0.05392064781508487
0.47957759524792043
-0.870479967694693
0.05392064781508487
0.47957759524792043
-0.870479967694693
0.05392064781508487
0.47957759524792043
-0.870479967694693
0.05392064781508487
0.47957759524792043
-0.8657548877900041
0.05626706285331563
0.47921932453908656
-0.8657548877900041
0.05626706285331563
0.47921932453908656
-0.8657548877900041
0.05626706285331563
0.47921932453908656
-0.8657548877900041
0.05626706285331563
0.47921932453908656
-0.8653788327072119
0.058323051815788965
0.47880289087257893
-0.8653788327072119
0.058323051815788965
0.47880289087257893
-0.8653788327072119
0.058323051815788965
0.47880289087257893
-0.8653788327072119
0.058323051815788965
0.47880289087257893
-0.8654757240820518
0.06026818591239615
0.47848857544439244
-0.8654757240820518
0.06026818591239615
0.47848857544439244
-0.8654757240820518
0.06026818591239615
0.47848857544439244
-0.8654757240820518
0.06026818591239615
0.47848857544439244
-0.862565087000049
0.06286364905174634
0.4791498462014852
-0.862565087000049
0.06286364905174634
0.4791498462014852
-0.862565087000049
0.06286364905174634
0.4791498462014852
-0.862565087000049
0.06286364905174634
0.4791498462014852
-0.85764282028306
0.0664781211380046
0.4801714683193201
-0.85764282028306
0.0664781211380046
0.4801714683193201
-0.85764282028306
0.0664781211380046
0.4801714683193201
-0.85764282028306
0.0664781211380046
0.4801714683193201
-0.8502609588705244
0.06999676398046813
0.4812135233729277
-0.8502609588705244
0.06999676398046813
0.4812135233729277
-0.8502609588705244
0.06999676398046813
0.4812135233729277
-0.8502609588705244
0.06999676398046813
0.4812135233729277
-0.8450638015131154
0.07421237996878184
0.4822703496028438
-0.8450638015131154
0.07421237996878184
0.4822703496028438
-0.8450638015131154
0.07421237996878184
0.4822703496028438
-0.8450638015131154
0.07421237996878184
0.4822703496028438
-0.844505652913788
0.07861752209691815
0.48291054160394287
-0.844505652913788
0.07861752209691815
0.48291054160394287
-0.844505652913788
0.07861752209691815
0.48291054160394287
-0.844505652913788
0.07861752209691815
0.48291054160394287
-0.8481639345512643
0.08230548720963227
0.48376135881117743
-0.8481639345512643
0.08230548720963227
0.48376135881117743
-0.8481639345512643
0.08230548720963227
0.48376135881117743
-0.8481639345512643
0.08230548720963227
0.48376135881117743
-0.8444993550192202
0.0860994893810398
0.4851692420040749
-0.8444993550192202
0.0860994893810398
0.4851692420040749
-0.8444993550192202
0.0860994893810398
0.4851692420040749
-0.8444993550192202
0.0860994893810398
0.4851692420040749
-0.8357612761208106
0.09061874989423245
0.4863353141526771
-0.8357612761208106
0.09061874989423245
0.4863353141526771
-0.8357612761208106
0.09061874989423245
0.4863353141526771
-0.8357612761208106
0.09061874989423245
0.4863353141526771
-0.8294312089949055
0.0950153609051617
0.4870887298345349
-0.8294312089949055
0.0950153609051617
0.4870887298345349
-0.8294312089949055
0.0950153609051617
0.4870887298345349
-0.8294312089949055
0.0950153609051617
0.4870887298345349
-0.8306857444508002
0.09965283177898861
0.4890317245746875
-0.8306857444508002
0.09965283177898861
0.4890317245746875
-0.8306857444508002
0.09965283177898861
0.4890317245746875
-0.8306857444508002
0.09965283177898861
0.4890317245746875
-0.8323998541050414
0.10495733592748917
0.4915607636396768
-0.8323998541050414
0.10495733592748917
0.4915607636396768
-0.8323998541050414
0.10495733592748917
0.4915607636396768
-0.8323998541050414
0.10495733592748917
0.4915607636396768
-0.8265775985516268
0.1103652428616481
0.4940251654311456
-0.8265775985516268
0.1103652428616481
0.4940251654311456
-0.8265775985516268
0.1103652428616481
0.4940251654311456
-0.8265775985516268
0.1103652428616481
0.4940251654311456
-0.8192218836707565
0.11640159715940307
0.49645974128505693
-0.8192218836707565
0.11640159715940307
0.49645974128505693
-0.8192218836707565
0.11640159715940307
0.49645974128505693
-0.8192218836707565
0.11640159715940307
0.49645974128505693
-0.817444940161752
0.12174739398983422
0.4988380996693029
-0.817444940161752
0.12174739398983422
0.4988380996693029
-0.817444940161752
0.12174739398983422
0.4988380996693029
-0.817444940161752
0.12174739398983422
0.4988380996693029
-0.8190795512044426
0.1265638077519378
0.5018567119697265
-0.8190795512044426
0.1265638077519378
0.5018567119697265
-0.8190795512044426
0.1265638077519378
0.5018567119697265
-0.8190795512044426
0.1265638077519378
0.5018567119697265
-0.8176565613775948
0.13094094405607348
0.503996790895972
-0.8176565613775948
0.13094094405607348
0.503996790895972
-0.8176565613775948
0.13094094405607348
0.503996790895972
-0.8176565613775948
0.13094094405607348
0.503996790895972
-0.8128855403205699
0.13630634408468814
0.5065086304047393
-0.8128855403205699
0.13630634408468814
0.5065086304047393
-0.8128855403205699
0.13630634408468814
0.5065086304047393
-0.8128855403205699
0.13630634408468814
0.5065086304047393
-0.8094397230372766
0.14178283158342744
0.5093994412577862
-0.8094397230372766
0.14178283158342744
0.5093994412577862
-0.8094397230372766
0.14178283158342744
0.5093994412577862
-0.8094397230372766
0.14178283158342744
0.5093994412577862
-0.8071441755684866
0.14530085818658986
0.5114398892330617
-0.8071441755684866
0.14530085818658986
0.5114398892330617
-0.8071441755684866
0.14530085818658986
0.5114398892330617
-0.8071441755684866
0.14530085818658986
0.5114398892330617
-0.8071307952831246
0.14611112932046053
0.512354763650163
-0.8071307952831246
0.14611112932046053
0.512354763650163
-0.8071307952831246
0.14611112932046053
0.512354763650163
-0.8071307952831246
0.14611112932046053
0.512354763650163
-0.8065544250216575
0.14570586072456235
0.513050747804502
-0.8065544250216575
0.14570586072456235
0.513050747804502
-0.8065544250216575
0.14570586072456235
0.513050747804502
-0.8065544250216575
0.14570586072456235
0.513050747804502
-0.8084726555322864
0.1458483547004438
0.5133435727764248
-0.8084726555322864
0.1458483547004438
0.5133435727764248
-0.8084726555322864
0.1458483547004438
0.5133435727764248
-0.8084726555322864
0.1458483547004438
0.5133435727764248
-0.8094844611831616
0.14575588181664895
0.513702371629996
-0.8094844611831616
0.14575588181664895
0.513702371629996
-0.8094844611831616
0.14575588181664895
0.513702371629996
-0.8094844611831616
0.14575588181664895
0.513702371629996
-0.8103868370306742
0.14546517185364266
0.5139907942496917
-0.8103868370306742
0.14546517185364266
0.5139907942496917
-0.8103868370306742
0.14546517185364266
0.5139907942496917
-0.8103868370306742
0.14546517185364266
0.5139907942496917
-0.8105205979241658
0.14430507288730124
0.5140583931638003
-0.8105205979241658
0.14430507288730124
0.5140583931638003
-0.8105205979241658
0.14430507288730124
0.5140583931638003
-0.8105205979241658
0.14430507288730124
0.5140583931638003
-0.8104677251428546
0.14189175087653
0.5129614188222609
-0.8104677251428546
0.14189175087653
0.5129614188222609
-0.8104677251428546
0.14189175087653
0.5129614188222609
-0.8104677251428546
0.14189175087653
0.5129614188222609
-0.8108967832758438
0.14011859487756048
0.5120821563009054
-0.8108967832758438
0.14011859487756048
0.5120821563009054
-0.8108967832758438
0.14011859487756048
0.5120821563009054
-0.8108967832758438
0.14011859487756048
0.5120821563009054
-0.812557224772791
0.13812860285673711
0.5114362641698434
-0.812557224772791
0.13812860285673711
0.5114362641698434
-0.812557224772791
0.13812860285673711
0.5114362641698434
-0.812557224772791
0.13812860285673711
0.5114362641698434
-0.8124605853012943
0.1357330843420993
0.5113440599965656
-0.8124605853012943
0.1357330843420993
0.5113440599965656
-0.8124605853012943
0.1357330843420993
0.5113440599965656
-0.8124605853012943
0.1357330843420993
0.5113440599965656
-0.8126736396291042
0.13290706242565173
0.5109922461137548
-0.8126736396291042
0.13290706242565173
0.5109922461137548
-0.8126736396291042
0.13290706242565173
0.5109922461137548
-0.8126736396291042
0.13290706242565173
0.5109922461137548
-0.8134348556472115
0.1300025537652619
0.5104143061462478
-0.8134348556472115
0.1300025537652619
0.5104143061462478
-0.8134348556472115
0.1300025537652619
0.5104143061462478
-0.8134348556472115
0.1300025537652619
0.5104143061462478
-0.81404437020034
0.12864884196339577
0.5100578926322444
-0.81404437020034
0.12864884196339577
0.5100578926322444
-0.81404437020034
0.12864884196339577
0.5100578926322444
-0.81404437020034
0.12864884196339577
0.5100578926322444
-0.8141375405222312
0.12755299591817612
0.5096833146592251
-0.8141375405222312
0.12755299591817612
0.5096833146592251
-0.8141375405222312
0.12755299591817612
0.5096833146592251
-0.8141375405222312
0.12755299591817612
0.5096833146592251
-0.8144297503096314
0.1261999899332493
0.5098259480928182
-0.8144297503096314
0.1261999899332493
0.5098259480928182
-0.8144297503096314
0.1261999899332493
0.5098259480928182
-0.8144297503096314
0.1261999899332493
0.5098259480928182
-0.8151875853050845
0.1249798437021199
0.5099881299429733
-0.8151875853050845
0.1249798437021199
0.5099881299429733
-0.8151875853050845
0.1249798437021199
0.5099881299429733
-0.8151875853050845
0.1249798437021199
0.5099881299429733
-0.8162979575381246
0.12486703181948594
0.5099379403219044
-0.8162979575381246
0.12486703181948594
0.5099379403219044
-0.8162979575381246
0.12486703181948594
0.5099379403219044
-0.8162979575381246
0.12486703181948594
0.5099379403219044
-0.8169443424903539
0.1251140665148771
0.5094729812884558
-0.8169443424903539
0.1251140665148771
0.5094729812884558
-0.8169443424903539
0.1251140665148771
0.5094729812884558
-0.8169443424903539
0.1251140665148771
0.5094729812884558
-0.816899773484168
0.12526810239130398
0.509537389917489
-0.816899773484168
0.12526810239130398
0.509537389917489
-0.816899773484168
0.12526810239130398
0.509537389917489
-0.816899773484168
0.12526810239130398
0.509537389917489
-0.8170222307515318
0.1251655545749853
0.5098287426570592
-0.8170222307515318
0.1251655545749853
0.5098287426570592
-0.8170222307515318
0.1251655545749853
0.5098287426570592
-0.8170222307515318
0.1251655545749853
0.5098287426570592
-0.8181342463501151
0.12539873116789446
0.5099580793032541
-0.8181342463501151
0.12539873116789446
0.5099580793032541
-0.8181342463501151
0.12539873116789446
0.5099580793032541
-0.8181342463501151
0.12539873116789446
0.5099580793032541
-0.8189773505656561
0.12635638731429422
0.509717614868122
-0.8189773505656561
0.12635638731429422
0.509717614868122
-0.8189773505656561
0.12635638731429422
0.509717614868122
-0.8189773505656561
0.12635638731429422
0.509717614868122
-0.8206126034404279
0.1281101276224628
0.5089241602838918
-0.8206126034404279
0.1281101276224628
0.5089241602838918
-0.8206126034404279
0.1281101276224628
0.5089241602838918
-0.8206126034404279
0.1281101276224628
0.5089241602838918
-0.8198506847353532
0.12956709080286286
0.5086939711979465
-0.8198506847353532
0.12956709080286286
0.5086939711979465
-0.8198506847353532
0.12956709080286286
0.5086939711979465
-0.8198506847353532
0.12956709080286286
0.5086939711979465
-0.819562888001838
0.13033164383627557
0.5090602628560169
-0.819562888001838
0.13033164383627557
0.5090602628560169
-0.819562888001838
0.13033164383627557
0.5090602628560169
-0.819562888001838
0.13033164383627557
0.5090602628560169
-0.8202662535105052
0.13032358089731752
0.5095050324442666
-0.8202662535105052
0.13032358089731752
0.5095050324442666
-0.8202662535105052
0.13032358089731752
0.5095050324442666
-0.8202662535105052
0.13032358089731752
0.5095050324442666
-0.8212629249665893
0.1308007277718675
0.5096244354168818
-0.8212629249665893
0.1308007277718675
0.5096244354168818
-0.8212629249665893
0.1308007277718675
0.5096244354168818
-0.8212629249665893
0.1308007277718675
0.5096244354168818
-0.8209371151138745
0.1316282674327742
0.5095444984714602
-0.8209371151138745
0.1316282674327742
0.5095444984714602
-0.8209371151138745
0.1316282674327742
0.5095444984714602
-0.8209371151138745
0.1316282674327742
0.5095444984714602
-0.8203264682628805
0.1324315196413991
0.5095886027109966
-0.8203264682628805
0.1324315196413991
0.5095886027109966
-0.8203264682628805
0.1324315196413991
0.5095886027109966
-0.8203264682628805
0.1324315196413991
0.5095886027109966
-0.8204294151969198
0.13272108465934607
0.510168879481869
-0.8204294151969198
0.13272108465934607
0.510168879481869
-0.8204294151969198
0.13272108465934607
0.510168879481869
-0.8204294151969198
0.13272108465934607
0.510168879481869
-0.8209879471483867
0.13216327633325428
0.510699186318682
-0.8209879471483867
0.13216327633325428
0.510699186318682
-0.8209879471483867
0.13216327633325428
0.510699186318682
-0.8209879471483867
0.13216327633325428
0.510699186318682
-0.8214564965246908
0.1315354484400221
0.5111395294118016
-0.8214564965246908
0.1315354484400221
0.5111395294118016
-0.8214564965246908
0.1315354484400221
0.5111395294118016
-0.8214564965246908
0.1315354484400221
0.5111395294118016
-0.821920439594596
0.13152342075616547
0.51173286382458
-0.821920439594596
0.13152342075616547
0.51173286382458
-0.821920439594596
0.13152342075616547
0.51173286382458
-0.821920439594596
0.13152342075616547
0.51173286382458
-0.8216086065689846
0.1316354350825404
0.5124764195059278
-0.8216086065689846
0.1316354350825404
0.5124764195059278
-0.8216086065689846
0.1316354350825404
0.5124764195059278
-0.8216086065689846
0.1316354350825404
0.5124764195059278
-0.8206905369896635
0.13172894951826822
0.5129819668576833
-0.8206905369896635
0.13172894951826822
0.5129819668576833
-0.8206905369896635
0.13172894951826822
0.5129819668576833
-0.8206905369896635
0.13172894951826822
0.5129819668576833
-0.8196480345626096
0.13143121357411003
0.5135926996254054
-0.8196480345626096
0.13143121357411003
0.5135926996254054
-0.8196480345626096
0.13143121357411003
0.5135926996254054
-0.8196480345626096
0.13143121357411003
0.5135926996254054
-0.8189356130901871
0.13100401279194165
0.5140152031211087
-0.8189356130901871
0.13100401279194165
0.5140152031211087
-0.8189356130901871
0.13100401279194165
0.5140152031211087
-0.8189356130901871
0.13100401279194165
0.5140152031211087
-0.819664187162178
0.13033701716469642
0.5141963778263051
-0.819664187162178
0.13033701716469642
0.5141963778263051
-0.819664187162178
0.13033701716469642
0.5141963778263051
-0.819664187162178
0.13033701716469642
0.5141963778263051
-0.819689751977566
0.13022815847702374
0.5142418525934763
-0.819689751977566
0.13022815847702374
0.5142418525934763
-0.819689751977566
0.13022815847702374
0.5142418525934763
-0.819689751977566
0.13022815847702374
0.5142418525934763
-0.819689751977566
0.13022815847702374
0.5142418525934763
-0.819689751977566
0.13022815847702374
0.5142418525934763
-0.819689751977566
0.13022815847702374
0.5142418525934763
-0.819689751977566
0.13022815847702374
0.5142418525934763
-0.8199232591251479
0.13047085511473322
0.5140275339581706
-0.8199232591251479
0.13047085511473322
0.5140275339581706
-0.8199232591251479
0.13047085511473322
0.5140275339581706
-0.8199232591251479
0.13047085511473322
0.5140275339581706
-0.8198777719608498
0.1304514560481236
0.5140019864020405
-0.8198777719608498
0.1304514560481236
0.5140019864020405
-0.8198777719608498
0.1304514560481236
0.5140019864020405
-0.8198777719608498
0.1304514560481236
0.5140019864020405
-0.8197935348487123
0.13031726668593294
0.514067030139771
-0.8197935348487123
0.13031726668593294
0.514067030139771
-0.8197935348487123
0.13031726668593294
0.514067030139771
-0.8197935348487123
0.13031726668593294
0.514067030139771
-0.819948425863522
0.1301886458211651
0.5139831787075202
-0.819948425863522
0.1301886458211651
0.5139831787075202
-0.819948425863522
0.1301886458211651
0.5139831787075202
-0.819948425863522
0.1301886458211651
0.5139831787075202
-0.8197799759230894
0.12992024771952312
0.5141132423379879
-0.8197799759230894
0.12992024771952312
0.5141132423379879
-0.8197799759230894
0.12992024771952312
0.5141132423379879
-0.8197799759230894
0.12992024771952312
0.5141132423379879
-0.819909293960991
0.1299004876363731
0.5139839243000862
-0.819909293960991
0.1299004876363731
0.5139839243000862
-0.819909293960991
0.1299004876363731
0.5139839243000862
-0.819909293960991
0.1299004876363731
0.5139839243000862
-0.819799509600343
0.12987514311496426
0.5140034566888144
-0.819799509600343
0.12987514311496426
0.5140034566888144
-0.819799509600343
0.12987514311496426
0.5140034566888144
-0.819799509600343
0.12987514311496426
0.5140034566888144
-0.8199348543814401
0.12979163132656488
0.5140294196007534
-0.8199348543814401
0.12979163132656488
0.5140294196007534
-0.8199348543814401
0.12979163132656488
0.5140294196007534
-0.8199348543814401
0.12979163132656488
0.5140294196007534
-0.8197135231907176
0.12904305520795575
0.514335322584015
-0.8197135231907176
0.12904305520795575
0.514335322584015
-0.8197135231907176
0.12904305520795575
0.514335322584015
-0.8197135231907176
0.12904305520795575
0.514335322584015
-0.8202163157190742
0.12859432648806374
0.5145299946109415
-0.8202163157190742
0.12859432648806374
0.5145299946109415
-0.8202163157190742
0.12859432648806374
0.5145299946109415
-0.8202163157190742
0.12859432648806374
0.5145299946109415
-0.8205337613494458
0.12897116781863338
0.5142508184198802
-0.8205337613494458
0.12897116781863338
0.5142508184198802
-0.8205337613494458
0.12897116781863338
0.5142508184198802
-0.8205337613494458
0.12897116781863338
0.5142508184198802
-0.820488676460357
0.12912515434794458
0.5143150333973121
-0.820488676460357
0.12912515434794458
0.5143150333973121
-0.820488676460357
0.12912515434794458
0.5143150333973121
-0.820488676460357
0.12912515434794458
0.5143150333973121
-0.820488676460357
0.12912515434794458
0.5143150333973121
-0.820488676460357
0.12912515434794458
0.5143150333973121
-0.820488676460357
0.12912515434794458
0.5143150333973121
-0.820488676460357
0.12912515434794458
0.5143150333973121
-0.8212442124427355
0.12887385240016916
0.5141858766264208
-0.8212442124427355
0.12887385240016916
0.5141858766264208
-0.8212442124427355
0.12887385240016916
0.5141858766264208
-0.8212442124427355
0.12887385240016916
0.5141858766264208
-0.8220508496305987
0.12840484706873898
0.5141481570599198
-0.8220508496305987
0.12840484706873898
0.5141481570599198
-0.8220508496305987
0.12840484706873898
0.5141481570599198
-0.8220508496305987
0.12840484706873898
0.5141481570599198
-0.8219411447605768
0.1283794785425836
0.5141676353390641
-0.8219411447605768
0.1283794785425836
0.5141676353390641
-0.8219411447605768
0.1283794785425836
0.5141676353390641
-0.8219411447605768
0.1283794785425836
0.5141676353390641
-0.8219411447605768
0.1283794785425836
0.5141676353390641
-0.8219411447605768
0.1283794785425836
0.5141676353390641
-0.8219411447605768
0.1283794785425836
0.5141676353390641
-0.8219411447605768
0.1283794785425836
0.5141676353390641
-0.8224456536832647
0.12862838264396675
0.5140952032246546
-0.8224456536832647
0.12862838264396675
0.5140952032246546
-0.8224456536832647
0.12862838264396675
0.5140952032246546
-0.8224456536832647
0.12862838264396675
0.5140952032246546
-0.8230268882561139
0.12855090249783147
0.514159664519882
-0.8230268882561139
0.12855090249783147
0.514159664519882
-0.8230268882561139
0.12855090249783147
0.514159664519882
-0.8230268882561139
0.12855090249783147
0.514159664519882
-0.8231365730966894
0.12857625630797223
0.5141401625338493
-0.8231365730966894
0.12857625630797223
0.5141401625338493
-0.8231365730966894
0.12857625630797223
0.5141401625338493
-0.8231365730966894
0.12857625630797223
0.5141401625338493
-0.8226259759788226
0.1283908783433046
0.5140573181761208
-0.8226259759788226
0.1283908783433046
0.5140573181761208
-0.8226259759788226
0.1283908783433046
0.5140573181761208
-0.8226259759788226
0.1283908783433046
0.5140573181761208
-0.8227612332451133
0.12830744961342802
0.5140834961965328
-0.8227612332451133
0.12830744961342802
0.5140834961965328
-0.8227612332451133
0.12830744961342802
0.5140834961965328
-0.8227612332451133
0.12830744961342802
0.5140834961965328
-0.8227612332451133
0.12830744961342802
0.5140834961965328
-0.8227612332451133
0.12830744961342802
0.5140834961965328
-0.8227612332451133
0.12830744961342802
0.5140834961965328
-0.8227612332451133
0.12830744961342802
0.5140834961965328
-0.8232327690077474
0.12820461787673063
0.5141675447476163
-0.8232327690077474
0.12820461787673063
0.5141675447476163
-0.8232327690077474
0.12820461787673063
0.5141675447476163
-0.8232327690077474
0.12820461787673063
0.5141675447476163
-0.8226441922505606
0.127821567095178
0.5143050878951747
-0.8226441922505606
0.127821567095178
0.5143050878951747
-0.8226441922505606
0.127821567095178
0.5143050878951747
-0.8226441922505606
0.127821567095178
0.5143050878951747
-0.8219583927033639
0.12728593726320245
0.5147724567384245
-0.8219583927033639
0.12728593726320245
0.5147724567384245
-0.8219583927033639
0.12728593726320245
0.5147724567384245
-0.8219583927033639
0.12728593726320245
0.5147724567384245
-0.822784366790464
0.1268000769738131
0.5152911387229836
-0.822784366790464
0.1268000769738131
0.5152911387229836
-0.822784366790464
0.1268000769738131
0.5152911387229836
-0.822784366790464
0.1268000769738131
0.5152911387229836
-0.8237332822674879
0.12635816821930254
0.5155258182038753
-0.8237332822674879
0.12635816821930254
0.5155258182038753
-0.8237332822674879
0.12635816821930254
0.5155258182038753
-0.8237332822674879
0.12635816821930254
0.5155258182038753
-0.8241591983143954
0.1262363940953713
0.515584720037462
-0.8241591983143954
0.1262363940953713
0.515584720037462
-0.8241591983143954
0.1262363940953713
0.515584720037462
-0.8241591983143954
0.1262363940953713
0.515584720037462
-0.8240495976089457
0.1262109149813028
0.5156041353903011
-0.8240495976089457
0.1262109149813028
0.5156041353903011
-0.8240495976089457
0.1262109149813028
0.5156041353903011
-0.8240495976089457
0.1262109149813028
0.5156041353903011
-0.824133607510237
0.12599475025019277
0.515986260860698
-0.824133607510237
0.12599475025019277
0.515986260860698
-0.824133607510237
0.12599475025019277
0.515986260860698
-0.824133607510237
0.12599475025019277
0.515986260860698
-0.8248692372044033
0.12526562424041712
0.5163262459675985
-0.8248692372044033
0.12526562424041712
0.5163262459675985
-0.8248692372044033
0.12526562424041712
0.5163262459675985
-0.8248692372044033
0.12526562424041712
0.5163262459675985
-0.8262759248273218
0.12450172071100413
0.5161575940178132
-0.8262759248273218
0.12450172071100413
0.5161575940178132
-0.8262759248273218
0.12450172071100413
0.5161575940178132
-0.8262759248273218
0.12450172071100413
0.5161575940178132
-0.8278814245088145
0.12394766866906526
0.5148200323265063
-0.8278814245088145
0.12394766866906526
0.5148200323265063
-0.8278814245088145
0.12394766866906526
0.5148200323265063
-0.8278814245088145
0.12394766866906526
0.5148200323265063
-0.8288921681499517
0.12394423981427335
0.5126581032029591
-0.8288921681499517
0.12394423981427335
0.5126581032029591
-0.8288921681499517
0.12394423981427335
0.5126581032029591
-0.8288921681499517
0.12394423981427335
0.5126581032029591
-0.8290062909089292
0.12300397908323187
0.512936403683629
-0.8290062909089292
0.12300397908323187
0.512936403683629
-0.8290062909089292
0.12300397908323187
0.512936403683629
-0.8290062909089292
0.12300397908323187
0.512936403683629
-0.833598114926068
0.12065582900502336
0.5136143589210366
-0.833598114926068
0.12065582900502336
0.5136143589210366
-0.833598114926068
0.12065582900502336
0.5136143589210366
-0.833598114926068
0.12065582900502336
0.5136143589210366
-0.8377403915555626
0.11736925407697207
0.5137436747820581
-0.8377403915555626
0.11736925407697207
0.5137436747820581
-0.8377403915555626
0.11736925407697207
0.5137436747820581
-0.8377403915555626
0.11736925407697207
0.5137436747820581
-0.8419577672854351
0.11531974584918986
0.5129404395886568
-0.8419577672854351
0.11531974584918986
0.5129404395886568
-0.8419577672854351
0.11531974584918986
0.5129404395886568
-0.8419577672854351
0.11531974584918986
0.5129404395886568
-0.8466006014523505
0.11356712943250996
0.5113373574248079
-0.8466006014523505
0.11356712943250996
0.5113373574248079
-0.8466006014523505
0.11356712943250996
0.5113373574248079
-0.8466006014523505
0.11356712943250996
0.5113373574248079
-0.8493174964329407
0.11124062592199598
0.510293264825441
-0.8493174964329407
0.11124062592199598
0.510293264825441
-0.8493174964329407
0.11124062592199598
0.510293264825441
-0.8493174964329407
0.11124062592199598
0.510293264825441
-0.8539454498450723
0.10798205019122616
0.5096468577367443
-0.8539454498450723
0.10798205019122616
0.5096468577367443
-0.8539454498450723
0.10798205019122616
0.5096468577367443
-0.8539454498450723
0.10798205019122616
0.5096468577367443
-0.8616999272296736
0.10411262909933797
0.5093748832223259
-0.8616999272296736
0.10411262909933797
0.5093748832223259
-0.8616999272296736
0.10411262909933797
0.5093748832223259
-0.8616999272296736
0.10411262909933797
0.5093748832223259
-0.8697200128987351
0.0998353778363306
0.5072512993532055
-0.8697200128987351
0.0998353778363306
0.5072512993532055
-0.8697200128987351
0.0998353778363306
0.5072512993532055
-0.8697200128987351
0.0998353778363306
0.5072512993532055
-0.8757836205376394
0.0952693533441865
0.5048512300660938
-0.8757836205376394
0.0952693533441865
0.5048512300660938
-0.8757836205376394
0.0952693533441865
0.5048512300660938
-0.8757836205376394
0.0952693533441865
0.5048512300660938
-0.8833542729981395
0.09159406086584128
0.5023522273846331
-0.8833542729981395
0.09159406086584128
0.5023522273846331
-0.8833542729981395
0.09159406086584128
0.5023522273846331
-0.8833542729981395
0.09159406086584128
0.5023522273846331
-0.8920127717665036
0.08790400463938844
0.4992770982774537
-0.8920127717665036
0.08790400463938844
0.4992770982774537
-0.8920127717665036
0.08790400463938844
0.4992770982774537
-0.8920127717665036
0.08790400463938844
0.4992770982774537
-0.8981471670853918
0.081910977266478
0.49723496869739553
-0.8981471670853918
0.081910977266478
0.49723496869739553
-0.8981471670853918
0.081910977266478
0.49723496869739553
-0.8981471670853918
0.081910977266478
0.49723496869739553
-0.9004231913100674
0.0747719609723801
0.4956269284622034
-0.9004231913100674
0.0747719609723801
0.4956269284622034
-0.9004231913100674
0.0747719609723801
0.4956269284622034
-0.9004231913100674
0.0747719609723801
0.4956269284622034
-0.903737633594144
0.0685684746177564
0.4942367016214295
-0.903737633594144
0.0685684746177564
0.4942367016214295
-0.903737633594144
0.0685684746177564
0.4942367016214295
-0.903737633594144
0.0685684746177564
0.4942367016214295
-0.9088925085828212
0.06445632559388802
0.4941275470667633
-0.9088925085828212
0.06445632559388802
0.4941275470667633
-0.9088925085828212
0.06445632559388802
0.4941275470667633
-0.9088925085828212
0.06445632559388802
0.4941275470667633
-0.911413695467951
0.06126109862222085
0.4933715445780718
-0.911413695467951
0.06126109862222085
0.4933715445780718
-0.911413695467951
0.06126109862222085
0.4933715445780718
-0.911413695467951
0.06126109862222085
0.4933715445780718
-0.909194895924686
0.058847378967622634
0.49194722882499897
-0.909194895924686
0.058847378967622634
0.49194722882499897
-0.909194895924686
0.058847378967622634
0.49194722882499897
-0.909194895924686
0.058847378967622634
0.49194722882499897
-0.9060287792280431
0.05749540940587115
0.49062186690936216
-0.9060287792280431
0.05749540940587115
0.49062186690936216
-0.9060287792280431
0.05749540940587115
0.49062186690936216
-0.9060287792280431
0.05749540940587115
0.49062186690936216
-0.9057358081842741
0.056356050595086984
0.48930659254926046
-0.9057358081842741
0.056356050595086984
0.48930659254926046
-0.9057358081842741
0.056356050595086984
0.48930659254926046
-0.9057358081842741
0.056356050595086984
0.48930659254926046
-0.9083959354636328
0.05550238342983955
0.488428770780491
-0.9083959354636328
0.05550238342983955
0.488428770780491
-0.9083959354636328
0.05550238342983955
0.488428770780491
-0.9083959354636328
0.05550238342983955
0.488428770780491
-0.9108981584685685
0.055282616029500596
0.48750975886477577
-0.9108981584685685
0.055282616029500596
0.48750975886477577
-0.9108981584685685
0.055282616029500596
0.48750975886477577
-0.9108981584685685
0.055282616029500596
0.48750975886477577
-0.9096517223896701
0.05559220837936496
0.4870965847965666
-0.9096517223896701
0.05559220837936496
0.4870965847965666
-0.9096517223896701
0.05559220837936496
0.4870965847965666
-0.9096517223896701
0.05559220837936496
0.4870965847965666
-0.9066961865668062
0.056493832666945375
0.48624743655352926
-0.9066961865668062
0.056493832666945375
0.48624743655352926
-0.9066961865668062
0.056493832666945375
0.48624743655352926
-0.9066961865668062
0.056493832666945375
0.48624743655352926
-0.9047041957692264
0.0575798097281314
0.485547497364613
-0.9047041957692264
0.0575798097281314
0.485547497364613
-0.9047041957692264
0.0575798097281314
0.485547497364613
-0.9047041957692264
0.0575798097281314
0.485547497364613
-0.9045960314767921
0.058510943635398244
0.4852299401934074
-0.9045960314767921
0.058510943635398244
0.4852299401934074
-0.9045960314767921
0.058510943635398244
0.4852299401934074
-0.9045960314767921
0.058510943635398244
0.4852299401934074
-0.9052763764010656
0.05918645528135276
0.48511142068962787
-0.9052763764010656
0.05918645528135276
0.48511142068962787
-0.9052763764010656
0.05918645528135276
0.48511142068962787
-0.9052763764010656
0.05918645528135276
0.48511142068962787
-0.9054866202940113
0.060138375352553904
0.48523474206715733
-0.9054866202940113
0.060138375352553904
0.48523474206715733
-0.9054866202940113
0.060138375352553904
0.48523474206715733
-0.9054866202940113
0.060138375352553904
0.48523474206715733
-0.9049743994337691
0.06108100866530247
0.48515462702719886
-0.9049743994337691
0.06108100866530247
0.48515462702719886
-0.9049743994337691
0.06108100866530247
0.48515462702719886
-0.9049743994337691
0.06108100866530247
0.48515462702719886
-0.9032942726290297
0.06218384125888904
0.48516618151774615
-0.9032942726290297
0.06218384125888904
0.48516618151774615
-0.9032942726290297
0.06218384125888904
0.48516618151774615
-0.9032942726290297
0.06218384125888904
0.48516618151774615
-0.9022589891553737
0.06300067723040932
0.48483740608875003
-0.9022589891553737
0.06300067723040932
0.48483740608875003
-0.9022589891553737
0.06300067723040932
0.48483740608875003
-0.9022589891553737
0.06300067723040932
0.48483740608875003
-0.9015212202339522
0.06348997029896687
0.48478775626261694
-0.9015212202339522
0.06348997029896687
0.48478775626261694
-0.9015212202339522
0.06348997029896687
0.48478775626261694
-0.9015212202339522
0.06348997029896687
0.48478775626261694
-0.9015212202339522
0.06348997029896687
0.48478775626261694
-0.9015212202339522
0.06348997029896687
0.48478775626261694
-0.9015212202339522
0.06348997029896687
0.48478775626261694
-0.9015212202339522
0.06348997029896687
0.48478775626261694
-0.9023500338068463
0.06307622102210465
0.4849284507402226
-0.9023500338068463
0.06307622102210465
0.4849284507402226
-0.9023500338068463
0.06307622102210465
0.4849284507402226
-0.9023500338068463
0.06307622102210465
0.4849284507402226
-0.9035948381920148
0.06276387336719112
0.485335899928253
-0.9035948381920148
0.06276387336719112
0.485335899928253
-0.9035948381920148
0.06276387336719112
0.485335899928253
-0.9035948381920148
0.06276387336719112
0.485335899928253
-0.9036304243326622
0.06232224292992461
0.4858461280607441
-0.9036304243326622
0.06232224292992461
0.4858461280607441
-0.9036304243326622
0.06232224292992461
0.4858461280607441
-0.9036304243326622
0.06232224292992461
0.4858461280607441
-0.9024847588485639
0.062206354976946265
0.48564207165600976
-0.9024847588485639
0.062206354976946265
0.48564207165600976
-0.9024847588485639
0.062206354976946265
0.48564207165600976
-0.9024847588485639
0.062206354976946265
0.48564207165600976
-0.9024847588485639
0.062206354976946265
0.48564207165600976
-0.9024847588485639
0.062206354976946265
0.48564207165600976
-0.9024847588485639
0.062206354976946265
0.48564207165600976
-0.9024847588485639
0.062206354976946265
0.48564207165600976
-0.9030075584275605
0.061885097670605856
0.48584711287135546
-0.9030075584275605
0.061885097670605856
0.48584711287135546
-0.9030075584275605
0.061885097670605856
0.48584711287135546
-0.9030075584275605
0.061885097670605856
0.48584711287135546
-0.9032266824316955
0.06182472712880501
0.4864622276622927
-0.9032266824316955
0.06182472712880501
0.4864622276622927
-0.9032266824316955
0.06182472712880501
0.4864622276622927
-0.9032266824316955
0.06182472712880501
0.4864622276622927
-0.9032789827800466
0.061779556653887
0.48691050094455834
-0.9032789827800466
0.061779556653887
0.48691050094455834
-0.9032789827800466
0.061779556653887
0.48691050094455834
-0.9032789827800466
0.061779556653887
0.48691050094455834
-0.903132114689827
0.06140375334532836
0.48736092905173534
-0.903132114689827
0.06140375334532836
0.48736092905173534
-0.903132114689827
0.06140375334532836
0.48736092905173534
-0.903132114689827
0.06140375334532836
0.48736092905173534
-0.9021050164192327
0.06097693341213725
0.4875991483947597
-0.9021050164192327
0.06097693341213725
0.4875991483947597
-0.9021050164192327
0.06097693341213725
0.4875991483947597
-0.9021050164192327
0.06097693341213725
0.4875991483947597
-0.9019978584920684
0.060951998338740696
0.48761526653500475
-0.9019978584920684
0.060951998338740696
0.48761526653500475
-0.902584537245881
0.06064532488974581
0.4875142454437245
-0.902584537245881
0.06064532488974581
0.4875142454437245
-0.902584537245881
0.06064532488974581
0.4875142454437245
-0.902584537245881
0.06064532488974581
0.4875142454437245
-0.902584537245881
0.06064532488974581
0.4875142454437245
-0.902584537245881
0.06064532488974581
0.4875142454437245
-0.9026256172098961
0.06048754306221949
0.48745803980693714
-0.9026256172098961
0.06048754306221949
0.48745803980693714
-0.9026256172098961
0.06048754306221949
0.48745803980693714
-0.9026256172098961
0.06048754306221949
0.48745803980693714
-0.9027836949913643
0.06052854544866082
0.48746692165626154
-0.9027836949913643
0.06052854544866082
0.48746692165626154
-0.9027836949913643
0.06052854544866082
0.48746692165626154
-0.9027836949913643
0.06052854544866082
0.48746692165626154
-0.9026032447685844
0.06076307912357444
0.4877535091037935
-0.9026032447685844
0.06076307912357444
0.4877535091037935
-0.9026032447685844
0.06076307912357444
0.4877535091037935
-0.9026032447685844
0.06076307912357444
0.4877535091037935
-0.9021533922635834
0.06127192312776683
0.4873231601298233
-0.9021533922635834
0.06127192312776683
0.4873231601298233
-0.9021533922635834
0.06127192312776683
0.4873231601298233
-0.9021533922635834
0.06127192312776683
0.4873231601298233
-0.9021045526094761
0.06216329969962286
0.48719000512294264
-0.9021045526094761
0.06216329969962286
0.48719000512294264
-0.9021045526094761
0.06216329969962286
0.48719000512294264
-0.9021045526094761
0.06216329969962286
0.48719000512294264
-0.9017483868934295
0.06291645320048302
0.4871975569802408
-0.9017483868934295
0.06291645320048302
0.4871975569802408
-0.9017483868934295
0.06291645320048302
0.4871975569802408
-0.9017483868934295
0.06291645320048302
0.4871975569802408
-0.9017927284565385
0.06360467520883792
0.48745648404196873
-0.9017927284565385
0.06360467520883792
0.48745648404196873
-0.9017927284565385
0.06360467520883792
0.48745648404196873
-0.9017927284565385
0.06360467520883792
0.48745648404196873
-0.9016442878073976
0.0641848501614346
0.48757468882985705
-0.9016442878073976
0.0641848501614346
0.48757468882985705
-0.9016442878073976
0.0641848501614346
0.48757468882985705
-0.9016442878073976
0.0641848501614346
0.48757468882985705
-0.9013225586529479
0.06455757493334174
0.4876692113717923
-0.9013225586529479
0.06455757493334174
0.4876692113717923
-0.9013225586529479
0.06455757493334174
0.4876692113717923
-0.9013225586529479
0.06455757493334174
0.4876692113717923
-0.901661503708089
0.06525889482653946
0.4874818844611512
-0.901661503708089
0.06525889482653946
0.4874818844611512
-0.901661503708089
0.06525889482653946
0.4874818844611512
-0.901661503708089
0.06525889482653946
0.4874818844611512
-0.9019842648551589
0.06556361454591486
0.4873560147506199
-0.9019842648551589
0.06556361454591486
0.4873560147506199
-0.9019842648551589
0.06556361454591486
0.4873560147506199
-0.9019842648551589
0.06556361454591486
0.4873560147506199
-0.9019842648551589
0.06556361454591486
0.4873560147506199
-0.9019842648551589
0.06556361454591486
0.4873560147506199
-0.9019611356815344
0.06583913502884667
0.4876516740260295
-0.9019611356815344
0.06583913502884667
0.4876516740260295
-0.9019611356815344
0.06583913502884667
0.4876516740260295
-0.9019611356815344
0.06583913502884667
0.4876516740260295
-0.9019611356815344
0.06583913502884667
0.4876516740260295
-0.9019611356815344
0.06583913502884667
0.4876516740260295
-0.9023697141971675
0.06616562853266542
0.4881059298479189
-0.9023697141971675
0.06616562853266542
0.4881059298479189
-0.9023697141971675
0.06616562853266542
0.4881059298479189
-0.9023697141971675
0.06616562853266542
0.4881059298479189
-0.9032490317708266
0.06711143434878725
0.4884062843709002
-0.9032490317708266
0.06711143434878725
0.4884062843709002
-0.9032490317708266
0.06711143434878725
0.4884062843709002
-0.9032490317708266
0.06711143434878725
0.4884062843709002
-0.9033086114645652
0.0681964456955156
0.4886027223347214
-0.9033086114645652
0.0681964456955156
0.4886027223347214
-0.9033086114645652
0.0681964456955156
0.4886027223347214
-0.9033086114645652
0.0681964456955156
0.4886027223347214
-0.9035171149323519
0.06870143691097538
0.4886810179275788
-0.9035171149323519
0.06870143691097538
0.4886810179275788
-0.9035171149323519
0.06870143691097538
0.4886810179275788
-0.9035171149323519
0.06870143691097538
0.4886810179275788
-0.901924229920881
0.06813623367755957
0.4883841244859223
-0.901924229920881
0.06813623367755957
0.4883841244859223
-0.901924229920881
0.06813623367755957
0.4883841244859223
-0.901924229920881
0.06813623367755957
0.4883841244859223
-0.9042737634594982
0.06770934294799526
0.48709357645107065
-0.9042737634594982
0.06770934294799526
0.48709357645107065
-0.9082872474069705
0.06606231857974687
0.4838686654834064
-0.9082872474069705
0.06606231857974687
0.4838686654834064
-0.9082872474069705
0.06606231857974687
0.4838686654834064
-0.9082872474069705
0.06606231857974687
0.4838686654834064
-0.9082872474069705
0.06606231857974687
0.4838686654834064
-0.9082872474069705
0.06606231857974687
0.4838686654834064
-0.9084064460097305
0.06508645628102218
0.47929817157593957
-0.9084064460097305
0.06508645628102218
0.47929817157593957
-0.9084064460097305
0.06508645628102218
0.47929817157593957
-0.9084064460097305
0.06508645628102218
0.47929817157593957
-0.8977044612947316
0.06941596716216089
0.47561500964525383
-0.8977044612947316
0.06941596716216089
0.47561500964525383
-0.8977044612947316
0.06941596716216089
0.47561500964525383
-0.8977044612947316
0.06941596716216089
0.47561500964525383
-0.882691917992209
0.07810996335731678
0.47496075570698537
-0.882691917992209
0.07810996335731678
0.47496075570698537
-0.882691917992209
0.07810996335731678
0.47496075570698537
-0.882691917992209
0.07810996335731678
0.47496075570698537
-0.8785607146909434
0.08952797644778107
0.4762181061460644
-0.8785607146909434
0.08952797644778107
0.4762181061460644
-0.8785607146909434
0.08952797644778107
0.4762181061460644
-0.8785607146909434
0.08952797644778107
0.4762181061460644
-0.8684709927327285
0.10014929767376315
0.4794839801901955
-0.8684709927327285
0.10014929767376315
0.4794839801901955
-0.8684709927327285
0.10014929767376315
0.4794839801901955
-0.8684709927327285
0.10014929767376315
0.4794839801901955
-0.8530958636440885
0.10910878660252632
0.48123218958686115
-0.8530958636440885
0.10910878660252632
0.48123218958686115
-0.8422248654994702
0.11794722589497666
0.4838313686519877
-0.8422248654994702
0.11794722589497666
0.4838313686519877
-0.8422248654994702
0.11794722589497666
0.4838313686519877
-0.8422248654994702
0.11794722589497666
0.4838313686519877
-0.8422248654994702
0.11794722589497666
0.4838313686519877
-0.8422248654994702
0.11794722589497666
0.4838313686519877
-0.8371407881601137
0.12473816427088798
0.4870255374826872
-0.8371407881601137
0.12473816427088798
0.4870255374826872
-0.8341043192456343
0.13191726899666442
0.4898741845226374
-0.8341043192456343
0.13191726899666442
0.4898741845226374
-0.8341043192456343
0.13191726899666442
0.4898741845226374
-0.8341043192456343
0.13191726899666442
0.4898741845226374
-0.8328531963463028
0.13860523665100893
0.4920932211937388
-0.8328531963463028
0.13860523665100893
0.4920932211937388
-0.8328531963463028
0.13860523665100893
0.4920932211937388
-0.8328531963463028
0.13860523665100893
0.4920932211937388
-0.8276966519897312
0.14323117074367703
0.4931077373253908
-0.8276966519897312
0.14323117074367703
0.4931077373253908
-0.8276966519897312
0.14323117074367703
0.4931077373253908
-0.8276966519897312
0.14323117074367703
0.4931077373253908
-0.8262139681142018
0.14706859210137552
0.4943525522578317
-0.8262139681142018
0.14706859210137552
0.4943525522578317
-0.8262139681142018
0.14706859210137552
0.4943525522578317
-0.8262139681142018
0.14706859210137552
0.4943525522578317
-0.8282183496234274
0.1496660091938132
0.49611523425448334
-0.8282183496234274
0.1496660091938132
0.49611523425448334
-0.8282183496234274
0.1496660091938132
0.49611523425448334
-0.8282183496234274
0.1496660091938132
0.49611523425448334
-0.8296984344972835
0.1520378051445857
0.4973967230405881
-0.8296984344972835
0.1520378051445857
0.4973967230405881
-0.8296984344972835
0.1520378051445857
0.4973967230405881
-0.8296984344972835
0.1520378051445857
0.4973967230405881
-0.8274382110177502
0.154201379212462
0.4987550608420265
-0.8274382110177502
0.154201379212462
0.4987550608420265
-0.8274382110177502
0.154201379212462
0.4987550608420265
-0.8274382110177502
0.154201379212462
0.4987550608420265
-0.827176471699659
0.1550472904209999
0.5004801605564949
-0.827176471699659
0.1550472904209999
0.5004801605564949
-0.827176471699659
0.1550472904209999
0.5004801605564949
-0.827176471699659
0.1550472904209999
0.5004801605564949
-0.8268710325025194
0.15470433872066117
0.5017231878902615
-0.8268710325025194
0.15470433872066117
0.5017231878902615
-0.8268710325025194
0.15470433872066117
0.5017231878902615
-0.8268710325025194
0.15470433872066117
0.5017231878902615
-0.8275778380322618
0.15419012462218457
0.502254023695211
-0.8275778380322618
0.15419012462218457
0.502254023695211
-0.8275778380322618
0.15419012462218457
0.502254023695211
-0.8275778380322618
0.15419012462218457
0.502254023695211
-0.8267591448826767
0.15475635509997307
0.5028115985163213
-0.8267591448826767
0.15475635509997307
0.5028115985163213
-0.8267591448826767
0.15475635509997307
0.5028115985163213
-0.8267591448826767
0.15475635509997307
0.5028115985163213
-0.8284106529991788
0.15434782948917208
0.5038725073736208
-0.8284106529991788
0.15434782948917208
0.5038725073736208
-0.8284106529991788
0.15434782948917208
0.5038725073736208
-0.8284106529991788
0.15434782948917208
0.5038725073736208
-0.8308608850503096
0.15286744948668846
0.5041817788320129
-0.8308608850503096
0.15286744948668846
0.5041817788320129
-0.8308608850503096
0.15286744948668846
0.5041817788320129
-0.8308608850503096
0.15286744948668846
0.5041817788320129
-0.8307376752795124
0.15220930667527327
0.5043186492127943
-0.8307376752795124
0.15220930667527327
0.5043186492127943
-0.8307376752795124
0.15220930667527327
0.5043186492127943
-0.8307376752795124
0.15220930667527327
0.5043186492127943
-0.8304763491025138
0.15327924632824744
0.5041250953704649
-0.8304763491025138
0.15327924632824744
0.5041250953704649
-0.8304763491025138
0.15327924632824744
0.5041250953704649
-0.8304763491025138
0.15327924632824744
0.5041250953704649
-0.8317751951091753
0.15441130208239193
0.5039867565295515
-0.8317751951091753
0.15441130208239193
0.5039867565295515
-0.8317751951091753
0.15441130208239193
0.5039867565295515
-0.8317751951091753
0.15441130208239193
0.5039867565295515
-0.8316472329714741
0.15492221005898463
0.5045795886977222
-0.8316472329714741
0.15492221005898463
0.5045795886977222
-0.8316472329714741
0.15492221005898463
0.5045795886977222
-0.8316472329714741
0.15492221005898463
0.5045795886977222
-0.8314829395967654
0.15452982935829104
0.5050254823063238
-0.8314829395967654
0.15452982935829104
0.5050254823063238
-0.8314829395967654
0.15452982935829104
0.5050254823063238
-0.8314829395967654
0.15452982935829104
0.5050254823063238
-0.8321373381199964
0.15412387684457127
0.5052209007712956
-0.8321373381199964
0.15412387684457127
0.5052209007712956
-0.8321373381199964
0.15412387684457127
0.5052209007712956
-0.8321373381199964
0.15412387684457127
0.5052209007712956
-0.8322723800824019
0.15494192873883603
0.5057286353366045
-0.8322723800824019
0.15494192873883603
0.5057286353366045
-0.8322723800824019
0.15494192873883603
0.5057286353366045
-0.8322723800824019
0.15494192873883603
0.5057286353366045
-0.8325299627694152
0.15641824653368197
0.5060987513924078
-0.8325299627694152
0.15641824653368197
0.5060987513924078
-0.8325299627694152
0.15641824653368197
0.5060987513924078
-0.8325299627694152
0.15641824653368197
0.5060987513924078
-0.8317624098893062
0.15790535429688252
0.5065368030175909
-0.8317624098893062
0.15790535429688252
0.5065368030175909
-0.8317624098893062
0.15790535429688252
0.5065368030175909
-0.8317624098893062
0.15790535429688252
0.5065368030175909
-0.8310852922861988
0.15908387981384428
0.5068475968984849
-0.8310852922861988
0.15908387981384428
0.5068475968984849
-0.8310852922861988
0.15908387981384428
0.5068475968984849
-0.8310852922861988
0.15908387981384428
0.5068475968984849
-0.8315264753044553
0.15953036517188807
0.5069401397222039
-0.8315264753044553
0.15953036517188807
0.5069401397222039
-0.8315264753044553
0.15953036517188807
0.5069401397222039
-0.8315264753044553
0.15953036517188807
0.5069401397222039
-0.8333479482315598
0.16028038719196622
0.5071224361985587
-0.8333479482315598
0.16028038719196622
0.5071224361985587
-0.8333479482315598
0.16028038719196622
0.5071224361985587
-0.8333479482315598
0.16028038719196622
0.5071224361985587
-0.8339886482240505
0.16117098393821694
0.5074585922508845
-0.8339886482240505
0.16117098393821694
0.5074585922508845
-0.8339886482240505
0.16117098393821694
0.5074585922508845
-0.8339886482240505
0.16117098393821694
0.5074585922508845
-0.8332646880136437
0.16250361516841857
0.5078335036306088
-0.8332646880136437
0.16250361516841857
0.5078335036306088
-0.8332646880136437
0.16250361516841857
0.5078335036306088
-0.8332646880136437
0.16250361516841857
0.5078335036306088
-0.8328552317577546
0.16386309973704458
0.508371367635804
-0.8328552317577546
0.16386309973704458
0.508371367635804
-0.8328552317577546
0.16386309973704458
0.508371367635804
-0.8328552317577546
0.16386309973704458
0.508371367635804
-0.8332041888173014
0.16479327112448694
0.5086795522137013
-0.8332041888173014
0.16479327112448694
0.5086795522137013
-0.8332041888173014
0.16479327112448694
0.5086795522137013
-0.8332041888173014
0.16479327112448694
0.5086795522137013
-0.8327483258412526
0.16564203222014368
0.5087317642351629
-0.8327483258412526
0.16564203222014368
0.5087317642351629
-0.8327483258412526
0.16564203222014368
0.5087317642351629
-0.8327483258412526
0.16564203222014368
0.5087317642351629
-0.8329253105442102
0.1661313893813836
0.5090862780414119
-0.8329253105442102
0.1661313893813836
0.5090862780414119
-0.8329253105442102
0.1661313893813836
0.5090862780414119
-0.8329253105442102
0.1661313893813836
0.5090862780414119
-0.8336955832243408
0.16579960163783222
0.5096574733194466
-0.8336955832243408
0.16579960163783222
0.5096574733194466
-0.8336955832243408
0.16579960163783222
0.5096574733194466
-0.8336955832243408
0.16579960163783222
0.5096574733194466
-0.832978059382717
0.16542543820265482
0.5104976249179383
-0.832978059382717
0.16542543820265482
0.5104976249179383
-0.832978059382717
0.16542543820265482
0.5104976249179383
-0.832978059382717
0.16542543820265482
0.5104976249179383
-0.8312172199949499
0.16575323553691104
0.5108464318728573
-0.8312172199949499
0.16575323553691104
0.5108464318728573
-0.8312172199949499
0.16575323553691104
0.5108464318728573
-0.8312172199949499
0.16575323553691104
0.5108464318728573
-0.8308553971864654
0.16623011813658464
0.5109270179952453
-0.8308553971864654
0.16623011813658464
0.5109270179952453
-0.8308553971864654
0.16623011813658464
0.5109270179952453
-0.8308553971864654
0.16623011813658464
0.5109270179952453
-0.8315152483864984
0.16707625286520644
0.51115253281708
-0.8315152483864984
0.16707625286520644
0.51115253281708
-0.8315152483864984
0.16707625286520644
0.51115253281708
-0.8315152483864984
0.16707625286520644
0.51115253281708
-0.831344823765942
0.16723583792525418
0.5119060563408939
-0.831344823765942
0.16723583792525418
0.5119060563408939
-0.831344823765942
0.16723583792525418
0.5119060563408939
-0.831344823765942
0.16723583792525418
0.5119060563408939
-0.8303334148895405
0.16696228911580754
0.5125635064163386
-0.8303334148895405
0.16696228911580754
0.5125635064163386
-0.8303334148895405
0.16696228911580754
0.5125635064163386
-0.8303334148895405
0.16696228911580754
0.5125635064163386
-0.8303551625965145
0.1669171849785676
0.512453253450097
-0.8303551625965145
0.1669171849785676
0.512453253450097
-0.8303551625965145
0.1669171849785676
0.512453253450097
-0.8303551625965145
0.1669171849785676
0.512453253450097
-0.8302449065181573
0.16689294297579157
0.5124749980449553
-0.8302449065181573
0.16689294297579157
0.5124749980449553
-0.8302449065181573
0.16689294297579157
0.5124749980449553
-0.8302449065181573
0.16689294297579157
0.5124749980449553
-0.8301774294886235
0.16691659819334384
0.5125606660246818
-0.8301774294886235
0.16691659819334384
0.5125606660246818
-0.8301774294886235
0.16691659819334384
0.5125606660246818
-0.8301774294886235
0.16691659819334384
0.5125606660246818
-0.8314414120869151
0.166438541211516
0.5130962812735989
-0.8314414120869151
0.166438541211516
0.5130962812735989
-0.8314414120869151
0.166438541211516
0.5130962812735989
-0.8314414120869151
0.166438541211516
0.5130962812735989
-0.831726385788597
0.16581387656624483
0.5136402054449322
-0.831726385788597
0.16581387656624483
0.5136402054449322
-0.831726385788597
0.16581387656624483
0.5136402054449322
-0.831726385788597
0.16581387656624483
0.5136402054449322
-0.830542963810875
0.16630039662355642
0.5139766774965702
-0.830542963810875
0.16630039662355642
0.5139766774965702
-0.830542963810875
0.16630039662355642
0.5139766774965702
-0.830542963810875
0.16630039662355642
0.5139766774965702
-0.8284318130817787
0.1676716950736436
0.5144493187696793
-0.8284318130817787
0.1676716950736436
0.5144493187696793
-0.8284318130817787
0.1676716950736436
0.5144493187696793
-0.8284318130817787
0.1676716950736436
0.5144493187696793
-0.8284500334975139
0.1682901292004067
0.5148915425816113
-0.8284500334975139
0.1682901292004067
0.5148915425816113
-0.8284500334975139
0.1682901292004067
0.5148915425816113
-0.8284500334975139
0.1682901292004067
0.5148915425816113
-0.8270744422371765
0.16820367090756866
0.5152965022236632
-0.8270744422371765
0.16820367090756866
0.5152965022236632
-0.8270744422371765
0.16820367090756866
0.5152965022236632
-0.8270744422371765
0.16820367090756866
0.5152965022236632
-0.8261220145428373
0.16805789234674934
0.515595728249234
-0.8261220145428373
0.16805789234674934
0.515595728249234
-0.8261220145428373
0.16805789234674934
0.515595728249234
-0.8261220145428373
0.16805789234674934
0.515595728249234
-0.8263402370599608
0.16703169850619679
0.5156037728630031
-0.8263402370599608
0.16703169850619679
0.5156037728630031
-0.8263402370599608
0.16703169850619679
0.5156037728630031
-0.8263402370599608
0.16703169850619679
0.5156037728630031
-0.8258218579055443
0.16632257899355138
0.5158902636713276
-0.8258218579055443
0.16632257899355138
0.5158902636713276
-0.8258218579055443
0.16632257899355138
0.5158902636713276
-0.8258218579055443
0.16632257899355138
0.5158902636713276
-0.8246244772066827
0.16623613427280182
0.5161864564556932
-0.8246244772066827
0.16623613427280182
0.5161864564556932
-0.8246244772066827
0.16623613427280182
0.5161864564556932
-0.8246244772066827
0.16623613427280182
0.5161864564556932
-0.8246493437490222
0.1661273315262347
0.5162318484357565
-0.8246493437490222
0.1661273315262347
0.5162318484357565
-0.8246493437490222
0.1661273315262347
0.5162318484357565
-0.8246493437490222
0.1661273315262347
0.5162318484357565
-0.826005559842175
0.16619579584349342
0.5160945900319468
-0.826005559842175
0.16619579584349342
0.5160945900319468
-0.826005559842175
0.16619579584349342
0.5160945900319468
-0.826005559842175
0.16619579584349342
0.5160945900319468
-0.8261158483478841
0.16622029623196696
0.516072856588029
-0.8261158483478841
0.16622029623196696
0.516072856588029
-0.8261158483478841
0.16622029623196696
0.516072856588029
-0.8261158483478841
0.16622029623196696
0.516072856588029
-0.8261406915632024
0.16611153076584342
0.5161183300062324
-0.8261406915632024
0.16611153076584342
0.5161183300062324
-0.8261406915632024
0.16611153076584342
0.5161183300062324
-0.8261406915632024
0.16611153076584342
0.5161183300062324
-0.8267032305359531
0.16559191699007741
0.515818903869398
-0.8267032305359531
0.16559191699007741
0.515818903869398
-0.8267032305359531
0.16559191699007741
0.515818903869398
-0.8267032305359531
0.16559191699007741
0.515818903869398
-0.8270785351421466
0.16586187373796188
0.5158681752275497
-0.8270785351421466
0.16586187373796188
0.5158681752275497
-0.8270785351421466
0.16586187373796188
0.5158681752275497
-0.8270785351421466
0.16586187373796188
0.5158681752275497
-0.8264942616613989
0.16546243496023574
0.5165750102807022
-0.8264942616613989
0.16546243496023574
0.5165750102807022
-0.8264942616613989
0.16546243496023574
0.5165750102807022
-0.8264942616613989
0.16546243496023574
0.5165750102807022
-0.8266045211985384
0.1654869750813904
0.5165533015825393
-0.8266045211985384
0.1654869750813904
0.5165533015825393
-0.8266045211985384
0.1654869750813904
0.5165533015825393
-0.8266045211985384
0.1654869750813904
0.5165533015825393
-0.8258281868558133
0.1652306455156205
0.5164985671264333
-0.8258281868558133
0.1652306455156205
0.5164985671264333
-0.8258281868558133
0.1652306455156205
0.5164985671264333
-0.8258281868558133
0.1652306455156205
0.5164985671264333
-0.8258281868558133
0.1652306455156205
0.5164985671264333
-0.8258281868558133
0.1652306455156205
0.5164985671264333
-0.8258281868558133
0.1652306455156205
0.5164985671264333
-0.8258281868558133
0.1652306455156205
0.5164985671264333
-0.826476052577974
0.16484443275714825
0.5161321565871559
-0.826476052577974
0.16484443275714825
0.5161321565871559
-0.826476052577974
0.16484443275714825
0.5161321565871559
-0.826476052577974
0.16484443275714825
0.5161321565871559
-0.8259117159709163
0.1642887858280139
0.5164828255080633
-0.8259117159709163
0.1642887858280139
0.5164828255080633
-0.8259117159709163
0.1642887858280139
0.5164828255080633
-0.8259117159709163
0.1642887858280139
0.5164828255080633
-0.8259520552626599
0.16343667058742237
0.5166876249926396
-0.8259520552626599
0.16343667058742237
0.5166876249926396
-0.8259520552626599
0.16343667058742237
0.5166876249926396
-0.8259520552626599
0.16343667058742237
0.5166876249926396
-0.8268367906294974
0.16264249654841273
0.5167733174035614
-0.8268367906294974
0.16264249654841273
0.5167733174035614
-0.8268367906294974
0.16264249654841273
0.5167733174035614
-0.8268367906294974
0.16264249654841273
0.5167733174035614
-0.8277250732907903
0.16243533311067826
0.5163442959584492
-0.8277250732907903
0.16243533311067826
0.5163442959584492
-0.8277250732907903
0.16243533311067826
0.5163442959584492
-0.8277250732907903
0.16243533311067826
0.5163442959584492
-0.8276148972258243
0.16241074045805892
0.5163658380673669
-0.8276148972258243
0.16241074045805892
0.5163658380673669
-0.8276148972258243
0.16241074045805892
0.5163658380673669
-0.8276148972258243
0.16241074045805892
0.5163658380673669
-0.8282008613255919
0.1620955142106067
0.5164870327629034
-0.8282008613255919
0.1620955142106067
0.5164870327629034
-0.8282008613255919
0.1620955142106067
0.5164870327629034
-0.8282008613255919
0.1620955142106067
0.5164870327629034
-0.8282903041362794
0.16120126263994092
0.5168735379289102
-0.8282903041362794
0.16120126263994092
0.5168735379289102
-0.8282903041362794
0.16120126263994092
0.5168735379289102
-0.8282903041362794
0.16120126263994092
0.5168735379289102
-0.8287739545596302
0.1604207901323424
0.5169548583638449
-0.8287739545596302
0.1604207901323424
0.5169548583638449
-0.8287739545596302
0.1604207901323424
0.5169548583638449
-0.8287739545596302
0.1604207901323424
0.5169548583638449
-0.8289090375316177
0.1603367680451689
0.5169790717388085
-0.8289090375316177
0.1603367680451689
0.5169790717388085
-0.8289090375316177
0.1603367680451689
0.5169790717388085
-0.8289090375316177
0.1603367680451689
0.5169790717388085
-0.8290947017218981
0.15972164518501397
0.5167214262734081
-0.8290947017218981
0.15972164518501397
0.5167214262734081
-0.8290947017218981
0.15972164518501397
0.5167214262734081
-0.8290947017218981
0.15972164518501397
0.5167214262734081
-0.8292850991269464
0.15869302859099751
0.5164409877296536
-0.8292850991269464
0.15869302859099751
0.5164409877296536
-0.8292850991269464
0.15869302859099751
0.5164409877296536
-0.8292850991269464
0.15869302859099751
0.5164409877296536
-0.8300855200416134
0.15710159382083333
0.5160456601688634
-0.8300855200416134
0.15710159382083333
0.5160456601688634
-0.8300855200416134
0.15710159382083333
0.5160456601688634
-0.8300855200416134
0.15710159382083333
0.5160456601688634
-0.8311552047035466
0.1546776072063416
0.515150022876496
-0.8311552047035466
0.1546776072063416
0.515150022876496
-0.8311552047035466
0.1546776072063416
0.515150022876496
-0.8311552047035466
0.1546776072063416
0.515150022876496
-0.8328313999728267
0.15133923693069756
0.5139669719251286
-0.8328313999728267
0.15133923693069756
0.5139669719251286
-0.8328313999728267
0.15133923693069756
0.5139669719251286
-0.8328313999728267
0.15133923693069756
0.5139669719251286
-0.8331807892629732
0.14720810013536134
0.5128116605065443
-0.8331807892629732
0.14720810013536134
0.5128116605065443
-0.8331807892629732
0.14720810013536134
0.5128116605065443
-0.8331807892629732
0.14720810013536134
0.5128116605065443
-0.8347033656211056
0.14293816287666988
0.5115143950118093
-0.8347033656211056
0.14293816287666988
0.5115143950118093
-0.8347033656211056
0.14293816287666988
0.5115143950118093
-0.8347033656211056
0.14293816287666988
0.5115143950118093
-0.8377739750377835
0.13823878436855194
0.509205676577275
-0.8377739750377835
0.13823878436855194
0.509205676577275
-0.8377739750377835
0.13823878436855194
0.509205676577275
-0.8377739750377835
0.13823878436855194
0.509205676577275
-0.8410133155856233
0.13325988672279696
0.5062116580271108
-0.8410133155856233
0.13325988672279696
0.5062116580271108
-0.8410133155856233
0.13325988672279696
0.5062116580271108
-0.8410133155856233
0.13325988672279696
0.5062116580271108
-0.8431874143079209
0.1288394810068748
0.5039254621928494
-0.8431874143079209
0.1288394810068748
0.5039254621928494
-0.8431874143079209
0.1288394810068748
0.5039254621928494
-0.8431874143079209
0.1288394810068748
0.5039254621928494
-0.8461881150689945
0.12432541117952509
0.5021249360070169
-0.8461881150689945
0.12432541117952509
0.5021249360070169
-0.8461881150689945
0.12432541117952509
0.5021249360070169
-0.8461881150689945
0.12432541117952509
0.5021249360070169
-0.8483086387038914
0.11838378053021777
0.5010650723413563
-0.8483086387038914
0.11838378053021777
0.5010650723413563
-0.8483086387038914
0.11838378053021777
0.5010650723413563
-0.8483086387038914
0.11838378053021777
0.5010650723413563
-0.8502051009763186
0.11266364043060716
0.500650533774418
-0.8502051009763186
0.11266364043060716
0.500650533774418
-0.8502051009763186
0.11266364043060716
0.500650533774418
-0.8502051009763186
0.11266364043060716
0.500650533774418
-0.8533998242585278
0.10663723015481702
0.5005768826602324
-0.8533998242585278
0.10663723015481702
0.5005768826602324
-0.8533998242585278
0.10663723015481702
0.5005768826602324
-0.8533998242585278
0.10663723015481702
0.5005768826602324
-0.8566137792859707
0.10021915329329827
0.5008660993717815
-0.8566137792859707
0.10021915329329827
0.5008660993717815
-0.8566137792859707
0.10021915329329827
0.5008660993717815
-0.8566137792859707
0.10021915329329827
0.5008660993717815
-0.8629926856073644
0.09369910352270555
0.49850342051711516
-0.8629926856073644
0.09369910352270555
0.49850342051711516
-0.8629926856073644
0.09369910352270555
0.49850342051711516
-0.8629926856073644
0.09369910352270555
0.49850342051711516
-0.8705812233058907
0.08949164428983457
0.49367745766461824
-0.8705812233058907
0.08949164428983457
0.49367745766461824
-0.8705812233058907
0.08949164428983457
0.49367745766461824
-0.8705812233058907
0.08949164428983457
0.49367745766461824
-0.8812849580457556
0.08652171539555525
0.4906767274618532
-0.8812849580457556
0.08652171539555525
0.4906767274618532
-0.8812849580457556
0.08652171539555525
0.4906767274618532
-0.8812849580457556
0.08652171539555525
0.4906767274618532
-0.8882976460057261
0.08216297513972795
0.48693475370865474
-0.8882976460057261
0.08216297513972795
0.48693475370865474
-0.8882976460057261
0.08216297513972795
0.48693475370865474
-0.8882976460057261
0.08216297513972795
0.48693475370865474
-0.8888258122897943
0.07578820960391475
0.48407411953126456
-0.8888258122897943
0.07578820960391475
0.48407411953126456
-0.8888258122897943
0.07578820960391475
0.48407411953126456
-0.8888258122897943
0.07578820960391475
0.48407411953126456
-0.8926147894305486
0.0693278831324948
0.47985755499706617
-0.8926147894305486
0.0693278831324948
0.47985755499706617
-0.8926147894305486
0.0693278831324948
0.47985755499706617
-0.8926147894305486
0.0693278831324948
0.47985755499706617
-0.8971796351805055
0.06191953106451042
0.47677994795569656
-0.8971796351805055
0.06191953106451042
0.47677994795569656
-0.8971796351805055
0.06191953106451042
0.47677994795569656
-0.8971796351805055
0.06191953106451042
0.47677994795569656
-0.9062058136976421
0.05500643993583152
0.475555584732402
-0.9062058136976421
0.05500643993583152
0.475555584732402
-0.9062058136976421
0.05500643993583152
0.475555584732402
-0.9062058136976421
0.05500643993583152
0.475555584732402
-0.9137024188763799
0.04811309423523717
0.4741252663419925
-0.9137024188763799
0.04811309423523717
0.4741252663419925
-0.9137024188763799
0.04811309423523717
0.4741252663419925
-0.9137024188763799
0.04811309423523717
0.4741252663419925
-0.9161832943911172
0.04118359827663361
0.473247304935696
-0.9161832943911172
0.04118359827663361
0.473247304935696
-0.9161832943911172
0.04118359827663361
0.473247304935696
-0.9161832943911172
0.04118359827663361
0.473247304935696
-0.913550117004511
0.03633727084775564
0.47239523007975476
-0.913550117004511
0.03633727084775564
0.47239523007975476
-0.913550117004511
0.03633727084775564
0.47239523007975476
-0.913550117004511
0.03633727084775564
0.47239523007975476
-0.9109428074781917
0.033573651891996924
0.4732143223026309
-0.9109428074781917
0.033573651891996924
0.4732143223026309
-0.9109428074781917
0.033573651891996924
0.4732143223026309
-0.9109428074781917
0.033573651891996924
0.4732143223026309
-0.910640995659753
0.03220558751063212
0.47398952420295876
-0.910640995659753
0.03220558751063212
0.47398952420295876
-0.910640995659753
0.03220558751063212
0.47398952420295876
-0.910640995659753
0.03220558751063212
0.47398952420295876
-0.9127857259449026
0.03126464490898744
0.47355099079126456
-0.9127857259449026
0.03126464490898744
0.47355099079126456
-0.9127857259449026
0.03126464490898744
0.47355099079126456
-0.9127857259449026
0.03126464490898744
0.47355099079126456
-0.9156369240337723
0.03094260283608889
0.4723003145819375
-0.9156369240337723
0.03094260283608889
0.4723003145819375
-0.9156369240337723
0.03094260283608889
0.4723003145819375
-0.9156369240337723
0.03094260283608889
0.4723003145819375
-0.9160982905934012
0.03234747900967519
0.47153229307497013
-0.9160982905934012
0.03234747900967519
0.47153229307497013
-0.9160982905934012
0.03234747900967519
0.47153229307497013
-0.9160982905934012
0.03234747900967519
0.47153229307497013
-0.9129347781071087
0.035686135132903286
0.47167328707005657
-0.9129347781071087
0.035686135132903286
0.47167328707005657
-0.9129347781071087
0.035686135132903286
0.47167328707005657
-0.9129347781071087
0.035686135132903286
0.47167328707005657
-0.90993760744465
0.03951537753488723
0.47161348917425383
-0.90993760744465
0.03951537753488723
0.47161348917425383
-0.90993760744465
0.03951537753488723
0.47161348917425383
-0.90993760744465
0.03951537753488723
0.47161348917425383
-0.9085014777434474
0.042484636968435595
0.47128536148200745
-0.9085014777434474
0.042484636968435595
0.47128536148200745
-0.9085014777434474
0.042484636968435595
0.47128536148200745
-0.9085014777434474
0.042484636968435595
0.47128536148200745
-0.9086955031300685
0.04472252936598591
0.4712085982557585
-0.9086955031300685
0.04472252936598591
0.4712085982557585
-0.9086955031300685
0.04472252936598591
0.4712085982557585
-0.9086955031300685
0.04472252936598591
0.4712085982557585
-0.9107640060945738
0.046847947758217365
0.47136469283095433
-0.9107640060945738
0.046847947758217365
0.47136469283095433
-0.9107640060945738
0.046847947758217365
0.47136469283095433
-0.9107640060945738
0.046847947758217365
0.47136469283095433
-0.9122190727829724
0.04938842688437453
0.4718255712715808
-0.9122190727829724
0.04938842688437453
0.4718255712715808
-0.9122190727829724
0.04938842688437453
0.4718255712715808
-0.9122190727829724
0.04938842688437453
0.4718255712715808
-0.9108273784613327
0.052027409922285286
0.47278234529422786
-0.9108273784613327
0.052027409922285286
0.47278234529422786
-0.9108273784613327
0.052027409922285286
0.47278234529422786
-0.9108273784613327
0.052027409922285286
0.47278234529422786
-0.9075229060073272
0.054490131779719835
0.4732624167341761
-0.9075229060073272
0.054490131779719835
0.4732624167341761
-0.9075229060073272
0.054490131779719835
0.4732624167341761
-0.9075229060073272
0.054490131779719835
0.4732624167341761
-0.9049535724754346
0.05600322712764603
0.4736935295856109
-0.9049535724754346
0.05600322712764603
0.4736935295856109
-0.9049535724754346
0.05600322712764603
0.4736935295856109
-0.9049535724754346
0.05600322712764603
0.4736935295856109
-0.9056011072909902
0.05649377826215269
0.4743562694004373
-0.9056011072909902
0.05649377826215269
0.4743562694004373
-0.9056011072909902
0.05649377826215269
0.4743562694004373
-0.9056011072909902
0.05649377826215269
0.4743562694004373
-0.9074474037058928
0.05614796627617579
0.47551991346760303
-0.9074474037058928
0.05614796627617579
0.47551991346760303
-0.9074474037058928
0.05614796627617579
0.47551991346760303
-0.9074474037058928
0.05614796627617579
0.47551991346760303
-0.9091335287338898
0.055824012932595944
0.4762513078790557
-0.9091335287338898
0.055824012932595944
0.4762513078790557
-0.9091335287338898
0.055824012932595944
0.4762513078790557
-0.9091335287338898
0.055824012932595944
0.4762513078790557
-0.9088544704657875
0.055532740439074406
0.4766665714226536
-0.9088544704657875
0.055532740439074406
0.4766665714226536
-0.9088544704657875
0.055532740439074406
0.4766665714226536
-0.9088544704657875
0.055532740439074406
0.4766665714226536
-0.9074956409006822
0.055312824279246456
0.4769144341826855
-0.9074956409006822
0.055312824279246456
0.4769144341826855
-0.9074956409006822
0.055312824279246456
0.4769144341826855
-0.9074956409006822
0.055312824279246456
0.4769144341826855
-0.9070493901031442
0.055036718753883856
0.47716205435225095
-0.9070493901031442
0.055036718753883856
0.47716205435225095
-0.9070493901031442
0.055036718753883856
0.47716205435225095
-0.9070493901031442
0.055036718753883856
0.47716205435225095
-0.9075512720383612
0.05459556209648122
0.4771309879081675
-0.9075512720383612
0.05459556209648122
0.4771309879081675
-0.9075512720383612
0.05459556209648122
0.4771309879081675
-0.9075512720383612
0.05459556209648122
0.4771309879081675
-0.9081398145333168
0.053842269381763744
0.4767232939473004
-0.9081398145333168
0.053842269381763744
0.4767232939473004
-0.9081398145333168
0.053842269381763744
0.4767232939473004
-0.9081398145333168
0.053842269381763744
0.4767232939473004
-0.9081398145333168
0.053842269381763744
0.4767232939473004
-0.9081398145333168
0.053842269381763744
0.4767232939473004
-0.9081398145333168
0.053842269381763744
0.4767232939473004
-0.9081398145333168
0.053842269381763744
0.4767232939473004
-0.9081645251649109
0.05322767381635421
0.47715421904061334
-0.9081645251649109
0.05322767381635421
0.47715421904061334
-0.9081645251649109
0.05322767381635421
0.47715421904061334
-0.9081645251649109
0.05322767381635421
0.47715421904061334
-0.9078994321756961
0.0526553957976629
0.4775401070007042
-0.9078994321756961
0.0526553957976629
0.4775401070007042
-0.9078994321756961
0.0526553957976629
0.4775401070007042
-0.9078994321756961
0.0526553957976629
0.4775401070007042
-0.9070206030072969
0.05233009015603062
0.47762592418884675
-0.9070206030072969
0.05233009015603062
0.47762592418884675
-0.9070206030072969
0.05233009015603062
0.47762592418884675
-0.9070206030072969
0.05233009015603062
0.47762592418884675
-0.9070206030072969
0.05233009015603062
0.47762592418884675
-0.9070206030072969
0.05233009015603062
0.47762592418884675
-0.9070206030072969
0.05233009015603062
0.47762592418884675
-0.9070206030072969
0.05233009015603062
0.47762592418884675
-0.9076295523966402
0.05191369079733019
0.47758007972461247
-0.9076295523966402
0.05191369079733019
0.47758007972461247
-0.9076295523966402
0.05191369079733019
0.47758007972461247
-0.9076295523966402
0.05191369079733019
0.47758007972461247
-0.9084883194891279
0.05139447833667821
0.4775127326070769
-0.9084883194891279
0.05139447833667821
0.4775127326070769
-0.9084883194891279
0.05139447833667821
0.4775127326070769
-0.9084883194891279
0.05139447833667821
0.4775127326070769
-0.9084883194891279
0.05139447833667821
0.4775127326070769
-0.9084883194891279
0.05139447833667821
0.4775127326070769
-0.9084883194891279
0.05139447833667821
0.4775127326070769
-0.9084883194891279
0.05139447833667821
0.4775127326070769
-0.9075894820547472
0.0520718866719863
0.4776357453436519
-0.9075894820547472
0.0520718866719863
0.4776357453436519
-0.9075894820547472
0.0520718866719863
0.4776357453436519
-0.9075894820547472
0.0520718866719863
0.4776357453436519
-0.9061371813524111
0.05295609842089624
0.4776427693837744
-0.9061371813524111
0.05295609842089624
0.4776427693837744
-0.9061371813524111
0.05295609842089624
0.4776427693837744
-0.9061371813524111
0.05295609842089624
0.4776427693837744
-0.904432641533448
0.05439702261217853
0.4777832819907173
-0.904432641533448
0.05439702261217853
0.4777832819907173
-0.904432641533448
0.05439702261217853
0.4777832819907173
-0.904432641533448
0.05439702261217853
0.4777832819907173
-0.9038566071994092
0.05627900433369605
0.4779400754040813
-0.9038566071994092
0.05627900433369605
0.4779400754040813
-0.9038566071994092
0.05627900433369605
0.4779400754040813
-0.9038566071994092
0.05627900433369605
0.4779400754040813
-0.9031484919249011
0.0582433774374075
0.47806264016111333
-0.9031484919249011
0.0582433774374075
0.47806264016111333
-0.9031484919249011
0.0582433774374075
0.47806264016111333
-0.9031484919249011
0.0582433774374075
0.47806264016111333
-0.9033014105183931
0.060136797230925965
0.4781598220088841
-0.9033014105183931
0.060136797230925965
0.4781598220088841
-0.9033014105183931
0.060136797230925965
0.4781598220088841
-0.9033014105183931
0.060136797230925965
0.4781598220088841
-0.9025885876566208
0.061423742837614766
0.47831624187708144
-0.9025885876566208
0.061423742837614766
0.47831624187708144
-0.9025885876566208
0.061423742837614766
0.47831624187708144
-0.9025885876566208
0.061423742837614766
0.47831624187708144
-0.9018455852400513
0.06304235784271035
0.47861075164178546
-0.9018455852400513
0.06304235784271035
0.47861075164178546
-0.9018455852400513
0.06304235784271035
0.47861075164178546
-0.9018455852400513
0.06304235784271035
0.47861075164178546
-0.9000054163179169
0.06562200025166216
0.47943276232830906
-0.9000054163179169
0.06562200025166216
0.47943276232830906
-0.9000054163179169
0.06562200025166216
0.47943276232830906
-0.9000054163179169
0.06562200025166216
0.47943276232830906
-0.8965782863358753
0.06939573938414059
0.4801716185579919
-0.8965782863358753
0.06939573938414059
0.4801716185579919
-0.8965782863358753
0.06939573938414059
0.4801716185579919
-0.8965782863358753
0.06939573938414059
0.4801716185579919
-0.8933835659594531
0.0725039871736603
0.4791287639313152
-0.8933835659594531
0.0725039871736603
0.4791287639313152
-0.8933835659594531
0.0725039871736603
0.4791287639313152
-0.8933835659594531
0.0725039871736603
0.4791287639313152
-0.8899761886215095
0.07405214401523043
0.4775709550056956
-0.8899761886215095
0.07405214401523043
0.4775709550056956
-0.8899761886215095
0.07405214401523043
0.4775709550056956
-0.8899761886215095
0.07405214401523043
0.4775709550056956
-0.889570949234973
0.07559015657096119
0.4769520604039268
-0.889570949234973
0.07559015657096119
0.4769520604039268
-0.889570949234973
0.07559015657096119
0.4769520604039268
-0.889570949234973
0.07559015657096119
0.4769520604039268
-0.8869554391201174
0.0782612263120337
0.47815098401388584
-0.8869554391201174
0.0782612263120337
0.47815098401388584
-0.8869554391201174
0.0782612263120337
0.47815098401388584
-0.8869554391201174
0.0782612263120337
0.47815098401388584
-0.8809641477360368
0.08085449194799633
0.47845722887254744
-0.8809641477360368
0.08085449194799633
0.47845722887254744
-0.8809641477360368
0.08085449194799633
0.47845722887254744
-0.8809641477360368
0.08085449194799633
0.47845722887254744
-0.8793109656955106
0.08199905842007944
0.47654937160759403
-0.8793109656955106
0.08199905842007944
0.47654937160759403
-0.8793109656955106
0.08199905842007944
0.47654937160759403
-0.8793109656955106
0.08199905842007944
0.47654937160759403
-0.8816078920640238
0.0827565046510627
0.473993711271164
-0.8816078920640238
0.0827565046510627
0.473993711271164
-0.8816078920640238
0.0827565046510627
0.473993711271164
-0.8816078920640238
0.0827565046510627
0.473993711271164
-0.8825610100963196
0.08451091549722123
0.4733834493464967
-0.8825610100963196
0.08451091549722123
0.4733834493464967
-0.8825610100963196
0.08451091549722123
0.4733834493464967
-0.8825610100963196
0.08451091549722123
0.4733834493464967
-0.8790140401374578
0.08825580377113697
0.47447032452818866
-0.8790140401374578
0.08825580377113697
0.47447032452818866
-0.8790140401374578
0.08825580377113697
0.47447032452818866
-0.8790140401374578
0.08825580377113697
0.47447032452818866
-0.8710281546912346
0.09534873948462698
0.47694173886083224
-0.8710281546912346
0.09534873948462698
0.47694173886083224
-0.8710281546912346
0.09534873948462698
0.47694173886083224
-0.8710281546912346
0.09534873948462698
0.47694173886083224
-0.8591684040579736
0.10457120919352231
0.48039029929551313
-0.8591684040579736
0.10457120919352231
0.48039029929551313
-0.8591684040579736
0.10457120919352231
0.48039029929551313
-0.8591684040579736
0.10457120919352231
0.48039029929551313
-0.8565295432583088
0.11447764699451925
0.4824952270572371
-0.8565295432583088
0.11447764699451925
0.4824952270572371
-0.8565295432583088
0.11447764699451925
0.4824952270572371
-0.8565295432583088
0.11447764699451925
0.4824952270572371
-0.853297685940645
0.12448386759667861
0.48667227684138503
-0.853297685940645
0.12448386759667861
0.48667227684138503
-0.853297685940645
0.12448386759667861
0.48667227684138503
-0.853297685940645
0.12448386759667861
0.48667227684138503
-0.8478478812853024
0.13365441386814922
0.4910141901876592
-0.8478478812853024
0.13365441386814922
0.4910141901876592
-0.8478478812853024
0.13365441386814922
0.4910141901876592
-0.8478478812853024
0.13365441386814922
0.4910141901876592
-0.8381415835152543
0.14068142267284098
0.4954856136406849
-0.8381415835152543
0.14068142267284098
0.4954856136406849
-0.8381415835152543
0.14068142267284098
0.4954856136406849
-0.8381415835152543
0.14068142267284098
0.4954856136406849
-0.8336948017622327
0.14614821375309967
0.49879456305386294
-0.8336948017622327
0.14614821375309967
0.49879456305386294
-0.8336948017622327
0.14614821375309967
0.49879456305386294
-0.8336948017622327
0.14614821375309967
0.49879456305386294
-0.8352439528804217
0.15047883615671423
0.5018992135437156
-0.8352439528804217
0.15047883615671423
0.5018992135437156
-0.8352439528804217
0.15047883615671423
0.5018992135437156
-0.8352439528804217
0.15047883615671423
0.5018992135437156
-0.8364920663591983
0.15388763599970964
0.5046462515758872
-0.8364920663591983
0.15388763599970964
0.5046462515758872
-0.8364920663591983
0.15388763599970964
0.5046462515758872
-0.8364920663591983
0.15388763599970964
0.5046462515758872
-0.8321668751672704
0.15800151120928727
0.5067885108785832
-0.8321668751672704
0.15800151120928727
0.5067885108785832
-0.8321668751672704
0.15800151120928727
0.5067885108785832
-0.8321668751672704
0.15800151120928727
0.5067885108785832
-0.8289864739617409
0.1619012201586283
0.5086593447435221
-0.8289864739617409
0.1619012201586283
0.5086593447435221
-0.8289864739617409
0.1619012201586283
0.5086593447435221
-0.8289864739617409
0.1619012201586283
0.5086593447435221
-0.830614415461637
0.16484952341826015
0.5113579406259021
-0.830614415461637
0.16484952341826015
0.5113579406259021
-0.830614415461637
0.16484952341826015
0.5113579406259021
-0.830614415461637
0.16484952341826015
0.5113579406259021
-0.8316323791191901
0.16647216365397083
0.5139470540286236
-0.8316323791191901
0.16647216365397083
0.5139470540286236
-0.8316323791191901
0.16647216365397083
0.5139470540286236
-0.8316323791191901
0.16647216365397083
0.5139470540286236
-0.8311203929441091
0.16766327485066454
0.5153787898667893
-0.8311203929441091
0.16766327485066454
0.5153787898667893
-0.8311203929441091
0.16766327485066454
0.5153787898667893
-0.8311203929441091
0.16766327485066454
0.5153787898667893
-0.8281819157371574
0.16828005444577396
0.5165361405365534
-0.8281819157371574
0.16828005444577396
0.5165361405365534
-0.8281819157371574
0.16828005444577396
0.5165361405365534
-0.8281819157371574
0.16828005444577396
0.5165361405365534
-0.8260489857284012
0.16866504418854542
0.5175759868207018
-0.8260489857284012
0.16866504418854542
0.5175759868207018
-0.8260489857284012
0.16866504418854542
0.5175759868207018
-0.8260489857284012
0.16866504418854542
0.5175759868207018
-0.8271209547153312
0.1676808852507134
0.5180194025425063
-0.8271209547153312
0.1676808852507134
0.5180194025425063
-0.8271209547153312
0.1676808852507134
0.5180194025425063
-0.8271209547153312
0.1676808852507134
0.5180194025425063
-0.8278991361586445
0.16679896964906735
0.518281226759856
-0.8278991361586445
0.16679896964906735
0.518281226759856
-0.8278991361586445
0.16679896964906735
0.518281226759856
-0.8278991361586445
0.16679896964906735
0.518281226759856
-0.8293040428956296
0.1655761847388356
0.5182877500825795
-0.8293040428956296
0.1655761847388356
0.5182877500825795
-0.8293040428956296
0.1655761847388356
0.5182877500825795
-0.8293040428956296
0.1655761847388356
0.5182877500825795
-0.8292595282085934
0.16459112054150224
0.5185612123748544
-0.8292595282085934
0.16459112054150224
0.5185612123748544
-0.8292595282085934
0.16459112054150224
0.5185612123748544
-0.8292595282085934
0.16459112054150224
0.5185612123748544
