-2
-3
-1
-2
-3
-2
0
-1
-2
-4
-5
-7
-1
-1
0
0
-1
-1
-4
-4
-2
-3
-13
-2
-1
-3
-10
-2
-4
-1
-3
-1
-1
-3
1
-5
-2
0
11
-2
-1
2
1
5
1
-1
5
-1
1
0
2
8
-1
-7
-17
-2
-3
-3
0
-2
-3
-2
13
-2
-1
1
8
2
-3
3
-10
1
2
2
-3
-2
6
4
9
1
0
-2
-12
-5
1
0
6
-2
1
1
-2
-2
-2
-4
-6
0
-3
-2
-5
4
4
-5
-4
-3
-1
1
17
3
-3
-1
-10
-1
2
-1
-18
-7
-2
1
2
2
-1
-3
1
-7
-4
-1
-5
-1
0
0
6
3
5
-3
0
0
-1
-3
-3
-10
-1
-1
-4
-3
-3
-1
1
7
-1
-1
2
-1
0
-2
14
-2
1
0
-8
-1
0
0
-42
-1
-1
1
2
-1
0
1
16
2
-2
0
-2
0
1
2
-1
-9
0
-4
-4
-3
-2
0
4
2
0
0
1
0
-2
-4
-1
-2
-3
-4
-7
-2
1
-1
-16
-1
-1
0
4
-1
-1
-2
3
0
-2
0
-4
-2
-2
-4
0
5
0
-1
3
0
-1
1
14
-4
-3
5
-1
0
-3
0
-9
-2
-5
-2
-5
-2
-1
-4
5
0
1
4
13
1
-3
0
-11
-2
-1
-5
-7
0
-2
-2
2
-4
-3
-2
0
-2
-1
-1
1
1
6
0
-8
-1
0
1
-10
-2
1
0
-1
-1
1
1
5
4
-5
0
0
-2
-2
-2
1
-1
-6
-7
-6
-1
-1
-5
7
0
-5
1
7
2
-2
-3
-1
-7
4
-1
0
-2
2
4
7
8
3
4
2
1
0
1
6
5
2
1
-1
0
-1
0
-7
1
-2
-5
-6
-2
0
-4
-20
-9
-2
-3
-3
-1
-1
-2
10
3
-3
0
3
-2
-1
0
-12
4
1
-3
-3
-2
-3
1
4
0
-1
-4
-3
-1
-4
-2
-3
-1
-4
-1
0
0
0
1
12
-8
2
0
-2
-2
1
-1
-6
-2
-2
0
1
-2
0
-1
-4
5
1
1
2
-1
0
2
0
1
-4
-2
-10
-4
0
1
-12
-5
2
1
-2
-1
-2
-2
8
0
-2
-1
2
-2
0
-1
-9
-6
0
2
-2
1
-1
-1
7
1
-3
-4
14
-2
0
-3
-5
6
0
3
-4
1
0
-1
20
0
-1
1
7
0
0
0
-10
-4
-2
-2
3
-1
1
3
1
3
2
1
4
0
-2
-2
-8
-6
-3
-3
-4
-3
0
2
12
-6
-4
-1
10
-1
0
0
-5
-1
1
0
0
0
1
1
5
-1
-1
1
-2
-1
-2
-1
-9
-2
-3
-2
-3
-2
-3
1
5
-8
-1
-3
-13
-2
0
-1
8
5
-1
0
4
2
-2
1
-7
3
-1
-3
-1
-1
-2
-1
-2
-6
-2
-1
3
-1
-3
-2
-3
2
-4
-3
-2
-1
1
-1
1
-4
1
-2
-2
-3
-1
1
6
-3
0
0
-1
1
-2
-2
0
3
-2
-2
1
-3
-2
-1
6
-3
0
-1
-3
0
-2
-1
-5
1
-2
-3
-5
-3
1
1
-7
-6
-3
2
2
2
-1
-2
11
2
0
-1
2
-1
-1
-1
-10
-1
0
-1
10
-2
0
2
-1
2
1
1
-10
-2
1
-2
6
-1
-2
1
4
-2
0
1
-9
-3
5
1
2
1
1
-1
13
4
4
2
2
1
0
1
-11
-5
-5
-4
-1
-3
-2
-4
-4
-3
-3
-2
-8
-1
0
-1
-16
-12
1
1
0
0
0
0
-7
10
-3
-1
0
0
-1
-1
18
8
1
-1
-1
-2
-2
-1
2
-1
-1
0
-6
-2
0
-3
-6
-4
-2
-1
-1
-1
-1
-1
-12
-5
-2
0
-4
0
-2
-4
-1
-7
-7
2
1
1
-2
-2
-2
-6
-1
-4
4
0
-1
2
5
11
1
3
1
0
-2
-2
-1
0
1
-1
-5
-2
-2
-3
-15
-5
-3
-2
0
-2
0
1
9
-1
0
1
-3
0
0
-2
-7
-5
-3
-5
-4
0
0
0
1
-2
0
-2
-6
-3
0
-1
-4
-8
0
1
2
2
-3
-3
4
13
0
-2
-7
-4
-1
2
5
6
1
0
-3
-1
-3
-3
18
0
-2
-3
1
-3
0
-2
-36
-13
-2
-4
0
0
0
1
6
-3
1
4
11
2
0
0
-3
0
-3
-2
-4
-2
-1
-1
-4
0
-1
2
-3
-2
-1
-2
5
3
5
-2
-1
-2
-2
-1
13
-2
-2
-5
-5
-1
-2
-3
1
0
-4
-3
-11
-2
-3
-1
-11
-2
1
-1
-1
-1
-2
0
5
3
-4
-1
1
-1
0
-1
-12
2
9
2
-2
0
-1
2
5
-6
0
-1
2
-2
-1
-4
-16
-7
-3
-3
-2
-1
0
5
-4
6
0
0
-4
-2
1
0
26
8
-3
-4
-6
-2
-1
0
-20
-8
1
3
5
0
-1
-1
5
0
0
0
-1
-1
0
-1
0
-4
1
0
-1
1
-1
-3
-4
-2
-1
2
7
-1
-3
-3
0
1
0
-2
0
-2
-1
3
-3
-4
-4
-1
-8
0
-4
-5
9
4
2
-1
3
-1
0
0
-16
-3
-3
-3
-7
-2
-2
-1
7
6
-1
-2
0
-1
-1
-2
-14
0
1
0
0
0
0
0
27
-8
-5
-3
-5
-2
-3
-2
-9
-2
-1
0
-11
-8
0
-1
-1
-11
-2
0
1
5
0
2
9
14
1
-3
-3
-1
-2
-2
-13
0
-1
-1
-2
-1
1
1
-3
0
-1
-1
4
0
-6
-1
11
-1
0
-1
-2
-5
-4
-5
-7
-8
1
0
3
-2
1
4
6
4
-1
1
-1
3
-2
2
-2
-1
-2
-1
1
1
1
1
-5
-1
9
2
1
-2
0
-1
-2
-1
-5
0
3
2
1
-5
-15
-4
2
0
-3
-3
1
2
-6
-4
2
0
1
2
0
-4
6
0
-5
-5
-3
-1
0
-2
9
1
1
-1
-4
0
-1
2
-14
-2
-1
0
-1
-1
-2
-2
0
-2
-4
-1
-1
-2
-2
-2
5
10
-19
-9
-2
-5
-2
-2
-17
-28
-9
-3
-3
2
1
-2
5
15
16
3
0
2
1
1
-2
1
1
-1
1
1
3
-3
-9
-4
0
2
1
-1
-1
4
2
1
-8
-4
-8
-3
-5
-8
-1
-1
-8
-2
-2
-2
-4
-4
5
5
-2
-3
-1
-2
1
-1
-9
-14
-6
-3
-2
1
7
4
1
-2
3
3
21
0
2
4
6
9
2
2
-24
-2
1
2
0
-3
0
1
2
0
0
-4
6
0
0
0
-1
-3
-12
4
-8
-7
3
-2
-2
1
-3
-14
-2
-7
-2
-2
6
-1
-3
-20
7
13
-6
-4
-5
-3
1
0
-1
1
3
0
-6
-1
1
1
3
6
9
3
-3
-2
2
5
0
-12
-5
-3
7
0
-5
15
-7
-2
-2
2
0
5
0
-24
3
1
4
-1
1
1
5
6
12
12
0
-2
-2
-1
-1
0
-4
9
4
-1
-1
-7
-5
4
-21
-29
0
-4
-5
-11
-1
6
20
23
-1
-4
1
5
17
4
-9
-13
0
7
28
5
-2
7
34
15
-5
0
-23
1
8
7
-12
-2
5
8
20
6
-2
2
-3
-12
-2
-5
-11
-10
-36
-11
32
-4
-1
-1
-17
-3
5
0
-54
-28
-6
-3
9
4
5
1
48
15
8
2
1
1
-10
-6
-8
13
1
1
-11
3
7
2
-29
13
0
8
-9
-5
-9
2
-1
-20
-22
-10
0
-6
0
-6
-17
2
44
8
-5
5
16
15
8
-11
-1
-1
6
8
-5
-13
5
7
1
-10
-4
-5
1
-8
-1
4
-3
7
4
1
1
2
-19
-10
-22
-11
-8
-5
-7
-5
-2
1
6
0
5
-5
4
17
20
7
-1
-1
-2
2
4
-12
-28
-17
-3
-2
8
1
8
4
-8
-12
-9
-6
1
-3
-2
8
-4
8
3
8
2
1
-8
-11
-4
9
-10
-4
-3
-6
-2
5
16
-2
7
-1
2
-1
-1
5
-3
-9
-10
-1
3
6
15
1
-18
-4
14
-3
4
2
-3
-9
3
-6
-1
1
-15
3
-22
-6
25
9
3
3
16
-5
-9
-7
-18
-6
-15
-2
-3
-8
-16
-2
-3
-1
-5
-1
7
2
14
-6
-3
-2
9
-3
-12
5
14
10
-2
-6
2
-4
-4
1
0
0
7
15
-2
5
5
-1
-9
6
14
1
-13
-6
-10
-10
-3
0
7
16
6
1
8
0
-6
-8
-9
-7
22
9
2
2
9
-5
-5
-3
-3
-7
1
-3
6
9
10
4
0
5
-1
2
-6
-4
-8
-7
-6
-1
3
-8
-8
-9
2
10
-16
-2
6
-26
-6
0
14
1
8
-3
-24
31
14
-2
-27
-13
4
-1
-2
4
1
7
3
0
-4
-3
-3
-5
1
17
6
14
-1
-1
-5
0
-14
-18
4
2
-2
0
9
-14
-12
-4
-12
-14
-12
-6
-3
-4
1
1
1
-7
-4
-3
0
1
17
-4
-20
-1
13
4
-13
13
0
6
25
17
-2
4
6
-4
-5
-5
5
2
1
1
11
1
-12
-7
-22
-18
-19
-8
-9
-12
-10
-4
2
-16
-10
0
5
12
15
7
15
17
27
2
-3
2
-6
8
-4
6
4
2
-3
-10
7
-11
15
15
8
1
0
-4
-18
-7
14
-4
-29
-13
-6
-11
13
-3
-25
-29
2
7
8
12
-4
-3
0
6
9
-1
-1
-1
8
2
-10
-2
4
3
2
8
9
1
7
3
0
-12
-7
-5
-23
-8
-4
4
-13
7
6
-11
9
-7
-1
-5
-4
-3
2
3
-5
-14
-9
-6
1
-3
1
3
13
26
-2
3
2
-2
-6
4
-8
-9
-5
-13
-10
-4
-5
-12
-21
-3
-7
-4
-7
-2
-14
-12
-24
-3
5
0
-7
-2
-2
-3
13
-11
-13
-23
-1
-3
5
4
21
9
29
33
8
-2
-6
10
12
3
-15
-21
1
-4
-7
-1
-23
-10
0
-9
-25
-6
-7
-16
-22
10
6
15
12
5
7
0
49
13
2
13
27
10
11
21
-24
-33
0
-16
-1
5
-1
0
29
17
-14
8
22
1
-1
5
-30
3
5
-1
-29
-12
-15
-24
4
-3
16
-5
-11
-6
0
-2
-16
-14
4
13
8
-1
1
-6
22
28
0
-10
-6
-2
4
1
2
-40
-3
10
8
9
5
15
-34
10
-20
-16
-16
-14
-12
-25
-39
-57
1
-18
-24
-3
-12
-1
56
54
0
7
21
13
25
11
19
16
12
-14
-10
-2
1
-7
-16
-36
-2
36
6
-2
-14
12
-14
-34
-4
-41
-10
-13
-10
-22
34
16
-17
10
-22
-4
1
16
-20
74
-12
35
52
10
1
-5
-9
-10
-11
-24
38
12
10
-8
25
-8
5
23
0
11
-1
13
-25
7
56
6
-16
-5
-8
-3
2
3
4
0
-23
-11
10
-1
-81
-34
-7
-10
16
10
-13
-21
87
65
-1
14
17
0
7
28
-16
-42
-35
-19
0
3
-1
8
20
-13
-18
-17
-20
-1
-4
3
-40
21
-9
-14
-31
-18
0
-24
34
33
12
7
-6
7
16
-5
-12
-63
10
10
-1
-2
-10
17
-4
-25
7
2
28
6
25
6
33
9
-22
-6
-26
-14
-3
2
-10
13
1
-2
0
14
0
-12
-33
-4
-6
3
-10
-7
4
-15
11
-9
0
-8
-7
-9
-9
10
37
8
19
-13
14
5
2
10
-33
-10
-47
-15
-8
-14
-11
-4
-42
-38
62
39
9
-1
-7
-22
28
43
-36
19
-8
0
0
-11
39
-31
-10
-32
8
3
-8
25
-15
-12
11
-13
1
-5
-3
1
-15
-18
-21
13
15
4
-2
-8
2
14
14
0
-3
-2
-4
-8
-6
-29
14
15
-16
0
11
-10
-40
13
-4
-5
-6
-7
-13
-8
47
4
-13
-23
3
6
8
21
9
-19
34
10
9
4
-8
7
-65
-28
-35
-3
-16
-18
2
-19
48
24
12
-5
-9
5
-11
11
-20
-3
0
-13
-11
5
12
-24
57
-9
-5
37
39
20
11
30
-17
9
3
-17
-25
-3
-6
-8
-14
-20
22
40
31
-4
6
-7
0
9
-20
-24
-17
-11
1
-5
-38
-13
19
-20
-14
3
-22
-13
-28
20
-15
17
6
0
-10
-1
19
5
10
26
17
5
13
23
3
3
-17
-3
5
-5
-13
-6
-35
-33
-5
-19
-16
-11
2
-12
-57
-19
18
-2
-15
0
-1
-17
98
48
-13
-5
1
5
6
32
-11
17
16
-3
13
3
1
4
-7
-23
-6
-9
-5
-9
-5
-6
34
41
-5
0
-2
11
9
4
-58
-40
-2
1
-12
-5
-3
-19
21
21
6
0
-2
17
39
30
35
20
2
-3
27
1
2
15
12
0
8
12
7
-3
-6
7
-32
-15
-21
0
-1
-6
-2
-15
-24
5
9
-33
-30
-13
-19
-28
-19
-9
-5
38
28
5
15
-3
45
67
-19
-37
-1
3
-4
22
-24
-48
-6
7
4
-1
-3
-15
0
51
-3
-6
2
-5
-13
-2
-37
-60
-59
-28
-29
-9
-23
-18
25
16
16
-17
-26
-2
21
3
0
3
17
29
25
1
-5
13
2
16
-3
10
16
-2
-10
11
-18
19
28
5
-13
-3
8
-4
38
1
-3
2
-23
-13
-19
-6
-44
2
-16
-31
-10
9
24
-14
63
-5
17
28
18
5
14
25
-16
6
4
-30
-25
-2
-9
0
-5
-31
24
48
31
-2
-21
-8
6
-37
-30
-40
-26
-8
5
-3
-28
-49
6
34
14
-2
-14
-14
10
42
-32
-10
-5
3
4
15
1
-24
-8
-19
14
7
4
-2
12
2
-11
-16
-9
-5
-1
2
-63
-73
65
-15
-9
-7
-14
-14
27
-1
-79
-20
-39
-14
-8
-9
-12
-54
-44
10
22
2
3
-4
-3
3
30
43
10
2
4
2
34
60
7
-60
-14
-2
-2
5
-40
44
18
31
18
-5
-1
-8
-21
-43
-43
-1
-17
-6
4
-3
28
-21
3
-14
-11
2
-4
-5
-33
-26
-26
34
20
9
7
-9
-13
-24
52
-20
-24
-6
-21
0
26
85
-37
10
23
0
-16
12
-73
-60
-49
-25
-14
-10
-15
-29
35
-32
5
-13
-7
3
2
10
9
-40
26
22
9
10
22
-2
2
16
18
13
-5
-3
5
-2
29
46
20
27
18
2
-3
15
-3
3
-32
-8
30
7
1
9
8
-14
27
-4
-11
-2
1
0
-6
-7
0
-1
-9
-11
-6
-13
-28
13
47
-21
-27
-8
1
-6
22
63
-44
17
10
6
11
9
-37
-35
5
5
4
-3
-6
-6
-6
-29
16
-15
-4
-1
1
-6
5
62
15
8
6
4
-2
10
-20
-37
-28
-36
-25
-11
1
-2
65
-5
4
43
23
5
-3
6
-13
-22
3
-15
-9
1
17
-10
-16
39
52
9
-2
6
-9
14
4
112
-63
-3
-2
1
-17
-13
10
-24
2
-13
-5
4
33
17
8
17
49
18
-9
3
-1
1
9
-32
-32
3
17
3
8
-8
-17
-7
-18
-19
-16
-9
-12
-2
-10
16
-1
-5
9
0
-15
-7
30
60
26
3
-5
1
4
7
-25
-2
24
-27
-4
-3
-1
-4
-5
-46
-25
25
-6
-9
-2
-11
2
25
-43
-24
6
1
-3
-5
7
-83
66
-32
-18
-2
2
4
12
53
-72
44
21
-3
-3
-4
-11
-47
25
-9
5
-1
-1
-4
14
42
9
-1
7
2
-2
2
14
7
28
10
-2
2
-2
3
26
20
-21
-10
-16
-5
4
3
-20
25
-11
0
1
4
5
-2
27
10
15
-4
6
5
23
3
-27
-4
-33
18
2
-6
-57
-7
-21
-73
12
-3
3
4
23
-1
2
34
28
-23
-1
-11
-12
-10
-18
-8
0
5
1
1
4
4
5
60
-12
-23
-10
-10
14
4
21
-8
1
8
5
0
-16
0
-16
-75
31
21
-4
0
-2
-2
-10
-8
-38
-22
-9
-6
-12
-1
19
4
-30
-1
1
6
23
-4
15
48
-6
2
-22
-4
-10
8
-16
14
13
-31
-10
-3
6
3
9
-58
16
32
28
13
13
4
-25
57
-33
21
16
1
-14
0
-11
-60
-17
-21
-19
-9
-5
-18
9
-13
34
8
-11
-11
-13
-7
2
1
-16
-21
-14
3
2
2
-29
-33
26
10
-5
0
8
-13
64
78
-27
15
30
9
4
29
-10
-1
37
30
3
0
-7
-6
-3
44
-18
-17
2
-6
-4
6
6
-13
-5
-8
-11
-1
-11
-3
-30
-15
-10
8
-2
-6
-3
-16
19
-2
-27
-24
-3
7
9
8
-14
15
1
-2
-4
7
10
-9
1
12
7
20
15
-3
-6
-5
27
-18
7
6
6
-2
15
20
32
44
-9
5
12
2
-28
6
-21
1
-18
-4
-5
-1
15
-11
11
-1
48
-16
-6
-2
-13
6
-12
0
34
-34
-32
-6
-4
-18
-5
-16
-25
15
28
3
21
13
3
-20
15
-6
-1
-5
-22
-4
-13
-26
9
3
3
2
24
4
3
40
32
6
-4
10
12
1
-15
-16
-8
3
-15
0
5
-6
28
12
24
5
8
-5
-20
10
0
5
-22
-9
2
0
17
-1
-30
-67
-53
14
13
1
-10
-7
-17
-11
3
-10
-14
-7
-25
-15
-4
-7
19
-9
-9
1
1
-2
10
31
-40
-40
-23
1
7
-2
34
27
42
50
26
0
-1
17
4
11
-26
20
4
-1
19
-3
2
-7
14
3
-10
1
3
3
-7
-34
12
-6
-3
2
-11
0
-21
-23
-24
-6
-6
2
-2
-10
10
36
-19
-10
10
4
0
0
-15
-26
8
-17
-13
-8
-6
-6
11
7
-2
52
13
-3
4
3
-20
-13
2
-39
-19
-3
-13
-15
18
2
18
14
18
9
10
2
-1
11
32
13
22
0
-11
7
-16
-18
-25
-9
-2
-2
-5
-5
4
8
-25
-21
-7
-7
3
6
-29
3
29
-16
-33
-9
-5
-21
36
20
-15
7
-2
-10
-22
0
-5
-15
-12
0
11
10
29
3
-14
37
19
6
-1
-4
-19
-7
5
-45
-5
-11
-6
3
0
-1
-18
-34
5
-23
-16
-12
-5
-14
-66
-11
-21
17
13
-1
-15
-7
2
-17
33
8
23
10
9
14
41
40
14
23
0
-2
13
13
-40
-11
-60
9
-3
-5
-10
-5
39
5
11
-50
-22
-9
-4
-2
10
6
-13
-17
0
6
9
-5
-2
-19
18
15
-1
-1
-16
0
-27
-2
-9
22
-11
2
15
-4
12
37
2
0
13
0
-11
6
26
-16
-21
-17
-5
-6
-2
4
17
36
25
-5
3
-3
12
5
9
-12
-19
-18
-16
0
-1
-6
-7
19
-6
19
-2
-1
10
0
36
6
50
7
13
3
1
12
-14
-4
-60
0
-9
-7
4
-2
-16
-21
45
-5
11
-2
2
-2
7
-5
-25
15
-8
6
15
6
42
-7
-2
-26
-34
-8
-27
-13
-68
42
3
25
44
11
0
16
33
5
-2
14
3
-1
10
6
15
13
-16
7
4
2
0
-1
-23
-22
10
-7
-5
-5
0
-11
25
13
0
-43
-18
-5
-9
-7
-9
15
-21
10
2
-3
-11
-2
-9
-29
61
32
7
0
-3
0
-19
7
-48
-12
0
-5
2
-2
8
-22
-9
-15
-9
-2
-5
-2
-22
-17
-4
-3
8
1
3
-6
3
2
21
-21
-19
-9
-1
-8
-46
-16
6
34
10
4
-11
8
31
-8
-11
6
-5
-2
-5
15
28
12
3
-8
-3
-4
-13
-11
14
16
7
18
11
9
6
10
-38
-31
25
-5
-7
1
4
-8
-32
-47
29
-23
-14
2
1
-26
-8
25
-33
-4
-13
-2
-5
23
21
29
-34
0
9
-2
-24
-2
-12
-16
4
32
15
3
27
13
3
-29
-25
-10
-13
-7
1
-11
-15
6
19
-8
17
1
-1
-18
45
-84
-5
-17
-15
-10
2
6
-23
22
13
-8
1
-4
-13
-13
0
-5
20
32
7
9
12
6
5
13
-41
-13
5
2
-11
-5
-27
-4
11
-22
-5
-10
-7
-2
26
22
-14
-12
-10
-1
-6
-4
-15
-29
4
-16
-15
-1
12
-9
11
-6
35
54
7
4
27
7
4
7
-32
-15
0
7
-22
9
3
39
12
-12
-13
-12
6
2
-21
-39
-51
4
21
-3
-19
-10
-1
30
16
7
-3
-4
-11
-12
-1
3
47
-8
-2
-4
11
2
8
-3
-43
6
4
11
14
-2
3
-22
-11
-43
-10
-9
-13
-10
10
37
10
-8
20
15
10
23
2
-7
5
28
-11
-13
-7
4
-17
-6
-72
-19
20
1
-7
-2
-2
2
82
5
-7
-4
2
-1
11
-33
-47
2
-19
-6
12
-10
-46
10
4
7
16
12
-6
-17
98
-19
33
8
-10
0
-10
22
5
127
1
1
-5
-3
-3
2
-15
-13
-2
-18
-18
-10
-9
-13
-12
-26
-20
-15
16
9
36
18
-11
15
21
3
-9
-6
-8
-13
27
-7
0
18
-10
-2
-2
-3
-4
1
15
-78
-34
-11
-8
1
55
72
2
59
54
9
14
45
-32
-84
23
-6
-18
0
1
-18
2
25
-12
56
29
3
-5
1
-18
1
-24
-38
-19
-1
9
-18
16
-31
-21
-38
-30
-7
-14
-3
13
37
7
15
3
1
-5
3
18
7
14
5
-1
-3
-1
-4
-16
-59
3
35
24
13
13
19
-27
64
-23
-38
-35
-13
-18
-30
5
28
-2
-5
8
-2
-8
-5
8
-22
-20
24
27
8
5
10
31
44
35
26
14
-1
-8
12
-12
-28
37
-32
-41
5
20
-4
-45
31
-15
20
25
-1
7
-23
6
-57
-28
-32
-10
5
3
5
37
20
-8
24
20
-1
3
36
-57
-4
-13
-3
-13
-4
-1
-14
21
-6
11
-9
-11
-4
2
-2
-18
68
13
-12
-3
1
-1
-1
26
-4
-24
27
1
14
13
-3
-19
-95
-42
-23
-9
-4
-5
-16
-41
-8
17
-6
-10
-7
-7
-5
7
-47
-8
21
27
8
8
5
16
4
28
-6
-19
-10
-19
-12
-28
-15
21
15
3
1
-1
17
32
60
-14
33
29
14
8
24
6
-5
-28
-53
-23
-14
-9
-4
-25
-5
-16
11
15
2
4
-18
14
-10
25
0
5
-5
-8
-13
-26
-39
20
-13
-20
-8
5
-4
-24
10
-5
2
-30
-3
-8
-2
-15
11
7
5
21
5
-17
-7
30
82
4
7
29
5
4
17
-12
-4
-7
-13
-16
-7
-2
-3
9
-27
-12
2
2
1
5
-1
-19
-21
4
-11
-10
-1
18
-6
16
9
16
8
-1
4
-14
-2
-4
-38
9
3
4
-4
-8
-6
4
46
-8
-1
2
8
2
13
-24
-18
-5
-13
-13
-12
7
-13
1
-8
-24
9
3
-7
-27
-8
1
3
-10
-16
-2
9
18
4
-2
-21
31
13
8
-1
-12
2
9
11
-16
1
-7
-4
9
8
-1
13
11
-3
-1
0
6
-10
-8
-9
-55
-3
-1
-5
-8
-1
-4
-14
-13
-15
-14
-12
0
-2
-3
2
29
-7
-1
4
-2
2
0
-26
-19
23
14
-2
5
-5
2
-4
6
4
-6
8
20
6
-4
-1
11
-6
-2
-5
6
-1
-6
-8
-11
-4
-5
-16
-38
-8
5
-1
9
-7
-8
1
4
-3
5
10
8
-4
-4
-1
-6
3
-4
-1
4
1
2
-3
7
-3
-2
-1
2
-5
1
-3
-8
5
3
-5
-12
-4
2
7
10
-4
17
5
17
1
-3
-13
-4
-3
-12
-10
-6
8
6
26
1
14
-3
-6
2
-1
-2
1
1
1
-3
0
-29
3
-3
-5
-3
0
-3
-3
-1
-14
-2
-5
2
-5
1
-5
1
1
-3
-14
-4
-4
1
6
12
5
-1
2
-2
2
-6
-7
5
14
2
1
-5
-2
-2
10
18
-5
6
4
-7
1
2
-6
-4
14
2
-4
-8
-8
-3
-5
6
-8
-6
1
-5
2
-2
-6
-21
-16
-4
-9
0
-1
-3
5
37
14
-13
-5
-7
3
1
-3
-14
1
22
3
2
-1
2
5
7
4
9
1
2
-5
0
-2
13
2
-2
0
6
-5
-3
-3
-22
-5
-2
2
1
4
1
-11
-8
-14
-15
-2
-4
-1
-5
-1
4
2
-3
-1
5
-1
-1
1
20
1
6
-2
-21
-4
20
9
-8
27
3
7
6
24
-9
-5
-29
-40
-6
-2
2
-23
-11
-3
36
-3
-2
1
6
-12
9
-3
-11
5
-7
-4
-15
9
-14
-4
7
2
1
2
15
-8
9
4
-35
7
0
-10
-10
4
16
-1
-4
16
4
0
-14
-2
-10
2
18
-3
-1
7
-4
-4
-3
-3
-1
16
-1
-3
-7
-3
-4
0
2
-19
0
-1
2
6
1
-3
-7
-10
-3
-5
1
-4
6
-4
1
-3
-1
-5
12
3
-2
-1
-45
-34
1
-2
-12
-5
-2
-6
37
29
-5
-1
0
0
-6
-8
-10
11
-2
-1
4
7
-1
0
-37
-14
-3
-4
26
-2
-8
2
2
-13
-3
1
-18
-1
-6
-3
-1
-8
-2
-6
-15
-5
2
-3
21
-2
-3
10
29
8
-7
-7
-9
12
6
0
3
-5
3
4
-27
-26
-14
-7
2
-8
1
10
70
38
2
-5
9
5
-3
-10
-52
-45
-5
4
-6
-1
-5
3
38
12
-1
-2
-6
-7
-6
-15
-2
18
1
1
9
5
-3
-7
-26
-11
-1
2
5
1
2
7
15
24
1
-5
-19
1
0
4
10
9
-4
-5
1
-7
1
0
36
-3
6
5
5
1
-5
0
25
8
-3
3
19
-1
3
-2
-37
-18
-4
-1
-5
-1
3
2
13
2
-2
-1
-6
1
0
-5
-34
-35
-2
-7
-22
-8
2
2
-8
-1
-3
4
0
1
-6
4
26
21
1
-6
-2
-4
-6
-3
-10
-8
4
0
-15
0
-2
-3
-10
7
0
-6
-1
-1
5
6
15
7
1
4
9
0
2
-5
-27
-26
0
10
0
1
1
2
-6
15
0
2
6
7
-6
0
16
1
-3
-2
-2
-4
3
-2
-42
-19
8
-4
-11
8
-3
1
27
42
2
-3
-10
-12
-5
-5
-16
-39
-12
-2
17
-4
0
-1
-35
24
5
4
-4
6
0
2
26
-6
-3
0
-9
-3
-1
-1
11
19
4
-2
-2
4
-1
0
8
-35
-1
-1
20
-2
8
6
32
21
-1
4
-12
0
3
-2
-10
0
-1
5
2
2
0
2
-27
-12
3
1
13
2
3
0
21
28
-1
-1
-23
-4
-12
-7
25
-3
-4
-11
-17
-6
0
-2
-12
0
-3
11
25
4
-2
3
-5
-12
-2
-4
-9
-2
1
-2
-44
-8
2
5
9
6
0
1
-3
2
0
-3
0
-6
-2
-6
31
2
-4
-6
-14
-4
-3
-3
-24
-8
-4
-7
-1
-6
-4
-2
31
5
2
-1
-3
-3
-4
1
-3
-5
1
1
-3
-3
-10
-4
-25
-7
-1
-4
0
-4
-1
-3
-2
-14
-5
-5
11
0
6
5
19
8
2
0
5
2
-1
1
10
26
7
0
-15
-4
4
5
-6
-9
-3
13
24
5
-2
-1
19
2
3
7
-4
3
-2
1
-23
-10
-2
0
-10
-3
-1
0
-9
-13
-1
-2
9
0
1
1
-16
-5
-1
-12
-18
-5
-3
-3
17
20
-3
-4
-6
-2
-1
-2
-17
-4
-3
-2
1
0
2
1
0
-7
-5
2
4
2
0
-3
7
12
1
-3
-6
-9
1
-2
-23
-17
0
-2
7
9
-4
-4
4
6
-4
0
25
-2
0
-1
10
-2
-5
0
-7
1
-8
-1
-19
-10
-1
-3
-22
0
-13
2
6
4
-2
1
-4
-3
-1
-4
-35
-14
-2
-6
-2
-4
1
0
16
12
2
-1
9
0
2
5
2
19
1
2
9
3
-2
-10
17
-20
-9
-10
-23
-5
0
2
-1
0
0
3
-5
3
-2
-2
-18
-11
-1
-2
1
-3
1
-3
8
-5
-3
-5
-12
-1
9
3
-12
8
3
2
6
1
-4
-4
6
4
1
-2
-9
-2
1
0
19
-3
-2
-2
-1
-2
-1
0
-1
0
-1
-4
4
-3
5
-1
-30
-7
-1
3
8
5
-3
-3
30
-4
-4
-2
-10
-1
-3
1
3
-2
1
0
8
-2
-1
-5
-13
-2
-1
-3
-9
-1
-4
-3
-6
-1
-5
-7
-7
-6
2
2
-4
2
3
2
-5
-1
-1
-1
-1
8
-2
-3
-1
0
1
2
11
0
-1
1
13
-8
0
1
20
3
1
-1
1
9
-2
1
-15
-3
0
2
-5
0
-1
-4
-20
-21
-3
3
11
4
-1
-2
13
4
-1
-5
-9
-2
5
1
-41
5
1
-1
-9
-3
-3
-3
26
6
-5
-3
4
0
-2
-4
-8
-2
-2
-2
-14
-5
-1
-1
-16
-12
0
-1
-9
1
3
4
10
-7
-1
3
11
7
-5
-2
-3
22
1
-3
-3
-7
-1
1
-1
-7
0
-2
0
-3
-1
0
-10
4
2
3
2
2
0
2
4
-15
-2
0
0
-2
1
2
-10
-5
-3
-3
-6
0
2
-1
0
5
2
-3
3
1
0
-2
0
-5
-1
-1
11
1
-5
1
19
1
-2
-4
-1
-6
0
-1
-9
-1
-2
2
-9
0
-2
-1
-5
-4
-2
3
7
2
2
0
5
15
5
1
-4
1
1
-2
-18
-10
-6
-2
-3
-2
1
-2
11
5
-1
-6
0
-2
-2
0
-3
-11
-3
0
2
-1
0
-1
-9
-7
-3
3
6
-3
-1
-6
14
9
-2
0
-9
3
1
0
-32
0
1
0
-9
-1
1
2
17
-7
0
0
0
-2
0
1
16
3
-1
-2
1
-2
-5
-6
-23
-11
-5
-2
3
-8
2
2
-2
-7
-1
-4
-29
0
-2
-3
-18
4
1
-1
13
-1
-3
-4
1
-3
-2
-1
-10
-1
5
3
26
3
5
3
12
2
-2
-1
-9
-1
-1
0
4
1
-2
0
3
0
-1
0
-5
-2
-1
0
-11
-5
-1
-3
-4
-1
0
3
11
14
1
1
1
-1
-3
-5
11
-8
-2
0
7
0
1
4
-21
1
-3
-6
-13
-3
2
3
8
3
4
4
14
4
-3
1
-5
-6
-3
-5
-4
-4
-1
1
12
6
-1
-3
9
1
1
-6
-29
1
3
5
1
1
-2
-3
6
-8
-6
-5
-7
-3
0
4
2
1
-3
0
-1
-4
1
-3
-16
-7
-3
-2
-1
4
-1
-5
-14
-3
0
-2
8
1
1
2
-1
3
-2
5
1
3
-2
-2
2
-4
1
-3
3
-4
-3
-3
3
2
-1
0
-16
-5
-1
0
13
8
-1
5
14
2
0
-2
-6
-1
4
-2
-11
0
3
-2
-6
0
-2
3
2
-1
-5
0
-8
-10
-1
0
7
-2
0
-2
18
2
1
2
-9
1
-2
1
1
-1
-3
-1
0
-1
-1
-5
-30
2
1
2
1
1
4
1
32
-3
-1
1
3
0
0
-4
8
-7
-3
0
3
4
-4
-3
-2
4
1
-1
-5
-4
0
1
-21
-9
-1
-3
-3
-1
2
3
2
-4
-2
1
3
-1
-1
-2
-2
3
6
-2
-3
-3
0
-1
4
4
-2
-3
5
0
-1
3
33
9
4
1
-3
0
0
-1
-27
-4
1
-1
3
3
-2
2
12
-3
-9
-7
-7
-3
-1
-4
-11
-7
-8
-1
-1
0
-3
-1
-2
0
1
-1
12
-10
0
0
3
-8
2
1
-1
8
2
2
9
18
4
-1
-11
1
-4
-2
5
-6
-6
1
-1
0
-1
-2
5
3
-2
-2
-3
1
-2
0
-10
-5
-1
-1
1
-5
-1
-6
-28
-10
2
-1
1
-5
-4
-4
6
13
-2
-4
-1
-1
-2
0
0
3
2
2
2
0
-3
1
7
2
-2
0
-5
0
-4
1
-5
-7
-4
-1
-15
-4
3
1
2
-7
0
-3
3
0
0
-5
-36
-10
-2
-2
-2
1
-1
-2
34
20
-1
-2
1
-3
-2
2
-19
-4
-2
0
4
-1
0
-1
2
-5
-1
0
0
0
-1
1
1
-7
-6
-4
-4
1
0
-1
-21
-9
2
0
-3
0
2
-1
18
7
7
2
7
1
-1
2
9
7
4
-2
-2
0
0
1
1
3
-3
0
-5
1
-3
-3
-6
-11
-2
-2
-11
-5
4
3
0
5
-2
1
-2
-1
0
-3
-9
-2
-2
1
-2
1
2
3
19
9
4
3
14
4
-2
-3
-12
-3
-2
-1
-1
-4
-5
2
11
-3
-7
-7
-4
-2
-1
-1
-9
-5
-7
-1
1
-2
-3
-2
5
-2
6
0
-5
-1
0
2
-14
-7
0
-1
5
-4
0
0
-3
1
2
-1
2
5
-2
-1
12
-1
-3
-3
-4
-5
0
0
9
6
-3
-1
-5
0
-2
-2
-15
-1
0
-2
-1
1
-1
-3
13
-1
-4
-1
0
-4
-2
-2
-10
-9
1
-2
1
1
1
0
-3
7
3
1
-5
0
-3
-3
18
5
-1
0
0
-2
-4
-5
-12
-8
-6
-4
-4
-4
3
0
-12
-1
2
5
7
3
-1
-1
1
-8
-6
-3
-5
-2
0
0
5
8
8
3
6
0
-1
0
-5
-2
0
4
-4
-2
-2
1
25
-2
0
-4
-3
-2
-2
-5
-18
-3
-2
-1
-3
-3
0
2
-4
4
-2
-3
-2
-1
-1
-1
-10
-2
-1
2
3
1
0
4
10
0
-1
-5
-5
-4
-4
-6
18
3
0
-1
5
-2
-4
-3
-2
-5
-3
-5
-3
-2
0
-1
-5
-4
-8
-3
1
1
-2
-2
-17
-5
10
2
-1
1
1
3
1
10
1
-1
2
-2
-2
1
23
14
4
0
-16
-1
-2
0
7
-3
0
-2
0
-2
-3
-6
-13
-2
-4
2
5
0
2
-1
-13
-16
-3
-1
5
2
2
1
-13
-3
2
-2
-3
-6
0
1
37
19
1
2
-6
3
-4
2
-11
2
-2
-4
-4
0
-3
-1
7
-2
-4
-2
-5
-3
-2
-1
-14
-12
-7
-2
8
1
1
-1
-11
-14
-2
-2
-5
-6
3
-2
-12
-2
-4
0
0
-2
-2
-1
15
22
0
-2
-4
-5
-1
0
0
-4
0
2
3
0
0
2
14
4
3
-1
1
0
-3
-2
-6
-7
-2
0
-1
-1
-3
-4
-20
-17
-2
-2
-4
1
-8
1
17
16
-4
-1
-1
8
-3
-3
-12
-4
8
7
11
-6
1
1
5
-1
-4
-2
0
0
-3
-4
3
1
0
-1
-6
-1
1
-2
-9
-14
-6
3
2
0
1
-1
-15
-6
-5
-2
5
2
0
-1
10
14
4
-1
-10
-2
4
0
-10
1
2
5
4
2
-6
-2
1
-6
-2
-4
0
-3
0
0
-3
-7
2
0
1
0
2
0
-1
-3
-5
-1
3
-3
0
-1
-6
1
4
1
-18
-3
-1
-2
-9
-5
0
-5
-1
-2
-1
0
11
5
1
0
-13
1
0
1
-7
-2
-2
7
14
4
0
1
13
-3
-2
-1
3
2
1
-2
-7
-4
-2
0
3
-1
-2
0
-1
-3
-3
-7
-8
-4
0
-1
1
10
0
-3
-3
-1
-5
-1
-3
0
-1
-1
3
-1
1
-1
15
3
-2
-2
-7
-4
-2
-1
-14
-13
-8
-4
2
1
5
-2
-18
-8
6
0
-2
1
-5
-4
25
10
-1
0
8
-3
-2
-2
-5
-5
-3
-1
-2
0
4
2
-6
-7
-4
1
4
4
3
0
-10
-5
-4
-4
0
-2
1
-2
2
1
-2
-2
0
0
-3
-2
1
2
-3
-1
1
-3
-5
-5
6
-4
3
-1
-4
-2
-1
-1
-2
-9
2
-1
8
0
2
1
-19
1
1
1
-21
-2
0
2
14
7
2
1
2
1
-3
-3
-9
3
-2
1
6
0
-4
-1
0
-10
-6
-6
-6
-1
-2
0
-2
-4
5
0
5
2
6
2
-3
-2
0
3
3
0
-1
0
-1
6
2
-2
-7
-1
-4
-1
9
6
-1
-4
-1
-4
-2
0
1
-4
-5
-2
-9
-1
-3
-2
-10
-4
-1
0
-1
1
-1
0
-3
-1
4
2
4
1
1
-3
-9
-8
-2
1
-3
-2
-1
-3
21
23
-3
-3
4
-1
-2
0
5
0
-3
-1
-2
-3
-1
-1
0
3
1
-2
-10
-4
-1
0
-8
-11
-4
-2
-6
-2
0
-1
-25
-21
2
1
9
0
5
1
0
13
0
-7
-10
-2
-3
-9
9
8
0
6
12
0
-2
1
3
4
-2
2
1
-1
-2
-1
-6
-11
-8
-2
2
-2
-2
0
-6
-7
10
0
0
0
2
0
-6
-8
-3
-6
-30
-3
0
-1
-2
3
0
0
3
0
-3
0
8
4
-3
-5
2
0
-2
1
1
7
-2
3
7
0
-1
1
4
-11
-6
-3
1
-2
-2
-2
3
3
0
1
-4
2
0
0
-10
-11
-3
-1
-5
-1
0
-2
-3
4
2
-3
-1
-1
-1
0
-8
3
0
-1
1
-2
0
-1
2
-2
-2
0
3
4
1
0
-9
-4
-2
2
-2
1
-3
-4
8
-1
-1
0
-2
-3
-1
0
7
-5
-4
-3
2
1
-3
-4
14
6
2
-1
-4
-4
-3
-1
-17
-2
-4
-4
4
-4
-1
1
-6
-11
1
-1
3
0
1
-3
1
11
6
7
8
0
3
1
4
2
6
9
15
2
-2
5
10
10
0
-2
-6
-4
-3
0
4
-8
-15
-9
5
0
-5
-3
-6
-3
0
-5
-10
6
2
-2
2
3
2
-4
-12
0
-1
-7
-17
1
5
7
16
1
1
4
13
-9
-5
2
-1
-2
-8
-4
0
5
-6
-4
-1
-7
-4
-2
-9
-3
1
-1
-3
1
-1
1
-3
-7
0
-2
-2
0
6
-2
-9
-7
0
0
1
0
7
3
5
5
-1
-1
-10
3
-8
1
15
19
3
-1
1
-5
-1
-1
3
-7
-2
-2
-4
-3
-4
-2
-4
5
-1
3
-2
1
0
5
-6
-13
-4
-4
4
-1
-3
0
-6
-13
-6
-7
6
-3
5
-4
7
13
3
4
3
4
0
-15
2
4
0
4
10
2
-3
4
-1
0
-2
-2
0
-5
0
1
-7
-2
-11
-3
1
-2
0
9
4
-18
5
-1
-2
1
4
-1
-43
-16
2
0
-6
1
-3
-8
47
46
6
3
8
0
-5
3
8
8
-3
-5
-9
-5
-3
-6
9
-7
-9
-5
-9
-1
-2
1
-7
-3
0
0
-3
-2
2
-2
-31
-19
-3
-1
4
1
1
5
-4
-5
-5
-2
-12
-1
-1
-4
8
0
2
1
7
1
-2
0
11
8
2
1
4
0
-4
0
-5
2
-2
-1
7
-6
-2
-4
4
1
-8
-1
5
1
8
2
-10
-17
-2
-6
-3
1
-1
-2
-2
-8
-1
-1
-4
0
2
1
1
8
1
6
4
3
-3
-7
1
1
1
-3
-8
-5
-7
1
3
6
-1
1
6
-3
-8
-1
-9
3
-7
-7
-7
-3
3
-3
-11
-27
-9
-5
-6
0
3
3
-4
-2
16
5
5
1
-7
-5
-5
6
-2
-6
-5
-2
4
-3
9
1
-1
0
-6
-2
-5
1
1
-7
-10
-5
-6
-1
-3
-2
-1
-1
-12
-1
-12
-1
0
3
10
18
27
12
22
4
5
3
-30
-28
5
2
11
0
0
-2
20
6
9
-1
-13
-3
2
1
14
3
-1
9
27
8
-8
-2
6
12
-12
2
-13
-6
-6
1
12
6
-3
-4
-7
0
11
4
-36
-12
0
-8
-13
1
-3
-4
-2
-6
-2
-9
-14
0
0
1
0
0
-4
-4
-3
-2
-6
0
1
3
4
5
7
-2
-6
-12
-10
-8
-5
-2
9
-4
-1
6
26
5
4
2
4
-2
-5
1
-19
-6
-8
-2
-1
0
0
4
13
2
-5
-3
-10
2
8
-1
2
13
3
0
1
3
1
-6
-14
5
3
1
-9
1
9
2
5
-10
-2
-3
8
0
-8
-1
5
3
-3
-1
-1
-4
-12
-12
-14
-15
-8
-2
1
-2
10
6
-16
-16
-2
-6
-8
0
-3
-1
-8
-17
-3
-3
-25
-3
4
0
17
32
11
12
5
3
4
9
3
8
-1
0
3
-1
-10
-10
10
1
-3
-1
15
-20
-10
-4
-8
-9
-9
-9
-30
4
10
4
-3
-19
-1
-3
2
20
10
-2
-2
-13
-1
5
6
-3
2
8
13
18
2
-3
-5
0
-1
-1
8
17
3
5
10
-6
-10
-2
-2
0
-2
-2
-2
-10
-8
-3
36
0
-1
-1
-1
1
-2
-2
-47
-32
-6
-1
-1
2
3
0
11
7
3
0
2
0
-1
-5
-10
-3
-1
-9
-10
-4
0
3
29
31
9
11
1
4
-11
-4
-25
-21
-3
2
-2
-5
-14
1
-9
-4
-4
-3
1
-3
18
6
-12
-7
-1
-2
1
8
15
-8
-4
-14
2
-13
12
2
14
1
20
21
3
11
9
9
-7
8
9
13
4
5
11
-4
-24
-22
-11
-9
-5
-3
-13
-13
-7
-1
-39
-14
-3
3
6
-3
-8
0
13
9
2
-3
-4
3
22
2
-10
-6
-2
-2
6
5
-1
-5
42
25
-4
0
3
-2
-6
2
-12
-4
2
7
-3
0
-7
-6
7
-4
-1
-5
-1
-4
-12
-9
3
-12
-6
-2
-1
-5
-4
4
-11
-2
2
-2
-1
-2
-7
8
-9
-7
-7
-5
-12
-3
10
-13
-15
9
3
-2
7
4
4
-1
19
3
3
-1
9
3
18
2
-2
-16
-6
-5
-35
3
-15
14
-5
0
3
10
12
-3
-10
-12
6
11
-1
1
3
-6
-3
-15
-5
3
-7
-5
10
-2
17
9
-17
-21
7
-2
-14
6
1
-5
9
9
4
0
-3
0
-3
0
-5
-2
-1
-7
-7
-1
-10
-6
14
19
-1
-3
-29
-9
-16
-5
2
8
-3
11
18
-4
-13
4
-10
-11
-1
-4
-8
-6
12
-5
26
-9
1
2
6
4
16
-6
-37
-13
2
-6
0
4
6
9
2
12
2
2
6
3
4
-5
-7
6
4
3
3
2
-19
-3
25
-5
-7
-6
-12
-12
-13
10
-11
-22
-11
-3
-5
-3
28
2
-8
-1
5
3
15
11
-9
2
-5
-16
-7
-11
-7
-8
12
-8
26
27
13
13
-1
10
1
2
1
20
0
4
6
-4
-24
-5
5
5
-3
-3
-3
-13
-4
2
-6
-2
-10
-4
2
4
12
-8
-35
-30
-4
-2
-5
8
2
3
-8
-3
2
-6
-10
-4
2
3
25
13
1
10
20
2
-2
-9
4
13
4
2
-5
-5
-13
12
-2
-6
-8
-7
-8
-12
-1
15
-14
-30
-2
2
2
6
-9
-23
-20
5
4
-2
0
-6
-3
-3
-2
0
0
-3
-3
4
14
-2
-11
3
-7
1
-1
2
1
-12
14
3
23
5
0
-3
-5
18
-32
-20
-12
-13
-8
-6
-4
-8
14
8
9
3
-3
-6
-17
-18
-42
5
-5
-10
-47
-10
-6
-5
7
-12
-5
13
20
7
13
10
15
-1
-24
-5
7
-1
19
7
10
18
36
14
20
12
14
47
23
5
10
-12
-11
3
-13
-48
30
19
-4
-4
-12
-1
-16
-12
-21
-1
-3
5
-3
-7
-6
-4
4
-12
-19
-5
4
-3
-11
5
-18
-32
-16
0
8
-1
28
11
24
5
10
4
4
14
-3
0
10
1
3
-8
5
-5
-26
-12
30
6
-11
-7
-21
-18
2
6
-4
17
-7
-1
14
11
-15
-13
-34
-38
-22
-10
-9
-16
-1
7
-19
8
45
10
11
13
31
23
-6
-9
19
4
-6
7
-11
4
20
11
0
-6
8
-7
8
-6
-10
6
-13
4
2
4
-17
-9
7
14
-3
5
5
-12
-9
-3
3
-14
-13
0
23
-1
13
1
-13
0
2
-2
-23
3
-1
8
-4
-15
-10
-17
-27
-3
-8
-19
-4
-3
0
-4
-10
-5
14
14
12
8
-3
2
-2
4
-15
-1
-1
-8
-14
-3
4
-16
3
-17
6
2
5
-2
9
0
1
-7
-14
-27
-1
2
-6
5
10
16
5
6
9
-11
-5
-3
8
13
-23
11
32
13
8
7
-11
5
-13
-2
3
-1
-8
-8
2
9
76
23
-13
-3
16
7
-17
-15
10
-32
-54
-13
-8
-32
3
-8
-24
9
36
18
23
36
46
24
-79
-6
15
8
-10
26
-5
2
3
-1
-9
-11
-12
-10
-11
-43
3
19
9
-1
6
-5
-14
-5
14
-9
-18
-7
-14
-21
-3
9
8
3
-14
14
52
0
-7
8
21
1
-9
-10
-22
5
-16
-12
-11
1
26
7
1
9
38
-1
-17
-30
-28
-15
26
-4
-41
4
-2
29
23
6
-42
1
7
5
-2
-13
-21
-11
-9
-13
-9
12
3
30
5
12
16
10
-5
-19
5
-12
-8
-10
-13
-9
-2
10
50
-1
-9
-6
8
-6
-36
-2
-5
0
-3
8
0
2
51
21
-16
-7
-8
-11
-13
16
-29
-45
-25
14
33
11
-2
-9
43
23
5
15
19
7
13
10
-22
33
-27
-7
1
-1
0
-9
50
36
26
-10
-20
-6
-9
-6
1
-48
32
-16
-30
-4
13
-14
-45
-24
-25
-7
-25
-19
-46
-5
65
3
6
1
16
4
20
27
-7
23
-31
-5
-6
-5
-15
-3
-28
72
-21
-10
0
1
-3
-7
0
-81
34
14
-2
6
24
-23
18
-2
-30
-11
-12
-1
2
-34
14
-2
3
-10
10
-3
-17
64
21
-2
-10
-3
8
2
-21
17
-4
22
42
49
12
-3
3
2
-17
15
-54
-56
-15
-2
10
-17
-43
-42
-19
22
-28
-4
23
-65
61
23
41
-29
27
15
-9
50
-25
-28
-1
0
37
6
10
4
11
-5
9
35
6
-3
-6
-5
0
-40
-32
-14
9
4
-5
-5
-5
-15
21
-2
-38
-15
-5
-25
-43
6
-2
-42
-40
-2
19
-12
35
-9
-4
49
40
3
-23
31
-31
25
1
1
2
3
10
2
1
-14
0
11
-5
-10
4
7
43
66
-17
-7
2
4
-11
3
-55
-58
33
-15
-19
-15
-11
-23
-3
9
26
-20
-55
2
30
-20
16
-44
35
93
99
29
-20
-5
33
40
-19
0
4
-9
-17
55
31
-23
-23
-24
-6
11
16
23
17
-37
-17
-2
4
-8
-1
-5
-55
-13
-1
-26
-44
-12
9
-41
-5
-13
61
17
-4
6
2
-7
24
25
11
38
35
13
-2
1
11
17
20
11
26
9
8
20
-29
-3
-54
-5
-20
-17
-14
2
12
-9
14
6
-29
-2
2
-5
17
-18
-24
-80
-37
-8
9
-3
-9
9
-58
20
36
20
2
-8
18
-17
38
-2
-27
-13
-2
34
16
-11
21
5
22
-7
-3
-8
-67
24
-22
-7
-15
-15
-11
-20
-104
-98
-6
-32
-30
-15
19
-70
85
21
-31
30
15
32
-7
47
-45
-56
-56
-27
4
3
16
30
28
-31
23
-12
-10
-19
-50
-7
-5
23
4
19
37
-2
-10
15
-71
-18
-19
-6
-36
1
33
-63
-39
22
41
-100
-90
-21
19
-103
47
42
-26
115
115
54
5
93
59
-38
-13
-21
-15
-9
-8
36
-63
19
2
-25
13
-3
-2
-32
-6
-2
-3
22
-31
-11
3
-16
-28
-54
-34
-38
-12
-7
-5
-58
30
63
77
35
23
16
-23
12
36
-16
-34
-4
2
-2
6
47
4
43
-8
-17
11
1
11
6
11
-10
27
51
-10
-13
-2
15
-31
-106
7
-27
10
-9
-16
4
4
-15
6
3
-15
-11
-20
-50
40
-30
-31
0
10
5
-22
18
-49
24
13
-34
10
11
8
-9
91
56
5
34
-10
2
10
42
7
110
61
-3
-5
-12
-6
-19
12
-39
-75
18
47
-6
-15
-6
-41
20
44
-24
-74
-16
-10
-19
-77
5
-15
34
55
11
12
-39
-27
-72
-78
26
-20
-3
3
-7
55
97
4
5
54
24
4
84
43
-47
5
-92
-82
-22
-15
21
-27
13
2
74
77
17
0
-16
88
63
77
1
-3
1
10
27
-59
26
-9
23
-9
-7
-8
-59
-67
10
-78
-15
-1
1
-12
-51
118
64
41
-60
-77
-12
-34
76
-20
42
-10
37
67
13
15
-14
6
-48
36
26
7
-6
0
11
9
42
3
-34
-1
-7
0
-9
-49
-48
-8
52
-55
1
22
-35
29
44
-22
-39
28
4
-14
26
-9
67
-21
-47
-19
-1
15
-22
5
-38
34
71
13
-1
-8
-6
-13
-44
-32
1
14
-5
14
47
-11
12
-32
20
-36
-6
-14
-37
27
-79
29
-26
8
-2
-19
20
-17
33
63
0
5
4
7
2
-46
4
-30
0
-4
-6
-6
-30
-21
19
-39
-24
-23
5
38
12
-105
-92
-1
-9
-33
17
8
-77
118
52
-1
1
54
13
24
102
-20
-17
-26
-9
21
-11
-5
-9
-33
-48
-6
-16
-10
-11
-31
-13
3
25
-35
26
-9
3
32
-29
-18
-24
51
-11
-15
10
12
-2
-5
-55
-42
-29
-2
-7
-7
25
0
29
-3
-9
0
-10
-5
-25
-9
16
8
-30
-59
-17
7
12
-73
-35
-25
35
36
7
-13
-123
35
71
14
16
21
-1
-48
71
0
4
41
9
3
-4
5
45
-51
-45
26
-3
-4
-9
-28
-32
-25
-9
-53
-19
-12
-6
29
-29
16
-3
41
-26
-44
-3
3
-69
-43
-128
-15
-50
-24
-7
-19
-17
29
83
-58
84
82
19
-19
48
79
56
26
-25
-36
-21
14
35
37
-16
2
15
-2
5
22
-13
-69
3
-39
6
30
7
-13
-4
35
4
50
-19
-13
-9
16
6
-72
-24
26
45
12
4
-11
-26
4
38
-19
-57
-12
-4
27
25
49
72
34
5
-23
-4
2
-23
-26
-69
-24
0
30
14
-3
30
-26
-10
0
11
0
1
-3
-9
15
77
30
-35
-31
-16
-19
13
-3
-44
-21
23
0
5
19
-7
5
2
-3
-46
-1
-9
-21
-12
-33
-29
-16
-30
-42
-9
56
-73
-48
-85
11
66
80
25
-52
50
-100
-42
-28
-10
-12
-16
1
25
6
-57
15
17
-42
-22
7
-50
-23
-68
-16
19
44
16
-2
-2
-3
48
40
-52
-45
-13
-6
-89
34
25
-21
22
46
15
5
29
25
48
37
9
-7
1
-4
42
-13
-13
-58
-3
-21
-4
5
7
-3
8
33
27
20
4
6
10
55
51
48
-16
-7
-4
3
9
-24
-2
-30
-1
-13
4
13
-26
-8
29
-1
-9
-5
-12
-30
9
0
6
-32
-20
-13
-7
17
-11
13
-15
10
-24
-19
0
26
-3
-23
-6
-5
9
14
1
-42
-43
25
26
16
10
11
10
8
92
4
0
-14
-19
-19
1
16
-3
-16
-13
26
46
-32
-15
-12
-33
-1
12
-26
6
72
27
42
7
7
-17
-31
-12
26
-3
-38
-4
-17
6
1
32
7
-2
-10
-32
40
7
44
5
-10
10
31
37
-22
16
6
23
-52
-20
-54
-6
51
29
-36
-41
0
-10
-2
18
-47
-53
-27
-35
-53
-19
13
-45
-17
-23
-40
-20
55
14
-37
-35
-1
35
31
1
-8
8
36
35
-22
11
32
13
-2
4
25
20
44
16
-40
-35
-6
-3
20
-13
-34
-29
25
-10
2
-3
-47
2
37
35
-29
-26
-55
-29
-9
14
-13
-8
24
77
61
23
13
-18
-6
15
-3
39
-28
-1
-32
-37
-4
47
-45
-63
-18
-13
15
-30
16
-44
6
-10
19
-1
-8
51
-3
22
4
19
-16
-7
-2
25
-5
8
-4
46
5
-6
-1
-5
10
-3
32
-2
-9
4
8
-14
-19
19
-19
-33
-16
-6
-8
-26
18
-11
-15
-20
-12
-10
-15
-8
16
-62
-12
-35
-2
-8
-15
8
-5
35
11
-15
-26
6
48
7
-6
-50
-9
63
21
7
-43
-38
76
69
15
-1
42
27
31
83
-53
69
-15
-10
2
-6
-19
-23
1
-47
17
-24
-12
-14
6
5
0
-9
16
-31
-19
-1
-8
-13
-16
-7
-27
60
-29
1
-4
-68
37
33
-2
13
67
28
21
59
48
79
-5
20
0
-3
13
56
-4
-21
7
-24
-22
-12
0
-18
3
-3
14
18
10
-3
-15
-17
-52
-32
2
-61
-11
3
38
-16
10
-11
-10
34
26
4
-56
-9
28
18
-7
-1
10
1
11
31
-41
10
42
-49
-34
-15
7
-14
8
-1
7
19
-20
-10
-11
-9
-9
-46
-34
0
0
0
-2
-12
-15
42
6
13
28
2
0
-9
-27
-51
31
-53
-35
9
26
-50
50
39
-1
43
45
8
-19
74
-16
-5
-6
13
6
0
-6
48
-9
-1
-3
-19
-4
-10
2
-35
7
-21
-9
-48
-10
-1
2
-13
-51
-1
5
-39
-23
-8
-5
-61
-16
23
47
46
14
6
-1
-6
22
-31
-20
18
38
17
20
63
-9
-16
7
-17
-36
-21
-25
-15
1
-18
-16
1
0
3
4
-4
-10
-26
-38
-3
5
-4
-8
-22
-17
16
39
13
-4
13
35
-6
9
18
-37
10
5
-3
3
1
-6
-13
-10
-27
-20
-3
-63
-2
16
18
23
17
40
13
17
16
20
-11
-10
9
-8
-8
13
-7
1
-26
6
17
7
-9
-36
25
-13
-1
5
-31
-10
-1
22
-34
18
-1
-5
0
-19
0
-26
-17
7
49
23
2
-13
-2
-18
50
3
-25
-26
-39
3
-10
3
-10
2
-2
0
40
19
2
29
-9
-30
-63
6
8
-30
-6
-9
-41
40
84
14
10
28
19
22
19
-37
-12
38
66
3
-12
-18
-7
18
-5
4
-24
-14
-3
6
-7
19
6
8
-30
-11
-10
1
36
-29
-32
27
-7
-3
-4
-22
-28
25
15
-9
-1
-5
6
4
16
-20
-17
-21
0
5
-5
-6
-4
2
-26
-21
-7
-12
-2
27
-18
-43
-56
-15
-38
-32
-19
-55
-70
24
32
-12
17
32
28
8
56
-5
-40
59
44
6
2
25
53
-17
3
-45
-51
-29
-9
-19
-37
53
75
-5
19
33
2
4
15
-30
-74
15
-18
-9
-4
20
-14
19
-29
-9
19
-6
1
-11
4
-18
-6
24
-3
10
13
40
14
-35
-31
-39
-34
-18
-7
-8
-40
41
44
41
-6
-11
-2
16
-58
-16
40
-1
-11
-2
5
-30
62
-7
-20
-25
-29
-7
-7
15
67
6
-18
13
1
-7
-2
1
-29
12
10
-14
19
6
-6
-17
13
0
7
-7
9
-14
5
31
-49
-38
35
-20
-53
-9
-9
-45
-44
3
-54
-19
28
13
5
2
37
80
97
14
-11
-19
-6
5
-32
-41
-69
-11
-36
-4
-5
-5
28
17
40
54
19
5
-10
-15
9
-10
-41
-34
-8
-6
2
40
11
25
-7
-6
30
12
9
35
-2
12
32
-28
-21
-13
-11
-67
-62
-12
-33
-26
-8
-12
-5
-16
9
12
-2
49
-9
7
9
2
53
-44
-26
-12
25
16
2
10
-16
21
14
6
-54
-27
-3
18
17
-19
-55
58
119
87
13
4
-43
-12
41
-54
-30
-8
-9
-13
-19
-30
-18
-1
14
14
5
-37
19
28
12
4
-14
-13
-11
13
-6
10
-7
-24
-17
-15
9
10
0
-7
-6
6
-11
-14
-6
15
-34
-30
-31
-6
4
11
0
-6
96
0
28
30
27
18
8
18
-48
27
11
3
-22
-33
-6
5
13
5
8
-16
15
17
6
-1
29
-33
-27
-16
-12
-16
-16
-8
-36
2
23
11
25
12
0
-23
0
-7
-33
2
-2
-5
7
15
-10
-7
13
29
-6
-20
-7
8
-14
23
20
-22
-10
-5
-3
-46
-1
-25
-15
7
-14
-9
-3
3
-38
11
3
-32
3
22
8
14
64
43
54
37
13
-12
1
12
29
2
-35
-73
-64
-4
-4
-22
-20
16
4
27
28
5
2
28
-9
-18
33
-25
-9
-17
-7
-1
-8
-25
-20
-4
-20
-26
-11
-38
-15
-31
12
26
16
34
10
19
1
56
61
15
-13
-14
4
15
30
-10
9
-54
46
37
-2
2
-25
22
-12
7
12
-2
5
-4
-5
-67
-16
21
-32
-38
-12
3
-21
-5
-20
-15
32
47
16
-3
21
16
9
43
64
-11
9
9
41
-17
-34
-59
-21
25
1
-6
-9
-7
16
55
20
-10
0
18
-20
-22
-50
3
8
-5
-7
-45
-11
22
-3
25
-37
-11
8
43
2
-18
11
-27
-10
-18
-14
-34
-50
-24
-26
11
5
-9
14
36
35
13
-4
-26
61
76
19
-10
46
23
59
44
-6
-12
-8
-15
-28
-49
-33
9
-8
-18
0
10
-5
20
-9
8
10
13
-3
-21
-22
-28
13
-24
-14
-19
-3
22
56
-10
-22
5
-3
8
9
27
-10
23
16
21
12
10
6
-2
3
7
-10
-18
8
-24
-12
-17
-20
1
-6
20
-54
-2
3
29
-12
-17
5
-22
42
12
-11
-61
-41
-5
-25
29
-53
-16
-9
2
50
9
45
-51
29
17
12
25
8
0
-75
-6
-20
-29
-12
-11
-12
-8
2
12
-10
-1
-1
10
-15
8
-10
-4
21
10
2
-13
-10
4
12
-5
-3
0
-8
-22
0
12
39
-3
-12
-14
-1
4
4
-19
-28
4
-24
-14
-9
-7
-20
4
1
-27
22
7
-5
-16
14
13
0
24
-10
8
12
18
7
-16
-2
-25
-5
-22
-12
0
-16
-1
-12
10
-5
-16
2
-20
2
-17
-18
1
-9
20
6
2
10
21
33
0
9
-10
-14
5
26
0
-9
6
0
-26
-9
-14
-32
-19
27
0
-20
11
10
15
-2
26
11
-44
28
36
7
8
8
1
-16
-4
-14
-6
-6
-11
-4
-8
12
27
17
-8
-5
-3
1
5
0
-3
-19
-15
-13
-4
-9
-5
-4
-3
-4
-16
0
-6
-2
-6
-8
31
-27
-12
2
-5
-4
7
9
-46
27
27
-1
-8
9
11
-4
12
-12
-8
-2
25
1
-9
-1
4
9
6
13
-4
-2
-3
-9
1
-3
-8
-9
-30
-9
-2
2
-9
-22
-6
1
6
0
1
-3
-7
9
8
5
12
1
-5
4
0
4
-6
-8
18
-6
7
11
-2
-11
1
-2
-20
0
1
1
0
-13
-2
5
28
7
-1
-4
-16
3
3
-3
-27
2
-1
8
29
-19
-3
-10
0
-16
5
3
-19
35
19
5
6
8
-7
6
-6
-2
11
1
1
5
6
-3
6
-6
-10
-4
-8
-1
-5
0
3
5
-14
-5
-18
-3
-4
-1
22
-24
-6
10
48
-2
-3
2
-11
13
4
3
-44
-5
2
-5
1
-12
-4
-1
4
4
-2
5
-14
11
4
-8
19
-4
-3
-12
-12
-5
1
5
-44
-1
-2
-4
14
5
0
-7
-2
-6
0
-3
-2
-3
-1
-3
-3
-3
0
0
-5
-2
2
5
5
1
-2
-1
-24
4
-3
0
7
3
-2
-6
24
-7
-5
0
8
-3
0
0
-7
-3
1
-3
-11
-4
3
-5
-9
9
-1
2
38
0
-4
-1
-17
-8
0
-1
-41
-1
-2
-4
13
6
4
0
3
0
1
3
52
19
1
0
23
-1
-11
-17
-52
-13
-4
-4
-23
0
10
4
-7
-6
0
4
1
-1
-3
-5
-1
-6
0
2
32
-5
1
-2
-13
-4
-4
-5
-19
-1
1
4
22
4
0
-1
2
0
-4
-5
15
12
-1
-3
12
0
-1
2
16
-6
0
1
-19
-2
-2
4
-21
-13
-4
-5
-10
0
5
-2
-40
-7
-4
8
0
-1
-6
2
8
15
-1
-10
4
-2
0
-9
8
8
0
-3
4
-3
0
-7
-20
-16
1
2
5
-3
9
16
45
18
5
4
-9
2
28
3
-14
1
0
1
16
6
-78
-9
32
-3
-7
-4
-13
-7
-12
-17
-57
-19
-5
-4
-5
1
9
-5
4
-1
1
-1
9
-1
-21
-1
-13
-3
1
-4
7
4
8
2
-35
-21
0
-1
-30
-16
6
0
10
-1
5
4
6
3
6
2
25
10
-5
-8
3
-6
-3
2
44
16
3
11
5
0
3
4
-47
-21
-7
6
18
5
-10
0
26
23
-1
-3
-15
0
4
2
-43
-10
-3
-3
-8
5
1
-2
-4
-28
-5
-8
6
-4
18
5
7
6
2
-6
-16
1
-4
-5
-43
-14
-5
3
2
1
-4
-2
-2
-26
3
0
2
0
3
-6
38
13
-6
-8
-15
-2
2
4
11
23
6
7
21
4
5
-3
-22
11
0
0
-2
-3
7
3
33
20
3
0
5
-4
-23
-9
-31
-16
-2
-5
-3
-10
32
8
48
-10
-4
5
12
12
-12
-1
-13
16
-6
-5
-25
-6
-4
0
-3
-8
3
2
-4
2
2
5
-23
2
3
0
1
-5
9
-8
0
-2
5
-9
13
-3
12
-6
19
-15
-10
-3
-19
1
-18
5
14
27
-6
0
4
1
-1
-3
3
-10
0
7
7
2
-4
-2
-23
0
0
1
12
-1
11
10
-7
1
7
2
6
2
-6
-10
-5
-8
-8
-6
-15
-8
-2
-6
-9
8
-2
-7
-6
-3
7
4
10
7
-4
-5
-12
-4
-5
3
22
0
1
1
5
3
-3
8
-12
25
4
3
1
0
7
-3
-13
-17
-5
-1
2
10
-6
-2
-14
7
-5
-6
-8
-11
-11
2
-4
0
0
4
2
-6
3
-4
6
-7
-1
2
6
0
5
-2
-25
-10
-4
-1
-2
-3
4
-4
-22
-22
-5
-2
-4
-1
-1
-2
27
14
6
-1
2
0
0
-3
12
-6
-2
-3
-2
0
-3
2
2
-7
-1
-3
-3
-5
0
-1
-7
2
0
-1
-3
5
0
8
4
7
0
0
3
0
-4
-3
-2
-23
0
-1
0
-2
2
7
24
5
-2
0
-2
1
-5
-4
-19
5
-4
-2
-5
-1
1
0
0
-5
4
2
5
0
1
4
15
15
2
-2
2
1
-2
-2
-11
-18
-4
-2
-6
-1
0
-6
-3
-14
-5
-2
-5
-1
1
0
-16
-13
-4
0
6
-1
-2
1
25
36
4
-3
-1
-1
-7
-2
-19
26
-3
-4
-10
-14
-4
0
-7
-44
-2
9
14
14
-3
-6
19
-14
-5
-2
14
1
-4
-4
-25
0
-5
-3
-6
-1
-1
0
-5
10
2
-1
0
-1
-1
-5
1
10
2
-5
-9
-8
1
1
-3
-6
1
1
1
1
0
6
16
-7
-2
0
-2
0
2
-3
17
7
2
-1
1
1
0
0
-12
7
2
-2
-5
-2
-2
-3
8
0
-1
0
-3
1
-1
-6
-6
0
-2
1
-1
-1
0
3
-1
-12
1
2
1
2
1
-2
0
5
2
0
3
0
2
3
-11
9
2
1
-4
-1
-3
2
50
-5
-7
-2
-2
0
-2
-2
-3
-7
-4
0
4
0
-1
-1
-11
-5
-1
0
-2
-1
-2
-4
-7
28
4
-2
-4
-2
1
5
12
-31
-2
0
-2
-2
0
-3
9
6
0
2
5
0
3
2
13
13
-1
-1
0
5
-4
1
-4
-12
-1
0
-6
0
0
-11
-54
-4
1
-2
10
1
-3
3
16
8
-2
-5
-6
-5
2
-1
15
8
3
0
-7
-3
0
3
-41
-13
-5
2
5
3
1
2
33
5
2
2
11
0
-1
1
-36
-18
1
-2
0
1
-2
-1
15
28
-2
-4
-6
-4
-2
-4
28
-4
-2
-6
-7
-2
-2
-3
-14
-3
1
3
-7
-1
1
-5
-4
-23
-2
0
0
2
0
3
3
32
0
-2
-1
-1
-11
-3
12
-2
-3
-3
-1
-6
-1
2
-23
-5
2
3
-1
1
2
2
16
-7
0
2
-2
1
-1
0
-14
-8
-2
0
1
-1
1
2
11
9
-1
-1
-2
-3
-3
-3
-5
9
0
-3
-3
-8
-1
1
0
-3
0
1
2
10
-1
-2
2
7
-1
-1
0
-2
3
1
0
-23
-1
2
2
2
0
-2
-1
-1
1
-2
-3
-4
0
2
6
13
-1
1
1
-3
-2
-1
-20
0
0
-1
-2
-1
0
-2
-9
-11
-4
-4
-4
1
1
1
-17
-19
-5
5
5
3
-2
-3
-3
6
-1
-2
4
-1
-1
2
5
3
1
-2
-3
-1
2
-2
-13
-17
-5
-5
0
-1
-4
-1
29
23
1
-2
-4
-4
2
0
4
5
-1
0
-5
0
-2
-6
4
-4
-3
-2
-15
-4
2
6
-6
-19
1
3
6
2
1
1
-5
-4
0
5
6
3
-2
-3
0
3
-2
-4
-4
-3
-2
-1
-5
-14
-3
-2
8
0
-3
-3
5
7
1
-6
-10
-9
0
-2
-12
-6
-2
-5
-4
8
0
-1
9
6
1
1
-1
-3
1
3
8
-14
0
-1
-2
-1
-1
-3
22
19
-1
-1
1
-1
-1
2
-19
-5
-2
-1
-1
-4
-2
-6
-17
-3
-2
-3
0
-1
0
1
-6
-2
-2
0
-1
0
-1
-1
28
8
0
1
0
0
-1
-4
-1
-7
-3
-4
4
-1
0
0
-10
-1
-2
0
-8
0
-1
2
13
-10
2
1
2
-1
-5
-10
-10
0
-2
-1
-6
0
-3
-3
-1
12
1
-2
-3
-3
1
2
9
-13
-1
-1
6
-2
-2
-2
-20
-7
-5
1
4
1
1
0
10
19
3
4
6
2
3
5
3
-18
-2
-3
-6
0
-2
-5
0
7
1
0
5
-2
-1
2
-16
8
-1
-3
-6
-5
-3
2
-6
-11
-7
-6
-10
0
1
-5
-13
8
6
5
12
2
-1
1
7
-23
-7
-5
-1
0
-3
-1
-6
16
1
-2
-8
-2
2
1
4
-18
-3
1
8
-1
-4
-2
-27
-19
-2
0
-6
-3
-1
-1
-12
12
1
4
4
2
1
-2
2
-15
-1
0
1
2
-2
-3
-13
7
1
-1
2
-2
0
1
15
-1
-2
-4
-12
-3
-1
-1
-1
-3
0
-2
-4
-5
-2
-5
3
3
-2
0
4
-2
3
1
-16
-10
0
-2
-4
-1
2
3
21
7
-5
-2
0
-2
3
-1
9
0
1
0
-5
1
0
-4
-2
6
-3
-2
1
3
1
1
-13
-16
4
-1
0
1
-1
1
-3
20
-2
-3
-4
-2
-3
0
19
4
-3
1
-8
-2
-1
-2
8
-9
0
0
0
1
0
0
-14
-11
1
6
18
1
-1
-4
-5
10
0
0
1
-1
2
-2
0
6
2
-2
-2
0
-1
1
-4
-13
-3
-1
-4
-3
-2
1
16
7
-1
-1
-11
-2
-2
-5
-2
6
-1
0
12
1
-1
2
-4
4
4
-1
-9
-1
0
-3
2
-3
-2
-3
2
-1
-3
-1
-28
-14
-5
-3
-6
-5
0
0
34
-3
0
-3
-3
4
1
0
-17
-10
-2
2
10
-1
-2
3
13
29
0
3
1
-1
-3
-6
-8
11
-1
-1
-5
2
-3
0
2
-14
-2
-1
-3
-2
-4
-6
-10
-4
0
-3
0
0
0
4
5
-11
2
0
-2
0
-3
-2
4
30
4
-2
0
-3
0
3
-18
-9
-3
-4
-8
-3
0
0
12
6
-2
4
9
2
-2
-2
1
-11
1
0
3
-3
5
-2
-13
26
2
-1
-20
5
-2
4
5
-17
1
1
-9
1
-2
-1
-12
-10
-5
-4
1
0
-3
-4
-11
-4
-3
-1
1
-3
-2
2
34
-3
-3
-1
0
0
3
-4
-52
-1
2
0
-4
-1
-1
-1
23
-4
-2
-2
-7
-4
1
1
-4
-5
1
-3
0
-1
-4
-3
11
-1
-2
-3
1
-4
-2
2
5
8
-1
-1
-2
-1
2
-2
-13
-20
0
2
12
2
1
0
8
31
1
-1
0
2
-2
0
-2
-2
0
1
3
-1
-1
-4
4
7
0
-1
1
-3
-1
3
-4
1
0
-2
-6
-2
-1
0
10
-5
-3
-2
-6
0
-4
-2
-8
-3
-1
0
-1
-3
1
-2
3
-11
-5
0
5
3
0
-1
6
10
9
1
-6
-2
-2
-5
-23
-27
-2
-2
-1
-3
0
0
21
15
-1
-4
1
-1
-2
-3
-15
-2
0
-2
0
-1
1
3
17
6
-3
0
-2
0
0
3
6
10
-2
-2
-5
-1
-5
-3
3
-11
-1
-3
7
-8
3
1
-7
-10
-1
6
6
10
-2
-1
-18
-4
-3
-2
-1
-2
-2
0
-11
7
3
-2
-5
-5
0
4
35
-8
-3
3
4
3
-3
0
-16
7
-2
-2
0
-4
-3
-3
-4
-8
-4
-4
-6
-2
0
0
-1
2
0
0
-8
1
-3
0
-10
-1
-2
-3
3
-1
0
-2
14
0
3
-2
-6
-3
2
1
-12
4
-2
1
7
2
-1
-2
7
-12
-4
-2
-4
-4
0
-1
-18
-9
-4
-2
-5
1
-2
-1
13
10
2
1
-4
-2
-1
-3
-21
-4
-4
-2
-4
-2
1
0
18
-5
0
0
2
1
-2
2
1
7
-1
-2
-3
0
-4
-5
0
-5
-5
-4
3
-3
0
1
-18
-7
-3
-2
2
0
-2
-6
6
-3
2
-1
-5
-1
0
-7
-10
-8
-5
1
1
1
-2
1
21
12
6
-2
-4
-5
1
-4
-16
-5
-6
-2
-5
-2
-1
2
-29
-17
-6
1
5
3
1
0
14
19
3
-1
-3
-1
0
0
-20
-6
-2
0
2
1
0
-2
0
-2
4
0
-1
-1
-1
2
39
4
-7
-2
5
-1
-2
-1
-14
-6
2
-1
-4
-6
0
-2
-6
-2
-2
0
0
6
0
-1
8
11
6
2
1
0
-1
0
-6
0
-3
-1
-1
1
-1
0
17
2
-1
-3
-7
0
-3
-7
-20
-28
-5
0
0
-4
-2
3
27
22
-3
-3
-1
-3
0
-3
-10
1
0
-3
7
-1
-1
0
-13
-11
0
0
-11
-1
1
2
-1
6
0
-2
2
0
-4
-5
-2
-2
-1
-2
-6
-3
-1
-1
-8
-9
2
7
4
3
4
3
-12
8
-1
-1
4
1
-3
0
25
10
1
-2
-3
-3
-1
3
-10
-7
2
-3
0
-2
-3
-1
-7
-4
-1
-4
-7
-4
-2
-4
-25
-5
-5
-3
-1
-2
0
3
40
12
0
0
-3
0
0
4
12
3
3
0
0
-1
-2
-4
-20
2
-5
-2
-1
0
0
-1
-9
-22
2
4
2
1
0
-4
-7
1
0
-1
4
-3
-1
0
-7
4
-3
-2
-1
1
-2
-3
-21
-8
3
0
0
-2
-1
0
24
8
0
0
2
0
-1
1
9
4
-3
-3
-4
-3
0
1
-6
-15
-2
1
-4
1
-1
1
-14
4
-4
-1
-5
0
-3
-8
-12
-9
1
-1
0
-1
-2
1
-11
-1
2
0
-2
0
1
-1
7
-3
-4
-3
0
-4
1
1
7
3
1
-2
2
5
-1
3
-7
4
0
1
0
1
0
-4
14
-2
1
-3
-2
-1
-2
-5
-4
-20
-1
0
0
-4
2
1
10
23
0
-1
0
-3
-2
0
4
-12
0
-1
0
-1
-1
-2
-22
-3
-4
0
2
-1
-2
-3
-15
-1
-2
-2
2
1
-2
-4
6
-28
1
-2
-2
-2
-1
3
21
25
-6
-1
2
0
-5
0
-8
-11
-6
-3
-5
-7
0
2
11
15
6
1
0
0
-3
-4
4
11
-1
0
1
-2
-2
-9
-8
-11
1
2
-2
0
0
1
-2
-4
-4
-2
1
1
-2
-1
-4
0
-2
-2
-4
-1
-4
2
9
17
0
-2
-3
-4
1
1
-9
-15
-3
0
1
1
-1
-1
-2
-4
16
2
12
-1
-2
-3
1
11
-1
-2
-16
-1
-1
0
-2
-8
4
2
4
1
-2
0
8
14
-6
-3
0
-2
1
3
-7
-14
1
-1
-2
0
-1
-2
5
4
-2
-2
0
0
-2
-5
-16
-22
-2
-5
-4
-4
1
1
-3
3
3
0
3
0
1
-6
0
6
-7
-1
-2
1
-1
5
-9
-14
-9
-2
2
-1
-1
-6
8
-16
6
3
-2
0
0
-1
14
22
3
0
-1
-1
-1
1
14
10
-1
1
0
1
-1
-4
-2
-5
-5
-3
2
-1
-1
3
-3
-2
-6
-2
-1
-2
-2
2
-12
-11
2
-2
-4
-1
4
3
0
-3
0
-2
-2
2
1
-9
1
3
-1
3
5
1
-1
-2
4
9
-1
0
-2
-2
-3
-3
-3
-9
-3
-3
-4
-2
-1
2
-1
10
-3
-2
-5
-2
0
4
-4
-9
5
4
6
2
-1
-1
1
2
-2
-2
-3
1
1
1
-10
1
-4
-4
0
-2
-1
3
14
-3
-3
-1
-1
-2
1
0
-7
5
0
1
-4
0
-4
-5
-10
-18
-5
-1
0
-2
0
3
5
-1
4
2
3
1
1
2
-2
1
5
-1
-1
3
2
-3
5
10
1
0
0
-5
0
3
-20
6
-3
-3
-2
-1
-3
-1
16
-23
-20
-5
-4
-2
-4
-9
-5
-10
-2
-2
-2
-4
0
1
7
22
34
5
2
1
2
5
-1
7
-5
-2
1
1
-4
0
-17
-10
1
0
2
-2
-2
-3
13
-1
-15
-3
-3
-1
-3
-5
-2
-5
-12
-4
-2
-2
-1
0
1
2
5
2
1
-1
1
1
-8
1
1
-2
-15
-4
-2
-5
-10
-4
0
-1
-1
0
-1
-4
0
-7
-4
0
20
0
3
-1
23
8
3
3
-11
2
-2
-3
-29
-3
0
1
7
0
-4
-4
-1
-2
0
1
-12
-2
1
3
1
-5
-9
-4
-6
-2
0
8
8
-10
-2
-5
4
-1
-2
-6
-10
-3
6
0
-2
1
1
2
-5
5
5
5
3
-1
-8
-1
4
1
-10
-3
-6
-1
1
-1
7
-3
-12
-4
11
-8
8
20
-13
3
15
2
-7
12
-8
-26
-1
-1
-6
-3
2
-1
8
3
9
29
16
4
-1
-1
-2
8
4
-11
-4
-1
-4
-5
-13
-16
-14
1
-5
-3
-4
-6
3
6
-5
-20
-11
-1
4
4
4
5
15
0
-3
-2
-2
1
1
-1
10
13
3
-3
-24
-3
-6
4
-43
-6
4
2
14
-3
-9
-5
-12
9
2
-2
8
2
2
-4
-3
-19
-6
1
9
3
3
4
2
2
2
3
5
-1
12
0
36
7
-3
0
-2
6
-6
-7
-14
-3
-3
-6
-14
-7
-3
-5
-4
-4
-1
-3
-4
1
-3
4
-7
3
1
2
-1
0
-6
-8
14
-9
-4
-1
-1
-4
2
23
-13
5
8
1
6
-1
0
-22
11
-4
-1
-1
-4
1
4
-8
-2
-5
3
2
4
4
-6
6
19
2
-5
-1
1
-6
11
-2
5
-2
-6
-4
-7
-3
-11
13
-21
-23
-23
-7
-6
-2
-7
-7
-9
36
15
4
5
7
-11
-33
6
-23
1
-1
3
-11
20
17
10
5
10
10
4
15
8
15
-29
-1
-11
-6
-3
-5
-1
-2
29
13
0
1
8
-3
-10
3
13
0
-11
-6
4
-5
-7
-10
9
-4
-2
-4
-13
-5
-4
-10
25
-8
-3
1
0
-4
-8
-12
-54
-23
-8
-3
19
5
19
9
9
21
9
12
5
12
5
9
-8
-13
-7
-4
-2
-6
-22
-3
15
14
7
1
-6
-6
-12
-11
0
-16
-9
-5
-10
-6
17
9
24
-6
-11
0
-1
9
0
-1
-17
38
27
1
-1
0
14
6
-12
-7
3
3
4
7
2
-1
22
4
-17
-4
-3
-7
2
-8
-44
-5
47
13
3
3
3
17
40
-10
-12
0
1
1
-11
-18
-10
5
15
3
13
-9
-3
9
-6
8
9
-4
-41
2
-5
-3
-1
-5
-18
0
-16
-10
-6
-19
0
-12
-13
-1
10
-6
-3
30
8
7
-74
-15
5
6
32
-11
-7
21
96
32
38
23
-9
3
17
33
-6
-6
-8
-8
-10
-9
-37
-9
8
5
-8
-9
-20
-22
39
-29
-18
-8
5
-11
8
7
1
-14
-45
-22
-16
-1
-16
-16
1
-1
6
3
10
3
-10
-12
2
11
-37
-5
-6
-7
18
9
-30
-19
43
3
0
1
-49
-6
1
-3
3
-1
-4
-29
35
14
9
-9
2
7
9
29
14
5
13
44
20
-1
2
19
22
-16
-23
-22
-1
-7
-28
-10
-12
-10
15
5
-3
5
16
-1
-5
14
-4
-10
-56
-19
-24
-16
-23
4
-37
9
14
9
18
-2
29
36
27
45
58
15
8
28
46
-5
3
-16
-34
-9
-14
-2
-10
-1
-4
33
53
14
12
2
15
18
26
14
33
5
-1
2
-50
-20
-19
-19
-17
-10
-14
-29
6
1
1
-14
-45
-13
-10
14
-29
-6
-7
-6
12
9
18
4
25
2
-10
-6
-6
0
-3
7
7
26
-5
-2
3
7
5
0
-30
-20
-9
-11
-11
-1
14
-4
49
-23
-17
-15
-47
-26
-6
-1
-24
4
7
-19
1
4
-21
-15
-25
-2
12
-15
-28
-2
16
4
32
10
-25
39
26
-6
-23
30
10
57
-38
-13
7
1
10
0
-4
-108
37
-3
-34
-13
4
-4
1
-17
10
-12
19
-7
-14
-12
-78
2
-27
-1
-13
6
16
-65
32
19
2
-32
-6
-2
-4
27
-4
4
6
-29
-13
-10
1
7
-35
-39
-46
-7
-22
-3
-19
-4
-5
35
3
-43
12
0
3
14
59
94
62
62
-24
-7
20
6
-63
-52
-19
-39
17
-8
-31
-55
45
55
-5
39
2
13
20
50
-55
-49
-15
-26
27
-2
-19
-38
51
29
4
-16
-4
10
50
30
2
5
-5
1
-13
-11
-48
-5
-78
37
54
14
-19
-3
8
-31
-41
-91
-41
-87
-37
-4
-30
-13
46
-55
-37
64
28
-6
16
0
40
94
14
-11
-34
-6
1
27
-24
46
-11
11
40
-4
-5
23
-54
0
23
33
-16
5
-1
7
14
-58
15
-9
-17
-1
9
-17
-16
45
-45
-10
30
2
-22
-29
13
-23
40
4
-21
1
18
-25
21
19
-19
-56
-16
-11
-34
-3
-62
-44
-9
40
35
9
-15
10
28
12
52
15
-14
-3
21
10
-55
-50
-62
-22
-2
0
-12
-24
56
17
-17
-23
-31
-4
30
-9
-108
-73
-35
9
20
-5
-40
-11
11
67
24
23
-34
7
56
35
105
30
2
64
116
33
-1
106
-24
52
31
28
1
-12
-26
-23
12
27
27
-42
-49
-18
-34
-22
-25
-28
-17
18
-3
15
78
-95
-72
-26
-36
-51
-28
-9
-70
-97
40
-22
30
-18
-5
-15
0
127
39
122
-5
19
33
17
45
65
-33
-112
-33
32
72
11
-5
-17
34
61
-6
-46
-52
-3
41
-50
48
65
13
30
6
9
9
-42
-84
-30
40
13
-6
-20
-55
-52
-60
64
6
-28
-81
-3
74
-60
108
-28
-38
-15
48
2
-98
57
-36
-33
-16
34
13
1
-9
86
-45
-1
4
21
8
1
-6
-10
-8
10
-8
-3
8
4
17
6
-10
-80
32
-2
-79
-4
8
-69
25
28
-28
88
92
17
-5
-45
16
52
7
-30
-23
-11
4
81
29
-70
2
-7
12
-9
-33
2
-87
36
26
-17
-14
-10
34
2
45
-24
-26
-14
-11
2
6
-29
-26
-9
-1
-53
-24
-3
-10
-74
49
60
22
84
20
5
3
82
-30
-24
-23
3
16
0
-23
-16
29
-48
17
7
30
9
13
37
-39
-50
-4
-25
-10
-5
-15
9
45
7
3
28
-9
-11
-26
-2
-88
-102
28
-72
-52
0
24
-86
-3
93
23
28
25
18
12
0
-51
-60
-36
-8
19
-13
-6
84
-118
-91
-36
-34
-18
-15
-35
-71
82
7
25
25
6
-6
32
18
-46
-67
-11
-22
-42
2
26
-79
13
8
1
-50
-35
7
16
-70
24
-9
-12
40
61
12
-32
84
13
15
7
6
22
-11
20
40
-25
-31
6
10
-33
-7
-9
-35
-26
-19
5
20
12
22
13
-12
77
80
28
-78
-28
-1
3
-4
53
30
-16
30
-19
5
61
73
-3
-59
7
50
84
12
-36
29
42
22
-7
46
3
-2
-24
-64
-74
-85
-22
-78
-2
-8
-11
6
42
54
5
68
3
2
6
26
3
43
23
-111
-59
-12
26
-5
-35
56
0
-17
-33
-26
-10
-45
7
-54
-47
37
66
32
-8
37
22
-42
-19
30
14
-5
5
8
-78
-38
15
-12
-28
-14
-33
-56
48
-17
13
-5
47
16
-17
3
-39
25
48
1
-33
-13
9
-13
-2
12
-39
-21
0
-5
-20
7
40
13
15
13
-3
8
28
4
-54
-24
5
-17
-23
-9
-60
-67
98
10
1
0
6
15
41
108
-20
-36
-3
0
26
6
-2
28
26
72
16
7
-10
-17
-28
10
4
5
-13
-26
-37
2
47
-30
-37
-30
31
20
16
12
-30
-43
54
43
-21
2
41
15
-15
30
-31
54
37
22
-3
-10
15
-45
-7
-85
-59
-33
3
-9
-6
42
7
34
30
16
-11
1
20
14
51
80
-20
-56
-26
-11
20
6
-16
-9
-29
12
14
5
-2
4
30
32
0
-33
-49
-12
-15
-19
0
-6
2
66
48
4
-10
-70
-37
-64
14
-24
-39
-11
-32
29
58
72
22
40
41
15
55
58
-62
18
-8
1
9
-5
-6
-21
28
-45
35
-43
-42
-5
-16
-55
-15
39
-11
-19
2
-11
-9
48
-10
-25
-72
-9
-2
4
19
-26
9
8
26
20
12
1
-19
29
-24
25
-9
-67
-46
-21
10
0
-14
25
12
29
14
6
-11
-98
-4
-37
-26
-3
18
6
-47
-2
22
-10
17
-90
53
3
31
70
-70
-31
-4
-28
-42
-11
11
-20
48
32
-31
7
7
0
-14
10
-4
-79
15
-24
-7
-10
-10
10
-28
-54
4
54
-10
9
44
-55
37
43
-41
-22
3
-12
-43
57
-45
-20
9
-53
-58
-11
-7
-40
33
10
24
23
18
20
45
5
-43
-35
23
35
9
-4
-41
-12
-2
-2
-34
-49
-24
-8
43
23
-50
-23
-2
57
4
-6
-64
-78
18
-2
-7
-49
-46
-18
-4
6
15
-47
-7
43
19
12
40
90
-24
25
-8
-65
-24
-15
0
-39
15
-53
-1
-35
-21
11
-7
-34
-33
-23
-10
102
88
30
1
6
21
33
32
-38
-55
-9
-13
52
11
30
-63
6
-27
-8
-11
-9
-20
32
32
-8
-9
13
80
-2
-10
3
-1
-59
-47
-27
-89
-67
22
24
2
34
13
3
27
55
41
83
30
34
42
6
0
18
-52
-68
21
7
7
-3
-2
-26
51
54
-34
13
-11
1
48
65
-9
35
-43
-15
22
6
-31
-50
-13
-30
24
13
-15
-3
-32
-27
11
54
-6
-12
18
1
51
-7
0
32
28
12
-18
-9
-39
9
-15
-22
-28
52
14
21
46
13
52
13
6
-27
15
-11
-21
-4
1
-17
26
14
-11
-2
-37
29
-28
-7
16
-39
-19
-10
24
-6
6
45
-15
-21
-2
-7
-38
-99
0
-3
-4
39
9
6
14
75
-4
7
-34
0
2
-4
19
37
3
7
1
-9
-10
2
-14
-19
4
15
5
-26
12
0
2
-32
4
23
26
21
15
21
27
8
13
-45
-4
8
-14
-18
-19
-24
-21
-21
-45
-10
6
2
6
42
29
-35
32
43
6
1
13
-34
-18
-19
-15
-42
-24
-6
-41
-25
-14
-19
0
22
9
7
5
36
-27
-10
-11
-15
7
4
-1
-18
43
4
27
-3
7
-4
2
42
-12
-22
-14
4
-3
-5
4
-5
-4
7
9
-19
-6
-6
-29
-40
31
-11
-7
-5
-2
-1
11
-3
9
35
-37
-10
-7
3
-4
-4
-32
-24
20
5
8
-2
17
-13
35
-14
7
33
25
8
-11
33
-1
30
15
-24
-17
0
36
-23
-7
-28
-13
-29
-27
-16
-45
30
-1
1
-64
39
30
12
22
4
-24
-26
25
-24
-20
-6
-26
-67
1
-7
5
4
30
5
26
93
4
-32
12
16
-9
-8
-8
-15
-11
7
5
-42
-28
-5
16
-17
-20
-4
14
36
34
3
-26
-8
-3
10
-24
2
-15
-3
-35
-34
-1
29
14
-32
-22
-4
5
0
-6
11
29
36
16
2
-9
7
-9
-56
-31
-22
-8
-11
4
24
9
24
1
-11
-15
-7
26
-6
-20
-56
11
-24
-8
-5
2
-7
-15
-1
-12
42
-21
-7
-9
-37
-11
-46
19
-1
53
28
59
-1
-19
52
-7
16
8
1
-26
72
34
0
0
-15
-10
0
12
20
6
-5
-6
-32
-9
-4
-2
-17
-5
30
14
34
18
5
3
-29
-1
-46
0
-11
-25
-13
-1
-32
-6
51
-12
10
21
11
5
10
-21
-37
4
-19
-4
-8
-30
20
15
11
1
-19
-20
-9
-2
17
10
5
28
36
-8
4
15
-21
-17
4
7
31
36
4
-6
-28
4
-13
12
-2
17
-1
-22
-2
19
84
-7
-2
-17
-3
9
76
-16
-14
3
-25
-10
12
5
-18
-8
2
2
32
-23
-12
-8
-33
0
-10
-17
-34
18
4
14
10
18
26
13
37
15
-7
-40
4
-19
31
18
15
-10
-9
2
-22
8
-18
-19
-22
-9
8
14
55
5
2
-13
-17
16
8
-5
-17
-29
0
7
44
8
6
60
-54
23
-34
-9
18
27
6
-37
32
-22
1
-9
-25
5
-6
-17
7
1
-43
-5
-16
-45
-10
7
9
17
52
-10
-4
17
10
11
0
-8
-45
-3
-4
-14
-10
-11
-52
-4
-9
24
7
-14
-2
22
16
13
16
-17
10
32
11
6
26
-17
-17
13
-17
-16
-5
-20
-20
-1
7
-1
-12
2
-2
-1
15
6
17
-19
14
-7
0
44
-14
-20
-16
9
-25
-19
-7
-39
-78
-3
5
-13
2
-2
-12
-53
69
5
-47
2
-20
-12
6
44
68
40
18
-1
15
26
8
23
1
-4
41
19
-20
-27
-9
-1
-12
-24
-30
-44
-13
21
-1
-2
-70
-4
-5
14
-32
-57
-16
5
-9
-11
-3
-17
21
30
2
-24
10
11
16
-3
40
12
2
-8
-11
7
8
13
-61
-42
-3
-1
4
-28
-9
3
74
40
12
20
-50
-8
-17
-5
-25
-29
-15
-17
61
13
-18
10
8
23
8
10
30
29
21
14
5
8
2
-7
17
-14
-8
-25
-1
4
2
28
-25
-17
11
-33
-9
-30
-12
-15
-128
-10
9
-45
32
28
9
-5
87
38
-5
31
-6
-14
-1
17
68
-2
-41
-3
-38
-1
8
0
-34
-28
-14
19
26
5
-7
-26
2
26
68
0
3
-10
-12
16
-21
-14
-39
-39
-66
-28
-11
25
-53
7
12
30
12
27
8
-13
53
9
34
4
2
0
3
-21
-3
0
-29
12
12
-3
1
23
-43
-12
-14
16
13
7
-10
-43
28
23
82
5
-20
-10
-9
-6
10
-8
-55
-1
-12
-3
2
28
15
5
-11
13
34
-16
6
8
9
-43
-58
-22
-22
5
3
-15
-49
4
-33
-10
12
-15
-3
-20
-26
1
23
14
17
18
1
-9
14
21
-6
-12
-17
-4
-2
-1
17
-11
-54
-20
6
-9
-4
31
37
5
10
13
33
17
-1
-8
36
-29
-35
-10
-16
-3
7
-30
-88
-12
8
13
1
-20
-2
-28
9
-4
26
-8
18
30
11
19
34
6
-24
2
-28
-32
-14
30
-24
13
46
-7
27
39
12
26
19
-34
26
-12
-14
-4
-8
-66
-88
21
11
-2
-31
-30
-4
4
21
38
59
30
30
36
2
2
76
-42
-23
2
-20
-15
-5
10
-31
36
15
-23
25
8
-4
6
19
-15
-31
-23
-28
-28
-4
0
-40
-38
-18
-14
-5
1
1
6
-74
32
35
7
-36
-10
-3
-51
26
10
-13
11
34
10
1
22
89
0
14
6
26
4
0
4
-15
10
23
-22
-15
-3
2
-4
-8
-9
-43
26
5
2
-5
-9
-66
-15
-6
1
-93
-38
-9
15
-6
40
16
4
44
45
13
39
76
-11
-13
-17
-48
-16
-6
-33
-14
8
-4
8
19
2
1
27
-2
-25
-23
15
-9
-7
-2
-11
-18
-5
22
8
6
-6
0
-31
-42
-10
-1
-36
-46
-19
-11
-11
-32
-26
9
11
44
-1
-9
-44
31
84
20
13
-16
23
11
39
82
-14
4
-13
23
1
-5
-2
-54
-12
5
-7
-4
-11
-1
6
-35
-5
-39
-7
-29
-13
-2
6
-38
-44
-38
-15
4
11
-9
4
9
19
38
59
-1
-20
-6
-31
41
21
46
-37
-3
8
4
10
-7
-2
-29
-24
7
-12
1
14
6
-20
-2
3
-39
-5
3
10
-26
-17
-22
-28
27
-1
-5
5
-27
2
12
14
0
-15
-12
-54
41
14
-11
2
-25
18
6
23
11
-28
-4
-23
1
1
4
-5
-26
-17
-12
-9
28
-5
-7
-26
-48
28
31
26
19
14
5
9
67
10
8
-6
-33
-17
-3
3
0
14
0
14
29
12
11
14
-8
-17
-17
-1
-31
-7
4
11
8
-1
-17
-7
31
7
-3
2
-28
-5
20
13
4
-18
5
-5
8
43
-3
-3
-22
13
-5
14
-9
1
-4
-22
17
-1
-2
-13
25
-30
-49
11
27
7
-2
2
7
2
0
-28
-38
0
0
8
-25
-13
9
8
21
-8
0
-2
-27
27
43
11
2
-4
-7
-11
65
-11
-12
-2
5
17
0
-1
-21
2
-16
-13
-5
-17
-2
1
1
-10
12
22
31
15
6
0
-26
6
6
-30
-23
-16
-5
16
6
1
-12
33
4
11
-4
-35
2
2
2
10
3
11
-4
8
12
-8
-8
-3
22
-1
1
-14
8
-7
1
28
0
-7
0
3
-30
-6
-10
-4
-10
-13
-1
30
-11
0
7
9
28
24
11
-16
28
27
23
-18
-8
4
-14
-22
21
-8
-16
-5
-5
2
9
0
-19
-6
-2
10
-17
-15
7
17
-4
6
7
-1
2
2
-7
-10
5
-20
-16
-13
-8
-18
-4
-15
-15
0
10
-2
21
25
7
19
-9
2
10
-27
-7
-5
-3
3
19
0
-4
6
4
-2
-2
0
6
-6
-9
18
-2
-4
4
-7
-4
-1
4
-12
-15
-4
-5
-3
-9
-10
-7
-1
4
-18
-4
0
-18
8
3
10
41
31
-4
18
18
-3
-4
-7
-8
-2
-11
-6
-2
1
2
23
-16
-4
11
-21
1
-5
-8
-4
-5
1
23
36
3
4
11
2
-18
-20
-11
-2
-3
-9
0
5
8
2
-16
-5
-7
0
-6
-12
-4
0
-4
-20
-2
4
3
5
6
6
15
-59
6
9
9
-3
-24
-2
28
28
15
-13
-14
-16
13
11
1
17
-5
-5
0
2
-6
-8
-17
-16
-10
2
-3
4
-4
-5
-14
-4
-6
2
1
-5
-2
-15
-13
-6
1
-1
5
-12
-28
7
2
-15
-3
-8
1
27
20
-4
-6
4
-8
3
6
-5
34
31
5
8
2
2
0
-3
-17
-13
0
2
-3
2
-6
-2
-6
-7
2
-3
9
4
6
17
4
16
6
8
0
-7
-2
-37
-19
-2
-9
-2
-10
3
1
27
23
4
13
-10
9
0
-1
-20
-3
-15
-2
11
-4
2
9
-2
2
17
8
20
3
-8
-15
-8
-12
-16
-22
-16
-11
-1
0
6
8
6
3
11
2
-2
-5
-9
14
-3
2
1
2
-2
-1
-7
-17
-13
4
23
1
-3
-1
40
3
-2
-2
11
-1
-3
-5
-55
-17
-8
-4
8
-4
2
1
19
0
8
4
0
0
-1
0
-20
-1
-1
-6
-6
-4
1
7
13
0
2
-2
-4
-2
-5
-4
31
4
2
-11
-15
-2
0
-2
-26
11
-17
0
10
1
-1
-8
-4
-30
-11
4
-12
-4
2
0
-7
46
56
15
40
5
0
0
-32
-38
-6
-5
-19
-3
-2
5
25
22
-1
-8
4
-11
-2
-5
6
6
-14
3
-6
12
2
-3
-17
-26
-24
-3
12
-2
-12
-6
-17
-3
-3
-12
-43
-2
-1
-1
7
-16
8
10
-1
-3
-2
-2
-22
-7
-6
-10
11
-6
-4
-4
23
1
-4
-3
-26
0
3
4
13
30
9
-2
-15
-5
10
-3
13
-20
-8
-6
-11
1
-15
18
1
4
4
7
6
1
-1
-4
3
-10
-7
1
-12
2
10
-8
5
9
-3
-4
13
-2
-6
1
14
5
2
2
5
3
2
-9
6
14
3
-3
-23
-3
-2
-10
-33
-18
0
2
-2
-2
-1
11
19
1
0
-2
15
-4
3
-1
4
8
-1
-7
1
12
4
0
-3
15
-3
9
2
-6
2
15
-3
-11
-11
1
2
2
-2
0
-4
1
-2
3
4
2
-2
1
5
23
17
3
2
-5
0
-1
10
-25
-1
-6
11
-4
4
-3
-19
13
-2
-7
-41
-4
1
7
-3
-23
-1
7
39
5
0
4
32
26
-22
-4
-12
-3
-1
-4
15
13
41
11
3
2
-2
-5
-19
-3
-2
-2
5
0
-2
0
-28
12
3
-3
-2
1
-2
5
3
-84
-7
2
-9
-10
0
-1
-28
26
-13
-8
4
7
0
1
28
10
-4
7
22
4
-1
1
-2
12
9
4
-6
3
0
-3
-25
16
-2
2
9
-2
3
1
-22
-49
-6
-14
-14
2
-4
1
30
15
3
1
-8
-9
0
-4
3
1
-5
13
32
3
0
-2
-3
10
5
9
-6
0
-5
-7
-27
-25
-2
-3
-1
-4
-2
-3
-28
-8
-5
-11
-3
-3
3
0
0
-15
-1
-7
-7
1
-2
-6
-18
7
-2
-6
-8
0
2
-3
11
-6
-9
-4
8
-3
-1
2
-28
-3
0
6
-1
-1
-2
-1
53
8
5
-1
-6
-7
3
2
-32
-11
3
1
3
5
-7
-3
1
4
-3
0
-4
-4
1
3
0
-6
-3
-2
-7
-2
-1
2
39
-13
-2
-5
-9
-1
-3
-2
-7
19
8
-6
5
-1
-3
-9
46
6
-14
-2
-11
-3
-6
-3
-5
-9
-2
7
7
2
-1
-1
-38
-19
-1
2
3
3
2
0
-17
46
4
-5
-7
-9
1
2
4
-38
-4
-6
25
-1
-1
6
34
16
4
5
-9
4
-17
-5
-17
5
-2
5
3
2
-4
-1
17
-21
-5
2
7
-2
0
-6
-54
-11
1
2
-6
0
10
-11
13
4
-6
-9
3
-3
4
-1
-9
-1
-2
-8
-4
4
-2
6
14
19
4
0
-8
-12
-4
-3
21
-6
0
4
14
-2
1
-1
-6
-15
-9
-6
-5
-2
-2
-13
-51
-7
-5
-1
-5
-3
1
-3
5
-18
-5
-3
2
5
6
10
12
24
8
-1
-14
-1
-5
-7
1
5
2
-6
-6
-6
5
-3
2
-3
-5
-6
-12
-4
-4
-2
-7
-14
-7
6
3
5
1
-2
-4
19
1
4
6
0
-6
-2
3
2
-5
-8
-30
-4
1
1
-12
-4
5
6
0
1
4
-2
15
4
3
0
9
2
-8
6
17
10
-6
-7
-16
-13
-1
1
2
-5
1
-7
-12
-2
5
7
15
0
-3
6
-1
2
-4
-6
-43
-10
1
5
-3
-1
-1
-6
-5
-7
3
0
8
1
-1
6
43
21
1
-7
6
0
-5
2
-5
10
0
-3
-7
-7
3
1
4
-11
-1
0
4
5
-2
-2
22
0
-7
-2
-11
-3
0
-4
-28
-10
3
5
11
2
2
4
-3
-20
1
1
10
0
-3
-7
0
9
0
2
-1
0
2
2
-15
-8
-8
-4
1
0
-1
-7
-19
-13
-4
1
-2
-2
2
1
40
22
-1
-8
0
-3
0
3
2
-15
-3
-2
-6
-1
3
3
13
-19
3
-1
-2
3
-1
-4
-4
19
0
13
25
5
1
-1
-6
16
-1
-3
-10
1
-10
3
-4
-6
0
-2
-18
-3
0
-6
4
16
-2
-5
-7
0
-1
-6
-19
-34
-6
-6
17
1
-1
-1
-5
9
0
-2
6
-3
3
-1
51
6
0
5
9
0
-1
0
-29
16
-1
-1
4
0
-5
-7
-33
-15
-1
-4
-13
6
-5
1
38
15
0
-3
-7
-12
-1
-2
6
-6
-1
-1
12
0
0
4
1
11
-1
0
-9
0
3
1
1
-3
-1
0
2
-3
2
-2
2
-3
5
2
4
1
-2
-2
-15
1
0
-6
-14
-4
2
2
10
3
4
8
25
4
3
0
10
3
0
-1
0
1
-2
-4
-10
-1
-5
-1
-10
-2
-2
3
4
-7
-5
-1
8
-1
-5
-6
-15
-25
6
2
-3
-9
1
6
26
21
4
7
3
7
-1
-1
-8
-4
-3
-5
3
1
2
-4
-7
2
-2
-5
8
-2
-2
-1
-6
-3
-6
-2
-21
-1
-1
-2
-8
-24
-4
-2
-8
-7
-2
1
9
16
-1
-5
-6
-2
-2
-5
0
-4
-4
-2
6
-1
0
5
-5
12
0
-1
-12
2
-6
-8
27
-7
-1
-2
13
-3
-1
-2
14
-16
-2
2
3
3
2
2
-13
15
-1
-5
-4
-1
-3
-9
-3
13
0
-1
-3
0
1
5
-16
3
1
-1
-6
-2
0
0
6
-10
-8
4
3
0
5
-3
24
3
3
-3
-5
-1
-9
-3
-36
-14
-5
-5
-17
-5
-2
3
10
-6
-3
-2
11
2
-5
-4
-10
0
6
-7
-9
-3
4
2
-3
-1
-1
13
-18
3
4
-2
7
11
0
1
3
-1
2
-2
-9
-7
-3
0
-10
7
-1
2
-22
-16
-8
-5
2
2
1
2
9
-1
1
2
1
1
-2
-3
-15
-2
1
-3
2
-1
-1
3
-7
-1
1
1
-6
-5
0
2
19
15
1
5
14
0
-1
2
41
1
0
-5
-4
0
-1
-10
-43
-5
-4
1
4
0
-1
2
-12
-8
-5
-6
4
-4
6
10
-2
9
4
2
-6
1
-4
-8
-20
-17
-3
-5
3
-1
-2
1
17
2
-2
-1
4
2
0
-4
-4
-1
-4
-3
-7
-5
-3
-7
-5
8
1
-2
-6
-1
-1
0
-9
-5
-3
-1
1
2
1
3
16
-2
-1
-5
3
-1
-1
-4
-9
6
2
-2
-6
-1
0
-1
0
-11
-3
-10
-14
-4
0
-4
-17
-5
0
7
14
4
0
-1
5
-3
-2
-4
-8
-6
0
5
21
26
0
13
-5
5
-4
-8
-21
-28
-6
-4
18
-3
-5
-3
-25
-10
-3
-12
-29
-5
2
3
11
-4
-3
-3
0
-3
-4
-5
19
26
-3
-4
4
-6
1
0
-15
-11
-2
-2
-10
1
-2
-5
-20
3
-3
-1
6
-2
2
0
12
-1
10
5
0
3
0
3
-12
1
0
-2
9
0
-2
-1
5
8
2
4
4
1
0
2
1
-2
-1
-1
5
-1
-1
3
15
9
-2
-1
-4
0
3
-3
-4
-18
1
-4
-3
-1
1
4
0
6
1
1
4
-2
-2
-4
-1
4
0
-4
2
-6
-2
1
-25
-7
-1
3
-6
2
-2
-2
4
-10
-3
-1
-3
-2
1
-5
-24
-7
-2
3
5
1
0
0
0
-5
-3
-3
1
-1
-3
-2
-5
9
0
0
-1
-1
-4
-3
-3
-25
-6
-9
5
-14
3
3
-3
10
4
8
8
14
-1
2
4
9
3
0
-3
1
-5
-7
4
-7
-6
-1
-2
-3
3
8
13
3
1
3
-1
1
-6
-4
-17
-21
-7
-5
-11
-7
-2
3
3
15
7
2
-1
-1
3
3
22
4
3
4
13
4
-3
-11
-35
1
-2
-4
-9
-2
1
5
26
2
-3
-3
-3
-1
-1
-5
-46
-19
-7
-3
-1
-1
-2
-2
-5
-2
-3
-3
-1
-1
-1
3
17
0
2
-2
-3
-3
0
-2
-14
0
0
0
5
-3
-4
-3
-5
0
0
1
0
2
-2
-3
20
-1
-3
-6
-13
-4
1
-4
-14
-5
2
3
16
4
2
-3
15
6
-1
3
-10
-3
1
4
9
5
4
-3
2
-2
-1
-1
-11
-8
-5
-1
-3
-2
-2
3
4
4
2
1
4
2
-2
-1
-11
-1
-2
-5
-6
-3
-2
-6
38
5
-2
-1
-4
-2
1
-4
-36
3
-4
1
5
0
0
5
-12
-5
2
1
-6
2
-2
-3
31
7
-2
-1
0
-8
2
1
-52
-15
-2
-1
2
10
-1
2
21
10
-1
-5
-4
-3
-1
-1
9
-1
-3
0
1
-1
-1
-3
-19
-2
1
2
-1
0
-1
1
23
5
-3
-4
-5
-6
-1
2
20
-6
5
-3
5
-3
-6
-8
-8
16
-3
-9
-17
-1
-2
-5
-10
-10
4
8
14
2
4
0
8
6
-4
4
7
1
-1
2
-6
-4
0
1
-7
0
-2
-1
16
-10
-5
-8
-25
-6
5
3
-10
6
-2
-2
6
0
0
-4
-34
-17
-1
-1
-5
-1
-4
2
55
10
-3
-3
1
-2
0
1
9
8
2
3
9
0
1
3
3
0
-3
-6
-7
-1
1
0
-19
-8
0
1
7
0
-1
-4
-9
-7
-1
1
2
0
2
1
27
-2
2
2
5
2
-2
-4
-4
16
1
-2
10
2
-4
-5
-15
-15
-1
0
-3
-4
-3
1
-7
2
0
2
8
-1
1
-6
-1
-5
-4
1
-7
-2
2
2
-6
2
5
-1
1
8
-3
8
33
19
-2
-5
-3
-4
-1
-6
-22
-12
-1
-2
-1
1
-1
1
-14
-5
-8
-1
1
-2
-1
2
8
2
5
4
4
-1
-3
-3
3
0
-2
3
2
1
0
-2
2
-1
-1
-3
-12
-3
4
6
-14
2
2
1
16
2
-4
-10
2
-3
-6
0
-7
-2
2
2
3
-1
4
-3
-4
-1
3
6
-6
3
1
3
11
0
-4
-5
-6
0
-4
-3
-11
-1
-1
0
-8
-10
-4
-3
-8
-1
0
3
-10
-7
0
-1
9
-2
-1
-3
17
10
-3
-2
-11
-1
-1
-2
-14
-6
6
-1
-1
-2
-2
3
25
7
-2
-2
-2
-1
-3
-5
-12
-4
-7
-2
-8
-2
-1
-3
-13
-2
4
1
5
2
-2
-1
9
6
1
3
1
1
-2
0
-3
-11
-1
0
-3
-2
-2
-7
4
3
-2
-2
-3
0
0
-1
-14
-10
-7
-3
-3
0
1
-1
-2
0
4
4
3
-2
-1
0
-6
1
-1
-3
-6
-5
0
-1
16
0
1
1
-1
4
0
2
-7
2
0
0
2
0
5
-2
-3
-4
-4
-2
-4
0
-7
0
-2
-5
-6
-5
6
-2
-2
-1
1
-2
-3
-6
-24
-6
0
1
-5
0
1
3
7
-3
4
3
0
-1
-1
2
4
9
6
-3
-14
-6
1
-1
-1
-1
-8
-4
36
17
0
-2
4
-3
-6
-2
-29
-10
-1
-2
-2
-3
-2
0
6
2
-3
1
-6
-1
-2
-6
-15
-11
2
5
1
-2
-1
-2
-8
-2
-6
-1
2
1
1
-1
7
-5
6
-1
-3
-2
-2
0
8
11
1
-3
8
0
-1
-4
7
6
-5
-1
-9
3
2
-1
-4
0
-2
-2
1
-1
-1
2
1
2
-11
0
3
2
-6
-8
-9
-18
-7
-6
-5
-4
5
7
15
4
6
-1
-2
0
3
4
-2
2
-1
-4
-9
-1
-6
-11
28
1
-3
-4
4
-1
-4
2
-18
4
-7
4
0
-4
-1
3
-2
0
-3
3
2
1
-1
-7
-20
-11
9
5
5
3
8
14
15
0
-1
-1
-6
1
-7
-3
0
1
0
-5
1
-6
-1
-8
-3
0
1
-2
-18
-2
-7
7
7
4
-3
-4
-3
-2
-3
-8
-8
1
-2
0
-4
0
-2
5
3
3
-2
-1
-3
0
2
-3
-11
-17
11
0
4
-2
2
1
2
5
-4
1
10
3
-7
-6
21
2
-1
-6
-9
-3
6
3
-18
-10
1
2
6
0
0
1
-9
5
-8
-2
3
-5
0
8
11
-4
-2
-2
-3
0
-3
-11
-6
11
12
6
8
2
-3
2
-18
-9
1
-8
-9
-5
-7
-6
8
2
-2
0
1
0
3
-1
-18
1
2
1
0
-4
-1
11
-5
-6
-9
-3
-3
-4
-3
-15
16
5
4
0
2
1
2
2
-2
3
-6
-4
3
3
8
1
6
0
6
-3
-13
1
1
0
-18
-9
4
9
24
7
12
-16
41
15
-4
2
-16
-11
-22
8
-24
-11
7
-1
18
-5
-1
-17
5
-6
-7
0
-20
5
13
17
-40
-9
-6
-3
8
4
2
3
8
6
9
1
7
3
7
-12
-1
9
-3
-4
-7
-4
-5
5
10
8
1
9
18
-3
2
-3
2
-18
-4
1
-11
2
0
-1
-14
-14
-3
-2
11
1
0
6
19
4
-4
-4
-15
-4
-2
6
-26
-5
-3
-3
-1
-4
-2
-2
15
8
-1
-2
-1
-1
-4
-6
-15
-3
4
-1
2
3
-2
8
4
2
-2
-4
1
1
7
-5
16
2
0
-4
-6
-1
-8
10
-11
-3
-10
-3
-8
0
-12
-19
13
12
-4
0
7
1
-3
-9
-32
-17
1
4
5
1
-5
4
-7
-4
-1
1
16
2
13
6
-5
5
1
-1
-6
-4
2
6
10
-5
-3
-8
-13
-5
1
-1
-9
-20
-19
-8
-9
1
-2
-2
-2
-6
2
2
15
-1
-5
-10
37
31
4
-1
-11
-5
-4
8
-9
-23
0
5
16
5
3
-18
2
17
-6
-6
0
4
-19
-3
-22
-33
-19
-10
-17
-8
7
-2
-20
17
30
10
10
8
11
1
36
3
-11
-4
-5
6
-2
1
19
9
10
5
-10
-2
-5
-3
-15
1
-5
-3
1
-4
-18
-15
12
-11
-14
-6
-4
-10
-3
11
-27
-13
0
1
1
-1
14
-5
14
1
-4
-3
13
9
-4
-15
1
6
3
-1
-15
1
19
27
-15
-5
2
0
15
-1
-1
-11
-18
14
2
-3
-33
-10
-3
9
24
-10
1
12
24
0
-8
3
-9
3
2
3
10
4
-9
-18
-19
-22
-9
-7
0
0
14
11
9
13
6
1
-2
2
5
3
7
10
1
1
-18
0
6
-4
14
16
3
-2
-1
-4
-13
-7
0
-14
-14
-7
-7
-9
-6
0
-20
-15
2
-2
3
1
5
9
-15
-17
5
-2
-1
4
3
-1
6
21
-1
-1
-9
2
5
0
15
6
3
4
-1
0
-15
-14
10
-3
-28
-9
0
-13
-18
6
-8
-6
-3
-6
-14
-3
14
-2
3
-5
8
-3
6
3
-9
1
-12
4
3
-1
0
-4
8
-2
15
-6
-7
-7
-15
4
-13
0
-23
-12
-16
-2
-19
-14
-13
-11
33
-9
-14
3
14
-6
13
-20
-30
-14
-9
2
11
5
12
42
1
6
19
12
11
19
-8
-58
-1
8
-3
-14
-21
-9
15
24
-4
-1
6
10
14
2
-15
-15
11
12
5
3
-11
-6
-19
-17
-12
-11
-2
-2
15
-14
-10
18
-15
-2
-8
-4
0
-6
2
-16
18
-17
4
5
4
12
14
25
-5
50
19
-1
3
2
-6
-3
-3
-18
18
5
-4
-3
1
4
22
0
0
1
4
2
-6
-12
-20
10
-15
-9
-8
-15
-12
-17
2
-54
-24
-10
-12
-13
37
26
12
17
-13
-2
9
14
21
8
8
29
40
6
16
19
-8
2
-13
-14
-3
11
3
12
12
19
16
12
-1
3
-9
6
-27
-20
-8
-5
-17
-3
3
-26
-23
-4
-35
-25
-20
-3
2
-14
12
-3
19
28
12
-7
-10
18
-12
-23
5
1
-5
-9
-18
-3
3
19
-7
-37
5
5
-7
2
26
-13
-10
23
-16
-5
9
4
-24
13
-4
0
8
-6
-27
-26
9
-9
12
-9
36
7
1
18
-26
-33
13
4
-33
-15
-14
-17
-22
14
-2
36
-15
-5
-7
-1
29
13
-16
-29
32
9
17
12
-14
-11
1
14
1
-1
9
-9
-10
16
-11
-3
7
-2
-5
-6
-19
-25
21
-14
-26
-1
21
2
21
18
35
3
-14
-9
-29
-10
12
60
-19
-23
-12
-4
-15
-7
-7
-27
-13
18
9
2
-6
29
21
-32
18
-6
10
-11
-3
-9
-33
-28
-19
-11
-11
14
44
-12
21
8
8
10
6
10
-1
1
15
21
17
21
-10
-5
-4
9
-9
7
-10
-17
10
6
17
-3
31
27
-4
0
13
-12
-22
12
-32
-36
-2
9
-17
-2
11
-16
-14
13
-6
18
21
7
18
-15
4
-22
-5
7
4
3
-23
1
22
40
-9
-21
-11
-9
-9
24
-21
-5
-7
18
-19
-10
-21
-2
20
27
-7
-4
33
12
-1
4
-18
-65
-18
-23
-10
-1
13
-16
-78
-53
-23
2
-15
-6
-12
-47
45
-2
6
-52
-5
5
16
24
65
29
28
2
1
0
-14
46
26
62
-2
-1
4
-1
-7
-4
15
-34
-18
-4
-7
-3
-1
10
-26
-16
-18
-6
-28
-3
6
-24
-9
-18
15
48
0
-4
12
-14
24
-19
-6
23
39
13
6
19
-32
-15
13
-8
-24
-7
-8
-9
17
36
-27
2
8
-1
18
0
-19
9
-14
12
-5
-1
-8
-16
-2
36
4
-42
-15
-9
-15
-4
-13
8
11
36
6
5
6
-13
16
-52
41
-11
-2
-1
-3
27
-50
-67
-65
-36
-12
-11
8
-11
5
22
-32
10
17
-2
-11
-6
13
10
12
1
5
-2
5
-8
-30
0
27
29
-7
-3
11
-26
74
25
20
-11
14
9
-17
33
13
-25
18
-15
-18
-7
11
9
36
69
-2
-18
-5
-5
-52
17
-63
-66
-23
32
19
3
11
-10
-29
-65
-47
-17
-17
1
26
-27
-5
28
30
9
-3
-1
-3
13
-22
-15
-6
-2
-13
8
36
-16
43
23
-20
-29
25
-2
-15
28
16
23
42
4
1
3
-18
11
-52
-23
-4
7
-6
2
8
-14
6
23
-34
7
9
-1
4
4
-17
12
14
-30
-23
-8
8
-34
-15
5
47
-4
-38
1
-5
-35
53
-2
-18
40
48
17
9
62
30
-9
42
22
26
4
-1
58
-15
7
-49
-18
-5
-3
2
-15
15
30
-2
10
8
-5
3
5
-20
63
16
12
-29
2
-4
-43
-79
-35
22
-8
-18
-5
-3
-43
93
49
-19
-1
35
7
2
52
-51
-1
-26
-15
-6
-10
-15
-2
-2
31
-6
-13
-28
-6
-17
-22
24
-80
-32
-11
20
-11
2
27
-43
-2
34
38
-2
7
-10
-35
-15
-44
-10
2
-4
13
22
-2
21
86
17
3
41
-1
-11
5
19
16
-5
6
-9
6
30
15
21
0
-3
-16
-37
-10
-8
-2
1
45
5
48
25
14
55
-8
-55
-90
17
-15
4
-5
-60
-28
66
-20
-1
-19
-3
1
8
29
-112
-112
-31
-14
-18
-10
-26
-12
-3
102
-23
55
39
-2
-10
-11
14
-73
-15
-13
-14
-4
29
-17
-7
-6
12
-3
-12
-6
-12
-25
37
35
16
-48
-16
3
-2
22
8
8
11
37
21
2
5
4
-19
-54
14
14
3
-3
-3
2
-43
-52
1
-10
-13
4
-13
-17
36
-11
4
5
-3
-6
12
16
-8
-30
-7
-17
15
4
-16
10
49
26
0
-25
-12
5
31
17
-50
-1
-38
-18
-5
0
-8
12
14
62
38
61
8
5
0
-29
-16
-92
-16
-63
-31
-8
-9
16
-5
16
2
55
2
1
17
-3
-1
37
-12
47
69
13
12
-23
0
0
-23
56
11
-10
-6
14
-16
-18
27
-86
-29
-13
-28
-20
13
9
-25
-54
-32
-4
-1
-17
37
67
34
1
-14
-10
1
31
-16
-54
-8
0
23
-1
-12
25
5
-31
-18
-1
-24
-13
2
-21
-24
1
-4
1
3
0
-13
-12
51
-18
-1
-22
-3
-11
-23
-18
13
12
8
-28
-11
6
23
-5
7
-18
22
-20
-6
4
-6
12
-18
2
-44
21
29
12
-1
15
-34
-1
-5
-28
-17
0
16
-23
22
87
32
-20
10
0
-7
23
13
53
-5
-41
-24
-11
6
1
-10
84
16
39
44
7
-15
-11
0
-7
18
27
-6
2
13
3
-31
-70
-23
-34
-11
-3
11
-33
-2
103
9
5
-3
-10
-38
-42
39
-42
7
21
-3
-4
16
61
-1
-59
-21
-3
-5
-5
-7
4
8
3
1
11
-7
-1
8
-16
-6
-56
0
-19
14
6
11
6
9
-1
15
24
20
10
-13
-10
-79
-64
-1
4
-16
-3
-8
-36
49
38
-28
1
14
6
-8
45
-15
-31
4
25
-6
3
1
-5
-32
-18
-25
-78
-43
-20
-25
-21
50
82
15
-14
-9
4
39
17
0
-32
8
34
43
8
-15
0
30
-46
-10
18
-19
-16
14
27
-13
-33
-17
-12
29
6
-26
-29
-23
73
9
9
8
3
5
19
-78
-58
-12
-33
-40
-12
0
-33
24
29
16
51
36
13
18
25
24
-55
-12
-22
-10
0
3
9
13
41
-3
2
-10
2
13
-7
-12
29
25
17
8
0
-20
-19
-22
-49
-72
-18
-8
-3
-10
1
-19
5
46
2
-29
-10
36
2
-13
-86
-45
16
18
9
-4
6
51
87
-24
-22
-16
-5
-3
21
5
-36
8
7
-19
-4
-27
-33
21
-13
22
-14
21
13
32
35
-20
-15
18
27
8
-3
-27
-34
33
40
66
11
2
-6
0
19
-40
-17
-31
2
12
-3
-7
-3
-3
60
23
-9
-29
-8
0
0
14
28
-9
36
35
5
-1
17
-12
-53
-65
-31
-18
1
8
-40
2
82
11
-21
4
4
22
6
0
-20
-41
-1
-30
-15
-25
7
-14
-59
22
-46
-14
-4
-4
6
33
-15
39
-6
-19
-3
-10
-11
-32
10
-23
25
7
-5
20
-10
-17
-14
-3
-22
6
3
-21
-28
3
87
11
59
-29
-6
-16
-17
21
-104
-15
-11
47
16
1
55
29
12
6
-12
-12
-5
9
16
21
-63
7
24
4
-5
6
18
2
11
6
-61
-22
-14
-15
-50
-12
-8
10
31
-12
2
-40
-8
12
7
9
-10
1
0
5
39
-12
-4
-25
22
-10
4
15
-26
-22
14
27
-36
-6
3
3
18
-21
3
8
65
63
0
9
-16
12
4
12
-7
9
1
-15
-14
12
28
6
17
-6
-6
-11
1
-26
-59
-43
-25
1
2
1
-9
30
26
33
-9
-14
2
27
28
-59
-62
0
20
5
4
-10
3
-22
-15
-7
-44
-6
-3
12
-23
83
24
5
-3
-4
-3
5
13
-64
-66
-15
5
3
0
-5
-32
73
-8
43
35
3
1
8
44
-24
30
-17
17
-4
-6
8
-8
7
-23
-1
-55
11
-6
-35
2
-33
-13
12
25
-21
6
13
-6
4
50
-23
-14
5
2
5
-42
-12
2
11
4
9
-4
9
18
15
-15
-20
-7
-16
-4
2
9
20
20
9
14
8
-4
-9
43
-29
-18
12
-15
-21
-5
-31
-28
30
-16
8
20
10
12
12
-8
-27
9
-2
31
0
-8
4
7
-58
64
-59
-14
-2
-5
-20
-38
10
24
2
-14
-11
3
28
15
20
6
11
3
19
10
4
-3
-23
70
6
38
-12
-1
2
-16
9
-77
-15
-63
10
-9
-11
38
29
29
-3
-14
-9
-3
7
-1
-30
18
13
-31
-27
-5
-7
-6
13
5
-3
-13
-4
3
20
-16
-26
-22
3
1
-22
-2
14
-51
12
-9
-6
71
52
15
-19
61
20
-7
6
-3
-3
-8
-20
17
20
15
-1
-1
2
2
-3
-1
3
-3
1
-34
-45
-6
27
-22
-25
-5
29
-9
-1
0
-8
-27
-22
60
-24
46
4
5
-4
24
61
-14
14
-10
0
-7
-14
15
3
16
1
14
10
2
3
9
0
-25
-22
-42
-25
-2
-30
-29
-11
-28
-5
18
20
-4
9
-12
-14
36
25
-8
-19
-1
-22
-1
38
65
-32
34
21
17
1
48
-7
-16
-22
-2
14
-10
-20
-27
-9
-44
-23
-49
-30
-8
13
3
-69
-106
-8
-4
-9
-14
-22
-39
39
88
36
59
33
17
11
63
17
0
-14
-75
-52
-8
7
-4
4
-6
3
51
55
22
-18
-71
-22
-59
34
72
41
3
54
102
29
-70
-11
-17
-2
-2
-14
-42
-11
3
4
-33
-34
-10
25
0
-7
6
-5
-3
1
-8
-13
-43
-10
-18
10
0
21
10
-24
-42
49
69
15
-5
3
-3
20
24
-73
9
-20
-3
-27
-16
-14
6
19
-41
29
-7
6
5
14
2
-8
8
-37
14
0
-4
-11
-4
9
-19
6
22
22
3
-21
-2
-3
62
18
2
6
9
15
-17
-4
-15
1
-31
-30
-11
24
47
-1
71
2
44
11
10
-7
-46
-40
-49
-5
-41
-23
2
17
4
11
-84
-31
29
60
2
-35
47
18
62
-57
-18
-15
-8
-7
1
3
-37
18
4
3
2
8
-25
-44
2
-12
-28
-9
-9
8
-28
-5
-3
34
-5
-28
3
19
-7
7
11
9
38
18
-4
-17
36
23
-2
-29
-26
-4
6
56
11
-59
31
-15
2
-4
-5
-61
-47
44
-40
6
3
-1
-2
-1
28
32
27
31
-61
2
11
-14
-14
-50
38
-19
12
7
-5
4
8
-37
2
-6
-2
-11
-1
14
-3
34
15
8
10
-4
-7
2
-10
-30
34
-16
-51
-40
10
27
-24
67
44
-9
29
33
-3
-2
103
18
-7
36
4
7
1
37
-1
-23
-55
-11
-4
-2
9
-15
-54
-10
33
16
12
-5
-9
5
26
-18
-80
-16
-4
-31
-7
-37
-3
6
46
9
-12
8
-5
4
6
-13
8
-32
18
-20
-9
-1
-31
1
-58
0
42
49
15
9
3
-7
-33
-14
-48
-28
3
10
-25
-6
-15
54
17
-5
-11
-38
-24
23
-7
-3
11
17
1
19
55
-1
54
-25
-25
-16
-4
-8
-5
-25
-75
-9
5
4
2
1
-8
0
24
-6
-14
-23
-6
24
-45
26
48
20
-2
11
-2
11
40
-11
-57
2
-18
-28
-10
-65
-23
53
61
-3
28
63
14
27
92
6
-17
0
-50
-20
-7
-6
-32
-27
1
20
12
-10
4
15
-29
-13
-39
-1
8
16
-7
-16
-28
-1
44
29
-41
-22
2
26
-65
-67
-40
-47
11
-18
-17
-92
-11
90
63
58
35
45
17
29
89
-30
-39
2
-13
-27
-10
13
-31
-12
6
-1
-8
-37
-16
-22
-36
-8
1
-8
16
22
1
26
0
-13
-38
-11
-17
-16
-1
-21
-47
20
123
-12
1
6
4
13
35
9
-6
-5
7
16
7
-25
-14
13
38
27
-52
-51
4
23
1
-1
-6
-24
62
48
-10
-61
-7
-28
-105
10
-18
5
-9
22
52
-16
14
-17
-21
-15
-10
-6
-47
3
2
-5
6
-9
4
4
-3
23
-13
27
12
-8
15
16
18
22
52
-35
0
17
-8
-24
-30
16
39
23
27
21
16
15
84
-12
-61
-10
2
2
-4
3
15
-24
-27
-38
-19
-2
7
32
-37
-8
-17
35
-7
-20
-12
-38
-18
11
-5
-1
-39
-29
0
11
-38
10
-13
-15
95
57
-1
-6
36
-22
43
-17
-21
-5
-1
-6
-2
12
-2
7
-4
-13
2
6
0
-13
-25
30
6
1
-2
14
-18
17
-14
-22
-34
-16
-5
1
6
-38
-9
-11
-10
-13
-10
-6
-20
14
9
26
21
5
4
1
8
-14
-23
-17
21
4
-3
1
-2
-8
4
-6
-12
-23
-4
6
22
32
29
19
12
25
5
24
30
5
4
-13
-3
-1
4
16
0
-11
-5
-23
-16
-13
-17
-16
5
7
-1
6
-11
-8
2
-24
-24
-36
-45
3
-13
1
0
-2
-28
-22
35
2
8
-6
11
17
3
31
12
5
-6
2
3
-11
13
1
-7
-6
3
14
4
4
13
-2
3
15
11
-5
-6
7
-11
-3
-24
-12
-8
3
3
-19
1
-19
4
-14
-9
-9
-10
-1
-21
12
8
14
14
-7
-3
-12
-1
8
40
4
17
19
7
-14
6
-5
-45
-29
-4
-7
-6
28
-2
-13
-20
-24
-46
-1
-10
-17
-16
-10
-49
10
-13
-26
-8
8
18
-9
-2
32
23
12
7
-8
-10
17
4
-36
3
3
0
-1
18
-3
6
21
6
-2
-4
-10
-7
15
29
-26
4
2
-1
9
5
-23
-33
8
-36
-16
-1
25
-15
-18
-8
2
9
7
11
-8
-10
13
-16
7
7
-3
-2
-35
8
16
42
0
-6
14
9
37
1
-9
-5
-19
-13
-12
-2
-8
-3
3
11
18
1
-9
-12
-20
0
-16
-6
-9
16
3
-1
8
-4
7
-1
10
-24
9
-2
-12
-3
-1
3
-3
-3
-4
-7
2
-1
-5
-13
18
-8
-8
-6
-8
-7
-4
1
-33
-14
-10
-2
-9
1
6
-3
-2
7
-5
1
13
-2
2
3
-32
0
17
8
-1
-2
1
37
22
12
7
-2
10
7
-10
-29
15
-7
-4
-2
-7
-2
15
37
34
-10
-12
-4
-1
-10
-3
-11
-31
-6
-10
-6
-1
-11
11
15
5
5
-4
-9
-27
30
16
24
-13
8
8
12
43
14
-17
-17
14
6
7
3
-5
-7
-3
-5
6
-15
-4
5
-17
-8
-7
-10
5
5
-1
0
3
-10
-8
3
12
3
-2
-5
-1
-16
17
-6
-10
4
4
-8
-7
17
-10
20
-16
-12
-8
-6
-3
4
5
-10
-11
-4
-5
-1
17
-3
-11
-1
14
9
2
1
-9
-8
-8
-6
-3
-3
1
4
6
-10
3
-11
-4
-5
-16
-8
-4
2
3
-6
3
21
28
4
6
1
4
-3
0
0
-6
1
1
2
-1
6
-25
15
26
5
-8
-3
3
-7
12
2
-3
-3
-1
2
3
-4
-1
-16
-17
-2
0
-5
-14
11
6
-9
-4
3
6
2
-4
-4
-2
-13
-13
0
0
-5
-5
-19
-9
9
2
2
-18
3
-2
-17
2
-2
1
-10
5
-10
19
17
-6
0
0
-4
6
4
-17
-38
-16
-5
-6
7
-38
-8
-19
2
24
8
-7
1
-12
-30
19
0
-20
-2
6
5
23
46
5
22
-3
-2
-3
-10
-15
-5
-10
3
17
8
-5
-1
10
-8
2
1
-12
-15
-4
-3
0
-7
-7
-9
-14
3
5
2
-17
-11
0
-12
16
13
4
-3
-1
3
10
18
-5
14
24
5
10
5
-3
-5
-24
-20
-21
-10
-5
0
1
14
21
3
0
2
17
1
-7
-14
-25
-22
-1
1
-14
3
2
2
12
4
7
-3
3
-3
8
-1
17
13
9
2
10
9
-16
7
-10
-6
-12
-11
-8
-8
2
-3
-6
2
-5
-5
25
-4
2
-2
-9
-12
-11
-1
-37
-4
-4
-11
-21
-7
0
-7
16
4
2
12
8
3
-2
6
-6
-7
-1
-7
10
0
1
-4
-6
-1
4
1
7
7
1
8
5
5
-6
-6
-2
0
2
-2
1
1
3
14
5
-6
-5
-1
-11
1
2
-29
23
6
3
-1
-8
-1
-3
3
-19
-7
-6
-11
-1
-6
-3
-2
-24
-9
-2
0
-6
0
-2
-10
-17
-3
-3
11
26
-1
-2
11
-9
3
2
3
-2
0
1
-2
11
1
-1
-5
4
1
5
1
-2
-8
-3
-3
-4
-1
-4
-12
3
-9
-7
-4
-10
-2
-3
9
3
-6
-4
2
-1
-2
-4
-7
-2
33
8
-1
17
0
2
6
-4
-2
0
-12
-38
-2
-3
-2
21
-1
1
6
-16
-2
-2
-1
-14
-4
-2
1
-10
-3
6
8
-1
-6
-10
-2
0
2
1
-2
19
4
2
7
11
-4
-6
-2
-35
0
-1
-3
12
9
0
1
-1
-1
5
4
1
-1
-9
-22
6
-4
-6
-12
-3
-4
0
2
4
7
-2
-4
8
-3
0
3
27
2
-1
-2
-3
-4
7
6
21
4
1
0
1
2
-2
0
-39
-4
3
-1
4
-1
-2
-1
-10
-11
-1
-1
-6
0
1
-5
1
8
3
0
0
-4
-4
9
27
5
-4
-1
8
1
1
-15
8
-20
-2
6
-1
2
2
3
24
12
3
0
-4
3
2
10
-34
16
1
-7
18
-2
-3
-6
-4
-6
2
6
10
2
12
22
1
-2
-3
9
6
-3
-3
-8
-15
-10
-5
-1
10
5
-1
2
-3
-11
0
-2
-10
-1
-10
-6
30
17
1
-6
-16
-8
5
5
-32
-10
-6
-4
10
3
-2
-2
-4
2
1
1
2
4
6
1
-7
-3
-5
2
9
-2
-2
4
-2
-8
-1
-2
0
-1
-4
9
4
-2
1
-4
-3
-5
1
-6
-2
9
-1
3
15
0
-5
-5
-3
-18
-6
-6
-24
-3
5
6
5
17
2
3
-10
0
-6
-9
-1
-2
-1
-4
-2
-3
0
5
0
7
-1
-3
-1
-1
0
-8
25
8
1
-2
-4
-4
0
-5
-35
-34
0
-5
-17
0
-5
-3
12
12
-3
-3
14
0
7
12
20
-1
-1
11
-16
3
-2
-9
1
-4
2
-1
29
1
-4
-7
-4
10
0
1
-9
-2
-5
-3
-7
2
-3
-7
-5
-11
0
4
27
-5
-2
-6
-5
4
-6
-4
-16
10
-2
-2
11
-6
7
7
8
16
2
-2
-16
1
1
0
-7
-69
0
8
6
4
0
-8
-9
43
-3
-5
4
-6
10
1
9
-25
-1
-5
-19
-1
-8
-15
-6
-13
2
5
16
3
1
8
12
20
-2
-1
-15
2
-6
-12
18
-6
2
5
4
-3
-2
-6
-18
-8
-3
-1
-5
-2
5
-1
-9
-6
-2
-4
13
1
3
-1
-3
15
3
-4
-15
3
2
7
10
-3
2
-4
-1
-3
-7
4
40
18
-8
-2
-3
-1
-4
-14
-56
-2
-2
0
8
-3
-3
-3
-14
-5
3
2
9
0
1
-1
-19
17
2
3
-17
2
1
8
23
-28
0
1
-13
-3
2
8
-5
-7
-5
-4
1
0
2
3
13
27
0
-4
-6
1
-3
0
-29
-26
-3
0
7
-2
2
-1
-15
18
6
2
5
2
-2
5
40
-16
-4
3
-6
-1
-2
-3
-27
4
-3
-2
6
0
-6
-8
-15
-14
4
2
7
-8
-1
-3
-33
-1
-1
-1
-3
10
5
6
-3
20
-3
-6
-3
-3
-5
0
43
-3
1
4
8
-1
-2
3
8
-16
-6
-6
9
-2
-4
-8
-21
3
-4
1
-8
-7
3
-2
0
-7
4
8
1
4
6
-1
11
-8
-2
5
1
3
-8
-3
2
32
-1
-7
-9
-3
-4
0
1
-15
-2
-9
-15
-3
-5
-2
-6
-5
-1
6
-10
-1
5
-2
-3
-2
1
7
5
2
3
2
10
-5
0
-5
10
4
-3
-3
45
11
-2
-7
2
-7
0
-5
-34
2
2
1
5
1
-3
-6
-2
-14
-9
-6
-3
-3
0
0
-28
-9
-1
1
2
0
-2
-4
12
2
-1
-2
5
1
-3
-4
-7
-7
-2
-1
-9
-4
1
-7
-33
-12
2
0
-3
1
-1
0
43
-4
-4
0
8
1
-1
-1
-12
1
2
-3
-4
-5
-1
6
-5
32
-1
-4
-5
-2
-10
-7
-26
-10
-3
-3
-2
-8
1
3
-11
-19
-3
-8
-14
-2
0
0
3
2
1
11
4
4
-3
-7
6
-19
-5
-5
18
-3
1
0
2
2
1
4
7
5
3
5
18
30
2
1
-9
1
-3
-1
8
-5
0
3
8
-3
0
0
-6
-13
-2
-6
1
0
-1
0
7
4
-3
-4
-10
-2
2
3
-24
-15
-1
-2
3
0
4
10
20
4
0
-1
1
1
-2
1
-10
7
-1
-4
-5
0
-2
-2
12
0
2
-2
3
0
7
-4
-20
-13
-3
0
11
-3
-10
-3
-1
13
2
3
-14
3
3
1
7
-15
-4
3
2
2
-1
2
29
28
2
-6
-17
-4
0
-2
-11
0
-1
-1
-2
-2
-2
-6
-19
-1
-2
-6
-7
-12
2
-2
-2
-2
0
3
33
12
-2
-1
-13
-7
-3
-3
-25
-1
-6
-7
11
-5
-1
5
-1
-1
-1
-2
-16
-12
-2
-5
1
-2
-2
4
17
1
-3
0
9
-5
3
8
6
16
1
0
5
-2
0
-9
23
-7
-1
-1
-6
5
-4
-12
-17
-2
-1
6
4
-1
0
-2
29
12
4
-1
-11
-5
8
5
5
-13
-2
-4
3
0
-7
-4
-8
1
-2
-6
-7
-1
3
6
-7
0
-5
-3
19
2
1
-5
13
1
3
-2
-5
-1
1
-2
13
5
5
5
-3
2
-2
4
-21
-9
-2
3
15
-3
1
3
21
1
0
-5
1
3
-2
4
-34
4
-3
1
-7
-1
-3
-2
-6
-6
0
-2
6
-1
-7
1
12
-4
-4
7
3
-1
-5
-1
3
11
3
1
-20
-1
1
3
-14
-10
-3
-5
-4
-9
-3
-6
7
0
-1
-3
3
7
5
-1
0
7
0
0
-2
1
5
2
-18
-2
0
4
6
3
-3
-3
-5
-14
-1
-1
-3
-2
-2
0
13
5
-2
-3
-5
-6
2
0
-3
-3
1
-1
-3
2
-2
-1
23
0
-4
-6
-4
1
-1
-2
-15
-2
0
3
-1
0
-4
-3
-18
-6
-4
1
7
-1
0
-2
-19
-6
-1
-1
-4
-1
3
-1
42
-1
2
1
-1
-2
-3
-1
-20
9
-2
-4
-17
0
-2
-1
-7
11
1
1
3
0
-3
-8
-1
2
-1
-2
-1
2
-4
-2
-24
-9
-2
1
2
-11
-4
-6
31
4
-3
-4
4
-2
2
6
-11
-8
-3
-2
-22
0
0
2
20
3
0
-1
6
-4
-4
-8
-18
-3
-1
-3
-5
-5
4
6
6
0
0
0
6
8
-5
-8
3
-2
-2
0
9
-4
-1
-1
-11
-7
-1
0
-4
-1
3
5
-1
10
2
-6
2
0
2
-1
-8
4
-1
-2
-14
-4
-3
-10
-4
-5
0
0
9
2
1
2
12
5
-7
-3
-6
-4
-2
1
-12
-7
1
1
1
2
0
-4
-29
-7
2
-2
-4
-2
2
4
21
12
0
0
10
0
2
-2
-1
-2
2
6
10
1
0
1
-21
-2
0
4
2
3
-7
2
-2
0
-3
-3
-6
-1
-1
-5
10
-9
-1
0
-1
-3
-8
-6
-29
-10
-2
-9
13
-2
5
5
19
15
4
11
9
6
-1
-2
6
0
0
0
2
-4
1
1
-15
-12
-3
-3
-9
-3
1
0
20
16
1
-5
20
-1
-1
-1
-30
-11
-4
0
-14
-3
0
-4
20
2
-1
-4
-7
6
-1
4
-10
-4
-1
-3
1
-2
2
2
-8
-6
-1
0
-8
0
-4
-7
-2
-7
-4
-4
-3
-3
-1
4
20
5
-1
2
7
-2
2
-1
-7
7
2
0
3
1
1
0
-14
-1
2
1
-11
-1
-2
2
8
-4
-2
-2
3
-1
2
-2
2
-2
-3
-3
-3
-4
-8
-7
-28
-17
-4
-1
-5
-7
-3
-4
16
16
-1
4
1
-1
-6
-8
-18
4
-1
-4
-8
-1
-2
-1
1
-2
-3
3
10
-1
0
4
7
-9
-6
-7
-13
0
0
-4
-12
-13
-2
-1
-4
-2
0
2
45
17
3
1
7
1
-6
-7
-28
-5
0
1
-2
-1
0
-2
-3
5
-2
3
35
1
4
7
-4
-8
0
-3
-36
-3
-2
-3
-6
-10
-3
-1
-3
-2
2
-4
16
6
-3
4
15
3
0
-4
-14
2
5
4
-4
-8
0
-3
10
-16
-3
-3
5
7
-1
6
-13
15
-1
-4
0
-1
-2
4
-10
-4
-3
-4
-14
-2
-4
-5
3
2
-5
-5
3
0
0
0
2
-6
-2
3
-1
1
1
-4
7
-2
2
1
4
-2
0
3
-3
1
-1
0
0
-1
0
-2
-42
5
6
0
-7
2
-7
-2
11
-9
-2
-2
0
-3
-2
-4
10
-3
-1
-6
-3
-2
-3
-2
-10
-7
2
1
-25
-3
1
-2
5
13
-3
-1
-1
3
-1
0
-16
-3
1
1
3
1
-2
2
10
1
-1
3
-2
0
0
-1
-4
-11
0
-3
5
-1
-7
-3
14
4
-1
0
-1
-2
2
5
-3
13
1
0
-2
-1
-4
-8
-1
-8
-3
-4
-8
-2
0
-1
1
-4
-1
-1
4
-1
0
-1
12
-2
-1
2
1
2
1
-1
-3
5
-3
-1
3
-3
0
4
-5
3
0
1
-2
-5
1
-4
6
0
-1
0
0
3
1
2
4
-6
-1
-1
13
4
-2
-1
10
-1
-1
-5
-9
-5
-2
-3
3
-3
-1
2
3
0
3
4
1
8
4
2
6
-1
-2
0
13
4
-6
0
-6
0
-1
3
-11
-3
5
0
-1
-2
-3
1
-21
-5
4
0
2
1
0
-2
11
6
0
-1
10
0
2
0
18
-1
2
4
-13
1
-5
1
19
11
-1
-3
-3
-4
-1
-6
-5
-3
-11
-4
4
2
-3
-3
-5
-22
-12
-6
-6
-7
1
1
-18
1
11
6
6
1
1
1
4
4
0
0
-3
3
1
0
-16
-18
-4
-5
-8
-3
-2
-5
10
28
-2
0
-10
-2
-1
3
-5
-7
-5
0
2
1
-2
-1
-7
-7
-3
-1
1
-8
-3
0
-21
-25
-4
-2
2
9
2
-1
28
29
2
-10
-4
-2
2
2
10
3
1
2
-28
-2
-4
-8
-7
5
2
6
11
-1
-2
0
-14
-8
-2
-3
-3
-6
-2
-5
-10
-11
-2
-2
-7
-4
0
4
12
-5
1
-3
2
-3
-2
-5
12
6
-2
-3
-4
-1
-5
-6
4
12
2
1
1
-1
-6
-4
-9
-1
0
1
5
0
-3
-3
-12
-4
-16
-8
0
-5
5
0
-15
-2
31
7
-4
5
13
24
6
1
1
1
4
3
-4
-12
3
11
9
5
4
-1
-4
1
0
0
-10
-6
-9
-6
-10
-11
10
-16
-20
-10
1
-1
-2
-2
-31
4
12
3
2
-2
2
13
14
-10
-1
3
-6
0
1
-3
4
0
2
-2
1
-3
-1
-5
-8
-7
-13
-2
-2
0
-5
-6
0
1
-3
-2
6
1
0
-7
-12
-16
-5
0
-6
1
-1
0
-6
-2
3
-1
2
-2
1
3
7
7
0
-11
-4
-3
0
1
27
22
4
13
5
1
-3
4
-13
0
1
3
7
-1
-2
-9
5
-1
-1
-2
1
3
-3
0
-13
-8
-3
0
-12
0
2
-4
0
-12
-6
-9
-12
-8
4
2
7
0
-3
-2
4
2
8
9
6
11
5
1
4
1
-3
-15
-7
0
0
-2
0
-5
-6
-8
10
3
-3
-4
-3
-4
-5
9
-23
-15
-6
0
0
-2
1
3
2
-10
0
-1
5
4
6
11
14
8
-3
3
3
2
-3
-10
-3
-1
0
-2
-9
-2
-2
-7
-14
-12
3
-1
17
0
-2
-12
2
-1
-4
2
5
-1
-7
9
-5
5
-3
-2
-19
-12
0
-5
7
7
-1
4
6
15
12
5
7
-10
-1
-3
5
9
9
-1
-21
-3
-1
2
-19
-7
-6
5
30
5
2
5
19
12
-2
7
-17
-3
0
-6
-6
-10
-11
-5
-28
0
-1
-6
-17
-6
0
2
-10
-30
-2
-6
4
-2
2
-14
19
13
-6
0
6
-3
-4
-1
-11
0
1
-2
-7
1
-7
-12
2
-5
-4
-2
3
-2
-6
7
-14
14
-15
-2
-4
-5
6
12
-18
-25
12
-1
2
3
1
2
-3
-5
3
4
2
7
6
-10
3
10
3
1
-9
-2
-3
-1
7
10
1
-1
1
-3
0
6
3
5
-8
1
4
-2
-4
6
9
-5
-13
-8
-6
-12
3
-20
-21
-3
16
1
14
9
-16
-1
3
-7
-7
-15
-64
-6
1
17
-9
8
6
17
46
9
8
0
3
-22
2
1
-10
-2
-1
13
28
29
-5
-2
4
-10
-8
-12
5
-2
4
1
16
-14
-6
-7
-6
1
-2
-10
-21
6
5
6
-12
-12
-6
-1
-2
6
5
8
20
13
-1
0
2
0
11
-6
28
22
10
-1
11
-4
-14
-11
-21
-24
-11
-6
-11
-7
-15
-7
3
-2
-2
-1
8
-3
4
3
-2
-31
-19
-5
-11
2
8
14
-8
17
22
15
22
10
2
-9
0
-11
-4
-3
-12
-8
9
0
-3
-8
-2
-8
-3
2
-8
7
-4
12
-3
-2
-5
-7
-4
4
16
-7
-7
1
7
2
-7
-5
-9
1
-3
-5
-2
-10
-4
-10
4
16
3
0
14
8
-6
4
-13
-17
-4
-1
-24
-2
21
19
-7
-18
-2
1
0
9
0
-10
-31
-1
2
7
37
4
1
8
41
21
1
4
-31
-7
0
-20
14
3
4
-1
1
-17
-19
-8
-15
-14
-7
-8
-8
13
10
6
3
-8
-1
0
-6
5
8
8
13
26
-6
-5
6
-11
-22
1
1
-17
-2
-2
4
15
6
-7
-30
-2
3
3
2
-7
1
-8
31
49
5
-2
-11
-9
-14
-3
-27
-28
-3
-1
3
-18
-7
-11
-1
17
-9
-9
-9
1
26
14
-10
-18
-2
1
8
20
2
23
-2
-14
4
7
5
21
2
-18
-5
-6
7
0
-5
-3
-9
-6
-17
4
-2
-7
-17
-20
-8
0
-5
11
0
7
16
-3
4
-5
4
21
3
4
-10
0
1
-10
-8
-13
-2
-6
4
1
13
21
31
-3
3
-1
-19
4
-5
1
25
29
2
3
-7
-10
-23
-25
-10
12
-3
-3
-5
-9
-11
-5
-13
-6
-6
-7
10
-1
19
14
-45
-20
-5
4
10
3
-25
-17
1
-15
-8
-13
-12
-7
21
-1
14
-17
9
2
-2
12
2
10
9
51
0
-2
-7
-5
-14
-14
20
-6
3
-3
14
-22
-20
7
33
-14
-30
-2
15
-8
42
36
-13
-1
30
13
6
54
1
-18
-7
-10
17
4
-7
5
10
23
11
22
13
5
4
-1
-15
-26
-10
15
6
6
19
-16
-27
-17
-9
-15
-28
-18
6
-31
2
16
6
-9
-5
4
0
1
0
-2
5
1
6
14
16
20
6
-13
-29
-23
2
0
3
7
9
3
0
-1
-8
-13
-27
-8
6
10
28
29
10
7
25
-3
-30
-13
9
5
-10
-11
-10
-13
-8
-8
-2
-3
0
-4
-9
-4
6
-1
-21
-26
-6
-3
0
2
6
-4
-8
-58
-40
-9
-11
-21
16
-1
-40
29
39
12
4
31
0
23
67
8
-1
-7
-8
8
-9
6
-47
6
-15
-8
-14
-27
-8
-11
5
-15
-4
2
0
2
21
-1
-21
-29
-35
-11
8
7
13
24
10
11
36
19
2
5
-31
-30
58
76
55
7
12
-5
5
5
-10
14
-1
1
-15
3
-23
-4
-14
-29
-16
-4
3
-23
12
-6
-29
0
-7
-9
-13
11
1
18
-1
-53
-38
-8
-20
-1
28
49
-17
1
1
4
16
19
15
9
61
14
14
4
15
20
-13
-1
-56
-17
-13
-4
-2
-16
-15
-50
19
-29
-5
5
33
-9
-17
5
21
46
-4
-6
-24
-8
-14
-10
-33
-49
-8
-3
-3
-11
-12
-4
-1
12
-15
-10
-17
-10
18
37
-27
-1
-6
-9
-7
-15
-32
-12
-8
42
62
18
39
16
-11
-5
11
-43
-39
-8
-29
24
62
8
-13
-3
33
0
3
15
-37
24
8
2
-19
-1
-13
-37
21
-7
-8
-29
-11
5
13
13
-36
-70
-11
8
-4
-11
-6
-51
-7
19
30
2
1
9
7
38
86
15
3
11
15
1
0
44
-3
-7
-32
-16
-8
-11
2
-9
23
8
16
15
5
5
11
2
-50
-39
42
-4
-16
11
11
-25
-6
0
-52
-38
-45
-6
-13
-37
56
24
5
69
48
9
-8
57
-31
-13
-12
34
18
-2
-8
-19
-44
-25
-29
-45
6
-1
-12
-51
-12
-24
24
2
-9
-2
20
22
-36
26
16
5
-12
-3
-2
34
84
3
47
-23
-33
-3
16
21
50
23
11
39
14
0
-11
-6
0
2
-13
42
42
16
3
-18
-52
-69
-39
-49
-26
-9
6
-53
29
30
41
45
-23
-1
-19
24
0
43
2
-21
37
3
8
100
6
1
10
-3
-11
-7
-4
-24
8
-14
13
10
2
5
-5
3
-47
40
-5
16
-7
-2
30
-48
0
-37
10
19
-5
3
4
-31
-15
-36
-26
-8
4
0
-16
37
34
13
36
2
-8
-5
5
-3
-35
-21
-10
-15
1
-4
-22
-15
-1
23
-48
-2
-25
-14
3
-16
-4
21
4
-18
13
-4
-16
-24
-66
-55
12
56
-38
-1
-8
-29
49
-10
-8
-61
4
-3
-6
61
-24
10
2
54
37
2
22
-18
2
32
16
63
27
11
-10
11
49
12
-13
-14
-15
-10
-2
27
-34
57
-14
-13
29
5
-39
-21
-7
-77
-6
-31
-32
-9
10
9
-48
-60
-1
-12
-41
-9
13
-24
11
-10
6
4
11
-1
-16
-21
44
41
-11
3
29
17
19
112
-30
-1
-1
-37
-55
-13
-21
-25
-25
-44
10
28
41
0
17
-7
13
18
1
-37
-13
-7
-43
-16
-27
-9
1
9
-3
-9
-20
-50
36
-2
27
44
-2
11
5
0
25
-12
-61
-22
-56
-7
28
8
-40
12
0
24
96
27
0
-7
20
-34
24
34
-14
-6
7
-8
26
20
-9
-32
-6
-9
-13
51
26
55
8
19
17
0
-9
-16
-22
-62
-49
-58
-24
2
5
-39
40
-10
-31
-50
-26
-1
64
38
-61
49
-6
2
39
-12
-77
-25
23
2
38
-20
-12
6
-7
20
38
64
42
-53
-46
-6
16
-17
-54
-49
-20
87
21
0
-16
-33
107
7
5
-22
45
21
28
65
-81
22
-3
-34
-30
-12
-1
-62
12
7
2
16
15
-6
-32
26
28
8
4
12
18
9
31
3
-37
-42
-1
-21
-52
-12
32
-64
-19
-34
6
24
45
2
-47
93
40
42
3
-55
-53
-19
12
-59
-48
-38
-55
-12
-6
-3
-17
-19
-51
66
-16
40
26
3
-11
29
29
23
28
-39
2
19
6
-8
-38
5
-1
29
-8
-1
20
7
-5
-16
24
35
1
3
22
-43
-5
34
-56
-41
-34
-28
-69
-20
-27
-25
29
-8
8
6
-2
31
77
44
-4
59
11
-4
6
35
-34
-35
-1
16
32
8
-3
-10
27
-74
21
-9
-20
0
28
-74
-2
25
-12
-47
-32
-16
-8
68
-3
70
-22
-34
29
15
-8
31
-59
23
-23
46
8
7
55
-69
44
-92
1
-57
-46
-13
-59
38
47
50
-7
48
52
10
33
26
-38
-16
26
-5
1
-1
-1
-3
26
-7
21
16
17
4
-15
10
-42
62
-21
-6
-7
0
25
-35
-14
12
-21
29
-42
-10
8
-24
42
-6
-2
-1
13
3
23
7
-8
-88
-18
-66
-41
-11
-30
28
4
1
-19
15
26
8
-13
-28
-18
-13
9
31
5
-3
2
35
-9
-44
-7
17
5
-10
-25
-47
-27
30
36
-60
-54
-6
3
15
61
40
-12
23
22
1
28
67
10
-34
-3
11
-2
-8
0
-36
-48
-55
2
-4
-4
-6
-19
-22
25
74
24
-17
-22
-5
-7
-14
-31
-24
-19
5
15
28
104
25
42
55
30
-74
-28
-5
-54
-11
-7
-53
-31
27
16
3
7
31
-5
-16
-5
-36
-21
-15
-41
-61
10
30
49
100
78
25
24
57
25
-15
21
-17
-3
1
7
15
-33
-31
-29
-19
-23
-8
-2
-20
17
32
-48
-15
-3
-3
24
10
-24
-18
15
-19
-26
-15
-39
-66
-7
-28
-22
0
4
5
-4
-14
16
23
6
5
-5
0
-18
55
-13
-19
30
-11
-2
-2
-1
-40
27
-3
14
7
23
2
-7
54
25
36
-57
13
1
-7
3
-22
-11
15
4
-17
-29
3
19
-11
-13
33
12
65
61
15
45
5
-18
-70
-25
-37
-24
-5
-41
-26
-51
50
-24
17
10
1
-17
-14
8
24
57
29
-12
0
6
13
55
-7
-6
-30
6
0
-15
91
10
12
31
-8
-42
-11
2
-26
-41
-112
-9
28
32
-1
17
-34
-30
-63
-1
-91
-53
-20
-21
-71
9
72
-17
107
77
30
-2
76
16
20
12
-2
-18
-14
-7
0
-59
-33
-16
-68
-48
-16
-7
-62
38
-19
35
13
33
17
31
33
51
-2
-6
-14
1
-7
-17
12
-69
48
44
-14
-30
-5
-29
-20
43
108
-19
18
1
-7
-21
37
-18
-39
29
42
33
16
17
8
-8
49
-37
-112
-27
-19
-20
-40
-38
-57
-7
66
21
8
35
43
19
10
-23
-18
-12
-6
-4
-35
-5
5
11
51
2
3
34
-10
-34
-8
-6
-18
9
-7
-90
-39
30
9
34
-40
-31
-25
-6
35
37
-19
64
-7
13
16
77
61
-22
-27
-69
52
35
-12
-43
-4
-35
-8
31
28
-8
13
14
-46
2
-21
-29
-10
-4
9
19
-31
-7
5
18
2
2
-8
-30
0
-30
45
12
-26
-10
1
8
-1
56
52
-8
-24
-34
-7
17
-5
10
1
-10
-25
16
4
-7
13
45
9
-8
42
11
-2
-10
24
-30
-6
-4
-16
-6
5
12
2
-37
-62
-2
-48
-30
-8
20
-54
51
21
-5
2
34
3
-33
74
-35
-37
9
-40
-31
-9
-11
-39
21
-15
5
-43
-9
-3
0
20
10
-4
-17
24
1
3
22
27
-14
25
-3
65
44
12
3
-91
-47
-36
37
25
6
-2
-2
34
39
84
-24
-51
-28
-18
-21
5
22
-8
-28
28
16
3
12
22
23
57
33
-15
-21
9
35
9
-17
-25
-11
4
2
-3
-33
-66
-55
-38
-9
-1
37
11
-13
31
14
32
24
-10
-9
-6
8
3
-62
86
-22
-21
-27
-17
-8
-57
44
-23
-12
39
26
8
-11
96
30
44
4
0
-12
0
11
-43
-16
-53
3
-17
16
2
-17
-1
4
5
-51
-61
-34
-8
16
60
-18
30
16
48
19
4
33
-55
1
5
10
31
5
5
-17
-3
-7
-85
-1
-4
3
-10
-42
-36
-15
8
-18
-23
-14
2
51
17
-19
-55
-4
6
13
7
-26
-9
18
-9
-21
-20
-29
-8
4
-3
-13
-9
23
24
15
14
5
38
1
-36
48
10
-21
-8
-41
-24
-16
-47
-48
-4
11
10
23
-38
6
-44
0
-28
2
-4
-10
19
-39
30
23
0
-26
-15
-7
-6
14
-40
-15
13
12
-1
40
-37
-7
-19
1
-20
-11
-3
-56
27
10
-48
-7
-38
-15
-4
-18
-6
15
35
1
60
34
11
14
26
6
-7
10
33
10
7
12
-21
-13
-1
12
-109
-32
-21
-16
1
-9
1
12
30
-5
-1
25
6
38
-25
-12
-32
-16
11
12
10
-21
-41
-34
52
51
-4
-64
-21
32
39
-3
-21
-18
9
37
0
-31
25
1
-7
-34
-17
-34
-6
23
27
25
-17
33
7
15
15
-21
-26
-8
14
-3
1
6
-19
14
43
15
3
2
6
30
16
-20
-25
-19
21
19
-3
6
32
-20
18
-6
-3
-21
-8
24
-53
18
-1
-35
-22
-14
1
5
37
8
28
14
6
16
-3
8
23
17
24
-2
-15
-4
1
-41
-19
1
24
16
51
-13
-7
-3
3
-7
-25
5
-41
-2
1
10
-15
-10
-61
-33
13
-4
4
21
-16
2
9
10
19
20
-4
-8
-49
16
-11
14
2
-15
7
18
60
1
45
-30
51
32
2
-27
17
-2
57
30
17
-7
0
-3
19
-14
-51
-41
-17
-12
-10
27
-27
-29
-31
6
-48
-22
-4
-31
-31
22
54
28
63
34
7
7
-39
-4
38
18
-26
-15
-18
-20
42
-39
-21
-11
30
39
22
29
39
44
79
-12
-14
-3
-6
-3
9
-22
-128
-10
-46
-48
-20
5
-5
-14
-13
-13
44
27
19
-5
-37
19
94
23
-4
0
5
8
-40
0
-37
10
-11
-14
-10
-1
41
-22
47
7
-51
-27
-7
-30
-1
-14
2
-16
61
27
0
-10
-32
48
-13
15
4
-6
1
39
103
-23
16
-5
-9
-4
8
-6
-43
20
-51
8
23
26
4
-1
-4
1
-46
-3
-11
-12
1
16
-36
19
76
26
-23
2
8
18
-19
-12
-42
-81
0
-23
-18
-35
37
-8
-9
31
-4
-9
5
61
11
19
28
6
31
22
1
-82
-21
17
47
1
-76
-9
-13
-6
40
-2
-99
-14
19
12
-4
12
-4
2
33
-4
19
-16
-1
-15
-21
-36
-32
-11
-28
5
9
36
6
11
-4
-6
-18
-38
-11
12
-116
-53
59
-7
-8
14
-8
-44
71
72
21
2
-53
-4
4
10
50
-34
-56
4
28
-7
-7
8
-32
-29
-50
-22
24
4
-1
-19
-2
-39
-37
37
-33
-40
-2
13
-47
18
55
-50
88
81
19
-5
23
44
46
40
-30
-17
-7
19
34
2
-4
-11
45
12
1
-16
11
9
-28
-16
5
5
4
59
-27
-26
-7
35
-31
-30
-8
-38
3
-5
-1
-16
17
-17
-14
8
-21
-6
-8
-15
57
65
14
-13
21
62
79
47
-12
0
-4
-9
21
-37
-76
-32
-29
-17
25
28
-3
-1
-1
4
-19
-16
-10
-1
-7
-27
9
-8
-7
-17
-14
-35
-16
14
-2
11
44
25
26
11
6
22
19
45
-35
-19
-4
-5
-10
-6
-12
-83
25
0
16
19
-16
-18
-22
-2
-32
-8
-8
3
23
80
66
10
47
42
-10
22
37
-60
-55
-7
28
-28
-8
0
-32
1
-29
-21
-88
-14
-14
1
11
-12
-9
53
-8
6
1
-34
-13
-11
-15
-2
6
-21
3
56
-51
25
55
2
-39
7
-7
-57
14
34
-54
13
10
1
3
33
90
-66
-34
2
-13
-28
-2
9
-53
25
41
-37
-19
-17
-6
-13
-19
26
0
-56
31
20
-3
3
-21
34
92
68
-29
-3
3
16
15
30
1
-21
10
8
7
-11
26
-26
-57
30
2
-19
-9
-31
-23
-54
51
-16
2
-10
-11
8
-26
-19
27
-24
-12
-18
5
-7
-49
95
45
30
41
37
8
21
85
-13
-14
-4
-24
-18
-3
-13
-33
35
-48
-49
-5
34
8
-14
44
-45
-24
21
-23
-11
-8
21
39
-28
-18
-10
-15
-37
-10
-25
-69
-9
-57
-1
-12
-7
-9
-52
-35
4
-29
17
21
-1
3
19
23
5
40
35
-10
-26
-12
-15
-36
6
14
-3
24
9
6
16
8
-14
16
-32
-36
15
6
36
0
-47
-20
3
-19
-42
-34
-71
-110
105
28
-25
40
63
27
-29
91
34
45
37
-16
-42
-19
12
37
-45
-43
-21
54
69
14
-4
13
-35
-21
13
-9
-49
-15
11
-38
17
11
-27
6
-5
-3
5
-39
-13
24
-21
-3
12
8
2
-10
-6
-30
13
-23
-27
-2
-19
-9
15
27
18
-29
0
-4
15
55
-27
-25
2
6
2
7
-10
-30
3
-16
14
19
6
-7
33
0
-8
24
-15
5
-5
3
-29
-2
10
5
1
2
8
11
21
13
-27
-11
-4
-56
-44
-22
-26
-18
14
-9
-28
-44
-9
5
11
2
-30
-2
19
57
44
7
14
15
86
52
-2
-9
-1
2
2
19
-20
-12
2
-7
-18
-10
-3
-17
-15
-14
9
-6
-22
-10
-17
-21
5
9
3
-15
-16
-6
32
11
-6
-32
-69
-3
7
8
-18
15
-18
20
38
26
6
-19
-14
-15
-5
-17
-9
5
15
22
21
0
12
-3
0
3
-7
-9
-65
10
-35
-3
41
16
0
2
32
-1
0
13
-11
16
19
23
19
2
-16
-11
-13
-19
-2
-16
-24
-6
9
-2
-17
-1
-6
-6
5
6
-3
-8
44
3
-22
-18
-16
-14
-21
-6
6
-43
-14
-10
-15
-5
20
-7
-18
87
84
26
19
23
3
25
-9
-14
-14
-1
5
3
4
8
11
7
0
-5
-4
1
-5
-8
22
-4
-9
-3
23
-6
-14
-10
-26
-27
-29
-15
-48
-21
6
11
-53
-1
5
12
43
8
3
-6
6
-6
7
5
22
9
-11
-9
10
15
3
-11
-43
-9
-17
-18
-13
-12
-10
18
15
-9
7
2
23
5
6
3
-17
11
-11
-23
-2
-15
-5
2
23
0
3
-7
-21
26
14
2
25
0
3
1
17
-12
-12
-18
-11
-6
-3
-6
16
4
-7
-7
-25
-7
-8
-7
1
9
9
8
17
-2
-5
4
6
14
7
1
-19
-3
-1
-4
19
-1
-10
-8
1
3
-9
0
-41
-17
-10
-6
10
-4
3
5
33
10
-1
-5
-19
3
3
4
-30
-4
10
19
7
2
-4
1
12
-17
-11
-1
1
1
2
7
10
4
0
-2
9
-2
-6
0
-11
2
2
-11
-22
-8
5
-4
-18
-4
-19
-5
2
3
-4
-5
-8
39
10
5
16
-5
12
9
12
-9
23
9
11
6
9
1
-15
2
0
0
-6
5
-8
-4
7
4
3
2
32
-3
0
2
39
-5
-16
-4
-21
-2
-6
2
-64
-16
-13
-13
-11
-7
3
4
37
7
8
5
2
1
11
-4
-32
-10
-3
5
13
3
-4
-1
-58
1
-4
3
6
2
0
0
80
-14
0
-3
-10
-1
0
3
-17
-7
0
-1
5
-2
-1
11
5
13
7
-7
-7
-2
0
-16
8
-14
4
14
5
1
-4
-14
-24
16
-5
-7
3
-2
-6
20
8
-8
-5
-4
-12
-3
-7
-17
15
6
4
-4
-22
-5
-11
1
-7
-14
-4
-6
-8
10
-4
0
10
5
-4
1
4
-6
2
-2
19
13
1
-8
-2
-5
18
8
-16
13
5
-1
-6
1
-3
-2
-17
-34
-5
2
18
-4
2
-1
38
12
-4
-5
-20
2
-11
-5
-55
-8
-3
-2
1
0
-2
9
15
-14
-2
2
-6
-1
5
-8
3
13
10
-4
4
-2
1
7
-17
-13
-5
-6
11
-1
9
-4
9
7
4
1
-33
1
-12
2
12
6
-1
7
15
3
-5
-11
-17
5
-7
-3
-2
-4
-2
-1
20
-23
-7
3
0
1
-6
2
-26
-6
-5
-9
-16
-12
2
-9
19
4
4
-6
-22
6
3
16
17
6
3
2
-9
-2
-2
-5
-11
20
3
7
11
1
1
-6
-37
-6
-7
5
-11
0
-6
-7
43
-26
-5
-9
9
-5
-2
3
-5
-9
-3
-5
1
-4
5
5
-23
12
1
0
0
4
2
10
46
6
-1
4
13
8
1
-5
-52
44
7
4
14
3
-1
0
-4
-33
0
0
-11
2
3
2
-5
-4
-2
-1
-5
-8
-5
4
2
11
1
3
6
-1
16
-1
-11
-32
1
1
-5
4
-10
3
32
19
-8
-8
5
-4
-4
-10
-29
-7
-1
-7
-13
2
-4
-3
-8
0
0
2
7
-2
-3
6
14
14
2
3
4
-2
6
0
-15
-13
-3
-6
-16
-2
0
3
16
-2
0
3
-4
4
-4
-14
9
-11
1
0
19
-1
-1
3
0
17
3
6
10
-1
1
1
10
-11
-2
-3
1
6
-7
1
-22
3
1
3
-6
-11
28
0
-4
-15
-1
0
-15
17
-38
-7
5
18
-7
0
4
-6
-4
-4
-36
-16
-1
0
6
-6
-4
-2
22
23
4
-2
-1
-4
2
1
-18
-5
-4
-2
1
-2
4
-1
-4
-25
-2
2
-1
-2
0
-3
20
4
0
-1
11
-2
-7
-2
5
28
-4
-4
-17
1
-4
-6
-3
-28
-1
-3
2
-4
5
4
1
5
-3
2
11
1
-7
2
-6
-8
1
-2
-17
-5
4
-1
5
33
2
5
17
3
-7
-3
17
8
3
-3
2
-3
-1
-7
-23
-27
-4
-6
-19
-7
8
5
-11
-5
-5
-4
10
6
2
4
9
-23
-2
-5
3
-3
-10
-9
3
14
-3
-3
-16
-5
5
-1
11
-9
2
3
-15
1
1
1
-15
18
4
-4
2
-4
0
1
22
30
4
5
5
0
-4
-8
5
-23
-9
-10
2
-6
-11
5
-11
10
5
5
10
5
0
-1
17
4
-8
3
2
1
5
1
-15
-40
-3
-1
-6
3
-1
1
8
22
6
-1
4
-1
-1
-7
-25
0
-3
-6
-13
-5
-5
-4
55
14
6
13
34
4
17
2
-32
-7
-7
0
-8
7
-16
1
-30
-20
1
3
3
-2
3
-4
-6
-8
-3
-9
16
-7
-3
-2
-11
-21
-3
-3
-7
-3
2
-2
51
2
-1
-2
-6
1
5
3
-27
19
5
5
26
5
-3
-3
3
-20
-2
8
-16
4
26
4
-18
12
-1
-9
-8
-4
-26
-13
-14
-34
-2
3
2
-3
-2
1
16
22
0
-1
-6
-3
-3
2
30
-2
-2
-6
-7
-2
9
-3
-24
4
0
1
-1
0
2
3
3
-16
-2
-7
-14
-5
-3
0
3
17
-1
-3
3
-1
6
0
4
-30
-4
-5
-2
-1
-4
-3
-9
7
-1
-1
-17
-7
15
11
21
12
-1
2
14
8
-11
-5
-5
-17
-1
1
1
-5
7
-3
17
0
2
-5
-8
-2
9
-5
-65
25
0
6
12
4
-4
4
21
-5
0
-4
13
-3
5
2
32
7
0
0
-9
1
2
-5
-54
-13
1
3
5
-1
-3
2
17
-14
-2
-3
-11
-3
1
-1
-41
16
3
0
23
-3
-3
-2
43
5
0
-3
-21
-2
-6
-1
-9
6
-5
-8
10
-2
-9
-2
16
4
3
7
2
2
0
-5
-9
-8
-1
1
-2
1
-1
-3
-23
-17
3
-3
-1
-4
7
1
-1
-5
1
2
-4
0
-4
3
20
21
-3
-9
-20
-5
-6
-5
-20
-25
-7
-9
-22
-3
1
-3
10
19
2
10
26
7
1
0
-12
13
0
0
-9
2
-6
3
0
-26
-6
-2
10
-2
-2
1
6
6
3
1
-24
-7
2
2
-27
3
-2
-5
-1
2
-5
-4
31
14
-2
3
-5
4
-11
2
8
-8
1
-2
-1
-4
-11
-7
-13
2
1
5
12
-8
16
2
-12
-22
-4
-1
-7
4
-3
6
4
16
2
4
8
0
-1
-4
3
-3
0
-8
-4
0
6
3
-4
1
-2
2
-13
4
-5
-1
-1
-22
-3
2
8
-2
0
-1
-23
5
1
-4
-2
-4
1
0
33
8
1
-2
-5
-2
0
-2
-9
3
-2
-4
9
1
-6
2
36
-6
-2
0
-7
-13
1
-10
-38
-12
1
1
15
9
-5
-5
10
-3
-6
1
-11
-1
-3
-2
-21
-17
1
-3
-13
-3
-4
2
28
31
1
0
-10
-1
0
-2
20
-1
-4
-1
13
-3
-1
-3
-30
1
3
-6
-6
-2
4
3
0
-7
-4
-6
1
-1
-3
2
4
3
-1
0
-25
-1
-4
-2
-27
-4
-4
-2
-2
-7
3
-4
10
-1
-2
-2
18
7
-8
0
17
-3
-3
0
-12
-4
-1
-5
-37
-4
-1
-4
5
3
2
5
13
11
-1
-4
-16
-3
1
2
-4
-15
-3
4
16
-1
-3
-2
7
4
-1
-4
-10
0
-2
-1
-14
-2
-1
-1
12
0
3
5
0
6
4
3
-8
3
-5
3
10
-13
-8
-5
-11
-4
0
1
13
9
-5
-2
4
0
4
3
-4
-11
5
5
5
3
-1
1
-2
-24
-3
-4
-5
-4
-3
4
27
25
7
0
-5
-1
1
-7
-3
0
-3
-3
-2
-2
-3
-4
-9
-12
-5
-4
22
-5
1
4
12
5
4
6
-10
4
10
-6
-14
-11
0
-5
-1
-1
0
3
7
5
2
6
5
1
0
-6
-16
12
1
6
4
8
-4
-3
21
11
-2
-8
-3
-7
0
0
-18
-10
-4
-4
-7
-2
3
2
-10
7
1
0
-5
0
0
1
-4
3
-2
-3
-23
-2
-2
-1
-5
-9
-3
-3
-1
1
-2
-2
-1
-2
-2
1
-7
-2
2
0
19
3
-1
0
10
0
-1
-1
0
0
-1
0
11
-1
-10
-4
-27
-10
-3
-1
0
-4
-7
-2
18
7
0
0
-4
-10
3
1
-13
-11
-11
-1
2
13
0
0
-2
3
4
0
2
-4
5
2
27
36
18
3
2
0
-9
-6
-14
-9
9
2
0
0
-3
-3
-19
7
-2
-2
5
-2
-3
-3
-12
-33
-10
-4
-13
-4
-3
-6
33
0
-6
-6
-5
0
2
1
-25
11
-2
1
-6
2
1
1
32
-7
3
4
6
-4
8
2
-9
10
2
-2
-9
0
-4
-3
-37
-24
-9
-4
-3
0
3
3
28
2
-3
2
5
4
-1
-2
-2
15
2
-8
19
-10
-7
1
-16
-20
-3
-1
-32
-1
6
3
7
0
4
16
21
5
9
-1
-20
8
-4
-5
-5
-3
-8
-3
-13
-7
-18
0
5
1
-6
2
10
4
17
-6
-4
-5
-1
-2
-13
-19
0
-6
1
-5
-3
0
1
7
11
7
5
-2
4
5
37
10
1
1
-4
5
-1
-3
-12
-1
-16
-3
7
-1
4
4
3
-7
-11
-5
-11
1
-6
-3
4
-12
-7
-3
7
-5
-2
-8
5
9
8
-3
-13
-4
-5
-5
10
3
-4
-4
-1
0
1
4
7
10
8
0
4
3
1
1
-25
-4
-3
7
15
6
1
2
-26
-21
0
2
-5
-1
-2
-4
11
29
-2
1
9
-3
-4
1
-20
-33
-2
-10
-9
-9
-3
-5
7
-4
-5
0
-13
0
-1
3
19
-2
3
3
22
1
-2
-5
-15
5
1
1
-17
-5
-3
-4
14
9
-6
-3
-9
-1
-2
2
-6
-4
-2
1
-5
0
0
-4
-8
-1
4
0
-2
-2
-2
-3
-1
-15
-3
-2
2
1
-1
-2
-24
-2
-3
-3
-2
-1
-4
-8
18
26
1
-7
-9
-3
1
-4
5
5
-1
-2
-8
1
1
3
18
-4
2
2
9
2
2
-3
-2
-4
0
2
5
0
0
1
-25
-6
0
0
-3
-1
0
0
-18
-13
-2
-5
-9
-3
3
1
30
7
-1
0
2
0
-9
-6
-21
6
-3
-3
1
-2
0
1
2
-11
3
-4
-6
-2
-5
-4
-5
3
10
-1
-6
-1
1
1
-4
-8
-18
-3
0
1
5
1
26
1
10
2
12
-1
1
-4
-12
-1
-2
3
25
5
-3
-1
-16
-15
-10
-2
-31
-6
-6
-3
16
13
9
0
9
5
-9
4
14
14
-6
-2
4
-7
-3
-2
0
0
-1
-5
-13
-4
0
0
-3
4
5
-2
9
-3
-2
2
1
-10
-1
4
6
1
1
-4
-1
4
0
1
-13
-3
-1
-3
-28
0
-1
1
0
4
-5
-5
6
0
-4
-1
3
-2
-2
0
-8
-11
-4
-3
-9
-4
0
-7
0
6
15
3
0
1
-10
3
7
-9
-7
-1
0
-1
2
1
1
-8
-16
-5
-6
2
0
-1
-22
2
21
4
1
-2
3
-1
23
9
8
5
4
4
4
4
-12
14
1
-3
-6
-3
-2
0
-12
-12
-10
-3
-5
1
-5
1
14
-13
-20
-6
-1
-2
0
-2
-6
10
-4
-1
-4
-2
5
2
0
-10
12
2
-2
0
2
2
-3
-1
-2
-4
-13
-1
0
-3
-4
5
0
-3
-18
-3
5
0
11
6
-5
-1
2
1
-6
-2
-3
5
-16
-3
4
-1
-1
-3
-10
-36
13
1
4
-1
-4
-1
-15
-8
-1
-1
-2
0
0
-2
-1
6
1
-2
-6
0
2
1
18
-2
0
-2
7
-4
3
4
0
7
-2
1
-13
3
-2
-8
-4
1
6
6
9
-1
-1
4
-10
-15
-13
-1
0
3
0
-2
18
6
24
6
8
1
-1
-3
6
16
7
3
6
-1
1
2
13
-7
0
1
-1
0
-1
-1
-8
-4
-7
-4
-8
-4
4
-5
-16
2
-10
-7
-10
-1
-7
3
8
1
1
3
5
1
-3
-2
10
3
6
4
9
1
6
0
-17
-13
5
-8
-11
-4
-5
0
35
18
-7
-4
6
-3
10
-3
-8
9
6
10
13
11
-7
-3
-15
-5
-7
-9
-15
-15
-5
0
-3
2
-11
7
7
1
3
7
10
-16
10
0
-3
1
-5
-8
-12
-1
2
-2
9
-2
8
6
5
-3
0
3
4
3
-11
-10
-55
-7
-2
-8
-12
-2
15
-5
42
-8
-9
5
-2
-3
-14
10
-4
-7
-3
-3
12
-6
-2
5
-3
1
2
-3
0
0
3
-8
35
11
1
-2
3
0
-1
-1
-73
-9
-7
-1
-17
3
12
0
-6
-11
11
4
-6
3
7
1
10
9
-4
0
14
1
0
-1
23
8
-2
4
4
-2
-18
5
3
0
-12
-6
-12
-3
7
-2
-26
11
15
2
-8
0
-5
1
-18
-17
5
-6
-1
-3
3
-6
40
15
-1
3
4
-8
27
-1
-9
-5
-3
5
1
16
-41
-5
45
22
-8
-5
-4
-20
-16
-15
-41
1
-1
1
-9
9
10
5
17
-18
2
-6
3
6
9
2
-10
2
-3
-3
8
-3
7
1
-7
-13
-8
-1
-9
-2
10
-7
17
20
3
-1
3
-8
-25
2
-48
-13
-4
-2
2
-5
-16
-17
0
-17
1
2
-1
6
23
10
-4
-18
-14
-2
11
6
-10
-2
15
13
14
-5
-28
-5
11
-4
10
22
9
9
-8
5
-5
-6
-26
-15
3
14
30
-6
-8
5
4
-5
-28
-11
-6
-10
-5
5
-2
-2
3
1
1
8
23
4
-6
-32
2
-5
-6
8
-7
0
5
14
8
-13
3
-10
2
0
-2
12
0
7
-23
5
-2
4
-1
5
-17
-1
6
-4
-14
-10
9
-4
-1
3
-1
-9
-2
9
-2
-21
-2
-5
-1
6
3
0
-3
-17
-1
-15
4
7
4
-19
-5
-8
2
2
-33
-2
-3
11
44
74
8
6
4
-6
-4
-5
-25
3
-3
0
-16
-4
-10
9
2
6
6
2
11
-4
4
-2
4
-4
-8
-4
18
5
15
-17
2
-51
-1
-6
-21
1
3
14
5
5
-9
-8
-14
-6
-8
-6
31
34
8
-4
-1
-2
-1
-3
6
-14
-6
3
10
-4
-9
-1
-33
-1
-11
2
13
-11
-2
5
0
2
8
-4
-7
16
0
-15
-18
-31
0
0
7
8
12
-8
16
18
3
3
-1
-1
-9
7
-2
24
0
-2
-2
-5
0
-8
23
-7
-2
3
-2
-10
-21
-4
-13
-24
-24
-6
0
-15
-6
7
-26
-20
-7
0
8
2
39
0
3
31
33
-4
-14
23
-30
11
2
-17
-6
3
12
-7
11
-10
-7
13
6
2
-16
8
-5
2
3
-20
-17
-3
5
-22
-42
-3
-40
-17
-24
-6
8
-7
17
-5
3
-1
18
-2
-9
6
11
-20
-5
-2
-6
-6
-7
6
-16
10
1
-3
-1
-14
-7
-10
1
11
-22
24
-4
4
-31
10
3
-6
4
7
-1
6
8
-8
-24
-7
27
7
1
1
2
-17
12
-10
11
-24
-1
-6
10
13
15
-6
-2
-22
5
-3
-26
-1
-2
5
-19
14
-9
-8
2
-5
4
-6
-8
7
9
14
28
-2
-7
11
5
11
3
-6
3
-3
-5
-1
11
-11
-13
-3
15
-1
12
-6
49
-7
3
6
14
-1
12
17
-55
-14
-3
-9
-32
27
7
12
38
52
18
15
12
7
-4
-14
-47
-15
-8
-5
10
-7
-13
-6
30
3
-4
-3
-12
-17
-21
5
35
-4
-15
-9
10
-26
10
-3
-25
4
7
9
-9
18
44
42
-12
0
-1
5
18
24
-3
-13
-13
-4
10
2
-2
1
7
-4
22
1
-2
-10
-4
-4
-28
-2
-27
-8
-1
13
1
0
-32
-22
31
2
-4
-3
24
-19
24
17
-13
13
5
1
-1
6
-10
4
-14
-13
0
3
-6
8
27
-7
26
24
6
0
6
4
-5
18
18
-9
-6
-4
-4
1
-7
-28
-66
-31
2
-3
-16
-4
13
9
86
46
11
7
-14
-4
-19
-25
-10
-16
-33
-14
7
-16
-23
8
-13
-1
1
2
-14
12
19
-4
0
8
17
-1
-1
-1
26
23
-30
-18
6
-6
10
1
-6
1
49
-13
0
8
4
1
-15
-13
1
0
-9
1
13
-11
-37
-3
19
-9
-26
-5
3
-5
22
-8
-25
2
10
-2
7
11
25
18
6
7
10
-15
-8
11
-12
-34
-18
-15
4
1
-28
-25
-24
-8
4
9
-2
2
-13
1
17
-13
12
11
-3
7
21
-6
-82
7
-15
-9
-12
-6
-18
-4
14
39
-7
-19
-4
-12
11
6
-25
-62
-7
9
-13
-12
1
-16
19
-17
-14
6
29
9
-21
2
16
0
-8
0
5
3
5
-7
-1
27
21
4
-10
-5
-7
2
11
-5
-5
-16
-20
2
15
12
-19
19
-37
13
38
8
8
-3
43
-20
77
46
41
13
4
11
-8
-13
-31
5
-9
-6
-11
-7
4
15
-8
-12
-17
-7
-3
-4
-4
-33
-28
-21
-40
-13
4
-4
9
42
-35
-22
10
1
-10
3
-24
-74
61
-22
-12
3
13
-4
16
65
-37
38
17
7
2
13
-30
-6
53
15
19
6
-3
-6
10
-1
-14
-19
-23
-17
-22
-14
-6
-13
4
-18
-6
6
11
-3
9
-5
4
-2
-1
-6
-8
2
26
39
13
3
-9
-1
15
23
-28
-43
-22
-10
-18
-3
-15
-19
47
53
8
24
37
18
24
17
-72
-54
5
-34
-20
-14
-12
-21
49
36
3
42
32
10
6
30
11
-37
-27
-34
-19
-9
5
8
-8
4
2
-2
2
0
-10
-11
3
5
4
-5
-16
-2
11
-21
20
-11
-5
-13
14
2
-9
3
-26
-25
-25
6
1
-11
-17
-13
23
30
24
24
-3
0
-3
27
-4
-22
-9
11
8
1
31
-2
-7
-7
33
-34
-46
-10
-19
-15
59
43
-30
12
1
5
9
9
14
14
-16
1
12
-6
-17
-22
28
7
14
6
-5
0
-23
38
-36
-44
-30
-19
-19
-11
-8
-18
-10
-10
21
19
13
14
25
-3
-7
-28
-14
-35
-26
-22
8
-11
5
49
12
23
30
3
-35
-41
-38
4
-2
-5
-22
-1
-19
9
8
-56
-9
-17
-23
-4
23
29
-23
-23
-1
24
26
3
-16
-7
-17
-11
-17
-25
1
-8
-8
-16
36
35
-10
-7
-8
-2
21
-15
-53
-5
8
12
-15
-2
-20
-3
-16
30
-41
-34
22
4
19
13
24
-45
58
-11
-25
-1
6
-68
33
70
-3
8
45
3
-23
82
-2
-25
-5
-3
-19
-7
5
22
9
-14
16
38
9
7
19
-19
-1
38
-18
-8
0
6
-3
26
-49
-55
-31
-16
-43
-18
-14
-80
26
44
-5
-3
23
7
-6
4
-3
18
-3
-18
-25
-6
-3
28
-14
-64
-8
-9
2
0
10
-3
-68
34
-21
-6
-18
-7
25
-96
71
94
-3
-13
58
6
-32
86
-15
-70
23
25
0
0
7
13
40
97
31
21
3
-3
6
8
-53
-62
-24
6
-9
-3
6
-45
-1
81
15
-36
-33
-4
50
-108
46
24
-11
5
26
-5
-82
43
52
31
10
-40
-26
6
33
79
-35
-100
6
24
28
2
-34
-30
-29
47
1
-26
11
-3
15
-60
9
21
13
42
-1
-4
-3
2
-12
18
-40
13
1
-8
-11
-29
17
38
49
-11
8
9
13
-25
-39
-37
-17
61
-10
6
0
77
6
-45
6
-56
-29
-4
45
43
-7
39
-8
29
33
3
-8
61
12
-21
13
11
8
0
-36
-32
16
-5
-14
-12
-18
0
6
-12
-1
0
1
-6
-3
-4
-3
-68
-33
-10
-3
-13
-10
5
4
-81
5
-31
-2
10
7
-8
1
30
-10
-108
28
-4
-10
-3
-1
75
-21
99
-42
44
25
9
23
-74
16
-12
-12
-40
-20
-11
-40
-31
36
55
6
47
37
10
19
-1
12
-86
26
-30
-17
-10
-21
-41
-12
73
35
34
31
6
10
29
-23
-33
-28
25
32
17
15
-31
2
-29
-9
-43
-67
-19
6
-2
4
93
-13
10
61
9
-31
67
32
-15
-24
-33
-18
4
30
-47
-33
14
-17
25
-19
-18
-35
36
-49
16
24
13
17
8
4
53
41
2
-2
11
-10
4
12
-53
-36
-40
-9
-30
-22
-8
-19
-30
18
18
48
5
6
5
-16
-39
46
52
-35
-20
-19
-5
5
60
-26
-56
-16
-3
-17
-6
14
-4
-22
-67
-10
-27
27
2
-18
15
82
38
32
39
7
8
57
80
-23
-19
-8
-9
-2
3
-1
-53
-53
-49
-6
17
-7
-13
-57
-127
-26
-104
-14
-12
-18
4
13
53
-47
-50
3
-21
-36
-14
-6
-29
79
49
5
-11
8
-5
24
127
-24
65
78
-15
-9
2
-3
-60
-2
-16
-78
76
20
10
-19
5
-21
26
0
6
16
6
8
-21
-33
-74
9
-24
-12
3
33
-50
9
-38
-5
22
-4
-8
-42
54
-3
-10
17
-19
-48
-7
51
-89
12
-17
-19
-22
45
-3
-48
50
29
58
13
22
11
0
7
54
-11
7
-23
-33
-14
0
18
-36
39
33
6
16
-22
-12
-14
2
-120
-89
-28
-47
2
1
67
33
1
7
11
13
5
6
-19
-41
19
34
-43
6
2
-2
6
10
-10
42
14
-14
3
-11
-44
-15
46
-14
33
23
-16
-7
10
40
-22
-42
-36
-22
12
5
14
19
-15
-5
-11
-1
0
3
1
-57
-6
6
13
-57
-17
-2
14
34
58
37
13
1
-29
-1
-15
-49
-63
-52
-18
70
27
16
29
-65
30
56
-28
46
26
-14
-25
72
26
42
63
-47
-10
-1
6
-41
37
28
-25
31
42
10
27
31
-28
68
-16
-34
-43
-9
-37
-37
-36
-50
9
-3
-18
5
-6
-82
17
49
1
20
43
8
-19
65
41
32
-19
32
15
-3
-7
54
8
-26
32
-14
-16
-8
9
-55
5
34
7
26
-20
-10
4
30
-22
-25
-24
20
15
-3
-17
-47
-36
-17
-19
-33
-20
-1
11
-53
61
18
4
-18
-9
-10
-44
4
-21
-65
3
15
13
8
43
6
-20
-58
8
-10
-33
-8
-15
34
16
67
18
-4
1
-6
-22
29
-33
1
-27
4
27
13
6
32
31
16
20
-27
13
-5
12
-41
-36
16
-11
-19
-25
-2
10
-98
-8
-24
-14
13
7
-4
-52
53
-4
21
39
31
-14
0
-4
-20
3
5
6
-58
-15
2
2
33
18
-5
-46
45
41
5
25
38
17
-29
45
-22
-15
-3
11
15
2
11
-13
-12
9
3
12
0
-29
37
4
-20
-7
6
23
5
-26
18
-4
37
-35
-18
-23
-87
26
8
4
2
46
11
8
41
1
3
3
16
1
-5
-11
-1
19
9
-23
3
1
7
9
-29
17
-36
-19
-38
-18
-5
-11
13
-40
-39
-1
11
-24
0
50
-111
35
8
14
24
-24
-9
-43
127
4
-56
-8
34
68
16
20
49
-29
40
32
-11
-11
1
12
-60
-17
-47
-18
-14
-13
-17
-69
-104
50
19
-29
0
12
5
44
87
-19
93
-6
43
-19
-6
-5
-38
-2
12
15
16
23
7
-22
23
-40
36
-6
-37
-6
10
15
-87
23
51
1
-17
-9
-7
-6
-16
25
63
48
-31
-26
-13
-28
24
15
5
-18
40
41
19
62
-39
42
1
-30
-34
-24
-22
-40
110
-37
-128
-21
10
15
-6
-44
-17
-11
7
15
32
5
3
3
-14
-19
-48
14
-44
-7
-3
-4
-12
21
10
17
47
7
7
13
29
-54
3
-6
-50
-25
8
18
-106
53
43
-26
16
12
-10
21
109
10
27
-2
-1
-4
-6
-30
43
-31
17
2
-73
-11
-2
10
-42
-20
-12
12
-47
23
14
12
-27
46
-5
5
50
13
14
65
-119
15
-29
6
-75
-41
-25
-99
36
10
-60
-17
65
24
4
7
92
4
-28
35
-5
-10
-5
5
-38
-14
-62
-21
-66
-17
1
-18
-66
-19
-44
11
34
8
7
44
62
-11
25
-23
20
34
7
-11
8
45
49
15
-5
-8
-13
-3
-22
-38
-71
-8
-23
-5
-8
-21
21
-3
10
20
-25
2
7
40
-11
-32
31
17
-47
-35
-11
-22
-72
13
-34
22
22
14
11
49
60
-17
8
-29
1
-14
-8
-44
7
48
6
0
3
23
18
46
41
2
-10
3
-17
-31
-15
-41
47
-18
29
-29
24
16
0
-5
-53
-35
-93
16
-6
-11
-11
-40
-31
-77
33
-31
20
-20
-11
5
-21
-1
0
26
6
-13
-1
23
-92
-58
-74
-28
31
-1
-9
-32
27
88
80
15
-35
7
6
19
111
21
-17
-9
-6
12
13
-14
-14
-8
-3
14
-13
13
0
13
-89
-37
32
-1
-63
-39
-13
-23
-10
-14
30
21
86
53
16
-5
0
26
32
-9
-32
-18
-8
8
15
12
-3
15
44
-9
5
30
15
4
-29
-17
-17
-1
-8
-4
-38
-15
-18
-7
-32
-13
-9
-30
-2
41
29
15
23
17
11
5
27
-23
-32
-15
33
3
4
12
-32
-7
-11
12
-10
-31
-7
22
-33
11
-6
-46
-35
2
-2
10
115
-5
62
19
28
34
3
-24
-77
-29
-2
-24
-8
-7
-4
8
43
25
-3
-11
-13
-7
2
32
-56
1
27
13
-4
-14
-9
-28
-54
0
-48
14
-5
-6
5
10
11
2
29
9
-16
1
-8
-34
-47
25
-1
23
8
11
-3
-18
64
-37
-22
-8
16
3
5
4
-7
-3
-16
-9
-37
-27
-13
-22
-19
-2
-50
-32
25
-7
17
28
-28
-3
50
-38
22
33
6
41
82
-55
-13
26
-17
-25
-23
-76
-80
23
11
46
46
-17
-20
-27
69
10
-22
-33
-42
8
26
25
-46
-11
23
23
55
17
8
-6
-34
37
82
-16
9
3
3
41
45
-42
-110
-57
-45
-42
-16
5
-55
7
62
13
47
44
-6
-30
93
14
-35
-15
8
12
-3
6
-23
-14
-23
35
-3
-18
9
-4
9
15
43
1
-53
0
2
-5
7
-32
-52
28
50
4
-12
-4
-56
1
2
-30
-60
5
6
-14
29
14
-11
-16
-30
-10
-11
-1
12
7
7
7
63
5
-3
-9
55
12
-30
5
3
-9
4
16
-34
6
18
1
-7
-12
-9
22
-22
-25
-65
-15
-26
-27
-11
-41
-22
6
39
-10
25
53
17
-9
-6
22
64
30
-33
-26
2
0
26
-14
28
10
45
-10
-8
6
-19
8
-30
-44
-59
-6
2
6
-6
10
-19
-20
12
9
4
6
-69
9
-13
2
-19
-5
-11
13
92
10
-26
-7
-12
-20
-5
-16
18
17
66
48
23
0
8
-8
-49
1
-41
-26
-3
6
-8
50
68
-9
-34
-25
-14
-4
16
-17
-71
1
-6
5
-39
-20
-5
-45
-30
17
17
17
63
28
13
45
65
-27
2
3
-2
7
-5
-12
-15
45
49
33
-15
1
-2
20
43
-34
-36
-34
44
2
2
-13
-35
14
-77
32
-32
-7
1
20
-50
-11
3
-53
22
3
-4
31
-36
-6
-19
40
7
-13
-13
-35
34
-2
-8
-7
-40
-13
4
28
-15
-53
-62
-25
-12
22
-1
-37
-16
92
101
39
25
22
13
53
93
-23
0
-27
-15
-23
-19
-39
-25
4
24
-5
-1
9
0
35
58
-7
-24
-18
7
4
-4
38
-37
-23
-4
25
-23
-23
0
-31
-34
3
1
-17
5
18
12
-1
-36
-4
-15
46
-34
-33
-9
-6
-1
1
82
1
19
14
7
23
20
-25
-85
-13
-32
-5
-13
-57
-16
-4
18
10
52
-9
-4
-1
-5
-16
5
-33
-51
0
4
-27
-26
14
29
1
91
42
18
-3
5
17
-6
39
47
52
17
50
70
-6
62
-9
-15
-15
-12
-4
26
13
32
13
-37
-34
-16
-16
-22
-10
-16
-35
13
4
-19
-21
-115
-21
40
-1
-39
-46
-5
-39
-17
6
-61
-3
-35
8
12
44
40
2
2
-11
27
37
21
44
39
13
36
4
-19
-42
-16
-32
-1
-29
2
1
18
24
-3
4
-36
17
33
7
-14
-21
-10
-13
-7
14
-55
11
17
7
-8
-27
-3
-39
-37
-23
-1
-22
-8
-12
-70
17
37
13
-34
-15
19
27
93
-3
-58
-26
43
62
15
19
-9
-3
-9
29
23
5
-7
-22
-14
2
-15
-17
-38
-33
-7
18
3
-17
30
9
-10
-19
0
-20
-101
-20
-13
3
-45
-12
-10
-16
-13
-4
19
-31
36
-5
-4
-13
64
56
8
-23
4
39
24
40
92
-1
-5
3
-10
-22
-6
1
-22
-7
-12
-12
-4
-5
-8
41
-7
1
18
12
15
-10
0
-17
-41
-13
33
17
-13
2
1
-22
-5
-11
-41
-13
3
-16
-11
-25
-22
10
5
-2
14
25
10
12
26
-20
-10
4
4
-3
-13
-10
-39
-1
-25
20
-19
-9
2
48
67
3
-2
-32
28
10
10
9
2
-9
40
30
-2
-7
-18
-26
-40
4
-15
-64
-31
1
5
3
8
-7
-2
10
0
-3
2
-18
-8
5
-8
14
-11
-19
3
-19
-16
3
19
-19
17
-1
5
-2
8
-6
6
3
-16
-2
2
11
-10
-10
-14
-19
47
23
0
-6
4
-1
-5
8
-1
-6
-17
1
16
-4
21
-11
4
0
-2
-4
-5
10
15
12
-4
8
3
-12
4
-11
-11
14
-11
-11
-11
27
-18
-8
-18
-4
-13
-4
-13
-39
-5
-1
-16
0
-3
-5
12
36
2
3
2
-11
0
0
-12
-8
-6
-2
15
-12
-20
-5
3
-11
1
3
-3
-5
12
6
3
-11
4
-2
-3
24
-4
-8
-8
-28
-10
0
12
26
7
7
35
46
-9
26
7
-2
-6
-2
-11
13
37
2
15
-15
8
15
1
-1
19
-7
-6
7
4
-1
-6
-18
-14
3
6
56
0
6
-5
-4
7
-13
-10
-42
-13
-18
-10
19
-28
-16
-6
9
-15
-26
2
13
-28
37
9
-9
34
26
4
-19
21
-13
-8
29
25
8
-6
11
12
-6
-3
-46
-20
-11
-1
-7
-5
3
-2
5
0
-1
-9
-34
-10
-18
-16
-30
-16
-10
4
7
-4
9
7
-9
-29
-20
8
9
8
6
10
43
52
48
7
-14
1
-2
-5
-5
10
11
-4
3
-4
-6
-5
-21
-12
-8
-1
-4
-5
5
7
5
1
-1
-8
-23
0
-9
-3
46
-15
-20
-3
-7
3
-4
-6
-9
1
-1
-2
8
-12
-2
0
10
-9
-18
8
13
8
25
15
-13
-1
49
11
-8
10
0
9
5
7
3
-3
10
-3
0
-28
14
6
2
13
8
-2
-4
11
-22
-15
-14
-25
24
-7
-6
-12
-14
-2
-15
11
-51
-2
10
5
19
-3
3
22
52
12
-9
9
-1
-14
2
-8
-5
-3
-4
-15
-7
2
-2
3
20
2
-6
2
-5
7
1
-13
-5
-3
-7
1
-15
-8
-5
-12
-31
-9
-7
6
-10
-1
-5
-1
6
-3
-1
-7
6
1
0
-3
-20
4
-1
7
-19
8
4
-4
4
4
-2
-10
7
-19
-6
1
-16
-4
7
9
17
3
-3
-5
-2
-1
-4
-6
3
4
4
2
-15
-5
-7
3
23
8
-3
-5
23
0
-4
-11
-38
-10
-5
8
-14
-1
0
-1
1
-6
0
-1
-11
-2
6
4
-14
-6
0
0
-2
2
0
-5
27
13
10
11
18
3
-4
-10
17
-6
-9
-6
-8
-7
-2
0
9
0
0
-14
15
0
-7
-4
-28
-16
-1
12
2
0
-4
-11
-26
-2
-8
-1
-13
-1
1
9
-2
-8
-5
-5
1
-1
4
6
13
2
-8
-2
2
0
-1
3
25
13
20
0
-6
-1
-1
-3
-10
0
1
-9
-3
-5
-3
0
14
1
1
2
-17
-1
1
-7
3
13
-9
-4
12
3
-2
2
-10
-15
-9
-3
-2
-4
3
5
10
7
1
5
2
2
-1
-1
0
5
0
-3
-6
-1
-4
-12
-11
-8
4
1
-3
0
-3
-5
-2
2
0
2
-2
-4
1
-8
-16
5
-2
-6
18
-6
3
9
32
-20
-5
0
-11
10
1
5
-16
3
3
5
3
0
5
-1
16
3
0
2
0
2
-6
-3
-14
3
-2
-3
-6
-1
4
3
16
14
4
-8
3
-7
-1
-4
16
-24
-3
-7
3
-3
3
0
-21
3
-4
0
15
-5
-3
2
8
-3
-7
-7
-37
0
-4
-7
-22
9
0
2
1
0
1
7
15
-2
4
9
2
1
0
-2
2
-12
-6
-13
-20
-6
1
-3
-7
11
-1
-6
-5
-1
-2
-3
-6
-2
3
0
-6
1
4
-1
-10
13
-4
2
7
1
-2
1
31
-20
0
-1
-5
2
-3
-3
5
-5
-3
-2
0
-1
1
1
-2
-14
-2
-3
-5
-2
-2
-3
-17
-4
2
0
-3
-6
-1
-2
-2
39
4
4
1
9
1
-1
-1
-18
2
3
18
2
-3
0
-23
7
-6
0
0
-3
-2
2
8
-10
1
4
3
-1
-4
2
-13
11
1
-1
-3
0
0
-3
-2
-14
-5
-7
6
4
3
-4
-29
-13
1
10
36
-5
-5
-1
4
4
-1
-6
-6
-4
-6
-2
31
7
-6
-5
-11
-6
0
-6
-33
1
1
6
-7
3
3
-1
-12
-4
0
-4
0
2
-6
-4
-1
-13
-3
-8
-12
3
-1
2
23
8
-4
-2
3
-4
-3
2
-5
14
5
-1
4
-3
-6
-2
-35
-13
-2
-4
-10
-6
8
-3
-12
5
1
5
1
4
2
1
9
4
2
0
-6
2
-3
0
-18
-18
-5
0
-4
-4
-1
-1
32
19
-1
0
-2
1
4
-1
-47
-9
3
1
-2
1
-3
-3
9
-1
1
-1
-1
-2
1
4
-3
-2
-3
-3
-4
-1
-5
-3
43
17
1
0
12
-3
-3
-1
4
-4
-2
2
5
4
-9
-3
-27
-9
-4
-3
7
-8
1
1
25
-5
0
-7
-31
7
0
-3
-5
-5
-3
4
3
7
13
3
-30
9
4
2
-2
-8
-2
-3
-13
-8
2
3
10
-3
-5
-3
33
7
-6
-11
-33
-9
-8
0
-11
-24
0
-7
-12
0
-1
1
6
24
6
7
-2
2
1
-2
0
-7
-8
1
3
0
-2
-2
-14
-1
-3
-3
11
-2
1
1
19
2
-3
-2
-10
0
1
1
-24
-17
0
10
20
2
2
1
16
-4
3
-2
-25
0
0
3
2
25
1
2
22
0
-1
1
10
2
0
-5
-6
-4
-1
0
-5
-3
-1
-5
-2
0
-5
-3
7
9
-2
0
-3
-1
1
-4
-28
-26
-2
4
1
-5
5
-1
-9
9
-1
-4
4
3
-8
2
-1
18
-2
-10
-1
-5
4
-6
7
-8
-4
-2
-14
-1
6
-1
-21
-32
1
13
11
12
1
-2
21
50
3
1
17
-8
-6
-2
-8
-20
-3
0
-9
-3
5
5
-6
-11
-7
-3
7
1
-1
-1
-1
1
5
4
-6
-2
4
0
-14
-14
2
-2
7
2
4
-3
42
10
-2
1
-16
4
-4
0
-28
5
4
1
-1
1
-3
-4
42
-3
-7
-5
3
-5
-1
-1
-62
-16
-1
5
3
2
-2
2
48
32
2
-2
2
-1
-5
0
12
-29
-5
5
0
0
-2
-7
-8
35
2
1
-2
1
-5
-1
-4
7
-4
-6
-9
-1
-1
1
12
-20
-1
-4
0
0
-1
-4
-31
5
1
-4
6
0
-1
-2
17
-11
-5
-2
-7
-3
-1
2
1
-7
1
1
-6
-1
2
-2
0
-19
-3
-4
-3
0
-2
-2
2
14
0
5
10
-1
3
1
-2
-9
-1
-3
-3
-3
-5
1
0
19
-2
1
8
3
3
-1
11
-5
0
1
-21
2
-1
-3
-5
-5
-6
-3
2
1
3
6
-15
-1
0
-1
11
4
-4
-2
31
-11
1
-2
-6
-4
8
-2
-17
7
0
-4
-16
-11
0
-1
22
5
2
-2
-2
10
3
-1
-2
-6
2
9
27
3
-2
1
32
13
1
-2
-12
-5
-4
-4
-29
-20
-1
0
8
-1
-4
1
-6
-6
3
-2
-1
-3
-4
1
4
6
1
-3
-7
-6
2
-4
-4
-4
3
-1
-3
2
-5
-2
-1
-2
-4
1
2
-1
-2
0
-11
-9
-4
-2
-4
0
-5
-1
14
23
-1
-1
8
-3
5
3
-11
-16
-1
-1
-2
-1
1
0
-29
14
0
1
-15
-1
3
2
38
-21
-7
-3
-8
-5
-2
-3
-6
1
-1
-4
-14
0
4
3
-1
16
6
7
14
-1
-4
1
3
13
2
5
32
7
-2
-1
-6
-5
-2
-4
-14
-4
-2
-1
-16
-3
-1
-2
1
-3
-8
-4
4
-20
-8
-5
-5
-5
0
1
-11
2
-2
0
0
5
-3
-5
-17
-19
0
-2
3
-2
0
-2
26
12
-2
0
-2
1
-2
-2
-6
12
15
-2
-1
-4
-2
-2
-7
-5
-3
0
8
-2
1
3
9
-15
-3
-2
-4
3
1
1
16
-3
-6
-7
-3
-4
-1
-2
1
16
0
3
5
2
0
0
-2
-23
-1
0
7
-4
2
3
-13
23
3
10
6
4
-4
-4
30
-15
-3
-5
12
-2
-2
-4
-28
3
-6
-4
-35
-3
0
1
2
-10
-4
-3
6
3
-1
-1
-5
5
1
-1
-5
-2
-1
2
-10
3
-1
-2
-9
-2
-2
-1
-5
-19
-4
1
22
-3
0
-2
28
17
-2
1
-7
2
-1
-2
-21
6
1
-3
-11
-2
0
-2
-34
2
2
7
2
1
0
0
10
3
-4
-5
1
-8
1
3
3
-11
-1
-5
-8
3
-3
-4
32
7
3
0
15
-4
-8
-5
-31
-5
2
1
-8
0
1
0
12
-7
-4
-1
-13
1
4
4
4
-7
0
-2
0
-3
-19
-8
-2
-4
-4
-5
-9
-3
1
-1
-6
-6
1
1
-6
-2
0
-2
1
3
-5
-3
-11
0
-2
1
3
4
3
-1
1
-4
6
3
-5
8
1
3
0
1
5
0
4
-37
-1
-3
0
0
-12
-4
-28
23
-4
-6
-7
-11
1
2
17
12
1
-3
-11
-1
-2
-3
-26
-6
-6
0
27
-1
0
0
11
2
-2
1
-1
2
6
-1
15
-16
0
-1
11
3
-3
-3
-33
-10
-4
-6
-10
-9
1
-2
-22
6
1
-2
-16
2
1
1
5
12
-2
-5
-7
1
2
0
-1
-17
0
8
9
6
-5
-6
3
2
-2
1
4
-6
1
2
14
1
2
-4
-12
-6
-3
-6
-3
-11
0
-3
-3
3
0
2
13
60
-1
-1
-16
0
1
-2
-3
-37
0
6
14
3
5
-1
3
-19
-4
-2
-1
-2
-5
4
17
12
2
3
7
-2
1
-2
-36
-28
-1
-4
11
0
-7
-5
9
30
-3
-5
-5
0
1
1
-8
9
3
-2
-3
-2
1
0
-32
-10
-4
-1
-5
-4
-1
-3
24
-10
-1
-2
12
1
-2
-2
-24
-7
-2
-2
1
-8
2
1
44
-11
-1
3
-3
12
2
1
-8
19
2
-3
10
-1
0
2
23
8
2
1
-4
0
2
-3
-8
-4
-2
-3
3
-1
-1
-2
9
1
0
2
7
-1
0
1
-5
-2
-3
-4
-12
-4
1
0
0
-8
-5
-5
-7
-1
-2
-3
2
33
0
-1
3
0
-2
0
-6
-4
0
0
-11
-4
3
-5
-1
-3
-3
-1
0
2
-2
-2
-15
-6
-1
-1
-8
-3
-1
-2
15
-9
-4
-6
-10
0
-3
-5
-38
-1
-4
-4
-4
-4
-3
1
3
11
2
2
-1
-3
-1
2
1
-14
-2
-1
-5
0
1
0
2
8
0
-1
5
2
0
0
-6
-10
-4
-2
-5
-3
-1
1
23
9
-3
-3
-4
-6
3
-1
-22
-12
1
1
7
1
1
-2
-3
-36
-6
-3
-14
1
1
-2
12
29
4
-1
7
-1
1
1
-6
-11
-4
-1
-4
0
-3
-1
-11
3
-1
0
5
0
2
2
14
2
-2
2
12
-4
-1
0
-15
-12
0
-1
2
-4
0
-2
5
5
0
1
1
1
1
0
5
4
-1
2
3
-4
-2
0
-6
-3
3
-1
-1
2
-2
2
0
1
-1
0
14
4
-1
-1
-5
-10
-1
-1
-17
0
-1
2
8
9
-2
-4
-2
-4
-1
-2
1
4
-1
-1
-2
-1
0
-3
-1
-7
2
2
4
-1
-2
-2
0
8
0
-2
-1
-2
-2
-4
-6
-12
-2
0
-3
2
0
-1
6
8
-1
1
-2
-1
-3
-3
-8
-4
-4
-5
-5
-16
0
0
1
2
2
0
7
10
2
2
10
-6
2
1
1
5
-2
-2
11
25
1
-2
-1
0
-1
2
-4
-13
-3
1
-2
-1
0
0
2
-1
-2
-1
2
-5
-3
-2
3
-12
-1
0
11
-5
-1
-2
-4
-4
-1
-6
-11
3
1
0
-9
-9
-1
-1
-10
6
3
4
27
26
6
11
27
-9
-10
-3
-3
-3
-3
-5
-8
-1
0
-2
-11
-9
-2
1
8
-2
-3
-2
-2
-1
-2
-5
-3
-2
4
-1
-12
-25
-3
-7
5
1
-7
-3
-1
21
0
-6
-21
-3
15
3
30
2
3
13
7
4
0
2
10
5
0
-4
-6
-1
-5
-1
-28
-7
-2
1
1
1
-1
-1
-10
-6
0
-7
1
-4
-5
-8
-20
-16
-2
-6
-8
-3
2
2
17
8
0
1
-5
1
-1
-2
-1
-1
0
-5
-3
-2
4
1
-10
-8
-1
6
3
-1
-2
1
-9
3
1
-2
-3
-2
-1
0
11
4
2
1
7
3
-6
-2
-2
2
-3
-2
-7
-4
6
-1
-8
-11
-2
1
0
1
-5
0
-5
1
-2
-3
-11
-3
-6
1
2
-2
-1
-1
3
-4
-1
-1
-1
11
-1
-3
-2
-4
3
-2
-5
6
2
1
-2
10
-4
-1
2
14
-1
-2
2
-3
-1
-3
-11
1
-2
-1
-3
-2
1
-3
11
-8
-2
5
-2
6
1
-4
-15
-6
0
-2
6
-3
-2
1
17
3
-4
-7
-1
-3
2
-1
-42
14
0
-4
-8
-2
-3
-2
38
-4
-3
2
13
-1
-3
4
8
5
2
1
-4
0
-3
-1
-4
-9
-2
-2
3
1
-3
-1
6
0
0
-1
2
-2
3
-1
-11
-6
-1
-3
-6
-1
1
0
-5
-6
-3
-4
-5
-2
5
-2
-2
5
-1
-1
7
2
-1
2
20
16
3
9
10
0
-5
0
-14
-7
-2
-4
-11
-7
-4
-5
5
-3
-2
-1
1
2
-3
1
-20
-32
-3
-1
-2
-6
0
2
9
18
-1
-2
0
3
-1
0
3
1
-2
-1
-7
1
-3
-2
0
8
3
-1
2
-12
-4
-3
-11
0
0
1
0
1
-2
-1
-8
-26
-4
-3
5
0
5
3
8
12
-1
-1
-14
21
4
-3
-9
-18
-5
0
3
1
-13
-4
11
0
0
1
-5
-1
-9
-1
23
14
2
-3
-2
-12
-3
-2
-28
-5
-2
-5
0
-12
-7
1
19
-7
-2
-1
-3
5
18
-1
-12
8
-4
-3
1
9
6
-6
-19
-13
0
-3
-7
4
-3
-1
-3
0
5
10
3
-3
-5
1
13
11
-2
-3
-12
-7
-4
-3
-11
-28
-7
-6
-8
-6
27
5
6
2
4
3
-16
19
-30
-2
3
-3
0
5
24
-7
-7
-1
-1
-2
0
-3
-8
-9
-6
0
6
8
-2
-2
7
-3
-9
-6
-13
-13
-5
-7
-10
-8
9
-3
-13
-13
-2
-3
-19
-1
17
3
5
6
-1
3
12
2
-13
-2
3
11
0
-4
-5
-1
12
3
15
5
-1
0
0
-8
-1
-4
-18
-1
1
0
-2
0
1
4
-14
-31
-3
-3
9
10
3
-6
-12
-3
1
3
0
4
2
-4
-4
-8
-3
0
2
-4
4
-3
-18
16
0
-5
6
-3
0
-1
12
6
-3
4
4
-6
-4
6
-19
2
1
1
-3
-4
-16
4
-1
-20
-3
-4
9
-4
-1
-12
32
-1
-4
-8
-20
5
1
-2
-45
-6
2
6
-12
4
-3
8
16
11
2
3
-2
-8
-10
1
1
4
-1
2
8
0
3
0
-10
8
-4
-7
5
-17
-4
-6
22
-4
-5
-7
-7
3
9
0
0
-20
-1
-1
-11
20
6
5
12
24
4
3
5
-3
2
0
-22
0
-1
0
4
2
-27
-5
10
9
2
4
6
-9
-8
-4
-6
-2
-3
-4
4
-18
-2
-1
13
1
-2
-2
-3
17
7
-6
5
-17
-1
2
2
6
17
0
-11
1
-1
-4
-4
-3
-3
0
0
20
6
1
-5
-3
-14
-11
-16
-5
-1
-1
0
-14
-2
5
22
-1
-2
4
-5
3
9
5
1
3
-1
-4
-2
7
7
3
-1
5
1
2
5
2
9
2
6
-2
2
4
14
3
-8
13
-17
-21
-2
-5
-22
-13
-6
-23
9
15
4
6
29
4
-4
4
15
3
-4
-3
-11
7
0
8
-12
1
1
0
-8
3
3
-3
17
-1
0
-2
2
1
-7
13
-5
13
-4
-12
-19
-10
5
-2
-10
-12
-1
10
-1
-7
-14
-11
-1
1
-1
1
22
-28
6
8
1
-3
1
3
9
15
-9
-3
11
-3
-3
-2
-15
35
11
-3
-6
-8
2
-6
-4
8
1
9
-4
12
-5
-6
-13
-1
-1
-10
3
11
1
1
12
-22
17
-2
-11
-1
2
2
-3
-20
-11
2
-1
-15
1
4
13
-13
-9
-3
-4
2
-4
-2
-14
9
19
4
12
-14
-2
-4
6
13
8
1
-8
22
4
-9
-2
6
-10
-8
19
10
-3
4
-5
-12
-11
-9
-2
4
1
-1
30
-13
-20
-7
-12
-16
-7
-2
-35
-26
13
6
0
-16
-4
2
6
51
11
8
-4
-4
5
1
-1
5
1
-2
18
-15
-1
-3
-1
1
3
-1
-3
13
0
2
2
-3
-31
-3
-22
-5
1
5
8
-38
-9
2
4
9
-4
-3
21
-10
-5
-8
-12
-13
-8
-4
-32
-12
-1
4
6
0
0
-8
-20
67
34
-7
-9
-8
1
1
3
3
-3
7
15
13
2
-1
6
-8
-7
5
3
9
2
3
17
-14
11
5
-5
1
2
4
19
-22
2
7
-4
-6
-3
-3
-15
3
-11
-27
-13
-1
0
1
0
-2
8
-4
-30
-52
-6
-9
-19
15
15
0
32
44
5
16
28
5
-23
6
-26
3
1
8
21
1
-6
-1
-8
-2
-2
-7
-13
-16
-3
-1
0
2
-1
-1
-8
4
11
-9
-15
-27
-2
-8
5
18
3
-2
2
-4
-5
-3
-16
-18
1
19
33
20
0
-5
-4
9
-8
-25
-34
-2
2
1
0
-13
-20
12
15
18
2
-1
-7
1
0
-9
12
-7
-1
1
16
-12
-10
-29
-21
-48
-5
-5
-15
10
25
21
0
25
1
1
8
31
-7
3
51
28
2
4
0
-18
-16
-6
-24
-11
-8
-8
-5
-27
4
-10
6
-2
-5
0
-12
9
9
-2
-21
-13
3
3
13
16
-8
-4
-5
-22
-2
-3
2
-13
18
-7
-4
13
-3
-6
-24
9
-2
17
-7
4
4
15
30
-5
-20
-23
43
23
-5
-6
-15
-9
-8
-3
-19
-8
-5
-5
1
-5
14
4
3
1
1
-5
-18
0
8
-4
-32
-36
-5
-2
-2
23
8
24
14
13
-2
-1
13
6
8
7
-7
-13
3
4
-13
-7
-27
-16
48
29
3
0
-11
-17
-1
-3
-8
-10
0
-2
-4
-4
-7
1
-11
-7
-4
1
2
4
0
-7
-33
-17
-6
-8
8
-19
-2
9
13
-19
-1
4
-2
31
22
26
33
42
3
-2
7
11
-10
-4
-39
-13
-1
-5
-19
-14
-5
-1
4
22
3
1
-6
-9
-22
-6
7
-25
-6
-3
12
-38
8
0
3
10
-5
-8
-14
14
1
-3
-7
-7
-1
1
-7
8
-1
12
-18
-7
-1
-1
-24
17
10
5
-5
-7
6
3
35
4
-9
-26
39
22
-1
1
-2
-19
2
5
19
16
4
-2
-3
-18
-10
-7
-28
-10
-3
-4
14
1
-3
6
14
5
4
2
-13
14
-11
8
-48
-21
-10
-10
-10
-8
22
-2
24
6
7
7
5
3
-8
-17
13
11
1
-5
-11
12
4
9
8
1
2
6
20
-8
-9
-5
-4
8
2
4
9
-3
2
1
19
-10
-7
2
-12
14
-17
-4
-25
-13
-6
-4
0
-10
18
12
-18
-15
-16
-10
-6
8
7
5
14
23
35
10
3
4
-7
3
-10
-2
-12
-2
30
-8
5
-4
1
-9
3
2
-8
-7
-20
-22
-2
-15
-37
-7
-11
-40
5
26
-5
-3
-12
-5
7
26
19
-23
15
11
40
7
2
28
-21
8
-19
-5
-11
-1
9
-5
11
0
-2
25
19
1
-1
-1
-22
-22
37
-6
-28
-8
-3
-46
-10
3
-29
-28
-35
-12
-14
-5
11
-3
-5
10
0
2
-16
35
7
6
-19
-29
7
2
-1
-4
4
-3
-11
-17
7
3
1
-5
-7
8
-12
26
17
-2
-4
-14
-11
-5
12
2
-6
1
14
-11
-6
7
18
7
-2
-4
-12
11
-5
-8
-11
-17
-9
-6
-1
-5
28
4
11
-23
-13
6
-5
13
2
-2
-3
16
12
-1
6
5
-9
-24
-11
10
20
2
12
8
16
13
19
7
0
-12
-35
-3
-15
-9
22
-2
-8
4
-7
-13
30
4
-18
-15
-12
0
-2
0
-24
-7
3
0
-11
-2
6
-4
-1
-6
7
-28
-9
-9
-4
32
29
34
-29
17
21
1
3
8
-14
-5
32
11
4
-1
4
-13
-9
-10
-15
11
-16
-4
-11
-12
-3
10
-18
7
10
1
-1
-15
1
-3
10
-29
-19
-3
-1
13
2
8
-5
17
21
4
5
1
-16
-6
-6
9
8
-1
-8
5
1
26
15
12
-8
3
16
5
4
-10
-8
-17
-10
-5
-4
-5
-10
20
-12
8
6
-4
-5
-26
41
-22
47
-18
-12
-6
-6
15
-7
-1
-20
17
22
4
-13
39
-42
-8
1
-6
-8
1
22
-20
48
-1
-5
-7
-16
-4
3
9
18
28
15
7
17
10
9
4
-21
-35
4
-28
-12
-3
-2
-30
-9
17
-32
27
-29
-13
-6
-42
-8
-9
36
-8
52
22
6
65
17
25
-37
31
11
2
9
51
26
8
14
7
-13
-10
-2
-20
-39
-32
41
-21
-1
-1
-11
-22
31
16
-25
-18
-22
-6
12
3
-49
-36
-3
2
-19
-14
-36
-71
37
39
-17
13
19
20
15
47
-7
-19
-16
-9
-1
-18
-23
-6
-21
-63
22
-8
-10
-1
-9
-23
43
52
39
-12
7
9
9
36
-65
-57
-26
-7
-27
-9
-5
-53
12
22
9
20
6
-5
-11
-3
-7
36
-2
8
-10
3
5
20
16
-27
-12
28
6
6
7
-7
-44
-31
-19
-37
29
3
-7
-23
49
34
27
35
-4
9
20
28
-76
-48
12
-25
-15
-19
-20
-34
4
46
-27
-19
-9
-3
-5
6
5
-22
-10
-11
-21
-2
9
2
32
65
-39
21
30
12
2
52
-5
-22
6
-10
-10
-12
2
-4
-23
-11
-5
-16
-12
-5
2
-37
-10
-30
18
13
6
4
17
22
10
-5
-5
-17
-14
-2
-11
0
-2
29
22
1
-2
1
-1
-9
-1
-12
-30
2
3
-2
5
13
23
31
19
25
29
7
-7
0
-44
-45
22
0
24
-3
2
-53
8
8
-55
-15
-25
0
-20
19
42
-14
14
30
3
-1
20
0
14
9
-23
1
-10
7
16
37
38
36
-19
5
17
4
-2
28
0
-14
-13
-5
5
-2
-6
0
-23
-31
21
-24
-20
-15
3
-29
8
27
12
10
-17
-8
-18
-10
-24
-49
6
-26
-5
3
2
-1
53
3
-42
27
5
2
4
-30
-26
0
9
18
43
21
4
20
-9
-14
19
3
-18
0
6
-13
-25
17
3
5
2
-4
-18
36
19
36
-2
19
29
0
8
-2
-17
-21
-7
-34
-33
-11
-3
1
-12
-22
-16
5
61
12
5
-23
13
-15
6
0
-51
-10
10
-32
-19
10
15
-22
40
18
5
10
-4
-6
-2
30
11
2
-1
4
37
-8
-7
30
-39
-13
-14
36
-60
-44
6
15
47
14
15
37
50
54
22
-8
-24
-7
-2
-18
-38
30
-49
-28
-10
-1
-8
-7
-1
-51
11
-19
-8
-6
6
-24
-66
5
-31
-7
-18
-9
-17
-55
81
42
-17
3
-12
0
22
75
39
60
25
9
11
9
-20
11
-9
20
11
-20
-18
-8
-6
-21
-4
-62
3
-2
12
1
14
8
-60
48
10
-30
0
6
-16
-33
32
29
-1
-21
-21
-6
-1
-24
29
-17
-7
79
49
16
14
55
-14
-39
11
-5
-7
2
11
5
-43
18
0
-37
-55
-16
16
-60
-20
-21
4
-7
-10
-14
-46
25
28
28
-23
8
27
4
-4
0
8
15
-45
-33
-25
-16
-4
-37
-19
-113
3
5
0
-5
-24
23
-41
12
10
12
-34
-8
-9
-71
62
60
-1
-13
22
4
21
63
-16
10
24
22
12
5
10
30
-1
-35
-6
-42
-19
-18
7
-18
-42
-65
-6
18
23
25
22
-17
-24
-13
-13
-31
-48
-12
19
-41
90
99
33
3
45
14
-62
7
-47
27
12
-7
18
-1
-9
45
-11
-96
-31
5
23
18
38
33
5
28
15
-83
-37
-15
-12
-6
-47
-25
-23
50
29
3
-11
-102
31
-13
22
13
-5
4
4
31
72
10
6
17
2
-6
21
87
-31
34
-18
-54
-6
-6
-18
-44
32
5
14
-17
-38
-3
27
16
-31
-49
14
44
8
-4
-18
-44
-26
-47
-27
31
35
9
7
5
-36
-30
5
10
-14
-4
0
-8
7
33
29
-18
-14
-4
8
6
-7
-26
-40
1
15
5
-5
-21
9
63
40
-35
-34
-24
-44
8
6
57
-26
36
34
8
-5
70
30
-24
-22
-41
-15
0
31
9
-10
-20
1
82
8
-4
3
-35
9
-26
8
-70
-19
-14
-15
-61
-32
43
16
20
43
16
4
1
-6
-36
-1
-31
-37
-15
-28
27
18
12
-11
12
12
15
51
-51
-6
72
8
-24
-10
-13
-30
74
23
-71
-16
25
-2
1
19
6
-30
30
3
15
-1
7
5
-14
-21
34
2
-14
-19
-3
1
-42
-4
34
-41
-18
6
-7
-26
-46
19
28
4
45
18
-2
-1
68
11
6
18
-1
-6
-6
5
-16
11
1
1
-19
-34
-12
-14
-14
-7
16
18
62
52
19
35
14
-4
-6
5
-1
-17
-1
6
-12
-18
-26
1
27
40
5
1
-13
17
-24
0
-46
-19
-3
-50
-17
14
38
16
-23
-52
-15
-3
13
15
-99
-67
56
22
10
21
31
8
-2
32
5
13
4
14
-1
-20
-18
-10
2
2
-1
-5
35
2
-18
-8
-57
-39
-2
19
-53
-4
62
32
79
46
6
-21
-27
28
21
-6
-49
-38
-10
-10
18
33
-12
32
66
45
17
24
63
5
-11
-16
4
10
9
54
10
-46
-6
12
-71
-50
-17
-45
-45
17
11
-12
8
2
1
-9
-60
0
-6
6
-14
9
-5
-17
70
-3
30
-4
4
7
4
18
16
8
-26
0
-57
-40
-2
-15
-26
-1
-21
-16
-10
11
2
16
4
25
78
0
52
23
-2
-1
6
-21
5
-15
29
4
-1
-23
-7
-18
-35
28
8
-20
-4
0
-29
-50
5
27
15
32
5
1
9
25
25
-51
-35
-30
-3
-13
-25
3
-69
6
29
65
17
19
42
3
62
28
-26
-19
-8
-5
-28
-9
-11
-2
32
-2
3
10
4
-13
-7
-24
23
-2
0
-8
-25
5
-1
8
-50
-10
-8
-2
52
-14
-42
-7
-34
-9
-3
-3
-38
29
44
3
-16
-10
-2
-21
46
-36
-44
7
-16
-4
-5
1
-23
-4
-4
-12
10
-23
2
2
-47
1
-40
-51
-19
-5
-6
6
19
22
5
7
6
8
10
7
27
-32
-7
36
29
4
3
10
-23
20
-9
-18
-20
-13
-3
-7
12
11
32
10
-16
-2
8
39
21
-17
-21
-21
35
-11
-19
-28
-8
9
5
3
2
2
4
12
-28
-27
-29
16
-19
-18
-10
-54
-1
8
58
21
26
46
13
12
0
-5
-21
-33
-34
-40
-6
1
10
-2
-29
4
-17
29
0
-5
17
0
34
-8
42
-3
-8
20
-36
-15
-58
-6
-29
-26
-8
-23
9
2
5
35
23
-11
4
-7
-20
-11
-29
16
-28
7
-7
-2
11
27
36
-7
11
2
12
37
18
-2
-2
-1
-42
-28
-17
-47
-35
19
14
-47
45
65
17
16
79
-22
-24
4
-19
-30
0
34
-22
3
4
32
2
5
-5
-30
-40
6
13
-12
-3
-38
-7
38
-49
14
-40
-27
60
23
-15
-52
60
10
40
-11
-37
-5
-2
-21
15
-10
-2
4
9
12
9
41
2
-9
-1
19
-7
-20
-1
-30
-27
6
0
-5
-5
-20
2
41
-42
-39
64
-10
-12
78
29
-3
24
3
28
1
0
9
-3
-25
2
-7
-11
2
-27
-20
-2
32
9
-37
0
-19
1
-12
-3
-18
-72
56
58
23
-3
-28
-16
17
98
24
43
3
9
-7
0
-12
-2
-26
-38
-65
-3
18
-1
-3
-10
18
-18
26
-26
17
12
26
48
-9
-28
-32
10
-32
-8
-3
-66
-6
-8
18
21
13
-4
-10
18
-4
-8
-14
-36
-27
-9
45
-6
-23
-6
16
55
8
-6
-79
-39
50
23
7
-11
-14
3
10
54
-16
-48
-27
-25
-22
-10
-3
-8
1
27
37
27
17
6
-12
-2
-7
18
-5
-13
-34
-3
31
-23
8
-49
-2
56
49
10
12
16
24
56
13
34
21
4
0
16
-21
-2
12
10
-4
-2
-14
-3
7
1
-13
-20
-8
-3
6
-7
-11
-46
0
-25
-17
-6
-7
-14
-30
16
26
-16
-9
2
8
-32
-3
-40
-60
27
16
3
-57
8
51
22
33
-34
-24
2
47
26
16
-40
1
-2
1
-2
-8
4
-27
19
7
-5
9
0
-12
6
-3
43
20
16
25
-1
2
39
-27
14
-17
2
-3
-5
-4
-40
-15
-17
12
-19
-27
10
43
-25
7
-32
-16
-36
-8
-5
-12
-9
29
-33
-1
52
14
0
-23
36
22
44
18
-8
12
-4
5
1
-19
25
-4
-74
-31
-11
5
-9
-23
-33
-30
79
28
5
-14
-3
19
89
-3
10
-20
-7
-5
-37
2
-61
-22
-44
16
-1
18
42
3
4
-5
25
-19
-8
-13
-8
-24
-4
-11
-18
-2
4
-9
-14
17
-5
14
-4
-9
-3
1
-7
-8
-6
-10
4
21
5
-23
-3
-15
31
1
0
-27
-14
-8
-6
20
-37
5
-9
-4
1
0
11
-6
3
12
21
27
18
68
15
-5
-30
2
-49
-27
-6
-14
-18
13
76
-18
3
9
-9
-34
44
8
-1
3
7
-5
3
25
-22
0
-23
16
-32
0
5
5
2
-5
16
16
36
18
2
27
-17
-1
-18
2
-17
4
0
-32
10
19
-23
3
-1
-14
2
13
34
1
-1
-13
-29
-4
-10
-7
-1
-29
-40
-14
-3
-16
-7
-16
-18
-15
-39
6
29
0
-3
2
-56
-13
5
-4
-29
-9
-18
-9
-6
24
11
21
-1
-18
2
4
16
12
20
7
20
30
10
-9
9
17
20
-5
17
19
6
3
16
-2
-19
3
-15
-32
-10
1
-8
-21
-14
-19
-14
6
-9
-13
-17
-20
-30
1
-18
-19
-9
-2
-9
-14
2
-12
4
-2
-1
-10
-16
22
-22
17
5
18
18
30
22
16
49
-4
-21
-11
6
18
11
-7
-3
13
30
14
-8
-1
16
-8
-27
-20
9
-3
-7
-18
-14
-3
-21
24
-43
-6
3
5
-18
-3
-6
7
39
27
2
-9
11
2
14
-32
-26
-18
-2
20
14
2
4
31
9
-2
-7
2
-9
-5
1
-29
1
-1
-6
-20
-12
-6
-1
-3
7
1
4
-7
0
-4
5
2
-38
-2
-1
13
13
-5
-2
6
0
-5
-6
-8
-16
-11
4
-11
10
-22
-16
-30
0
14
7
22
47
47
15
-13
7
2
9
9
11
-2
8
20
0
3
-9
30
-5
4
18
30
11
12
15
-32
-8
-4
2
-4
9
-17
-26
-57
-24
-16
-21
-29
-20
-19
6
2
-11
-7
-18
-24
-10
15
-7
9
8
2
-3
-23
1
-3
9
14
-2
5
0
-35
-5
-1
0
26
3
-6
11
19
1
8
11
-9
23
13
9
-13
4
-10
-9
-11
-2
-4
-6
8
-4
-1
-9
-23
-2
-2
-15
-9
-14
-8
-7
10
-14
-9
-15
1
0
1
3
-1
-12
-12
9
17
4
1
2
10
-5
-22
-4
8
3
4
2
-14
38
44
20
3
0
-5
-2
4
7
2
-3
6
2
1
-2
11
-7
-9
-6
-9
-6
-2
-5
1
5
4
-7
-9
0
2
4
-6
-15
-15
-11
1
-3
-10
-13
-5
-20
-9
3
-24
-6
3
3
-1
6
9
1
-1
1
4
-4
-10
-5
10
16
28
12
1
17
14
-5
-8
-8
-2
-5
-12
-16
11
10
3
-5
-32
-8
2
-2
1
-8
-12
-2
-19
6
7
11
-19
-5
5
14
39
7
-2
-11
11
2
3
-5
1
-4
-6
-8
-2
3
-2
0
29
1
-1
1
8
-2
-2
-2
1
-1
-5
-6
-14
4
5
0
-25
-4
0
4
-4
0
1
3
2
-3
3
8
39
8
-4
-5
-5
1
-3
-5
-5
-8
-15
0
5
-1
0
-1
13
35
33
2
-5
-1
-1
3
-18
-11
-4
1
13
0
-3
-6
-4
-14
-5
-6
-7
-2
3
7
-21
5
0
1
-4
0
-1
10
23
-4
-13
-4
5
-2
-5
-15
29
0
-9
0
3
-2
1
2
-8
11
19
-1
-2
-1
1
-6
-21
-17
3
-1
-3
-2
-4
3
-20
-19
-13
7
-8
-1
6
3
26
18
4
-2
16
2
-2
5
-13
-12
-11
-6
-47
-12
0
-1
19
14
0
4
40
9
-3
-1
-22
-15
2
-4
-19
-4
-1
-8
-15
-11
-2
6
13
4
2
9
13
11
-1
4
25
3
-1
-2
-21
-2
3
-6
-13
-7
-2
-5
25
14
-4
-10
-11
-4
9
3
-1
-5
4
4
-10
1
7
0
-31
-4
-4
8
19
2
-9
-6
4
-12
1
5
1
-2
-2
1
-2
8
0
-6
9
1
-2
-3
-7
1
2
-5
-6
-2
0
-3
11
-4
2
0
5
2
1
2
5
-1
-5
-5
-16
-2
2
6
11
2
-1
-1
2
-1
-1
-3
-4
-12
-2
1
3
0
-4
4
-2
4
0
1
-10
0
1
-7
-48
-13
-2
-3
-11
-3
-8
-5
-8
-16
1
-6
-7
2
-2
4
4
7
1
1
3
-2
-2
-1
14
-4
-2
-2
10
0
9
7
19
24
1
1
16
8
0
-6
-1
-20
-4
-3
-3
-5
-3
-7
-32
-15
-9
1
2
1
-10
-1
2
8
2
3
17
-1
0
3
-1
0
0
-3
-6
-4
-1
1
4
-3
-6
-1
-7
0
-6
-5
1
16
8
1
8
-3
3
-1
-26
-10
-5
-2
-6
-1
-2
3
33
-3
-2
-2
-5
-2
2
4
-7
6
-3
-3
8
-1
-5
-10
-10
6
-3
-5
-18
-4
-1
-1
-20
-1
-1
-3
-2
0
-2
-3
-16
-31
0
4
-3
-1
1
2
-5
19
4
1
-2
-2
-7
2
23
14
-2
-5
0
-6
1
-2
8
-5
3
-1
-15
4
-10
-3
32
19
1
5
27
6
-3
-2
-18
-9
-7
-2
-11
-2
4
7
-11
-11
3
6
18
4
-6
-3
9
2
-3
-5
-7
-4
4
-3
-12
13
0
-1
-8
-4
3
0
10
-4
0
-7
-7
0
-7
4
-16
-12
-2
4
1
4
0
-1
14
-4
-7
-3
2
-1
6
8
-29
-10
1
3
-42
0
2
3
34
23
2
5
19
4
-9
-6
12
-13
-4
-6
-15
-11
4
1
-11
1
-2
-1
3
-1
-2
-7
10
18
2
-4
6
-2
-2
-6
-10
-1
-4
0
-7
-2
5
8
14
2
5
0
-1
2
-3
4
15
-5
0
2
7
-2
1
-4
-24
-5
-4
-5
-2
1
6
-1
-27
-22
2
3
11
0
2
-1
34
46
1
-4
1
-1
0
-4
-31
-6
-3
-6
-5
-1
-6
1
29
-3
-3
-4
-19
-3
-8
-5
-21
-4
-7
12
28
-2
2
-1
12
1
4
-1
0
1
-5
-3
-10
10
3
-7
10
-4
3
-2
-11
-18
-4
-9
-23
-4
15
-2
28
21
2
4
8
2
-1
1
-4
-7
-2
0
7
1
-1
-5
-12
-1
3
4
-4
1
-3
0
12
-8
-3
-4
12
-3
0
-1
-14
-6
-1
-8
-26
-5
-1
4
3
-11
-5
-6
-3
-6
5
8
22
11
0
7
2
4
3
-8
-14
-4
0
2
12
1
-9
-5
-39
-11
1
0
1
0
1
-3
-11
1
-5
-2
-7
-2
-2
-4
-8
-11
-2
0
-2
0
1
4
-1
6
-2
1
2
-3
-3
2
8
4
-2
-1
1
-2
-5
-11
-34
-15
-5
-3
-10
4
0
-4
7
0
-3
-4
-7
-1
-1
-4
-7
0
2
5
14
2
-1
-3
4
-1
1
-6
-2
-1
-1
3
1
-14
-2
5
5
3
2
4
-14
0
0
0
19
2
-3
1
0
0
1
-1
-11
-3
-3
2
-26
-21
-3
-3
0
1
1
-9
9
11
-3
-3
7
-1
-7
3
2
12
1
3
-1
-1
-4
2
66
4
3
1
9
-9
0
-4
-19
-12
-6
-7
-26
5
-1
1
-22
-3
-4
0
-6
2
2
-5
-20
-6
-2
-6
-4
1
1
-1
22
9
-10
-3
7
-2
-3
4
11
-6
17
5
-22
-4
3
-3
18
3
4
0
-3
0
1
-1
-11
-7
-6
-1
6
-1
0
-1
-5
-14
0
2
-8
-3
-5
-1
-9
-4
-7
-5
4
-2
1
5
10
17
-2
-2
1
1
1
0
18
6
2
2
0
-1
-1
0
-7
-1
-5
-2
-3
1
2
-5
33
3
-3
-3
3
-1
2
-1
-37
-19
5
5
5
0
-4
-2
26
7
-4
-8
-9
-5
-1
4
-15
2
2
9
11
4
-1
0
2
6
0
-3
1
-2
-1
-6
39
-7
0
-3
-6
-1
0
-5
-30
-9
-3
0
-6
-7
1
-4
-2
12
2
0
3
9
-2
-2
-38
-28
-3
-1
6
1
-5
4
12
-2
-3
-2
2
-2
3
2
9
2
-2
1
0
1
-4
-6
-32
2
1
-5
-13
-6
-2
1
37
11
-2
0
1
0
-4
-7
-14
1
-6
1
6
-6
1
1
-2
-10
5
0
-17
9
-6
-3
-8
-4
-2
-8
25
-2
5
0
-6
4
2
-1
-18
-1
-4
-1
-5
1
0
10
33
2
-2
-1
29
11
-1
2
3
-3
-1
2
-13
-6
3
-1
4
0
-3
-11
-9
