-1
-2
-3
-6
-5
-5
-7
-2
-2
-1
-2
-3
-1
-3
-4
-3
2
-1
-8
2
3
1
17
2
-1
-3
0
1
0
1
0
0
2
0
-2
2
0
-1
-5
0
0
0
4
1
-1
0
-4
-1
-3
-3
-3
-4
-1
-5
-3
-3
0
1
-5
0
-2
-2
0
-1
-1
-1
-1
6
1
2
1
0
-2
-1
7
-1
-3
-2
3
-1
-1
-2
9
0
1
-3
-14
-3
-2
0
-26
0
1
3
7
0
1
1
-3
-2
3
3
-10
0
-3
-4
-3
-11
-5
-4
-4
-3
0
1
-5
1
-1
0
1
1
0
2
17
6
-1
-2
-2
-2
0
3
4
8
4
-1
-1
0
-1
-4
1
0
-1
-1
1
0
-4
-3
-9
-2
-5
-2
-3
0
0
-1
5
-3
-1
-4
-15
-1
0
-4
-8
-2
-2
-2
2
-3
0
-1
1
-3
-3
-2
-4
-2
0
0
2
2
0
0
-11
-2
-2
-3
2
3
1
1
0
-2
-1
1
-11
-3
-2
1
2
0
-1
-2
5
-2
1
-2
-3
0
-2
0
-13
-3
-1
1
0
0
-2
1
3
2
-5
-2
-2
-1
-3
-3
-4
-7
-2
-4
-1
-2
0
-1
4
3
-1
-2
-9
-1
2
7
8
5
1
2
8
1
0
-3
4
-9
1
0
-1
1
-1
-1
-4
-2
-4
-1
-3
-3
0
0
-10
-5
-1
-2
1
-2
-1
-3
-1
-2
2
1
-9
1
-2
0
7
6
1
2
-3
-1
-1
-5
4
3
-2
-2
-2
-1
0
0
-6
-4
-3
-3
-7
-1
0
-1
3
-1
-4
-2
2
-2
0
-2
-11
-12
-1
-1
11
0
0
0
5
7
4
3
-8
1
-1
0
8
7
0
-1
-2
-2
-2
-3
-2
-2
-3
-2
-7
-2
2
2
-4
-3
-5
-2
16
1
0
0
-5
-9
-1
2
-6
1
-1
-2
-2
1
-1
-1
-6
-1
-1
-2
-9
-4
0
0
-1
-1
-1
0
-4
0
-1
-3
-1
-1
1
1
16
3
0
1
6
-2
-3
-1
-6
2
-1
-2
3
-1
0
-4
-6
-6
-1
2
4
-1
0
1
-1
0
0
-2
-8
0
-3
-5
-9
-2
0
-2
0
0
-4
1
5
-4
-3
-3
-4
-2
1
1
3
3
1
1
5
0
-3
-1
-11
2
2
-1
-18
0
-1
-5
2
2
0
-2
4
-1
0
-2
-4
-2
-1
0
5
1
0
0
-3
-6
-2
-2
0
-1
-1
-4
1
2
-2
-5
-6
-4
-4
-1
-7
1
-5
-3
-10
-1
1
1
6
3
1
1
2
-1
-4
-7
-3
-3
-3
-2
4
-4
1
0
-5
-4
1
4
3
1
0
2
-4
-8
-2
-4
3
-1
1
-1
-8
0
0
1
5
1
-1
0
11
7
-2
-1
-7
-2
-3
-4
-5
1
-3
-3
13
-3
1
1
-1
-3
0
2
-1
1
3
3
-3
-5
-2
-1
-1
0
-1
1
-1
-3
-1
-1
0
0
-1
1
4
2
5
0
-4
1
2
2
-3
2
4
2
4
1
0
-2
-5
-4
-1
-2
-3
-1
-1
-4
-4
2
-2
0
2
1
-1
0
8
1
-3
-2
-3
-2
1
1
3
-2
-3
-2
-1
-1
-1
1
-3
-5
-1
-2
0
-2
-1
-3
-13
-4
0
0
-7
-1
-2
-3
6
-4
-3
0
1
0
-1
-2
1
-1
-2
-2
-1
0
-1
0
9
4
1
-1
5
-2
1
2
-7
-1
-4
-4
-14
1
-3
-4
-6
-2
0
0
-4
0
-1
3
1
3
-1
-1
2
-1
0
-1
0
-2
-2
0
-1
0
0
-1
5
-1
1
-4
2
-1
1
1
-23
-3
-1
-1
-3
-2
1
-2
12
-3
-5
-1
1
-2
-2
1
7
0
1
-2
-2
-1
0
-2
-18
2
0
-1
1
-1
-1
-1
6
-1
-3
-1
4
-1
1
0
-7
-4
1
4
3
1
0
-1
-4
1
-2
1
4
2
0
-1
-11
-8
0
1
-8
-2
1
1
7
0
2
-2
2
0
-1
1
0
0
0
-3
-1
-2
-4
-6
4
1
-1
-1
-5
-3
-1
-3
-2
-1
-2
0
7
0
-2
0
3
-1
-1
-3
-5
-3
-1
-3
-2
1
0
-2
3
-2
-1
1
-4
3
1
4
9
1
0
0
9
-1
0
0
3
2
0
-1
2
-1
-4
2
-2
2
-2
0
-9
0
0
-2
-4
-2
-3
-4
-2
3
0
-2
-5
-1
-1
2
5
4
1
-2
1
-2
-1
-2
-2
-1
0
0
-3
-2
-2
-2
9
2
-3
-2
-1
-1
-3
-2
-12
-7
-3
-2
-10
-1
-2
-1
2
-3
-2
-1
6
-1
-1
2
-8
-5
-1
0
-9
-2
-1
-1
3
2
2
1
-2
0
-1
-5
-21
-5
-6
-2
-2
-2
0
-1
28
-1
0
0
-8
-1
-3
-2
-5
-4
0
-3
1
-1
0
-1
1
2
-2
-2
-4
-1
-1
3
7
0
-2
1
-4
2
0
0
-14
-9
-6
-4
0
-2
1
-3
3
4
5
6
10
2
-1
-4
0
-6
-2
4
7
1
-2
0
4
0
3
-1
1
-3
-3
2
-5
-2
-1
3
8
0
-2
0
5
5
-2
-2
-5
-3
1
1
-6
-2
-3
-4
1
-2
0
-3
4
5
1
1
-6
2
0
-2
-3
-2
0
-2
1
1
-2
-2
0
-1
0
-1
-6
-1
0
-2
-15
2
2
-1
-1
-1
-2
0
-2
-2
-2
-2
0
-2
0
1
2
4
1
-1
-4
0
-2
0
11
-2
-3
-2
6
0
-1
-4
-11
-7
-2
-1
-2
-1
-1
-2
-1
0
1
-2
4
1
0
0
-10
-1
0
3
-1
0
1
1
3
1
-2
-2
0
-2
-2
-4
8
-2
-6
-5
-23
-4
0
0
-8
-6
0
0
-8
0
-1
-1
5
11
0
2
13
-1
0
-2
-5
-3
-1
3
9
2
-1
1
3
-4
-1
-2
6
-3
-1
-3
-6
5
-1
-2
-7
-1
-2
-2
3
-2
-2
-3
-9
-3
-1
3
1
-7
-4
-2
-7
0
0
-2
-9
-2
2
2
10
1
-1
-1
1
-1
0
-1
4
1
-1
0
-3
6
2
-3
-1
-2
-1
0
2
-5
-4
0
2
0
-1
1
-7
-9
-2
-2
-5
1
-1
-1
6
-1
-2
-4
-4
-3
-2
-6
-5
-7
-6
-1
-3
0
-3
-6
1
6
2
-1
-6
-4
-1
2
4
1
1
0
-3
0
0
3
-12
-3
-1
1
2
-2
2
1
1
-2
0
1
4
4
-1
-3
-3
-1
-4
-3
-3
-3
-2
-2
2
2
0
-2
2
-1
0
-2
-1
-3
-1
0
1
0
-2
-1
3
5
0
-1
-7
-4
0
-1
-9
-3
0
2
6
1
3
4
2
2
-1
0
3
0
-2
-3
-1
-3
-2
-2
0
-1
-4
-2
-2
-9
-4
-6
-1
-2
-2
-1
-1
8
2
0
-2
0
0
1
8
8
1
0
-3
1
-1
-1
9
4
-1
1
3
-1
-1
0
-4
-12
-2
0
2
-1
0
-1
-6
-2
1
-2
-2
-3
-1
-1
0
-7
-3
-1
-2
-2
2
0
-2
5
1
0
3
1
1
-1
14
0
8
2
1
0
0
2
-17
9
-1
-2
-3
-2
-3
-3
8
-4
-3
-2
-3
-3
-2
3
-3
-2
-8
-4
0
-2
-3
-4
-16
-13
-10
-4
-4
-3
0
3
12
-10
1
-1
-6
1
2
-2
-11
8
-1
-1
4
2
-1
0
-3
-2
-1
-2
-10
-1
-1
-2
-7
3
-7
-3
-1
-2
-5
1
11
11
0
-3
-1
-2
-1
-3
-13
-9
13
5
3
2
10
6
35
9
24
5
5
0
-9
-10
-38
8
7
0
-6
1
8
3
-4
-6
-8
-3
-5
0
-3
-4
22
7
-12
-2
5
-5
-3
-8
-11
6
-14
-4
-6
-3
-2
1
17
-21
1
-1
-3
-2
6
3
-9
10
24
2
3
4
-9
-4
1
-2
-7
-6
0
-2
0
0
5
-6
-7
2
2
-3
-2
4
24
25
-2
3
1
-1
-2
-4
-43
-24
-14
-8
-4
-2
7
-2
-6
-11
2
0
-3
4
-1
-7
-15
-12
-2
-1
8
6
8
14
26
11
6
2
0
3
-14
-14
-27
-3
-8
-1
-2
-18
0
16
36
34
-24
-6
-4
7
-16
-31
-27
-29
34
4
8
2
14
6
7
0
0
4
-4
1
-6
-17
-6
-3
1
-2
6
2
-3
7
-12
0
10
-1
-12
-14
-7
13
5
1
-22
0
10
-33
14
-2
-36
-7
-6
-6
-12
33
-6
-16
40
0
-4
-8
-9
-4
7
5
21
0
-3
2
-6
4
2
0
-27
-3
-1
3
7
4
-12
6
-25
-10
-1
-2
8
-18
-9
3
37
5
-5
6
11
-3
32
3
-16
2
8
0
18
10
-43
-6
25
30
-1
2
-25
-3
17
11
-13
-24
-6
-7
7
21
5
1
37
11
5
-3
-23
0
-12
-10
-11
-10
-23
-4
19
-17
5
23
-1
-4
-7
-5
-11
-21
2
-15
-11
6
7
1
16
-28
-32
9
-40
16
44
-3
-62
35
28
29
3
-27
5
7
-3
26
36
-3
1
-9
-27
-8
13
3
-46
-3
35
0
-16
-12
2
-17
25
21
8
2
3
7
16
-15
-15
-19
23
29
-1
7
3
-13
-8
-10
5
-4
9
1
9
-2
6
49
-36
-24
-6
0
-33
4
19
-16
-48
-21
-28
-8
26
11
-78
-19
20
8
6
-13
-46
-21
23
-36
2
4
-5
-6
-22
18
75
24
12
-13
5
8
38
12
-26
-16
-1
0
-8
6
20
-8
-28
-23
-20
-27
-22
-9
-28
-39
-32
76
3
20
30
12
27
27
86
-19
3
3
18
11
-7
67
-5
-26
-11
-6
-18
-8
16
-4
-9
-3
11
20
24
11
6
-4
-40
68
13
7
-4
-1
-27
0
33
-59
-19
-11
-40
-15
4
4
-6
67
26
23
67
23
16
-16
-6
-7
13
29
-2
4
22
-4
-14
-48
-39
-45
11
5
4
-6
-20
3
20
12
-16
-7
-24
-19
20
-5
7
-5
-61
-15
-25
29
85
25
-1
-29
31
30
61
94
-8
-3
10
106
35
-4
-2
-31
-79
-103
-13
-36
37
-2
-61
-27
-21
-85
7
70
-5
-15
-31
-22
-18
37
-33
-89
-43
-9
38
-11
-18
-87
5
40
42
39
110
-81
90
112
23
-9
-23
-1
-69
80
-53
68
5
24
12
-10
13
63
65
-29
1
55
13
-31
-64
-57
6
-72
-8
-120
-60
-24
-16
17
-33
0
-17
113
41
28
115
-83
-10
-23
6
-60
-102
-10
-4
-85
19
118
10
105
74
-20
-110
-10
113
62
18
20
-20
-19
14
60
-114
-28
12
-88
-86
-53
40
-73
44
58
-68
12
95
45
-4
17
-19
-62
-13
11
-46
62
127
-128
-48
-84
-12
-80
-48
-84
-123
-37
7
20
-17
-54
-72
-37
43
106
71
-18
33
-28
61
33
-19
72
-48
-45
10
54
-16
-13
2
-86
-39
-40
-61
57
49
39
48
125
-18
71
-1
-54
7
-3
-55
-74
-106
-58
-30
-96
-67
-66
23
-79
59
19
-6
-91
-69
-19
-107
124
89
35
75
85
58
63
10
72
42
18
7
53
-6
47
105
-80
-9
72
53
20
69
16
-43
67
-95
-1
25
-79
-86
-33
-69
-20
-5
48
-58
12
-15
14
87
-89
-48
-52
-52
-46
21
-15
-110
-35
13
-3
24
93
16
19
-59
-113
-38
35
-13
65
55
0
58
-66
55
26
46
16
9
-41
-128
116
73
-43
-47
32
12
-8
31
18
-78
-71
-64
-17
-108
-11
127
-98
-3
-17
-25
-79
-14
-1
28
127
44
-100
-17
-47
-17
-14
-107
14
-37
125
83
82
-23
-60
-67
-39
36
87
-6
77
43
43
89
-38
-93
-9
-59
-25
-6
9
-50
36
-72
-72
36
18
-106
-40
-82
-128
68
-25
45
44
82
30
85
127
10
25
19
-81
-53
50
78
-88
-17
-29
16
-63
-41
-65
-25
-83
54
25
28
92
78
124
127
99
-7
-49
-24
0
-25
45
8
58
77
5
50
-91
-52
-49
-125
-43
46
65
8
49
76
9
78
89
-59
45
-38
10
-8
-39
20
-61
-119
-104
50
-92
-10
44
-29
-128
-8
-48
14
8
36
-14
34
83
7
62
-20
-82
-73
-3
33
11
65
110
-1
39
53
-23
-16
94
-35
11
-58
-37
-1
-12
-52
-114
41
11
3
1
13
7
-35
-10
25
-3
-5
1
-15
-21
-28
-128
-77
-44
2
-119
-61
26
42
-92
4
32
32
-11
-19
15
50
63
-105
-71
-8
41
23
14
89
66
127
43
-2
19
78
-20
-78
-38
105
58
-23
29
64
-10
68
85
-24
-44
60
56
-116
-34
-98
-128
-45
-48
-44
80
41
5
26
79
-28
21
-14
80
24
-6
-51
114
-5
-71
40
-40
4
50
-20
-84
-55
-50
0
-71
-54
-115
-62
-93
86
53
7
26
34
101
89
27
-55
-15
-15
-36
-65
-63
-110
-58
-121
-60
-42
-116
-128
-39
67
-67
114
-11
-63
76
127
53
33
127
-45
-30
81
18
-103
-72
-77
-17
-4
-117
-65
29
-10
101
127
-7
-30
86
-41
-69
-82
-79
-103
10
-6
52
-27
96
116
-16
-27
35
-62
-9
34
-27
-22
-35
-64
-105
73
57
13
-10
-17
-17
-45
127
44
-40
-6
-116
-105
-23
14
-46
-14
45
-97
-125
-9
61
8
-86
32
-43
29
-21
47
26
3
127
-13
59
72
-42
-95
-15
77
-128
20
69
-28
33
47
-80
-97
102
40
42
31
4
24
65
127
-37
-70
49
-21
-67
7
7
-119
-99
104
14
1
85
127
124
127
117
-79
-60
-2
41
24
1
12
-105
-85
-54
45
-18
-69
-27
-13
-40
-23
-40
-73
-58
-64
-33
-24
-123
-55
0
14
-70
-103
-106
-116
-13
46
127
31
110
93
52
47
47
61
-42
33
-53
-100
-11
80
-4
44
5
9
65
105
49
31
-85
21
-38
-4
-60
-43
-2
47
46
-64
-6
17
33
-89
-40
-23
-106
70
10
9
46
75
73
54
127
-82
-62
10
67
-77
-25
10
-110
-25
46
-67
-63
-4
-78
2
-88
-11
-31
5
-13
24
97
-61
18
25
4
29
39
-48
-24
-24
-9
72
54
-26
-13
-5
-2
75
87
-56
-8
22
37
61
62
82
-116
-65
-67
-8
-128
-111
-106
-4
-117
-39
23
-3
105
76
40
-3
48
37
62
-13
-27
29
13
30
-1
83
-62
35
12
-3
59
69
-121
-33
16
-4
-23
-29
16
76
12
28
49
-40
-72
-29
-49
-17
-108
75
25
27
27
31
-26
113
127
-128
-112
-20
-38
-29
40
-17
-124
1
25
-39
77
69
25
-113
-95
86
-37
23
-31
36
13
29
-15
-99
-37
-5
-128
-128
-98
-120
-33
-92
-13
-11
-27
7
-33
-78
-85
127
126
98
106
89
55
33
127
-128
-72
21
-24
-83
-44
-100
-119
-55
-111
-3
-82
-69
-78
-36
58
65
64
-22
95
75
90
81
121
-74
-39
-29
-62
-97
-50
-19
-115
14
56
39
81
65
-30
73
75
22
98
4
-63
-99
-41
-128
-128
-99
-70
-45
64
25
49
-104
9
82
-6
6
-3
74
80
-2
95
-28
-5
23
7
6
-77
-39
28
-88
-77
-59
22
-14
26
39
-62
63
26
-28
-101
-63
-71
-31
127
19
10
47
56
67
69
122
-83
-98
-82
-22
81
-22
-2
-116
-78
64
127
-32
98
103
-26
-68
-52
-5
20
12
125
6
-11
18
-128
64
-16
-13
-106
-128
-36
95
-68
-91
49
-23
89
-24
-88
-71
-8
85
-64
-35
44
38
65
92
88
-56
7
18
85
77
88
21
-73
-8
63
-12
87
88
-17
-119
-81
2
-85
-22
-128
-107
-53
73
-128
92
-8
10
102
112
85
-104
56
-10
-76
57
-19
-38
-14
28
21
-83
-45
6
-40
-46
6
98
-87
85
-51
-33
-7
-40
26
6
52
-124
-68
-18
51
-67
-62
114
-114
123
62
-86
-8
100
11
-74
127
-91
32
21
-2
-55
-95
-5
-10
-9
-72
11
-4
27
85
-28
61
81
97
66
-81
-42
69
127
-37
18
15
6
-6
-30
-7
24
39
-70
-77
4
-13
19
-23
-128
-51
31
64
24
-37
-52
-4
97
127
-60
-24
-11
90
79
42
-36
-82
36
17
20
-102
-38
-43
11
-111
14
15
48
-51
-91
-9
86
85
73
56
-44
92
100
48
4
-69
-122
-26
-15
-106
-69
-77
-107
35
-10
64
87
-35
-63
-56
88
-37
32
-4
16
-34
-55
14
62
-11
-39
40
-36
-43
58
65
110
-48
-25
73
-6
8
67
17
-81
-120
57
-32
78
22
-89
-22
-99
13
58
80
-14
83
127
61
-5
10
-100
-32
-31
16
-52
-61
-58
46
55
-11
-7
-72
-66
56
-128
-73
-68
-37
28
-5
-95
-31
74
-2
-27
28
-31
19
60
40
21
27
-40
-67
-38
-46
62
-29
-128
-128
28
94
57
35
1
-94
106
127
-54
-19
11
31
-17
19
-125
-59
-10
-76
-76
-58
-11
63
15
-58
77
120
44
-86
26
-12
-103
49
93
12
0
54
21
26
127
103
-78
-37
-1
15
-49
-88
-23
-122
-128
-101
-36
-104
-67
-8
-116
-109
51
81
93
74
-40
16
127
102
-99
-24
-10
42
37
41
39
-128
29
36
-50
-67
10
-23
55
-25
-49
-60
-26
23
-70
7
18
101
-26
-27
-3
6
8
-23
16
-100
-65
-5
-27
-64
-23
-66
43
-45
-12
54
73
-40
2
-19
-74
-12
-39
-31
-78
2
21
44
-54
-12
28
63
0
-54
-11
64
56
51
2
40
-2
-36
39
14
46
43
-123
-100
-45
-4
3
34
37
-19
-17
3
73
-65
0
-119
-99
59
-81
36
-6
37
-57
-81
-59
-82
82
38
26
-9
-128
83
-60
77
-2
-107
-73
114
126
94
5
60
20
67
105
-28
-81
-36
-59
10
-76
-45
-98
42
-29
-61
-24
-128
110
-75
17
-72
79
-115
36
106
103
24
53
87
57
82
8
-89
-50
-8
-7
58
35
0
105
-98
-32
44
22
-101
-52
-1
-29
35
-36
-108
-59
35
-64
-33
-105
-9
5
46
-24
-8
35
-20
39
87
-62
-72
-69
26
-23
-59
127
-127
-1
-54
30
-106
-60
9
-24
26
-35
-21
50
72
96
83
102
95
-84
-68
-44
-36
-32
-9
-55
-72
-20
-7
23
-24
-56
-26
30
-56
-19
-40
-35
25
-54
-52
-99
-128
127
99
-38
10
-44
32
-34
4
-12
-57
26
15
86
10
-13
64
-46
-26
40
-49
-59
-2
-13
26
-93
-17
-19
122
120
71
62
-71
33
86
-52
-98
-96
-29
42
45
-46
93
71
13
20
-23
97
-102
127
47
-31
-78
16
0
57
127
-92
7
-31
-15
-11
35
-15
-50
-25
11
10
-13
-12
-15
-70
-128
-95
-6
-79
-36
-44
-40
70
118
67
103
51
43
34
16
14
-69
32
-17
-10
-15
14
20
7
58
7
-18
-33
-4
-15
29
75
51
-90
-14
33
-80
-128
-118
-128
-105
122
66
88
127
127
120
85
127
-59
-26
80
2
-67
-24
77
-82
-128
-67
44
-111
-80
-26
-128
-128
119
90
-44
42
60
69
103
90
-81
-61
-7
3
-51
-113
-73
-95
127
64
2
-93
-41
89
52
127
2
72
72
41
52
21
35
-10
-65
-100
-28
56
-47
31
72
-128
-30
-28
-56
33
41
-13
-128
-86
100
-14
41
67
44
-23
113
125
-49
2
24
16
-14
-98
11
-128
43
-21
10
-26
-3
34
-97
-54
-104
-80
-54
0
7
26
-9
-128
-60
51
38
-10
19
55
-38
-102
-3
-77
8
-84
-45
31
49
-78
106
85
-2
94
63
3
68
84
-33
-76
8
-32
-100
-44
112
-106
-21
-45
-15
-77
-65
5
-98
100
-44
-20
-43
111
66
68
20
-39
-21
0
17
46
55
33
56
-14
47
92
-3
-7
-5
-48
-77
65
-69
-76
22
15
-59
-16
-27
-128
-10
-5
-70
-9
-3
-19
54
118
-76
-113
11
7
41
50
-27
-32
18
100
-39
49
25
-50
-30
102
49
-111
-24
28
16
-20
-4
-72
56
60
45
-107
-49
-62
23
80
-2
-13
-32
-34
-31
-12
-125
-23
-85
-50
28
40
-21
77
-7
-67
34
70
-64
-36
34
5
25
65
-28
-17
40
105
38
32
-53
-90
9
-26
-6
-87
-66
-102
-43
-35
-50
-62
-49
-9
48
51
49
-33
-74
33
69
-58
-108
-100
16
-114
70
41
-55
127
127
92
-30
113
-55
5
0
-73
-59
-11
-29
-70
-50
50
39
-71
-81
-5
8
-105
-10
55
33
58
-27
3
42
-79
-53
-73
-34
24
-7
-39
-33
-128
19
-11
56
-7
-33
-13
17
-30
-27
4
-43
70
93
37
73
84
53
108
0
25
46
-15
-74
102
-46
-11
40
-40
-37
-8
-51
-8
-7
1
-1
-31
-13
25
102
-28
-12
-34
-46
2
14
-3
-50
-89
18
45
35
15
37
-12
-86
67
6
-50
-28
-51
-67
0
19
-17
-21
100
-27
47
80
28
25
-33
21
7
31
-26
-116
-61
-56
-128
-16
-46
-90
55
90
56
25
27
92
38
82
-45
5
30
33
25
-69
71
-13
-4
-50
-49
-46
50
26
14
19
-4
-29
-15
-37
-28
-63
-81
-107
-37
-32
-6
-24
-89
-59
2
-13
-91
-10
-56
-46
-95
87
30
-1
-24
-27
11
20
73
-7
-77
14
32
48
31
4
92
-16
47
0
-1
2
7
98
-4
-61
-88
-63
-42
-34
-40
-77
-36
11
9
2
-31
-24
-17
-76
-35
47
31
0
-6
29
33
28
88
-31
-44
22
-2
-2
23
18
-44
43
22
14
2
-39
13
54
4
8
11
-9
37
37
-39
-55
52
22
16
-14
-12
-4
25
48
28
36
-12
31
-1
19
28
10
-13
-50
-2
-24
20
-10
-31
22
-10
-8
-30
23
-7
-19
4
-80
-8
43
35
5
-29
14
13
38
26
-7
-24
55
15
22
-6
-16
-15
-7
2
-23
47
2
-6
53
23
-8
-27
-32
-50
-39
-22
-31
-21
-1
-11
13
14
-14
1
-6
2
1
1
-12
-20
11
6
3
-3
2
10
-12
34
27
-2
-2
13
9
6
107
37
-6
-28
13
-19
2
7
-32
-46
-11
-25
-60
-7
20
-15
-79
-38
-31
17
78
26
8
8
58
15
0
24
-66
5
-7
5
-53
11
33
20
44
-8
13
20
6
-13
3
13
80
19
7
7
18
13
5
-15
-81
-4
-11
-10
-11
-26
-13
-9
-50
-10
2
-20
-14
-4
-6
11
27
3
14
21
26
12
-42
-16
-16
4
1
0
-23
32
50
17
56
5
-23
-30
29
48
10
2
6
-3
-5
8
-2
8
7
7
20
5
7
-15
8
3
6
-16
-20
-3
-2
0
53
10
-24
4
5
7
36
-1
-60
-45
-20
-34
8
-18
-30
-12
-21
-17
-8
15
-79
-8
8
2
-9
13
0
16
13
14
-10
-11
8
1
10
-9
-15
-8
1
9
10
19
10
-3
58
9
15
0
0
-28
-3
4
7
1
5
13
28
12
15
13
3
-4
1
-1
-43
-6
-11
-6
-56
-1
-19
-17
7
-29
-5
-3
6
-10
-11
-13
-33
-32
-36
-21
4
-11
6
5
5
27
37
4
-48
8
7
1
44
7
-7
4
18
-1
-9
2
-9
8
18
-2
0
-2
5
-4
-39
-8
-2
-4
10
-1
1
9
43
-1
-2
13
-4
2
-12
-8
0
15
-10
-27
-16
-12
-3
8
88
15
-4
9
-43
-1
34
0
-75
-5
-5
-7
4
7
-17
-1
-17
-39
-7
-7
31
0
-23
-12
-9
0
-3
-4
-5
-3
-15
6
14
-16
-12
9
0
1
4
7
47
12
13
18
53
-2
17
-10
-41
22
-7
-19
-29
-4
10
8
4
-18
6
7
11
4
-3
-2
10
-11
-10
-6
-11
-1
-10
-9
-1
-20
-8
-13
-7
-3
5
0
-43
-18
3
-4
-4
-7
1
0
34
13
5
21
22
10
9
7
-21
17
0
0
-19
7
-8
-10
-29
-32
-16
0
0
-8
-8
0
26
20
-1
-5
-3
-1
8
-5
-47
2
22
3
2
-7
-3
-1
8
-1
1
0
17
9
-2
8
25
-6
6
-2
-14
1
18
2
-15
-6
-16
-18
-21
-5
-36
-8
-36
-21
-9
2
19
-2
-1
-1
3
19
3
6
-9
-7
-2
3
59
32
6
-6
1
-1
-2
-1
-22
-28
2
11
15
3
14
5
45
4
-5
-9
-1
13
-14
5
-42
-9
1
-6
-51
-10
11
-17
-36
-1
2
13
40
12
-11
3
31
-12
1
-6
-45
-9
13
-3
-6
-10
-2
3
-2
-1
-4
-5
-26
-27
-11
-4
22
-2
2
1
-10
45
9
-6
11
-3
-8
-7
6
-2
13
3
-26
-2
-3
0
12
8
-13
-7
-4
-3
6
7
22
48
5
4
5
3
-11
1
3
-34
-3
-1
-4
-12
-1
-1
-56
-17
-9
-3
17
4
-4
-3
-13
-14
-3
-12
-31
-7
-4
0
-24
-6
-8
-10
10
-13
5
8
45
19
9
22
-10
17
0
-6
-31
-38
0
0
5
5
4
7
36
56
2
-22
-5
-10
-3
-5
-7
-19
-2
16
-23
8
-7
-15
-24
-15
-5
-5
-8
-8
-2
2
18
-35
-1
5
4
3
2
-10
-22
24
4
0
-6
-5
0
3
39
-1
-3
-11
12
-6
8
13
2
-10
0
-4
-21
4
-8
-11
-29
39
3
-6
-2
-8
3
-1
-2
6
-10
4
-6
0
-1
6
-1
-17
-3
-8
20
-6
-4
5
-5
-8
-10
-11
-39
-10
4
-1
-30
-7
0
6
-1
7
2
2
19
18
-2
4
5
1
1
4
2
6
3
3
-13
-2
-2
-5
-14
0
-3
-4
18
4
-5
-2
46
-20
-14
-5
36
-1
0
-6
-50
-16
3
0
-8
-5
4
-5
-18
2
3
6
4
6
-8
-3
8
9
7
1
0
-6
2
6
26
20
0
-12
-15
-6
3
6
-6
-25
-3
14
-7
10
-3
-8
-9
-18
-6
-3
9
-2
1
4
50
24
6
2
15
-1
-1
-1
-9
9
7
10
4
2
-1
5
14
-35
-13
-15
-7
-3
-5
2
-7
15
7
-5
-10
-10
-2
-21
-28
-10
1
15
11
17
-8
-9
7
2
-7
-15
4
-7
-4
2
44
-3
2
-7
-61
-6
-1
-9
-62
13
2
4
26
3
1
8
-4
1
-3
2
17
-3
2
1
36
19
-1
-3
-6
1
-1
-6
-13
-5
0
-2
17
-2
2
0
19
4
-4
-2
-6
-4
2
6
4
-1
-3
-1
-11
6
-3
-5
-18
-8
-7
1
12
-1
4
6
-2
12
-1
2
3
3
-1
-6
24
-16
-10
-8
7
-1
1
3
-24
-14
12
5
12
-2
4
3
19
6
-3
-1
-12
1
-10
-8
-22
-12
-9
-13
13
-7
-3
-13
10
10
0
-5
-29
-1
-6
-2
30
-1
0
9
15
-8
3
3
-25
-9
6
14
6
17
1
-2
-11
-2
-1
2
14
0
1
0
-15
-5
-1
-1
9
5
-3
3
4
2
-3
-18
6
-12
0
5
13
10
-1
0
-32
-2
7
-2
-3
-24
1
9
16
8
8
6
7
-2
0
8
21
7
-4
-6
-19
14
-3
-2
-24
-2
-5
0
10
8
6
-6
1
-10
0
2
-2
-13
-5
-9
-3
1
1
4
-20
-12
-1
9
11
2
4
4
-18
-11
-7
-7
-3
-1
-7
-11
8
20
-2
-8
-3
-3
-3
3
-4
-7
12
7
0
-3
-1
-3
27
5
1
2
-6
1
-3
-3
-4
-3
-3
3
-6
-7
-3
5
16
-5
-4
-6
-22
2
-2
0
-39
-7
-6
2
34
2
-3
-15
-10
2
1
-2
-2
-2
3
4
36
11
1
2
10
2
-4
9
-10
-11
-4
-12
-21
-14
-1
-2
7
1
0
10
3
6
2
7
4
-8
-1
4
-6
-1
-1
-5
-12
1
2
6
9
4
1
-6
-9
-6
-4
-5
-5
-3
-1
-2
17
3
0
-7
-2
-5
-2
2
3
8
4
1
-5
-1
-1
2
3
2
1
0
-3
-1
2
5
16
0
-1
0
6
2
1
-5
-25
-19
-17
-6
-4
-3
-3
-5
-1
11
2
8
2
1
1
5
-16
1
-4
-10
-13
-2
-1
-7
-4
-3
4
9
17
2
3
5
17
11
4
-3
4
-1
1
1
-7
-14
-13
-7
-23
0
0
-1
-3
-3
2
5
17
1
3
3
-2
1
2
3
19
-2
-2
-5
0
7
1
-10
-21
-3
5
1
-12
-8
5
21
13
4
-8
-11
-2
4
1
-4
4
0
-1
-7
-24
-6
-3
2
22
0
-6
-1
22
2
0
-7
-33
-10
2
2
7
10
-1
-14
-2
-3
1
-2
8
0
3
1
-4
1
1
0
20
8
0
5
7
1
-3
0
-15
-8
-1
-1
1
-1
-4
-7
-14
-13
-4
-7
-7
-5
2
2
18
7
-3
3
2
2
-5
1
-24
-16
-4
-7
-15
-2
-1
-2
7
2
-1
3
5
-2
-2
2
-14
-3
3
-3
2
0
-4
-5
-1
4
1
-7
-14
-3
3
1
2
1
5
13
10
3
1
1
-3
8
-6
1
-1
0
-3
-2
4
-14
-7
-6
-3
-3
1
0
0
-2
-1
-16
-26
-9
1
-3
-1
5
3
3
-11
3
-1
2
36
13
8
14
23
0
-4
-7
-9
-3
-8
-8
-5
4
0
5
1
-2
-3
3
9
0
-4
-9
-4
6
2
-8
-17
-4
1
-4
-12
-10
-1
-1
5
0
-2
-1
3
11
3
-2
-8
-5
1
-4
6
-16
-14
-3
10
0
-4
1
-11
-3
11
1
5
-2
-1
-5
1
31
5
0
-2
-1
-1
5
34
-3
0
1
0
0
-3
-4
-28
-8
-3
3
1
2
-1
1
-2
-9
-4
-7
-14
-3
0
-2
-26
-13
-1
-2
-13
-1
2
3
10
13
2
6
26
4
-1
-3
13
12
2
-2
-18
-3
-11
-8
-3
-2
-5
-1
7
-5
3
3
2
-13
2
-1
2
3
1
2
-18
3
0
2
7
1
-4
-2
9
-5
-1
-2
9
-6
0
-6
6
-1
-4
-1
-10
3
-1
1
21
12
1
0
-3
0
-5
-2
-20
-27
1
3
1
-5
3
0
-8
19
0
-3
-3
9
1
2
10
-18
-8
-4
4
-2
-3
-1
3
11
13
3
3
-1
1
3
3
1
-3
-3
-10
1
2
6
-7
11
-2
1
4
-3
-2
-4
-14
-15
6
1
3
1
0
-6
-8
-19
-6
-1
-1
2
1
3
4
3
-3
-3
-5
-2
2
0
-7
1
4
4
0
2
-1
3
14
15
-4
-7
2
-4
-5
-2
-23
-15
-4
3
8
-2
0
0
-2
1
-3
-2
-7
-2
-8
-4
7
-7
-3
-1
3
-3
1
1
-23
-3
2
1
1
6
2
-4
-3
-29
0
-7
-26
-5
1
0
21
65
2
2
7
5
-6
-5
36
6
6
5
18
-5
-15
-4
-2
7
-5
3
-10
-8
-7
-1
-16
-21
-10
-8
-1
2
18
-1
-24
-39
-2
-7
2
6
13
4
-15
-33
-1
-1
-18
1
-7
-13
18
41
5
-4
-8
-17
-11
-10
-10
5
-14
-5
2
-3
-10
-5
11
-24
-11
-5
-2
-9
1
3
14
27
25
7
12
6
2
5
-39
-33
-8
-9
-1
-4
2
1
33
45
10
15
15
-4
-8
-5
-29
-30
-7
2
5
2
3
2
-19
-40
-16
-6
-10
-3
4
-2
4
5
-6
-5
3
1
9
8
13
4
6
-12
-24
1
4
4
-10
-10
3
3
-10
7
0
-2
-29
13
0
19
37
5
6
3
42
15
4
-1
-14
-2
-7
-13
-7
-2
-5
-2
2
-18
-10
-7
-13
-14
3
-9
-14
6
-5
10
18
4
-7
-10
-20
4
2
-11
-2
11
1
7
0
2
-1
2
-1
-9
2
6
16
-1
-2
-13
-4
8
2
5
7
-9
-9
-6
15
5
-5
-5
-5
-4
5
8
-5
-12
-6
-4
2
9
2
11
-15
-2
3
-2
5
8
6
-6
-8
8
7
-6
5
-10
-7
-10
-26
-13
-6
4
-21
2
-12
-1
4
-2
-10
5
25
-6
-3
-9
2
-4
8
-3
-6
8
25
18
-16
-18
-5
-14
-31
7
15
-8
32
50
5
1
-6
-10
-5
10
2
6
5
5
-3
9
-5
-4
-2
-8
-8
-1
-5
-7
-17
1
10
7
-1
-2
8
-6
-5
0
-30
-46
-1
-9
-6
-5
-2
-3
4
3
-1
-1
-4
-2
6
-6
5
1
-2
-4
-4
2
-5
0
37
35
1
3
8
-1
-12
-9
-36
-14
-9
-7
16
-8
3
-4
-15
-13
-4
5
8
11
3
-16
-14
-1
4
-10
-1
2
-7
-8
-5
-7
3
7
1
-3
7
-2
47
25
6
3
3
-1
30
15
-14
-18
-2
4
0
9
-18
-3
5
14
-13
-2
-2
-6
-11
6
-1
-9
-7
-5
0
-18
1
-7
-22
-6
11
10
15
15
19
-1
20
13
19
-6
-47
5
3
11
26
16
2
12
26
-4
-14
-7
-5
12
-38
-7
22
-12
-11
5
-27
-51
-7
-21
-57
-4
14
8
-19
-10
25
8
0
44
22
23
5
-3
-1
8
15
13
-9
-17
47
76
15
0
-13
-13
-5
-9
25
15
-20
-2
14
-21
-25
-11
-16
-14
-21
-6
3
-20
-5
-2
-20
-24
-3
-10
-14
1
23
17
-7
-54
4
1
8
13
18
9
21
35
14
10
40
18
-9
-4
8
19
6
4
0
-19
8
12
10
-20
2
14
16
-15
-15
-10
12
35
4
-10
-14
-2
3
18
-6
-23
-6
1
21
26
0
-19
-5
2
13
6
-3
8
-2
1
-6
1
-6
-6
-38
-16
5
15
-14
-22
12
4
-1
3
-25
-29
-8
5
-9
-16
-5
-32
-15
-17
-4
15
-50
-12
-20
-53
22
27
-40
-36
27
2
10
104
33
26
16
7
52
15
2
37
-10
-26
1
34
-8
-11
-23
-12
-9
7
63
35
1
12
41
-27
-34
-44
-3
24
-38
-9
7
-72
-7
1
-43
-42
-28
1
20
-2
26
14
-29
-21
30
5
-28
43
9
15
-2
-21
5
-7
6
17
32
35
25
38
20
28
-12
12
-19
-20
18
24
-16
-5
2
-16
-13
-3
22
-16
-14
-1
30
-36
-6
-7
-30
-16
0
4
-32
12
-8
13
4
-16
1
-10
-20
-2
14
-56
-21
-8
8
7
9
64
21
28
-20
0
-8
-1
-4
2
8
0
33
-6
-3
-20
-8
4
-31
-21
-30
-39
-33
-11
33
-53
-17
18
15
6
-10
5
-37
-93
20
-11
-40
-39
12
-7
19
85
-2
34
-8
37
57
16
15
62
-5
-24
10
-35
8
-6
-41
-21
1
3
-39
75
-2
4
20
-11
-46
-31
50
-31
-34
-6
-28
-83
-3
2
-27
-46
-47
-5
24
-36
29
15
13
22
18
-3
-14
85
-13
-19
3
-10
14
-20
10
12
20
17
-1
16
15
47
8
5
-3
2
7
0
-4
-4
-4
-20
-36
-26
3
-7
-33
-2
-15
-50
-11
18
-6
-35
-2
-5
29
1
-12
-3
7
11
9
-1
18
26
32
6
2
-28
-3
-13
-23
44
23
24
2
3
-4
-17
7
40
-13
-1
16
-9
9
-1
-41
-40
-56
-23
9
33
-35
-4
26
-42
-18
-20
-24
-32
-53
-8
23
-48
63
23
-33
31
84
24
-7
-14
17
5
27
8
-9
1
7
115
2
-35
-1
12
-1
-12
-48
-17
-24
2
1
-4
-3
-2
-20
-23
-50
-36
13
-10
-47
-10
17
-53
15
58
6
-41
-34
6
32
-55
109
88
13
15
-18
-9
-19
78
-22
-55
-13
74
96
29
-19
14
-4
25
20
21
-3
1
59
6
25
75
5
-29
-9
12
-36
16
-30
-46
-18
-44
-51
-19
-7
-36
-3
60
-4
20
4
14
96
-94
-91
-99
-11
-62
-54
-37
-45
101
52
77
9
3
22
-15
-66
-67
79
6
32
51
68
18
-29
116
-58
14
-10
-13
17
6
25
-23
-61
-56
23
-60
-33
-1
-10
-87
30
46
-9
81
-5
4
42
14
-46
11
-32
-118
-57
-42
-24
-51
45
49
8
18
14
-4
34
56
26
7
-3
-12
-16
18
-10
-80
-34
-128
-5
4
27
3
-91
85
-23
44
48
-49
-5
6
25
-75
-5
-24
-41
-30
-95
-12
30
31
86
127
-33
-8
46
2
-1
86
38
-46
-2
43
-5
7
127
-66
-43
-9
-49
-13
40
6
4
101
-71
-103
17
53
-38
-31
-112
-93
50
18
44
-51
-1
27
122
88
29
35
33
6
16
-4
79
35
-2
43
5
29
-10
-19
12
-91
-64
8
-10
-62
8
55
90
-113
-11
-14
-37
107
49
24
-35
-128
-70
-76
21
-52
-86
-66
-128
75
105
91
50
127
127
69
108
57
-65
-65
-4
-48
-77
-20
-12
-42
55
-66
-86
-78
-21
-58
-87
106
-23
7
37
-42
-16
24
127
-122
-94
-119
-43
-60
-78
-92
-128
-83
123
12
-20
-93
-2
4
-33
-45
-25
101
25
127
80
64
107
77
95
-52
-48
-69
2
-51
-49
127
-58
19
-24
5
-41
-13
24
-110
-28
26
19
-9
-66
-28
-3
-77
7
47
2
50
47
34
4
17
-27
-46
-20
-54
-13
10
57
55
-14
-17
21
-93
-61
38
82
-83
46
0
-27
64
61
-59
-80
83
-67
27
85
113
-6
-19
39
-26
50
-13
-87
-17
-25
14
75
-125
59
-77
48
12
44
49
-35
100
23
36
5
-37
-24
9
10
127
-72
-118
-48
-46
-128
-45
-29
-124
62
126
58
75
127
81
54
73
-102
-98
53
14
-44
-15
57
-128
-32
123
-1
-80
-68
15
84
-64
82
-42
-24
63
65
-28
-26
60
-128
-91
-86
-128
-125
-1
87
-128
71
87
45
67
59
12
-31
121
-99
-28
93
101
-53
-43
43
12
-53
1
22
27
64
-10
33
10
-101
-77
-32
8
-37
-27
-61
-128
20
19
-55
-55
22
32
127
127
40
-99
73
10
10
42
24
77
32
-17
-15
-41
17
-17
-22
64
-49
19
19
92
80
-53
-128
-73
-13
-91
-61
5
-38
100
86
-128
95
95
14
-18
16
-44
-73
127
33
-63
14
-23
-41
77
127
2
117
27
63
-28
54
50
13
-2
-128
33
-29
-90
-62
-88
-78
-80
115
73
-23
89
81
34
-7
19
-99
-34
-62
-64
-88
-112
-111
-52
-74
11
15
-23
-25
59
-50
102
-68
-13
20
13
-91
-26
-35
-110
106
-7
-18
73
127
77
120
120
-128
-41
63
-46
-57
-11
0
-128
54
32
-33
-57
-79
-45
101
122
5
-1
12
77
-11
-25
-46
-71
36
41
-70
73
90
20
-68
78
-11
-10
58
-40
-6
3
-7
-123
-105
-88
-39
-42
-79
1
44
-127
40
-47
-33
-75
-17
-21
-81
21
-4
10
76
17
-16
-26
99
-19
12
-4
-26
-47
-71
-13
-100
-81
-120
-90
-20
-24
20
16
6
-72
-113
-18
-58
-117
-109
-91
-108
-69
32
-128
-9
21
83
80
64
7
-57
-52
11
-37
-49
2
78
-51
24
1
22
90
1
22
-4
76
-72
-85
-35
12
-57
-58
60
-96
44
27
3
10
25
39
-103
25
127
93
-7
114
8
44
127
26
-97
-84
-31
-17
-68
-74
-128
-128
127
66
58
-25
28
38
106
127
-96
-16
17
-96
-117
-45
2
-128
-71
-81
-22
70
-61
-15
31
-89
-96
119
-80
61
127
42
-42
-77
99
124
61
109
127
55
127
94
-20
28
17
-78
-115
13
97
-128
16
-33
24
-57
52
-19
-42
-35
49
43
-16
-106
-128
-36
18
-4
110
110
64
127
127
112
98
127
-128
-23
27
30
-72
19
75
-128
-4
-2
-35
-112
-33
-57
-62
56
89
85
49
52
-9
9
127
-2
48
-114
-1
-36
-16
24
48
-87
-60
28
-40
-31
-12
-59
-70
-101
-128
1
-61
-111
-102
10
-27
-128
91
11
40
108
112
57
-56
127
6
-7
57
-12
-48
58
87
17
-128
-128
-41
-66
-117
-81
-128
-128
27
-47
52
22
0
-26
20
-44
-45
33
-44
-14
65
57
30
-10
-9
127
49
29
11
-102
-51
-18
-96
-57
-11
6
8
35
96
-75
58
59
-4
-40
-26
-8
8
45
59
21
17
69
48
24
121
62
-128
-59
-66
43
-32
9
-16
-128
75
78
27
-109
-36
-38
-35
74
-71
124
-34
-2
43
-17
-50
23
34
-33
-47
54
31
21
-27
-39
-46
-26
-38
-64
-76
-3
-31
-124
103
-4
-59
-43
-86
-128
55
109
79
-45
-7
-63
100
127
77
120
-105
-50
120
-75
-76
-8
47
-118
8
-121
3
-49
-57
-96
-76
-3
44
-72
-7
1
-43
-78
-91
-4
78
60
-2
24
-6
57
106
127
24
65
52
11
0
-11
21
-70
-108
-93
-108
9
31
-5
-77
-64
55
81
42
-59
1
0
-48
71
59
38
-14
86
40
-19
60
-69
-98
-128
-4
55
-34
-62
-128
-74
94
-41
5
-36
69
112
103
84
-101
72
-20
-66
14
45
80
-110
-81
43
53
60
-27
-31
-119
-72
102
24
-18
38
36
-26
127
62
-37
-16
-20
67
90
11
-21
-76
14
-33
-45
111
48
4
-40
22
-86
-71
18
-67
-60
0
127
-128
-95
-79
-25
-128
-128
-128
-128
42
67
54
58
73
86
60
78
127
10
-86
-5
94
45
91
127
-81
16
-32
-30
-21
-41
20
11
-85
-71
47
-53
-70
-40
-39
-101
-128
10
-94
-38
-18
-52
-29
88
121
62
74
102
-60
25
5
76
84
-63
-128
32
13
-45
-17
-94
-55
34
27
-29
88
53
16
106
127
-50
104
-2
6
23
-10
37
11
-128
-128
-57
33
56
1
-94
-116
-7
20
39
-54
-76
-23
-14
-32
26
-12
-18
-50
-55
28
-95
-21
46
70
34
46
20
59
-46
24
-31
-1
50
21
-55
-17
76
127
103
16
-35
-55
13
-44
-72
-25
-113
-75
34
-47
-108
-68
-10
-128
12
73
-4
-76
-105
-71
-21
50
90
-15
-12
75
104
64
106
90
41
76
-9
23
1
23
37
-4
-93
-68
-6
-55
31
26
28
-71
-28
42
-19
-69
-128
-70
-34
1
6
-56
41
105
77
-65
-128
-107
3
22
11
-6
46
92
127
86
42
-32
-38
-43
-47
13
36
-54
7
53
64
43
35
-12
28
-116
-107
-42
-98
-96
-119
-48
93
83
115
118
25
110
127
-1
-92
127
-91
-60
19
-66
16
43
31
-47
-92
-24
31
-45
-26
-5
-53
-128
45
105
8
-81
-85
-39
7
99
-128
-125
-85
19
-65
-20
51
-128
122
51
40
90
127
42
47
127
86
73
-24
56
68
5
-52
81
-56
-46
-18
-30
-5
10
42
-128
-89
-87
-6
-55
-62
-20
-27
-35
-41
65
11
-41
-30
-13
-100
-72
49
42
0
-30
15
8
75
12
-80
-33
-12
-60
-71
34
-86
-92
18
4
28
27
45
24
102
127
-104
-43
-7
8
-51
-61
2
-121
96
52
87
62
71
72
74
90
-125
-5
27
-42
-81
18
-9
-128
-93
0
-32
-93
-82
-16
38
-123
18
-61
7
53
56
24
55
-66
18
-115
-32
-7
-100
-50
66
45
-40
38
-63
7
124
126
7
-93
11
-71
25
50
17
2
19
-89
-79
-15
-24
-40
-47
8
-48
-30
10
3
7
10
0
-92
51
-9
41
28
16
9
-2
-69
-21
11
-22
5
13
-12
-4
-33
-50
-54
-87
19
-19
25
-6
46
-33
-97
-63
-92
-84
-12
-63
29
-39
-128
127
35
71
92
73
-34
96
127
90
127
57
-85
-67
-48
-41
-87
31
-57
29
25
72
32
5
-36
-14
-9
-22
77
60
52
39
25
-20
-34
-24
-43
-71
-46
-117
-101
27
7
-19
-23
33
-28
18
127
112
22
16
-2
-30
26
127
111
-128
-128
-59
-103
-53
-22
-128
-128
85
20
-11
-85
-5
11
-11
85
-26
-37
34
50
4
-30
13
-9
-31
63
-23
-27
-37
-64
-113
-50
-88
15
-8
-27
37
82
19
9
-83
-70
-24
4
-31
-33
-60
-71
20
-7
-1
-42
-12
84
93
96
-12
-56
11
44
42
-10
-16
127
-45
37
-9
-25
-75
-17
-54
-83
88
29
12
48
31
35
84
35
11
-51
-14
0
12
-58
-49
15
49
17
35
-7
-35
36
28
-35
-7
-30
-16
-85
-44
-25
7
27
-55
-54
-9
-41
29
21
-57
-79
13
52
59
71
35
0
-49
45
23
5
5
-30
-45
-11
31
68
-1
-25
-24
-35
-9
-16
-30
-44
-44
1
12
-20
-7
-7
21
-36
-45
-32
-35
20
-5
34
-86
-128
97
61
1
11
44
-21
18
121
11
-56
22
48
1
-45
36
38
-35
21
18
-17
-7
28
-76
-42
0
24
-14
25
18
-1
95
-8
11
10
10
26
18
25
-44
-63
34
22
20
14
15
66
76
47
28
-3
3
35
0
32
82
37
-38
-47
-2
-5
7
-1
-40
-5
5
-5
-13
-14
-19
-23
34
-14
-7
3
27
-35
-23
-45
-62
-36
-11
-10
-26
10
15
2
-5
7
-18
-8
1
37
45
18
-4
34
4
19
6
26
11
-18
5
-19
-17
8
-1
-9
-2
-4
-31
-9
6
8
-8
-22
-17
-1
7
9
-1
14
-27
6
-15
-18
-19
-5
4
8
-13
-47
-5
0
-4
-12
-24
-24
13
6
15
18
-37
-16
-1
4
1
0
-17
-10
38
9
2
-6
-11
5
-3
11
-27
7
6
23
16
0
5
34
44
4
5
10
-15
-9
3
-5
0
14
1
-1
-5
13
0
-15
-18
-4
-25
5
6
-4
-7
-20
-23
-8
-8
0
-10
9
-5
6
11
-4
7
0
-7
-10
2
-19
-20
-14
-5
-4
12
16
5
8
5
1
7
9
-2
-1
4
-2
14
5
-1
-8
9
-18
-13
-14
-36
-4
0
-1
-25
-4
5
-9
20
-8
-8
4
28
27
4
-3
-15
11
-3
-3
-52
-17
-13
18
-31
4
-1
-5
14
-35
-12
-10
23
0
1
12
-57
-1
10
-8
5
-8
-4
-6
26
10
6
5
-27
2
9
8
42
32
6
-3
61
3
8
-18
22
-4
-5
4
12
-2
-40
-4
-56
-14
-5
2
-7
-6
-7
4
-25
-14
-5
-15
-11
-6
8
-10
11
17
-4
-8
-24
2
-13
10
4
-16
3
16
33
8
8
-7
10
10
6
15
1
-3
-2
-10
6
-19
2
10
30
4
-15
-10
-62
-3
-8
-15
-12
-18
-1
10
53
21
-5
-10
-7
4
22
-7
11
-16
-8
-7
-26
2
3
3
-6
-19
4
17
-4
9
-11
2
-15
-9
-1
-10
-3
-3
-1
-7
-10
20
-8
-1
5
-4
-8
-9
18
18
16
2
2
-3
7
1
24
5
2
3
-6
-3
-7
-4
-23
-10
1
-5
-14
0
11
1
21
46
0
1
37
14
41
8
11
-32
-3
5
-10
15
-21
-12
-30
-15
-13
-3
3
-25
-2
-7
-48
36
-1
-7
-29
-1
27
-6
-3
-51
-6
6
28
-9
-16
7
61
21
1
10
21
22
-4
4
-1
8
5
-1
17
4
5
6
27
-18
2
12
12
4
8
0
-63
36
4
-21
-30
-13
0
-9
-23
-84
-6
-9
-33
-12
-4
2
45
56
-7
-1
16
2
12
8
31
19
3
10
20
12
-6
1
1
-12
3
-7
-20
-2
-17
-9
-41
2
-7
2
-15
-7
-1
-2
-72
-12
-5
-9
-3
1
21
5
42
-32
-3
-4
-5
-3
-19
-19
-42
-46
-13
-9
36
-7
-12
-5
8
27
-3
-12
-26
-7
10
4
-21
-9
0
13
-2
0
-3
-6
-10
-39
-6
-7
5
-1
-6
4
22
15
9
6
-28
-1
6
4
50
81
2
-12
12
-8
-8
-10
-7
-3
2
-3
-10
4
-6
3
9
-8
-3
1
-7
-2
-8
-4
-44
-30
-8
-6
7
0
2
3
33
13
1
-2
-9
-10
12
3
-27
-30
-1
-3
5
2
6
-5
39
30
4
11
15
13
-26
-6
-16
-8
1
-1
-10
-7
8
7
0
27
7
10
11
9
6
3
-3
-41
-9
-8
-63
-23
-35
-16
-38
9
-5
-6
26
-5
5
7
16
10
6
11
-21
2
-8
-5
-14
-2
-3
4
-1
0
1
5
16
-22
-1
-10
16
2
15
0
16
8
1
0
-16
-3
1
1
23
44
5
2
-7
-2
-9
-3
-24
-18
-3
-4
22
-5
1
-4
6
4
-2
-6
14
5
5
1
12
-29
3
10
1
5
2
3
-4
10
-1
-6
11
0
0
-1
34
33
3
0
-12
0
1
5
-24
1
4
0
4
3
-4
-1
13
-10
-1
10
21
0
0
-2
-11
-12
-4
-7
-41
1
0
-7
5
-2
3
2
4
-4
-5
12
-7
12
-2
-3
-15
-5
1
4
4
-26
0
-2
23
3
8
-3
-23
-6
-3
12
20
1
-1
4
-13
-30
-4
-5
5
-2
0
3
18
37
3
-4
-4
10
-3
-1
-31
4
1
2
-8
-9
2
-10
6
-21
-5
-1
-3
3
-6
-4
-10
18
1
9
12
-1
-3
-9
-18
-35
-2
1
14
2
-2
-2
2
13
1
-12
-20
-7
-1
1
31
16
-2
-7
-16
-5
-3
1
-5
-30
-3
-1
12
2
0
-3
8
2
-5
-4
-1
-5
1
-5
-31
-8
0
8
-30
-1
-2
7
53
38
11
-2
12
1
0
-8
-35
-41
-10
-10
4
-6
-4
0
9
7
1
4
4
7
0
-1
-7
12
-5
-10
-4
-6
2
-3
-23
-16
1
11
22
3
1
4
20
9
-1
-10
-35
-4
0
1
17
26
-3
8
12
-3
-6
2
13
0
4
0
6
0
0
-3
9
-1
0
-1
-3
0
-1
1
-48
-10
0
-4
2
-2
2
1
12
10
1
-1
-1
1
-1
5
-5
3
-5
-11
-27
-4
2
-2
17
5
7
10
23
9
-18
-2
12
8
-1
0
15
2
-7
-8
-11
-12
-7
-8
-28
-10
0
-6
-6
2
1
7
27
5
-2
4
0
8
-3
-5
2
2
5
1
-17
-8
0
-3
-22
-2
-1
-1
11
7
2
1
13
-5
-2
1
24
6
1
0
-3
14
-2
-1
-32
-11
-5
-4
-6
-6
2
4
23
-3
-4
-1
-1
0
1
-4
-30
-23
-8
-7
4
-3
-1
3
22
21
10
4
12
-6
-2
-5
-21
-1
-4
-3
-14
3
0
-2
6
-2
-4
1
-4
0
-2
-2
-10
-5
1
1
13
3
-3
-7
4
-9
-4
-10
-16
-9
-4
-5
-6
-6
-2
-10
-28
-3
5
-3
32
-1
6
20
52
7
4
3
-16
13
-1
1
-5
3
-3
-6
-5
4
-2
-3
-15
0
-2
3
-3
-19
-6
-13
26
-5
3
4
3
9
-2
-4
-17
-4
5
5
11
-5
10
7
-2
6
3
2
-18
-5
-6
1
20
0
-2
-6
-41
-6
-2
-2
-10
-3
-5
-5
49
15
0
-4
-7
-3
0
0
-28
-13
-6
4
9
5
-1
-1
-7
-6
-3
-2
-7
-3
-1
2
-8
-7
0
3
3
-9
4
2
-5
12
3
-5
-5
8
-4
-6
34
13
0
-1
-4
-4
0
-2
15
7
1
6
4
2
0
1
-9
-3
0
1
4
0
-2
1
-8
1
1
-5
-17
-8
-2
-3
6
7
-3
0
7
-2
1
-6
-9
-10
-5
-5
0
-4
-1
5
19
8
-15
6
0
10
0
-4
-21
-17
16
4
1
1
2
4
-8
2
11
3
-5
-3
0
1
21
2
-1
-8
-6
-4
-3
-6
-2
19
4
-1
-7
-4
-6
-7
-6
-32
-13
-7
2
-3
-2
-3
-24
-19
-4
-3
-18
-3
3
9
24
5
6
2
1
3
-5
-7
26
27
-2
-4
-15
4
1
9
-3
-10
-3
10
0
2
-1
-4
-8
-4
-1
1
14
1
1
0
-25
-23
-5
-1
-1
-1
1
-5
-2
-3
6
-4
5
-4
4
-1
-12
1
-3
1
-5
1
-4
-3
22
13
-1
-3
2
2
0
2
-12
-9
-7
-2
1
0
0
7
4
-6
5
4
2
0
-2
-14
-6
6
10
-1
4
-3
3
0
10
14
-3
-2
-5
-2
-4
1
23
27
3
2
2
0
-1
3
-10
-12
-1
0
3
-3
-6
-5
-14
-7
-9
-7
-4
-3
2
3
-1
-8
3
-1
0
3
-5
0
-1
-1
-2
-8
-10
-14
5
4
3
11
4
11
26
11
-1
-2
-6
-4
-1
7
2
2
-1
1
10
10
-1
0
-3
1
-1
-5
-19
-27
-8
-6
0
-4
1
1
-15
8
-2
-8
-14
-8
4
5
26
11
-5
-2
6
-2
-6
-5
-2
-2
2
4
6
-1
0
-4
-5
-5
0
4
1
4
-2
1
-10
-20
-4
-5
-5
-4
-1
3
-23
2
0
-5
-3
-2
3
0
21
7
1
-2
-14
-3
-4
1
13
13
-3
-3
-1
0
-1
-2
-11
-6
-5
-1
-8
-2
-4
-4
3
4
4
-2
-4
-3
0
3
-3
-7
-4
-1
2
0
3
-8
-31
-24
5
5
6
3
-3
-5
32
25
7
2
-4
-2
-5
5
11
0
-6
-5
-8
-4
-1
1
-2
1
-1
-1
3
3
2
2
-3
-3
-2
3
2
3
2
4
-6
-9
5
3
8
2
3
0
-14
-4
1
-6
-2
-2
-1
-1
29
-1
-4
-3
-7
-7
5
2
-7
8
1
7
29
12
-5
-13
0
-8
-3
1
-9
-2
-4
0
4
7
-2
-2
2
1
-1
-3
-16
-6
-1
-5
-4
-6
-1
5
3
1
-1
-3
-11
-4
-2
1
-4
-8
-1
-1
3
1
-3
-9
-1
-2
0
-1
-7
-6
0
1
-4
-6
-8
-1
-8
-1
0
-4
-17
-17
-2
0
-5
-1
-1
3
31
50
0
-7
-4
-5
-2
-4
9
-13
-6
-1
0
2
-13
-7
-13
1
-7
-2
-3
1
-5
-1
-9
-15
-1
-2
-8
-1
0
-4
-19
-36
1
-1
-2
-3
2
1
8
14
3
1
4
-1
0
-4
-2
8
-1
-3
-2
-2
-5
-2
5
2
-6
-4
5
-3
-3
1
-3
-7
-12
-3
-1
-2
4
8
-5
6
9
1
0
1
5
-5
-16
-16
8
1
9
1
1
2
9
25
6
3
-25
-2
-2
2
12
-1
1
0
12
-3
-4
-3
-13
-7
-13
-4
-6
-3
-1
0
0
-9
-9
-2
1
0
3
1
-10
-6
18
3
5
2
3
-3
-5
-7
-3
-2
1
1
1
2
1
-4
0
0
-3
2
2
-7
10
11
-4
-2
-3
-3
-9
-10
1
1
-8
-4
-2
-5
-5
10
10
-4
2
1
2
3
6
0
-7
2
4
3
-3
-4
-1
-9
-17
-14
9
0
-2
1
8
6
13
9
-4
-5
-14
-3
0
-4
-8
2
5
2
11
0
-5
-2
7
-2
-8
-1
3
2
-8
0
-15
-11
-5
-2
2
4
-1
-7
21
23
-3
-2
1
-4
-1
1
-48
-33
-5
-10
-24
-3
7
3
52
11
2
15
12
-2
0
8
-9
6
3
2
4
1
-4
-5
-3
-21
-15
-4
2
6
-5
3
4
3
13
-1
-8
-7
2
-1
-11
4
3
-7
1
0
5
0
-9
-14
-1
-2
-19
-5
8
18
23
31
-2
4
11
0
-6
-2
16
18
-2
2
3
-3
-12
-5
-19
-12
1
-5
-16
-9
3
5
18
12
-1
-3
3
18
7
-4
-33
-23
-4
-6
5
7
1
-6
0
-9
6
7
6
-3
-7
-11
0
16
1
-4
-7
-16
-1
10
0
11
-10
-2
30
-3
-8
-20
-13
-24
6
2
-18
4
15
21
8
-1
1
2
3
6
-12
-21
-23
-16
-6
-2
-7
-6
16
23
11
19
10
3
1
-2
-9
-7
8
12
-1
-3
-12
-9
-3
-1
0
7
-9
5
10
0
8
4
-5
-29
-6
1
2
5
-1
-16
-10
15
3
0
-2
13
-10
-25
-14
-7
17
0
28
4
8
32
53
21
3
-3
-35
0
-8
-6
-35
6
-10
2
7
-23
-4
-3
11
-27
-18
-2
-5
8
2
20
-1
41
18
-1
-28
-8
-3
-31
-8
-3
16
0
7
21
-1
0
-3
-14
-8
-4
-11
1
-7
6
18
-7
-4
-6
7
-17
0
15
4
1
-24
4
32
-11
-11
-14
-28
10
-14
-1
8
-10
14
19
6
-3
20
-14
-50
14
-12
-32
-13
0
9
-8
-13
-10
11
14
30
-26
-3
-5
7
4
-6
2
5
-12
-21
5
28
-5
12
6
-4
5
-5
3
22
2
-6
-19
-29
3
1
2
-11
-1
0
15
3
-27
-14
-5
-21
-2
-6
-49
3
21
-6
-4
6
-2
4
12
-4
19
34
9
25
-9
12
3
13
17
-8
2
-14
33
-12
3
-3
-43
0
-3
-1
-16
-33
-12
-20
-30
-32
-15
-41
-54
-14
-25
-2
35
12
-1
8
17
52
38
-4
6
40
12
11
34
5
-10
54
5
-19
-4
-9
8
19
-15
-13
6
-6
-9
-6
0
-45
-39
-19
-15
-9
-11
23
-32
-43
-17
-5
-33
-29
-3
4
-40
23
24
-19
24
4
13
-8
-25
43
14
9
-19
18
17
23
76
20
-48
-20
8
-11
-15
-25
11
9
10
18
41
10
9
10
-2
-35
-40
-25
-44
-19
-15
13
-18
-24
24
10
10
-15
-3
9
-34
49
32
12
-15
18
14
13
56
1
6
0
-4
3
0
-23
4
-23
20
2
15
1
8
12
-3
68
-26
-5
-14
-25
-19
-33
10
-6
40
17
30
39
23
51
61
-25
-50
2
-49
-10
-12
-14
-41
-21
-30
-21
42
13
4
-49
-41
-21
76
27
-19
-17
-10
24
30
0
-79
13
-4
0
9
-7
-69
10
73
1
-21
-34
-27
-35
63
45
-96
-37
56
34
19
89
61
25
40
-1
-14
-6
-5
-81
-56
-47
-71
13
-7
-20
-5
-7
-2
-55
25
-8
2
5
26
123
-58
51
29
-12
15
-7
-24
-119
-24
32
-70
-4
-41
9
6
9
46
17
66
15
-45
-15
-5
6
30
-6
13
-17
39
65
4
-26
-21
-7
-8
10
-6
-27
12
60
5
-105
-11
-1
30
28
-2
5
-14
90
43
5
32
-84
-17
-52
36
-23
-78
-21
-44
14
11
29
-8
8
56
-4
2
6
-43
-70
24
-65
-65
-15
-69
-6
-2
-20
-117
-57
-23
31
7
-62
2
4
2
84
56
0
73
77
40
60
-24
-24
-12
-26
-7
-5
-21
-72
89
1
29
14
60
-7
-11
55
47
-16
54
-6
-110
-29
-40
-88
-50
-59
-5
6
75
22
57
99
-88
28
-70
-26
-65
31
20
-85
69
26
70
26
96
-13
-57
-97
45
12
-25
-25
39
102
34
98
97
-82
-41
-7
-8
-47
-36
-21
-98
68
15
27
-39
-89
2
127
-62
-9
35
-21
65
86
59
45
-83
30
44
-19
55
36
52
-11
5
27
-28
25
-60
-44
-11
28
127
-15
56
38
-53
-68
-41
18
48
-25
-85
-22
23
72
33
56
39
8
41
31
44
-65
-4
-42
-114
-115
-53
6
-23
14
-11
-98
-72
91
120
-46
-19
64
35
108
75
-37
9
24
43
-42
-43
4
-100
-128
-72
-45
-86
6
18
95
-101
122
89
5
18
-15
-10
-128
48
-128
-99
-7
-58
-41
-9
50
-105
-24
15
36
-78
-69
-14
-100
127
85
127
-15
54
32
55
-21
-62
-18
-92
17
30
56
-48
0
-52
-18
1
-15
36
35
10
39
87
32
43
-10
-10
-5
50
119
-110
-43
-114
11
9
-75
-48
-46
-98
69
77
-3
-63
-98
11
70
117
-30
23
-30
127
127
79
-82
-128
44
-14
0
-103
-86
-15
-22
119
51
49
50
6
-35
-21
-33
-61
-76
-64
14
-43
-84
-41
10
-98
44
-16
29
-3
4
30
59
-128
73
2
0
90
66
22
25
67
-58
9
-66
-81
12
-41
-31
-47
-71
38
-9
-55
-32
-4
-69
33
46
50
31
3
6
14
10
51
-26
21
-25
-18
12
-21
-6
-64
-60
-66
38
21
30
14
109
-8
11
1
-27
-50
-100
-29
-55
-82
22
77
14
2
32
1
-6
56
-72
-64
5
71
25
-1
9
-87
89
7
-3
-29
-29
17
33
-42
-115
-91
-42
-4
-11
65
14
-128
77
46
18
121
85
-43
-126
98
29
88
2
-12
-64
-20
43
11
-104
-27
-7
36
36
-27
-62
-83
-55
5
21
-74
-94
-68
-107
-81
-56
-34
-69
71
36
30
55
-117
83
68
-2
-53
28
38
95
80
-128
-95
-12
-125
-102
-27
0
-33
127
27
-3
6
68
-4
49
62
-124
-93
27
-41
-128
-19
-20
-18
62
39
12
65
44
-1
56
31
40
-35
-5
29
40
0
-63
14
-19
12
3
26
54
-4
45
-48
21
-42
57
-23
-37
-44
-59
1
-2
35
-30
-63
-38
14
-12
-116
-32
74
-30
-53
-27
-4
-8
11
-20
3
25
28
-47
-54
-53
-79
-45
-47
-58
-78
54
24
95
-74
-95
-109
-11
7
3
30
-128
16
127
14
44
109
19
-12
-29
127
-11
1
-13
-78
41
36
47
24
-93
-65
-24
28
-75
-43
-47
-113
45
5
-14
-58
-40
-37
-74
22
52
120
26
14
-56
-18
127
60
89
-12
-30
126
77
22
46
127
-72
7
34
-74
-75
-19
-28
-115
-13
-12
23
-73
-39
23
127
-128
20
43
-15
123
109
-51
-123
115
-34
20
58
-6
-51
-2
32
-17
124
23
-40
-16
34
48
127
-39
-106
-31
-28
-71
-42
-7
-92
-128
-107
-38
-12
-101
-83
-71
-65
-128
127
47
19
10
29
1
94
108
-77
43
21
15
30
-12
-5
-66
-68
-13
-4
-52
-105
72
-81
-76
45
8
-9
85
112
53
56
85
-126
-99
23
-84
-51
-54
-35
-128
19
-9
29
42
-37
-15
-18
-30
29
69
-37
124
107
-27
-59
81
1
4
46
10
-63
-9
6
-25
29
8
-22
127
31
53
76
-53
-32
-18
-4
4
-2
-16
72
-47
-35
-128
-21
-24
2
-23
34
66
-7
30
-57
-6
9
22
80
-17
-27
-35
-6
29
4
-25
-123
-46
17
56
21
-72
-35
50
-36
-128
61
88
48
38
-14
-22
84
63
48
-69
-17
80
68
-14
30
118
7
10
-3
-114
-53
-8
20
-73
-14
-53
-40
58
49
58
-75
51
47
38
53
38
-9
-23
37
41
-59
-20
27
-128
-62
32
-77
-128
-17
61
-22
-4
32
11
67
114
89
23
40
55
21
-28
-100
117
-84
-91
5
-94
-82
-44
62
-69
46
74
-48
-35
-98
-64
-70
-88
-95
-42
0
-20
11
6
-79
-5
96
-19
51
39
18
20
127
106
-51
38
-82
-65
-28
-42
-94
-82
-80
-52
35
45
-21
12
127
-99
65
39
-9
15
47
54
-40
-128
-68
-15
-17
-36
-7
-4
72
127
19
87
41
-6
-48
-23
-2
0
-54
-110
-63
-62
-39
23
5
-114
32
81
-25
127
105
38
73
66
50
40
70
41
-75
-38
80
60
-62
16
19
127
127
94
96
-75
119
48
-17
23
27
-51
67
0
-16
47
-30
-68
-105
-97
-42
-111
-78
1
-11
-102
0
73
-108
-57
73
9
-1
-14
19
53
-14
-41
-80
-25
13
-25
7
-5
13
127
-26
-32
9
-37
-67
-39
-124
-72
-60
33
2
90
17
-49
64
39
56
-28
5
-47
-58
-53
-86
-17
-56
34
44
-46
-37
17
-24
-79
70
-76
-68
70
106
55
98
101
-113
-18
-65
-128
-89
-12
7
-128
-41
-32
28
-73
-56
-42
-64
-31
38
74
67
99
95
37
77
61
-31
-63
-11
-84
-60
9
20
-44
30
-7
-12
7
-49
-69
-25
40
-118
-35
-57
-78
43
0
-65
-21
94
-22
88
58
77
89
57
93
-89
-22
-45
48
15
11
47
-40
111
97
9
11
29
-48
-35
-102
-77
-54
-34
-1
-42
23
-16
-122
-52
-101
-29
-79
-57
-21
-10
-90
-19
0
42
58
15
26
-83
-61
38
15
-29
-15
-12
-27
102
18
13
4
35
25
32
-4
68
-55
-84
-19
-19
15
-9
20
62
-95
-71
-9
0
-68
-98
-50
-40
34
18
43
5
77
68
62
39
-17
-2
116
-18
15
4
-58
10
-13
-98
2
-2
-62
-20
83
66
-68
-25
-7
-28
-94
-113
21
-46
-128
-9
21
31
75
73
-10
-111
101
78
-80
-37
32
49
12
9
19
-53
-41
-17
44
-39
-24
-128
-128
57
41
25
-57
-2
-112
46
127
-22
11
-11
-47
-28
74
29
-128
34
48
41
-21
-31
-30
-1
-46
-119
-62
-91
-109
-116
-116
-128
-118
127
126
116
127
123
127
127
109
-128
-75
8
-80
-86
-42
21
-114
-47
6
-35
-20
-78
-21
32
-117
39
96
-1
-54
10
-16
-70
-24
16
-75
-32
72
58
-15
13
94
-46
48
5
0
6
4
-64
-128
-20
-89
18
-49
-95
50
127
-69
90
126
25
41
73
30
53
116
-3
-19
-36
75
16
-14
67
-113
-93
-26
21
-38
-60
84
-18
-101
-74
-117
7
-64
11
56
13
-93
12
14
-14
89
38
37
-9
-4
-86
9
-1
-31
15
-71
-109
-117
112
-15
-7
-74
-60
-120
35
101
-29
30
-60
-38
-36
-25
-47
-70
-48
-30
30
98
42
42
127
-65
82
121
28
-49
19
36
-89
45
-14
25
12
48
46
-17
21
-85
94
-83
7
-18
-50
-14
-89
127
-2
-20
-25
35
46
-27
-7
-100
-77
-126
-25
-87
-106
22
44
-95
89
73
-2
-76
18
11
92
102
-29
-33
15
13
31
1
-35
-46
-54
-98
-33
-97
-94
-67
-110
-69
-74
44
37
-18
17
-2
-35
-50
-54
-32
-115
-78
-73
4
-96
-95
106
43
83
127
127
-4
127
127
32
55
62
-20
-37
41
99
-102
-66
-87
-60
-76
-96
-6
-64
-117
-128
45
33
-28
-41
-104
-90
-78
-11
-41
8
83
59
106
91
38
26
50
-44
-33
-56
-92
-47
-27
127
22
36
-19
-20
32
-18
-51
80
-31
50
109
85
113
85
36
-128
-104
-34
-101
-83
-12
42
-128
17
-72
3
-75
10
-40
3
127
25
44
6
99
60
33
-7
17
-121
-40
15
-2
-49
-8
-57
-128
95
58
17
15
0
91
53
-64
48
64
-45
-34
-14
-13
86
80
-75
-82
-9
-18
34
1
127
-128
26
5
-51
-115
-41
-23
41
90
-46
79
82
82
89
-81
14
88
-8
15
28
-107
-128
92
-20
-78
7
-29
41
64
26
-9
-20
-7
44
11
-45
-3
13
-29
57
-29
-128
-119
-46
-9
-21
-5
-128
-19
-7
-14
53
21
-66
-34
-2
76
-63
17
14
11
28
1
87
-51
-35
-128
3
60
14
-12
-46
-41
-63
51
-57
-58
-57
-75
-77
-96
40
50
29
56
118
71
64
127
-24
-1
-29
-47
-84
20
127
-73
-43
-121
-29
-60
-120
-33
13
-82
118
127
60
115
111
-9
127
127
96
49
31
-29
19
107
43
-128
-22
32
-15
-108
-55
10
-83
-115
-8
-22
93
14
5
12
-16
-67
-117
-48
-51
-22
-32
69
10
-128
71
-5
58
100
96
66
36
69
65
127
42
39
12
-62
93
-59
-58
-39
-42
-73
-32
-32
42
-91
-4
-24
-7
-110
-128
-83
-82
-128
-51
5
-64
-99
-31
-109
-128
-83
67
51
-65
4
-30
50
102
127
81
75
-45
61
60
-1
-61
-66
-20
-13
-38
-9
-99
-121
-70
-16
40
25
24
4
-10
67
109
48
30
20
9
36
89
46
39
42
-73
-15
38
-36
-58
-25
15
-56
-20
-20
-64
102
113
72
-16
-82
-128
-128
-13
-20
-45
82
-107
-128
72
14
21
26
-53
-128
-94
92
97
45
3
45
105
127
75
115
-22
-83
25
-38
66
-4
51
-79
-9
12
-20
1
-21
-24
23
-3
-56
-43
5
-29
-31
26
10
-35
-60
-26
4
1
-25
-82
-104
-9
12
37
40
15
9
43
20
23
-8
-7
-61
-4
-1
-56
127
-44
34
29
24
-25
-63
-23
-68
53
-3
-21
-14
58
51
2
-20
-20
24
64
-10
-77
-41
5
26
20
-51
29
-10
-37
-18
-36
17
-95
-47
-52
-10
1
46
19
-56
-59
39
17
2
-82
-74
0
46
54
12
-12
-9
113
34
19
-3
28
-14
10
33
30
26
-39
-23
30
-1
12
27
-8
-11
-28
-28
-7
-19
2
-40
-31
-7
11
26
6
1
21
17
-51
-39
-13
24
-22
14
-2
-17
5
30
-3
-9
36
16
-11
48
-2
7
35
36
94
-7
14
2
30
2
42
24
-50
-10
15
-13
-31
-5
-2
-6
24
3
-15
-25
28
21
10
71
-43
-32
-38
7
5
-8
-35
-25
17
-10
-14
-11
-4
-1
6
10
-13
21
20
-4
-2
7
4
-7
45
-9
5
13
-19
-1
-22
-58
-29
-41
-20
-31
-16
-23
-4
-10
-64
18
14
2
24
19
-5
-8
25
17
-4
10
-9
-7
-11
-8
9
-11
-12
7
2
-11
-15
-34
7
-18
-9
-24
-41
-18
4
26
-33
-1
4
20
57
13
-17
48
19
27
22
-2
19
-25
21
-21
-8
-15
-28
-42
27
79
13
-2
26
1
1
-10
1
7
20
-4
1
-6
14
29
-3
-10
-17
-1
-21
5
11
4
-9
-19
-26
-63
-3
5
-12
1
-13
-30
-24
-2
15
-5
-6
4
2
6
26
-76
-22
4
12
-10
-7
1
22
19
4
0
8
-5
-23
-3
1
28
-3
-5
-10
-3
-3
-12
-23
-8
22
-13
3
-11
0
7
-2
-16
-36
5
-7
-6
-14
-13
-17
-16
0
14
5
-31
-11
9
2
-25
20
-2
-11
6
7
0
9
9
-5
-13
0
50
9
-7
-9
22
-13
-6
-5
8
27
9
-7
-26
2
4
-14
-7
0
5
-7
28
-5
0
11
4
-24
-16
-21
-71
-6
-3
-11
-20
-8
-10
-4
10
-9
-10
-2
16
5
7
18
53
7
7
1
11
3
7
5
-27
-1
19
-4
-8
-30
-21
-13
0
9
-35
-5
10
33
-2
-12
2
-11
-2
6
6
15
7
7
11
-5
-4
-9
-7
-37
-5
-5
15
0
2
2
-4
-20
-1
26
15
15
-3
-18
13
-6
1
-10
20
-11
-4
-4
-56
-22
-3
-11
-29
1
1
-7
56
23
6
5
37
3
20
9
34
47
5
2
-8
0
-11
6
-47
-26
-11
-6
-10
-9
-2
1
61
12
-3
-11
-9
-6
0
-3
-38
-22
-9
-4
-9
4
-2
-5
13
2
-1
-9
7
-2
-8
-5
-46
45
9
1
16
-4
-21
-1
-25
-45
-2
3
-34
-4
29
11
-5
-60
-12
13
7
23
-27
-22
-58
24
-10
-17
-5
-10
-13
-4
-25
-5
-4
-21
-63
-7
28
2
-38
-18
6
16
24
6
-25
-2
-17
4
6
-5
-18
-16
-11
21
30
-4
-5
10
-3
-4
1
-11
54
18
9
13
14
14
6
8
-51
-13
-4
-19
-20
-13
-1
-15
14
14
-5
4
19
7
11
7
69
1
2
-10
-13
-5
18
7
-98
-50
-7
-8
29
-7
-1
8
127
54
1
9
-4
6
-1
3
-49
-11
-5
-9
12
0
4
-18
-25
-6
5
0
-10
4
-3
5
28
15
4
25
12
12
8
-18
-17
11
-3
0
5
-11
2
12
47
2
12
0
-12
0
-32
-6
6
-13
-2
-8
-2
-6
17
-3
-8
-4
-4
1
-1
-10
4
-6
-31
3
-2
4
-10
1
-1
1
26
17
-1
2
2
-2
7
9
24
11
4
3
3
0
11
5
-25
-18
1
0
47
7
-26
-7
33
4
-9
-9
-44
-7
9
-4
-29
-12
1
5
13
1
-1
-1
14
30
0
-5
-4
-6
1
12
44
37
-3
-20
-28
3
1
-7
5
-18
9
16
5
6
6
2
-47
7
2
9
8
2
21
9
-22
-14
-7
3
8
8
-4
0
8
-11
-5
-2
63
-13
-7
6
43
24
7
-5
-82
-5
5
3
25
23
5
-6
-10
-6
1
2
-22
-31
-6
1
19
5
-13
-26
-4
12
-3
-5
-48
-13
1
0
-28
-27
-9
6
60
18
-3
-8
1
7
5
-2
-7
-3
2
1
-7
-19
-2
7
5
4
3
1
33
-33
7
-2
-7
-3
-2
-1
-23
64
-4
-11
7
-2
-15
-9
26
4
-10
-6
-13
-2
-7
-3
-1
-19
-8
1
-1
-8
8
7
-15
-16
4
8
4
13
3
-3
-25
-25
1
-4
-14
-4
-4
3
30
36
-2
-5
8
-2
-6
5
-15
14
5
-8
-12
-7
2
-5
3
-6
-6
-8
-29
-4
5
12
-6
10
6
4
-4
5
0
4
-11
-33
-12
-4
25
2
-5
-9
-2
0
5
21
15
5
0
4
-1
-4
0
4
-1
2
-5
0
-5
2
0
-10
3
-4
3
0
28
-14
-3
-3
-14
-3
-3
-1
-28
14
-3
-2
-1
-3
5
6
-9
1
-1
6
13
9
-9
-6
11
1
0
-4
13
-10
-1
8
-7
-1
4
1
-1
-2
1
-4
15
-1
-1
-3
-5
-1
-3
3
0
-1
-2
-2
2
-3
1
2
-7
-37
-7
-2
-10
0
1
2
14
14
4
-1
-10
-1
3
7
-41
-16
1
1
3
-5
-1
-6
22
22
0
2
13
10
-6
-18
-13
-36
-5
-5
-8
0
-3
-7
-2
0
0
0
4
-1
-4
-5
-2
1
-9
-18
-38
-9
2
1
0
7
3
14
5
-3
0
-3
1
-6
2
-2
-3
-3
-3
-2
-16
5
-3
-10
-9
-2
4
-5
6
5
5
5
10
7
2
5
23
-20
-2
5
20
-1
0
5
-13
27
-2
-2
-14
2
5
-6
-30
-21
-3
0
12
-3
-3
-2
2
11
-1
-3
-1
0
1
0
-2
-12
-1
-5
-12
-2
1
2
11
23
2
-1
7
-2
1
0
-1
3
-2
-8
-14
-3
-1
-4
1
-22
-8
3
8
5
-6
-2
-21
6
1
5
-3
-3
-5
-5
-7
-17
-4
-3
1
-2
-3
-4
-7
7
4
-2
-11
-2
2
7
27
15
3
-3
-9
-4
-2
-4
-5
-10
-5
-6
9
1
-3
-3
-5
-6
-7
1
24
-2
-1
1
12
4
7
5
-5
9
0
3
5
-1
-2
0
-5
0
1
-2
-1
2
-1
1
11
-3
-1
3
4
-9
-5
-5
-17
-3
0
0
7
8
5
6
30
1
-2
-5
-14
-5
-5
-3
-2
-1
-1
6
8
13
2
-2
-15
-1
-3
-8
-13
-13
1
-7
-15
-7
6
-6
1
-6
-4
1
0
10
3
0
25
7
-1
-1
3
0
0
-4
-4
-5
-8
-1
-8
-5
-2
3
-4
-1
1
-1
6
-1
0
3
11
17
4
0
-3
-3
2
1
-4
-43
3
-3
4
2
-3
-5
21
46
-4
-4
-15
-4
-6
-8
1
-16
-5
0
-5
1
-1
-2
-3
0
-3
2
-1
-3
-3
0
-29
-4
-2
1
2
-3
2
-9
-2
-16
-1
-2
1
-2
1
8
6
-1
0
-4
1
1
-1
2
-11
-8
-2
0
2
-2
1
1
9
9
0
1
1
2
3
8
-7
-11
0
-1
1
2
3
1
8
11
1
0
-1
-1
-4
-2
-20
-5
-5
-4
-10
-5
-5
-7
10
2
-6
-4
-4
-3
-3
-1
-4
3
0
1
-3
-1
1
-2
-2
-7
-3
-2
3
2
1
8
-1
-11
-2
-4
-7
-3
-1
-4
-2
5
0
-3
-8
-1
0
-6
-7
-3
5
3
13
1
-1
3
4
10
5
1
-3
-3
-3
-8
-3
4
0
0
-1
-2
1
7
-4
-4
-11
-3
1
-1
0
0
-1
-7
-2
-5
-3
0
0
-2
-15
-17
0
2
-12
0
0
-1
5
6
-2
0
-1
-3
-3
-6
-2
8
2
-6
-5
-4
-7
-1
0
-18
-17
-9
-8
-3
-1
-4
-5
-26
3
5
17
4
4
4
-2
4
12
6
-4
7
-1
-1
10
2
-3
0
-1
-4
0
8
4
2
3
-3
-2
-2
0
0
-9
-1
-21
-8
-7
-8
2
-15
6
-11
-23
-2
11
-6
-13
-10
-32
-3
39
7
1
-2
3
5
15
8
5
7
-7
18
11
5
15
31
5
-2
-1
1
-19
0
-22
-13
-6
0
-3
-7
7
-18
11
9
-15
-10
10
-5
1
-3
-16
-25
-13
-11
-13
-7
-3
-10
-28
-28
12
10
2
2
5
20
42
48
-4
-17
-45
-13
-2
12
19
8
-6
-1
-19
9
-3
1
-16
2
10
20
39
1
3
9
29
-7
-5
-2
-21
1
0
14
-19
1
2
-11
7
-8
-6
-19
-43
-7
-3
-10
-18
-1
-2
9
5
-5
-6
0
21
-6
-11
-6
2
1
-22
-7
-14
-8
2
-27
-18
30
33
15
23
52
7
23
34
-22
23
4
-3
8
-2
-3
-16
13
-11
-6
-12
-2
-10
-6
30
13
6
4
24
-16
-3
-7
4
-14
-25
-25
-16
-31
41
-13
-37
-4
-1
16
17
32
-33
-3
-37
-26
-8
-16
-74
-30
24
45
3
-18
7
18
51
8
-23
-47
15
7
-11
7
10
1
-5
6
23
28
2
4
47
-3
-9
-19
-4
4
3
-7
-35
-14
-25
-10
-8
0
-9
-17
-15
-13
30
38
19
-21
16
14
0
14
-1
13
-35
-4
-2
-1
-2
-6
25
-7
47
28
11
8
24
15
-25
-32
3
-13
-17
-13
-11
-5
-21
-2
-29
-38
-11
6
-2
-24
7
5
50
-10
7
-5
15
-30
67
48
-23
4
2
-7
-34
60
-10
34
-25
17
32
5
4
37
-48
-96
-6
-15
-33
-13
-50
-58
-5
-48
6
0
-22
-7
-15
-16
59
15
-3
6
-1
9
48
37
14
6
5
-23
-12
-11
-30
-27
24
-10
-10
-9
15
20
21
40
-70
-23
-18
-2
-38
-1
-5
-38
17
9
16
35
31
1
-4
-32
56
56
0
-11
37
14
7
65
-51
-50
-10
8
-25
-11
37
-24
-29
21
-3
1
9
-4
-5
12
-6
12
1
42
-44
-1
-27
-15
-1
-96
-25
-56
22
0
-3
-45
42
119
1
5
-8
10
31
27
19
-19
19
0
26
-8
-15
61
-73
57
-1
-4
6
0
-4
-50
19
-34
18
48
-69
-11
45
22
24
-61
-16
-81
19
-5
-61
44
-18
71
-5
-35
-29
-16
-43
-83
-17
-40
7
30
55
33
103
39
32
55
-11
25
-8
4
-89
27
32
37
50
31
-10
-19
46
17
15
55
-8
13
34
19
3
25
-23
2
0
-82
-38
-8
-38
-52
-49
10
6
80
48
24
48
-46
53
-17
-8
26
1
11
-2
8
17
13
18
1
-17
2
46
65
25
-18
13
-5
14
0
39
24
-50
-5
-26
-23
30
-18
-35
21
2
47
5
-3
-7
-31
-48
-43
-42
-50
-5
45
-20
11
56
-103
-1
-32
-16
-84
-21
24
-59
45
43
-12
34
-53
-47
-39
-22
80
-18
10
-16
106
109
5
29
6
16
-25
13
-38
-35
1
14
-45
-8
29
5
-58
-97
-42
112
-103
-52
-44
-36
85
107
73
-69
-51
57
44
38
20
-58
-25
33
106
-92
-100
-35
-58
-34
1
65
-85
-7
1
19
40
1
-11
-113
-73
-47
-53
-8
-99
-81
-32
-27
13
-5
59
17
-91
-112
29
92
-127
-3
-15
-32
98
109
-2
-93
127
-48
13
21
-18
-9
0
14
-97
-5
63
8
26
-5
11
74
-114
-6
23
14
-28
-23
13
-33
-65
-44
-94
-35
-58
-72
-56
-15
-128
-36
-15
-8
-26
27
27
-83
97
82
127
31
94
78
11
26
59
-101
-51
-15
10
7
-13
-19
-78
83
28
-6
10
-8
57
97
21
18
34
26
-68
-80
-103
85
37
42
-24
-29
-102
-97
-12
-95
-128
8
-49
7
93
111
75
65
93
-46
38
5
-23
-44
11
67
-98
-16
-34
-10
17
-21
-5
22
-96
-49
-31
20
-80
-58
-113
-64
23
-23
10
-45
-29
-38
69
92
25
38
34
-6
3
49
45
-128
-23
29
-19
34
98
44
-20
122
77
-100
-15
-6
-89
-98
-41
-59
-78
82
58
-11
94
108
-18
-16
20
-98
-15
13
-49
-66
-61
-21
-54
91
53
-19
34
-17
-3
-61
32
-20
-19
3
102
25
105
127
38
-30
-39
-17
-94
-53
-49
-83
18
62
-1
-24
-64
6
10
64
83
-77
8
-22
88
36
10
-117
-128
72
0
66
-35
-51
-5
127
112
-25
17
-64
-8
-47
-5
-95
-46
46
-23
48
96
70
1
77
105
-32
25
-23
-75
-38
7
-18
-48
-56
-49
-33
25
11
-30
-59
78
-27
57
23
-128
-80
-67
-102
-94
4
20
-6
-103
-25
-15
15
27
23
14
6
73
60
97
116
-98
-113
-85
-44
17
-52
-42
-49
-128
99
74
22
-85
94
44
86
92
70
66
18
-17
-44
-52
-69
-94
-75
-92
3
60
37
120
123
-48
-25
94
-37
-106
-24
-98
-94
-24
39
-28
-4
44
-26
19
-46
-14
-56
-15
0
62
-2
42
-32
-74
54
12
-39
-1
-17
-128
-41
127
-28
-31
10
20
23
127
5
-87
-128
-72
-6
62
-2
-65
68
-95
-68
-47
-10
-128
-128
76
21
-59
61
68
73
74
95
34
41
61
-32
-97
-48
21
4
-35
51
-62
-85
-72
-37
-54
-23
-65
-60
-81
76
25
41
9
49
8
102
65
-72
-66
-40
-106
-90
-55
-79
-91
95
104
45
33
29
43
13
105
36
-10
10
22
14
-28
-7
-128
-79
-31
-29
72
34
13
20
78
38
29
-34
-128
-40
41
20
-32
127
23
37
95
80
-80
-5
125
-9
54
36
-50
-107
108
-52
-92
-49
-18
-43
65
104
16
-88
7
32
9
6
-49
-22
30
-70
105
-55
-80
85
26
-51
22
-4
-128
14
97
-39
-24
22
-66
74
127
-56
48
8
-62
-102
-82
-116
-119
32
-2
-48
53
84
24
100
99
-59
-21
45
-48
-54
19
89
-66
11
-99
-51
-39
-12
-58
-118
93
85
87
59
42
31
11
105
100
-128
-50
-20
-1
-5
-28
-70
-128
-8
26
-21
-45
-4
46
65
-45
-41
-104
42
47
34
64
69
68
36
77
9
33
2
-28
4
26
26
-43
27
-77
-74
-93
-50
-46
11
-24
-10
54
39
61
51
-50
-52
-42
-32
-77
-55
-13
11
-128
34
10
-45
43
50
18
-13
13
-21
-32
42
38
-85
-2
-100
62
23
7
30
-39
-30
-1
43
-26
-113
-15
-71
24
-17
-75
-76
-128
96
1
46
-83
-15
72
-23
127
25
-4
3
30
-22
-32
127
-95
-49
-22
-34
-21
78
102
-58
36
115
39
21
60
1
-6
39
127
-128
-128
2
-31
-55
-68
-39
-128
100
8
13
54
100
100
-12
127
59
78
-34
23
-4
-33
57
108
-72
-41
55
-35
0
26
16
-80
-35
-25
-2
96
-24
-67
18
-112
-124
-54
-17
-113
-29
-67
-76
-117
41
31
-3
16
96
9
-16
83
20
-3
12
74
50
39
52
122
-12
-25
-54
-94
-85
-100
-33
-76
-15
16
7
53
82
101
28
14
-22
-62
-66
-39
-40
-31
-58
-128
76
71
46
-2
-12
30
61
12
67
39
24
-29
16
-2
16
127
-10
-15
22
48
-1
5
86
-87
14
14
27
33
-79
-89
-30
-87
-27
-69
-27
24
55
91
37
24
29
-44
-12
-44
-73
-8
-11
114
32
-29
-40
-67
38
12
-92
-23
55
97
22
51
56
5
96
88
-25
30
42
-29
-23
0
-24
-128
-97
-52
-2
-64
-43
-44
36
-87
85
10
-40
62
40
31
-4
104
-50
-11
-43
-128
-73
-66
-27
-99
-54
24
19
-74
-26
37
-15
-70
13
1
-25
32
63
56
22
35
-106
-42
90
-15
-51
-46
116
-128
6
62
-61
-37
-15
-63
-128
86
12
82
60
127
31
-16
55
-46
25
29
-5
63
-10
13
78
6
78
-75
-53
-64
-20
0
23
99
-35
-61
-24
22
88
127
74
56
-87
-19
-2
-37
-61
-62
3
-128
65
31
-1
117
108
61
34
95
-77
79
35
48
-10
-54
-49
-106
20
-27
27
-65
-84
-19
-23
89
-16
-64
-98
-25
15
47
92
14
-10
-33
28
1
-70
-44
-87
-128
-79
45
-33
14
64
41
37
9
-9
-92
32
-23
6
20
117
9
-56
-31
-24
-57
-42
-57
-24
21
19
-25
-65
-31
-61
5
-71
-45
61
-29
-95
-4
-21
10
19
-53
-128
72
-19
87
11
57
74
-128
69
-77
89
34
4
-99
-128
41
85
127
0
25
4
40
94
43
-128
-90
-88
-117
-120
-39
-128
-78
127
63
89
122
117
55
92
116
-12
64
-35
-20
-45
-29
-53
-59
-108
-30
39
-50
-46
-45
-109
-128
-72
0
-54
-60
-69
33
40
-97
81
19
-9
-50
29
-50
30
78
1
-79
62
101
82
127
-45
38
-11
55
37
-5
17
-48
-9
-105
-22
62
65
12
-83
-60
64
-70
-118
-64
-28
-10
-21
-46
-120
-128
78
65
-28
47
46
18
92
124
-12
-32
-85
-81
-17
-19
-62
85
31
55
110
-29
-52
-23
51
45
65
-22
-69
-40
-94
13
12
30
-2
43
15
-14
-45
-43
35
-119
8
45
61
64
81
60
64
127
38
-38
39
-26
-52
-48
98
-84
-14
11
28
-41
36
-10
-128
2
19
107
-23
-16
24
4
68
-13
-109
-93
-35
-108
-119
5
23
-128
127
90
98
127
127
116
99
127
-59
-6
9
-103
-128
-26
88
-128
-41
-113
-48
-28
-3
13
-112
-77
-78
-48
49
-82
-30
-16
2
-128
-57
84
-30
-10
-38
-60
-103
-60
62
5
-24
-12
32
77
87
96
33
20
9
-33
-75
-47
-68
-60
-9
20
4
7
84
15
16
69
-12
-117
10
-48
-16
-19
-75
-5
71
72
21
2
-69
-13
59
-124
-96
-83
-59
-84
10
-87
-65
75
105
46
56
61
37
83
65
-11
-88
-16
-1
8
-25
-5
90
87
-28
-57
50
-21
-22
6
-96
97
-26
40
2
-28
-65
0
75
-116
-46
2
-79
-47
-54
-45
-112
-68
67
38
36
84
120
30
-51
106
-120
-107
-76
10
-18
-25
23
-125
-47
-21
-18
-43
-9
50
5
-31
0
-79
-10
-79
-77
-60
-20
-5
95
107
60
54
44
81
47
49
-49
-35
-16
-15
-57
-24
-75
-94
12
-11
-11
-51
-29
-1
30
-56
-81
-12
-8
29
-54
21
126
-112
-64
-113
-61
-120
-109
-68
-128
-14
34
62
-26
-1
107
-27
-102
127
125
24
86
14
-27
-9
42
111
15
24
34
6
11
87
39
-51
-55
-49
-27
-13
-31
-1
46
-128
-40
-3
16
5
-36
-11
102
-112
-50
24
39
16
11
-23
-95
62
99
100
25
81
55
-32
-43
127
-43
-102
-66
-34
-9
-22
34
-88
-13
15
-7
-16
-63
-16
-8
-119
17
7
74
47
-54
14
12
90
74
32
-72
82
126
77
61
-6
-94
-45
33
-6
-41
-27
-24
-75
-40
-16
-63
-87
-124
-67
-56
-45
116
-35
12
110
93
103
70
48
-16
43
-5
5
-11
-37
-19
92
28
119
26
-55
-32
-35
-100
-44
-97
-60
2
-49
-44
-9
-14
-110
69
88
22
47
72
41
127
62
-68
-33
-19
-63
-29
-9
57
-118
25
-27
53
-33
17
11
-11
-71
-26
-54
-85
-19
-17
-26
-30
-21
-77
-13
-35
-36
-31
53
51
-128
19
-30
-12
-74
-13
-43
-55
51
127
73
4
75
21
-31
127
122
-45
28
35
12
27
23
-30
-89
-22
-11
-52
-27
-20
-7
-41
-107
-74
-45
7
-89
-102
-7
17
-128
26
-26
-64
27
63
67
-16
65
69
30
53
-38
-8
-32
9
127
-39
-36
3
-98
-88
-17
-13
-24
-35
-16
-21
-8
-37
-10
-14
-37
-69
-15
-81
-114
-75
-22
-68
-113
84
37
83
64
102
50
95
121
5
16
-34
-16
-17
-87
-70
39
-61
-8
94
19
-77
38
75
-88
-60
-43
-96
67
85
53
-23
102
98
17
18
50
-70
9
-36
26
16
-42
-60
54
6
-27
29
60
-40
-22
59
67
48
-11
-11
127
86
96
2
-48
-53
-49
31
-13
-38
4
16
7
29
102
34
-103
-32
0
-5
-42
-23
32
63
-101
61
-27
28
80
29
-17
-82
65
-20
-4
44
-46
-33
-24
75
-56
-35
-21
-13
47
94
-7
-118
75
58
99
-19
14
10
8
75
116
-30
-39
19
40
37
-21
-99
-101
-55
-20
29
-84
-68
16
-12
-85
82
74
63
-11
-44
-27
-60
-35
-66
-54
-79
37
60
-8
-52
-79
24
65
-11
-21
15
0
93
83
3
-20
15
15
11
-24
-105
-11
-38
-2
-7
-20
-64
3
21
-56
5
-35
-11
17
22
4
19
18
26
0
7
12
12
3
-16
-3
-14
-36
16
-3
-30
7
72
-36
-22
-15
-29
0
23
-3
54
-30
21
-26
-24
-123
-83
-25
-78
48
37
50
6
32
58
16
21
103
9
-26
-4
29
12
-3
-77
-21
-46
-27
-11
40
-30
2
61
-86
-35
-22
29
-46
-42
-24
-97
5
84
68
-29
51
79
66
33
59
-5
13
-8
-4
1
-14
11
1
-3
-28
-46
-1
11
-28
-32
-4
-30
-8
44
-17
-29
-19
-21
-94
-17
-28
-41
-42
-30
4
44
-40
17
17
46
18
9
5
-22
54
-10
10
-40
17
18
-1
35
24
-4
24
9
-1
11
2
11
-18
-4
-35
20
-2
-35
-10
-33
-15
9
29
-41
24
15
9
32
1
-11
-30
24
-16
4
-13
-16
16
0
6
1
-11
-2
-27
-29
-10
8
-4
-14
-26
-15
24
5
-18
0
-7
16
34
-3
6
41
7
-3
2
5
-6
16
-8
-5
27
30
4
38
24
6
20
14
-1
-43
-20
-54
-35
-13
-5
-17
-33
-6
0
-4
-7
-1
5
-11
12
-3
-7
-5
-6
4
6
45
19
-1
18
26
10
2
-8
22
-9
-2
-11
-4
-18
-10
2
-7
-27
-4
-5
30
4
-5
1
-11
6
13
15
-1
8
9
-8
-2
15
-5
-9
-15
0
1
7
-14
-17
-7
-1
-11
-40
-16
-23
6
12
-6
-8
-17
-15
-14
-5
-19
-11
-2
-1
30
38
9
3
-7
1
-4
-2
9
-70
-29
0
21
-11
-3
-2
-17
48
32
-3
-30
-11
27
10
26
24
14
7
23
19
10
-4
6
-37
-29
-17
-42
-1
-25
-7
-45
-15
-1
15
11
13
-21
-6
49
-19
-16
-18
-11
-14
-3
2
-46
-18
-12
-30
-17
-3
8
-4
6
38
19
34
-24
13
-4
2
-6
34
14
28
35
10
4
6
73
-47
-12
-3
25
-11
-2
3
-97
7
10
-3
-24
1
-2
-7
16
-8
-8
1
12
8
19
7
45
35
6
-1
-22
2
-17
-7
-32
-34
-14
-4
-2
-17
5
3
3
-17
-6
-4
-13
-4
-2
3
1
2
0
0
33
7
10
0
-12
-20
12
2
7
6
-2
-6
12
16
-8
-5
-18
-7
14
-1
22
39
5
5
-23
1
-9
1
-17
2
2
-2
-7
2
-6
-4
-13
-7
3
-1
32
-5
3
-8
-22
-25
-5
-15
-25
-14
5
-4
22
-32
0
17
26
13
-22
-6
0
-18
-4
-13
-75
-10
-7
-8
82
42
-9
-3
16
1
6
4
-84
11
-1
10
-20
6
-17
-14
16
7
-1
7
14
-3
46
-4
-40
-34
-4
-17
27
16
-26
1
-15
-7
2
-21
-61
-28
-5
-11
2
-31
-14
-3
12
-13
-17
1
23
10
-7
0
18
-3
-4
3
2
-18
6
5
10
6
5
13
0
40
9
0
7
-4
13
-3
-6
37
7
-2
10
7
5
4
39
-27
-2
-2
-1
-9
-10
2
-48
2
2
1
14
9
4
-7
13
-27
-6
-4
-3
-6
-12
-3
-8
26
0
-7
-7
-6
2
2
-16
10
1
-4
3
-1
-3
-3
6
-9
-1
-3
10
-4
1
-3
-6
24
7
-1
-20
-1
7
-1
-37
-45
-8
8
-8
5
-8
-1
20
16
4
10
36
4
1
2
8
-24
-2
8
-11
-9
-2
-2
-36
5
-9
-13
-7
-1
-4
-1
5
-31
-5
-14
3
-6
0
5
39
83
8
0
-1
-2
-6
2
15
2
-6
-11
-1
-7
8
2
-18
1
7
9
16
4
7
10
22
15
1
-2
-9
1
-9
-11
-81
-72
-9
-3
-8
-2
5
9
17
24
-1
4
16
3
1
3
27
-16
-8
-6
-20
-2
-1
-10
-21
10
2
0
29
2
1
12
16
-14
5
-2
-44
-7
0
4
9
33
-3
-8
-18
-6
-7
-3
-2
14
1
8
36
-3
0
-1
-9
-11
-5
-2
-33
4
2
-3
-12
5
2
20
28
5
2
-4
-12
-20
0
0
14
-1
-6
3
7
11
7
-3
11
-4
11
1
13
3
4
5
6
5
-2
-6
-42
-19
-7
-8
-9
6
-11
-6
33
16
2
8
-2
-5
10
2
-22
-8
7
-5
8
-2
-7
-6
20
30
-2
-9
-2
-6
6
4
-30
-54
-2
1
0
4
-5
-7
47
24
-1
-1
5
0
-1
0
-18
-9
-6
-3
-16
-2
-6
-6
-7
-7
-1
-4
3
-2
-8
-4
5
15
-9
1
11
-5
13
6
17
14
15
-14
1
6
-6
-2
-4
-10
-7
7
-27
0
-4
3
10
14
8
8
20
3
2
-6
29
-5
-5
-8
-29
-2
4
5
-23
-24
-4
2
11
-1
2
-6
-2
8
-4
-7
-3
0
-1
-1
-17
-9
-2
-4
-4
-2
-1
1
-1
0
0
-2
-6
-3
-5
-6
6
0
1
1
-8
-2
-2
-7
24
28
4
4
4
0
-5
0
-2
-26
-10
-13
-20
-6
-5
-6
0
10
3
2
2
-2
-2
0
-16
-12
3
6
4
2
1
1
-31
-12
-6
-7
-1
0
-2
-3
18
25
2
-5
7
-6
3
4
10
-33
-1
5
-2
5
-3
-7
-29
-5
-4
2
-2
-1
0
-1
6
-3
1
3
5
-1
2
-2
-2
10
-4
-7
-9
6
2
9
-7
-13
0
-3
0
-3
1
0
-4
2
-4
6
4
2
3
6
0
-19
-1
2
16
4
-2
1
20
13
0
-7
-12
-4
-3
-8
-32
2
-2
-1
16
1
4
4
-3
-18
-2
5
-4
3
0
3
4
9
-2
-2
-6
-2
-1
-4
-18
2
2
1
5
0
0
-3
10
6
-4
-4
0
-4
-6
-5
-16
-10
-3
-2
-17
-5
-2
-4
-22
-2
-2
-2
6
3
2
4
35
-2
-3
-2
-17
-6
-4
-4
-5
21
1
-1
4
1
-2
-1
-2
2
0
0
1
1
1
-1
-17
-22
-5
0
-4
0
2
-1
-2
-4
0
1
-2
-1
-8
-11
1
14
3
-8
-6
-6
0
2
-5
-3
5
3
10
1
1
-5
7
-9
-3
1
9
0
-7
0
-8
8
0
-2
4
-2
4
7
12
2
-4
1
-1
1
-1
1
-2
-1
0
-4
-2
-4
0
3
11
0
2
0
1
-4
-1
-6
-23
-14
-4
-1
-8
2
-1
4
2
6
0
-4
-13
-3
2
3
8
-1
-1
2
-13
1
-2
-4
-3
-9
0
0
2
1
1
1
3
-7
-6
-1
-4
-4
-1
-1
-3
-3
-2
-2
-1
-4
-5
-4
-3
0
-8
-16
9
-7
0
5
21
7
-2
11
6
3
0
-1
4
2
3
2
1
1
0
-3
-9
-1
-2
-1
1
-1
0
0
-2
-10
-4
-4
-7
-3
0
3
1
7
2
-7
-6
-1
-6
-1
-5
-7
-4
-1
6
-4
1
-1
8
-1
-7
1
-3
4
-1
1
2
3
13
2
2
0
0
-5
-16
-36
-5
-2
-2
-2
-1
-1
1
0
-10
-1
0
0
-4
-1
9
20
7
-2
-3
-7
3
4
-3
-7
-8
1
2
6
-2
2
21
26
-1
-5
-3
-2
-1
-2
-3
5
0
-1
10
-3
-1
1
-7
-18
-5
2
-13
4
1
-3
-10
-11
2
2
1
0
2
4
-8
5
3
-2
-8
-3
-1
0
-16
1
3
2
-4
4
9
2
34
14
4
-1
14
4
-2
0
11
4
-7
1
-3
-4
-2
-2
-8
9
7
-1
-5
-3
-2
-3
-17
-19
0
0
-7
-5
-1
2
-15
-31
-15
0
3
0
-1
-2
-5
21
25
1
2
0
0
-3
3
3
-2
0
1
-4
3
9
6
37
-2
-1
2
8
-3
0
-7
-23
9
2
4
-4
-4
-4
1
-11
-14
-3
-12
-5
0
3
2
-5
-5
-2
0
0
-1
-2
-3
2
15
4
2
-2
0
0
7
13
-11
-3
-5
1
-2
-3
-5
5
-1
3
16
-1
-4
-8
-14
-12
0
1
4
-1
-3
-6
8
-6
-5
-7
-13
-4
-7
-1
4
6
8
4
9
-1
8
4
3
7
0
-1
-10
3
-4
-7
-6
-8
-6
-1
6
2
-1
-10
2
-16
-5
-3
1
1
-5
-1
4
14
11
1
-1
-3
-5
4
4
6
-5
-5
-7
-6
6
4
-5
-5
0
-1
-7
3
-2
1
0
-3
-6
1
11
-2
7
-7
-1
-3
-14
-3
-6
-1
8
-2
-22
-36
-18
-8
5
-1
-19
6
28
39
30
8
-3
-4
4
-7
-12
-5
7
6
7
3
8
6
3
14
9
-1
-1
2
-1
12
-2
-12
-28
-17
7
-3
-5
-11
-5
-15
-16
2
-17
-2
-4
-16
8
-7
6
1
-10
1
7
9
-11
21
-2
3
14
-1
6
12
12
11
7
-16
-41
-23
-13
24
0
-17
2
13
23
25
-14
-16
3
6
-2
0
-6
-10
-14
-23
-33
-24
-2
0
-8
-10
-2
-11
27
27
12
9
15
0
1
-2
-12
1
1
-11
0
-1
11
5
-40
-27
-25
2
-7
-8
16
2
32
-29
-26
-3
4
15
-27
-60
-24
35
44
14
19
10
25
20
38
41
16
3
1
-7
-16
-9
-3
-3
-4
-22
-1
-3
9
18
-10
-3
-19
9
-2
-15
10
40
19
-21
-19
8
16
25
3
-13
1
-24
-7
-19
-68
-8
-16
-27
7
23
10
21
45
-4
9
14
-46
-24
10
-12
-20
10
10
-14
-49
-34
-12
16
25
12
-43
-5
5
62
1
-5
16
-21
-3
30
19
-1
-5
0
3
-4
-38
-36
30
-12
8
-5
6
-8
-22
6
-1
19
12
-2
12
-4
16
-10
-38
-34
-37
-16
-9
-1
0
1
5
-5
26
5
-23
-11
28
58
17
4
7
-6
46
13
15
-55
23
14
0
8
-48
10
-10
0
-5
12
32
12
26
-3
-1
23
40
-4
-9
1
-32
-11
-4
-12
-33
-13
5
8
21
3
-4
37
28
-11
1
-3
0
-5
-25
-41
-22
-8
-15
4
3
-6
31
-34
-7
9
0
-8
3
27
-4
-1
11
15
4
-4
-9
-9
7
6
0
-18
-13
-21
-38
-25
5
15
0
-40
-12
-3
24
7
-74
19
6
-8
15
-6
-10
-14
16
-5
-2
55
-2
2
-15
11
-12
-14
-5
-18
-50
-12
-1
-10
70
20
8
32
71
26
13
20
9
3
6
-40
-15
-2
0
6
9
-48
-18
-21
-20
-14
-26
-16
-48
-13
5
15
28
4
17
2
43
-38
-11
-4
-17
-4
-3
-8
20
18
-21
-62
-27
-15
16
-1
45
107
2
61
16
5
-52
40
61
-62
-20
-53
-8
-12
25
5
-24
43
6
22
-29
10
1
-5
-42
102
21
-38
-38
-4
-24
23
-19
-92
-32
52
81
21
43
15
66
54
-19
37
-34
-38
35
-34
-22
-44
22
2
-36
52
3
-60
52
-39
5
-15
4
-25
-35
70
-36
-8
13
73
79
72
65
7
-63
4
6
26
-17
-15
-73
-29
45
-12
11
-62
-47
-35
39
54
6
3
-1
90
1
11
-5
-37
-54
-35
9
-55
-46
-23
-37
-38
32
-8
-5
-15
13
23
61
70
-71
6
-22
40
-29
-26
-21
-79
66
-30
-23
48
37
7
-5
59
-18
18
6
-20
40
9
-18
-52
-25
34
6
-68
-80
0
81
-86
-30
-31
-35
55
103
-1
-91
123
31
-14
11
-12
-5
-33
-45
-96
15
-15
9
6
24
4
63
96
-13
19
-7
-53
-51
-22
-51
-75
10
28
-7
-32
0
-11
36
-16
-33
-10
-12
2
-6
56
116
-65
67
22
24
27
-64
-20
-97
-60
-57
-35
-33
62
100
-7
-43
82
-1
-1
24
-59
-88
-31
61
-9
-71
-19
-3
85
71
13
-52
-61
48
58
19
-94
-128
-70
18
37
-21
-33
-8
117
115
127
41
38
-15
77
6
26
-17
-18
66
-39
-5
-37
-11
-108
-79
-61
-47
32
-51
-40
-20
46
48
9
-15
-24
68
-6
15
-43
-32
-80
-69
-32
-88
-4
-12
-61
-24
-3
-19
17
78
49
5
49
33
15
14
63
-24
75
3
-38
-6
31
73
25
-50
-55
26
-82
-90
-21
14
-86
87
81
13
108
127
-13
-37
43
-49
-64
-17
-90
-90
37
-5
19
15
-24
15
14
17
48
1
15
-21
25
8
-16
49
123
29
-64
-64
-102
8
-128
-128
42
-18
-128
87
103
2
127
127
-15
-16
97
-38
-86
62
-56
-37
-75
2
-102
-59
2
-61
-117
-74
5
-87
-77
-33
-7
-22
-1
52
90
30
-30
-1
-23
-8
-99
-66
-5
127
-21
14
17
-12
43
69
5
-117
-105
15
-17
57
127
100
-95
51
127
52
52
-5
-59
-61
1
-9
-18
-61
-13
-37
-8
-71
11
49
-70
-23
29
27
-109
-95
-42
-48
-104
-25
9
-20
6
-9
-63
-20
45
39
-12
15
40
68
60
-81
126
35
-24
19
31
48
24
104
108
-12
65
-45
29
4
22
17
-30
11
-9
-2
-44
21
72
46
-38
-94
-30
-8
-105
-94
-128
-46
-116
-85
-40
30
84
74
86
-117
-60
91
39
-8
102
92
61
84
127
-7
26
52
78
24
-84
57
-72
-34
-113
-64
-47
-70
-5
43
-86
-60
-73
-44
-16
-48
2
-29
-128
31
37
47
43
94
-2
-95
54
50
115
-19
37
-5
74
36
4
7
-81
19
36
56
-24
27
-53
-19
26
24
-1
-122
-123
-94
77
29
-119
-68
-105
-32
56
117
-15
-56
30
-12
-50
-49
16
-75
-35
103
33
3
71
60
-11
-66
-55
74
103
16
-26
-43
-38
-3
93
-111
-43
0
28
14
36
72
22
-31
-64
1
-50
-4
32
-52
-72
-59
1
19
-18
-57
0
-12
-73
104
101
17
76
111
-2
25
41
-31
21
7
-92
-105
-128
-23
-17
23
7
-25
-69
-4
78
24
35
-79
28
-30
-42
28
94
7
-68
-128
-71
-7
-29
-66
-90
-61
-18
89
31
-52
-10
-22
55
27
85
-72
-81
29
68
20
45
28
104
106
77
17
4
36
-8
43
33
-106
-51
8
-41
-33
-13
-65
-128
-6
13
-7
81
87
17
95
29
88
78
35
-47
-83
-112
-68
-75
-12
-28
-8
41
21
12
-39
70
-4
-13
-5
-26
-16
-18
27
-107
-77
-4
-1
-47
-99
1
-11
-87
8
11
1
65
-3
34
121
-76
87
-20
25
116
103
22
-59
127
-39
-23
-27
-18
-6
-62
-29
-61
-24
-106
-7
-34
-63
-40
-73
18
-4
27
26
15
25
76
105
23
-128
4
11
20
27
14
0
-128
127
-41
18
93
105
44
32
127
51
104
15
61
44
-21
12
-86
-109
-82
-22
-39
-50
-83
-36
-98
-34
54
-3
-36
-53
0
40
-82
-45
-1
11
-53
-46
-24
-30
-126
49
24
10
-30
-10
106
-105
47
-26
-8
-17
44
-6
-59
-41
42
54
-24
4
22
50
6
33
90
-31
22
-44
-25
-81
-61
42
-56
-51
-30
-11
-20
8
64
-17
-73
26
0
1
-73
-7
54
-32
18
22
-9
-34
2
36
-4
-31
127
43
27
52
18
40
36
43
23
-73
0
-54
-5
-15
-26
56
-128
57
-7
-16
-56
-72
45
59
127
13
29
-3
-57
12
-25
-55
4
9
-4
21
61
39
56
-2
127
-87
-67
9
-78
-41
-46
-27
-60
-61
-40
-6
-57
-81
-111
-3
-128
28
-63
-43
62
40
88
-29
96
-14
2
24
-50
-40
85
125
-25
30
-8
-25
-20
-62
-81
-2
-55
59
2
-3
25
3
-36
-105
36
-37
34
17
-48
-94
-95
24
-75
-51
-21
-21
25
-9
-14
-52
-97
-15
-16
-10
-57
-59
9
-43
68
59
36
16
118
123
37
25
94
-59
-42
-16
-38
-29
-60
-2
-77
-81
-20
3
-38
-1
100
23
-53
-113
-41
44
-79
-124
-114
100
-128
-106
42
22
82
103
102
-87
78
36
61
-33
-28
-41
-10
-19
55
-103
34
-37
-67
-84
-48
2
-127
-84
-77
10
-51
-99
-100
-63
-87
60
10
15
50
81
-5
-8
38
5
-5
35
-16
-66
16
77
49
61
27
11
20
115
118
26
48
10
-20
-12
41
100
59
60
0
-74
-121
19
-21
-128
-106
-102
-128
56
34
44
102
78
52
106
51
-30
-12
-29
-126
-122
-69
79
-96
81
-55
-63
78
127
55
-115
105
-107
-100
4
-68
-34
-48
126
-2
-63
5
19
-93
-91
-7
29
-89
-14
-23
-12
-55
-37
0
23
-39
-45
27
18
9
-50
43
61
-128
44
44
-43
-47
29
-47
-16
18
72
58
4
53
21
9
-12
78
51
-47
-27
-4
61
30
-60
-40
-18
-25
21
40
-9
-20
-7
-56
74
13
-56
-77
-52
-11
-42
-114
-102
-43
19
-69
-49
-47
-7
-128
49
54
-8
65
61
39
-56
108
6
57
48
4
-56
16
77
4
-42
-50
-88
-36
45
-18
-69
-5
-28
33
11
-34
-66
-45
64
-9
-78
-25
-31
-35
-81
-31
-74
-102
93
6
56
7
8
31
16
127
-109
-77
-14
-128
-128
-73
99
-128
8
14
-38
80
48
62
-80
77
52
121
44
66
65
-16
92
13
55
-35
-35
37
-96
-90
-128
-78
31
60
4
99
111
127
28
99
55
-63
43
12
-10
-10
9
-23
-36
-13
33
-46
-110
-93
-13
-56
-94
23
-25
-10
59
94
37
-95
13
35
-5
-77
4
95
-50
11
-19
-12
-1
44
51
-15
-15
-11
-50
4
-5
-10
34
-30
-11
127
0
127
-2
-50
1
-90
11
-63
15
-1
0
-45
-57
-52
-15
-57
-90
-75
-3
-17
-7
34
-49
-101
87
20
26
-89
-24
-20
-24
-25
-75
-73
-67
74
76
49
70
33
43
26
12
-49
-64
-28
-93
-34
55
57
49
48
46
-15
58
86
13
-24
3
-8
-40
3
41
-38
-18
3
10
-63
-10
9
-26
-29
-60
19
3
69
33
17
58
-8
-107
-33
-16
-39
-74
-43
15
-128
79
5
13
50
51
44
30
111
68
90
-26
-46
9
14
-27
-50
13
20
32
43
-4
-19
34
-105
-34
-23
-25
-54
-20
-13
9
-128
-27
-85
8
32
30
-1
-88
-71
8
35
51
22
8
-8
41
122
-63
-8
15
-32
-56
-21
18
75
8
-59
-77
57
77
37
19
28
-66
-32
19
44
-22
0
-2
-83
58
-80
12
-73
-77
-19
12
27
125
103
38
127
116
83
73
96
-23
8
31
-113
-128
-24
-1
-32
-82
-54
-37
-29
-98
6
42
-92
-6
30
-4
17
56
-25
-85
19
13
28
90
51
15
-7
57
65
-22
46
-48
6
-24
-24
13
-77
19
24
-26
-45
24
17
58
-52
-31
-28
-12
2
15
19
16
59
-47
-46
-22
-38
3
-7
-2
-52
68
19
22
27
30
8
-73
54
-83
43
-4
-65
-40
-2
122
-117
-120
-35
-39
32
-53
-68
-82
-10
-22
3
9
-25
12
-7
60
57
-119
-62
21
-34
-54
12
48
-109
-8
-15
-15
36
14
25
32
-50
-128
-78
15
-12
-52
-12
43
-128
30
92
11
61
36
-12
-76
44
110
51
-11
-25
2
-15
-31
118
-5
14
14
7
-72
-28
-64
-42
23
14
48
127
121
75
52
-34
3
-85
-38
-28
-62
-48
-8
-128
-99
-40
-11
-32
-86
21
-40
-83
40
-63
43
74
76
-3
-128
101
104
66
38
30
36
40
127
91
-77
-32
-8
-59
-50
4
6
-128
-5
-82
21
-39
-10
19
8
-70
-40
55
-76
-11
-61
-38
-34
-82
-10
12
-3
-25
71
-11
-49
57
27
7
-21
11
37
11
30
-66
61
72
10
2
-5
-2
40
121
-73
-62
-3
-14
1
-1
-56
-37
-19
-77
-8
-31
-20
26
49
-123
2
32
2
20
-25
-1
29
92
-74
-30
-21
-11
-4
-10
120
-37
36
-41
-31
-55
36
19
-81
-39
105
102
21
34
6
-59
-43
127
-71
-64
-3
-37
-54
-4
79
-56
-100
-66
55
-82
-77
-43
-10
-113
127
103
-56
126
127
72
104
127
-42
-63
-77
-84
-114
-16
-60
-128
-9
-36
30
-20
-103
15
-17
-111
53
12
-34
28
98
38
-98
127
-89
6
21
9
-23
24
27
20
-6
-52
-35
-75
-65
-28
-48
-63
-38
96
28
7
3
10
21
-7
66
56
5
24
14
-35
-72
24
41
-14
64
-70
14
-24
-17
70
-51
-26
-48
27
30
20
-38
-9
-35
-54
-9
-48
-20
-13
20
-36
1
32
-31
3
-12
-5
19
-99
-27
-26
36
-35
-33
-26
-32
-93
29
-11
-43
-57
-14
-11
-53
-86
62
37
15
-5
19
-10
-7
59
12
16
-26
14
17
24
38
-6
37
65
33
-1
-26
-9
5
-51
-66
-13
13
-13
-38
-21
22
-93
-2
-11
-18
-8
4
26
-31
-45
31
4
24
15
28
-5
-18
31
-37
-30
-12
17
-25
-24
8
18
15
29
27
-3
21
11
21
18
33
25
6
24
40
20
35
79
14
16
-15
-3
-15
10
-1
52
7
4
-10
-12
5
12
-24
-35
-18
-9
25
8
-3
1
10
75
56
8
2
22
13
-7
6
35
-17
-29
-11
-4
5
-10
-20
-68
-30
-41
-23
-6
-12
0
36
0
17
42
28
3
0
-4
-2
30
-24
-26
-23
4
7
-10
-37
-31
-9
-2
0
8
-17
-16
-7
-32
31
16
-1
-23
3
-3
22
29
5
12
36
70
41
23
31
34
-11
-12
-4
-9
-11
-16
-47
-32
-4
3
-6
-2
-1
-10
17
-14
-17
-12
-3
-2
-5
-6
3
-108
25
-2
3
-22
-21
-1
62
110
5
0
-32
-6
5
0
-62
-17
5
12
21
9
8
-2
17
-37
-7
-9
-10
4
6
15
43
-45
-15
-13
3
-17
-14
-2
-39
-3
-1
0
-10
10
8
-11
-3
-22
-3
-19
6
-9
-10
-1
13
55
11
-1
9
5
5
-3
0
17
11
2
3
1
-1
-4
-8
-14
4
2
7
5
0
-1
12
11
-17
-6
-11
1
1
1
-11
-31
-1
-3
-34
0
-7
-5
-2
32
7
18
22
2
3
6
13
6
-10
-11
-20
-13
-4
-2
-9
-12
-1
6
-15
-17
-2
2
5
-25
13
4
27
29
7
2
-2
42
-5
-1
-21
-35
-26
-10
4
-10
-7
-11
-1
-1
20
2
-12
-20
-4
-4
6
34
12
2
-1
2
11
0
-28
-25
0
4
18
28
-9
-6
-17
8
5
3
-2
-16
-5
-5
5
-8
-13
-4
-6
-8
8
6
-8
-17
0
7
11
5
13
-4
21
13
4
-12
26
0
3
6
12
16
-1
12
18
-2
-24
-2
-63
-12
-5
20
1
7
-33
-6
28
1
-5
-2
-4
-7
-6
1
-10
-6
-7
-4
3
2
19
12
34
20
0
-12
14
-8
42
-1
21
-23
-3
-7
-16
11
-25
-7
-90
-21
-7
8
23
-10
-14
-5
13
18
3
0
-6
3
-11
-6
-11
-34
2
2
-7
-2
6
9
43
14
-5
-5
-9
-4
12
14
19
11
-1
-6
-10
-7
8
6
-83
-19
-1
1
-7
14
0
-7
45
9
-3
-4
-1
-3
-14
-1
-20
1
-5
-4
2
-12
12
-1
-15
6
3
-2
3
5
6
5
-10
0
2
7
-9
11
-9
-2
10
-11
-2
-3
12
-6
-4
-5
-6
5
-6
-7
14
1
2
5
12
10
2
3
15
0
23
1
27
38
12
21
-13
15
-12
3
49
-5
-2
0
-10
-7
-8
-4
-65
4
-3
-10
-7
-1
21
-6
14
-19
-3
2
-6
-2
-1
-5
25
-3
-1
-10
2
-5
-21
4
0
16
4
8
-7
-1
-5
-2
-15
-65
-9
1
1
-10
-1
0
23
26
-4
-7
-23
5
2
-3
12
23
1
-5
2
-3
6
-6
-31
11
-1
0
-3
-3
6
2
13
6
9
-1
-12
-1
-2
8
37
-8
-2
10
12
0
-13
-10
0
-32
-4
-1
-2
-3
11
-17
-64
3
1
2
7
-6
18
-3
13
42
0
-7
-8
18
-27
-5
25
24
0
-10
-23
-18
-5
5
32
-8
-2
4
-10
0
0
2
9
-11
-5
7
-25
1
8
5
-17
-17
-3
5
12
-1
-1
-15
-43
-22
-4
-16
-24
-5
3
7
30
13
2
-1
-2
4
-7
-1
-17
-12
-2
-5
-2
-6
5
1
75
45
1
4
21
2
7
3
-53
-48
-1
2
-7
4
13
1
53
11
-3
0
18
-10
-6
1
-41
28
5
0
-15
15
-11
2
51
2
1
-4
3
-5
4
5
-11
5
-3
-5
5
5
-9
-4
-43
-22
-8
-12
-15
-2
9
-2
18
6
2
16
23
6
-11
-11
-21
-9
0
-4
-5
-11
22
4
13
-13
5
9
16
12
11
7
29
57
6
-5
3
-5
-58
1
-3
-15
-14
-20
-25
-15
-19
-4
-72
-31
6
14
-22
-2
20
-1
49
12
-2
12
13
22
-9
-8
-17
-4
-9
-10
7
-2
-18
1
19
-7
4
14
19
-4
5
-3
-14
-4
-6
-13
-10
-18
-14
7
1
16
4
-2
-1
-7
2
-8
-32
-62
-5
0
-20
-1
11
3
6
29
0
-6
15
-4
-9
-7
0
7
-2
-9
-27
-3
0
-4
-25
2
-2
8
18
-7
-19
-4
1
-20
-1
-2
-5
-3
24
2
-32
-22
0
-5
-13
-3
-4
-9
20
21
1
1
10
4
-6
0
29
17
-3
-8
-6
-5
-3
0
-28
-27
6
4
11
6
3
-3
12
-2
-6
-6
-12
-9
9
15
27
29
8
12
-24
12
-11
-8
1
-6
5
0
30
-2
-5
-1
-11
3
-3
3
0
1
12
-3
-2
-9
-7
-7
-1
-1
-9
0
-18
-5
-9
-10
9
-8
0
2
18
-8
-3
-3
-10
-6
5
7
-24
-12
6
12
-10
10
9
-1
32
7
3
0
6
0
-1
5
3
2
-2
-2
-6
5
-7
-8
0
-1
-1
-3
-6
-4
3
4
-11
2
-2
-4
6
-4
5
4
-14
-1
2
-4
-9
-1
1
4
20
-4
0
2
3
0
-1
-2
-5
17
2
-2
-7
-1
-6
-2
-45
-41
-2
4
13
3
-1
-5
22
34
0
0
1
3
-3
-5
-10
-13
-5
-4
3
-4
10
0
-24
-26
-4
0
0
2
-9
-4
39
38
2
-3
-12
-9
3
1
-18
-25
2
0
8
10
1
-5
-17
-1
1
0
14
-5
0
1
3
-12
-5
1
-4
-1
3
3
20
27
1
-2
7
3
-1
1
4
-12
-2
5
-3
-1
-6
6
12
11
0
-4
-1
-2
-6
-8
-23
-23
-4
0
4
-3
1
0
4
-2
-5
-8
5
3
4
6
7
-1
2
-2
-14
-4
-6
-22
-37
0
-4
4
-4
0
-6
3
22
-4
-3
-3
-7
-2
-1
1
-10
0
-4
1
-1
-2
4
13
-4
-6
-2
-5
7
0
0
4
-6
-23
1
-2
4
-2
3
8
6
21
3
-3
-6
-3
-1
-5
6
19
16
8
-5
3
3
1
6
-9
-2
0
3
3
-3
-5
12
-20
-5
-2
-2
-5
-3
1
8
16
-4
-2
-6
0
-3
-3
-1
0
-3
-6
-1
-3
-3
-11
-18
-25
-2
-1
5
-3
0
2
26
43
4
1
-4
-2
-2
-4
-1
-13
1
3
2
4
0
0
-18
-16
-8
-1
-5
0
-2
-13
-6
8
1
-6
5
-4
-2
-1
1
-9
-7
-10
-30
-7
2
1
0
-4
2
11
13
3
4
10
9
18
-3
0
3
1
-2
-2
-3
2
0
4
6
-2
2
1
-8
-16
-4
-5
2
-2
-4
-4
0
14
1
-7
-10
-4
-2
-3
-3
-5
2
3
-1
0
0
2
3
6
3
-1
0
3
0
-3
-11
-3
-2
3
10
4
-1
-1
-7
-3
5
1
-6
-3
-1
-6
15
-8
-4
-2
0
-5
-4
0
-6
-6
-5
-4
-6
-1
0
-3
14
5
2
3
7
2
-5
-11
-36
-11
1
-2
-7
-2
-2
-2
-3
7
-2
-3
0
-2
2
1
-7
-4
0
1
-3
-2
-2
3
-1
-13
-5
-1
6
-5
-2
-6
-4
-3
2
3
3
7
0
0
0
-5
-5
2
-2
-1
-4
-4
-1
10
4
2
0
-4
4
4
2
-1
0
-3
12
6
-3
1
12
-1
-4
-16
-35
-9
4
0
2
2
0
8
15
3
4
2
-3
-2
-1
0
4
6
-9
0
-13
2
5
-3
-8
-12
4
-5
7
-9
-5
-5
-16
1
6
-4
-7
-8
2
14
19
14
-2
5
6
10
0
0
-7
-4
-8
-4
5
10
-2
-4
-9
-10
4
6
7
0
-2
-4
-2
-2
4
3
3
1
-2
-6
-15
-5
-3
-4
-7
-12
-4
-1
0
-14
9
-6
-13
18
-8
-5
-6
10
-9
3
6
-12
-7
3
17
-4
4
4
-8
-18
41
10
1
2
-3
-6
28
23
20
5
-2
1
-1
6
-18
-14
-6
2
4
-2
-1
-5
11
12
-14
-4
2
-2
-8
-1
1
-9
-10
-6
-5
2
6
1
-27
-23
-8
-12
9
1
5
-9
-6
-8
0
5
-26
4
-6
4
0
17
-5
5
14
3
-10
-5
-14
-12
-16
-10
-9
-29
-4
-6
-8
1
-2
0
0
14
7
2
-4
-10
-3
-1
15
21
2
6
10
-8
7
-3
7
-2
-8
-17
-11
17
-4
-6
-36
-7
6
10
2
-5
-4
10
10
0
-8
-1
0
12
-4
-6
20
-12
-1
-3
-8
-14
34
5
-15
-3
5
6
20
9
-14
-5
7
4
4
-7
-8
-13
0
3
-5
1
-1
1
24
11
0
2
3
1
-10
-1
-19
1
-11
-5
-2
-10
0
6
6
-20
-26
-7
-1
-2
-6
7
-9
10
12
0
-7
5
2
-7
-5
7
16
2
3
-1
1
1
5
7
-4
-5
-13
-3
-5
-3
-5
6
0
3
37
4
-5
-8
-1
-11
-16
-2
-6
-5
6
19
13
-7
-7
1
1
-1
-7
-12
-8
-16
1
-5
3
-4
0
0
17
0
2
-15
-26
-3
3
3
-45
4
-6
-3
-11
-1
4
-10
3
2
6
20
36
7
-4
9
14
3
-8
0
-28
-9
-4
-15
-2
-1
-4
-16
-48
-2
4
10
17
15
29
-3
34
2
0
-3
-8
-13
-1
-18
-82
-17
11
-2
-26
13
5
36
61
24
-7
-5
-3
-29
-8
3
17
-4
-8
5
20
-9
-31
-7
-17
-12
-5
-2
6
24
52
12
14
6
7
1
16
-1
-11
-14
-7
-3
3
8
-19
22
23
7
-3
1
-10
-19
2
11
-9
6
11
1
2
8
41
-3
-22
-7
8
-5
-23
-24
-48
0
-11
-13
-9
-18
1
11
8
15
0
-4
-9
-5
7
27
-17
-33
-6
3
-4
10
10
-4
7
-19
-3
-8
34
0
-2
6
-14
8
9
19
-12
18
7
-21
-9
2
-9
8
33
3
-10
-5
-11
3
2
-1
9
-19
-14
-4
-8
-8
-10
-10
-65
-9
3
-9
15
-6
5
-9
21
15
-7
2
-32
-22
-5
-2
-9
6
2
-6
16
15
8
10
5
2
2
-5
8
8
-11
-6
11
-6
-19
-5
1
-6
-11
-8
0
-28
17
12
35
-15
11
4
-18
19
17
23
-7
11
7
0
6
20
10
-26
1
7
11
4
12
17
9
2
0
3
14
2
0
-6
-17
-37
-7
30
-15
-8
0
-18
-20
-8
18
-36
-29
-13
-22
-32
-26
11
-15
-19
-28
-2
16
2
20
4
7
14
13
-6
-16
-8
3
14
2
-6
8
1
-7
17
17
-3
-2
1
1
8
86
12
-10
8
-16
1
-9
-7
-62
-12
-4
-9
9
-7
-10
3
20
-1
-2
3
-4
3
1
6
19
-1
-4
-17
3
-3
-4
-14
-25
-3
6
30
1
-7
-6
10
35
-6
-17
-37
-9
-8
-2
-21
-28
-10
17
32
1
-35
-32
-9
-4
10
10
-31
4
57
62
20
-4
26
-15
-2
-27
4
20
2
9
-19
24
28
31
-16
-46
-4
15
-6
-41
-22
-13
-10
-6
-6
-12
-11
11
15
-4
1
64
21
-21
23
-5
-1
-3
12
-5
-11
7
-12
-14
-4
-2
-20
-6
6
13
5
-4
1
-4
-20
-24
8
16
-20
-5
-10
-11
22
-12
-3
-12
9
-12
18
8
-20
20
10
-2
8
-8
9
28
22
6
22
53
20
-30
-1
-27
2
5
-48
-58
-18
2
-43
-8
-23
-50
-16
-3
-15
17
7
-27
-46
-4
25
42
0
10
-5
-3
30
-15
-8
-13
18
26
31
31
-13
23
15
4
8
-37
-34
5
57
63
2
9
-19
6
59
11
-12
-25
-43
-12
-14
85
-25
-18
-68
-36
44
-43
60
21
-107
-4
54
45
21
15
16
-21
-6
-17
9
-37
0
-7
-35
-19
-31
-16
18
28
-10
-3
-11
-53
-4
9
-26
2
-18
-15
-93
113
115
30
37
9
-17
-30
84
-25
-75
-10
-5
-34
-12
-2
-8
-30
-87
10
-41
-35
25
46
-44
24
-42
-29
37
22
-25
18
52
-60
-5
-15
-28
-16
8
1
-18
54
92
16
25
4
16
-13
-16
6
-36
-13
-8
-26
-8
-22
20
-78
-6
-5
64
18
6
6
-71
44
-57
23
-79
0
4
67
-9
37
63
-27
0
13
-23
-60
69
-38
-36
36
-2
2
7
-16
-26
71
36
-15
38
17
-19
1
35
-51
8
12
-25
-82
-27
4
-66
-42
-17
-38
24
-30
5
51
-94
30
-42
12
-34
9
-28
-103
92
81
61
4
48
56
26
-23
101
-73
55
-41
14
-7
18
73
-106
17
-23
37
5
-5
-35
-117
91
-82
1
7
-40
-10
21
123
24
38
-39
16
-20
-31
-5
53
4
-31
85
-8
63
-27
-23
-37
-64
15
-18
11
-106
-36
1
-44
27
-83
-14
-19
112
55
31
6
4
73
50
30
-54
-73
-23
10
5
-19
-77
-8
82
-11
27
5
-49
-30
27
5
-7
-52
-30
47
-3
49
85
41
107
56
11
-31
86
-61
-96
-57
-85
-38
3
-5
-23
56
5
-36
74
56
9
-24
13
-67
-72
18
-6
6
5
77
-91
56
53
-7
-92
-71
-21
-35
18
-90
5
47
-11
0
-22
-37
-108
87
9
-35
-11
-5
-48
73
127
-4
-19
30
32
35
88
-105
-58
61
58
13
33
69
14
5
-24
-103
-49
49
-13
-29
60
74
-71
4
36
47
-116
-42
-41
-97
79
-16
-14
-59
75
50
-1
105
-11
35
63
-1
-6
-101
-43
-80
-128
98
51
-27
127
126
39
77
124
-41
-59
-27
4
-2
18
-37
24
15
26
45
-9
-23
-25
35
-22
-53
-55
11
-105
-118
23
109
-110
-51
23
-47
20
-5
-19
-57
40
85
60
42
93
113
92
56
68
13
6
0
-17
-30
-58
-37
-60
-43
-29
-44
66
18
14
106
-115
4
35
77
-128
-128
-116
-128
-27
40
63
14
84
76
101
89
57
-34
26
-43
-5
1
-18
-59
8
-1
49
-18
-50
-35
42
-38
-86
-13
19
-16
126
16
-42
-15
77
-78
-124
-1
-128
-36
-7
-79
-128
119
-9
12
-49
76
72
56
116
-34
-43
-18
-59
0
-11
69
3
-69
-5
-34
-76
-12
-28
-2
-37
-49
16
-47
-79
-50
-43
-103
-128
55
-62
2
79
-60
0
12
89
46
66
-8
101
127
43
76
20
-79
-56
-16
-41
-11
-25
-98
-28
32
55
28
-36
-120
-21
101
-57
-52
-18
-4
-118
58
4
18
-66
40
-14
28
25
-48
-53
-52
85
-13
-20
-17
-43
-36
91
-33
-128
42
52
-5
123
55
13
11
98
-6
118
8
-31
-51
5
11
-77
-53
-63
-9
-18
-6
-17
-93
-57
42
21
-13
-44
8
1
78
-94
-120
-128
-20
-20
-15
30
-68
-123
103
104
22
5
-15
-75
64
125
0
51
-25
55
6
-2
25
-23
-91
-51
19
-42
-78
-16
-37
-117
-67
-20
-27
38
65
-69
2
123
4
-28
12
-27
-57
84
80
-9
-99
-107
-11
-59
-63
-36
-128
23
127
127
-20
97
81
33
95
127
-30
-71
-6
-124
-17
-24
104
-100
-85
-10
-4
-5
24
-72
-16
-12
-42
-6
-43
-124
-73
47
22
-80
86
-10
11
5
-63
-78
13
116
20
-41
-46
39
74
51
71
15
-88
-24
-11
-56
-93
1
-2
-128
-30
-76
6
-65
-92
-5
-53
-71
39
-37
-31
28
52
17
51
31
68
124
6
-22
-70
-76
-54
-54
-74
-65
20
38
5
29
-24
-93
-72
8
3
41
48
86
54
-56
-4
22
-30
-49
42
-60
-88
-21
31
22
61
-14
-56
0
-17
-16
23
51
-54
-73
49
1
-64
-29
9
-15
21
127
37
-79
26
127
18
-29
54
-29
-87
-35
-31
79
-10
-37
-9
-75
-57
110
56
-5
-36
-14
30
89
48
45
-58
-38
32
23
33
-46
-18
-13
106
-24
26
66
-70
-10
3
-15
-50
-4
71
-12
17
72
0
-45
48
54
-78
-102
32
-23
-108
-48
6
-96
94
85
-45
24
-24
84
101
15
-128
-105
-4
55
50
-15
-59
-42
-32
104
57
29
-98
-62
-32
-100
-75
-58
-72
58
60
60
-114
-18
127
75
-14
-5
65
-60
-27
100
-126
23
41
53
-4
19
111
-128
-94
-92
7
-41
-5
14
-86
-64
-58
-36
-3
-51
-75
19
32
-60
-59
-118
50
-90
-128
-128
-49
54
55
53
-10
84
99
108
-3
-106
38
3
34
29
-3
-51
21
127
24
29
-3
-77
18
51
45
-95
4
-17
-10
-28
-25
-40
-100
-48
-3
23
-20
-9
55
35
-61
56
-1
-12
-34
43
-2
42
27
-48
10
45
57
19
-28
-48
-55
91
-20
11
-25
53
54
7
-25
-10
18
-48
16
2
-2
8
70
-49
-56
-27
-7
-91
-65
-43
-22
-128
-44
-65
-47
-30
-77
-50
-89
-52
21
75
35
127
121
-2
-37
76
17
11
0
10
-19
-20
66
-121
-95
-37
-28
-30
-44
-62
20
-44
68
59
55
-10
70
73
-24
-26
43
-66
-2
2
42
32
86
36
30
-12
43
-52
-69
-56
-3
-33
-44
16
56
51
91
71
4
-50
50
36
-67
16
-97
-121
-44
44
25
79
12
-26
-35
50
-5
35
7
10
42
-4
0
108
22
-4
95
-42
-37
34
52
-90
27
114
-3
-50
22
14
-65
-7
20
-37
-14
28
26
55
95
126
19
-93
-10
-50
-31
-21
-56
-34
10
29
-126
33
55
24
-31
25
14
-93
102
48
-54
-45
42
-31
-40
24
-18
3
-20
-33
-94
-128
11
53
-112
-43
28
-27
15
100
82
-17
120
24
-51
25
49
46
35
67
-32
-100
-36
-94
10
3
75
-40
-57
27
-13
52
57
-11
-43
14
10
31
48
27
-89
-128
15
96
-25
-19
26
48
11
21
-17
-49
31
54
18
-23
-48
91
95
-1
-42
-51
-49
-57
26
62
-110
-69
-37
-65
-6
16
47
2
-62
65
53
93
41
-64
3
90
8
-31
-38
38
-32
-4
48
15
58
105
-30
-84
2
-14
20
19
119
-119
-75
-38
-60
-51
-44
-66
-96
47
-35
-8
-40
-39
-78
-111
-71
34
62
71
42
127
96
47
81
93
-1
58
7
2
3
27
27
-64
-22
-15
20
-22
4
4
10
-128
-61
-62
-6
-74
-83
-109
-70
-124
-23
-88
-14
-39
-14
33
0
11
65
29
82
-18
-56
-50
-17
70
-5
44
-126
34
84
43
34
-53
-40
-77
-9
11
10
14
-29
63
-71
27
84
35
-32
-27
70
-6
81
-39
44
71
24
25
8
-4
5
31
-87
-72
-33
10
-57
32
-18
24
30
31
28
28
89
-45
-82
-79
-36
18
-46
-128
-87
16
-98
65
-41
-48
-40
78
-50
-103
117
-17
46
-18
17
50
-58
115
-46
-67
-20
63
78
14
-35
-52
46
97
-30
-4
-35
-24
14
-127
-69
24
2
26
-81
-77
26
-66
-73
52
71
10
14
5
22
-110
56
61
-85
47
10
40
62
127
-79
30
33
23
60
-5
-46
-128
74
23
-65
2
-32
-28
14
-11
-102
2
9
-87
-114
23
45
-128
-55
-111
-39
-103
44
-82
-99
-115
58
73
22
107
72
111
127
127
-93
-92
58
-79
-44
-32
57
-88
-37
15
-48
-5
-20
-33
53
-102
-105
-43
-8
-93
-82
17
-78
-45
107
54
-2
-27
-24
-72
-77
80
8
-36
49
22
61
15
-48
-50
73
-7
-46
-8
-25
-40
54
-54
-109
-51
11
18
8
93
82
-128
82
46
26
30
22
0
14
73
6
-52
23
15
-8
-44
-50
-29
-59
-57
-31
34
22
0
29
-58
58
84
-36
-67
-103
-38
28
-92
19
48
-12
34
14
-12
42
51
-51
-68
-60
-31
86
82
85
76
-2
-4
67
1
-3
-13
-44
54
107
12
-9
27
36
55
-25
90
-44
-38
66
-46
-67
63
-44
-73
3
43
-65
-19
-24
-57
6
24
-14
-8
-12
-15
0
36
28
12
21
33
11
32
20
7
-65
-28
-48
-34
-9
-31
-23
-39
45
-66
44
35
32
7
-15
12
-19
110
35
37
25
16
3
-51
-83
16
29
40
24
16
10
-6
2
5
-36
-100
-29
2
9
28
49
-82
-43
-6
-8
9
-2
-11
-13
-46
36
-6
16
31
-5
2
-11
10
38
39
47
1
12
4
28
73
-49
-37
-10
5
20
-1
-18
-28
0
-7
29
28
-1
-21
-19
12
0
-20
6
8
-6
4
-2
14
8
26
-7
-7
-41
-3
17
16
-2
-24
-31
-14
18
-25
-18
3
-15
-3
19
-5
-10
-9
2
-22
9
25
-14
-5
-2
13
12
-4
3
-11
9
5
11
-3
-20
29
9
17
-12
-41
-41
-13
-28
-7
13
2
-8
-7
-4
38
51
10
-6
-12
19
16
28
10
29
-10
2
4
-10
-3
-9
0
40
34
-20
-12
-4
-1
-8
-21
-45
-13
-5
-14
-16
-5
2
10
-25
-20
14
9
17
2
5
9
45
9
-4
4
5
9
15
-13
-42
10
-4
-5
21
4
-2
-4
2
-14
0
-4
-7
-10
-5
-15
-19
-8
-1
6
-34
-19
-13
-6
-9
-1
-4
-2
32
17
6
3
34
10
-14
-10
-9
7
4
4
-19
-11
-3
1
-7
-10
-17
-18
-21
-2
2
8
10
0
6
11
-2
6
0
-6
-11
3
11
-3
-2
1
-1
-6
17
-13
-2
3
-3
0
3
4
9
0
-9
-11
2
-1
0
-10
-36
-14
-4
-9
-31
-6
-8
6
-4
14
6
-1
-24
1
-1
4
27
19
6
11
5
5
1
13
-27
-17
2
14
23
-2
-6
-5
53
-3
0
2
-32
-3
-1
-2
-44
8
-8
-4
31
2
-13
-11
23
-27
-5
-12
-18
-6
0
-4
-30
12
-7
-12
20
-5
0
4
-9
-4
4
12
6
-2
3
-1
18
6
-7
-2
-13
16
6
5
-28
19
26
11
14
-1
2
-8
47
-17
13
-1
15
-3
3
-10
-31
0
-1
2
-20
-3
-17
-6
75
22
-9
-2
5
-3
0
4
-65
-9
-9
19
17
9
-3
-7
11
-6
-10
-19
-12
-7
21
7
61
59
15
13
-22
3
0
-9
-18
-53
-7
-11
-21
8
3
-9
-39
16
-8
-3
-9
7
2
1
47
-36
-11
1
-12
-20
4
3
-1
11
-1
17
4
15
7
3
-9
-19
13
9
32
4
-9
-3
20
33
-7
-18
-8
-5
10
-4
-45
-20
-2
-3
-33
1
-17
-3
29
29
5
4
45
2
8
-1
11
3
0
-5
-6
-1
8
12
-27
-24
-6
-9
4
-5
-8
2
0
3
-4
9
-9
-1
-5
3
16
2
0
-7
5
-1
-1
-2
-19
5
7
5
13
2
2
2
33
36
-5
-8
-13
-3
-14
-4
-1
-65
4
1
16
3
-10
5
1
12
-5
-10
-9
0
0
6
-18
35
-2
-8
-10
-7
-12
-11
-30
-19
-7
-1
8
-2
8
1
-17
17
6
12
-3
10
6
-6
-19
-2
-2
-5
10
-10
-10
12
86
32
-3
-9
13
-6
24
-1
4
4
-1
-7
-22
4
-25
-5
-42
10
-1
8
16
6
24
4
-24
-37
5
4
-16
-11
-23
-6
23
12
-3
9
42
11
-5
-9
-8
-5
-10
-20
-40
-9
5
-6
-41
-17
2
13
14
1
-7
-7
-17
-13
-10
-11
-9
0
12
-1
9
-4
5
-4
-19
-8
-2
9
22
-58
-1
-3
6
0
5
7
-25
69
8
-5
-10
-6
-14
-2
49
-12
-10
7
2
-1
-2
-12
-86
-26
3
0
2
-1
-10
-5
11
-3
-4
4
9
-2
2
6
3
16
-4
-6
-17
-4
17
5
3
-11
5
2
31
7
2
5
-11
-9
-2
-14
28
-13
-5
7
14
7
7
14
13
7
1
-11
-11
-5
-6
9
-7
9
-7
1
-22
11
-8
-6
-7
0
1
-2
-4
-41
-2
1
6
-1
-5
0
29
16
1
-12
-26
-14
5
1
30
21
0
10
-3
3
-9
1
-6
-32
-3
-8
7
2
5
5
-19
12
5
6
19
6
1
-1
-10
-11
-8
-8
-26
-3
-6
-7
-6
-21
-5
-1
4
-1
-6
-16
-50
-13
0
-2
-8
-5
2
1
28
7
0
0
14
-6
-4
-2
10
16
-8
-7
-42
-4
-1
1
14
-19
-8
-12
-14
-1
-2
-1
-35
18
5
15
8
4
3
5
-1
8
1
1
-20
-1
0
-1
-1
-11
2
3
21
1
-9
-12
4
-4
-8
-15
-22
-11
1
2
16
-13
-6
-3
-5
3
1
0
-8
-3
-2
-2
-23
1
1
1
3
7
6
3
18
-3
-1
4
10
11
-4
-9
8
1
4
2
18
-3
1
12
49
9
-3
-11
8
9
-2
4
-54
1
-3
2
-41
-30
-4
3
28
1
1
-5
1
29
3
-4
4
2
-3
5
26
12
9
-1
-3
-1
3
-1
-1
-11
-1
0
8
0
0
4
27
4
-4
4
8
0
-4
-3
-20
-2
0
-1
-1
-3
-5
-7
-9
11
-4
-5
-19
-11
4
5
-5
-18
0
1
0
8
2
-4
12
-22
0
-3
-5
2
-3
-5
18
34
2
5
15
-1
-2
5
8
-2
-2
-4
-3
-4
-1
-3
-34
0
-4
0
10
-2
0
-5
-20
-7
-1
-5
-4
4
-1
1
8
-18
0
-3
-27
-10
3
3
16
15
2
-8
-4
-3
-3
2
4
7
2
9
-9
-1
-2
-2
-3
-6
0
3
11
5
1
2
-14
-8
-3
3
-3
1
0
-1
-6
-13
-2
-5
-9
-1
3
3
-5
-9
-4
-7
-13
-2
0
-3
19
47
8
6
-3
-3
-2
4
-3
-32
-4
1
19
5
0
4
8
15
1
-3
-7
-1
-1
-2
0
-2
-5
-2
7
-1
-1
0
-17
0
2
-6
1
-4
4
0
-1
-7
2
0
-2
2
-1
-1
-31
-5
-5
1
-6
-2
0
-2
-6
-11
-6
-2
-15
1
-3
3
12
6
-3
-4
2
-1
-4
-5
-1
-5
3
2
13
-8
-2
-1
-2
-8
-4
-4
2
9
-2
-2
7
3
-1
3
8
-2
-1
-5
-8
-10
-10
-4
3
-2
2
7
5
14
13
0
4
3
-2
0
13
2
-1
-4
-3
-4
-2
-5
-14
-9
-4
1
-3
0
0
0
3
20
13
4
9
-1
2
2
28
7
2
0
-25
-2
-1
-3
-15
-11
-2
-2
-11
-1
1
1
4
-1
1
0
5
2
-5
-5
-11
-2
-6
-7
-1
-4
2
-1
-1
-3
-6
-3
-8
2
1
0
6
2
-4
2
-5
1
-2
-1
7
2
4
0
-1
-2
0
2
-4
11
-6
-1
3
0
3
-1
-8
-4
22
9
21
5
-2
-1
5
-3
-5
3
4
1
-3
2
-3
-7
-11
-5
3
-4
-2
1
4
1
2
0
-1
0
0
-4
-5
-2
-8
-5
-7
-2
1
-5
-4
-18
-7
1
2
-2
0
2
5
18
21
3
-2
-2
-2
-4
8
13
9
-3
1
-7
-4
0
16
10
-12
-4
-4
4
-2
-1
-12
-3
6
3
7
-1
-1
-1
1
-7
-9
-14
-30
-9
-4
-4
-10
-14
-6
7
9
4
1
-3
-23
-13
-7
2
-21
-2
2
5
9
0
-2
-2
3
0
3
2
-3
12
1
0
3
1
-7
-6
-6
-24
-6
-7
-12
-3
-5
-2
10
17
-4
-1
2
1
3
1
11
1
-3
-1
0
-2
-5
-5
-11
-47
-35
-9
-4
-30
10
3
-5
25
38
8
10
20
-7
-6
-9
20
52
10
-6
12
1
-14
0
8
0
2
-1
5
6
-11
5
0
-1
2
6
0
6
12
17
-2
-21
-3
5
-5
-8
-5
-25
-32
-12
-9
12
-15
4
18
31
23
12
-12
-50
-7
-3
-4
-13
-2
-1
31
35
17
-6
-4
-22
-18
-8
-1
-4
-8
2
5
-12
-6
-7
-10
-26
-5
0
2
20
10
7
9
29
7
-2
-2
-27
-13
0
-13
-14
-1
1
2
23
18
1
6
2
1
-2
0
-8
-10
-7
-7
13
-4
-6
-15
-20
-25
-10
-11
-4
-6
2
-1
11
23
10
-2
-18
5
0
0
-5
-13
5
-1
2
3
-1
2
10
-9
-14
0
-1
-5
-1
-3
-1
24
2
4
7
0
-4
0
7
4
5
-1
5
-5
0
11
-10
-9
-3
-3
-14
6
6
-17
10
3
-14
-2
3
-4
2
16
-6
-2
-22
-2
4
2
-13
-15
-7
14
46
6
6
-9
-1
-3
-9
-19
-22
-8
-13
-8
-5
-8
-2
8
5
2
2
27
6
3
-7
-1
9
1
16
1
-6
7
-6
-33
-20
-12
-8
-12
0
-7
24
41
7
12
18
-7
-7
4
20
16
-4
-4
-13
-10
-10
-16
-2
3
-2
8
13
-5
5
10
-6
-30
-26
-8
9
12
1
-4
-13
-7
40
9
7
3
7
2
29
-8
-10
-11
14
-5
-2
6
-29
-17
0
6
2
2
-3
9
52
21
-4
-2
-13
2
-9
-8
-45
-24
-20
-5
2
-3
5
12
30
14
2
1
4
1
5
-4
-24
-12
6
-8
-13
-7
2
-14
-15
11
2
2
-11
7
-6
-9
29
0
-8
-9
-10
-5
-2
14
-25
-6
1
3
4
-17
-3
2
1
-6
-13
-1
14
-1
1
-16
-20
-43
-27
-11
-18
9
22
10
2
44
55
5
3
10
-2
15
-18
-11
-2
10
10
-2
2
9
6
15
-1
-2
-6
-8
-11
-6
16
19
-4
-8
20
-14
-24
-11
-10
-43
-27
-10
-65
-13
35
-4
5
13
3
12
15
22
-2
19
-24
0
9
0
4
5
16
4
18
20
-3
-3
7
7
-3
-3
10
-6
-11
1
9
-1
-14
-5
-7
6
1
-6
-29
-11
-21
-13
-3
-14
-4
-5
-11
-8
0
-4
-13
0
7
2
37
-19
-3
7
-16
-16
-11
8
15
33
0
-15
2
2
-3
0
6
4
6
-5
23
12
0
-9
-27
0
-12
7
-29
-10
-1
5
10
-10
-9
-23
35
-28
-26
-10
19
-18
29
17
-37
-7
51
22
-1
22
8
-5
30
3
-6
1
-6
2
4
19
0
26
47
9
-7
1
-18
-17
15
-27
-58
-22
-26
-22
-14
4
18
33
-77
-24
-8
-8
24
4
-30
-27
81
40
32
20
-45
-58
-5
60
26
12
-11
6
0
15
-10
-19
-11
-1
8
5
0
12
22
4
-19
-5
-3
-16
-19
-10
-6
-13
-54
-23
-17
-34
-34
-5
47
-2
-22
0
1
4
-36
-43
-44
-7
12
-6
3
2
71
31
-26
-18
0
-8
-20
15
22
51
0
18
-6
4
12
8
-9
-8
-3
-43
6
-5
-19
-15
-15
-11
2
9
-24
5
15
-17
-14
-4
-2
-1
26
4
7
5
-6
12
18
12
1
-3
1
2
17
12
-9
-23
-12
-16
-35
-3
8
-5
6
18
6
15
25
-1
-28
-17
-2
-63
-21
2
1
-1
25
-14
4
91
44
7
-2
-13
14
-13
2
-18
-22
-9
7
62
-5
14
-11
-18
10
-6
-24
-27
-17
-6
1
-6
-19
7
40
1
-24
0
-11
-4
-43
-24
-43
-25
21
4
-8
9
37
24
47
-25
5
-52
-4
1
-27
-25
-51
28
9
56
14
33
28
4
-11
-50
-36
-33
-1
-23
-12
-3
1
23
52
18
2
33
20
-1
34
98
8
24
2
8
-5
10
47
-13
-9
1
0
-75
-68
-10
-51
0
-25
-8
-2
59
96
18
-7
-3
-10
15
1
7
-35
-19
-58
-52
-3
29
4
8
30
2
32
16
-18
-16
-8
2
-34
0
27
0
13
17
-3
-19
-3
12
-7
-13
-32
33
5
-47
-32
-15
-13
-37
15
39
-21
-29
12
-10
19
23
-11
-75
8
30
13
1
-16
36
-1
10
-4
-37
-65
-15
20
9
56
20
-1
28
14
-2
-57
-19
8
50
5
-17
-43
-20
-23
-22
-1
9
-8
-7
25
11
102
50
13
-38
44
25
20
32
-24
26
-18
-42
-22
-41
-16
-16
22
1
11
47
-10
-3
5
7
-68
-74
-43
-64
-2
30
23
0
7
14
28
-11
-14
-44
-41
-28
17
-6
-86
0
-22
16
22
-6
-23
-71
80
19
20
-46
-4
12
-20
108
4
-22
-34
27
34
2
-2
-41
-56
-29
0
-117
-79
-33
-21
-37
26
48
24
56
62
38
33
-7
1
-4
13
60
-5
-15
7
-19
10
44
-18
-45
-6
18
86
2
13
55
22
-87
-100
-62
-85
26
13
-19
-18
104
88
35
70
75
-64
-40
17
12
-10
17
63
-92
80
70
4
64
-32
-45
-82
62
-14
15
-24
-12
51
10
-43
84
-45
-5
12
-39
-61
-2
17
-46
72
40
8
-28
50
65
10
20
-70
-128
-19
-72
-14
-28
-33
-119
27
57
-1
64
3
11
39
-40
41
26
1
30
-42
-19
-19
5
-69
-48
-6
-84
-72
-17
-8
-65
32
6
-17
72
94
62
-8
73
20
-24
17
-21
-24
4
7
38
-3
-8
-7
-127
-99
3
88
-51
-77
-76
-40
-30
-60
-93
-88
-112
84
84
39
75
69
40
76
83
-77
-31
-6
63
-7
14
109
-36
82
44
21
-20
-29
-20
52
1
-40
-83
-27
-20
-46
27
26
-98
-71
10
-14
-122
-57
-74
-128
55
82
-32
-9
108
98
24
67
52
-103
-72
7
-33
-43
30
-67
-98
47
46
-6
42
42
13
36
127
48
39
43
3
-19
-19
-42
34
3
-17
3
-20
15
32
43
1
-27
-84
24
26
4
-44
-91
-53
-7
95
-6
20
-36
22
-42
-81
-24
-13
-13
-107
34
21
99
36
-7
61
-2
55
26
-88
-72
18
39
-26
-51
-52
39
66
34
59
8
9
73
-73
26
72
38
9
-28
-64
29
61
28
-35
-101
-64
-43
-23
-21
45
-25
32
18
-128
-40
25
-97
-48
27
-65
-55
-43
85
-69
23
105
59
9
67
127
57
94
16
24
-22
16
-74
49
-10
-49
27
-22
9
14
-3
-89
-20
-26
28
-38
-84
-7
69
-70
-37
15
-2
38
26
-8
-68
-25
-21
-32
-20
-15
35
-8
4
-13
15
2
-9
-45
-22
-2
46
64
24
63
4
-5
-2
10
-48
76
-18
20
28
0
13
-15
86
-16
-40
-99
-44
-97
-101
-23
42
-128
32
34
-72
-41
-48
-27
-63
99
-23
-9
40
75
22
-22
73
-38
9
-54
-22
1
25
27
-74
-4
-22
80
61
-18
-96
23
121
-81
-51
9
-8
39
69
4
-101
-44
127
-49
13
125
55
-2
15
127
-86
-31
-12
-14
-10
-39
-8
-100
-15
7
40
-76
-115
-43
35
87
65
52
19
27
58
47
8
25
-61
-45
-4
-62
-58
-13
-8
-30
62
123
-17
41
30
-2
9
95
38
-14
-44
28
67
27
-22
-31
-37
-88
3
-25
-12
8
69
-42
-16
0
18
0
32
-14
-125
-48
-30
-62
-13
-43
-79
-31
13
-115
-79
-77
-97
-60
-8
-57
-126
-124
103
-65
102
19
5
15
93
104
37
113
6
26
-27
-38
73
-115
-5
-3
-46
-114
-27
26
47
-82
-39
-69
13
99
37
53
28
-117
-70
-22
-40
-19
-46
-34
-107
-40
-62
22
35
-128
-41
-30
-87
-10
9
0
19
-13
-74
-48
-24
-59
24
46
45
127
95
83
49
102
-79
-50
-28
-85
-72
-6
52
-100
7
7
-33
-32
-63
-47
-23
-48
-54
-33
-13
8
-15
-8
-45
-83
-41
32
-2
-81
-51
-1
-25
-2
112
24
49
56
83
24
-68
85
-48
10
-25
30
0
16
63
-54
20
-21
-7
-20
-32
-53
-118
-41
62
127
17
79
86
18
38
38
-93
-71
-43
-39
-73
23
127
-84
30
10
-26
-35
-2
57
22
54
-85
-3
-47
97
37
-14
-18
48
79
99
51
80
50
-9
110
24
-101
-29
-42
-28
-96
-108
-128
-74
56
11
52
74
72
93
74
117
-7
36
-45
-75
-64
57
61
-55
-36
-91
-31
-17
-13
-32
-4
-124
6
17
-8
16
24
-23
-15
-91
-46
-2
30
71
-24
-31
1
64
102
-11
56
-26
24
-45
1
65
-14
24
-36
-10
-38
54
-128
-3
-31
4
7
-38
-7
19
127
-121
11
-27
30
-124
-94
6
-128
71
86
64
18
120
96
36
102
127
-107
-29
-33
-95
-115
-52
10
-128
127
38
-22
-49
-49
-36
-34
107
-13
18
11
-39
15
38
102
-17
-50
-24
25
78
74
0
56
-79
-61
-86
-23
-108
-66
-66
-69
-119
8
69
16
-14
60
62
-74
68
-18
-30
-29
49
35
46
-47
-9
83
106
10
-48
-17
10
20
71
-32
-43
11
14
-7
-33
-5
-20
-110
-50
25
-103
-110
-6
55
-128
80
-21
-61
65
97
-4
34
72
-76
-31
38
52
8
16
42
-103
-37
-42
3
-45
-27
-92
-61
-61
30
76
30
26
31
111
123
-122
-51
-17
-18
-84
-48
-9
-97
23
6
-2
-30
-13
19
11
-16
-41
51
24
15
64
43
12
30
69
2
-35
2
96
32
-38
27
-15
-66
-30
-55
-87
-46
-19
-9
-128
-91
-101
-55
-122
-53
-36
-105
-4
41
63
6
-96
-48
61
21
77
100
54
65
110
108
34
85
122
11
36
39
16
17
-19
-6
-79
-50
-8
-18
-35
-33
12
-48
-92
-56
-41
-9
-11
-10
46
127
-118
-28
13
-23
-122
-46
15
-70
30
33
108
11
55
-2
-67
-20
13
-48
-19
4
11
-19
-25
24
-69
127
105
53
42
46
40
-51
127
-114
-58
-47
-27
-44
-41
-27
-66
0
-14
-16
10
8
25
81
-46
3
-4
32
-85
-103
-90
9
-59
-49
42
-12
106
82
89
5
47
92
85
4
-5
5
-18
15
85
6
-19
41
1
14
70
53
-65
-29
-90
-2
-32
-64
5
9
-29
28
32
-1
56
56
-30
-34
-17
59
58
-4
19
-22
-10
-11
69
-71
-83
13
-59
-56
-36
1
-92
-32
-49
-75
83
18
-11
-114
-7
81
61
80
29
61
29
98
51
7
-55
38
35
46
3
63
-128
-22
-20
-62
28
-17
36
9
-69
-116
-93
18
-35
-48
32
-9
-111
35
26
53
56
5
-3
101
43
-88
-65
-94
-29
19
1
-58
-16
-44
-3
4
-10
-7
-27
91
-81
24
67
11
-14
-30
26
11
-57
-66
-63
-59
-26
-6
-29
-101
23
87
91
10
58
49
-8
-50
99
-29
-48
45
28
-54
-53
59
16
28
16
-21
58
98
127
78
18
39
-47
33
-128
-128
-70
20
20
-48
18
-12
78
73
31
0
-128
-50
-31
-24
-36
23
71
-102
14
127
127
101
54
18
-83
3
127
-122
-128
-23
-13
-34
15
98
-128
-5
-84
5
-107
-79
-28
-41
84
-52
-18
-34
-89
-15
-46
127
-56
95
65
-6
66
57
-2
-80
127
-76
-41
-44
27
-15
49
-37
-108
17
81
-1
-51
-26
-42
46
-124
-20
29
27
39
-44
4
-102
-102
-108
-36
-15
21
29
-4
127
123
-6
-37
-19
15
17
-25
-30
28
-23
-76
31
-24
-3
18
35
-22
-38
23
28
88
-60
-15
-61
-33
122
67
-10
70
113
64
114
85
5
6
-64
-38
-109
33
-49
-81
-76
-35
10
-63
-72
51
6
-126
12
64
29
-16
17
-9
8
-58
-88
-60
-44
-39
16
-70
-128
-93
92
-20
40
34
20
-36
89
84
-56
100
6
31
-18
-18
7
-99
-53
-19
-35
6
71
4
91
-47
102
30
28
-56
-41
-4
-81
58
-55
62
-37
-58
-15
3
-7
-128
-80
-112
33
35
-101
-29
13
-58
127
97
15
103
101
105
83
127
-78
-10
35
-36
-34
3
70
-128
-13
-44
11
8
0
0
-97
-74
-25
2
1
37
-51
-17
-42
-68
-43
-43
-35
-128
-51
-124
-128
-30
82
-4
-15
112
51
8
112
87
32
16
57
-24
-27
70
32
-82
-13
-17
-81
15
98
27
-15
-49
-67
-8
105
41
-29
4
51
-117
27
-71
-63
3
28
-44
-63
66
55
20
-9
-32
-24
-103
-27
-28
-41
-2
-3
-57
-59
21
-32
-74
106
95
-9
4
28
23
80
24
-84
16
9
-30
-37
20
1
-128
16
44
-47
-2
5
-36
-35
78
35
-4
32
23
21
-52
-75
-3
-6
-78
-92
-46
-10
45
-36
-75
30
-98
57
16
-39
8
52
53
-128
19
-43
-14
31
-42
-122
-50
72
41
28
-23
0
-19
66
127
-20
-17
-5
-5
-37
-27
-86
40
-13
1
17
-46
-2
34
-7
-98
-61
-44
-9
40
-29
6
52
-93
83
-23
-91
-59
14
-23
-10
127
-21
47
45
8
3
-2
66
-21
-38
-25
-36
-113
-38
-4
-106
-41
-9
33
33
59
15
-20
50
98
-30
19
35
-21
-12
67
25
2
53
-13
-37
-10
33
-22
-91
21
-22
19
-42
-31
-35
-25
41
3
-45
-63
43
0
-14
-47
-59
-128
-34
-22
-25
2
-12
8
-98
42
104
34
25
-24
-18
-30
86
113
-51
8
4
12
-14
27
-18
-107
46
-38
-42
-13
19
78
127
-43
-26
28
14
36
29
-46
-1
-53
29
-33
-30
4
-13
4
35
68
-19
3
4
-14
-25
-54
23
22
21
1
24
-18
-4
27
34
30
-14
-26
0
-10
10
22
8
-59
-25
-7
19
-9
-20
-9
-46
-10
32
27
8
23
39
1
15
32
-8
-9
-8
-10
2
5
-34
-13
-4
-12
1
-12
-24
-25
5
-10
-2
-1
-2
22
8
-11
-27
6
-4
16
3
-17
-41
-6
15
-17
14
0
-1
-14
3
0
-57
16
5
-3
21
3
12
20
63
24
6
-8
-12
17
17
20
48
1
10
-9
14
-6
-4
7
-65
-3
-3
-1
-16
1
10
18
37
23
-1
19
1
5
-1
-21
32
-21
-39
-34
-13
-7
-1
-1
-22
-34
19
5
11
13
6
-1
15
26
9
0
4
13
4
-25
-5
17
0
3
8
-8
-7
8
8
-13
-5
-20
2
8
6
-2
-37
-20
-8
2
-37
4
5
2
-1
-6
13
-6
30
-13
-9
1
9
15
-3
-5
-27
-9
-1
7
27
-5
-4
-7
38
25
5
0
-23
-2
4
3
-32
-9
9
9
70
8
-13
-8
-12
-12
-9
-5
-40
-12
8
5
5
23
2
-3
-3
-2
-4
-4
-7
19
1
-4
-59
-1
-9
1
22
-18
-3
8
43
3
11
0
-12
-2
8
1
11
2
1
1
28
3
4
-1
-28
4
-1
-3
21
-9
2
5
7
-1
-12
-2
-5
22
-5
-10
-24
-15
-2
11
4
-26
-2
-7
5
-1
4
-5
-6
-1
-2
0
-11
6
-4
-4
-39
-8
5
11
24
1
1
-3
33
26
0
-1
-2
-9
2
0
-21
4
7
-4
-8
2
6
11
-4
5
-7
-7
41
5
-6
-11
8
-14
-5
10
-3
0
2
7
-12
4
-3
-4
-16
0
-7
-4
8
-28
-8
-1
16
-2
4
11
-1
17
8
5
5
-1
11
6
1
23
5
-16
-9
-1
-15
1
16
-14
-2
1
-4
-1
3
-2
-15
18
0
-5
71
-6
-12
-12
-8
-26
-1
-10
-66
-13
6
-1
1
5
5
18
42
13
-14
-3
-15
-28
-15
-13
-19
-2
12
3
22
5
1
-11
8
-6
-2
-14
-35
33
-4
-3
-2
14
-20
-9
-49
-76
-15
-2
-25
-22
19
7
6
17
8
11
29
-5
7
7
39
24
2
-4
-63
-2
4
7
-17
2
1
12
41
0
21
-4
62
-1
6
-3
-13
7
-18
0
-89
-31
-2
14
24
9
-20
-6
9
21
-9
-14
-24
10
3
-3
19
-7
-4
-5
-4
1
-2
2
19
65
0
-2
9
-9
-31
-11
-47
-56
-11
-1
-38
-6
18
5
-17
23
1
13
28
13
-2
-8
14
-28
7
2
-28
-15
10
4
-30
-4
2
-4
15
19
-4
12
47
25
-1
-5
2
-7
-23
-6
-14
17
-8
-2
-18
-3
5
-7
-18
-52
-5
-1
19
1
5
2
24
45
2
-8
-23
0
-1
-7
3
13
6
13
18
-1
10
-2
-15
-35
0
8
26
-3
-14
2
42
18
-4
-13
-19
-10
10
8
-25
-23
4
12
37
19
14
6
25
1
0
-16
-4
-1
-7
-10
3
9
2
18
13
2
-1
-6
-18
-8
-3
-10
-21
-2
-11
-6
12
15
-3
-6
-8
-6
12
9
49
2
3
-4
-8
-13
-3
0
-3
-13
-3
-4
-3
-1
0
-4
-14
-6
-1
2
2
1
-5
1
-32
7
-5
-7
-11
-7
-5
-6
-3
-2
-2
-3
-15
-5
10
-2
-3
-17
-1
-3
19
-2
-4
-1
-41
-8
-4
2
-15
1
-8
5
-5
14
3
3
-15
1
7
-1
16
22
5
8
23
8
0
-2
-7
-7
-7
-12
-20
-4
-3
-7
-8
-16
-1
6
0
5
-5
2
2
-12
1
13
1
-2
3
0
1
2
1
-6
-8
-3
0
-12
-20
39
3
-3
0
-2
-10
4
27
-48
-4
-4
15
-7
0
-2
-14
-13
-3
2
2
5
-4
-18
-32
-22
-5
-5
-6
-2
14
3
20
0
-3
0
-7
0
1
3
-27
53
7
-10
-6
-8
-3
-2
15
-27
-5
4
5
1
4
2
-4
3
-2
-8
-9
0
3
6
-8
-17
-2
5
22
11
4
0
28
18
1
1
4
-3
-6
-4
-9
-28
-4
-5
-3
-7
0
0
38
46
3
-5
-31
-5
1
3
-22
-23
3
12
0
9
-1
-2
11
-1
-7
4
20
5
-3
-3
-11
-9
-1
-4
-6
0
1
-4
19
12
-4
-6
-20
-1
-2
4
7
-4
2
3
-5
-3
-2
1
-21
8
-2
1
-8
-2
-2
5
-14
-13
2
-5
2
-7
-2
0
-12
-9
-7
-6
2
0
-5
-3
16
-3
0
-4
-8
-3
2
-2
-24
8
4
3
3
4
0
2
36
28
5
-6
-3
-10
10
9
-27
-11
4
7
7
11
-4
-2
14
12
-1
-5
0
-4
3
4
30
-26
-8
-2
4
3
-9
-9
-7
0
-1
-1
-32
-5
1
1
0
8
1
4
21
-4
0
0
-30
-19
0
0
5
1
3
1
1
12
0
-8
-11
3
-4
-2
18
3
0
4
5
-4
2
-5
-4
-4
-1
5
1
3
1
0
5
-31
4
-3
-12
-4
-6
-9
-33
22
-7
-7
-27
-3
1
0
-17
2
-2
-5
6
-1
-3
0
23
-12
0
-2
12
-1
-1
3
14
9
3
3
-1
0
1
3
14
13
5
2
1
-1
0
-6
-13
-36
-1
-3
1
-3
1
-6
12
22
-4
-1
10
10
-3
-2
-18
13
-2
1
-2
-5
-1
-1
30
-14
1
1
1
-1
0
0
-9
-2
-1
-4
5
-1
2
7
7
-19
-2
-4
24
-5
-3
-5
-16
5
-3
-3
2
7
1
0
1
-1
4
12
-16
3
-1
1
-1
2
-4
-2
9
0
-3
-1
-20
-10
-2
-5
-10
-3
-6
-10
15
24
4
-7
-24
-10
-5
-8
8
4
-2
4
26
2
1
-4
2
5
-1
3
-4
1
-4
0
-38
-16
-1
-1
-7
-3
-1
2
-9
-9
-6
-4
0
-5
1
2
12
15
1
-4
-1
0
-1
0
13
9
0
0
-6
1
-1
-1
12
2
-2
0
4
-2
-1
2
-2
5
3
1
-8
-1
-2
-1
-6
1
-1
0
4
1
-1
-1
-1
-10
-1
0
-2
-1
0
-2
-4
-3
-1
0
-2
-2
3
3
23
-27
-1
5
0
2
-2
0
1
0
1
-2
-18
-3
-2
1
2
7
-4
-5
0
-1
-3
-5
3
9
4
1
-5
-1
-6
-3
0
-7
-3
-3
-5
-8
2
-1
-2
-11
-2
0
-3
6
3
-1
-8
3
-2
2
20
3
2
5
9
-9
1
5
-1
2
0
-1
-8
20
-4
-1
-1
-3
-4
0
5
21
-1
-13
-10
-10
0
0
-13
-37
-4
0
-18
3
0
-2
9
13
2
10
39
2
0
2
-6
-6
-3
8
-2
7
-4
-10
1
-11
-3
-3
5
-4
-3
3
12
23
-3
-3
-6
-4
-2
-4
7
18
-1
-4
-17
-6
0
5
-26
2
-13
-3
10
0
1
-1
-4
-25
7
4
-1
0
1
-3
5
-2
12
5
6
3
-1
-2
14
5
-6
-9
-15
-3
-3
-9
-16
1
2
-5
-3
-5
-1
1
9
0
-11
-6
1
0
-4
-9
-23
-1
-9
3
-3
-1
0
1
-5
-17
-3
-1
-6
1
3
3
-4
-21
-17
0
19
1
-1
-1
5
16
12
3
-6
-4
-2
-4
2
13
4
-7
-8
-7
3
2
-1
9
-2
6
-4
9
-4
0
8
-2
7
-1
-7
-1
0
1
-1
-5
-2
2
9
-1
5
1
0
11
-10
-3
10
0
-2
2
-23
-25
-1
-7
-9
-6
1
-2
20
-2
19
5
-2
1
-2
-5
-7
29
3
0
5
3
-6
-7
-1
-22
-7
-4
-10
-3
-1
-1
2
-11
-14
-5
-2
-2
-1
-2
-1
4
10
1
-2
0
1
5
-3
19
1
0
1
1
-1
5
2
-20
2
2
1
-3
-1
1
1
16
6
1
-3
0
-3
-6
0
2
-3
0
2
-1
1
1
-22
-11
-6
-2
-3
-1
0
0
4
10
-2
-4
2
-1
0
0
-5
-4
0
-1
-8
1
3
3
0
3
-2
-2
0
-1
-1
1
11
2
0
2
-4
-1
-1
0
-5
-2
-3
-5
-6
-1
0
-1
1
-13
-5
2
7
-1
-1
1
2
17
2
-2
-3
0
-1
-3
-9
-26
-11
1
1
-1
-1
-2
-6
-31
26
4
4
-1
-1
1
18
34
3
-2
-4
-1
-3
-3
-8
23
-10
-7
-9
-3
0
-3
-7
-30
-11
-4
2
1
-1
-2
-1
26
-10
-4
-4
0
-1
-6
-17
-13
18
5
6
-1
-1
1
-2
-17
-4
-1
2
-7
4
3
26
3
1
0
-4
8
-1
1
-7
7
-8
-2
8
1
-2
-7
-16
-14
-6
-2
-6
-1
-3
2
0
0
0
1
2
-3
-3
-3
-18
-3
0
-9
-8
-6
1
4
22
9
0
8
13
8
-1
2
13
5
-3
6
5
0
1
-1
-12
4
3
-1
12
0
-2
-1
8
-11
-3
1
-7
-4
-1
-7
-3
1
-4
-11
-21
-5
2
9
6
0
-10
-7
-3
-3
3
-3
-15
-2
25
13
4
5
2
10
16
16
7
1
2
-1
-2
-6
0
13
12
-2
4
-4
-2
-6
-16
-18
-10
1
-3
0
-8
2
13
-20
-21
-7
-10
-3
3
7
-7
11
9
4
7
3
1
-2
-5
29
19
9
9
2
3
-4
17
0
-8
-8
2
0
4
-2
1
3
-3
-6
-10
1
-6
-7
3
4
-3
1
-1
-4
-5
4
-3
-9
-14
-4
4
-2
-2
-2
-13
-14
0
-2
-11
-4
-5
-5
-1
-2
-3
-2
-4
-3
-5
-3
-3
3
-5
-4
3
-3
2
-5
-15
-20
-4
-5
-18
-2
4
-11
11
4
3
1
20
4
-2
11
-7
-3
-7
-3
-18
1
-5
1
-4
-4
2
1
7
-5
-10
-13
-2
-4
-5
4
-15
-2
-7
-4
-5
2
-2
-6
-12
-3
11
5
20
-1
0
-7
-2
-1
-6
-23
-17
-7
4
0
11
-1
2
2
-1
-4
-7
0
15
2
-2
1
-15
-3
3
2
0
-3
-3
2
3
2
-8
-2
24
3
4
6
55
-18
3
-7
-42
-2
2
5
-18
11
27
5
5
1
-4
10
11
7
-2
-1
-1
0
-8
-12
-33
-1
2
8
11
1
5
-10
26
-6
-12
-2
9
1
-1
10
26
4
-11
-2
-1
-5
3
-10
-21
-5
1
1
2
-3
4
20
18
11
14
-7
1
-1
3
2
-28
7
-2
11
8
8
7
-20
11
-29
-7
-5
-21
3
-6
11
-6
9
1
4
21
-6
-9
-9
7
-5
-8
-1
8
-8
12
6
-15
-6
-1
6
-3
4
-9
24
-7
-2
1
-9
21
7
3
-10
2
-1
6
-5
-6
3
-13
-8
5
-6
-8
-4
-18
-11
-5
-2
-14
19
-20
-6
9
-5
-12
-34
-4
-42
14
5
4
-15
5
18
6
21
9
0
-26
10
14
5
3
-24
-5
1
1
18
-9
2
1
35
15
3
-3
-9
5
9
10
13
-21
-5
0
-1
-10
-26
-53
-27
-9
-2
14
-7
-2
-8
23
-26
-15
8
10
-10
-12
-6
-7
0
9
-4
27
10
18
37
6
10
-2
-8
-49
5
7
5
3
12
8
-6
-11
2
0
-15
-15
-13
-10
6
-20
2
-3
7
-11
-21
-9
4
36
-3
-23
-43
-16
9
-9
2
12
-26
-6
19
52
2
-22
-18
-25
4
7
-8
-54
23
36
8
2
5
5
1
-8
-29
-14
-8
-7
11
17
7
-1
20
36
7
24
14
-13
-10
5
-26
-28
-1
-16
-17
-4
-8
18
6
-40
-15
3
-20
-28
-31
30
12
46
12
-7
-4
12
76
-7
-6
-41
-15
-8
-11
3
-48
-9
30
36
18
8
51
13
39
2
-2
6
-1
-35
-18
-25
-4
-18
3
-22
-4
16
-8
-7
-72
7
2
-4
-4
-9
-4
34
44
15
-12
-1
13
45
23
27
35
-11
29
9
-8
-5
10
0
36
-15
-16
-20
-11
-69
-21
-57
-76
2
15
5
13
-8
-31
-2
3
-5
-23
-23
-5
-7
22
29
1
0
7
3
-17
58
27
10
-22
-6
-16
12
10
-13
-33
-5
17
8
8
1
-6
-9
-1
-21
-19
-7
-2
2
-7
-7
-29
-64
-18
6
-52
-49
-18
-24
-14
72
13
8
-5
-1
5
2
11
-10
-14
-16
10
30
31
95
39
-26
14
2
17
-19
-45
-96
-62
-14
12
16
37
28
31
-6
32
-6
64
0
-13
-14
-33
-25
-52
44
-70
-12
-7
-18
-16
-11
33
13
74
-8
-17
0
23
61
43
-46
14
-28
0
36
13
-6
-59
82
-4
1
13
-29
2
19
95
-5
-29
1
-77
2
-8
-29
0
-16
3
-8
-37
-9
-7
9
-34
-29
-97
-17
54
27
-5
-30
-27
-27
15
45
-5
-35
-13
54
-59
54
-5
-61
-25
-13
-17
4
17
-32
-55
-54
-36
20
16
-55
-12
20
-56
53
-57
-33
-9
13
78
-20
10
41
100
31
3
-47
-31
-20
4
-32
-18
-33
28
22
38
-15
10
41
95
67
0
45
-100
-29
-49
2
-38
-53
-7
-50
88
71
28
-12
-4
29
6
1
3
4
61
-9
-63
-7
-10
-40
-25
25
-13
-7
13
39
16
67
56
-11
57
10
12
-7
14
-13
-81
-34
-3
11
-21
-71
-20
-51
-19
-25
24
-9
-17
20
54
66
30
26
12
15
71
39
-26
-8
2
66
18
21
70
79
82
110
64
-52
-15
11
-46
-21
-6
21
-40
13
-6
18
25
-18
-49
-50
-28
-27
8
-14
-53
-63
-26
-23
11
31
-7
47
-13
6
-14
19
41
-61
-42
-90
-92
-64
-7
56
-63
44
59
5
111
72
47
-14
48
11
-50
54
32
-10
-8
0
52
-63
-2
-38
-62
-82
-13
72
-116
-2
-27
-4
28
-16
-26
-68
104
66
58
21
-6
19
-39
-19
43
-40
-32
6
-45
-57
9
45
-77
46
37
-6
11
40
7
-71
48
-49
-36
-87
70
84
48
33
50
-15
-20
13
-27
-47
-42
80
19
86
27
2
-1
-8
31
-97
-13
-37
55
21
1
5
-10
54
-79
-33
-38
-27
-43
18
20
20
-62
10
81
33
-19
-46
10
-80
-85
27
41
-50
24
29
-63
55
101
14
-95
8
-23
-38
18
-6
-18
-6
-31
15
-20
-26
12
20
-68
-76
-5
-50
31
37
-23
-67
87
45
70
66
36
8
25
41
20
15
-31
-39
-62
-23
-51
-49
-69
-22
-69
-15
44
64
22
114
-19
-46
4
72
-43
-128
-64
-101
-128
-59
-53
-103
60
67
50
36
-31
39
52
12
111
100
11
-59
127
-38
-36
78
-33
-93
-55
-30
-74
-72
-67
1
-42
-63
-34
-31
-103
88
30
8
11
-33
-66
-39
85
-16
38
8
-3
0
100
39
-113
22
39
-6
14
23
90
68
78
-9
-9
-17
-83
-56
-40
-23
-1
72
13
42
72
82
49
71
55
9
-30
-2
-49
52
11
39
-79
8
52
20
-85
-76
-52
-4
-38
-85
-77
-30
127
106
9
-11
-91
33
22
-15
-95
-59
-60
81
41
-8
78
10
-62
-72
-56
-9
-80
104
115
-7
-1
47
13
-81
-56
-71
-98
13
127
84
26
125
-8
32
-14
-34
-68
-74
-20
-109
28
9
83
-8
-4
-9
18
38
-46
-26
-84
-34
-97
-29
31
35
-75
-7
32
7
-103
-88
-103
-43
29
-57
-3
27
70
99
127
-80
-105
35
-48
-46
-14
-36
17
72
127
-12
23
27
53
-22
-98
-5
-68
-3
3
-5
-65
-4
-39
2
-26
-67
-81
-42
-69
-55
46
5
-103
-18
13
-21
8
-14
-47
-28
-39
-37
-18
5
2
-3
-9
-32
39
121
96
-4
-13
7
37
-19
33
-52
-45
36
-7
-33
-64
-23
-48
-43
-66
-15
8
-11
-30
-28
34
-16
-25
-5
30
-38
32
33
-43
25
46
39
77
122
35
24
95
-18
12
-7
-18
-4
25
75
-13
-77
-64
3
-67
-91
-57
-23
-84
27
8
-16
78
120
2
23
-28
-8
-48
-30
48
-26
119
11
-52
-70
1
26
-31
-42
-35
-7
-98
69
67
-39
96
78
37
-46
124
54
50
23
-1
-18
-9
-24
-20
-41
29
27
-30
-56
5
101
-90
-40
15
-12
-80
-78
-49
-48
-100
-4
-29
51
-28
-46
-55
48
12
69
68
-18
-33
41
33
-6
63
13
5
26
123
107
81
86
-64
-72
-57
-29
-58
-54
-23
-53
9
38
-13
-26
3
13
17
-34
-48
14
13
14
-57
-28
-19
-32
54
20
-18
-54
-118
-6
0
11
-67
-30
6
36
32
5
-13
-13
-11
-9
-42
9
20
25
-7
-27
6
-33
-13
18
-30
-92
-4
47
-39
48
69
23
60
31
29
-14
75
30
-4
-14
3
-5
4
35
-4
8
40
-16
-31
-21
-2
-93
-37
-24
3
75
56
10
-25
-7
-16
-93
-120
-92
-128
-121
-61
-11
-128
22
23
-31
9
76
40
-72
55
92
111
79
-3
6
73
127
89
-62
5
-8
-37
-71
-52
-48
-111
27
38
-53
-40
22
29
4
-21
-85
-22
23
-20
-64
-88
-1
-128
16
-27
-14
-7
-48
53
-13
-9
-32
9
-8
39
18
-54
56
87
76
79
16
24
-1
110
-1
-2
-21
27
-15
5
38
51
127
-128
-69
-54
9
13
-32
-93
-105
-54
44
19
-10
55
6
111
-3
20
29
75
-11
29
56
46
82
108
-13
-92
0
-60
-63
4
-71
-26
-50
56
20
39
50
-36
51
-128
31
-40
-53
7
-45
-80
-110
28
-32
-63
14
23
-21
-87
-58
41
104
74
62
126
108
84
73
25
-89
-93
-57
-6
-50
-18
65
57
73
59
-2
-109
-34
-7
41
111
-82
-26
-6
-26
28
28
34
-128
81
44
-7
-27
-54
-91
-54
-13
-74
-39
25
-16
-51
73
24
-128
-86
-50
-52
37
4
49
127
-128
-26
-52
-12
-13
-83
-80
-128
80
76
68
96
73
1
-82
127
76
-112
-91
-88
-57
-42
44
28
-128
-90
-24
26
-81
-4
64
-26
-101
14
54
60
-109
-98
-36
-81
-128
28
-59
-86
86
75
104
-13
63
71
43
27
-77
-28
-94
-32
40
-102
-98
43
20
-29
7
-30
-53
93
-40
-3
25
41
-52
127
117
-74
31
0
-91
34
45
-40
-44
3
20
-24
-14
27
22
74
-38
-39
-26
-21
5
-3
-36
-61
-104
-128
-65
-40
-41
-81
-75
-106
-80
94
123
26
58
62
43
73
97
-98
-4
44
0
-2
17
54
-108
-35
24
-6
-40
-39
-110
-92
-76
-89
-55
19
-71
-103
76
95
-118
-50
-128
-56
44
25
67
18
64
49
88
-11
-44
-28
-108
-107
37
-23
-43
-7
-20
15
85
108
113
43
9
31
47
84
10
-43
-52
-74
-64
-37
-28
-128
-13
54
-43
77
-23
-28
-16
70
2
-51
28
-22
-11
25
-96
-64
-29
65
-70
16
105
-40
120
106
56
120
-65
-33
-5
29
-43
-14
-17
-115
14
46
10
70
111
37
-4
29
-106
-9
-34
-13
-27
-27
-33
-55
-14
16
-1
13
34
-77
39
127
-99
-42
-2
-37
-30
-126
-73
-128
1
-2
-34
45
101
80
74
31
85
123
104
27
-23
-4
3
46
127
-65
-56
-59
-90
-76
-23
-24
-72
-48
-51
-17
-89
-128
-66
53
-128
-42
64
-37
13
15
54
40
97
79
13
53
96
98
-6
-51
-9
-39
-7
13
38
25
-64
6
94
-116
67
41
-27
-26
-51
6
-74
40
-86
-47
-42
-38
47
-115
8
78
77
-19
86
127
67
127
74
0
-5
-2
-17
34
12
-72
2
-8
-55
50
20
-21
-59
-11
-128
-128
-78
-20
-46
-25
-32
-71
-128
73
106
-73
6
-76
1
15
75
17
-82
45
-46
-35
-10
54
127
-9
-68
-4
61
86
45
-77
-88
5
-6
-27
-80
-11
-13
73
32
-42
-90
24
19
-54
15
73
67
69
91
8
-18
56
-5
-23
14
-59
-26
-88
-107
-50
-3
-28
-50
97
55
83
79
-41
-20
13
106
-86
-31
-41
-111
-99
-34
-71
-128
37
9
-21
127
69
95
-8
127
80
85
101
55
8
-57
30
58
-88
-23
-18
24
-102
-4
74
-120
-114
-32
14
-7
127
48
-117
18
92
106
11
-40
-34
7
70
18
-61
-2
-35
-23
27
-28
-67
-17
-36
-37
39
5
15
-10
108
-78
-14
-30
8
26
-29
7
-13
-33
-128
-61
31
-73
-28
46
68
-128
110
46
57
13
-76
-77
-67
-30
120
-8
-61
65
73
40
30
97
6
44
-45
-27
0
117
21
-32
-26
-26
15
-78
-73
-50
-51
-77
18
23
15
-41
-60
-49
126
127
-24
6
69
55
53
64
-128
-51
22
-24
-35
-26
41
25
45
-28
43
-6
18
127
39
-75
-62
-67
-44
-79
5
-62
-67
-65
-55
-78
-8
0
-32
-68
23
26
66
74
107
68
-6
68
-27
-125
-34
25
75
-52
27
-29
4
75
97
-79
-94
51
-70
-21
109
87
-25
-57
-23
67
-2
-37
-20
-14
-89
25
91
60
81
12
-14
-51
-13
76
-118
-128
21
-43
-119
-41
60
-95
-4
-12
-43
-31
-65
27
32
-46
-56
-24
-96
-5
51
23
73
-128
-127
-59
34
79
66
-49
113
49
108
85
-32
45
113
-37
-27
127
-61
10
55
-55
4
127
52
-55
-55
-30
9
-65
-82
-77
32
-128
-128
-128
-70
-108
-79
-13
-118
-128
-67
111
-9
63
-58
-88
37
14
52
81
47
58
102
94
-38
84
56
-54
-58
-27
-13
-53
84
82
-118
-73
-40
14
4
16
-39
-128
92
-5
20
-16
0
78
46
16
-73
-48
-37
-77
-102
-123
-1
-75
85
81
98
68
14
59
3
87
29
-10
-2
51
84
104
81
84
-96
-43
-37
-66
-75
-58
-44
-99
-95
-113
-28
-45
-3
127
127
-104
-28
-4
-29
-128
-82
-106
-103
39
78
-44
3
55
26
90
39
92
-95
-17
49
91
-12
-45
-46
-86
7
-86
-12
-13
-37
-84
-76
-73
-128
29
-78
-36
-63
53
70
-128
112
127
59
-64
-18
-67
-18
54
-17
-28
-21
-22
28
17
-20
-33
-19
-44
27
-2
-63
-67
125
-54
-47
-64
18
-52
-13
27
-53
-128
45
68
-4
53
48
12
2
-5
-9
27
0
-39
-24
-7
78
44
1
7
7
16
11
71
-2
0
62
10
-15
-4
-14
4
6
42
-128
-64
-45
-119
-65
-10
26
-114
-8
-56
10
50
107
-3
-128
-69
39
65
-56
37
-17
-68
21
-27
37
7
54
70
-25
-21
49
68
-85
-64
11
29
5
78
-53
-128
103
127
-58
-81
-37
-10
81
127
-26
-50
24
-22
32
15
-106
-112
39
64
0
120
119
-38
59
97
-3
65
23
-68
-100
-13
71
-116
-29
10
16
-51
-18
90
-37
-91
35
127
35
2
10
-54
-36
9
-43
-84
-63
-48
-35
-8
-70
-37
-20
24
6
-5
-62
-38
43
-36
-37
-7
-24
-80
-50
-22
-128
47
89
-43
22
118
127
88
90
127
34
109
15
2
-1
-11
29
69
-7
-65
39
20
-11
-53
-62
-97
-38
-90
0
-24
-29
-2
6
-110
-24
-11
-36
-7
-1
32
-8
-56
14
-43
13
-1
-3
-5
10
75
-8
-7
-21
-28
-11
-41
-46
-15
-16
18
19
-61
-71
-4
-20
-12
20
15
-20
24
8
31
-9
59
-22
-26
31
6
-28
-22
-65
-104
-44
7
9
-105
-74
-18
-51
49
60
-13
19
86
82
58
82
76
-37
23
-30
-48
-47
-16
34
-10
-17
-7
18
-19
-40
-6
-58
-76
-29
-64
-34
-2
11
-34
-31
-27
-1
28
22
31
13
-17
32
22
35
27
13
7
26
34
42
42
-28
-7
-1
28
1
-49
-12
-41
27
40
-29
31
29
14
-68
24
-17
-29
-5
9
1
36
35
-1
1
-16
-27
17
31
72
33
36
-15
12
39
-32
-31
-22
52
-32
24
-4
-17
20
19
-25
60
14
-16
-9
-27
-3
2
-29
-60
-23
17
8
11
-13
-5
37
-20
45
12
17
11
6
6
64
42
-10
18
1
22
20
14
7
3
15
-13
10
-11
9
-7
-25
-25
-12
-10
-4
12
-10
-21
-85
-78
-15
7
-1
-17
-65
-58
32
11
-1
10
18
-23
103
103
47
60
17
-17
-7
46
16
6
-12
15
-14
-6
-5
0
-10
-1
-16
-20
-3
-4
-3
-15
-9
-24
-18
-18
-8
5
-5
-11
-19
-2
-6
0
0
6
10
17
-2
-8
2
-12
1
11
-5
8
11
0
16
52
14
-10
2
28
24
11
-7
-41
-18
5
11
25
-12
-14
-10
14
2
-7
-16
-40
10
9
-3
10
2
-1
9
3
-3
0
-2
22
3
-4
-3
30
14
17
17
28
-4
1
3
3
-1
-6
-11
-22
-4
12
4
60
-21
-9
17
-6
11
-17
-17
-77
-1
-18
-12
3
-3
-2
-1
-18
5
18
1
-39
-4
3
-2
-12
12
-1
-10
-3
-1
5
9
69
20
-1
5
0
-4
2
3
-16
-14
-9
-1
7
6
-1
1
-28
-37
2
-5
-14
-9
-2
0
21
6
-10
1
17
6
-4
-1
-6
-5
-9
-9
-16
-5
4
7
27
35
22
5
-47
-5
5
1
-44
-14
7
-2
-19
-2
-1
-3
-25
-8
-15
11
13
7
-32
-10
-40
-45
-2
6
-10
10
28
-2
10
9
-2
1
40
-6
-24
-4
-3
27
-2
-16
-22
-7
2
2
-41
22
0
-11
-13
-8
12
16
43
-40
-12
-12
-18
-5
-14
-15
-84
-43
-7
-8
-8
10
3
-3
8
-8
-6
-6
16
10
-6
-3
32
20
4
9
1
-5
5
1
-33
15
0
-1
9
-6
-3
4
30
-44
4
-6
-3
-5
9
8
83
67
8
-3
11
-5
-10
3
8
8
-2
-12
-14
9
4
0
-53
-4
-2
14
34
-3
2
6
52
14
2
2
-13
3
-2
-9
-38
-28
-2
5
0
-2
4
-7
13
12
-3
-11
12
0
-7
-13
-90
-37
-12
-12
-28
-6
-6
10
57
48
8
-9
6
-9
-3
-3
-36
-23
-3
2
-26
-3
2
2
24
-6
-3
9
28
-1
-3
-10
-26
3
-5
-1
9
-4
-7
-5
39
5
-5
-16
-14
0
-1
-1
1
19
0
-4
-7
-9
3
-2
-38
-40
4
2
-17
-1
-1
0
19
6
3
-4
-16
-6
4
-6
-10
22
1
8
27
10
-4
10
-10
-14
-4
-9
-4
-2
-1
-11
0
-9
-11
3
2
3
3
2
10
-6
6
3
15
0
-1
3
12
22
2
0
-13
-8
-7
-15
-16
-30
-8
-6
12
-12
0
8
-34
14
9
5
-14
12
0
-13
1
-21
-7
6
13
-2
3
5
-47
-25
1
-2
-8
0
-3
4
31
7
4
-6
-26
-20
-2
1
5
-5
-1
0
17
15
-3
-6
-9
1
-1
-22
4
1
-1
-10
-72
-56
-11
5
-68
-2
7
3
53
49
4
4
42
4
-13
0
29
25
-1
-3
-11
-14
1
6
17
11
0
-3
-5
4
-3
-1
-8
-27
-11
-16
-9
-1
2
-4
-67
-46
2
-1
-4
2
0
-7
33
0
2
3
-2
-6
-1
2
0
34
1
-2
1
9
0
-2
33
-14
-8
0
21
-3
2
2
7
35
7
-2
12
3
8
7
-1
-49
-3
10
-1
1
-5
-1
-20
26
3
-1
3
-4
-5
-2
22
3
-2
4
5
-1
2
3
-4
5
-2
9
6
11
4
2
-14
-25
-13
-18
-1
-2
2
0
2
6
-1
3
-4
-5
-2
-3
17
12
9
4
4
0
-2
3
38
4
0
5
1
4
1
0
-15
1
-6
-7
11
-9
-2
-1
-12
-31
-13
-2
-23
7
-3
-5
-4
2
-3
-5
8
-1
-3
-7
-8
1
1
-4
6
0
4
1
24
-10
1
9
4
-2
-2
2
13
4
5
4
2
-6
-3
-4
-4
20
0
-6
-7
-2
-1
0
-24
-6
0
-4
4
-1
2
2
21
-1
2
3
-14
1
-1
-6
-69
-11
-2
-2
14
2
-2
-3
69
11
-4
5
5
1
-3
-2
-29
-19
-2
-2
-7
-3
0
3
-1
13
3
-5
11
-3
-2
-1
8
-5
1
8
-5
0
2
0
-34
-12
-2
0
-3
0
0
0
20
30
0
-1
13
4
-1
-7
44
-43
-5
-5
-9
-1
-1
2
22
23
6
1
-6
-3
-1
0
-38
13
4
0
5
-4
3
9
12
-14
-3
6
-3
5
-3
-8
-24
9
10
-2
-2
-4
0
-3
8
-11
-4
0
2
0
-3
0
20
-8
1
-1
25
-10
5
7
-12
7
5
6
-8
14
-6
-5
-21
-6
-8
-4
-2
-2
-3
-1
23
2
3
1
0
-4
-3
-6
-30
7
-3
-4
4
-1
0
3
6
-1
-2
-9
8
-2
4
7
14
6
2
14
6
3
1
-2
-8
-1
-1
-3
3
-1
-1
1
6
-4
-2
0
-4
1
-9
-17
13
-34
-8
-6
-9
-7
-1
-1
-9
1
-2
-5
-3
2
0
0
13
13
4
-4
-15
-5
3
4
15
-6
0
8
16
6
1
0
-10
25
4
1
-12
-3
-1
-3
-31
-3
0
-4
1
-3
-5
-6
9
-3
-3
3
0
-1
1
2
-27
-13
0
-1
-1
3
-2
-6
-19
-17
-5
-3
5
-2
3
5
12
11
1
-1
-16
-1
-1
-4
23
13
-4
-1
5
1
0
5
11
0
-3
-2
-3
2
-1
-1
-2
-9
0
-2
5
-3
0
4
-12
7
-1
-1
5
0
-5
-6
19
9
-5
-4
-7
-8
1
0
-14
-31
-11
-3
-2
8
-1
0
-9
-4
10
6
-1
-1
0
3
6
12
1
-2
1
0
1
2
7
-3
2
0
0
1
-4
-5
-22
0
-6
-6
-4
-5
0
3
8
3
-5
0
-9
-3
-2
-1
8
-5
-3
-3
-2
-1
-1
-1
-21
-6
-8
-4
-2
3
1
-1
20
24
3
7
-1
1
-2
-3
-20
-25
-8
-5
-4
-2
2
2
-4
4
22
8
1
0
2
2
-20
-12
-7
-4
0
-1
-5
-7
2
8
-4
-6
0
-3
-2
-2
5
1
-3
0
-10
0
-4
-3
10
19
1
1
2
-2
-1
-1
-11
-8
1
1
-1
-3
2
0
-19
5
2
2
0
1
0
3
31
-5
-2
-7
2
-6
-2
-8
-21
-11
-10
-7
-26
-2
4
4
3
-11
3
3
3
4
1
3
7
17
3
6
0
1
-3
-9
-24
-4
-2
-1
4
0
-1
0
9
-5
-5
-2
5
-1
0
-1
0
5
-2
-6
-6
-1
-1
0
23
-4
1
-1
-4
-3
-4
-8
-18
-4
-2
0
-6
-4
0
4
-3
5
-3
-4
-4
-2
-5
-8
8
-3
1
0
3
-1
0
-1
-14
-9
-8
-4
2
0
0
4
-4
3
6
3
-3
-3
2
-4
-1
-8
-4
-1
6
5
-1
1
2
13
3
1
-1
-1
0
4
11
-4
-2
0
0
1
1
4
-1
4
-3
-4
-6
1
-3
-9
8
-3
-3
1
4
-3
2
5
-6
-1
1
-1
0
0
-4
-7
-11
-4
-7
-5
-5
-4
0
1
12
6
6
2
-3
-1
3
8
2
5
5
1
8
3
-1
-3
-6
3
-2
0
-14
-1
-3
0
0
-13
-2
-2
-3
-3
-1
-1
-2
4
-1
1
3
3
6
2
-21
-19
-1
0
-1
-1
3
10
29
17
-1
-7
4
-3
-4
-5
-5
14
4
-6
-15
-4
-5
-6
5
-3
-3
3
-3
0
-4
-5
-21
-8
-3
0
1
-4
1
4
-17
-11
1
6
6
7
-1
-3
-9
-11
-2
-8
0
-4
3
3
12
6
0
4
16
2
-5
-10
7
5
0
2
5
-3
-1
2
-8
0
0
-5
-23
-4
-5
-7
18
1
2
-3
24
-1
1
3
-1
-3
-2
-3
-48
-4
4
4
-22
-28
-5
-3
2
3
-3
-8
1
15
-4
2
-6
-3
1
6
-6
-4
2
1
-1
-3
-7
-10
32
9
3
-7
2
-7
4
0
-14
-8
-4
5
21
1
2
2
-10
-25
-4
-11
-5
-4
-1
-10
-12
21
4
12
-21
-7
-1
1
15
1
3
13
25
13
-2
5
-3
-3
-1
-6
-9
-2
-10
5
-10
4
-1
1
19
-8
3
-6
-10
-32
-18
-11
2
-2
-4
-17
-48
-2
0
0
-3
-2
-5
12
54
26
20
7
-6
-2
7
1
25
19
18
6
21
4
-1
8
0
9
-4
-5
-24
-1
-5
-17
-13
-7
-19
-9
3
-6
2
0
-13
-17
-13
-6
-1
-5
-2
-16
-2
-1
-1
-10
-32
-3
7
3
-3
-9
1
9
13
10
0
12
9
-6
0
8
22
-3
-6
-12
-7
18
-1
-4
-19
-6
2
9
-8
-10
-7
-8
25
1
-8
-12
-12
-2
7
3
-12
-3
14
25
10
2
3
2
18
5
-3
-12
-2
4
-4
-2
-12
-4
-9
-2
-5
-1
-10
-3
6
-5
1
10
30
-15
-9
-3
0
6
-9
-4
-18
15
22
-2
-3
4
10
11
-31
-15
-3
-4
-21
7
4
-3
52
9
0
3
-2
1
5
1
43
10
-1
6
19
-5
-6
4
5
0
-14
-6
-8
-5
0
-6
-19
1
-19
-4
11
-2
-6
13
-22
18
46
10
-7
-2
-3
-5
-14
-13
3
0
-15
0
5
-10
18
-2
-10
-1
-6
2
-2
0
8
-5
-7
-3
1
1
-4
-5
-24
-27
-19
1
1
-10
5
10
5
19
7
-3
1
13
-1
-8
-21
-12
3
-2
3
-1
-8
-8
3
-2
-4
-3
-12
-6
6
-10
-9
1
-6
0
9
4
2
5
-15
-10
4
3
19
-1
4
4
1
-4
-4
-3
-6
-2
-13
-8
4
4
7
0
10
1
-1
-12
0
-4
-7
-5
-5
-6
-10
-14
-10
15
2
-4
-11
-2
9
-3
1
-9
1
-5
-6
0
-2
7
-13
1
6
5
11
0
-7
8
20
5
-6
-3
-3
6
11
10
-5
4
-4
-1
-5
-1
-11
16
18
8
1
1
-1
-2
-12
-31
2
11
6
-3
-2
-4
6
-3
-8
-21
-3
7
2
6
15
-15
-3
-5
0
1
7
16
-12
-7
-49
-12
4
-4
-3
-5
0
-7
21
-5
-12
-5
-7
-4
-7
4
6
5
3
2
-6
-8
-26
-2
-23
3
-10
-3
3
-12
17
3
21
1
9
2
9
-1
21
32
12
3
1
-8
-25
10
-14
-34
-79
3
-1
13
-1
10
-12
-5
23
-17
-5
-14
-9
-10
5
18
11
14
4
30
15
5
19
27
8
-7
2
5
39
-8
-10
-25
27
5
1
-2
-39
14
2
-4
-35
-3
-2
-9
12
3
-8
-2
0
5
-18
-12
-2
-11
5
-10
-3
-53
5
-2
5
-6
-1
15
8
11
-18
-3
9
-15
12
19
41
32
71
27
5
9
-16
-13
-37
7
-17
-17
-28
-7
22
20
25
15
10
17
23
25
9
-22
-24
-20
-26
-15
-10
-4
-7
6
-22
-7
14
2
0
-7
0
17
32
7
10
8
7
-1
16
-21
-16
3
-1
-4
-14
-5
-39
4
4
-6
-15
-21
-42
-6
68
21
11
-13
-20
20
37
30
-13
-26
-22
-23
-6
-4
-14
-20
-42
-23
-5
14
-16
-17
-1
-21
57
8
15
7
37
12
28
26
-43
-2
-14
23
-22
-7
-27
-2
-3
-35
14
-10
-5
-5
2
-2
11
2
13
-8
9
9
11
4
-11
31
-9
-2
-15
-3
51
-17
-4
-22
-16
22
-10
-3
-29
-14
-22
-4
-3
-57
27
0
-24
11
-18
0
16
29
14
11
-7
2
-10
-4
-16
-30
-33
-8
5
1
17
-18
-9
-9
-5
-3
8
5
4
43
19
2
-43
-15
-2
-31
11
22
12
38
5
-11
-29
27
7
-12
-8
-30
8
10
37
-15
-78
-18
-9
0
-20
-14
-24
-1
7
-26
-17
-18
12
21
26
-15
60
99
4
-5
-11
-10
-71
31
16
31
17
41
27
-17
-21
21
0
-60
8
15
1
8
43
-33
37
34
-7
-26
-40
-9
7
6
-25
-40
-18
-12
18
16
41
-41
-2
-1
8
-5
3
-5
-54
14
-35
47
-3
-80
-44
-18
-7
24
-49
-20
18
111
83
27
-8
-7
-7
-41
-34
8
-106
-52
20
0
43
28
-33
-55
15
27
26
5
32
-44
42
53
53
20
2
17
-62
-54
19
26
-52
-21
-36
-58
33
52
8
-5
47
17
-14
7
-5
32
-19
-45
-66
-23
-10
32
44
26
-48
-35
1
-40
4
-4
-17
-9
16
25
7
13
21
4
-74
-88
2
-20
2
10
-50
-91
5
18
32
95
87
32
4
22
37
74
-19
-32
-24
-22
-55
12
-18
-84
-34
-44
-22
13
53
-77
-26
-27
10
9
-62
-14
-2
92
77
14
12
-17
53
9
-9
17
-65
-5
-24
86
-42
-12
27
-29
92
82
-13
-30
-51
-22
49
27
8
7
-31
86
83
36
-61
71
22
-16
46
-23
-59
-18
-13
-42
-42
-28
32
44
-12
1
9
-47
-71
9
-26
-19
21
19
-2
-56
84
105
20
6
39
15
48
68
-35
-34
16
51
13
-28
-27
-11
39
25
-18
-104
1
-16
-14
44
-11
-55
2
-32
-60
-20
-5
-45
-15
11
14
-28
-2
16
97
-79
-58
10
-21
70
6
-3
-82
-12
47
31
-17
-77
-11
11
5
2
35
-7
11
94
82
-7
-43
112
-26
-32
-20
-23
14
17
25
-46
10
5
-5
-29
-58
-17
48
-56
-92
-58
8
-69
-54
17
-49
-128
101
37
20
93
-8
-21
-53
127
1
-9
-4
84
83
11
-21
-43
45
24
19
-2
-26
28
105
-3
3
-36
25
-28
-16
7
65
-49
-59
-17
-17
-13
-62
2
79
-121
-11
-12
-19
-1
22
14
-28
45
11
-5
27
-25
-4
-5
-9
74
49
-36
-52
85
69
13
-19
118
2
23
29
-32
-2
0
-5
5
-72
-68
-19
-41
-62
-12
61
-82
-81
-71
-80
-63
-4
0
-87
-128
11
21
53
-31
-69
-21
-64
117
40
68
4
69
80
4
6
79
71
15
8
-51
-54
-22
25
-10
-37
-38
7
-12
-15
-14
39
-54
-52
3
-10
17
2
28
64
-108
-65
-41
8
-41
-73
20
-32
-22
55
106
-7
65
90
18
-1
91
37
-28
-15
17
7
16
14
28
-56
35
64
-17
-35
-39
-84
-63
27
78
-48
-1
52
-14
-7
97
-29
-80
-2
-5
-23
1
38
-50
-41
-102
-18
-22
-35
8
42
-61
-6
44
-31
6
2
-23
-32
47
37
-47
18
-51
-28
-12
-17
-42
-14
23
-1
19
30
17
-17
14
23
53
36
-23
-25
-2
81
27
-97
-125
-5
22
-28
14
24
-128
110
86
42
89
92
22
57
97
-100
4
8
-94
-101
-49
20
-105
-28
29
22
91
15
5
0
54
54
-12
16
53
54
21
94
45
-117
-120
-35
-42
-110
20
100
-128
-3
-24
-44
56
67
-42
-100
114
10
77
62
15
-36
16
71
-42
-53
0
-77
-86
-34
-8
9
-82
-30
-13
-17
-53
-24
-29
-53
-116
42
16
31
-44
-54
-39
-17
29
-36
-69
-39
-24
-4
73
-37
-96
127
58
2
-14
57
-3
3
127
-60
-44
-20
-60
-16
-26
-116
-121
-9
24
21
-46
-39
-12
2
-28
-9
-34
7
45
-51
-37
21
-48
29
47
15
42
96
42
-106
23
32
42
0
97
60
50
35
107
18
28
9
-22
-75
-12
32
-25
-39
48
25
32
55
20
42
-33
-69
-79
7
-45
-128
-29
37
-128
-3
18
-8
22
26
5
1
5
55
5
53
41
39
-12
-54
-79
-20
-13
-72
-69
-7
-44
-128
73
13
54
-7
-9
-25
-38
92
71
37
-8
22
-90
-2
8
54
-79
-103
-94
-6
4
-39
48
127
-127
7
-3
4
-39
-24
-40
-86
-128
74
82
54
44
-46
-14
-54
79
-13
-87
-5
91
52
52
85
127
-51
40
32
-33
-43
3
-77
-89
-9
-71
-62
-65
-54
-12
4
-15
2
40
-14
52
23
-2
13
-103
-112
-37
-88
-128
-128
-51
-49
-128
89
62
79
97
85
112
127
118
-52
-17
27
36
-12
-10
17
-66
-57
-73
15
-33
-23
-8
11
-123
-93
-50
18
-27
-43
-1
64
-84
-100
-111
-102
-128
-73
-56
-128
-128
99
-39
25
-25
54
-34
-112
127
34
13
11
26
34
47
127
38
-36
-18
21
41
28
-26
-83
-58
-5
10
-29
-27
-8
26
71
36
22
7
-14
-17
-9
26
108
-69
-73
7
47
-46
-50
-12
-7
-66
27
14
-51
127
107
9
-52
124
60
1
9
32
-11
-45
-45
31
-64
67
-9
-21
-31
21
72
-52
-89
-47
-35
-54
-41
-34
-99
-115
1
51
18
-5
-8
-40
30
55
67
32
5
18
21
44
127
61
-18
71
-50
-5
39
-14
-6
-14
-101
-54
1
28
-48
27
60
-127
-1
0
-28
-128
-32
-87
-123
-2
28
51
23
6
26
-20
28
-7
-45
-69
45
-14
-101
-9
73
-32
-3
59
-21
-46
-2
5
-29
-24
-44
-35
10
-43
-26
43
16
-128
13
-56
-11
9
13
22
6
66
-12
66
-10
6
-1
-19
-21
-2
87
-4
-11
77
41
-1
43
116
71
34
89
17
-4
28
-14
-79
25
23
-67
-105
-118
-38
29
23
-44
-10
-9
51
46
16
-73
-28
35
38
11
9
12
-20
-7
97
-29
20
-24
-7
-36
50
109
-106
-106
-83
-42
56
33
-80
-103
-36
57
-22
13
-32
-45
-49
79
91
8
42
22
3
0
22
-15
-87
125
-70
-70
91
50
55
71
127
-34
26
61
-47
-83
-59
-72
-128
-105
-52
-32
35
4
126
57
-54
-10
7
-51
-107
74
-19
-128
33
67
60
73
63
28
-11
-28
55
-128
-6
-23
9
-6
-13
42
19
23
-17
41
-8
-30
-43
-45
106
-63
-37
-54
-26
-48
44
46
-128
16
51
20
-32
-41
-40
78
98
-49
-26
21
-21
-24
-52
-14
-95
9
10
25
4
20
-86
-124
50
85
2
-30
39
-30
-1
127
76
-55
41
7
-41
97
62
29
-6
31
-12
33
60
55
127
127
-102
-2
54
11
64
115
-71
103
-128
-108
-108
49
33
27
-29
-62
-74
-33
54
-48
-38
-115
-123
-91
-100
73
69
12
44
75
-84
-88
104
-44
-34
-20
-24
-31
127
67
38
-18
11
13
-23
-52
-40
12
-56
-108
-42
14
41
-2
28
0
-128
-48
-106
-55
-37
-83
13
-33
-74
77
123
-35
-23
-14
-69
-88
55
68
15
93
93
127
107
62
56
-40
-96
-38
3
-57
36
25
-21
-3
-72
-37
62
42
27
-66
37
82
105
9
-22
-43
-8
127
-75
-18
-2
-30
38
27
-49
-29
101
69
-42
21
-5
25
-18
74
-39
-47
-7
65
19
-8
-18
-9
-108
-99
-120
-35
-37
-52
9
-82
-128
-28
-18
20
-31
-22
33
43
41
122
127
45
41
-21
-58
-128
69
-11
-47
-20
-30
9
11
28
-61
-128
-109
-100
-81
-6
19
-88
-128
107
127
52
-2
8
-90
49
60
-122
-34
27
-12
29
67
80
-70
-22
-3
19
-104
-79
38
127
-88
-113
-48
-34
-46
-20
17
-58
-51
43
29
34
91
58
81
92
41
-88
14
15
-14
-40
41
5
-75
-103
2
2
-17
-40
-30
-21
-98
-35
-56
22
-10
-36
-54
-23
-68
-88
-88
-66
-68
-45
-56
-80
-128
53
42
-9
-62
-13
-41
18
107
-4
-41
-13
0
-3
67
75
28
98
16
47
66
34
-3
30
127
4
-38
-32
-21
2
31
-17
-128
-12
63
92
21
-18
-81
-55
10
54
7
-54
85
-83
-119
25
2
-58
-59
66
11
-10
7
-59
-89
19
-45
-115
69
62
113
66
81
71
49
51
48
70
74
98
36
-54
64
16
-4
-32
-87
-52
-23
94
65
-31
-33
-61
4
25
-49
-59
18
39
-84
-115
-72
-14
-128
-47
-69
-35
28
-25
-33
-92
-126
116
95
3
15
122
15
26
127
-23
29
2
40
41
43
127
-108
-59
-47
23
-37
-39
24
30
-31
-62
-25
-45
-70
-49
-34
-33
-128
-56
-1
52
-13
-5
-56
-110
31
82
-4
-17
30
65
49
-8
114
-79
-31
-7
75
-79
60
95
-77
98
-43
-42
22
76
-32
9
110
-115
-74
-38
-11
-8
-19
11
-128
-83
-2
21
48
-17
2
-51
-53
88
126
-5
-21
-5
-62
-18
-41
-84
-71
21
-91
-95
46
10
-128
-50
-57
-38
-128
-49
12
-99
-107
120
127
68
93
83
-16
127
121
-93
-17
83
-78
-60
-16
-62
-115
-77
-91
-92
-64
-34
70
31
-81
8
127
1
-73
-83
19
69
-67
-128
-128
-44
-110
29
-82
-97
-128
106
111
-53
53
31
-76
76
108
-66
-60
0
31
1
-22
-39
-73
-17
-38
48
63
44
78
22
-83
-9
-7
-6
-33
-56
-8
17
-62
-47
-128
-10
-26
-1
-18
-85
-46
-11
-32
-10
-36
0
-21
-99
-69
104
95
61
1
2
16
26
91
33
57
4
102
84
65
109
-23
60
60
-21
-42
-16
-16
1
-7
-29
-54
-24
-15
-44
16
80
-23
-18
-12
6
-13
-41
-2
-29
-38
48
49
22
0
24
1
-8
108
-47
-32
-45
5
31
6
-24
70
47
62
11
-14
-30
-32
-17
-18
87
78
-25
52
29
23
44
127
-31
-63
12
-18
-33
-34
32
-12
-38
-57
10
3
6
31
-40
-36
-17
36
-19
16
21
15
74
10
-8
-39
35
-32
-21
33
-14
35
14
19
-20
79
47
7
66
-9
-34
-34
-25
-10
-1
-22
-82
25
42
53
16
12
10
-12
29
47
-49
-94
-30
-6
12
32
45
-99
26
94
-19
-67
-67
3
-48
38
2
24
45
-33
-26
-10
-2
0
21
24
38
65
-3
-14
18
24
-58
-95
-35
9
54
-1
5
-35
44
-9
49
69
52
20
-7
11
-16
23
-32
2
-16
-26
-43
-21
13
59
19
-29
-33
7
45
32
-17
-45
-31
-26
-26
-34
4
-8
6
-7
26
-26
-19
11
-56
-18
-8
-21
19
7
21
61
58
-20
-15
-7
-38
4
11
-48
-73
-10
36
41
18
22
-3
-38
-36
112
10
-22
-5
-38
-31
9
81
16
-35
6
-4
7
0
-20
-86
-56
-3
-16
1
-19
11
40
17
0
26
28
-10
16
16
39
74
-5
-12
-15
22
-24
-39
-6
-41
9
-12
-12
-29
1
0
-17
14
-12
-1
-1
-1
14
14
-22
-14
8
11
12
-10
0
10
-10
-26
3
-27
-8
-63
-23
-24
-18
11
-33
5
3
79
23
10
2
18
-4
8
-24
-40
-17
5
-7
-19
23
4
30
19
1
-8
6
-9
-6
-20
-8
-39
-6
-13
-12
-23
-32
13
0
20
-1
9
7
0
13
11
11
-16
9
9
-4
5
21
-7
6
-53
-35
-7
4
-12
-17
-18
9
22
3
-18
-16
-17
-16
5
-13
-1
1
2
11
24
18
-5
-1
52
-15
-1
-31
-46
-7
0
-5
-29
25
14
20
46
-9
-3
-9
18
-23
-6
-11
-58
-4
7
1
-38
5
2
15
47
11
30
8
13
20
-1
19
66
10
-27
2
43
38
6
-8
-31
-2
-11
-6
-8
-18
-13
-14
-37
-8
1
-15
-11
-46
-1
-7
-18
16
-23
3
-21
13
-6
-17
-33
-25
23
3
43
10
5
5
-6
1
-7
-12
25
17
-1
5
38
-6
8
2
-15
-2
1
-4
-11
-3
0
-5
-37
-10
4
6
3
12
5
4
31
-12
5
4
-11
1
-9
8
-14
15
2
2
12
-16
10
-29
-4
-9
-7
-17
4
5
-17
2
-15
33
-8
-1
-35
4
-12
-29
-34
-30
-10
-1
-1
-7
5
11
4
2
-5
-11
-9
-3
-3
9
-52
-58
4
4
29
-1
-9
-4
20
27
4
4
-8
1
4
-1
15
16
8
36
25
10
0
-3
5
-31
-3
3
-12
5
-9
-8
33
47
-5
1
18
-6
-7
24
-41
-43
-5
-16
-4
1
-1
-4
21
22
5
-14
-30
-10
8
-11
-51
-11
0
14
13
7
-1
-14
26
40
2
-3
-17
-4
0
12
-10
-25
3
3
0
-10
-10
-1
-14
-40
-3
-5
-2
-8
-65
-20
68
20
-9
-17
-3
-23
2
7
4
9
-10
-10
-31
-10
9
-2
-19
-15
0
13
17
9
39
13
-29
-12
-2
-9
-45
-1
-15
-3
-16
11
9
10
20
5
-16
-4
-3
3
-4
-2
-9
-1
-8
-12
23
-21
-8
-4
14
4
11
8
-5
-20
-6
-4
-11
-8
24
-6
0
25
-2
-7
-6
1
1
17
32
1
1
3
-18
1
12
2
-4
-13
5
3
14
6
-2
1
17
54
4
11
8
3
7
0
-57
-5
0
1
2
2
-11
-2
14
-22
0
0
4
-2
-3
-9
47
40
0
-13
-18
-7
-8
0
-29
-15
-3
-2
16
4
-1
0
-51
-15
-1
-4
-9
-7
5
-3
-33
-29
-10
-4
-3
-4
10
0
26
22
6
3
13
6
-5
7
43
18
-5
-14
-38
-8
11
-1
-11
-13
-4
4
-7
5
-20
-6
-61
-32
-8
-7
2
-6
-13
-20
24
28
5
12
11
6
-1
0
-18
1
-2
0
15
5
4
6
41
-23
-5
-13
-29
-10
-8
18
23
40
8
2
34
7
