-0.8606769622910009
-0.14240319205693916
-1.2555456143928065
-0.8606769622910009
-0.14240319205693916
-1.2555456143928065
-0.8607695884180885
-0.142465252192352
-1.255509019181878
-0.8607695884180885
-0.142465252192352
-1.255509019181878
-0.8607695884180885
-0.142465252192352
-1.255509019181878
-0.8607695884180885
-0.142465252192352
-1.255509019181878
-0.8607695884180885
-0.142465252192352
-1.255509019181878
-0.8607695884180885
-0.142465252192352
-1.255509019181878
-0.8607695884180885
-0.142465252192352
-1.255509019181878
-0.8607695884180885
-0.142465252192352
-1.255509019181878
-0.8607695884180885
-0.142465252192352
-1.255509019181878
-0.8607695884180885
-0.142465252192352
-1.255509019181878
-0.8607695884180885
-0.142465252192352
-1.255509019181878
-0.8607695884180885
-0.142465252192352
-1.255509019181878
-0.8610009279562483
-0.14196346887826045
-1.2555078282922492
-0.8610009279562483
-0.14196346887826045
-1.2555078282922492
-0.8610009279562483
-0.14196346887826045
-1.2555078282922492
-0.8610009279562483
-0.14196346887826045
-1.2555078282922492
-0.8614760479543409
-0.14121251957223313
-1.2555182297605685
-0.8614760479543409
-0.14121251957223313
-1.2555182297605685
-0.8614760479543409
-0.14121251957223313
-1.2555182297605685
-0.8614760479543409
-0.14121251957223313
-1.2555182297605685
-0.8609090674793489
-0.14060328424433347
-1.2554936502871923
-0.8609090674793489
-0.14060328424433347
-1.2554936502871923
-0.8609090674793489
-0.14060328424433347
-1.2554936502871923
-0.8609090674793489
-0.14060328424433347
-1.2554936502871923
-0.8600511026552731
-0.14018831175470822
-1.2556165557443186
-0.8600511026552731
-0.14018831175470822
-1.2556165557443186
-0.8600511026552731
-0.14018831175470822
-1.2556165557443186
-0.8600511026552731
-0.14018831175470822
-1.2556165557443186
-0.8594148201043936
-0.13986103530780994
-1.2555736638783705
-0.8594148201043936
-0.13986103530780994
-1.2555736638783705
-0.8594148201043936
-0.13986103530780994
-1.2555736638783705
-0.8594148201043936
-0.13986103530780994
-1.2555736638783705
-0.8594148201043936
-0.13986103530780994
-1.2555736638783705
-0.8594148201043936
-0.13986103530780994
-1.2555736638783705
-0.8594148201043936
-0.13986103530780994
-1.2555736638783705
-0.8594148201043936
-0.13986103530780994
-1.2555736638783705
-0.8595074042838153
-0.13992317712675828
-1.2555372335026065
-0.8595074042838153
-0.13992317712675828
-1.2555372335026065
-0.8595074042838153
-0.13992317712675828
-1.2555372335026065
-0.8595074042838153
-0.13992317712675828
-1.2555372335026065
-0.859252873626379
-0.140080896285656
-1.255592539963471
-0.859252873626379
-0.140080896285656
-1.255592539963471
-0.859252873626379
-0.140080896285656
-1.255592539963471
-0.859252873626379
-0.140080896285656
-1.255592539963471
-0.8587766938556942
-0.14015076178627855
-1.2558133505730802
-0.8587766938556942
-0.14015076178627855
-1.2558133505730802
-0.8587766938556942
-0.14015076178627855
-1.2558133505730802
-0.8587766938556942
-0.14015076178627855
-1.2558133505730802
-0.8580780849986647
-0.13998762413250795
-1.2558888299832431
-0.8580780849986647
-0.13998762413250795
-1.2558888299832431
-0.8580780849986647
-0.13998762413250795
-1.2558888299832431
-0.8580780849986647
-0.13998762413250795
-1.2558888299832431
-0.8578527228416157
-0.13961805643008235
-1.2561013682537374
-0.8578527228416157
-0.13961805643008235
-1.2561013682537374
-0.8578527228416157
-0.13961805643008235
-1.2561013682537374
-0.8578527228416157
-0.13961805643008235
-1.2561013682537374
-0.8579155372063028
-0.13952636905420063
-1.2561381588860543
-0.8579155372063028
-0.13952636905420063
-1.2561381588860543
-0.8579155372063028
-0.13952636905420063
-1.2561381588860543
-0.8579155372063028
-0.13952636905420063
-1.2561381588860543
-0.8579155372063028
-0.13952636905420063
-1.2561381588860543
-0.8579155372063028
-0.13952636905420063
-1.2561381588860543
-0.8579155372063028
-0.13952636905420063
-1.2561381588860543
-0.8579155372063028
-0.13952636905420063
-1.2561381588860543
-0.8575683442311375
-0.1396217532722181
-1.2562299274257733
-0.8575683442311375
-0.1396217532722181
-1.2562299274257733
-0.8575683442311375
-0.1396217532722181
-1.2562299274257733
-0.8575683442311375
-0.1396217532722181
-1.2562299274257733
-0.8575683442311375
-0.1396217532722181
-1.2562299274257733
-0.8575683442311375
-0.1396217532722181
-1.2562299274257733
-0.8575683442311375
-0.1396217532722181
-1.2562299274257733
-0.8575683442311375
-0.1396217532722181
-1.2562299274257733
-0.8575683442311375
-0.1396217532722181
-1.2562299274257733
-0.8575683442311375
-0.1396217532722181
-1.2562299274257733
-0.8575683442311375
-0.1396217532722181
-1.2562299274257733
-0.8575683442311375
-0.1396217532722181
-1.2562299274257733
-0.8575683442311375
-0.1396217532722181
-1.2562299274257733
-0.8575683442311375
-0.1396217532722181
-1.2562299274257733
-0.8575683442311375
-0.1396217532722181
-1.2562299274257733
-0.8575683442311375
-0.1396217532722181
-1.2562299274257733
-0.8575683442311375
-0.1396217532722181
-1.2562299274257733
-0.8575683442311375
-0.1396217532722181
-1.2562299274257733
-0.8575683442311375
-0.1396217532722181
-1.2562299274257733
-0.8575683442311375
-0.1396217532722181
-1.2562299274257733
-0.8576311711301887
-0.13953006253597527
-1.2562667033046389
-0.8576311711301887
-0.13953006253597527
-1.2562667033046389
-0.8576311711301887
-0.13953006253597527
-1.2562667033046389
-0.8576311711301887
-0.13953006253597527
-1.2562667033046389
-0.8576311711301887
-0.13953006253597527
-1.2562667033046389
-0.8576311711301887
-0.13953006253597527
-1.2562667033046389
-0.8576311711301887
-0.13953006253597527
-1.2562667033046389
-0.8576311711301887
-0.13953006253597527
-1.2562667033046389
-0.8580453233093805
-0.1396970676588635
-1.2563199958102993
-0.8580453233093805
-0.1396970676588635
-1.2563199958102993
-0.8580453233093805
-0.1396970676588635
-1.2563199958102993
-0.8580453233093805
-0.1396970676588635
-1.2563199958102993
-0.8586810613221958
-0.13995203230924377
-1.2562078043804417
-0.8586810613221958
-0.13995203230924377
-1.2562078043804417
-0.8586810613221958
-0.13995203230924377
-1.2562078043804417
-0.8586810613221958
-0.13995203230924377
-1.2562078043804417
-0.8593792254769215
-0.14004268069300368
-1.2559769361633746
-0.8593792254769215
-0.14004268069300368
-1.2559769361633746
-0.8593792254769215
-0.14004268069300368
-1.2559769361633746
-0.8593792254769215
-0.14004268069300368
-1.2559769361633746
-0.8587104581616867
-0.14003336836070346
-1.2559791877639332
-0.8587104581616867
-0.14003336836070346
-1.2559791877639332
-0.8587104581616867
-0.14003336836070346
-1.2559791877639332
-0.8587104581616867
-0.14003336836070346
-1.2559791877639332
-0.8575352986058269
-0.1398673561193684
-1.2561200110927462
-0.8575352986058269
-0.1398673561193684
-1.2561200110927462
-0.8575352986058269
-0.1398673561193684
-1.2561200110927462
-0.8575352986058269
-0.1398673561193684
-1.2561200110927462
-0.8567375371079167
-0.13983214537625793
-1.2562511677402521
-0.8567375371079167
-0.13983214537625793
-1.2562511677402521
-0.8567375371079167
-0.13983214537625793
-1.2562511677402521
-0.8567375371079167
-0.13983214537625793
-1.2562511677402521
-0.8568003767541995
-0.1397404382455722
-1.25628789842235
-0.8568003767541995
-0.1397404382455722
-1.25628789842235
-0.8568003767541995
-0.1397404382455722
-1.25628789842235
-0.8568003767541995
-0.1397404382455722
-1.25628789842235
-0.8568929838303088
-0.13980266281344036
-1.256251542851217
-0.8568929838303088
-0.13980266281344036
-1.256251542851217
-0.8568929838303088
-0.13980266281344036
-1.256251542851217
-0.8568929838303088
-0.13980266281344036
-1.256251542851217
-0.8568929838303088
-0.13980266281344036
-1.256251542851217
-0.8568929838303088
-0.13980266281344036
-1.256251542851217
-0.8568929838303088
-0.13980266281344036
-1.256251542851217
-0.8568929838303088
-0.13980266281344036
-1.256251542851217
-0.8559397947955886
-0.13979683150270372
-1.256382293593698
-0.8559397947955886
-0.13979683150270372
-1.256382293593698
-0.8559397947955886
-0.13979683150270372
-1.256382293593698
-0.8559397947955886
-0.13979683150270372
-1.256382293593698
-0.8553639888767451
-0.1399218999655189
-1.2565036381842631
-0.8553639888767451
-0.1399218999655189
-1.2565036381842631
-0.8553639888767451
-0.1399218999655189
-1.2565036381842631
-0.8553639888767451
-0.1399218999655189
-1.2565036381842631
-0.8554268629490943
-0.1398301760759298
-1.2565402974988953
-0.8554268629490943
-0.1398301760759298
-1.2565402974988953
-0.8554268629490943
-0.1398301760759298
-1.2565402974988953
-0.8554268629490943
-0.1398301760759298
-1.2565402974988953
-0.8557773971942038
-0.13994430038491806
-1.2562460675154614
-0.8557773971942038
-0.13994430038491806
-1.2562460675154614
-0.8557773971942038
-0.13994430038491806
-1.2562460675154614
-0.8557773971942038
-0.13994430038491806
-1.2562460675154614
-0.8557773971942038
-0.13994430038491806
-1.2562460675154614
-0.8557773971942038
-0.13994430038491806
-1.2562460675154614
-0.8557773971942038
-0.13994430038491806
-1.2562460675154614
-0.8557773971942038
-0.13994430038491806
-1.2562460675154614
-0.8557773971942038
-0.13994430038491806
-1.2562460675154614
-0.8557773971942038
-0.13994430038491806
-1.2562460675154614
-0.8557773971942038
-0.13994430038491806
-1.2562460675154614
-0.8557773971942038
-0.13994430038491806
-1.2562460675154614
-0.8558700280108507
-0.1400065358544179
-1.2562097353566484
-0.8558700280108507
-0.1400065358544179
-1.2562097353566484
-0.8558700280108507
-0.1400065358544179
-1.2562097353566484
-0.8558700280108507
-0.1400065358544179
-1.2562097353566484
-0.8558700280108507
-0.1400065358544179
-1.2562097353566484
-0.8558700280108507
-0.1400065358544179
-1.2562097353566484
-0.8558700280108507
-0.1400065358544179
-1.2562097353566484
-0.8558700280108507
-0.1400065358544179
-1.2562097353566484
-0.8557773971942038
-0.13994430038491806
-1.2562460675154614
-0.8557773971942038
-0.13994430038491806
-1.2562460675154614
-0.8557773971942038
-0.13994430038491806
-1.2562460675154614
-0.8557773971942038
-0.13994430038491806
-1.2562460675154614
-0.8564825193378887
-0.13991735037941638
-1.2561512375328725
-0.8564825193378887
-0.13991735037941638
-1.2561512375328725
-0.8564825193378887
-0.13991735037941638
-1.2561512375328725
-0.8564825193378887
-0.13991735037941638
-1.2561512375328725
-0.8571509259494862
-0.13985432036859463
-1.2559936007320398
-0.8571509259494862
-0.13985432036859463
-1.2559936007320398
-0.8571509259494862
-0.13985432036859463
-1.2559936007320398
-0.8571509259494862
-0.13985432036859463
-1.2559936007320398
-0.8571509259494862
-0.13985432036859463
-1.2559936007320398
-0.8571509259494862
-0.13985432036859463
-1.2559936007320398
-0.8571509259494862
-0.13985432036859463
-1.2559936007320398
-0.8571509259494862
-0.13985432036859463
-1.2559936007320398
-0.8561613766342231
-0.13988497338422962
-1.2562170003041717
-0.8561613766342231
-0.13988497338422962
-1.2562170003041717
-0.8561613766342231
-0.13988497338422962
-1.2562170003041717
-0.8561613766342231
-0.13988497338422962
-1.2562170003041717
-0.853897485576075
-0.13987686092987497
-1.2566369505268309
-0.853897485576075
-0.13987686092987497
-1.2566369505268309
-0.853897485576075
-0.13987686092987497
-1.2566369505268309
-0.853897485576075
-0.13987686092987497
-1.2566369505268309
-0.8521794215805023
-0.13951699295844874
-1.256852419195098
-0.8521794215805023
-0.13951699295844874
-1.256852419195098
-0.8521794215805023
-0.13951699295844874
-1.256852419195098
-0.8521794215805023
-0.13951699295844874
-1.256852419195098
-0.8509084413614719
-0.13900586782705834
-1.2570746528189118
-0.8509084413614719
-0.13900586782705834
-1.2570746528189118
-0.8509084413614719
-0.13900586782705834
-1.2570746528189118
-0.8509084413614719
-0.13900586782705834
-1.2570746528189118
-0.8488694786921984
-0.13854077847801333
-1.2571984723134053
-0.8488694786921984
-0.13854077847801333
-1.2571984723134053
-0.8488694786921984
-0.13854077847801333
-1.2571984723134053
-0.8488694786921984
-0.13854077847801333
-1.2571984723134053
-0.8439650005020725
-0.13831561880064797
-1.2578876306046802
-0.8439650005020725
-0.13831561880064797
-1.2578876306046802
-0.8439650005020725
-0.13831561880064797
-1.2578876306046802
-0.8439650005020725
-0.13831561880064797
-1.2578876306046802
-0.8337388448458655
-0.1381605318400801
-1.2591849308911571
-0.8337388448458655
-0.1381605318400801
-1.2591849308911571
-0.8337388448458655
-0.1381605318400801
-1.2591849308911571
-0.8337388448458655
-0.1381605318400801
-1.2591849308911571
-0.8190378704221428
-0.13907769641066456
-1.2626098713414364
-0.8190378704221428
-0.13907769641066456
-1.2626098713414364
-0.8190378704221428
-0.13907769641066456
-1.2626098713414364
-0.8190378704221428
-0.13907769641066456
-1.2626098713414364
-0.803942695560631
-0.14097671768966893
-1.2669458403016973
-0.803942695560631
-0.14097671768966893
-1.2669458403016973
-0.803942695560631
-0.14097671768966893
-1.2669458403016973
-0.803942695560631
-0.14097671768966893
-1.2669458403016973
-0.7922402226217795
-0.14314201616687883
-1.2703347986917524
-0.7922402226217795
-0.14314201616687883
-1.2703347986917524
-0.7922402226217795
-0.14314201616687883
-1.2703347986917524
-0.7922402226217795
-0.14314201616687883
-1.2703347986917524
-0.7866617173682895
-0.14661757887415663
-1.2715888570255647
-0.7866617173682895
-0.14661757887415663
-1.2715888570255647
-0.7866617173682895
-0.14661757887415663
-1.2715888570255647
-0.7866617173682895
-0.14661757887415663
-1.2715888570255647
-0.7842581476784458
-0.1505172492010703
-1.272064039401425
-0.7842581476784458
-0.1505172492010703
-1.272064039401425
-0.7842581476784458
-0.1505172492010703
-1.272064039401425
-0.7842581476784458
-0.1505172492010703
-1.272064039401425
-0.778192641073668
-0.1540580784241245
-1.2729122461557618
-0.778192641073668
-0.1540580784241245
-1.2729122461557618
-0.778192641073668
-0.1540580784241245
-1.2729122461557618
-0.778192641073668
-0.1540580784241245
-1.2729122461557618
-0.762002980969305
-0.1570139045435536
-1.2762648341915643
-0.762002980969305
-0.1570139045435536
-1.2762648341915643
-0.762002980969305
-0.1570139045435536
-1.2762648341915643
-0.762002980969305
-0.1570139045435536
-1.2762648341915643
-0.7372435136971182
-0.15982277482754698
-1.2807689712862194
-0.7372435136971182
-0.15982277482754698
-1.2807689712862194
-0.7372435136971182
-0.15982277482754698
-1.2807689712862194
-0.7372435136971182
-0.15982277482754698
-1.2807689712862194
-0.7081464559978455
-0.1622599751523169
-1.2843946373037143
-0.7081464559978455
-0.1622599751523169
-1.2843946373037143
-0.7081464559978455
-0.1622599751523169
-1.2843946373037143
-0.7081464559978455
-0.1622599751523169
-1.2843946373037143
-0.6800410336279856
-0.16489645549569398
-1.2875233169548552
-0.6800410336279856
-0.16489645549569398
-1.2875233169548552
-0.6800410336279856
-0.16489645549569398
-1.2875233169548552
-0.6800410336279856
-0.16489645549569398
-1.2875233169548552
-0.650041867597264
-0.1676869927737089
-1.292697131653497
-0.650041867597264
-0.1676869927737089
-1.292697131653497
-0.650041867597264
-0.1676869927737089
-1.292697131653497
-0.650041867597264
-0.1676869927737089
-1.292697131653497
-0.6103941222623994
-0.16885137290949936
-1.3018074925724021
-0.6103941222623994
-0.16885137290949936
-1.3018074925724021
-0.6103941222623994
-0.16885137290949936
-1.3018074925724021
-0.6103941222623994
-0.16885137290949936
-1.3018074925724021
-0.5590575982321906
-0.1678569214399134
-1.3141094143678063
-0.5590575982321906
-0.1678569214399134
-1.3141094143678063
-0.5590575982321906
-0.1678569214399134
-1.3141094143678063
-0.5590575982321906
-0.1678569214399134
-1.3141094143678063
-0.4946585547368736
-0.1638720653347633
-1.3271509011412934
-0.4946585547368736
-0.1638720653347633
-1.3271509011412934
-0.4946585547368736
-0.1638720653347633
-1.3271509011412934
-0.4946585547368736
-0.1638720653347633
-1.3271509011412934
-0.4238159707306232
-0.15888798220386996
-1.337841918079351
-0.4238159707306232
-0.15888798220386996
-1.337841918079351
-0.4238159707306232
-0.15888798220386996
-1.337841918079351
-0.4238159707306232
-0.15888798220386996
-1.337841918079351
-0.3583051690424309
-0.15716314848222596
-1.3455847733057857
-0.3583051690424309
-0.15716314848222596
-1.3455847733057857
-0.3583051690424309
-0.15716314848222596
-1.3455847733057857
-0.3583051690424309
-0.15716314848222596
-1.3455847733057857
-0.31545132713458185
-0.15894411211637122
-1.3484130514534525
-0.31545132713458185
-0.15894411211637122
-1.3484130514534525
-0.31545132713458185
-0.15894411211637122
-1.3484130514534525
-0.31545132713458185
-0.15894411211637122
-1.3484130514534525
-0.30141649137530124
-0.1637015438608904
-1.3484798676071978
-0.30141649137530124
-0.1637015438608904
-1.3484798676071978
-0.30141649137530124
-0.1637015438608904
-1.3484798676071978
-0.30141649137530124
-0.1637015438608904
-1.3484798676071978
-0.3062002162033936
-0.16833480013167512
-1.347778176176687
-0.3062002162033936
-0.16833480013167512
-1.347778176176687
-0.3062002162033936
-0.16833480013167512
-1.347778176176687
-0.3062002162033936
-0.16833480013167512
-1.347778176176687
-0.3048630880921307
-0.1698429068555942
-1.348105020376256
-0.3048630880921307
-0.1698429068555942
-1.348105020376256
-0.3048630880921307
-0.1698429068555942
-1.348105020376256
-0.3048630880921307
-0.1698429068555942
-1.348105020376256
-0.2935743733936014
-0.1699650360702982
-1.3492412914434397
-0.2935743733936014
-0.1699650360702982
-1.3492412914434397
-0.2935743733936014
-0.1699650360702982
-1.3492412914434397
-0.2935743733936014
-0.1699650360702982
-1.3492412914434397
-0.2824964148075048
-0.16964346473798528
-1.3497870429001022
-0.2824964148075048
-0.16964346473798528
-1.3497870429001022
-0.2824964148075048
-0.16964346473798528
-1.3497870429001022
-0.2824964148075048
-0.16964346473798528
-1.3497870429001022
-0.280269529498048
-0.16980726213116745
-1.3493732736732857
-0.280269529498048
-0.16980726213116745
-1.3493732736732857
-0.280269529498048
-0.16980726213116745
-1.3493732736732857
-0.280269529498048
-0.16980726213116745
-1.3493732736732857
-0.2855684214167548
-0.17016036020519024
-1.3486973860504148
-0.2855684214167548
-0.17016036020519024
-1.3486973860504148
-0.2855684214167548
-0.17016036020519024
-1.3486973860504148
-0.2855684214167548
-0.17016036020519024
-1.3486973860504148
-0.2883722106786422
-0.17044292463310254
-1.3482817159828973
-0.2883722106786422
-0.17044292463310254
-1.3482817159828973
-0.2883722106786422
-0.17044292463310254
-1.3482817159828973
-0.2883722106786422
-0.17044292463310254
-1.3482817159828973
-0.28467790322398195
-0.1710947621029447
-1.34908408081423
-0.28467790322398195
-0.1710947621029447
-1.34908408081423
-0.28467790322398195
-0.1710947621029447
-1.34908408081423
-0.28467790322398195
-0.1710947621029447
-1.34908408081423
-0.2813979193667496
-0.17182727749136217
-1.350188872875577
-0.2813979193667496
-0.17182727749136217
-1.350188872875577
-0.2813979193667496
-0.17182727749136217
-1.350188872875577
-0.2813979193667496
-0.17182727749136217
-1.350188872875577
-0.281648538758977
-0.17195056013845925
-1.3505760743710977
-0.281648538758977
-0.17195056013845925
-1.3505760743710977
-0.281648538758977
-0.17195056013845925
-1.3505760743710977
-0.281648538758977
-0.17195056013845925
-1.3505760743710977
-0.2823938667992645
-0.17098274451884232
-1.3505705906737604
-0.2823938667992645
-0.17098274451884232
-1.3505705906737604
-0.2823938667992645
-0.17098274451884232
-1.3505705906737604
-0.2823938667992645
-0.17098274451884232
-1.3505705906737604
-0.2829000243742106
-0.16975300342016014
-1.3502587665368178
-0.2829000243742106
-0.16975300342016014
-1.3502587665368178
-0.2829000243742106
-0.16975300342016014
-1.3502587665368178
-0.2829000243742106
-0.16975300342016014
-1.3502587665368178
-0.2830579431622507
-0.16814570358400113
-1.350223041222902
-0.2830579431622507
-0.16814570358400113
-1.350223041222902
-0.2830579431622507
-0.16814570358400113
-1.350223041222902
-0.2830579431622507
-0.16814570358400113
-1.350223041222902
-0.282635659671817
-0.1668903150035803
-1.3503606954182863
-0.282635659671817
-0.1668903150035803
-1.3503606954182863
-0.282635659671817
-0.1668903150035803
-1.3503606954182863
-0.282635659671817
-0.1668903150035803
-1.3503606954182863
-0.282363453418829
-0.16602151539600357
-1.3502556487060273
-0.282363453418829
-0.16602151539600357
-1.3502556487060273
-0.282363453418829
-0.16602151539600357
-1.3502556487060273
-0.282363453418829
-0.16602151539600357
-1.3502556487060273
-0.28207442891709805
-0.1649396094668272
-1.349929721498939
-0.28207442891709805
-0.1649396094668272
-1.349929721498939
-0.28207442891709805
-0.1649396094668272
-1.349929721498939
-0.28207442891709805
-0.1649396094668272
-1.349929721498939
-0.2811013114289767
-0.16372088618278657
-1.349332216118059
-0.2811013114289767
-0.16372088618278657
-1.349332216118059
-0.2811013114289767
-0.16372088618278657
-1.349332216118059
-0.2811013114289767
-0.16372088618278657
-1.349332216118059
-0.27975350369575064
-0.16275772902033547
-1.3483805216269436
-0.27975350369575064
-0.16275772902033547
-1.3483805216269436
-0.27975350369575064
-0.16275772902033547
-1.3483805216269436
-0.27975350369575064
-0.16275772902033547
-1.3483805216269436
-0.27896591366479373
-0.1619132932703131
-1.3473472205873167
-0.27896591366479373
-0.1619132932703131
-1.3473472205873167
-0.27896591366479373
-0.1619132932703131
-1.3473472205873167
-0.27896591366479373
-0.1619132932703131
-1.3473472205873167
-0.2795089535188237
-0.16120206032890055
-1.3463413967303635
-0.2795089535188237
-0.16120206032890055
-1.3463413967303635
-0.2795089535188237
-0.16120206032890055
-1.3463413967303635
-0.2795089535188237
-0.16120206032890055
-1.3463413967303635
-0.28102377419702185
-0.16106797674173853
-1.3458700611691958
-0.28102377419702185
-0.16106797674173853
-1.3458700611691958
-0.28102377419702185
-0.16106797674173853
-1.3458700611691958
-0.28102377419702185
-0.16106797674173853
-1.3458700611691958
-0.2805645542000838
-0.161223863104822
-1.345363683858031
-0.2805645542000838
-0.161223863104822
-1.345363683858031
-0.2805645542000838
-0.161223863104822
-1.345363683858031
-0.2805645542000838
-0.161223863104822
-1.345363683858031
-0.2786136104558052
-0.16150253488366562
-1.345946560237392
-0.2786136104558052
-0.16150253488366562
-1.345946560237392
-0.2786136104558052
-0.16150253488366562
-1.345946560237392
-0.2786136104558052
-0.16150253488366562
-1.345946560237392
-0.27889762866428935
-0.16256493674199787
-1.3461992187533056
-0.27889762866428935
-0.16256493674199787
-1.3461992187533056
-0.27889762866428935
-0.16256493674199787
-1.3461992187533056
-0.27889762866428935
-0.16256493674199787
-1.3461992187533056
-0.2809394341924154
-0.16342111327692704
-1.3462205999704553
-0.2809394341924154
-0.16342111327692704
-1.3462205999704553
-0.2809394341924154
-0.16342111327692704
-1.3462205999704553
-0.2809394341924154
-0.16342111327692704
-1.3462205999704553
-0.281057118907839
-0.1636641887164972
-1.3461761589788979
-0.281057118907839
-0.1636641887164972
-1.3461761589788979
-0.281057118907839
-0.1636641887164972
-1.3461761589788979
-0.281057118907839
-0.1636641887164972
-1.3461761589788979
-0.2805580932202713
-0.1630812737484018
-1.3460484993603257
-0.2805580932202713
-0.1630812737484018
-1.3460484993603257
-0.2805580932202713
-0.1630812737484018
-1.3460484993603257
-0.2805580932202713
-0.1630812737484018
-1.3460484993603257
-0.2804617486217639
-0.16300726399837667
-1.3460670440460498
-0.2804617486217639
-0.16300726399837667
-1.3460670440460498
-0.2804617486217639
-0.16300726399837667
-1.3460670440460498
-0.2804617486217639
-0.16300726399837667
-1.3460670440460498
-0.2813007254248214
-0.1633718224733764
-1.346101632412833
-0.2813007254248214
-0.1633718224733764
-1.346101632412833
-0.2813007254248214
-0.1633718224733764
-1.346101632412833
-0.2813007254248214
-0.1633718224733764
-1.346101632412833
-0.2822174814305202
-0.16381763470934205
-1.3462136186000104
-0.2822174814305202
-0.16381763470934205
-1.3462136186000104
-0.2822174814305202
-0.16381763470934205
-1.3462136186000104
-0.2822174814305202
-0.16381763470934205
-1.3462136186000104
-0.2827301609393996
-0.16397479148232952
-1.3464962938237435
-0.2827301609393996
-0.16397479148232952
-1.3464962938237435
-0.2827301609393996
-0.16397479148232952
-1.3464962938237435
-0.2827301609393996
-0.16397479148232952
-1.3464962938237435
-0.2827301609393996
-0.16397479148232952
-1.3464962938237435
-0.2827301609393996
-0.16397479148232952
-1.3464962938237435
-0.2827301609393996
-0.16397479148232952
-1.3464962938237435
-0.2827301609393996
-0.16397479148232952
-1.3464962938237435
-0.28300516936857373
-0.1640461818890906
-1.3465412668334282
-0.28300516936857373
-0.1640461818890906
-1.3465412668334282
-0.28300516936857373
-0.1640461818890906
-1.3465412668334282
-0.28300516936857373
-0.1640461818890906
-1.3465412668334282
-0.28370048314839696
-0.16415676661402367
-1.3466411288331965
-0.28370048314839696
-0.16415676661402367
-1.3466411288331965
-0.28370048314839696
-0.16415676661402367
-1.3466411288331965
-0.28370048314839696
-0.16415676661402367
-1.3466411288331965
-0.2842837318855719
-0.16501917552887527
-1.346276321710902
-0.2842837318855719
-0.16501917552887527
-1.346276321710902
-0.2842837318855719
-0.16501917552887527
-1.346276321710902
-0.2842837318855719
-0.16501917552887527
-1.346276321710902
-0.2832990416809456
-0.16606008274045655
-1.3460358784488116
-0.2832990416809456
-0.16606008274045655
-1.3460358784488116
-0.2832990416809456
-0.16606008274045655
-1.3460358784488116
-0.2832990416809456
-0.16606008274045655
-1.3460358784488116
-0.28200810859894887
-0.16666625031370821
-1.3456324372549384
-0.28200810859894887
-0.16666625031370821
-1.3456324372549384
-0.28200810859894887
-0.16666625031370821
-1.3456324372549384
-0.28200810859894887
-0.16666625031370821
-1.3456324372549384
-0.2809003431323994
-0.16722622063788126
-1.345046695133347
-0.2809003431323994
-0.16722622063788126
-1.345046695133347
-0.2809003431323994
-0.16722622063788126
-1.345046695133347
-0.2809003431323994
-0.16722622063788126
-1.345046695133347
-0.28011008306936036
-0.1668225585221988
-1.3446493952051217
-0.28011008306936036
-0.1668225585221988
-1.3446493952051217
-0.28011008306936036
-0.1668225585221988
-1.3446493952051217
-0.28011008306936036
-0.1668225585221988
-1.3446493952051217
-0.28041146806486
-0.16622204507891447
-1.3443609524905007
-0.28041146806486
-0.16622204507891447
-1.3443609524905007
-0.28041146806486
-0.16622204507891447
-1.3443609524905007
-0.28041146806486
-0.16622204507891447
-1.3443609524905007
-0.2832153988376425
-0.1660994589663437
-1.3442789287411725
-0.2832153988376425
-0.1660994589663437
-1.3442789287411725
-0.2832153988376425
-0.1660994589663437
-1.3442789287411725
-0.2832153988376425
-0.1660994589663437
-1.3442789287411725
-0.2918131276108093
-0.16592373242397904
-1.3435285294511086
-0.2918131276108093
-0.16592373242397904
-1.3435285294511086
-0.2918131276108093
-0.16592373242397904
-1.3435285294511086
-0.2918131276108093
-0.16592373242397904
-1.3435285294511086
-0.3045500626606815
-0.1662692809587459
-1.3414997647534563
-0.3045500626606815
-0.1662692809587459
-1.3414997647534563
-0.3045500626606815
-0.1662692809587459
-1.3414997647534563
-0.3045500626606815
-0.1662692809587459
-1.3414997647534563
-0.31331746890694806
-0.16581999598728608
-1.3397119803596709
-0.31331746890694806
-0.16581999598728608
-1.3397119803596709
-0.31331746890694806
-0.16581999598728608
-1.3397119803596709
-0.31331746890694806
-0.16581999598728608
-1.3397119803596709
-0.31475324920906644
-0.1643500476751758
-1.3392049827697101
-0.31475324920906644
-0.1643500476751758
-1.3392049827697101
-0.31475324920906644
-0.1643500476751758
-1.3392049827697101
-0.31475324920906644
-0.1643500476751758
-1.3392049827697101
-0.3161870617772198
-0.16337868344596063
-1.3395707402561785
-0.3161870617772198
-0.16337868344596063
-1.3395707402561785
-0.3161870617772198
-0.16337868344596063
-1.3395707402561785
-0.3161870617772198
-0.16337868344596063
-1.3395707402561785
-0.32758645181236923
-0.16427944226000535
-1.338711027428182
-0.32758645181236923
-0.16427944226000535
-1.338711027428182
-0.32758645181236923
-0.16427944226000535
-1.338711027428182
-0.32758645181236923
-0.16427944226000535
-1.338711027428182
-0.3513116803368237
-0.16704302413066882
-1.3374468712988643
-0.3513116803368237
-0.16704302413066882
-1.3374468712988643
-0.3513116803368237
-0.16704302413066882
-1.3374468712988643
-0.3513116803368237
-0.16704302413066882
-1.3374468712988643
-0.37568943725394466
-0.16966803823787785
-1.336220104366928
-0.37568943725394466
-0.16966803823787785
-1.336220104366928
-0.37568943725394466
-0.16966803823787785
-1.336220104366928
-0.37568943725394466
-0.16966803823787785
-1.336220104366928
-0.3814753985423822
-0.1691509931322874
-1.3346327922642116
-0.3814753985423822
-0.1691509931322874
-1.3346327922642116
-0.3814753985423822
-0.1691509931322874
-1.3346327922642116
-0.3814753985423822
-0.1691509931322874
-1.3346327922642116
-0.37075707568327726
-0.16798171009815083
-1.3338877498518829
-0.37075707568327726
-0.16798171009815083
-1.3338877498518829
-0.37075707568327726
-0.16798171009815083
-1.3338877498518829
-0.37075707568327726
-0.16798171009815083
-1.3338877498518829
-0.36151142479066856
-0.1683154244615248
-1.3344613580909046
-0.36151142479066856
-0.1683154244615248
-1.3344613580909046
-0.36151142479066856
-0.1683154244615248
-1.3344613580909046
-0.36151142479066856
-0.1683154244615248
-1.3344613580909046
-0.36297818522807335
-0.16989632839672206
-1.333636780993385
-0.36297818522807335
-0.16989632839672206
-1.333636780993385
-0.36297818522807335
-0.16989632839672206
-1.333636780993385
-0.36297818522807335
-0.16989632839672206
-1.333636780993385
-0.37415984777725547
-0.17142351748476048
-1.3312481317489324
-0.37415984777725547
-0.17142351748476048
-1.3312481317489324
-0.37415984777725547
-0.17142351748476048
-1.3312481317489324
-0.37415984777725547
-0.17142351748476048
-1.3312481317489324
-0.38706055208267987
-0.17199578613430874
-1.3291067993368397
-0.38706055208267987
-0.17199578613430874
-1.3291067993368397
-0.38706055208267987
-0.17199578613430874
-1.3291067993368397
-0.38706055208267987
-0.17199578613430874
-1.3291067993368397
-0.39879215284635805
-0.17267038185015843
-1.3274070671262503
-0.39879215284635805
-0.17267038185015843
-1.3274070671262503
-0.39879215284635805
-0.17267038185015843
-1.3274070671262503
-0.39879215284635805
-0.17267038185015843
-1.3274070671262503
-0.41498611184629025
-0.17387187585766495
-1.3257726248006747
-0.41498611184629025
-0.17387187585766495
-1.3257726248006747
-0.41498611184629025
-0.17387187585766495
-1.3257726248006747
-0.41498611184629025
-0.17387187585766495
-1.3257726248006747
-0.4406257852103509
-0.1765419725288157
-1.3231232041235945
-0.4406257852103509
-0.1765419725288157
-1.3231232041235945
-0.4406257852103509
-0.1765419725288157
-1.3231232041235945
-0.4406257852103509
-0.1765419725288157
-1.3231232041235945
-0.4730637915378926
-0.1793508006809746
-1.319152347056338
-0.4730637915378926
-0.1793508006809746
-1.319152347056338
-0.4730637915378926
-0.1793508006809746
-1.319152347056338
-0.4730637915378926
-0.1793508006809746
-1.319152347056338
-0.5044888735787783
-0.18014783887881508
-1.3143962906354956
-0.5044888735787783
-0.18014783887881508
-1.3143962906354956
-0.5044888735787783
-0.18014783887881508
-1.3143962906354956
-0.5044888735787783
-0.18014783887881508
-1.3143962906354956
-0.5292771827604852
-0.17880350007951348
-1.3102642728551723
-0.5292771827604852
-0.17880350007951348
-1.3102642728551723
-0.5292771827604852
-0.17880350007951348
-1.3102642728551723
-0.5292771827604852
-0.17880350007951348
-1.3102642728551723
-0.5482602054104073
-0.1771291466890411
-1.30682546953549
-0.5482602054104073
-0.1771291466890411
-1.30682546953549
-0.5482602054104073
-0.1771291466890411
-1.30682546953549
-0.5482602054104073
-0.1771291466890411
-1.30682546953549
-0.5681645561831272
-0.17572537246308023
-1.3032744152277915
-0.5681645561831272
-0.17572537246308023
-1.3032744152277915
-0.5681645561831272
-0.17572537246308023
-1.3032744152277915
-0.5681645561831272
-0.17572537246308023
-1.3032744152277915
-0.5935782508896539
-0.17435283819609085
-1.29835878929254
-0.5935782508896539
-0.17435283819609085
-1.29835878929254
-0.5935782508896539
-0.17435283819609085
-1.29835878929254
-0.5935782508896539
-0.17435283819609085
-1.29835878929254
-0.6242902083917363
-0.17288701066328588
-1.292100168642551
-0.6242902083917363
-0.17288701066328588
-1.292100168642551
-0.6242902083917363
-0.17288701066328588
-1.292100168642551
-0.6242902083917363
-0.17288701066328588
-1.292100168642551
-0.6566266635469686
-0.17087388737207904
-1.2860175380135772
-0.6566266635469686
-0.17087388737207904
-1.2860175380135772
-0.6566266635469686
-0.17087388737207904
-1.2860175380135772
-0.6566266635469686
-0.17087388737207904
-1.2860175380135772
-0.6880677429344507
-0.16801035002059192
-1.2805907905997538
-0.6880677429344507
-0.16801035002059192
-1.2805907905997538
-0.6880677429344507
-0.16801035002059192
-1.2805907905997538
-0.6880677429344507
-0.16801035002059192
-1.2805907905997538
-0.7157910869307442
-0.16463866821609
-1.2763145932908786
-0.7157910869307442
-0.16463866821609
-1.2763145932908786
-0.7157910869307442
-0.16463866821609
-1.2763145932908786
-0.7157910869307442
-0.16463866821609
-1.2763145932908786
-0.7382197495235646
-0.16170558043590358
-1.2735290590067112
-0.7382197495235646
-0.16170558043590358
-1.2735290590067112
-0.7382197495235646
-0.16170558043590358
-1.2735290590067112
-0.7382197495235646
-0.16170558043590358
-1.2735290590067112
-0.756468450868451
-0.1591074064314488
-1.2716644921666695
-0.756468450868451
-0.1591074064314488
-1.2716644921666695
-0.756468450868451
-0.1591074064314488
-1.2716644921666695
-0.756468450868451
-0.1591074064314488
-1.2716644921666695
-0.7709268589957772
-0.15691707000559502
-1.2707471189939277
-0.7709268589957772
-0.15691707000559502
-1.2707471189939277
-0.7709268589957772
-0.15691707000559502
-1.2707471189939277
-0.7709268589957772
-0.15691707000559502
-1.2707471189939277
-0.7825256469791161
-0.15535933108968963
-1.270357712400194
-0.7825256469791161
-0.15535933108968963
-1.270357712400194
-0.7825256469791161
-0.15535933108968963
-1.270357712400194
-0.7825256469791161
-0.15535933108968963
-1.270357712400194
-0.7943068240085333
-0.15458649466033794
-1.2697793472714007
-0.7943068240085333
-0.15458649466033794
-1.2697793472714007
-0.7943068240085333
-0.15458649466033794
-1.2697793472714007
-0.7943068240085333
-0.15458649466033794
-1.2697793472714007
-0.8056242507607938
-0.15461668080772084
-1.2692190285904004
-0.8056242507607938
-0.15461668080772084
-1.2692190285904004
-0.8056242507607938
-0.15461668080772084
-1.2692190285904004
-0.8056242507607938
-0.15461668080772084
-1.2692190285904004
-0.8165277256200547
-0.15503836897161752
-1.2685234878094032
-0.8165277256200547
-0.15503836897161752
-1.2685234878094032
-0.8165277256200547
-0.15503836897161752
-1.2685234878094032
-0.8165277256200547
-0.15503836897161752
-1.2685234878094032
-0.8262174299293952
-0.1556651984969757
-1.2681790746749326
-0.8262174299293952
-0.1556651984969757
-1.2681790746749326
-0.8262174299293952
-0.1556651984969757
-1.2681790746749326
-0.8262174299293952
-0.1556651984969757
-1.2681790746749326
-0.833474673975885
-0.1564815712612013
-1.268290680689343
-0.833474673975885
-0.1564815712612013
-1.268290680689343
-0.833474673975885
-0.1564815712612013
-1.268290680689343
-0.833474673975885
-0.1564815712612013
-1.268290680689343
-0.8389162401785075
-0.15754855292665196
-1.2684384046279564
-0.8389162401785075
-0.15754855292665196
-1.2684384046279564
-0.8389162401785075
-0.15754855292665196
-1.2684384046279564
-0.8389162401785075
-0.15754855292665196
-1.2684384046279564
-0.8423437635279322
-0.15869381561923054
-1.2684699750819812
-0.8423437635279322
-0.15869381561923054
-1.2684699750819812
-0.8423437635279322
-0.15869381561923054
-1.2684699750819812
-0.8423437635279322
-0.15869381561923054
-1.2684699750819812
-0.845142563189402
-0.16000190379673376
-1.268212621803595
-0.845142563189402
-0.16000190379673376
-1.268212621803595
-0.845142563189402
-0.16000190379673376
-1.268212621803595
-0.845142563189402
-0.16000190379673376
-1.268212621803595
-0.8475870789609523
-0.16090924329057413
-1.268294448853907
-0.8475870789609523
-0.16090924329057413
-1.268294448853907
-0.8475870789609523
-0.16090924329057413
-1.268294448853907
-0.8475870789609523
-0.16090924329057413
-1.268294448853907
-0.8473187328309865
-0.16139814242274184
-1.2686864480451987
-0.8473187328309865
-0.16139814242274184
-1.2686864480451987
-0.8473187328309865
-0.16139814242274184
-1.2686864480451987
-0.8473187328309865
-0.16139814242274184
-1.2686864480451987
-0.8445207928327177
-0.16201815528518748
-1.2695841103226555
-0.8445207928327177
-0.16201815528518748
-1.2695841103226555
-0.8445207928327177
-0.16201815528518748
-1.2695841103226555
-0.8445207928327177
-0.16201815528518748
-1.2695841103226555
-0.8400340599745821
-0.16262908234151902
-1.270444157500115
-0.8400340599745821
-0.16262908234151902
-1.270444157500115
-0.8400340599745821
-0.16262908234151902
-1.270444157500115
-0.8400340599745821
-0.16262908234151902
-1.270444157500115
-0.8381355907593051
-0.1634184606952594
-1.2706551212489294
-0.8381355907593051
-0.1634184606952594
-1.2706551212489294
-0.8381355907593051
-0.1634184606952594
-1.2706551212489294
-0.8381355907593051
-0.1634184606952594
-1.2706551212489294
-0.8404351327636476
-0.16428402660698366
-1.2699118167514656
-0.8404351327636476
-0.16428402660698366
-1.2699118167514656
-0.8404351327636476
-0.16428402660698366
-1.2699118167514656
-0.8404351327636476
-0.16428402660698366
-1.2699118167514656
-0.8438896678736751
-0.16466974671329118
-1.2686590353040097
-0.8438896678736751
-0.16466974671329118
-1.2686590353040097
-0.8438896678736751
-0.16466974671329118
-1.2686590353040097
-0.8438896678736751
-0.16466974671329118
-1.2686590353040097
-0.8435812915118359
-0.16458531845671426
-1.2683506589421705
-0.8435812915118359
-0.16458531845671426
-1.2683506589421705
-0.8435812915118359
-0.16458531845671426
-1.2683506589421705
-0.8435812915118359
-0.16458531845671426
-1.2683506589421705
-0.8386885333906109
-0.16448595596652907
-1.2690330922660256
-0.8386885333906109
-0.16448595596652907
-1.2690330922660256
-0.8386885333906109
-0.16448595596652907
-1.2690330922660256
-0.8386885333906109
-0.16448595596652907
-1.2690330922660256
-0.8337935549078159
-0.16445412570679194
-1.2698718003919796
-0.8337935549078159
-0.16445412570679194
-1.2698718003919796
-0.8337935549078159
-0.16445412570679194
-1.2698718003919796
-0.8337935549078159
-0.16445412570679194
-1.2698718003919796
-0.8331852258333285
-0.1646788248474003
-1.2695819071091377
-0.8331852258333285
-0.1646788248474003
-1.2695819071091377
-0.8331852258333285
-0.1646788248474003
-1.2695819071091377
-0.8331852258333285
-0.1646788248474003
-1.2695819071091377
-0.8372496087307628
-0.16512705578179782
-1.2685765104665636
-0.8372496087307628
-0.16512705578179782
-1.2685765104665636
-0.8372496087307628
-0.16512705578179782
-1.2685765104665636
-0.8372496087307628
-0.16512705578179782
-1.2685765104665636
-0.8417285439460073
-0.16538580184527746
-1.2675064569398842
-0.8417285439460073
-0.16538580184527746
-1.2675064569398842
-0.8417285439460073
-0.16538580184527746
-1.2675064569398842
-0.8417285439460073
-0.16538580184527746
-1.2675064569398842
-0.8426264539995205
-0.16570065071487333
-1.2671269191757601
-0.8426264539995205
-0.16570065071487333
-1.2671269191757601
-0.8426264539995205
-0.16570065071487333
-1.2671269191757601
-0.8426264539995205
-0.16570065071487333
-1.2671269191757601
-0.840186195070926
-0.1659670149272393
-1.2677569686215016
-0.840186195070926
-0.1659670149272393
-1.2677569686215016
-0.840186195070926
-0.1659670149272393
-1.2677569686215016
-0.840186195070926
-0.1659670149272393
-1.2677569686215016
-0.8379732020087698
-0.1659215987012049
-1.2683990294629357
-0.8379732020087698
-0.1659215987012049
-1.2683990294629357
-0.8379732020087698
-0.1659215987012049
-1.2683990294629357
-0.8379732020087698
-0.1659215987012049
-1.2683990294629357
-0.8391617069227022
-0.16583531016771821
-1.2680663327070272
-0.8391617069227022
-0.16583531016771821
-1.2680663327070272
-0.8391617069227022
-0.16583531016771821
-1.2680663327070272
-0.8391617069227022
-0.16583531016771821
-1.2680663327070272
-0.8421777773933399
-0.1658493620893586
-1.2671263188531208
-0.8421777773933399
-0.1658493620893586
-1.2671263188531208
-0.8421777773933399
-0.1658493620893586
-1.2671263188531208
-0.8421777773933399
-0.1658493620893586
-1.2671263188531208
-0.842510086659069
-0.16526940887776828
-1.2667674643817795
-0.842510086659069
-0.16526940887776828
-1.2667674643817795
-0.842510086659069
-0.16526940887776828
-1.2667674643817795
-0.842510086659069
-0.16526940887776828
-1.2667674643817795
-0.8397970101288031
-0.1645222408439798
-1.2674192818771999
-0.8397970101288031
-0.1645222408439798
-1.2674192818771999
-0.8397970101288031
-0.1645222408439798
-1.2674192818771999
-0.8397970101288031
-0.1645222408439798
-1.2674192818771999
-0.8379985206475777
-0.16429188582261642
-1.2679968098649468
-0.8379985206475777
-0.16429188582261642
-1.2679968098649468
-0.8379985206475777
-0.16429188582261642
-1.2679968098649468
-0.8379985206475777
-0.16429188582261642
-1.2679968098649468
-0.8390672070622719
-0.16420024960133112
-1.267574175382769
-0.8390672070622719
-0.16420024960133112
-1.267574175382769
-0.8390672070622719
-0.16420024960133112
-1.267574175382769
-0.8390672070622719
-0.16420024960133112
-1.267574175382769
-0.8410229276212329
-0.16404597935992082
-1.2668819997952292
-0.8410229276212329
-0.16404597935992082
-1.2668819997952292
-0.8410229276212329
-0.16404597935992082
-1.2668819997952292
-0.8410229276212329
-0.16404597935992082
-1.2668819997952292
-0.8411794037998161
-0.16401649729527895
-1.2668798421212286
-0.8411794037998161
-0.16401649729527895
-1.2668798421212286
-0.8411794037998161
-0.16401649729527895
-1.2668798421212286
-0.8411794037998161
-0.16401649729527895
-1.2668798421212286
-0.8390424816791897
-0.16354899655641225
-1.2672205297948806
-0.8390424816791897
-0.16354899655641225
-1.2672205297948806
-0.8390424816791897
-0.16354899655641225
-1.2672205297948806
-0.8390424816791897
-0.16354899655641225
-1.2672205297948806
-0.8373799731760831
-0.16322886795523017
-1.2678021831203354
-0.8373799731760831
-0.16322886795523017
-1.2678021831203354
-0.8373799731760831
-0.16322886795523017
-1.2678021831203354
-0.8373799731760831
-0.16322886795523017
-1.2678021831203354
-0.8389154453721831
-0.16286167600270357
-1.2680226927998204
-0.8389154453721831
-0.16286167600270357
-1.2680226927998204
-0.8389154453721831
-0.16286167600270357
-1.2680226927998204
-0.8389154453721831
-0.16286167600270357
-1.2680226927998204
-0.8429454205165922
-0.16232614848700866
-1.267674032370763
-0.8429454205165922
-0.16232614848700866
-1.267674032370763
-0.8429454205165922
-0.16232614848700866
-1.267674032370763
-0.8429454205165922
-0.16232614848700866
-1.267674032370763
-0.8458359154999191
-0.1615097856340782
-1.2672314979688921
-0.8458359154999191
-0.1615097856340782
-1.2672314979688921
-0.8458359154999191
-0.1615097856340782
-1.2672314979688921
-0.8458359154999191
-0.1615097856340782
-1.2672314979688921
-0.846230443649697
-0.16083736662843048
-1.2669100004498135
-0.846230443649697
-0.16083736662843048
-1.2669100004498135
-0.846230443649697
-0.16083736662843048
-1.2669100004498135
-0.846230443649697
-0.16083736662843048
-1.2669100004498135
-0.8440944249438617
-0.16037064394236486
-1.2672483622148958
-0.8440944249438617
-0.16037064394236486
-1.2672483622148958
-0.8440944249438617
-0.16037064394236486
-1.2672483622148958
-0.8440944249438617
-0.16037064394236486
-1.2672483622148958
-0.8420517253220604
-0.1599657564176587
-1.2675486001893268
-0.8420517253220604
-0.1599657564176587
-1.2675486001893268
-0.8420517253220604
-0.1599657564176587
-1.2675486001893268
-0.8420517253220604
-0.1599657564176587
-1.2675486001893268
-0.8422789020513624
-0.15965541643626668
-1.2675613541720674
-0.8422789020513624
-0.15965541643626668
-1.2675613541720674
-0.8422789020513624
-0.15965541643626668
-1.2675613541720674
-0.8422789020513624
-0.15965541643626668
-1.2675613541720674
-0.8443006705344156
-0.15954798574700949
-1.266552408163112
-0.8443006705344156
-0.15954798574700949
-1.266552408163112
-0.8443006705344156
-0.15954798574700949
-1.266552408163112
-0.8443006705344156
-0.15954798574700949
-1.266552408163112
-0.8458514830764863
-0.15924408506726823
-1.2655936742800842
-0.8458514830764863
-0.15924408506726823
-1.2655936742800842
-0.8458514830764863
-0.15924408506726823
-1.2655936742800842
-0.8458514830764863
-0.15924408506726823
-1.2655936742800842
-0.8444483241582629
-0.1589566447030229
-1.2654641121604207
-0.8444483241582629
-0.1589566447030229
-1.2654641121604207
-0.8444483241582629
-0.1589566447030229
-1.2654641121604207
-0.8444483241582629
-0.1589566447030229
-1.2654641121604207
-0.84231103876561
-0.15856257620453096
-1.2659563450725184
-0.84231103876561
-0.15856257620453096
-1.2659563450725184
-0.84231103876561
-0.15856257620453096
-1.2659563450725184
-0.84231103876561
-0.15856257620453096
-1.2659563450725184
-0.8416468057003624
-0.15807789949460138
-1.2659883134373557
-0.8416468057003624
-0.15807789949460138
-1.2659883134373557
-0.8416468057003624
-0.15807789949460138
-1.2659883134373557
-0.8416468057003624
-0.15807789949460138
-1.2659883134373557
-0.8430631541882297
-0.15753599409838973
-1.2653612417636966
-0.8430631541882297
-0.15753599409838973
-1.2653612417636966
-0.8430631541882297
-0.15753599409838973
-1.2653612417636966
-0.8430631541882297
-0.15753599409838973
-1.2653612417636966
-0.8441238733808424
-0.15720489854165706
-1.2646952937363993
-0.8441238733808424
-0.15720489854165706
-1.2646952937363993
-0.8441238733808424
-0.15720489854165706
-1.2646952937363993
-0.8441238733808424
-0.15720489854165706
-1.2646952937363993
-0.8429201625695217
-0.1570901485291134
-1.2647169401382854
-0.8429201625695217
-0.1570901485291134
-1.2647169401382854
-0.8429201625695217
-0.1570901485291134
-1.2647169401382854
-0.8429201625695217
-0.1570901485291134
-1.2647169401382854
-0.8408357731212015
-0.1571946781900191
-1.2650832992000831
-0.8408357731212015
-0.1571946781900191
-1.2650832992000831
-0.8408357731212015
-0.1571946781900191
-1.2650832992000831
-0.8408357731212015
-0.1571946781900191
-1.2650832992000831
-0.8407427120316675
-0.1571321514921866
-1.2651201716245086
-0.8407427120316675
-0.1571321514921866
-1.2651201716245086
-0.8407427120316675
-0.1571321514921866
-1.2651201716245086
-0.8407427120316675
-0.1571321514921866
-1.2651201716245086
-0.8420531545542506
-0.15718887380833074
-1.2645275947889918
-0.8420531545542506
-0.15718887380833074
-1.2645275947889918
-0.8420531545542506
-0.15718887380833074
-1.2645275947889918
-0.8420531545542506
-0.15718887380833074
-1.2645275947889918
-0.843589240913851
-0.15735984125073266
-1.264216156678666
-0.843589240913851
-0.15735984125073266
-1.264216156678666
-0.843589240913851
-0.15735984125073266
-1.264216156678666
-0.843589240913851
-0.15735984125073266
-1.264216156678666
-0.844258934627308
-0.15737185031014844
-1.2642080916775436
-0.844258934627308
-0.15737185031014844
-1.2642080916775436
-0.844258934627308
-0.15737185031014844
-1.2642080916775436
-0.844258934627308
-0.15737185031014844
-1.2642080916775436
-0.8439088616982608
-0.15711156393891032
-1.2641925791461668
-0.8439088616982608
-0.15711156393891032
-1.2641925791461668
-0.8439088616982608
-0.15711156393891032
-1.2641925791461668
-0.8439088616982608
-0.15711156393891032
-1.2641925791461668
-0.8438456553049719
-0.15720345223915397
-1.264157098920955
-0.8438456553049719
-0.15720345223915397
-1.264157098920955
-0.8438456553049719
-0.15720345223915397
-1.264157098920955
-0.8438456553049719
-0.15720345223915397
-1.264157098920955
-0.8446169467919104
-0.1570168872223099
-1.2639353600126317
-0.8446169467919104
-0.1570168872223099
-1.2639353600126317
-0.8446169467919104
-0.1570168872223099
-1.2639353600126317
-0.8446169467919104
-0.1570168872223099
-1.2639353600126317
-0.8454194611459673
-0.15691275035831168
-1.2634850439341179
-0.8454194611459673
-0.15691275035831168
-1.2634850439341179
-0.8454194611459673
-0.15691275035831168
-1.2634850439341179
-0.8454194611459673
-0.15691275035831168
-1.2634850439341179
-0.8448526917277128
-0.15663075320192302
-1.2631230897633046
-0.8448526917277128
-0.15663075320192302
-1.2631230897633046
-0.8448526917277128
-0.15663075320192302
-1.2631230897633046
-0.8448526917277128
-0.15663075320192302
-1.2631230897633046
-0.842553972817804
-0.15638663758951193
-1.2634787102565368
-0.842553972817804
-0.15638663758951193
-1.2634787102565368
-0.842553972817804
-0.15638663758951193
-1.2634787102565368
-0.842553972817804
-0.15638663758951193
-1.2634787102565368
-0.8403540757009832
-0.15608610343705762
-1.2639323689658404
-0.8403540757009832
-0.15608610343705762
-1.2639323689658404
-0.8403540757009832
-0.15608610343705762
-1.2639323689658404
-0.8403540757009832
-0.15608610343705762
-1.2639323689658404
-0.8403187227746199
-0.15604976811320975
-1.2638690949492435
-0.8403187227746199
-0.15604976811320975
-1.2638690949492435
-0.8403187227746199
-0.15604976811320975
-1.2638690949492435
-0.8403187227746199
-0.15604976811320975
-1.2638690949492435
-0.8420205209028124
-0.155858825150883
-1.2632239215004721
-0.8420205209028124
-0.155858825150883
-1.2632239215004721
-0.8420205209028124
-0.155858825150883
-1.2632239215004721
-0.8420205209028124
-0.155858825150883
-1.2632239215004721
-0.8413237611356668
-0.15555005313093404
-1.262991062701901
-0.8413237611356668
-0.15555005313093404
-1.262991062701901
-0.8413237611356668
-0.15555005313093404
-1.262991062701901
-0.8413237611356668
-0.15555005313093404
-1.262991062701901
-0.8382316326804626
-0.1551477478189537
-1.2636173320507817
-0.8382316326804626
-0.1551477478189537
-1.2636173320507817
-0.8382316326804626
-0.1551477478189537
-1.2636173320507817
-0.8382316326804626
-0.1551477478189537
-1.2636173320507817
-0.8369540966334669
-0.1547492916133078
-1.2637108382299458
-0.8369540966334669
-0.1547492916133078
-1.2637108382299458
-0.8369540966334669
-0.1547492916133078
-1.2637108382299458
-0.8369540966334669
-0.1547492916133078
-1.2637108382299458
-0.837785862997975
-0.15480133663941503
-1.2631892275583607
-0.837785862997975
-0.15480133663941503
-1.2631892275583607
-0.837785862997975
-0.15480133663941503
-1.2631892275583607
-0.837785862997975
-0.15480133663941503
-1.2631892275583607
-0.8386636163278657
-0.1544863817083717
-1.262240587489627
-0.8386636163278657
-0.1544863817083717
-1.262240587489627
-0.8386636163278657
-0.1544863817083717
-1.262240587489627
-0.8386636163278657
-0.1544863817083717
-1.262240587489627
-0.835866201133742
-0.15401095257050168
-1.2619076235745732
-0.835866201133742
-0.15401095257050168
-1.2619076235745732
-0.835866201133742
-0.15401095257050168
-1.2619076235745732
-0.835866201133742
-0.15401095257050168
-1.2619076235745732
-0.8290410314949671
-0.1533257032612
-1.2626389966469482
-0.8290410314949671
-0.1533257032612
-1.2626389966469482
-0.8290410314949671
-0.1533257032612
-1.2626389966469482
-0.8290410314949671
-0.1533257032612
-1.2626389966469482
-0.8233321881078421
-0.15263763625085183
-1.2636751747566528
-0.8233321881078421
-0.15263763625085183
-1.2636751747566528
-0.8233321881078421
-0.15263763625085183
-1.2636751747566528
-0.8233321881078421
-0.15263763625085183
-1.2636751747566528
-0.8231752706437411
-0.1526669708662031
-1.2636765791222966
-0.8231752706437411
-0.1526669708662031
-1.2636765791222966
-0.8231752706437411
-0.1526669708662031
-1.2636765791222966
-0.8231752706437411
-0.1526669708662031
-1.2636765791222966
-0.8253765863449429
-0.15283098931599953
-1.2629157981767012
-0.8253765863449429
-0.15283098931599953
-1.2629157981767012
-0.8253765863449429
-0.15283098931599953
-1.2629157981767012
-0.8253765863449429
-0.15283098931599953
-1.2629157981767012
-0.8265885887589722
-0.15323024448160452
-1.2621861248203616
-0.8265885887589722
-0.15323024448160452
-1.2621861248203616
-0.8265885887589722
-0.15323024448160452
-1.2621861248203616
-0.8265885887589722
-0.15323024448160452
-1.2621861248203616
-0.8253156305721491
-0.15332805299714053
-1.2620349997456972
-0.8253156305721491
-0.15332805299714053
-1.2620349997456972
-0.8253156305721491
-0.15332805299714053
-1.2620349997456972
-0.8253156305721491
-0.15332805299714053
-1.2620349997456972
-0.8204417453881067
-0.15283970928719845
-1.2621943235618085
-0.8204417453881067
-0.15283970928719845
-1.2621943235618085
-0.8204417453881067
-0.15283970928719845
-1.2621943235618085
-0.8204417453881067
-0.15283970928719845
-1.2621943235618085
-0.8109729919601067
-0.15227437380642656
-1.2633190118790372
-0.8109729919601067
-0.15227437380642656
-1.2633190118790372
-0.8109729919601067
-0.15227437380642656
-1.2633190118790372
-0.8109729919601067
-0.15227437380642656
-1.2633190118790372
-0.7992676494564867
-0.15232419080058412
-1.2645682062942765
-0.7992676494564867
-0.15232419080058412
-1.2645682062942765
-0.7992676494564867
-0.15232419080058412
-1.2645682062942765
-0.7992676494564867
-0.15232419080058412
-1.2645682062942765
-0.7877477738077442
-0.15277039506591003
-1.2657114818763295
-0.7877477738077442
-0.15277039506591003
-1.2657114818763295
-0.7877477738077442
-0.15277039506591003
-1.2657114818763295
-0.7877477738077442
-0.15277039506591003
-1.2657114818763295
-0.775547152705153
-0.15394689845858892
-1.2668236975326401
-0.775547152705153
-0.15394689845858892
-1.2668236975326401
-0.775547152705153
-0.15394689845858892
-1.2668236975326401
-0.775547152705153
-0.15394689845858892
-1.2668236975326401
-0.761334728334074
-0.1552300614843459
-1.268068887839397
-0.761334728334074
-0.1552300614843459
-1.268068887839397
-0.761334728334074
-0.1552300614843459
-1.268068887839397
-0.761334728334074
-0.1552300614843459
-1.268068887839397
-0.7470107628999892
-0.15582944884689184
-1.2687630907727254
-0.7470107628999892
-0.15582944884689184
-1.2687630907727254
-0.7470107628999892
-0.15582944884689184
-1.2687630907727254
-0.7470107628999892
-0.15582944884689184
-1.2687630907727254
-0.7362413994628837
-0.15589364119880428
-1.2687222005033285
-0.7362413994628837
-0.15589364119880428
-1.2687222005033285
-0.7362413994628837
-0.15589364119880428
-1.2687222005033285
-0.7362413994628837
-0.15589364119880428
-1.2687222005033285
-0.7278561707911486
-0.1565153017730759
-1.2681212015412782
-0.7278561707911486
-0.1565153017730759
-1.2681212015412782
-0.7278561707911486
-0.1565153017730759
-1.2681212015412782
-0.7278561707911486
-0.1565153017730759
-1.2681212015412782
-0.720102563426735
-0.15724658630614533
-1.2677736953549597
-0.720102563426735
-0.15724658630614533
-1.2677736953549597
-0.720102563426735
-0.15724658630614533
-1.2677736953549597
-0.720102563426735
-0.15724658630614533
-1.2677736953549597
-0.7081436722223233
-0.1575768406815679
-1.267957070995319
-0.7081436722223233
-0.1575768406815679
-1.267957070995319
-0.7081436722223233
-0.1575768406815679
-1.267957070995319
-0.7081436722223233
-0.1575768406815679
-1.267957070995319
-0.6913812044237265
-0.1573278293083878
-1.2685399997941906
-0.6913812044237265
-0.1573278293083878
-1.2685399997941906
-0.6913812044237265
-0.1573278293083878
-1.2685399997941906
-0.6913812044237265
-0.1573278293083878
-1.2685399997941906
-0.6729220921875577
-0.15679696826375794
-1.2697734030043495
-0.6729220921875577
-0.15679696826375794
-1.2697734030043495
-0.6729220921875577
-0.15679696826375794
-1.2697734030043495
-0.6729220921875577
-0.15679696826375794
-1.2697734030043495
-0.6536402085573951
-0.15717564682428614
-1.270954789741534
-0.6536402085573951
-0.15717564682428614
-1.270954789741534
-0.6536402085573951
-0.15717564682428614
-1.270954789741534
-0.6536402085573951
-0.15717564682428614
-1.270954789741534
-0.6330881421045778
-0.15695747041945046
-1.2723866935193842
-0.6330881421045778
-0.15695747041945046
-1.2723866935193842
-0.6330881421045778
-0.15695747041945046
-1.2723866935193842
-0.6330881421045778
-0.15695747041945046
-1.2723866935193842
-0.6092940460752264
-0.15548208861207788
-1.274672628552844
-0.6092940460752264
-0.15548208861207788
-1.274672628552844
-0.6092940460752264
-0.15548208861207788
-1.274672628552844
-0.6092940460752264
-0.15548208861207788
-1.274672628552844
-0.578515862464257
-0.15315970451650116
-1.277711941558301
-0.578515862464257
-0.15315970451650116
-1.277711941558301
-0.578515862464257
-0.15315970451650116
-1.277711941558301
-0.578515862464257
-0.15315970451650116
-1.277711941558301
-0.5424607605357202
-0.15156103264917742
-1.281725881916958
-0.5424607605357202
-0.15156103264917742
-1.281725881916958
-0.5424607605357202
-0.15156103264917742
-1.281725881916958
-0.5424607605357202
-0.15156103264917742
-1.281725881916958
-0.5058036825828301
-0.15044873581628554
-1.2864848706583796
-0.5058036825828301
-0.15044873581628554
-1.2864848706583796
-0.5058036825828301
-0.15044873581628554
-1.2864848706583796
-0.5058036825828301
-0.15044873581628554
-1.2864848706583796
-0.4689054787923349
-0.14970210839675865
-1.290748403371178
-0.4689054787923349
-0.14970210839675865
-1.290748403371178
-0.4689054787923349
-0.14970210839675865
-1.290748403371178
-0.4689054787923349
-0.14970210839675865
-1.290748403371178
-0.4273072205933616
-0.14800393073825674
-1.2952900290375173
-0.4273072205933616
-0.14800393073825674
-1.2952900290375173
-0.4273072205933616
-0.14800393073825674
-1.2952900290375173
-0.4273072205933616
-0.14800393073825674
-1.2952900290375173
-0.38267169132546996
-0.1469809069996913
-1.3010444643104375
-0.38267169132546996
-0.1469809069996913
-1.3010444643104375
-0.38267169132546996
-0.1469809069996913
-1.3010444643104375
-0.38267169132546996
-0.1469809069996913
-1.3010444643104375
-0.345966206790203
-0.1473081553121475
-1.3070683476163865
-0.345966206790203
-0.1473081553121475
-1.3070683476163865
-0.345966206790203
-0.1473081553121475
-1.3070683476163865
-0.345966206790203
-0.1473081553121475
-1.3070683476163865
-0.32065213212472554
-0.14972992625001552
-1.3111073022737778
-0.32065213212472554
-0.14972992625001552
-1.3111073022737778
-0.32065213212472554
-0.14972992625001552
-1.3111073022737778
-0.32065213212472554
-0.14972992625001552
-1.3111073022737778
-0.310267375577372
-0.15269586301232677
-1.313288007390733
-0.310267375577372
-0.15269586301232677
-1.313288007390733
-0.310267375577372
-0.15269586301232677
-1.313288007390733
-0.310267375577372
-0.15269586301232677
-1.313288007390733
-0.30730346627051447
-0.15647277437503393
-1.3156032994415985
-0.30730346627051447
-0.15647277437503393
-1.3156032994415985
-0.30730346627051447
-0.15647277437503393
-1.3156032994415985
-0.30730346627051447
-0.15647277437503393
-1.3156032994415985
-0.3042701683359524
-0.16015287701963649
-1.3177558798089282
-0.3042701683359524
-0.16015287701963649
-1.3177558798089282
-0.3042701683359524
-0.16015287701963649
-1.3177558798089282
-0.3042701683359524
-0.16015287701963649
-1.3177558798089282
-0.2970994677325794
-0.16235084864674115
-1.3193510281050875
-0.2970994677325794
-0.16235084864674115
-1.3193510281050875
-0.2970994677325794
-0.16235084864674115
-1.3193510281050875
-0.2970994677325794
-0.16235084864674115
-1.3193510281050875
-0.28762450951934054
-0.16382587627045578
-1.320951504916371
-0.28762450951934054
-0.16382587627045578
-1.320951504916371
-0.28762450951934054
-0.16382587627045578
-1.320951504916371
-0.28762450951934054
-0.16382587627045578
-1.320951504916371
-0.2825459919316141
-0.16530354169540903
-1.3217658564597494
-0.2825459919316141
-0.16530354169540903
-1.3217658564597494
-0.2825459919316141
-0.16530354169540903
-1.3217658564597494
-0.2825459919316141
-0.16530354169540903
-1.3217658564597494
-0.28320054736440425
-0.166911481781322
-1.3218078069848946
-0.28320054736440425
-0.166911481781322
-1.3218078069848946
-0.28320054736440425
-0.166911481781322
-1.3218078069848946
-0.28320054736440425
-0.166911481781322
-1.3218078069848946
-0.2857401273487057
-0.16855141433820006
-1.3216423551537173
-0.2857401273487057
-0.16855141433820006
-1.3216423551537173
-0.2857401273487057
-0.16855141433820006
-1.3216423551537173
-0.2857401273487057
-0.16855141433820006
-1.3216423551537173
-0.28743337430818017
-0.16965801875090555
-1.3220883976631959
-0.28743337430818017
-0.16965801875090555
-1.3220883976631959
-0.28743337430818017
-0.16965801875090555
-1.3220883976631959
-0.28743337430818017
-0.16965801875090555
-1.3220883976631959
-0.2871162882062418
-0.17009178719926618
-1.3231160446564523
-0.2871162882062418
-0.17009178719926618
-1.3231160446564523
-0.2871162882062418
-0.17009178719926618
-1.3231160446564523
-0.2871162882062418
-0.17009178719926618
-1.3231160446564523
-0.2850453090907415
-0.17014924787466848
-1.3244671900124356
-0.2850453090907415
-0.17014924787466848
-1.3244671900124356
-0.2850453090907415
-0.17014924787466848
-1.3244671900124356
-0.2850453090907415
-0.17014924787466848
-1.3244671900124356
-0.2831528289029903
-0.16997925742078157
-1.3255646186832406
-0.2831528289029903
-0.16997925742078157
-1.3255646186832406
-0.2831528289029903
-0.16997925742078157
-1.3255646186832406
-0.2831528289029903
-0.16997925742078157
-1.3255646186832406
-0.28306435611823005
-0.1697006617615352
-1.326056752837859
-0.28306435611823005
-0.1697006617615352
-1.326056752837859
-0.28306435611823005
-0.1697006617615352
-1.326056752837859
-0.28306435611823005
-0.1697006617615352
-1.326056752837859
-0.2834550303368415
-0.16921075642285147
-1.32671163456131
-0.2834550303368415
-0.16921075642285147
-1.32671163456131
-0.2834550303368415
-0.16921075642285147
-1.32671163456131
-0.2834550303368415
-0.16921075642285147
-1.32671163456131
-0.2831726349346008
-0.16878613425889694
-1.3272414521151148
-0.2831726349346008
-0.16878613425889694
-1.3272414521151148
-0.2831726349346008
-0.16878613425889694
-1.3272414521151148
-0.2831726349346008
-0.16878613425889694
-1.3272414521151148
-0.2813900630379003
-0.16821955180389128
-1.327514391477357
-0.2813900630379003
-0.16821955180389128
-1.327514391477357
-0.2813900630379003
-0.16821955180389128
-1.327514391477357
-0.2813900630379003
-0.16821955180389128
-1.327514391477357
-0.2795409281474892
-0.16754678299732664
-1.3275365845462
-0.2795409281474892
-0.16754678299732664
-1.3275365845462
-0.2795409281474892
-0.16754678299732664
-1.3275365845462
-0.2795409281474892
-0.16754678299732664
-1.3275365845462
-0.2784255320485756
-0.16674375019031135
-1.3271464222007903
-0.2784255320485756
-0.16674375019031135
-1.3271464222007903
-0.2784255320485756
-0.16674375019031135
-1.3271464222007903
-0.2784255320485756
-0.16674375019031135
-1.3271464222007903
-0.2784063776872982
-0.1663114351585343
-1.326610182007809
-0.2784063776872982
-0.1663114351585343
-1.326610182007809
-0.2784063776872982
-0.1663114351585343
-1.326610182007809
-0.2784063776872982
-0.1663114351585343
-1.326610182007809
-0.27898023486240564
-0.16639781725169875
-1.3263560768010372
-0.27898023486240564
-0.16639781725169875
-1.3263560768010372
-0.27898023486240564
-0.16639781725169875
-1.3263560768010372
-0.27898023486240564
-0.16639781725169875
-1.3263560768010372
-0.2813758946951382
-0.16758899451192985
-1.326021204970534
-0.2813758946951382
-0.16758899451192985
-1.326021204970534
-0.2813758946951382
-0.16758899451192985
-1.326021204970534
-0.2813758946951382
-0.16758899451192985
-1.326021204970534
-0.28202432566687324
-0.16879787309258462
-1.3263918797013816
-0.28202432566687324
-0.16879787309258462
-1.3263918797013816
-0.28202432566687324
-0.16879787309258462
-1.3263918797013816
-0.28202432566687324
-0.16879787309258462
-1.3263918797013816
-0.2806398311610505
-0.1693832980295695
-1.3269690131468104
-0.2806398311610505
-0.1693832980295695
-1.3269690131468104
-0.2806398311610505
-0.1693832980295695
-1.3269690131468104
-0.2806398311610505
-0.1693832980295695
-1.3269690131468104
-0.27924344569339266
-0.16977359458749147
-1.3274016385224852
-0.27924344569339266
-0.16977359458749147
-1.3274016385224852
-0.27924344569339266
-0.16977359458749147
-1.3274016385224852
-0.27924344569339266
-0.16977359458749147
-1.3274016385224852
-0.2793952873088784
-0.17019771116321689
-1.3281205280064068
-0.2793952873088784
-0.17019771116321689
-1.3281205280064068
-0.2793952873088784
-0.17019771116321689
-1.3281205280064068
-0.2793952873088784
-0.17019771116321689
-1.3281205280064068
-0.2803903175604572
-0.17053935388466554
-1.3282367457964361
-0.2803903175604572
-0.17053935388466554
-1.3282367457964361
-0.2803903175604572
-0.17053935388466554
-1.3282367457964361
-0.2803903175604572
-0.17053935388466554
-1.3282367457964361
-0.2806259508227559
-0.17106737857662374
-1.328392448774501
-0.2806259508227559
-0.17106737857662374
-1.328392448774501
-0.2806259508227559
-0.17106737857662374
-1.328392448774501
-0.2806259508227559
-0.17106737857662374
-1.328392448774501
-0.279710389409335
-0.17164647554238388
-1.32866080336687
-0.279710389409335
-0.17164647554238388
-1.32866080336687
-0.279710389409335
-0.17164647554238388
-1.32866080336687
-0.279710389409335
-0.17164647554238388
-1.32866080336687
-0.27929520347439246
-0.1724082601399958
-1.3286668215500703
-0.27929520347439246
-0.1724082601399958
-1.3286668215500703
-0.27929520347439246
-0.1724082601399958
-1.3286668215500703
-0.27929520347439246
-0.1724082601399958
-1.3286668215500703
-0.2794100840194709
-0.17325235852608292
-1.3285371279178293
-0.2794100840194709
-0.17325235852608292
-1.3285371279178293
-0.2794100840194709
-0.17325235852608292
-1.3285371279178293
-0.2794100840194709
-0.17325235852608292
-1.3285371279178293
-0.28024759430333296
-0.17421197155191726
-1.328481538927493
-0.28024759430333296
-0.17421197155191726
-1.328481538927493
-0.28024759430333296
-0.17421197155191726
-1.328481538927493
-0.28024759430333296
-0.17421197155191726
-1.328481538927493
-0.28101229233096897
-0.1750470610230457
-1.3281014584537696
-0.28101229233096897
-0.1750470610230457
-1.3281014584537696
-0.28101229233096897
-0.1750470610230457
-1.3281014584537696
-0.28101229233096897
-0.1750470610230457
-1.3281014584537696
-0.2811237226504171
-0.17571521981826693
-1.3278997284817895
-0.2811237226504171
-0.17571521981826693
-1.3278997284817895
-0.2811237226504171
-0.17571521981826693
-1.3278997284817895
-0.2811237226504171
-0.17571521981826693
-1.3278997284817895
-0.281191240309937
-0.1766667567810718
-1.3277389255858951
-0.281191240309937
-0.1766667567810718
-1.3277389255858951
-0.281191240309937
-0.1766667567810718
-1.3277389255858951
-0.281191240309937
-0.1766667567810718
-1.3277389255858951
-0.2810381801530263
-0.1774602757237128
-1.3276396395322119
-0.2810381801530263
-0.1774602757237128
-1.3276396395322119
-0.2810381801530263
-0.1774602757237128
-1.3276396395322119
-0.2810381801530263
-0.1774602757237128
-1.3276396395322119
-0.28043197704028083
-0.17741100500164786
-1.3274501973317259
-0.28043197704028083
-0.17741100500164786
-1.3274501973317259
-0.28043197704028083
-0.17741100500164786
-1.3274501973317259
-0.28043197704028083
-0.17741100500164786
-1.3274501973317259
-0.2805061203435902
-0.17731523828888474
-1.3274570978543585
-0.2805061203435902
-0.17731523828888474
-1.3274570978543585
-0.2805061203435902
-0.17731523828888474
-1.3274570978543585
-0.2805061203435902
-0.17731523828888474
-1.3274570978543585
-0.28051980515686487
-0.17706940122675194
-1.326968921816567
-0.28051980515686487
-0.17706940122675194
-1.326968921816567
-0.28051980515686487
-0.17706940122675194
-1.326968921816567
-0.28051980515686487
-0.17706940122675194
-1.326968921816567
-0.2801356149126666
-0.17695828825804746
-1.3264010457595614
-0.2801356149126666
-0.17695828825804746
-1.3264010457595614
-0.2801356149126666
-0.17695828825804746
-1.3264010457595614
-0.2801356149126666
-0.17695828825804746
-1.3264010457595614
-0.28009829836282996
-0.17697709650796867
-1.3258798791036488
-0.28009829836282996
-0.17697709650796867
-1.3258798791036488
-0.28009829836282996
-0.17697709650796867
-1.3258798791036488
-0.28009829836282996
-0.17697709650796867
-1.3258798791036488
-0.2812320586709826
-0.17693619605684452
-1.3251454359604262
-0.2812320586709826
-0.17693619605684452
-1.3251454359604262
-0.2812320586709826
-0.17693619605684452
-1.3251454359604262
-0.2812320586709826
-0.17693619605684452
-1.3251454359604262
-0.28097656771686524
-0.1766403420160286
-1.3246888371417727
-0.28097656771686524
-0.1766403420160286
-1.3246888371417727
-0.28097656771686524
-0.1766403420160286
-1.3246888371417727
-0.28097656771686524
-0.1766403420160286
-1.3246888371417727
-0.27970592576299735
-0.1760118799834613
-1.3242163036113086
-0.27970592576299735
-0.1760118799834613
-1.3242163036113086
-0.27970592576299735
-0.1760118799834613
-1.3242163036113086
-0.27970592576299735
-0.1760118799834613
-1.3242163036113086
-0.279130821364367
-0.1759313719962236
-1.3237576817272703
-0.279130821364367
-0.1759313719962236
-1.3237576817272703
-0.279130821364367
-0.1759313719962236
-1.3237576817272703
-0.279130821364367
-0.1759313719962236
-1.3237576817272703
-0.2795169165468097
-0.1758271347929067
-1.3232932415441057
-0.2795169165468097
-0.1758271347929067
-1.3232932415441057
-0.2795169165468097
-0.1758271347929067
-1.3232932415441057
-0.2795169165468097
-0.1758271347929067
-1.3232932415441057
-0.2802456574207486
-0.17567640741528287
-1.3228046527766353
-0.2802456574207486
-0.17567640741528287
-1.3228046527766353
-0.2802456574207486
-0.17567640741528287
-1.3228046527766353
-0.2802456574207486
-0.17567640741528287
-1.3228046527766353
-0.28044818838130164
-0.17562064333715335
-1.3225237772228549
-0.28044818838130164
-0.17562064333715335
-1.3225237772228549
-0.28044818838130164
-0.17562064333715335
-1.3225237772228549
-0.28044818838130164
-0.17562064333715335
-1.3225237772228549
-0.27925383224119693
-0.17573851456687475
-1.322363199800652
-0.27925383224119693
-0.17573851456687475
-1.322363199800652
-0.27925383224119693
-0.17573851456687475
-1.322363199800652
-0.27925383224119693
-0.17573851456687475
-1.322363199800652
-0.27908246689077615
-0.17576170537152008
-1.322375310041422
-0.27908246689077615
-0.17576170537152008
-1.322375310041422
-0.27908246689077615
-0.17576170537152008
-1.322375310041422
-0.27908246689077615
-0.17576170537152008
-1.322375310041422
-0.28007935899536346
-0.1758803134122584
-1.3221721846755257
-0.28007935899536346
-0.1758803134122584
-1.3221721846755257
-0.28007935899536346
-0.1758803134122584
-1.3221721846755257
-0.28007935899536346
-0.1758803134122584
-1.3221721846755257
-0.28109473279179303
-0.17621201447876328
-1.3221879864967432
-0.28109473279179303
-0.17621201447876328
-1.3221879864967432
-0.28109473279179303
-0.17621201447876328
-1.3221879864967432
-0.28109473279179303
-0.17621201447876328
-1.3221879864967432
-0.2797793237025505
-0.1760885918591322
-1.3220728806348647
-0.2797793237025505
-0.1760885918591322
-1.3220728806348647
-0.2797793237025505
-0.1760885918591322
-1.3220728806348647
-0.2797793237025505
-0.1760885918591322
-1.3220728806348647
-0.27800220166932027
-0.1761025507837664
-1.3220960576883631
-0.27800220166932027
-0.1761025507837664
-1.3220960576883631
-0.27800220166932027
-0.1761025507837664
-1.3220960576883631
-0.27800220166932027
-0.1761025507837664
-1.3220960576883631
-0.27848505958943187
-0.17629080521851026
-1.3219292945602323
-0.27848505958943187
-0.17629080521851026
-1.3219292945602323
-0.27848505958943187
-0.17629080521851026
-1.3219292945602323
-0.27848505958943187
-0.17629080521851026
-1.3219292945602323
-0.27995977058047944
-0.17664177363241676
-1.3218041858558727
-0.27995977058047944
-0.17664177363241676
-1.3218041858558727
-0.27995977058047944
-0.17664177363241676
-1.3218041858558727
-0.27995977058047944
-0.17664177363241676
-1.3218041858558727
-0.2801502647884147
-0.17661166184759025
-1.3216945229357426
-0.2801502647884147
-0.17661166184759025
-1.3216945229357426
-0.2801502647884147
-0.17661166184759025
-1.3216945229357426
-0.2801502647884147
-0.17661166184759025
-1.3216945229357426
-0.2789360128232741
-0.17695676575646144
-1.321948793679985
-0.2789360128232741
-0.17695676575646144
-1.321948793679985
-0.2789360128232741
-0.17695676575646144
-1.321948793679985
-0.2789360128232741
-0.17695676575646144
-1.321948793679985
-0.27883851589861164
-0.17688402724969277
-1.3219678977138185
-0.27883851589861164
-0.17688402724969277
-1.3219678977138185
-0.27883851589861164
-0.17688402724969277
-1.3219678977138185
-0.27883851589861164
-0.17688402724969277
-1.3219678977138185
-0.27966345203485177
-0.17724569214201033
-1.3220931109167178
-0.27966345203485177
-0.17724569214201033
-1.3220931109167178
-0.27966345203485177
-0.17724569214201033
-1.3220931109167178
-0.27966345203485177
-0.17724569214201033
-1.3220931109167178
-0.2803047238779538
-0.1776563935115743
-1.3224016719804814
-0.2803047238779538
-0.1776563935115743
-1.3224016719804814
-0.2803047238779538
-0.1776563935115743
-1.3224016719804814
-0.2803047238779538
-0.1776563935115743
-1.3224016719804814
-0.2790115570516991
-0.17769602116521377
-1.322977529189481
-0.2790115570516991
-0.17769602116521377
-1.322977529189481
-0.2790115570516991
-0.17769602116521377
-1.322977529189481
-0.2790115570516991
-0.17769602116521377
-1.322977529189481
-0.27765120602335963
-0.17784964177768625
-1.3236206196570217
-0.27765120602335963
-0.17784964177768625
-1.3236206196570217
-0.27765120602335963
-0.17784964177768625
-1.3236206196570217
-0.27765120602335963
-0.17784964177768625
-1.3236206196570217
-0.2782112376872553
-0.17833758311046283
-1.3238487025517378
-0.2782112376872553
-0.17833758311046283
-1.3238487025517378
-0.2782112376872553
-0.17833758311046283
-1.3238487025517378
-0.2782112376872553
-0.17833758311046283
-1.3238487025517378
-0.27830869033440875
-0.1784104004861821
-1.32382954153572
-0.27830869033440875
-0.1784104004861821
-1.32382954153572
-0.27830869033440875
-0.1784104004861821
-1.32382954153572
-0.27830869033440875
-0.1784104004861821
-1.32382954153572
-0.27813724476440904
-0.17843349011890264
-1.3238419169887061
-0.27813724476440904
-0.17843349011890264
-1.3238419169887061
-0.27813724476440904
-0.17843349011890264
-1.3238419169887061
-0.27813724476440904
-0.17843349011890264
-1.3238419169887061
-0.2774335872626946
-0.17831279372968545
-1.3236718872781381
-0.2774335872626946
-0.17831279372968545
-1.3236718872781381
-0.2774335872626946
-0.17831279372968545
-1.3236718872781381
-0.2774335872626946
-0.17831279372968545
-1.3236718872781381
-0.27728920339657775
-0.17790249276777245
-1.3237427444789904
-0.27728920339657775
-0.17790249276777245
-1.3237427444789904
-0.27728920339657775
-0.17790249276777245
-1.3237427444789904
-0.27728920339657775
-0.17790249276777245
-1.3237427444789904
-0.27767146833575607
-0.1773974416087911
-1.3236052076419862
-0.27767146833575607
-0.1773974416087911
-1.3236052076419862
-0.27767146833575607
-0.1773974416087911
-1.3236052076419862
-0.27767146833575607
-0.1773974416087911
-1.3236052076419862
-0.27769955284360226
-0.1767443309563321
-1.323346835448076
-0.27769955284360226
-0.1767443309563321
-1.323346835448076
-0.27769955284360226
-0.1767443309563321
-1.323346835448076
-0.27769955284360226
-0.1767443309563321
-1.323346835448076
-0.2774933986279885
-0.17640447741049245
-1.3232393816203314
-0.2774933986279885
-0.17640447741049245
-1.3232393816203314
-0.2774933986279885
-0.17640447741049245
-1.3232393816203314
-0.2774933986279885
-0.17640447741049245
-1.3232393816203314
-0.2775673645852219
-0.17630854476133642
-1.3232462168213397
-0.2775673645852219
-0.17630854476133642
-1.3232462168213397
-0.2775673645852219
-0.17630854476133642
-1.3232462168213397
-0.2775673645852219
-0.17630854476133642
-1.3232462168213397
-0.2775673645852219
-0.17630854476133642
-1.3232462168213397
-0.2775673645852219
-0.17630854476133642
-1.3232462168213397
-0.2775673645852219
-0.17630854476133642
-1.3232462168213397
-0.2775673645852219
-0.17630854476133642
-1.3232462168213397
-0.2775673645852219
-0.17630854476133642
-1.3232462168213397
-0.2775673645852219
-0.17630854476133642
-1.3232462168213397
-0.2775673645852219
-0.17630854476133642
-1.3232462168213397
-0.2775673645852219
-0.17630854476133642
-1.3232462168213397
-0.2768870924157139
-0.17635686380490623
-1.3230496197753594
-0.2768870924157139
-0.17635686380490623
-1.3230496197753594
-0.2768870924157139
-0.17635686380490623
-1.3230496197753594
-0.2768870924157139
-0.17635686380490623
-1.3230496197753594
-0.2769227961911334
-0.17650020266768876
-1.3228523941772186
-0.2769227961911334
-0.17650020266768876
-1.3228523941772186
-0.2769227961911334
-0.17650020266768876
-1.3228523941772186
-0.2769227961911334
-0.17650020266768876
-1.3228523941772186
-0.27867749508958933
-0.17709584013920232
-1.3228415601821502
-0.27867749508958933
-0.17709584013920232
-1.3228415601821502
-0.27867749508958933
-0.17709584013920232
-1.3228415601821502
-0.27867749508958933
-0.17709584013920232
-1.3228415601821502
-0.28005811110339535
-0.17777030423154935
-1.3231230824619034
-0.28005811110339535
-0.17777030423154935
-1.3231230824619034
-0.28005811110339535
-0.17777030423154935
-1.3231230824619034
-0.28005811110339535
-0.17777030423154935
-1.3231230824619034
-0.27964023793105747
-0.1781325572975495
-1.3234575448015824
-0.27964023793105747
-0.1781325572975495
-1.3234575448015824
-0.27936661184569317
-0.17890493028124813
-1.3237208954043587
-0.27936661184569317
-0.17890493028124813
-1.3237208954043587
-0.27936661184569317
-0.17890493028124813
-1.3237208954043587
-0.27936661184569317
-0.17890493028124813
-1.3237208954043587
-0.2800543234926285
-0.17965350726806764
-1.3239768573052138
-0.2800543234926285
-0.17965350726806764
-1.3239768573052138
-0.2800543234926285
-0.17965350726806764
-1.3239768573052138
-0.2800543234926285
-0.17965350726806764
-1.3239768573052138
-0.2813966181052745
-0.18056764716583076
-1.3240516736814014
-0.2813966181052745
-0.18056764716583076
-1.3240516736814014
-0.2813966181052745
-0.18056764716583076
-1.3240516736814014
-0.2813966181052745
-0.18056764716583076
-1.3240516736814014
-0.2823146288170447
-0.18082757596237697
-1.324084358695871
-0.2823146288170447
-0.18082757596237697
-1.324084358695871
-0.2823146288170447
-0.18082757596237697
-1.324084358695871
-0.2823146288170447
-0.18082757596237697
-1.324084358695871
-0.28165987572980083
-0.18066223740031492
-1.3242651805551109
-0.28165987572980083
-0.18066223740031492
-1.3242651805551109
-0.28165987572980083
-0.18066223740031492
-1.3242651805551109
-0.28165987572980083
-0.18066223740031492
-1.3242651805551109
-0.28109168057011097
-0.18037510215618852
-1.324281271742613
-0.28109168057011097
-0.18037510215618852
-1.324281271742613
-0.28109168057011097
-0.18037510215618852
-1.324281271742613
-0.28109168057011097
-0.18037510215618852
-1.324281271742613
-0.28109168057011097
-0.18037510215618852
-1.324281271742613
-0.28109168057011097
-0.18037510215618852
-1.324281271742613
-0.28109168057011097
-0.18037510215618852
-1.324281271742613
-0.28109168057011097
-0.18037510215618852
-1.324281271742613
-0.2816504315003388
-0.18024736778562864
-1.3238033686779394
-0.2816504315003388
-0.18024736778562864
-1.3238033686779394
-0.2816504315003388
-0.18024736778562864
-1.3238033686779394
-0.2816504315003388
-0.18024736778562864
-1.3238033686779394
-0.2816504315003388
-0.18024736778562864
-1.3238033686779394
-0.2816504315003388
-0.18024736778562864
-1.3238033686779394
-0.2816504315003388
-0.18024736778562864
-1.3238033686779394
-0.2816504315003388
-0.18024736778562864
-1.3238033686779394
-0.2816504315003388
-0.18024736778562864
-1.3238033686779394
-0.2816504315003388
-0.18024736778562864
-1.3238033686779394
-0.2816504315003388
-0.18024736778562864
-1.3238033686779394
-0.2816504315003388
-0.18024736778562864
-1.3238033686779394
-0.28233616711948717
-0.18015481996342855
-1.3237534191808564
-0.28233616711948717
-0.18015481996342855
-1.3237534191808564
-0.28233616711948717
-0.18015481996342855
-1.3237534191808564
-0.28233616711948717
-0.18015481996342855
-1.3237534191808564
-0.2827723614260358
-0.18000580608561442
-1.3236379458948786
-0.2827723614260358
-0.18000580608561442
-1.3236379458948786
-0.2827723614260358
-0.18000580608561442
-1.3236379458948786
-0.2827723614260358
-0.18000580608561442
-1.3236379458948786
-0.2841031137996431
-0.17994781059089823
-1.3235817700863781
-0.2841031137996431
-0.17994781059089823
-1.3235817700863781
-0.2841031137996431
-0.17994781059089823
-1.3235817700863781
-0.2841031137996431
-0.17994781059089823
-1.3235817700863781
-0.28954993030776766
-0.18006686064853186
-1.3230626762632687
-0.28954993030776766
-0.18006686064853186
-1.3230626762632687
-0.28954993030776766
-0.18006686064853186
-1.3230626762632687
-0.28954993030776766
-0.18006686064853186
-1.3230626762632687
-0.30287334227858054
-0.1804228239405995
-1.3210233289781828
-0.30287334227858054
-0.1804228239405995
-1.3210233289781828
-0.30287334227858054
-0.1804228239405995
-1.3210233289781828
-0.30287334227858054
-0.1804228239405995
-1.3210233289781828
-0.32326265752831335
-0.18125068682840112
-1.3181038265667824
-0.32326265752831335
-0.18125068682840112
-1.3181038265667824
-0.32326265752831335
-0.18125068682840112
-1.3181038265667824
-0.32326265752831335
-0.18125068682840112
-1.3181038265667824
-0.3483451957606372
-0.18299884804119354
-1.315056964371657
-0.3483451957606372
-0.18299884804119354
-1.315056964371657
-0.3483451957606372
-0.18299884804119354
-1.315056964371657
-0.3483451957606372
-0.18299884804119354
-1.315056964371657
-0.37374775859904225
-0.1848637469380561
-1.3124638271690592
-0.37374775859904225
-0.1848637469380561
-1.3124638271690592
-0.37374775859904225
-0.1848637469380561
-1.3124638271690592
-0.37374775859904225
-0.1848637469380561
-1.3124638271690592
-0.39522787167461626
-0.1860612645273188
-1.3103082085971614
-0.39522787167461626
-0.1860612645273188
-1.3103082085971614
-0.39522787167461626
-0.1860612645273188
-1.3103082085971614
-0.39522787167461626
-0.1860612645273188
-1.3103082085971614
-0.41326211600487384
-0.18765993027441558
-1.308233736638291
-0.41326211600487384
-0.18765993027441558
-1.308233736638291
-0.41326211600487384
-0.18765993027441558
-1.308233736638291
-0.41326211600487384
-0.18765993027441558
-1.308233736638291
-0.43207273796296786
-0.1894526700243443
-1.3054334662565266
-0.43207273796296786
-0.1894526700243443
-1.3054334662565266
-0.43207273796296786
-0.1894526700243443
-1.3054334662565266
-0.43207273796296786
-0.1894526700243443
-1.3054334662565266
-0.45519863469129707
-0.19119334416607392
-1.3009435951181865
-0.45519863469129707
-0.19119334416607392
-1.3009435951181865
-0.45519863469129707
-0.19119334416607392
-1.3009435951181865
-0.45519863469129707
-0.19119334416607392
-1.3009435951181865
-0.48258043652523425
-0.19262149646824242
-1.2948239447521908
-0.48258043652523425
-0.19262149646824242
-1.2948239447521908
-0.48258043652523425
-0.19262149646824242
-1.2948239447521908
-0.48258043652523425
-0.19262149646824242
-1.2948239447521908
-0.5149934379661572
-0.19349278780192664
-1.2877851537773068
-0.5149934379661572
-0.19349278780192664
-1.2877851537773068
-0.5149934379661572
-0.19349278780192664
-1.2877851537773068
-0.5149934379661572
-0.19349278780192664
-1.2877851537773068
-0.5529606826886723
-0.1941135702825786
-1.2794553833708813
-0.5529606826886723
-0.1941135702825786
-1.2794553833708813
-0.5529606826886723
-0.1941135702825786
-1.2794553833708813
-0.5529606826886723
-0.1941135702825786
-1.2794553833708813
-0.5954911320058516
-0.19397091929200688
-1.2701423697030212
-0.5954911320058516
-0.19397091929200688
-1.2701423697030212
-0.5954911320058516
-0.19397091929200688
-1.2701423697030212
-0.5954911320058516
-0.19397091929200688
-1.2701423697030212
-0.6390742813535358
-0.19297112193124577
-1.260290634948927
-0.6390742813535358
-0.19297112193124577
-1.260290634948927
-0.6390742813535358
-0.19297112193124577
-1.260290634948927
-0.6390742813535358
-0.19297112193124577
-1.260290634948927
-0.677425778228637
-0.19128700438269589
-1.2511667883206905
-0.677425778228637
-0.19128700438269589
-1.2511667883206905
-0.677425778228637
-0.19128700438269589
-1.2511667883206905
-0.677425778228637
-0.19128700438269589
-1.2511667883206905
-0.7095661826524545
-0.1889220437745767
-1.2444343039212422
-0.7095661826524545
-0.1889220437745767
-1.2444343039212422
-0.7095661826524545
-0.1889220437745767
-1.2444343039212422
-0.7095661826524545
-0.1889220437745767
-1.2444343039212422
-0.7360929276213468
-0.18538543478861927
-1.2411297104585262
-0.7360929276213468
-0.18538543478861927
-1.2411297104585262
-0.7360929276213468
-0.18538543478861927
-1.2411297104585262
-0.7360929276213468
-0.18538543478861927
-1.2411297104585262
-0.7546439585436301
-0.18238177778592052
-1.2403801559396104
-0.7546439585436301
-0.18238177778592052
-1.2403801559396104
-0.7546439585436301
-0.18238177778592052
-1.2403801559396104
-0.7546439585436301
-0.18238177778592052
-1.2403801559396104
-0.7696531419605988
-0.17951778139442523
-1.2405335608345194
-0.7696531419605988
-0.17951778139442523
-1.2405335608345194
-0.7696531419605988
-0.17951778139442523
-1.2405335608345194
-0.7696531419605988
-0.17951778139442523
-1.2405335608345194
-0.7820699454692326
-0.17714873264658673
-1.240808862938653
-0.7820699454692326
-0.17714873264658673
-1.240808862938653
-0.7820699454692326
-0.17714873264658673
-1.240808862938653
-0.7820699454692326
-0.17714873264658673
-1.240808862938653
-0.7928997471425785
-0.1760189227401236
-1.2417830367509026
-0.7928997471425785
-0.1760189227401236
-1.2417830367509026
-0.7928997471425785
-0.1760189227401236
-1.2417830367509026
-0.7928997471425785
-0.1760189227401236
-1.2417830367509026
-0.8042146856719897
-0.1765790546479413
-1.24267550917491
-0.8042146856719897
-0.1765790546479413
-1.24267550917491
-0.8042146856719897
-0.1765790546479413
-1.24267550917491
-0.8042146856719897
-0.1765790546479413
-1.24267550917491
-0.8175677075432531
-0.17795453743639672
-1.2420474659810758
-0.8175677075432531
-0.17795453743639672
-1.2420474659810758
-0.8175677075432531
-0.17795453743639672
-1.2420474659810758
-0.8175677075432531
-0.17795453743639672
-1.2420474659810758
-0.8275445651264987
-0.17924020244214794
-1.2414828278617434
-0.8275445651264987
-0.17924020244214794
-1.2414828278617434
-0.8275445651264987
-0.17924020244214794
-1.2414828278617434
-0.8275445651264987
-0.17924020244214794
-1.2414828278617434
-0.8320141554293927
-0.1801990637606595
-1.2416562256824037
-0.8320141554293927
-0.1801990637606595
-1.2416562256824037
-0.8320141554293927
-0.1801990637606595
-1.2416562256824037
-0.8320141554293927
-0.1801990637606595
-1.2416562256824037
-0.8310764643217309
-0.18068335859087717
-1.242070657876436
-0.8310764643217309
-0.18068335859087717
-1.242070657876436
-0.8310764643217309
-0.18068335859087717
-1.242070657876436
-0.8310764643217309
-0.18068335859087717
-1.242070657876436
-0.8270699819165853
-0.1810910191253422
-1.242722047049916
-0.8270699819165853
-0.1810910191253422
-1.242722047049916
-0.8270699819165853
-0.1810910191253422
-1.242722047049916
-0.8270699819165853
-0.1810910191253422
-1.242722047049916
-0.8265759997685739
-0.18196246676513575
-1.2432704261705665
-0.8265759997685739
-0.18196246676513575
-1.2432704261705665
-0.8265759997685739
-0.18196246676513575
-1.2432704261705665
-0.8265759997685739
-0.18196246676513575
-1.2432704261705665
-0.8318312309782138
-0.18292112160166094
-1.2425559486149198
-0.8318312309782138
-0.18292112160166094
-1.2425559486149198
-0.8318312309782138
-0.18292112160166094
-1.2425559486149198
-0.8318312309782138
-0.18292112160166094
-1.2425559486149198
-0.839377016534933
-0.18313974324328125
-1.2412096149757483
-0.839377016534933
-0.18313974324328125
-1.2412096149757483
-0.839377016534933
-0.18313974324328125
-1.2412096149757483
-0.839377016534933
-0.18313974324328125
-1.2412096149757483
-0.8444997581104468
-0.18264650400180987
-1.2406934206820306
-0.8444997581104468
-0.18264650400180987
-1.2406934206820306
-0.8444997581104468
-0.18264650400180987
-1.2406934206820306
-0.8444997581104468
-0.18264650400180987
-1.2406934206820306
-0.8425887013283294
-0.1815789118765055
-1.2416905581543918
-0.8425887013283294
-0.1815789118765055
-1.2416905581543918
-0.8425887013283294
-0.1815789118765055
-1.2416905581543918
-0.8425887013283294
-0.1815789118765055
-1.2416905581543918
-0.8366707604174511
-0.18056390322648852
-1.243223185513297
-0.8366707604174511
-0.18056390322648852
-1.243223185513297
-0.8366707604174511
-0.18056390322648852
-1.243223185513297
-0.8366707604174511
-0.18056390322648852
-1.243223185513297
-0.8334631699317764
-0.18024739902633644
-1.2437922678024296
-0.8334631699317764
-0.18024739902633644
-1.2437922678024296
-0.8334631699317764
-0.18024739902633644
-1.2437922678024296
-0.8334631699317764
-0.18024739902633644
-1.2437922678024296
-0.8352094895629887
-0.1801252869747215
-1.242895132671023
-0.8352094895629887
-0.1801252869747215
-1.242895132671023
-0.8352094895629887
-0.1801252869747215
-1.242895132671023
-0.8352094895629887
-0.1801252869747215
-1.242895132671023
-0.8387829842997767
-0.17982225038262195
-1.2418697421404175
-0.8387829842997767
-0.17982225038262195
-1.2418697421404175
-0.8387829842997767
-0.17982225038262195
-1.2418697421404175
-0.8387829842997767
-0.17982225038262195
-1.2418697421404175
-0.8398871243446067
-0.17944507639173798
-1.2410966902935598
-0.8398871243446067
-0.17944507639173798
-1.2410966902935598
-0.8398871243446067
-0.17944507639173798
-1.2410966902935598
-0.8398871243446067
-0.17944507639173798
-1.2410966902935598
-0.8351534264512127
-0.1789054899325293
-1.2411662912181374
-0.8351534264512127
-0.1789054899325293
-1.2411662912181374
-0.8351534264512127
-0.1789054899325293
-1.2411662912181374
-0.8351534264512127
-0.1789054899325293
-1.2411662912181374
-0.8264457828186222
-0.17852721733137997
-1.2419858940890016
-0.8264457828186222
-0.17852721733137997
-1.2419858940890016
-0.8264457828186222
-0.17852721733137997
-1.2419858940890016
-0.8264457828186222
-0.17852721733137997
-1.2419858940890016
-0.8178660161781676
-0.177837105269038
-1.2430034200470326
-0.8178660161781676
-0.177837105269038
-1.2430034200470326
-0.8178660161781676
-0.177837105269038
-1.2430034200470326
-0.8178660161781676
-0.177837105269038
-1.2430034200470326
-0.8145363938232958
-0.17722989652937396
-1.2435149233478846
-0.8145363938232958
-0.17722989652937396
-1.2435149233478846
-0.8145363938232958
-0.17722989652937396
-1.2435149233478846
-0.8145363938232958
-0.17722989652937396
-1.2435149233478846
-0.8169454369643331
-0.17690646681639735
-1.2428043745439101
-0.8169454369643331
-0.17690646681639735
-1.2428043745439101
-0.8169454369643331
-0.17690646681639735
-1.2428043745439101
-0.8169454369643331
-0.17690646681639735
-1.2428043745439101
-0.8225611326763507
-0.17725320116719934
-1.2416476818273563
-0.8225611326763507
-0.17725320116719934
-1.2416476818273563
-0.8225611326763507
-0.17725320116719934
-1.2416476818273563
-0.8225611326763507
-0.17725320116719934
-1.2416476818273563
-0.8266968047153077
-0.17734439090850362
-1.240851008536261
-0.8266968047153077
-0.17734439090850362
-1.240851008536261
-0.8266968047153077
-0.17734439090850362
-1.240851008536261
-0.8266968047153077
-0.17734439090850362
-1.240851008536261
-0.8260185397986775
-0.17712649279219944
-1.2410664050759062
-0.8260185397986775
-0.17712649279219944
-1.2410664050759062
-0.8260185397986775
-0.17712649279219944
-1.2410664050759062
-0.8260185397986775
-0.17712649279219944
-1.2410664050759062
-0.8230235357445519
-0.17732011714981574
-1.242401202078291
-0.8230235357445519
-0.17732011714981574
-1.242401202078291
-0.8230235357445519
-0.17732011714981574
-1.242401202078291
-0.8230235357445519
-0.17732011714981574
-1.242401202078291
-0.8218478701471956
-0.17763940437405337
-1.2434989506791863
-0.8218478701471956
-0.17763940437405337
-1.2434989506791863
-0.8218478701471956
-0.17763940437405337
-1.2434989506791863
-0.8218478701471956
-0.17763940437405337
-1.2434989506791863
-0.8239550623972892
-0.17818877418746978
-1.2433971891013595
-0.8239550623972892
-0.17818877418746978
-1.2433971891013595
-0.8239550623972892
-0.17818877418746978
-1.2433971891013595
-0.8239550623972892
-0.17818877418746978
-1.2433971891013595
-0.8272580005994593
-0.17845079962694196
-1.242929817752846
-0.8272580005994593
-0.17845079962694196
-1.242929817752846
-0.8272580005994593
-0.17845079962694196
-1.242929817752846
-0.8272580005994593
-0.17845079962694196
-1.242929817752846
-0.8298855105638485
-0.1784225577461248
-1.2425210434960448
-0.8298855105638485
-0.1784225577461248
-1.2425210434960448
-0.8298855105638485
-0.1784225577461248
-1.2425210434960448
-0.8298855105638485
-0.1784225577461248
-1.2425210434960448
-0.8295249036161656
-0.1783776926063483
-1.2429784526702425
-0.8295249036161656
-0.1783776926063483
-1.2429784526702425
-0.8295249036161656
-0.1783776926063483
-1.2429784526702425
-0.8295249036161656
-0.1783776926063483
-1.2429784526702425
-0.8274641722539405
-0.17820624483698408
-1.243766650444369
-0.8274641722539405
-0.17820624483698408
-1.243766650444369
-0.8274641722539405
-0.17820624483698408
-1.243766650444369
-0.8274641722539405
-0.17820624483698408
-1.243766650444369
-0.8260499426449507
-0.1781454489906197
-1.2441197640139083
-0.8260499426449507
-0.1781454489906197
-1.2441197640139083
-0.8260499426449507
-0.1781454489906197
-1.2441197640139083
-0.8260499426449507
-0.1781454489906197
-1.2441197640139083
-0.8268456852126658
-0.1779648391672677
-1.244173589818715
-0.8268456852126658
-0.1779648391672677
-1.244173589818715
-0.8268456852126658
-0.1779648391672677
-1.244173589818715
-0.8268456852126658
-0.1779648391672677
-1.244173589818715
-0.8289635935200313
-0.17771296698801883
-1.24375510195225
-0.8289635935200313
-0.17771296698801883
-1.24375510195225
-0.8289635935200313
-0.17771296698801883
-1.24375510195225
-0.8289635935200313
-0.17771296698801883
-1.24375510195225
-0.8293763205455679
-0.17747547157335236
-1.24398078848297
-0.8293763205455679
-0.17747547157335236
-1.24398078848297
-0.8293763205455679
-0.17747547157335236
-1.24398078848297
-0.8293763205455679
-0.17747547157335236
-1.24398078848297
-0.8280849994464872
-0.17682722514586133
-1.2445802845617138
-0.8280849994464872
-0.17682722514586133
-1.2445802845617138
-0.8280849994464872
-0.17682722514586133
-1.2445802845617138
-0.8280849994464872
-0.17682722514586133
-1.2445802845617138
-0.8265431340301725
-0.17619589706459374
-1.2449277021644423
-0.8265431340301725
-0.17619589706459374
-1.2449277021644423
-0.8265431340301725
-0.17619589706459374
-1.2449277021644423
-0.8265431340301725
-0.17619589706459374
-1.2449277021644423
-0.8265431340301725
-0.17619589706459374
-1.2449277021644423
-0.8265431340301725
-0.17619589706459374
-1.2449277021644423
-0.8265431340301725
-0.17619589706459374
-1.2449277021644423
-0.8265431340301725
-0.17619589706459374
-1.2449277021644423
-0.827380080016966
-0.17626552230250517
-1.2448441718081387
-0.827380080016966
-0.17626552230250517
-1.2448441718081387
-0.827380080016966
-0.17626552230250517
-1.2448441718081387
-0.827380080016966
-0.17626552230250517
-1.2448441718081387
-0.8275368877170572
-0.17623394672677747
-1.2448416223480165
-0.8275368877170572
-0.17623394672677747
-1.2448416223480165
-0.8275368877170572
-0.17623394672677747
-1.2448416223480165
-0.8275368877170572
-0.17623394672677747
-1.2448416223480165
-0.8269678961084347
-0.17603088314211704
-1.244639261827976
-0.8269678961084347
-0.17603088314211704
-1.244639261827976
-0.8269678961084347
-0.17603088314211704
-1.244639261827976
-0.8269678961084347
-0.17603088314211704
-1.244639261827976
-0.8261983405438552
-0.1756799862126118
-1.2447341771713978
-0.8261983405438552
-0.1756799862126118
-1.2447341771713978
-0.8261983405438552
-0.1756799862126118
-1.2447341771713978
-0.8261983405438552
-0.1756799862126118
-1.2447341771713978
-0.8261983405438552
-0.1756799862126118
-1.2447341771713978
-0.8261983405438552
-0.1756799862126118
-1.2447341771713978
-0.8261983405438552
-0.1756799862126118
-1.2447341771713978
-0.8261983405438552
-0.1756799862126118
-1.2447341771713978
-0.8261983405438552
-0.1756799862126118
-1.2447341771713978
-0.8261983405438552
-0.1756799862126118
-1.2447341771713978
-0.8261983405438552
-0.1756799862126118
-1.2447341771713978
-0.8261983405438552
-0.1756799862126118
-1.2447341771713978
-0.8267082608541292
-0.17543336419856356
-1.244766094635502
-0.8267082608541292
-0.17543336419856356
-1.244766094635502
-0.8267082608541292
-0.17543336419856356
-1.244766094635502
-0.8267082608541292
-0.17543336419856356
-1.244766094635502
-0.8269972523940002
-0.1749570483902759
-1.2446529484908555
-0.8269972523940002
-0.1749570483902759
-1.2446529484908555
-0.8269972523940002
-0.1749570483902759
-1.2446529484908555
-0.8269972523940002
-0.1749570483902759
-1.2446529484908555
-0.8267188638366932
-0.17463192923318635
-1.2444502546240601
-0.8267188638366932
-0.17463192923318635
-1.2444502546240601
-0.8267188638366932
-0.17463192923318635
-1.2444502546240601
-0.8267188638366932
-0.17463192923318635
-1.2444502546240601
-0.8255667915295501
-0.17427149589491797
-1.2444245818499082
-0.8255667915295501
-0.17427149589491797
-1.2444245818499082
-0.8255667915295501
-0.17427149589491797
-1.2444245818499082
-0.8255667915295501
-0.17427149589491797
-1.2444245818499082
-0.8242924531445818
-0.17397893608679824
-1.2444633220400039
-0.8242924531445818
-0.17397893608679824
-1.2444633220400039
-0.8242924531445818
-0.17397893608679824
-1.2444633220400039
-0.8242924531445818
-0.17397893608679824
-1.2444633220400039
-0.8237489407934043
-0.17371714585748663
-1.244388889635791
-0.8237489407934043
-0.17371714585748663
-1.244388889635791
-0.8237489407934043
-0.17371714585748663
-1.244388889635791
-0.8237489407934043
-0.17371714585748663
-1.244388889635791
-0.8243988544785263
-0.1736413445887618
-1.2439327166454528
-0.8243988544785263
-0.1736413445887618
-1.2439327166454528
-0.8243988544785263
-0.1736413445887618
-1.2439327166454528
-0.8243988544785263
-0.1736413445887618
-1.2439327166454528
-0.8246963998759335
-0.1733083686992783
-1.2434622636591266
-0.8246963998759335
-0.1733083686992783
-1.2434622636591266
-0.8246963998759335
-0.1733083686992783
-1.2434622636591266
-0.8246963998759335
-0.1733083686992783
-1.2434622636591266
-0.8236435793200051
-0.17282158947634974
-1.2433755235292667
-0.8236435793200051
-0.17282158947634974
-1.2433755235292667
-0.8236435793200051
-0.17282158947634974
-1.2433755235292667
-0.8236435793200051
-0.17282158947634974
-1.2433755235292667
-0.8197481786182872
-0.17154069952019874
-1.2436949711886836
-0.8197481786182872
-0.17154069952019874
-1.2436949711886836
-0.8197481786182872
-0.17154069952019874
-1.2436949711886836
-0.8197481786182872
-0.17154069952019874
-1.2436949711886836
-0.8148828454128928
-0.17029987877358743
-1.244535061122888
-0.8148828454128928
-0.17029987877358743
-1.244535061122888
-0.8148828454128928
-0.17029987877358743
-1.244535061122888
-0.8148828454128928
-0.17029987877358743
-1.244535061122888
-0.812323579392295
-0.16888145486995954
-1.2451758392400705
-0.812323579392295
-0.16888145486995954
-1.2451758392400705
-0.812323579392295
-0.16888145486995954
-1.2451758392400705
-0.812323579392295
-0.16888145486995954
-1.2451758392400705
-0.8128388398725847
-0.1676207446582576
-1.2450852480264547
-0.8128388398725847
-0.1676207446582576
-1.2450852480264547
-0.8128388398725847
-0.1676207446582576
-1.2450852480264547
-0.8128388398725847
-0.1676207446582576
-1.2450852480264547
-0.8136048760471639
-0.16598761151837121
-1.2451319057759016
-0.8136048760471639
-0.16598761151837121
-1.2451319057759016
-0.8136048760471639
-0.16598761151837121
-1.2451319057759016
-0.8136048760471639
-0.16598761151837121
-1.2451319057759016
-0.8131036518938638
-0.1646284337791761
-1.2451272981535904
-0.8131036518938638
-0.1646284337791761
-1.2451272981535904
-0.8131036518938638
-0.1646284337791761
-1.2451272981535904
-0.8131036518938638
-0.1646284337791761
-1.2451272981535904
-0.8102363795758716
-0.16318347034000782
-1.2451581670585248
-0.8102363795758716
-0.16318347034000782
-1.2451581670585248
-0.8102363795758716
-0.16318347034000782
-1.2451581670585248
-0.8102363795758716
-0.16318347034000782
-1.2451581670585248
-0.8033542148766404
-0.1619183624707472
-1.245043602905997
-0.8033542148766404
-0.1619183624707472
-1.245043602905997
-0.8033542148766404
-0.1619183624707472
-1.245043602905997
-0.8033542148766404
-0.1619183624707472
-1.245043602905997
-0.7925187112209068
-0.1615659469436203
-1.244917821803259
-0.7925187112209068
-0.1615659469436203
-1.244917821803259
-0.7925187112209068
-0.1615659469436203
-1.244917821803259
-0.7925187112209068
-0.1615659469436203
-1.244917821803259
-0.7791930097072236
-0.16166731064834827
-1.2448767803991354
-0.7791930097072236
-0.16166731064834827
-1.2448767803991354
-0.7791930097072236
-0.16166731064834827
-1.2448767803991354
-0.7791930097072236
-0.16166731064834827
-1.2448767803991354
-0.7613308599927457
-0.1633144422624619
-1.2452056373797178
-0.7613308599927457
-0.1633144422624619
-1.2452056373797178
-0.7613308599927457
-0.1633144422624619
-1.2452056373797178
-0.7613308599927457
-0.1633144422624619
-1.2452056373797178
-0.7393604474353642
-0.16482536098081302
-1.2470628473607888
-0.7393604474353642
-0.16482536098081302
-1.2470628473607888
-0.7393604474353642
-0.16482536098081302
-1.2470628473607888
-0.7393604474353642
-0.16482536098081302
-1.2470628473607888
-0.711846464659775
-0.16594216165225467
-1.2504790071533964
-0.711846464659775
-0.16594216165225467
-1.2504790071533964
-0.711846464659775
-0.16594216165225467
-1.2504790071533964
-0.711846464659775
-0.16594216165225467
-1.2504790071533964
-0.6791549492155506
-0.1651397254115942
-1.2538953991326856
-0.6791549492155506
-0.1651397254115942
-1.2538953991326856
-0.6791549492155506
-0.1651397254115942
-1.2538953991326856
-0.6791549492155506
-0.1651397254115942
-1.2538953991326856
-0.6451451945850406
-0.16330810846477878
-1.2565012422465984
-0.6451451945850406
-0.16330810846477878
-1.2565012422465984
-0.6451451945850406
-0.16330810846477878
-1.2565012422465984
-0.6451451945850406
-0.16330810846477878
-1.2565012422465984
-0.6132994700531503
-0.16154261007799733
-1.258738971059016
-0.6132994700531503
-0.16154261007799733
-1.258738971059016
-0.6132994700531503
-0.16154261007799733
-1.258738971059016
-0.6132994700531503
-0.16154261007799733
-1.258738971059016
-0.5875588984201238
-0.1598835406561639
-1.2612038236035454
-0.5875588984201238
-0.1598835406561639
-1.2612038236035454
-0.5875588984201238
-0.1598835406561639
-1.2612038236035454
-0.5875588984201238
-0.1598835406561639
-1.2612038236035454
-0.5633532443521196
-0.15854664028220147
-1.264282016022031
-0.5633532443521196
-0.15854664028220147
-1.264282016022031
-0.5633532443521196
-0.15854664028220147
-1.264282016022031
-0.5633532443521196
-0.15854664028220147
-1.264282016022031
-0.5365268595105255
-0.15726637579843808
-1.2681165400321137
-0.5365268595105255
-0.15726637579843808
-1.2681165400321137
-0.5365268595105255
-0.15726637579843808
-1.2681165400321137
-0.5365268595105255
-0.15726637579843808
-1.2681165400321137
-0.5050640062303847
-0.15671968683005566
-1.2729859629605478
-0.5050640062303847
-0.15671968683005566
-1.2729859629605478
-0.5050640062303847
-0.15671968683005566
-1.2729859629605478
-0.5050640062303847
-0.15671968683005566
-1.2729859629605478
-0.46867130359702486
-0.15620316703100748
-1.2780362617869239
-0.46867130359702486
-0.15620316703100748
-1.2780362617869239
-0.46867130359702486
-0.15620316703100748
-1.2780362617869239
-0.46867130359702486
-0.15620316703100748
-1.2780362617869239
-0.431139843784431
-0.15551577605673791
-1.2837134889214266
-0.431139843784431
-0.15551577605673791
-1.2837134889214266
-0.431139843784431
-0.15551577605673791
-1.2837134889214266
-0.431139843784431
-0.15551577605673791
-1.2837134889214266
-0.39290937423378675
-0.15447217656164414
-1.2905287765035038
-0.39290937423378675
-0.15447217656164414
-1.2905287765035038
-0.39290937423378675
-0.15447217656164414
-1.2905287765035038
-0.39290937423378675
-0.15447217656164414
-1.2905287765035038
-0.35361873802128546
-0.1538184072268444
-1.2978224822693512
-0.35361873802128546
-0.1538184072268444
-1.2978224822693512
-0.35361873802128546
-0.1538184072268444
-1.2978224822693512
-0.35361873802128546
-0.1538184072268444
-1.2978224822693512
-0.3160208911085973
-0.15367598692071602
-1.3036520905220994
-0.3160208911085973
-0.15367598692071602
-1.3036520905220994
-0.3160208911085973
-0.15367598692071602
-1.3036520905220994
-0.3160208911085973
-0.15367598692071602
-1.3036520905220994
-0.28725898577277
-0.15572188661265693
-1.307711899547844
-0.28725898577277
-0.15572188661265693
-1.307711899547844
-0.28725898577277
-0.15572188661265693
-1.307711899547844
-0.28725898577277
-0.15572188661265693
-1.307711899547844
-0.2742253722516996
-0.15972737406253237
-1.3100409240614153
-0.2742253722516996
-0.15972737406253237
-1.3100409240614153
-0.2742253722516996
-0.15972737406253237
-1.3100409240614153
-0.2742253722516996
-0.15972737406253237
-1.3100409240614153
-0.2719100186548958
-0.16379544046963296
-1.3107318555563368
-0.2719100186548958
-0.16379544046963296
-1.3107318555563368
-0.2719100186548958
-0.16379544046963296
-1.3107318555563368
-0.2719100186548958
-0.16379544046963296
-1.3107318555563368
-0.2713394188693478
-0.16640284311561582
-1.3112891971237797
-0.2713394188693478
-0.16640284311561582
-1.3112891971237797
-0.2713394188693478
-0.16640284311561582
-1.3112891971237797
-0.2713394188693478
-0.16640284311561582
-1.3112891971237797
-0.2680394820870593
-0.16787485029704097
-1.312105184600933
-0.2680394820870593
-0.16787485029704097
-1.312105184600933
-0.2680394820870593
-0.16787485029704097
-1.312105184600933
-0.2680394820870593
-0.16787485029704097
-1.312105184600933
-0.26239473842406286
-0.16847943941702026
-1.3130345379879136
-0.26239473842406286
-0.16847943941702026
-1.3130345379879136
-0.26239473842406286
-0.16847943941702026
-1.3130345379879136
-0.26239473842406286
-0.16847943941702026
-1.3130345379879136
-0.258321097837257
-0.16867802883496089
-1.3135934397037428
-0.258321097837257
-0.16867802883496089
-1.3135934397037428
-0.258321097837257
-0.16867802883496089
-1.3135934397037428
-0.258321097837257
-0.16867802883496089
-1.3135934397037428
-0.25789845108518555
-0.16880420170842658
-1.313536802291282
-0.25789845108518555
-0.16880420170842658
-1.313536802291282
-0.25789845108518555
-0.16880420170842658
-1.313536802291282
-0.25789845108518555
-0.16880420170842658
-1.313536802291282
-0.258100154448669
-0.1689670408170563
-1.313574661288652
-0.258100154448669
-0.1689670408170563
-1.313574661288652
-0.258100154448669
-0.1689670408170563
-1.313574661288652
-0.258100154448669
-0.1689670408170563
-1.313574661288652
-0.2580760755201881
-0.16879810083579752
-1.3135988103811704
-0.2580760755201881
-0.16879810083579752
-1.3135988103811704
-0.2580760755201881
-0.16879810083579752
-1.3135988103811704
-0.2580760755201881
-0.16879810083579752
-1.3135988103811704
-0.2563341790829807
-0.16861931984907982
-1.3140627707453005
-0.2563341790829807
-0.16861931984907982
-1.3140627707453005
-0.2563341790829807
-0.16861931984907982
-1.3140627707453005
-0.2563341790829807
-0.16861931984907982
-1.3140627707453005
-0.25460406453793194
-0.16841623956955476
-1.3143549819494116
-0.25460406453793194
-0.16841623956955476
-1.3143549819494116
-0.25460406453793194
-0.16841623956955476
-1.3143549819494116
-0.25460406453793194
-0.16841623956955476
-1.3143549819494116
-0.2527997070778562
-0.16809326847141992
-1.3143216218558527
-0.2527997070778562
-0.16809326847141992
-1.3143216218558527
-0.2527997070778562
-0.16809326847141992
-1.3143216218558527
-0.2527997070778562
-0.16809326847141992
-1.3143216218558527
-0.25185864726034
-0.16766958710006388
-1.3143032491558193
-0.25185864726034
-0.16766958710006388
-1.3143032491558193
-0.25185864726034
-0.16766958710006388
-1.3143032491558193
-0.25185864726034
-0.16766958710006388
-1.3143032491558193
-0.25185864726034
-0.16766958710006388
-1.3143032491558193
-0.25185864726034
-0.16766958710006388
-1.3143032491558193
-0.25185864726034
-0.16766958710006388
-1.3143032491558193
-0.25185864726034
-0.16766958710006388
-1.3143032491558193
-0.25120510607809315
-0.167504586732128
-1.3144769598487303
-0.25120510607809315
-0.167504586732128
-1.3144769598487303
-0.25120510607809315
-0.167504586732128
-1.3144769598487303
-0.25120510607809315
-0.167504586732128
-1.3144769598487303
-0.24987216482554367
-0.16760867847455643
-1.314771318701063
-0.24987216482554367
-0.16760867847455643
-1.314771318701063
-0.24987216482554367
-0.16760867847455643
-1.314771318701063
-0.24987216482554367
-0.16760867847455643
-1.314771318701063
-0.24856772682864775
-0.1674686291600599
-1.3144770105392185
-0.24856772682864775
-0.1674686291600599
-1.3144770105392185
-0.24856772682864775
-0.1674686291600599
-1.3144770105392185
-0.24856772682864775
-0.1674686291600599
-1.3144770105392185
-0.24710269865003948
-0.16711489823745349
-1.3137029027911487
-0.24710269865003948
-0.16711489823745349
-1.3137029027911487
-0.24710269865003948
-0.16711489823745349
-1.3137029027911487
-0.24710269865003948
-0.16711489823745349
-1.3137029027911487
-0.24511984749339183
-0.16700810142077277
-1.3122484978737354
-0.24511984749339183
-0.16700810142077277
-1.3122484978737354
-0.24511984749339183
-0.16700810142077277
-1.3122484978737354
-0.24511984749339183
-0.16700810142077277
-1.3122484978737354
-0.2427006878292823
-0.16750004509622998
-1.3108340201187645
-0.2427006878292823
-0.16750004509622998
-1.3108340201187645
-0.2427006878292823
-0.16750004509622998
-1.3108340201187645
-0.2427006878292823
-0.16750004509622998
-1.3108340201187645
-0.24078326334874037
-0.16833582663367158
-1.3091630099475668
-0.24078326334874037
-0.16833582663367158
-1.3091630099475668
-0.24078326334874037
-0.16833582663367158
-1.3091630099475668
-0.24078326334874037
-0.16833582663367158
-1.3091630099475668
-0.2385121675064929
-0.16924519408129163
-1.3076886894654016
-0.2385121675064929
-0.16924519408129163
-1.3076886894654016
-0.2385121675064929
-0.16924519408129163
-1.3076886894654016
-0.2385121675064929
-0.16924519408129163
-1.3076886894654016
-0.23608289450981404
-0.1697692410750442
-1.3064495841730188
-0.23608289450981404
-0.1697692410750442
-1.3064495841730188
-0.23608289450981404
-0.1697692410750442
-1.3064495841730188
-0.23608289450981404
-0.1697692410750442
-1.3064495841730188
-0.2343478598185602
-0.17037314660129318
-1.3052396652468121
-0.2343478598185602
-0.17037314660129318
-1.3052396652468121
-0.2343478598185602
-0.17037314660129318
-1.3052396652468121
-0.2343478598185602
-0.17037314660129318
-1.3052396652468121
-0.2332441233161163
-0.1707944634711458
-1.3045929782793855
-0.2332441233161163
-0.1707944634711458
-1.3045929782793855
-0.2332441233161163
-0.1707944634711458
-1.3045929782793855
-0.2332441233161163
-0.1707944634711458
-1.3045929782793855
-0.23293083991806243
-0.17142054097182918
-1.3042759862723927
-0.23293083991806243
-0.17142054097182918
-1.3042759862723927
-0.23293083991806243
-0.17142054097182918
-1.3042759862723927
-0.23293083991806243
-0.17142054097182918
-1.3042759862723927
-0.23264481736898004
-0.17198152606900916
-1.3043321422638297
-0.23264481736898004
-0.17198152606900916
-1.3043321422638297
-0.23264481736898004
-0.17198152606900916
-1.3043321422638297
-0.23264481736898004
-0.17198152606900916
-1.3043321422638297
-0.23198307355453895
-0.1722482025345744
-1.3043586578136077
-0.23198307355453895
-0.1722482025345744
-1.3043586578136077
-0.23198307355453895
-0.1722482025345744
-1.3043586578136077
-0.23198307355453895
-0.1722482025345744
-1.3043586578136077
-0.23198307355453895
-0.1722482025345744
-1.3043586578136077
-0.23198307355453895
-0.1722482025345744
-1.3043586578136077
-0.23198307355453895
-0.1722482025345744
-1.3043586578136077
-0.23198307355453895
-0.1722482025345744
-1.3043586578136077
-0.23287094180692322
-0.1723121508909452
-1.3043492774796386
-0.23287094180692322
-0.1723121508909452
-1.3043492774796386
-0.23287094180692322
-0.1723121508909452
-1.3043492774796386
-0.23287094180692322
-0.1723121508909452
-1.3043492774796386
-0.2334034145555384
-0.17244671304022535
-1.304535763305482
-0.2334034145555384
-0.17244671304022535
-1.304535763305482
-0.2334034145555384
-0.17244671304022535
-1.304535763305482
-0.2334034145555384
-0.17244671304022535
-1.304535763305482
-0.23339884335175093
-0.17264251462096245
-1.3047834441474286
-0.23339884335175093
-0.17264251462096245
-1.3047834441474286
-0.23339884335175093
-0.17264251462096245
-1.3047834441474286
-0.23339884335175093
-0.17264251462096245
-1.3047834441474286
-0.23339235866132643
-0.17328520706877107
-1.3049571439733998
-0.23339235866132643
-0.17328520706877107
-1.3049571439733998
-0.23339235866132643
-0.17328520706877107
-1.3049571439733998
-0.23339235866132643
-0.17328520706877107
-1.3049571439733998
-0.23331966239442026
-0.17398587783509015
-1.30488081805407
-0.23331966239442026
-0.17398587783509015
-1.30488081805407
-0.23331966239442026
-0.17398587783509015
-1.30488081805407
-0.23331966239442026
-0.17398587783509015
-1.30488081805407
-0.23269481425574212
-0.17439975324575277
-1.3047141692586381
-0.23269481425574212
-0.17439975324575277
-1.3047141692586381
-0.23269481425574212
-0.17439975324575277
-1.3047141692586381
-0.23269481425574212
-0.17439975324575277
-1.3047141692586381
-0.23224646737602456
-0.17459374684303006
-1.3042875330043584
-0.23224646737602456
-0.17459374684303006
-1.3042875330043584
-0.23224646737602456
-0.17459374684303006
-1.3042875330043584
-0.23224646737602456
-0.17459374684303006
-1.3042875330043584
-0.2319650119876305
-0.174746531740516
-1.3037751444388155
-0.2319650119876305
-0.174746531740516
-1.3037751444388155
-0.2319650119876305
-0.174746531740516
-1.3037751444388155
-0.2319650119876305
-0.174746531740516
-1.3037751444388155
-0.2319650119876305
-0.174746531740516
-1.3037751444388155
-0.2319650119876305
-0.174746531740516
-1.3037751444388155
-0.2319650119876305
-0.174746531740516
-1.3037751444388155
-0.2319650119876305
-0.174746531740516
-1.3037751444388155
-0.23200695090192178
-0.17469832174812647
-1.3033335106486785
-0.23200695090192178
-0.17469832174812647
-1.3033335106486785
-0.23200695090192178
-0.17469832174812647
-1.3033335106486785
-0.23200695090192178
-0.17469832174812647
-1.3033335106486785
-0.23176810719642876
-0.17417699148693241
-1.3031669162808652
-0.23176810719642876
-0.17417699148693241
-1.3031669162808652
-0.23176810719642876
-0.17417699148693241
-1.3031669162808652
-0.23176810719642876
-0.17417699148693241
-1.3031669162808652
-0.2313698287273212
-0.17365858405084145
-1.3028408389474053
-0.2313698287273212
-0.17365858405084145
-1.3028408389474053
-0.2313698287273212
-0.17365858405084145
-1.3028408389474053
-0.2313698287273212
-0.17365858405084145
-1.3028408389474053
-0.2310868093248286
-0.17320779456173852
-1.3023992233800814
-0.2310868093248286
-0.17320779456173852
-1.3023992233800814
-0.2310868093248286
-0.17320779456173852
-1.3023992233800814
-0.2310868093248286
-0.17320779456173852
-1.3023992233800814
-0.2310868093248286
-0.17320779456173852
-1.3023992233800814
-0.2310868093248286
-0.17320779456173852
-1.3023992233800814
-0.2310868093248286
-0.17320779456173852
-1.3023992233800814
-0.2310868093248286
-0.17320779456173852
-1.3023992233800814
-0.2310868093248286
-0.17320779456173852
-1.3023992233800814
-0.2310868093248286
-0.17320779456173852
-1.3023992233800814
-0.2310868093248286
-0.17320779456173852
-1.3023992233800814
-0.2310868093248286
-0.17320779456173852
-1.3023992233800814
-0.23072446183056394
-0.1734964381477077
-1.3021269645458362
-0.23072446183056394
-0.1734964381477077
-1.3021269645458362
-0.23072446183056394
-0.1734964381477077
-1.3021269645458362
-0.23072446183056394
-0.1734964381477077
-1.3021269645458362
-0.23146584414370575
-0.17375306766113932
-1.302107310966184
-0.23146584414370575
-0.17375306766113932
-1.302107310966184
-0.23146584414370575
-0.17375306766113932
-1.302107310966184
-0.23146584414370575
-0.17375306766113932
-1.302107310966184
-0.23258820774176095
-0.17432032455178337
-1.302190336561469
-0.23258820774176095
-0.17432032455178337
-1.302190336561469
-0.23258820774176095
-0.17432032455178337
-1.302190336561469
-0.23258820774176095
-0.17432032455178337
-1.302190336561469
-0.23400275244110955
-0.1749473933679683
-1.3022181012269984
-0.23400275244110955
-0.1749473933679683
-1.3022181012269984
-0.23400275244110955
-0.1749473933679683
-1.3022181012269984
-0.23400275244110955
-0.1749473933679683
-1.3022181012269984
-0.23409035775724313
-0.17564538663419577
-1.3023007611285067
-0.23409035775724313
-0.17564538663419577
-1.3023007611285067
-0.23409035775724313
-0.17564538663419577
-1.3023007611285067
-0.23409035775724313
-0.17564538663419577
-1.3023007611285067
-0.23406112632163018
-0.17672308874312562
-1.3024246461511764
-0.23406112632163018
-0.17672308874312562
-1.3024246461511764
-0.23406112632163018
-0.17672308874312562
-1.3024246461511764
-0.23406112632163018
-0.17672308874312562
-1.3024246461511764
-0.2333635539596804
-0.17723450615684905
-1.302253722019894
-0.2333635539596804
-0.17723450615684905
-1.302253722019894
-0.2333635539596804
-0.17723450615684905
-1.302253722019894
-0.2333635539596804
-0.17723450615684905
-1.302253722019894
-0.2320602935684918
-0.1777089095873336
-1.3018932791584317
-0.2320602935684918
-0.1777089095873336
-1.3018932791584317
-0.2320602935684918
-0.1777089095873336
-1.3018932791584317
-0.2320602935684918
-0.1777089095873336
-1.3018932791584317
-0.23271626738687792
-0.17787141571163778
-1.3017175365219718
-0.23271626738687792
-0.17787141571163778
-1.3017175365219718
-0.23271626738687792
-0.17787141571163778
-1.3017175365219718
-0.23271626738687792
-0.17787141571163778
-1.3017175365219718
-0.23389221704439592
-0.1779768867861714
-1.3015771563586815
-0.23389221704439592
-0.1779768867861714
-1.3015771563586815
-0.23389221704439592
-0.1779768867861714
-1.3015771563586815
-0.23389221704439592
-0.1779768867861714
-1.3015771563586815
-0.23332211006097692
-0.17769581408274268
-1.3015861427725226
-0.23332211006097692
-0.17769581408274268
-1.3015861427725226
-0.23332211006097692
-0.17769581408274268
-1.3015861427725226
-0.23332211006097692
-0.17769581408274268
-1.3015861427725226
-0.23250688232409106
-0.17774888374126155
-1.3019240283843951
-0.23250688232409106
-0.17774888374126155
-1.3019240283843951
-0.23250688232409106
-0.17774888374126155
-1.3019240283843951
-0.23250688232409106
-0.17774888374126155
-1.3019240283843951
-0.2324084984882804
-0.1776767012624084
-1.3019414056642151
-0.2324084984882804
-0.1776767012624084
-1.3019414056642151
-0.2324084984882804
-0.1776767012624084
-1.3019414056642151
-0.2324084984882804
-0.1776767012624084
-1.3019414056642151
-0.2323351595552746
-0.17777353601435303
-1.3019366380296242
-0.2323351595552746
-0.17777353601435303
-1.3019366380296242
-0.2323351595552746
-0.17777353601435303
-1.3019366380296242
-0.2323351595552746
-0.17777353601435303
-1.3019366380296242
-0.2323351595552746
-0.17777353601435303
-1.3019366380296242
-0.2323351595552746
-0.17777353601435303
-1.3019366380296242
-0.2323351595552746
-0.17777353601435303
-1.3019366380296242
-0.2323351595552746
-0.17777353601435303
-1.3019366380296242
-0.23162440876899104
-0.17725579887706325
-1.3020831191357265
-0.23162440876899104
-0.17725579887706325
-1.3020831191357265
-0.23162440876899104
-0.17725579887706325
-1.3020831191357265
-0.23162440876899104
-0.17725579887706325
-1.3020831191357265
-0.23062039342695398
-0.17712527885285498
-1.3022103450269198
-0.23062039342695398
-0.17712527885285498
-1.3022103450269198
-0.23062039342695398
-0.17712527885285498
-1.3022103450269198
-0.23062039342695398
-0.17712527885285498
-1.3022103450269198
-0.23062039342695398
-0.17712527885285498
-1.3022103450269198
-0.23062039342695398
-0.17712527885285498
-1.3022103450269198
-0.23062039342695398
-0.17712527885285498
-1.3022103450269198
-0.23062039342695398
-0.17712527885285498
-1.3022103450269198
-0.23044279483520383
-0.17736789557010063
-1.3017544328154416
-0.23044279483520383
-0.17736789557010063
-1.3017544328154416
-0.23044279483520383
-0.17736789557010063
-1.3017544328154416
-0.23044279483520383
-0.17736789557010063
-1.3017544328154416
-0.23054118178341776
-0.1774400863342138
-1.3017371444925159
-0.23054118178341776
-0.1774400863342138
-1.3017371444925159
-0.23054118178341776
-0.1774400863342138
-1.3017371444925159
-0.23054118178341776
-0.1774400863342138
-1.3017371444925159
-0.22978704050277754
-0.17699299337645458
-1.3016082625158831
