-0.94033520748475
-0.16285164446037903
-0.5248825850465423
-0.94033520748475
-0.16285164446037903
-0.5248825850465423
-0.94033520748475
-0.16285164446037903
-0.5248825850465423
-0.94033520748475
-0.16285164446037903
-0.5248825850465423
-0.9406835003603523
-0.16290883124970154
-0.5253338727459987
-0.9406835003603523
-0.16290883124970154
-0.5253338727459987
-0.9406835003603523
-0.16290883124970154
-0.5253338727459987
-0.9406835003603523
-0.16290883124970154
-0.5253338727459987
-0.941583235955761
-0.16287651787776108
-0.5255536062228938
-0.941583235955761
-0.16287651787776108
-0.5255536062228938
-0.941583235955761
-0.16287651787776108
-0.5255536062228938
-0.941583235955761
-0.16287651787776108
-0.5255536062228938
-0.9420113363237828
-0.16282917333212543
-0.5260092473515843
-0.9420113363237828
-0.16282917333212543
-0.5260092473515843
-0.9420113363237828
-0.16282917333212543
-0.5260092473515843
-0.9420113363237828
-0.16282917333212543
-0.5260092473515843
-0.9420113363237828
-0.16282917333212543
-0.5260092473515843
-0.9420113363237828
-0.16282917333212543
-0.5260092473515843
-0.9420113363237828
-0.16282917333212543
-0.5260092473515843
-0.9420113363237828
-0.16282917333212543
-0.5260092473515843
-0.9420113363237828
-0.16282917333212543
-0.5260092473515843
-0.9420113363237828
-0.16282917333212543
-0.5260092473515843
-0.9420113363237828
-0.16282917333212543
-0.5260092473515843
-0.9420113363237828
-0.16282917333212543
-0.5260092473515843
-0.9419450600227628
-0.16321682264487702
-0.526251877254023
-0.9419450600227628
-0.16321682264487702
-0.526251877254023
-0.9419450600227628
-0.16321682264487702
-0.526251877254023
-0.9419450600227628
-0.16321682264487702
-0.526251877254023
-0.9421639279506197
-0.16344428575074105
-0.5262851543656942
-0.9421639279506197
-0.16344428575074105
-0.5262851543656942
-0.9421639279506197
-0.16344428575074105
-0.5262851543656942
-0.9421639279506197
-0.16344428575074105
-0.5262851543656942
-0.9420724970383737
-0.1639926704801902
-0.5263171261464961
-0.9420724970383737
-0.1639926704801902
-0.5263171261464961
-0.9420724970383737
-0.1639926704801902
-0.5263171261464961
-0.9420724970383737
-0.1639926704801902
-0.5263171261464961
-0.9412902959847912
-0.16429811075155723
-0.5265521937112542
-0.9412902959847912
-0.16429811075155723
-0.5265521937112542
-0.9412902959847912
-0.16429811075155723
-0.5265521937112542
-0.9412902959847912
-0.16429811075155723
-0.5265521937112542
-0.9408759965900635
-0.1643753172837097
-0.527210350526155
-0.9408759965900635
-0.1643753172837097
-0.527210350526155
-0.9408759965900635
-0.1643753172837097
-0.527210350526155
-0.9408759965900635
-0.1643753172837097
-0.527210350526155
-0.941196553966611
-0.16430421595564526
-0.5276889481625262
-0.941196553966611
-0.16430421595564526
-0.5276889481625262
-0.941196553966611
-0.16430421595564526
-0.5276889481625262
-0.941196553966611
-0.16430421595564526
-0.5276889481625262
-0.9417833611999735
-0.16430411732100453
-0.5281451252716732
-0.9417833611999735
-0.16430411732100453
-0.5281451252716732
-0.9417833611999735
-0.16430411732100453
-0.5281451252716732
-0.9417833611999735
-0.16430411732100453
-0.5281451252716732
-0.9415472696786649
-0.1641974008089147
-0.5286169481158254
-0.9415472696786649
-0.1641974008089147
-0.5286169481158254
-0.9415472696786649
-0.1641974008089147
-0.5286169481158254
-0.9415472696786649
-0.1641974008089147
-0.5286169481158254
-0.9409144152742328
-0.16404651244116877
-0.5292417523317575
-0.9409144152742328
-0.16404651244116877
-0.5292417523317575
-0.9409144152742328
-0.16404651244116877
-0.5292417523317575
-0.9409144152742328
-0.16404651244116877
-0.5292417523317575
-0.9406784529979486
-0.163939464097931
-0.5297134860924346
-0.9406784529979486
-0.163939464097931
-0.5297134860924346
-0.9406784529979486
-0.163939464097931
-0.5297134860924346
-0.9406784529979486
-0.163939464097931
-0.5297134860924346
-0.9406784529979486
-0.163939464097931
-0.5297134860924346
-0.9406784529979486
-0.163939464097931
-0.5297134860924346
-0.9406784529979486
-0.163939464097931
-0.5297134860924346
-0.9406784529979486
-0.163939464097931
-0.5297134860924346
-0.9406784529979486
-0.163939464097931
-0.5297134860924346
-0.9406784529979486
-0.163939464097931
-0.5297134860924346
-0.9406784529979486
-0.163939464097931
-0.5297134860924346
-0.9406784529979486
-0.163939464097931
-0.5297134860924346
-0.9398040963473184
-0.16380909374393476
-0.5297045496389492
-0.9398040963473184
-0.16380909374393476
-0.5297045496389492
-0.9398040963473184
-0.16380909374393476
-0.5297045496389492
-0.9398040963473184
-0.16380909374393476
-0.5297045496389492
-0.9388397855473961
-0.16333593370924998
-0.5299209117200254
-0.9388397855473961
-0.16333593370924998
-0.5299209117200254
-0.9388397855473961
-0.16333593370924998
-0.5299209117200254
-0.9388397855473961
-0.16333593370924998
-0.5299209117200254
-0.9387883105192913
-0.16331295105583182
-0.5298965205886846
-0.9387883105192913
-0.16331295105583182
-0.5298965205886846
-0.9387883105192913
-0.16331295105583182
-0.5298965205886846
-0.9387883105192913
-0.16331295105583182
-0.5298965205886846
-0.9387883105192913
-0.16331295105583182
-0.5298965205886846
-0.9387883105192913
-0.16331295105583182
-0.5298965205886846
-0.9387883105192913
-0.16331295105583182
-0.5298965205886846
-0.9387883105192913
-0.16331295105583182
-0.5298965205886846
-0.9381510132177298
-0.16303632231212592
-0.5302816880476539
-0.9381510132177298
-0.16303632231212592
-0.5302816880476539
-0.9381510132177298
-0.16303632231212592
-0.5302816880476539
-0.9381510132177298
-0.16303632231212592
-0.5302816880476539
-0.9376004119553725
-0.16306910476335446
-0.5306723761111437
-0.9376004119553725
-0.16306910476335446
-0.5306723761111437
-0.9376004119553725
-0.16306910476335446
-0.5306723761111437
-0.9376004119553725
-0.16306910476335446
-0.5306723761111437
-0.9376004119553725
-0.16306910476335446
-0.5306723761111437
-0.9376004119553725
-0.16306910476335446
-0.5306723761111437
-0.9376004119553725
-0.16306910476335446
-0.5306723761111437
-0.9376004119553725
-0.16306910476335446
-0.5306723761111437
-0.9376004119553725
-0.16306910476335446
-0.5306723761111437
-0.9376004119553725
-0.16306910476335446
-0.5306723761111437
-0.9376004119553725
-0.16306910476335446
-0.5306723761111437
-0.9376004119553725
-0.16306910476335446
-0.5306723761111437
-0.9376248663370068
-0.1629631885385678
-0.5307237788954169
-0.9376248663370068
-0.1629631885385678
-0.5307237788954169
-0.9376248663370068
-0.1629631885385678
-0.5307237788954169
-0.9376248663370068
-0.1629631885385678
-0.5307237788954169
-0.9373486776545293
-0.1635700854406525
-0.5307047982554366
-0.9373486776545293
-0.1635700854406525
-0.5307047982554366
-0.9373486776545293
-0.1635700854406525
-0.5307047982554366
-0.9373486776545293
-0.1635700854406525
-0.5307047982554366
-0.9370139685975039
-0.16394101554019752
-0.5308120485847657
-0.9370139685975039
-0.16394101554019752
-0.5308120485847657
-0.9370139685975039
-0.16394101554019752
-0.5308120485847657
-0.9370139685975039
-0.16394101554019752
-0.5308120485847657
-0.9370139685975039
-0.16394101554019752
-0.5308120485847657
-0.9370139685975039
-0.16394101554019752
-0.5308120485847657
-0.9370139685975039
-0.16394101554019752
-0.5308120485847657
-0.9370139685975039
-0.16394101554019752
-0.5308120485847657
-0.9369381649512163
-0.16402393498087245
-0.5307362449384783
-0.9369381649512163
-0.16402393498087245
-0.5307362449384783
-0.9369381649512163
-0.16402393498087245
-0.5307362449384783
-0.9369381649512163
-0.16402393498087245
-0.5307362449384783
-0.937256748938897
-0.16406295150077715
-0.5308971975215153
-0.937256748938897
-0.16406295150077715
-0.5308971975215153
-0.937256748938897
-0.16406295150077715
-0.5308971975215153
-0.937256748938897
-0.16406295150077715
-0.5308971975215153
-0.937256748938897
-0.16406295150077715
-0.5308971975215153
-0.937256748938897
-0.16406295150077715
-0.5308971975215153
-0.937256748938897
-0.16406295150077715
-0.5308971975215153
-0.937256748938897
-0.16406295150077715
-0.5308971975215153
-0.9373641161859547
-0.1640870658923531
-0.5308738562235426
-0.9373641161859547
-0.1640870658923531
-0.5308738562235426
-0.9373641161859547
-0.1640870658923531
-0.5308738562235426
-0.9373641161859547
-0.1640870658923531
-0.5308738562235426
-0.9368950502021559
-0.1643048859271606
-0.5310314698424156
-0.9368950502021559
-0.1643048859271606
-0.5310314698424156
-0.9368950502021559
-0.1643048859271606
-0.5310314698424156
-0.9368950502021559
-0.1643048859271606
-0.5310314698424156
-0.9368950502021559
-0.1643048859271606
-0.5310314698424156
-0.9368950502021559
-0.1643048859271606
-0.5310314698424156
-0.9368950502021559
-0.1643048859271606
-0.5310314698424156
-0.9368950502021559
-0.1643048859271606
-0.5310314698424156
-0.9372242742914131
-0.16473651876614687
-0.5311223019663996
-0.9372242742914131
-0.16473651876614687
-0.5311223019663996
-0.9372242742914131
-0.16473651876614687
-0.5311223019663996
-0.9372242742914131
-0.16473651876614687
-0.5311223019663996
-0.9370924518715462
-0.1648183386848403
-0.5310943271870847
-0.9370924518715462
-0.1648183386848403
-0.5310943271870847
-0.9370924518715462
-0.1648183386848403
-0.5310943271870847
-0.9370924518715462
-0.1648183386848403
-0.5310943271870847
-0.9377066649213952
-0.16514613082583857
-0.5308160673469853
-0.9377066649213952
-0.16514613082583857
-0.5308160673469853
-0.9377066649213952
-0.16514613082583857
-0.5308160673469853
-0.9377066649213952
-0.16514613082583857
-0.5308160673469853
-0.9377066649213952
-0.16514613082583857
-0.5308160673469853
-0.9377066649213952
-0.16514613082583857
-0.5308160673469853
-0.9377066649213952
-0.16514613082583857
-0.5308160673469853
-0.9377066649213952
-0.16514613082583857
-0.5308160673469853
-0.9373484003161499
-0.1655677750543203
-0.5310309366407943
-0.9373484003161499
-0.1655677750543203
-0.5310309366407943
-0.9373484003161499
-0.1655677750543203
-0.5310309366407943
-0.9373484003161499
-0.1655677750543203
-0.5310309366407943
-0.9373050174250872
-0.1658487965081497
-0.5313261926380932
-0.9373050174250872
-0.1658487965081497
-0.5313261926380932
-0.9373050174250872
-0.1658487965081497
-0.5313261926380932
-0.9373050174250872
-0.1658487965081497
-0.5313261926380932
-0.9375277091789751
-0.1662011533063996
-0.5315989502465552
-0.9375277091789751
-0.1662011533063996
-0.5315989502465552
-0.9375277091789751
-0.1662011533063996
-0.5315989502465552
-0.9375277091789751
-0.1662011533063996
-0.5315989502465552
-0.9378768495308243
-0.16640248373067715
-0.5315015322897145
-0.9378768495308243
-0.16640248373067715
-0.5315015322897145
-0.9378768495308243
-0.16640248373067715
-0.5315015322897145
-0.9378768495308243
-0.16640248373067715
-0.5315015322897145
-0.9383732053762106
-0.16631375237951734
-0.531316481361723
-0.9383732053762106
-0.16631375237951734
-0.531316481361723
-0.9383732053762106
-0.16631375237951734
-0.531316481361723
-0.9383732053762106
-0.16631375237951734
-0.531316481361723
-0.938060040345543
-0.16634382404607617
-0.5315538366427056
-0.938060040345543
-0.16634382404607617
-0.5315538366427056
-0.938060040345543
-0.16634382404607617
-0.5315538366427056
-0.938060040345543
-0.16634382404607617
-0.5315538366427056
-0.9372179917359685
-0.16641081031540045
-0.5319167927845212
-0.9372179917359685
-0.16641081031540045
-0.5319167927845212
-0.9372179917359685
-0.16641081031540045
-0.5319167927845212
-0.9372179917359685
-0.16641081031540045
-0.5319167927845212
-0.9372179917359685
-0.16641081031540045
-0.5319167927845212
-0.9372179917359685
-0.16641081031540045
-0.5319167927845212
-0.9372179917359685
-0.16641081031540045
-0.5319167927845212
-0.9372179917359685
-0.16641081031540045
-0.5319167927845212
-0.9374807338943351
-0.16630245606843583
-0.531813746820664
-0.9374807338943351
-0.16630245606843583
-0.531813746820664
-0.9374807338943351
-0.16630245606843583
-0.531813746820664
-0.9374807338943351
-0.16630245606843583
-0.531813746820664
-0.9374807338943351
-0.16630245606843583
-0.531813746820664
-0.9374807338943351
-0.16630245606843583
-0.531813746820664
-0.9374807338943351
-0.16630245606843583
-0.531813746820664
-0.9374807338943351
-0.16630245606843583
-0.531813746820664
-0.9374807338943351
-0.16630245606843583
-0.531813746820664
-0.9374807338943351
-0.16630245606843583
-0.531813746820664
-0.9374807338943351
-0.16630245606843583
-0.531813746820664
-0.9374807338943351
-0.16630245606843583
-0.531813746820664
-0.9369005078267533
-0.16631625383671486
-0.5319148881990515
-0.9369005078267533
-0.16631625383671486
-0.5319148881990515
-0.9369005078267533
-0.16631625383671486
-0.5319148881990515
-0.9369005078267533
-0.16631625383671486
-0.5319148881990515
-0.9367686453483466
-0.16639807494905104
-0.531887058381324
-0.9367686453483466
-0.16639807494905104
-0.531887058381324
-0.9367686453483466
-0.16639807494905104
-0.531887058381324
-0.9367686453483466
-0.16639807494905104
-0.531887058381324
-0.9367686453483466
-0.16639807494905104
-0.531887058381324
-0.9367686453483466
-0.16639807494905104
-0.531887058381324
-0.9367686453483466
-0.16639807494905104
-0.531887058381324
-0.9367686453483466
-0.16639807494905104
-0.531887058381324
-0.9367686453483466
-0.16639807494905104
-0.531887058381324
-0.9367686453483466
-0.16639807494905104
-0.531887058381324
-0.9367686453483466
-0.16639807494905104
-0.531887058381324
-0.9367686453483466
-0.16639807494905104
-0.531887058381324
-0.9371071810516
-0.16620697712622812
-0.5318597707576735
-0.9371071810516
-0.16620697712622812
-0.5318597707576735
-0.9371071810516
-0.16620697712622812
-0.5318597707576735
-0.9371071810516
-0.16620697712622812
-0.5318597707576735
-0.9372145858462629
-0.16623108504543252
-0.5318362854984146
-0.9372145858462629
-0.16623108504543252
-0.5318362854984146
-0.9372145858462629
-0.16623108504543252
-0.5318362854984146
-0.9372145858462629
-0.16623108504543252
-0.5318362854984146
-0.9371071810516
-0.16620697712622812
-0.5318597707576735
-0.9371071810516
-0.16620697712622812
-0.5318597707576735
-0.9371071810516
-0.16620697712622812
-0.5318597707576735
-0.9371071810516
-0.16620697712622812
-0.5318597707576735
-0.9372145858462629
-0.16623108504543252
-0.5318362854984146
-0.9372145858462629
-0.16623108504543252
-0.5318362854984146
-0.9372145858462629
-0.16623108504543252
-0.5318362854984146
-0.9372145858462629
-0.16623108504543252
-0.5318362854984146
-0.9377494025526953
-0.16660882582403613
-0.5317128740144906
-0.9377494025526953
-0.16660882582403613
-0.5317128740144906
-0.9377494025526953
-0.16660882582403613
-0.5317128740144906
-0.9377494025526953
-0.16660882582403613
-0.5317128740144906
-0.9377494025526953
-0.16660882582403613
-0.5317128740144906
-0.9377494025526953
-0.16660882582403613
-0.5317128740144906
-0.9377494025526953
-0.16660882582403613
-0.5317128740144906
-0.9377494025526953
-0.16660882582403613
-0.5317128740144906
-0.9377494025526953
-0.16660882582403613
-0.5317128740144906
-0.9377494025526953
-0.16660882582403613
-0.5317128740144906
-0.9377494025526953
-0.16660882582403613
-0.5317128740144906
-0.9377494025526953
-0.16660882582403613
-0.5317128740144906
-0.9376980333704843
-0.16658564138759446
-0.5316884525241593
-0.9376980333704843
-0.16658564138759446
-0.5316884525241593
-0.9376980333704843
-0.16658564138759446
-0.5316884525241593
-0.9376980333704843
-0.16658564138759446
-0.5316884525241593
-0.9376745228515186
-0.16663629493279725
-0.5317958507848405
-0.9376745228515186
-0.16663629493279725
-0.5317958507848405
-0.9376745228515186
-0.16663629493279725
-0.5317958507848405
-0.9376745228515186
-0.16663629493279725
-0.5317958507848405
-0.9381238747392685
-0.16664902704034884
-0.5318255228148057
-0.9381238747392685
-0.16664902704034884
-0.5318255228148057
-0.9385444660084976
-0.16664306617913635
-0.5315646087609445
-0.9385444660084976
-0.16664306617913635
-0.5315646087609445
-0.9385444660084976
-0.16664306617913635
-0.5315646087609445
-0.9385444660084976
-0.16664306617913635
-0.5315646087609445
-0.9385444660084976
-0.16664306617913635
-0.5315646087609445
-0.9385444660084976
-0.16664306617913635
-0.5315646087609445
-0.9385444660084976
-0.16664306617913635
-0.5315646087609445
-0.9385444660084976
-0.16664306617913635
-0.5315646087609445
-0.9385444660084976
-0.16664306617913635
-0.5315646087609445
-0.9385444660084976
-0.16664306617913635
-0.5315646087609445
-0.9385444660084976
-0.16664306617913635
-0.5315646087609445
-0.9385444660084976
-0.16664306617913635
-0.5315646087609445
-0.9385444660084976
-0.16664306617913635
-0.5315646087609445
-0.9385444660084976
-0.16664306617913635
-0.5315646087609445
-0.9385444660084976
-0.16664306617913635
-0.5315646087609445
-0.9385444660084976
-0.16664306617913635
-0.5315646087609445
-0.9389082675716903
-0.16629085595094
-0.5317476845394129
-0.9389082675716903
-0.16629085595094
-0.5317476845394129
-0.9389082675716903
-0.16629085595094
-0.5317476845394129
-0.9389082675716903
-0.16629085595094
-0.5317476845394129
-0.9396620581301777
-0.16577077361639644
-0.5319283398107071
-0.9396620581301777
-0.16577077361639644
-0.5319283398107071
-0.9396620581301777
-0.16577077361639644
-0.5319283398107071
-0.9396620581301777
-0.16577077361639644
-0.5319283398107071
-0.94007483831946
-0.16520704413669082
-0.532214748107015
-0.94007483831946
-0.16520704413669082
-0.532214748107015
-0.94007483831946
-0.16520704413669082
-0.532214748107015
-0.94007483831946
-0.16520704413669082
-0.532214748107015
-0.9393992236797484
-0.16339291475120749
-0.5326516251475694
-0.9393992236797484
-0.16339291475120749
-0.5326516251475694
-0.9393992236797484
-0.16339291475120749
-0.5326516251475694
-0.9393992236797484
-0.16339291475120749
-0.5326516251475694
-0.9393342680238737
-0.16172698696914864
-0.5327293808636938
-0.9393342680238737
-0.16172698696914864
-0.5327293808636938
-0.9393342680238737
-0.16172698696914864
-0.5327293808636938
-0.9393342680238737
-0.16172698696914864
-0.5327293808636938
-0.9408982857363491
-0.1611760355318975
-0.5321020122946447
-0.9408982857363491
-0.1611760355318975
-0.5321020122946447
-0.9408982857363491
-0.1611760355318975
-0.5321020122946447
-0.9408982857363491
-0.1611760355318975
-0.5321020122946447
-0.9437634588382852
-0.16090644971377602
-0.5312339237278347
-0.9437634588382852
-0.16090644971377602
-0.5312339237278347
-0.9437634588382852
-0.16090644971377602
-0.5312339237278347
-0.9437634588382852
-0.16090644971377602
-0.5312339237278347
-0.9443684217147137
-0.16014704968668153
-0.530514342903596
-0.9443684217147137
-0.16014704968668153
-0.530514342903596
-0.9443684217147137
-0.16014704968668153
-0.530514342903596
-0.9443684217147137
-0.16014704968668153
-0.530514342903596
-0.942433161567677
-0.15898359882742094
-0.5302366541229264
-0.942433161567677
-0.15898359882742094
-0.5302366541229264
-0.942433161567677
-0.15898359882742094
-0.5302366541229264
-0.942433161567677
-0.15898359882742094
-0.5302366541229264
-0.9410249195701872
-0.15769503187146922
-0.5302232941448455
-0.9410249195701872
-0.15769503187146922
-0.5302232941448455
-0.9410249195701872
-0.15769503187146922
-0.5302232941448455
-0.9410249195701872
-0.15769503187146922
-0.5302232941448455
-0.9393068148136141
-0.15638218167170045
-0.5306024229486526
-0.9393068148136141
-0.15638218167170045
-0.5306024229486526
-0.9393068148136141
-0.15638218167170045
-0.5306024229486526
-0.9393068148136141
-0.15638218167170045
-0.5306024229486526
-0.9396939780678433
-0.1559790820185604
-0.5306802738740318
-0.9396939780678433
-0.1559790820185604
-0.5306802738740318
-0.9396939780678433
-0.1559790820185604
-0.5306802738740318
-0.9396939780678433
-0.1559790820185604
-0.5306802738740318
-0.9420894387708655
-0.1568542006360305
-0.5304096462798645
-0.9420894387708655
-0.1568542006360305
-0.5304096462798645
-0.9420894387708655
-0.1568542006360305
-0.5304096462798645
-0.9420894387708655
-0.1568542006360305
-0.5304096462798645
-0.941949176834223
-0.15862093324767812
-0.5282173517814414
-0.941949176834223
-0.15862093324767812
-0.5282173517814414
-0.941949176834223
-0.15862093324767812
-0.5282173517814414
-0.941949176834223
-0.15862093324767812
-0.5282173517814414
-0.9410077315205818
-0.15942095898754358
-0.5273450611307156
-0.9410077315205818
-0.15942095898754358
-0.5273450611307156
-0.9410077315205818
-0.15942095898754358
-0.5273450611307156
-0.9410077315205818
-0.15942095898754358
-0.5273450611307156
-0.9392800037030085
-0.15852906011586912
-0.5263839286735565
-0.9392800037030085
-0.15852906011586912
-0.5263839286735565
-0.9392800037030085
-0.15852906011586912
-0.5263839286735565
-0.9392800037030085
-0.15852906011586912
-0.5263839286735565
-0.9382709931666569
-0.15982359076202782
-0.5232716839134735
-0.9382709931666569
-0.15982359076202782
-0.5232716839134735
-0.9382709931666569
-0.15982359076202782
-0.5232716839134735
-0.9382709931666569
-0.15982359076202782
-0.5232716839134735
-0.9363327356359747
-0.16314504339906116
-0.5207975885424391
-0.9363327356359747
-0.16314504339906116
-0.5207975885424391
-0.9363327356359747
-0.16314504339906116
-0.5207975885424391
-0.9363327356359747
-0.16314504339906116
-0.5207975885424391
-0.9308855273261996
-0.1617310747426251
-0.5199153494462027
-0.9308855273261996
-0.1617310747426251
-0.5199153494462027
-0.9308855273261996
-0.1617310747426251
-0.5199153494462027
-0.9308855273261996
-0.1617310747426251
-0.5199153494462027
-0.9147209905127945
-0.15780266570407012
-0.5218074127669554
-0.9147209905127945
-0.15780266570407012
-0.5218074127669554
-0.9147209905127945
-0.15780266570407012
-0.5218074127669554
-0.9147209905127945
-0.15780266570407012
-0.5218074127669554
-0.8999940915213807
-0.15386628304902034
-0.5200325470619505
-0.8999940915213807
-0.15386628304902034
-0.5200325470619505
-0.8999940915213807
-0.15386628304902034
-0.5200325470619505
-0.8999940915213807
-0.15386628304902034
-0.5200325470619505
-0.8991170480721385
-0.15247674343180678
-0.5158161703211683
-0.8991170480721385
-0.15247674343180678
-0.5158161703211683
-0.8991170480721385
-0.15247674343180678
-0.5158161703211683
-0.8991170480721385
-0.15247674343180678
-0.5158161703211683
-0.9030930476790563
-0.1530442831668058
-0.5123587175473994
-0.9030930476790563
-0.1530442831668058
-0.5123587175473994
-0.9030930476790563
-0.1530442831668058
-0.5123587175473994
-0.9030930476790563
-0.1530442831668058
-0.5123587175473994
-0.9065821226522961
-0.15256583381555466
-0.5098932483325136
-0.9065821226522961
-0.15256583381555466
-0.5098932483325136
-0.9065821226522961
-0.15256583381555466
-0.5098932483325136
-0.9065821226522961
-0.15256583381555466
-0.5098932483325136
-0.9052282125093616
-0.15185832332835028
-0.5078904490011716
-0.9052282125093616
-0.15185832332835028
-0.5078904490011716
-0.9052282125093616
-0.15185832332835028
-0.5078904490011716
-0.9052282125093616
-0.15185832332835028
-0.5078904490011716
-0.9019043631727708
-0.15379910935392796
-0.504251568483221
-0.9019043631727708
-0.15379910935392796
-0.504251568483221
-0.9019043631727708
-0.15379910935392796
-0.504251568483221
-0.9019043631727708
-0.15379910935392796
-0.504251568483221
-0.9045285085908124
-0.15659074721723565
-0.49996535236032225
-0.9045285085908124
-0.15659074721723565
-0.49996535236032225
-0.9045285085908124
-0.15659074721723565
-0.49996535236032225
-0.9045285085908124
-0.15659074721723565
-0.49996535236032225
-0.9091608260021476
-0.15925354867993077
-0.4964918335643122
-0.9091608260021476
-0.15925354867993077
-0.4964918335643122
-0.9091608260021476
-0.15925354867993077
-0.4964918335643122
-0.9091608260021476
-0.15925354867993077
-0.4964918335643122
-0.9127668377065132
-0.15979090218473874
-0.4935647163427844
-0.9127668377065132
-0.15979090218473874
-0.4935647163427844
-0.9127668377065132
-0.15979090218473874
-0.4935647163427844
-0.9127668377065132
-0.15979090218473874
-0.4935647163427844
-0.9151479982040659
-0.1607446959966571
-0.4905239422757179
-0.9151479982040659
-0.1607446959966571
-0.4905239422757179
-0.9151479982040659
-0.1607446959966571
-0.4905239422757179
-0.9151479982040659
-0.1607446959966571
-0.4905239422757179
-0.91543126234849
-0.16225235799101811
-0.4886635770008177
-0.91543126234849
-0.16225235799101811
-0.4886635770008177
-0.91543126234849
-0.16225235799101811
-0.4886635770008177
-0.91543126234849
-0.16225235799101811
-0.4886635770008177
-0.91592145358637
-0.16229672038196882
-0.48737528605050984
-0.91592145358637
-0.16229672038196882
-0.48737528605050984
-0.91592145358637
-0.16229672038196882
-0.48737528605050984
-0.91592145358637
-0.16229672038196882
-0.48737528605050984
-0.9185430176460555
-0.16162126278243666
-0.4856714690748183
-0.9185430176460555
-0.16162126278243666
-0.4856714690748183
-0.9185430176460555
-0.16162126278243666
-0.4856714690748183
-0.9185430176460555
-0.16162126278243666
-0.4856714690748183
-0.9198336131090881
-0.16062403096733027
-0.4846336610456695
-0.9198336131090881
-0.16062403096733027
-0.4846336610456695
-0.9198336131090881
-0.16062403096733027
-0.4846336610456695
-0.9198336131090881
-0.16062403096733027
-0.4846336610456695
-0.9212605364789508
-0.15971924353130748
-0.483706077325308
-0.9212605364789508
-0.15971924353130748
-0.483706077325308
-0.9212605364789508
-0.15971924353130748
-0.483706077325308
-0.9212605364789508
-0.15971924353130748
-0.483706077325308
-0.9206007715984087
-0.15943544845758986
-0.48297416499454193
-0.9206007715984087
-0.15943544845758986
-0.48297416499454193
-0.9206007715984087
-0.15943544845758986
-0.48297416499454193
-0.9206007715984087
-0.15943544845758986
-0.48297416499454193
-0.9196676216580255
-0.15932501832342497
-0.48300819021223157
-0.9196676216580255
-0.15932501832342497
-0.48300819021223157
-0.9196676216580255
-0.15932501832342497
-0.48300819021223157
-0.9196676216580255
-0.15932501832342497
-0.48300819021223157
-0.9193427892825213
-0.15867312816474383
-0.48272637219761705
-0.9193427892825213
-0.15867312816474383
-0.48272637219761705
-0.9193427892825213
-0.15867312816474383
-0.48272637219761705
-0.9193427892825213
-0.15867312816474383
-0.48272637219761705
-0.9197793374437081
-0.157817450386983
-0.4827154617601042
-0.9197793374437081
-0.157817450386983
-0.4827154617601042
-0.9197793374437081
-0.157817450386983
-0.4827154617601042
-0.9197793374437081
-0.157817450386983
-0.4827154617601042
-0.9189366231813982
-0.15716619965860976
-0.4832710200614687
-0.9189366231813982
-0.15716619965860976
-0.4832710200614687
-0.9189366231813982
-0.15716619965860976
-0.4832710200614687
-0.9189366231813982
-0.15716619965860976
-0.4832710200614687
-0.9177758257360834
-0.15701363450109257
-0.48417158589502934
-0.9177758257360834
-0.15701363450109257
-0.48417158589502934
-0.9177758257360834
-0.15701363450109257
-0.48417158589502934
-0.9177758257360834
-0.15701363450109257
-0.48417158589502934
-0.9168264887610145
-0.1571411003130407
-0.485774302960285
-0.9168264887610145
-0.1571411003130407
-0.485774302960285
-0.9168264887610145
-0.1571411003130407
-0.485774302960285
-0.9168264887610145
-0.1571411003130407
-0.485774302960285
-0.9165321560888654
-0.157362500206751
-0.48664868483174334
-0.9165321560888654
-0.157362500206751
-0.48664868483174334
-0.9165321560888654
-0.157362500206751
-0.48664868483174334
-0.9165321560888654
-0.157362500206751
-0.48664868483174334
-0.9168423296648686
-0.15812976313729077
-0.48743832828365796
-0.9168423296648686
-0.15812976313729077
-0.48743832828365796
-0.9168423296648686
-0.15812976313729077
-0.48743832828365796
-0.9168423296648686
-0.15812976313729077
-0.48743832828365796
-0.9168337612731257
-0.1588099657923434
-0.48822628775427696
-0.9168337612731257
-0.1588099657923434
-0.48822628775427696
-0.9168337612731257
-0.1588099657923434
-0.48822628775427696
-0.9168337612731257
-0.1588099657923434
-0.48822628775427696
-0.9164010755771441
-0.15893715319839252
-0.4889919551054656
-0.9164010755771441
-0.15893715319839252
-0.4889919551054656
-0.9164010755771441
-0.15893715319839252
-0.4889919551054656
-0.9164010755771441
-0.15893715319839252
-0.4889919551054656
-0.9155475079548006
-0.15918949301003707
-0.4896989313682354
-0.9155475079548006
-0.15918949301003707
-0.4896989313682354
-0.9155475079548006
-0.15918949301003707
-0.4896989313682354
-0.9155475079548006
-0.15918949301003707
-0.4896989313682354
-0.91552829733427
-0.15991815638561518
-0.4897711691266257
-0.91552829733427
-0.15991815638561518
-0.4897711691266257
-0.91552829733427
-0.15991815638561518
-0.4897711691266257
-0.91552829733427
-0.15991815638561518
-0.4897711691266257
-0.916225350385859
-0.1607158914893211
-0.489852546189635
-0.916225350385859
-0.1607158914893211
-0.489852546189635
-0.916225350385859
-0.1607158914893211
-0.489852546189635
-0.916225350385859
-0.1607158914893211
-0.489852546189635
-0.9171084051586667
-0.16195886014927977
-0.4904253978260785
-0.9171084051586667
-0.16195886014927977
-0.4904253978260785
-0.9171084051586667
-0.16195886014927977
-0.4904253978260785
-0.9171084051586667
-0.16195886014927977
-0.4904253978260785
-0.9175970615873216
-0.16266405313473473
-0.49126595067941103
-0.9175970615873216
-0.16266405313473473
-0.49126595067941103
-0.9175970615873216
-0.16266405313473473
-0.49126595067941103
-0.9175970615873216
-0.16266405313473473
-0.49126595067941103
-0.9175480455171448
-0.1633776905897
-0.491047607291804
-0.9175480455171448
-0.1633776905897
-0.491047607291804
-0.9175480455171448
-0.1633776905897
-0.491047607291804
-0.9175480455171448
-0.1633776905897
-0.491047607291804
-0.9177658282514416
-0.16427106695098512
-0.49048937894921757
-0.9177658282514416
-0.16427106695098512
-0.49048937894921757
-0.9177658282514416
-0.16427106695098512
-0.49048937894921757
-0.9177658282514416
-0.16427106695098512
-0.49048937894921757
-0.9181725640647297
-0.16516667395578036
-0.49038027494830133
-0.9181725640647297
-0.16516667395578036
-0.49038027494830133
-0.9181725640647297
-0.16516667395578036
-0.49038027494830133
-0.9181725640647297
-0.16516667395578036
-0.49038027494830133
-0.9187107389190097
-0.16586403694183943
-0.49061775129341795
-0.9187107389190097
-0.16586403694183943
-0.49061775129341795
-0.9187107389190097
-0.16586403694183943
-0.49061775129341795
-0.9187107389190097
-0.16586403694183943
-0.49061775129341795
-0.9195579409097043
-0.1659054653458508
-0.49049434496961686
-0.9195579409097043
-0.1659054653458508
-0.49049434496961686
-0.9195579409097043
-0.1659054653458508
-0.49049434496961686
-0.9195579409097043
-0.1659054653458508
-0.49049434496961686
-0.9200704156450114
-0.1662011870003048
-0.49024022464404465
-0.9200704156450114
-0.1662011870003048
-0.49024022464404465
-0.9200704156450114
-0.1662011870003048
-0.49024022464404465
-0.9200704156450114
-0.1662011870003048
-0.49024022464404465
-0.9192929056727627
-0.16657462317160163
-0.4903197691876315
-0.9192929056727627
-0.16657462317160163
-0.4903197691876315
-0.9192929056727627
-0.16657462317160163
-0.4903197691876315
-0.9192929056727627
-0.16657462317160163
-0.4903197691876315
-0.9191113039350131
-0.16663746494437134
-0.4902687618344387
-0.9191113039350131
-0.16663746494437134
-0.4902687618344387
-0.9191113039350131
-0.16663746494437134
-0.4902687618344387
-0.9191113039350131
-0.16663746494437134
-0.4902687618344387
-0.9201407009114629
-0.16644596609774798
-0.49067370260469934
-0.9201407009114629
-0.16644596609774798
-0.49067370260469934
-0.9201407009114629
-0.16644596609774798
-0.49067370260469934
-0.9201407009114629
-0.16644596609774798
-0.49067370260469934
-0.9211984578701943
-0.16644019616700884
-0.4908910510435941
-0.9211984578701943
-0.16644019616700884
-0.4908910510435941
-0.9211984578701943
-0.16644019616700884
-0.4908910510435941
-0.9211984578701943
-0.16644019616700884
-0.4908910510435941
-0.9204028226114248
-0.1661941622655713
-0.49167401003772176
-0.9204028226114248
-0.1661941622655713
-0.49167401003772176
-0.9204028226114248
-0.1661941622655713
-0.49167401003772176
-0.9204028226114248
-0.1661941622655713
-0.49167401003772176
-0.9188746351345823
-0.16610640176127509
-0.4926379177669904
-0.9188746351345823
-0.16610640176127509
-0.4926379177669904
-0.9188746351345823
-0.16610640176127509
-0.4926379177669904
-0.9188746351345823
-0.16610640176127509
-0.4926379177669904
-0.9185279740451285
-0.16597625413580963
-0.4931312771359521
-0.9185279740451285
-0.16597625413580963
-0.4931312771359521
-0.9185279740451285
-0.16597625413580963
-0.4931312771359521
-0.9185279740451285
-0.16597625413580963
-0.4931312771359521
-0.9188292832039178
-0.1654448788070494
-0.4938346780085652
-0.9188292832039178
-0.1654448788070494
-0.4938346780085652
-0.9188292832039178
-0.1654448788070494
-0.4938346780085652
-0.9188292832039178
-0.1654448788070494
-0.4938346780085652
-0.9183632639986707
-0.16487767987276924
-0.4943488536478094
-0.9183632639986707
-0.16487767987276924
-0.4943488536478094
-0.9183632639986707
-0.16487767987276924
-0.4943488536478094
-0.9183632639986707
-0.16487767987276924
-0.4943488536478094
-0.9175679635630078
-0.16474286712577338
-0.4948124980914164
-0.9175679635630078
-0.16474286712577338
-0.4948124980914164
-0.9175679635630078
-0.16474286712577338
-0.4948124980914164
-0.9175679635630078
-0.16474286712577338
-0.4948124980914164
-0.9172396714502655
-0.16500496513361712
-0.49523952432063856
-0.9172396714502655
-0.16500496513361712
-0.49523952432063856
-0.9172396714502655
-0.16500496513361712
-0.49523952432063856
-0.9172396714502655
-0.16500496513361712
-0.49523952432063856
-0.9180866473570962
-0.16504840811806915
-0.495116574251677
-0.9180866473570962
-0.16504840811806915
-0.495116574251677
-0.9180866473570962
-0.16504840811806915
-0.495116574251677
-0.9180866473570962
-0.16504840811806915
-0.495116574251677
-0.9182456920465819
-0.16509276480855764
-0.49511702405721975
-0.9182456920465819
-0.16509276480855764
-0.49511702405721975
-0.9182456920465819
-0.16509276480855764
-0.49511702405721975
-0.9182456920465819
-0.16509276480855764
-0.49511702405721975
-0.9182684023033171
-0.16498593840047607
-0.4951677742239013
-0.9182684023033171
-0.16498593840047607
-0.4951677742239013
-0.9182684023033171
-0.16498593840047607
-0.4951677742239013
-0.9182684023033171
-0.16498593840047607
-0.4951677742239013
-0.9182684023033171
-0.16498593840047607
-0.4951677742239013
-0.9182684023033171
-0.16498593840047607
-0.4951677742239013
-0.9182684023033171
-0.16498593840047607
-0.4951677742239013
-0.9182684023033171
-0.16498593840047607
-0.4951677742239013
-0.9183539893056178
-0.16511516201591772
-0.4950947618735976
-0.9183539893056178
-0.16511516201591772
-0.4950947618735976
-0.9183539893056178
-0.16511516201591772
-0.4950947618735976
-0.9183539893056178
-0.16511516201591772
-0.4950947618735976
-0.9183539893056178
-0.16511516201591772
-0.4950947618735976
-0.9183539893056178
-0.16511516201591772
-0.4950947618735976
-0.9183539893056178
-0.16511516201591772
-0.4950947618735976
-0.9183539893056178
-0.16511516201591772
-0.4950947618735976
-0.9183766959991957
-0.16500834092934916
-0.4951455166062429
-0.9183766959991957
-0.16500834092934916
-0.4951455166062429
-0.9183766959991957
-0.16500834092934916
-0.4951455166062429
-0.9183766959991957
-0.16500834092934916
-0.4951455166062429
-0.9183766959991957
-0.16500834092934916
-0.4951455166062429
-0.9183766959991957
-0.16500834092934916
-0.4951455166062429
-0.9183766959991957
-0.16500834092934916
-0.4951455166062429
-0.9183766959991957
-0.16500834092934916
-0.4951455166062429
-0.9177564493025012
-0.16474556174219354
-0.49526206329453326
-0.9177564493025012
-0.16474556174219354
-0.49526206329453326
-0.9177564493025012
-0.16474556174219354
-0.49526206329453326
-0.9177564493025012
-0.16474556174219354
-0.49526206329453326
-0.9166427125626642
-0.16457834519981704
-0.49556556690476505
-0.9166427125626642
-0.16457834519981704
-0.49556556690476505
-0.9166427125626642
-0.16457834519981704
-0.49556556690476505
-0.9166427125626642
-0.16457834519981704
-0.49556556690476505
-0.9166427125626642
-0.16457834519981704
-0.49556556690476505
-0.9166427125626642
-0.16457834519981704
-0.49556556690476505
-0.9166427125626642
-0.16457834519981704
-0.49556556690476505
-0.9166427125626642
-0.16457834519981704
-0.49556556690476505
-0.9177564493025012
-0.16474556174219354
-0.49526206329453326
-0.9177564493025012
-0.16474556174219354
-0.49526206329453326
-0.9177564493025012
-0.16474556174219354
-0.49526206329453326
-0.9177564493025012
-0.16474556174219354
-0.49526206329453326
-0.9186894522071083
-0.16486147105138688
-0.49522524180415056
-0.9186894522071083
-0.16486147105138688
-0.49522524180415056
-0.9186894522071083
-0.16486147105138688
-0.49522524180415056
-0.9186894522071083
-0.16486147105138688
-0.49522524180415056
-0.918388808116317
-0.1645171668497905
-0.4958198786785369
-0.918388808116317
-0.1645171668497905
-0.4958198786785369
-0.918388808116317
-0.1645171668497905
-0.4958198786785369
-0.918388808116317
-0.1645171668497905
-0.4958198786785369
-0.917519062556737
-0.1638448733308503
-0.4960872783463806
-0.917519062556737
-0.1638448733308503
-0.4960872783463806
-0.917519062556737
-0.1638448733308503
-0.4960872783463806
-0.917519062556737
-0.1638448733308503
-0.4960872783463806
-0.9182051804851041
-0.16401449885515768
-0.4954872288078566
-0.9182051804851041
-0.16401449885515768
-0.4954872288078566
-0.9182051804851041
-0.16401449885515768
-0.4954872288078566
-0.9182051804851041
-0.16401449885515768
-0.4954872288078566
-0.9180905583322003
-0.1638700108619875
-0.4952701281433635
-0.9180905583322003
-0.1638700108619875
-0.4952701281433635
-0.9180905583322003
-0.1638700108619875
-0.4952701281433635
-0.9180905583322003
-0.1638700108619875
-0.4952701281433635
-0.9175265342146092
-0.16298591846538704
-0.4952187747651795
-0.9175265342146092
-0.16298591846538704
-0.4952187747651795
-0.9175265342146092
-0.16298591846538704
-0.4952187747651795
-0.9175265342146092
-0.16298591846538704
-0.4952187747651795
-0.9162130567831976
-0.16254507647498243
-0.4953767032654901
-0.9162130567831976
-0.16254507647498243
-0.4953767032654901
-0.9162130567831976
-0.16254507647498243
-0.4953767032654901
-0.9162130567831976
-0.16254507647498243
-0.4953767032654901
-0.915234580299259
-0.1626427590626709
-0.49531107274325065
-0.915234580299259
-0.1626427590626709
-0.49531107274325065
-0.915234580299259
-0.1626427590626709
-0.49531107274325065
-0.915234580299259
-0.1626427590626709
-0.49531107274325065
-0.9151611734283136
-0.16272785172856244
-0.4952376658723052
-0.9151611734283136
-0.16272785172856244
-0.4952376658723052
-0.9151611734283136
-0.16272785172856244
-0.4952376658723052
-0.9151611734283136
-0.16272785172856244
-0.4952376658723052
-0.9153500203037012
-0.16272999875446
-0.49568735851626206
-0.9153500203037012
-0.16272999875446
-0.49568735851626206
-0.9153500203037012
-0.16272999875446
-0.49568735851626206
-0.9153500203037012
-0.16272999875446
-0.49568735851626206
-0.9158388838484057
-0.16307747179603335
-0.49554328039958684
-0.9158388838484057
-0.16307747179603335
-0.49554328039958684
-0.9158388838484057
-0.16307747179603335
-0.49554328039958684
-0.9158388838484057
-0.16307747179603335
-0.49554328039958684
-0.9146742773493919
-0.16368068024895174
-0.49546955394762987
-0.9146742773493919
-0.16368068024895174
-0.49546955394762987
-0.9146742773493919
-0.16368068024895174
-0.49546955394762987
-0.9146742773493919
-0.16368068024895174
-0.49546955394762987
-0.9138330947984901
-0.16381550691598795
-0.49567249921442774
-0.9138330947984901
-0.16381550691598795
-0.49567249921442774
-0.9138330947984901
-0.16381550691598795
-0.49567249921442774
-0.9138330947984901
-0.16381550691598795
-0.49567249921442774
-0.9139476653425743
-0.16395955933692233
-0.4958899122424122
-0.9139476653425743
-0.16395955933692233
-0.4958899122424122
-0.9139476653425743
-0.16395955933692233
-0.4958899122424122
-0.9139476653425743
-0.16395955933692233
-0.4958899122424122
-0.9139704917038776
-0.16385263881846585
-0.4959404283754529
-0.9139704917038776
-0.16385263881846585
-0.4959404283754529
-0.9139704917038776
-0.16385263881846585
-0.4959404283754529
-0.9139704917038776
-0.16385263881846585
-0.4959404283754529
-0.9139476653425743
-0.16395955933692233
-0.4958899122424122
-0.9139476653425743
-0.16395955933692233
-0.4958899122424122
-0.9139476653425743
-0.16395955933692233
-0.4958899122424122
-0.9139476653425743
-0.16395955933692233
-0.4958899122424122
-0.9144828391618597
-0.164036316308935
-0.496005757937592
-0.9144828391618597
-0.164036316308935
-0.496005757937592
-0.9144828391618597
-0.164036316308935
-0.496005757937592
-0.9144828391618597
-0.164036316308935
-0.496005757937592
-0.9151142102220967
-0.1639212473465078
-0.49624552682690726
-0.9151142102220967
-0.1639212473465078
-0.49624552682690726
-0.9151142102220967
-0.1639212473465078
-0.49624552682690726
-0.9151142102220967
-0.1639212473465078
-0.49624552682690726
-0.9144955797353169
-0.16354383987264332
-0.49667907550392343
-0.9144955797353169
-0.16354383987264332
-0.49667907550392343
-0.9144955797353169
-0.16354383987264332
-0.49667907550392343
-0.9144955797353169
-0.16354383987264332
-0.49667907550392343
-0.9142977518616139
-0.16309908759860364
-0.49701098152699164
-0.9142977518616139
-0.16309908759860364
-0.49701098152699164
-0.9142977518616139
-0.16309908759860364
-0.49701098152699164
-0.9142977518616139
-0.16309908759860364
-0.49701098152699164
-0.9142977518616139
-0.16309908759860364
-0.49701098152699164
-0.9142977518616139
-0.16309908759860364
-0.49701098152699164
-0.9142977518616139
-0.16309908759860364
-0.49701098152699164
-0.9142977518616139
-0.16309908759860364
-0.49701098152699164
-0.9155254516570758
-0.16341169357116928
-0.4969259328406946
-0.9155254516570758
-0.16341169357116928
-0.4969259328406946
-0.9155254516570758
-0.16341169357116928
-0.4969259328406946
-0.9155254516570758
-0.16341169357116928
-0.4969259328406946
-0.9161056269530989
-0.1633320265666417
-0.4969841707393256
-0.9161056269530989
-0.1633320265666417
-0.4969841707393256
-0.9161056269530989
-0.1633320265666417
-0.4969841707393256
-0.9161056269530989
-0.1633320265666417
-0.4969841707393256
-0.9148841691129539
-0.16314105259863015
-0.49730879451020316
-0.9148841691129539
-0.16314105259863015
-0.49730879451020316
-0.9148841691129539
-0.16314105259863015
-0.49730879451020316
-0.9148841691129539
-0.16314105259863015
-0.49730879451020316
-0.9148841691129539
-0.16314105259863015
-0.49730879451020316
-0.9148841691129539
-0.16314105259863015
-0.49730879451020316
-0.9148841691129539
-0.16314105259863015
-0.49730879451020316
-0.9148841691129539
-0.16314105259863015
-0.49730879451020316
-0.9155490385413915
-0.1632478818850875
-0.4971354251938792
-0.9155490385413915
-0.1632478818850875
-0.4971354251938792
-0.9155490385413915
-0.1632478818850875
-0.4971354251938792
-0.9155490385413915
-0.1632478818850875
-0.4971354251938792
-0.9160271674305771
-0.16326747254350352
-0.4974553645889813
-0.9160271674305771
-0.16326747254350352
-0.4974553645889813
-0.9160271674305771
-0.16326747254350352
-0.4974553645889813
-0.9160271674305771
-0.16326747254350352
-0.4974553645889813
-0.9155463680079324
-0.16292739088698802
-0.49815674892676626
-0.9155463680079324
-0.16292739088698802
-0.49815674892676626
-0.9155463680079324
-0.16292739088698802
-0.49815674892676626
-0.9155463680079324
-0.16292739088698802
-0.49815674892676626
-0.9145838660737434
-0.1623602645957546
-0.4992412262688894
-0.9145838660737434
-0.1623602645957546
-0.4992412262688894
-0.9145838660737434
-0.1623602645957546
-0.4992412262688894
-0.9145838660737434
-0.1623602645957546
-0.4992412262688894
-0.9148118084471367
-0.16208429486634998
-0.49939369950640267
-0.9148118084471367
-0.16208429486634998
-0.49939369950640267
-0.9148118084471367
-0.16208429486634998
-0.49939369950640267
-0.9148118084471367
-0.16208429486634998
-0.49939369950640267
-0.9167959937402526
-0.16270026130308565
-0.4994616296073958
-0.9167959937402526
-0.16270026130308565
-0.4994616296073958
-0.9167959937402526
-0.16270026130308565
-0.4994616296073958
-0.9167959937402526
-0.16270026130308565
-0.4994616296073958
-0.9183895030675134
-0.16271983417599653
-0.4999562258701794
-0.9183895030675134
-0.16271983417599653
-0.4999562258701794
-0.9183895030675134
-0.16271983417599653
-0.4999562258701794
-0.9183895030675134
-0.16271983417599653
-0.4999562258701794
-0.9177505009089721
-0.16171343774150498
-0.5005342252136619
-0.9177505009089721
-0.16171343774150498
-0.5005342252136619
-0.9177505009089721
-0.16171343774150498
-0.5005342252136619
-0.9177505009089721
-0.16171343774150498
-0.5005342252136619
-0.9163799815798584
-0.15897836409238372
-0.5030870605863482
-0.9163799815798584
-0.15897836409238372
-0.5030870605863482
-0.9163799815798584
-0.15897836409238372
-0.5030870605863482
-0.9163799815798584
-0.15897836409238372
-0.5030870605863482
-0.9159187452255451
-0.15348249449323184
-0.5068213457610313
-0.9159187452255451
-0.15348249449323184
-0.5068213457610313
-0.9159187452255451
-0.15348249449323184
-0.5068213457610313
-0.9159187452255451
-0.15348249449323184
-0.5068213457610313
-0.9209089089100652
-0.15093032815385998
-0.507157810730404
-0.9209089089100652
-0.15093032815385998
-0.507157810730404
-0.9209089089100652
-0.15093032815385998
-0.507157810730404
-0.9209089089100652
-0.15093032815385998
-0.507157810730404
-0.921834561608787
-0.15276989219699333
-0.5080370067226103
-0.921834561608787
-0.15276989219699333
-0.5080370067226103
-0.921834561608787
-0.15276989219699333
-0.5080370067226103
-0.921834561608787
-0.15276989219699333
-0.5080370067226103
-0.9206840021321749
-0.15349761727960373
-0.5087517084201513
-0.9206840021321749
-0.15349761727960373
-0.5087517084201513
-0.9206840021321749
-0.15349761727960373
-0.5087517084201513
-0.9206840021321749
-0.15349761727960373
-0.5087517084201513
-0.9177546404400059
-0.15254756209833892
-0.5110570425694081
-0.9177546404400059
-0.15254756209833892
-0.5110570425694081
-0.9177546404400059
-0.15254756209833892
-0.5110570425694081
-0.9177546404400059
-0.15254756209833892
-0.5110570425694081
-0.9152057795600232
-0.14881214997953282
-0.5142668990387677
-0.9152057795600232
-0.14881214997953282
-0.5142668990387677
-0.9152057795600232
-0.14881214997953282
-0.5142668990387677
-0.9152057795600232
-0.14881214997953282
-0.5142668990387677
-0.9148986563453427
-0.14647007121421804
-0.5145121311992277
-0.9148986563453427
-0.14647007121421804
-0.5145121311992277
-0.9148986563453427
-0.14647007121421804
-0.5145121311992277
-0.9148986563453427
-0.14647007121421804
-0.5145121311992277
-0.9232221203814064
-0.15039582153259975
-0.5135276051464714
-0.9232221203814064
-0.15039582153259975
-0.5135276051464714
-0.9232221203814064
-0.15039582153259975
-0.5135276051464714
-0.9232221203814064
-0.15039582153259975
-0.5135276051464714
-0.9306337310687548
-0.15420145256819137
-0.513099167290721
-0.9306337310687548
-0.15420145256819137
-0.513099167290721
-0.9306337310687548
-0.15420145256819137
-0.513099167290721
-0.9306337310687548
-0.15420145256819137
-0.513099167290721
-0.9289035393478849
-0.1557494879507495
-0.5141094401414131
-0.9289035393478849
-0.1557494879507495
-0.5141094401414131
-0.9289035393478849
-0.1557494879507495
-0.5141094401414131
-0.9289035393478849
-0.1557494879507495
-0.5141094401414131
-0.9207653898576915
-0.15694373570255057
-0.5170868297977056
-0.9207653898576915
-0.15694373570255057
-0.5170868297977056
-0.9207653898576915
-0.15694373570255057
-0.5170868297977056
-0.9207653898576915
-0.15694373570255057
-0.5170868297977056
-0.913583973616385
-0.15830579520311763
-0.5187928539166233
-0.913583973616385
-0.15830579520311763
-0.5187928539166233
-0.913583973616385
-0.15830579520311763
-0.5187928539166233
-0.913583973616385
-0.15830579520311763
-0.5187928539166233
-0.914410378297815
-0.16028114656156092
-0.518888054494106
-0.914410378297815
-0.16028114656156092
-0.518888054494106
-0.914410378297815
-0.16028114656156092
-0.518888054494106
-0.914410378297815
-0.16028114656156092
-0.518888054494106
-0.9224267552307729
-0.1618735445918366
-0.5175458005959848
-0.9224267552307729
-0.1618735445918366
-0.5175458005959848
-0.9224267552307729
-0.1618735445918366
-0.5175458005959848
-0.9224267552307729
-0.1618735445918366
-0.5175458005959848
-0.927517629186007
-0.16332509543417362
-0.5171077544686087
-0.927517629186007
-0.16332509543417362
-0.5171077544686087
-0.927517629186007
-0.16332509543417362
-0.5171077544686087
-0.927517629186007
-0.16332509543417362
-0.5171077544686087
-0.9253459155096287
-0.16368088008199658
-0.5182561152987768
-0.9253459155096287
-0.16368088008199658
-0.5182561152987768
-0.9253459155096287
-0.16368088008199658
-0.5182561152987768
-0.9253459155096287
-0.16368088008199658
-0.5182561152987768
-0.9213743368175892
-0.1638473589139946
-0.5198314370516501
-0.9213743368175892
-0.1638473589139946
-0.5198314370516501
-0.9213743368175892
-0.1638473589139946
-0.5198314370516501
-0.9213743368175892
-0.1638473589139946
-0.5198314370516501
-0.9201382161428585
-0.16375913090026223
-0.5206630191237664
-0.9201382161428585
-0.16375913090026223
-0.5206630191237664
-0.9201382161428585
-0.16375913090026223
-0.5206630191237664
-0.9201382161428585
-0.16375913090026223
-0.5206630191237664
-0.92133351884225
-0.16406977711869017
-0.5202871031747944
-0.92133351884225
-0.16406977711869017
-0.5202871031747944
-0.92133351884225
-0.16406977711869017
-0.5202871031747944
-0.92133351884225
-0.16406977711869017
-0.5202871031747944
-0.9228183752062472
-0.16439991330340178
-0.5197811210012906
-0.9228183752062472
-0.16439991330340178
-0.5197811210012906
-0.9228183752062472
-0.16439991330340178
-0.5197811210012906
-0.9228183752062472
-0.16439991330340178
-0.5197811210012906
-0.9230188249682737
-0.1648554552949175
-0.5200054886353318
-0.9230188249682737
-0.1648554552949175
-0.5200054886353318
-0.9230188249682737
-0.1648554552949175
-0.5200054886353318
-0.9230188249682737
-0.1648554552949175
-0.5200054886353318
-0.9211184083248827
-0.16465374312573217
-0.5210122606200414
-0.9211184083248827
-0.16465374312573217
-0.5210122606200414
-0.9211184083248827
-0.16465374312573217
-0.5210122606200414
-0.9211184083248827
-0.16465374312573217
-0.5210122606200414
-0.919398696934204
-0.16415453058950263
-0.5221472319331159
-0.919398696934204
-0.16415453058950263
-0.5221472319331159
-0.919398696934204
-0.16415453058950263
-0.5221472319331159
-0.919398696934204
-0.16415453058950263
-0.5221472319331159
-0.9188803886343307
-0.1634009003503931
-0.52262418273037
-0.9188803886343307
-0.1634009003503931
-0.52262418273037
-0.9188803886343307
-0.1634009003503931
-0.52262418273037
-0.9188803886343307
-0.1634009003503931
-0.52262418273037
-0.9176701156760461
-0.16251639491749498
-0.5229835902810294
-0.9176701156760461
-0.16251639491749498
-0.5229835902810294
-0.9176701156760461
-0.16251639491749498
-0.5229835902810294
-0.9176701156760461
-0.16251639491749498
-0.5229835902810294
-0.9175514360194624
-0.1620424011765096
-0.5232308799416777
-0.9175514360194624
-0.1620424011765096
-0.5232308799416777
-0.9175514360194624
-0.1620424011765096
-0.5232308799416777
-0.9175514360194624
-0.1620424011765096
-0.5232308799416777
-0.9166250519699111
-0.16174301932266272
-0.5237419545352946
-0.9166250519699111
-0.16174301932266272
-0.5237419545352946
-0.9166250519699111
-0.16174301932266272
-0.5237419545352946
-0.9166250519699111
-0.16174301932266272
-0.5237419545352946
-0.9154950040818379
-0.16178838861960093
-0.5242325083460091
-0.9154950040818379
-0.16178838861960093
-0.5242325083460091
-0.9154950040818379
-0.16178838861960093
-0.5242325083460091
-0.9154950040818379
-0.16178838861960093
-0.5242325083460091
-0.9147618832470326
-0.16187841592482471
-0.5245712207078308
-0.9147618832470326
-0.16187841592482471
-0.5245712207078308
-0.9147618832470326
-0.16187841592482471
-0.5245712207078308
-0.9147618832470326
-0.16187841592482471
-0.5245712207078308
-0.9149201139350783
-0.16192499680323585
-0.5245728504694974
-0.9149201139350783
-0.16192499680323585
-0.5245728504694974
-0.9149201139350783
-0.16192499680323585
-0.5245728504694974
-0.9149201139350783
-0.16192499680323585
-0.5245728504694974
-0.9146020253216294
-0.16188881388635676
-0.5244113627824276
-0.9146020253216294
-0.16188881388635676
-0.5244113627824276
-0.9146020253216294
-0.16188881388635676
-0.5244113627824276
-0.9146020253216294
-0.16188881388635676
-0.5244113627824276
-0.9139877370061378
-0.16155978390419895
-0.5246847908611243
-0.9139877370061378
-0.16155978390419895
-0.5246847908611243
-0.9139877370061378
-0.16155978390419895
-0.5246847908611243
-0.9139877370061378
-0.16155978390419895
-0.5246847908611243
-0.913239866463252
-0.16107739952297054
-0.5250064429532725
-0.913239866463252
-0.16107739952297054
-0.5250064429532725
-0.913239866463252
-0.16107739952297054
-0.5250064429532725
-0.913239866463252
-0.16107739952297054
-0.5250064429532725
-0.9124688575345388
-0.16093702915273694
-0.5252018029736691
-0.9124688575345388
-0.16093702915273694
-0.5252018029736691
-0.9124688575345388
-0.16093702915273694
-0.5252018029736691
-0.9124688575345388
-0.16093702915273694
-0.5252018029736691
-0.9124688575345388
-0.16093702915273694
-0.5252018029736691
-0.9124688575345388
-0.16093702915273694
-0.5252018029736691
-0.9124688575345388
-0.16093702915273694
-0.5252018029736691
-0.9124688575345388
-0.16093702915273694
-0.5252018029736691
-0.9132428286877505
-0.16125595310959023
-0.5250887371459358
-0.9132428286877505
-0.16125595310959023
-0.5250887371459358
-0.9132428286877505
-0.16125595310959023
-0.5250887371459358
-0.9132428286877505
-0.16125595310959023
-0.5250887371459358
-0.9132428286877505
-0.16125595310959023
-0.5250887371459358
-0.9132428286877505
-0.16125595310959023
-0.5250887371459358
-0.9132428286877505
-0.16125595310959023
-0.5250887371459358
-0.9132428286877505
-0.16125595310959023
-0.5250887371459358
-0.9132183556875922
-0.16136254750040396
-0.5250385661884822
-0.9132183556875922
-0.16136254750040396
-0.5250385661884822
-0.9132183556875922
-0.16136254750040396
-0.5250385661884822
-0.9132183556875922
-0.16136254750040396
-0.5250385661884822
-0.9134879665936991
-0.1613191906183004
-0.5253338750518843
-0.9134879665936991
-0.1613191906183004
-0.5253338750518843
-0.9134879665936991
-0.1613191906183004
-0.5253338750518843
-0.9134879665936991
-0.1613191906183004
-0.5253338750518843
-0.9136461335821927
-0.16136581532213895
-0.5253356016330419
-0.9136461335821927
-0.16136581532213895
-0.5253356016330419
-0.9136461335821927
-0.16136581532213895
-0.5253356016330419
-0.9136461335821927
-0.16136581532213895
-0.5253356016330419
-0.9133327380473786
-0.1614511295430268
-0.5254144435275923
-0.9133327380473786
-0.1614511295430268
-0.5254144435275923
-0.9133327380473786
-0.1614511295430268
-0.5254144435275923
-0.9133327380473786
-0.1614511295430268
-0.5254144435275923
-0.9125717065806238
-0.1617612346181439
-0.5253867030919868
-0.9125717065806238
-0.1617612346181439
-0.5253867030919868
-0.9125717065806238
-0.1617612346181439
-0.5253867030919868
-0.9125717065806238
-0.1617612346181439
-0.5253867030919868
-0.9124054119918542
-0.1623360553840826
-0.525510295401764
-0.9124054119918542
-0.1623360553840826
-0.525510295401764
-0.9124054119918542
-0.1623360553840826
-0.525510295401764
-0.9124054119918542
-0.1623360553840826
-0.525510295401764
-0.913320903686787
-0.1628156734832676
-0.5259049990132996
-0.913320903686787
-0.1628156734832676
-0.5259049990132996
-0.913320903686787
-0.1628156734832676
-0.5259049990132996
-0.913320903686787
-0.1628156734832676
-0.5259049990132996
-0.9139167544002829
-0.16331626787622358
-0.5259797609082395
-0.9139167544002829
-0.16331626787622358
-0.5259797609082395
-0.9139167544002829
-0.16331626787622358
-0.5259797609082395
-0.9139167544002829
-0.16331626787622358
-0.5259797609082395
-0.9139167544002829
-0.16331626787622358
-0.5259797609082395
-0.9139167544002829
-0.16331626787622358
-0.5259797609082395
-0.9139167544002829
-0.16331626787622358
-0.5259797609082395
-0.9139167544002829
-0.16331626787622358
-0.5259797609082395
-0.9140749428362978
-0.16336299346442146
-0.525981336232231
-0.9140749428362978
-0.16336299346442146
-0.525981336232231
-0.9140749428362978
-0.16336299346442146
-0.525981336232231
-0.9140749428362978
-0.16336299346442146
-0.525981336232231
-0.9132763663448763
-0.16315036998854748
-0.5260452132545361
-0.9132763663448763
-0.16315036998854748
-0.5260452132545361
-0.9132763663448763
-0.16315036998854748
-0.5260452132545361
-0.9132763663448763
-0.16315036998854748
-0.5260452132545361
-0.9123747821023456
-0.16274200845061748
-0.5266061575863964
-0.9123747821023456
-0.16274200845061748
-0.5266061575863964
-0.9123747821023456
-0.16274200845061748
-0.5266061575863964
-0.9123747821023456
-0.16274200845061748
-0.5266061575863964
-0.911742269757915
-0.1625827561983807
-0.5272281218829205
-0.911742269757915
-0.1625827561983807
-0.5272281218829205
-0.911742269757915
-0.1625827561983807
-0.5272281218829205
-0.911742269757915
-0.1625827561983807
-0.5272281218829205
-0.9125712452315056
-0.16275359704358197
-0.5276134537279683
-0.9125712452315056
-0.16275359704358197
-0.5276134537279683
-0.9125712452315056
-0.16275359704358197
-0.5276134537279683
-0.9125712452315056
-0.16275359704358197
-0.5276134537279683
-0.9131815589013876
-0.16269759082799073
-0.5279619964417313
-0.9131815589013876
-0.16269759082799073
-0.5279619964417313
-0.9131815589013876
-0.16269759082799073
-0.5279619964417313
-0.9131815589013876
-0.16269759082799073
-0.5279619964417313
-0.9118325490177293
-0.1625125798347863
-0.5284163834807891
-0.9118325490177293
-0.1625125798347863
-0.5284163834807891
-0.9118325490177293
-0.1625125798347863
-0.5284163834807891
-0.9118325490177293
-0.1625125798347863
-0.5284163834807891
-0.9107761917682428
-0.1622343496642448
-0.529057464864684
-0.9107761917682428
-0.1622343496642448
-0.529057464864684
-0.9107761917682428
-0.1622343496642448
-0.529057464864684
-0.9107761917682428
-0.1622343496642448
-0.529057464864684
-0.911515673501984
-0.16221070382347774
-0.5291172000495054
-0.911515673501984
-0.16221070382347774
-0.5291172000495054
-0.911515673501984
-0.16221070382347774
-0.5291172000495054
-0.911515673501984
-0.16221070382347774
-0.5291172000495054
-0.9130014612205469
-0.16243550662780792
-0.5289308747605926
-0.9130014612205469
-0.16243550662780792
-0.5289308747605926
-0.9130014612205469
-0.16243550662780792
-0.5289308747605926
-0.9130014612205469
-0.16243550662780792
-0.5289308747605926
-0.9131340899498064
-0.16235329011631608
-0.5289580822230746
-0.9131340899498064
-0.16235329011631608
-0.5289580822230746
-0.9131340899498064
-0.16235329011631608
-0.5289580822230746
-0.9131340899498064
-0.16235329011631608
-0.5289580822230746
-0.9121822317632978
-0.162213919355696
-0.5292602537670387
-0.9121822317632978
-0.162213919355696
-0.5292602537670387
-0.9121822317632978
-0.162213919355696
-0.5292602537670387
-0.9121822317632978
-0.162213919355696
-0.5292602537670387
-0.9108298507329463
-0.1621423638867185
-0.5293981840957755
-0.9108298507329463
-0.1621423638867185
-0.5293981840957755
-0.9108298507329463
-0.1621423638867185
-0.5293981840957755
-0.9108298507329463
-0.1621423638867185
-0.5293981840957755
-0.9106471360982956
-0.16220200975526344
-0.5293463605757065
-0.9106471360982956
-0.16220200975526344
-0.5293463605757065
-0.9106471360982956
-0.16220200975526344
-0.5293463605757065
-0.9106471360982956
-0.16220200975526344
-0.5293463605757065
-0.9120019739999048
-0.1624520867371648
-0.5292910337179095
-0.9120019739999048
-0.1624520867371648
-0.5292910337179095
-0.9120019739999048
-0.1624520867371648
-0.5292910337179095
-0.9120019739999048
-0.1624520867371648
-0.5292910337179095
-0.913066137946501
-0.16273732774314958
-0.5292064434663042
-0.913066137946501
-0.16273732774314958
-0.5292064434663042
-0.913066137946501
-0.16273732774314958
-0.5292064434663042
-0.913066137946501
-0.16273732774314958
-0.5292064434663042
-0.9138897980493272
-0.16308037356823935
-0.5291172978724727
-0.9138897980493272
-0.16308037356823935
-0.5291172978724727
-0.9138897980493272
-0.16308037356823935
-0.5291172978724727
-0.9138897980493272
-0.16308037356823935
-0.5291172978724727
-0.914672952451284
-0.16385105742102735
-0.5287795025120366
-0.914672952451284
-0.16385105742102735
-0.5287795025120366
-0.914672952451284
-0.16385105742102735
-0.5287795025120366
-0.914672952451284
-0.16385105742102735
-0.5287795025120366
-0.9138120151753792
-0.1643503274843147
-0.5286277741949097
-0.9138120151753792
-0.1643503274843147
-0.5286277741949097
-0.9138120151753792
-0.1643503274843147
-0.5286277741949097
-0.9138120151753792
-0.1643503274843147
-0.5286277741949097
-0.9132156650802473
-0.16471353709582007
-0.5291596747930107
-0.9132156650802473
-0.16471353709582007
-0.5291596747930107
-0.9132156650802473
-0.16471353709582007
-0.5291596747930107
-0.9132156650802473
-0.16471353709582007
-0.5291596747930107
-0.913753479731932
-0.16492063334683968
-0.5295154535808885
-0.913753479731932
-0.16492063334683968
-0.5295154535808885
-0.913753479731932
-0.16492063334683968
-0.5295154535808885
-0.913753479731932
-0.16492063334683968
-0.5295154535808885
-0.9142912339719245
-0.16512791667332402
-0.5298711288750357
-0.9142912339719245
-0.16512791667332402
-0.5298711288750357
-0.9142912339719245
-0.16512791667332402
-0.5298711288750357
-0.9142912339719245
-0.16512791667332402
-0.5298711288750357
-0.9141863480051168
-0.16498948492852053
-0.5302104633831554
-0.9141863480051168
-0.16498948492852053
-0.5302104633831554
-0.9141863480051168
-0.16498948492852053
-0.5302104633831554
-0.9141863480051168
-0.16498948492852053
-0.5302104633831554
-0.9127495395314229
-0.16455081196148913
-0.5304989998068733
-0.9127495395314229
-0.16455081196148913
-0.5304989998068733
-0.9127495395314229
-0.16455081196148913
-0.5304989998068733
-0.9127495395314229
-0.16455081196148913
-0.5304989998068733
-0.9128540092444539
-0.16418898851634084
-0.5310979892346813
-0.9128540092444539
-0.16418898851634084
-0.5310979892346813
-0.9128540092444539
-0.16418898851634084
-0.5310979892346813
-0.9128540092444539
-0.16418898851634084
-0.5310979892346813
-0.9137550159767257
-0.1640991646263199
-0.5314748569927044
-0.9137550159767257
-0.1640991646263199
-0.5314748569927044
-0.9137550159767257
-0.1640991646263199
-0.5314748569927044
-0.9137550159767257
-0.1640991646263199
-0.5314748569927044
-0.9137797659011767
-0.1639926560702134
-0.5315249595011815
-0.9137797659011767
-0.1639926560702134
-0.5315249595011815
-0.9137797659011767
-0.1639926560702134
-0.5315249595011815
-0.9137797659011767
-0.1639926560702134
-0.5315249595011815
-0.9145143539065593
-0.16492020524435053
-0.5312447491106014
-0.9145143539065593
-0.16492020524435053
-0.5312447491106014
-0.9145143539065593
-0.16492020524435053
-0.5312447491106014
-0.9145143539065593
-0.16492020524435053
-0.5312447491106014
-0.9163452531334281
-0.16551919249148864
-0.530486504527934
-0.9163452531334281
-0.16551919249148864
-0.530486504527934
-0.9163452531334281
-0.16551919249148864
-0.530486504527934
-0.9163452531334281
-0.16551919249148864
-0.530486504527934
-0.9163708658326111
-0.16564849608444093
-0.5304608918287511
-0.9163708658326111
-0.16564849608444093
-0.5304608918287511
-0.9163708658326111
-0.16564849608444093
-0.5304608918287511
-0.9163708658326111
-0.16564849608444093
-0.5304608918287511
-0.9155262077475257
-0.16553321428409706
-0.5307418154637225
-0.9155262077475257
-0.16553321428409706
-0.5307418154637225
-0.9155262077475257
-0.16553321428409706
-0.5307418154637225
-0.9155262077475257
-0.16553321428409706
-0.5307418154637225
-0.9155262077475257
-0.16553321428409706
-0.5307418154637225
-0.9155262077475257
-0.16553321428409706
-0.5307418154637225
-0.9155262077475257
-0.16553321428409706
-0.5307418154637225
-0.9155262077475257
-0.16553321428409706
-0.5307418154637225
-0.9155262077475257
-0.16553321428409706
-0.5307418154637225
-0.9155262077475257
-0.16553321428409706
-0.5307418154637225
-0.9155262077475257
-0.16553321428409706
-0.5307418154637225
-0.9155262077475257
-0.16553321428409706
-0.5307418154637225
-0.9159751205091899
-0.16554536667512604
-0.5307718560008781
-0.9159751205091899
-0.16554536667512604
-0.5307718560008781
-0.9159751205091899
-0.16554536667512604
-0.5307718560008781
-0.9159751205091899
-0.16554536667512604
-0.5307718560008781
-0.9159751205091899
-0.16554536667512604
-0.5307718560008781
-0.9159751205091899
-0.16554536667512604
-0.5307718560008781
-0.9159751205091899
-0.16554536667512604
-0.5307718560008781
-0.9159751205091899
-0.16554536667512604
-0.5307718560008781
-0.9162688691236471
-0.1653965510146267
-0.5311167339373463
-0.9162688691236471
-0.1653965510146267
-0.5311167339373463
-0.9162688691236471
-0.1653965510146267
-0.5311167339373463
-0.9162688691236471
-0.1653965510146267
-0.5311167339373463
-0.9162688691236471
-0.1653965510146267
-0.5311167339373463
-0.9162688691236471
-0.1653965510146267
-0.5311167339373463
-0.9162688691236471
-0.1653965510146267
-0.5311167339373463
-0.9162688691236471
-0.1653965510146267
-0.5311167339373463
-0.916160941318083
-0.1653722175682593
-0.5311398964780035
-0.916160941318083
-0.1653722175682593
-0.5311398964780035
-0.916160941318083
-0.1653722175682593
-0.5311398964780035
-0.916160941318083
-0.1653722175682593
-0.5311398964780035
-0.9161856156780531
-0.16526576071241533
-0.5311901222072006
-0.9161856156780531
-0.16526576071241533
-0.5311901222072006
-0.9161856156780531
-0.16526576071241533
-0.5311901222072006
-0.9161856156780531
-0.16526576071241533
-0.5311901222072006
-0.9163166960839448
-0.16524055093588794
-0.5310590418013091
-0.9163166960839448
-0.16524055093588794
-0.5310590418013091
-0.9163166960839448
-0.16524055093588794
-0.5310590418013091
-0.9163166960839448
-0.16524055093588794
-0.5310590418013091
-0.9163166960839448
-0.16524055093588794
-0.5310590418013091
-0.9163166960839448
-0.16524055093588794
-0.5310590418013091
-0.9163166960839448
-0.16524055093588794
-0.5310590418013091
-0.9163166960839448
-0.16524055093588794
-0.5310590418013091
-0.9163166960839448
-0.16524055093588794
-0.5310590418013091
-0.9163166960839448
-0.16524055093588794
-0.5310590418013091
-0.9163166960839448
-0.16524055093588794
-0.5310590418013091
-0.9163166960839448
-0.16524055093588794
-0.5310590418013091
-0.9171889286865016
-0.16513574073627338
-0.5311448724279145
-0.9171889286865016
-0.16513574073627338
-0.5311448724279145
-0.9171889286865016
-0.16513574073627338
-0.5311448724279145
-0.9171889286865016
-0.16513574073627338
-0.5311448724279145
-0.9171889286865016
-0.16513574073627338
-0.5311448724279145
-0.9171889286865016
-0.16513574073627338
-0.5311448724279145
-0.9171889286865016
-0.16513574073627338
-0.5311448724279145
-0.9171889286865016
-0.16513574073627338
-0.5311448724279145
-0.9171889286865016
-0.16513574073627338
-0.5311448724279145
-0.9171889286865016
-0.16513574073627338
-0.5311448724279145
-0.9171889286865016
-0.16513574073627338
-0.5311448724279145
-0.9171889286865016
-0.16513574073627338
-0.5311448724279145
-0.9171889286865016
-0.16513574073627338
-0.5311448724279145
-0.9171889286865016
-0.16513574073627338
-0.5311448724279145
-0.9171889286865016
-0.16513574073627338
-0.5311448724279145
-0.9171889286865016
-0.16513574073627338
-0.5311448724279145
-0.9167370090127487
-0.16523723196906848
-0.5307984021507969
-0.9167370090127487
-0.16523723196906848
-0.5307984021507969
-0.9167370090127487
-0.16523723196906848
-0.5307984021507969
-0.9167370090127487
-0.16523723196906848
-0.5307984021507969
-0.91713812679889
-0.16540544263526702
-0.5308861280121652
-0.91713812679889
-0.16540544263526702
-0.5308861280121652
-0.91713812679889
-0.16540544263526702
-0.5308861280121652
-0.91713812679889
-0.16540544263526702
-0.5308861280121652
-0.9182286128102732
-0.1655281151171271
-0.5310077572801848
-0.9182286128102732
-0.1655281151171271
-0.5310077572801848
-0.9182286128102732
-0.1655281151171271
-0.5310077572801848
-0.9182286128102732
-0.1655281151171271
-0.5310077572801848
-0.9182789502581308
-0.16555099189672548
-0.531032394357601
-0.9182789502581308
-0.16555099189672548
-0.531032394357601
-0.9182789502581308
-0.16555099189672548
-0.531032394357601
-0.9182789502581308
-0.16555099189672548
-0.531032394357601
-0.9172238567297767
-0.16571507657984855
-0.5308949404260559
-0.9172238567297767
-0.16571507657984855
-0.5308949404260559
-0.9172238567297767
-0.16571507657984855
-0.5308949404260559
-0.9172238567297767
-0.16571507657984855
-0.5308949404260559
-0.9165930755629657
-0.16599792968798488
-0.5307373697161816
-0.9165930755629657
-0.16599792968798488
-0.5307373697161816
-0.9165930755629657
-0.16599792968798488
-0.5307373697161816
-0.9165930755629657
-0.16599792968798488
-0.5307373697161816
-0.9171475030480554
-0.16585548917473164
-0.5306618311183604
-0.9171475030480554
-0.16585548917473164
-0.5306618311183604
-0.9171475030480554
-0.16585548917473164
-0.5306618311183604
-0.9171475030480554
-0.16585548917473164
-0.5306618311183604
-0.917853176080353
-0.16548911822865114
-0.5308944699405099
-0.917853176080353
-0.16548911822865114
-0.5308944699405099
-0.917853176080353
-0.16548911822865114
-0.5308944699405099
-0.917853176080353
-0.16548911822865114
-0.5308944699405099
-0.9194378956818986
-0.16528903511877105
-0.5309064954615328
-0.9194378956818986
-0.16528903511877105
-0.5309064954615328
-0.9194378956818986
-0.16528903511877105
-0.5309064954615328
-0.9194378956818986
-0.16528903511877105
-0.5309064954615328
-0.9194378956818986
-0.16528903511877105
-0.5309064954615328
-0.9194378956818986
-0.16528903511877105
-0.5309064954615328
-0.9194378956818986
-0.16528903511877105
-0.5309064954615328
-0.9194378956818986
-0.16528903511877105
-0.5309064954615328
-0.9182956134969971
-0.16520023023671812
-0.5306019563098211
-0.9182956134969971
-0.16520023023671812
-0.5306019563098211
-0.9182956134969971
-0.16520023023671812
-0.5306019563098211
-0.9182956134969971
-0.16520023023671812
-0.5306019563098211
-0.9174608585350682
-0.16446347946700315
-0.5307588058413745
-0.9174608585350682
-0.16446347946700315
-0.5307588058413745
-0.9174608585350682
-0.16446347946700315
-0.5307588058413745
-0.9174608585350682
-0.16446347946700315
-0.5307588058413745
-0.917099909182866
-0.1636323596691973
-0.5309957409767518
-0.917099909182866
-0.1636323596691973
-0.5309957409767518
-0.917099909182866
-0.1636323596691973
-0.5309957409767518
-0.917099909182866
-0.1636323596691973
-0.5309957409767518
-0.9181647106206612
-0.16284653853382275
-0.5310105356262078
-0.9181647106206612
-0.16284653853382275
-0.5310105356262078
-0.9181647106206612
-0.16284653853382275
-0.5310105356262078
-0.9181647106206612
-0.16284653853382275
-0.5310105356262078
-0.9182514696648024
-0.16229011243477517
-0.5304149339401731
-0.9182514696648024
-0.16229011243477517
-0.5304149339401731
-0.9182514696648024
-0.16229011243477517
-0.5304149339401731
-0.9182514696648024
-0.16229011243477517
-0.5304149339401731
-0.9156146711647281
-0.16173289946603633
-0.5298143693404125
-0.9156146711647281
-0.16173289946603633
-0.5298143693404125
-0.9156146711647281
-0.16173289946603633
-0.5298143693404125
-0.9156146711647281
-0.16173289946603633
-0.5298143693404125
-0.9124559547869185
-0.1607768458606127
-0.5306733763666388
-0.9124559547869185
-0.1607768458606127
-0.5306733763666388
-0.9124559547869185
-0.1607768458606127
-0.5306733763666388
-0.9124559547869185
-0.1607768458606127
-0.5306733763666388
-0.9106821667553667
-0.1573745242299501
-0.5324980200588197
-0.9106821667553667
-0.1573745242299501
-0.5324980200588197
-0.9106821667553667
-0.1573745242299501
-0.5324980200588197
-0.9106821667553667
-0.1573745242299501
-0.5324980200588197
-0.9078329554640703
-0.15257044619092955
-0.5327479368017244
-0.9078329554640703
-0.15257044619092955
-0.5327479368017244
-0.9078329554640703
-0.15257044619092955
-0.5327479368017244
-0.9078329554640703
-0.15257044619092955
-0.5327479368017244
-0.9038032584062936
-0.14783727649491152
-0.5319054696449801
-0.9038032584062936
-0.14783727649491152
-0.5319054696449801
-0.9038032584062936
-0.14783727649491152
-0.5319054696449801
-0.9038032584062936
-0.14783727649491152
-0.5319054696449801
-0.9034430756455596
-0.14352550306630754
-0.5304790518796515
-0.9034430756455596
-0.14352550306630754
-0.5304790518796515
-0.9034430756455596
-0.14352550306630754
-0.5304790518796515
-0.9034430756455596
-0.14352550306630754
-0.5304790518796515
-0.9046425037167433
-0.13816738159622327
-0.5293678645410461
-0.9046425037167433
-0.13816738159622327
-0.5293678645410461
-0.9046425037167433
-0.13816738159622327
-0.5293678645410461
-0.9046425037167433
-0.13816738159622327
-0.5293678645410461
-0.9022310643425475
-0.13247429933418076
-0.5300541124308924
-0.9022310643425475
-0.13247429933418076
-0.5300541124308924
-0.9022310643425475
-0.13247429933418076
-0.5300541124308924
-0.9022310643425475
-0.13247429933418076
-0.5300541124308924
-0.900632844858952
-0.1278454265749998
-0.5295756804460025
-0.900632844858952
-0.1278454265749998
-0.5295756804460025
-0.900632844858952
-0.1278454265749998
-0.5295756804460025
-0.900632844858952
-0.1278454265749998
-0.5295756804460025
-0.9032739060304203
-0.12564541917290675
-0.52524953504754
-0.9032739060304203
-0.12564541917290675
-0.52524953504754
-0.9032739060304203
-0.12564541917290675
-0.52524953504754
-0.9032739060304203
-0.12564541917290675
-0.52524953504754
-0.908456284732786
-0.12536237909028514
-0.5207803867359382
-0.908456284732786
-0.12536237909028514
-0.5207803867359382
-0.908456284732786
-0.12536237909028514
-0.5207803867359382
-0.908456284732786
-0.12536237909028514
-0.5207803867359382
-0.9154057938607321
-0.12638588194840894
-0.517643973620839
-0.9154057938607321
-0.12638588194840894
-0.517643973620839
-0.9154057938607321
-0.12638588194840894
-0.517643973620839
-0.9154057938607321
-0.12638588194840894
-0.517643973620839
-0.9151294844742758
-0.12623027706260206
-0.5155499480869621
-0.9151294844742758
-0.12623027706260206
-0.5155499480869621
-0.9151294844742758
-0.12623027706260206
-0.5155499480869621
-0.9151294844742758
-0.12623027706260206
-0.5155499480869621
-0.9128487289652536
-0.12621089252616646
-0.5115538169608912
-0.9128487289652536
-0.12621089252616646
-0.5115538169608912
-0.9128487289652536
-0.12621089252616646
-0.5115538169608912
-0.9128487289652536
-0.12621089252616646
-0.5115538169608912
-0.9141144607050831
-0.12701065859507538
-0.5071547686214831
-0.9141144607050831
-0.12701065859507538
-0.5071547686214831
-0.9141144607050831
-0.12701065859507538
-0.5071547686214831
-0.9141144607050831
-0.12701065859507538
-0.5071547686214831
-0.9171729665236991
-0.12794756170116217
-0.5050547228651959
-0.9171729665236991
-0.12794756170116217
-0.5050547228651959
-0.9171729665236991
-0.12794756170116217
-0.5050547228651959
-0.9171729665236991
-0.12794756170116217
-0.5050547228651959
-0.920600682115877
-0.12745697797885183
-0.5037980740259775
-0.920600682115877
-0.12745697797885183
-0.5037980740259775
-0.920600682115877
-0.12745697797885183
-0.5037980740259775
-0.920600682115877
-0.12745697797885183
-0.5037980740259775
-0.9194409055490567
-0.1263421376050366
-0.5017046749783338
-0.9194409055490567
-0.1263421376050366
-0.5017046749783338
-0.9194409055490567
-0.1263421376050366
-0.5017046749783338
-0.9194409055490567
-0.1263421376050366
-0.5017046749783338
-0.9194278991161491
-0.12592311856614938
-0.5000585559893943
-0.9194278991161491
-0.12592311856614938
-0.5000585559893943
-0.9194278991161491
-0.12592311856614938
-0.5000585559893943
-0.9194278991161491
-0.12592311856614938
-0.5000585559893943
-0.9200763487253758
-0.1252269109956938
-0.4988739879914107
-0.9200763487253758
-0.1252269109956938
-0.4988739879914107
-0.9200763487253758
-0.1252269109956938
-0.4988739879914107
-0.9200763487253758
-0.1252269109956938
-0.4988739879914107
-0.9229518596999368
-0.12419564992015796
-0.49772285791978577
-0.9229518596999368
-0.12419564992015796
-0.49772285791978577
-0.9229518596999368
-0.12419564992015796
-0.49772285791978577
-0.9229518596999368
-0.12419564992015796
-0.49772285791978577
-0.9262704710591455
-0.1229321087395008
-0.4966929158034461
-0.9262704710591455
-0.1229321087395008
-0.4966929158034461
-0.9262704710591455
-0.1229321087395008
-0.4966929158034461
-0.9262704710591455
-0.1229321087395008
-0.4966929158034461
-0.9250282629477248
-0.1219316324303897
-0.49623732771653967
-0.9250282629477248
-0.1219316324303897
-0.49623732771653967
-0.9250282629477248
-0.1219316324303897
-0.49623732771653967
-0.9250282629477248
-0.1219316324303897
-0.49623732771653967
-0.9222417557775326
-0.12155661766576047
-0.4953984144513974
-0.9222417557775326
-0.12155661766576047
-0.4953984144513974
-0.9222417557775326
-0.12155661766576047
-0.4953984144513974
-0.9222417557775326
-0.12155661766576047
-0.4953984144513974
-0.9220394505258388
-0.12167085439823419
-0.4954506501480346
-0.9220394505258388
-0.12167085439823419
-0.4954506501480346
-0.9220394505258388
-0.12167085439823419
-0.4954506501480346
-0.9220394505258388
-0.12167085439823419
-0.4954506501480346
-0.9248785730641474
-0.12091309279154462
-0.49460030607309197
-0.9248785730641474
-0.12091309279154462
-0.49460030607309197
-0.9248785730641474
-0.12091309279154462
-0.49460030607309197
-0.9248785730641474
-0.12091309279154462
-0.49460030607309197
-0.9275227708815369
-0.12044490942613394
-0.49388324594099053
-0.9275227708815369
-0.12044490942613394
-0.49388324594099053
-0.9275227708815369
-0.12044490942613394
-0.49388324594099053
-0.9275227708815369
-0.12044490942613394
-0.49388324594099053
-0.9283539102890264
-0.12104267290754861
-0.49350124357999
-0.9283539102890264
-0.12104267290754861
-0.49350124357999
-0.9283539102890264
-0.12104267290754861
-0.49350124357999
-0.9283539102890264
-0.12104267290754861
-0.49350124357999
-0.9262413170949015
-0.12090435976110017
-0.4935627886083515
-0.9262413170949015
-0.12090435976110017
-0.4935627886083515
-0.9262413170949015
-0.12090435976110017
-0.4935627886083515
-0.9262413170949015
-0.12090435976110017
-0.4935627886083515
-0.9259632894830282
-0.12071578508470494
-0.49334063873759243
-0.9259632894830282
-0.12071578508470494
-0.49334063873759243
-0.9259632894830282
-0.12071578508470494
-0.49334063873759243
-0.9259632894830282
-0.12071578508470494
-0.49334063873759243
-0.9302789889078503
-0.12062118283058354
-0.49326579310759033
-0.9302789889078503
-0.12062118283058354
-0.49326579310759033
-0.9302789889078503
-0.12062118283058354
-0.49326579310759033
-0.9302789889078503
-0.12062118283058354
-0.49326579310759033
-0.9324769203484676
-0.12156671566021574
-0.4930909343979048
-0.9324769203484676
-0.12156671566021574
-0.4930909343979048
-0.9324769203484676
-0.12156671566021574
-0.4930909343979048
-0.9324769203484676
-0.12156671566021574
-0.4930909343979048
-0.9323493179194734
-0.12265373391185025
-0.4925521851120528
-0.9323493179194734
-0.12265373391185025
-0.4925521851120528
-0.9323493179194734
-0.12265373391185025
-0.4925521851120528
-0.9323493179194734
-0.12265373391185025
-0.4925521851120528
-0.9328284224277611
-0.12349944198117493
-0.4922948998226004
-0.9328284224277611
-0.12349944198117493
-0.4922948998226004
-0.9328284224277611
-0.12349944198117493
-0.4922948998226004
-0.9328284224277611
-0.12349944198117493
-0.4922948998226004
-0.9329928241267827
-0.12416565095769787
-0.4924155992046576
-0.9329928241267827
-0.12416565095769787
-0.4924155992046576
-0.9329928241267827
-0.12416565095769787
-0.4924155992046576
-0.9329928241267827
-0.12416565095769787
-0.4924155992046576
-0.932833739160872
-0.12412251739196713
-0.49241226780900355
-0.932833739160872
-0.12412251739196713
-0.49241226780900355
-0.932833739160872
-0.12412251739196713
-0.49241226780900355
-0.932833739160872
-0.12412251739196713
-0.49241226780900355
-0.9332778474755735
-0.1245610526494344
-0.4916670625994669
-0.9332778474755735
-0.1245610526494344
-0.4916670625994669
-0.9332778474755735
-0.1245610526494344
-0.4916670625994669
-0.9332778474755735
-0.1245610526494344
-0.4916670625994669
-0.9334764916531094
-0.1256243756546746
-0.4914524799873743
-0.9334764916531094
-0.1256243756546746
-0.4914524799873743
-0.9334764916531094
-0.1256243756546746
-0.4914524799873743
-0.9334764916531094
-0.1256243756546746
-0.4914524799873743
-0.9328250013019486
-0.12608843880658455
-0.4918901948867095
-0.9328250013019486
-0.12608843880658455
-0.4918901948867095
-0.9328250013019486
-0.12608843880658455
-0.4918901948867095
-0.9328250013019486
-0.12608843880658455
-0.4918901948867095
-0.9320672745397112
-0.12579605314678383
-0.49254896073858734
-0.9320672745397112
-0.12579605314678383
-0.49254896073858734
-0.9320672745397112
-0.12579605314678383
-0.49254896073858734
-0.9320672745397112
-0.12579605314678383
-0.49254896073858734
-0.9317354666480349
-0.12526089528303772
-0.4927698904642099
-0.9317354666480349
-0.12526089528303772
-0.4927698904642099
-0.9317354666480349
-0.12526089528303772
-0.4927698904642099
-0.9317354666480349
-0.12526089528303772
-0.4927698904642099
-0.9313517279786236
-0.12466738494742341
-0.4931931725296196
-0.9313517279786236
-0.12466738494742341
-0.4931931725296196
-0.9313517279786236
-0.12466738494742341
-0.4931931725296196
-0.9313517279786236
-0.12466738494742341
-0.4931931725296196
-0.9298515917977436
-0.12378763358947394
-0.49365920769566773
-0.9298515917977436
-0.12378763358947394
-0.49365920769566773
-0.9298515917977436
-0.12378763358947394
-0.49365920769566773
-0.9298515917977436
-0.12378763358947394
-0.49365920769566773
-0.9295879090231548
-0.12160163506135252
-0.49500435007970334
-0.9295879090231548
-0.12160163506135252
-0.49500435007970334
-0.9295879090231548
-0.12160163506135252
-0.49500435007970334
-0.9295879090231548
-0.12160163506135252
-0.49500435007970334
-0.9302003274992146
-0.1203350324233444
-0.4976614667328514
-0.9302003274992146
-0.1203350324233444
-0.4976614667328514
-0.9302003274992146
-0.1203350324233444
-0.4976614667328514
-0.9302003274992146
-0.1203350324233444
-0.4976614667328514
-0.9294122270032033
-0.1173361835306896
-0.4990775616663337
-0.9294122270032033
-0.1173361835306896
-0.4990775616663337
-0.9294122270032033
-0.1173361835306896
-0.4990775616663337
-0.9294122270032033
-0.1173361835306896
-0.4990775616663337
-0.9271857878841453
-0.11660065508543463
-0.498876830410231
-0.9271857878841453
-0.11660065508543463
-0.498876830410231
-0.9271857878841453
-0.11660065508543463
-0.498876830410231
-0.9271857878841453
-0.11660065508543463
-0.498876830410231
-0.927276038617608
-0.11723554135584642
-0.49842061314596847
-0.927276038617608
-0.11723554135584642
-0.49842061314596847
-0.927276038617608
-0.11723554135584642
-0.49842061314596847
-0.927276038617608
-0.11723554135584642
-0.49842061314596847
-0.9277005680755178
-0.11773652867145368
-0.4986075822301134
-0.9277005680755178
-0.11773652867145368
-0.4986075822301134
-0.9277005680755178
-0.11773652867145368
-0.4986075822301134
-0.9277005680755178
-0.11773652867145368
-0.4986075822301134
-0.9278195608068424
-0.11823328380242051
-0.49925088375886245
-0.9278195608068424
-0.11823328380242051
-0.49925088375886245
-0.9278195608068424
-0.11823328380242051
-0.49925088375886245
-0.9278195608068424
-0.11823328380242051
-0.49925088375886245
-0.9292993969070746
-0.11911384588000638
-0.4990564250060325
-0.9292993969070746
-0.11911384588000638
-0.4990564250060325
-0.9292993969070746
-0.11911384588000638
-0.4990564250060325
-0.9292993969070746
-0.11911384588000638
-0.4990564250060325
-0.9290722359508292
-0.12001232853500518
-0.4990161736990183
-0.9290722359508292
-0.12001232853500518
-0.4990161736990183
-0.9290722359508292
-0.12001232853500518
-0.4990161736990183
-0.9290722359508292
-0.12001232853500518
-0.4990161736990183
-0.9276181448093204
-0.12038922691887058
-0.500005427481902
-0.9276181448093204
-0.12038922691887058
-0.500005427481902
-0.9276181448093204
-0.12038922691887058
-0.500005427481902
-0.9276181448093204
-0.12038922691887058
-0.500005427481902
-0.925578984721597
-0.11933181185337505
-0.5018117792233604
-0.925578984721597
-0.11933181185337505
-0.5018117792233604
-0.925578984721597
-0.11933181185337505
-0.5018117792233604
-0.925578984721597
-0.11933181185337505
-0.5018117792233604
-0.9270086203637131
-0.1179746647963966
-0.5035693785870853
-0.9270086203637131
-0.1179746647963966
-0.5035693785870853
-0.9270086203637131
-0.1179746647963966
-0.5035693785870853
-0.9270086203637131
-0.1179746647963966
-0.5035693785870853
-0.9278881717566992
-0.11735865944360194
-0.5037960526620646
-0.9278881717566992
-0.11735865944360194
-0.5037960526620646
-0.9278881717566992
-0.11735865944360194
-0.5037960526620646
-0.9278881717566992
-0.11735865944360194
-0.5037960526620646
-0.926778720829349
-0.11792250266218651
-0.5038750068352952
-0.926778720829349
-0.11792250266218651
-0.5038750068352952
-0.926778720829349
-0.11792250266218651
-0.5038750068352952
-0.926778720829349
-0.11792250266218651
-0.5038750068352952
-0.9250390831698685
-0.11821555389606839
-0.5043230647701119
-0.9250390831698685
-0.11821555389606839
-0.5043230647701119
-0.9250390831698685
-0.11821555389606839
-0.5043230647701119
-0.9250390831698685
-0.11821555389606839
-0.5043230647701119
-0.9246991570614775
-0.11790625282833447
-0.5047271281075681
-0.9246991570614775
-0.11790625282833447
-0.5047271281075681
-0.9246991570614775
-0.11790625282833447
-0.5047271281075681
-0.9246991570614775
-0.11790625282833447
-0.5047271281075681
-0.926213251558444
-0.11750603399072443
-0.5047434569799648
-0.926213251558444
-0.11750603399072443
-0.5047434569799648
-0.926213251558444
-0.11750603399072443
-0.5047434569799648
-0.926213251558444
-0.11750603399072443
-0.5047434569799648
-0.9270302805432887
-0.11765900752932171
-0.5045895087089523
-0.9270302805432887
-0.11765900752932171
-0.5045895087089523
-0.9270302805432887
-0.11765900752932171
-0.5045895087089523
-0.9270302805432887
-0.11765900752932171
-0.5045895087089523
-0.9267162589448894
-0.11786648855434972
-0.5051649164932741
-0.9267162589448894
-0.11786648855434972
-0.5051649164932741
-0.9267162589448894
-0.11786648855434972
-0.5051649164932741
-0.9267162589448894
-0.11786648855434972
-0.5051649164932741
-0.9258810689339708
-0.11743669943748992
-0.5058902992700094
-0.9258810689339708
-0.11743669943748992
-0.5058902992700094
-0.9258810689339708
-0.11743669943748992
-0.5058902992700094
-0.9258810689339708
-0.11743669943748992
-0.5058902992700094
-0.9261954282339949
-0.11729218721867984
-0.5059776312297412
-0.9261954282339949
-0.11729218721867984
-0.5059776312297412
-0.9261954282339949
-0.11729218721867984
-0.5059776312297412
-0.9261954282339949
-0.11729218721867984
-0.5059776312297412
-0.9268537545594328
-0.11740164910716096
-0.5058194282806798
-0.9268537545594328
-0.11740164910716096
-0.5058194282806798
-0.9268537545594328
-0.11740164910716096
-0.5058194282806798
-0.9268537545594328
-0.11740164910716096
-0.5058194282806798
-0.9262809217991145
-0.11765527496402958
-0.5058276402847524
-0.9262809217991145
-0.11765527496402958
-0.5058276402847524
-0.9262809217991145
-0.11765527496402958
-0.5058276402847524
-0.9262809217991145
-0.11765527496402958
-0.5058276402847524
-0.9262809217991145
-0.11765527496402958
-0.5058276402847524
-0.9262809217991145
-0.11765527496402958
-0.5058276402847524
-0.9262809217991145
-0.11765527496402958
-0.5058276402847524
-0.9262809217991145
-0.11765527496402958
-0.5058276402847524
-0.9262294636791985
-0.11763543657533969
-0.5058032962526691
-0.9262294636791985
-0.11763543657533969
-0.5058032962526691
-0.9262294636791985
-0.11763543657533969
-0.5058032962526691
-0.9262294636791985
-0.11763543657533969
-0.5058032962526691
-0.9267382281194023
-0.11755069938769136
-0.5061849921961858
-0.9267382281194023
-0.11755069938769136
-0.5061849921961858
-0.9267382281194023
-0.11755069938769136
-0.5061849921961858
-0.9267382281194023
-0.11755069938769136
-0.5061849921961858
-0.9267593673336648
-0.11812236384383486
-0.5061975950032924
-0.9267593673336648
-0.11812236384383486
-0.5061975950032924
-0.9267593673336648
-0.11812236384383486
-0.5061975950032924
-0.9267593673336648
-0.11812236384383486
-0.5061975950032924
-0.9276207846328121
-0.11818147345543191
-0.5066505470918219
-0.9276207846328121
-0.11818147345543191
-0.5066505470918219
-0.9276207846328121
-0.11818147345543191
-0.5066505470918219
-0.9276207846328121
-0.11818147345543191
-0.5066505470918219
-0.9275676960886952
-0.11851231660160606
-0.5070516530601265
-0.9275676960886952
-0.11851231660160606
-0.5070516530601265
-0.9275676960886952
-0.11851231660160606
-0.5070516530601265
-0.9275676960886952
-0.11851231660160606
-0.5070516530601265
-0.9268892290517997
-0.11845363348860777
-0.5073173674573814
-0.9268892290517997
-0.11845363348860777
-0.5073173674573814
-0.9268892290517997
-0.11845363348860777
-0.5073173674573814
-0.9268892290517997
-0.11845363348860777
-0.5073173674573814
-0.9265095301636872
-0.11818367371733107
-0.5072731157540236
-0.9265095301636872
-0.11818367371733107
-0.5072731157540236
-0.9265095301636872
-0.11818367371733107
-0.5072731157540236
-0.9265095301636872
-0.11818367371733107
-0.5072731157540236
-0.9278749830602031
-0.11812750915238858
-0.506396348664431
-0.9278749830602031
-0.11812750915238858
-0.506396348664431
-0.9278749830602031
-0.11812750915238858
-0.506396348664431
-0.9278749830602031
-0.11812750915238858
-0.506396348664431
-0.9282689945323651
-0.11872831712340959
-0.5057100272721105
-0.9282689945323651
-0.11872831712340959
-0.5057100272721105
-0.9282689945323651
-0.11872831712340959
-0.5057100272721105
-0.9282689945323651
-0.11872831712340959
-0.5057100272721105
-0.9275504757093392
-0.11870945687444162
-0.5055272569193706
-0.9275504757093392
-0.11870945687444162
-0.5055272569193706
-0.9275504757093392
-0.11870945687444162
-0.5055272569193706
-0.9275504757093392
-0.11870945687444162
-0.5055272569193706
-0.9268805377534072
-0.1184780273311232
-0.505447443933
-0.9268805377534072
-0.1184780273311232
-0.505447443933
-0.9268805377534072
-0.1184780273311232
-0.505447443933
-0.9268805377534072
-0.1184780273311232
-0.505447443933
-0.9271320470958407
-0.11815186171094322
-0.5054991256774565
-0.9271320470958407
-0.11815186171094322
-0.5054991256774565
-0.9271320470958407
-0.11815186171094322
-0.5054991256774565
-0.9271320470958407
-0.11815186171094322
-0.5054991256774565
-0.9279022641351072
-0.11728005937517196
-0.5058244752974657
-0.9279022641351072
-0.11728005937517196
-0.5058244752974657
-0.9279022641351072
-0.11728005937517196
-0.5058244752974657
-0.9279022641351072
-0.11728005937517196
-0.5058244752974657
-0.927683981548637
-0.11637640498039678
-0.5058237820477329
-0.927683981548637
-0.11637640498039678
-0.5058237820477329
-0.927683981548637
-0.11637640498039678
-0.5058237820477329
-0.927683981548637
-0.11637640498039678
-0.5058237820477329
-0.927683981548637
-0.11637640498039678
-0.5058237820477329
-0.927683981548637
-0.11637640498039678
-0.5058237820477329
-0.927683981548637
-0.11637640498039678
-0.5058237820477329
-0.927683981548637
-0.11637640498039678
-0.5058237820477329
-0.9279451869797948
-0.11649968497825823
-0.5056496888426203
-0.9279451869797948
-0.11649968497825823
-0.5056496888426203
-0.9279451869797948
-0.11649968497825823
-0.5056496888426203
-0.9279451869797948
-0.11649968497825823
-0.5056496888426203
-0.9284964102733315
-0.11658475251071032
-0.5055115977459796
-0.9284964102733315
-0.11658475251071032
-0.5055115977459796
-0.9284964102733315
-0.11658475251071032
-0.5055115977459796
-0.9284964102733315
-0.11658475251071032
-0.5055115977459796
-0.9279631467123727
-0.11677567860337176
-0.5050780485919142
-0.9279631467123727
-0.11677567860337176
-0.5050780485919142
-0.9279631467123727
-0.11677567860337176
-0.5050780485919142
-0.9279631467123727
-0.11677567860337176
-0.5050780485919142
-0.9275803287088339
-0.11718410295777915
-0.5049944661045545
-0.9275803287088339
-0.11718410295777915
-0.5049944661045545
-0.9275803287088339
-0.11718410295777915
-0.5049944661045545
-0.9275803287088339
-0.11718410295777915
-0.5049944661045545
-0.9274303391887843
-0.11787729739823016
-0.5045266251947306
-0.9274303391887843
-0.11787729739823016
-0.5045266251947306
-0.9274303391887843
-0.11787729739823016
-0.5045266251947306
-0.9274303391887843
-0.11787729739823016
-0.5045266251947306
-0.9275148318716004
-0.11863055713272347
-0.5045745141117903
-0.9275148318716004
-0.11863055713272347
-0.5045745141117903
-0.9275148318716004
-0.11863055713272347
-0.5045745141117903
-0.9275148318716004
-0.11863055713272347
-0.5045745141117903
-0.9274705721977966
-0.11878806594013583
-0.5046300854672097
-0.9274705721977966
-0.11878806594013583
-0.5046300854672097
-0.9274705721977966
-0.11878806594013583
-0.5046300854672097
-0.9274705721977966
-0.11878806594013583
-0.5046300854672097
-0.9274705721977966
-0.11878806594013583
-0.5046300854672097
-0.9274705721977966
-0.11878806594013583
-0.5046300854672097
-0.9274705721977966
-0.11878806594013583
-0.5046300854672097
-0.9274705721977966
-0.11878806594013583
-0.5046300854672097
-0.9274705721977966
-0.11878806594013583
-0.5046300854672097
-0.9274705721977966
-0.11878806594013583
-0.5046300854672097
-0.9274705721977966
-0.11878806594013583
-0.5046300854672097
-0.9274705721977966
-0.11878806594013583
-0.5046300854672097
-0.9274705721977966
-0.11878806594013583
-0.5046300854672097
-0.9274705721977966
-0.11878806594013583
-0.5046300854672097
-0.9274705721977966
-0.11878806594013583
-0.5046300854672097
-0.9274705721977966
-0.11878806594013583
-0.5046300854672097
-0.9269833880521057
-0.11849451822828025
-0.5046060525859125
-0.9269833880521057
-0.11849451822828025
-0.5046060525859125
-0.9269833880521057
-0.11849451822828025
-0.5046060525859125
-0.9269833880521057
-0.11849451822828025
-0.5046060525859125
-0.9267947565568081
-0.11805218571175087
-0.5049348607970764
-0.9267947565568081
-0.11805218571175087
-0.5049348607970764
-0.9267947565568081
-0.11805218571175087
-0.5049348607970764
-0.9267947565568081
-0.11805218571175087
-0.5049348607970764
-0.9261551383672134
-0.11733177462652739
-0.5055290860515502
-0.9261551383672134
-0.11733177462652739
-0.5055290860515502
-0.9261551383672134
-0.11733177462652739
-0.5055290860515502
-0.9261551383672134
-0.11733177462652739
-0.5055290860515502
-0.9253241628301053
-0.11678395972327262
-0.5057498701194657
-0.9253241628301053
-0.11678395972327262
-0.5057498701194657
-0.9253241628301053
-0.11678395972327262
-0.5057498701194657
-0.9253241628301053
-0.11678395972327262
-0.5057498701194657
-0.9251868412849004
-0.11731160542311045
-0.5057584558781282
-0.9251868412849004
-0.11731160542311045
-0.5057584558781282
-0.9251868412849004
-0.11731160542311045
-0.5057584558781282
-0.9251868412849004
-0.11731160542311045
-0.5057584558781282
-0.925466600403899
-0.11777416413443961
-0.5056758271206988
-0.925466600403899
-0.11777416413443961
-0.5056758271206988
-0.925466600403899
-0.11777416413443961
-0.5056758271206988
-0.925466600403899
-0.11777416413443961
-0.5056758271206988
-0.9248093763168171
-0.11828729520496353
-0.5059543606788468
-0.9248093763168171
-0.11828729520496353
-0.5059543606788468
-0.9248093763168171
-0.11828729520496353
-0.5059543606788468
-0.9248093763168171
-0.11828729520496353
-0.5059543606788468
-0.9247589863623422
-0.1188502616775236
-0.5062775497750707
-0.9247589863623422
-0.1188502616775236
-0.5062775497750707
-0.9247589863623422
-0.1188502616775236
-0.5062775497750707
-0.9247589863623422
-0.1188502616775236
-0.5062775497750707
-0.9247076251409573
-0.1188303675633456
-0.5062531955693841
-0.9247076251409573
-0.1188303675633456
-0.5062531955693841
-0.9247076251409573
-0.1188303675633456
-0.5062531955693841
-0.9247076251409573
-0.1188303675633456
-0.5062531955693841
-0.9247076251409573
-0.1188303675633456
-0.5062531955693841
-0.9247076251409573
-0.1188303675633456
-0.5062531955693841
-0.9247076251409573
-0.1188303675633456
-0.5062531955693841
-0.9247076251409573
-0.1188303675633456
-0.5062531955693841
-0.9245761193584391
-0.11891258381744459
-0.5062218749111743
-0.9245761193584391
-0.11891258381744459
-0.5062218749111743
-0.9245761193584391
-0.11891258381744459
-0.5062218749111743
-0.9245761193584391
-0.11891258381744459
-0.5062218749111743
-0.9251604665592803
-0.11878095189648491
-0.5064516784600904
-0.9251604665592803
-0.11878095189648491
-0.5064516784600904
-0.9251604665592803
-0.11878095189648491
-0.5064516784600904
-0.9251604665592803
-0.11878095189648491
-0.5064516784600904
-0.9251805056845528
-0.11872993061544243
-0.5063445434756881
-0.9251805056845528
-0.11872993061544243
-0.5063445434756881
-0.9251805056845528
-0.11872993061544243
-0.5063445434756881
-0.9251805056845528
-0.11872993061544243
-0.5063445434756881
-0.9251805056845528
-0.11872993061544243
-0.5063445434756881
-0.9251805056845528
-0.11872993061544243
-0.5063445434756881
-0.9251805056845528
-0.11872993061544243
-0.5063445434756881
-0.9251805056845528
-0.11872993061544243
-0.5063445434756881
-0.925136108329786
-0.11888733221744655
-0.5064002977691466
-0.925136108329786
-0.11888733221744655
-0.5064002977691466
-0.925136108329786
-0.11888733221744655
-0.5064002977691466
-0.925136108329786
-0.11888733221744655
-0.5064002977691466
-0.9242607369974402
-0.11849646243227518
-0.5066772737764116
-0.9242607369974402
-0.11849646243227518
-0.5066772737764116
-0.9242607369974402
-0.11849646243227518
-0.5066772737764116
-0.9242607369974402
-0.11849646243227518
-0.5066772737764116
-0.9248312559378731
-0.11797056171239972
-0.5069741371572951
-0.9248312559378731
-0.11797056171239972
-0.5069741371572951
-0.9248312559378731
-0.11797056171239972
-0.5069741371572951
-0.9248312559378731
-0.11797056171239972
-0.5069741371572951
-0.924855670620373
-0.11786418272958497
-0.5070255048177902
-0.924855670620373
-0.11786418272958497
-0.5070255048177902
-0.924855670620373
-0.11786418272958497
-0.5070255048177902
-0.924855670620373
-0.11786418272958497
-0.5070255048177902
-0.9247485469461781
-0.1178399332235865
-0.5070455063662606
-0.9247485469461781
-0.1178399332235865
-0.5070455063662606
-0.9247485469461781
-0.1178399332235865
-0.5070455063662606
-0.9247485469461781
-0.1178399332235865
-0.5070455063662606
-0.9247241288666137
-0.11794631749126384
-0.5069941430264752
-0.9247241288666137
-0.11794631749126384
-0.5069941430264752
-0.9247241288666137
-0.11794631749126384
-0.5069941430264752
-0.9247241288666137
-0.11794631749126384
-0.5069941430264752
-0.9247241288666137
-0.11794631749126384
-0.5069941430264752
-0.9247241288666137
-0.11794631749126384
-0.5069941430264752
-0.9247241288666137
-0.11794631749126384
-0.5069941430264752
-0.9247241288666137
-0.11794631749126384
-0.5069941430264752
-0.9246702832220632
-0.11765391364761199
-0.5072753527380487
-0.9246702832220632
-0.11765391364761199
-0.5072753527380487
-0.9246702832220632
-0.11765391364761199
-0.5072753527380487
-0.9246702832220632
-0.11765391364761199
-0.5072753527380487
-0.9243574652735043
-0.11744825466851128
-0.5067621714883962
-0.9243574652735043
-0.11744825466851128
-0.5067621714883962
-0.9243574652735043
-0.11744825466851128
-0.5067621714883962
-0.9243574652735043
-0.11744825466851128
-0.5067621714883962
-0.925182801392531
-0.11742923004150231
-0.5062626973850484
-0.925182801392531
-0.11742923004150231
-0.5062626973850484
-0.925182801392531
-0.11742923004150231
-0.5062626973850484
-0.925182801392531
-0.11742923004150231
-0.5062626973850484
-0.9248344479567203
-0.11723036092474395
-0.5063495655744018
-0.9248344479567203
-0.11723036092474395
-0.5063495655744018
-0.9248344479567203
-0.11723036092474395
-0.5063495655744018
-0.9248344479567203
-0.11723036092474395
-0.5063495655744018
-0.9236095311677744
-0.117030431255159
-0.506911250464502
-0.9236095311677744
-0.117030431255159
-0.506911250464502
-0.9236095311677744
-0.117030431255159
-0.506911250464502
-0.9236095311677744
-0.117030431255159
-0.506911250464502
-0.9238462062113678
-0.11726061919268808
-0.5066860226138663
-0.9238462062113678
-0.11726061919268808
-0.5066860226138663
-0.9238462062113678
-0.11726061919268808
-0.5066860226138663
-0.9238462062113678
-0.11726061919268808
-0.5066860226138663
-0.9254938616043762
-0.11796275462823287
-0.5063115314907923
-0.9254938616043762
-0.11796275462823287
-0.5063115314907923
-0.9254938616043762
-0.11796275462823287
-0.5063115314907923
-0.9254938616043762
-0.11796275462823287
-0.5063115314907923
-0.925538224671141
-0.11780532926119167
-0.5062558286412976
-0.925538224671141
-0.11780532926119167
-0.5062558286412976
-0.925538224671141
-0.11780532926119167
-0.5062558286412976
-0.925538224671141
-0.11780532926119167
-0.5062558286412976
-0.9243032028450057
-0.11709380668277068
-0.5063805353823541
-0.9243032028450057
-0.11709380668277068
-0.5063805353823541
-0.9243032028450057
-0.11709380668277068
-0.5063805353823541
-0.9243032028450057
-0.11709380668277068
-0.5063805353823541
-0.9229437447654234
-0.11668164520096416
-0.5063260481317331
-0.9229437447654234
-0.11668164520096416
-0.5063260481317331
-0.9229437447654234
-0.11668164520096416
-0.5063260481317331
-0.9229437447654234
-0.11668164520096416
-0.5063260481317331
-0.9232048321679313
-0.1168054035906148
-0.5061522206982727
-0.9232048321679313
-0.1168054035906148
-0.5061522206982727
-0.9232048321679313
-0.1168054035906148
-0.5061522206982727
-0.9232048321679313
-0.1168054035906148
-0.5061522206982727
-0.9242429243091009
-0.11718481024984194
-0.506039159666893
-0.9242429243091009
-0.11718481024984194
-0.506039159666893
-0.9242429243091009
-0.11718481024984194
-0.506039159666893
-0.9242429243091009
-0.11718481024984194
-0.506039159666893
-0.923654391245354
-0.11743386736269094
-0.5063132964483018
-0.923654391245354
-0.11743386736269094
-0.5063132964483018
-0.923654391245354
-0.11743386736269094
-0.5063132964483018
-0.923654391245354
-0.11743386736269094
-0.5063132964483018
-0.9223602006646057
-0.11743603349857194
-0.5062168536362288
-0.9223602006646057
-0.11743603349857194
-0.5062168536362288
-0.9223602006646057
-0.11743603349857194
-0.5062168536362288
-0.9223602006646057
-0.11743603349857194
-0.5062168536362288
-0.9223602006646057
-0.11743603349857194
-0.5062168536362288
-0.9223602006646057
-0.11743603349857194
-0.5062168536362288
-0.9223602006646057
-0.11743603349857194
-0.5062168536362288
-0.9223602006646057
-0.11743603349857194
-0.5062168536362288
-0.9239041403107237
-0.11743581350302776
-0.5059006190120307
-0.9239041403107237
-0.11743581350302776
-0.5059006190120307
-0.9239041403107237
-0.11743581350302776
-0.5059006190120307
-0.9239041403107237
-0.11743581350302776
-0.5059006190120307
-0.9238797653582963
-0.11754223127602165
-0.5058492859298089
-0.9238797653582963
-0.11754223127602165
-0.5058492859298089
-0.9238797653582963
-0.11754223127602165
-0.5058492859298089
-0.9238797653582963
-0.11754223127602165
-0.5058492859298089
-0.9220876686763209
-0.1171906404645261
-0.5061519174757898
-0.9220876686763209
-0.1171906404645261
-0.5061519174757898
-0.9220876686763209
-0.1171906404645261
-0.5061519174757898
-0.9220876686763209
-0.1171906404645261
-0.5061519174757898
-0.9213889880982
-0.11712133502642012
-0.5058613430062087
-0.9213889880982
-0.11712133502642012
-0.5058613430062087
-0.9213889880982
-0.11712133502642012
-0.5058613430062087
-0.9213889880982
-0.11712133502642012
-0.5058613430062087
-0.9221853707195928
-0.11726470872927992
-0.5051522797370138
-0.9221853707195928
-0.11726470872927992
-0.5051522797370138
-0.9221853707195928
-0.11726470872927992
-0.5051522797370138
-0.9221853707195928
-0.11726470872927992
-0.5051522797370138
-0.9227637406070696
-0.11751643432177694
-0.5047602193083764
-0.9227637406070696
-0.11751643432177694
-0.5047602193083764
-0.9227637406070696
-0.11751643432177694
-0.5047602193083764
-0.9227637406070696
-0.11751643432177694
-0.5047602193083764
-0.9219583129011644
-0.11748459420110723
-0.5051525389708493
-0.9219583129011644
-0.11748459420110723
-0.5051525389708493
-0.9219583129011644
-0.11748459420110723
-0.5051525389708493
-0.9219583129011644
-0.11748459420110723
-0.5051525389708493
-0.9203598902839455
-0.11713142041548236
-0.5050864539733416
-0.9203598902839455
-0.11713142041548236
-0.5050864539733416
-0.9203598902839455
-0.11713142041548236
-0.5050864539733416
-0.9203598902839455
-0.11713142041548236
-0.5050864539733416
-0.9205410319553449
-0.1173977364195705
-0.5046787491915375
-0.9205410319553449
-0.1173977364195705
-0.5046787491915375
-0.9205410319553449
-0.1173977364195705
-0.5046787491915375
-0.9205410319553449
-0.1173977364195705
-0.5046787491915375
-0.921489500096475
-0.11746877953415848
-0.5045566190001491
-0.921489500096475
-0.11746877953415848
-0.5045566190001491
-0.921489500096475
-0.11746877953415848
-0.5045566190001491
-0.921489500096475
-0.11746877953415848
-0.5045566190001491
-0.9206597069477022
-0.11754328027360207
-0.5048977299488662
-0.9206597069477022
-0.11754328027360207
-0.5048977299488662
-0.9206597069477022
-0.11754328027360207
-0.5048977299488662
-0.9206597069477022
-0.11754328027360207
-0.5048977299488662
-0.9197457987259305
-0.11787630871358565
-0.5055096084099145
-0.9197457987259305
-0.11787630871358565
-0.5055096084099145
-0.9197457987259305
-0.11787630871358565
-0.5055096084099145
-0.9197457987259305
-0.11787630871358565
-0.5055096084099145
-0.9207908943203301
-0.1184326642456375
-0.5054770842541216
-0.9207908943203301
-0.1184326642456375
-0.5054770842541216
-0.9207908943203301
-0.1184326642456375
-0.5054770842541216
-0.9207908943203301
-0.1184326642456375
-0.5054770842541216
-0.921347703563339
-0.11908498307598364
-0.5056185457397651
-0.921347703563339
-0.11908498307598364
-0.5056185457397651
-0.921347703563339
-0.11908498307598364
-0.5056185457397651
-0.921347703563339
-0.11908498307598364
-0.5056185457397651
-0.9210930958690666
-0.11919913397773436
-0.5065359934489032
-0.9210930958690666
-0.11919913397773436
-0.5065359934489032
-0.9210930958690666
-0.11919913397773436
-0.5065359934489032
-0.9210930958690666
-0.11919913397773436
-0.5065359934489032
-0.9208229222499656
-0.11924731827868444
-0.5070561687287964
-0.9208229222499656
-0.11924731827868444
-0.5070561687287964
-0.9208229222499656
-0.11924731827868444
-0.5070561687287964
-0.9208229222499656
-0.11924731827868444
-0.5070561687287964
-0.9208229222499656
-0.11924731827868444
-0.5070561687287964
-0.9208229222499656
-0.11924731827868444
-0.5070561687287964
-0.9208229222499656
-0.11924731827868444
-0.5070561687287964
-0.9208229222499656
-0.11924731827868444
-0.5070561687287964
-0.9207984996807709
-0.11935380264953924
-0.5070050312138966
-0.9207984996807709
-0.11935380264953924
-0.5070050312138966
-0.9207984996807709
-0.11935380264953924
-0.5070050312138966
-0.9207984996807709
-0.11935380264953924
-0.5070050312138966
-0.9208249633402126
-0.11954097818060878
-0.5076412704063581
-0.9208249633402126
-0.11954097818060878
-0.5076412704063581
-0.9208249633402126
-0.11954097818060878
-0.5076412704063581
-0.9208249633402126
-0.11954097818060878
-0.5076412704063581
-0.9204671954340948
-0.11957456573219
-0.5087372731241595
-0.9204671954340948
-0.11957456573219
-0.5087372731241595
-0.9204671954340948
-0.11957456573219
-0.5087372731241595
-0.9204671954340948
-0.11957456573219
-0.5087372731241595
-0.9210599635222024
-0.11991410593799656
-0.5096323303776981
-0.9210599635222024
-0.11991410593799656
-0.5096323303776981
-0.9210599635222024
-0.11991410593799656
-0.5096323303776981
-0.9210599635222024
-0.11991410593799656
-0.5096323303776981
-0.9216193338321605
-0.12113438704007198
-0.5100532114325416
-0.9216193338321605
-0.12113438704007198
-0.5100532114325416
-0.9216193338321605
-0.12113438704007198
-0.5100532114325416
-0.9216193338321605
-0.12113438704007198
-0.5100532114325416
-0.9223471201984739
-0.12252100858754761
-0.5107166064380927
-0.9223471201984739
-0.12252100858754761
-0.5107166064380927
-0.9223471201984739
-0.12252100858754761
-0.5107166064380927
-0.9223471201984739
-0.12252100858754761
-0.5107166064380927
-0.923069713163187
-0.12366929563804803
-0.5106356022190104
-0.923069713163187
-0.12366929563804803
-0.5106356022190104
-0.923069713163187
-0.12366929563804803
-0.5106356022190104
-0.923069713163187
-0.12366929563804803
-0.5106356022190104
-0.9236679245928638
-0.12541103262071338
-0.5109607241221938
-0.9236679245928638
-0.12541103262071338
-0.5109607241221938
-0.9236679245928638
-0.12541103262071338
-0.5109607241221938
-0.9236679245928638
-0.12541103262071338
-0.5109607241221938
-0.9246165371649117
-0.12607456496958147
-0.512004411171733
-0.9246165371649117
-0.12607456496958147
-0.512004411171733
-0.9246165371649117
-0.12607456496958147
-0.512004411171733
-0.9246165371649117
-0.12607456496958147
-0.512004411171733
-0.9255220679554662
-0.12628027777015002
-0.5138045524761033
-0.9255220679554662
-0.12628027777015002
-0.5138045524761033
-0.9255220679554662
-0.12628027777015002
-0.5138045524761033
-0.9255220679554662
-0.12628027777015002
-0.5138045524761033
-0.925015770352184
-0.12633700574264498
-0.5152955416323275
-0.925015770352184
-0.12633700574264498
-0.5152955416323275
-0.925015770352184
-0.12633700574264498
-0.5152955416323275
-0.925015770352184
-0.12633700574264498
-0.5152955416323275
-0.925389800024335
-0.12610343402931376
-0.5157226888358385
-0.925389800024335
-0.12610343402931376
-0.5157226888358385
-0.925389800024335
-0.12610343402931376
-0.5157226888358385
-0.925389800024335
-0.12610343402931376
-0.5157226888358385
-0.9253073418163624
-0.12597265909897903
-0.5157946036010147
-0.9253073418163624
-0.12597265909897903
-0.5157946036010147
-0.9253073418163624
-0.12597265909897903
-0.5157946036010147
-0.9253073418163624
-0.12597265909897903
-0.5157946036010147
-0.9253887436805716
-0.12639861420093373
-0.5163077626649593
-0.9253887436805716
-0.12639861420093373
-0.5163077626649593
-0.9253887436805716
-0.12639861420093373
-0.5163077626649593
-0.9253887436805716
-0.12639861420093373
-0.5163077626649593
-0.9257409244446936
-0.12651142535894833
-0.5174271525732808
-0.9257409244446936
-0.12651142535894833
-0.5174271525732808
-0.9257409244446936
-0.12651142535894833
-0.5174271525732808
-0.9257409244446936
-0.12651142535894833
-0.5174271525732808
-0.9275417112797232
-0.12564231712470794
-0.5185185070295011
-0.9275417112797232
-0.12564231712470794
-0.5185185070295011
-0.9275417112797232
-0.12564231712470794
-0.5185185070295011
-0.9275417112797232
-0.12564231712470794
-0.5185185070295011
-0.9315339425580529
-0.12591818786178316
-0.5186930024811514
-0.9315339425580529
-0.12591818786178316
-0.5186930024811514
-0.9315339425580529
-0.12591818786178316
-0.5186930024811514
-0.9315339425580529
-0.12591818786178316
-0.5186930024811514
-0.932087386463196
-0.1277016648463397
-0.5185621119384068
-0.932087386463196
-0.1277016648463397
-0.5185621119384068
-0.932087386463196
-0.1277016648463397
-0.5185621119384068
-0.932087386463196
-0.1277016648463397
-0.5185621119384068
-0.9312951547198609
-0.13055602171367925
-0.5191002233741828
-0.9312951547198609
-0.13055602171367925
-0.5191002233741828
-0.9312951547198609
-0.13055602171367925
-0.5191002233741828
-0.9312951547198609
-0.13055602171367925
-0.5191002233741828
-0.9330318684472455
-0.13206049125619493
-0.5202051655070425
-0.9330318684472455
-0.13206049125619493
-0.5202051655070425
-0.9330318684472455
-0.13206049125619493
-0.5202051655070425
-0.9330318684472455
-0.13206049125619493
-0.5202051655070425
-0.9353274693867871
-0.13096848779713882
-0.5224859738411636
-0.9353274693867871
-0.13096848779713882
-0.5224859738411636
-0.9353274693867871
-0.13096848779713882
-0.5224859738411636
-0.9353274693867871
-0.13096848779713882
-0.5224859738411636
-0.9360283097277516
-0.12986426307553345
-0.5231988559129603
-0.9360283097277516
-0.12986426307553345
-0.5231988559129603
-0.9360283097277516
-0.12986426307553345
-0.5231988559129603
-0.9360283097277516
-0.12986426307553345
-0.5231988559129603
-0.9355133515786849
-0.13142188877220953
-0.5229758534176268
-0.9355133515786849
-0.13142188877220953
-0.5229758534176268
-0.9355133515786849
-0.13142188877220953
-0.5229758534176268
-0.9355133515786849
-0.13142188877220953
-0.5229758534176268
-0.9373763803374685
-0.13346287928480363
-0.523403539723467
-0.9373763803374685
-0.13346287928480363
-0.523403539723467
-0.9373763803374685
-0.13346287928480363
-0.523403539723467
-0.9373763803374685
-0.13346287928480363
-0.523403539723467
-0.9380539287769366
-0.13458315015299552
-0.5248925131744671
-0.9380539287769366
-0.13458315015299552
-0.5248925131744671
-0.9380539287769366
-0.13458315015299552
-0.5248925131744671
-0.9380539287769366
-0.13458315015299552
-0.5248925131744671
-0.9372620331360219
-0.13475037796517336
-0.5267495446632032
-0.9372620331360219
-0.13475037796517336
-0.5267495446632032
-0.9372620331360219
-0.13475037796517336
-0.5267495446632032
-0.9372620331360219
-0.13475037796517336
-0.5267495446632032
-0.936501361834221
-0.13474486718490472
-0.5279957890921247
-0.936501361834221
-0.13474486718490472
-0.5279957890921247
-0.936501361834221
-0.13474486718490472
-0.5279957890921247
-0.936501361834221
-0.13474486718490472
-0.5279957890921247
-0.9365132320528092
-0.13537166363294365
-0.5278479253490339
-0.9365132320528092
-0.13537166363294365
-0.5278479253490339
-0.9365132320528092
-0.13537166363294365
-0.5278479253490339
-0.9365132320528092
-0.13537166363294365
-0.5278479253490339
-0.9377007896696389
-0.13675509033500896
-0.5273761517989188
-0.9377007896696389
-0.13675509033500896
-0.5273761517989188
-0.9377007896696389
-0.13675509033500896
-0.5273761517989188
-0.9377007896696389
-0.13675509033500896
-0.5273761517989188
-0.939573659395472
-0.13830149270315964
-0.5279194459384956
-0.939573659395472
-0.13830149270315964
-0.5279194459384956
-0.939573659395472
-0.13830149270315964
-0.5279194459384956
-0.939573659395472
-0.13830149270315964
-0.5279194459384956
-0.9407297281389717
-0.13953315198821956
-0.5285221659352475
-0.9407297281389717
-0.13953315198821956
-0.5285221659352475
-0.9407297281389717
-0.13953315198821956
-0.5285221659352475
-0.9407297281389717
-0.13953315198821956
-0.5285221659352475
-0.9379571270312281
-0.1403141277446441
-0.5286589177414953
-0.9379571270312281
-0.1403141277446441
-0.5286589177414953
-0.9379571270312281
-0.1403141277446441
-0.5286589177414953
-0.9379571270312281
-0.1403141277446441
-0.5286589177414953
-0.9350332286587507
-0.14117196529154546
-0.5290338380842485
-0.9350332286587507
-0.14117196529154546
-0.5290338380842485
-0.9350332286587507
-0.14117196529154546
-0.5290338380842485
-0.9350332286587507
-0.14117196529154546
-0.5290338380842485
-0.9359311867574639
-0.14194214813870532
-0.5294612168064786
-0.9359311867574639
-0.14194214813870532
-0.5294612168064786
-0.9359311867574639
-0.14194214813870532
-0.5294612168064786
-0.9359311867574639
-0.14194214813870532
-0.5294612168064786
-0.9373934353852409
-0.1418376902037457
-0.5300202905122404
-0.9373934353852409
-0.1418376902037457
-0.5300202905122404
-0.9373934353852409
-0.1418376902037457
-0.5300202905122404
-0.9373934353852409
-0.1418376902037457
-0.5300202905122404
-0.9367758674758264
-0.14213296499946557
-0.5304083505348486
-0.9367758674758264
-0.14213296499946557
-0.5304083505348486
-0.9367758674758264
-0.14213296499946557
-0.5304083505348486
-0.9367758674758264
-0.14213296499946557
-0.5304083505348486
-0.935983466034885
-0.14316926402607244
-0.5304361475192454
-0.935983466034885
-0.14316926402607244
-0.5304361475192454
-0.935983466034885
-0.14316926402607244
-0.5304361475192454
-0.935983466034885
-0.14316926402607244
-0.5304361475192454
-0.936198790139476
-0.14452368155540157
-0.5302033783429021
-0.936198790139476
-0.14452368155540157
-0.5302033783429021
-0.936198790139476
-0.14452368155540157
-0.5302033783429021
-0.936198790139476
-0.14452368155540157
-0.5302033783429021
-0.9378931955701975
-0.14583256850149823
-0.5301024661083892
-0.9378931955701975
-0.14583256850149823
-0.5301024661083892
-0.9378931955701975
-0.14583256850149823
-0.5301024661083892
-0.9378931955701975
-0.14583256850149823
-0.5301024661083892
-0.9405614647368192
-0.1471711957521848
-0.5297545157247705
-0.9405614647368192
-0.1471711957521848
-0.5297545157247705
-0.9405614647368192
-0.1471711957521848
-0.5297545157247705
-0.9405614647368192
-0.1471711957521848
-0.5297545157247705
-0.9405992692401568
-0.14876319671552815
-0.5295441275730508
-0.9405992692401568
-0.14876319671552815
-0.5295441275730508
-0.9405992692401568
-0.14876319671552815
-0.5295441275730508
-0.9405992692401568
-0.14876319671552815
-0.5295441275730508
-0.9388745661739766
-0.15055999909531229
-0.5294123862245024
-0.9388745661739766
-0.15055999909531229
-0.5294123862245024
-0.9388745661739766
-0.15055999909531229
-0.5294123862245024
-0.9388745661739766
-0.15055999909531229
-0.5294123862245024
-0.9387608692872641
-0.15260813409068588
-0.5288136008324913
-0.9387608692872641
-0.15260813409068588
-0.5288136008324913
-0.9387608692872641
-0.15260813409068588
-0.5288136008324913
-0.9387608692872641
-0.15260813409068588
-0.5288136008324913
-0.9403884316880496
-0.15553821028960604
-0.5283572577325638
-0.9403884316880496
-0.15553821028960604
-0.5283572577325638
-0.9403884316880496
-0.15553821028960604
-0.5283572577325638
-0.9403884316880496
-0.15553821028960604
-0.5283572577325638
-0.941527200737952
-0.1587376485866276
-0.5281586636151973
-0.941527200737952
-0.1587376485866276
-0.5281586636151973
-0.941527200737952
-0.1587376485866276
-0.5281586636151973
-0.941527200737952
-0.1587376485866276
-0.5281586636151973
-0.9413451165319415
-0.16154298874923906
-0.5287822624059886
-0.9413451165319415
-0.16154298874923906
-0.5287822624059886
-0.9413451165319415
-0.16154298874923906
-0.5287822624059886
-0.9413451165319415
-0.16154298874923906
-0.5287822624059886
-0.9409957616837493
-0.16310581539336683
-0.5292800574322374
-0.9409957616837493
-0.16310581539336683
-0.5292800574322374
-0.9409957616837493
-0.16310581539336683
-0.5292800574322374
-0.9409957616837493
-0.16310581539336683
-0.5292800574322374
-0.940693250906636
-0.16451169924945155
-0.5297227794759882
-0.940693250906636
-0.16451169924945155
-0.5297227794759882
-0.940693250906636
-0.16451169924945155
-0.5297227794759882
-0.940693250906636
-0.16451169924945155
-0.5297227794759882
-0.9417689112181279
-0.1661162524579065
-0.5299970674802172
-0.9417689112181279
-0.1661162524579065
-0.5299970674802172
-0.9417689112181279
-0.1661162524579065
-0.5299970674802172
-0.9417689112181279
-0.1661162524579065
-0.5299970674802172
-0.942562700904127
-0.1671326043403606
-0.5301249032117534
-0.942562700904127
-0.1671326043403606
-0.5301249032117534
-0.942562700904127
-0.1671326043403606
-0.5301249032117534
-0.942562700904127
-0.1671326043403606
-0.5301249032117534
-0.9426075268858984
-0.16761435446902265
-0.5307420839651675
-0.9426075268858984
-0.16761435446902265
-0.5307420839651675
-0.9426075268858984
-0.16761435446902265
-0.5307420839651675
-0.9426075268858984
-0.16761435446902265
-0.5307420839651675
-0.9421668386472785
-0.16785186395462628
-0.5311905552991978
-0.9421668386472785
-0.16785186395462628
-0.5311905552991978
-0.9421668386472785
-0.16785186395462628
-0.5311905552991978
-0.9421668386472785
-0.16785186395462628
-0.5311905552991978
-0.9425210981569121
-0.16812303487562005
-0.531490223085044
-0.9425210981569121
-0.16812303487562005
-0.531490223085044
-0.9425210981569121
-0.16812303487562005
-0.531490223085044
-0.9425210981569121
-0.16812303487562005
-0.531490223085044
-0.9442526979066015
-0.1687583196045004
-0.5311418806084405
-0.9442526979066015
-0.1687583196045004
-0.5311418806084405
-0.9442526979066015
-0.1687583196045004
-0.5311418806084405
-0.9442526979066015
-0.1687583196045004
-0.5311418806084405
-0.943977758974408
-0.16925552774085784
-0.5314396648079602
-0.943977758974408
-0.16925552774085784
-0.5314396648079602
-0.943977758974408
-0.16925552774085784
-0.5314396648079602
-0.943977758974408
-0.16925552774085784
-0.5314396648079602
-0.9429803343863026
-0.169401495381796
-0.5320421117082144
-0.9429803343863026
-0.169401495381796
-0.5320421117082144
-0.9429803343863026
-0.169401495381796
-0.5320421117082144
-0.9429803343863026
-0.169401495381796
-0.5320421117082144
-0.9421039473320354
-0.16907284387667684
-0.532743670612711
-0.9421039473320354
-0.16907284387667684
-0.532743670612711
-0.9421039473320354
-0.16907284387667684
-0.532743670612711
-0.9421039473320354
-0.16907284387667684
-0.532743670612711
-0.9421283160491691
-0.16896704730094328
-0.5327952434626283
-0.9421283160491691
-0.16896704730094328
-0.5327952434626283
-0.9421283160491691
-0.16896704730094328
-0.5327952434626283
-0.9421283160491691
-0.16896704730094328
-0.5327952434626283
-0.9421039473320354
-0.16907284387667684
-0.532743670612711
-0.9421039473320354
-0.16907284387667684
-0.532743670612711
-0.9421039473320354
-0.16907284387667684
-0.532743670612711
-0.9421039473320354
-0.16907284387667684
-0.532743670612711
-0.9416551129043199
-0.1690048148640389
-0.5328734348581675
-0.9416551129043199
-0.1690048148640389
-0.5328734348581675
-0.9416551129043199
-0.1690048148640389
-0.5328734348581675
-0.9416551129043199
-0.1690048148640389
-0.5328734348581675
-0.9411545683785609
-0.16906102016334568
-0.5332903668159159
-0.9411545683785609
-0.16906102016334568
-0.5332903668159159
