-0.9107599168103188
-0.1849948653782273
-1.0305568765095596
-0.9107599168103188
-0.1849948653782273
-1.0305568765095596
-0.9107599168103188
-0.1849948653782273
-1.0305568765095596
-0.9107599168103188
-0.1849948653782273
-1.0305568765095596
-0.9111107719160529
-0.18455071673057696
-1.0302011117801777
-0.9111107719160529
-0.18455071673057696
-1.0302011117801777
-0.9111107719160529
-0.18455071673057696
-1.0302011117801777
-0.9111107719160529
-0.18455071673057696
-1.0302011117801777
-0.9106669725676768
-0.18403181280436853
-1.0299867493415218
-0.9106669725676768
-0.18403181280436853
-1.0299867493415218
-0.9106669725676768
-0.18403181280436853
-1.0299867493415218
-0.9106669725676768
-0.18403181280436853
-1.0299867493415218
-0.9104001706023755
-0.1835560151970583
-1.0296877469399948
-0.9104001706023755
-0.1835560151970583
-1.0296877469399948
-0.9104001706023755
-0.1835560151970583
-1.0296877469399948
-0.9104001706023755
-0.1835560151970583
-1.0296877469399948
-0.910820651348138
-0.18327947071413794
-1.029545095223129
-0.910820651348138
-0.18327947071413794
-1.029545095223129
-0.910820651348138
-0.18327947071413794
-1.029545095223129
-0.910820651348138
-0.18327947071413794
-1.029545095223129
-0.9118939676156329
-0.1829926633887918
-1.029247103041466
-0.9118939676156329
-0.1829926633887918
-1.029247103041466
-0.9118939676156329
-0.1829926633887918
-1.029247103041466
-0.9118939676156329
-0.1829926633887918
-1.029247103041466
-0.9134351375979315
-0.18278478795335407
-1.028886316983383
-0.9134351375979315
-0.18278478795335407
-1.028886316983383
-0.9134351375979315
-0.18278478795335407
-1.028886316983383
-0.9134351375979315
-0.18278478795335407
-1.028886316983383
-0.9147262480030302
-0.1828614735217748
-1.0286876388188302
-0.9147262480030302
-0.1828614735217748
-1.0286876388188302
-0.9147262480030302
-0.1828614735217748
-1.0286876388188302
-0.9147262480030302
-0.1828614735217748
-1.0286876388188302
-0.9146560988877537
-0.18269336438331985
-1.0284750799678926
-0.9146560988877537
-0.18269336438331985
-1.0284750799678926
-0.9146560988877537
-0.18269336438331985
-1.0284750799678926
-0.9146560988877537
-0.18269336438331985
-1.0284750799678926
-0.9142959196383191
-0.1822794769498065
-1.0280842072545306
-0.9142959196383191
-0.1822794769498065
-1.0280842072545306
-0.9142959196383191
-0.1822794769498065
-1.0280842072545306
-0.9142959196383191
-0.1822794769498065
-1.0280842072545306
-0.9160351244446808
-0.18195141757179895
-1.0269647978917873
-0.9160351244446808
-0.18195141757179895
-1.0269647978917873
-0.9160351244446808
-0.18195141757179895
-1.0269647978917873
-0.9160351244446808
-0.18195141757179895
-1.0269647978917873
-0.9183961376803147
-0.1822166293098099
-1.025696474527482
-0.9183961376803147
-0.1822166293098099
-1.025696474527482
-0.9183961376803147
-0.1822166293098099
-1.025696474527482
-0.9183961376803147
-0.1822166293098099
-1.025696474527482
-0.9203954465420935
-0.1827371515625054
-1.0247600746282668
-0.9203954465420935
-0.1827371515625054
-1.0247600746282668
-0.9203954465420935
-0.1827371515625054
-1.0247600746282668
-0.9203954465420935
-0.1827371515625054
-1.0247600746282668
-0.9214719807842273
-0.1834987495111299
-1.02412609522224
-0.9214719807842273
-0.1834987495111299
-1.02412609522224
-0.9214719807842273
-0.1834987495111299
-1.02412609522224
-0.9214719807842273
-0.1834987495111299
-1.02412609522224
-0.9217614832235892
-0.1840220478135459
-1.0239038230549005
-0.9217614832235892
-0.1840220478135459
-1.0239038230549005
-0.9217614832235892
-0.1840220478135459
-1.0239038230549005
-0.9217614832235892
-0.1840220478135459
-1.0239038230549005
-0.922598930808064
-0.18416231091360935
-1.0235341791678316
-0.922598930808064
-0.18416231091360935
-1.0235341791678316
-0.922598930808064
-0.18416231091360935
-1.0235341791678316
-0.922598930808064
-0.18416231091360935
-1.0235341791678316
-0.9238560233647366
-0.18377987849332422
-1.0231456970422936
-0.9238560233647366
-0.18377987849332422
-1.0231456970422936
-0.9238560233647366
-0.18377987849332422
-1.0231456970422936
-0.9238560233647366
-0.18377987849332422
-1.0231456970422936
-0.9233595281533381
-0.18335855589813035
-1.022892063323238
-0.9233595281533381
-0.18335855589813035
-1.022892063323238
-0.9233595281533381
-0.18335855589813035
-1.022892063323238
-0.9233595281533381
-0.18335855589813035
-1.022892063323238
-0.9232605266582528
-0.18330962823913832
-1.02292788942992
-0.9232605266582528
-0.18330962823913832
-1.02292788942992
-0.9232605266582528
-0.18330962823913832
-1.02292788942992
-0.9232605266582528
-0.18330962823913832
-1.02292788942992
-0.9235590971808632
-0.18317933551599885
-1.0232197359052007
-0.9235590971808632
-0.18317933551599885
-1.0232197359052007
-0.9235590971808632
-0.18317933551599885
-1.0232197359052007
-0.9235590971808632
-0.18317933551599885
-1.0232197359052007
-0.9235516140157728
-0.18332179243684815
-1.0237582781158958
-0.9235516140157728
-0.18332179243684815
-1.0237582781158958
-0.9235516140157728
-0.18332179243684815
-1.0237582781158958
-0.9235516140157728
-0.18332179243684815
-1.0237582781158958
-0.9238426794924779
-0.18333419377220364
-1.0245886303368952
-0.9238426794924779
-0.18333419377220364
-1.0245886303368952
-0.9238426794924779
-0.18333419377220364
-1.0245886303368952
-0.9238426794924779
-0.18333419377220364
-1.0245886303368952
-0.9242126629505943
-0.1833398138993776
-1.0253698939173608
-0.9242126629505943
-0.1833398138993776
-1.0253698939173608
-0.9242126629505943
-0.1833398138993776
-1.0253698939173608
-0.9242126629505943
-0.1833398138993776
-1.0253698939173608
-0.9246026005231377
-0.1834017790318135
-1.026164305844863
-0.9246026005231377
-0.1834017790318135
-1.026164305844863
-0.9246026005231377
-0.1834017790318135
-1.026164305844863
-0.9246026005231377
-0.1834017790318135
-1.026164305844863
-0.924610997616685
-0.1832127423777028
-1.02724433609237
-0.924610997616685
-0.1832127423777028
-1.02724433609237
-0.924610997616685
-0.1832127423777028
-1.02724433609237
-0.924610997616685
-0.1832127423777028
-1.02724433609237
-0.9234279311564992
-0.18278734276197434
-1.0283316216282814
-0.9234279311564992
-0.18278734276197434
-1.0283316216282814
-0.9234279311564992
-0.18278734276197434
-1.0283316216282814
-0.9234279311564992
-0.18278734276197434
-1.0283316216282814
-0.9223512761153632
-0.18248744924426805
-1.0295313545196914
-0.9223512761153632
-0.18248744924426805
-1.0295313545196914
-0.9223512761153632
-0.18248744924426805
-1.0295313545196914
-0.9223512761153632
-0.18248744924426805
-1.0295313545196914
-0.9235308067129988
-0.18230219109358334
-1.0301575807284902
-0.9235308067129988
-0.18230219109358334
-1.0301575807284902
-0.9235308067129988
-0.18230219109358334
-1.0301575807284902
-0.9235308067129988
-0.18230219109358334
-1.0301575807284902
-0.9249726827365575
-0.18226417625101238
-1.030521705924691
-0.9249726827365575
-0.18226417625101238
-1.030521705924691
-0.9249726827365575
-0.18226417625101238
-1.030521705924691
-0.9249726827365575
-0.18226417625101238
-1.030521705924691
-0.9242866689050362
-0.18183015668777275
-1.0310193732918058
-0.9242866689050362
-0.18183015668777275
-1.0310193732918058
-0.9242866689050362
-0.18183015668777275
-1.0310193732918058
-0.9242866689050362
-0.18183015668777275
-1.0310193732918058
-0.9223664148460615
-0.1815421463626807
-1.0317851062387209
-0.9223664148460615
-0.1815421463626807
-1.0317851062387209
-0.9223664148460615
-0.1815421463626807
-1.0317851062387209
-0.9223664148460615
-0.1815421463626807
-1.0317851062387209
-0.9213402204893517
-0.18116713963291436
-1.0322175770798372
-0.9213402204893517
-0.18116713963291436
-1.0322175770798372
-0.9213402204893517
-0.18116713963291436
-1.0322175770798372
-0.9213402204893517
-0.18116713963291436
-1.0322175770798372
-0.9205708399233599
-0.18061781644407593
-1.0323603233750356
-0.9205708399233599
-0.18061781644407593
-1.0323603233750356
-0.9205708399233599
-0.18061781644407593
-1.0323603233750356
-0.9205708399233599
-0.18061781644407593
-1.0323603233750356
-0.9199098699461313
-0.1797417131993782
-1.0325805952462732
-0.9199098699461313
-0.1797417131993782
-1.0325805952462732
-0.9199098699461313
-0.1797417131993782
-1.0325805952462732
-0.9199098699461313
-0.1797417131993782
-1.0325805952462732
-0.9191092944633416
-0.17874638732413115
-1.0330634907828005
-0.9191092944633416
-0.17874638732413115
-1.0330634907828005
-0.9191092944633416
-0.17874638732413115
-1.0330634907828005
-0.9191092944633416
-0.17874638732413115
-1.0330634907828005
-0.9172848412826669
-0.17737395220550015
-1.0339749952793356
-0.9172848412826669
-0.17737395220550015
-1.0339749952793356
-0.9172848412826669
-0.17737395220550015
-1.0339749952793356
-0.9172848412826669
-0.17737395220550015
-1.0339749952793356
-0.9156221287922268
-0.17613304579153222
-1.0343808930592877
-0.9156221287922268
-0.17613304579153222
-1.0343808930592877
-0.9156221287922268
-0.17613304579153222
-1.0343808930592877
-0.9156221287922268
-0.17613304579153222
-1.0343808930592877
-0.914384911577118
-0.17493688334281132
-1.0346729526916414
-0.914384911577118
-0.17493688334281132
-1.0346729526916414
-0.914384911577118
-0.17493688334281132
-1.0346729526916414
-0.914384911577118
-0.17493688334281132
-1.0346729526916414
-0.9139158725057258
-0.17429141435637197
-1.0348255901425218
-0.9139158725057258
-0.17429141435637197
-1.0348255901425218
-0.9139158725057258
-0.17429141435637197
-1.0348255901425218
-0.9139158725057258
-0.17429141435637197
-1.0348255901425218
-0.9133909241409777
-0.17363077161683416
-1.0350639103304697
-0.9133909241409777
-0.17363077161683416
-1.0350639103304697
-0.9133909241409777
-0.17363077161683416
-1.0350639103304697
-0.9133909241409777
-0.17363077161683416
-1.0350639103304697
-0.9121241545827957
-0.17279670166674524
-1.0354806962520569
-0.9121241545827957
-0.17279670166674524
-1.0354806962520569
-0.9121241545827957
-0.17279670166674524
-1.0354806962520569
-0.9121241545827957
-0.17279670166674524
-1.0354806962520569
-0.911218880491641
-0.1719161165375908
-1.0357219628177343
-0.911218880491641
-0.1719161165375908
-1.0357219628177343
-0.911218880491641
-0.1719161165375908
-1.0357219628177343
-0.911218880491641
-0.1719161165375908
-1.0357219628177343
-0.910632253482551
-0.17095464924055814
-1.0357373548432114
-0.910632253482551
-0.17095464924055814
-1.0357373548432114
-0.910632253482551
-0.17095464924055814
-1.0357373548432114
-0.910632253482551
-0.17095464924055814
-1.0357373548432114
-0.909945019184508
-0.16997940298183994
-1.0355094045788014
-0.909945019184508
-0.16997940298183994
-1.0355094045788014
-0.909945019184508
-0.16997940298183994
-1.0355094045788014
-0.909945019184508
-0.16997940298183994
-1.0355094045788014
-0.9086884598373237
-0.16932639579954337
-1.035413297125869
-0.9086884598373237
-0.16932639579954337
-1.035413297125869
-0.9086884598373237
-0.16932639579954337
-1.035413297125869
-0.9086884598373237
-0.16932639579954337
-1.035413297125869
-0.9074425891096716
-0.16850499790169227
-1.0355855359366812
-0.9074425891096716
-0.16850499790169227
-1.0355855359366812
-0.9074425891096716
-0.16850499790169227
-1.0355855359366812
-0.9074425891096716
-0.16850499790169227
-1.0355855359366812
-0.9066653740799071
-0.16812164635106344
-1.035450148744466
-0.9066653740799071
-0.16812164635106344
-1.035450148744466
-0.9066653740799071
-0.16812164635106344
-1.035450148744466
-0.9066653740799071
-0.16812164635106344
-1.035450148744466
-0.9067882062840495
-0.16829871294223828
-1.0350475366318486
-0.9067882062840495
-0.16829871294223828
-1.0350475366318486
-0.9067882062840495
-0.16829871294223828
-1.0350475366318486
-0.9067882062840495
-0.16829871294223828
-1.0350475366318486
-0.9072440153756325
-0.16854756364217077
-1.0347192753194283
-0.9072440153756325
-0.16854756364217077
-1.0347192753194283
-0.9072440153756325
-0.16854756364217077
-1.0347192753194283
-0.9072440153756325
-0.16854756364217077
-1.0347192753194283
-0.9067075827528409
-0.16886479889846578
-1.034475548532755
-0.9067075827528409
-0.16886479889846578
-1.034475548532755
-0.9067075827528409
-0.16886479889846578
-1.034475548532755
-0.9067075827528409
-0.16886479889846578
-1.034475548532755
-0.906185894835571
-0.16856103664897112
-1.0344623756117641
-0.906185894835571
-0.16856103664897112
-1.0344623756117641
-0.906185894835571
-0.16856103664897112
-1.0344623756117641
-0.906185894835571
-0.16856103664897112
-1.0344623756117641
-0.9056078777665068
-0.16824144961210838
-1.0345347718877025
-0.9056078777665068
-0.16824144961210838
-1.0345347718877025
-0.9056078777665068
-0.16824144961210838
-1.0345347718877025
-0.9056078777665068
-0.16824144961210838
-1.0345347718877025
-0.9055146832859231
-0.1683044109682605
-1.0344415774071187
-0.9055146832859231
-0.1683044109682605
-1.0344415774071187
-0.9055146832859231
-0.1683044109682605
-1.0344415774071187
-0.9055146832859231
-0.1683044109682605
-1.0344415774071187
-0.9061771523340203
-0.1679194457338259
-1.0344021955604659
-0.9061771523340203
-0.1679194457338259
-1.0344021955604659
-0.9061771523340203
-0.1679194457338259
-1.0344021955604659
-0.9061771523340203
-0.1679194457338259
-1.0344021955604659
-0.9062075646876862
-0.16755691746466736
-1.0342734504979096
-0.9062075646876862
-0.16755691746466736
-1.0342734504979096
-0.9062075646876862
-0.16755691746466736
-1.0342734504979096
-0.9062075646876862
-0.16755691746466736
-1.0342734504979096
-0.9051320348388602
-0.16706082065686248
-1.0339641955878647
-0.9051320348388602
-0.16706082065686248
-1.0339641955878647
-0.9051320348388602
-0.16706082065686248
-1.0339641955878647
-0.9051320348388602
-0.16706082065686248
-1.0339641955878647
-0.9044415136699022
-0.16710485751397886
-1.0336825391914406
-0.9044415136699022
-0.16710485751397886
-1.0336825391914406
-0.9044415136699022
-0.16710485751397886
-1.0336825391914406
-0.9044415136699022
-0.16710485751397886
-1.0336825391914406
-0.9037434079723549
-0.16707322263384097
-1.0332512666651645
-0.9037434079723549
-0.16707322263384097
-1.0332512666651645
-0.9037434079723549
-0.16707322263384097
-1.0332512666651645
-0.9037434079723549
-0.16707322263384097
-1.0332512666651645
-0.9030106172940031
-0.16708351492725884
-1.0329187170841934
-0.9030106172940031
-0.16708351492725884
-1.0329187170841934
-0.9030106172940031
-0.16708351492725884
-1.0329187170841934
-0.9030106172940031
-0.16708351492725884
-1.0329187170841934
-0.9035499353683448
-0.1672309400610344
-1.0322572807343076
-0.9035499353683448
-0.1672309400610344
-1.0322572807343076
-0.9035499353683448
-0.1672309400610344
-1.0322572807343076
-0.9035499353683448
-0.1672309400610344
-1.0322572807343076
-0.903601174969622
-0.16724080916347206
-1.0316413943384253
-0.903601174969622
-0.16724080916347206
-1.0316413943384253
-0.903601174969622
-0.16724080916347206
-1.0316413943384253
-0.903601174969622
-0.16724080916347206
-1.0316413943384253
-0.9037032090247479
-0.16715324088865732
-1.0310677649906468
-0.9037032090247479
-0.16715324088865732
-1.0310677649906468
-0.9037032090247479
-0.16715324088865732
-1.0310677649906468
-0.9037032090247479
-0.16715324088865732
-1.0310677649906468
-0.9040603806702747
-0.16735162136418652
-1.030774728265195
-0.9040603806702747
-0.16735162136418652
-1.030774728265195
-0.9040603806702747
-0.16735162136418652
-1.030774728265195
-0.9040603806702747
-0.16735162136418652
-1.030774728265195
-0.9047320092152737
-0.16760702341374661
-1.0307959473456687
-0.9047320092152737
-0.16760702341374661
-1.0307959473456687
-0.9047320092152737
-0.16760702341374661
-1.0307959473456687
-0.9047320092152737
-0.16760702341374661
-1.0307959473456687
-0.9053209180985929
-0.1677567849813399
-1.0309928342923702
-0.9053209180985929
-0.1677567849813399
-1.0309928342923702
-0.9053209180985929
-0.1677567849813399
-1.0309928342923702
-0.9053209180985929
-0.1677567849813399
-1.0309928342923702
-0.905449465972023
-0.16744427709213858
-1.0308292744737757
-0.905449465972023
-0.16744427709213858
-1.0308292744737757
-0.905449465972023
-0.16744427709213858
-1.0308292744737757
-0.905449465972023
-0.16744427709213858
-1.0308292744737757
-0.9058155875141181
-0.16670046631696908
-1.0307365832219735
-0.9058155875141181
-0.16670046631696908
-1.0307365832219735
-0.9058155875141181
-0.16670046631696908
-1.0307365832219735
-0.9058155875141181
-0.16670046631696908
-1.0307365832219735
-0.9061970245633091
-0.16600229566876162
-1.031601363155929
-0.9061970245633091
-0.16600229566876162
-1.031601363155929
-0.9061970245633091
-0.16600229566876162
-1.031601363155929
-0.9061970245633091
-0.16600229566876162
-1.031601363155929
-0.906215449460017
-0.16580321015661967
-1.0326780555528023
-0.906215449460017
-0.16580321015661967
-1.0326780555528023
-0.906215449460017
-0.16580321015661967
-1.0326780555528023
-0.906215449460017
-0.16580321015661967
-1.0326780555528023
-0.9078325585058453
-0.16492648057037929
-1.0335613809374729
-0.9078325585058453
-0.16492648057037929
-1.0335613809374729
-0.9078325585058453
-0.16492648057037929
-1.0335613809374729
-0.9078325585058453
-0.16492648057037929
-1.0335613809374729
-0.9099294106905422
-0.16305034022313716
-1.0340515148343548
-0.9099294106905422
-0.16305034022313716
-1.0340515148343548
-0.9099294106905422
-0.16305034022313716
-1.0340515148343548
-0.9099294106905422
-0.16305034022313716
-1.0340515148343548
-0.9116296693596593
-0.16080334893621398
-1.0342488715701643
-0.9116296693596593
-0.16080334893621398
-1.0342488715701643
-0.9116296693596593
-0.16080334893621398
-1.0342488715701643
-0.9116296693596593
-0.16080334893621398
-1.0342488715701643
-0.9109579414395501
-0.15733592527403167
-1.034261558689148
-0.9109579414395501
-0.15733592527403167
-1.034261558689148
-0.9109579414395501
-0.15733592527403167
-1.034261558689148
-0.9109579414395501
-0.15733592527403167
-1.034261558689148
-0.9101548915481015
-0.15491219034166456
-1.035547294249687
-0.9101548915481015
-0.15491219034166456
-1.035547294249687
-0.9101548915481015
-0.15491219034166456
-1.035547294249687
-0.9101548915481015
-0.15491219034166456
-1.035547294249687
-0.9137313092816259
-0.1519027140003678
-1.0374365716521434
-0.9137313092816259
-0.1519027140003678
-1.0374365716521434
-0.9137313092816259
-0.1519027140003678
-1.0374365716521434
-0.9137313092816259
-0.1519027140003678
-1.0374365716521434
-0.9211423343565284
-0.1469661108459937
-1.0384057002886011
-0.9211423343565284
-0.1469661108459937
-1.0384057002886011
-0.9211423343565284
-0.1469661108459937
-1.0384057002886011
-0.9211423343565284
-0.1469661108459937
-1.0384057002886011
-0.92486703477246
-0.14055850586435215
-1.0393252474617816
-0.92486703477246
-0.14055850586435215
-1.0393252474617816
-0.92486703477246
-0.14055850586435215
-1.0393252474617816
-0.92486703477246
-0.14055850586435215
-1.0393252474617816
-0.9273089788600003
-0.13579827675664377
-1.0415828842891615
-0.9273089788600003
-0.13579827675664377
-1.0415828842891615
-0.9273089788600003
-0.13579827675664377
-1.0415828842891615
-0.9273089788600003
-0.13579827675664377
-1.0415828842891615
-0.9336667769949566
-0.13533995555394784
-1.0429165543840058
-0.9336667769949566
-0.13533995555394784
-1.0429165543840058
-0.9336667769949566
-0.13533995555394784
-1.0429165543840058
-0.9336667769949566
-0.13533995555394784
-1.0429165543840058
-0.9388900905851365
-0.13638670721620996
-1.0416267187083799
-0.9388900905851365
-0.13638670721620996
-1.0416267187083799
-0.9388900905851365
-0.13638670721620996
-1.0416267187083799
-0.9388900905851365
-0.13638670721620996
-1.0416267187083799
-0.9409991827643258
-0.13600575676881835
-1.0397751104225939
-0.9409991827643258
-0.13600575676881835
-1.0397751104225939
-0.9409991827643258
-0.13600575676881835
-1.0397751104225939
-0.9409991827643258
-0.13600575676881835
-1.0397751104225939
-0.9392699619498721
-0.13465915650639856
-1.037444022857459
-0.9392699619498721
-0.13465915650639856
-1.037444022857459
-0.9392699619498721
-0.13465915650639856
-1.037444022857459
-0.9392699619498721
-0.13465915650639856
-1.037444022857459
-0.9389613794315061
-0.13475049756165075
-1.0364802397496231
-0.9389613794315061
-0.13475049756165075
-1.0364802397496231
-0.9389613794315061
-0.13475049756165075
-1.0364802397496231
-0.9389613794315061
-0.13475049756165075
-1.0364802397496231
-0.9434701529926489
-0.13621614145848104
-1.0356821150437405
-0.9434701529926489
-0.13621614145848104
-1.0356821150437405
-0.9434701529926489
-0.13621614145848104
-1.0356821150437405
-0.9434701529926489
-0.13621614145848104
-1.0356821150437405
-0.9477684764447161
-0.13661467496936602
-1.0348756517239492
-0.9477684764447161
-0.13661467496936602
-1.0348756517239492
-0.9477684764447161
-0.13661467496936602
-1.0348756517239492
-0.9477684764447161
-0.13661467496936602
-1.0348756517239492
-0.9514997319740857
-0.1358859014489231
-1.0331834738336279
-0.9514997319740857
-0.1358859014489231
-1.0331834738336279
-0.9514997319740857
-0.1358859014489231
-1.0331834738336279
-0.9514997319740857
-0.1358859014489231
-1.0331834738336279
-0.9524367476108011
-0.13439096854456734
-1.0316863502926847
-0.9524367476108011
-0.13439096854456734
-1.0316863502926847
-0.9524367476108011
-0.13439096854456734
-1.0316863502926847
-0.9524367476108011
-0.13439096854456734
-1.0316863502926847
-0.9524126427883163
-0.1324710580535155
-1.0313121541215717
-0.9524126427883163
-0.1324710580535155
-1.0313121541215717
-0.9524126427883163
-0.1324710580535155
-1.0313121541215717
-0.9524126427883163
-0.1324710580535155
-1.0313121541215717
-0.9488326972274537
-0.13072257914153815
-1.031976173386608
-0.9488326972274537
-0.13072257914153815
-1.031976173386608
-0.9488326972274537
-0.13072257914153815
-1.031976173386608
-0.9488326972274537
-0.13072257914153815
-1.031976173386608
-0.942609623717729
-0.1273737722195725
-1.033183280276427
-0.942609623717729
-0.1273737722195725
-1.033183280276427
-0.942609623717729
-0.1273737722195725
-1.033183280276427
-0.942609623717729
-0.1273737722195725
-1.033183280276427
-0.9423082428921473
-0.12476031833192276
-1.033527992422528
-0.9423082428921473
-0.12476031833192276
-1.033527992422528
-0.9423082428921473
-0.12476031833192276
-1.033527992422528
-0.9423082428921473
-0.12476031833192276
-1.033527992422528
-0.9471289651163975
-0.1241283160605465
-1.0325749170806255
-0.9471289651163975
-0.1241283160605465
-1.0325749170806255
-0.9471289651163975
-0.1241283160605465
-1.0325749170806255
-0.9471289651163975
-0.1241283160605465
-1.0325749170806255
-0.9502884070662931
-0.12422560772139987
-1.0312986981081382
-0.9502884070662931
-0.12422560772139987
-1.0312986981081382
-0.9502884070662931
-0.12422560772139987
-1.0312986981081382
-0.9502884070662931
-0.12422560772139987
-1.0312986981081382
-0.9498997470383341
-0.12385640839877982
-1.030763914354081
-0.9498997470383341
-0.12385640839877982
-1.030763914354081
-0.9498997470383341
-0.12385640839877982
-1.030763914354081
-0.9498997470383341
-0.12385640839877982
-1.030763914354081
-0.9467118210056336
-0.12293046273062584
-1.0307945116925405
-0.9467118210056336
-0.12293046273062584
-1.0307945116925405
-0.9467118210056336
-0.12293046273062584
-1.0307945116925405
-0.9467118210056336
-0.12293046273062584
-1.0307945116925405
-0.9412108189574306
-0.1220342217864522
-1.031377206305293
-0.9412108189574306
-0.1220342217864522
-1.031377206305293
-0.9412108189574306
-0.1220342217864522
-1.031377206305293
-0.9412108189574306
-0.1220342217864522
-1.031377206305293
-0.9380733779472161
-0.12124505516960137
-1.0325026260674104
-0.9380733779472161
-0.12124505516960137
-1.0325026260674104
-0.9380733779472161
-0.12124505516960137
-1.0325026260674104
-0.9380733779472161
-0.12124505516960137
-1.0325026260674104
-0.9388016106289261
-0.12087600950611055
-1.0333424553757309
-0.9388016106289261
-0.12087600950611055
-1.0333424553757309
-0.9388016106289261
-0.12087600950611055
-1.0333424553757309
-0.9388016106289261
-0.12087600950611055
-1.0333424553757309
-0.9413875363365425
-0.12020359403432782
-1.0332858123953206
-0.9413875363365425
-0.12020359403432782
-1.0332858123953206
-0.9413875363365425
-0.12020359403432782
-1.0332858123953206
-0.9413875363365425
-0.12020359403432782
-1.0332858123953206
-0.9414023173103714
-0.11976028954503841
-1.0330167891644042
-0.9414023173103714
-0.11976028954503841
-1.0330167891644042
-0.9414023173103714
-0.11976028954503841
-1.0330167891644042
-0.9414023173103714
-0.11976028954503841
-1.0330167891644042
-0.9380053738916889
-0.11924267080795851
-1.0337592389805674
-0.9380053738916889
-0.11924267080795851
-1.0337592389805674
-0.9380053738916889
-0.11924267080795851
-1.0337592389805674
-0.9380053738916889
-0.11924267080795851
-1.0337592389805674
-0.9325319807457123
-0.11883574135389138
-1.0355523433531078
-0.9325319807457123
-0.11883574135389138
-1.0355523433531078
-0.9325319807457123
-0.11883574135389138
-1.0355523433531078
-0.9325319807457123
-0.11883574135389138
-1.0355523433531078
-0.930258207249032
-0.11823503982554419
-1.037282519977163
-0.930258207249032
-0.11823503982554419
-1.037282519977163
-0.930258207249032
-0.11823503982554419
-1.037282519977163
-0.930258207249032
-0.11823503982554419
-1.037282519977163
-0.9333729910981687
-0.11830581844921077
-1.0371454434520098
-0.9333729910981687
-0.11830581844921077
-1.0371454434520098
-0.9333729910981687
-0.11830581844921077
-1.0371454434520098
-0.9333729910981687
-0.11830581844921077
-1.0371454434520098
-0.9376196416460317
-0.11843503617212525
-1.0364523695803736
-0.9376196416460317
-0.11843503617212525
-1.0364523695803736
-0.9376196416460317
-0.11843503617212525
-1.0364523695803736
-0.9376196416460317
-0.11843503617212525
-1.0364523695803736
-0.9377613239490331
-0.11851892167416996
-1.0364706330432565
-0.9377613239490331
-0.11851892167416996
-1.0364706330432565
-0.9377613239490331
-0.11851892167416996
-1.0364706330432565
-0.9377613239490331
-0.11851892167416996
-1.0364706330432565
-0.9338558333223417
-0.11833248518662737
-1.037238859550915
-0.9338558333223417
-0.11833248518662737
-1.037238859550915
-0.9338558333223417
-0.11833248518662737
-1.037238859550915
-0.9338558333223417
-0.11833248518662737
-1.037238859550915
-0.9296361892107973
-0.11817976659306803
-1.0387370829850089
-0.9296361892107973
-0.11817976659306803
-1.0387370829850089
-0.9296361892107973
-0.11817976659306803
-1.0387370829850089
-0.9296361892107973
-0.11817976659306803
-1.0387370829850089
-0.9303570595037962
-0.11800765175508442
-1.0399699422708801
-0.9303570595037962
-0.11800765175508442
-1.0399699422708801
-0.9303570595037962
-0.11800765175508442
-1.0399699422708801
-0.9303570595037962
-0.11800765175508442
-1.0399699422708801
-0.9341540357956852
-0.11785463303002948
-1.0401124383502247
-0.9341540357956852
-0.11785463303002948
-1.0401124383502247
-0.9341540357956852
-0.11785463303002948
-1.0401124383502247
-0.9341540357956852
-0.11785463303002948
-1.0401124383502247
-0.9367804403771447
-0.11758144077756645
-1.0398569713519856
-0.9367804403771447
-0.11758144077756645
-1.0398569713519856
-0.9367804403771447
-0.11758144077756645
-1.0398569713519856
-0.9367804403771447
-0.11758144077756645
-1.0398569713519856
-0.9352721440634738
-0.1172306172334551
-1.0400217869598316
-0.9352721440634738
-0.1172306172334551
-1.0400217869598316
-0.9352721440634738
-0.1172306172334551
-1.0400217869598316
-0.9352721440634738
-0.1172306172334551
-1.0400217869598316
-0.9314691711127971
-0.11729359976730576
-1.0409096383100576
-0.9314691711127971
-0.11729359976730576
-1.0409096383100576
-0.9314691711127971
-0.11729359976730576
-1.0409096383100576
-0.9314691711127971
-0.11729359976730576
-1.0409096383100576
-0.9295223631134321
-0.1174058133049441
-1.0418309716930236
-0.9295223631134321
-0.1174058133049441
-1.0418309716930236
-0.9295223631134321
-0.1174058133049441
-1.0418309716930236
-0.9295223631134321
-0.1174058133049441
-1.0418309716930236
-0.9317094145076412
-0.1178192531064958
-1.0413080607367495
-0.9317094145076412
-0.1178192531064958
-1.0413080607367495
-0.9317094145076412
-0.1178192531064958
-1.0413080607367495
-0.9317094145076412
-0.1178192531064958
-1.0413080607367495
-0.934966946587759
-0.11858835810968672
-1.040577196904686
-0.934966946587759
-0.11858835810968672
-1.040577196904686
-0.934966946587759
-0.11858835810968672
-1.040577196904686
-0.934966946587759
-0.11858835810968672
-1.040577196904686
-0.9352812055347641
-0.1184356737383671
-1.0399758900916933
-0.9352812055347641
-0.1184356737383671
-1.0399758900916933
-0.9352812055347641
-0.1184356737383671
-1.0399758900916933
-0.9352812055347641
-0.1184356737383671
-1.0399758900916933
-0.9329510680167593
-0.11861896549903155
-1.0402558770785244
-0.9329510680167593
-0.11861896549903155
-1.0402558770785244
-0.9329510680167593
-0.11861896549903155
-1.0402558770785244
-0.9329510680167593
-0.11861896549903155
-1.0402558770785244
-0.9298613156051594
-0.11908704636205474
-1.0411035806010136
-0.9298613156051594
-0.11908704636205474
-1.0411035806010136
-0.9298613156051594
-0.11908704636205474
-1.0411035806010136
-0.9298613156051594
-0.11908704636205474
-1.0411035806010136
-0.9294181690793094
-0.11972570277472658
-1.0413532658058895
-0.9294181690793094
-0.11972570277472658
-1.0413532658058895
-0.9294181690793094
-0.11972570277472658
-1.0413532658058895
-0.9294181690793094
-0.11972570277472658
-1.0413532658058895
-0.9314256663858531
-0.12050317266564094
-1.041455297144255
-0.9314256663858531
-0.12050317266564094
-1.041455297144255
-0.9314256663858531
-0.12050317266564094
-1.041455297144255
-0.9314256663858531
-0.12050317266564094
-1.041455297144255
-0.933625432397687
-0.12099290953775109
-1.041076846649723
-0.933625432397687
-0.12099290953775109
-1.041076846649723
-0.933625432397687
-0.12099290953775109
-1.041076846649723
-0.933625432397687
-0.12099290953775109
-1.041076846649723
-0.933379334837255
-0.12166478733446964
-1.0408727098237014
-0.933379334837255
-0.12166478733446964
-1.0408727098237014
-0.933379334837255
-0.12166478733446964
-1.0408727098237014
-0.933379334837255
-0.12166478733446964
-1.0408727098237014
-0.931268010171473
-0.1220340737675135
-1.0410005699643254
-0.931268010171473
-0.1220340737675135
-1.0410005699643254
-0.931268010171473
-0.1220340737675135
-1.0410005699643254
-0.931268010171473
-0.1220340737675135
-1.0410005699643254
-0.9299575566968391
-0.12210517482961747
-1.041127981977952
-0.9299575566968391
-0.12210517482961747
-1.041127981977952
-0.9299575566968391
-0.12210517482961747
-1.041127981977952
-0.9299575566968391
-0.12210517482961747
-1.041127981977952
-0.93102985079767
-0.12189860449076839
-1.0410153737660652
-0.93102985079767
-0.12189860449076839
-1.0410153737660652
-0.93102985079767
-0.12189860449076839
-1.0410153737660652
-0.93102985079767
-0.12189860449076839
-1.0410153737660652
-0.9326251784281648
-0.12154609050015415
-1.0408917560217683
-0.9326251784281648
-0.12154609050015415
-1.0408917560217683
-0.9326251784281648
-0.12154609050015415
-1.0408917560217683
-0.9326251784281648
-0.12154609050015415
-1.0408917560217683
-0.9326138408617239
-0.12146887081352589
-1.0407433507177546
-0.9326138408617239
-0.12146887081352589
-1.0407433507177546
-0.9326138408617239
-0.12146887081352589
-1.0407433507177546
-0.9326138408617239
-0.12146887081352589
-1.0407433507177546
-0.9312364165697371
-0.12151415299507659
-1.041193310430731
-0.9312364165697371
-0.12151415299507659
-1.041193310430731
-0.9312364165697371
-0.12151415299507659
-1.041193310430731
-0.9312364165697371
-0.12151415299507659
-1.041193310430731
-0.9302151356982823
-0.12151003847228682
-1.0414794061236938
-0.9302151356982823
-0.12151003847228682
-1.0414794061236938
-0.9302151356982823
-0.12151003847228682
-1.0414794061236938
-0.9302151356982823
-0.12151003847228682
-1.0414794061236938
-0.930437840667107
-0.12152322511810595
-1.0418321280011043
-0.930437840667107
-0.12152322511810595
-1.0418321280011043
-0.930437840667107
-0.12152322511810595
-1.0418321280011043
-0.930437840667107
-0.12152322511810595
-1.0418321280011043
-0.9316075169143042
-0.12164390907633074
-1.0422288876486863
-0.9316075169143042
-0.12164390907633074
-1.0422288876486863
-0.9316075169143042
-0.12164390907633074
-1.0422288876486863
-0.9316075169143042
-0.12164390907633074
-1.0422288876486863
-0.9319381897587999
-0.12178592131676577
-1.0426967988411824
-0.9319381897587999
-0.12178592131676577
-1.0426967988411824
-0.9319381897587999
-0.12178592131676577
-1.0426967988411824
-0.9319381897587999
-0.12178592131676577
-1.0426967988411824
-0.9319381897587999
-0.12178592131676577
-1.0426967988411824
-0.9319381897587999
-0.12178592131676577
-1.0426967988411824
-0.9319381897587999
-0.12178592131676577
-1.0426967988411824
-0.9319381897587999
-0.12178592131676577
-1.0426967988411824
-0.931166678869291
-0.12210838335288922
-1.0429873946877453
-0.931166678869291
-0.12210838335288922
-1.0429873946877453
-0.931166678869291
-0.12210838335288922
-1.0429873946877453
-0.931166678869291
-0.12210838335288922
-1.0429873946877453
-0.931166678869291
-0.12210838335288922
-1.0429873946877453
-0.931166678869291
-0.12210838335288922
-1.0429873946877453
-0.931166678869291
-0.12210838335288922
-1.0429873946877453
-0.931166678869291
-0.12210838335288922
-1.0429873946877453
-0.931575527377419
-0.12235367949990128
-1.0432807301062281
-0.931575527377419
-0.12235367949990128
-1.0432807301062281
-0.931575527377419
-0.12235367949990128
-1.0432807301062281
-0.931575527377419
-0.12235367949990128
-1.0432807301062281
-0.931575527377419
-0.12235367949990128
-1.0432807301062281
-0.931575527377419
-0.12235367949990128
-1.0432807301062281
-0.931575527377419
-0.12235367949990128
-1.0432807301062281
-0.931575527377419
-0.12235367949990128
-1.0432807301062281
-0.9315911277591868
-0.12275147680194379
-1.0434555349218138
-0.9315911277591868
-0.12275147680194379
-1.0434555349218138
-0.9315911277591868
-0.12275147680194379
-1.0434555349218138
-0.9315911277591868
-0.12275147680194379
-1.0434555349218138
-0.9322311895623823
-0.12337611416871164
-1.0436114304646051
-0.9322311895623823
-0.12337611416871164
-1.0436114304646051
-0.9322311895623823
-0.12337611416871164
-1.0436114304646051
-0.9322311895623823
-0.12337611416871164
-1.0436114304646051
-0.933212199580504
-0.12355430096562724
-1.0434282115181566
-0.933212199580504
-0.12355430096562724
-1.0434282115181566
-0.933212199580504
-0.12355430096562724
-1.0434282115181566
-0.933212199580504
-0.12355430096562724
-1.0434282115181566
-0.934022504941256
-0.12389864040770245
-1.0434788787237994
-0.934022504941256
-0.12389864040770245
-1.0434788787237994
-0.934022504941256
-0.12389864040770245
-1.0434788787237994
-0.934022504941256
-0.12389864040770245
-1.0434788787237994
-0.933966135169503
-0.12395030052016791
-1.0439504692072166
-0.933966135169503
-0.12395030052016791
-1.0439504692072166
-0.933966135169503
-0.12395030052016791
-1.0439504692072166
-0.933966135169503
-0.12395030052016791
-1.0439504692072166
-0.9331605178329889
-0.12431667919896432
-1.0443383928563947
-0.9331605178329889
-0.12431667919896432
-1.0443383928563947
-0.9331605178329889
-0.12431667919896432
-1.0443383928563947
-0.9331605178329889
-0.12431667919896432
-1.0443383928563947
-0.9338387240356485
-0.12494192683671923
-1.0438804277616913
-0.9338387240356485
-0.12494192683671923
-1.0438804277616913
-0.9338387240356485
-0.12494192683671923
-1.0438804277616913
-0.9338387240356485
-0.12494192683671923
-1.0438804277616913
-0.934932184802676
-0.12556949839431084
-1.0438369035129045
-0.934932184802676
-0.12556949839431084
-1.0438369035129045
-0.934932184802676
-0.12556949839431084
-1.0438369035129045
-0.934932184802676
-0.12556949839431084
-1.0438369035129045
-0.9354708913038547
-0.12582253117191233
-1.0439987940649647
-0.9354708913038547
-0.12582253117191233
-1.0439987940649647
-0.9354708913038547
-0.12582253117191233
-1.0439987940649647
-0.9354708913038547
-0.12582253117191233
-1.0439987940649647
-0.9349946239992194
-0.12594153568309355
-1.0444420442836446
-0.9349946239992194
-0.12594153568309355
-1.0444420442836446
-0.9349946239992194
-0.12594153568309355
-1.0444420442836446
-0.9349946239992194
-0.12594153568309355
-1.0444420442836446
-0.9345628045629109
-0.1260936573120971
-1.0449370170457035
-0.9345628045629109
-0.1260936573120971
-1.0449370170457035
-0.9345628045629109
-0.1260936573120971
-1.0449370170457035
-0.9345628045629109
-0.1260936573120971
-1.0449370170457035
-0.9349311622319059
-0.12623665899028388
-1.044791113773095
-0.9349311622319059
-0.12623665899028388
-1.044791113773095
-0.9349311622319059
-0.12623665899028388
-1.044791113773095
-0.9349311622319059
-0.12623665899028388
-1.044791113773095
-0.934879494868281
-0.12633264280596423
-1.0447466151734384
-0.934879494868281
-0.12633264280596423
-1.0447466151734384
-0.934879494868281
-0.12633264280596423
-1.0447466151734384
-0.934879494868281
-0.12633264280596423
-1.0447466151734384
-0.9349643431607298
-0.12658303628927034
-1.045106587841237
-0.9349643431607298
-0.12658303628927034
-1.045106587841237
-0.9349643431607298
-0.12658303628927034
-1.045106587841237
-0.9349643431607298
-0.12658303628927034
-1.045106587841237
-0.9345161297243726
-0.12661335565547846
-1.0459695114767784
-0.9345161297243726
-0.12661335565547846
-1.0459695114767784
-0.9345161297243726
-0.12661335565547846
-1.0459695114767784
-0.9345161297243726
-0.12661335565547846
-1.0459695114767784
-0.9340947400881656
-0.12684250278369857
-1.0466132413473268
-0.9340947400881656
-0.12684250278369857
-1.0466132413473268
-0.9340947400881656
-0.12684250278369857
-1.0466132413473268
-0.9340947400881656
-0.12684250278369857
-1.0466132413473268
-0.9350081351353188
-0.12699633377457248
-1.0467514656184858
-0.9350081351353188
-0.12699633377457248
-1.0467514656184858
-0.9350081351353188
-0.12699633377457248
-1.0467514656184858
-0.9350081351353188
-0.12699633377457248
-1.0467514656184858
-0.9363087817282887
-0.12685101172097688
-1.0464725947820068
-0.9363087817282887
-0.12685101172097688
-1.0464725947820068
-0.9363087817282887
-0.12685101172097688
-1.0464725947820068
-0.9363087817282887
-0.12685101172097688
-1.0464725947820068
-0.9357992600100367
-0.1266230455880895
-1.0466006792732738
-0.9357992600100367
-0.1266230455880895
-1.0466006792732738
-0.9357992600100367
-0.1266230455880895
-1.0466006792732738
-0.9357992600100367
-0.1266230455880895
-1.0466006792732738
-0.9339443436433479
-0.12639270728010635
-1.0470853331485224
-0.9339443436433479
-0.12639270728010635
-1.0470853331485224
-0.9339443436433479
-0.12639270728010635
-1.0470853331485224
-0.9339443436433479
-0.12639270728010635
-1.0470853331485224
-0.9320559946596612
-0.12620544140979742
-1.04766628134534
-0.9320559946596612
-0.12620544140979742
-1.04766628134534
-0.9320559946596612
-0.12620544140979742
-1.04766628134534
-0.9320559946596612
-0.12620544140979742
-1.04766628134534
-0.933445782154931
-0.12624184783204592
-1.0473615364550843
-0.933445782154931
-0.12624184783204592
-1.0473615364550843
-0.933445782154931
-0.12624184783204592
-1.0473615364550843
-0.933445782154931
-0.12624184783204592
-1.0473615364550843
-0.9356688660939593
-0.12661586370425032
-1.046731073189351
-0.9356688660939593
-0.12661586370425032
-1.046731073189351
-0.9356688660939593
-0.12661586370425032
-1.046731073189351
-0.9356688660939593
-0.12661586370425032
-1.046731073189351
-0.9357655598028741
-0.1266671900390081
-1.0466973734542044
-0.9357655598028741
-0.1266671900390081
-1.0466973734542044
-0.9357655598028741
-0.1266671900390081
-1.0466973734542044
-0.9357655598028741
-0.1266671900390081
-1.0466973734542044
-0.9340625605462766
-0.1265989824049915
-1.0473487035358717
-0.9340625605462766
-0.1265989824049915
-1.0473487035358717
-0.9340625605462766
-0.1265989824049915
-1.0473487035358717
-0.9340625605462766
-0.1265989824049915
-1.0473487035358717
-0.9328435929405016
-0.1262827648693061
-1.047548943681647
-0.9328435929405016
-0.1262827648693061
-1.047548943681647
-0.9328435929405016
-0.1262827648693061
-1.047548943681647
-0.9328435929405016
-0.1262827648693061
-1.047548943681647
-0.9331346159248637
-0.12604687090602235
-1.0470355065983024
-0.9331346159248637
-0.12604687090602235
-1.0470355065983024
-0.9331346159248637
-0.12604687090602235
-1.0470355065983024
-0.9331346159248637
-0.12604687090602235
-1.0470355065983024
-0.9342568643531016
-0.12631137441763024
-1.0468690206532798
-0.9342568643531016
-0.12631137441763024
-1.0468690206532798
-0.9342568643531016
-0.12631137441763024
-1.0468690206532798
-0.9342568643531016
-0.12631137441763024
-1.0468690206532798
-0.9342568643531016
-0.12631137441763024
-1.0468690206532798
-0.9342568643531016
-0.12631137441763024
-1.0468690206532798
-0.9342568643531016
-0.12631137441763024
-1.0468690206532798
-0.9342568643531016
-0.12631137441763024
-1.0468690206532798
-0.9331384891439738
-0.12636756794169865
-1.04706167671074
-0.9331384891439738
-0.12636756794169865
-1.04706167671074
-0.9331384891439738
-0.12636756794169865
-1.04706167671074
-0.9331384891439738
-0.12636756794169865
-1.04706167671074
-0.9317112827015023
-0.1268252699799624
-1.047497236846446
-0.9317112827015023
-0.1268252699799624
-1.047497236846446
-0.9317112827015023
-0.1268252699799624
-1.047497236846446
-0.9317112827015023
-0.1268252699799624
-1.047497236846446
-0.9320639826913687
-0.12773161720180015
-1.047649504410381
-0.9320639826913687
-0.12773161720180015
-1.047649504410381
-0.9320639826913687
-0.12773161720180015
-1.047649504410381
-0.9320639826913687
-0.12773161720180015
-1.047649504410381
-0.9333943224441199
-0.12849749447687886
-1.0475894504981837
-0.9333943224441199
-0.12849749447687886
-1.0475894504981837
-0.9333943224441199
-0.12849749447687886
-1.0475894504981837
-0.9333943224441199
-0.12849749447687886
-1.0475894504981837
-0.9334910900843003
-0.12854885309939926
-1.0475556940597606
-0.9334910900843003
-0.12854885309939926
-1.0475556940597606
-0.9334910900843003
-0.12854885309939926
-1.0475556940597606
-0.9334910900843003
-0.12854885309939926
-1.0475556940597606
-0.9332082562325937
-0.12826531971837343
-1.0476494761353534
-0.9332082562325937
-0.12826531971837343
-1.0476494761353534
-0.9332082562325937
-0.12826531971837343
-1.0476494761353534
-0.9332082562325937
-0.12826531971837343
-1.0476494761353534
-0.9321931680196214
-0.12812900067968788
-1.047931825509016
-0.9321931680196214
-0.12812900067968788
-1.047931825509016
-0.9321931680196214
-0.12812900067968788
-1.047931825509016
-0.9321931680196214
-0.12812900067968788
-1.047931825509016
-0.9307650440152985
-0.12770105668858536
-1.0484378293964418
-0.9307650440152985
-0.12770105668858536
-1.0484378293964418
-0.9307650440152985
-0.12770105668858536
-1.0484378293964418
-0.9307650440152985
-0.12770105668858536
-1.0484378293964418
-0.9305736528353366
-0.1274235425261804
-1.049013628777864
-0.9305736528353366
-0.1274235425261804
-1.049013628777864
-0.9305736528353366
-0.1274235425261804
-1.049013628777864
-0.9305736528353366
-0.1274235425261804
-1.049013628777864
-0.9313080989699601
-0.12710243135280103
-1.0493336840443728
-0.9313080989699601
-0.12710243135280103
-1.0493336840443728
-0.9313080989699601
-0.12710243135280103
-1.0493336840443728
-0.9313080989699601
-0.12710243135280103
-1.0493336840443728
-0.9323410491165101
-0.1271875359286395
-1.0491929880645672
-0.9323410491165101
-0.1271875359286395
-1.0491929880645672
-0.9323410491165101
-0.1271875359286395
-1.0491929880645672
-0.9323410491165101
-0.1271875359286395
-1.0491929880645672
-0.9331518084451377
-0.1271441161933512
-1.048830020691045
-0.9331518084451377
-0.1271441161933512
-1.048830020691045
-0.9331518084451377
-0.1271441161933512
-1.048830020691045
-0.9331518084451377
-0.1271441161933512
-1.048830020691045
-0.9321889351936842
-0.12691128230581067
-1.0491560123240264
-0.9321889351936842
-0.12691128230581067
-1.0491560123240264
-0.9321889351936842
-0.12691128230581067
-1.0491560123240264
-0.9321889351936842
-0.12691128230581067
-1.0491560123240264
-0.930816824051268
-0.12670720628382068
-1.0497319026793837
-0.930816824051268
-0.12670720628382068
-1.0497319026793837
-0.930816824051268
-0.12670720628382068
-1.0497319026793837
-0.930816824051268
-0.12670720628382068
-1.0497319026793837
-0.930816824051268
-0.12670720628382068
-1.0497319026793837
-0.930816824051268
-0.12670720628382068
-1.0497319026793837
-0.930816824051268
-0.12670720628382068
-1.0497319026793837
-0.930816824051268
-0.12670720628382068
-1.0497319026793837
-0.9320172070122492
-0.12707695901091035
-1.0493907764560955
-0.9320172070122492
-0.12707695901091035
-1.0493907764560955
-0.9320172070122492
-0.12707695901091035
-1.0493907764560955
-0.9320172070122492
-0.12707695901091035
-1.0493907764560955
-0.934615502351492
-0.12735415979037434
-1.0487360721784589
-0.934615502351492
-0.12735415979037434
-1.0487360721784589
-0.934615502351492
-0.12735415979037434
-1.0487360721784589
-0.934615502351492
-0.12735415979037434
-1.0487360721784589
-0.9365099412326754
-0.12758540880503003
-1.0476374214875561
-0.9365099412326754
-0.12758540880503003
-1.0476374214875561
-0.9365099412326754
-0.12758540880503003
-1.0476374214875561
-0.9365099412326754
-0.12758540880503003
-1.0476374214875561
-0.936192092488728
-0.12763299832181477
-1.0471891029801617
-0.936192092488728
-0.12763299832181477
-1.0471891029801617
-0.936192092488728
-0.12763299832181477
-1.0471891029801617
-0.936192092488728
-0.12763299832181477
-1.0471891029801617
-0.9354159765254494
-0.12724293354692512
-1.0470434583276704
-0.9354159765254494
-0.12724293354692512
-1.0470434583276704
-0.9354159765254494
-0.12724293354692512
-1.0470434583276704
-0.9354159765254494
-0.12724293354692512
-1.0470434583276704
-0.9343951423290927
-0.1269601100815952
-1.046790571582149
-0.9343951423290927
-0.1269601100815952
-1.046790571582149
-0.9343951423290927
-0.1269601100815952
-1.046790571582149
-0.9343951423290927
-0.1269601100815952
-1.046790571582149
-0.9349933726289607
-0.1265980764386306
-1.0465771440383207
-0.9349933726289607
-0.1265980764386306
-1.0465771440383207
-0.9349933726289607
-0.1265980764386306
-1.0465771440383207
-0.9349933726289607
-0.1265980764386306
-1.0465771440383207
-0.9362300927451439
-0.12674795514327739
-1.0466475296016682
-0.9362300927451439
-0.12674795514327739
-1.0466475296016682
-0.9362300927451439
-0.12674795514327739
-1.0466475296016682
-0.9362300927451439
-0.12674795514327739
-1.0466475296016682
-0.9367414467503438
-0.12680291952133413
-1.0470284769771763
-0.9367414467503438
-0.12680291952133413
-1.0470284769771763
-0.9367414467503438
-0.12680291952133413
-1.0470284769771763
-0.9367414467503438
-0.12680291952133413
-1.0470284769771763
-0.9367751866860538
-0.12675873742966648
-1.0469318093444717
-0.9367751866860538
-0.12675873742966648
-1.0469318093444717
-0.9367751866860538
-0.12675873742966648
-1.0469318093444717
-0.9367751866860538
-0.12675873742966648
-1.0469318093444717
-0.9367414467503438
-0.12680291952133413
-1.0470284769771763
-0.9367414467503438
-0.12680291952133413
-1.0470284769771763
-0.9367414467503438
-0.12680291952133413
-1.0470284769771763
-0.9367414467503438
-0.12680291952133413
-1.0470284769771763
-0.9367414467503438
-0.12680291952133413
-1.0470284769771763
-0.9367414467503438
-0.12680291952133413
-1.0470284769771763
-0.9367414467503438
-0.12680291952133413
-1.0470284769771763
-0.9367414467503438
-0.12680291952133413
-1.0470284769771763
-0.9370755960491639
-0.12687662560369292
-1.0471089921189216
-0.9370755960491639
-0.12687662560369292
-1.0471089921189216
-0.9370755960491639
-0.12687662560369292
-1.0471089921189216
-0.9370755960491639
-0.12687662560369292
-1.0471089921189216
-0.9393670181629163
-0.12883594059412778
-1.0458526381351458
-0.9393670181629163
-0.12883594059412778
-1.0458526381351458
-0.9393670181629163
-0.12883594059412778
-1.0458526381351458
-0.9393670181629163
-0.12883594059412778
-1.0458526381351458
-0.9436500572767434
-0.13218844152985307
-1.044436957167609
-0.9436500572767434
-0.13218844152985307
-1.044436957167609
-0.9436500572767434
-0.13218844152985307
-1.044436957167609
-0.9436500572767434
-0.13218844152985307
-1.044436957167609
-0.9447346107670426
-0.1347492528599237
-1.0439634550724024
-0.9447346107670426
-0.1347492528599237
-1.0439634550724024
-0.9447346107670426
-0.1347492528599237
-1.0439634550724024
-0.9447346107670426
-0.1347492528599237
-1.0439634550724024
-0.9428935013370469
-0.13691183024508213
-1.0454014747475429
-0.9428935013370469
-0.13691183024508213
-1.0454014747475429
-0.9428935013370469
-0.13691183024508213
-1.0454014747475429
-0.9428935013370469
-0.13691183024508213
-1.0454014747475429
-0.9403236065562579
-0.13918496549906037
-1.0473148874172826
-0.9403236065562579
-0.13918496549906037
-1.0473148874172826
-0.9403236065562579
-0.13918496549906037
-1.0473148874172826
-0.9403236065562579
-0.13918496549906037
-1.0473148874172826
-0.9438176383006581
-0.1440559057436576
-1.0475417407244616
-0.9438176383006581
-0.1440559057436576
-1.0475417407244616
-0.9438176383006581
-0.1440559057436576
-1.0475417407244616
-0.9438176383006581
-0.1440559057436576
-1.0475417407244616
-0.9550503368280587
-0.1516920562037478
-1.0454396730659101
-0.9550503368280587
-0.1516920562037478
-1.0454396730659101
-0.9550503368280587
-0.1516920562037478
-1.0454396730659101
-0.9550503368280587
-0.1516920562037478
-1.0454396730659101
-0.9614372696625058
-0.15897585836603598
-1.044356832594336
-0.9614372696625058
-0.15897585836603598
-1.044356832594336
-0.9614372696625058
-0.15897585836603598
-1.044356832594336
-0.9614372696625058
-0.15897585836603598
-1.044356832594336
-0.9544050534841865
-0.16156732134986732
-1.0457175292828276
-0.9544050534841865
-0.16156732134986732
-1.0457175292828276
-0.9544050534841865
-0.16156732134986732
-1.0457175292828276
-0.9544050534841865
-0.16156732134986732
-1.0457175292828276
-0.9378252526326359
-0.1623176644573511
-1.0484007449994848
-0.9378252526326359
-0.1623176644573511
-1.0484007449994848
-0.9378252526326359
-0.1623176644573511
-1.0484007449994848
-0.9378252526326359
-0.1623176644573511
-1.0484007449994848
-0.9221375254093698
-0.16422003582385794
-1.050355320682974
-0.9221375254093698
-0.16422003582385794
-1.050355320682974
-0.9221375254093698
-0.16422003582385794
-1.050355320682974
-0.9221375254093698
-0.16422003582385794
-1.050355320682974
-0.9158517942490776
-0.16827208583269387
-1.0497356522455805
-0.9158517942490776
-0.16827208583269387
-1.0497356522455805
-0.9158517942490776
-0.16827208583269387
-1.0497356522455805
-0.9158517942490776
-0.16827208583269387
-1.0497356522455805
-0.9159554158786429
-0.17407260690571613
-1.0492256917349745
-0.9159554158786429
-0.17407260690571613
-1.0492256917349745
-0.9159554158786429
-0.17407260690571613
-1.0492256917349745
-0.9159554158786429
-0.17407260690571613
-1.0492256917349745
-0.9210951590144685
-0.17879344873073982
-1.0511059993533591
-0.9210951590144685
-0.17879344873073982
-1.0511059993533591
-0.9210951590144685
-0.17879344873073982
-1.0511059993533591
-0.9210951590144685
-0.17879344873073982
-1.0511059993533591
-0.9265904109882365
-0.1780868237232407
-1.0530397762272765
-0.9265904109882365
-0.1780868237232407
-1.0530397762272765
-0.9265904109882365
-0.1780868237232407
-1.0530397762272765
-0.9265904109882365
-0.1780868237232407
-1.0530397762272765
-0.9202998309041338
-0.17483657217723414
-1.0509434970197813
-0.9202998309041338
-0.17483657217723414
-1.0509434970197813
-0.9202998309041338
-0.17483657217723414
-1.0509434970197813
-0.9202998309041338
-0.17483657217723414
-1.0509434970197813
-0.9096401946339403
-0.1731018282878199
-1.0496932657719042
-0.9096401946339403
-0.1731018282878199
-1.0496932657719042
-0.9096401946339403
-0.1731018282878199
-1.0496932657719042
-0.9096401946339403
-0.1731018282878199
-1.0496932657719042
-0.9078700194014941
-0.17497654470092125
-1.0509060177148966
-0.9078700194014941
-0.17497654470092125
-1.0509060177148966
-0.9078700194014941
-0.17497654470092125
-1.0509060177148966
-0.9078700194014941
-0.17497654470092125
-1.0509060177148966
-0.9122893140731537
-0.17657684459258183
-1.0506128158561607
-0.9122893140731537
-0.17657684459258183
-1.0506128158561607
-0.9122893140731537
-0.17657684459258183
-1.0506128158561607
-0.9122893140731537
-0.17657684459258183
-1.0506128158561607
-0.914285459104431
-0.17556810005337653
-1.0490216647598127
-0.914285459104431
-0.17556810005337653
-1.0490216647598127
-0.914285459104431
-0.17556810005337653
-1.0490216647598127
-0.914285459104431
-0.17556810005337653
-1.0490216647598127
-0.9126424848051305
-0.17463572745881653
-1.0479762995470887
-0.9126424848051305
-0.17463572745881653
-1.0479762995470887
-0.9126424848051305
-0.17463572745881653
-1.0479762995470887
-0.9126424848051305
-0.17463572745881653
-1.0479762995470887
-0.9104079042123866
-0.17468091139751218
-1.0465547305109495
-0.9104079042123866
-0.17468091139751218
-1.0465547305109495
-0.9104079042123866
-0.17468091139751218
-1.0465547305109495
-0.9104079042123866
-0.17468091139751218
-1.0465547305109495
-0.9087244086603887
-0.1747829085969915
-1.0463634624071272
-0.9087244086603887
-0.1747829085969915
-1.0463634624071272
-0.9087244086603887
-0.1747829085969915
-1.0463634624071272
-0.9087244086603887
-0.1747829085969915
-1.0463634624071272
-0.9084426162001142
-0.1737255757184964
-1.0463910692590623
-0.9084426162001142
-0.1737255757184964
-1.0463910692590623
-0.9084426162001142
-0.1737255757184964
-1.0463910692590623
-0.9084426162001142
-0.1737255757184964
-1.0463910692590623
-0.9085574011488513
-0.1725829408848494
-1.046145799057418
-0.9085574011488513
-0.1725829408848494
-1.046145799057418
-0.9085574011488513
-0.1725829408848494
-1.046145799057418
-0.9085574011488513
-0.1725829408848494
-1.046145799057418
-0.908901151058485
-0.1718500506285958
-1.0449537474622095
-0.908901151058485
-0.1718500506285958
-1.0449537474622095
-0.908901151058485
-0.1718500506285958
-1.0449537474622095
-0.908901151058485
-0.1718500506285958
-1.0449537474622095
-0.909372343198709
-0.17126462497600567
-1.0441668677493843
-0.909372343198709
-0.17126462497600567
-1.0441668677493843
-0.909372343198709
-0.17126462497600567
-1.0441668677493843
-0.909372343198709
-0.17126462497600567
-1.0441668677493843
-0.9098258817089321
-0.17062885537211908
-1.0438979338219134
-0.9098258817089321
-0.17062885537211908
-1.0438979338219134
-0.9098258817089321
-0.17062885537211908
-1.0438979338219134
-0.9098258817089321
-0.17062885537211908
-1.0438979338219134
-0.9087098172977393
-0.16973501786854228
-1.043787909107584
-0.9087098172977393
-0.16973501786854228
-1.043787909107584
-0.9087098172977393
-0.16973501786854228
-1.043787909107584
-0.9087098172977393
-0.16973501786854228
-1.043787909107584
-0.9073433838231213
-0.16887393503049072
-1.043426502268003
-0.9073433838231213
-0.16887393503049072
-1.043426502268003
-0.9073433838231213
-0.16887393503049072
-1.043426502268003
-0.9073433838231213
-0.16887393503049072
-1.043426502268003
-0.906654075215997
-0.16834895447343304
-1.0432347622220506
-0.906654075215997
-0.16834895447343304
-1.0432347622220506
-0.906654075215997
-0.16834895447343304
-1.0432347622220506
-0.906654075215997
-0.16834895447343304
-1.0432347622220506
-0.9081105046428081
-0.16840363676889117
-1.0428132534907832
-0.9081105046428081
-0.16840363676889117
-1.0428132534907832
-0.9081105046428081
-0.16840363676889117
-1.0428132534907832
-0.9081105046428081
-0.16840363676889117
-1.0428132534907832
-0.9100646061362263
-0.16807181500407908
-1.042862798241153
-0.9100646061362263
-0.16807181500407908
-1.042862798241153
-0.9100646061362263
-0.16807181500407908
-1.042862798241153
-0.9100646061362263
-0.16807181500407908
-1.042862798241153
-0.9097752518974631
-0.1674677675527085
-1.0429293698778594
-0.9097752518974631
-0.1674677675527085
-1.0429293698778594
-0.9097752518974631
-0.1674677675527085
-1.0429293698778594
-0.9097752518974631
-0.1674677675527085
-1.0429293698778594
-0.9092588784679927
-0.16702273681870153
-1.0423774203371154
-0.9092588784679927
-0.16702273681870153
-1.0423774203371154
-0.9092588784679927
-0.16702273681870153
-1.0423774203371154
-0.9092588784679927
-0.16702273681870153
-1.0423774203371154
-0.9084829522611457
-0.16663666397348648
-1.0422416403172658
-0.9084829522611457
-0.16663666397348648
-1.0422416403172658
-0.9084829522611457
-0.16663666397348648
-1.0422416403172658
-0.9084829522611457
-0.16663666397348648
-1.0422416403172658
-0.9083474169642186
-0.1657415839593801
-1.0424345470727174
-0.9083474169642186
-0.1657415839593801
-1.0424345470727174
-0.9083474169642186
-0.1657415839593801
-1.0424345470727174
-0.9083474169642186
-0.1657415839593801
-1.0424345470727174
-0.9087488885839405
-0.16509704647492127
-1.0427823439339028
-0.9087488885839405
-0.16509704647492127
-1.0427823439339028
-0.9087488885839405
-0.16509704647492127
-1.0427823439339028
-0.9087488885839405
-0.16509704647492127
-1.0427823439339028
-0.9097026586877343
-0.16439583430585702
-1.043016568281819
-0.9097026586877343
-0.16439583430585702
-1.043016568281819
-0.9097026586877343
-0.16439583430585702
-1.043016568281819
-0.9097026586877343
-0.16439583430585702
-1.043016568281819
-0.9085077716849979
-0.1637173016805881
-1.0431085981827348
-0.9085077716849979
-0.1637173016805881
-1.0431085981827348
-0.9085077716849979
-0.1637173016805881
-1.0431085981827348
-0.9085077716849979
-0.1637173016805881
-1.0431085981827348
-0.906653837582041
-0.16353409096514115
-1.0431092664609258
-0.906653837582041
-0.16353409096514115
-1.0431092664609258
-0.906653837582041
-0.16353409096514115
-1.0431092664609258
-0.906653837582041
-0.16353409096514115
-1.0431092664609258
-0.90709386403817
-0.1635265230202618
-1.0431409068313695
-0.90709386403817
-0.1635265230202618
-1.0431409068313695
-0.90709386403817
-0.1635265230202618
-1.0431409068313695
-0.90709386403817
-0.1635265230202618
-1.0431409068313695
-0.9081477776303508
-0.16376216139997865
-1.0432811134427298
-0.9081477776303508
-0.16376216139997865
-1.0432811134427298
-0.9081477776303508
-0.16376216139997865
-1.0432811134427298
-0.9081477776303508
-0.16376216139997865
-1.0432811134427298
-0.9081826129044501
-0.1637203627995992
-1.043182823184148
-0.9081826129044501
-0.1637203627995992
-1.043182823184148
-0.9081826129044501
-0.1637203627995992
-1.043182823184148
-0.9081826129044501
-0.1637203627995992
-1.043182823184148
-0.9072676353154682
-0.16314305719348815
-1.0436866918618934
-0.9072676353154682
-0.16314305719348815
-1.0436866918618934
-0.9072676353154682
-0.16314305719348815
-1.0436866918618934
-0.9072676353154682
-0.16314305719348815
-1.0436866918618934
-0.9048969580991254
-0.1626158136636973
-1.0439493522496535
-0.9048969580991254
-0.1626158136636973
-1.0439493522496535
-0.9048969580991254
-0.1626158136636973
-1.0439493522496535
-0.9048969580991254
-0.1626158136636973
-1.0439493522496535
-0.9044164227675111
-0.16248210288171008
-1.0445235881284216
-0.9044164227675111
-0.16248210288171008
-1.0445235881284216
-0.9044164227675111
-0.16248210288171008
-1.0445235881284216
-0.9044164227675111
-0.16248210288171008
-1.0445235881284216
-0.9051817304006905
-0.16211374508942597
-1.044729002915653
-0.9051817304006905
-0.16211374508942597
-1.044729002915653
-0.9051817304006905
-0.16211374508942597
-1.044729002915653
-0.9051817304006905
-0.16211374508942597
-1.044729002915653
-0.9066998132184613
-0.16190437455597523
-1.0446237052123106
-0.9066998132184613
-0.16190437455597523
-1.0446237052123106
-0.9066998132184613
-0.16190437455597523
-1.0446237052123106
-0.9066998132184613
-0.16190437455597523
-1.0446237052123106
-0.9067803281318856
-0.16112415131647717
-1.0445070556197418
-0.9067803281318856
-0.16112415131647717
-1.0445070556197418
-0.9067803281318856
-0.16112415131647717
-1.0445070556197418
-0.9067803281318856
-0.16112415131647717
-1.0445070556197418
-0.9054806588979403
-0.16031776169257803
-1.0444808773833942
-0.9054806588979403
-0.16031776169257803
-1.0444808773833942
-0.9054806588979403
-0.16031776169257803
-1.0444808773833942
-0.9054806588979403
-0.16031776169257803
-1.0444808773833942
-0.9036154449818709
-0.15951605596584176
-1.0450829549503067
-0.9036154449818709
-0.15951605596584176
-1.0450829549503067
-0.9036154449818709
-0.15951605596584176
-1.0450829549503067
-0.9036154449818709
-0.15951605596584176
-1.0450829549503067
-0.9025357859839138
-0.1590382964129943
-1.0454351283113337
-0.9025357859839138
-0.1590382964129943
-1.0454351283113337
-0.9025357859839138
-0.1590382964129943
-1.0454351283113337
-0.9025357859839138
-0.1590382964129943
-1.0454351283113337
-0.9024598537232901
-0.1586869191352895
-1.045728793109142
-0.9024598537232901
-0.1586869191352895
-1.045728793109142
-0.9024598537232901
-0.1586869191352895
-1.045728793109142
-0.9024598537232901
-0.1586869191352895
-1.045728793109142
-0.9028802419190272
-0.15841474597843533
-1.0455899384575624
-0.9028802419190272
-0.15841474597843533
-1.0455899384575624
-0.9028802419190272
-0.15841474597843533
-1.0455899384575624
-0.9028802419190272
-0.15841474597843533
-1.0455899384575624
-0.9033969823010379
-0.1575139757995023
-1.0456330396839488
-0.9033969823010379
-0.1575139757995023
-1.0456330396839488
-0.9033969823010379
-0.1575139757995023
-1.0456330396839488
-0.9033969823010379
-0.1575139757995023
-1.0456330396839488
-0.9029966355873248
-0.1571652551238324
-1.0459998208904535
-0.9029966355873248
-0.1571652551238324
-1.0459998208904535
-0.9029966355873248
-0.1571652551238324
-1.0459998208904535
-0.9029966355873248
-0.1571652551238324
-1.0459998208904535
-0.9019376486356094
-0.15695215683840805
-1.046522022763647
-0.9019376486356094
-0.15695215683840805
-1.046522022763647
-0.9019376486356094
-0.15695215683840805
-1.046522022763647
-0.9019376486356094
-0.15695215683840805
-1.046522022763647
-0.9016405158195161
-0.1572953980595936
-1.0469165546677595
-0.9016405158195161
-0.1572953980595936
-1.0469165546677595
-0.9016405158195161
-0.1572953980595936
-1.0469165546677595
-0.9016405158195161
-0.1572953980595936
-1.0469165546677595
-0.9031997399587858
-0.15800824250768353
-1.0468094916346982
-0.9031997399587858
-0.15800824250768353
-1.0468094916346982
-0.9031997399587858
-0.15800824250768353
-1.0468094916346982
-0.9031997399587858
-0.15800824250768353
-1.0468094916346982
-0.9038635675738168
-0.1585138133209654
-1.0467154291580167
-0.9038635675738168
-0.1585138133209654
-1.0467154291580167
-0.9038635675738168
-0.1585138133209654
-1.0467154291580167
-0.9038635675738168
-0.1585138133209654
-1.0467154291580167
-0.9042208717974404
-0.15860777517019128
-1.0470822270102056
-0.9042208717974404
-0.15860777517019128
-1.0470822270102056
-0.9042208717974404
-0.15860777517019128
-1.0470822270102056
-0.9042208717974404
-0.15860777517019128
-1.0470822270102056
-0.9032726385012904
-0.15827632116179854
-1.0478396374990913
-0.9032726385012904
-0.15827632116179854
-1.0478396374990913
-0.9032726385012904
-0.15827632116179854
-1.0478396374990913
-0.9032726385012904
-0.15827632116179854
-1.0478396374990913
-0.901657960067574
-0.15800358562480554
-1.048602789548261
-0.901657960067574
-0.15800358562480554
-1.048602789548261
-0.901657960067574
-0.15800358562480554
-1.048602789548261
-0.901657960067574
-0.15800358562480554
-1.048602789548261
-0.9022535764514015
-0.1582339647409843
-1.0489526470330914
-0.9022535764514015
-0.1582339647409843
-1.0489526470330914
-0.9022535764514015
-0.1582339647409843
-1.0489526470330914
-0.9022535764514015
-0.1582339647409843
-1.0489526470330914
-0.9034433759217328
-0.15859564546765434
-1.0488352653515767
-0.9034433759217328
-0.15859564546765434
-1.0488352653515767
-0.9034433759217328
-0.15859564546765434
-1.0488352653515767
-0.9034433759217328
-0.15859564546765434
-1.0488352653515767
-0.9034433759217328
-0.15859564546765434
-1.0488352653515767
-0.9034433759217328
-0.15859564546765434
-1.0488352653515767
-0.9034433759217328
-0.15859564546765434
-1.0488352653515767
-0.9034433759217328
-0.15859564546765434
-1.0488352653515767
-0.9029721134487045
-0.15853618441348058
-1.0495580183680382
-0.9029721134487045
-0.15853618441348058
-1.0495580183680382
-0.9029721134487045
-0.15853618441348058
-1.0495580183680382
-0.9029721134487045
-0.15853618441348058
-1.0495580183680382
-0.9020607249344185
-0.15848223397971076
-1.0502483338838162
-0.9020607249344185
-0.15848223397971076
-1.0502483338838162
-0.9020607249344185
-0.15848223397971076
-1.0502483338838162
-0.9020607249344185
-0.15848223397971076
-1.0502483338838162
-0.9026871122272587
-0.15803024716755804
-1.0504374755044883
-0.9026871122272587
-0.15803024716755804
-1.0504374755044883
-0.9026871122272587
-0.15803024716755804
-1.0504374755044883
-0.9026871122272587
-0.15803024716755804
-1.0504374755044883
-0.903079314832427
-0.1575556990831316
-1.0505154522084987
-0.903079314832427
-0.1575556990831316
-1.0505154522084987
-0.903079314832427
-0.1575556990831316
-1.0505154522084987
-0.903079314832427
-0.1575556990831316
-1.0505154522084987
-0.9028719465719567
-0.1571945316385036
-1.0509414855533397
-0.9028719465719567
-0.1571945316385036
-1.0509414855533397
-0.9028719465719567
-0.1571945316385036
-1.0509414855533397
-0.9028719465719567
-0.1571945316385036
-1.0509414855533397
-0.9029238989725257
-0.15709770837001535
-1.0509836072665653
-0.9029238989725257
-0.15709770837001535
-1.0509836072665653
-0.9029238989725257
-0.15709770837001535
-1.0509836072665653
-0.9029238989725257
-0.15709770837001535
-1.0509836072665653
-0.9026950215047694
-0.1573573212634844
-1.0511819248079322
-0.9026950215047694
-0.1573573212634844
-1.0511819248079322
-0.9026950215047694
-0.1573573212634844
-1.0511819248079322
-0.9026950215047694
-0.1573573212634844
-1.0511819248079322
-0.9026604937447098
-0.1573989024489883
-1.05127996078098
-0.9026604937447098
-0.1573989024489883
-1.05127996078098
-0.9026604937447098
-0.1573989024489883
-1.05127996078098
-0.9026604937447098
-0.1573989024489883
-1.05127996078098
-0.9030447042642474
-0.15737613451944135
-1.0513990425271966
-0.9030447042642474
-0.15737613451944135
-1.0513990425271966
-0.9030447042642474
-0.15737613451944135
-1.0513990425271966
-0.9030447042642474
-0.15737613451944135
-1.0513990425271966
-0.9039691032210866
-0.157040363562379
-1.051763724727472
-0.9039691032210866
-0.157040363562379
-1.051763724727472
-0.9039691032210866
-0.157040363562379
-1.051763724727472
-0.9039691032210866
-0.157040363562379
-1.051763724727472
-0.9032858562083156
-0.15640552978473546
-1.0522238876526908
-0.9032858562083156
-0.15640552978473546
-1.0522238876526908
-0.9032858562083156
-0.15640552978473546
-1.0522238876526908
-0.9032858562083156
-0.15640552978473546
-1.0522238876526908
-0.9025164359207913
-0.15590876146789506
-1.052739417592318
-0.9025164359207913
-0.15590876146789506
-1.052739417592318
-0.9025164359207913
-0.15590876146789506
-1.052739417592318
-0.9025164359207913
-0.15590876146789506
-1.052739417592318
-0.9035077466546572
-0.15584924126846741
-1.0526612600455774
-0.9035077466546572
-0.15584924126846741
-1.0526612600455774
-0.9035077466546572
-0.15584924126846741
-1.0526612600455774
-0.9035077466546572
-0.15584924126846741
-1.0526612600455774
-0.905159649956705
-0.15597636928298225
-1.0524588327885986
-0.905159649956705
-0.15597636928298225
-1.0524588327885986
-0.905159649956705
-0.15597636928298225
-1.0524588327885986
-0.905159649956705
-0.15597636928298225
-1.0524588327885986
-0.905159649956705
-0.15597636928298225
-1.0524588327885986
-0.905159649956705
-0.15597636928298225
-1.0524588327885986
-0.905159649956705
-0.15597636928298225
-1.0524588327885986
-0.905159649956705
-0.15597636928298225
-1.0524588327885986
-0.9040358716739461
-0.15602631750630072
-1.0526694636979061
-0.9040358716739461
-0.15602631750630072
-1.0526694636979061
-0.9040358716739461
-0.15602631750630072
-1.0526694636979061
-0.9040358716739461
-0.15602631750630072
-1.0526694636979061
-0.9021994745523636
-0.1559858099205135
-1.052962212783165
-0.9021994745523636
-0.1559858099205135
-1.052962212783165
-0.9021994745523636
-0.1559858099205135
-1.052962212783165
-0.9021994745523636
-0.1559858099205135
-1.052962212783165
-0.9025164359207913
-0.15590876146789506
-1.052739417592318
-0.9025164359207913
-0.15590876146789506
-1.052739417592318
-0.9043069047832384
-0.15580088522299004
-1.052523450992296
-0.9043069047832384
-0.15580088522299004
-1.052523450992296
-0.9043069047832384
-0.15580088522299004
-1.052523450992296
-0.9043069047832384
-0.15580088522299004
-1.052523450992296
-0.9043069047832384
-0.15580088522299004
-1.052523450992296
-0.9043069047832384
-0.15580088522299004
-1.052523450992296
-0.9044393495540721
-0.15581059066004138
-1.0523910062214619
-0.9044393495540721
-0.15581059066004138
-1.0523910062214619
-0.9044393495540721
-0.15581059066004138
-1.0523910062214619
-0.9044393495540721
-0.15581059066004138
-1.0523910062214619
-0.903435010257024
-0.155818421177724
-1.0529858468829885
-0.903435010257024
-0.155818421177724
-1.0529858468829885
-0.903435010257024
-0.155818421177724
-1.0529858468829885
-0.903435010257024
-0.155818421177724
-1.0529858468829885
-0.9022591612791566
-0.15596466855845692
-1.0531543435232256
-0.9022591612791566
-0.15596466855845692
-1.0531543435232256
-0.9022591612791566
-0.15596466855845692
-1.0531543435232256
-0.9022591612791566
-0.15596466855845692
-1.0531543435232256
-0.9030583559114316
-0.15591659175270903
-1.0530164524549703
-0.9030583559114316
-0.15591659175270903
-1.0530164524549703
-0.9030583559114316
-0.15591659175270903
-1.0530164524549703
-0.9030583559114316
-0.15591659175270903
-1.0530164524549703
-0.9048427087784312
-0.15605375279504896
-1.0526815353159353
-0.9048427087784312
-0.15605375279504896
-1.0526815353159353
-0.9048427087784312
-0.15605375279504896
-1.0526815353159353
-0.9048427087784312
-0.15605375279504896
-1.0526815353159353
-0.9048427087784312
-0.15605375279504896
-1.0526815353159353
-0.9048427087784312
-0.15605375279504896
-1.0526815353159353
-0.9048427087784312
-0.15605375279504896
-1.0526815353159353
-0.9048427087784312
-0.15605375279504896
-1.0526815353159353
-0.9038513726777319
-0.15611331270700235
-1.0527597561363502
-0.9038513726777319
-0.15611331270700235
-1.0527597561363502
-0.9038513726777319
-0.15611331270700235
-1.0527597561363502
-0.9038513726777319
-0.15611331270700235
-1.0527597561363502
-0.9022515587173111
-0.155889035533752
-1.0530042947957976
-0.9022515587173111
-0.155889035533752
-1.0530042947957976
-0.9021535973052608
-0.15583757883893387
-1.0530387686769491
-0.9021535973052608
-0.15583757883893387
-1.0530387686769491
-0.9021535973052608
-0.15583757883893387
-1.0530387686769491
-0.9021535973052608
-0.15583757883893387
-1.0530387686769491
-0.9032046366313263
-0.15575716393599112
-1.053152784666159
-0.9032046366313263
-0.15575716393599112
-1.053152784666159
-0.9032046366313263
-0.15575716393599112
-1.053152784666159
-0.9032046366313263
-0.15575716393599112
-1.053152784666159
-0.9032046366313263
-0.15575716393599112
-1.053152784666159
-0.9032046366313263
-0.15575716393599112
-1.053152784666159
-0.9032046366313263
-0.15575716393599112
-1.053152784666159
-0.9032046366313263
-0.15575716393599112
-1.053152784666159
-0.9029765953763479
-0.1554893644089658
-1.0531597211674486
-0.9029765953763479
-0.1554893644089658
-1.0531597211674486
-0.9029765953763479
-0.1554893644089658
-1.0531597211674486
-0.9029765953763479
-0.1554893644089658
-1.0531597211674486
-0.902026063440556
-0.15526203544940745
-1.0532583675096647
-0.902026063440556
-0.15526203544940745
-1.0532583675096647
-0.902026063440556
-0.15526203544940745
-1.0532583675096647
-0.902026063440556
-0.15526203544940745
-1.0532583675096647
-0.9012446499516706
-0.15525470323312457
-1.0535360079913343
-0.9012446499516706
-0.15525470323312457
-1.0535360079913343
-0.9012446499516706
-0.15525470323312457
-1.0535360079913343
-0.9012446499516706
-0.15525470323312457
-1.0535360079913343
-0.9016301889486495
-0.15555284821313978
-1.053687043491179
-0.9016301889486495
-0.15555284821313978
-1.053687043491179
-0.9016301889486495
-0.15555284821313978
-1.053687043491179
-0.9016301889486495
-0.15555284821313978
-1.053687043491179
-0.901770190518449
-0.15563839849687539
-1.0537047171261418
-0.901770190518449
-0.15563839849687539
-1.0537047171261418
-0.901770190518449
-0.15563839849687539
-1.0537047171261418
-0.901770190518449
-0.15563839849687539
-1.0537047171261418
-0.9012064585552012
-0.15518195985693353
-1.0537625667410508
-0.9012064585552012
-0.15518195985693353
-1.0537625667410508
-0.9012064585552012
-0.15518195985693353
-1.0537625667410508
-0.9012064585552012
-0.15518195985693353
-1.0537625667410508
-0.9003259721618211
-0.15480218066106766
-1.0540428099921106
-0.9003259721618211
-0.15480218066106766
-1.0540428099921106
-0.9003259721618211
-0.15480218066106766
-1.0540428099921106
-0.9003259721618211
-0.15480218066106766
-1.0540428099921106
-0.8998120855031969
-0.15445502485960322
-1.0543024280404751
-0.8998120855031969
-0.15445502485960322
-1.0543024280404751
-0.8998120855031969
-0.15445502485960322
-1.0543024280404751
-0.8998120855031969
-0.15445502485960322
-1.0543024280404751
-0.9007231800642232
-0.1542895459248768
-1.054399263986136
-0.9007231800642232
-0.1542895459248768
-1.054399263986136
-0.9007231800642232
-0.1542895459248768
-1.054399263986136
-0.9007231800642232
-0.1542895459248768
-1.054399263986136
-0.9007231800642232
-0.1542895459248768
-1.054399263986136
-0.9007231800642232
-0.1542895459248768
-1.054399263986136
-0.9007231800642232
-0.1542895459248768
-1.054399263986136
-0.9007231800642232
-0.1542895459248768
-1.054399263986136
-0.9002551158319999
-0.15409069427948605
-1.0545824578285634
-0.9002551158319999
-0.15409069427948605
-1.0545824578285634
-0.9002551158319999
-0.15409069427948605
-1.0545824578285634
-0.9002551158319999
-0.15409069427948605
-1.0545824578285634
-0.8996661250397169
-0.15407146805495087
-1.0549194306332697
-0.8996661250397169
-0.15407146805495087
-1.0549194306332697
-0.8996661250397169
-0.15407146805495087
-1.0549194306332697
-0.8996661250397169
-0.15407146805495087
-1.0549194306332697
-0.8995146697388166
-0.15425356682124375
-1.055450004375996
-0.8995146697388166
-0.15425356682124375
-1.055450004375996
-0.8995146697388166
-0.15425356682124375
-1.055450004375996
-0.8995146697388166
-0.15425356682124375
-1.055450004375996
-0.9000491488634685
-0.15418625141269837
-1.055577310124488
-0.9000491488634685
-0.15418625141269837
-1.055577310124488
-0.9000491488634685
-0.15418625141269837
-1.055577310124488
-0.9000491488634685
-0.15418625141269837
-1.055577310124488
-0.8999968708503542
-0.15428299000077736
-1.0555353403462135
-0.8999968708503542
-0.15428299000077736
-1.0555353403462135
-0.8999968708503542
-0.15428299000077736
-1.0555353403462135
-0.8999968708503542
-0.15428299000077736
-1.0555353403462135
-0.9008213795338584
-0.15425630543365026
-1.0556881151191526
-0.9008213795338584
-0.15425630543365026
-1.0556881151191526
-0.9008213795338584
-0.15425630543365026
-1.0556881151191526
-0.9008213795338584
-0.15425630543365026
-1.0556881151191526
-0.9008213795338584
-0.15425630543365026
-1.0556881151191526
-0.9008213795338584
-0.15425630543365026
-1.0556881151191526
-0.9008213795338584
-0.15425630543365026
-1.0556881151191526
-0.9008213795338584
-0.15425630543365026
-1.0556881151191526
-0.9006698220852694
-0.15443864468548768
-1.0562186011797396
-0.9006698220852694
-0.15443864468548768
-1.0562186011797396
-0.9006698220852694
-0.15443864468548768
-1.0562186011797396
-0.9006698220852694
-0.15443864468548768
-1.0562186011797396
-0.9013449952445125
-0.15477791473509278
-1.0563953995100106
-0.9013449952445125
-0.15477791473509278
-1.0563953995100106
-0.9013449952445125
-0.15477791473509278
-1.0563953995100106
-0.9013449952445125
-0.15477791473509278
-1.0563953995100106
-0.9017159408375435
-0.15524604425750738
-1.0562780013808597
-0.9017159408375435
-0.15524604425750738
-1.0562780013808597
-0.9017159408375435
-0.15524604425750738
-1.0562780013808597
-0.9017159408375435
-0.15524604425750738
-1.0562780013808597
-0.9018138126062114
-0.1552976801819703
-1.0562435015381424
-0.9018138126062114
-0.1552976801819703
-1.0562435015381424
-0.9018138126062114
-0.1552976801819703
-1.0562435015381424
-0.9018138126062114
-0.1552976801819703
-1.0562435015381424
-0.9018138126062114
-0.1552976801819703
-1.0562435015381424
-0.9018138126062114
-0.1552976801819703
-1.0562435015381424
-0.9018138126062114
-0.1552976801819703
-1.0562435015381424
-0.9018138126062114
-0.1552976801819703
-1.0562435015381424
-0.9018138126062114
-0.1552976801819703
-1.0562435015381424
-0.9018138126062114
-0.1552976801819703
-1.0562435015381424
-0.9018138126062114
-0.1552976801819703
-1.0562435015381424
-0.9018138126062114
-0.1552976801819703
-1.0562435015381424
-0.9017682094721124
-0.1551493504225377
-1.0563200205176684
-0.9017682094721124
-0.1551493504225377
-1.0563200205176684
-0.9017682094721124
-0.1551493504225377
-1.0563200205176684
-0.9017682094721124
-0.1551493504225377
-1.0563200205176684
-0.9017682094721124
-0.1551493504225377
-1.0563200205176684
-0.9017682094721124
-0.1551493504225377
-1.0563200205176684
-0.9017682094721124
-0.1551493504225377
-1.0563200205176684
-0.9017682094721124
-0.1551493504225377
-1.0563200205176684
-0.9024948237517947
-0.1550714596896241
-1.0565069617442213
-0.9024948237517947
-0.1550714596896241
-1.0565069617442213
-0.9024948237517947
-0.1550714596896241
-1.0565069617442213
-0.9024948237517947
-0.1550714596896241
-1.0565069617442213
-0.9030748361037394
-0.15515289103135063
-1.056557527556504
-0.9030748361037394
-0.15515289103135063
-1.056557527556504
-0.9030748361037394
-0.15515289103135063
-1.056557527556504
-0.9030748361037394
-0.15515289103135063
-1.056557527556504
-0.904119301272716
-0.1553192297854219
-1.0565531438528037
-0.904119301272716
-0.1553192297854219
-1.0565531438528037
-0.904119301272716
-0.1553192297854219
-1.0565531438528037
-0.904119301272716
-0.1553192297854219
-1.0565531438528037
-0.904119301272716
-0.1553192297854219
-1.0565531438528037
-0.904119301272716
-0.1553192297854219
-1.0565531438528037
-0.904119301272716
-0.1553192297854219
-1.0565531438528037
-0.904119301272716
-0.1553192297854219
-1.0565531438528037
-0.9028716163720817
-0.15497394137912615
-1.0564764856445985
-0.9028716163720817
-0.15497394137912615
-1.0564764856445985
-0.9028716163720817
-0.15497394137912615
-1.0564764856445985
-0.9028716163720817
-0.15497394137912615
-1.0564764856445985
-0.9015617250935095
-0.15446673543339298
-1.0567136006780766
-0.9015617250935095
-0.15446673543339298
-1.0567136006780766
-0.9015617250935095
-0.15446673543339298
-1.0567136006780766
-0.9015617250935095
-0.15446673543339298
-1.0567136006780766
-0.9018929629706555
-0.1542209194068183
-1.0567596985559498
-0.9018929629706555
-0.1542209194068183
-1.0567596985559498
-0.9018929629706555
-0.1542209194068183
-1.0567596985559498
-0.9018929629706555
-0.1542209194068183
-1.0567596985559498
-0.9029364898994787
-0.15406672919612915
-1.0567244875913713
-0.9029364898994787
-0.15406672919612915
-1.0567244875913713
-0.9029364898994787
-0.15406672919612915
-1.0567244875913713
-0.9029364898994787
-0.15406672919612915
-1.0567244875913713
-0.9034186706212061
-0.15409660040416084
-1.056809816360326
-0.9034186706212061
-0.15409660040416084
-1.056809816360326
-0.9034186706212061
-0.15409660040416084
-1.056809816360326
-0.9034186706212061
-0.15409660040416084
-1.056809816360326
-0.9028186336714225
-0.15388733694231255
-1.0571255225255354
-0.9028186336714225
-0.15388733694231255
-1.0571255225255354
-0.9028186336714225
-0.15388733694231255
-1.0571255225255354
-0.9028186336714225
-0.15388733694231255
-1.0571255225255354
-0.9024073836642857
-0.15402630731499292
-1.0572535938265646
-0.9024073836642857
-0.15402630731499292
-1.0572535938265646
-0.9024073836642857
-0.15402630731499292
-1.0572535938265646
-0.9024073836642857
-0.15402630731499292
-1.0572535938265646
-0.9029509028892767
-0.15389743272589076
-1.0569932533076807
-0.9029509028892767
-0.15389743272589076
-1.0569932533076807
-0.9029509028892767
-0.15389743272589076
-1.0569932533076807
-0.9029509028892767
-0.15389743272589076
-1.0569932533076807
-0.9038553517839343
-0.15397822764356525
-1.0569717752058774
-0.9038553517839343
-0.15397822764356525
-1.0569717752058774
-0.9038553517839343
-0.15397822764356525
-1.0569717752058774
-0.9038553517839343
-0.15397822764356525
-1.0569717752058774
-0.9038553517839343
-0.15397822764356525
-1.0569717752058774
-0.9038553517839343
-0.15397822764356525
-1.0569717752058774
-0.9038553517839343
-0.15397822764356525
-1.0569717752058774
-0.9038553517839343
-0.15397822764356525
-1.0569717752058774
-0.9024073836642857
-0.15402630731499292
-1.0572535938265646
-0.9024073836642857
-0.15402630731499292
-1.0572535938265646
-0.9024073836642857
-0.15402630731499292
-1.0572535938265646
-0.9024073836642857
-0.15402630731499292
-1.0572535938265646
-0.9023550621740897
-0.15412295081027655
-1.057211534369101
-0.9023550621740897
-0.15412295081027655
-1.057211534369101
-0.9023550621740897
-0.15412295081027655
-1.057211534369101
-0.9023550621740897
-0.15412295081027655
-1.057211534369101
-0.9039615795279805
-0.15442628320729762
-1.0571186014975094
-0.9039615795279805
-0.15442628320729762
-1.0571186014975094
-0.9039615795279805
-0.15442628320729762
-1.0571186014975094
-0.9039615795279805
-0.15442628320729762
-1.0571186014975094
-0.9049831109524389
-0.15436542995779948
-1.0566644786913495
-0.9049831109524389
-0.15436542995779948
-1.0566644786913495
-0.9049831109524389
-0.15436542995779948
-1.0566644786913495
-0.9049831109524389
-0.15436542995779948
-1.0566644786913495
-0.9043762613291705
-0.15440133646622153
-1.056861584433268
-0.9043762613291705
-0.15440133646622153
-1.056861584433268
-0.9043762613291705
-0.15440133646622153
-1.056861584433268
-0.9043762613291705
-0.15440133646622153
-1.056861584433268
-0.9035771913494344
-0.15444797959909629
-1.0569988402138348
-0.9035771913494344
-0.15444797959909629
-1.0569988402138348
-0.9035771913494344
-0.15444797959909629
-1.0569988402138348
-0.9035771913494344
-0.15444797959909629
-1.0569988402138348
-0.9034793974770474
-0.15439631579433538
-1.0570333577710853
-0.9034793974770474
-0.15439631579433538
-1.0570333577710853
-0.9034793974770474
-0.15439631579433538
-1.0570333577710853
-0.9034793974770474
-0.15439631579433538
-1.0570333577710853
-0.9039548093822507
-0.15467118313036574
-1.0569998058146888
-0.9039548093822507
-0.15467118313036574
-1.0569998058146888
-0.9039548093822507
-0.15467118313036574
-1.0569998058146888
-0.9039548093822507
-0.15467118313036574
-1.0569998058146888
-0.9048601631668589
-0.15507262732419555
-1.0570090540876143
-0.9048601631668589
-0.15507262732419555
-1.0570090540876143
-0.9048601631668589
-0.15507262732419555
-1.0570090540876143
-0.9048601631668589
-0.15507262732419555
-1.0570090540876143
-0.9048601631668589
-0.15507262732419555
-1.0570090540876143
-0.9048601631668589
-0.15507262732419555
-1.0570090540876143
-0.9048601631668589
-0.15507262732419555
-1.0570090540876143
-0.9048601631668589
-0.15507262732419555
-1.0570090540876143
-0.9034118941767513
-0.1551207892443328
-1.057291672559016
-0.9034118941767513
-0.1551207892443328
-1.057291672559016
-0.9034118941767513
-0.1551207892443328
-1.057291672559016
-0.9034118941767513
-0.1551207892443328
-1.057291672559016
-0.9034118941767513
-0.1551207892443328
-1.057291672559016
-0.9034118941767513
-0.1551207892443328
-1.057291672559016
-0.9034118941767513
-0.1551207892443328
-1.057291672559016
-0.9034118941767513
-0.1551207892443328
-1.057291672559016
-0.9046300129108115
-0.1550110141369235
-1.0571760049266357
-0.9046300129108115
-0.1550110141369235
-1.0571760049266357
-0.9046300129108115
-0.1550110141369235
-1.0571760049266357
-0.9046300129108115
-0.1550110141369235
-1.0571760049266357
-0.9047413325562667
-0.15457294707371919
-1.0573792028073425
-0.9047413325562667
-0.15457294707371919
-1.0573792028073425
-0.9047413325562667
-0.15457294707371919
-1.0573792028073425
-0.9047413325562667
-0.15457294707371919
-1.0573792028073425
-0.9041211754277887
-0.1542362294636242
-1.0580618580705188
-0.9041211754277887
-0.1542362294636242
-1.0580618580705188
-0.9041211754277887
-0.1542362294636242
-1.0580618580705188
-0.9041211754277887
-0.1542362294636242
-1.0580618580705188
-0.9031212579616583
-0.15467600142442925
-1.0585583431390009
-0.9031212579616583
-0.15467600142442925
-1.0585583431390009
-0.9031212579616583
-0.15467600142442925
-1.0585583431390009
-0.9031212579616583
-0.15467600142442925
-1.0585583431390009
-0.9031746892543053
-0.1552206744637928
-1.0586633130224379
-0.9031746892543053
-0.1552206744637928
-1.0586633130224379
-0.9031746892543053
-0.1552206744637928
-1.0586633130224379
-0.9031746892543053
-0.1552206744637928
-1.0586633130224379
-0.9049142206736003
-0.1558558973511296
-1.0584681897801305
-0.9049142206736003
-0.1558558973511296
-1.0584681897801305
-0.9049142206736003
-0.1558558973511296
-1.0584681897801305
-0.9049142206736003
-0.1558558973511296
-1.0584681897801305
-0.9049142206736003
-0.1558558973511296
-1.0584681897801305
-0.9049142206736003
-0.1558558973511296
-1.0584681897801305
-0.9049142206736003
-0.1558558973511296
-1.0584681897801305
-0.9049142206736003
-0.1558558973511296
-1.0584681897801305
-0.9039478241314657
-0.15593337388895936
-1.058836253855016
-0.9039478241314657
-0.15593337388895936
-1.058836253855016
-0.9039478241314657
-0.15593337388895936
-1.058836253855016
-0.9039478241314657
-0.15593337388895936
-1.058836253855016
-0.9038500480312245
-0.15588166452954974
-1.0588708975597276
-0.9038500480312245
-0.15588166452954974
-1.0588708975597276
-0.9038500480312245
-0.15588166452954974
-1.0588708975597276
-0.9038500480312245
-0.15588166452954974
-1.0588708975597276
-0.904674489119533
-0.1558565874743876
-1.0590229858147946
-0.904674489119533
-0.1558565874743876
-1.0590229858147946
-0.904674489119533
-0.1558565874743876
-1.0590229858147946
-0.904674489119533
-0.1558565874743876
-1.0590229858147946
-0.9051042907794737
-0.1559836326968816
-1.059065743832041
-0.9051042907794737
-0.1559836326968816
-1.059065743832041
-0.9051042907794737
-0.1559836326968816
-1.059065743832041
-0.9051042907794737
-0.1559836326968816
-1.059065743832041
-0.9043651430870837
-0.15632938451614778
-1.0594271413802183
-0.9043651430870837
-0.15632938451614778
-1.0594271413802183
-0.9043651430870837
-0.15632938451614778
-1.0594271413802183
-0.9043651430870837
-0.15632938451614778
-1.0594271413802183
-0.9040065682012336
-0.15701267076815678
-1.059660344912328
-0.9040065682012336
-0.15701267076815678
-1.059660344912328
-0.9040065682012336
-0.15701267076815678
-1.059660344912328
-0.9040065682012336
-0.15701267076815678
-1.059660344912328
-0.9052670671308826
-0.15741133283752265
-1.0592186592177257
-0.9052670671308826
-0.15741133283752265
-1.0592186592177257
-0.9052670671308826
-0.15741133283752265
-1.0592186592177257
-0.9052670671308826
-0.15741133283752265
-1.0592186592177257
-0.9059371361281408
-0.15753754964899258
-1.0587059936498862
-0.9059371361281408
-0.15753754964899258
-1.0587059936498862
-0.9059371361281408
-0.15753754964899258
-1.0587059936498862
-0.9059371361281408
-0.15753754964899258
-1.0587059936498862
-0.9057585442350183
-0.15705860570199087
-1.058884392294437
-0.9057585442350183
-0.15705860570199087
-1.058884392294437
-0.9057585442350183
-0.15705860570199087
-1.058884392294437
-0.9057585442350183
-0.15705860570199087
-1.058884392294437
-0.9056397681501152
-0.15655899352499136
-1.0592548849978765
-0.9056397681501152
-0.15655899352499136
-1.0592548849978765
-0.9056397681501152
-0.15655899352499136
-1.0592548849978765
-0.9056397681501152
-0.15655899352499136
-1.0592548849978765
-0.9052233682129157
-0.15562158495948744
-1.0594189880959688
-0.9052233682129157
-0.15562158495948744
-1.0594189880959688
-0.9052233682129157
-0.15562158495948744
-1.0594189880959688
-0.9052233682129157
-0.15562158495948744
-1.0594189880959688
-0.9064261943895332
-0.15504038613295887
-1.0589721864053574
-0.9064261943895332
-0.15504038613295887
-1.0589721864053574
-0.9064261943895332
-0.15504038613295887
-1.0589721864053574
-0.9064261943895332
-0.15504038613295887
-1.0589721864053574
-0.9081353705529949
-0.15418982106546592
-1.0588705377757308
-0.9081353705529949
-0.15418982106546592
-1.0588705377757308
-0.9081353705529949
-0.15418982106546592
-1.0588705377757308
-0.9081353705529949
-0.15418982106546592
-1.0588705377757308
-0.9082758373681784
-0.15309437897473419
-1.0595822568626099
-0.9082758373681784
-0.15309437897473419
-1.0595822568626099
-0.9082758373681784
-0.15309437897473419
-1.0595822568626099
-0.9082758373681784
-0.15309437897473419
-1.0595822568626099
-0.905016786784347
-0.15007717569216833
-1.060570659710311
-0.905016786784347
-0.15007717569216833
-1.060570659710311
-0.905016786784347
-0.15007717569216833
-1.060570659710311
-0.905016786784347
-0.15007717569216833
-1.060570659710311
-0.9031677185578223
-0.1463574258767081
-1.0594466460264882
-0.9031677185578223
-0.1463574258767081
-1.0594466460264882
-0.9031677185578223
-0.1463574258767081
-1.0594466460264882
-0.9031677185578223
-0.1463574258767081
-1.0594466460264882
-0.9062391789542927
-0.14573150300376583
-1.0572919244442909
-0.9062391789542927
-0.14573150300376583
-1.0572919244442909
-0.9062391789542927
-0.14573150300376583
-1.0572919244442909
-0.9062391789542927
-0.14573150300376583
-1.0572919244442909
-0.9116019735032388
-0.14645733850070092
-1.0554403402153494
-0.9116019735032388
-0.14645733850070092
-1.0554403402153494
-0.9116019735032388
-0.14645733850070092
-1.0554403402153494
-0.9116019735032388
-0.14645733850070092
-1.0554403402153494
-0.9144569007176172
-0.14575623398932266
-1.0549269883753989
-0.9144569007176172
-0.14575623398932266
-1.0549269883753989
-0.9144569007176172
-0.14575623398932266
-1.0549269883753989
-0.9144569007176172
-0.14575623398932266
-1.0549269883753989
-0.9134236184995165
-0.1416398294569633
-1.0559353154824764
-0.9134236184995165
-0.1416398294569633
-1.0559353154824764
-0.9134236184995165
-0.1416398294569633
-1.0559353154824764
-0.9134236184995165
-0.1416398294569633
-1.0559353154824764
-0.9125587251792486
-0.1388101785984698
-1.0565509617559388
-0.9125587251792486
-0.1388101785984698
-1.0565509617559388
-0.9125587251792486
-0.1388101785984698
-1.0565509617559388
-0.9125587251792486
-0.1388101785984698
-1.0565509617559388
-0.9162929435998739
-0.1376307566378146
-1.0565015072904478
-0.9162929435998739
-0.1376307566378146
-1.0565015072904478
-0.9162929435998739
-0.1376307566378146
-1.0565015072904478
-0.9162929435998739
-0.1376307566378146
-1.0565015072904478
-0.9239386340495013
-0.13870910132853675
-1.0559290705337145
-0.9239386340495013
-0.13870910132853675
-1.0559290705337145
-0.9239386340495013
-0.13870910132853675
-1.0559290705337145
-0.9239386340495013
-0.13870910132853675
-1.0559290705337145
-0.9309113355096214
-0.13993768101082038
-1.0546900335666978
-0.9309113355096214
-0.13993768101082038
-1.0546900335666978
-0.9309113355096214
-0.13993768101082038
-1.0546900335666978
-0.9309113355096214
-0.13993768101082038
-1.0546900335666978
-0.9349218632843691
-0.14077479652931169
-1.0537478229570159
-0.9349218632843691
-0.14077479652931169
-1.0537478229570159
-0.9349218632843691
-0.14077479652931169
-1.0537478229570159
-0.9349218632843691
-0.14077479652931169
-1.0537478229570159
-0.9368259475623673
-0.14112370060449503
-1.0525049941152458
-0.9368259475623673
-0.14112370060449503
-1.0525049941152458
-0.9368259475623673
-0.14112370060449503
-1.0525049941152458
-0.9368259475623673
-0.14112370060449503
-1.0525049941152458
-0.9404948312765675
-0.14083871927408617
-1.0522002484076227
-0.9404948312765675
-0.14083871927408617
-1.0522002484076227
-0.9404948312765675
-0.14083871927408617
-1.0522002484076227
-0.9404948312765675
-0.14083871927408617
-1.0522002484076227
-0.948012345732473
-0.14064539678190421
-1.0532476616143716
-0.948012345732473
-0.14064539678190421
-1.0532476616143716
-0.948012345732473
-0.14064539678190421
-1.0532476616143716
-0.948012345732473
-0.14064539678190421
-1.0532476616143716
-0.9529599132215625
-0.14213031888383315
-1.0544558075382886
-0.9529599132215625
-0.14213031888383315
-1.0544558075382886
-0.9529599132215625
-0.14213031888383315
-1.0544558075382886
-0.9529599132215625
-0.14213031888383315
-1.0544558075382886
-0.9556289204908378
-0.14692373664668543
-1.0534409357257393
-0.9556289204908378
-0.14692373664668543
-1.0534409357257393
-0.9556289204908378
-0.14692373664668543
-1.0534409357257393
-0.9556289204908378
-0.14692373664668543
-1.0534409357257393
-0.958840523420078
-0.15109228702027913
-1.0506553197846766
-0.958840523420078
-0.15109228702027913
-1.0506553197846766
-0.958840523420078
-0.15109228702027913
-1.0506553197846766
-0.958840523420078
-0.15109228702027913
-1.0506553197846766
-0.9583309272243145
-0.15324311231276383
-1.0492015725137227
-0.9583309272243145
-0.15324311231276383
-1.0492015725137227
-0.9583309272243145
-0.15324311231276383
-1.0492015725137227
-0.9583309272243145
-0.15324311231276383
-1.0492015725137227
-0.9546132990436054
-0.15386297950078662
-1.0501644134200154
-0.9546132990436054
-0.15386297950078662
-1.0501644134200154
-0.9546132990436054
-0.15386297950078662
-1.0501644134200154
-0.9546132990436054
-0.15386297950078662
-1.0501644134200154
-0.9534065816850027
-0.15433006872944233
-1.051772785508307
-0.9534065816850027
-0.15433006872944233
-1.051772785508307
-0.9534065816850027
-0.15433006872944233
-1.051772785508307
-0.9534065816850027
-0.15433006872944233
-1.051772785508307
-0.9550634353887983
-0.15457178871361818
-1.0523822490181234
-0.9550634353887983
-0.15457178871361818
-1.0523822490181234
-0.9550634353887983
-0.15457178871361818
-1.0523822490181234
-0.9550634353887983
-0.15457178871361818
-1.0523822490181234
-0.957956908697868
-0.15372171812130203
-1.052435402931979
-0.957956908697868
-0.15372171812130203
-1.052435402931979
-0.957956908697868
-0.15372171812130203
-1.052435402931979
-0.957956908697868
-0.15372171812130203
-1.052435402931979
-0.958826383074946
-0.15317061687701297
-1.0527437487535476
-0.958826383074946
-0.15317061687701297
-1.0527437487535476
-0.958826383074946
-0.15317061687701297
-1.0527437487535476
-0.958826383074946
-0.15317061687701297
-1.0527437487535476
-0.9566280392024209
-0.15322680369410743
-1.0538694507187836
-0.9566280392024209
-0.15322680369410743
-1.0538694507187836
-0.9566280392024209
-0.15322680369410743
-1.0538694507187836
-0.9566280392024209
-0.15322680369410743
-1.0538694507187836
-0.9536468394160215
-0.15327978363701594
-1.0552722057705815
-0.9536468394160215
-0.15327978363701594
-1.0552722057705815
-0.9536468394160215
-0.15327978363701594
-1.0552722057705815
-0.9536468394160215
-0.15327978363701594
-1.0552722057705815
-0.9524180426695282
-0.15267974370123383
-1.0561348705863485
-0.9524180426695282
-0.15267974370123383
-1.0561348705863485
-0.9524180426695282
-0.15267974370123383
-1.0561348705863485
-0.9524180426695282
-0.15267974370123383
-1.0561348705863485
-0.9534369954972562
-0.15208463898409805
-1.056450896805302
-0.9534369954972562
-0.15208463898409805
-1.056450896805302
-0.9534369954972562
-0.15208463898409805
-1.056450896805302
-0.9534369954972562
-0.15208463898409805
-1.056450896805302
-0.9545840466479512
-0.151586793247969
-1.0559761690294758
-0.9545840466479512
-0.151586793247969
-1.0559761690294758
-0.9545840466479512
-0.151586793247969
-1.0559761690294758
-0.9545840466479512
-0.151586793247969
-1.0559761690294758
-0.9532174295086144
-0.15086046631706637
-1.056156335655252
-0.9532174295086144
-0.15086046631706637
-1.056156335655252
-0.9532174295086144
-0.15086046631706637
-1.056156335655252
-0.9532174295086144
-0.15086046631706637
-1.056156335655252
-0.9520746441812504
-0.1497987735542821
-1.056941658818513
-0.9520746441812504
-0.1497987735542821
-1.056941658818513
-0.9520746441812504
-0.1497987735542821
-1.056941658818513
-0.9520746441812504
-0.1497987735542821
-1.056941658818513
-0.9517175872399787
-0.14917075466717722
-1.0573426461402284
-0.9517175872399787
-0.14917075466717722
-1.0573426461402284
-0.9517175872399787
-0.14917075466717722
-1.0573426461402284
-0.9517175872399787
-0.14917075466717722
-1.0573426461402284
-0.950305967715115
-0.1484473076079699
-1.0581340946264826
-0.950305967715115
-0.1484473076079699
-1.0581340946264826
-0.950305967715115
-0.1484473076079699
-1.0581340946264826
-0.950305967715115
-0.1484473076079699
-1.0581340946264826
-0.9487812576463792
-0.14787351254125447
-1.0593529608964016
-0.9487812576463792
-0.14787351254125447
-1.0593529608964016
-0.9487812576463792
-0.14787351254125447
-1.0593529608964016
-0.9487812576463792
-0.14787351254125447
-1.0593529608964016
-0.9491224881050466
-0.14701257009062
-1.060830436381465
-0.9491224881050466
-0.14701257009062
-1.060830436381465
-0.9491224881050466
-0.14701257009062
-1.060830436381465
-0.9491224881050466
-0.14701257009062
-1.060830436381465
-0.9511927663465299
-0.14591321772258867
-1.0613767330223314
-0.9511927663465299
-0.14591321772258867
-1.0613767330223314
-0.9511927663465299
-0.14591321772258867
-1.0613767330223314
-0.9511927663465299
-0.14591321772258867
-1.0613767330223314
-0.9524257359000651
-0.14543043832394875
-1.0613870789669582
-0.9524257359000651
-0.14543043832394875
-1.0613870789669582
-0.9524257359000651
-0.14543043832394875
-1.0613870789669582
-0.9524257359000651
-0.14543043832394875
-1.0613870789669582
-0.9523653233788784
-0.14529534671094332
-1.0606604441900829
-0.9523653233788784
-0.14529534671094332
-1.0606604441900829
-0.9523653233788784
-0.14529534671094332
-1.0606604441900829
-0.9523653233788784
-0.14529534671094332
-1.0606604441900829
-0.95135450995374
-0.14487338359239835
-1.060411692343996
-0.95135450995374
-0.14487338359239835
-1.060411692343996
-0.95135450995374
-0.14487338359239835
-1.060411692343996
-0.95135450995374
-0.14487338359239835
-1.060411692343996
-0.9480141381391953
-0.1449391011809187
-1.0614416102104227
-0.9480141381391953
-0.1449391011809187
-1.0614416102104227
-0.9480141381391953
-0.1449391011809187
-1.0614416102104227
-0.9480141381391953
-0.1449391011809187
-1.0614416102104227
-0.9456618282639352
-0.1447734807513897
-1.062910007881594
-0.9456618282639352
-0.1447734807513897
-1.062910007881594
-0.9456618282639352
-0.1447734807513897
-1.062910007881594
-0.9456618282639352
-0.1447734807513897
-1.062910007881594
-0.9478459624013484
-0.14516391328376724
-1.062869690248597
-0.9478459624013484
-0.14516391328376724
-1.062869690248597
-0.9478459624013484
-0.14516391328376724
-1.062869690248597
-0.9478459624013484
-0.14516391328376724
-1.062869690248597
-0.951381091952926
-0.14530108447950227
-1.0620559257039137
-0.951381091952926
-0.14530108447950227
-1.0620559257039137
-0.951381091952926
-0.14530108447950227
-1.0620559257039137
-0.951381091952926
-0.14530108447950227
-1.0620559257039137
-0.951529344760727
-0.1452570159409265
-1.0620650854504485
-0.951529344760727
-0.1452570159409265
-1.0620650854504485
-0.951529344760727
-0.1452570159409265
-1.0620650854504485
-0.951529344760727
-0.1452570159409265
-1.0620650854504485
-0.9489845756512181
-0.14495180229038854
-1.0629390917741641
-0.9489845756512181
-0.14495180229038854
-1.0629390917741641
-0.9489845756512181
-0.14495180229038854
-1.0629390917741641
-0.9489845756512181
-0.14495180229038854
-1.0629390917741641
-0.9460635585059385
-0.144741186158102
-1.0638386656680432
-0.9460635585059385
-0.144741186158102
-1.0638386656680432
-0.9460635585059385
-0.144741186158102
-1.0638386656680432
-0.9460635585059385
-0.144741186158102
-1.0638386656680432
-0.9466863356391054
-0.1448610578813704
-1.0639422474069324
-0.9466863356391054
-0.1448610578813704
-1.0639422474069324
-0.9466863356391054
-0.1448610578813704
-1.0639422474069324
-0.9466863356391054
-0.1448610578813704
-1.0639422474069324
-0.9492490969675045
-0.14543826692499062
-1.0632336826263806
-0.9492490969675045
-0.14543826692499062
-1.0632336826263806
-0.9492490969675045
-0.14543826692499062
-1.0632336826263806
-0.9492490969675045
-0.14543826692499062
-1.0632336826263806
-0.950451102218069
-0.14549222373590964
-1.062854093021173
-0.950451102218069
-0.14549222373590964
-1.062854093021173
-0.950451102218069
-0.14549222373590964
-1.062854093021173
-0.950451102218069
-0.14549222373590964
-1.062854093021173
-0.9498618902324691
-0.14500731589183094
-1.0626305350694822
-0.9498618902324691
-0.14500731589183094
-1.0626305350694822
-0.9498618902324691
-0.14500731589183094
-1.0626305350694822
-0.9498618902324691
-0.14500731589183094
-1.0626305350694822
-0.9482025839015311
-0.14447610994170168
-1.062653936151064
-0.9482025839015311
-0.14447610994170168
-1.062653936151064
-0.9482025839015311
-0.14447610994170168
-1.062653936151064
-0.9482025839015311
-0.14447610994170168
-1.062653936151064
-0.9468953583413717
-0.14429163037627632
-1.062919635063313
-0.9468953583413717
-0.14429163037627632
-1.062919635063313
-0.9468953583413717
-0.14429163037627632
-1.062919635063313
-0.9468953583413717
-0.14429163037627632
-1.062919635063313
-0.9467541635721338
-0.14424309888618655
-1.0635686210234532
-0.9467541635721338
-0.14424309888618655
-1.0635686210234532
-0.9467541635721338
-0.14424309888618655
-1.0635686210234532
-0.9467541635721338
-0.14424309888618655
-1.0635686210234532
-0.9473249425011465
-0.14445833599242455
-1.0636279509730149
-0.9473249425011465
-0.14445833599242455
-1.0636279509730149
-0.9473249425011465
-0.14445833599242455
-1.0636279509730149
-0.9473249425011465
-0.14445833599242455
-1.0636279509730149
-0.9488174510314513
-0.14487645899691604
-1.063298995362561
-0.9488174510314513
-0.14487645899691604
-1.063298995362561
-0.9488174510314513
-0.14487645899691604
-1.063298995362561
-0.9488174510314513
-0.14487645899691604
-1.063298995362561
-0.9495743538939518
-0.14528615605388223
-1.062628901496972
-0.9495743538939518
-0.14528615605388223
-1.062628901496972
-0.9495743538939518
-0.14528615605388223
-1.062628901496972
-0.9495743538939518
-0.14528615605388223
-1.062628901496972
-0.9484785837123245
-0.14532408179102366
-1.0624556505012004
-0.9484785837123245
-0.14532408179102366
-1.0624556505012004
-0.9484785837123245
-0.14532408179102366
-1.0624556505012004
-0.9484785837123245
-0.14532408179102366
-1.0624556505012004
-0.9463126163659358
-0.1452036043282007
-1.0626616514803433
-0.9463126163659358
-0.1452036043282007
-1.0626616514803433
-0.9463126163659358
-0.1452036043282007
-1.0626616514803433
-0.9463126163659358
-0.1452036043282007
-1.0626616514803433
-0.9452070399297097
-0.14508838324304507
-1.0631372056532804
-0.9452070399297097
-0.14508838324304507
-1.0631372056532804
-0.9452070399297097
-0.14508838324304507
-1.0631372056532804
-0.9452070399297097
-0.14508838324304507
-1.0631372056532804
-0.9469504352189946
-0.1448384380469934
-1.0630129683885756
-0.9469504352189946
-0.1448384380469934
-1.0630129683885756
-0.9469504352189946
-0.1448384380469934
-1.0630129683885756
-0.9469504352189946
-0.1448384380469934
-1.0630129683885756
-0.9489497548794062
-0.14484537344216683
-1.0625015004921174
-0.9489497548794062
-0.14484537344216683
-1.0625015004921174
-0.9489497548794062
-0.14484537344216683
-1.0625015004921174
-0.9489497548794062
-0.14484537344216683
-1.0625015004921174
-0.9486605179461914
-0.14480306617981087
-1.062475768282284
-0.9486605179461914
-0.14480306617981087
-1.062475768282284
-0.9486605179461914
-0.14480306617981087
-1.062475768282284
-0.9486605179461914
-0.14480306617981087
-1.062475768282284
-0.9463351483462006
-0.14447645827576336
-1.0630332975316643
-0.9463351483462006
-0.14447645827576336
-1.0630332975316643
-0.9463351483462006
-0.14447645827576336
-1.0630332975316643
-0.9463351483462006
-0.14447645827576336
-1.0630332975316643
-0.9448699429541978
-0.14429402171876535
-1.0638070496761782
-0.9448699429541978
-0.14429402171876535
-1.0638070496761782
-0.9448699429541978
-0.14429402171876535
-1.0638070496761782
-0.9448699429541978
-0.14429402171876535
-1.0638070496761782
-0.9454820220717605
-0.1441635358490187
-1.0642717710880059
-0.9454820220717605
-0.1441635358490187
-1.0642717710880059
-0.9454820220717605
-0.1441635358490187
-1.0642717710880059
-0.9454820220717605
-0.1441635358490187
-1.0642717710880059
-0.9471900950470459
-0.14384642449375062
-1.064376454113182
-0.9471900950470459
-0.14384642449375062
-1.064376454113182
-0.9471900950470459
-0.14384642449375062
-1.064376454113182
-0.9471900950470459
-0.14384642449375062
-1.064376454113182
-0.9471900950470459
-0.14384642449375062
-1.064376454113182
-0.9471900950470459
-0.14384642449375062
-1.064376454113182
-0.9471900950470459
-0.14384642449375062
-1.064376454113182
-0.9471900950470459
-0.14384642449375062
-1.064376454113182
-0.9457945872756692
-0.14347883999205988
-1.064668999532735
-0.9457945872756692
-0.14347883999205988
-1.064668999532735
-0.9457945872756692
-0.14347883999205988
-1.064668999532735
-0.9457945872756692
-0.14347883999205988
-1.064668999532735
-0.9443573628357395
-0.1436059651400542
-1.0650903406320364
-0.9443573628357395
-0.1436059651400542
-1.0650903406320364
-0.9443573628357395
-0.1436059651400542
-1.0650903406320364
-0.9443573628357395
-0.1436059651400542
-1.0650903406320364
-0.9444285847223335
-0.1439888028384691
-1.065456716855908
-0.9444285847223335
-0.1439888028384691
-1.065456716855908
-0.9444285847223335
-0.1439888028384691
-1.065456716855908
-0.9444285847223335
-0.1439888028384691
-1.065456716855908
-0.945971425236468
-0.14399221191065717
-1.0651483492172955
-0.945971425236468
-0.14399221191065717
-1.0651483492172955
-0.945971425236468
-0.14399221191065717
-1.0651483492172955
-0.945971425236468
-0.14399221191065717
-1.0651483492172955
-0.9460235538086371
-0.1438968068220656
-1.0651926231922717
-0.9460235538086371
-0.1438968068220656
-1.0651926231922717
-0.9460235538086371
-0.1438968068220656
-1.0651926231922717
-0.9460235538086371
-0.1438968068220656
-1.0651926231922717
-0.9450411797369245
-0.1437093327168567
-1.0653871981982317
-0.9450411797369245
-0.1437093327168567
-1.0653871981982317
-0.9450411797369245
-0.1437093327168567
-1.0653871981982317
-0.9450411797369245
-0.1437093327168567
-1.0653871981982317
-0.9436117838356861
-0.14359324740668836
-1.065932285038164
-0.9436117838356861
-0.14359324740668836
-1.065932285038164
-0.9436117838356861
-0.14359324740668836
-1.065932285038164
-0.9436117838356861
-0.14359324740668836
-1.065932285038164
-0.9436458031326015
-0.14337751173037921
-1.0663450022590995
-0.9436458031326015
-0.14337751173037921
-1.0663450022590995
-0.9436458031326015
-0.14337751173037921
-1.0663450022590995
-0.9436458031326015
-0.14337751173037921
-1.0663450022590995
-0.944662256465617
-0.14320074844399408
-1.0660293710425655
-0.944662256465617
-0.14320074844399408
-1.0660293710425655
-0.944662256465617
-0.14320074844399408
-1.0660293710425655
-0.944662256465617
-0.14320074844399408
-1.0660293710425655
-0.9447144649965928
-0.14310534641825293
-1.066073584499411
-0.9447144649965928
-0.14310534641825293
-1.066073584499411
-0.9447144649965928
-0.14310534641825293
-1.066073584499411
-0.9447144649965928
-0.14310534641825293
-1.066073584499411
-0.944074669726637
-0.1431857957409376
-1.066362938511481
-0.944074669726637
-0.1431857957409376
-1.066362938511481
-0.944074669726637
-0.1431857957409376
-1.066362938511481
-0.944074669726637
-0.1431857957409376
-1.066362938511481
-0.9439339325821552
-0.14313611372289992
-1.0670117207879632
-0.9439339325821552
-0.14313611372289992
-1.0670117207879632
-0.9439339325821552
-0.14313611372289992
-1.0670117207879632
-0.9439339325821552
-0.14313611372289992
-1.0670117207879632
-0.9443537759812151
-0.14290294810885384
-1.0675469164516067
-0.9443537759812151
-0.14290294810885384
-1.0675469164516067
-0.9443537759812151
-0.14290294810885384
-1.0675469164516067
-0.9443537759812151
-0.14290294810885384
-1.0675469164516067
-0.9450630612880552
-0.1425636510883478
-1.067574154569295
-0.9450630612880552
-0.1425636510883478
-1.067574154569295
-0.9450630612880552
-0.1425636510883478
-1.067574154569295
-0.9450630612880552
-0.1425636510883478
-1.067574154569295
-0.946158736626386
-0.14249050150727907
-1.067083255583633
-0.946158736626386
-0.14249050150727907
-1.067083255583633
-0.946158736626386
-0.14249050150727907
-1.067083255583633
-0.946158736626386
-0.14249050150727907
-1.067083255583633
-0.946158736626386
-0.14249050150727907
-1.067083255583633
-0.946158736626386
-0.14249050150727907
-1.067083255583633
-0.946158736626386
-0.14249050150727907
-1.067083255583633
-0.946158736626386
-0.14249050150727907
-1.067083255583633
-0.9453343802299347
-0.14233714801554775
-1.0674347531536443
-0.9453343802299347
-0.14233714801554775
-1.0674347531536443
-0.9453343802299347
-0.14233714801554775
-1.0674347531536443
-0.9453343802299347
-0.14233714801554775
-1.0674347531536443
-0.9451938238942129
-0.14225054451091923
-1.0674176787145015
-0.9451938238942129
-0.14225054451091923
-1.0674176787145015
-0.9451938238942129
-0.14225054451091923
-1.0674176787145015
-0.9451938238942129
-0.14225054451091923
-1.0674176787145015
-0.9457550677839702
-0.14238809652836815
-1.0673293104019228
-0.9457550677839702
-0.14238809652836815
-1.0673293104019228
-0.9457550677839702
-0.14238809652836815
-1.0673293104019228
-0.9457550677839702
-0.14238809652836815
-1.0673293104019228
-0.9450361847497948
-0.1422155134862645
-1.0672600395700835
-0.9450361847497948
-0.1422155134862645
-1.0672600395700835
-0.9450361847497948
-0.1422155134862645
-1.0672600395700835
-0.9450361847497948
-0.1422155134862645
-1.0672600395700835
-0.9438352942446262
-0.14215797053703338
-1.06763732200727
-0.9438352942446262
-0.14215797053703338
-1.06763732200727
-0.9438352942446262
-0.14215797053703338
-1.06763732200727
-0.9438352942446262
-0.14215797053703338
-1.06763732200727
-0.9438352942446262
-0.14215797053703338
-1.06763732200727
-0.9438352942446262
-0.14215797053703338
-1.06763732200727
-0.9438352942446262
-0.14215797053703338
-1.06763732200727
-0.9438352942446262
-0.14215797053703338
-1.06763732200727
-0.9450452172587477
-0.14229413852765754
-1.0674086489948456
-0.9450452172587477
-0.14229413852765754
-1.0674086489948456
-0.9450452172587477
-0.14229413852765754
-1.0674086489948456
-0.9450452172587477
-0.14229413852765754
-1.0674086489948456
-0.9459749353473156
-0.14257795061826334
-1.0671705305165058
-0.9459749353473156
-0.14257795061826334
-1.0671705305165058
-0.9459749353473156
-0.14257795061826334
-1.0671705305165058
-0.9459749353473156
-0.14257795061826334
-1.0671705305165058
-0.9449927651777317
-0.1425017506812565
-1.067232717134497
-0.9449927651777317
-0.1425017506812565
-1.067232717134497
-0.9449927651777317
-0.1425017506812565
-1.067232717134497
-0.9449927651777317
-0.1425017506812565
-1.067232717134497
-0.9431962448112154
-0.14255886606981125
-1.067951655679608
-0.9431962448112154
-0.14255886606981125
-1.067951655679608
-0.9431962448112154
-0.14255886606981125
-1.067951655679608
-0.9431962448112154
-0.14255886606981125
-1.067951655679608
-0.9431962448112154
-0.14255886606981125
-1.067951655679608
-0.9431962448112154
-0.14255886606981125
-1.067951655679608
-0.9431962448112154
-0.14255886606981125
-1.067951655679608
-0.9431962448112154
-0.14255886606981125
-1.067951655679608
-0.9442297875559746
-0.14233134288784222
-1.0677769313603678
-0.9442297875559746
-0.14233134288784222
-1.0677769313603678
-0.9442297875559746
-0.14233134288784222
-1.0677769313603678
-0.9442297875559746
-0.14233134288784222
-1.0677769313603678
-0.9450100145667008
-0.14233791685186248
-1.0675049741199327
-0.9450100145667008
-0.14233791685186248
-1.0675049741199327
-0.9450100145667008
-0.14233791685186248
-1.0675049741199327
-0.9450100145667008
-0.14233791685186248
-1.0675049741199327
-0.9445803133536972
-0.14220830114980873
-1.0674617588670774
-0.9445803133536972
-0.14220830114980873
-1.0674617588670774
-0.9445803133536972
-0.14220830114980873
-1.0674617588670774
-0.9445803133536972
-0.14220830114980873
-1.0674617588670774
-0.9434669501303833
-0.14201148043704334
-1.067786816527053
-0.9434669501303833
-0.14201148043704334
-1.067786816527053
-0.9434669501303833
-0.14201148043704334
-1.067786816527053
-0.9434669501303833
-0.14201148043704334
-1.067786816527053
-0.9433182672321668
-0.14205504656672593
-1.0677778216095433
-0.9433182672321668
-0.14205504656672593
-1.0677778216095433
-0.9433182672321668
-0.14205504656672593
-1.0677778216095433
-0.9433182672321668
-0.14205504656672593
-1.0677778216095433
-0.943887614092301
-0.1420626033428441
-1.0676814914985238
-0.943887614092301
-0.1420626033428441
-1.0676814914985238
-0.943887614092301
-0.1420626033428441
-1.0676814914985238
-0.943887614092301
-0.1420626033428441
-1.0676814914985238
-0.9451407477525283
-0.14202481227798863
-1.06734850967
-0.9451407477525283
-0.14202481227798863
-1.06734850967
-0.9451407477525283
-0.14202481227798863
-1.06734850967
-0.9451407477525283
-0.14202481227798863
-1.06734850967
-0.9451407477525283
-0.14202481227798863
-1.06734850967
-0.9451407477525283
-0.14202481227798863
-1.06734850967
-0.9451407477525283
-0.14202481227798863
-1.06734850967
-0.9451407477525283
-0.14202481227798863
-1.06734850967
-0.9447196334421502
-0.14168982768352317
-1.06809464071206
-0.9447196334421502
-0.14168982768352317
-1.06809464071206
-0.9447196334421502
-0.14168982768352317
-1.06809464071206
-0.9447196334421502
-0.14168982768352317
-1.06809464071206
-0.9447196334421502
-0.14168982768352317
-1.06809464071206
-0.9447196334421502
-0.14168982768352317
-1.06809464071206
-0.9447196334421502
-0.14168982768352317
-1.06809464071206
-0.9447196334421502
-0.14168982768352317
-1.06809464071206
-0.9447196334421502
-0.14168982768352317
-1.06809464071206
-0.9447196334421502
-0.14168982768352317
-1.06809464071206
-0.9447196334421502
-0.14168982768352317
-1.06809464071206
-0.9447196334421502
-0.14168982768352317
-1.06809464071206
-0.944675420616001
-0.1416550061629986
-1.0680423076426675
-0.944675420616001
-0.1416550061629986
-1.0680423076426675
-0.944675420616001
-0.1416550061629986
-1.0680423076426675
-0.944675420616001
-0.1416550061629986
-1.0680423076426675
-0.944675420616001
-0.1416550061629986
-1.0680423076426675
-0.944675420616001
-0.1416550061629986
-1.0680423076426675
-0.944675420616001
-0.1416550061629986
-1.0680423076426675
-0.944675420616001
-0.1416550061629986
-1.0680423076426675
-0.944675420616001
-0.1416550061629986
-1.0680423076426675
-0.944675420616001
-0.1416550061629986
-1.0680423076426675
-0.944675420616001
-0.1416550061629986
-1.0680423076426675
-0.944675420616001
-0.1416550061629986
-1.0680423076426675
-0.9437908559868186
-0.1417265143226108
-1.0683573095951662
-0.9437908559868186
-0.1417265143226108
-1.0683573095951662
-0.9437908559868186
-0.1417265143226108
-1.0683573095951662
-0.9437908559868186
-0.1417265143226108
-1.0683573095951662
-0.9429935340816116
-0.14192008175227022
-1.069022745405668
-0.9429935340816116
-0.14192008175227022
-1.069022745405668
-0.9429935340816116
-0.14192008175227022
-1.069022745405668
-0.9429935340816116
-0.14192008175227022
-1.069022745405668
-0.9431251710477758
-0.14196484303698556
-1.0695571430784891
-0.9431251710477758
-0.14196484303698556
-1.0695571430784891
-0.9431251710477758
-0.14196484303698556
-1.0695571430784891
-0.9431251710477758
-0.14196484303698556
-1.0695571430784891
-0.9446237884649507
-0.1422578139862192
-1.0692230480488358
-0.9446237884649507
-0.1422578139862192
-1.0692230480488358
-0.9446237884649507
-0.1422578139862192
-1.0692230480488358
-0.9446237884649507
-0.1422578139862192
-1.0692230480488358
-0.9447642493073711
-0.14234453736184322
-1.069240193759071
-0.9447642493073711
-0.14234453736184322
-1.069240193759071
-0.9447642493073711
-0.14234453736184322
-1.069240193759071
-0.9447642493073711
-0.14234453736184322
-1.069240193759071
-0.9436685978811614
-0.14241618033757256
-1.0697310027660822
-0.9436685978811614
-0.14241618033757256
-1.0697310027660822
-0.9436685978811614
-0.14241618033757256
-1.0697310027660822
-0.9436685978811614
-0.14241618033757256
-1.0697310027660822
-0.9424854896426244
-0.14251380983640335
-1.0704058479552476
-0.9424854896426244
-0.14251380983640335
-1.0704058479552476
-0.9424854896426244
-0.14251380983640335
-1.0704058479552476
-0.9424854896426244
-0.14251380983640335
-1.0704058479552476
-0.9428447414400711
-0.14261884757543397
-1.0707735236655254
-0.9428447414400711
-0.14261884757543397
-1.0707735236655254
-0.9428447414400711
-0.14261884757543397
-1.0707735236655254
-0.9428447414400711
-0.14261884757543397
-1.0707735236655254
-0.9443169653926173
-0.14260165010863748
-1.0707905667525566
-0.9443169653926173
-0.14260165010863748
-1.0707905667525566
-0.9443169653926173
-0.14260165010863748
-1.0707905667525566
-0.9443169653926173
-0.14260165010863748
-1.0707905667525566
-0.9445709374399994
-0.14225546759473837
-1.0710195579177602
-0.9445709374399994
-0.14225546759473837
-1.0710195579177602
-0.9445709374399994
-0.14225546759473837
-1.0710195579177602
-0.9445709374399994
-0.14225546759473837
-1.0710195579177602
-0.9441939957899832
-0.14174568891313719
-1.0716610416680343
-0.9441939957899832
-0.14174568891313719
-1.0716610416680343
-0.9441939957899832
-0.14174568891313719
-1.0716610416680343
-0.9441939957899832
-0.14174568891313719
-1.0716610416680343
-0.9438262228084514
-0.14163527263080455
-1.07247636694063
-0.9438262228084514
-0.14163527263080455
-1.07247636694063
-0.9438262228084514
-0.14163527263080455
-1.07247636694063
-0.9438262228084514
-0.14163527263080455
-1.07247636694063
-0.9441156521431223
-0.14139481340483398
-1.0731431585060232
-0.9441156521431223
-0.14139481340483398
-1.0731431585060232
-0.9441156521431223
-0.14139481340483398
-1.0731431585060232
-0.9441156521431223
-0.14139481340483398
-1.0731431585060232
-0.9452897695963081
-0.1415779421809826
-1.0730113274949824
-0.9452897695963081
-0.1415779421809826
-1.0730113274949824
-0.9452897695963081
-0.1415779421809826
-1.0730113274949824
-0.9452897695963081
-0.1415779421809826
-1.0730113274949824
-0.9453859235173963
-0.14162997632770405
-1.0729760313367178
-0.9453859235173963
-0.14162997632770405
-1.0729760313367178
-0.9453859235173963
-0.14162997632770405
-1.0729760313367178
-0.9453859235173963
-0.14162997632770405
-1.0729760313367178
-0.9442206630071279
-0.1415254542167109
-1.0732566607419383
-0.9442206630071279
-0.1415254542167109
-1.0732566607419383
-0.9442206630071279
-0.1415254542167109
-1.0732566607419383
-0.9442206630071279
-0.1415254542167109
-1.0732566607419383
-0.9442206630071279
-0.1415254542167109
-1.0732566607419383
-0.9442206630071279
-0.1415254542167109
-1.0732566607419383
-0.9442206630071279
-0.1415254542167109
-1.0732566607419383
-0.9442206630071279
-0.1415254542167109
-1.0732566607419383
-0.9453947799711686
-0.14170864063916802
-1.0731247443216307
-0.9453947799711686
-0.14170864063916802
-1.0731247443216307
-0.9453947799711686
-0.14170864063916802
-1.0731247443216307
-0.9453947799711686
-0.14170864063916802
-1.0731247443216307
-0.9463760800135601
-0.14189985484436177
-1.0729312066505325
-0.9463760800135601
-0.14189985484436177
-1.0729312066505325
-0.9463760800135601
-0.14189985484436177
-1.0729312066505325
-0.9463760800135601
-0.14189985484436177
-1.0729312066505325
-0.9462181115045472
-0.14201407505227667
-1.0733075015546816
-0.9462181115045472
-0.14201407505227667
-1.0733075015546816
-0.9462181115045472
-0.14201407505227667
-1.0733075015546816
-0.9462181115045472
-0.14201407505227667
-1.0733075015546816
-0.9458676208524645
-0.14234523945150676
-1.073779556360074
-0.9458676208524645
-0.14234523945150676
-1.073779556360074
-0.9458676208524645
-0.14234523945150676
-1.073779556360074
-0.9458676208524645
-0.14234523945150676
-1.073779556360074
-0.9466028544627866
-0.14307322871701963
-1.0733729045633715
-0.9466028544627866
-0.14307322871701963
-1.0733729045633715
-0.9466028544627866
-0.14307322871701963
-1.0733729045633715
-0.9466028544627866
-0.14307322871701963
-1.0733729045633715
-0.9484178021960079
-0.14442373815760173
-1.072383062468907
-0.9484178021960079
-0.14442373815760173
-1.072383062468907
-0.9484178021960079
-0.14442373815760173
-1.072383062468907
-0.9484178021960079
-0.14442373815760173
-1.072383062468907
-0.9498206457789238
-0.14638359546312305
-1.0720712328695838
-0.9498206457789238
-0.14638359546312305
-1.0720712328695838
-0.9498206457789238
-0.14638359546312305
-1.0720712328695838
-0.9498206457789238
-0.14638359546312305
-1.0720712328695838
-0.9492297376850882
-0.15016280462759332
-1.0730765025261488
-0.9492297376850882
-0.15016280462759332
-1.0730765025261488
-0.9492297376850882
-0.15016280462759332
-1.0730765025261488
-0.9492297376850882
-0.15016280462759332
-1.0730765025261488
-0.9494076000604752
-0.15666370905301774
-1.0735904389301658
-0.9494076000604752
-0.15666370905301774
-1.0735904389301658
-0.9494076000604752
-0.15666370905301774
-1.0735904389301658
-0.9494076000604752
-0.15666370905301774
-1.0735904389301658
-0.9577725194205722
-0.16258991155727373
-1.0723714771361792
-0.9577725194205722
-0.16258991155727373
-1.0723714771361792
-0.9577725194205722
-0.16258991155727373
-1.0723714771361792
-0.9577725194205722
-0.16258991155727373
