-1
-2
-23
-9
-4
-3
-2
-2
-1
0
15
3
3
3
4
1
-1
-2
-14
-2
-2
-3
-5
-3
0
-1
2
1
-2
-2
1
-1
0
3
8
-1
-2
-4
-5
0
0
1
-21
-4
-1
-1
-4
0
-2
-4
1
-3
-3
0
6
-3
-2
-1
-2
2
0
0
0
0
-1
0
19
1
-2
1
0
-1
-1
-3
-31
-2
0
0
-2
-1
-2
-1
-3
-3
-2
0
0
1
-1
1
7
1
3
1
1
-1
-3
-2
3
-1
-2
-1
-1
0
-1
-2
-2
1
-3
-2
-3
-2
1
-2
-9
-10
0
-2
-3
-2
0
-2
15
7
-1
-2
1
-2
-1
1
-3
0
0
0
-1
1
-2
0
1
-1
0
-1
1
0
-1
0
-5
0
-1
0
-4
-2
0
2
11
-3
-1
1
-1
-1
-1
-5
-16
-9
-1
0
0
-1
1
2
8
3
-2
1
-3
0
-3
-3
-18
-5
-2
-3
6
-1
-2
-1
-4
3
1
-1
0
0
0
2
16
4
-2
5
-7
-3
2
1
7
3
0
1
-1
-2
0
0
0
-2
0
-2
-4
1
0
-4
0
-5
-2
-5
-2
-1
-3
-5
10
-3
-1
-4
3
0
0
1
-2
3
-1
-1
1
0
0
3
11
5
-1
-1
-4
0
1
0
-7
0
4
4
4
0
-1
-6
-24
-9
-2
0
-1
-2
0
-1
-1
1
-1
-1
1
-2
-3
-5
14
-9
-7
-5
-4
-2
-1
1
4
0
1
-1
0
0
1
0
-5
7
2
0
-2
-1
-3
-2
-4
-3
2
1
1
-1
1
2
-4
4
1
1
0
-1
0
-2
-10
-4
-3
0
-2
0
0
2
14
5
-3
-1
2
-1
0
-4
-8
-7
-3
-2
-1
-1
0
-1
-5
3
1
-3
-2
0
-2
-4
-13
-7
-4
-2
-2
-1
-1
1
-1
0
3
0
2
0
0
-1
-12
-5
-5
-4
-6
-2
1
2
-4
3
2
3
2
1
-1
-2
20
5
-1
-3
-3
-3
0
1
-19
-2
0
-2
-5
0
-1
-1
16
-1
1
1
10
-3
-1
-1
-14
-2
0
-2
-9
-2
-1
-1
-9
-4
-5
-3
1
0
0
0
8
0
0
0
0
-3
-2
-3
-6
-4
-1
0
-5
0
-1
0
0
1
-2
-2
5
1
0
2
4
6
3
1
-1
-1
0
-3
-4
-5
-3
-4
-1
0
-2
2
5
0
-3
-1
2
-1
0
-1
1
2
0
-1
-5
-1
0
-2
2
-4
0
3
3
1
0
-2
13
0
-1
0
-2
-3
1
1
-7
2
1
-1
-2
-1
-1
-3
-15
-5
1
-1
-2
0
-1
1
-3
1
-1
1
2
-1
-1
-4
-1
-7
-1
1
1
-1
-2
-1
8
-3
-2
0
-1
0
0
3
14
7
-1
-2
1
-1
-1
-2
1
-2
-3
-5
-5
-1
-1
-2
-17
-4
2
3
9
0
-1
-1
1
-2
1
0
-9
0
0
2
8
-1
-1
-1
1
0
1
-1
9
5
0
-2
2
1
-1
2
-1
-3
-6
-5
-10
-1
-1
-2
0
-2
-1
-1
6
-2
0
-2
-6
-1
0
1
-1
-1
-1
1
3
-2
-3
-2
-3
0
-1
-2
-5
2
1
0
-1
-1
0
-1
-1
3
-2
-1
-1
0
0
-2
5
-2
-1
-1
0
-1
-1
-1
3
0
1
1
-1
-4
-1
0
-7
0
1
-1
0
0
-1
0
-4
1
-1
1
0
0
-2
-2
1
-3
-1
-2
-2
-1
1
-1
-3
-2
2
2
1
1
1
2
-2
2
0
-3
-2
-1
-1
-2
4
-9
-4
-1
4
0
-1
-1
-14
0
2
-3
-7
-2
-3
-1
-8
-4
-3
-2
-2
-1
-1
2
12
7
0
1
0
2
1
-1
-16
-4
1
-1
-1
-1
-1
-3
3
-1
-2
0
4
0
0
0
3
-2
-1
-2
-5
-2
1
0
3
0
-2
-2
0
-1
0
-3
2
2
0
-1
-2
1
0
0
-9
0
-1
1
1
1
-1
-3
-1
-4
-4
-4
0
-1
-2
-2
-6
-3
-3
-2
-2
-2
-2
0
-2
-2
-5
-3
-6
-1
0
0
3
1
-1
-3
-1
-2
-1
-1
6
4
2
1
6
2
1
0
-10
-1
2
2
-2
-2
-1
0
2
1
-1
0
1
-1
-1
-1
-1
-6
-4
-1
2
0
-2
-3
6
-2
-1
-1
-6
-2
-1
-2
-8
0
-2
-1
0
-1
-2
-2
-14
0
-1
-1
-1
-2
2
-1
18
-4
-2
-1
-1
0
-1
0
-7
2
0
-1
-1
0
-2
-4
9
-4
-1
-1
0
0
-1
1
-9
4
-2
-2
-1
0
0
-2
-6
-5
-6
-3
0
-3
-1
-1
-2
-1
-2
0
-2
-1
-1
-1
-2
0
2
0
5
1
0
1
5
1
-1
-2
-7
-2
-4
-1
12
4
0
1
-3
-1
1
-1
-7
-3
-1
-1
1
-1
-2
-2
-5
-1
-3
-1
1
-2
0
2
24
-3
1
-1
1
-1
-3
-7
-24
-1
1
1
0
-2
-3
1
-6
0
-5
-1
-3
-1
-1
1
-2
0
-4
-2
-3
-1
0
-1
7
0
5
1
-2
0
2
-2
-8
1
0
-1
0
0
-2
0
11
-1
-1
-3
-1
-1
-2
1
1
1
0
-1
1
0
-3
-1
-2
-4
-3
-2
-1
-1
-1
1
2
2
0
-1
1
-1
1
-1
-9
-5
-2
-3
-3
-1
-1
2
15
7
-1
0
1
-1
-2
-3
-1
-4
0
-1
2
0
0
1
0
3
1
-1
-3
-1
0
1
20
-1
1
1
0
-1
-2
-5
-8
-7
-4
-2
-4
-2
-2
-6
-17
-1
-2
-1
4
-1
-1
2
8
4
1
1
-2
0
-1
-1
-5
-1
-1
-1
1
1
0
3
2
-1
-1
-2
-2
-1
-1
1
0
-1
-1
-1
0
0
-1
1
2
-3
-4
-2
-8
-1
-2
-2
13
3
0
1
3
0
0
-1
1
-3
-3
1
0
0
-1
1
-3
1
-1
-2
-2
0
0
-2
-17
-5
-1
1
2
0
0
1
6
0
-1
-1
-3
1
-1
0
-19
1
2
2
-2
-1
-3
-2
9
-4
-4
-2
-1
-1
0
1
0
6
4
2
-2
-2
-1
-4
3
-5
-4
0
0
1
-1
-3
-26
-6
-1
-4
-4
-2
0
1
6
0
0
2
3
-1
-1
-4
-12
-6
-4
-1
3
-1
0
-1
-10
4
2
-2
-1
-2
-1
0
21
2
0
0
0
-1
-1
-1
-7
-2
-3
0
1
1
-2
-1
-1
-2
-3
-4
-5
-1
0
1
-6
-2
-1
0
0
-2
1
0
1
0
-1
-1
1
0
0
-3
-5
0
-1
1
-4
-1
1
1
4
0
2
1
1
0
-1
-1
24
6
-1
-4
-6
-1
-2
0
10
9
0
0
5
1
1
-2
-30
-4
-2
-1
-5
-2
-5
-10
-18
-14
-9
-6
-3
-2
0
3
-5
-8
1
2
1
0
-1
-1
7
5
2
2
-2
0
0
0
19
0
0
0
0
-1
1
3
12
6
0
-2
-2
0
-1
4
-26
-4
0
-1
0
-1
0
-4
-14
-6
-1
-3
-2
-2
0
-3
-6
0
0
-1
0
-1
0
-2
8
-7
-4
-2
3
1
-5
-2
-12
-4
-5
-5
-3
-3
-2
-2
-12
-6
-4
-1
-8
-2
-1
1
12
5
1
-2
-1
-3
0
-2
-6
5
3
6
9
1
2
-1
8
6
2
1
-2
-1
0
-3
-15
-10
0
-2
6
-2
-3
-1
11
2
-5
-3
-6
-1
-2
3
8
4
-1
-1
1
1
-2
-6
-3
-1
-2
-1
-1
-1
-2
-3
-8
-8
-1
-2
-9
-4
0
-1
2
1
1
1
1
-1
-1
4
-8
8
1
1
1
-2
0
2
10
-4
-2
0
1
2
-3
-13
-14
-2
-7
-2
1
-2
1
0
16
1
3
0
-4
0
-1
0
0
3
3
-2
-2
1
0
2
-15
2
1
2
0
1
0
11
27
3
1
-1
3
-2
2
-13
-20
-6
-3
1
0
-3
-3
1
-3
-5
-7
-13
-5
-3
-1
-5
1
-1
2
4
-1
1
-2
2
9
0
-2
-4
-11
-1
-3
5
-1
1
-2
0
1
-2
1
-3
-4
-2
1
-2
11
5
-1
-7
-8
-3
-2
-11
-3
2
-7
3
5
1
0
8
-7
-1
8
1
-4
1
2
0
-8
-11
6
3
11
1
-1
-1
1
3
3
-15
-17
-6
-2
7
9
7
12
3
3
7
-1
-11
2
42
-4
3
-2
-1
-1
-16
7
-56
-14
-8
-3
2
2
20
-39
-9
7
-11
-8
0
4
13
46
-19
15
-3
7
0
0
19
45
71
-57
7
1
-9
-3
-15
-46
-53
-37
-13
-8
-7
-8
-36
-5
43
23
-15
-20
2
-1
-8
-4
-55
-12
2
-3
0
-2
12
-11
19
23
17
-6
5
-3
-10
68
63
12
18
9
8
10
51
-39
-59
-19
-19
1
-25
-19
-64
-63
10
-11
-17
20
-8
5
24
77
-60
40
16
-8
-5
-2
-16
-108
52
-7
-1
0
6
-1
28
127
-57
-57
16
9
1
-1
6
-18
-79
76
-3
2
-10
-10
-30
5
16
-53
-9
14
15
8
26
30
27
88
16
13
9
-5
-59
-34
113
-66
-14
-37
5
7
69
20
-4
34
9
-25
-28
-12
-21
-2
-38
40
14
18
14
6
34
102
101
-5
18
11
11
5
0
6
69
73
-28
6
3
-9
-6
-48
37
-98
-17
-12
-18
-13
-49
-93
-56
39
-24
-9
-5
1
19
-1
-26
44
17
18
15
2
-34
-21
35
-27
34
2
8
-3
-26
71
115
43
44
26
23
15
56
-27
-46
-109
-38
1
-35
-9
58
35
-128
4
54
52
2
1
-10
-28
-41
-29
-12
-61
4
8
-17
52
61
66
-4
16
1
-5
-6
-74
-3
26
7
-21
1
-7
-67
-17
-9
-2
-4
21
-17
-5
93
-6
-47
-40
22
18
15
9
-24
-49
23
-33
-14
-20
-5
4
12
20
58
5
-11
-1
4
-4
-70
-23
36
-18
-29
-41
2
18
63
75
45
-7
-34
25
-22
-13
-43
-87
-88
23
7
-5
1
-2
38
26
-25
101
-13
-37
-8
-1
-5
-49
52
-100
-69
-56
-21
-13
-46
-45
-50
-1
31
11
10
-6
-69
-84
60
-40
-70
15
0
13
43
62
8
18
58
29
6
3
-55
-59
-89
18
-13
-15
-3
-1
35
34
56
100
24
15
12
7
28
38
61
-90
7
-10
12
-10
-119
-87
3
-8
-1
5
-1
6
110
61
79
87
26
20
-11
-7
-62
-128
-36
-45
37
34
13
7
58
43
-26
22
7
-43
-5
5
31
0
11
-95
-45
-10
-7
-5
5
46
34
32
6
24
2
-5
-43
-17
-18
-20
9
-7
0
-2
14
22
-3
56
4
12
-9
-9
8
17
50
-8
-11
-73
-2
-2
33
-5
59
-8
-18
-41
-15
-6
-33
10
-11
58
-4
46
7
0
-40
-22
22
-81
-3
44
15
12
56
34
-44
21
-4
-21
-14
1
-2
11
-79
-38
0
1
2
0
29
38
-6
0
-35
-10
-7
-6
-9
-13
-28
-29
10
-3
11
-2
-42
40
53
-68
-25
12
-9
-12
-22
-58
-47
50
27
4
5
2
-5
-47
-38
-26
-5
-5
-9
-1
1
-10
-21
62
-21
-22
-5
-11
-24
-4
-45
-4
24
32
9
-2
-29
-10
-18
-19
16
-1
-4
0
9
108
-38
30
-7
10
-12
-8
-3
-34
-8
-18
18
10
16
9
23
27
40
42
-14
-36
-8
4
-21
-13
7
-10
-26
-46
-19
-12
-10
-36
-40
26
4
-26
-2
-7
-11
3
22
-23
10
9
10
3
-3
1
-5
16
15
33
7
4
1
-16
21
-83
-15
-5
-2
2
6
19
-35
-20
-32
-21
-17
-1
34
37
-60
4
7
-4
-5
-1
-5
-44
-23
-46
2
31
12
1
-20
50
20
92
6
1
9
15
77
44
34
14
12
-1
0
3
-2
-26
3
-38
18
20
8
6
22
55
-9
60
-13
-11
-7
-11
-17
-40
-51
-115
-29
-14
-1
-1
34
42
10
27
19
13
7
0
8
34
-32
3
-7
-14
-10
-2
-19
-29
6
4
15
19
8
3
32
17
51
-43
1
7
4
-5
-41
-32
58
3
-16
-13
-6
1
21
-1
-48
25
19
8
-3
-7
-46
-43
5
21
3
-1
3
6
6
-12
-19
-7
1
28
-5
-11
-67
-44
7
14
-17
-18
13
14
53
70
74
75
-8
-15
-18
-15
-71
-52
-4
7
-8
6
-4
6
70
30
24
59
-14
-11
-7
-9
-38
-2
39
8
12
20
7
-2
-18
-37
-2
9
-3
-11
1
0
3
9
1
7
-5
24
8
-1
-22
6
24
-7
12
-11
5
2
-8
-23
-21
-26
3
19
-5
0
13
3
5
56
4
-24
-5
-2
14
-25
-21
-17
3
-15
-5
-2
-8
10
-20
1
1
24
5
2
5
-29
26
-12
-12
-13
-5
-8
-28
-37
1
-41
-10
14
5
4
21
35
18
14
15
16
2
1
6
9
4
-27
-43
-65
-19
-6
-2
22
-31
-22
2
-8
-4
-2
5
2
-27
-3
0
8
-2
-2
-7
21
41
-30
-8
11
3
-1
-1
-4
49
-10
5
9
8
2
18
12
5
-11
6
-8
-11
-7
-22
-1
-12
-30
-21
-23
-5
-2
10
24
-29
-18
11
-22
-4
-2
-31
-44
24
22
18
11
3
4
19
30
14
82
7
24
10
-4
-23
-3
34
42
-2
-3
-10
-2
-1
-50
-28
-56
-9
-25
-13
-7
-15
-17
-32
-44
-5
0
2
-1
-1
-9
-32
30
10
7
6
4
2
3
7
-10
16
-16
-3
1
1
7
24
19
1
-6
-1
1
28
47
1
15
7
-1
-7
-1
-14
-10
-19
0
8
24
11
1
10
-1
12
-36
-9
-5
4
1
16
-21
-5
-33
-1
-6
1
-6
-21
-5
-27
-5
2
-1
0
-2
-22
-11
12
13
-4
-6
-7
6
48
13
-15
3
5
32
2
-2
-27
62
17
37
2
-51
-6
-2
-7
-37
6
35
-4
18
10
9
48
29
63
-16
12
-4
-5
-5
-17
-21
-33
-14
-7
18
-1
-5
-36
-26
-18
15
8
35
10
4
-2
11
14
26
-5
-28
-4
-8
-36
-11
25
-19
-30
-17
-15
-5
16
21
-19
35
-1
1
7
-3
-12
-25
-5
-30
-3
4
3
5
22
16
-10
39
0
9
-1
-2
-13
-50
-27
-18
2
-2
0
-1
-15
-14
-21
-55
-4
-4
-11
-1
-6
30
-9
-26
-14
11
-4
-6
-6
-6
-28
13
10
-17
2
-5
-12
10
31
-54
-16
3
2
6
48
46
18
36
15
4
4
4
3
-7
2
15
4
-11
-5
-5
-32
-1
3
-35
0
13
-4
-1
11
22
17
-12
10
10
5
-5
-53
-69
10
-16
-21
-16
6
6
25
-42
-16
-29
26
14
-6
-1
9
14
-74
37
-1
-6
-5
-4
-12
-5
-19
-24
1
-37
-11
-6
-34
-20
-9
-55
-1
-4
0
2
39
-40
-20
38
11
24
11
-2
5
-10
21
-18
-9
-15
8
1
0
2
-30
-15
19
23
0
3
2
24
8
35
-4
-19
-3
-1
-11
11
26
21
7
22
1
0
-4
22
5
-43
8
15
3
1
-5
2
-28
19
-8
-22
-4
-1
12
27
12
13
-8
8
-3
-3
-4
-13
-5
-26
-9
-2
-3
-1
1
24
7
-9
-1
11
1
1
-4
-3
-1
-4
-8
-2
-3
-4
-5
6
5
-1
14
-2
4
-4
7
30
26
-4
-29
-4
3
2
-14
-8
-3
6
-3
3
0
-2
10
0
-13
27
8
-19
-6
-2
-11
2
12
-2
1
8
1
3
16
64
-8
-19
-11
-19
-5
2
13
6
-5
9
6
8
-4
-3
-8
-16
-32
7
-19
5
1
4
21
-1
3
-6
-2
-3
-4
-4
-6
3
2
-6
1
0
3
0
4
-14
0
33
-7
-6
0
-1
29
-12
-11
1
12
10
6
-1
-22
-33
-6
12
-19
-10
-5
-1
-13
-6
40
-9
-10
-11
-4
-1
11
4
-25
-26
3
15
2
-3
-20
-20
-23
19
2
6
1
1
38
45
-22
2
4
3
-1
-1
-6
-8
5
-9
-18
-25
-10
-4
-17
-4
-4
-18
5
-5
-2
0
0
-26
-37
29
-2
-2
-5
-4
9
-27
-2
0
13
12
1
2
6
-9
-22
23
11
3
1
1
2
-8
-1
-44
-6
2
-2
2
11
37
24
-1
-8
8
-2
-7
-26
-16
-40
9
0
1
2
0
3
-19
-4
-23
-14
-18
-3
-5
3
-1
11
75
2
0
-1
2
2
14
24
-24
-3
-11
5
1
0
13
-16
16
-4
6
-8
-1
-7
5
-18
28
16
19
1
1
-7
-16
38
-18
-11
-4
0
-1
-7
14
14
-7
7
-5
0
2
17
31
26
-4
5
-8
-1
-4
-14
-17
-11
5
-1
0
1
-2
-17
-26
-19
-18
-10
1
0
4
43
-10
-8
-1
12
16
8
6
6
-13
73
24
0
-12
-6
-6
-11
-15
19
-15
-1
13
-3
3
45
8
-48
14
12
8
4
0
-16
3
7
-51
-7
2
3
3
-15
-32
-27
-23
-26
-24
-5
-4
16
52
-14
18
7
-3
-7
-1
1
-3
12
84
10
8
3
-1
-3
-19
29
-34
-9
-14
-4
-3
12
11
-4
6
-2
13
2
-4
-10
-30
5
19
6
10
5
-3
-24
-29
8
-37
-8
-4
-4
-2
-4
28
-10
-2
3
-16
-8
-6
-36
-27
11
18
-2
-9
3
5
40
9
32
17
4
-7
3
1
-3
2
52
23
-7
1
-8
-5
-9
-15
-3
6
-6
-4
3
-1
-3
24
7
-69
-4
10
-5
-8
-41
-35
1
48
5
19
9
3
-7
5
3
5
10
-17
-4
-1
11
7
-4
25
-6
1
-4
-2
8
48
-6
18
-16
-31
-5
2
30
-7
36
-5
6
9
10
1
-12
10
28
-34
-5
1
-5
-3
-15
-18
5
26
-10
-6
4
2
-5
-6
-5
-28
8
9
-2
1
42
43
-6
32
11
3
-9
-3
3
8
16
-45
0
3
-4
-1
-12
-14
-15
1
1
-4
3
2
13
15
9
-3
1
7
10
-1
-40
-1
-10
-28
-1
7
5
3
30
1
-36
-37
-6
2
0
-2
9
-8
-27
21
5
-1
-3
-2
-10
-13
27
-43
2
7
-6
-4
-27
-36
-49
9
9
-6
2
-2
3
47
12
-59
-7
-3
-1
-3
-7
16
-29
-7
-2
-3
-3
-7
-40
-54
-11
19
10
9
5
4
25
25
-30
-15
-14
-24
-10
-8
-29
-26
-15
11
-2
-13
0
-1
-5
8
53
-19
3
7
1
-6
-13
-2
28
23
-12
-11
-2
2
15
0
1
-12
-9
1
-3
-3
-19
-34
-7
-34
-1
6
-1
1
7
7
4
4
-4
1
-2
1
11
-29
-23
-2
9
6
0
-2
-39
-31
12
24
-4
-18
-1
1
32
50
59
-5
9
9
0
-1
-7
-29
-18
-9
-4
1
-7
-4
4
2
-24
0
10
18
-1
-2
-17
11
1
-9
9
-24
1
-2
-3
-12
6
18
-3
-17
-4
-4
-28
-14
32
57
21
13
7
4
53
33
11
-15
-4
-4
5
1
-27
-16
9
26
-5
5
-4
-3
20
17
-49
38
1
16
-6
-5
3
8
-8
-36
-6
2
2
-2
-13
-14
-19
4
0
-9
-2
-2
7
12
-4
13
-6
-7
-12
-7
-24
-37
-68
-72
3
0
0
-1
-3
0
-51
-27
-18
-1
-3
4
27
26
-13
14
3
4
-8
-7
-7
1
-7
-26
-1
-12
2
-1
-21
6
16
43
-6
-12
1
3
17
-13
47
33
1
-10
-6
-7
-31
-6
-34
-14
2
-1
5
5
19
10
-1
-18
-10
10
4
2
0
-17
-1
4
5
1
2
0
-11
13
21
36
2
-3
3
3
26
18
11
-25
-9
-5
-2
-5
-9
-9
26
2
-6
1
-2
-3
-19
-9
-3
-7
4
9
7
7
36
-7
4
-1
0
-6
-3
2
14
17
40
20
-2
6
0
-4
-4
-8
-17
-17
5
2
0
-3
-11
-6
7
-9
-17
-19
-2
-1
10
14
1
-13
-5
-9
-7
-4
-25
-22
-10
-27
-1
21
2
0
10
-11
-13
3
12
1
1
1
31
33
21
13
4
3
2
-1
-16
14
2
-41
6
16
0
1
-27
-12
-3
53
-3
-46
-7
6
58
3
7
0
-1
-2
-1
-5
-27
-14
-40
21
4
9
5
0
25
-6
-7
-45
-8
8
-4
-5
-16
-16
-22
-13
5
8
5
1
-20
1
-17
41
-8
-4
0
6
43
22
-2
32
5
4
-2
-3
-10
-38
14
-14
-11
-9
2
-4
-7
25
-17
19
2
3
-1
-2
-4
-11
17
8
-6
-4
-6
-5
-38
2
-35
17
-4
-12
-3
-3
-13
-3
-9
27
3
-1
-6
0
41
-1
2
-2
-1
-9
-5
-6
-11
13
-29
-5
13
20
5
3
14
11
68
17
-8
-7
-6
-6
-31
-16
-2
-60
-2
-14
-2
0
-14
-16
-7
55
-3
11
3
2
5
-7
34
-19
-5
9
1
-1
1
-30
-7
-43
2
-14
2
-3
-18
19
-3
54
15
1
5
3
-2
14
21
-22
-8
-10
-9
-1
6
34
-12
34
-2
20
4
1
-7
-26
-16
-4
2
26
4
1
2
0
10
4
-6
-11
-1
-3
-12
-4
18
-35
-2
-30
-3
-1
-15
-12
18
-16
-8
-2
0
-2
8
-31
-12
32
4
5
2
3
8
-3
2
-18
-4
12
-2
0
18
44
-37
-47
-22
6
-4
-9
-29
-26
-4
-61
-6
-7
-1
-1
-8
-13
-7
17
10
0
-3
-3
-22
-15
-9
23
9
-1
3
1
29
9
41
-10
0
-7
-7
0
5
-15
-1
24
11
2
-5
-3
-8
13
-17
-7
-6
0
1
1
3
27
7
20
-4
-6
-3
-2
-8
1
14
31
8
9
8
2
3
9
-17
7
2
0
2
-2
-13
-7
36
-2
2
5
0
1
13
14
-14
66
-4
3
-2
-4
-2
-69
-14
-21
2
-2
-7
-1
9
24
-29
-2
3
0
-4
-1
0
-1
7
-7
-12
-10
-4
0
-9
3
-3
-21
4
0
0
0
-9
-23
-3
-26
6
10
8
0
-6
-5
8
17
-11
-23
-1
2
29
28
10
-3
2
4
-2
-1
0
-19
-6
-23
2
3
-1
0
3
25
-16
34
13
14
6
6
19
11
1
0
2
-2
-6
-8
-19
-8
-32
-15
-5
-8
2
-1
10
21
-3
-18
-11
1
2
1
0
24
28
40
9
-4
-4
0
15
-10
1
-38
5
6
0
-1
-1
-9
-14
-16
-6
-1
0
1
4
2
-23
-4
0
-17
-6
-5
-16
-6
-2
-5
-4
-1
1
-1
-6
10
19
-5
-1
-1
2
0
3
7
7
7
4
13
0
0
3
-7
3
-5
4
-3
1
-1
-6
7
-4
-8
-4
-6
-4
-1
-5
-3
-11
2
-6
-8
-3
-2
5
-2
3
-9
-16
-18
-7
-2
-2
6
-3
2
1
19
2
0
-1
-7
-3
2
4
-10
6
2
1
6
0
-6
-2
20
-1
0
-2
-3
-3
-3
-2
-3
-1
-1
0
6
10
-2
-1
-5
-2
0
2
-4
-1
-1
1
15
-3
-2
-6
-2
-3
-5
0
-6
2
-1
0
5
-1
-2
0
-13
-5
0
-3
6
1
4
-2
5
1
-1
-1
-8
-1
-2
1
2
-3
-1
-5
7
-4
-3
-6
-6
-7
-4
1
-2
1
1
0
-1
0
6
5
0
1
-3
0
-8
9
-5
-8
-4
-3
-4
-3
0
14
3
-4
-2
4
-2
-3
-9
-28
4
4
1
1
1
-2
10
12
-8
0
-4
2
-5
-2
-7
6
2
-2
1
-1
-3
-3
0
6
1
-3
-4
-1
0
-2
-17
0
-4
-3
-1
-1
-1
-1
3
-31
-6
-5
-4
-2
-1
-3
-8
6
-4
-2
-1
-1
0
1
0
7
6
1
2
-1
-2
2
14
0
5
0
-2
0
-2
-1
-15
7
-4
-3
1
1
-2
-1
-5
9
-1
1
0
-1
0
2
-10
-15
-3
2
-1
0
0
-2
10
3
3
2
1
-1
-7
-8
-17
0
3
-2
-5
-1
4
12
39
-2
-2
-1
1
3
-1
-5
-28
44
2
0
3
0
2
1
24
-3
5
3
0
-1
-2
-7
-45
-34
-9
-5
-2
-3
-4
-3
-9
-8
-10
-7
-3
-4
1
8
20
-5
10
5
1
0
-4
-9
-14
20
-2
0
0
-2
1
5
28
21
1
-2
-2
0
1
-4
-19
-11
0
0
1
-1
1
3
2
-6
-5
-6
-1
-1
-3
-4
7
-18
-2
-2
-2
-2
0
4
2
-1
0
3
0
-2
-4
-1
45
-1
0
-3
-1
-1
2
2
-23
-11
2
2
-2
0
-3
-8
-3
32
0
-2
0
-1
0
-2
-25
-31
-5
-3
-2
0
1
4
-1
-12
-6
0
-1
-1
-4
-3
9
13
-3
-1
-2
-5
-2
0
28
-12
-4
-4
1
2
1
0
-58
15
3
4
-4
0
-2
-6
-24
-19
0
-3
-3
-3
0
4
35
13
-3
-4
-3
-1
3
14
10
-3
-1
2
2
-1
-9
-21
-45
-9
-12
-5
0
-2
-2
-6
-39
-15
0
-3
-5
-4
-5
-16
-11
-14
-6
0
-1
-4
2
13
31
16
5
0
0
0
4
10
22
5
5
2
1
2
-1
-1
-18
1
0
3
3
-1
-5
-9
21
-16
-9
-5
-2
-4
1
-2
-22
-4
-3
-2
-4
-1
2
2
15
6
0
-1
1
0
0
4
6
10
0
-1
2
2
-1
-11
-51
-3
10
1
3
1
-3
-6
-12
-11
0
2
1
0
2
3
-23
11
1
0
-2
0
-5
-7
62
-5
-6
-2
-3
-3
0
0
-6
3
-10
-13
4
1
0
-4
-28
3
5
15
-3
0
-1
3
42
16
6
4
1
0
4
6
8
10
8
7
-3
2
0
0
4
-18
1
-2
5
0
-2
-1
-20
-20
-12
-9
-4
0
-1
-1
36
2
-4
-3
-1
-1
-1
-2
-7
10
3
0
-1
0
-7
-9
-21
-18
-11
-5
-10
-4
1
4
-41
12
3
-2
-1
1
-4
-7
-18
-20
0
4
2
-2
-1
-3
6
-4
-2
-3
0
0
0
2
38
4
-5
-2
-4
0
0
7
-13
6
7
1
-1
-2
-3
-3
26
3
-4
-1
1
-1
-2
-3
-37
-6
-2
-1
0
-2
-1
8
24
0
-6
4
-8
0
-1
-3
-2
1
-1
-5
-2
-1
1
2
11
5
0
1
-1
-1
2
1
9
1
0
0
4
2
-2
-2
-13
-10
-4
-2
2
1
-6
-6
-10
-4
-6
-6
-4
0
-1
0
4
-1
1
-2
0
-2
0
3
4
2
3
-2
2
-1
2
0
-13
-3
0
-1
-14
-2
-1
-2
37
4
2
4
6
0
-1
-2
2
2
1
1
9
3
-2
3
3
-6
-3
-1
-11
-2
1
1
-14
0
1
-2
0
0
0
-1
8
3
-4
-6
-4
-2
2
4
0
-3
-2
-2
-6
2
-1
4
28
17
1
1
8
-1
-5
-5
-8
-11
0
1
-3
-1
-2
-12
-13
-5
-3
-1
3
-2
0
0
12
-1
-2
0
-1
-1
2
5
25
-5
-2
0
-2
-1
2
2
-28
5
-5
-3
-1
-1
-2
-7
-5
-3
-2
1
2
0
0
-1
2
1
-1
-1
-4
-2
0
3
6
0
8
3
-1
-1
0
2
26
2
6
5
7
0
0
-1
-16
-2
-2
-3
4
0
-1
-2
8
-4
-8
-6
-8
-4
-1
-1
-17
-1
-3
-1
0
0
1
2
8
13
5
1
-1
1
-2
-1
7
-5
-2
1
2
0
0
0
-18
-7
0
-2
3
-1
-2
-4
-15
-1
-1
0
0
0
0
1
0
-2
2
0
4
1
0
0
12
-1
-3
-2
-6
-1
0
1
-10
4
3
-1
-3
0
-4
-7
-11
-7
-3
-5
-4
-4
-1
-1
-5
-1
-1
1
4
-1
3
7
11
7
3
2
-1
2
-4
-5
19
-2
-7
-2
-4
-2
-2
-7
-41
-4
-3
-2
0
0
-3
-6
-10
-11
-2
-2
-5
-3
0
5
30
10
2
0
0
-1
1
0
-20
-4
4
0
3
0
-1
0
19
2
-4
-2
-8
-2
1
1
15
5
-2
0
5
1
-1
2
-10
-1
2
0
-14
-2
0
-2
-19
-8
-1
-2
2
-1
1
-2
3
0
1
1
1
0
1
-1
-6
-3
-2
-2
6
2
-4
-3
4
-3
-5
-3
0
-2
0
4
11
6
3
0
-3
0
-1
-2
-9
-7
-1
-2
-2
0
0
-1
2
3
3
0
4
-1
-1
-4
-6
-3
-6
-5
-4
-1
-3
-4
-27
-3
-3
-1
9
1
1
4
-5
6
3
4
-13
0
-2
-4
5
-4
-4
2
7
-2
-1
-3
-1
-7
-2
-5
-6
-1
2
3
9
5
-2
-9
-8
-1
-1
-2
-11
-2
1
10
34
2
1
2
11
4
1
4
-20
0
-3
-4
-37
-14
-3
2
0
0
5
0
23
4
-1
-1
2
-1
-1
0
-5
-2
-4
-20
-35
0
-3
-2
2
-2
-2
-5
22
-7
4
0
-1
1
1
14
19
18
-17
0
7
-2
-1
-3
-14
-29
1
-1
-1
-3
-3
-17
-7
2
-4
-4
-8
-1
0
1
-4
-7
2
-1
-1
0
-4
-6
-19
-2
-10
0
4
3
4
8
-4
11
-6
-5
1
0
-2
4
30
-15
4
-2
-3
-3
-1
-5
-16
1
-2
-3
-9
-3
-2
-12
-4
-4
6
2
7
1
-1
-3
1
4
-3
-3
-5
-2
0
-4
-5
2
14
3
-7
3
-1
-2
7
4
-5
5
3
-2
0
20
-5
-15
7
-5
8
-3
-4
-23
-31
3
8
-4
-6
-5
-3
-7
7
-5
-14
5
1
0
5
26
6
13
11
1
6
-1
-7
-26
-32
-9
-3
1
-4
2
4
29
66
10
18
8
4
-4
-4
-13
-34
-3
-10
-1
0
5
0
-19
0
22
-10
0
-7
3
2
14
24
10
34
4
1
-4
-2
2
1
21
-2
-1
10
1
0
11
-12
-35
0
-3
-3
-3
0
-6
6
12
-3
7
-2
10
-3
-24
8
60
-15
-33
-13
-12
-4
15
1
-68
19
14
9
2
1
-9
-22
-17
-8
-2
-14
-11
-6
-7
-21
-8
-57
-10
0
-6
-7
-33
8
-71
1
2
-1
7
5
3
42
86
-17
-7
0
2
7
54
-22
-27
-5
-14
-4
-11
-7
-17
-78
-30
36
0
-17
0
1
17
27
-14
91
22
5
8
4
-12
-5
100
-1
8
0
-5
-7
-10
70
-84
3
14
14
16
7
-8
-22
54
-55
-28
1
-15
-7
26
-88
-77
15
-6
-2
4
3
-1
-17
-26
-6
2
-5
-3
5
10
53
109
11
-15
-32
-10
-3
18
51
-87
-85
17
9
13
-5
-102
-65
84
31
-1
-5
4
21
113
84
-67
34
1
21
-3
-8
-90
-53
29
9
5
-10
1
2
-4
40
61
12
-2
0
1
2
-31
64
-10
-47
10
-2
-6
-12
-40
-61
-13
-24
-20
14
-9
-5
11
-67
-41
1
28
8
6
6
29
-39
-9
64
-7
-5
-12
-6
-10
-20
-43
-59
-1
-5
-3
-7
-35
29
-1
-28
-24
-5
-7
-5
7
27
-79
-16
18
10
2
-5
-29
-60
8
-49
-8
14
12
15
63
101
93
-50
-4
-17
-26
-21
-37
-128
-120
17
1
4
8
8
5
12
-26
-43
-6
-10
2
3
8
12
6
11
-9
38
-18
-2
93
-2
-80
-42
9
-40
-5
4
3
20
24
67
15
35
14
-8
-42
-21
39
37
3
3
4
-1
11
17
8
-25
-15
-26
-9
-7
-66
-41
19
3
4
42
14
9
46
79
59
-1
-10
-18
-5
6
13
14
-35
-27
-22
-1
-18
-18
-7
-52
-33
63
3
8
-6
5
43
53
-13
25
3
16
4
-2
-23
-12
8
-4
16
16
16
7
1
-8
84
-104
-21
22
10
1
-26
58
-3
96
10
-64
-12
-2
10
-60
-13
38
1
-28
-17
-9
6
16
-21
-99
-30
-35
-9
-2
28
39
0
-52
3
20
7
-3
-35
-55
1
12
33
71
21
5
14
-8
55
56
-36
-34
-4
-10
-75
-42
-77
-27
14
-7
-2
-4
-22
-13
7
2
-13
6
-6
-3
13
86
-63
-57
-14
-12
-1
-6
-34
-4
15
-58
12
36
16
6
30
14
78
39
-8
-35
-5
4
13
-27
6
15
1
-11
-11
0
6
16
6
30
-7
-49
8
9
50
77
74
45
4
59
-8
-8
-15
-33
-31
33
4
-14
6
-3
-7
-25
-30
18
12
16
14
12
51
71
-6
-7
14
22
10
7
-24
-16
13
-56
-12
-19
-5
-2
-11
-18
40
-11
-4
-12
-1
-1
17
-13
5
15
-6
-7
3
-4
-58
-41
61
20
4
11
-3
-4
3
13
-108
32
3
-2
3
5
-2
-10
27
-23
-2
1
-5
-5
-17
7
4
56
-7
-7
-1
1
12
17
6
-94
-9
6
-4
-6
-6
-16
3
30
-5
-54
-7
-4
-22
0
-28
-3
-3
26
-6
-1
21
12
31
28
-5
6
0
-6
-5
-19
-13
27
6
-7
7
0
-26
-9
42
6
0
-16
0
2
-2
-22
-32
10
4
6
-1
0
29
14
23
26
19
8
-1
1
-11
-21
-40
8
-5
8
-2
-2
-5
-5
14
-38
21
22
7
-4
-29
-34
-1
33
-1
-9
8
6
3
48
10
34
8
-7
-6
0
14
10
28
11
11
18
11
7
6
-4
53
24
-3
-12
5
-2
-31
17
-2
54
-7
-34
-16
-11
-21
-26
-53
-18
-7
4
-6
-1
-2
4
-59
-13
-3
-3
-3
-1
-13
2
-8
-9
5
24
8
5
-5
-8
15
-36
-2
9
-2
-2
-4
-9
12
3
0
-17
1
2
0
11
-8
27
6
-3
-2
-4
-20
19
-27
-51
0
17
5
10
61
-6
-17
-24
-11
-5
-1
-1
-10
2
15
-24
1
-7
-1
0
5
-1
52
30
-3
-25
-3
-3
-5
19
-21
-10
-20
18
-9
-3
26
33
5
-27
6
-4
1
1
-4
15
-10
8
0
-21
1
4
25
-6
13
17
3
19
1
-3
-22
-55
-1
-3
7
2
0
1
5
7
9
-21
-8
13
3
-8
-51
-6
2
6
-16
1
-4
-4
2
-17
0
-5
-9
-16
-10
-1
3
-20
-20
-15
-4
-20
-8
-10
-32
15
14
13
18
14
10
8
1
-9
11
-9
-5
11
5
-1
0
-1
13
-42
3
-10
-8
1
11
-1
-56
11
7
-3
-2
2
-10
-20
8
-5
-12
-7
-1
-4
19
25
16
30
-4
-2
-6
-8
-26
-4
2
-6
-1
10
2
2
11
27
6
-8
1
6
1
-2
3
0
-24
-4
9
-3
-1
-1
-7
-25
6
1
-1
0
-7
-1
-1
-3
12
0
-13
-3
0
-2
-16
-5
36
1
-5
7
-1
-1
19
-4
-44
-1
5
-7
-1
1
11
11
-8
-28
2
-2
-2
-1
-8
-52
-1
11
-3
1
1
0
3
41
15
23
4
0
2
4
42
3
65
-6
-2
-14
-10
-3
11
3
-11
19
1
10
-2
0
8
19
-10
0
-1
-8
5
2
1
-22
9
-14
-8
-24
-5
-5
-7
-6
-27
21
1
5
4
1
-26
-12
6
-17
7
-2
6
5
15
21
12
15
-2
-4
-5
-2
0
-2
-5
-2
-8
2
-1
-5
-31
-30
-8
-15
5
-12
1
5
38
26
16
-42
-18
-10
-5
-5
-13
-22
-59
35
11
9
0
-5
-29
3
5
-13
5
18
-2
3
12
21
6
10
-15
-28
-3
-2
-4
-18
9
14
10
14
7
3
6
-6
11
-3
5
11
2
1
29
6
-8
4
-11
-38
-2
-3
-15
20
-23
5
2
15
1
-1
10
26
16
34
-5
-19
-6
-1
5
14
27
-64
-15
-31
-8
-3
-12
-7
22
2
4
11
-2
1
3
22
3
4
4
15
8
-3
-31
-17
6
17
-4
2
4
4
20
26
41
-4
3
-10
-10
-3
-3
-5
1
6
-6
-1
-3
-3
-16
-24
-41
36
7
-1
-4
0
13
-2
-5
-46
0
3
-3
-3
-20
-21
-17
-27
-3
1
-2
-2
-4
26
-35
-21
-10
1
-3
-3
20
-26
-3
-9
7
10
0
0
3
-2
-28
2
4
2
7
-1
-13
-12
-27
12
-14
-11
-2
1
21
-11
-4
-4
-4
7
-1
-3
-21
-1
1
-14
-5
8
-3
1
29
4
15
5
-1
-16
-6
-3
-8
3
-7
15
-1
2
1
-2
-14
-16
-20
13
-5
-4
2
5
2
7
24
-2
0
15
-3
-6
-13
9
9
-17
6
6
2
0
-12
-2
-33
11
2
-19
3
-1
14
-37
30
-15
-9
-18
-15
-7
-8
-18
-17
-13
1
-7
2
-1
-5
-4
-7
14
-7
-2
-1
-5
-13
2
18
-12
5
13
5
-1
-35
-13
-14
2
5
17
5
0
21
31
4
-19
-9
-41
-12
-5
-12
-14
20
33
4
7
-2
-2
-4
1
30
2
-2
-12
-1
2
20
-41
4
-4
5
3
6
0
-1
17
19
4
-7
6
2
1
-8
-23
-1
-23
-18
-9
-3
-2
18
22
13
-9
4
10
-4
-2
-4
5
-26
-1
10
14
2
-1
-17
-7
16
-17
0
-9
1
1
14
13
-4
3
8
-7
-2
-4
-24
-29
-26
6
-11
8
-1
1
11
-6
20
-46
-1
7
2
0
15
13
-23
30
3
9
-1
-2
-19
8
42
8
5
-10
-4
2
23
12
0
-9
10
12
4
6
13
33
36
47
9
65
13
4
1
-25
-42
7
-16
-80
-9
-2
-1
-2
-32
-15
-6
3
-21
-7
-5
1
-14
-8
0
17
8
-6
-28
2
3
19
11
-2
3
-1
-5
-20
34
-25
1
28
3
2
16
2
-31
30
9
-1
5
4
12
-19
-7
-5
-3
-16
-6
-1
-12
0
-3
-2
2
-4
-8
-7
-39
-16
10
-15
-1
16
3
2
28
3
-23
-3
-8
-22
-1
0
-4
19
17
3
-1
15
2
-2
-4
7
-17
-16
-5
-14
1
5
25
25
9
8
4
4
-4
1
-9
-26
23
-14
-8
-2
0
-3
-9
7
-47
16
5
14
3
-3
-2
-37
-8
0
-4
-21
-2
1
26
32
4
38
1
-9
-3
0
-5
7
18
-15
-5
11
0
1
0
-7
-5
-21
-4
0
-5
-2
-6
-7
-37
16
1
-9
-5
-4
-25
-25
-30
-3
5
24
9
4
9
20
3
-22
0
-11
3
-2
12
-8
1
31
2
-15
-14
-3
18
7
1
16
0
-11
-4
0
-2
11
24
-19
-3
18
8
1
1
6
27
32
6
8
7
1
8
50
-31
-8
-2
0
-1
2
7
26
18
4
2
-4
1
0
-7
-14
-25
5
11
-1
-1
-1
-10
-21
2
-3
-3
4
0
-4
-18
-15
-10
3
-16
-7
-1
-2
20
-8
8
10
3
6
-6
-7
-31
-27
-28
-36
-2
-5
-2
-7
-20
-10
-22
-1
-1
-2
-4
0
3
32
20
54
6
-2
-1
0
-11
0
8
1
8
-4
5
0
6
-3
3
-1
-7
8
-7
-5
-14
-36
0
9
-2
-2
-3
-3
18
2
19
8
7
0
6
3
-2
13
1
-41
-1
7
6
1
-2
-14
37
-7
4
-3
-6
1
-4
1
-38
53
3
0
1
-2
0
-12
11
-29
-2
3
0
-1
9
-13
-7
6
-5
-4
-1
-3
-5
2
30
6
1
4
2
-2
-13
6
-6
-20
-2
-3
3
0
10
-25
26
-20
4
-6
-1
2
17
20
-24
14
-3
2
-1
0
-4
13
11
-3
2
3
-1
-4
24
44
-26
-9
-2
7
-2
-1
-13
-8
6
0
-11
-6
0
-5
-23
-28
-25
-6
-2
-2
1
0
12
18
-1
-56
-14
-11
-4
0
4
-3
-15
53
9
-1
0
0
26
-21
4
8
11
9
2
-1
-9
1
12
-44
-8
-5
-7
-6
-17
-20
-26
4
1
0
1
0
1
0
-11
-5
1
3
3
1
-9
11
16
3
-18
-33
-9
-7
-16
-1
-35
11
-4
7
-5
1
-3
-38
4
31
-4
-2
2
2
-5
29
43
-34
-5
-2
-2
1
-8
0
-18
-3
1
-11
-7
-5
3
21
9
-4
9
2
-1
-4
-2
-18
7
9
3
1
1
-3
-13
-9
-7
-14
-3
13
6
2
-6
-30
4
-32
2
4
4
7
18
28
50
-1
5
9
-2
-1
5
27
-22
41
6
0
-1
-2
-11
-16
49
14
3
-10
-1
0
10
65
-9
-8
-4
4
-3
-2
-4
-8
-26
-12
-5
-15
-3
-1
3
-3
17
26
-19
-15
-5
0
26
-4
5
-5
3
-6
-4
-2
-19
-19
-1
-22
4
8
5
3
-4
-10
-8
29
-3
-4
1
2
-10
2
16
-46
3
-1
2
0
5
11
-40
14
6
16
-1
-4
-20
-35
-29
-18
-11
-15
-3
0
1
21
13
-11
1
-13
-1
3
20
7
25
-3
2
-1
-5
-2
0
-12
-25
-21
4
0
0
-3
-18
-7
-4
15
11
25
7
7
33
-2
12
-27
-12
-8
0
5
8
-1
38
-15
-2
-10
1
-1
-3
15
-10
4
-3
-6
-7
0
30
17
-12
7
6
10
0
-6
-37
-30
-1
26
8
7
1
-3
8
14
-1
-25
4
7
6
3
4
-20
-23
-19
-6
-7
1
-2
-20
-27
17
1
-10
-6
0
1
5
-13
-14
-8
1
-5
-4
0
21
6
-44
14
-1
2
-2
0
9
3
5
-5
-5
-6
-1
-5
-14
3
-22
4
0
1
-3
-1
5
18
23
19
-3
6
2
-1
-26
-30
-5
29
1
-2
2
3
19
20
32
1
7
4
-1
-3
-37
-19
34
15
-9
-1
-2
5
54
12
2
-5
-6
-13
-6
-1
-8
12
-35
-8
-2
-8
-5
-4
-27
-30
17
7
0
-1
5
4
22
15
20
10
7
11
2
-2
-16
5
-28
-3
0
2
-1
-1
-10
3
-11
-2
-6
-2
-6
-1
22
-14
8
-15
-5
-2
-3
-4
-19
23
-12
-35
-14
-7
-7
-4
-17
5
13
-3
4
4
1
-2
1
3
9
-9
9
8
8
3
-2
-6
-5
2
-3
-8
-5
-4
11
3
18
9
-2
-3
-1
-2
-19
-43
0
27
-12
-1
-2
1
0
-2
-2
-4
-3
1
1
-5
-28
-10
1
-4
1
-5
0
3
22
18
33
-18
-1
-5
0
-3
-12
10
-30
7
3
11
1
-3
4
6
23
-3
-3
-5
1
-3
-9
-9
0
18
-31
-7
1
6
25
-13
8
18
10
-3
-3
-1
0
9
-13
0
-1
0
-2
-6
-8
4
-15
17
9
14
5
3
9
5
-1
-9
2
6
-4
-6
-11
-9
-13
5
-6
-9
-2
0
-1
0
5
18
-2
0
1
1
-8
-12
12
0
0
1
-3
-3
7
15
-22
-15
2
-12
-3
1
2
-4
-13
-3
-6
3
-3
0
7
-15
3
-7
-2
-4
-1
-2
-3
-7
-2
5
-5
-4
-4
0
-6
-7
3
-11
7
4
2
-3
-17
-5
-24
-11
2
3
-2
-2
2
0
-10
-6
-4
-7
-3
0
3
3
6
-1
-4
-5
-1
-2
-1
2
9
-7
-5
1
0
-2
-4
-6
-32
2
-6
-5
4
-1
-4
0
4
-10
-1
-4
-5
-1
6
3
4
-5
-1
8
-4
-3
-8
-1
-8
0
4
-4
5
1
2
-5
-2
1
1
13
-2
0
2
2
17
-6
0
-11
-5
-4
4
5
-12
-1
-3
-6
-12
-2
-3
2
4
-1
2
3
16
5
2
-2
-5
4
5
0
5
2
0
1
4
-12
-3
4
7
1
4
3
-1
-1
3
1
-9
-2
-4
-4
-3
4
-5
-10
-8
-7
2
0
2
0
2
20
7
5
-3
-1
-7
-3
0
-16
3
-2
-2
0
1
1
-9
-40
-14
-7
-3
-3
-4
-4
-2
2
7
-2
-2
-1
-8
0
1
-4
-21
-5
-1
4
1
-5
0
25
27
12
3
3
1
0
0
4
7
3
4
-1
1
-2
1
-3
3
0
-1
3
-2
-2
2
4
-5
-7
-4
-2
-3
-2
-4
-32
-16
-9
-3
-2
1
-2
-3
23
4
-4
-5
-2
-5
1
4
-8
-16
5
-1
-3
-1
1
-5
-15
-23
-17
-6
-2
-1
-3
4
25
17
0
1
0
0
1
-1
-28
-4
4
3
4
2
-6
-6
3
-2
-7
-1
-3
-3
1
0
2
6
14
5
3
0
-2
-3
-12
30
10
2
1
0
-1
-1
15
-25
-2
-8
-6
-3
2
3
15
6
-4
1
0
1
-3
-4
-44
0
-11
-8
-3
-3
-1
2
7
-11
-11
-2
-3
-1
-1
1
2
10
8
1
2
0
2
3
20
17
4
3
1
-2
-3
-1
6
-27
-4
-2
-3
-2
-1
0
-35
-8
1
-1
-1
0
-1
-9
-25
-2
-7
-2
-5
-1
-7
-7
-21
-25
-8
-3
-1
-4
-1
-6
-26
4
2
-1
1
-1
-4
-3
56
2
4
0
0
0
2
3
12
22
6
1
4
0
1
4
-38
-2
-4
-2
-3
0
0
2
-1
24
10
4
0
-2
-6
3
60
-45
-18
-7
-5
-6
-3
-8
-31
4
0
-1
1
0
-5
-12
41
5
3
3
-7
-4
2
9
-36
-1
-2
-3
0
1
2
-3
-26
14
6
2
3
0
-1
4
37
-14
-8
-3
-2
-1
5
6
-3
-5
7
0
0
1
-1
-3
9
2
0
2
2
-1
0
4
35
14
1
1
-1
-4
-3
-6
-61
2
-2
-1
-1
1
-1
-7
-50
-14
-7
-5
-1
0
0
2
44
10
1
0
-1
-1
1
3
9
-9
3
0
1
1
1
3
37
14
0
-1
-4
-3
-3
-4
4
-9
-2
-1
1
-1
-3
-11
-4
2
1
2
1
-2
2
3
-3
6
1
2
2
1
-2
0
23
-22
-1
-1
-1
-1
-5
-2
3
5
-6
-6
1
-2
2
6
38
8
-3
0
-7
-2
-1
-3
-62
1
1
-3
-3
0
-4
-8
-13
-17
-5
3
5
-2
5
24
43
8
7
2
1
2
-5
-26
-25
-2
0
-2
3
-3
-1
-1
0
-9
-7
-4
-4
-1
3
5
-16
12
7
4
-1
1
-1
0
5
2
-1
0
-1
-2
3
12
27
8
-2
-4
1
2
-1
-7
-7
-6
-2
5
-3
-1
-1
-5
-28
-3
-3
-2
0
-1
3
6
0
-6
3
1
-1
-1
-8
-13
-6
-18
-12
-13
2
-5
-1
-3
-8
1
0
1
-8
0
-1
4
11
7
3
-1
-1
0
1
0
35
4
6
4
4
1
0
2
-68
-12
-1
0
-2
0
-2
-4
3
-9
-6
-4
2
-4
0
2
8
3
-3
0
-4
-3
1
1
-15
13
2
-1
-1
0
-1
-10
-4
-5
-3
-5
0
0
1
5
9
-1
8
14
18
1
1
3
21
6
-1
-3
-13
1
0
-2
2
0
-5
-1
5
0
-2
2
4
-6
-3
-1
-5
-3
0
-4
10
0
8
-3
0
0
-1
-5
-36
1
-6
-5
1
-2
-2
0
-11
0
-5
-1
0
1
0
4
7
10
2
3
-5
0
-3
-3
3
-9
-4
-5
-2
-2
0
6
25
10
5
4
5
-2
-5
-9
-24
-13
-3
-3
-3
-2
1
6
30
4
2
2
-2
0
-1
-5
-44
-11
-3
-3
-1
-2
1
5
35
8
0
2
3
1
-1
-2
0
-1
1
-1
-2
-1
-1
0
-25
5
2
2
-2
0
0
3
0
-5
-1
-1
0
2
-1
-5
9
-3
-6
-8
-10
-3
-1
-7
-36
-6
-2
1
10
-3
3
9
7
-1
1
-2
-4
1
-1
-1
5
6
-2
-4
-3
0
-2
-5
-33
-11
-3
0
-3
-2
1
-1
12
3
3
2
-1
-1
2
3
12
6
-1
3
2
0
-1
-4
-12
-9
-1
2
0
-3
0
4
14
2
2
-3
4
2
0
-3
12
8
3
-2
-5
0
0
-1
3
-9
-2
1
-1
-1
-2
-2
-37
-4
-7
-2
-1
1
-2
-4
6
1
-2
1
1
-3
-3
-1
-13
0
-2
-1
-3
-1
1
0
15
3
3
0
1
0
-1
3
15
-1
-3
-1
0
-1
-2
-2
-12
3
-3
-5
-5
-3
-1
-2
-23
-11
-3
1
3
-1
-1
-2
-8
-2
0
4
-4
-3
-3
2
24
-2
-2
1
2
-2
-2
-9
-33
-6
-1
1
1
0
0
1
24
1
0
-5
-4
0
-1
-2
-19
-3
0
-4
2
0
-1
2
27
6
-2
-2
-3
-1
1
3
1
2
-1
-1
0
0
-2
-6
-6
-6
-2
1
1
0
-2
0
7
0
2
0
-4
-2
-2
-7
-20
8
2
0
-2
1
-2
2
7
-3
1
-1
3
1
1
0
12
-5
-2
-1
-2
0
-1
-1
1
3
-2
0
6
0
0
1
17
3
-2
-5
-9
-4
-2
-4
-60
-9
-2
2
2
0
1
2
14
5
3
2
-2
1
0
-5
9
-2
3
-2
0
-2
-2
-6
-10
-6
-3
-4
-3
-3
-2
2
22
4
-2
-7
0
-1
-1
0
-9
-4
-3
3
-7
-2
-1
3
-4
-3
-4
-3
6
1
-1
0
-10
0
0
-3
3
1
0
-2
15
4
3
4
-6
-3
-4
-9
-13
-7
-3
-7
1
3
0
2
5
5
-1
-12
-34
0
4
2
0
0
2
11
13
17
-21
0
10
-4
1
17
13
-32
3
2
4
-2
-1
-4
-5
1
-2
1
0
-2
1
-4
13
-1
-2
-5
-5
-3
-3
-13
-16
-3
4
-2
0
3
-2
-10
3
9
-5
-4
-2
1
1
14
-4
-6
-2
1
8
0
-1
1
0
5
9
-1
-19
-5
-3
-5
-4
7
5
0
6
-4
-4
0
3
7
-5
2
2
0
-1
-4
2
-22
12
0
-3
3
0
-3
0
22
-22
0
-1
-1
3
25
2
-23
-11
1
4
-2
-2
-7
24
-6
-7
-8
-3
0
-1
0
-22
8
0
-2
-3
-3
-4
0
2
-7
15
3
-3
-1
-2
-9
-9
14
-8
1
-4
3
2
9
-7
-6
-1
-2
-2
-4
-4
-1
17
3
11
1
0
0
-2
-6
-21
0
12
7
7
0
-2
-3
29
21
25
2
7
1
3
11
3
6
-6
-1
0
-2
-1
-12
2
1
-16
0
1
1
-1
9
5
-3
7
9
2
5
-4
-14
-11
8
3
-3
-3
6
4
-7
-2
42
-4
0
0
-1
-1
3
14
-41
-9
-5
-10
-11
-9
-13
-27
4
-22
-11
-2
-2
2
15
3
-15
-13
2
3
-7
-6
-11
-7
-23
30
-10
-10
-4
0
-1
3
-1
-27
-3
2
3
2
-1
14
-20
-4
-11
-11
-5
-1
-8
2
31
34
1
-3
3
1
10
1
20
-13
14
4
6
-2
-12
-15
35
20
-7
-5
-6
-1
14
19
-30
24
5
11
7
4
-4
24
0
-53
-11
-13
-10
-6
-3
-46
19
-4
-6
-1
-2
1
-2
-9
-48
0
-5
-7
-1
-3
0
26
37
28
6
3
2
-2
-19
-25
8
-5
-1
0
-8
-9
-25
15
-73
61
2
-3
0
3
6
6
9
-52
-8
5
1
4
21
-19
-22
14
-5
-6
-3
-4
-31
17
-66
4
11
8
3
-2
-20
-22
19
-12
-12
-16
-5
0
24
34
33
5
5
-2
-3
-4
-18
26
-2
-30
9
10
4
2
42
-4
12
-33
-9
0
4
4
-15
-9
-2
70
-3
0
-4
-2
24
-15
-70
40
17
14
-5
-3
9
-6
1
-12
-13
-9
-3
-6
-17
1
49
-59
-20
-14
-6
-3
10
-19
67
17
30
11
12
8
19
48
-57
11
8
9
8
7
22
-77
48
-27
0
12
-6
-3
6
3
-45
2
18
-30
6
5
23
22
6
-22
-21
2
-13
-14
-40
0
51
42
-5
1
-2
0
-14
-12
17
-36
8
5
6
7
14
-26
-46
26
-22
-18
-6
5
19
-7
5
10
-8
3
0
-8
-97
-66
54
-64
-2
25
19
6
47
97
14
108
9
-1
-4
-6
-9
6
-55
59
-2
-18
-5
-8
-41
7
52
-86
-6
-13
-5
0
9
-24
-69
6
-14
-15
-2
0
-51
-1
28
-70
-1
19
2
-2
-9
-34
-2
12
-4
-18
-2
-6
1
30
6
8
-13
-13
-22
-17
-26
-56
-39
-43
-12
-1
11
6
-32
-4
-5
29
7
-4
-5
-1
44
49
35
84
39
60
11
4
-27
-49
0
-67
12
10
6
7
53
68
65
-8
-4
-21
-9
-5
-6
4
-9
6
-15
5
0
-4
-11
-30
38
-74
-7
32
13
3
-1
56
37
57
25
8
14
13
13
-55
3
-51
-19
-20
-10
-1
15
12
-96
19
-15
-78
-14
4
8
-12
40
62
-9
36
-4
-11
13
13
-51
-55
-8
-6
6
-1
-9
-39
19
4
7
23
-2
-4
-4
-13
1
-17
11
10
11
3
-29
20
33
-32
-1
-15
-12
7
62
-8
-54
27
14
22
3
3
-4
26
-49
-23
-43
-62
-25
-20
-14
-18
-6
-3
-1
18
-3
0
6
4
-1
-17
12
0
7
0
-19
-11
12
43
5
5
0
3
27
11
-43
-12
-1
1
-1
-7
-21
-26
-3
-6
4
-5
2
-3
-2
9
24
-24
-8
1
-4
-1
-8
32
-3
7
-1
-22
-3
-1
4
12
21
109
14
13
3
4
41
43
20
-10
4
17
1
1
-2
-15
-24
60
4
-10
4
0
-27
-25
25
-63
-23
2
-8
-8
21
49
50
39
16
3
1
2
-16
-5
27
-14
7
23
3
-1
-13
-14
13
-5
-24
-15
-7
-1
26
29
-14
-20
-6
-6
-4
-7
-25
-1
17
-11
6
-22
3
1
-5
-3
-21
-4
-13
-32
-6
0
8
-6
-56
-31
20
20
2
-1
-15
-27
-29
10
-1
8
6
4
-27
-1
47
3
7
10
-4
-1
12
1
-54
-1
-15
29
2
-6
5
43
32
27
5
-27
1
-2
-11
-28
6
19
4
-17
-7
-6
-26
-21
24
-26
2
0
-1
11
73
17
-38
1
-4
-6
1
5
-10
-26
-8
18
-8
11
-10
-5
8
9
-30
-13
6
5
-1
4
34
-39
-11
-7
0
9
5
-1
-27
-27
-1
1
-16
-26
-9
-5
1
-24
-35
-45
-4
4
1
-1
6
15
-8
11
2
-1
8
0
-8
-10
-42
3
-3
7
0
-3
-20
33
25
-17
4
3
-2
-2
-16
-68
23
34
-11
-13
0
2
29
64
13
12
-4
-4
1
2
10
14
37
13
9
11
-1
-1
-11
-5
19
4
-10
-13
-6
-7
-20
-17
-38
-23
7
13
3
5
36
0
-10
-5
1
-10
-1
1
-1
10
-5
0
-7
-2
-7
-6
-10
-6
34
37
11
14
9
3
12
2
27
29
-4
-5
-1
-1
-14
11
4
-16
-2
-5
-1
1
23
23
-37
-14
11
5
-3
-1
-23
-40
-17
-20
-11
-31
-2
-1
2
-4
-11
24
6
51
-2
-2
12
-11
-40
-10
0
-16
-1
-2
-17
8
16
38
-4
1
5
2
-13
-25
32
-60
-2
0
-5
0
37
24
-74
-21
0
-8
1
2
-8
-15
6
3
12
16
6
-1
-3
12
30
25
-21
-17
-1
4
54
48
27
5
9
6
-1
-1
-7
7
2
-34
-8
-21
-4
-1
-7
-3
5
-12
5
17
1
-6
-32
-40
3
15
12
9
6
4
26
-37
11
-13
-1
1
-6
-5
-3
39
-27
6
4
-17
-3
-2
-18
-24
23
5
-14
-6
-12
-3
-1
-2
13
21
-2
-19
-5
-1
-2
5
1
-5
-11
12
-1
-3
-4
-4
11
-18
15
11
9
-3
-19
-15
28
-32
-28
-31
-10
-3
-2
25
-8
-47
0
11
2
-4
-14
-12
-43
8
13
2
5
3
-4
-15
0
-10
-9
-17
0
-2
-20
-10
33
10
4
6
3
2
16
11
18
1
6
3
-5
-1
1
3
-56
14
-6
-10
-6
-5
-43
-8
8
-35
2
14
0
-3
10
-21
7
43
5
17
2
0
-11
-5
13
1
-16
-38
-3
-1
4
-13
8
5
5
-1
2
-2
2
20
23
-6
-6
-25
-5
0
-4
-2
-56
4
-4
-2
-5
-1
7
11
1
-15
8
8
-3
-8
-12
-31
14
6
3
-2
8
2
-9
-15
42
26
-13
-6
-1
4
23
46
-15
-19
10
13
5
4
22
24
-12
21
-3
1
-1
-2
-18
10
41
42
1
-4
4
2
17
21
30
5
-3
0
-4
-2
-13
-39
-8
-12
0
7
0
-1
-26
-60
4
-3
3
-1
5
5
22
57
15
-7
-8
-6
-8
0
20
-1
-17
-1
-8
3
-4
-7
-22
-18
-22
-8
9
13
2
0
-16
-12
12
-20
-14
-2
-2
-5
-11
-1
8
-5
-3
-11
-5
-2
4
2
22
0
16
12
3
1
6
-3
-16
-36
-28
-31
-12
-5
11
16
-14
2
15
11
-2
1
0
-3
9
-3
4
5
0
0
0
5
-2
15
-3
1
0
-1
-14
15
4
20
9
12
1
-2
8
20
-27
-3
6
10
4
-3
-20
-17
-25
-2
-5
-15
0
-4
-14
1
20
-1
-11
-5
-2
3
23
7
-9
15
3
3
0
0
3
-6
-25
-14
0
-5
-6
-3
-21
-35
13
-13
7
11
2
3
-5
1
-10
-1
-2
-5
-4
-6
-19
15
11
16
-3
-7
-6
0
29
-16
32
10
3
11
2
1
-7
14
7
-10
-2
2
4
0
3
2
-10
-4
4
-4
-4
-2
-10
-12
-2
-29
-6
-12
-3
1
-4
3
-16
-17
7
2
-3
-4
-10
15
3
14
-3
6
2
-1
4
-5
-26
40
-6
-3
-3
-1
12
-10
16
7
5
7
3
-3
-29
-41
14
-14
-15
-13
0
1
-7
25
3
-22
3
19
-3
-4
-13
17
7
-9
-16
-44
-10
0
5
-12
-21
1
-7
-7
-3
-2
-7
21
6
-4
-2
7
4
0
17
-11
-20
-33
-5
-4
-9
-3
-13
9
-7
50
11
23
12
5
22
-7
-36
27
7
1
-2
-1
13
15
-9
-25
-5
-2
-4
-2
-25
-36
-13
33
2
-3
1
0
10
11
10
-10
1
3
0
-2
0
-25
26
5
4
-1
4
3
8
19
11
-17
-7
2
-6
-1
9
-3
-19
3
-3
-6
-1
-3
-2
-21
-16
-19
1
5
-3
-3
-11
2
-16
-71
-6
-3
-1
-2
-16
-13
-2
26
3
0
3
2
27
23
21
4
-3
-6
-1
4
26
2
-6
-25
-3
-3
-1
-5
-15
-3
8
20
18
14
10
7
15
13
14
-1
-2
-5
-4
-1
-6
7
-17
-18
-3
0
-2
1
6
-3
-15
4
7
-4
0
-4
-33
-17
25
-21
-15
2
-3
1
36
30
29
-2
7
6
-3
0
-1
-21
-35
11
1
-8
-2
-4
-9
-23
-2
-35
-9
2
4
3
3
-5
24
0
-3
-1
4
-4
-22
-31
29
24
-2
-1
0
5
22
18
8
-11
-12
-16
-6
-3
3
-9
-11
12
12
9
0
-2
-4
4
3
9
-2
1
1
-2
-7
-2
-13
-9
6
10
4
-2
-3
5
20
9
-9
-19
-2
0
-4
2
-5
35
-1
-3
-4
1
15
14
11
-9
-2
-4
-4
-2
-8
-6
-31
7
5
6
0
-5
-13
-22
16
-24
10
-1
1
1
2
6
-7
13
-3
2
-3
1
7
4
20
-9
0
2
-6
-3
-10
-20
-15
4
-9
-15
3
-2
17
67
24
-8
-2
-1
-4
-2
-4
-17
-48
-18
0
4
2
1
5
1
-1
0
-2
-8
-3
-2
-12
-5
-10
36
-9
-12
-5
4
8
-15
-8
3
1
13
5
-2
-10
-15
19
16
7
6
-4
-6
-15
10
3
1
-9
-7
-2
2
29
17
-51
-22
6
-1
0
-2
-9
12
-11
1
-7
-8
-1
-1
-2
9
14
-11
5
0
2
0
1
-13
-13
35
1
0
-2
-3
-15
-3
18
-39
-2
9
-3
0
3
-13
-12
1
6
-8
-4
-4
-9
2
-10
10
-5
-4
2
-3
-12
9
-3
-11
0
-7
-1
0
3
16
3
6
2
5
-4
-2
-1
-14
-20
19
7
5
3
-1
-8
6
17
3
-9
-16
-7
-3
2
-3
-13
-13
4
4
-2
-6
-9
-6
-36
13
-3
-7
2
-1
-21
0
2
-1
4
5
-3
-2
0
-5
16
-6
-11
-13
-9
-2
-4
-10
36
31
-4
4
-3
-2
-8
-8
0
-33
0
1
-1
-3
-13
-19
13
6
-3
-7
2
1
-1
15
10
-21
3
3
1
1
20
26
-48
0
0
-7
-5
-4
-15
-1
-2
12
1
-4
1
3
25
19
31
8
-2
12
2
-2
0
-10
28
-19
5
8
3
1
-1
-4
6
6
-3
-1
1
2
11
18
33
9
7
-1
-2
-1
-8
0
-25
-4
0
5
-1
-1
-5
-7
3
9
4
-5
1
2
25
20
-8
-2
1
12
-3
-3
2
-23
17
6
-8
-11
-5
-2
-8
-5
5
-21
2
1
2
1
11
14
-1
-18
-10
-2
-4
-1
-20
6
-36
-15
3
0
7
1
25
15
4
14
3
5
2
-1
10
3
2
2
-2
-6
-6
-2
-8
3
-4
-14
0
-7
0
0
-11
-8
-12
11
-4
-4
-2
-1
1
7
4
-14
-1
-1
-1
-2
-7
2
30
-40
-3
2
1
0
23
13
-15
28
11
13
2
3
1
-8
13
9
0
2
-1
2
5
-3
-7
-1
-6
-5
-2
-2
0
6
20
8
1
0
5
1
-7
-1
5
-28
-11
-3
-1
-5
-24
-9
10
-28
-1
-1
-7
-5
-2
-19
-64
27
4
6
2
1
-18
-21
21
-39
-4
0
-3
-4
-20
-6
-19
28
-11
-3
-6
-5
2
-12
-64
0
0
2
1
0
-1
12
22
-9
0
0
1
-2
3
-2
-24
20
5
-2
-3
0
0
-14
-5
-9
-1
-4
3
1
1
-4
26
6
3
6
4
4
-1
26
9
-7
-12
-6
-5
-2
7
-15
-4
22
-8
-5
1
1
14
-26
-11
22
9
-3
-2
-4
3
22
28
27
4
0
4
3
1
3
30
-14
-4
-4
-3
-5
-22
-13
-45
10
-3
5
-3
1
8
9
34
-12
-6
-1
-4
0
17
-8
20
25
-5
-4
0
-3
-22
6
-3
-25
3
-1
0
-1
0
-3
11
6
-1
-5
0
3
7
18
8
1
10
5
1
-1
1
-2
3
-4
5
-2
1
1
-9
10
23
-9
1
4
0
1
13
-3
-27
38
11
0
3
-4
-8
-2
8
-46
-11
2
2
-2
-4
21
11
30
-5
2
0
-1
-5
4
-13
-13
4
-1
-2
2
16
-15
-16
-26
-1
-3
-1
0
20
30
-18
-6
-4
-7
-7
-3
-9
-10
-11
-17
-8
-8
-2
-3
-9
-17
12
29
4
0
-2
-2
3
5
-7
-15
-6
-4
-2
-1
6
13
1
0
1
17
5
2
1
-9
-13
-32
-1
-7
-6
-3
4
-7
-3
18
-5
-7
-4
-4
-13
-10
-4
0
3
5
1
-1
-9
-15
5
3
0
0
1
2
5
-6
5
-7
0
-3
-5
0
4
-10
-17
-12
-1
4
3
-1
-9
14
-2
4
-8
-6
-2
-1
3
-19
-10
-2
-4
0
0
-1
8
0
-12
14
5
7
3
-2
-16
-16
-1
-1
-6
-9
-2
-1
6
1
6
3
1
1
-2
1
0
6
3
2
5
2
-3
-5
-7
-10
-12
-9
-3
2
-2
0
7
-6
-5
-1
-1
4
0
-2
-11
-1
-1
3
-5
-4
1
-3
-9
-10
-9
-6
1
-5
-3
-1
-4
0
5
-7
-4
-5
-6
-2
-4
-4
-5
-1
-1
4
2
3
5
6
4
5
0
-1
0
-1
-8
-5
0
3
-3
-3
-1
0
0
2
5
-5
2
4
3
1
5
2
-4
2
-5
1
2
2
0
-6
1
0
-5
-1
0
1
0
5
-2
1
2
-3
1
3
-3
0
2
-5
-1
-1
-3
-2
2
-2
-2
-3
1
-1
0
-5
-4
2
-3
-1
-4
0
0
-1
0
5
0
0
-3
-2
-2
-1
2
-1
3
0
3
3
0
0
-3
0
0
-1
-3
-8
0
0
3
4
0
0
-3
-13
-5
-1
-4
0
-3
0
-1
2
0
-2
-2
-2
0
-1
-1
0
0
0
4
-1
-2
1
6
7
-10
-6
-5
-4
-1
2
1
-2
-1
-1
-4
-3
-1
-3
-3
-6
13
11
3
-1
0
-1
3
0
5
1
-1
-1
-2
-1
0
0
6
-4
-2
3
-1
-1
-4
-3
-36
-7
-2
-6
0
2
2
10
15
0
2
0
2
-3
-2
-5
1
9
2
2
1
-2
0
0
-4
-3
-3
1
-1
0
6
41
19
-2
1
-4
-2
-4
-10
-48
-35
-9
-9
-4
-1
0
-1
-6
7
1
2
-1
-1
-4
-6
3
4
0
-2
-2
-2
0
0
-20
0
-5
-5
-3
-2
0
1
17
3
-1
2
-3
0
-1
0
-1
-3
-3
-3
-3
-3
1
-3
-17
-25
-4
0
0
1
-1
1
17
27
3
-3
-1
-2
1
3
20
9
2
4
1
0
1
4
4
9
2
1
-1
0
-1
-8
-25
-12
-2
0
-2
0
-1
-1
-18
-14
3
0
0
-3
-2
0
-6
-14
-10
-7
-1
-2
-1
3
5
5
-13
-6
-2
-1
-1
-1
4
23
18
6
4
-2
-1
-4
-25
-6
1
-2
-1
-3
2
10
-7
14
9
6
5
2
-2
-6
10
-22
-7
-4
-2
-2
-1
7
1
-8
-14
-6
-3
-3
-3
-7
38
8
-1
-3
-4
0
0
5
26
15
0
-1
0
0
1
0
-25
3
4
2
1
1
0
3
1
2
1
1
0
2
0
1
-1
-13
1
2
-2
-2
0
-10
0
0
-7
-5
-3
0
-4
-5
-15
-10
-7
-3
-1
-3
0
-8
-25
-5
2
1
5
0
-1
0
8
14
0
2
-2
-1
-1
-5
-38
-19
-4
-5
-5
-2
-2
-1
44
16
-2
-2
1
-1
-1
-4
5
-6
6
-2
-9
-2
3
5
-15
8
1
3
4
2
0
0
11
5
-1
0
4
-1
0
-8
-63
-28
-1
2
0
0
-3
1
33
4
-3
-6
-3
-2
-1
4
21
6
-6
-4
-6
2
-4
-3
-2
-5
-3
1
1
-1
1
-2
-17
0
1
-5
-3
-1
5
5
11
6
4
7
8
0
-2
-2
-14
-6
-5
-3
-3
-2
-1
1
11
4
3
-1
-1
0
-5
0
26
-10
-6
-4
-3
-3
-1
-5
-5
5
-2
-5
-3
0
1
2
-1
-7
1
-2
4
-3
-5
-6
-14
-4
-14
-8
-14
-6
-1
-8
-38
-1
7
4
1
1
-3
-6
-19
-6
0
4
5
-1
-1
5
16
6
0
2
2
2
-1
-2
-7
-11
2
1
2
0
0
-1
12
0
-1
-1
-4
-2
1
3
-4
-1
-7
-5
-3
0
-1
-8
9
6
3
0
0
-3
-1
4
5
-4
2
0
2
0
0
-1
33
13
2
1
-2
0
1
5
28
5
-3
-2
2
0
-5
-7
-14
-29
-7
-5
-5
-2
0
-6
-20
-10
-6
-4
-4
-1
-2
-1
27
11
-1
-1
1
0
1
4
-6
7
4
-3
-8
0
2
1
2
0
0
3
8
1
1
6
25
10
6
5
-13
-1
-1
1
-24
-5
-3
-3
0
0
-4
-6
-7
-4
-5
-2
0
-2
-1
-2
-8
-1
0
-3
-5
0
0
-4
-9
1
-5
-4
7
-3
-1
0
18
-2
-3
3
3
-1
1
4
-10
2
7
6
-3
-2
-1
-7
-6
2
1
1
-2
-1
-1
-2
8
2
0
-2
6
1
-2
0
19
4
-5
-13
-18
-3
-1
-2
-32
-5
-3
11
15
3
-2
0
-6
2
-4
-1
-4
-1
0
1
18
-1
6
3
7
2
-1
-1
-6
-1
2
1
0
-1
-1
3
15
0
0
-6
-8
-1
0
1
-16
2
-2
-2
-2
-1
-1
-5
-27
-10
-5
-3
-3
0
-5
-1
10
-4
-2
1
2
-3
-1
-1
15
3
0
-4
-4
0
-1
2
-8
-1
-1
-1
4
-1
1
1
6
6
-1
1
-6
0
-1
-6
-9
-18
-3
2
2
0
-3
-7
-12
-2
-5
-5
-3
-3
0
4
15
7
2
1
-2
-3
-1
-4
-24
-4
2
-2
-2
1
0
3
13
8
-3
2
-1
-2
-1
-2
-6
-5
-5
-2
1
-2
0
1
16
1
2
-3
1
1
-1
-4
-15
-3
-1
0
-2
-1
0
1
9
5
2
-3
1
0
-1
-4
-18
-6
-3
-2
-4
-1
1
1
-6
1
2
6
10
3
-2
0
24
2
-3
-2
-1
-2
1
2
-14
1
2
3
5
1
-1
-1
-4
-3
-4
-4
-5
-1
-3
-7
-4
-6
-6
-5
-6
-2
0
1
9
0
0
1
3
-1
1
-3
-15
-2
6
3
5
0
1
4
24
8
3
2
-2
-1
-2
-8
-28
-5
-1
-1
-4
0
-2
-1
3
0
1
-2
0
-1
-2
0
-3
-2
-5
-1
-3
0
0
0
6
2
-1
-4
4
2
-1
1
2
-2
-2
-1
-8
0
0
-1
-3
2
1
3
-5
-3
0
1
-7
-3
-1
0
4
1
0
-2
-3
0
2
4
1
0
1
0
-6
0
2
-3
-2
-4
0
1
-6
4
-2
5
15
3
-1
-3
-3
-1
-5
-2
-1
-2
0
-4
-4
-2
-1
-1
-1
-1
-1
0
-1
3
5
3
-2
0
0
9
25
2
3
-1
-6
-3
-7
-19
-22
-7
-4
-7
4
0
3
-2
-4
0
-4
3
-13
-4
0
-3
-20
-10
-5
-1
2
-3
1
3
9
0
1
-3
14
-2
0
6
4
2
1
-3
-11
0
-5
0
6
1
-2
-2
9
1
0
-1
9
-2
-3
5
-7
-1
0
-2
-9
-2
2
-2
3
1
-1
-1
1
2
1
-5
-9
5
2
-2
-3
1
1
-5
-9
4
-2
-3
3
-2
-2
-3
4
-16
-1
-4
-1
-1
-5
-4
-12
-1
3
4
-3
0
1
1
-14
3
-9
-1
5
5
1
4
14
8
15
3
-6
0
-3
2
20
20
-4
-4
-3
-3
0
12
-7
-3
4
-2
-2
-4
-2
-5
-2
12
-16
0
2
-2
-3
-2
-11
-49
2
-1
5
-3
-3
-18
-30
7
-16
-7
-7
1
-4
-3
34
-5
17
1
1
0
2
4
8
-4
-5
-1
-1
1
-2
-2
2
6
-5
-5
-4
1
0
9
10
22
13
2
0
-2
-2
-14
-19
8
2
2
3
-1
3
5
-3
-21
-1
-4
-3
-4
-3
-2
-5
-3
9
5
2
2
-1
-10
2
9
-1
-6
-7
-1
1
7
-10
-3
-29
5
0
-6
-2
9
11
-41
1
-4
-5
1
4
3
1
-15
-11
-3
0
-4
-3
-9
2
0
-2
0
-4
-5
-1
2
-26
34
-18
0
4
-2
-1
-6
5
-17
7
-4
-3
1
-2
-4
19
-11
24
-2
-3
-2
-4
2
1
28
-9
5
1
1
0
-5
19
-30
18
1
2
4
1
2
-37
59
-12
8
2
-3
-2
9
15
-7
-25
3
5
10
3
-6
7
15
31
-5
-5
-4
-4
4
14
-20
28
11
11
6
1
11
-5
-13
-25
-5
1
4
3
3
16
56
-7
-20
-11
-7
-3
-4
-33
-45
2
14
6
1
-2
-7
1
21
1
-2
-1
9
4
0
19
-27
63
-1
-6
-8
-6
8
-22
-30
8
6
7
1
2
2
31
-4
-15
-4
-9
-4
-8
-44
-48
18
25
-11
-12
-5
-1
15
23
99
-17
7
7
-1
-3
-16
9
-24
-16
-7
-2
-5
1
10
-2
7
1
7
8
4
0
-20
-13
31
5
-12
-12
-2
-4
-13
-2
-25
24
-8
-5
-8
-8
-10
-28
-44
16
11
3
1
0
-13
32
-34
10
5
0
9
11
55
60
62
-1
11
25
1
0
24
-52
-1
-74
-22
-19
-3
1
0
-62
37
-9
-10
-2
-2
-6
-14
-22
-29
-22
-9
-10
-9
-1
0
38
-6
14
5
-9
-13
-11
-42
-18
5
75
14
7
10
3
-12
16
45
-33
-17
8
4
3
49
-13
-12
-75
-4
25
3
1
-1
-49
-94
-54
-22
-11
-2
-9
-47
-87
-53
11
-26
-86
-26
-4
-2
6
10
-21
-12
5
-20
-13
0
-6
-67
43
6
1
-4
1
16
-8
-39
-35
4
5
3
1
-6
8
-34
-23
15
64
30
5
-20
-9
34
29
5
-32
2
3
-7
-41
-23
-19
-4
-21
-11
-3
22
55
17
25
6
-9
-4
6
35
21
7
-21
5
12
-9
-10
-28
-48
-33
18
28
19
6
8
14
-18
14
-38
-10
11
7
2
-10
-25
-20
-50
0
-5
-3
-5
-16
32
10
20
11
14
9
4
11
54
16
-62
0
10
1
-9
-24
-22
58
87
-2
-26
-13
-6
-33
-48
-33
-29
-31
-20
-7
6
45
100
-26
-29
5
8
2
0
19
25
30
47
19
6
8
9
31
27
-9
-13
-6
7
3
-4
-10
-5
70
-29
7
39
-1
-2
-32
-54
10
73
-14
-64
-6
-11
-27
-3
9
6
1
-8
7
-7
-42
-17
24
-11
-4
-16
7
1
5
-5
81
51
17
76
7
3
14
-12
40
33
25
-19
4
20
51
7
6
-32
-11
-29
-27
-9
-16
11
6
8
-12
-28
-3
-9
-3
-60
-5
-49
-8
10
9
-5
-16
18
-15
-2
7
32
8
1
-9
-2
-13
40
25
27
1
-1
-7
2
17
-102
-8
-6
-1
1
18
68
-94
91
12
-9
6
4
9
-3
-2
-95
-17
2
-6
2
36
29
-19
-17
-3
-9
4
2
-22
1
49
84
-8
8
-12
-4
16
4
-32
-6
7
-21
-2
-2
-22
3
-19
-31
4
6
-5
-5
-1
-5
-27
15
-20
-13
-3
-1
-16
-7
11
-6
3
7
4
1
-8
21
41
-17
-8
-21
-5
-2
23
-12
-6
24
3
8
-7
-7
-38
-27
6
-50
-11
1
1
1
12
12
-77
-28
-15
6
3
8
14
50
-5
28
4
-33
-7
-9
-30
-1
-6
-23
-8
17
-6
-4
-4
-5
38
31
0
-11
4
3
11
4
50
-29
2
-13
2
0
-8
-6
29
53
9
-3
7
4
4
3
80
48
-12
-7
-3
-1
-9
11
-1
-54
6
35
1
1
28
22
-58
47
7
11
7
-5
-22
-17
-32
-39
-14
-15
-10
-5
-20
-9
9
-14
-5
-8
1
3
33
23
4
23
10
3
3
8
21
9
-1
-29
8
14
-3
-2
-30
-62
-23
-17
-7
-9
-4
-2
16
6
-41
-5
-24
-18
-17
-8
-1
-21
-87
5
-12
-6
-1
-3
-9
-3
6
-4
9
1
-1
-4
-12
-5
29
-1
-1
6
2
5
36
49
25
-30
7
12
5
4
3
-18
-3
12
-7
-12
-6
-3
-8
-27
5
3
-2
1
-7
-4
-2
-1
-11
-6
12
2
7
5
9
23
-9
22
8
8
3
-1
-3
-5
-36
7
-12
-1
0
-1
-8
2
11
2
3
-4
-3
1
6
-9
11
7
-3
-5
-1
-3
-12
6
-1
1
1
-1
2
2
9
13
13
-5
2
7
-1
-4
-14
0
3
9
15
31
-1
-1
9
3
-24
-28
-35
-66
-13
-8
-3
-6
-21
6
1
-19
-3
-3
-8
-6
22
-7
24
18
10
5
5
14
16
13
-6
4
1
0
1
-6
-22
14
16
24
1
1
12
-16
5
-12
1
-1
1
0
-11
-4
35
-10
-2
-17
-2
-1
-5
17
1
4
3
12
8
4
18
3
-2
27
5
9
5
0
-20
-32
18
21
-3
-8
-4
0
11
-9
-19
-10
-14
-2
-6
-4
-6
11
17
27
6
-2
0
1
9
14
18
0
0
0
-9
-7
-23
-37
5
-14
7
16
2
0
-13
-4
-22
14
-8
-28
-5
-3
1
-6
-8
-8
-3
-13
-6
0
14
12
42
-13
7
15
11
4
6
33
-2
62
7
16
-1
-3
-9
-14
15
-14
-15
-1
-3
-1
12
8
-11
-11
-7
-10
-5
-1
-16
-26
-8
-65
1
2
1
2
14
-9
18
-23
0
5
6
4
24
35
-22
26
10
8
0
0
11
-8
-4
-8
10
18
2
-2
-9
5
-18
-15
-31
-25
-13
-4
-8
-1
-29
-5
-3
-14
1
0
6
4
5
7
-4
-2
0
-3
-19
-19
15
4
5
-3
2
3
17
32
37
46
7
24
7
1
14
10
-17
-13
-10
-11
-6
-4
-12
-27
3
16
3
-6
-5
1
0
-21
-8
2
-7
-22
-3
-6
-24
8
-17
29
9
32
10
1
9
12
6
14
-1
2
5
-2
-17
-2
10
19
5
8
1
1
7
-30
-23
7
-9
-13
-8
0
-5
-16
-16
-16
-4
-9
-2
-4
-27
-24
1
13
9
14
3
-3
10
-8
-7
-53
-11
-9
-3
-1
-3
39
-26
-12
2
-3
1
2
17
3
7
1
6
-1
-5
1
2
-6
-32
-35
-7
-4
-3
0
-10
15
17
-7
-2
-4
0
-1
1
-8
-2
13
-10
-1
0
-1
5
0
12
-17
7
-4
-5
-5
-14
-14
-3
20
3
0
-1
1
4
4
7
-3
2
2
0
0
23
28
-44
4
1
5
-1
-5
-18
-9
-1
-14
-14
-6
-2
1
12
1
13
-16
-8
-9
-2
-2
-3
5
-53
25
5
0
1
-1
-3
2
13
-3
-3
-2
-4
-1
1
3
5
62
5
-6
1
-2
1
-14
2
-17
-2
-2
-4
-2
-8
-14
12
-12
3
8
2
-1
1
7
33
18
-1
-1
0
-3
-6
-21
-12
-12
-9
-4
4
0
1
33
9
-10
-2
-3
-1
-3
-14
-11
28
15
1
-1
1
-1
-5
0
1
3
3
1
-4
0
-1
-3
-34
-6
0
6
0
1
-8
-13
-2
-7
-7
4
1
-1
20
14
9
-20
2
-7
-3
-1
-11
-1
-7
7
-13
-11
-2
-4
-10
-7
0
1
0
1
-4
0
0
-2
-39
7
6
5
1
0
-7
-7
6
1
1
6
0
1
-3
5
7
-28
-3
-1
0
0
13
13
0
0
2
1
-2
-2
5
6
10
-4
-3
-9
1
-4
-14
-15
14
5
-9
-9
-7
-2
8
15
-6
-3
4
10
1
-2
-15
-13
-8
-41
-8
-10
-7
-6
-2
-3
16
0
0
0
-4
0
5
-12
-3
-4
-1
-1
-2
-2
-7
8
5
-5
-4
3
1
2
2
8
-71
-42
-1
-2
3
3
29
23
-18
49
-6
-5
-6
-8
-2
5
25
-4
-5
0
0
4
23
-4
-12
20
6
4
2
3
19
6
14
31
4
-1
1
0
-20
-10
2
-12
-6
0
1
2
5
-5
-11
27
0
5
-2
-1
4
-2
-7
3
3
-6
-2
1
-10
-5
19
-4
-2
-1
-5
-1
-2
-5
1
26
5
18
8
2
5
13
16
3
0
3
-1
-3
3
5
29
1
-4
-9
-2
1
6
-17
26
-1
6
-8
-6
-6
-19
15
26
9
6
-2
0
2
6
31
-33
-39
-7
2
2
-3
-18
-16
1
0
5
10
2
-3
-1
0
-1
-9
-7
-5
4
2
-6
-4
6
-28
2
5
1
4
40
26
3
15
-8
-10
-5
-3
-2
3
-24
-1
-1
0
-4
-2
-11
9
4
2
13
9
4
1
-9
-21
1
-9
0
-4
0
4
5
-12
-49
6
0
2
3
0
-14
-14
-3
9
4
1
-4
1
35
21
21
-12
-3
0
-1
-2
-6
23
8
-15
1
-5
-2
-2
-9
-9
-8
-22
4
2
1
0
-1
-7
-10
-28
-4
-3
-5
-7
-32
6
5
20
1
-3
-4
-3
6
-51
-13
-26
-8
-7
-5
-4
-15
-21
9
-13
-10
4
0
2
17
-3
-5
-9
7
1
2
0
-16
2
10
14
0
-6
-3
-2
2
10
-35
3
2
-6
-1
0
2
0
-2
28
-4
-7
-3
-4
-10
-29
0
-6
-6
3
-1
-4
2
0
12
-18
-1
5
0
-1
-11
-7
-15
23
-5
-19
-8
-5
4
6
5
-46
4
3
1
1
-5
7
20
-15
-2
-2
-2
-2
2
8
7
24
-4
-3
3
0
4
-17
-4
-2
7
11
-1
-2
-23
4
13
13
-11
-11
-1
2
10
11
23
-6
0
-1
-3
-1
0
4
-19
-11
-2
4
-2
-4
-2
22
-5
35
8
5
5
1
-9
-24
38
-4
-5
-10
-2
-3
13
45
39
8
-7
-6
-5
-1
-13
-22
-22
-11
-13
-8
-3
2
4
38
8
10
2
5
0
1
6
-21
6
-6
5
8
-1
-2
-17
3
-14
5
-2
-3
5
0
1
-6
17
20
10
0
0
-2
-7
7
22
-82
-15
-3
0
-1
14
1
-48
21
-6
1
3
1
-2
-24
-19
14
-2
-5
-2
-1
11
7
-3
-33
8
4
1
1
9
-16
-12
20
-5
-4
0
-2
-18
28
25
1
2
0
-3
-6
-10
-18
1
33
-2
-2
-2
0
10
-15
24
15
-3
-1
-1
1
2
2
0
-17
-1
3
0
3
9
8
-18
6
2
4
0
-1
-16
-21
8
-4
-5
-5
-3
-2
-7
1
-1
10
4
-13
1
-1
20
30
21
3
1
3
0
-2
-11
-19
14
69
7
-5
-4
-1
-7
2
-6
-19
-7
9
2
-2
-7
-13
-13
-7
-7
5
2
0
11
18
4
2
-6
-6
-5
-5
-16
-46
-30
-24
1
1
2
0
8
19
-10
-1
8
1
-4
-1
-7
-19
-27
14
18
11
2
3
11
-6
13
-26
-29
-23
-10
-4
-8
-7
-8
-17
1
7
-1
-5
-26
-19
-23
-58
-5
0
2
4
6
-4
-9
9
2
0
-2
-1
-13
-1
-7
0
9
6
4
1
7
20
-12
-5
-2
-5
-3
0
2
-14
-6
1
-1
1
1
-2
-1
10
8
-8
-14
-6
2
-4
-13
-24
7
20
2
1
-3
-2
-3
14
2
7
7
-4
-5
-2
-2
-13
-23
15
4
3
2
0
17
14
9
-38
-8
4
1
-2
-17
-38
-18
0
3
4
2
0
-10
-4
-14
8
2
0
2
2
29
35
25
-6
-2
-6
-5
-3
-18
6
7
24
-9
-5
-8
-1
-8
-3
-22
-12
3
3
-1
-1
-2
23
3
4
5
-2
0
1
10
-13
-6
-12
-6
-11
-2
-1
-2
-11
21
2
6
-1
0
0
-6
-22
-21
7
-4
9
5
1
1
16
26
-2
2
-2
-2
0
5
9
16
9
5
3
1
0
-5
-4
-23
-10
-12
-16
-1
1
14
31
6
1
13
3
-5
0
20
-26
-25
-36
-12
-1
0
-2
-21
-5
26
83
4
0
2
4
21
32
-7
17
10
2
-3
-5
-15
0
31
-5
-4
-2
-1
0
0
9
-17
-39
-17
-10
-6
-1
3
3
-12
-11
-3
3
-2
-4
-25
-36
-4
0
3
2
5
4
18
2
16
21
1
0
0
-2
0
18
15
4
1
5
-1
-4
-12
-23
14
-23
-4
-6
0
0
-2
9
-18
-10
-18
-9
-6
-5
-2
4
13
4
12
7
2
1
6
2
3
1
3
-2
1
0
-11
6
-2
47
3
6
3
-1
15
2
13
7
2
-1
3
4
28
24
5
-12
-5
-10
-6
-6
-16
-12
6
-11
13
11
0
-2
1
3
-11
6
-5
-11
-2
-1
-14
-33
-12
-3
-2
-3
-2
-2
-8
-27
-1
-11
-8
-1
-5
-4
1
12
-21
-44
-1
4
2
2
4
-6
-22
-32
-8
-2
-3
-2
-4
-2
-3
17
7
0
5
1
-2
11
12
-50
-1
-2
1
-2
-5
4
5
40
-12
-14
-3
-4
-7
-21
-4
-19
8
5
-3
-2
-11
-8
-21
-10
-7
-11
-3
-1
2
9
-3
18
3
5
3
1
0
-12
13
-2
-3
3
1
-3
-10
-4
-2
1
8
2
1
0
9
33
14
5
-9
-3
-7
-5
-6
1
-25
4
-3
-1
-2
-1
-2
-28
9
-25
-1
-2
1
4
16
14
-25
35
6
2
3
-1
-8
-2
13
12
-1
-1
-5
-4
-13
-20
-81
-2
-8
-5
2
2
2
20
8
14
3
6
2
-2
-8
9
8
4
-4
0
-2
0
19
9
16
-39
3
6
0
-4
-20
-27
-54
3
-5
-9
1
4
13
10
2
23
-7
-3
-4
0
3
9
-7
-19
1
1
-4
-3
-4
1
0
5
0
-1
1
1
-6
-6
29
-4
4
7
-2
-5
-11
-9
0
-3
2
-3
-2
0
-2
-6
7
-7
-6
-5
2
-1
-6
7
-2
-9
-1
-3
-6
-4
-14
16
15
2
1
1
1
2
16
2
-10
12
6
2
-1
-1
2
1
9
-14
-4
-3
-1
-1
-4
-8
-8
7
2
-3
2
-1
1
2
6
0
4
2
-2
-1
-9
-8
7
7
1
1
1
-2
-1
-5
3
-12
-3
-2
-2
0
2
0
-7
-6
2
6
2
3
8
5
13
4
-4
-6
-2
-1
-1
-1
3
-1
-2
-1
-1
-1
6
0
-1
-1
0
-2
4
-1
1
-6
-6
3
-1
0
-3
1
9
5
10
-1
-3
-8
-7
-5
-10
-8
-2
4
0
1
0
0
-4
-3
-4
-5
-1
2
0
1
4
2
-2
0
-2
-3
0
1
1
-2
5
-3
0
-1
1
-2
-5
-2
0
-1
-1
-1
-1
0
0
-1
2
-2
-2
-1
-2
0
3
-1
-1
-4
-4
0
-3
-2
3
-2
1
3
-1
-2
-2
-1
-4
-3
0
2
-2
-3
-7
-4
0
-2
4
-3
-1
1
-1
0
-2
-3
-2
1
-1
-3
1
3
2
0
2
-2
1
3
16
3
-1
-3
2
-1
0
2
2
0
0
0
0
-4
-3
-2
-15
-8
-1
0
-2
-1
-1
-3
3
1
3
2
3
0
-3
-8
-10
-6
-5
-2
-1
-1
3
8
19
2
2
0
0
0
6
0
8
13
2
-1
-2
0
-3
-3
-2
-3
4
2
3
3
5
-13
2
2
-2
0
-1
-1
-3
15
-15
-7
-3
0
-4
-5
-6
-14
-13
-3
-2
-2
-2
-1
-1
-4
14
2
0
0
2
0
1
15
3
-2
-1
-2
0
1
3
-10
1
1
-1
-1
2
2
3
3
8
-5
0
-1
-1
-2
-1
8
-15
-5
-3
-3
-1
1
0
-33
-29
-6
-1
0
1
0
2
12
9
-1
-1
-1
-2
-3
-9
-1
10
0
-2
0
-1
-3
-3
3
3
0
0
-2
0
-1
1
7
-6
0
-1
0
-1
-1
0
2
4
-3
0
2
1
-1
0
4
-12
2
1
-3
-1
1
0
-8
14
-1
1
0
1
-1
-2
14
-5
3
-1
0
-2
0
2
-3
-9
-3
-1
0
0
-2
-1
-3
9
-7
-3
0
1
-1
5
26
-5
-1
1
-1
0
-2
-9
-39
3
4
1
-1
1
-3
-7
-33
5
-3
-5
-4
-2
3
8
24
5
5
3
2
-1
3
-6
-46
-18
1
0
0
1
-8
-8
28
9
0
-4
-4
-3
-2
5
16
13
-1
-3
-3
0
-2
-4
-6
0
-5
-1
-1
0
3
11
-15
13
3
1
1
0
1
0
33
-5
-1
-3
0
0
-1
-4
-22
-22
-7
-5
2
0
-1
3
-6
8
3
6
-4
-2
-3
0
62
-7
-3
-2
-1
-2
-3
-9
-78
-1
0
1
-1
0
0
4
12
-1
2
1
-1
2
2
-5
-33
-12
-1
0
3
-1
-2
-12
-20
-5
-7
-4
-3
-3
-2
9
69
-7
-10
-5
-3
-4
-4
-12
-12
1
6
-1
-3
-2
0
4
-6
4
-1
-1
3
1
0
6
22
2
1
0
-1
-1
5
3
5
4
5
3
1
2
-3
-7
-19
-7
-4
-2
-3
-1
-8
-5
41
-15
-11
-8
-7
-4
-2
-8
-18
-7
-4
-2
2
-1
0
2
-50
-7
-2
0
-3
-1
0
7
71
20
-1
-4
-3
-3
0
-2
-11
-1
5
6
5
1
-2
4
-4
-1
-3
-3
-2
0
1
3
1
4
1
0
0
0
-1
-14
-30
-23
1
2
-1
-1
-3
2
37
13
-2
-6
0
-3
0
2
-22
-1
1
2
1
-1
1
-1
-19
4
1
2
1
0
-4
-10
-16
-9
-1
0
0
-2
1
3
4
3
2
0
0
0
-2
2
24
11
-1
-7
7
1
1
2
5
9
1
9
-12
-1
3
9
2
-3
7
3
-2
2
-6
-9
-36
-7
-8
-3
-7
-1
0
-3
8
5
3
-2
2
1
-2
8
26
10
0
-4
4
-1
5
12
-21
0
1
3
2
1
-5
-16
-27
-11
-5
-3
-3
-4
-2
1
-6
3
1
0
-5
-1
-4
-2
25
1
-5
-5
2
-2
2
8
12
3
0
2
2
-1
1
2
-5
-5
1
-1
1
1
-3
-5
-13
-10
-5
-2
-5
-2
-1
-3
6
3
1
-3
-1
-1
-1
-3
-7
-6
-1
-3
6
-1
-1
3
5
2
-1
-2
-2
-1
-2
-4
9
2
0
6
-7
0
1
2
-10
-5
-1
-1
5
1
-2
-5
-35
-9
-6
-7
-4
-2
-1
1
15
4
-1
-2
-1
-1
2
5
8
1
5
7
8
1
0
-3
-19
-3
0
-2
0
-2
-2
-3
-3
-1
-4
-1
1
0
-2
-9
-20
-10
-1
-5
-7
-2
0
0
-5
3
0
-2
-3
-1
-3
-6
34
-4
-3
2
-1
-2
0
1
1
7
-3
-1
-2
-1
3
3
9
0
0
1
0
3
-1
-3
-27
-10
-3
-2
-4
-1
-1
-1
7
6
0
-3
-1
-1
0
6
19
7
2
0
-5
1
-2
-9
25
-6
-3
2
11
-3
0
-3
-33
-8
2
0
-1
1
-2
0
17
-1
-2
-1
-7
-1
-2
-2
-6
-2
-2
-3
-2
-3
4
10
1
14
4
5
10
0
-3
-3
-3
-3
-3
-1
-5
0
-2
-3
-14
-7
1
1
3
-1
-1
-2
8
-1
-2
-1
-3
0
0
2
5
-3
-1
-5
-2
1
0
-1
-3
0
-6
-6
3
0
-3
-3
-5
1
2
-1
-20
-1
-2
1
23
2
1
6
10
-1
-1
-5
-51
-9
-2
7
9
2
-1
1
32
0
-3
1
10
-1
0
-3
-25
-1
-1
-4
-8
-1
0
1
6
0
-3
-5
-10
-3
-2
2
19
-3
-2
-4
-9
-1
1
-4
-5
-3
2
-2
1
-1
-2
0
-10
-1
-2
-4
3
0
-4
-6
-10
-5
-3
2
0
0
-1
2
-3
1
0
-1
-4
0
1
-1
11
4
2
0
-2
0
1
0
5
-2
-2
-10
0
1
-1
-3
-14
-3
0
4
-1
-1
2
2
0
2
3
11
30
3
-3
-2
5
-1
-2
-10
-30
-5
0
1
-13
-6
-2
12
4
0
-1
-1
-1
0
-3
-10
-3
-1
-2
-1
0
-1
-2
-8
-11
-3
-1
-1
-2
-1
-2
-1
4
1
1
-1
2
1
-2
-7
-18
0
-1
-3
3
-3
-4
-14
-4
-2
-1
1
-4
2
4
16
10
4
-3
0
-6
-1
-3
-14
4
-13
2
1
9
-3
3
27
9
7
-8
-3
-1
-2
1
-4
-1
-17
1
-1
-2
1
1
1
5
2
-3
3
2
1
1
6
7
2
2
2
-1
0
-2
-7
5
8
0
-3
-2
0
1
-1
-4
-10
10
4
1
1
-2
-15
-3
19
-3
-6
-2
-5
-5
6
-10
-10
4
3
4
0
1
-5
-6
4
8
-1
0
-1
0
10
3
19
-6
-5
-7
0
-6
-22
-2
-8
6
4
1
1
3
24
-2
-1
-10
0
-2
-1
-1
0
18
0
4
-7
-8
-4
-3
-12
-7
-1
11
-1
1
3
6
13
-5
24
-48
-8
-5
-1
-4
-10
29
-13
27
-3
3
-5
-4
0
-21
-24
-15
8
8
-1
3
8
6
12
0
-4
-5
-4
-2
-3
-10
1
-1
-5
-12
-2
-2
-18
-9
27
-12
-5
-7
-1
-3
0
40
-35
-8
-1
6
-2
0
0
-32
9
5
-3
4
-4
-1
8
-29
-60
7
5
6
-5
-1
-8
9
25
-5
10
5
3
1
-6
10
-15
9
-2
-7
-3
-2
-9
11
0
13
4
1
4
-1
-11
-12
26
-23
-8
-9
-3
-3
30
28
-62
13
8
8
5
4
-6
-6
10
21
2
-1
0
-2
-8
-28
4
-8
-3
1
-6
0
7
-6
-20
23
5
4
-1
-3
-26
-10
37
-18
-5
-6
-4
-1
13
-5
1
-45
-9
-7
-1
0
2
24
-12
17
2
-3
-1
-2
-13
-28
34
42
20
9
10
5
4
-1
47
-76
-23
-12
-13
-7
-1
-24
-100
18
-7
-2
7
3
20
51
16
-44
-5
0
-2
-2
-9
-40
-13
-18
-1
-2
-7
-4
3
42
-28
7
8
-3
0
3
12
-6
34
39
7
3
9
5
18
40
35
-53
-14
-3
-10
-14
-52
-3
-38
1
1
5
7
4
9
-13
-18
34
0
5
-1
0
-3
3
2
22
0
1
-1
1
-14
-7
59
50
3
-15
7
-1
-11
9
46
-5
-6
-7
0
5
24
-53
-15
5
0
12
4
2
29
6
-17
51
0
-8
-7
-6
-7
-9
-7
-60
5
7
8
3
-6
16
-16
76
-5
-9
-11
-9
-32
-38
-24
3
-8
-6
1
10
20
29
92
-42
-11
-8
-14
-8
39
-23
-75
22
12
10
3
1
2
47
-50
-52
-29
-24
-7
-3
-16
-9
19
67
0
2
0
-2
-8
5
-41
3
6
11
4
-3
-15
-4
-2
24
0
11
-3
0
21
19
66
26
29
-2
7
2
-35
-16
12
-43
-25
-7
-6
0
36
19
60
-61
-5
-2
0
-1
-1
-28
3
-50
-9
-13
2
0
-11
61
-24
27
6
29
2
7
50
27
0
-45
-6
-10
-2
-3
-33
-29
13
17
1
8
-1
-2
-20
-1
-5
-16
-9
-3
1
8
97
10
24
6
19
7
10
2
8
-64
55
-92
-20
23
-18
-17
-31
-32
-72
16
15
1
6
7
17
27
-59
10
-23
-9
-10
-6
-12
-38
11
-20
-11
-16
0
-6
-22
9
-8
-2
2
-14
5
3
5
8
35
-14
6
21
0
1
0
8
-68
-7
15
2
6
6
-8
2
32
9
-6
3
0
2
42
22
31
98
-12
-38
-17
-11
-29
12
7
20
-9
-15
-6
-2
-32
-33
5
32
12
-23
-2
7
36
23
16
-1
1
31
8
-4
-32
11
-3
-31
10
32
24
6
37
-2
14
38
12
-16
-2
-3
-22
-20
23
45
2
-20
-5
-4
27
8
-5
-4
-11
-10
-16
-9
-13
-18
-81
-6
2
-2
-2
0
-9
-14
-11
-2
15
26
3
-1
17
-8
-41
-21
-9
7
-2
-1
-25
-37
-16
-8
-3
-9
2
2
2
41
27
8
8
-1
5
3
17
1
-6
-63
-13
-3
0
-1
7
39
-1
22
9
7
0
-3
-36
-32
5
-63
-4
-2
-5
1
20
0
-61
42
18
9
0
-6
-63
1
-37
-14
-6
3
-3
1
19
11
43
44
-9
-4
1
-6
-4
28
21
-14
0
-12
0
1
8
-14
-33
-12
0
1
4
3
12
32
-8
-10
-8
-5
-7
-3
5
-23
-4
-14
4
13
5
4
25
20
-33
18
-2
-4
-3
-2
-7
10
28
0
0
-22
-6
-5
-13
4
41
-3
-2
2
4
-4
-28
-20
4
-40
-20
-13
-5
-5
8
2
42
24
8
6
1
1
-22
-33
-57
-6
8
-3
1
4
13
1
2
41
1
36
2
-4
-36
-35
-36
5
-3
-35
-4
-5
-8
18
-16
-7
-9
-16
-2
-8
-26
-7
30
-1
4
2
5
2
22
-22
-7
-33
-4
-5
2
2
-18
4
11
33
19
31
3
2
-16
-26
-33
-17
-3
4
-4
0
19
12
26
31
5
-5
0
-6
-28
-15
26
-1
-14
-17
-2
4
49
70
36
-4
-9
-11
-11
-8
-15
-22
-44
-3
-1
-1
2
-1
-3
11
29
6
-7
6
2
-2
-25
-1
12
-6
8
-2
-4
1
1
-25
-46
-25
-3
-3
-4
-2
-1
-10
13
8
-3
-12
-5
1
3
4
-1
-25
1
24
5
2
15
14
13
-1
2
-9
6
0
11
13
24
-6
-3
-2
3
-1
-9
-18
-14
8
3
14
6
3
-8
-49
-34
14
-4
-20
-4
1
22
38
50
48
1
-30
-14
-3
-1
-17
21
-2
-2
16
2
1
6
31
0
9
-5
0
0
1
11
-8
28
-39
-12
-1
-4
-6
6
26
-19
12
-2
1
3
-4
-4
-15
-1
2
7
10
2
1
-8
-2
32
-1
-5
-19
-11
-8
-6
14
-15
-8
-2
13
0
-1
-9
-28
-19
-11
-4
0
-4
-6
-15
-5
11
-14
9
1
3
-1
-34
-49
3
17
0
0
5
1
21
20
42
49
-1
-3
-2
4
10
-5
24
17
3
1
-1
1
-7
2
30
-25
9
8
1
-3
-4
1
8
4
-2
4
-5
-5
-34
-44
-71
-22
5
0
-2
-4
-5
16
3
9
3
2
4
3
15
12
24
-5
-10
-9
-3
-2
9
-4
-10
-28
-1
0
2
1
8
28
15
-7
9
6
-2
-2
-7
-23
-20
-3
-12
-2
3
0
-17
-11
-15
1
0
-12
-4
-2
11
-9
-26
-1
3
10
1
2
-5
19
26
18
-2
2
-4
-3
-25
-23
-32
-43
-15
-27
-8
0
27
39
10
-16
-3
3
0
0
1
23
5
31
-2
3
2
0
5
5
4
-26
-3
-14
-4
0
0
-6
26
-18
10
38
2
-1
-5
-15
-29
11
0
0
2
0
0
1
9
-22
-7
-11
-3
-3
0
11
-35
-1
6
0
11
-3
7
12
-5
-7
-7
-26
-1
1
2
14
-4
19
-1
15
0
0
-4
-27
-25
24
6
9
-5
2
1
-10
7
-11
0
2
-7
-1
-25
-26
-20
-16
-15
-12
-4
-1
24
24
-4
-7
4
8
-2
-2
-5
-8
-28
-18
0
-6
-1
-5
-11
16
35
16
-4
-9
2
2
9
-7
-20
-18
3
14
-1
-1
-14
-16
-2
-5
-4
-11
-1
-4
-21
12
-3
-31
-15
-7
-5
-2
3
-44
-38
23
14
16
5
1
-5
4
0
-14
-1
-11
-4
1
10
-16
30
-17
0
-1
-2
-4
-10
-6
-13
-4
9
19
4
-1
-7
22
20
-1
0
-6
5
1
8
4
21
30
-8
-11
-6
-5
-12
-7
-64
4
6
-3
1
3
17
-5
7
-11
-1
-7
-3
-2
-9
-34
9
-19
-14
-11
-4
0
16
26
-6
19
14
13
4
-3
-33
-18
11
-7
-10
-7
2
1
42
49
5
6
9
5
1
6
32
12
2
7
2
-1
-6
-3
-12
-13
-21
6
1
-10
-3
-3
1
-24
12
-11
9
5
8
3
5
16
13
-16
-16
-17
-3
-2
-8
18
13
62
1
-2
2
0
2
-9
34
-26
7
7
5
4
27
-16
-21
43
-2
-7
-8
-4
-2
-9
-12
-1
-15
-20
-1
-6
-17
-4
18
-3
-3
-10
-10
-3
8
24
23
0
0
5
1
-1
-17
-1
22
-25
-5
-1
1
-1
5
-8
-8
24
8
15
4
2
-1
0
-12
-11
-6
-6
-2
-4
-12
18
1
29
-7
-7
2
2
0
7
25
-12
-10
-11
-10
-6
-23
-3
28
-8
5
7
-1
-3
12
0
-19
-38
1
9
4
1
-6
-1
26
24
-1
0
-4
-5
4
-11
-37
11
1
-7
1
2
-1
-4
6
-21
0
3
-1
-2
-8
11
34
-8
-4
-1
-4
-4
1
-5
-35
-15
8
9
6
2
-1
5
-6
-11
-5
3
2
-2
-18
-16
-17
30
2
1
0
3
14
-15
29
-22
4
-4
-3
1
2
-7
-9
-25
-6
-5
-4
-5
-16
4
-7
20
19
16
4
1
2
-25
-18
3
-8
-16
-3
0
0
20
-2
-19
-6
-3
1
-6
-31
-9
-5
31
-15
-15
-2
2
8
1
27
-20
-3
-6
-4
-2
-8
-4
20
-6
10
22
6
-1
4
31
-3
-10
-7
7
-5
-5
-10
-10
6
21
-1
-8
-1
-3
-12
-17
-7
-43
-14
-6
-2
5
25
-3
26
5
-3
-2
-4
0
-13
-1
-30
0
-2
-4
0
-3
-13
-32
-4
-29
-5
-9
-4
-2
22
24
-10
-10
-5
8
0
-3
-17
3
5
37
4
-6
0
-3
-3
-16
-31
1
-2
-5
2
0
11
-2
6
-39
-5
0
2
1
5
24
-9
-9
-2
-6
-2
-5
-4
-12
-43
-23
-5
-8
-3
2
-2
14
-17
49
11
4
-2
-1
-5
-5
6
2
7
6
-2
0
-13
0
31
6
-17
-21
-3
-2
-7
5
-2
-23
-6
12
3
-2
-11
5
2
-16
-4
-12
-5
-4
-13
-20
-45
-25
6
13
-3
-3
-15
-14
-34
50
2
5
2
3
21
-7
14
-34
1
-11
2
1
12
10
13
-37
-2
11
-3
-2
-5
-5
-41
-6
-4
-5
2
-1
-17
-13
38
33
9
-6
-5
-1
-1
4
-16
-24
3
21
-1
-3
-3
-30
7
21
-7
-14
4
2
20
13
13
7
1
-6
4
1
4
6
6
3
14
5
-3
-3
-8
13
8
16
-2
-1
0
2
15
6
21
4
-4
8
0
-1
-4
2
9
-25
-6
-8
-2
-1
2
-9
9
7
-4
1
0
0
-7
3
-10
-11
2
0
-2
-1
-7
-11
6
-11
-4
-14
-6
3
21
-10
13
8
1
15
-2
-3
-1
-35
-8
-7
2
-1
3
0
3
21
-1
0
0
-2
0
-1
-12
-25
6
-2
4
-1
4
4
24
29
-9
13
6
2
-7
0
-3
-5
17
-21
-9
-2
-7
-7
-9
-19
-84
3
-5
-3
-2
-3
-2
-12
3
-6
6
5
4
5
-8
4
28
-8
-3
-7
-5
-3
-2
20
-51
2
-1
3
1
0
-2
-11
0
25
-2
-16
-3
0
-6
9
2
-24
1
6
0
-2
2
1
-37
8
3
4
4
-1
5
9
14
-43
-5
0
-1
-5
-16
4
3
-6
0
-7
-2
-2
5
7
-32
16
4
-3
-1
2
-5
5
24
-42
4
3
-2
-1
4
-15
-45
0
0
1
3
0
-10
-9
34
10
-5
-1
-2
-2
4
5
3
-31
-1
-3
-9
-6
5
11
-44
11
-3
-6
0
3
9
8
3
4
-2
1
1
-2
-2
-20
26
8
-1
-2
-2
-4
-14
1
-27
-8
-5
-1
-2
-2
-1
-4
35
34
-1
1
-1
1
5
0
14
-16
-1
-1
0
-3
-2
-5
13
-6
-5
5
4
2
23
3
21
43
8
-5
2
2
5
45
26
34
-4
6
0
-1
-1
-5
-12
17
3
-1
3
4
4
1
-7
-29
5
10
5
2
8
32
25
17
-8
-1
-6
-4
-17
-33
-61
-11
14
7
3
-1
-7
-1
3
33
0
-6
1
2
16
24
26
48
4
-9
-5
2
1
-9
0
23
-1
13
7
1
15
8
25
-4
0
5
3
-5
-14
3
4
-10
0
-10
1
-1
-4
-8
-2
-7
-1
7
-2
-4
-13
-19
-76
-10
-1
-10
-4
2
5
-7
7
-2
-6
0
1
-3
-18
-23
-6
-52
-11
3
-2
-5
-13
25
-7
28
12
-2
2
3
18
-3
0
-17
-6
-2
-4
-3
-12
-24
6
-19
4
2
2
-1
-14
-15
4
27
-4
-5
-2
0
7
8
15
-15
-1
1
-1
-3
-7
13
32
-22
15
9
0
-2
-17
-23
-15
9
-11
-12
1
1
15
38
26
4
-4
-5
-11
-2
6
-20
-1
27
4
7
4
2
9
16
0
-53
-7
3
0
1
1
3
-42
-9
-3
-2
0
-1
23
-1
46
24
4
6
2
2
11
0
-29
-31
0
1
0
-2
-15
-6
13
-3
-9
-7
-2
-4
3
25
16
23
9
-3
-4
1
-6
3
5
-17
-9
-2
-4
-1
1
-4
-10
2
-7
1
0
-1
-7
-13
3
-45
-4
1
2
-4
-13
-3
-10
-14
3
-6
-1
2
30
5
-34
22
7
5
2
3
6
26
30
-34
-7
-10
-7
-2
-13
6
3
4
-8
0
-5
-6
-7
-32
-14
6
3
6
2
-1
-5
14
-15
-15
2
-3
4
2
-2
-11
13
-25
-1
-1
-3
1
13
2
20
50
-9
-3
-3
-1
-1
4
-20
-25
6
5
-1
0
0
2
3
17
-1
3
0
-6
-18
-19
0
-16
-9
-13
-3
-5
-3
4
-1
-1
9
-2
-1
1
15
6
21
-1
-4
-3
1
3
-2
-10
-11
-38
0
4
-4
-2
-17
2
-27
55
-4
-5
-2
-2
-1
-12
-17
22
11
7
0
-1
-8
13
14
-3
-11
-7
-5
-3
-6
-14
21
-17
0
-2
-2
-2
8
-16
-17
9
6
4
0
-1
-11
-12
-12
-17
-4
2
-1
-2
2
-17
16
9
-3
-4
-1
-3
-13
-4
-35
33
-2
-6
4
0
-23
-21
42
43
7
4
-3
0
6
-3
-12
39
10
2
-4
2
1
-15
8
-6
-6
-7
-3
-2
4
8
27
13
6
6
2
2
9
9
-12
-36
-15
-13
-6
-3
4
5
-32
10
4
-5
2
3
-8
-5
2
6
2
1
0
-3
-2
-4
8
18
4
2
1
-1
0
27
7
-10
2
-2
-3
0
-6
-33
-4
21
-11
-5
0
-1
22
27
45
-10
0
5
-4
0
-3
11
-33
2
-1
-7
-4
-1
7
0
3
-16
6
11
5
-2
-6
2
9
1
-9
3
3
1
-7
-5
0
5
1
-11
-1
-3
-2
-1
7
-1
-1
1
-3
-2
5
2
-18
-5
0
1
1
1
7
9
2
-12
0
3
2
0
-4
-10
-16
3
4
3
2
-1
0
0
1
-8
-4
-3
-2
1
7
-3
-9
-9
-4
-1
-1
-1
-5
0
11
1
3
2
-2
1
-1
4
-1
2
-1
-8
0
1
-1
-2
2
5
3
5
3
2
8
0
-3
-7
-15
-4
-3
-2
-3
3
-2
0
-1
-7
-1
-3
-3
-3
-6
-2
-3
-2
-4
0
2
1
1
-6
0
6
-5
-4
1
-4
-7
-2
4
-7
-2
0
-4
0
2
-3
0
16
11
0
-2
-1
-5
-3
-1
-18
1
0
-2
-1
6
-1
-7
-7
-3
3
4
3
1
-1
4
11
2
0
0
0
1
2
-2
-6
-4
-1
-4
-2
-1
0
0
9
-1
-2
-1
1
-1
-1
2
3
-10
-2
-2
-2
-7
0
5
0
2
-5
0
1
0
-3
-5
-7
-10
-5
-5
-1
-4
0
-6
6
0
0
1
-1
-1
-5
-1
-11
-12
1
3
-1
-2
-2
-3
-2
16
6
0
0
4
2
9
20
11
0
-2
0
1
2
4
6
0
-10
-1
3
2
-1
-9
-9
-1
-5
-4
-9
-3
-3
0
-5
-24
-4
-2
-1
-3
-2
-7
-10
2
3
2
-2
-2
-2
-2
-26
-6
3
3
4
3
0
5
25
16
2
-1
0
-2
-1
3
-4
-14
-7
-2
-1
0
-4
-4
8
13
-3
-2
-4
-2
-4
-2
38
7
-8
-5
-5
-3
2
0
-29
-19
-1
1
2
1
-1
-5
-8
-1
2
2
0
-2
0
-4
-22
-25
3
2
2
-1
-1
0
-4
-1
-6
-3
-2
0
-1
1
10
29
0
-2
-3
-4
-1
1
31
1
7
3
2
-1
1
3
-7
-19
-7
0
0
0
1
-3
1
1
4
0
-1
0
0
-1
-31
-5
-1
-3
-3
-1
-4
-5
-1
17
-8
-5
-3
-3
1
2
16
-9
2
-1
0
-1
2
1
-41
-2
1
1
3
0
-1
3
14
-9
0
0
0
0
-4
-11
-10
-22
-3
-2
-3
0
0
5
14
19
-3
-3
-3
-2
1
9
57
22
4
5
3
0
0
-4
-26
-14
5
2
0
-1
-4
-5
-15
12
-4
-5
-2
-3
-4
-1
2
-4
-5
-4
-4
-1
0
-4
9
-4
2
1
0
-2
4
15
61
20
0
-1
4
2
-5
-23
-74
-45
-9
1
0
-1
-6
-8
-4
-3
-4
-2
-3
-3
-1
-3
-15
7
6
-1
0
-1
0
5
16
19
7
4
2
1
3
11
24
4
-1
-6
-1
1
1
8
-16
12
-2
2
-3
0
-2
-10
-26
-24
-6
-2
-5
-1
1
-4
-3
6
-1
3
1
1
2
12
11
6
3
3
2
0
-5
-5
-20
5
2
-1
-4
-1
1
9
39
0
4
2
3
0
-4
-16
-25
-25
-8
-3
-4
-3
-3
-3
-15
24
-2
-6
0
-1
0
-5
7
-17
-1
1
-3
-1
-1
-2
6
6
4
-3
-1
-2
2
5
10
11
0
3
2
0
-2
-1
4
-17
-7
-1
-2
-1
2
5
13
17
5
-2
3
1
-2
-11
-64
-16
-5
-6
-3
-1
-3
-2
24
-4
-5
-6
-2
-2
4
14
49
22
7
7
-15
1
-2
-10
-17
-6
4
5
7
1
-1
1
-16
-1
0
0
0
-2
-2
-1
7
3
-7
-9
0
-2
0
-2
-17
-1
-2
1
-3
1
3
8
30
0
2
0
2
0
-3
-5
-8
-4
-6
-4
-2
-1
-8
-12
-35
-3
-4
-7
-8
-5
0
2
0
6
1
-5
0
-2
0
1
11
-3
-3
2
4
0
-1
3
17
0
4
3
3
0
0
1
-1
-4
2
0
-3
-1
-1
0
-8
0
3
1
3
0
0
-7
5
-5
-2
-5
-1
-1
-2
1
5
6
-8
-1
1
0
0
-5
-21
-4
0
-1
-1
1
-1
-1
11
-3
1
-2
9
-1
-1
0
-18
-3
0
-4
-18
-3
0
1
15
0
-1
-2
0
-1
0
4
20
-1
1
6
1
-2
0
0
-13
7
5
0
3
1
-1
1
-7
-7
-4
-4
2
0
-2
-2
0
4
-2
-6
-6
1
0
1
-1
-4
1
9
14
0
1
-3
20
2
-2
-2
-2
-2
-2
-1
-9
-5
-3
-1
0
0
-1
-4
-14
0
-1
-4
-13
-2
-2
3
11
3
0
-1
4
0
0
-2
-14
-2
4
6
11
2
0
3
-3
7
3
4
-1
-1
0
1
-10
-8
2
-2
-2
-1
-3
-5
39
4
-9
-9
-11
-2
1
5
24
5
2
1
-1
2
-1
-4
-44
-5
-3
-5
1
-2
0
-3
-4
1
-2
1
3
-1
0
2
2
-3
1
0
-1
-1
0
1
6
5
1
-2
-2
-1
-3
-1
-5
-17
-7
-3
3
-1
-3
-5
13
6
-1
-1
-5
-1
-1
-2
-5
-3
2
2
5
0
-1
1
-5
-5
-4
-2
-6
-1
-1
3
18
12
3
0
1
-1
0
3
-10
-6
-3
0
1
-2
-2
-6
-12
-1
1
-5
-6
0
-2
-3
-1
-7
-3
-6
2
1
-1
-1
-3
3
-2
-1
1
1
-2
-1
8
0
-1
1
-3
-1
2
0
-24
-8
-2
3
4
0
-1
-3
10
4
4
0
-5
-2
-3
-3
-11
3
0
-2
-1
-1
1
3
14
5
-1
2
3
0
-1
-5
-29
-11
0
-1
-2
-1
-2
-3
-18
4
1
1
-6
-1
0
-3
7
-5
-3
-2
3
1
-1
-1
-2
2
2
2
1
-2
0
4
4
6
-2
-3
-1
0
0
-2
-14
-16
-4
0
-3
-1
-2
-5
-7
3
0
-1
-3
-2
0
1
-4
-1
0
-1
2
1
-1
-1
19
0
-1
-1
-3
-1
-1
-3
-37
-9
-2
-5
1
-1
-1
0
22
5
-2
-1
-1
-1
-1
-2
-4
-6
-3
3
-11
-3
0
-2
-8
0
2
4
3
0
-2
3
20
2
-4
-9
-10
-1
-2
-1
-6
-2
1
9
13
0
-1
0
3
-2
-1
-3
2
-1
0
0
-2
-2
-3
-4
4
-1
0
-2
-11
-2
-5
-2
-6
-1
0
0
12
-4
0
0
-11
-2
0
-2
5
7
6
6
8
2
-1
0
-9
-1
-1
-3
-2
-2
-1
3
3
0
-3
-12
-10
-3
1
-5
15
-4
-2
1
2
4
-2
-3
-25
-5
0
10
12
-1
6
1
7
-2
-4
2
-8
-3
-1
1
14
5
1
1
-1
7
0
4
-3
-1
-2
-15
-5
0
1
0
-1
-2
0
4
3
-18
-28
-3
-5
-1
2
4
5
-1
14
1
6
-2
-2
-2
-9
-7
-1
2
1
1
-2
-1
2
5
-1
2
-2
-1
-4
-21
-10
8
9
0
-2
0
-2
-1
-23
8
-1
-1
1
-2
0
24
19
0
18
7
-5
0
-2
-13
-2
10
-43
-10
0
-5
-4
5
1
-11
21
5
2
2
0
-1
-10
-8
-1
-14
-3
-3
-3
-8
30
8
-28
-6
-4
-2
2
10
-11
-21
15
6
1
0
-1
-2
1
22
7
2
-4
0
0
-7
7
9
-21
2
2
2
-1
3
-2
-9
13
-4
-9
0
0
0
20
-27
26
4
4
0
-3
-23
-46
13
2
2
1
5
6
32
37
21
11
-7
3
-4
-3
-10
-1
-18
3
-5
-4
0
-1
-8
-58
2
-36
-2
-8
4
0
-5
56
-2
6
-7
0
0
0
-1
-38
-21
-33
-1
5
0
-3
-11
-8
-25
4
-3
-3
0
-2
0
-37
24
33
-1
8
-2
4
15
4
-17
-14
-3
-6
-9
-6
-12
11
-19
0
3
2
4
2
7
-11
64
-30
-4
0
-3
-8
-39
-3
-55
37
10
5
-4
-6
-17
-45
33
-5
-14
-23
0
4
9
7
-33
8
-5
1
-4
-3
-13
3
-65
6
-3
-6
-2
2
19
36
26
-16
1
2
9
0
-23
-7
46
-42
1
11
-8
-7
-2
-22
-13
15
14
11
3
0
11
-55
-14
21
-7
-7
5
5
30
75
50
42
12
6
-3
-1
8
-28
-27
11
11
7
17
6
8
63
112
1
-14
-12
-9
-4
-12
-21
-24
-43
8
4
-2
-8
-53
-39
-56
49
-11
-18
-8
9
102
105
48
-16
-4
-2
-4
0
-10
-43
-59
-16
11
0
4
4
19
-23
43
36
-25
-8
-15
-8
16
11
-69
-6
10
12
6
-12
-123
-68
-75
-16
-22
-24
-5
-1
12
-9
28
-27
1
9
-2
14
103
127
-42
-41
13
11
12
6
9
29
62
-56
-9
14
-8
-9
-31
-45
-26
56
10
-10
3
-4
-42
36
53
57
-5
-14
-7
-4
-20
-45
-19
49
11
15
9
5
-30
-1
36
-72
-20
-52
-2
-2
80
88
62
4
5
36
-5
6
65
56
-63
-59
0
-7
0
-1
-18
10
0
93
9
22
-1
-1
-16
-17
-42
35
5
-21
2
16
64
27
69
109
27
14
-8
-11
-50
-64
-52
58
6
-2
9
-2
0
45
41
-61
-12
1
-2
-2
-16
-55
2
-19
10
22
17
3
44
41
-7
-73
-12
-17
-6
-5
3
-5
-50
18
-5
1
-7
-5
-48
-67
0
-21
18
11
6
5
-25
-25
15
-23
-19
-4
-8
-1
13
-25
54
-3
8
1
0
0
3
-14
-18
-55
-6
5
-6
-11
-83
-22
-8
-91
-17
-20
-7
-2
-1
9
-9
112
7
1
-4
2
34
-26
-57
-42
-14
1
-4
-2
13
-8
27
-1
3
-2
7
0
-45
30
34
-35
-5
-12
-1
4
36
-6
3
-15
-12
1
-7
-3
-43
-58
-51
13
10
7
7
1
-8
23
19
-2
1
-5
-3
2
30
14
-57
-46
-1
-3
-6
-7
23
29
46
27
7
8
8
3
-32
-13
-47
12
-15
-24
-2
-3
-46
-15
20
-7
6
35
0
6
59
8
2
76
-6
-29
-14
-8
-8
-8
-7
-32
-8
7
-5
-11
-49
-7
-17
11
11
1
8
3
16
11
19
-9
-3
-11
-1
-3
-4
-8
-1
23
8
15
10
7
8
9
6
-26
-2
3
-3
-1
-25
9
-22
-43
-10
1
2
4
26
-19
-21
9
-2
-1
-8
-10
-34
3
60
47
0
-1
0
2
24
-14
3
-29
-9
-9
-9
-4
-27
-16
-41
2
9
9
-3
-1
-8
-9
-4
-12
-2
-6
0
-2
-20
-28
-4
23
9
-4
2
0
8
42
24
24
-10
-6
0
-3
-28
-2
19
-46
-4
-3
-1
-2
-24
1
23
33
10
11
6
8
30
25
1
20
7
5
-13
-11
-41
-53
-107
22
-4
4
0
4
7
1
32
-14
-9
-6
-9
-5
-1
6
31
-1
4
8
7
3
11
17
17
-6
-9
-12
6
3
6
-3
10
-47
-7
-39
-13
-4
-5
-6
-8
47
-1
-4
-4
-2
-9
5
-23
19
-1
-15
-5
-4
9
-1
20
21
12
25
7
3
3
-14
-3
-15
6
15
7
-3
-8
22
-23
5
-8
-13
-4
-2
-13
-16
14
-27
-16
-13
-12
-7
-9
2
-5
-23
3
-5
0
5
52
46
-8
8
-4
17
-3
-4
12
3
8
-13
-2
1
2
-2
-2
-12
-34
-8
12
11
6
0
-4
-1
25
0
-22
-28
-9
-3
8
42
7
-15
-1
-8
-5
-1
13
-24
-21
16
-4
-8
-12
-8
-5
15
-19
9
-5
-5
-1
1
6
-16
-6
-6
2
5
1
-1
-7
-3
-5
-10
15
16
8
-1
-15
-10
20
25
-8
2
4
-3
-14
-8
-14
25
0
-3
0
5
30
-13
-10
31
4
8
1
1
13
19
38
7
-6
-10
5
1
1
31
61
-2
1
-4
-4
-2
-7
-19
-58
-18
-10
-4
-3
0
4
7
-30
-23
-4
6
0
-4
-21
-24
-22
-5
3
-4
-1
-1
-6
-21
-8
2
0
-1
-2
3
13
18
20
-6
-2
2
0
0
4
12
21
-9
7
-2
-5
-3
-1
-14
-16
9
2
21
3
-3
3
6
2
-23
-14
-15
-1
-5
-15
-11
32
-8
1
-1
2
-2
-17
-6
6
15
-3
-4
2
1
-8
-19
21
20
10
2
-2
3
23
60
-4
13
4
11
2
3
-1
-26
0
-11
-4
-8
-6
-3
6
19
13
2
1
-9
-3
0
19
-42
-6
-6
7
5
-4
-3
-25
-4
-16
-4
-1
-1
-1
7
53
18
-7
-7
0
-1
-2
-3
-16
-23
-27
-43
-1
5
2
-1
-12
8
5
9
-4
-10
3
2
-1
-10
1
-2
8
11
1
-3
-27
-1
43
-1
-11
-10
-4
-3
19
-16
-7
16
-2
4
-1
-5
-16
-13
-54
-12
-3
-14
-2
2
16
0
-3
-17
0
-2
-3
-5
-7
2
15
16
1
6
3
2
-5
-10
-22
-17
1
4
-2
-1
-15
-4
25
-21
-10
-6
-11
-3
12
-1
-13
-2
-4
2
3
-2
-17
-24
-3
22
12
6
5
0
6
22
12
-47
-14
-9
0
0
-11
10
-1
43
2
-18
-4
2
28
7
16
-2
12
13
2
4
3
10
10
-18
-11
-10
-6
-3
-9
-5
-21
9
-4
4
2
-4
-20
18
27
8
-4
4
4
-5
-15
-20
8
-9
-3
-5
0
1
-9
0
-12
2
2
-4
4
2
-2
22
69
24
10
9
-1
0
15
8
34
-8
-10
-18
-4
-3
1
4
4
11
-3
-4
-3
-4
5
23
9
0
0
4
0
-3
-9
-29
-9
-8
4
-1
2
-1
-10
-7
5
-1
6
10
5
-1
-11
-4
-9
-4
1
8
4
3
2
-4
39
27
-4
-11
-6
-2
-8
1
-65
-5
-10
-10
-4
-3
-4
-12
11
-16
-6
3
-5
0
7
-12
-27
6
4
-1
1
-2
-3
-5
0
-14
5
11
2
-1
-7
-6
-11
-11
-9
-8
-5
1
7
-5
1
-5
2
-2
5
1
-14
-1
15
55
4
-1
-5
0
7
-34
-12
-21
-3
0
-6
-1
-1
-6
-16
-9
-2
2
-1
-1
14
24
-31
-6
-2
22
7
3
9
22
35
11
-12
-30
-1
-4
-4
11
0
-14
-7
-8
-4
-2
-1
-18
8
-36
0
-1
-3
-3
-14
-10
-7
4
10
13
0
1
-10
-21
-12
-36
-9
3
1
0
6
18
-18
11
4
4
3
-1
-4
1
4
-35
-9
-1
-5
-3
-10
6
-20
2
-4
-8
0
0
4
19
-21
-10
2
5
-4
-2
-15
-7
-6
-7
-10
-19
-4
-2
-6
11
0
6
3
1
1
2
38
11
7
-24
-2
4
-4
-7
-19
-10
-30
-15
-9
1
2
1
9
1
4
9
0
-5
-1
0
14
21
0
40
8
-1
1
2
18
11
13
5
-2
-17
-8
-2
-2
-14
-9
-14
2
15
1
-3
-8
17
6
10
-5
5
-3
-4
9
-9
-22
13
-3
-5
-3
1
-4
2
-1
-3
12
5
-3
-1
-2
-11
-3
24
-3
-2
3
5
13
13
-8
-29
-1
6
3
1
-1
-12
11
30
2
-6
2
-2
3
7
-8
-5
-1
-4
1
1
-8
-3
-4
12
1
0
-1
-1
4
-29
-6
-2
5
0
-1
-4
-33
-36
-1
-29
-2
-2
5
4
26
45
8
41
-8
-3
-2
-3
28
16
-13
-26
2
1
2
0
2
7
18
13
2
-3
-2
-2
-11
-7
-4
7
5
12
1
-1
-23
-13
10
-38
-2
-3
-1
0
14
-16
-49
-5
9
5
-3
-5
-4
7
-13
4
-3
6
2
2
3
26
0
8
-5
-5
-5
-4
-29
-34
2
1
-7
-5
-3
0
14
21
-32
-10
1
2
0
-3
-8
-12
-6
0
3
3
2
1
3
16
11
10
-5
0
-1
-5
-31
-10
2
-12
-4
-2
-3
-1
-4
-14
-11
-4
2
-4
-4
1
9
2
-15
16
-15
-20
-5
-2
-6
-7
8
7
-5
-7
-6
-5
-10
-18
-9
-35
4
16
3
-3
-7
1
2
16
7
3
4
-1
-14
-27
6
-32
-3
5
2
1
10
4
-5
10
5
0
2
0
1
16
39
-12
-10
-4
-1
-1
-7
-11
4
16
4
-2
-4
0
-5
-4
21
-4
-2
-5
-3
0
-5
-11
4
-10
11
8
3
2
18
23
-7
1
0
-8
1
-1
-25
-15
30
22
-7
-1
-1
-3
-4
24
3
-2
7
9
0
-1
5
-10
11
-15
-7
-6
0
1
5
-1
-20
-4
3
1
-1
1
2
-1
7
13
-2
-5
0
2
6
8
32
22
-5
-6
-6
-2
1
-21
-31
19
4
2
5
0
-12
5
-6
11
3
-2
-1
-2
-2
-11
29
0
0
-3
-1
-2
-10
-17
-3
-22
3
6
0
2
2
6
-19
-4
-10
-8
-6
-1
15
-23
-33
19
4
3
1
-1
-2
6
-2
-24
-5
-3
-5
-4
-10
-1
-10
21
-1
4
3
0
-9
25
26
15
-2
0
1
3
20
-10
0
-3
5
8
-1
1
-8
-7
20
-9
-11
-16
-1
0
14
1
9
2
3
3
2
3
9
5
17
-45
-5
-3
3
3
8
-32
-4
38
2
1
1
0
2
27
-7
-11
7
9
-2
0
-7
-13
-5
-22
-3
-1
-4
-5
7
4
-5
-5
-5
-6
-3
-5
-22
-21
13
-4
1
0
1
-1
0
-14
8
-19
3
0
0
2
-1
12
-38
22
4
-1
-2
-3
-10
-15
-10
-11
3
2
-2
-5
5
1
10
1
-3
-1
0
-2
4
13
-8
7
9
4
1
-3
-16
17
18
-10
0
4
0
1
-4
-11
15
-11
-18
-18
-6
-1
-5
38
21
6
-6
-4
-5
-3
1
-2
-2
17
3
5
1
1
0
-12
-18
5
-3
-1
2
0
-8
10
5
-9
1
1
1
-3
-10
-24
11
-4
-2
-4
-1
1
-3
-7
8
-10
-3
6
0
-2
3
-2
-8
-11
5
4
2
1
3
5
6
37
8
1
-3
-3
-8
-2
-31
-7
-8
-11
-3
-1
-9
6
2
-27
-1
2
-1
-1
9
-6
1
9
2
3
-1
1
9
-1
3
-2
-7
-4
-2
-4
-15
7
-37
5
1
0
0
1
17
-38
0
-8
-2
-2
0
-2
8
-3
12
-65
-7
-3
-2
-5
-24
6
-28
7
19
15
6
8
23
18
-3
-4
-7
-5
-2
-4
-12
-11
8
-2
-13
-7
-5
-3
0
-7
-11
16
-1
-9
-6
-1
0
-5
23
-1
4
2
2
-2
-9
-5
5
-11
12
7
4
2
5
5
0
1
-3
-6
-1
2
1
5
-6
19
0
-3
-7
-3
-1
9
5
-3
2
4
-2
1
-2
-1
-4
18
-3
-3
-2
0
-18
26
64
-20
3
2
3
2
22
-8
-74
13
-11
2
-3
-1
14
8
-29
-15
-11
-9
-6
-5
-11
-22
4
-7
4
5
1
1
9
45
1
-14
-11
-12
-7
-5
-18
-29
22
3
6
7
3
-2
-5
-11
-18
-21
-1
-2
-3
-1
17
3
-5
-24
-7
2
1
-1
-14
-9
-17
26
0
1
-4
-4
-9
6
14
16
5
4
1
-1
-2
-11
9
13
6
-3
7
6
24
31
74
36
-5
-14
-7
-5
-10
-70
-51
7
-18
-4
-5
-2
-7
28
-9
-11
-1
-3
-3
-3
5
-4
2
14
-5
2
1
-1
-6
2
2
-1
1
-1
1
-4
-10
-31
-17
30
9
3
1
1
-4
22
16
10
-3
-7
-2
-3
-11
-1
-5
-15
1
-1
-3
-3
-9
-10
-32
-22
-2
-2
-2
-2
-10
22
5
-21
0
1
0
-1
-5
-2
39
-12
-3
1
3
2
-1
14
-5
27
5
2
0
-2
-3
-12
-16
-17
1
2
-1
1
-5
6
14
26
4
-3
4
2
-3
4
45
16
2
-2
0
1
-2
-13
-6
-12
-9
-1
-3
-3
16
10
-18
6
-4
-8
-3
0
16
23
-8
-32
2
5
2
1
3
0
-13
8
1
-10
-1
-1
6
-5
-14
-3
-5
0
-3
-4
-19
-15
-14
-7
2
8
0
-4
-2
22
8
0
6
0
3
0
12
-1
-5
-11
7
4
-2
-2
-13
-16
-7
-19
-9
-14
-3
-1
6
-11
3
-11
2
0
2
2
6
-6
19
37
-3
0
-3
-1
-4
-13
-34
-11
-1
-3
-3
-2
-23
-34
1
-18
-7
-4
-3
-2
-3
17
-6
-1
1
2
1
3
12
15
-1
9
-4
-6
-3
-4
-6
-9
-7
2
-3
1
0
-1
0
-5
15
12
2
1
1
1
-3
8
-12
0
2
0
-2
-1
2
-5
-16
-15
3
2
1
1
-1
-8
-11
-17
-1
-3
-3
-4
-3
15
17
25
1
-4
-1
0
15
18
9
-10
-10
3
-2
-2
-5
-1
-5
26
-2
-4
-1
-1
-2
12
5
-38
0
-1
2
-1
-13
-25
16
21
7
-1
3
3
30
39
34
29
3
0
0
-4
-7
-53
-20
-4
-13
1
-2
4
23
16
1
-3
4
3
0
1
0
9
9
5
4
3
-2
-2
-19
-33
-19
8
-3
3
-1
-3
-3
-8
-18
-62
-6
-7
2
0
1
7
-7
-6
-4
-2
-2
0
23
28
27
1
3
4
-1
-4
-22
-44
-36
-34
4
-1
4
8
39
68
5
-24
-3
-2
-5
-5
-25
-32
-18
23
-1
0
2
-1
-8
8
13
-5
-7
-6
-3
0
0
-21
-36
-21
-6
2
-2
-1
-19
-24
-2
-9
3
5
-1
-5
1
7
-7
9
-2
-3
3
1
11
3
-18
24
12
7
4
-2
-23
0
60
-33
-17
-12
-4
-2
3
2
-40
36
5
2
-3
-1
3
0
-1
21
0
2
-1
-2
7
5
-7
-1
7
4
-1
-3
-10
0
10
4
-2
-2
1
0
-9
-2
8
6
-12
-12
-4
-4
6
-11
9
14
-6
6
-2
2
4
1
-29
-29
-10
-9
-4
1
-1
7
-15
20
13
7
4
2
3
-5
-7
11
4
2
4
0
-3
21
5
1
5
0
-2
-1
-1
-10
11
0
-9
-7
-1
-2
-1
-7
0
-11
1
-1
-1
-3
-5
-1
14
-1
3
5
2
2
0
2
2
-12
3
5
0
0
4
-1
-3
19
-4
-9
1
-2
-5
5
19
6
-3
-5
-8
-5
-6
-15
-20
-2
5
2
1
5
43
38
1
3
0
-1
0
-2
0
0
6
-6
1
-2
-1
0
0
2
-3
12
4
1
0
-4
2
12
20
-11
-1
1
-1
2
-8
-24
-7
7
-1
-4
-1
0
-2
4
-4
-13
-5
2
-2
0
5
6
-3
4
-3
-4
-2
0
-4
-1
5
3
5
5
1
-3
-13
-9
-3
-3
-4
-9
-1
-4
0
1
-2
-6
-1
1
-1
1
-3
-7
-4
6
3
4
1
4
0
4
7
-2
-1
-9
-2
-3
-6
-6
-1
-4
-2
-1
-10
-6
0
-1
-1
-7
0
1
-5
-5
1
1
-5
4
-1
-1
6
-1
-1
1
3
-3
1
-1
8
-1
-2
2
0
-6
-1
1
2
3
2
-1
-4
0
-3
0
5
9
1
3
-2
5
2
2
-15
-5
-2
-1
6
-4
-4
-5
-1
-5
-10
-5
-1
-3
-2
0
-2
-6
2
-1
-2
-1
1
-3
-5
-5
1
2
2
3
-1
-2
-9
-3
-3
-1
3
-5
-3
4
-2
-1
-3
-3
-1
-1
2
-6
3
8
0
0
-3
1
3
22
7
1
2
1
0
-3
-9
-4
7
2
-2
-2
0
-2
-4
-18
-2
-4
-9
-12
-3
-1
-5
-9
3
0
3
9
0
-2
2
-2
2
0
0
-3
-2
2
4
4
-12
-3
0
3
1
1
2
10
-4
2
0
-3
0
-3
-4
1
0
-5
-4
-3
-1
-1
0
-2
-7
-7
-1
-3
-2
-3
-2
-2
0
4
2
2
-1
-1
-1
-10
-1
0
3
0
0
-4
0
11
-5
-9
-7
-3
-1
-3
-7
-2
-1
-9
-2
-8
-2
2
2
6
12
9
0
1
3
1
8
35
16
13
3
-5
-1
3
0
-93
-22
0
7
6
0
-6
-12
22
-11
-11
-8
-4
-4
-5
-10
-23
2
-8
-1
-1
0
0
4
5
2
9
0
2
2
4
8
47
27
0
-2
-1
1
-2
5
22
11
13
3
-1
-1
2
7
23
-17
-11
-1
2
0
-5
-11
-19
-8
-11
-6
-2
-4
-1
0
13
-9
-2
-3
-3
-3
1
1
-4
16
6
2
3
-1
2
2
19
4
3
-1
-2
1
-1
5
7
-16
-4
-1
0
-2
-1
-1
-4
6
2
3
1
-3
-1
0
-11
5
-5
0
0
-1
-6
-7
-10
-22
-4
-7
-4
-3
-1
-5
-42
-11
-11
-2
0
-2
2
10
76
24
16
0
2
1
0
-12
-98
-6
1
3
-1
1
-1
0
46
-10
4
3
-1
-1
-1
11
38
15
0
-4
-4
-1
-5
-16
-31
-29
-14
-7
-4
-2
10
21
72
40
12
6
5
4
-8
-44
-128
-43
-15
-7
-2
-3
-6
-8
39
-7
-7
-4
-4
-4
1
9
37
12
5
1
2
1
-4
2
2
-1
0
-4
0
-2
1
-2
-68
1
-1
1
2
0
2
3
-9
2
2
3
-2
1
-5
-11
-14
-4
-5
-6
-6
-3
1
-1
-13
-20
-3
1
-1
-1
0
9
25
15
3
0
-2
-1
1
-3
-34
-12
-1
-4
2
0
-4
-7
7
6
-4
-3
-2
-2
0
7
9
-5
-1
-1
0
0
-2
-9
-5
-1
-4
-9
3
-3
-5
-17
5
2
-2
15
5
0
-1
1
-20
0
6
3
0
1
0
6
40
3
-1
-3
2
0
3
10
-12
6
-2
-3
-1
0
-1
-4
-5
-8
-3
-8
0
-1
0
3
55
11
-1
-16
-19
-4
-3
-7
-75
-9
0
22
20
2
2
9
66
18
2
3
2
-1
-1
-9
-26
-14
-1
-4
-4
-1
0
3
-12
-6
-4
0
4
-1
-5
-11
-22
-12
-9
-15
-12
-3
-1
-2
22
9
-1
1
-6
-1
1
3
-11
7
4
3
4
-1
-2
-1
-15
-9
-1
2
-1
1
1
2
22
-5
-1
-4
-3
-1
0
5
17
5
2
1
1
-1
0
6
13
14
-1
-5
-2
-1
-4
-11
-39
-15
-5
1
-1
-2
-2
-4
18
-5
-2
0
2
0
2
3
-28
-1
4
0
-6
0
1
4
15
10
-1
-2
0
1
0
-2
11
-5
-4
0
1
-1
-5
-6
-2
-4
-7
-5
-2
-3
0
5
-7
5
4
13
0
1
3
4
-8
3
9
0
0
1
-2
-3
1
-5
-7
0
-3
-2
0
-3
3
-3
-4
-11
0
0
-1
2
-12
7
0
-3
1
-1
-3
4
20
-3
-2
1
-3
-3
2
1
4
4
3
2
6
3
-1
-3
-24
-5
-2
-1
-6
0
1
10
19
9
1
0
-1
0
-2
0
18
-13
-4
-2
-3
-1
-5
-15
-4
4
-2
-5
-2
-4
-3
-4
-21
-11
-5
-3
-7
-4
-3
-7
-10
-4
0
-1
3
0
2
9
17
8
2
0
4
1
-1
2
-7
-3
-4
1
-3
-2
2
1
-7
-1
1
1
-4
-1
-1
-3
37
5
2
-2
-1
0
-2
-2
-20
-9
-5
-4
2
1
1
0
-2
3
2
2
-4
0
-1
-2
3
-2
2
3
-4
-2
-1
-1
-14
-4
-4
-4
0
-2
1
-1
20
7
-1
-1
-1
1
2
-3
-26
-2
1
2
-1
0
-1
-1
14
3
2
-6
1
0
0
3
16
-3
0
2
-1
0
-2
-7
-26
-5
-5
-4
-1
-1
-1
4
4
1
1
0
6
-2
1
0
-6
1
1
3
6
1
-4
0
21
2
-5
-4
-7
-2
-1
2
6
0
1
0
-7
-2
-4
-15
-55
-13
0
2
2
-1
-1
1
8
8
-1
-4
-3
-1
0
5
2
1
-1
-1
2
0
-3
-7
-14
-10
-4
-1
0
-2
1
3
12
3
5
5
4
2
-2
-2
8
1
-3
-1
-3
-1
-1
-3
-24
-5
-1
-1
2
0
1
1
-2
-2
0
-2
3
1
2
2
7
2
-2
-3
-6
-2
-2
-1
-2
-5
-4
1
1
-1
0
2
4
1
1
-3
-2
-1
1
-3
-3
1
2
1
-9
-2
-2
1
2
1
-1
1
3
1
0
1
6
2
0
2
5
0
-3
-3
2
-1
-4
-6
-4
-3
-4
-5
-9
-5
-2
-6
-3
-3
0
1
0
2
-2
0
-4
3
8
2
4
0
-1
-10
-5
3
0
-1
-8
1
4
14
4
0
-5
-6
-10
-6
-4
-1
-10
-7
-2
3
10
3
-1
-2
11
-6
0
-4
-2
-3
-3
-10
2
4
0
-3
1
-1
0
9
2
5
-5
2
1
4
-3
-12
-13
-6
2
0
4
-2
-2
-6
-11
2
-7
-6
-9
-4
-2
4
8
-5
4
0
3
1
-2
-8
-19
2
2
-1
-1
2
2
7
6
7
-4
0
-2
-5
-4
-6
-2
-1
0
-1
-1
1
-1
-2
-10
5
2
-3
-2
-4
-3
-5
16
-3
-14
-1
0
2
0
6
-17
-7
15
1
0
1
-2
-12
16
1
-39
-7
-5
-1
7
17
-4
-29
15
3
0
2
-2
-9
26
38
-28
0
0
-2
-3
15
10
-26
10
2
1
-1
0
-22
-46
0
5
5
13
0
1
37
26
-7
28
2
0
-2
-3
-6
5
-50
8
1
-3
1
0
-9
-26
38
12
7
2
0
2
27
20
-17
-2
-2
3
0
-9
-26
-45
-20
-7
-1
-3
2
0
-12
23
15
5
-10
-4
4
22
59
61
74
-52
1
1
-3
-6
-26
-85
-100
25
3
-1
-2
-2
-9
35
64
29
2
5
-4
1
8
-55
-4
11
-5
-8
0
-7
-15
28
2
2
2
-4
-1
-2
-18
43
6
-28
3
0
1
2
28
-36
-9
-7
-2
-5
0
-5
-30
-64
61
8
-1
4
0
0
21
64
-13
-6
-14
-2
-3
-2
-20
-18
-4
37
2
-4
1
3
11
22
38
18
4
4
1
4
41
8
-57
-30
15
5
0
-4
-37
-21
-9
-18
0
4
1
-6
-4
3
48
14
-11
7
-8
-4
-26
-3
-39
-51
-5
2
2
3
3
-5
4
46
-3
-10
-8
-6
10
-10
-22
4
-3
3
7
4
13
26
17
-23
0
-11
-2
-6
-69
7
26
-18
-7
2
11
10
37
-26
-18
-97
-20
16
-13
-10
24
-17
-116
9
4
-2
-6
-1
-11
13
-29
24
-10
4
-3
10
35
9
-1
-40
-9
-8
-13
-12
-14
54
-19
7
-3
-3
4
-4
-44
-14
47
-28
27
17
17
5
7
29
102
30
-18
-10
3
1
-18
-14
9
1
-12
-7
-5
-5
-13
-20
-44
42
17
20
12
7
8
-33
36
23
-12
-18
3
5
58
51
46
-74
8
4
-6
-1
-15
1
-81
24
-13
-7
-14
-6
5
33
62
-44
-4
3
-4
-1
-13
-45
7
44
20
12
12
3
-5
5
-42
2
2
1
0
-9
-35
-7
6
-34
-1
21
7
-3
-37
-24
-43
-5
15
-14
5
7
40
58
-26
-49
-62
-106
-40
-11
25
-18
-23
-30
-2
31
2
-1
6
-14
65
16
16
10
7
-2
-45
-39
-30
-16
-4
28
8
3
37
66
-26
110
3
-14
2
3
11
20
46
-20
-4
-35
-16
-7
-22
-63
1
-5
-4
2
1
0
9
89
28
-50
-10
-8
-3
3
34
-40
-9
41
5
19
-1
-2
13
3
-19
-32
-3
1
7
2
-21
6
97
33
4
-7
-12
-7
-7
-59
-35
5
3
-3
-8
-10
-43
-23
-54
-10
8
14
8
2
-45
13
30
34
0
-10
2
3
28
2
39
1
17
-6
-1
0
-16
-4
5
-19
-7
-14
-4
-7
-70
-28
11
74
-5
21
-7
-7
4
-19
47
4
2
6
12
1
-47
-8
-23
54
11
-9
0
9
88
53
-28
18
3
-4
-4
-6
-38
-12
22
-68
0
-1
5
1
-32
-30
-11
47
5
20
4
6
57
7
2
-57
-13
-19
1
-3
-13
10
37
40
2
3
-6
-3
-11
5
38
-55
10
17
1
-2
4
-60
-57
13
-11
-51
-9
1
43
15
20
-12
-15
-2
-2
-4
-20
-33
-6
53
4
4
3
-1
-4
4
17
-34
-7
9
4
8
36
1
27
-23
3
16
2
1
29
-5
-54
-2
-8
-10
-4
-2
-16
-33
43
-74
-17
-12
-6
2
32
1
-24
17
16
5
5
3
-3
8
-5
6
-20
-13
-4
0
-13
15
-21
-38
-2
-4
2
3
21
24
-2
41
11
-2
0
-1
-26
-29
-2
-57
-11
-6
-4
-3
-11
12
-1
-8
9
4
-1
1
29
3
-48
34
4
13
-2
-3
-9
-21
13
4
3
2
-2
-4
-4
-9
14
-29
-9
-21
-3
1
-7
-6
-4
3
4
19
-4
-9
-38
-3
-38
-8
0
-29
-5
-4
-4
2
10
4
-20
-23
-1
4
18
10
20
31
3
11
0
-2
-5
6
5
4
3
-5
-1
1
3
0
-27
27
4
14
-2
0
-10
-3
9
11
3
-6
-6
-2
4
11
-23
-5
-9
-5
-4
-2
3
-2
12
-35
2
6
4
4
6
0
9
24
17
31
11
-2
-16
-37
-1
22
-2
3
3
-1
0
43
84
-8
2
-8
-7
-2
-6
-5
-12
-1
7
-6
-1
-5
-8
-5
-6
-46
-3
-2
-3
0
-7
-2
11
12
7
7
5
1
-21
-17
31
-56
-12
6
-7
-3
6
9
-66
7
0
3
0
-2
-3
-1
-40
-8
0
-2
4
3
7
13
8
-1
0
-8
-1
-1
-11
-10
-7
-18
-1
12
0
-3
-16
-20
-10
33
0
-10
1
0
2
18
42
2
1
-1
-4
4
25
56
4
1
6
6
-4
1
7
-12
-61
7
-10
1
-3
-5
-15
-11
4
14
-4
2
1
-2
-3
-4
54
24
-1
3
5
-4
-18
2
-5
6
9
-2
1
0
13
-9
-1
29
15
-4
3
3
0
16
1
-25
-2
7
2
1
-6
6
29
-7
-3
-4
-6
1
15
18
-38
10
-5
6
2
-3
-18
-4
-13
-7
0
4
-1
-1
4
-12
5
-8
2
-2
0
1
14
13
-11
11
-2
-8
0
0
5
28
-44
-2
-9
-4
-1
1
7
-1
5
19
6
0
5
2
9
18
3
-27
-3
-5
-8
-4
-2
10
-37
9
-7
1
-3
-3
-12
-21
35
-14
0
0
-6
-6
-1
-17
-11
14
-7
-11
-3
-3
5
6
-2
-8
1
6
0
-3
-2
-6
-14
-17
-1
-10
0
-2
-2
-4
-7
19
2
-1
2
3
7
10
21
5
-11
0
-5
-2
-4
-16
11
5
11
8
-3
1
0
6
-11
-15
-8
-2
-1
0
3
-10
13
18
-5
-6
3
0
-7
-12
-40
21
3
-12
-1
-2
-1
5
8
13
5
-3
-1
-2
-6
11
17
-27
-5
-3
-2
-2
-5
-2
-4
0
-8
3
0
1
2
42
42
-10
6
2
0
3
10
-3
-21
44
-9
-13
-7
-3
-6
-15
-1
2
5
6
3
1
7
-3
11
-25
2
1
-2
-3
8
3
8
6
-1
-6
-2
0
1
-6
16
18
-10
8
2
-1
-17
0
-21
-25
-2
8
-3
-2
15
42
-3
-15
-5
2
0
1
6
-15
6
0
6
-1
3
-3
2
5
-18
-9
2
-20
-3
0
7
-15
9
3
-12
-11
-4
-3
-15
-17
21
-24
4
6
-3
-4
-19
-24
-60
34
7
5
3
2
14
-13
-15
-40
-16
-4
-2
-1
5
-12
10
17
-2
-2
-6
-7
-28
-39
-61
23
-4
-3
-2
-4
-2
6
6
-15
0
-12
-4
0
-10
-7
13
-7
4
12
3
-1
6
10
1
2
-4
-10
-4
-1
-3
-13
7
2
0
-2
-1
0
-4
3
24
-5
2
13
3
-1
-3
-15
-18
11
8
3
2
0
-5
-13
-8
-1
-9
-14
1
2
19
28
22
-16
-2
3
3
1
14
15
2
4
1
-5
1
0
-2
25
7
-11
-1
7
0
-4
2
-13
19
15
2
7
1
1
0
2
1
31
5
7
2
2
2
3
-4
3
-3
-11
-2
1
7
5
8
-29
-6
-11
-5
-3
-3
16
6
8
7
6
6
1
-1
11
28
6
-1
-3
-4
-2
-4
-17
-2
-51
-10
1
2
-3
-18
15
-18
48
4
3
1
1
-1
8
13
-6
1
3
-3
0
-9
-7
-17
-27
-9
-7
-3
0
-2
-11
2
18
6
10
-1
-6
-28
-31
0
-24
-6
-9
-2
0
17
13
-5
13
4
10
4
1
-1
-5
9
21
2
-9
1
0
-6
6
21
3
1
2
-5
-6
-17
-25
-20
-7
8
-2
5
3
-14
12
49
-11
0
7
-6
3
20
-26
-96
18
2
-10
-4
-1
0
-18
11
2
-4
3
-1
2
8
46
17
16
9
14
5
0
-6
-6
-12
-24
3
2
5
0
-5
1
46
-6
-1
-3
-2
0
1
-7
-15
-9
-3
-8
0
-2
-3
-4
-28
-6
-10
-3
-6
-3
-4
-18
-30
10
3
-1
0
-2
-3
9
46
-16
-2
-7
-6
-4
1
3
-1
-21
-4
2
0
0
11
-7
48
29
9
-3
-6
0
-9
-11
-41
-24
1
14
0
1
-5
-29
-8
37
5
9
4
0
5
12
-24
45
-2
-18
-1
2
6
29
50
-20
4
18
3
-4
-15
-12
-19
0
-3
-10
-5
-3
-10
-11
4
-15
-7
-6
0
-2
-8
6
-24
-3
0
11
1
1
-7
-11
-18
-32
-9
-16
-5
0
22
3
-15
36
3
4
-4
-4
-6
-6
1
-7
6
2
3
1
3
16
24
22
-6
1
-6
-6
-11
-21
-15
18
7
-5
3
-1
5
8
33
-60
-1
-3
-4
-1
7
13
-24
1
-1
0
3
-1
3
-5
-9
-12
-3
-2
-2
0
-5
-10
10
-8
-3
0
-2
-3
-4
2
0
18
-3
-8
2
2
6
5
6
-17
-11
-2
-5
-8
-39
-6
20
6
5
11
4
6
24
-8
-29
11
-7
-9
-1
-1
3
0
5
-3
0
3
-2
-2
0
8
13
-20
-2
-10
-3
-2
-5
-2
13
16
7
10
2
1
10
-1
-1
-15
4
8
6
4
4
11
37
30
-13
-21
-9
-4
-12
-25
-6
-2
2
9
1
1
7
-10
-23
5
-7
-5
-1
-1
-4
0
10
8
2
0
-2
-2
-1
-5
7
-14
1
-1
1
2
20
18
12
30
4
4
-3
-1
4
5
26
-23
-1
-2
-1
0
4
-7
-19
-23
-21
-7
-4
-4
-9
3
-7
-4
-8
-5
0
-3
-9
-1
18
-15
-2
-7
-4
1
11
-7
-21
40
5
-2
0
-2
-1
10
33
-29
-6
4
1
-2
-3
14
12
12
5
6
1
0
3
1
9
-13
-1
-3
0
-2
-5
-14
-6
-23
1
-4
1
-5
-15
22
-4
-18
1
-6
-5
5
29
7
-25
-3
-21
-20
-16
-8
-8
7
-12
-5
4
11
3
1
2
5
-1
-6
1
0
1
1
-7
-12
-8
8
8
10
3
0
-7
-12
13
-6
10
9
3
2
6
4
-9
-8
3
-10
-3
-1
1
2
1
0
-6
10
0
1
8
9
3
28
-3
1
1
-2
-6
4
-18
-1
5
-3
1
0
2
7
14
11
9
0
1
-2
-11
0
11
-70
-9
-12
0
3
31
26
-21
39
7
3
-5
-2
-8
-15
-3
-29
-4
0
-1
-5
-16
-37
-23
32
-2
0
2
2
0
14
-5
6
6
7
3
-1
6
-6
19
-12
-6
-4
-1
0
-8
-6
-1
-11
4
1
4
3
22
22
3
-4
-10
-15
-8
-3
-6
-11
-17
-16
2
10
-2
-6
-14
-4
-2
19
-13
-13
-6
-1
0
-9
-2
19
7
4
3
0
-4
9
36
-7
1
2
0
-4
-13
-32
12
-4
-3
-9
-4
-1
3
14
19
-19
7
7
1
-2
-3
-16
-36
25
-6
6
3
2
-2
2
-9
-1
-7
-1
-1
-2
1
-5
-7
10
3
-1
-4
-4
-10
-6
-12
-2
4
-4
1
0
-1
5
9
-57
-6
-1
-2
-1
-7
-10
-10
35
13
10
6
2
9
17
-2
14
-6
-1
-2
0
-4
-20
-3
-7
-4
-5
1
-1
-7
22
-4
-14
-1
-1
-1
2
26
11
-13
-32
1
-1
0
2
11
-7
15
10
4
-4
0
-1
-13
1
0
-5
-3
-8
-8
-2
3
9
-6
31
3
7
1
-2
-22
-4
3
-4
-11
0
0
0
6
14
31
2
-2
-5
1
-3
-7
-20
-7
-22
-2
1
2
-1
-5
4
15
16
2
1
-3
-2
-1
-12
-48
-18
-4
-8
-6
-1
-3
10
10
16
-1
0
1
-2
15
-18
-22
11
8
7
-2
-1
4
-9
2
-10
-4
0
-1
1
-4
6
18
-28
-15
-13
-2
-5
1
13
-20
-7
-2
-10
-2
1
7
-10
7
12
2
4
0
-1
1
4
-15
-9
5
2
-1
0
3
-6
2
-24
-9
-3
0
-2
-22
-6
-2
17
-10
-3
-2
-1
-1
-10
19
4
-5
-3
-5
-1
9
14
-4
-17
1
0
-3
-2
-8
-10
-21
20
6
14
4
1
1
9
-5
-17
4
8
6
0
-1
7
1
-17
-8
-3
-8
-6
-17
-10
-9
3
2
-3
1
-4
-15
-16
5
3
-1
-3
2
2
22
1
-12
-37
4
1
-5
-5
-11
-12
-20
25
9
12
8
3
3
3
10
-12
-3
-3
-4
-3
-14
-17
44
43
2
-1
2
3
26
1
-20
-14
1
6
2
2
-5
23
7
-50
-6
-4
-1
-1
-7
-27
-61
20
-6
-13
1
1
12
20
0
-8
6
4
3
-2
-1
0
-3
12
-1
-1
-4
-2
1
12
27
-21
-4
-6
-3
-3
-4
-15
-10
16
1
3
1
-1
-3
-26
-7
-20
-2
0
-3
-2
1
14
-40
-1
-6
-7
-3
0
-3
-7
3
17
-1
3
0
1
1
6
8
-15
1
1
1
-1
5
16
-8
19
-5
-9
-3
-1
-7
-16
14
26
-5
0
-2
-3
-5
0
22
1
-2
-4
1
2
0
4
8
8
-1
-9
-6
-5
-4
6
-1
-3
5
8
-1
0
6
12
6
-8
-3
-3
1
2
6
-4
-29
10
3
11
6
1
-2
-10
-6
11
0
7
-1
-1
-2
-3
3
-4
-2
-6
-2
-2
-9
-3
5
-8
1
-10
-4
-1
0
0
-9
-2
2
-2
0
0
1
8
19
3
5
7
4
0
5
-2
0
-1
-1
-2
0
2
-1
0
-8
-2
0
2
2
3
-1
-1
-1
-4
1
-4
-4
-2
-7
-7
0
9
4
3
0
2
8
15
10
5
-3
-2
1
0
-3
-1
25
-12
-1
-5
-3
-2
-4
-1
-18
11
3
-3
0
1
3
-2
7
-5
-5
-3
-1
-1
-5
1
-5
-7
1
3
-2
-2
-11
-9
5
-11
1
6
3
1
12
6
1
19
2
-2
1
0
2
2
5
-2
-2
-4
-2
-3
-1
-1
-5
0
-1
-7
-2
-2
-5
-7
-4
-5
-1
6
1
-2
-4
3
-3
4
-3
-8
-3
0
4
1
5
-6
-3
-4
2
3
3
2
0
1
0
-4
-3
-4
-2
-6
-3
3
-2
0
-8
-6
-2
-3
-5
-4
-4
-8
0
0
3
2
8
5
-1
5
7
1
-8
1
-3
-6
-9
-7
0
-1
-2
0
-3
2
0
-9
-2
-3
-1
1
-4
3
1
11
1
-1
-2
-1
-1
-5
-3
-14
-4
1
0
3
0
2
2
5
6
2
1
-1
-1
1
1
3
-15
-6
-5
-3
2
1
-1
-11
19
-3
-1
0
-2
-4
-6
3
-26
1
0
-3
-1
-1
3
7
8
0
1
1
2
2
1
-1
22
12
1
1
-1
-3
4
12
18
-4
-3
-2
1
-3
-11
-35
-53
-10
-5
-2
-2
-1
-1
8
4
-3
-4
-2
0
-4
-3
-10
-13
-4
0
2
-2
0
1
7
13
1
-1
-2
0
0
1
10
5
-1
2
1
0
-2
-1
-2
-10
0
-1
-2
-3
0
-2
-2
7
5
0
1
0
-2
-4
3
-2
1
1
1
0
1
2
4
1
-3
-4
-1
-2
1
4
7
2
-3
0
-1
-1
0
1
0
-20
-14
-6
-3
-3
-5
-14
-21
-9
6
0
-2
-1
-2
1
17
18
4
1
2
-1
-1
-5
-40
-4
-5
-3
-4
-1
1
2
18
-7
-4
-3
-2
0
1
2
-20
-9
-3
0
1
0
-1
0
23
3
0
-2
-2
-1
2
9
29
13
7
7
2
1
2
-3
-33
7
0
-1
-4
-2
-8
-19
-58
-34
-15
-7
-4
-3
-2
3
-8
9
-1
1
-2
0
1
4
33
1
-3
-3
1
2
-1
-2
-3
6
8
2
1
0
-2
-2
3
-21
-2
-4
-3
0
-2
0
7
13
-2
1
2
-1
-4
-2
-18
-11
-6
-2
-1
-3
5
7
27
5
1
2
3
3
1
1
-11
-11
1
1
-1
3
-1
2
-7
12
-5
-6
-8
-3
-1
-12
-10
-21
-6
0
2
-1
-6
-12
7
9
1
-2
0
-4
4
7
57
14
10
3
1
0
0
-4
-36
-4
0
-3
6
2
0
3
-6
15
0
-1
-9
-2
-3
2
0
-14
-6
-2
0
-3
2
-7
-43
-14
-7
0
0
1
1
6
36
15
7
1
4
-1
0
4
69
22
3
-1
0
-1
0
-7
-100
-36
-7
-2
-1
0
5
11
80
7
14
4
3
-1
-3
5
-21
13
-6
-5
-8
-4
-10
-34
-59
-28
-7
-3
4
-2
-2
4
35
14
6
3
-1
0
2
9
3
3
-1
0
0
2
4
5
11
-9
3
6
1
1
0
-2
21
-4
4
-1
-5
-2
-5
4
6
21
-10
-9
-3
-4
-3
-13
-46
-18
-11
-4
0
-1
-1
1
29
8
1
-2
-2
0
2
4
-17
4
2
-1
-4
1
0
0
21
-5
4
7
3
1
-5
-4
-19
-10
-4
2
-3
-3
-1
-3
7
1
-4
-4
-3
0
2
7
13
9
2
-2
6
1
0
0
-6
-1
0
-5
-2
0
2
14
27
15
0
-4
-5
-1
-5
-24
-26
-13
-4
3
-1
-3
-8
-18
-85
-22
-5
-2
2
-1
-3
2
28
0
-3
-5
-5
-2
-1
0
21
12
-1
-1
3
0
1
3
-15
2
3
-2
-4
0
2
9
10
11
8
10
4
1
0
-4
3
-8
-1
2
2
0
-3
-10
-18
-5
-6
-5
-1
-1
3
4
13
3
0
-4
3
0
-1
1
-1
-9
-5
-1
-13
-3
0
-5
5
16
12
3
3
-1
-1
1
12
1
-4
-3
4
-1
-1
-2
-6
-8
-3
0
-8
-1
0
1
5
2
-2
-2
1
2
2
8
11
3
-1
-3
-5
1
-5
-10
-7
-9
-3
9
5
-3
-3
-7
-12
-7
-1
2
10
0
-1
5
2
-2
0
-2
0
0
2
-1
3
3
-1
-4
-6
-2
2
10
-7
3
0
-2
2
2
-5
-11
0
-4
-9
-5
-6
-4
0
-3
8
0
4
0
2
-2
0
-4
-12
-3
0
7
5
0
3
13
35
10
1
2
-1
0
-1
-9
-13
-7
2
1
0
-2
0
6
-6
-2
-3
-7
-6
-1
0
1
25
15
0
1
0
-1
-3
-10
-46
-13
-7
-3
-4
0
0
9
12
0
-1
-1
0
2
1
1
11
3
3
4
-3
0
-1
-7
-3
-8
-5
-4
2
-1
-1
-4
-10
-5
1
-4
-12
-1
-2
1
-16
7
1
1
4
0
0
2
11
0
0
-1
2
0
-3
-8
-10
-11
-3
-1
-2
-1
1
0
26
11
4
-5
1
-2
-1
1
10
-5
-1
5
-3
0
0
4
-12
-3
-1
1
10
1
-1
4
22
4
-2
-5
-8
-1
-3
-10
-21
0
-2
0
2
0
0
2
-21
-12
-1
-2
-7
-2
-3
-5
19
7
-4
3
5
-1
0
-5
-40
-7
-2
-2
3
2
-1
2
29
1
-3
-3
1
-2
0
3
-3
-1
-1
2
-3
0
1
-1
-3
-2
0
-4
-6
-2
-2
-1
-3
0
2
1
2
1
-2
-2
-15
4
1
2
-1
0
0
1
3
-8
-3
-4
-4
-1
-2
-1
-16
-6
-2
-1
3
0
-1
4
13
3
0
3
1
-3
-1
2
2
1
0
-2
4
0
-3
-7
9
-1
-3
-1
-2
-1
-2
-2
-2
1
0
0
-2
-2
0
4
12
1
-1
-3
2
-1
-2
-3
-36
-8
-3
-4
-8
-1
1
-3
-2
3
2
5
12
0
0
1
15
6
-3
-3
-8
-2
-1
0
-18
-1
1
3
-6
0
-1
1
14
-3
3
6
8
0
1
-4
-3
-4
-2
-9
-10
-3
-1
-5
-10
0
0
3
11
3
-1
3
2
-1
-3
-8
-14
1
-7
0
4
0
-1
-1
1
-7
15
7
4
7
-1
3
-6
13
-18
-4
4
-3
2
2
2
-17
5
-3
-11
-3
-1
-1
8
-2
0
2
6
0
-5
-5
22
6
-3
2
1
3
3
2
-26
4
3
2
-7
-2
-2
4
-1
-5
-1
-3
-9
-4
-2
-2
13
-11
-4
-2
7
1
2
-5
-41
-1
-3
2
2
3
-1
-1
21
5
1
0
-3
-6
-4
-15
-14
-4
-2
-6
-8
-2
-2
3
7
15
4
3
6
1
1
8
15
-6
-5
1
-2
0
-1
-7
14
-3
-16
-2
-7
-2
-3
-12
-3
-6
2
3
2
0
4
29
9
19
-7
-7
-1
-1
1
-5
-11
-13
3
6
1
-1
-3
-10
-11
-6
-11
-11
-9
-4
-3
-21
-32
8
14
6
-1
0
-5
-6
0
12
13
2
1
0
7
48
36
-26
-5
2
7
-2
1
-14
-43
15
14
0
-3
-1
-4
-15
23
23
-16
-2
-3
-2
-3
2
-3
-17
-10
-10
-11
-5
-8
-36
-4
-6
42
10
10
4
7
41
13
28
-51
-9
-6
-2
0
11
15
-20
21
-12
-7
-8
1
13
28
-5
-16
9
2
-2
-6
-20
-46
-15
-11
4
-2
4
1
12
23
29
30
8
4
2
-8
-50
-52
-37
-39
-6
0
2
6
18
-24
-41
3
-1
-1
-2
3
30
65
88
-12
-18
-13
-17
-13
-54
-6
-59
17
13
4
6
9
58
-15
-5
-7
7
-4
-1
-10
-51
22
46
13
-9
-4
4
-2
-27
-37
-35
-12
-4
7
0
9
75
74
45
52
16
3
3
-14
-79
-36
-16
-44
-19
0
-3
15
98
78
18
-7
-9
6
-4
-5
-28
-105
-48
-6
-11
-18
-5
1
52
66
38
17
-7
-12
-7
-7
-71
-7
10
33
4
-2
8
7
39
38
30
-66
5
1
-8
1
3
-14
28
0
-7
4
-4
-19
-107
-98
-90
35
-20
-9
-6
16
124
29
-5
-36
7
11
-10
-15
-128
-108
-103
30
-3
-8
-1
-2
-54
-17
15
-56
-13
-3
7
8
40
65
42
37
14
21
3
-10
-98
-44
46
41
8
-22
4
-4
-61
0
67
-39
-12
19
3
18
106
115
-93
93
7
-5
-6
-19
-101
-123
42
-16
13
1
13
21
108
127
54
-50
-9
8
1
11
66
-43
-5
93
15
3
-8
-14
-73
1
-64
2
-5
-11
3
-5
-39
-38
-41
-55
-8
12
7
-4
1
-20
21
-29
-2
-9
0
-11
-89
-72
-39
-62
6
-17
5
8
81
6
115
-32
-13
15
-25
7
49
5
-52
53
26
12
6
7
23
26
-24
-44
-23
9
-17
-12
-13
-9
15
28
0
-42
-2
-9
-77
-39
39
-33
5
15
12
-1
-65
-12
15
-36
-8
-1
-3
0
10
60
16
50
15
14
0
4
35
2
-20
-5
12
17
9
-12
-88
-78
95
70
30
12
8
17
121
88
-27
6
-13
-7
-14
-9
-20
44
52
26
-2
-7
-3
-7
-20
13
-43
0
2
1
-5
-5
-60
-60
6
0
-16
-23
1
0
23
19
-13
14
11
20
-4
-7
-22
-58
-22
4
10
-17
4
8
14
11
7
1
-26
-17
-10
0
30
38
6
-4
9
13
3
-6
-57
-26
9
26
-11
-5
-2
5
50
-25
-38
32
8
9
5
-5
-34
-9
20
-34
-4
0
-1
2
22
84
-17
-22
-11
-13
-8
-4
22
-3
-22
-89
-1
5
0
-2
-26
-22
-53
-38
0
16
10
-4
-42
5
-15
63
10
13
-3
5
60
72
-12
-62
3
-25
-4
-4
-37
-12
-16
-27
-25
-30
-12
-2
23
17
-65
43
4
7
-5
-8
-49
-75
-38
-90
-4
23
4
5
54
37
1
59
16
33
9
8
-2
26
-10
16
-4
-31
-14
-10
-46
-33
24
3
-8
4
2
-1
17
11
21
7
7
13
7
-1
3
-11
-35
4
-6
-16
-2
0
-8
16
3
-3
12
13
6
1
-3
-32
34
-30
-21
-12
-6
4
48
85
11
-29
-5
1
-9
-11
-53
-93
-16
-1
-7
3
2
5
17
43
1
23
-2
-4
0
0
15
23
10
-8
6
-14
-5
-3
8
12
-16
26
0
-5
-3
-3
-31
-7
39
-28
-13
-10
-4
-5
-18
-38
-16
-21
2
3
-1
-3
-25
-28
-20
12
15
26
8
15
107
50
39
12
-12
-10
-5
0
1
-2
-5
29
2
-42
-5
-3
3
3
53
5
-1
1
-1
0
1
16
5
6
-9
12
5
-3
-31
-36
-19
-10
11
13
1
-1
6
-2
27
18
8
-17
4
-1
29
-13
-17
19
-5
-6
-4
1
-1
-16
6
19
9
5
-3
-1
-8
0
31
36
-4
3
5
-1
4
14
-2
-17
4
16
-1
-5
-28
3
30
-16
-5
10
-3
-4
-18
-29
3
-21
-11
-23
-3
0
1
-10
5
42
6
3
1
-1
-17
4
8
-27
-1
5
6
-1
-3
-14
15
25
9
0
6
2
30
70
3
-5
-6
-9
-5
-3
-4
-4
-30
-71
-13
-8
0
0
0
-13
-15
0
-1
4
-2
0
-6
-11
-15
-19
-11
8
-1
0
-6
8
11
-5
-2
-26
3
1
-1
-16
22
51
5
-7
-1
-1
15
5
-25
-14
-9
9
-2
-2
4
-7
-22
-25
-2
-5
5
-1
-20
-23
1
-1
1
-6
-4
-2
27
35
34
22
18
17
6
3
7
2
-18
-3
-22
-39
-13
-5
-15
-6
18
7
-1
10
2
-3
-24
-57
-6
-17
2
-1
-2
2
33
17
2
0
-1
-13
0
4
15
5
9
0
6
11
1
1
-5
-2
14
-33
3
-2
-1
-1
-10
41
24
17
-2
9
-4
-1
-3
-6
-28
-19
6
8
4
0
10
5
-19
15
-3
-23
-9
-4
-26
-28
-4
-7
1
-8
0
0
23
4
-16
6
1
5
1
-4
-21
-18
-2
-46
-2
-7
-1
-2
12
15
-10
5
-5
16
4
6
39
40
-9
-3
-5
-11
-5
-2
-2
1
1
11
-2
4
-1
-5
-30
-14
-1
-45
-9
-4
-2
-2
-1
-46
29
29
2
6
3
0
-16
2
-2
13
-1
-2
-7
1
12
-22
-51
-30
0
-12
-1
-4
-10
-10
-12
24
-1
-8
-4
-4
-36
-1
-3
-8
0
10
4
2
26
6
22
7
-2
-13
4
-1
1
5
11
-16
12
15
1
-3
-30
-3
2
10
-9
-2
-3
2
14
18
-25
-22
-4
5
-2
-2
-7
-50
-20
-1
0
-3
2
2
11
45
6
-8
-4
-6
-5
0
-1
-8
-7
25
10
-2
-2
-2
-1
-8
4
-57
3
22
0
-4
-20
-18
6
0
-1
17
8
-2
-3
-16
9
3
4
-8
2
1
-4
1
12
-31
-21
-32
-15
-6
-15
-1
-11
9
5
-2
3
2
1
-20
-12
9
8
7
2
1
1
-12
7
20
6
2
1
2
-1
2
-3
19
3
3
2
4
21
13
14
3
-5
-8
0
-3
4
15
32
-31
-11
-1
-4
-2
1
-6
-19
46
15
11
5
-3
-20
-12
-3
-9
-5
-8
0
2
9
22
5
16
6
12
4
0
-4
20
10
4
-8
-4
-5
-2
-7
-17
-62
0
-12
-11
-2
-6
-22
-28
10
9
3
3
2
-4
-22
-18
1
17
7
2
1
2
27
35
-11
-10
-19
-33
-10
-1
-9
2
19
-36
-8
-5
-8
-2
-3
-9
-20
3
-1
6
1
0
3
-3
-34
-9
-7
-1
-2
-5
-8
-5
-32
-37
2
6
0
-4
-24
-15
0
74
0
-9
3
7
35
7
3
5
-3
10
-2
-2
-2
6
-7
-28
6
-7
4
0
-10
-13
-5
18
6
15
3
-1
0
36
33
-36
-17
-20
-7
-1
-2
-4
-25
18
-1
-7
-1
-2
1
-8
9
-51
-4
7
2
1
-4
-11
-18
-15
-2
4
-4
-3
6
1
21
16
8
19
3
2
6
13
16
8
-13
1
-2
1
19
7
10
7
-4
-13
-6
-5
-7
4
-13
-6
10
4
0
-2
-10
-12
-26
-3
-2
-2
-4
0
12
-8
-9
-2
7
0
1
-1
-12
12
-5
16
-5
18
2
-2
-17
-1
46
-14
1
-12
0
5
36
35
-15
20
-8
-7
-6
-6
-18
-9
9
-10
-3
4
5
0
-21
-21
1
0
1
-1
-4
-1
9
-5
-28
48
17
12
5
3
-8
-5
42
-9
-7
10
-2
-4
-7
1
-34
-18
-4
-15
-9
-1
11
-4
12
-1
10
3
5
-2
1
0
7
17
-7
-7
2
1
-13
14
17
-35
-7
0
-1
2
31
-9
-7
27
10
14
2
0
9
16
22
-2
1
-10
-4
-2
-18
-18
-20
-19
-13
-9
-4
2
35
26
12
4
2
4
3
-3
-19
5
29
9
3
8
3
-5
-4
1
-13
-7
-21
-23
-2
6
6
0
29
5
-1
-6
-8
-6
-12
-36
24
-29
11
19
3
4
0
8
6
1
3
8
1
1
7
4
-2
23
-14
-21
-8
-7
-7
27
7
-2
-10
-7
0
-3
-4
-58
-5
7
-1
-11
-4
-1
-9
-22
-4
-16
7
10
3
1
1
-7
2
-28
11
24
6
6
32
13
19
72
4
-6
-1
-6
-17
-4
-10
-1
-7
-8
-5
-2
0
6
-5
-10
-4
-9
-4
-1
-9
-17
-23
27
8
0
2
1
2
-3
16
-30
7
4
-2
-1
-10
4
32
9
3
-4
0
1
13
10
2
24
-13
-7
-1
-2
-3
6
-9
17
2
-10
-1
-2
0
19
1
-10
-2
-7
-3
-1
-4
-1
-11
-7
3
3
-1
-4
-20
17
17
-37
-14
-13
-2
3
15
-45
-25
-42
0
5
-2
-1
2
-20
-25
21
2
3
0
0
10
10
-6
-1
1
-2
-3
-1
-11
1
3
4
-4
-1
3
0
6
33
12
1
-2
-2
2
2
14
-13
-8
-16
5
5
-5
0
1
5
-29
2
-7
-8
-3
-2
-5
-4
-8
-20
6
7
-2
-4
-19
2
10
-2
0
1
-4
-2
-6
-7
-37
-4
0
5
6
1
7
15
-3
2
-2
-4
-1
-1
6
25
24
1
3
-2
-5
1
-3
-17
24
10
-2
3
-4
-5
2
11
-61
-18
-3
6
1
-1
-3
-7
-17
-15
2
1
0
-2
6
-19
4
-17
-25
-43
-9
-7
-25
10
29
41
2
-2
-4
-5
-37
-25
49
-15
1
-1
-3
0
2
24
17
25
9
11
2
1
7
-3
-17
-8
4
4
4
-2
-10
3
-14
-7
-2
0
0
-2
-6
3
21
27
-2
-6
5
0
-18
-3
-1
-25
-2
-2
-2
0
26
30
-5
39
0
4
0
1
-4
-5
8
-3
6
-2
2
0
3
10
4
34
6
7
4
1
-10
-25
15
-80
-15
-9
-5
-3
-1
-5
-51
-21
0
14
1
0
15
-2
-3
23
2
0
-5
-3
-5
3
-33
-12
4
-5
-3
-3
-2
6
-17
40
2
10
0
1
-1
-6
31
-11
2
-1
0
-2
-6
-4
-11
-29
-3
-2
4
5
41
32
33
8
-12
-21
-5
-3
-3
-20
-2
23
6
7
2
-1
-19
-18
-10
5
15
4
4
0
1
21
2
-39
-7
0
-2
-1
-12
0
7
4
5
8
0
1
10
-10
-49
-4
-6
1
0
0
6
-1
2
2
7
2
-3
-5
-11
-10
21
25
1
-4
-1
-3
-8
2
-7
-26
-1
6
-1
-2
12
-15
0
-2
-7
-14
-1
2
10
6
0
-4
4
4
-5
-1
0
1
4
1
3
-2
4
2
2
-3
-5
29
-8
-5
-2
-1
-1
4
27
5
6
10
3
6
27
11
8
-6
-3
-3
-1
-3
-8
1
-33
-16
-3
-3
-1
2
15
-23
14
34
5
4
3
-1
-5
19
-34
3
-2
-4
0
-2
-12
-10
12
-5
6
12
-1
3
11
17
-7
-11
-8
-10
-6
-4
-35
-38
-9
9
2
3
2
-2
-4
17
15
-12
-3
-5
-1
-2
-8
-9
-5
18
0
9
2
-2
4
12
-5
24
5
-6
-2
-3
-7
-14
2
-12
2
-6
-2
1
-20
-42
20
-24
-17
-18
-8
0
28
37
4
14
0
2
-1
-5
-5
-20
-7
7
0
-2
-1
0
5
16
14
-33
-5
3
-5
-3
3
-5
-14
22
5
4
3
-3
-39
-12
7
-8
-2
-8
-3
3
26
-1
-7
-39
-5
11
0
3
16
3
-6
21
-1
1
-1
-2
0
8
-13
-23
-6
-3
0
-1
-2
-5
-14
6
1
-3
2
-1
8
36
39
30
0
-8
-1
0
4
-4
-4
-22
-5
-3
-2
0
-16
-19
2
5
2
3
2
0
2
-1
11
6
-7
3
1
0
-12
-11
-14
2
-1
1
2
0
-4
10
53
40
5
6
1
0
7
6
-9
11
2
-11
-2
-2
-8
-2
9
-4
-9
-2
-5
0
1
-8
-7
4
1
1
-2
-3
-6
-2
-6
-30
-8
-2
-3
-2
-1
4
-18
12
10
9
4
0
4
1
-4
-18
-3
-6
-3
1
11
5
-7
11
-7
-2
-3
-3
-14
-10
-17
-30
-5
-3
1
2
12
21
6
-6
-5
-1
-4
-3
-15
-20
-1
6
4
3
0
-1
2
-23
-7
2
-3
-17
-1
-2
-10
-25
-30
10
2
0
-2
-1
-5
10
45
-2
0
-3
0
-2
-3
7
4
3
-4
5
3
1
5
-2
-18
-6
-3
10
1
1
-2
5
-3
3
3
-2
0
0
1
2
7
-15
-7
-3
-3
0
11
-4
-12
-1
2
1
1
0
-10
7
7
25
2
7
2
-4
1
14
13
-23
0
-2
-1
0
3
-6
-16
2
-8
-8
0
1
-5
-6
-8
6
-3
-5
0
-1
-13
-11
6
-6
-1
-6
0
2
22
10
-20
-31
-6
4
-1
0
9
-4
-2
-6
13
11
-1
-2
-8
-7
2
38
-11
-27
-3
-1
-11
-9
26
2
3
3
-2
-2
-3
12
4
-10
-1
-2
1
-1
3
2
23
-19
-5
1
0
-2
8
2
-17
-1
8
11
-1
1
1
-22
-31
-19
-19
-19
-7
-3
0
-8
-9
0
6
0
0
-2
-9
5
10
6
0
0
-4
-3
-5
0
17
-7
1
6
-1
-1
2
12
8
-1
7
5
4
1
2
3
-1
0
-1
-6
-4
-5
-8
-8
-23
11
-4
-2
0
-3
-4
2
3
-10
1
-5
-3
-4
5
3
-4
1
0
4
3
0
-4
-5
-9
-46
-1
-7
-3
0
-1
-4
-14
7
-1
14
2
1
1
26
-2
-1
0
-9
-2
-3
-1
-8
3
-5
-1
-2
-4
0
-2
1
4
10
-4
4
-1
0
6
3
-5
-2
0
0
-1
-1
-7
-10
-2
-5
0
2
3
-1
-5
4
-2
4
5
2
1
-1
3
5
6
3
-4
-5
-4
-2
-4
-7
-9
8
3
5
-2
0
1
-10
-7
-5
-3
-9
-1
-1
0
2
5
-4
-1
8
-1
-5
1
-1
-4
4
-2
3
1
7
5
3
-3
-3
-3
-18
12
3
-4
-8
0
-1
1
3
-14
0
6
8
1
1
3
-1
-1
-3
-3
2
-2
1
-3
5
-7
-7
-3
-3
-7
2
-3
-21
-3
-1
2
-2
-1
-3
1
9
5
6
-2
0
0
0
3
-5
-1
-3
1
-4
-2
2
1
0
-6
-3
5
-2
-2
4
2
8
-4
1
-4
-5
-3
-2
-11
-10
4
0
-1
-1
0
-4
-1
-1
-5
-1
-6
1
2
4
9
6
17
1
4
11
2
2
-2
5
-8
1
1
-8
-1
-2
1
-4
-13
-6
0
-1
-4
1
0
5
0
-3
-2
0
1
1
-3
-1
-4
0
-2
-3
-2
-1
-2
-2
4
2
1
-1
-3
-3
-2
-6
-21
-9
-4
3
-1
-2
-2
-2
16
7
2
0
2
1
0
5
17
-1
-3
-8
-3
2
4
3
2
2
3
6
3
-2
3
7
-13
-8
-6
-7
-4
-4
-2
2
2
-2
-1
0
-3
-4
-12
-10
-5
-1
-25
-19
-3
4
2
19
3
5
32
24
8
0
0
-14
-3
-3
9
7
1
1
6
12
14
-1
-1
1
-1
0
0
5
-3
3
-2
-2
0
-4
1
11
-1
-8
-16
-11
-4
-2
-4
-17
19
-3
-7
-1
-2
-2
-3
-45
-48
-6
4
4
3
-3
-8
-4
-3
-3
4
4
-2
-1
0
14
13
8
1
-3
-2
3
8
14
-10
9
6
1
0
1
8
37
30
-1
-9
-4
-1
-3
-6
-12
-22
-6
0
-1
-1
-3
-10
-80
-27
-16
-7
-2
-3
-1
1
28
22
6
0
-8
-2
1
2
21
-1
9
1
2
0
-3
1
9
6
-7
0
0
-3
0
2
0
-17
2
-2
-1
0
-4
-14
-61
-16
-9
-6
0
0
0
5
15
15
3
2
2
-1
2
6
-25
3
5
6
2
0
2
4
16
13
2
-6
-5
0
-5
-6
-5
-17
-5
-4
-1
-4
-3
-13
2
-17
-7
-2
-3
-2
3
8
27
2
5
2
6
0
-2
3
22
13
0
-3
-12
-4
-1
6
16
6
-1
1
2
0
0
-2
-4
4
-5
-6
-4
0
0
1
-10
0
6
13
6
2
-2
-7
11
-3
-6
-2
3
-1
0
1
14
5
2
-4
-2
-2
-7
-12
1
16
-1
-2
-6
-2
1
1
44
7
4
-1
-3
1
0
-2
-83
-29
-4
-5
-2
0
-1
-1
-1
18
-5
-2
-2
0
3
10
5
-9
-3
0
-1
-2
2
-4
27
16
9
6
3
-1
-8
-13
-56
-25
-8
-8
-6
-7
0
1
16
0
-2
-3
-2
1
-3
-8
3
-2
-2
-2
-2
-4
-1
-1
-8
-9
-7
-6
-4
-1
1
7
45
7
3
6
8
1
-1
-4
-29
3
12
7
-2
0
0
1
30
7
3
1
1
0
-5
-10
-77
-30
-14
-16
-14
-5
2
5
19
10
-1
15
7
2
-2
-6
16
-2
0
-4
9
-2
1
7
-10
6
5
3
1
0
-3
-6
-1
-6
-3
-7
0
-1
-1
0
26
1
-2
-6
-10
-1
0
3
-5
-1
-4
1
-1
0
-2
-6
-10
-5
-2
-5
-2
-3
-3
4
18
5
3
1
2
-1
0
0
14
10
0
-5
-14
-1
0
-6
-51
-4
0
6
10
0
0
-8
-29
-22
1
-2
-1
-1
0
3
12
7
-6
4
6
0
0
-4
-9
3
0
-8
-20
-3
0
4
21
4
5
4
-3
-1
-2
0
-10
-5
-2
1
2
0
0
0
-11
-3
2
1
0
0
-2
-6
1
4
2
-4
5
-1
0
3
7
-9
-9
-13
-3
2
-4
-2
-7
-4
-1
7
-2
-5
0
4
2
10
6
9
6
1
-1
-4
-32
-10
-5
-8
3
-1
-2
-3
37
6
0
2
-2
0
0
-2
0
-3
-2
-9
-3
0
-1
0
0
-1
-4
-7
-9
-3
0
5
18
2
4
11
9
1
-1
-1
0
-3
2
-1
2
0
3
4
-16
-2
-1
0
1
1
-2
-7
15
-8
-4
-2
-2
-3
-3
1
6
10
-1
-6
-2
-1
-4
-7
-21
-2
-5
-5
-5
-4
2
8
5
8
2
0
1
1
1
-8
-44
-9
-3
-1
2
1
-3
-3
32
-6
-5
-4
-10
-4
2
9
6
5
8
6
5
2
-2
-10
-13
-14
2
0
0
0
-4
1
39
22
-1
-3
5
-2
0
-3
-16
-7
-1
-1
0
1
1
6
0
5
-3
1
1
0
-3
-5
-6
3
-5
0
-1
-1
-1
-1
-24
-21
-5
-2
-2
0
0
-2
3
2
0
-4
3
1
0
-1
12
0
0
-3
-3
0
3
3
-9
3
2
3
0
1
-3
4
39
9
1
-1
4
-1
-5
-4
-54
-12
-2
-4
-10
-3
-3
-11
6
-8
-2
-4
0
-4
-2
-1
-13
3
-1
-5
-9
1
0
-1
-16
-9
-5
7
3
-1
2
2
21
0
0
3
-1
-1
3
3
-3
8
3
-5
0
1
1
0
-3
-7
-3
-3
0
-1
0
-1
-8
-3
-2
-5
-8
0
-3
0
23
8
-1
3
10
0
-2
0
-24
-2
-2
-2
-6
-2
-3
-9
5
-7
-3
-2
2
-3
1
0
-21
1
4
0
-5
-1
0
-2
5
0
1
1
4
1
3
7
23
4
0
-2
-3
0
-4
-7
-29
-6
-3
0
1
0
-1
-1
-1
-12
-2
1
-4
-2
0
2
24
11
3
0
3
-1
1
2
28
11
0
0
-3
2
-2
-5
-34
-11
-2
-2
4
-1
2
3
-7
1
2
-2
6
1
1
3
3
-1
1
6
-18
-3
0
-4
-12
-3
-4
-6
8
-1
-1
6
22
4
1
17
9
1
-1
-4
-7
0
-1
-8
-5
-1
-2
0
-7
-6
-5
-16
-1
0
-2
-2
-4
0
-2
7
2
-2
-1
0
5
1
4
-1
-5
-2
0
2
7
3
2
7
4
-1
-1
-2
-7
-2
-2
-2
-1
0
-2
-3
-13
-4
-1
-4
3
-1
0
4
17
0
-3
-5
-9
2
-4
-6
-14
2
-2
-2
-5
-13
3
0
-3
-2
-1
5
1
-3
-4
0
-4
-3
1
0
2
4
1
3
10
3
0
-8
-17
4
-2
-1
-5
1
-3
-9
25
8
6
1
-5
-4
-1
9
9
5
-12
-1
6
-4
-1
1
-20
-20
1
-1
1
-2
-1
-4
-15
2
-4
0
2
1
1
-2
-10
2
3
-2
-7
-1
-2
-12
-1
12
0
3
-4
2
3
10
18
-2
-3
-1
7
1
-3
-11
-9
-10
9
-7
-4
0
0
-8
-19
9
-20
1
2
1
3
20
25
-5
-15
-11
-11
-4
-6
-7
-6
4
31
3
1
2
2
21
20
-7
-18
-2
3
-3
-3
-7
-34
2
26
7
7
1
0
-5
22
7
9
-1
-6
-7
-2
-2
-18
0
-19
-5
-2
-1
1
-6
-2
-1
-4
0
-3
4
4
2
12
13
-2
-2
0
-4
-3
11
1
3
-8
-1
2
1
3
11
-1
-6
20
5
-1
0
-4
-21
-33
44
7
-7
-5
-1
-1
17
56
-37
-15
4
4
3
3
11
0
33
5
-8
-4
-1
1
-5
0
-36
-5
2
0
0
-2
-11
6
27
-12
4
6
-5
-2
3
-66
6
11
-2
0
-1
1
-4
18
-40
-4
-5
-3
2
2
4
-13
33
-31
-2
2
6
1
-20
13
1
18
13
0
0
-4
-13
10
52
26
11
13
4
7
31
22
53
55
-14
-34
-4
-1
-6
-2
58
-72
-5
0
-13
-10
0
-31
-99
9
-1
7
6
3
-13
7
-24
-57
-18
-17
-3
-5
-7
-18
38
75
24
20
8
1
-8
12
18
-22
-14
-3
-10
-7
-36
-11
-17
14
1
9
7
12
83
37
-37
0
10
4
2
1
-27
-49
-38
-61
-10
-8
1
-9
-43
38
-34
-33
-9
-6
0
5
46
0
58
59
-10
-9
-6
-10
-29
17
27
55
19
10
-4
-3
-56
-53
-76
20
-15
-14
-11
0
62
1
-37
68
-5
-1
-3
-3
-22
9
-43
-25
2
3
-2
-4
-39
16
13
-26
-6
-2
3
8
61
64
66
70
6
-15
-2
-2
-18
-33
19
-74
2
10
0
-3
-39
-19
-13
79
10
5
13
5
-22
9
50
-32
-13
-7
-11
-2
77
62
-104
6
9
12
1
0
-21
-20
8
-58
-4
1
-2
-3
19
47
87
69
14
-8
9
1
13
58
77
43
-20
-16
-3
-3
-55
-40
65
-18
14
24
-4
0
35
7
-73
-28
11
22
12
10
19
38
33
41
6
1
-3
-6
-5
-47
-28
-12
-28
-90
-20
-10
-53
-19
62
-26
-5
43
5
1
20
2
-24
62
8
3
10
-3
-56
-19
15
-89
-19
14
-5
0
34
-13
-18
26
19
24
8
4
11
-16
-54
-5
-9
-24
0
-2
-31
-9
13
31
4
-7
-3
-4
20
-5
-19
-115
-23
-10
-12
-13
-75
-72
-3
56
29
22
9
13
81
21
-45
-14
-18
-13
0
0
1
7
41
-1
-9
-3
-4
0
50
38
-70
-40
1
-14
-5
0
-11
-7
16
-57
-11
-2
-1
-7
-31
-54
24
2
-5
0
-2
0
23
11
-24
35
5
-11
-4
-1
-18
-37
2
23
0
-6
-7
-2
15
8
20
-26
11
31
0
-8
-41
-20
-46
-12
9
-13
6
3
16
2
37
28
-9
-1
-3
-7
-25
-19
11
0
1
-17
7
7
41
33
-53
-15
-19
1
-9
-4
-4
12
21
-33
2
18
0
-3
20
-10
-30
23
9
6
3
2
15
-2
-50
-24
10
3
-7
-4
-24
-38
-12
26
-18
-18
-6
-3
8
31
23
-34
2
-16
-2
-1
-3
-11
2
8
1
2
4
5
39
62
27
-34
4
23
-6
-3
9
-15
-32
-7
8
9
2
-5
-61
-34
-33
15
6
4
6
-1
-11
30
23
2
3
1
1
3
9
12
14
26
-11
-8
0
-1
-29
-21
1
-2
-11
-12
-10
-7
6
4
14
-9
-8
-6
-6
1
-6
4
13
36
0
-13
0
-2
-17
16
56
27
5
2
0
2
24
14
-23
-20
-3
11
8
1
-20
-7
24
-28
5
10
4
-3
-24
20
40
66
-13
-13
-9
-4
2
-22
-39
-1
-1
-2
-1
1
3
-12
-7
-34
2
12
1
-2
0
28
-12
-9
-15
-17
-4
-3
-18
-36
-46
-13
1
-11
-5
-2
-14
-22
6
-28
-7
1
5
2
9
17
-8
18
7
12
1
3
27
-1
10
-6
-1
0
4
1
2
10
-5
-10
1
17
7
0
-10
-32
16
-13
-1
-14
-8
-4
9
-4
-60
-16
-11
-1
0
-6
-31
7
11
-20
3
-11
-2
2
43
-15
34
24
9
59
9
9
21
6
-55
16
-9
-91
-9
-3
-11
7
32
-7
-10
-12
-20
-10
6
9
40
15
11
11
8
0
-38
-20
8
-39
-3
-6
5
1
14
8
-24
-11
10
48
9
2
-5
-34
13
20
-1
-1
6
6
33
49
9
13
-7
-8
-8
-5
-24
5
-22
-41
-1
-6
-3
1
22
-13
-4
-26
13
20
3
0
-12
24
27
40
-9
-22
0
-1
7
-30
-18
-15
4
7
-5
-2
-3
5
24
3
-3
-16
-2
1
4
18
-1
13
-6
3
-3
-6
-4
3
3
-38
-4
1
1
-2
-11
-9
6
4
-2
2
5
0
-3
-3
-19
-19
2
-13
-5
0
10
-10
3
21
1
4
-2
-3
-1
-2
-18
18
7
5
-2
1
2
7
18
18
10
5
-1
-4
-3
4
-19
-35
-2
-16
-1
0
26
42
43
-13
-11
0
-6
0
13
19
-11
37
11
6
8
3
-8
4
-48
-12
-6
-5
-1
1
-13
-28
-1
38
2
6
-1
-5
-14
15
19
-28
-7
-4
-3
-2
14
-13
0
-13
-1
-1
-2
-1
-8
-5
-3
24
-2
11
0
-3
-17
-15
-7
-5
7
0
9
5
8
-3
-12
-1
-22
-26
-19
-8
-2
-12
8
4
1
-7
1
-1
5
19
2
23
1
-1
-6
-5
-7
-6
-13
-20
-3
8
5
3
10
6
-6
11
6
13
6
3
-1
14
40
30
2
-3
1
5
10
-43
-14
-25
-1
1
-3
-3
6
18
4
5
3
-5
-6
-2
0
-4
-7
25
-13
-9
2
1
-2
-5
-9
-38
3
-2
-1
-4
-31
-2
2
8
11
6
9
4
16
-1
-21
8
-5
-8
-7
-2
-15
-30
-10
-13
7
11
3
0
-5
-12
-13
-25
-5
4
-2
-2
1
1
2
32
0
-13
3
1
6
18
61
35
6
-4
-6
-6
-7
-6
-5
-2
0
8
2
3
3
13
9
-15
-1
2
3
2
14
-1
3
11
-4
-10
-7
-4
9
-19
-28
-15
-7
-1
-8
-4
-10
-5
3
15
18
15
6
1
5
15
6
-22
-5
-3
-2
-2
-6
-9
34
7
4
1
-1
3
10
15
-59
-20
-13
-23
-1
0
-2
-5
10
-3
3
27
7
-6
-6
-4
-14
-6
0
-1
0
-1
-24
-13
5
-48
-10
-3
0
-2
9
0
18
1
-1
-4
-3
-3
-11
0
-14
20
-1
0
-2
4
3
2
12
10
2
10
-1
-1
-9
-10
-4
-20
-4
-3
-2
-1
-11
-7
4
7
0
-5
2
-3
-19
3
10
25
-2
-5
-3
-3
0
1
33
-25
-6
10
-2
-1
-7
1
-76
30
9
8
-2
0
9
5
14
-20
-1
2
-2
-5
-19
-9
6
-1
-5
-13
0
-1
-1
-13
6
-3
3
-4
3
-3
-29
-33
-1
-9
-1
4
-3
-1
20
12
-20
19
-1
2
-4
0
0
3
-2
-8
2
1
2
4
-4
-4
-15
-23
6
-2
-2
-2
18
5
-12
39
-2
-3
4
1
-7
4
18
2
1
8
1
-1
12
-5
-23
-43
-7
-9
-9
-4
-8
-11
-8
25
-16
-18
-1
-2
-9
27
-5
-32
-5
0
3
4
28
27
24
49
7
3
3
5
14
15
26
-15
5
10
3
-2
-13
15
-12
5
-4
0
-3
-1
9
-32
4
-5
-7
-29
-6
-3
-12
-11
-3
-8
-1
4
-4
-4
-8
-23
-26
-6
-2
0
3
2
13
15
1
36
4
6
1
1
13
28
37
-43
-7
1
-4
-2
-17
-23
-19
12
6
1
-1
-3
-11
-22
-4
-7
-12
-17
-11
-1
-10
-5
5
13
-2
5
4
0
8
2
-6
10
1
16
2
-3
-21
-5
16
-45
-4
-14
-1
-1
7
16
20
-34
1
2
-4
-7
-3
4
-44
0
6
1
-2
3
2
0
-2
4
-4
-2
-4
-2
-10
-2
18
-10
-5
2
1
1
-9
-26
-4
13
6
0
-1
0
14
0
-15
-27
-4
-12
-2
-1
16
32
7
18
6
5
3
-1
-8
-6
-5
-1
-1
-3
-1
0
2
15
11
-14
-4
9
0
-3
-13
-27
-11
10
-4
-13
0
0
0
-12
-9
16
4
3
0
-1
0
7
-1
-15
-5
-3
-2
-1
-9
-5
-8
-5
-3
-3
-2
2
3
20
9
11
4
3
0
-1
16
3
0
8
3
-7
-1
-1
0
10
14
-16
-9
-1
-5
-1
5
13
-6
16
-4
-2
-2
-4
-14
-21
26
37
3
8
1
1
7
0
8
-42
3
-5
-5
-3
-4
-4
-30
37
-3
3
-1
-2
-6
-5
2
-4
-4
-3
3
1
10
9
10
5
9
6
0
-1
0
-3
10
-33
-12
-12
-3
-4
-10
-15
-11
-14
4
5
4
1
-4
17
14
86
4
-3
-1
2
19
-3
21
-32
1
8
0
0
-9
-6
10
8
0
-10
-4
-2
-10
-9
5
26
-4
-1
2
0
4
-2
-2
-25
6
3
3
2
23
-1
-22
-12
6
-8
-6
-4
-15
-21
-13
40
1
9
4
4
6
0
21
-29
-1
0
-6
-4
-1
-2
20
-9
-17
-6
-4
-4
-15
-22
-38
-6
-8
0
-1
-5
-7
-1
-4
-6
1
-3
2
1
8
12
6
11
5
-1
0
0
-5
-5
-7
-15
-5
5
1
-1
-1
1
-9
16
11
2
5
0
0
3
-1
-40
-11
-15
-5
-2
-10
2
-10
18
2
1
0
1
8
2
-15
25
3
12
1
-1
-16
-22
17
4
-1
-11
-4
1
6
2
16
-6
-4
6
2
-1
-7
10
-21
-13
-5
-4
2
0
14
-13
-11
3
8
-3
-2
0
2
16
-4
-7
-2
-3
0
-1
-8
-5
12
7
1
2
-3
1
6
3
-6
-8
-9
-10
-5
-3
-15
-2
4
-18
-5
-2
-5
-2
-4
2
22
10
2
14
6
1
6
-7
-13
-4
3
-5
-1
-2
-6
-1
4
-22
5
1
-1
1
17
-8
-19
-16
-10
-14
-5
-4
-9
5
-8
-30
-5
-2
-2
0
3
0
1
31
-1
3
2
-1
-4
-8
-6
0
5
17
6
0
-15
10
2
-1
3
-6
1
4
10
-10
3
-22
-8
-7
0
-1
-4
2
12
26
5
3
0
-1
16
-5
10
-19
1
1
-3
-2
-2
17
9
9
4
2
-1
-2
-3
-2
-9
11
-3
-5
0
2
3
27
-8
6
5
4
0
-1
-4
-6
12
5
-1
-4
-3
-3
-3
-10
-13
6
-7
-6
1
-1
-2
-1
12
-27
-5
-2
-5
-2
-5
-26
-45
7
5
2
4
1
14
20
8
28
1
-6
-5
-3
-10
-1
4
2
6
8
3
1
-9
-18
-13
-10
-8
-7
-2
-3
-3
13
15
-20
-6
2
-1
3
30
-5
4
23
-5
-6
-3
-6
-6
-12
-13
-1
3
-1
-1
0
2
11
10
18
-2
-4
0
2
8
1
8
-24
-5
-2
-3
-1
-13
-18
-1
27
-9
-7
0
1
6
11
22
-20
-1
-5
-3
-2
-6
-7
-1
10
6
-1
3
2
2
3
18
1
0
4
-2
-1
-5
0
-6
-14
1
3
3
-1
3
0
1
0
-1
-2
-5
-4
-10
-3
-28
-20
7
4
4
0
-12
-4
27
-43
-3
-4
-1
1
19
26
-17
-6
-8
-2
-1
2
21
-7
-15
-7
11
5
0
-2
-2
6
0
39
-10
-7
-1
-1
4
-10
-5
-17
0
0
-4
-5
-25
-16
0
-12
3
9
3
0
-6
6
-9
-3
-10
-7
-1
0
7
1
-3
8
-1
-1
-6
-6
-10
-12
-14
36
6
-2
-1
-5
-14
-2
-5
-2
2
1
-1
2
3
-1
15
1
1
7
-1
0
-4
-3
2
-23
-3
-4
-1
-3
-16
2
2
5
-3
3
1
-2
0
-6
-4
-5
2
-3
-4
-3
-3
-9
-1
-2
-6
3
3
4
11
-8
-37
3
3
-5
-5
-4
-5
-3
2
2
-1
-1
-1
0
-10
-6
10
11
3
-3
2
2
10
5
6
-39
4
2
-1
-2
-7
1
-21
11
-4
3
2
1
5
0
-4
-21
-6
-8
-3
-1
-1
-3
28
-4
-4
1
0
-1
-9
-4
-11
33
0
-6
-1
-3
1
10
14
3
2
4
3
3
9
21
4
-26
-5
-4
0
-1
-4
1
-33
-38
-7
-5
1
-1
9
3
18
57
0
2
3
1
11
41
16
-30
-1
0
-7
-5
-5
-27
-54
24
5
4
2
2
-1
12
19
-9
-1
-2
-4
-4
-8
-17
-54
-7
0
-7
0
0
3
12
6
9
2
5
-1
-3
-2
7
6
8
-2
-11
-4
-1
1
2
13
-13
-4
6
-1
0
-7
-2
-8
-36
-2
-1
-5
-3
11
-14
34
26
-8
-3
1
0
7
6
-13
15
6
7
3
1
1
-9
9
26
4
-4
0
-4
-10
1
17
-12
2
1
2
1
-2
-9
2
5
0
2
4
-1
-3
-6
21
22
-1
-8
-8
-5
-7
-7
-29
-21
-3
1
-2
1
6
-13
-4
3
-2
1
0
-2
-1
7
-9
4
4
1
1
1
4
-6
7
4
-9
-3
2
1
-1
1
-1
1
-4
-6
-2
-3
-11
-1
10
-10
2
2
-2
-2
-4
-8
-4
-1
0
-1
-4
-2
-1
0
-9
-16
1
2
2
-1
0
-6
-1
9
1
-2
0
1
2
5
8
12
-1
-2
-1
0
-1
-2
7
-11
-1
-3
0
0
1
3
3
-4
-5
3
-3
-4
-3
-4
-3
4
-1
-1
2
1
2
6
3
3
0
1
1
-1
-7
-1
-1
-10
-2
-4
-3
-1
-4
-5
-7
-8
-2
5
0
-1
3
-3
-5
4
-1
-1
-1
-2
-3
5
-1
-4
-7
-5
-4
0
-4
-2
-1
-1
2
1
-1
-1
-3
0
0
1
-2
-2
1
2
1
-1
1
-2
-1
2
0
0
-2
9
3
2
3
3
1
0
-4
-3
-1
-2
0
10
0
-3
-2
-3
-1
1
3
-19
2
2
-2
-1
0
-4
-11
-27
-10
-9
-1
-3
-3
-7
-9
13
0
4
0
-2
-1
-3
-6
-33
-13
0
1
1
0
-2
3
14
17
2
0
-3
2
2
8
5
4
-2
-1
1
0
4
2
-3
1
-7
-3
-2
2
-1
-2
-1
-8
0
3
2
-1
-2
0
17
-12
-4
-1
1
-3
-1
-4
0
8
3
1
3
1
-2
-1
0
-4
-2
-5
-7
-3
-4
-2
-2
0
1
-1
3
1
-4
-1
-7
-5
-4
-1
-3
-2
0
0
2
-9
-3
-3
-2
-3
-1
1
5
8
-4
-3
-3
-3
-4
-4
-10
-18
-2
0
-4
-2
1
-1
12
21
6
1
3
1
2
4
-5
6
-2
-3
-2
1
1
4
-8
-16
0
3
3
2
0
-4
0
-13
-4
-1
-1
-1
-1
-1
25
12
3
1
-1
-3
-5
-2
9
11
-4
-4
-1
-2
-3
0
-28
-10
-3
0
-1
0
1
0
5
25
7
1
0
-2
1
2
-33
-25
-2
-1
-2
1
0
-1
50
15
3
-1
-3
-2
0
-3
-32
-10
-2
-3
-2
0
-3
-3
-1
4
-4
-3
-2
-1
0
4
11
-3
0
-1
1
0
4
6
9
7
-1
0
0
2
-2
-8
-10
-7
3
-1
-1
-1
-6
-15
21
9
-5
-2
-3
-3
-1
3
11
5
2
0
0
0
3
5
-20
-4
2
0
-1
-1
-2
-5
-12
-9
-4
-5
-3
-2
-4
-10
-2
-10
-10
-5
-5
-3
-2
1
16
4
-6
-2
3
0
-2
-6
-57
-35
4
4
-8
0
4
8
87
46
2
-4
6
1
4
1
-81
-19
4
8
-1
0
-1
-9
8
-16
-10
-3
-3
-2
-1
9
32
23
13
1
2
0
2
14
33
5
1
-3
0
3
-3
-17
-67
8
2
1
2
-2
-2
0
5
-6
-3
0
-1
-3
1
-6
-16
-20
3
2
2
-1
-4
-5
23
-3
-5
1
-3
-1
4
19
19
18
6
0
1
1
-1
1
15
8
0
-4
0
-1
-4
-1
5
-10
-12
-2
-5
-4
0
-5
-28
-5
1
-1
-3
0
2
9
38
6
4
-1
1
1
-4
-10
-28
-14
-5
-3
-6
-2
-1
-4
16
5
-3
-3
4
-2
-3
-10
-4
-8
-3
-2
8
-1
1
11
14
13
0
6
-19
-2
-2
-8
-33
-5
12
-2
-2
-1
0
-2
16
0
-5
2
6
0
-1
-3
-27
-11
-1
1
-2
0
-2
1
20
-7
-8
-10
4
-1
-2
3
35
13
-4
-1
-5
-2
0
0
-22
2
6
5
2
1
3
-5
-28
3
5
-1
1
-1
-4
0
37
-14
-10
-4
0
-1
0
-2
-29
-9
-2
0
-3
0
0
3
6
0
0
-2
0
-1
-3
-4
-14
6
-2
0
-2
-4
-1
-1
3
-9
-1
0
3
-1
-3
-10
-32
-3
2
2
0
-1
-1
7
35
7
-6
-6
6
0
-3
-2
-3
-6
-1
3
-15
-4
0
-4
-10
2
-1
-5
-1
0
-1
0
-18
-3
-1
0
2
1
-2
0
-10
-7
-4
-2
-2
0
-3
-3
2
-2
-4
-6
-1
-1
1
9
4
14
2
1
9
2
0
-4
17
-6
-4
-1
-10
-2
-2
-8
-15
-4
-1
4
4
-1
2
6
-1
2
-1
2
2
1
-1
-2
-5
-9
1
1
-2
0
-1
0
22
3
4
1
3
-1
-3
-3
4
3
-4
-5
-6
-1
-1
-5
-42
-10
-1
2
0
-3
2
6
15
11
-1
0
2
1
0
-2
-21
-15
-6
-7
-2
-2
-3
-12
-9
2
-1
-12
-10
-4
1
7
26
15
5
25
7
3
-1
-3
11
-8
-2
-3
16
0
1
3
-36
-2
-1
0
7
0
-2
-3
24
8
-1
-7
-15
-3
-2
0
-16
-7
-6
-12
-1
-2
-1
-2
-4
2
0
2
-12
-2
0
-1
5
-4
-2
1
2
0
1
1
-9
-1
-3
-1
3
0
0
2
11
0
1
-4
-5
-1
-3
-7
-4
0
0
4
-1
-1
0
0
5
0
-2
-3
0
1
1
6
-36
-3
1
2
-1
1
-3
-6
56
12
0
-4
-1
-2
-5
-15
-80
-27
-8
-7
-5
-2
0
5
23
3
2
5
-1
0
0
-3
-10
-5
3
4
2
0
0
1
3
-4
0
1
5
0
-1
0
19
8
-2
-7
-8
-1
-2
-4
-11
3
-4
0
-1
-2
0
-1
0
-12
-4
0
2
-1
0
2
-15
-1
0
-5
0
0
-1
-1
14
4
1
-3
-7
-1
-1
0
-10
-1
3
2
4
-1
-1
4
29
6
3
-1
8
2
-2
-6
-35
-6
-4
-4
-12
-2
1
3
12
6
3
3
-2
0
-3
-3
-4
-10
-7
-1
3
-2
-1
-2
-18
-4
1
2
-6
-1
1
3
11
0
1
-4
0
1
2
0
-3
0
0
1
3
-1
-4
-4
15
11
-5
-8
-6
-2
0
1
-25
2
0
2
0
0
-2
-4
-5
-20
-2
2
1
-1
-2
1
37
7
5
2
-3
-1
0
-3
-28
3
-1
-3
0
2
-3
-2
14
-5
-4
-5
-2
-2
0
4
-1
6
-1
-1
0
0
-1
-1
-15
-5
0
-1
3
-2
0
1
20
1
-1
-2
-2
0
-1
-4
-7
-4
-5
-2
-3
0
0
1
-4
1
3
2
-4
-1
0
-1
7
-4
-2
3
10
0
-1
2
0
4
1
3
1
-1
2
-4
-2
1
0
-3
-2
1
-3
-2
9
1
-6
-7
-3
-2
-1
-1
7
2
-3
-3
-4
-1
0
1
-7
1
4
5
8
0
-1
-5
-17
-8
4
3
-12
-2
0
1
37
9
1
-1
-1
1
-4
-7
-59
-17
-8
-3
7
-2
2
4
34
9
-1
-5
0
0
-3
-6
-30
-9
-4
-4
-2
-3
-1
-1
-5
-4
-2
-2
-4
-2
-1
-2
-8
2
-1
-1
-12
-1
-2
-3
0
-6
-2
3
1
0
-1
3
2
4
2
0
3
1
0
3
7
1
-3
-5
-3
-1
-1
-4
-1
4
2
-5
7
0
-1
-1
-12
-2
0
9
-13
-2
0
1
22
5
1
1
-5
0
-1
0
-12
-3
-3
-2
7
2
0
3
10
0
-3
-3
-7
-4
1
0
-1
0
0
-5
-5
1
0
-4
7
-1
-1
0
9
11
-2
-7
-2
-1
3
5
-4
-44
3
1
2
2
-1
-4
6
9
-2
-1
-2
1
0
-1
7
1
-8
-3
1
-3
3
23
12
-5
6
3
-4
-3
-1
-9
-6
16
-4
2
10
5
1
3
15
3
-1
-3
-7
-3
-1
-4
-22
-11
-4
0
-2
-3
-4
-10
8
9
2
-1
-1
2
2
8
11
-4
15
1
11
1
1
1
-27
-11
-23
0
-5
-6
-3
-8
-12
-3
-4
1
1
-2
-1
-4
2
-6
-12
-1
-2
0
-3
0
8
2
19
0
1
0
-1
-9
-17
8
10
8
0
0
-1
-1
11
0
4
-6
-1
0
-3
-8
-22
-18
-23
-3
-6
0
-2
2
4
25
-12
-5
1
-1
3
10
13
7
-2
-4
-1
-3
2
25
25
-21
47
3
8
-3
-5
-12
-6
-7
-24
-1
-1
0
-5
-9
-10
19
-1
4
-3
0
0
1
-5
-15
1
0
-2
2
-1
-8
-14
7
-15
1
0
-1
-2
-8
3
2
33
-1
-4
5
4
10
15
20
22
2
-3
-7
-2
8
-7
-22
-4
-5
1
-7
-7
-20
-5
20
-4
4
1
2
2
14
5
-21
1
1
-1
-3
-1
-7
-5
-22
-17
-1
4
-3
-5
-9
1
4
19
-4
-2
6
1
-18
-18
12
-18
-3
-8
-6
-2
21
31
20
4
-3
-2
0
1
-6
-9
-23
-15
-5
-5
2
-2
3
-21
60
23
-13
-2
-12
-3
5
-12
-24
-19
1
10
0
2
-1
3
-32
2
3
-5
-4
-3
-7
9
16
3
0
-4
2
4
5
-1
9
16
1
-7
2
-6
-23
9
18
8
2
0
6
4
8
-40
-18
8
10
9
2
0
14
37
7
-4
-2
0
2
4
21
5
-17
0
-2
-3
3
1
-7
16
63
20
3
3
-5
-5
-1
-7
-8
-7
-5
-7
-3
-5
-14
-19
-24
10
-8
-8
-8
-7
-17
-2
-16
6
3
1
10
7
10
-7
68
-13
-4
4
3
-3
-17
4
-45
-22
-5
-7
2
7
18
-2
22
-1
-1
2
3
0
-14
10
-26
25
0
-2
0
1
31
27
31
-74
-11
2
-10
-7
-24
-19
-22
50
18
10
-3
-2
14
-12
-41
-44
-18
-24
-7
-5
-33
-5
-38
-47
-3
-6
-2
-2
-13
-4
-55
16
-3
-3
3
1
4
23
30
-1
-11
-4
-4
-4
13
8
5
1
5
13
1
0
1
-23
-56
-36
-8
-5
-6
1
-1
9
-12
32
10
0
3
-2
-20
-12
45
-42
-18
-14
-10
-9
-21
14
-36
51
27
20
13
7
21
10
109
-31
-34
-36
-23
-10
-28
-12
-79
11
12
26
7
10
92
24
-53
12
-12
-7
4
-7
-39
7
55
10
13
15
6
1
-7
-2
-18
-29
-2
-5
3
4
17
15
4
10
1
-22
-6
-7
-24
7
85
13
6
16
-4
2
-14
-23
28
71
-1
-23
-7
2
50
15
-76
36
10
33
0
-7
-18
-30
22
-55
-11
-14
2
2
10
21
22
59
10
10
12
5
21
-30
37
-33
6
14
8
-1
-49
0
-10
25
1
-3
-6
-3
33
-5
-39
-14
-11
-10
-6
-1
-6
-2
-41
-59
0
5
1
2
13
26
-13
-10
-11
-21
-8
1
16
30
66
-15
-7
6
-3
-8
-41
-50
-94
-19
15
10
1
0
-3
9
38
-14
20
9
8
7
25
-11
-18
-72
-24
-19
-6
-1
-8
25
0
2
13
7
4
0
-13
11
-29
-27
-2
9
3
-1
10
-9
10
-3
-4
-13
-5
-4
-28
15
-43
31
2
5
-8
-4
-10
-27
7
-66
-2
-2
9
5
33
18
124
83
19
13
-9
-5
-62
-61
-61
-52
-23
-2
-4
-1
-3
-12
54
50
0
-22
3
-10
12
-12
-43
-8
2
-11
-2
-1
-16
-21
12
2
4
12
7
1
-12
3
1
4
5
-1
0
5
31
-8
6
-80
7
21
-6
-2
-12
-19
51
55
-7
-17
-3
0
3
-14
-88
2
1
-4
0
-3
-8
17
3
17
-32
-22
-15
-10
-25
-28
-21
-7
3
21
8
6
16
14
-20
24
11
15
5
2
14
39
1
-20
-28
-17
-8
-4
-1
-37
-62
8
6
-10
6
2
22
12
35
-23
1
3
1
0
-8
7
12
-8
-7
4
-2
-1
2
-8
3
15
2
-3
4
1
-8
29
30
-10
-3
-1
6
6
11
17
50
94
13
-4
5
-1
17
-4
46
-19
21
12
3
0
-3
13
16
6
-1
-5
-1
0
-20
4
94
15
-1
-8
-9
-11
-27
-25
-18
-6
-4
-1
0
0
8
10
28
-2
-7
-1
-4
-1
2
-5
24
30
-8
-22
0
-1
-2
-9
11
-30
2
4
-5
-6
-27
29
-9
14
-16
-1
0
2
8
-33
-17
18
13
-8
1
1
11
13
10
-27
-4
10
-5
-2
29
4
-12
-20
3
1
5
-2
-23
-28
-46
-28
0
4
-1
-2
-21
5
2
11
1
-1
6
1
-29
-30
31
-12
-6
-3
-8
-1
40
-10
-66
1
-1
17
-1
-1
1
-9
-26
-24
-14
-5
-4
-4
-27
-4
-18
9
7
-17
-6
-2
10
-7
-4
-2
-10
4
-1
-3
-10
7
18
8
6
2
-1
-5
-20
13
-2
-19
7
7
-1
0
10
-15
-8
1
-16
-11
0
6
15
9
-16
24
-3
-1
-1
-1
-5
8
31
-3
8
5
-1
3
25
-12
-26
-36
-10
-9
-5
-4
-11
20
10
-5
2
3
0
-3
-24
-27
7
-24
2
-3
-2
3
46
41
-24
8
0
2
2
4
11
-25
-6
-13
-3
-16
-9
-4
-6
6
-13
-2
-2
4
-2
-5
-3
-16
1
-12
0
6
2
-2
-16
-21
-13
7
8
3
5
3
-1
6
18
-20
-4
-2
-1
-1
0
-20
8
29
12
7
3
2
25
31
-63
-12
-11
-7
-1
0
-19
-18
14
10
-5
-21
-11
-3
11
16
22
-20
9
11
5
1
-19
-12
-49
-12
-5
12
-1
-1
-8
-1
18
-10
-6
-20
-9
-4
-1
5
0
-5
1
-5
6
1
-1
-5
-10
8
0
-3
-1
1
13
20
20
-32
-11
3
6
2
15
27
2
37
1
11
0
-5
-20
-30
-30
-6
-18
-10
-1
-1
1
36
12
33
8
0
-4
5
40
23
-5
1
-2
-1
-7
-2
-5
-3
1
-4
1
3
-1
-2
-5
-5
26
9
10
7
7
-3
-22
-17
37
25
-15
-7
2
-2
2
18
-50
12
2
0
0
1
5
-15
-15
23
9
-3
1
1
-9
9
19
-65
4
12
-1
1
30
-8
-46
-10
-1
0
0
-3
-7
-7
52
-16
-4
-5
-6
0
-8
-3
-10
-12
2
7
2
0
1
-4
-23
18
-8
-16
-5
-6
-8
-7
3
-4
3
6
-3
-3
-8
-12
4
-7
-16
-17
-1
-3
2
33
30
31
11
2
-4
-1
-22
-13
-17
15
-1
-1
-2
3
30
-11
-11
22
-6
6
0
-1
-11
-19
2
-3
15
10
4
-1
-10
-11
17
-12
-6
-3
-2
-2
-1
-9
-10
33
-3
-10
-4
-2
-6
6
18
27
5
-2
-5
0
-3
-9
-13
-22
-1
9
1
-3
-2
-3
5
9
2
3
3
0
-5
-3
46
-35
0
-10
-4
-1
1
-1
-22
-11
-1
-4
-4
-1
0
-1
11
8
-3
-6
-1
-1
-4
-20
-3
-9
4
8
4
2
4
22
11
1
-9
4
-2
-2
-11
-10
-13
-23
2
-2
-1
-1
3
28
19
11
0
-7
-1
-1
3
-11
0
-6
13
3
-2
-2
4
5
-4
21
2
7
5
2
-16
1
15
-25
-14
-6
-8
-4
6
-35
-50
1
2
6
-1
-2
-6
0
-5
0
-1
-11
-3
-4
1
-5
-4
17
0
2
-1
-2
-4
-2
2
-19
-1
-6
1
-2
-9
17
38
-6
1
0
-1
-2
-5
2
-17
16
2
1
2
4
19
-12
-3
-14
-11
-13
-9
-2
-3
3
6
19
-3
-3
1
0
-10
0
0
7
6
5
-1
-1
10
4
10
-13
-10
-13
-2
-3
-6
-3
-6
-9
-6
-2
-1
-2
-4
0
-19
-13
11
4
3
0
-4
-3
7
25
-3
-4
-1
3
-1
0
-5
5
0
24
0
-3
-4
-1
-11
12
1
-15
2
-2
-5
-1
2
-35
0
0
5
2
3
-16
-21
-14
-5
-8
-1
0
20
8
41
0
0
-3
-2
1
-6
9
-28
12
1
4
3
3
29
-2
-16
7
4
-11
0
-2
-14
-10
1
-15
-15
-10
-5
-2
22
30
-17
-6
6
5
-2
-3
-4
-8
21
1
9
9
0
-3
-11
-4
-26
18
5
0
-2
1
-6
12
3
8
-5
-7
0
1
-3
-35
-22
-44
-9
-1
-4
-3
0
2
4
-10
-6
-3
0
1
0
8
-10
24
-2
-4
2
0
16
44
20
37
9
4
0
-1
-2
-13
-7
-15
-3
0
-5
-5
-2
-1
21
14
-3
-12
-3
0
-6
0
-5
-11
-2
5
-5
-1
3
-11
-7
-10
-3
-2
2
-2
-17
8
22
-34
-5
-4
3
7
24
0
-53
-12
3
1
-4
-2
-2
9
16
-8
1
1
-2
-2
-6
-6
7
-28
-4
5
0
-2
-9
2
-36
19
2
-5
0
2
10
0
6
-14
-4
-3
-1
0
-18
-6
-14
-11
5
5
1
0
8
-10
-7
30
-4
2
-1
-7
-22
-9
21
-1
-3
-13
-4
-2
2
4
-13
6
2
-10
-4
-3
-17
43
8
34
-2
12
-2
0
1
-36
15
-39
0
5
-2
0
0
4
-8
-11
-7
-8
0
-2
-10
0
61
34
4
-2
-2
-1
2
3
-41
-12
-7
-8
-1
-1
-3
-1
-19
8
7
0
-1
1
12
15
3
13
1
1
0
2
-1
13
2
-11
9
12
3
-3
-3
-28
51
-35
-20
-12
-6
-8
-28
-10
-14
25
3
1
-1
0
22
-9
9
48
0
-3
0
2
-8
0
20
-50
-1
4
4
-3
0
3
-22
19
-2
-2
-3
-2
-3
-37
-19
-17
5
2
2
-4
-9
13
1
1
-3
-20
-3
1
3
-4
38
5
3
7
3
1
-2
-10
17
26
3
2
2
2
12
26
19
-45
-10
-3
-3
-1
-6
-9
-1
2
3
1
-6
-5
-7
-4
-26
24
-9
-2
-6
-1
9
-15
-38
-6
4
-3
-3
-3
-5
12
-6
-3
0
1
-3
-2
-2
3
3
10
-13
-4
2
-3
-24
-7
-9
-26
-2
-2
-2
-1
6
7
-16
14
7
5
1
1
16
28
-8
6
5
5
-2
-2
-20
-2
7
-18
-10
-11
0
1
39
-17
-20
7
0
-5
-5
-5
-6
-8
-8
-13
0
-1
1
-1
-6
0
-6
-8
3
8
3
2
2
-4
15
26
6
9
3
-1
-10
5
-8
0
-3
-5
-3
0
6
-7
32
-14
3
0
0
-2
6
-5
-8
5
-5
-3
-2
2
-11
-6
-2
17
7
3
2
2
9
20
2
-17
9
9
3
-2
0
-10
5
-17
-9
-3
-2
-3
-15
2
2
19
1
-8
1
0
-1
1
65
-31
-1
5
0
4
30
18
-35
32
10
11
4
3
-2
-30
1
3
0
-2
-1
-1
0
4
10
6
-6
-16
-5
-1
3
23
14
16
-1
-4
-6
-5
-4
5
-2
-1
3
12
5
0
0
3
6
-14
-10
-2
1
1
-2
-7
-5
0
-5
-3
1
2
9
0
-15
-19
7
3
-1
-5
-24
-14
30
-6
2
-2
-4
0
-5
-10
-9
21
3
5
2
1
1
5
11
4
8
2
0
-3
-3
4
-15
-26
-9
-8
-1
-2
-9
-11
9
36
-6
-7
0
-1
-1
17
43
-61
1
4
-3
-1
6
-12
12
38
-4
-7
-1
2
13
-6
-51
4
6
7
3
-1
-25
-8
-20
4
-7
4
3
3
16
5
14
17
8
10
2
0
-8
-11
-18
-1
0
-13
-8
-6
11
31
-17
-13
-11
-16
-8
-6
-10
-11
3
-16
-12
3
2
0
0
14
-17
17
7
-2
4
3
4
1
2
-33
7
19
0
-3
-12
-22
-33
6
0
-5
-1
1
-4
-15
-20
-4
5
-5
-3
-2
11
21
17
10
-26
-23
-9
-5
-5
-19
-27
-12
-1
0
-5
-2
-7
-11
-3
7
12
6
2
1
1
5
11
-35
-18
-15
-1
-2
-14
4
-11
-9
2
4
4
2
16
6
15
-1
-3
-1
-3
-2
-20
-9
-6
21
5
6
1
0
0
-4
-16
3
5
2
-2
-3
-17
-13
-6
2
2
0
-3
-3
2
-22
-9
-2
-4
-3
-1
-1
0
12
7
-21
-12
2
-1
-1
1
-15
3
-16
-5
-8
-1
2
0
-3
-8
16
6
-1
-5
-3
-12
-9
11
-6
-3
5
0
-2
3
20
27
-15
-14
-10
1
2
3
18
23
16
2
4
1
0
3
-3
-56
-7
-3
-5
-1
-1
-1
13
-13
-75
1
4
1
0
-5
-4
-10
27
6
6
-2
-1
27
22
-5
2
-5
-4
-2
0
5
2
3
9
9
6
1
0
-4
12
23
5
-4
0
3
2
3
0
11
21
-5
-8
1
-2
-12
-14
-8
-6
-5
5
-4
-2
-3
-19
13
29
2
-15
-5
-4
-5
0
-24
29
2
0
-1
-2
-9
-10
3
-44
-7
-8
-1
-3
-4
8
2
16
5
-7
0
0
-4
-17
-21
-9
1
4
-3
0
-9
14
22
28
-4
-10
-2
0
10
-8
-16
-19
5
7
1
0
-3
2
-15
14
5
1
2
2
7
7
12
-10
-8
-15
-5
0
1
6
5
-5
-1
13
1
-2
-9
-11
-10
0
5
-1
4
2
0
7
-2
8
3
-4
-2
-3
3
2
20
-45
-6
0
1
2
1
-7
-13
11
-2
-4
0
2
6
5
5
5
-5
3
-4
0
-7
-6
14
-35
1
-1
-1
-2
3
20
-25
-5
-6
4
6
5
-2
-8
-26
16
2
0
1
-1
5
-1
24
-15
0
5
-3
-2
6
-11
-6
5
0
-10
-4
-6
-12
-11
2
8
-1
6
0
-5
-13
9
17
15
0
1
1
2
13
-2
-11
-34
-1
0
0
0
-1
-9
-4
10
0
-3
-4
-3
-9
-18
18
21
4
3
2
2
22
30
1
-10
-5
-3
-1
-3
-7
-8
-2
12
3
0
0
-3
-5
3
14
-4
-5
4
5
0
-2
-10
-3
15
-11
-11
-4
-2
3
-4
-14
-1
8
0
-4
-2
-6
-2
-15
21
3
-1
2
0
1
12
13
-17
-9
-5
-5
-4
4
1
-20
-8
7
9
2
-1
-11
-7
10
-16
-5
-4
-5
-2
-3
-6
8
10
0
-2
1
0
-3
-8
32
-8
0
5
1
2
9
7
-6
8
2
6
1
-3
2
1
7
2
1
-5
-2
0
-5
-6
-7
-9
3
-5
-2
0
1
3
8
20
-3
8
5
0
-2
-2
15
-15
2
-13
-8
-7
-6
-9
18
-23
-1
1
-1
0
1
5
-29
-11
-11
-4
-2
-3
-10
-3
-14
38
-3
-18
-4
-2
-2
3
22
8
2
8
1
-1
-10
-2
-20
6
0
1
2
-1
0
-13
7
-20
-3
0
-1
1
4
3
7
-7
1
4
0
4
13
20
34
5
-6
-4
0
0
6
-8
-23
-39
3
0
1
-1
-7
1
2
8
4
3
-1
0
0
-4
-9
-21
-2
2
-2
-3
-9
1
-5
5
-2
-5
0
0
1
8
23
-6
-1
-3
-2
-1
2
7
3
23
-3
-1
-3
-1
2
-6
-38
-8
5
4
1
-1
1
4
-1
3
2
13
2
0
0
0
5
8
-10
-13
-4
-3
0
3
-3
-1
-3
-11
-7
-5
-10
-7
2
3
1
-2
-4
-1
-6
-23
-15
-16
2
5
-2
-2
-6
-9
-7
14
6
4
4
0
-9
-2
2
-8
-2
-3
4
2
7
27
48
52
5
-3
-5
0
-2
-4
16
-11
-12
-9
-4
-2
1
1
-10
1
2
14
3
-3
-9
-6
10
20
2
0
0
-3
-4
-6
-21
19
8
-1
-1
-1
-1
2
10
-22
4
1
2
1
3
3
7
16
-12
-14
-5
1
3
6
2
-18
-5
6
1
0
4
0
-14
-12
2
1
3
-2
-1
1
-8
12
2
0
-2
-1
-5
-4
-3
-18
9
12
4
1
3
11
10
-4
-15
-13
-2
4
4
-14
0
-14
-5
-1
-4
-2
1
1
4
15
4
3
0
0
-3
1
18
-9
-6
-5
-4
-2
0
-2
-10
15
2
0
-1
-2
-2
-1
-1
-17
-6
-5
0
-1
-5
5
-7
-6
-6
-7
-1
-2
3
-3
1
20
5
3
-1
0
5
14
8
-11
-2
-1
-2
-2
1
1
-12
-16
-6
-1
0
1
-3
-8
-16
2
5
2
1
-1
1
5
-4
-1
-3
-2
-2
-2
-5
-8
-3
-26
-2
0
-4
-3
-7
-5
-25
-6
0
6
2
-2
-3
1
7
7
-3
-3
-1
2
0
0
2
0
1
-1
0
2
3
-2
-3
6
0
5
0
-2
0
-2
1
-1
-4
-2
-1
-3
-1
-2
-4
-4
-4
1
-2
-1
-2
0
-2
-5
-4
-8
0
1
4
0
-2
5
4
2
-4
-2
-4
-3
-5
-6
-3
-13
-4
-1
-2
1
-5
1
-1
-10
-2
-1
-2
-1
-2
-2
-3
12
-5
-3
-1
-4
-4
6
2
-7
0
-1
0
-2
2
-7
-3
7
12
-6
-5
0
-5
-3
-1
8
-14
2
2
-1
-3
0
-6
-31
0
-2
1
-2
2
0
4
23
17
-4
-4
0
-1
-6
-1
3
-20
2
2
2
-3
-1
-1
8
-12
-4
0
-1
-2
-3
-9
-39
-14
-3
-4
-4
-1
4
1
2
15
3
-1
0
-2
-1
2
3
9
2
2
1
-3
0
1
5
5
-1
0
2
1
1
2
15
-10
0
-1
-1
0
1
-4
-18
-14
-8
-3
-1
1
0
3
7
-2
-1
-2
-2
-1
-2
0
6
16
0
0
-2
-1
-1
5
5
1
3
0
-1
0
1
-2
-11
-7
0
-1
-1
-3
-2
-1
-9
-17
-3
0
0
-2
-1
0
-2
3
-5
-2
1
-1
0
0
10
18
5
1
-3
0
0
-7
-1
-8
-4
2
-1
-1
-2
0
11
-2
-4
-2
-2
-1
-2
0
-4
5
-1
-3
-2
-1
-1
3
11
-5
-1
-1
-1
-1
3
-5
-4
8
3
2
3
1
-3
-5
-49
-17
1
-2
-1
-3
-1
-5
3
-3
0
-1
-1
-1
0
3
12
-2
-5
0
-2
0
0
6
16
11
5
0
-2
0
0
-2
25
14
-5
-2
-1
-2
0
-1
-19
-5
-8
-3
-1
0
-2
-7
-25
-18
2
-1
-1
-2
0
1
-16
-26
0
-2
-2
-2
-3
-2
0
30
1
-2
-2
0
-1
2
36
-4
5
3
0
0
2
3
-26
24
4
2
3
2
-4
-9
8
-19
-8
-1
-3
-4
1
5
-1
11
1
-1
7
0
-3
-6
-45
-3
-5
-2
-8
-3
-3
-2
25
-16
0
-1
-1
-2
2
10
19
40
8
0
2
1
3
1
2
-39
12
4
2
-1
0
1
15
25
-6
1
4
0
-1
2
-8
9
5
1
1
3
5
13
13
-1
3
-1
-2
0
-9
-18
7
-7
-11
-7
-8
-5
-4
-6
-54
-22
-7
-6
-5
-3
-1
1
-29
-1
-1
2
-2
-3
-7
-18
19
-10
-7
-2
0
-3
6
14
26
11
6
7
3
5
4
5
-81
-5
8
2
1
2
-8
-10
112
-8
-23
-14
-7
-7
-7
-7
-93
-33
-16
-5
0
-2
0
-7
22
9
4
2
-2
-1
0
-2
35
1
-1
1
0
-1
4
11
9
18
7
6
7
3
4
8
32
4
3
-1
-4
1
-4
-4
-23
-5
-2
-1
-1
-2
1
4
9
2
2
-2
-1
-1
0
-9
-21
-7
-5
-6
-4
-1
-2
-5
-11
-5
1
2
-1
-2
-1
7
3
10
0
0
0
0
0
-1
3
1
0
0
0
0
1
4
-23
-1
-2
-4
1
1
-5
-10
25
-5
-4
-8
-5
-3
-1
-4
-37
-16
-4
0
-3
-1
-2
-8
6
3
5
2
4
-3
-5
-16
-31
-15
-6
-2
0
-3
1
7
4
5
8
4
0
-1
1
4
-5
2
1
-3
0
2
-2
-2
41
-7
-8
-4
-5
-1
-2
4
-22
-2
-2
0
-4
0
0
2
1
12
-1
0
0
1
-1
-1
4
2
3
-2
2
1
-3
-6
2
-5
-2
-2
0
-3
1
1
-5
8
2
-1
0
0
1
1
12
0
0
0
-2
0
-2
-7
4
-5
-8
-3
2
-2
2
7
-1
4
7
2
2
0
-1
-4
-2
-5
-7
-4
-4
-1
0
0
7
10
4
2
7
0
2
3
-5
2
4
2
-6
-1
-3
0
26
4
-2
-5
-4
-3
-1
-2
-36
-14
-1
1
5
-1
0
2
-21
-3
-4
-2
0
0
-1
1
12
18
3
-3
-2
0
2
0
13
1
-1
1
9
0
1
1
-8
1
6
7
-9
0
0
1
-2
-9
-2
-2
0
-1
-2
-5
-34
-11
-6
-3
-3
-3
-2
0
16
4
-2
-4
-7
1
-2
-3
16
-4
-1
1
12
1
1
3
-7
5
4
4
-6
0
0
-2
4
-7
-2
0
5
-1
-3
-8
-4
-1
0
1
-6
-1
0
3
23
1
0
-2
-1
0
-2
-2
-35
-5
-4
-2
0
-2
-1
3
24
0
0
-3
-5
0
-1
2
-35
-1
-3
-2
2
1
0
-1
14
3
3
4
1
1
-2
-8
-3
-7
-3
-2
0
-2
0
3
-8
-2
-1
0
-3
0
-1
-4
-9
-5
-1
-1
-1
-1
-2
-2
-2
1
-2
-2
-3
-2
1
3
18
4
5
0
3
-1
-2
-1
-2
-3
-3
-3
-2
0
1
-1
7
-3
0
3
2
-1
-2
0
-9
2
-1
-4
-3
-2
-2
-4
9
-1
-4
0
-4
-2
-1
0
3
-3
-2
-1
4
0
-2
0
2
-5
-3
2
-1
-2
0
3
7
6
-2
-2
-2
0
1
2
-12
-2
2
-2
1
0
-2
-2
15
3
1
1
3
0
0
-1
-8
-2
0
0
0
2
1
-2
-7
-1
-2
-1
0
0
-2
-4
19
1
-3
-4
0
-1
-1
-3
-10
-4
-4
1
-1
0
-1
4
8
3
3
0
4
-1
-2
-6
1
-12
2
2
-3
-1
2
-2
-4
6
0
0
3
0
-2
0
7
-1
-2
0
-1
-2
-2
0
-4
2
0
0
2
0
-2
0
3
0
-6
-4
-9
-1
1
-1
-6
-2
1
1
2
0
-2
-2
3
-3
1
0
-5
-1
-1
-3
-12
0
-2
-4
-3
-1
-2
-3
0
1
2
0
4
0
-2
-5
-17
-5
-2
-2
-1
-1
0
2
12
1
-2
0
1
-1
-1
0
-3
-8
1
-2
-4
-1
0
-2
-8
-2
-3
-1
-2
-1
-3
0
11
-1
-2
-2
-6
-2
0
0
-12
0
0
-4
-4
-1
-1
-8
-10
-2
-2
-2
3
0
-1
3
12
3
-1
1
7
1
-1
-1
-18
-3
2
-1
-5
-1
1
0
22
-2
-7
-3
1
-2
-2
0
-26
0
2
5
3
0
1
4
12
10
3
-2
-1
0
0
-2
-7
-1
-1
-1
1
-1
-1
-1
10
2
1
-2
-4
-1
-2
-3
-3
0
-1
-1
-3
-1
-1
1
2
-3
0
1
5
0
-2
-1
13
0
-3
-3
-7
-1
-1
-2
-16
-4
-2
2
-1
-1
2
-3
2
-4
-4
-3
-1
0
-1
-2
-6
1
0
0
-2
-3