-0.5131584277749917
-0.026915495937239093
-0.5501614456275954
-0.5131584277749917
-0.026915495937239093
-0.5501614456275954
-0.5131584277749917
-0.026915495937239093
-0.5501614456275954
-0.5131584277749917
-0.026915495937239093
-0.5501614456275954
-0.514034383876062
-0.025128006822425764
-0.5498905640517566
-0.514034383876062
-0.025128006822425764
-0.5498905640517566
-0.514034383876062
-0.025128006822425764
-0.5498905640517566
-0.514034383876062
-0.025128006822425764
-0.5498905640517566
-0.5160568092102883
-0.022985581284537253
-0.5495270044250684
-0.5160568092102883
-0.022985581284537253
-0.5495270044250684
-0.5160568092102883
-0.022985581284537253
-0.5495270044250684
-0.5160568092102883
-0.022985581284537253
-0.5495270044250684
-0.5175104036501347
-0.02089397819377967
-0.5489698692357137
-0.5175104036501347
-0.02089397819377967
-0.5489698692357137
-0.5175104036501347
-0.02089397819377967
-0.5489698692357137
-0.5175104036501347
-0.02089397819377967
-0.5489698692357137
-0.5190016536235008
-0.01921369489951331
-0.5484620473340814
-0.5190016536235008
-0.01921369489951331
-0.5484620473340814
-0.5190016536235008
-0.01921369489951331
-0.5484620473340814
-0.5190016536235008
-0.01921369489951331
-0.5484620473340814
-0.520736362047963
-0.018091598712029967
-0.5478399820879332
-0.520736362047963
-0.018091598712029967
-0.5478399820879332
-0.520736362047963
-0.018091598712029967
-0.5478399820879332
-0.520736362047963
-0.018091598712029967
-0.5478399820879332
-0.521262515010545
-0.017428868719845385
-0.5472478745666165
-0.521262515010545
-0.017428868719845385
-0.5472478745666165
-0.521262515010545
-0.017428868719845385
-0.5472478745666165
-0.521262515010545
-0.017428868719845385
-0.5472478745666165
-0.5208362815636439
-0.01742241598878893
-0.5466985015177235
-0.5208362815636439
-0.01742241598878893
-0.5466985015177235
-0.5208362815636439
-0.01742241598878893
-0.5466985015177235
-0.5208362815636439
-0.01742241598878893
-0.5466985015177235
-0.5205537516176444
-0.017889684898323127
-0.5462991727005713
-0.5205537516176444
-0.017889684898323127
-0.5462991727005713
-0.5205537516176444
-0.017889684898323127
-0.5462991727005713
-0.5205537516176444
-0.017889684898323127
-0.5462991727005713
-0.5205904666432386
-0.018535339113782925
-0.54572777506643
-0.5205904666432386
-0.018535339113782925
-0.54572777506643
-0.5205904666432386
-0.018535339113782925
-0.54572777506643
-0.5205904666432386
-0.018535339113782925
-0.54572777506643
-0.5206685634737342
-0.019037316196596474
-0.5450726277150332
-0.5206685634737342
-0.019037316196596474
-0.5450726277150332
-0.5206685634737342
-0.019037316196596474
-0.5450726277150332
-0.5206685634737342
-0.019037316196596474
-0.5450726277150332
-0.5212136714102138
-0.019401514262314144
-0.5448826643679484
-0.5212136714102138
-0.019401514262314144
-0.5448826643679484
-0.5212136714102138
-0.019401514262314144
-0.5448826643679484
-0.5212136714102138
-0.019401514262314144
-0.5448826643679484
-0.521479616430559
-0.019776855299689557
-0.5445365480559926
-0.521479616430559
-0.019776855299689557
-0.5445365480559926
-0.521479616430559
-0.019776855299689557
-0.5445365480559926
-0.521479616430559
-0.019776855299689557
-0.5445365480559926
-0.5214700274559363
-0.019806849321881613
-0.5446502471687311
-0.5214700274559363
-0.019806849321881613
-0.5446502471687311
-0.5214700274559363
-0.019806849321881613
-0.5446502471687311
-0.5214700274559363
-0.019806849321881613
-0.5446502471687311
-0.5213563284312861
-0.019775426593677488
-0.5446598360552655
-0.5213563284312861
-0.019775426593677488
-0.5446598360552655
-0.5213563284312861
-0.019775426593677488
-0.5446598360552655
-0.5213563284312861
-0.019775426593677488
-0.5446598360552655
-0.5227269427880512
-0.019503847407005236
-0.544178468803744
-0.5227269427880512
-0.019503847407005236
-0.544178468803744
-0.5227269427880512
-0.019503847407005236
-0.544178468803744
-0.5227269427880512
-0.019503847407005236
-0.544178468803744
-0.5245122526171822
-0.01916834239469742
-0.5439877541167825
-0.5245122526171822
-0.01916834239469742
-0.5439877541167825
-0.5245122526171822
-0.01916834239469742
-0.5439877541167825
-0.5245122526171822
-0.01916834239469742
-0.5439877541167825
-0.5259675719917353
-0.019017678135440755
-0.5438385451728485
-0.5259675719917353
-0.019017678135440755
-0.5438385451728485
-0.5259675719917353
-0.019017678135440755
-0.5438385451728485
-0.5259675719917353
-0.019017678135440755
-0.5438385451728485
-0.5257509951196675
-0.01880147501622559
-0.5437429923447814
-0.5257509951196675
-0.01880147501622559
-0.5437429923447814
-0.5257509951196675
-0.01880147501622559
-0.5437429923447814
-0.5257509951196675
-0.01880147501622559
-0.5437429923447814
-0.5246263485308511
-0.018211146358077142
-0.5437226695629825
-0.5246263485308511
-0.018211146358077142
-0.5437226695629825
-0.5246263485308511
-0.018211146358077142
-0.5437226695629825
-0.5246263485308511
-0.018211146358077142
-0.5437226695629825
-0.5241641257315426
-0.01743680235563123
-0.5437447808904453
-0.5241641257315426
-0.01743680235563123
-0.5437447808904453
-0.5241641257315426
-0.01743680235563123
-0.5437447808904453
-0.5241641257315426
-0.01743680235563123
-0.5437447808904453
-0.5245667989912897
-0.016438265019904565
-0.5435224106063192
-0.5245667989912897
-0.016438265019904565
-0.5435224106063192
-0.5245667989912897
-0.016438265019904565
-0.5435224106063192
-0.5245667989912897
-0.016438265019904565
-0.5435224106063192
-0.5247311646475524
-0.0157397266955253
-0.5431876359111406
-0.5247311646475524
-0.0157397266955253
-0.5431876359111406
-0.5247311646475524
-0.0157397266955253
-0.5431876359111406
-0.5247311646475524
-0.0157397266955253
-0.5431876359111406
-0.5240171657976781
-0.014886248517566165
-0.5427116585319673
-0.5240171657976781
-0.014886248517566165
-0.5427116585319673
-0.5240171657976781
-0.014886248517566165
-0.5427116585319673
-0.5240171657976781
-0.014886248517566165
-0.5427116585319673
-0.5238910251300284
-0.013796616801291333
-0.5422064319837001
-0.5238910251300284
-0.013796616801291333
-0.5422064319837001
-0.5238910251300284
-0.013796616801291333
-0.5422064319837001
-0.5238910251300284
-0.013796616801291333
-0.5422064319837001
-0.5236702854560783
-0.013048036978848097
-0.5416103302085554
-0.5236702854560783
-0.013048036978848097
-0.5416103302085554
-0.5236792606305948
-0.01246211885072858
-0.5413681305067707
-0.5236792606305948
-0.01246211885072858
-0.5413681305067707
-0.5236792606305948
-0.01246211885072858
-0.5413681305067707
-0.5236792606305948
-0.01246211885072858
-0.5413681305067707
-0.5236792606305948
-0.01246211885072858
-0.5413681305067707
-0.5236792606305948
-0.01246211885072858
-0.5413681305067707
-0.5240400510030031
-0.01216268951997952
-0.5413582940668434
-0.5240400510030031
-0.01216268951997952
-0.5413582940668434
-0.5240400510030031
-0.01216268951997952
-0.5413582940668434
-0.5240400510030031
-0.01216268951997952
-0.5413582940668434
-0.5246657265658715
-0.011681859792439239
-0.5408746183172627
-0.5246657265658715
-0.011681859792439239
-0.5408746183172627
-0.5246657265658715
-0.011681859792439239
-0.5408746183172627
-0.5246657265658715
-0.011681859792439239
-0.5408746183172627
-0.525509384576479
-0.011293689980163597
-0.5404866995853997
-0.525509384576479
-0.011293689980163597
-0.5404866995853997
-0.525509384576479
-0.011293689980163597
-0.5404866995853997
-0.525509384576479
-0.011293689980163597
-0.5404866995853997
-0.5260019220502563
-0.010964538005727735
-0.5402409253135363
-0.5260019220502563
-0.010964538005727735
-0.5402409253135363
-0.5260019220502563
-0.010964538005727735
-0.5402409253135363
-0.5260019220502563
-0.010964538005727735
-0.5402409253135363
-0.5262153018994226
-0.010524106289944905
-0.5398372303025712
-0.5262153018994226
-0.010524106289944905
-0.5398372303025712
-0.5262153018994226
-0.010524106289944905
-0.5398372303025712
-0.5262153018994226
-0.010524106289944905
-0.5398372303025712
-0.5261063789850308
-0.009806292686031977
-0.5392326089638723
-0.5261063789850308
-0.009806292686031977
-0.5392326089638723
-0.5261063789850308
-0.009806292686031977
-0.5392326089638723
-0.5261063789850308
-0.009806292686031977
-0.5392326089638723
-0.5262458419713141
-0.009190423024713339
-0.5387548767948285
-0.5262458419713141
-0.009190423024713339
-0.5387548767948285
-0.5262458419713141
-0.009190423024713339
-0.5387548767948285
-0.5262458419713141
-0.009190423024713339
-0.5387548767948285
-0.5264362632596075
-0.00883300743653561
-0.5382073246947545
-0.5264362632596075
-0.00883300743653561
-0.5382073246947545
-0.5264362632596075
-0.00883300743653561
-0.5382073246947545
-0.5264362632596075
-0.00883300743653561
-0.5382073246947545
-0.5263374797311203
-0.008517889001080694
-0.5376160165408039
-0.5263374797311203
-0.008517889001080694
-0.5376160165408039
-0.5263374797311203
-0.008517889001080694
-0.5376160165408039
-0.5263374797311203
-0.008517889001080694
-0.5376160165408039
-0.5260936895203774
-0.00828537864312614
-0.5370031179708554
-0.5260936895203774
-0.00828537864312614
-0.5370031179708554
-0.5260936895203774
-0.00828537864312614
-0.5370031179708554
-0.5260936895203774
-0.00828537864312614
-0.5370031179708554
-0.5265280577195242
-0.008051623973624529
-0.5362111346004069
-0.5265280577195242
-0.008051623973624529
-0.5362111346004069
-0.5270765072991122
-0.007726005011429417
-0.5354097924076392
-0.5270765072991122
-0.007726005011429417
-0.5354097924076392
-0.5270765072991122
-0.007726005011429417
-0.5354097924076392
-0.5270765072991122
-0.007726005011429417
-0.5354097924076392
-0.5273707961519702
-0.007429641891238819
-0.53496740239341
-0.5273707961519702
-0.007429641891238819
-0.53496740239341
-0.5273707961519702
-0.007429641891238819
-0.53496740239341
-0.5273707961519702
-0.007429641891238819
-0.53496740239341
-0.5280805811443625
-0.007191384446548598
-0.5348186873504265
-0.5280805811443625
-0.007191384446548598
-0.5348186873504265
-0.5280805811443625
-0.007191384446548598
-0.5348186873504265
-0.5280805811443625
-0.007191384446548598
-0.5348186873504265
-0.5289981055190663
-0.007653917659365428
-0.5346350000962831
-0.5289981055190663
-0.007653917659365428
-0.5346350000962831
-0.5289981055190663
-0.007653917659365428
-0.5346350000962831
-0.5289981055190663
-0.007653917659365428
-0.5346350000962831
-0.5280426338910884
-0.008114707041829884
-0.5339260513748803
-0.5280426338910884
-0.008114707041829884
-0.5339260513748803
-0.5280426338910884
-0.008114707041829884
-0.5339260513748803
-0.5280426338910884
-0.008114707041829884
-0.5339260513748803
-0.5270757284351639
-0.008050956855612895
-0.5332039112421624
-0.5270757284351639
-0.008050956855612895
-0.5332039112421624
-0.5270757284351639
-0.008050956855612895
-0.5332039112421624
-0.5270757284351639
-0.008050956855612895
-0.5332039112421624
-0.5256402767666732
-0.008025503121279321
-0.533116648363813
-0.5256402767666732
-0.008025503121279321
-0.533116648363813
-0.5256402767666732
-0.008025503121279321
-0.533116648363813
-0.5256402767666732
-0.008025503121279321
-0.533116648363813
-0.5248645595065493
-0.008289225199818737
-0.5339359039807975
-0.5248645595065493
-0.008289225199818737
-0.5339359039807975
-0.5248645595065493
-0.008289225199818737
-0.5339359039807975
-0.5248645595065493
-0.008289225199818737
-0.5339359039807975
-0.525374891710825
-0.008669633644539173
-0.5353061489750816
-0.525374891710825
-0.008669633644539173
-0.5353061489750816
-0.525374891710825
-0.008669633644539173
-0.5353061489750816
-0.525374891710825
-0.008669633644539173
-0.5353061489750816
-0.525708786567973
-0.008235843083238423
-0.5367407903936453
-0.525708786567973
-0.008235843083238423
-0.5367407903936453
-0.525708786567973
-0.008235843083238423
-0.5367407903936453
-0.525708786567973
-0.008235843083238423
-0.5367407903936453
-0.5265012333731381
-0.007261826629886776
-0.5386304647222481
-0.5265012333731381
-0.007261826629886776
-0.5386304647222481
-0.5265012333731381
-0.007261826629886776
-0.5386304647222481
-0.5265012333731381
-0.007261826629886776
-0.5386304647222481
-0.5281871893827401
-0.006513699374709763
-0.5409243105053357
-0.5281871893827401
-0.006513699374709763
-0.5409243105053357
-0.5281871893827401
-0.006513699374709763
-0.5409243105053357
-0.5281871893827401
-0.006513699374709763
-0.5409243105053357
-0.529742486805767
-0.004852185364646472
-0.5467524174780221
-0.529742486805767
-0.004852185364646472
-0.5467524174780221
-0.529742486805767
-0.004852185364646472
-0.5467524174780221
-0.529742486805767
-0.004852185364646472
-0.5467524174780221
-0.5309479568231719
-7.21421142519694E-4
-0.561233868338868
-0.5309479568231719
-7.21421142519694E-4
-0.561233868338868
-0.5309479568231719
-7.21421142519694E-4
-0.561233868338868
-0.5309479568231719
-7.21421142519694E-4
-0.561233868338868
-0.5413935371886442
0.00696625061774512
-0.5836090831598816
-0.5413935371886442
0.00696625061774512
-0.5836090831598816
-0.5413935371886442
0.00696625061774512
-0.5836090831598816
-0.5413935371886442
0.00696625061774512
-0.5836090831598816
-0.5756674507311662
0.017673599634575436
-0.613181961218634
-0.5756674507311662
0.017673599634575436
-0.613181961218634
-0.5756674507311662
0.017673599634575436
-0.613181961218634
-0.5756674507311662
0.017673599634575436
-0.613181961218634
-0.633703678791044
0.0254010921477847
-0.6478083274128306
-0.633703678791044
0.0254010921477847
-0.6478083274128306
-0.633703678791044
0.0254010921477847
-0.6478083274128306
-0.633703678791044
0.0254010921477847
-0.6478083274128306
-0.6996663703266066
0.02362670926571232
-0.6750522285052635
-0.6996663703266066
0.02362670926571232
-0.6750522285052635
-0.6996663703266066
0.02362670926571232
-0.6750522285052635
-0.6996663703266066
0.02362670926571232
-0.6750522285052635
-0.7385847939961391
0.015414145257516295
-0.6835783682977328
-0.7385847939961391
0.015414145257516295
-0.6835783682977328
-0.7385847939961391
0.015414145257516295
-0.6835783682977328
-0.7385847939961391
0.015414145257516295
-0.6835783682977328
-0.7414288991088459
0.004932364430649418
-0.6800446723688088
-0.7414288991088459
0.004932364430649418
-0.6800446723688088
-0.7414288991088459
0.004932364430649418
-0.6800446723688088
-0.7414288991088459
0.004932364430649418
-0.6800446723688088
-0.7208729448036831
0.008128976367179052
-0.6705339271409965
-0.7208729448036831
0.008128976367179052
-0.6705339271409965
-0.7208729448036831
0.008128976367179052
-0.6705339271409965
-0.7208729448036831
0.008128976367179052
-0.6705339271409965
-0.6908967623487936
0.026140582254010777
-0.663781822372097
-0.6908967623487936
0.026140582254010777
-0.663781822372097
-0.6908967623487936
0.026140582254010777
-0.663781822372097
-0.6908967623487936
0.026140582254010777
-0.663781822372097
-0.6877063876534599
0.05435618488206759
-0.6550120765510785
-0.6877063876534599
0.05435618488206759
-0.6550120765510785
-0.6877063876534599
0.05435618488206759
-0.6550120765510785
-0.6877063876534599
0.05435618488206759
-0.6550120765510785
-0.6981429555741251
0.08201292540941522
-0.6484936126342769
-0.6981429555741251
0.08201292540941522
-0.6484936126342769
-0.6981429555741251
0.08201292540941522
-0.6484936126342769
-0.6981429555741251
0.08201292540941522
-0.6484936126342769
-0.7107594387203809
0.09244207695426221
-0.6458062413700523
-0.7107594387203809
0.09244207695426221
-0.6458062413700523
-0.7107594387203809
0.09244207695426221
-0.6458062413700523
-0.7107594387203809
0.09244207695426221
-0.6458062413700523
-0.7158048512241092
0.09030555411710703
-0.6461091650758094
-0.7158048512241092
0.09030555411710703
-0.6461091650758094
-0.7158048512241092
0.09030555411710703
-0.6461091650758094
-0.7158048512241092
0.09030555411710703
-0.6461091650758094
-0.713807085431443
0.0852747486666727
-0.6472353639029857
-0.713807085431443
0.0852747486666727
-0.6472353639029857
-0.713807085431443
0.0852747486666727
-0.6472353639029857
-0.713807085431443
0.0852747486666727
-0.6472353639029857
-0.7083065839922891
0.08530617040141984
-0.6478326408259685
-0.7083065839922891
0.08530617040141984
-0.6478326408259685
-0.7083065839922891
0.08530617040141984
-0.6478326408259685
-0.7083065839922891
0.08530617040141984
-0.6478326408259685
-0.7058399745036483
0.09293219006637125
-0.6488460615286693
-0.7058399745036483
0.09293219006637125
-0.6488460615286693
-0.7058399745036483
0.09293219006637125
-0.6488460615286693
-0.7058399745036483
0.09293219006637125
-0.6488460615286693
-0.7070758942180959
0.0971663169332998
-0.6490265560812516
-0.7070758942180959
0.0971663169332998
-0.6490265560812516
-0.7070758942180959
0.0971663169332998
-0.6490265560812516
-0.7070758942180959
0.0971663169332998
-0.6490265560812516
-0.7091935515329248
0.09371314148617703
-0.6494192266228956
-0.7091935515329248
0.09371314148617703
-0.6494192266228956
-0.7091935515329248
0.09371314148617703
-0.6494192266228956
-0.7091935515329248
0.09371314148617703
-0.6494192266228956
-0.7085036526521397
0.08879666056232298
-0.6522216977145713
-0.7085036526521397
0.08879666056232298
-0.6522216977145713
-0.7085036526521397
0.08879666056232298
-0.6522216977145713
-0.7085036526521397
0.08879666056232298
-0.6522216977145713
-0.708544272430349
0.08675586837551083
-0.6559587245859411
-0.708544272430349
0.08675586837551083
-0.6559587245859411
-0.708544272430349
0.08675586837551083
-0.6559587245859411
-0.708544272430349
0.08675586837551083
-0.6559587245859411
-0.7089091825960511
0.08586253209534382
-0.6600526700418811
-0.7089091825960511
0.08586253209534382
-0.6600526700418811
-0.7089091825960511
0.08586253209534382
-0.6600526700418811
-0.7089091825960511
0.08586253209534382
-0.6600526700418811
-0.7078786090272515
0.08398663842209918
-0.663553492107101
-0.7078786090272515
0.08398663842209918
-0.663553492107101
-0.7078786090272515
0.08398663842209918
-0.663553492107101
-0.7078786090272515
0.08398663842209918
-0.663553492107101
-0.7087171406504689
0.08112049010286411
-0.6657433079474923
-0.7087171406504689
0.08112049010286411
-0.6657433079474923
-0.7087171406504689
0.08112049010286411
-0.6657433079474923
-0.7087171406504689
0.08112049010286411
-0.6657433079474923
-0.7096511138072656
0.078564904105058
-0.6669793230064931
-0.7096511138072656
0.078564904105058
-0.6669793230064931
-0.7096511138072656
0.078564904105058
-0.6669793230064931
-0.7096511138072656
0.078564904105058
-0.6669793230064931
-0.7077564312606975
0.07679760221308408
-0.6675194651052951
-0.7077564312606975
0.07679760221308408
-0.6675194651052951
-0.7077564312606975
0.07679760221308408
-0.6675194651052951
-0.7077564312606975
0.07679760221308408
-0.6675194651052951
-0.7051490193343745
0.07733249028538178
-0.6672756503708297
-0.7051490193343745
0.07733249028538178
-0.6672756503708297
-0.7051490193343745
0.07733249028538178
-0.6672756503708297
-0.7051490193343745
0.07733249028538178
-0.6672756503708297
-0.7010399566301493
0.07896429229007204
-0.6669556869698546
-0.7010399566301493
0.07896429229007204
-0.6669556869698546
-0.7010399566301493
0.07896429229007204
-0.6669556869698546
-0.7010399566301493
0.07896429229007204
-0.6669556869698546
-0.6968494362988179
0.08049631414665842
-0.6665487245492784
-0.6968494362988179
0.08049631414665842
-0.6665487245492784
-0.6968494362988179
0.08049631414665842
-0.6665487245492784
-0.6968494362988179
0.08049631414665842
-0.6665487245492784
-0.6947390705861148
0.08097701260981267
-0.6667934962724575
-0.6947390705861148
0.08097701260981267
-0.6667934962724575
-0.6947390705861148
0.08097701260981267
-0.6667934962724575
-0.6947390705861148
0.08097701260981267
-0.6667934962724575
-0.693385938249234
0.0809425866043503
-0.667788463318295
-0.693385938249234
0.0809425866043503
-0.667788463318295
-0.693385938249234
0.0809425866043503
-0.667788463318295
-0.693385938249234
0.0809425866043503
-0.667788463318295
-0.6919728731160466
0.08059639377542757
-0.669776356568737
-0.6919728731160466
0.08059639377542757
-0.669776356568737
-0.6919728731160466
0.08059639377542757
-0.669776356568737
-0.6919728731160466
0.08059639377542757
-0.669776356568737
-0.6911043178274723
0.07906874147207553
-0.6721837399731883
-0.6911043178274723
0.07906874147207553
-0.6721837399731883
-0.6911043178274723
0.07906874147207553
-0.6721837399731883
-0.6911043178274723
0.07906874147207553
-0.6721837399731883
-0.6909042679036719
0.07698149599711696
-0.6747888655971024
-0.6909042679036719
0.07698149599711696
-0.6747888655971024
-0.6909042679036719
0.07698149599711696
-0.6747888655971024
-0.6909042679036719
0.07698149599711696
-0.6747888655971024
-0.6910445009220963
0.07506184854606257
-0.6773872104114217
-0.6910445009220963
0.07506184854606257
-0.6773872104114217
-0.6910445009220963
0.07506184854606257
-0.6773872104114217
-0.6910445009220963
0.07506184854606257
-0.6773872104114217
-0.6912014072126512
0.07403870679455683
-0.6797756524879034
-0.6912014072126512
0.07403870679455683
-0.6797756524879034
-0.6912014072126512
0.07403870679455683
-0.6797756524879034
-0.6912014072126512
0.07403870679455683
-0.6797756524879034
-0.6906951756756837
0.07379112822944096
-0.6813885337727463
-0.6906951756756837
0.07379112822944096
-0.6813885337727463
-0.6906951756756837
0.07379112822944096
-0.6813885337727463
-0.6906951756756837
0.07379112822944096
-0.6813885337727463
-0.6899929804557599
0.0743157615190812
-0.6825729567879203
-0.6899929804557599
0.0743157615190812
-0.6825729567879203
-0.6899929804557599
0.0743157615190812
-0.6825729567879203
-0.6899929804557599
0.0743157615190812
-0.6825729567879203
-0.6895182080605435
0.075295128306945
-0.6833966190778831
-0.6895182080605435
0.075295128306945
-0.6833966190778831
-0.6895182080605435
0.075295128306945
-0.6833966190778831
-0.6895182080605435
0.075295128306945
-0.6833966190778831
-0.6889069589824293
0.07674092084819321
-0.683848146241632
-0.6889069589824293
0.07674092084819321
-0.683848146241632
-0.6889069589824293
0.07674092084819321
-0.683848146241632
-0.6889069589824293
0.07674092084819321
-0.683848146241632
-0.6869028588996511
0.07785933944434432
-0.6841984099630393
-0.6869028588996511
0.07785933944434432
-0.6841984099630393
-0.6869028588996511
0.07785933944434432
-0.6841984099630393
-0.6869028588996511
0.07785933944434432
-0.6841984099630393
-0.6839101619362651
0.07851153162524599
-0.6844979131830105
-0.6839101619362651
0.07851153162524599
-0.6844979131830105
-0.6839101619362651
0.07851153162524599
-0.6844979131830105
-0.6839101619362651
0.07851153162524599
-0.6844979131830105
-0.6807596943305795
0.0790570952083383
-0.6848729803398107
-0.6807596943305795
0.0790570952083383
-0.6848729803398107
-0.6807596943305795
0.0790570952083383
-0.6848729803398107
-0.6807596943305795
0.0790570952083383
-0.6848729803398107
-0.6786740100323732
0.07909505903080255
-0.6856074096029314
-0.6786740100323732
0.07909505903080255
-0.6856074096029314
-0.6786740100323732
0.07909505903080255
-0.6856074096029314
-0.6786740100323732
0.07909505903080255
-0.6856074096029314
-0.676941482277517
0.07835572808030512
-0.686698649328163
-0.676941482277517
0.07835572808030512
-0.686698649328163
-0.676941482277517
0.07835572808030512
-0.686698649328163
-0.676941482277517
0.07835572808030512
-0.686698649328163
-0.6764425096436708
0.07746222200579041
-0.6882029291938426
-0.6764425096436708
0.07746222200579041
-0.6882029291938426
-0.6764425096436708
0.07746222200579041
-0.6882029291938426
-0.6764425096436708
0.07746222200579041
-0.6882029291938426
-0.6760128365828031
0.07662817477328952
-0.6898957831978446
-0.6760128365828031
0.07662817477328952
-0.6898957831978446
-0.6760128365828031
0.07662817477328952
-0.6898957831978446
-0.6760128365828031
0.07662817477328952
-0.6898957831978446
-0.6761038563666293
0.07577070899546759
-0.6915225716086888
-0.6761038563666293
0.07577070899546759
-0.6915225716086888
-0.6761038563666293
0.07577070899546759
-0.6915225716086888
-0.6761038563666293
0.07577070899546759
-0.6915225716086888
-0.6762416506670563
0.07583687625500031
-0.693189400124946
-0.6762416506670563
0.07583687625500031
-0.693189400124946
-0.6762416506670563
0.07583687625500031
-0.693189400124946
-0.6762416506670563
0.07583687625500031
-0.693189400124946
-0.6764863652954571
0.07706383258822756
-0.6942485144559887
-0.6764863652954571
0.07706383258822756
-0.6942485144559887
-0.6764863652954571
0.07706383258822756
-0.6942485144559887
-0.6764863652954571
0.07706383258822756
-0.6942485144559887
-0.6768846746635547
0.07884955468148543
-0.6951023184294327
-0.6768846746635547
0.07884955468148543
-0.6951023184294327
-0.6768846746635547
0.07884955468148543
-0.6951023184294327
-0.6768846746635547
0.07884955468148543
-0.6951023184294327
-0.6764903034846039
0.08055556397277812
-0.6953986601896222
-0.6764903034846039
0.08055556397277812
-0.6953986601896222
-0.6764903034846039
0.08055556397277812
-0.6953986601896222
-0.6764903034846039
0.08055556397277812
-0.6953986601896222
-0.6754053942028155
0.08193411473355079
-0.69488834596752
-0.6754053942028155
0.08193411473355079
-0.69488834596752
-0.6754053942028155
0.08193411473355079
-0.69488834596752
-0.6754053942028155
0.08193411473355079
-0.69488834596752
-0.6737091013193054
0.08308172976455803
-0.6936509590464907
-0.6737091013193054
0.08308172976455803
-0.6936509590464907
-0.6737091013193054
0.08308172976455803
-0.6936509590464907
-0.6737091013193054
0.08308172976455803
-0.6936509590464907
-0.6714127668892662
0.0838680821438067
-0.6920511430602355
-0.6714127668892662
0.0838680821438067
-0.6920511430602355
-0.6714127668892662
0.0838680821438067
-0.6920511430602355
-0.6714127668892662
0.0838680821438067
-0.6920511430602355
-0.6685967569184006
0.08401522926752841
-0.6904063989451394
-0.6685967569184006
0.08401522926752841
-0.6904063989451394
-0.6685967569184006
0.08401522926752841
-0.6904063989451394
-0.6685967569184006
0.08401522926752841
-0.6904063989451394
-0.6666804495835323
0.08436786714735274
-0.6888379344782004
-0.6666804495835323
0.08436786714735274
-0.6888379344782004
-0.6666804495835323
0.08436786714735274
-0.6888379344782004
-0.6666804495835323
0.08436786714735274
-0.6888379344782004
-0.6649962683662897
0.08471888193868522
-0.6878530858990324
-0.6649962683662897
0.08471888193868522
-0.6878530858990324
-0.6649962683662897
0.08471888193868522
-0.6878530858990324
-0.6649962683662897
0.08471888193868522
-0.6878530858990324
-0.6633542890553948
0.08440418137354384
-0.6876218124924451
-0.6633542890553948
0.08440418137354384
-0.6876218124924451
-0.6633542890553948
0.08440418137354384
-0.6876218124924451
-0.6633542890553948
0.08440418137354384
-0.6876218124924451
-0.6623601169690767
0.08422494851943667
-0.6879185801848741
-0.6623601169690767
0.08422494851943667
-0.6879185801848741
-0.6623601169690767
0.08422494851943667
-0.6879185801848741
-0.6623601169690767
0.08422494851943667
-0.6879185801848741
-0.6635373949173919
0.08425890997445928
-0.6882752586247622
-0.6635373949173919
0.08425890997445928
-0.6882752586247622
-0.6635373949173919
0.08425890997445928
-0.6882752586247622
-0.6635373949173919
0.08425890997445928
-0.6882752586247622
-0.6645760384485422
0.08438089528171544
-0.6884918924200641
-0.6645760384485422
0.08438089528171544
-0.6884918924200641
-0.6645760384485422
0.08438089528171544
-0.6884918924200641
-0.6645760384485422
0.08438089528171544
-0.6884918924200641
-0.6645354053072212
0.08427293265490442
-0.6884526611766203
-0.6645354053072212
0.08427293265490442
-0.6884526611766203
-0.6645354053072212
0.08427293265490442
-0.6884526611766203
-0.6645354053072212
0.08427293265490442
-0.6884526611766203
-0.6640420734246884
0.08502113117951898
-0.6879509203711318
-0.6640420734246884
0.08502113117951898
-0.6879509203711318
-0.6640420734246884
0.08502113117951898
-0.6879509203711318
-0.6640420734246884
0.08502113117951898
-0.6879509203711318
-0.662626718412989
0.08564499574119981
-0.6871143341031596
-0.662626718412989
0.08564499574119981
-0.6871143341031596
-0.662626718412989
0.08564499574119981
-0.6871143341031596
-0.662626718412989
0.08564499574119981
-0.6871143341031596
-0.6608908426049105
0.0857288318465853
-0.6861985315442488
-0.6608908426049105
0.0857288318465853
-0.6861985315442488
-0.6608908426049105
0.0857288318465853
-0.6861985315442488
-0.6608908426049105
0.0857288318465853
-0.6861985315442488
-0.6599967113552072
0.08632705364399507
-0.6852969899077866
-0.6599967113552072
0.08632705364399507
-0.6852969899077866
-0.6599967113552072
0.08632705364399507
-0.6852969899077866
-0.6599967113552072
0.08632705364399507
-0.6852969899077866
-0.6584688149620989
0.08628866108401007
-0.6844718009040446
-0.6584688149620989
0.08628866108401007
-0.6844718009040446
-0.6584688149620989
0.08628866108401007
-0.6844718009040446
-0.6584688149620989
0.08628866108401007
-0.6844718009040446
-0.6567344782023768
0.08599548006245496
-0.6837946825048397
-0.6567344782023768
0.08599548006245496
-0.6837946825048397
-0.6567344782023768
0.08599548006245496
-0.6837946825048397
-0.6567344782023768
0.08599548006245496
-0.6837946825048397
-0.6554654720736729
0.08607523238910779
-0.6832284496793026
-0.6554654720736729
0.08607523238910779
-0.6832284496793026
-0.6554654720736729
0.08607523238910779
-0.6832284496793026
-0.6554654720736729
0.08607523238910779
-0.6832284496793026
-0.6548894826222795
0.08611402340795955
-0.6828867164805734
-0.6548894826222795
0.08611402340795955
-0.6828867164805734
-0.6548894826222795
0.08611402340795955
-0.6828867164805734
-0.6548894826222795
0.08611402340795955
-0.6828867164805734
-0.6548490742986185
0.0860057741569409
-0.6828479479891482
-0.6548490742986185
0.0860057741569409
-0.6828479479891482
-0.6548490742986185
0.0860057741569409
-0.6828479479891482
-0.6548490742986185
0.0860057741569409
-0.6828479479891482
-0.6547404197645885
0.08604603236450815
-0.68285642815228
-0.6547404197645885
0.08604603236450815
-0.68285642815228
-0.6547404197645885
0.08604603236450815
-0.68285642815228
-0.6547404197645885
0.08604603236450815
-0.68285642815228
-0.6548490742986185
0.0860057741569409
-0.6828479479891482
-0.6548490742986185
0.0860057741569409
-0.6828479479891482
-0.6548490742986185
0.0860057741569409
-0.6828479479891482
-0.6548490742986185
0.0860057741569409
-0.6828479479891482
-0.6553620546194475
0.08643391256560864
-0.6826517225227583
-0.6553620546194475
0.08643391256560864
-0.6826517225227583
-0.6553620546194475
0.08643391256560864
-0.6826517225227583
-0.6553620546194475
0.08643391256560864
-0.6826517225227583
-0.6559500878531599
0.08663569669292864
-0.6823013387393606
-0.6559500878531599
0.08663569669292864
-0.6823013387393606
-0.6559500878531599
0.08663569669292864
-0.6823013387393606
-0.6559500878531599
0.08663569669292864
-0.6823013387393606
-0.655550914864852
0.08648563009597753
-0.6819037088374983
-0.655550914864852
0.08648563009597753
-0.6819037088374983
-0.655550914864852
0.08648563009597753
-0.6819037088374983
-0.655550914864852
0.08648563009597753
-0.6819037088374983
-0.654765070259042
0.08655004435402618
-0.6812334241717632
-0.654765070259042
0.08655004435402618
-0.6812334241717632
-0.654765070259042
0.08655004435402618
-0.6812334241717632
-0.654765070259042
0.08655004435402618
-0.6812334241717632
-0.654431544778553
0.08662368342577739
-0.680548589070446
-0.654431544778553
0.08662368342577739
-0.680548589070446
-0.654431544778553
0.08662368342577739
-0.680548589070446
-0.654431544778553
0.08662368342577739
-0.680548589070446
-0.6538448034564809
0.08641312667402551
-0.6800804873661201
-0.6538448034564809
0.08641312667402551
-0.6800804873661201
-0.6538448034564809
0.08641312667402551
-0.6800804873661201
-0.6538448034564809
0.08641312667402551
-0.6800804873661201
-0.6529399227101812
0.08566213041404142
-0.6795362808835175
-0.6529399227101812
0.08566213041404142
-0.6795362808835175
-0.6529399227101812
0.08566213041404142
-0.6795362808835175
-0.6529399227101812
0.08566213041404142
-0.6795362808835175
-0.6522514912932242
0.08471378487139772
-0.6789775247616026
-0.6522514912932242
0.08471378487139772
-0.6789775247616026
-0.6522514912932242
0.08471378487139772
-0.6789775247616026
-0.6522514912932242
0.08471378487139772
-0.6789775247616026
-0.6512218818109177
0.08392500883887118
-0.6786607933776541
-0.6512218818109177
0.08392500883887118
-0.6786607933776541
-0.6512218818109177
0.08392500883887118
-0.6786607933776541
-0.6512218818109177
0.08392500883887118
-0.6786607933776541
-0.6503345823102338
0.08337616487155704
-0.6787181085573564
-0.6503345823102338
0.08337616487155704
-0.6787181085573564
-0.6503345823102338
0.08337616487155704
-0.6787181085573564
-0.6503345823102338
0.08337616487155704
-0.6787181085573564
-0.6502790314896407
0.08340115877695474
-0.679131642370357
-0.6502790314896407
0.08340115877695474
-0.679131642370357
-0.6502790314896407
0.08340115877695474
-0.679131642370357
-0.6502790314896407
0.08340115877695474
-0.679131642370357
-0.6511525479724383
0.08359416887188219
-0.6797689388767577
-0.6511525479724383
0.08359416887188219
-0.6797689388767577
-0.6511525479724383
0.08359416887188219
-0.6797689388767577
-0.6511525479724383
0.08359416887188219
-0.6797689388767577
-0.6524948284819564
0.08390603338100246
-0.6807544545278896
-0.6524948284819564
0.08390603338100246
-0.6807544545278896
-0.6524948284819564
0.08390603338100246
-0.6807544545278896
-0.6524948284819564
0.08390603338100246
-0.6807544545278896
-0.652235808793998
0.0844929256818672
-0.6813076180443337
-0.652235808793998
0.0844929256818672
-0.6813076180443337
-0.652235808793998
0.0844929256818672
-0.6813076180443337
-0.652235808793998
0.0844929256818672
-0.6813076180443337
-0.6498390022522385
0.08489629697880093
-0.6813684495722309
-0.6498390022522385
0.08489629697880093
-0.6813684495722309
-0.6498390022522385
0.08489629697880093
-0.6813684495722309
-0.6498390022522385
0.08489629697880093
-0.6813684495722309
-0.652779245799383
0.08509314338129652
-0.682312963882263
-0.652779245799383
0.08509314338129652
-0.682312963882263
-0.652779245799383
0.08509314338129652
-0.682312963882263
-0.652779245799383
0.08509314338129652
-0.682312963882263
-0.6574160951509438
0.0843372597110194
-0.6856707518219558
-0.6574160951509438
0.0843372597110194
-0.6856707518219558
-0.6574160951509438
0.0843372597110194
-0.6856707518219558
-0.6574160951509438
0.0843372597110194
-0.6856707518219558
-0.6630429209981451
0.08331765812412678
-0.6866181588610784
-0.6630429209981451
0.08331765812412678
-0.6866181588610784
-0.6630429209981451
0.08331765812412678
-0.6866181588610784
-0.6630429209981451
0.08331765812412678
-0.6866181588610784
-0.6664687643029719
0.084558898027237
-0.6872170967780037
-0.6664687643029719
0.084558898027237
-0.6872170967780037
-0.6664687643029719
0.084558898027237
-0.6872170967780037
-0.6664687643029719
0.084558898027237
-0.6872170967780037
-0.6673314869918225
0.08721034462343683
-0.6871189099466852
-0.6673314869918225
0.08721034462343683
-0.6871189099466852
-0.6673314869918225
0.08721034462343683
-0.6871189099466852
-0.6673314869918225
0.08721034462343683
-0.6871189099466852
-0.6684137682176176
0.09206686322709769
-0.685469429520568
-0.6684137682176176
0.09206686322709769
-0.685469429520568
-0.6684137682176176
0.09206686322709769
-0.685469429520568
-0.6684137682176176
0.09206686322709769
-0.685469429520568
-0.6689608072603619
0.09714853081159046
-0.6816645991100414
-0.6689608072603619
0.09714853081159046
-0.6816645991100414
-0.6689608072603619
0.09714853081159046
-0.6816645991100414
-0.6689608072603619
0.09714853081159046
-0.6816645991100414
-0.6626776995598244
0.10242859165973556
-0.6741885311252949
-0.6626776995598244
0.10242859165973556
-0.6741885311252949
-0.6626776995598244
0.10242859165973556
-0.6741885311252949
-0.6626776995598244
0.10242859165973556
-0.6741885311252949
-0.6498977273897556
0.10738298391354324
-0.6626593153159449
-0.6498977273897556
0.10738298391354324
-0.6626593153159449
-0.6498977273897556
0.10738298391354324
-0.6626593153159449
-0.6498977273897556
0.10738298391354324
-0.6626593153159449
-0.6344380201462404
0.10965774618301789
-0.6478816375687193
-0.6344380201462404
0.10965774618301789
-0.6478816375687193
-0.6344380201462404
0.10965774618301789
-0.6478816375687193
-0.6344380201462404
0.10965774618301789
-0.6478816375687193
-0.6164114671040588
0.10961728261287255
-0.6328691392028506
-0.6164114671040588
0.10961728261287255
-0.6328691392028506
-0.6164114671040588
0.10961728261287255
-0.6328691392028506
-0.6164114671040588
0.10961728261287255
-0.6328691392028506
-0.5944744983819905
0.10510676793340397
-0.6221150148950005
-0.5944744983819905
0.10510676793340397
-0.6221150148950005
-0.5944744983819905
0.10510676793340397
-0.6221150148950005
-0.5944744983819905
0.10510676793340397
-0.6221150148950005
-0.574056696276475
0.09703864289042902
-0.6147389305487555
-0.574056696276475
0.09703864289042902
-0.6147389305487555
-0.574056696276475
0.09703864289042902
-0.6147389305487555
-0.574056696276475
0.09703864289042902
-0.6147389305487555
-0.5595578452222835
0.08712792804850668
-0.6093250362885957
-0.5595578452222835
0.08712792804850668
-0.6093250362885957
-0.5595578452222835
0.08712792804850668
-0.6093250362885957
-0.5595578452222835
0.08712792804850668
-0.6093250362885957
-0.5494698989999641
0.07585372622687228
-0.6059686696790604
-0.5494698989999641
0.07585372622687228
-0.6059686696790604
-0.5494698989999641
0.07585372622687228
-0.6059686696790604
-0.5494698989999641
0.07585372622687228
-0.6059686696790604
-0.5357063760164473
0.06377405450858521
-0.6040123494716201
-0.5357063760164473
0.06377405450858521
-0.6040123494716201
-0.5357063760164473
0.06377405450858521
-0.6040123494716201
-0.5357063760164473
0.06377405450858521
-0.6040123494716201
-0.5291074564643702
0.052287091546059435
-0.6048126146897764
-0.5291074564643702
0.052287091546059435
-0.6048126146897764
-0.5291074564643702
0.052287091546059435
-0.6048126146897764
-0.5291074564643702
0.052287091546059435
-0.6048126146897764
-0.5277209977451777
0.04205221147485561
-0.6064261556844373
-0.5277209977451777
0.04205221147485561
-0.6064261556844373
-0.5277209977451777
0.04205221147485561
-0.6064261556844373
-0.5277209977451777
0.04205221147485561
-0.6064261556844373
-0.529890847981756
0.03394187588211829
-0.6074635066575331
-0.529890847981756
0.03394187588211829
-0.6074635066575331
-0.529890847981756
0.03394187588211829
-0.6074635066575331
-0.529890847981756
0.03394187588211829
-0.6074635066575331
-0.5325846220874848
0.027519094405323474
-0.6070260037931932
-0.5325846220874848
0.027519094405323474
-0.6070260037931932
-0.5325846220874848
0.027519094405323474
-0.6070260037931932
-0.5325846220874848
0.027519094405323474
-0.6070260037931932
-0.5324236360041738
0.021677612575904483
-0.6067141817607125
-0.5324236360041738
0.021677612575904483
-0.6067141817607125
-0.5324236360041738
0.021677612575904483
-0.6067141817607125
-0.5324236360041738
0.021677612575904483
-0.6067141817607125
-0.5345460649855973
0.0169771481939007
-0.6084026078581273
-0.5345460649855973
0.0169771481939007
-0.6084026078581273
-0.5345460649855973
0.0169771481939007
-0.6084026078581273
-0.5345460649855973
0.0169771481939007
-0.6084026078581273
-0.5387766750762562
0.013233687574258727
-0.6109496865183847
-0.5387766750762562
0.013233687574258727
-0.6109496865183847
-0.5387766750762562
0.013233687574258727
-0.6109496865183847
-0.5387766750762562
0.013233687574258727
-0.6109496865183847
-0.5419963639747061
0.010384514662656595
-0.6123282764715345
-0.5419963639747061
0.010384514662656595
-0.6123282764715345
-0.5419963639747061
0.010384514662656595
-0.6123282764715345
-0.5419963639747061
0.010384514662656595
-0.6123282764715345
-0.5423798421742109
0.008047358899480859
-0.610237003965759
-0.5423798421742109
0.008047358899480859
-0.610237003965759
-0.5423798421742109
0.008047358899480859
-0.610237003965759
-0.5423798421742109
0.008047358899480859
-0.610237003965759
-0.5401633960578429
0.006656070739575122
-0.6067283738485009
-0.5401633960578429
0.006656070739575122
-0.6067283738485009
-0.5401633960578429
0.006656070739575122
-0.6067283738485009
-0.5401633960578429
0.006656070739575122
-0.6067283738485009
-0.5366180786652219
0.0061078988504806265
-0.6045412950324747
-0.5366180786652219
0.0061078988504806265
-0.6045412950324747
-0.5366180786652219
0.0061078988504806265
-0.6045412950324747
-0.5366180786652219
0.0061078988504806265
-0.6045412950324747
-0.5337701498166443
0.006042445301885421
-0.6041301972492439
-0.5337701498166443
0.006042445301885421
-0.6041301972492439
-0.5337701498166443
0.006042445301885421
-0.6041301972492439
-0.5337701498166443
0.006042445301885421
-0.6041301972492439
-0.5322433523638497
0.006103814910611421
-0.6046710299586004
-0.5322433523638497
0.006103814910611421
-0.6046710299586004
-0.5322433523638497
0.006103814910611421
-0.6046710299586004
-0.5322433523638497
0.006103814910611421
-0.6046710299586004
-0.5309967367722007
0.007006949797545617
-0.6037582884363861
-0.5309967367722007
0.007006949797545617
-0.6037582884363861
-0.5309967367722007
0.007006949797545617
-0.6037582884363861
-0.5309967367722007
0.007006949797545617
-0.6037582884363861
-0.5307641474171929
0.008914201453132355
-0.6018760840556201
-0.5307641474171929
0.008914201453132355
-0.6018760840556201
-0.5307641474171929
0.008914201453132355
-0.6018760840556201
-0.5307641474171929
0.008914201453132355
-0.6018760840556201
-0.5326282674668756
0.011360766757665968
-0.6009808252949396
-0.5326282674668756
0.011360766757665968
-0.6009808252949396
-0.5326282674668756
0.011360766757665968
-0.6009808252949396
-0.5326282674668756
0.011360766757665968
-0.6009808252949396
-0.5353629661899784
0.014336132920613597
-0.6020372609486301
-0.5353629661899784
0.014336132920613597
-0.6020372609486301
-0.5353629661899784
0.014336132920613597
-0.6020372609486301
-0.5353629661899784
0.014336132920613597
-0.6020372609486301
-0.5360602361904427
0.016778751013959908
-0.603988800826854
-0.5360602361904427
0.016778751013959908
-0.603988800826854
-0.5360602361904427
0.016778751013959908
-0.603988800826854
-0.5360602361904427
0.016778751013959908
-0.603988800826854
-0.5363085373032944
0.01881246430460554
-0.6069513778832543
-0.5363085373032944
0.01881246430460554
-0.6069513778832543
-0.5363085373032944
0.01881246430460554
-0.6069513778832543
-0.5363085373032944
0.01881246430460554
-0.6069513778832543
-0.538832129390941
0.021659262141132955
-0.6111916216513064
-0.538832129390941
0.021659262141132955
-0.6111916216513064
-0.538832129390941
0.021659262141132955
-0.6111916216513064
-0.538832129390941
0.021659262141132955
-0.6111916216513064
-0.544404607523176
0.024863865160969625
-0.6168917049737828
-0.544404607523176
0.024863865160969625
-0.6168917049737828
-0.544404607523176
0.024863865160969625
-0.6168917049737828
-0.544404607523176
0.024863865160969625
-0.6168917049737828
-0.5542278896055898
0.029838219413584846
-0.6242522234172587
-0.5542278896055898
0.029838219413584846
-0.6242522234172587
-0.5542278896055898
0.029838219413584846
-0.6242522234172587
-0.5542278896055898
0.029838219413584846
-0.6242522234172587
-0.565174232341019
0.035432357040644645
-0.6341703161948843
-0.565174232341019
0.035432357040644645
-0.6341703161948843
-0.565174232341019
0.035432357040644645
-0.6341703161948843
-0.565174232341019
0.035432357040644645
-0.6341703161948843
-0.5752579257091126
0.041873152977625686
-0.6470317892213504
-0.5752579257091126
0.041873152977625686
-0.6470317892213504
-0.5752579257091126
0.041873152977625686
-0.6470317892213504
-0.5752579257091126
0.041873152977625686
-0.6470317892213504
-0.590809850850759
0.049459083691946695
-0.6605323971326159
-0.590809850850759
0.049459083691946695
-0.6605323971326159
-0.590809850850759
0.049459083691946695
-0.6605323971326159
-0.590809850850759
0.049459083691946695
-0.6605323971326159
-0.6073377027414426
0.05604733982930925
-0.6728042972440672
-0.6073377027414426
0.05604733982930925
-0.6728042972440672
-0.6073377027414426
0.05604733982930925
-0.6728042972440672
-0.6073377027414426
0.05604733982930925
-0.6728042972440672
-0.6236085333294208
0.06045794088198605
-0.6849033771726751
-0.6236085333294208
0.06045794088198605
-0.6849033771726751
-0.6236085333294208
0.06045794088198605
-0.6849033771726751
-0.6236085333294208
0.06045794088198605
-0.6849033771726751
-0.6458724011499933
0.06476917336355091
-0.6955663141047802
-0.6458724011499933
0.06476917336355091
-0.6955663141047802
-0.6458724011499933
0.06476917336355091
-0.6955663141047802
-0.6458724011499933
0.06476917336355091
-0.6955663141047802
-0.667003416311301
0.06508107084628215
-0.7007160634901022
-0.667003416311301
0.06508107084628215
-0.7007160634901022
-0.667003416311301
0.06508107084628215
-0.7007160634901022
-0.667003416311301
0.06508107084628215
-0.7007160634901022
-0.6768188865696577
0.06166915781423208
-0.699685188758045
-0.6768188865696577
0.06166915781423208
-0.699685188758045
-0.6768188865696577
0.06166915781423208
-0.699685188758045
-0.6768188865696577
0.06166915781423208
-0.699685188758045
-0.6717308429060351
0.05952518082549635
-0.690588138559701
-0.6717308429060351
0.05952518082549635
-0.690588138559701
-0.6717308429060351
0.05952518082549635
-0.690588138559701
-0.6717308429060351
0.05952518082549635
-0.690588138559701
-0.6538882233165012
0.06868611142143982
-0.6791584892300275
-0.6538882233165012
0.06868611142143982
-0.6791584892300275
-0.6538882233165012
0.06868611142143982
-0.6791584892300275
-0.6538882233165012
0.06868611142143982
-0.6791584892300275
-0.6404556169888983
0.08889652877125663
-0.6706393553712802
-0.6404556169888983
0.08889652877125663
-0.6706393553712802
-0.6404556169888983
0.08889652877125663
-0.6706393553712802
-0.6404556169888983
0.08889652877125663
-0.6706393553712802
-0.6361654313377624
0.11214629677897106
-0.6626761795518209
-0.6361654313377624
0.11214629677897106
-0.6626761795518209
-0.6361654313377624
0.11214629677897106
-0.6626761795518209
-0.6361654313377624
0.11214629677897106
-0.6626761795518209
-0.6413328765552678
0.1297989326536407
-0.6556913685921482
-0.6413328765552678
0.1297989326536407
-0.6556913685921482
-0.6413328765552678
0.1297989326536407
-0.6556913685921482
-0.6413328765552678
0.1297989326536407
-0.6556913685921482
-0.6466169904757484
0.13741282653705802
-0.6526845162228461
-0.6466169904757484
0.13741282653705802
-0.6526845162228461
-0.6466169904757484
0.13741282653705802
-0.6526845162228461
-0.6466169904757484
0.13741282653705802
-0.6526845162228461
-0.6483419360774394
0.13512474865893076
-0.653384038499148
-0.6483419360774394
0.13512474865893076
-0.653384038499148
-0.6483419360774394
0.13512474865893076
-0.653384038499148
-0.6483419360774394
0.13512474865893076
-0.653384038499148
-0.6458735411146455
0.12893955846815758
-0.6533426244606976
-0.6458735411146455
0.12893955846815758
-0.6533426244606976
-0.6458735411146455
0.12893955846815758
-0.6533426244606976
-0.6458735411146455
0.12893955846815758
-0.6533426244606976
-0.6422059430971071
0.12442118878151828
-0.6531442335748319
-0.6422059430971071
0.12442118878151828
-0.6531442335748319
-0.6422059430971071
0.12442118878151828
-0.6531442335748319
-0.6422059430971071
0.12442118878151828
-0.6531442335748319
-0.6409386976175516
0.12549786832906298
-0.6531371768823144
-0.6409386976175516
0.12549786832906298
-0.6531371768823144
-0.6409386976175516
0.12549786832906298
-0.6531371768823144
-0.6409386976175516
0.12549786832906298
-0.6531371768823144
-0.6435433313902226
0.12611517980423462
-0.6542433386041225
-0.6435433313902226
0.12611517980423462
-0.6542433386041225
-0.6435433313902226
0.12611517980423462
-0.6542433386041225
-0.6435433313902226
0.12611517980423462
-0.6542433386041225
-0.6469670431982677
0.12308299115741846
-0.6568747962504867
-0.6469670431982677
0.12308299115741846
-0.6568747962504867
-0.6469670431982677
0.12308299115741846
-0.6568747962504867
-0.6469670431982677
0.12308299115741846
-0.6568747962504867
-0.6504068359413712
0.11939127702418158
-0.6602152041104571
-0.6504068359413712
0.11939127702418158
-0.6602152041104571
-0.6504068359413712
0.11939127702418158
-0.6602152041104571
-0.6504068359413712
0.11939127702418158
-0.6602152041104571
-0.6525974512026878
0.11692843219369306
-0.6631096861690601
-0.6525974512026878
0.11692843219369306
-0.6631096861690601
-0.6525974512026878
0.11692843219369306
-0.6631096861690601
-0.6525974512026878
0.11692843219369306
-0.6631096861690601
-0.6535873924944142
0.11616562968762259
-0.6649121688991271
-0.6535873924944142
0.11616562968762259
-0.6649121688991271
-0.6535873924944142
0.11616562968762259
-0.6649121688991271
-0.6535873924944142
0.11616562968762259
-0.6649121688991271
-0.6553167143606833
0.11656993180793478
-0.6661773817234142
-0.6553167143606833
0.11656993180793478
-0.6661773817234142
-0.6553167143606833
0.11656993180793478
-0.6661773817234142
-0.6553167143606833
0.11656993180793478
-0.6661773817234142
-0.6563038727056475
0.11668878621163664
-0.6669328524127812
-0.6563038727056475
0.11668878621163664
-0.6669328524127812
-0.6563038727056475
0.11668878621163664
-0.6669328524127812
-0.6563038727056475
0.11668878621163664
-0.6669328524127812
-0.6571878626033433
0.11597594444908098
-0.6673576582292045
-0.6571878626033433
0.11597594444908098
-0.6673576582292045
-0.6571878626033433
0.11597594444908098
-0.6673576582292045
-0.6571878626033433
0.11597594444908098
-0.6673576582292045
-0.6576173120856144
0.11501855970619337
-0.6677918109697499
-0.6576173120856144
0.11501855970619337
-0.6677918109697499
-0.6576173120856144
0.11501855970619337
-0.6677918109697499
-0.6576173120856144
0.11501855970619337
-0.6677918109697499
-0.6579631235310304
0.11465912314095453
-0.6681393872587555
-0.6579631235310304
0.11465912314095453
-0.6681393872587555
-0.6579631235310304
0.11465912314095453
-0.6681393872587555
-0.6579631235310304
0.11465912314095453
-0.6681393872587555
-0.658379369077684
0.11517633404834317
-0.6686688904100845
-0.658379369077684
0.11517633404834317
-0.6686688904100845
-0.658379369077684
0.11517633404834317
-0.6686688904100845
-0.658379369077684
0.11517633404834317
-0.6686688904100845
-0.6587729989549869
0.1162747992767259
-0.6695193711520384
-0.6587729989549869
0.1162747992767259
-0.6695193711520384
-0.6587729989549869
0.1162747992767259
-0.6695193711520384
-0.6587729989549869
0.1162747992767259
-0.6695193711520384
-0.6596967115109735
0.11674916310871669
-0.6705567515007118
-0.6596967115109735
0.11674916310871669
-0.6705567515007118
-0.6596967115109735
0.11674916310871669
-0.6705567515007118
-0.6596967115109735
0.11674916310871669
-0.6705567515007118
-0.6605899583407552
0.11656898551601394
-0.671450625703486
-0.6605899583407552
0.11656898551601394
-0.671450625703486
-0.6605899583407552
0.11656898551601394
-0.671450625703486
-0.6605899583407552
0.11656898551601394
-0.671450625703486
-0.6615354925269674
0.11674565469365945
-0.6725110625496791
-0.6615354925269674
0.11674565469365945
-0.6725110625496791
-0.6615354925269674
0.11674565469365945
-0.6725110625496791
-0.6615354925269674
0.11674565469365945
-0.6725110625496791
-0.6615137516914775
0.11626797964798911
-0.6735311711935691
-0.6615137516914775
0.11626797964798911
-0.6735311711935691
-0.6615137516914775
0.11626797964798911
-0.6735311711935691
-0.6615137516914775
0.11626797964798911
-0.6735311711935691
-0.6610587712804843
0.11549580168220387
-0.6738902234530518
-0.6610587712804843
0.11549580168220387
-0.6738902234530518
-0.6610587712804843
0.11549580168220387
-0.6738902234530518
-0.6610587712804843
0.11549580168220387
-0.6738902234530518
-0.6618453995477024
0.11501317721583507
-0.6741009982565318
-0.6618453995477024
0.11501317721583507
-0.6741009982565318
-0.6618453995477024
0.11501317721583507
-0.6741009982565318
-0.6618453995477024
0.11501317721583507
-0.6741009982565318
-0.6631737452225164
0.11532874461362082
-0.6739250867445226
-0.6631737452225164
0.11532874461362082
-0.6739250867445226
-0.6631737452225164
0.11532874461362082
-0.6739250867445226
-0.6631737452225164
0.11532874461362082
-0.6739250867445226
-0.6641366234612175
0.11588696641778505
-0.6737291531983673
-0.6641366234612175
0.11588696641778505
-0.6737291531983673
-0.6641366234612175
0.11588696641778505
-0.6737291531983673
-0.6641366234612175
0.11588696641778505
-0.6737291531983673
-0.6655797126909606
0.11648703781908962
-0.6737830173520999
-0.6655797126909606
0.11648703781908962
-0.6737830173520999
-0.6655797126909606
0.11648703781908962
-0.6737830173520999
-0.6655797126909606
0.11648703781908962
-0.6737830173520999
-0.6661205177158562
0.11704040103587295
-0.6740909040759147
-0.6661205177158562
0.11704040103587295
-0.6740909040759147
-0.6661205177158562
0.11704040103587295
-0.6740909040759147
-0.6661205177158562
0.11704040103587295
-0.6740909040759147
-0.6667154355533138
0.11725097197235221
-0.6745698566231416
-0.6667154355533138
0.11725097197235221
-0.6745698566231416
-0.6667154355533138
0.11725097197235221
-0.6745698566231416
-0.6667154355533138
0.11725097197235221
-0.6745698566231416
-0.6661595054912084
0.11678778604444355
-0.6748239614517481
-0.6661595054912084
0.11678778604444355
-0.6748239614517481
-0.6661595054912084
0.11678778604444355
-0.6748239614517481
-0.6661595054912084
0.11678778604444355
-0.6748239614517481
-0.6655292359764763
0.11614872954648772
-0.6748895420486622
-0.6655292359764763
0.11614872954648772
-0.6748895420486622
-0.6655292359764763
0.11614872954648772
-0.6748895420486622
-0.6655292359764763
0.11614872954648772
-0.6748895420486622
-0.6650001831869271
0.11612942461820812
-0.6750538339870117
-0.6650001831869271
0.11612942461820812
-0.6750538339870117
-0.6650001831869271
0.11612942461820812
-0.6750538339870117
-0.6650001831869271
0.11612942461820812
-0.6750538339870117
-0.6655353826532733
0.11565844861830696
-0.675129021144119
-0.6655353826532733
0.11565844861830696
-0.675129021144119
-0.6655353826532733
0.11565844861830696
-0.675129021144119
-0.6655353826532733
0.11565844861830696
-0.675129021144119
-0.6660913973761657
0.11419172099527729
-0.6752285070659617
-0.6660913973761657
0.11419172099527729
-0.6752285070659617
-0.6660913973761657
0.11419172099527729
-0.6752285070659617
-0.6660913973761657
0.11419172099527729
-0.6752285070659617
-0.666566095720761
0.11250914434442753
-0.6752470991353718
-0.666566095720761
0.11250914434442753
-0.6752470991353718
-0.666566095720761
0.11250914434442753
-0.6752470991353718
-0.666566095720761
0.11250914434442753
-0.6752470991353718
-0.6671012730158408
0.11133828165710496
-0.6753235775897437
-0.6671012730158408
0.11133828165710496
-0.6753235775897437
-0.6671012730158408
0.11133828165710496
-0.6753235775897437
-0.6671012730158408
0.11133828165710496
-0.6753235775897437
-0.66687711051855
0.11067934595751412
-0.6754493140350626
-0.66687711051855
0.11067934595751412
-0.6754493140350626
-0.66687711051855
0.11067934595751412
-0.6754493140350626
-0.66687711051855
0.11067934595751412
-0.6754493140350626
-0.6672428942518103
0.11055140719268716
-0.6754680564063016
-0.6672428942518103
0.11055140719268716
-0.6754680564063016
-0.6672428942518103
0.11055140719268716
-0.6754680564063016
-0.6672428942518103
0.11055140719268716
-0.6754680564063016
-0.6678328911197249
0.1110824387471102
-0.6753612317503924
-0.6678328911197249
0.1110824387471102
-0.6753612317503924
-0.6678328911197249
0.1110824387471102
-0.6753612317503924
-0.6678328911197249
0.1110824387471102
-0.6753612317503924
-0.6679487107007509
0.11108201213325344
-0.6752454121693665
-0.6679487107007509
0.11108201213325344
-0.6752454121693665
-0.6679487107007509
0.11108201213325344
-0.6752454121693665
-0.6679487107007509
0.11108201213325344
-0.6752454121693665
-0.6682688526579612
0.11063719268603049
-0.6749876226335338
-0.6682688526579612
0.11063719268603049
-0.6749876226335338
-0.6682688526579612
0.11063719268603049
-0.6749876226335338
-0.6682688526579612
0.11063719268603049
-0.6749876226335338
-0.6687100481687704
0.11040105851926514
-0.6748503289401429
-0.6687100481687704
0.11040105851926514
-0.6748503289401429
-0.6687100481687704
0.11040105851926514
-0.6748503289401429
-0.6687100481687704
0.11040105851926514
-0.6748503289401429
-0.6694617311327165
0.11054913238668676
-0.6749065740295205
-0.6694617311327165
0.11054913238668676
-0.6749065740295205
-0.6694617311327165
0.11054913238668676
-0.6749065740295205
-0.6694617311327165
0.11054913238668676
-0.6749065740295205
-0.6702190142770355
0.11102106102296969
-0.6751993143837244
-0.6702190142770355
0.11102106102296969
-0.6751993143837244
-0.6702190142770355
0.11102106102296969
-0.6751993143837244
-0.6702190142770355
0.11102106102296969
-0.6751993143837244
-0.6709081662516769
0.1115257638352533
-0.6755402001212674
-0.6709081662516769
0.1115257638352533
-0.6755402001212674
-0.6709081662516769
0.1115257638352533
-0.6755402001212674
-0.6709081662516769
0.1115257638352533
-0.6755402001212674
-0.6702575889478551
0.11199744535468807
-0.6755831914113908
-0.6702575889478551
0.11199744535468807
-0.6755831914113908
-0.6702575889478551
0.11199744535468807
-0.6755831914113908
-0.6702575889478551
0.11199744535468807
-0.6755831914113908
-0.670298109680279
0.11210529467677728
-0.675623403879327
-0.670298109680279
0.11210529467677728
-0.675623403879327
-0.670298109680279
0.11210529467677728
-0.675623403879327
-0.670298109680279
0.11210529467677728
-0.675623403879327
-0.6706711576408506
0.1120172739593195
-0.6755336661497948
-0.6706711576408506
0.1120172739593195
-0.6755336661497948
-0.6706711576408506
0.1120172739593195
-0.6755336661497948
-0.6706711576408506
0.1120172739593195
-0.6755336661497948
-0.671375168223716
0.11131751160171363
-0.6756600487551996
-0.671375168223716
0.11131751160171363
-0.6756600487551996
-0.671375168223716
0.11131751160171363
-0.6756600487551996
-0.671375168223716
0.11131751160171363
-0.6756600487551996
-0.6724044535427833
0.11108149640925323
-0.6757632643762446
-0.6724044535427833
0.11108149640925323
-0.6757632643762446
-0.6724044535427833
0.11108149640925323
-0.6757632643762446
-0.6724044535427833
0.11108149640925323
-0.6757632643762446
-0.6731158274179744
0.11112133571437299
-0.6757797128012016
-0.6731158274179744
0.11112133571437299
-0.6757797128012016
-0.6731158274179744
0.11112133571437299
-0.6757797128012016
-0.6731158274179744
0.11112133571437299
-0.6757797128012016
-0.6730480213795298
0.11138447949105681
-0.6758272448815656
-0.6730480213795298
0.11138447949105681
-0.6758272448815656
-0.6730480213795298
0.11138447949105681
-0.6758272448815656
-0.6730480213795298
0.11138447949105681
-0.6758272448815656
-0.672799970349045
0.11204362536761586
-0.6753468548255284
-0.672799970349045
0.11204362536761586
-0.6753468548255284
-0.672799970349045
0.11204362536761586
-0.6753468548255284
-0.672799970349045
0.11204362536761586
-0.6753468548255284
-0.6728769414283414
0.1124669729333285
-0.6748446472579445
-0.6728769414283414
0.1124669729333285
-0.6748446472579445
-0.6728769414283414
0.1124669729333285
-0.6748446472579445
-0.6728769414283414
0.1124669729333285
-0.6748446472579445
-0.6729577936686938
0.11256757221663802
-0.674925499498297
-0.6729577936686938
0.11256757221663802
-0.674925499498297
-0.6729577936686938
0.11256757221663802
-0.674925499498297
-0.6729577936686938
0.11256757221663802
-0.674925499498297
-0.6728511469745264
0.1117396646449369
-0.6745879612198045
-0.6728511469745264
0.1117396646449369
-0.6745879612198045
-0.6728511469745264
0.1117396646449369
-0.6745879612198045
-0.6728511469745264
0.1117396646449369
-0.6745879612198045
-0.6727171279799209
0.11116759681450213
-0.67433853013788
-0.6727171279799209
0.11116759681450213
-0.67433853013788
-0.6727171279799209
0.11116759681450213
-0.67433853013788
-0.6727171279799209
0.11116759681450213
-0.67433853013788
-0.6725554698452298
0.11073623588611185
-0.6741772476536836
-0.6725554698452298
0.11073623588611185
-0.6741772476536836
-0.6725554698452298
0.11073623588611185
-0.6741772476536836
-0.6725554698452298
0.11073623588611185
-0.6741772476536836
-0.6722051154576453
0.1095447272794834
-0.6739436407499393
-0.6722051154576453
0.1095447272794834
-0.6739436407499393
-0.6722051154576453
0.1095447272794834
-0.6739436407499393
-0.6722051154576453
0.1095447272794834
-0.6739436407499393
-0.6723218719951679
0.10803010103390298
-0.6738296425283599
-0.6723218719951679
0.10803010103390298
-0.6738296425283599
-0.6723218719951679
0.10803010103390298
-0.6738296425283599
-0.6723218719951679
0.10803010103390298
-0.6738296425283599
-0.6726477994445582
0.10709490737591654
-0.6738080940292419
-0.6726477994445582
0.10709490737591654
-0.6738080940292419
-0.6726477994445582
0.10709490737591654
-0.6738080940292419
-0.6726477994445582
0.10709490737591654
-0.6738080940292419
-0.6727643196601946
0.1063952701577923
-0.6736928247002656
-0.6727643196601946
0.1063952701577923
-0.6736928247002656
-0.6727643196601946
0.1063952701577923
-0.6736928247002656
-0.6727643196601946
0.1063952701577923
-0.6736928247002656
-0.6728074082317181
0.10621943323924946
-0.6733877912682414
-0.6728074082317181
0.10621943323924946
-0.6733877912682414
-0.6728074082317181
0.10621943323924946
-0.6733877912682414
-0.6728074082317181
0.10621943323924946
-0.6733877912682414
-0.6725811227795486
0.10588282712328484
-0.6729293930337483
-0.6725811227795486
0.10588282712328484
-0.6729293930337483
-0.6725811227795486
0.10588282712328484
-0.6729293930337483
-0.6725811227795486
0.10588282712328484
-0.6729293930337483
-0.6725926465381687
0.10493944332562898
-0.6724765025197161
-0.6725926465381687
0.10493944332562898
-0.6724765025197161
-0.6725926465381687
0.10493944332562898
-0.6724765025197161
-0.6725926465381687
0.10493944332562898
-0.6724765025197161
-0.6724547498963185
0.10485858341708332
-0.6719901738303422
-0.6724547498963185
0.10485858341708332
-0.6719901738303422
-0.6724547498963185
0.10485858341708332
-0.6719901738303422
-0.6724547498963185
0.10485858341708332
-0.6719901738303422
-0.6726457061993716
0.10545026203358632
-0.6717167698983129
-0.6726457061993716
0.10545026203358632
-0.6717167698983129
-0.6726457061993716
0.10545026203358632
-0.6717167698983129
-0.6726457061993716
0.10545026203358632
-0.6717167698983129
-0.6723946545593019
0.10639261547196169
-0.6715822126355596
-0.6723946545593019
0.10639261547196169
-0.6715822126355596
-0.6723946545593019
0.10639261547196169
-0.6715822126355596
-0.6723946545593019
0.10639261547196169
-0.6715822126355596
-0.6723951629349058
0.10758434616397546
-0.672163157831834
-0.6723951629349058
0.10758434616397546
-0.672163157831834
-0.6723951629349058
0.10758434616397546
-0.672163157831834
-0.6723951629349058
0.10758434616397546
-0.672163157831834
-0.671915390741816
0.10820403029912605
-0.6728431420379061
-0.671915390741816
0.10820403029912605
-0.6728431420379061
-0.671915390741816
0.10820403029912605
-0.6728431420379061
-0.671915390741816
0.10820403029912605
-0.6728431420379061
-0.669547279860039
0.10813548718989989
-0.673374471477279
-0.669547279860039
0.10813548718989989
-0.673374471477279
-0.669547279860039
0.10813548718989989
-0.673374471477279
-0.669547279860039
0.10813548718989989
-0.673374471477279
-0.666867074182849
0.10715339077615045
-0.6740608703911373
-0.666867074182849
0.10715339077615045
-0.6740608703911373
-0.666867074182849
0.10715339077615045
-0.6740608703911373
-0.666867074182849
0.10715339077615045
-0.6740608703911373
-0.6684856938169579
0.10516121766052423
-0.675918013569567
-0.6684856938169579
0.10516121766052423
-0.675918013569567
-0.6684856938169579
0.10516121766052423
-0.675918013569567
-0.6684856938169579
0.10516121766052423
-0.675918013569567
-0.6746717804803624
0.10266778506317001
-0.6783920575357707
-0.6746717804803624
0.10266778506317001
-0.6783920575357707
-0.6746717804803624
0.10266778506317001
-0.6783920575357707
-0.6746717804803624
0.10266778506317001
-0.6783920575357707
-0.6796674468833841
0.1016473877542307
-0.6817610779883635
-0.6796674468833841
0.1016473877542307
-0.6817610779883635
-0.6796674468833841
0.1016473877542307
-0.6817610779883635
-0.6796674468833841
0.1016473877542307
-0.6817610779883635
-0.6779090891702304
0.10173646854705597
-0.6848874279133967
-0.6779090891702304
0.10173646854705597
-0.6848874279133967
-0.6779090891702304
0.10173646854705597
-0.6848874279133967
-0.6779090891702304
0.10173646854705597
-0.6848874279133967
-0.6735318658800062
0.10247841269325775
-0.6855077706478326
-0.6735318658800062
0.10247841269325775
-0.6855077706478326
-0.6735318658800062
0.10247841269325775
-0.6855077706478326
-0.6735318658800062
0.10247841269325775
-0.6855077706478326
-0.6705768832339349
0.10446914450993072
-0.6838201840979523
-0.6705768832339349
0.10446914450993072
-0.6838201840979523
-0.6705768832339349
0.10446914450993072
-0.6838201840979523
-0.6705768832339349
0.10446914450993072
-0.6838201840979523
-0.6707949271969754
0.10904328688818767
-0.6793735900967115
-0.6707949271969754
0.10904328688818767
-0.6793735900967115
-0.6707949271969754
0.10904328688818767
-0.6793735900967115
-0.6707949271969754
0.10904328688818767
-0.6793735900967115
-0.6664931969411986
0.11377246117579667
-0.6714674477754784
-0.6664931969411986
0.11377246117579667
-0.6714674477754784
-0.6664931969411986
0.11377246117579667
-0.6714674477754784
-0.6664931969411986
0.11377246117579667
-0.6714674477754784
-0.6587629310970943
0.11839676672649459
-0.6587629310970943
-0.6587629310970943
0.11839676672649459
-0.6587629310970943
-0.6587629310970943
0.11839676672649459
-0.6587629310970943
-0.6587629310970943
0.11839676672649459
-0.6587629310970943
-0.6428856032911932
0.1204750102867148
-0.6432316240489864
-0.6428856032911932
0.1204750102867148
-0.6432316240489864
-0.6428856032911932
0.1204750102867148
-0.6432316240489864
-0.6428856032911932
0.1204750102867148
-0.6432316240489864
-0.6268116745296021
0.11963389092783705
-0.628657756848279
-0.6268116745296021
0.11963389092783705
-0.628657756848279
-0.6268116745296021
0.11963389092783705
-0.628657756848279
-0.6268116745296021
0.11963389092783705
-0.628657756848279
-0.6092498954187745
0.1162414401989838
-0.6181479704121307
-0.6092498954187745
0.1162414401989838
-0.6181479704121307
-0.6092498954187745
0.1162414401989838
-0.6181479704121307
-0.6092498954187745
0.1162414401989838
-0.6181479704121307
-0.5930032685406702
0.10803961321411681
-0.6112119976168268
-0.5930032685406702
0.10803961321411681
-0.6112119976168268
-0.5930032685406702
0.10803961321411681
-0.6112119976168268
-0.5930032685406702
0.10803961321411681
-0.6112119976168268
-0.5791282526654503
0.0977586421262563
-0.6076761010143668
-0.5791282526654503
0.0977586421262563
-0.6076761010143668
-0.5791282526654503
0.0977586421262563
-0.6076761010143668
-0.5791282526654503
0.0977586421262563
-0.6076761010143668
-0.5647339059719729
0.08611790791525245
-0.6058528917428978
-0.5647339059719729
0.08611790791525245
-0.6058528917428978
-0.5647339059719729
0.08611790791525245
-0.6058528917428978
-0.5647339059719729
0.08611790791525245
-0.6058528917428978
-0.5557149581751847
0.07229196997080073
-0.6033474596279981
-0.5557149581751847
0.07229196997080073
-0.6033474596279981
-0.5557149581751847
0.07229196997080073
-0.6033474596279981
-0.5557149581751847
0.07229196997080073
-0.6033474596279981
-0.5528018166007453
0.05950913533413666
-0.6030937407225685
-0.5528018166007453
0.05950913533413666
-0.6030937407225685
-0.5528018166007453
0.05950913533413666
-0.6030937407225685
-0.5528018166007453
0.05950913533413666
-0.6030937407225685
-0.5521516190480501
0.04804749231952164
-0.6052196169671241
-0.5521516190480501
0.04804749231952164
-0.6052196169671241
-0.5521516190480501
0.04804749231952164
-0.6052196169671241
-0.5521516190480501
0.04804749231952164
-0.6052196169671241
-0.5537914268639481
0.03910085630600797
-0.6073276031860437
-0.5537914268639481
0.03910085630600797
-0.6073276031860437
-0.5537914268639481
0.03910085630600797
-0.6073276031860437
-0.5537914268639481
0.03910085630600797
-0.6073276031860437
-0.5563426283428026
0.032363479290607074
-0.6076504010978125
-0.5563426283428026
0.032363479290607074
-0.6076504010978125
-0.5563426283428026
0.032363479290607074
-0.6076504010978125
-0.5563426283428026
0.032363479290607074
-0.6076504010978125
-0.5602049942512213
0.026965943486243368
-0.6064645905099916
-0.5602049942512213
0.026965943486243368
-0.6064645905099916
-0.5602049942512213
0.026965943486243368
-0.6064645905099916
-0.5602049942512213
0.026965943486243368
-0.6064645905099916
-0.5635018218546148
0.023386294434478483
-0.6056173746626671
-0.5635018218546148
0.023386294434478483
-0.6056173746626671
-0.5635018218546148
0.023386294434478483
-0.6056173746626671
-0.5635018218546148
0.023386294434478483
-0.6056173746626671
-0.5675437540476733
0.02091217287537779
-0.6057241192106864
-0.5675437540476733
0.02091217287537779
-0.6057241192106864
-0.5675437540476733
0.02091217287537779
-0.6057241192106864
-0.5675437540476733
0.02091217287537779
-0.6057241192106864
-0.5696491769434884
0.01909301806647035
-0.6060483746598591
-0.5696491769434884
0.01909301806647035
-0.6060483746598591
-0.5696491769434884
0.01909301806647035
-0.6060483746598591
-0.5696491769434884
0.01909301806647035
-0.6060483746598591
-0.5686771447477263
0.018062190771174633
-0.6060638832073113
-0.5686771447477263
0.018062190771174633
-0.6060638832073113
-0.5686771447477263
0.018062190771174633
-0.6060638832073113
-0.5686771447477263
0.018062190771174633
-0.6060638832073113
-0.5665277111188105
0.018296227561343817
-0.6052403589702694
-0.5665277111188105
0.018296227561343817
-0.6052403589702694
-0.5665277111188105
0.018296227561343817
-0.6052403589702694
-0.5665277111188105
0.018296227561343817
-0.6052403589702694
-0.5635575426568551
0.018627699795000063
-0.6035957450697492
-0.5635575426568551
0.018627699795000063
-0.6035957450697492
-0.5635575426568551
0.018627699795000063
-0.6035957450697492
-0.5635575426568551
0.018627699795000063
-0.6035957450697492
-0.5611829397937114
0.019558350548169734
-0.6024104728715649
-0.5611829397937114
0.019558350548169734
-0.6024104728715649
-0.5611829397937114
0.019558350548169734
-0.6024104728715649
-0.5611829397937114
0.019558350548169734
-0.6024104728715649
-0.559374140790678
0.021419446497374667
-0.6024964213386435
-0.559374140790678
0.021419446497374667
-0.6024964213386435
-0.559374140790678
0.021419446497374667
-0.6024964213386435
-0.559374140790678
0.021419446497374667
-0.6024964213386435
-0.5599986468620353
0.023966996316649863
-0.6031895181304958
-0.5599986468620353
0.023966996316649863
-0.6031895181304958
-0.5599986468620353
0.023966996316649863
-0.6031895181304958
-0.5599986468620353
0.023966996316649863
-0.6031895181304958
-0.5619254267073485
0.026652076902572774
-0.6033727669060618
-0.5619254267073485
0.026652076902572774
-0.6033727669060618
-0.5619254267073485
0.026652076902572774
-0.6033727669060618
-0.5619254267073485
0.026652076902572774
-0.6033727669060618
-0.5632799381937665
0.02970790741416674
-0.603341959733176
-0.5632799381937665
0.02970790741416674
-0.603341959733176
-0.5632799381937665
0.02970790741416674
-0.603341959733176
-0.5632799381937665
0.02970790741416674
-0.603341959733176
-0.563834913673346
0.03280185623000015
-0.6031162198061106
-0.563834913673346
0.03280185623000015
-0.6031162198061106
-0.563834913673346
0.03280185623000015
-0.6031162198061106
-0.563834913673346
0.03280185623000015
-0.6031162198061106
-0.564017752525894
0.03624385088164549
-0.6044344640922925
-0.564017752525894
0.03624385088164549
-0.6044344640922925
-0.564017752525894
0.03624385088164549
-0.6044344640922925
-0.564017752525894
0.03624385088164549
-0.6044344640922925
-0.5670012279611845
0.039076425221466975
-0.609038517272687
-0.5670012279611845
0.039076425221466975
-0.609038517272687
-0.5670012279611845
0.039076425221466975
-0.609038517272687
-0.5670012279611845
0.039076425221466975
-0.609038517272687
-0.5773419411305623
0.043218568811672006
-0.6169040505717048
-0.5773419411305623
0.043218568811672006
-0.6169040505717048
-0.5773419411305623
0.043218568811672006
-0.6169040505717048
-0.5773419411305623
0.043218568811672006
-0.6169040505717048
-0.5886927332171257
0.04875722596205163
-0.6261250235335545
-0.5886927332171257
0.04875722596205163
-0.6261250235335545
-0.5886927332171257
0.04875722596205163
-0.6261250235335545
-0.5886927332171257
0.04875722596205163
-0.6261250235335545
-0.5957438720323087
0.05429280756037677
-0.6356933710348813
-0.5957438720323087
0.05429280756037677
-0.6356933710348813
-0.5957438720323087
0.05429280756037677
-0.6356933710348813
-0.5957438720323087
0.05429280756037677
-0.6356933710348813
-0.6075699099028641
0.06089780995404285
-0.6463275041841925
-0.6075699099028641
0.06089780995404285
-0.6463275041841925
-0.6075699099028641
0.06089780995404285
-0.6463275041841925
-0.6075699099028641
0.06089780995404285
-0.6463275041841925
-0.624489851249751
0.06700769545303781
-0.6586452680711824
-0.624489851249751
0.06700769545303781
-0.6586452680711824
-0.624489851249751
0.06700769545303781
-0.6586452680711824
-0.624489851249751
0.06700769545303781
-0.6586452680711824
-0.6459762133749805
0.0719248096822132
-0.6712092356377773
-0.6459762133749805
0.0719248096822132
-0.6712092356377773
-0.6459762133749805
0.0719248096822132
-0.6712092356377773
-0.6459762133749805
0.0719248096822132
-0.6712092356377773
-0.6615597672078616
0.07397892069027749
-0.6818205889905828
-0.6615597672078616
0.07397892069027749
-0.6818205889905828
-0.6615597672078616
0.07397892069027749
-0.6818205889905828
-0.6615597672078616
0.07397892069027749
-0.6818205889905828
-0.6717744837949439
0.07474085503598775
-0.6892022103648112
-0.6717744837949439
0.07474085503598775
-0.6892022103648112
-0.6717744837949439
0.07474085503598775
-0.6892022103648112
-0.6717744837949439
0.07474085503598775
-0.6892022103648112
-0.67982886435266
0.07478750421725595
-0.6946660862660372
-0.67982886435266
0.07478750421725595
-0.6946660862660372
-0.67982886435266
0.07478750421725595
-0.6946660862660372
-0.67982886435266
0.07478750421725595
-0.6946660862660372
-0.6809607334449077
0.07242454235291089
-0.6979354525643613
-0.6809607334449077
0.07242454235291089
-0.6979354525643613
-0.6809607334449077
0.07242454235291089
-0.6979354525643613
-0.6809607334449077
0.07242454235291089
-0.6979354525643613
-0.6827370068010676
0.06676986392378086
-0.6972748986102766
-0.6827370068010676
0.06676986392378086
-0.6972748986102766
-0.6827370068010676
0.06676986392378086
-0.6972748986102766
-0.6827370068010676
0.06676986392378086
-0.6972748986102766
-0.6805572110178363
0.06278574588343079
-0.692161580498338
-0.6805572110178363
0.06278574588343079
-0.692161580498338
-0.6805572110178363
0.06278574588343079
-0.692161580498338
-0.6805572110178363
0.06278574588343079
-0.692161580498338
-0.6731468905732012
0.06547225046741767
-0.6866290351177775
-0.6731468905732012
0.06547225046741767
-0.6866290351177775
-0.6731468905732012
0.06547225046741767
-0.6866290351177775
-0.6731468905732012
0.06547225046741767
-0.6866290351177775
-0.6701656692672809
0.07503280616339092
-0.6826463738529251
-0.6701656692672809
0.07503280616339092
-0.6826463738529251
-0.6701656692672809
0.07503280616339092
-0.6826463738529251
-0.6701656692672809
0.07503280616339092
-0.6826463738529251
-0.6716130024616361
0.09050317881487649
-0.6778089143680006
-0.6716130024616361
0.09050317881487649
-0.6778089143680006
-0.6716130024616361
0.09050317881487649
-0.6778089143680006
-0.6716130024616361
0.09050317881487649
-0.6778089143680006
-0.6727816465293491
0.10356161620502599
-0.6734789155307329
-0.6727816465293491
0.10356161620502599
-0.6734789155307329
-0.6727816465293491
0.10356161620502599
-0.6734789155307329
-0.6727816465293491
0.10356161620502599
-0.6734789155307329
-0.6736159892571217
0.10743683347864434
-0.6701357143477006
-0.6736159892571217
0.10743683347864434
-0.6701357143477006
-0.6736159892571217
0.10743683347864434
-0.6701357143477006
-0.6736159892571217
0.10743683347864434
-0.6701357143477006
-0.6752078270374225
0.10339642539594596
-0.6682347598189357
-0.6752078270374225
0.10339642539594596
-0.6682347598189357
-0.6752078270374225
0.10339642539594596
-0.6682347598189357
-0.6752078270374225
0.10339642539594596
-0.6682347598189357
-0.6764909309768019
0.09796244486149369
-0.6671702481349474
-0.6764909309768019
0.09796244486149369
-0.6671702481349474
-0.6764909309768019
0.09796244486149369
-0.6671702481349474
-0.6764909309768019
0.09796244486149369
-0.6671702481349474
-0.6733820536118
0.0950291624045568
-0.6670821269479674
-0.6733820536118
0.0950291624045568
-0.6670821269479674
-0.6733820536118
0.0950291624045568
-0.6670821269479674
-0.6733820536118
0.0950291624045568
-0.6670821269479674
-0.670571504808518
0.0968581456018828
-0.6676574143191263
-0.670571504808518
0.0968581456018828
-0.6676574143191263
-0.670571504808518
0.0968581456018828
-0.6676574143191263
-0.670571504808518
0.0968581456018828
-0.6676574143191263
-0.6704682750869247
0.09979991990871229
-0.668023715452186
-0.6704682750869247
0.09979991990871229
-0.668023715452186
-0.6704682750869247
0.09979991990871229
-0.668023715452186
-0.6704682750869247
0.09979991990871229
-0.668023715452186
-0.6727166634226317
0.10021217362941708
-0.6691086598878364
-0.6727166634226317
0.10021217362941708
-0.6691086598878364
-0.6727166634226317
0.10021217362941708
-0.6691086598878364
-0.6727166634226317
0.10021217362941708
-0.6691086598878364
-0.6753062778877028
0.09698175220122884
-0.6712267917334729
-0.6753062778877028
0.09698175220122884
-0.6712267917334729
-0.6753062778877028
0.09698175220122884
-0.6712267917334729
-0.6753062778877028
0.09698175220122884
-0.6712267917334729
-0.6765883252445916
0.09408101682531966
-0.6728535023217485
-0.6765883252445916
0.09408101682531966
-0.6728535023217485
-0.6765883252445916
0.09408101682531966
-0.6728535023217485
-0.6765883252445916
0.09408101682531966
-0.6728535023217485
-0.6766151071775641
0.09431641530327703
-0.6733475176004063
-0.6766151071775641
0.09431641530327703
-0.6733475176004063
-0.6766151071775641
0.09431641530327703
-0.6733475176004063
-0.6766151071775641
0.09431641530327703
-0.6733475176004063
-0.6759912430813878
0.09674584804500702
-0.6733101232792984
-0.6759912430813878
0.09674584804500702
-0.6733101232792984
-0.6759912430813878
0.09674584804500702
-0.6733101232792984
-0.6759912430813878
0.09674584804500702
-0.6733101232792984
-0.6751622965232615
0.09912723361383481
-0.6728333310548639
-0.6751622965232615
0.09912723361383481
-0.6728333310548639
-0.6751622965232615
0.09912723361383481
-0.6728333310548639
-0.6751622965232615
0.09912723361383481
-0.6728333310548639
-0.6745380925805946
0.10036547181144494
-0.6722104823425517
-0.6745380925805946
0.10036547181144494
-0.6722104823425517
-0.6745380925805946
0.10036547181144494
-0.6722104823425517
-0.6745380925805946
0.10036547181144494
-0.6722104823425517
-0.6745694603907708
0.10064124536411602
-0.6717766536879768
-0.6745694603907708
0.10064124536411602
-0.6717766536879768
-0.6745694603907708
0.10064124536411602
-0.6717766536879768
-0.6745694603907708
0.10064124536411602
-0.6717766536879768
-0.6760312744472822
0.10083124903305327
-0.6718423115245741
-0.6760312744472822
0.10083124903305327
-0.6718423115245741
-0.6760312744472822
0.10083124903305327
-0.6718423115245741
-0.6760312744472822
0.10083124903305327
-0.6718423115245741
-0.6776652145461524
0.10181618465083359
-0.6721988406260465
-0.6776652145461524
0.10181618465083359
-0.6721988406260465
-0.6776652145461524
0.10181618465083359
-0.6721988406260465
-0.6776652145461524
0.10181618465083359
-0.6721988406260465
-0.6785257688208403
0.10360539800347329
-0.6734124737444808
-0.6785257688208403
0.10360539800347329
-0.6734124737444808
-0.6785257688208403
0.10360539800347329
-0.6734124737444808
-0.6785257688208403
0.10360539800347329
-0.6734124737444808
-0.6788090723896866
0.10543430090365764
-0.6742805153356302
-0.6788090723896866
0.10543430090365764
-0.6742805153356302
-0.6788090723896866
0.10543430090365764
-0.6742805153356302
-0.6788090723896866
0.10543430090365764
-0.6742805153356302
-0.6792525396349963
0.10650416259039328
-0.6747263476290621
-0.6792525396349963
0.10650416259039328
-0.6747263476290621
-0.6792525396349963
0.10650416259039328
-0.6747263476290621
-0.6792525396349963
0.10650416259039328
-0.6747263476290621
-0.6799186588713358
0.1061136127501328
-0.6744627550564923
-0.6799186588713358
0.1061136127501328
-0.6744627550564923
-0.6799186588713358
0.1061136127501328
-0.6744627550564923
-0.6799186588713358
0.1061136127501328
-0.6744627550564923
-0.6803272433593294
0.10592643923836502
-0.6741744882164441
-0.6803272433593294
0.10592643923836502
-0.6741744882164441
-0.6803272433593294
0.10592643923836502
-0.6741744882164441
-0.6803272433593294
0.10592643923836502
-0.6741744882164441
-0.6801959084218017
0.10654486257887491
-0.6745091599800247
-0.6801959084218017
0.10654486257887491
-0.6745091599800247
-0.6801959084218017
0.10654486257887491
-0.6745091599800247
-0.6801959084218017
0.10654486257887491
-0.6745091599800247
-0.6800647759734207
0.10716331527902974
-0.6748437645128278
-0.6800647759734207
0.10716331527902974
-0.6748437645128278
-0.6800647759734207
0.10716331527902974
-0.6748437645128278
-0.6800647759734207
0.10716331527902974
-0.6748437645128278
-0.6797700802324407
0.10751810138809578
-0.6753617347033768
-0.6797700802324407
0.10751810138809578
-0.6753617347033768
-0.6797700802324407
0.10751810138809578
-0.6753617347033768
-0.6797700802324407
0.10751810138809578
-0.6753617347033768
-0.6804715000702612
0.10768455981143768
-0.6758314063133167
-0.6804715000702612
0.10768455981143768
-0.6758314063133167
-0.6804715000702612
0.10768455981143768
-0.6758314063133167
-0.6804715000702612
0.10768455981143768
-0.6758314063133167
-0.6816817599085442
0.10758261580264256
-0.6761136517959492
-0.6816817599085442
0.10758261580264256
-0.6761136517959492
-0.6816817599085442
0.10758261580264256
-0.6761136517959492
-0.6816817599085442
0.10758261580264256
-0.6761136517959492
-0.6817900365122422
0.10754244586889218
-0.6761059267655816
-0.6817900365122422
0.10754244586889218
-0.6761059267655816
-0.6817900365122422
0.10754244586889218
-0.6761059267655816
-0.6817900365122422
0.10754244586889218
-0.6761059267655816
-0.6814772100226069
0.10732651139058151
-0.6762565014210975
-0.6814772100226069
0.10732651139058151
-0.6762565014210975
-0.6814772100226069
0.10732651139058151
-0.6762565014210975
-0.6814772100226069
0.10732651139058151
-0.6762565014210975
-0.6807843626245321
0.10785757017529755
-0.6766087611986732
-0.6807843626245321
0.10785757017529755
-0.6766087611986732
-0.6807843626245321
0.10785757017529755
-0.6766087611986732
-0.6807843626245321
0.10785757017529755
-0.6766087611986732
-0.6803159102057974
0.10834883634522233
-0.6768370478246547
-0.6803159102057974
0.10834883634522233
-0.6768370478246547
-0.6803159102057974
0.10834883634522233
-0.6768370478246547
-0.6803159102057974
0.10834883634522233
-0.6768370478246547
-0.6796036495457513
0.10749456735307925
-0.676819428606514
-0.6796036495457513
0.10749456735307925
-0.676819428606514
-0.6796036495457513
0.10749456735307925
-0.676819428606514
-0.6796036495457513
0.10749456735307925
-0.676819428606514
-0.680075545437044
0.10581150017050998
-0.676824837206543
-0.680075545437044
0.10581150017050998
-0.676824837206543
-0.680075545437044
0.10581150017050998
-0.676824837206543
-0.680075545437044
0.10581150017050998
-0.676824837206543
-0.6813522302796763
0.10474625702533448
-0.6770546586374759
-0.6813522302796763
0.10474625702533448
-0.6770546586374759
-0.6813522302796763
0.10474625702533448
-0.6770546586374759
-0.6813522302796763
0.10474625702533448
-0.6770546586374759
-0.6817934053357468
0.10516671184849011
-0.6778449724211058
-0.6817934053357468
0.10516671184849011
-0.6778449724211058
-0.6817934053357468
0.10516671184849011
-0.6778449724211058
-0.6817934053357468
0.10516671184849011
-0.6778449724211058
-0.681907990133777
0.10701503175389819
-0.6784269075502132
-0.681907990133777
0.10701503175389819
-0.6784269075502132
-0.681907990133777
0.10701503175389819
-0.6784269075502132
-0.681907990133777
0.10701503175389819
-0.6784269075502132
-0.6820545521921622
0.10823078280952353
-0.6791553312147093
-0.6820545521921622
0.10823078280952353
-0.6791553312147093
-0.6820545521921622
0.10823078280952353
-0.6791553312147093
-0.6820545521921622
0.10823078280952353
-0.6791553312147093
-0.6821862029836747
0.10826842669164054
-0.6797508568604107
-0.6821862029836747
0.10826842669164054
-0.6797508568604107
-0.6821862029836747
0.10826842669164054
-0.6797508568604107
-0.6821862029836747
0.10826842669164054
-0.6797508568604107
-0.682796737559355
0.10747755158605249
-0.6802445347683871
-0.682796737559355
0.10747755158605249
-0.6802445347683871
-0.682796737559355
0.10747755158605249
-0.6802445347683871
-0.682796737559355
0.10747755158605249
-0.6802445347683871
-0.6831655121495435
0.1068561146284188
-0.6804965262085337
-0.6831655121495435
0.1068561146284188
-0.6804965262085337
-0.6831655121495435
0.1068561146284188
-0.6804965262085337
-0.6831655121495435
0.1068561146284188
-0.6804965262085337
-0.6832061347728628
0.10696365678746317
-0.6805373036811669
-0.6832061347728628
0.10696365678746317
-0.6805373036811669
-0.6832061347728628
0.10696365678746317
-0.6805373036811669
-0.6832061347728628
0.10696365678746317
-0.6805373036811669
-0.683322170751049
0.10696381743654108
-0.680421267702981
-0.683322170751049
0.10696381743654108
-0.680421267702981
-0.683322170751049
0.10696381743654108
-0.680421267702981
-0.683322170751049
0.10696381743654108
-0.680421267702981
-0.6831117171875528
0.10736707206776225
-0.6806753821782745
-0.6831117171875528
0.10736707206776225
-0.6806753821782745
-0.6831117171875528
0.10736707206776225
-0.6806753821782745
-0.6831117171875528
0.10736707206776225
-0.6806753821782745
-0.6831117171875528
0.10736707206776225
-0.6806753821782745
-0.6831117171875528
0.10736707206776225
-0.6806753821782745
-0.6831117171875528
0.10736707206776225
-0.6806753821782745
-0.6831117171875528
0.10736707206776225
-0.6806753821782745
-0.6828779898547512
0.1076926428718128
-0.6803260831083281
-0.6828779898547512
0.1076926428718128
-0.6803260831083281
-0.6828779898547512
0.1076926428718128
-0.6803260831083281
-0.6828779898547512
0.1076926428718128
-0.6803260831083281
-0.6828779898547512
0.1076926428718128
-0.6803260831083281
-0.6828779898547512
0.1076926428718128
-0.6803260831083281
-0.6828779898547512
0.1076926428718128
-0.6803260831083281
-0.6828779898547512
0.1076926428718128
-0.6803260831083281
-0.683136927144888
0.10743749959609579
-0.6800046791257123
-0.683136927144888
0.10743749959609579
-0.6800046791257123
-0.683136927144888
0.10743749959609579
-0.6800046791257123
-0.683136927144888
0.10743749959609579
-0.6800046791257123
-0.6831872247608745
0.1074190445689686
-0.6795909409338352
-0.6831872247608745
0.1074190445689686
-0.6795909409338352
-0.6831872247608745
0.1074190445689686
-0.6795909409338352
-0.6831872247608745
0.1074190445689686
-0.6795909409338352
-0.6829805941022313
0.10737369862252172
-0.6791520704417395
-0.6829805941022313
0.10737369862252172
-0.6791520704417395
-0.6829805941022313
0.10737369862252172
-0.6791520704417395
-0.6829805941022313
0.10737369862252172
-0.6791520704417395
-0.6823021112964177
0.10744587441300042
-0.678357800864844
-0.6823021112964177
0.10744587441300042
-0.678357800864844
-0.6823021112964177
0.10744587441300042
-0.678357800864844
-0.6823021112964177
0.10744587441300042
-0.678357800864844
-0.682414744791235
0.10695686789055606
-0.6776572694293646
-0.682414744791235
0.10695686789055606
-0.6776572694293646
-0.682414744791235
0.10695686789055606
-0.6776572694293646
-0.682414744791235
0.10695686789055606
-0.6776572694293646
-0.6827442004470925
0.1063875458428486
-0.6769410598155445
-0.6827442004470925
0.1063875458428486
-0.6769410598155445
-0.6827442004470925
0.1063875458428486
-0.6769410598155445
-0.6827442004470925
0.1063875458428486
-0.6769410598155445
-0.6831484206660584
0.10657733304807265
-0.6764171746841534
-0.6831484206660584
0.10657733304807265
-0.6764171746841534
-0.6831484206660584
0.10657733304807265
-0.6764171746841534
-0.6831484206660584
0.10657733304807265
-0.6764171746841534
-0.6828866701811662
0.10715785152853145
-0.6761573766285374
-0.6828866701811662
0.10715785152853145
-0.6761573766285374
-0.6828866701811662
0.10715785152853145
-0.6761573766285374
-0.6828866701811662
0.10715785152853145
-0.6761573766285374
-0.6823678471147124
0.10771094601195054
-0.6758721038028751
-0.6823678471147124
0.10771094601195054
-0.6758721038028751
-0.6823678471147124
0.10771094601195054
-0.6758721038028751
-0.6823678471147124
0.10771094601195054
-0.6758721038028751
-0.6820374853467349
0.1076241526485114
-0.6756573666261159
-0.6820374853467349
0.1076241526485114
-0.6756573666261159
-0.6820374853467349
0.1076241526485114
-0.6756573666261159
-0.6820374853467349
0.1076241526485114
-0.6756573666261159
-0.6825338539209088
0.10687790280103907
-0.6753392229305898
-0.6825338539209088
0.10687790280103907
-0.6753392229305898
-0.6825338539209088
0.10687790280103907
-0.6753392229305898
-0.6825338539209088
0.10687790280103907
-0.6753392229305898
-0.6827501363247191
0.10598270126414172
-0.6753204050042073
-0.6827501363247191
0.10598270126414172
-0.6753204050042073
-0.6827501363247191
0.10598270126414172
-0.6753204050042073
-0.6827501363247191
0.10598270126414172
-0.6753204050042073
-0.6833043085464442
0.10521484073352103
-0.6754074734951983
-0.6833043085464442
0.10521484073352103
-0.6754074734951983
-0.6833043085464442
0.10521484073352103
-0.6754074734951983
-0.6833043085464442
0.10521484073352103
-0.6754074734951983
-0.6833043085464442
0.10521484073352103
-0.6754074734951983
-0.6833043085464442
0.10521484073352103
-0.6754074734951983
-0.6833043085464442
0.10521484073352103
-0.6754074734951983
-0.6833043085464442
0.10521484073352103
-0.6754074734951983
-0.6833043085464442
0.10521484073352103
-0.6754074734951983
-0.6833043085464442
0.10521484073352103
-0.6754074734951983
-0.6833043085464442
0.10521484073352103
-0.6754074734951983
-0.6833043085464442
0.10521484073352103
-0.6754074734951983
-0.6833043085464442
0.10521484073352103
-0.6754074734951983
-0.6833043085464442
0.10521484073352103
-0.6754074734951983
-0.6833043085464442
0.10521484073352103
-0.6754074734951983
-0.6833043085464442
0.10521484073352103
-0.6754074734951983
-0.6832635441669399
0.10522266551494401
-0.6753671676161285
-0.6832635441669399
0.10522266551494401
-0.6753671676161285
-0.6832635441669399
0.10522266551494401
-0.6753671676161285
-0.6832635441669399
0.10522266551494401
-0.6753671676161285
-0.6830265087616478
0.10489923086446867
-0.6753610410702413
-0.6830265087616478
0.10489923086446867
-0.6753610410702413
-0.6830265087616478
0.10489923086446867
-0.6753610410702413
-0.6830265087616478
0.10489923086446867
-0.6753610410702413
-0.6830944754052204
0.1047514896245971
-0.6753124135119315
-0.6830944754052204
0.1047514896245971
-0.6753124135119315
-0.6830944754052204
0.1047514896245971
-0.6753124135119315
-0.6830944754052204
0.1047514896245971
-0.6753124135119315
-0.6832561268546548
0.10506664209886035
-0.6754749687397015
-0.6832561268546548
0.10506664209886035
-0.6754749687397015
-0.6832561268546548
0.10506664209886035
-0.6754749687397015
-0.6832561268546548
0.10506664209886035
-0.6754749687397015
-0.6833297330821003
0.10594095506110865
-0.6756678248950698
-0.6833297330821003
0.10594095506110865
-0.6756678248950698
-0.6833297330821003
0.10594095506110865
-0.6756678248950698
-0.6833297330821003
0.10594095506110865
-0.6756678248950698
-0.6828540534593951
0.10709076622571197
-0.6760083413765194
-0.6828540534593951
0.10709076622571197
-0.6760083413765194
-0.6828540534593951
0.10709076622571197
-0.6760083413765194
-0.6828540534593951
0.10709076622571197
-0.6760083413765194
-0.6825748601127758
0.10764142620925353
-0.6763107427850525
-0.6825748601127758
0.10764142620925353
-0.6763107427850525
-0.6825748601127758
0.10764142620925353
-0.6763107427850525
-0.6825748601127758
0.10764142620925353
-0.6763107427850525
-0.6833525762511439
0.10678946103665457
-0.6772023200356984
-0.6833525762511439
0.10678946103665457
-0.6772023200356984
-0.6833525762511439
0.10678946103665457
-0.6772023200356984
-0.6833525762511439
0.10678946103665457
-0.6772023200356984
-0.6846427113424176
0.10571553159397584
-0.6790700781755313
-0.6846427113424176
0.10571553159397584
-0.6790700781755313
-0.6846427113424176
0.10571553159397584
-0.6790700781755313
-0.6846427113424176
0.10571553159397584
-0.6790700781755313
-0.6857036290633471
0.10505661997101558
-0.680825873215695
-0.6857036290633471
0.10505661997101558
-0.680825873215695
-0.6857036290633471
0.10505661997101558
-0.680825873215695
-0.6857036290633471
0.10505661997101558
-0.680825873215695
-0.6843664932276191
0.10383985153077423
-0.6828559194967321
-0.6843664932276191
0.10383985153077423
-0.6828559194967321
-0.6843664932276191
0.10383985153077423
-0.6828559194967321
-0.6843664932276191
0.10383985153077423
-0.6828559194967321
-0.6826285681145761
0.10203275283610086
-0.6837914939051335
-0.6826285681145761
0.10203275283610086
-0.6837914939051335
-0.6826285681145761
0.10203275283610086
-0.6837914939051335
-0.6826285681145761
0.10203275283610086
-0.6837914939051335
-0.6854726634870829
0.1013142225564359
-0.6834950001018805
-0.6854726634870829
0.1013142225564359
-0.6834950001018805
-0.6854726634870829
0.1013142225564359
-0.6834950001018805
-0.6854726634870829
0.1013142225564359
-0.6834950001018805
-0.6914333658603432
0.1014617344359848
-0.6828252645338635
-0.6914333658603432
0.1014617344359848
-0.6828252645338635
-0.6914333658603432
0.1014617344359848
-0.6828252645338635
-0.6914333658603432
0.1014617344359848
-0.6828252645338635
-0.6943580791067511
0.10297690919098262
-0.6815712728034934
-0.6943580791067511
0.10297690919098262
-0.6815712728034934
-0.6943580791067511
0.10297690919098262
-0.6815712728034934
-0.6943580791067511
0.10297690919098262
-0.6815712728034934
-0.6942085246767333
0.10535345001658966
-0.678067668587424
-0.6942085246767333
0.10535345001658966
-0.678067668587424
-0.6942085246767333
0.10535345001658966
-0.678067668587424
-0.6942085246767333
0.10535345001658966
-0.678067668587424
-0.688554042124526
0.10776803733812161
-0.6728949258503583
-0.688554042124526
0.10776803733812161
-0.6728949258503583
-0.688554042124526
0.10776803733812161
-0.6728949258503583
-0.688554042124526
0.10776803733812161
-0.6728949258503583
-0.6770710497115455
0.11068756138727968
-0.6652553748420672
-0.6770710497115455
0.11068756138727968
-0.6652553748420672
-0.6770710497115455
0.11068756138727968
-0.6652553748420672
-0.6770710497115455
0.11068756138727968
-0.6652553748420672
-0.6618978876062707
0.11285911339926306
-0.6540284686645168
-0.6618978876062707
0.11285911339926306
-0.6540284686645168
-0.6618978876062707
0.11285911339926306
-0.6540284686645168
-0.6618978876062707
0.11285911339926306
-0.6540284686645168
-0.6475350347923051
0.11386606470885782
-0.6404785541536677
-0.6475350347923051
0.11386606470885782
-0.6404785541536677
-0.6475350347923051
0.11386606470885782
-0.6404785541536677
-0.6475350347923051
0.11386606470885782
-0.6404785541536677
-0.6317825132618627
0.11214232132210056
-0.6294671635205733
-0.6317825132618627
0.11214232132210056
-0.6294671635205733
-0.6317825132618627
0.11214232132210056
-0.6294671635205733
-0.6317825132618627
0.11214232132210056
-0.6294671635205733
-0.6190304515623044
0.10824888303471725
-0.6226254842205813
-0.6190304515623044
0.10824888303471725
-0.6226254842205813
-0.6190304515623044
0.10824888303471725
-0.6226254842205813
-0.6190304515623044
0.10824888303471725
-0.6226254842205813
-0.6081359273536553
0.10027503365096253
-0.6179123857969695
-0.6081359273536553
0.10027503365096253
-0.6179123857969695
-0.6081359273536553
0.10027503365096253
-0.6179123857969695
-0.6081359273536553
0.10027503365096253
-0.6179123857969695
-0.5989875235201394
0.09070085215409754
-0.6154697034200822
-0.5989875235201394
0.09070085215409754
-0.6154697034200822
-0.5989875235201394
0.09070085215409754
-0.6154697034200822
-0.5989875235201394
0.09070085215409754
-0.6154697034200822
-0.5879734442111112
0.08016805692475087
-0.6151067494693289
-0.5879734442111112
0.08016805692475087
-0.6151067494693289
-0.5879734442111112
0.08016805692475087
-0.6151067494693289
-0.5879734442111112
0.08016805692475087
-0.6151067494693289
-0.5798308430388729
0.070356205450125
-0.6149956853482015
-0.5798308430388729
0.070356205450125
-0.6149956853482015
-0.5798308430388729
0.070356205450125
-0.6149956853482015
-0.5798308430388729
0.070356205450125
-0.6149956853482015
-0.577060437996787
0.06198941750403665
-0.6148499098197799
-0.577060437996787
0.06198941750403665
-0.6148499098197799
-0.577060437996787
0.06198941750403665
-0.6148499098197799
-0.577060437996787
0.06198941750403665
-0.6148499098197799
-0.5774591947135308
0.05500278810968194
-0.6135919643613024
-0.5774591947135308
0.05500278810968194
-0.6135919643613024
-0.5774591947135308
0.05500278810968194
-0.6135919643613024
-0.5774591947135308
0.05500278810968194
-0.6135919643613024
-0.5801199221623126
0.04899168270824902
-0.612063802293764
-0.5801199221623126
0.04899168270824902
-0.612063802293764
-0.5801199221623126
0.04899168270824902
-0.612063802293764
-0.5801199221623126
0.04899168270824902
-0.612063802293764
-0.5823611763363818
0.04339617046818511
-0.6114018028166883
-0.5823611763363818
0.04339617046818511
-0.6114018028166883
-0.5823611763363818
0.04339617046818511
-0.6114018028166883
-0.5823611763363818
0.04339617046818511
-0.6114018028166883
-0.5820611537763419
0.038195307364161574
-0.6116540095333529
-0.5820611537763419
0.038195307364161574
-0.6116540095333529
-0.5820611537763419
0.038195307364161574
-0.6116540095333529
-0.5820611537763419
0.038195307364161574
-0.6116540095333529
-0.5798768342709056
0.033568826030713615
-0.6124186962191028
-0.5798768342709056
0.033568826030713615
-0.6124186962191028
-0.5798768342709056
0.033568826030713615
-0.6124186962191028
-0.5798768342709056
0.033568826030713615
-0.6124186962191028
-0.5786559709336104
0.02993717732409959
-0.6132991223168689
-0.5786559709336104
0.02993717732409959
-0.6132991223168689
-0.5786559709336104
0.02993717732409959
-0.6132991223168689
-0.5786559709336104
0.02993717732409959
-0.6132991223168689
-0.5790600076358291
0.027895013643069906
-0.6130162821189361
-0.5790600076358291
0.027895013643069906
-0.6130162821189361
-0.5790600076358291
0.027895013643069906
-0.6130162821189361
-0.5790600076358291
0.027895013643069906
-0.6130162821189361
-0.5791548184362126
0.027046236854421542
-0.6116781529521063
-0.5791548184362126
0.027046236854421542
-0.6116781529521063
-0.5791548184362126
0.027046236854421542
-0.6116781529521063
-0.5791548184362126
0.027046236854421542
-0.6116781529521063
-0.5781530609954373
0.027231678329044974
-0.6103131509869946
-0.5781530609954373
0.027231678329044974
-0.6103131509869946
-0.5781530609954373
0.027231678329044974
-0.6103131509869946
-0.5781530609954373
0.027231678329044974
-0.6103131509869946
-0.5775921297138221
0.02853386467045732
-0.6100919773338387
-0.5775921297138221
0.02853386467045732
-0.6100919773338387
-0.5775921297138221
0.02853386467045732
-0.6100919773338387
-0.5775921297138221
0.02853386467045732
-0.6100919773338387
-0.576522705736834
0.030539688984849173
-0.6103138375937922
-0.576522705736834
0.030539688984849173
-0.6103138375937922
-0.576522705736834
0.030539688984849173
-0.6103138375937922
-0.576522705736834
0.030539688984849173
-0.6103138375937922
-0.5747151796716826
0.0326571592909587
-0.610515752891377
-0.5747151796716826
0.0326571592909587
-0.610515752891377
-0.5747151796716826
0.0326571592909587
-0.610515752891377
-0.5747151796716826
0.0326571592909587
-0.610515752891377
-0.5745619187671891
0.0351322395189138
-0.6104395050564881
-0.5745619187671891
0.0351322395189138
-0.6104395050564881
-0.5745619187671891
0.0351322395189138
-0.6104395050564881
-0.5745619187671891
0.0351322395189138
-0.6104395050564881
-0.5773409481648968
0.038137953262080485
-0.6113679803718831
-0.5773409481648968
0.038137953262080485
-0.6113679803718831
-0.5773409481648968
0.038137953262080485
-0.6113679803718831
-0.5773409481648968
0.038137953262080485
-0.6113679803718831
-0.584145462862308
0.041902425892139376
-0.6136852354684406
-0.584145462862308
0.041902425892139376
-0.6136852354684406
-0.584145462862308
0.041902425892139376
-0.6136852354684406
-0.584145462862308
0.041902425892139376
-0.6136852354684406
-0.5890171651310598
0.04581672819039332
-0.615757050855784
-0.5890171651310598
0.04581672819039332
-0.615757050855784
-0.5890171651310598
0.04581672819039332
-0.615757050855784
-0.5890171651310598
0.04581672819039332
-0.615757050855784
-0.5918694976023664
0.049835961419737035
-0.617722936534791
-0.5918694976023664
0.049835961419737035
-0.617722936534791
-0.5918694976023664
0.049835961419737035
-0.617722936534791
-0.5918694976023664
0.049835961419737035
-0.617722936534791
-0.5936786697743569
0.053297531284024466
-0.6209178109803928
-0.5936786697743569
0.053297531284024466
-0.6209178109803928
-0.5936786697743569
0.053297531284024466
-0.6209178109803928
-0.5936786697743569
0.053297531284024466
-0.6209178109803928
-0.5973607769759547
0.0564787430911756
-0.6280033487646635
-0.5973607769759547
0.0564787430911756
-0.6280033487646635
-0.5973607769759547
0.0564787430911756
-0.6280033487646635
-0.5973607769759547
0.0564787430911756
-0.6280033487646635
-0.603789441612492
0.06008075860114996
-0.6392416748108082
-0.603789441612492
0.06008075860114996
-0.6392416748108082
-0.603789441612492
0.06008075860114996
-0.6392416748108082
-0.603789441612492
0.06008075860114996
-0.6392416748108082
-0.6153748830733055
0.06361522463093736
-0.6512417608846239
-0.6153748830733055
0.06361522463093736
-0.6512417608846239
-0.6153748830733055
0.06361522463093736
-0.6512417608846239
-0.6153748830733055
0.06361522463093736
-0.6512417608846239
-0.6319937396256873
0.0662124269873568
-0.661905786426325
-0.6319937396256873
0.0662124269873568
-0.661905786426325
-0.6319937396256873
0.0662124269873568
-0.661905786426325
-0.6319937396256873
0.0662124269873568
-0.661905786426325
-0.6484400352218391
0.0683619527637342
-0.6707623823442299
-0.6484400352218391
0.0683619527637342
-0.6707623823442299
-0.6484400352218391
0.0683619527637342
-0.6707623823442299
-0.6484400352218391
0.0683619527637342
-0.6707623823442299
-0.6619627829791352
0.0701781566852372
-0.6783655306176394
-0.6619627829791352
0.0701781566852372
-0.6783655306176394
-0.6619627829791352
0.0701781566852372
-0.6783655306176394
-0.6619627829791352
0.0701781566852372
-0.6783655306176394
-0.672722788725022
0.07120842160849504
-0.6852255746618906
-0.672722788725022
0.07120842160849504
-0.6852255746618906
-0.672722788725022
0.07120842160849504
-0.6852255746618906
-0.672722788725022
0.07120842160849504
-0.6852255746618906
-0.6762129991921331
0.07261248157127745
-0.6909472172109759
-0.6762129991921331
0.07261248157127745
-0.6909472172109759
-0.6762129991921331
0.07261248157127745
-0.6909472172109759
-0.6762129991921331
0.07261248157127745
-0.6909472172109759
-0.6721048355758709
0.0738402419837569
-0.6940172481060531
-0.6721048355758709
0.0738402419837569
-0.6940172481060531
-0.6721048355758709
0.0738402419837569
-0.6940172481060531
-0.6721048355758709
0.0738402419837569
-0.6940172481060531
-0.6747670604206749
0.07377511024711
-0.6963260745442577
-0.6747670604206749
0.07377511024711
-0.6963260745442577
-0.6747670604206749
0.07377511024711
-0.6963260745442577
-0.6747670604206749
0.07377511024711
-0.6963260745442577
-0.6829297617174124
0.07149236866500829
-0.6942517306408662
-0.6829297617174124
0.07149236866500829
-0.6942517306408662
-0.6829297617174124
0.07149236866500829
-0.6942517306408662
-0.6829297617174124
0.07149236866500829
-0.6942517306408662
-0.6838920505053222
0.0720884770029693
-0.6887260916725048
-0.6838920505053222
0.0720884770029693
-0.6887260916725048
-0.6838920505053222
0.0720884770029693
-0.6887260916725048
-0.6838920505053222
0.0720884770029693
-0.6887260916725048
-0.6800079347887881
0.08006681171623457
-0.6838843542269136
-0.6800079347887881
0.08006681171623457
-0.6838843542269136
-0.6800079347887881
0.08006681171623457
-0.6838843542269136
-0.6800079347887881
0.08006681171623457
-0.6838843542269136
-0.6726245713585617
0.09137960394034447
-0.6803370659943223
-0.6726245713585617
0.09137960394034447
-0.6803370659943223
-0.6726245713585617
0.09137960394034447
-0.6803370659943223
-0.6726245713585617
0.09137960394034447
-0.6803370659943223
-0.6667098372008858
0.10324432495067513
-0.6760083114948757
-0.6667098372008858
0.10324432495067513
-0.6760083114948757
-0.6667098372008858
0.10324432495067513
-0.6760083114948757
-0.6667098372008858
0.10324432495067513
-0.6760083114948757
-0.6663364324719072
0.11125949347668915
-0.672590393210314
-0.6663364324719072
0.11125949347668915
-0.672590393210314
-0.6663364324719072
0.11125949347668915
-0.672590393210314
-0.6663364324719072
0.11125949347668915
-0.672590393210314
-0.6683113843624804
0.10966640122921
-0.6724835982789059
-0.6683113843624804
0.10966640122921
-0.6724835982789059
-0.6683113843624804
0.10966640122921
-0.6724835982789059
-0.6683113843624804
0.10966640122921
-0.6724835982789059
-0.6706302372205024
0.10140612154790773
-0.6734220692930138
-0.6706302372205024
0.10140612154790773
-0.6734220692930138
-0.6706302372205024
0.10140612154790773
-0.6734220692930138
-0.6706302372205024
0.10140612154790773
-0.6734220692930138
-0.6689076079329151
0.09316380604398153
-0.6746288837038523
-0.6689076079329151
0.09316380604398153
-0.6746288837038523
-0.6689076079329151
0.09316380604398153
-0.6746288837038523
-0.6689076079329151
0.09316380604398153
-0.6746288837038523
-0.6665069303030627
0.09233324432891526
-0.67585156502461
-0.6665069303030627
0.09233324432891526
-0.67585156502461
-0.6665069303030627
0.09233324432891526
-0.67585156502461
-0.6665069303030627
0.09233324432891526
-0.67585156502461
-0.6668144247108683
0.09522001011061493
-0.6771963670375147
-0.6668144247108683
0.09522001011061493
-0.6771963670375147
-0.6668144247108683
0.09522001011061493
-0.6771963670375147
-0.6668144247108683
0.09522001011061493
-0.6771963670375147
-0.66883419608432
0.09714208576380791
-0.6793236103954963
-0.66883419608432
0.09714208576380791
-0.6793236103954963
-0.66883419608432
0.09714208576380791
-0.6793236103954963
-0.66883419608432
0.09714208576380791
-0.6793236103954963
-0.6718610712927672
0.09522074185883417
-0.6820097155954916
-0.6718610712927672
0.09522074185883417
-0.6820097155954916
-0.6718610712927672
0.09522074185883417
-0.6820097155954916
-0.6718610712927672
0.09522074185883417
-0.6820097155954916
-0.6743787104224294
0.09154306963110849
-0.6838434679969858
-0.6743787104224294
0.09154306963110849
-0.6838434679969858
-0.6743787104224294
0.09154306963110849
-0.6838434679969858
-0.6743787104224294
0.09154306963110849
-0.6838434679969858
-0.6757219124837212
0.09053316816976602
-0.6850741940944306
-0.6757219124837212
0.09053316816976602
-0.6850741940944306
-0.6757219124837212
0.09053316816976602
-0.6850741940944306
-0.6757219124837212
0.09053316816976602
-0.6850741940944306
-0.6760139503228629
0.09219392241217068
-0.685592756819745
-0.6760139503228629
0.09219392241217068
-0.685592756819745
-0.6760139503228629
0.09219392241217068
-0.685592756819745
-0.6760139503228629
0.09219392241217068
-0.685592756819745
-0.6761900633158421
0.09553855285080654
-0.684937893457682
-0.6761900633158421
0.09553855285080654
-0.684937893457682
-0.6761900633158421
0.09553855285080654
-0.684937893457682
-0.6761900633158421
0.09553855285080654
-0.684937893457682
-0.6753402029353222
0.09895626211762344
-0.6838413745153232
-0.6753402029353222
0.09895626211762344
-0.6838413745153232
-0.6753402029353222
0.09895626211762344
-0.6838413745153232
-0.6753402029353222
0.09895626211762344
-0.6838413745153232
-0.6744045479117732
0.1009665168359348
-0.6828978069199749
-0.6744045479117732
0.1009665168359348
-0.6828978069199749
-0.6744045479117732
0.1009665168359348
-0.6828978069199749
-0.6744045479117732
0.1009665168359348
-0.6828978069199749
-0.6735881345546325
0.1022001546348688
-0.6817280977488571
-0.6735881345546325
0.1022001546348688
-0.6817280977488571
-0.6735881345546325
0.1022001546348688
-0.6817280977488571
-0.6735881345546325
0.1022001546348688
-0.6817280977488571
-0.6730766972051907
0.10340017440895052
-0.6810957140275483
-0.6730766972051907
0.10340017440895052
-0.6810957140275483
-0.6730766972051907
0.10340017440895052
-0.6810957140275483
-0.6730766972051907
0.10340017440895052
-0.6810957140275483
-0.6731750332532873
0.10471817942606565
-0.6803763494809233
-0.6731750332532873
0.10471817942606565
-0.6803763494809233
-0.6731750332532873
0.10471817942606565
-0.6803763494809233
-0.6731750332532873
0.10471817942606565
-0.6803763494809233
-0.6749692808708194
0.1060120488216148
-0.6800769370718064
-0.6749692808708194
0.1060120488216148
-0.6800769370718064
-0.6749692808708194
0.1060120488216148
-0.6800769370718064
-0.6749692808708194
0.1060120488216148
-0.6800769370718064
-0.6768925639259263
0.1066460374169304
-0.6803740504871568
-0.6768925639259263
0.1066460374169304
-0.6803740504871568
-0.6768925639259263
0.1066460374169304
-0.6803740504871568
-0.6768925639259263
0.1066460374169304
-0.6803740504871568
-0.6785546498984539
0.10672042736917317
-0.6809916917467127
-0.6785546498984539
0.10672042736917317
-0.6809916917467127
-0.6785546498984539
0.10672042736917317
-0.6809916917467127
-0.6785546498984539
0.10672042736917317
-0.6809916917467127
-0.6800819930296383
0.10720526783344413
-0.6817063110389034
-0.6800819930296383
0.10720526783344413
-0.6817063110389034
-0.6800819930296383
0.10720526783344413
-0.6817063110389034
-0.6800819930296383
0.10720526783344413
-0.6817063110389034
-0.6807414831917034
0.10754420059948923
-0.6824815210335149
-0.6807414831917034
0.10754420059948923
-0.6824815210335149
-0.6807414831917034
0.10754420059948923
-0.6824815210335149
-0.6807414831917034
0.10754420059948923
-0.6824815210335149
-0.6806881995708096
0.1080554045004092
-0.6826597848991024
-0.6806881995708096
0.1080554045004092
-0.6826597848991024
-0.6806881995708096
0.1080554045004092
-0.6826597848991024
-0.6806881995708096
0.1080554045004092
-0.6826597848991024
-0.6806427881938704
0.10860704322154575
-0.6827298649480202
-0.6806427881938704
0.10860704322154575
-0.6827298649480202
-0.6806427881938704
0.10860704322154575
-0.6827298649480202
-0.6806427881938704
0.10860704322154575
-0.6827298649480202
-0.6806427881938704
0.10860704322154575
-0.6827298649480202
-0.6806427881938704
0.10860704322154575
-0.6827298649480202
-0.6806427881938704
0.10860704322154575
-0.6827298649480202
-0.6806427881938704
0.10860704322154575
-0.6827298649480202
-0.6811552252190969
0.10756283059533235
-0.6824312531185739
-0.6811552252190969
0.10756283059533235
-0.6824312531185739
-0.6811552252190969
0.10756283059533235
-0.6824312531185739
-0.6811552252190969
0.10756283059533235
-0.6824312531185739
-0.6815111467734487
0.10641127037048083
-0.6822075255753904
-0.6815111467734487
0.10641127037048083
-0.6822075255753904
-0.6815111467734487
0.10641127037048083
-0.6822075255753904
-0.6815111467734487
0.10641127037048083
-0.6822075255753904
-0.6810209249463856
0.10551833925447973
-0.6820659175943962
-0.6810209249463856
0.10551833925447973
-0.6820659175943962
-0.6810209249463856
0.10551833925447973
-0.6820659175943962
-0.6810209249463856
0.10551833925447973
-0.6820659175943962
-0.6798927790483272
0.10464719799599945
-0.6820997708345836
-0.6798927790483272
0.10464719799599945
-0.6820997708345836
-0.6798927790483272
0.10464719799599945
-0.6820997708345836
-0.6798927790483272
0.10464719799599945
-0.6820997708345836
-0.679744051049261
0.10469556486696964
-0.6820670652784274
-0.679744051049261
0.10469556486696964
-0.6820670652784274
-0.679744051049261
0.10469556486696964
-0.6820670652784274
-0.679744051049261
0.10469556486696964
-0.6820670652784274
-0.680027829591114
0.10435111741673397
-0.6820027360124241
-0.680027829591114
0.10435111741673397
-0.6820027360124241
-0.680027829591114
0.10435111741673397
-0.6820027360124241
-0.680027829591114
0.10435111741673397
-0.6820027360124241
-0.6804524495527782
0.10403350602984014
-0.6820790322079736
-0.6804524495527782
0.10403350602984014
-0.6820790322079736
-0.6804524495527782
0.10403350602984014
-0.6820790322079736
-0.6804524495527782
0.10403350602984014
-0.6820790322079736
-0.6808745686656437
0.10376719440944374
-0.6825014348456669
-0.6808745686656437
0.10376719440944374
-0.6825014348456669
-0.6808745686656437
0.10376719440944374
-0.6825014348456669
-0.6808745686656437
0.10376719440944374
-0.6825014348456669
-0.6805018084489824
0.1036465406985776
-0.6831745161717813
-0.6805018084489824
0.1036465406985776
-0.6831745161717813
-0.6805018084489824
0.1036465406985776
-0.6831745161717813
-0.6805018084489824
0.1036465406985776
-0.6831745161717813
-0.6800777210644398
0.1037548333328914
-0.6836798552127417
-0.6800777210644398
0.1037548333328914
-0.6836798552127417
-0.6800777210644398
0.1037548333328914
-0.6836798552127417
-0.6800777210644398
0.1037548333328914
-0.6836798552127417
-0.6799311042340965
0.10319564165102613
-0.6838829791397663
-0.6799311042340965
0.10319564165102613
-0.6838829791397663
-0.6799311042340965
0.10319564165102613
-0.6838829791397663
-0.6799311042340965
0.10319564165102613
-0.6838829791397663
-0.6808608135925951
0.10265914057181047
-0.6841160568960392
-0.6808608135925951
0.10265914057181047
-0.6841160568960392
-0.6808608135925951
0.10265914057181047
-0.6841160568960392
-0.6808608135925951
0.10265914057181047
-0.6841160568960392
-0.6817267802601943
0.10296994782944782
-0.6844004200508359
-0.6817267802601943
0.10296994782944782
-0.6844004200508359
-0.6817267802601943
0.10296994782944782
-0.6844004200508359
-0.6817267802601943
0.10296994782944782
-0.6844004200508359
-0.6819446572251169
0.10375506768483801
-0.6847335694840135
-0.6819446572251169
0.10375506768483801
-0.6847335694840135
-0.6819446572251169
0.10375506768483801
-0.6847335694840135
-0.6819446572251169
0.10375506768483801
-0.6847335694840135
-0.681567552087019
0.10450355269812721
-0.6849363123326301
-0.681567552087019
0.10450355269812721
-0.6849363123326301
-0.681567552087019
0.10450355269812721
-0.6849363123326301
-0.681567552087019
0.10450355269812721
-0.6849363123326301
-0.6816206008745416
0.10546647048813829
-0.6848716865451011
-0.6816206008745416
0.10546647048813829
-0.6848716865451011
-0.6816206008745416
0.10546647048813829
-0.6848716865451011
-0.6816206008745416
0.10546647048813829
-0.6848716865451011
-0.681971124992445
0.10633225050259572
-0.6848728698079606
-0.681971124992445
0.10633225050259572
-0.6848728698079606
-0.681971124992445
0.10633225050259572
-0.6848728698079606
-0.681971124992445
0.10633225050259572
-0.6848728698079606
-0.6816167584772512
0.10748425518655323
-0.6850970333866724
-0.6816167584772512
0.10748425518655323
-0.6850970333866724
-0.6816167584772512
0.10748425518655323
-0.6850970333866724
-0.6816167584772512
0.10748425518655323
-0.6850970333866724
-0.6812888681412133
0.10838070801839371
-0.6852315777087832
-0.6812888681412133
0.10838070801839371
-0.6852315777087832
-0.6812888681412133
0.10838070801839371
-0.6852315777087832
-0.6812888681412133
0.10838070801839371
-0.6852315777087832
-0.681301006449475
0.10923602827411198
-0.685126201738876
-0.681301006449475
0.10923602827411198
-0.685126201738876
-0.681301006449475
0.10923602827411198
-0.685126201738876
-0.681301006449475
0.10923602827411198
-0.685126201738876
-0.6814091097395366
0.10919534258219481
-0.6851183902901288
-0.6814091097395366
0.10919534258219481
-0.6851183902901288
-0.6814091097395366
0.10919534258219481
-0.6851183902901288
-0.6814091097395366
0.10919534258219481
-0.6851183902901288
-0.6817964431287331
0.10935382892381831
-0.6851579793164971
-0.6817964431287331
0.10935382892381831
-0.6851579793164971
-0.6817964431287331
0.10935382892381831
-0.6851579793164971
-0.6817964431287331
0.10935382892381831
-0.6851579793164971
-0.6820351625477572
0.10967598969164094
-0.6851643249709788
-0.6820351625477572
0.10967598969164094
-0.6851643249709788
-0.6820351625477572
0.10967598969164094
-0.6851643249709788
-0.6820351625477572
0.10967598969164094
-0.6851643249709788
-0.6819653232690339
0.11031644488935559
-0.6849777181640092
-0.6819653232690339
0.11031644488935559
-0.6849777181640092
-0.6819653232690339
0.11031644488935559
-0.6849777181640092
-0.6819653232690339
0.11031644488935559
-0.6849777181640092
-0.6819781170656058
0.11100493230228224
-0.6845261814733936
-0.6819781170656058
0.11100493230228224
-0.6845261814733936
-0.6819781170656058
0.11100493230228224
-0.6845261814733936
-0.6819781170656058
0.11100493230228224
-0.6845261814733936
-0.6825200354978229
0.11159658570419363
-0.6839095674650765
-0.6825200354978229
0.11159658570419363
-0.6839095674650765
-0.6825200354978229
0.11159658570419363
-0.6839095674650765
-0.6825200354978229
0.11159658570419363
-0.6839095674650765
-0.6828710335496477
0.11229610072772063
-0.6835655985503758
-0.6828710335496477
0.11229610072772063
-0.6835655985503758
-0.6828710335496477
0.11229610072772063
-0.6835655985503758
-0.6828710335496477
0.11229610072772063
-0.6835655985503758
-0.6833147200761632
0.11287382155981888
-0.6834304474224062
-0.6833147200761632
0.11287382155981888
-0.6834304474224062
-0.6833147200761632
0.11287382155981888
-0.6834304474224062
-0.6833147200761632
0.11287382155981888
-0.6834304474224062
-0.6838179351349897
0.11314786221889127
-0.6833550793228411
-0.6838179351349897
0.11314786221889127
-0.6833550793228411
-0.6838179351349897
0.11314786221889127
-0.6833550793228411
-0.6838179351349897
0.11314786221889127
-0.6833550793228411
-0.6844555155462946
0.11312585326122124
-0.6831826622120134
-0.6844555155462946
0.11312585326122124
-0.6831826622120134
-0.6844555155462946
0.11312585326122124
-0.6831826622120134
-0.6844555155462946
0.11312585326122124
-0.6831826622120134
-0.6852235211833604
0.11335190476610646
-0.6830250841168228
-0.6852235211833604
0.11335190476610646
-0.6830250841168228
-0.6852235211833604
0.11335190476610646
-0.6830250841168228
-0.6852235211833604
0.11335190476610646
-0.6830250841168228
-0.6857750839093917
0.11388923846293679
-0.6828832409276
-0.6857750839093917
0.11388923846293679
-0.6828832409276
-0.6857750839093917
0.11388923846293679
-0.6828832409276
-0.6857750839093917
0.11388923846293679
-0.6828832409276
-0.6861888643575003
0.11390796221384633
-0.6828343273065528
-0.6861888643575003
0.11390796221384633
-0.6828343273065528
-0.6861888643575003
0.11390796221384633
-0.6828343273065528
-0.6861888643575003
0.11390796221384633
-0.6828343273065528
-0.6860024163853091
0.11335606573508249
-0.6829942039135877
-0.6860024163853091
0.11335606573508249
-0.6829942039135877
-0.6860024163853091
0.11335606573508249
-0.6829942039135877
-0.6860024163853091
0.11335606573508249
-0.6829942039135877
-0.6855588815391325
0.1127780938136166
-0.6831284678289415
-0.6855588815391325
0.1127780938136166
-0.6831284678289415
-0.6855588815391325
0.1127780938136166
-0.6831284678289415
-0.6855588815391325
0.1127780938136166
-0.6831284678289415
-0.6851015136954619
0.11167100864849135
-0.6827856277458185
-0.6851015136954619
0.11167100864849135
-0.6827856277458185
-0.6851015136954619
0.11167100864849135
-0.6827856277458185
-0.6851015136954619
0.11167100864849135
-0.6827856277458185
-0.6851839661339645
0.11052721574122569
-0.6827511591781562
-0.6851839661339645
0.11052721574122569
-0.6827511591781562
-0.6851839661339645
0.11052721574122569
-0.6827511591781562
-0.6851839661339645
0.11052721574122569
-0.6827511591781562
-0.6854929006593597
0.11009376939752294
-0.6829436552264743
-0.6854929006593597
0.11009376939752294
-0.6829436552264743
-0.6854929006593597
0.11009376939752294
-0.6829436552264743
-0.6854929006593597
0.11009376939752294
-0.6829436552264743
-0.6849332108688906
0.10963079071141663
-0.6831947863197395
-0.6849332108688906
0.10963079071141663
-0.6831947863197395
-0.6849332108688906
0.10963079071141663
-0.6831947863197395
-0.6849332108688906
0.10963079071141663
-0.6831947863197395
-0.6846209744615972
0.10924941875698921
-0.6829981627161978
-0.6846209744615972
0.10924941875698921
-0.6829981627161978
-0.6846209744615972
0.10924941875698921
-0.6829981627161978
-0.6846209744615972
0.10924941875698921
-0.6829981627161978
-0.6844169144906587
0.10882744068989045
-0.6827938205336134
-0.6844169144906587
0.10882744068989045
-0.6827938205336134
-0.6844169144906587
0.10882744068989045
-0.6827938205336134
-0.6844169144906587
0.10882744068989045
-0.6827938205336134
-0.6844513054736375
0.10861263671696969
-0.6825961259952819
-0.6844513054736375
0.10861263671696969
-0.6825961259952819
-0.6844513054736375
0.10861263671696969
-0.6825961259952819
-0.6844513054736375
0.10861263671696969
-0.6825961259952819
-0.6845530869403306
0.10824985674190798
-0.6823496783455373
-0.6845530869403306
0.10824985674190798
-0.6823496783455373
-0.6845530869403306
0.10824985674190798
-0.6823496783455373
-0.6845530869403306
0.10824985674190798
-0.6823496783455373
-0.6845530869403306
0.10824985674190798
-0.6823496783455373
-0.6845530869403306
0.10824985674190798
