-0.45803078436109884
0.0026839499605383803
-0.47948683409851567
-0.45803078436109884
0.0026839499605383803
-0.47948683409851567
-0.45803078436109884
0.0026839499605383803
-0.47948683409851567
-0.45803078436109884
0.0026839499605383803
-0.47948683409851567
-0.45816160614039736
0.00221945378599
-0.4791351681011869
-0.45816160614039736
0.00221945378599
-0.4791351681011869
-0.45816160614039736
0.00221945378599
-0.4791351681011869
-0.45816160614039736
0.00221945378599
-0.4791351681011869
-0.45835548551920313
0.0020129306767069683
-0.47872187706347474
-0.45835548551920313
0.0020129306767069683
-0.47872187706347474
-0.45835548551920313
0.0020129306767069683
-0.47872187706347474
-0.45835548551920313
0.0020129306767069683
-0.47872187706347474
-0.45896154763606267
0.0014897808544593921
-0.47811314278319395
-0.45896154763606267
0.0014897808544593921
-0.47811314278319395
-0.45896154763606267
0.0014897808544593921
-0.47811314278319395
-0.45896154763606267
0.0014897808544593921
-0.47811314278319395
-0.4601442642354088
7.043986579879748E-4
-0.4774725267044838
-0.4601442642354088
7.043986579879748E-4
-0.4774725267044838
-0.4601442642354088
7.043986579879748E-4
-0.4774725267044838
-0.4601442642354088
7.043986579879748E-4
-0.4774725267044838
-0.4603699069213978
1.238652592350679E-4
-0.4769710881381765
-0.4603699069213978
1.238652592350679E-4
-0.4769710881381765
-0.4603699069213978
1.238652592350679E-4
-0.4769710881381765
-0.4603699069213978
1.238652592350679E-4
-0.4769710881381765
-0.4599808166100507
-7.391571792627925E-4
-0.4761006360706659
-0.4599808166100507
-7.391571792627925E-4
-0.4761006360706659
-0.4599808166100507
-7.391571792627925E-4
-0.4761006360706659
-0.4599808166100507
-7.391571792627925E-4
-0.4761006360706659
-0.45976392474660316
-0.001399419938260656
-0.47527790627051886
-0.45976392474660316
-0.001399419938260656
-0.47527790627051886
-0.45976392474660316
-0.001399419938260656
-0.47527790627051886
-0.45976392474660316
-0.001399419938260656
-0.47527790627051886
-0.45996946386851284
-0.0020683467596282045
-0.474633749531418
-0.45996946386851284
-0.0020683467596282045
-0.474633749531418
-0.45996946386851284
-0.0020683467596282045
-0.474633749531418
-0.45996946386851284
-0.0020683467596282045
-0.474633749531418
-0.46074909750701726
-0.0023865195980595205
-0.47407082666736705
-0.46074909750701726
-0.0023865195980595205
-0.47407082666736705
-0.46074909750701726
-0.0023865195980595205
-0.47407082666736705
-0.46074909750701726
-0.0023865195980595205
-0.47407082666736705
-0.46131119436357476
-0.002594374874476972
-0.4732900267975536
-0.46131119436357476
-0.002594374874476972
-0.4732900267975536
-0.46131119436357476
-0.002594374874476972
-0.4732900267975536
-0.46131119436357476
-0.002594374874476972
-0.4732900267975536
-0.4616363598820946
-0.002651119915296683
-0.4726373490441714
-0.4616363598820946
-0.002651119915296683
-0.4726373490441714
-0.4616363598820946
-0.002651119915296683
-0.4726373490441714
-0.4616363598820946
-0.002651119915296683
-0.4726373490441714
-0.4612826638498353
-0.002479789024488891
-0.4722829807166551
-0.4612826638498353
-0.002479789024488891
-0.4722829807166551
-0.4612826638498353
-0.002479789024488891
-0.4722829807166551
-0.4612826638498353
-0.002479789024488891
-0.4722829807166551
-0.4614259832032795
-0.0023920105962166997
-0.47230341200671516
-0.4614259832032795
-0.0023920105962166997
-0.47230341200671516
-0.4614259832032795
-0.0023920105962166997
-0.47230341200671516
-0.4614259832032795
-0.0023920105962166997
-0.47230341200671516
-0.4603451148059986
-0.00207463280841113
-0.4720766190186279
-0.4603451148059986
-0.00207463280841113
-0.4720766190186279
-0.4603451148059986
-0.00207463280841113
-0.4720766190186279
-0.4603451148059986
-0.00207463280841113
-0.4720766190186279
-0.45975418768165843
-0.0017529407766167277
-0.47185007538835233
-0.45975418768165843
-0.0017529407766167277
-0.47185007538835233
-0.45975418768165843
-0.0017529407766167277
-0.47185007538835233
-0.45975418768165843
-0.0017529407766167277
-0.47185007538835233
-0.4596386114131868
-0.0017251807248967021
-0.47185667677912985
-0.4596386114131868
-0.0017251807248967021
-0.47185667677912985
-0.4596386114131868
-0.0017251807248967021
-0.47185667677912985
-0.4596386114131868
-0.0017251807248967021
-0.47185667677912985
-0.4608088445788553
-0.0015536834875491824
-0.4715594587677496
-0.4608088445788553
-0.0015536834875491824
-0.4715594587677496
-0.4608088445788553
-0.0015536834875491824
-0.4715594587677496
-0.4608088445788553
-0.0015536834875491824
-0.4715594587677496
-0.4615167446369208
-0.0012709510633520929
-0.4712888527871277
-0.4615167446369208
-0.0012709510633520929
-0.4712888527871277
-0.4615167446369208
-0.0012709510633520929
-0.4712888527871277
-0.4615167446369208
-0.0012709510633520929
-0.4712888527871277
-0.4623678646988292
-9.001788015974619E-4
-0.4710390365515261
-0.4623678646988292
-9.001788015974619E-4
-0.4710390365515261
-0.4623678646988292
-9.001788015974619E-4
-0.4710390365515261
-0.4623678646988292
-9.001788015974619E-4
-0.4710390365515261
-0.4629540264571127
-4.944469357497337E-4
-0.47089049273517947
-0.4629540264571127
-4.944469357497337E-4
-0.47089049273517947
-0.4629540264571127
-4.944469357497337E-4
-0.47089049273517947
-0.4629540264571127
-4.944469357497337E-4
-0.47089049273517947
-0.46331085813118755
4.838392927921411E-4
-0.4707552953148843
-0.46331085813118755
4.838392927921411E-4
-0.4707552953148843
-0.46331085813118755
4.838392927921411E-4
-0.4707552953148843
-0.46331085813118755
4.838392927921411E-4
-0.4707552953148843
-0.46358441727599736
0.0011155956438719783
-0.470538577013472
-0.46358441727599736
0.0011155956438719783
-0.470538577013472
-0.46358441727599736
0.0011155956438719783
-0.470538577013472
-0.46358441727599736
0.0011155956438719783
-0.470538577013472
-0.4636480671734735
0.0018910704792202975
-0.4704777253632111
-0.4636480671734735
0.0018910704792202975
-0.4704777253632111
-0.4636480671734735
0.0018910704792202975
-0.4704777253632111
-0.4636480671734735
0.0018910704792202975
-0.4704777253632111
-0.4637184556230731
0.00281580348748071
-0.47030098808068976
-0.4637184556230731
0.00281580348748071
-0.47030098808068976
-0.4637184556230731
0.00281580348748071
-0.47030098808068976
-0.4637184556230731
0.00281580348748071
-0.47030098808068976
-0.46349586461575265
0.0035375729652662416
-0.4701978440384572
-0.46349586461575265
0.0035375729652662416
-0.4701978440384572
-0.46349586461575265
0.0035375729652662416
-0.4701978440384572
-0.46349586461575265
0.0035375729652662416
-0.4701978440384572
-0.46312322895687874
0.004022382991183851
-0.47018947635728237
-0.46312322895687874
0.004022382991183851
-0.47018947635728237
-0.46312322895687874
0.004022382991183851
-0.47018947635728237
-0.46312322895687874
0.004022382991183851
-0.47018947635728237
-0.46273045926531
0.0040300337631778
-0.470527215772525
-0.46273045926531
0.0040300337631778
-0.470527215772525
-0.46273045926531
0.0040300337631778
-0.470527215772525
-0.46273045926531
0.0040300337631778
-0.470527215772525
-0.46282660068940623
0.003798615135449496
-0.4708679828823475
-0.46282660068940623
0.003798615135449496
-0.4708679828823475
-0.46282660068940623
0.003798615135449496
-0.4708679828823475
-0.46282660068940623
0.003798615135449496
-0.4708679828823475
-0.46272379840548983
0.0032483663761639606
-0.4711332552446703
-0.46272379840548983
0.0032483663761639606
-0.4711332552446703
-0.46272379840548983
0.0032483663761639606
-0.4711332552446703
-0.46272379840548983
0.0032483663761639606
-0.4711332552446703
-0.4624716911738839
0.0027050335566491503
-0.4714927198417384
-0.4624716911738839
0.0027050335566491503
-0.4714927198417384
-0.4624716911738839
0.0027050335566491503
-0.4714927198417384
-0.4624716911738839
0.0027050335566491503
-0.4714927198417384
-0.4624716911738839
0.0027050335566491503
-0.4714927198417384
-0.4624716911738839
0.0027050335566491503
-0.4714927198417384
-0.4624716911738839
0.0027050335566491503
-0.4714927198417384
-0.4624716911738839
0.0027050335566491503
-0.4714927198417384
-0.4632390185081282
0.002729289420154961
-0.4711629073168449
-0.4632390185081282
0.002729289420154961
-0.4711629073168449
-0.4632390185081282
0.002729289420154961
-0.4711629073168449
-0.4632390185081282
0.002729289420154961
-0.4711629073168449
-0.4632390185081282
0.002729289420154961
-0.4711629073168449
-0.4632390185081282
0.002729289420154961
-0.4711629073168449
-0.4632390185081282
0.002729289420154961
-0.4711629073168449
-0.4632390185081282
0.002729289420154961
-0.4711629073168449
-0.4621725209505223
0.0031075135007254985
-0.47119190035766345
-0.4621725209505223
0.0031075135007254985
-0.47119190035766345
-0.4621725209505223
0.0031075135007254985
-0.47119190035766345
-0.4621725209505223
0.0031075135007254985
-0.47119190035766345
-0.45997765312510364
0.003605825609146779
-0.4713100121971274
-0.45997765312510364
0.003605825609146779
-0.4713100121971274
-0.45997765312510364
0.003605825609146779
-0.4713100121971274
-0.45997765312510364
0.003605825609146779
-0.4713100121971274
-0.45689194842629066
0.004195989802813745
-0.47138797914317193
-0.45689194842629066
0.004195989802813745
-0.47138797914317193
-0.45689194842629066
0.004195989802813745
-0.47138797914317193
-0.45689194842629066
0.004195989802813745
-0.47138797914317193
-0.452147230884691
0.005363589412293197
-0.47126152076057165
-0.452147230884691
0.005363589412293197
-0.47126152076057165
-0.452147230884691
0.005363589412293197
-0.47126152076057165
-0.452147230884691
0.005363589412293197
-0.47126152076057165
-0.4450274521724734
0.006910809414976442
-0.4708183456002739
-0.4450274521724734
0.006910809414976442
-0.4708183456002739
-0.4450274521724734
0.006910809414976442
-0.4708183456002739
-0.4450274521724734
0.006910809414976442
-0.4708183456002739
-0.4364990546068255
0.00714324269224372
-0.469099573323479
-0.4364990546068255
0.00714324269224372
-0.469099573323479
-0.4364990546068255
0.00714324269224372
-0.469099573323479
-0.4364990546068255
0.00714324269224372
-0.469099573323479
-0.42320347188078167
0.003921052430998395
-0.4653614968656007
-0.42320347188078167
0.003921052430998395
-0.4653614968656007
-0.42320347188078167
0.003921052430998395
-0.4653614968656007
-0.42320347188078167
0.003921052430998395
-0.4653614968656007
-0.3993121217744104
1.9302534107421977E-4
-0.4610864490526981
-0.3993121217744104
1.9302534107421977E-4
-0.4610864490526981
-0.3993121217744104
1.9302534107421977E-4
-0.4610864490526981
-0.3993121217744104
1.9302534107421977E-4
-0.4610864490526981
-0.36314970720623035
-0.00661359744824442
-0.45957422221766153
-0.36314970720623035
-0.00661359744824442
-0.45957422221766153
-0.36314970720623035
-0.00661359744824442
-0.45957422221766153
-0.36314970720623035
-0.00661359744824442
-0.45957422221766153
-0.30541749774887306
-0.007429415995262007
-0.4652386881841396
-0.30541749774887306
-0.007429415995262007
-0.4652386881841396
-0.30541749774887306
-0.007429415995262007
-0.4652386881841396
-0.30541749774887306
-0.007429415995262007
-0.4652386881841396
-0.22136418652573528
-0.0019419900918295249
-0.4825024950462249
-0.22136418652573528
-0.0019419900918295249
-0.4825024950462249
-0.22136418652573528
-0.0019419900918295249
-0.4825024950462249
-0.22136418652573528
-0.0019419900918295249
-0.4825024950462249
-0.11952098223848004
0.0025727786933590754
-0.4990094499650489
-0.11952098223848004
0.0025727786933590754
-0.4990094499650489
-0.11952098223848004
0.0025727786933590754
-0.4990094499650489
-0.11952098223848004
0.0025727786933590754
-0.4990094499650489
-0.03332777049904727
-0.0065999688280170875
-0.48442849731701815
-0.03332777049904727
-0.0065999688280170875
-0.48442849731701815
-0.03332777049904727
-0.0065999688280170875
-0.48442849731701815
-0.03332777049904727
-0.0065999688280170875
-0.48442849731701815
-0.02286592591879513
-0.023724834004428135
-0.4645456066610211
-0.02286592591879513
-0.023724834004428135
-0.4645456066610211
-0.02286592591879513
-0.023724834004428135
-0.4645456066610211
-0.02286592591879513
-0.023724834004428135
-0.4645456066610211
-0.04811457590610473
-0.03386979530570927
-0.4610026551407502
-0.04811457590610473
-0.03386979530570927
-0.4610026551407502
-0.04811457590610473
-0.03386979530570927
-0.4610026551407502
-0.04811457590610473
-0.03386979530570927
-0.4610026551407502
-0.04871624730186997
-0.037245138479812326
-0.46005003092303387
-0.04871624730186997
-0.037245138479812326
-0.46005003092303387
-0.04871624730186997
-0.037245138479812326
-0.46005003092303387
-0.04871624730186997
-0.037245138479812326
-0.46005003092303387
-0.019205182709404082
-0.043490572258180864
-0.45130376308680936
-0.019205182709404082
-0.043490572258180864
-0.45130376308680936
-0.019205182709404082
-0.043490572258180864
-0.45130376308680936
-0.019205182709404082
-0.043490572258180864
-0.45130376308680936
0.015616172931535055
-0.046913366365969565
-0.4447107710588442
0.015616172931535055
-0.046913366365969565
-0.4447107710588442
0.015616172931535055
-0.046913366365969565
-0.4447107710588442
0.015616172931535055
-0.046913366365969565
-0.4447107710588442
0.03261944478425484
-0.05211330023136696
-0.442254844226037
0.03261944478425484
-0.05211330023136696
-0.442254844226037
0.03261944478425484
-0.05211330023136696
-0.442254844226037
0.03261944478425484
-0.05211330023136696
-0.442254844226037
0.03435245615575044
-0.05761130529935092
-0.442063743923202
0.03435245615575044
-0.05761130529935092
-0.442063743923202
0.03435245615575044
-0.05761130529935092
-0.442063743923202
0.03435245615575044
-0.05761130529935092
-0.442063743923202
0.033440662367885454
-0.06082180695115687
-0.4418528262038781
0.033440662367885454
-0.06082180695115687
-0.4418528262038781
0.033440662367885454
-0.06082180695115687
-0.4418528262038781
0.033440662367885454
-0.06082180695115687
-0.4418528262038781
0.0362303904800232
-0.06157710332040216
-0.4415938327872087
0.0362303904800232
-0.06157710332040216
-0.4415938327872087
0.0362303904800232
-0.06157710332040216
-0.4415938327872087
0.0362303904800232
-0.06157710332040216
-0.4415938327872087
0.037348499978265
-0.06180891187396967
-0.44340821870513625
0.037348499978265
-0.06180891187396967
-0.44340821870513625
0.037348499978265
-0.06180891187396967
-0.44340821870513625
0.037348499978265
-0.06180891187396967
-0.44340821870513625
0.036432950577328045
-0.062360732484006566
-0.4458806723517918
0.036432950577328045
-0.062360732484006566
-0.4458806723517918
0.036432950577328045
-0.062360732484006566
-0.4458806723517918
0.036432950577328045
-0.062360732484006566
-0.4458806723517918
0.03153184298798514
-0.06244365091227277
-0.44845782336536216
0.03153184298798514
-0.06244365091227277
-0.44845782336536216
0.03153184298798514
-0.06244365091227277
-0.44845782336536216
0.03153184298798514
-0.06244365091227277
-0.44845782336536216
0.025342324853522398
-0.06183725683945856
-0.45101247225384034
0.025342324853522398
-0.06183725683945856
-0.45101247225384034
0.025342324853522398
-0.06183725683945856
-0.45101247225384034
0.025342324853522398
-0.06183725683945856
-0.45101247225384034
0.019796387780732238
-0.060717079649534184
-0.45406157185447626
0.019796387780732238
-0.060717079649534184
-0.45406157185447626
0.019796387780732238
-0.060717079649534184
-0.45406157185447626
0.019796387780732238
-0.060717079649534184
-0.45406157185447626
0.016625474671677073
-0.05956485422091844
-0.45733365832310896
0.016625474671677073
-0.05956485422091844
-0.45733365832310896
0.016625474671677073
-0.05956485422091844
-0.45733365832310896
0.016625474671677073
-0.05956485422091844
-0.45733365832310896
0.012391430240075189
-0.058792227238481265
-0.4600492540735902
0.012391430240075189
-0.058792227238481265
-0.4600492540735902
0.012391430240075189
-0.058792227238481265
-0.4600492540735902
0.012391430240075189
-0.058792227238481265
-0.4600492540735902
0.009444658666163182
-0.05773142943509562
-0.4620904102543358
0.009444658666163182
-0.05773142943509562
-0.4620904102543358
0.009444658666163182
-0.05773142943509562
-0.4620904102543358
0.009444658666163182
-0.05773142943509562
-0.4620904102543358
0.0100813452738531
-0.05557700786560565
-0.4626014120924561
0.0100813452738531
-0.05557700786560565
-0.4626014120924561
0.0100813452738531
-0.05557700786560565
-0.4626014120924561
0.0100813452738531
-0.05557700786560565
-0.4626014120924561
0.010933855832356816
-0.053368425040629414
-0.46234729993446777
0.010933855832356816
-0.053368425040629414
-0.46234729993446777
0.010933855832356816
-0.053368425040629414
-0.46234729993446777
0.010933855832356816
-0.053368425040629414
-0.46234729993446777
0.010821081058590882
-0.05188668283712301
-0.46180486603785414
0.010821081058590882
-0.05188668283712301
-0.46180486603785414
0.010821081058590882
-0.05188668283712301
-0.46180486603785414
0.010821081058590882
-0.05188668283712301
-0.46180486603785414
0.011437821918510584
-0.05136535277951105
-0.4613144509725804
0.011437821918510584
-0.05136535277951105
-0.4613144509725804
0.011437821918510584
-0.05136535277951105
-0.4613144509725804
0.011437821918510584
-0.05136535277951105
-0.4613144509725804
0.012310497029508259
-0.051914969125407474
-0.4609835889404727
0.012310497029508259
-0.051914969125407474
-0.4609835889404727
0.012310497029508259
-0.051914969125407474
-0.4609835889404727
0.012310497029508259
-0.051914969125407474
-0.4609835889404727
0.013310723504764994
-0.051929502364286555
-0.4607439975237973
0.013310723504764994
-0.051929502364286555
-0.4607439975237973
0.013310723504764994
-0.051929502364286555
-0.4607439975237973
0.013310723504764994
-0.051929502364286555
-0.4607439975237973
0.01566947785572915
-0.051878576434456675
-0.46030142453534584
0.01566947785572915
-0.051878576434456675
-0.46030142453534584
0.01566947785572915
-0.051878576434456675
-0.46030142453534584
0.01566947785572915
-0.051878576434456675
-0.46030142453534584
0.017136847621932814
-0.051787677247188815
-0.45971637913453545
0.017136847621932814
-0.051787677247188815
-0.45971637913453545
0.017136847621932814
-0.051787677247188815
-0.45971637913453545
0.017136847621932814
-0.051787677247188815
-0.45971637913453545
0.016483426580161897
-0.051690892857020436
-0.4595797447958631
0.016483426580161897
-0.051690892857020436
-0.4595797447958631
0.016483426580161897
-0.051690892857020436
-0.4595797447958631
0.016483426580161897
-0.051690892857020436
-0.4595797447958631
0.015121871180714399
-0.05175764226607477
-0.45966396134994036
0.015121871180714399
-0.05175764226607477
-0.45966396134994036
0.015121871180714399
-0.05175764226607477
-0.45966396134994036
0.015121871180714399
-0.05175764226607477
-0.45966396134994036
0.014534548298767424
-0.05139367466129538
-0.45964611103828046
0.014534548298767424
-0.05139367466129538
-0.45964611103828046
0.014534548298767424
-0.05139367466129538
-0.45964611103828046
0.014534548298767424
-0.05139367466129538
-0.45964611103828046
0.015336344683927167
-0.050080812760624996
-0.4589153729191853
0.015336344683927167
-0.050080812760624996
-0.4589153729191853
0.015336344683927167
-0.050080812760624996
-0.4589153729191853
0.015336344683927167
-0.050080812760624996
-0.4589153729191853
0.016609105968851814
-0.048155710753238934
-0.4576588163222248
0.016609105968851814
-0.048155710753238934
-0.4576588163222248
0.016609105968851814
-0.048155710753238934
-0.4576588163222248
0.016609105968851814
-0.048155710753238934
-0.4576588163222248
0.016407560376544696
-0.04632541839350825
-0.4566321067760783
0.016407560376544696
-0.04632541839350825
-0.4566321067760783
0.016407560376544696
-0.04632541839350825
-0.4566321067760783
0.016407560376544696
-0.04632541839350825
-0.4566321067760783
0.01632325418396418
-0.04496722783433799
-0.4558501649855881
0.01632325418396418
-0.04496722783433799
-0.4558501649855881
0.01632325418396418
-0.04496722783433799
-0.4558501649855881
0.01632325418396418
-0.04496722783433799
-0.4558501649855881
0.017707475374697114
-0.04452476227858381
-0.45513605773150634
0.017707475374697114
-0.04452476227858381
-0.45513605773150634
0.017707475374697114
-0.04452476227858381
-0.45513605773150634
0.017707475374697114
-0.04452476227858381
-0.45513605773150634
0.01893505315795977
-0.04499288018082706
-0.45478340434840364
0.01893505315795977
-0.04499288018082706
-0.45478340434840364
0.01893505315795977
-0.04499288018082706
-0.45478340434840364
0.01893505315795977
-0.04499288018082706
-0.45478340434840364
0.020185436910350914
-0.04608398498547546
-0.45458461021699453
0.020185436910350914
-0.04608398498547546
-0.45458461021699453
0.020185436910350914
-0.04608398498547546
-0.45458461021699453
0.020185436910350914
-0.04608398498547546
-0.45458461021699453
0.021344213475717057
-0.04732176381068899
-0.4543865736247964
0.021344213475717057
-0.04732176381068899
-0.4543865736247964
0.021344213475717057
-0.04732176381068899
-0.4543865736247964
0.021344213475717057
-0.04732176381068899
-0.4543865736247964
0.022953970691387552
-0.04832883570524586
-0.4543172529793831
0.022953970691387552
-0.04832883570524586
-0.4543172529793831
0.022953970691387552
-0.04832883570524586
-0.4543172529793831
0.022953970691387552
-0.04832883570524586
-0.4543172529793831
0.025263828214216494
-0.049678328959212086
-0.45403316863078674
0.025263828214216494
-0.049678328959212086
-0.45403316863078674
0.025263828214216494
-0.049678328959212086
-0.45403316863078674
0.025263828214216494
-0.049678328959212086
-0.45403316863078674
0.02753137258447693
-0.05078403009675364
-0.45425119824567745
0.02753137258447693
-0.05078403009675364
-0.45425119824567745
0.02753137258447693
-0.05078403009675364
-0.45425119824567745
0.02753137258447693
-0.05078403009675364
-0.45425119824567745
0.02767796332991079
-0.05087539282740856
-0.45425618725395994
0.02767796332991079
-0.05087539282740856
-0.45425618725395994
0.02767796332991079
-0.05087539282740856
-0.45425618725395994
0.02767796332991079
-0.05087539282740856
-0.45425618725395994
0.027705518738684647
-0.0509942743387437
-0.45425853649641346
0.027705518738684647
-0.0509942743387437
-0.45425853649641346
0.027705518738684647
-0.0509942743387437
-0.45425853649641346
0.027705518738684647
-0.0509942743387437
-0.45425853649641346
0.02767796332991079
-0.05087539282740856
-0.45425618725395994
0.02767796332991079
-0.05087539282740856
-0.45425618725395994
0.02767796332991079
-0.05087539282740856
-0.45425618725395994
0.02767796332991079
-0.05087539282740856
-0.45425618725395994
0.02767796332991079
-0.05087539282740856
-0.45425618725395994
0.02767796332991079
-0.05087539282740856
-0.45425618725395994
0.02767796332991079
-0.05087539282740856
-0.45425618725395994
0.02767796332991079
-0.05087539282740856
-0.45425618725395994
0.02767796332991079
-0.05087539282740856
-0.45425618725395994
0.02767796332991079
-0.05087539282740856
-0.45425618725395994
0.02767796332991079
-0.05087539282740856
-0.45425618725395994
0.02767796332991079
-0.05087539282740856
-0.45425618725395994
0.02767796332991079
-0.05087539282740856
-0.45425618725395994
0.02767796332991079
-0.05087539282740856
-0.45425618725395994
0.02767796332991079
-0.05087539282740856
-0.45425618725395994
0.02767796332991079
-0.05087539282740856
-0.45425618725395994
0.028660423846834964
-0.05077170544907244
-0.4543987014208918
0.028660423846834964
-0.05077170544907244
-0.4543987014208918
0.028660423846834964
-0.05077170544907244
-0.4543987014208918
0.028660423846834964
-0.05077170544907244
-0.4543987014208918
0.02978942365509307
-0.05075921503018194
-0.45454618408715647
0.02978942365509307
-0.05075921503018194
-0.45454618408715647
0.02978942365509307
-0.05075921503018194
-0.45454618408715647
0.02978942365509307
-0.05075921503018194
-0.45454618408715647
0.02978942365509307
-0.05075921503018194
-0.45454618408715647
0.02978942365509307
-0.05075921503018194
-0.45454618408715647
0.02978942365509307
-0.05075921503018194
-0.45454618408715647
0.02978942365509307
-0.05075921503018194
-0.45454618408715647
0.030439689139845048
-0.05085925761532272
-0.4545642185882311
0.030439689139845048
-0.05085925761532272
-0.4545642185882311
0.030439689139845048
-0.05085925761532272
-0.4545642185882311
0.030439689139845048
-0.05085925761532272
-0.4545642185882311
0.031562538441647095
-0.05135215653078284
-0.45474704282197465
0.031562538441647095
-0.05135215653078284
-0.45474704282197465
0.031562538441647095
-0.05135215653078284
-0.45474704282197465
0.031562538441647095
-0.05135215653078284
-0.45474704282197465
0.032508695140470424
-0.051632091150796006
-0.45489489766391866
0.032508695140470424
-0.051632091150796006
-0.45489489766391866
0.032508695140470424
-0.051632091150796006
-0.45489489766391866
0.032508695140470424
-0.051632091150796006
-0.45489489766391866
0.033457566450555455
-0.05191449761019632
-0.45507062391359693
0.033457566450555455
-0.05191449761019632
-0.45507062391359693
0.033457566450555455
-0.05191449761019632
-0.45507062391359693
0.033457566450555455
-0.05191449761019632
-0.45507062391359693
0.03348517983024841
-0.0520333579356565
-0.4550733326026074
0.03348517983024841
-0.0520333579356565
-0.4550733326026074
0.03348517983024841
-0.0520333579356565
-0.4550733326026074
0.03348517983024841
-0.0520333579356565
-0.4550733326026074
0.03300375950781648
-0.05214369438717749
-0.454916133401241
0.03300375950781648
-0.05214369438717749
-0.454916133401241
0.03300375950781648
-0.05214369438717749
-0.454916133401241
0.03300375950781648
-0.05214369438717749
-0.454916133401241
0.03300375950781648
-0.05214369438717749
-0.454916133401241
0.03300375950781648
-0.05214369438717749
-0.454916133401241
0.03300375950781648
-0.05214369438717749
-0.454916133401241
0.03300375950781648
-0.05214369438717749
-0.454916133401241
0.03346856576483128
-0.052539133712776166
-0.45481588429169606
0.03346856576483128
-0.052539133712776166
-0.45481588429169606
0.03346856576483128
-0.052539133712776166
-0.45481588429169606
0.03346856576483128
-0.052539133712776166
-0.45481588429169606
0.03346856576483128
-0.052539133712776166
-0.45481588429169606
0.03346856576483128
-0.052539133712776166
-0.45481588429169606
0.03346856576483128
-0.052539133712776166
-0.45481588429169606
0.03346856576483128
-0.052539133712776166
-0.45481588429169606
0.033670385164121
-0.05286814501282935
-0.4548267320523977
0.033670385164121
-0.05286814501282935
-0.4548267320523977
0.033670385164121
-0.05286814501282935
-0.4548267320523977
0.033670385164121
-0.05286814501282935
-0.4548267320523977
0.03354273877039318
-0.05339869016233797
-0.4548322611847504
0.03354273877039318
-0.05339869016233797
-0.4548322611847504
0.03354273877039318
-0.05339869016233797
-0.4548322611847504
0.03354273877039318
-0.05339869016233797
-0.4548322611847504
0.03366176309165829
-0.0533711285907993
-0.45483497644833765
0.03366176309165829
-0.0533711285907993
-0.45483497644833765
0.03366176309165829
-0.0533711285907993
-0.45483497644833765
0.03366176309165829
-0.0533711285907993
-0.45483497644833765
0.03441154672062412
-0.05395757901116787
-0.45438907687381036
0.03441154672062412
-0.05395757901116787
-0.45438907687381036
0.03441154672062412
-0.05395757901116787
-0.45438907687381036
0.03441154672062412
-0.05395757901116787
-0.45438907687381036
0.03489543670002102
-0.05447498221588549
-0.45402669295878256
0.03489543670002102
-0.05447498221588549
-0.45402669295878256
0.03489543670002102
-0.05447498221588549
-0.45402669295878256
0.03489543670002102
-0.05447498221588549
-0.45402669295878256
0.03489543670002102
-0.05447498221588549
-0.45402669295878256
0.03489543670002102
-0.05447498221588549
-0.45402669295878256
0.03489543670002102
-0.05447498221588549
-0.45402669295878256
0.03489543670002102
-0.05447498221588549
-0.45402669295878256
0.035116346442090524
-0.05493143949793172
-0.45368367828099265
0.035116346442090524
-0.05493143949793172
-0.45368367828099265
0.035116346442090524
-0.05493143949793172
-0.45368367828099265
0.035116346442090524
-0.05493143949793172
-0.45368367828099265
0.035514533774477414
-0.05509536583096061
-0.4531940299825777
0.035514533774477414
-0.05509536583096061
-0.4531940299825777
0.035514533774477414
-0.05509536583096061
-0.4531940299825777
0.035514533774477414
-0.05509536583096061
-0.4531940299825777
0.03547858223610244
-0.054979433238151944
-0.45292554733272034
0.03547858223610244
-0.054979433238151944
-0.45292554733272034
0.03547858223610244
-0.054979433238151944
-0.45292554733272034
0.03547858223610244
-0.054979433238151944
-0.45292554733272034
0.0347255446718119
-0.055036535633724126
-0.4524296818391876
0.0347255446718119
-0.055036535633724126
-0.4524296818391876
0.0347255446718119
-0.055036535633724126
-0.4524296818391876
0.0347255446718119
-0.055036535633724126
-0.4524296818391876
0.032940312081864896
-0.05494745328899759
-0.4521136449284593
0.032940312081864896
-0.05494745328899759
-0.4521136449284593
0.032940312081864896
-0.05494745328899759
-0.4521136449284593
0.032940312081864896
-0.05494745328899759
-0.4521136449284593
0.03078554532579982
-0.054312911201754056
-0.45201732009951207
0.03078554532579982
-0.054312911201754056
-0.45201732009951207
0.03078554532579982
-0.054312911201754056
-0.45201732009951207
0.03078554532579982
-0.054312911201754056
-0.45201732009951207
0.026494329586481628
-0.05367034359969947
-0.4517458667811403
0.026494329586481628
-0.05367034359969947
-0.4517458667811403
0.026494329586481628
-0.05367034359969947
-0.4517458667811403
0.026494329586481628
-0.05367034359969947
-0.4517458667811403
0.017630351271727084
-0.053453727848376216
-0.4502338065156477
0.017630351271727084
-0.053453727848376216
-0.4502338065156477
0.017630351271727084
-0.053453727848376216
-0.4502338065156477
0.017630351271727084
-0.053453727848376216
-0.4502338065156477
5.80655031882028E-4
-0.05409117333214178
-0.449009482868839
5.80655031882028E-4
-0.05409117333214178
-0.449009482868839
5.80655031882028E-4
-0.05409117333214178
-0.449009482868839
5.80655031882028E-4
-0.05409117333214178
-0.449009482868839
-0.024825667846842918
-0.055774520359304136
-0.4496006197523999
-0.024825667846842918
-0.055774520359304136
-0.4496006197523999
-0.024825667846842918
-0.055774520359304136
-0.4496006197523999
-0.024825667846842918
-0.055774520359304136
-0.4496006197523999
-0.05592797068051176
-0.057189656871605245
-0.45099030356450276
-0.05592797068051176
-0.057189656871605245
-0.45099030356450276
-0.05592797068051176
-0.057189656871605245
-0.45099030356450276
-0.05592797068051176
-0.057189656871605245
-0.45099030356450276
-0.08800681671562767
-0.05774578979633463
-0.4521904722479092
-0.08800681671562767
-0.05774578979633463
-0.4521904722479092
-0.08800681671562767
-0.05774578979633463
-0.4521904722479092
-0.08800681671562767
-0.05774578979633463
-0.4521904722479092
-0.11874442575596195
-0.0582925967933332
-0.4534053348237138
-0.11874442575596195
-0.0582925967933332
-0.4534053348237138
-0.11874442575596195
-0.0582925967933332
-0.4534053348237138
-0.11874442575596195
-0.0582925967933332
-0.4534053348237138
-0.15105420404107436
-0.05713067066160385
-0.4532848215281188
-0.15105420404107436
-0.05713067066160385
-0.4532848215281188
-0.15105420404107436
-0.05713067066160385
-0.4532848215281188
-0.15105420404107436
-0.05713067066160385
-0.4532848215281188
-0.18640040892740214
-0.05394415109022306
-0.45224989996930565
-0.18640040892740214
-0.05394415109022306
-0.45224989996930565
-0.18640040892740214
-0.05394415109022306
-0.45224989996930565
-0.18640040892740214
-0.05394415109022306
-0.45224989996930565
-0.21825328844598163
-0.049633794875209865
-0.45105891671796083
-0.21825328844598163
-0.049633794875209865
-0.45105891671796083
-0.21825328844598163
-0.049633794875209865
-0.45105891671796083
-0.21825328844598163
-0.049633794875209865
-0.45105891671796083
-0.2471135335567844
-0.04372571375059869
-0.45107163262269134
-0.2471135335567844
-0.04372571375059869
-0.45107163262269134
-0.2471135335567844
-0.04372571375059869
-0.45107163262269134
-0.2471135335567844
-0.04372571375059869
-0.45107163262269134
-0.27062584563725406
-0.0354473368368669
-0.4530934283862551
-0.27062584563725406
-0.0354473368368669
-0.4530934283862551
-0.27062584563725406
-0.0354473368368669
-0.4530934283862551
-0.27062584563725406
-0.0354473368368669
-0.4530934283862551
-0.2840031586509619
-0.026052758237656175
-0.45751734075799483
-0.2840031586509619
-0.026052758237656175
-0.45751734075799483
-0.2840031586509619
-0.026052758237656175
-0.45751734075799483
-0.2840031586509619
-0.026052758237656175
-0.45751734075799483
-0.2987420145816805
-0.017238747793635625
-0.4634394495463199
-0.2987420145816805
-0.017238747793635625
-0.4634394495463199
-0.2987420145816805
-0.017238747793635625
-0.4634394495463199
-0.2987420145816805
-0.017238747793635625
-0.4634394495463199
-0.3182336128322358
-0.010976034958800085
-0.4707135606771949
-0.3182336128322358
-0.010976034958800085
-0.4707135606771949
-0.3182336128322358
-0.010976034958800085
-0.4707135606771949
-0.3182336128322358
-0.010976034958800085
-0.4707135606771949
-0.3458434195172062
-0.009016269942609113
-0.47825377652293893
-0.3458434195172062
-0.009016269942609113
-0.47825377652293893
-0.3458434195172062
-0.009016269942609113
-0.47825377652293893
-0.3458434195172062
-0.009016269942609113
-0.47825377652293893
-0.37611238433837607
-0.010789407183678225
-0.48552311478567883
-0.37611238433837607
-0.010789407183678225
-0.48552311478567883
-0.37611238433837607
-0.010789407183678225
-0.48552311478567883
-0.37611238433837607
-0.010789407183678225
-0.48552311478567883
-0.4036785679005448
-0.014133169448966422
-0.49271642537113874
-0.4036785679005448
-0.014133169448966422
-0.49271642537113874
-0.4036785679005448
-0.014133169448966422
-0.49271642537113874
-0.4036785679005448
-0.014133169448966422
-0.49271642537113874
-0.42212011150049916
-0.017551404705003593
-0.49824797758248734
-0.42212011150049916
-0.017551404705003593
-0.49824797758248734
-0.42212011150049916
-0.017551404705003593
-0.49824797758248734
-0.42212011150049916
-0.017551404705003593
-0.49824797758248734
-0.430947837344405
-0.019752502683052467
-0.5032129607816311
-0.430947837344405
-0.019752502683052467
-0.5032129607816311
-0.430947837344405
-0.019752502683052467
-0.5032129607816311
-0.430947837344405
-0.019752502683052467
-0.5032129607816311
-0.4324971173891752
-0.021137375632057084
-0.5076561854304559
-0.4324971173891752
-0.021137375632057084
-0.5076561854304559
-0.4324971173891752
-0.021137375632057084
-0.5076561854304559
-0.4324971173891752
-0.021137375632057084
-0.5076561854304559
-0.43636620746979643
-0.02352777386715632
-0.5097617602421174
-0.43636620746979643
-0.02352777386715632
-0.5097617602421174
-0.43636620746979643
-0.02352777386715632
-0.5097617602421174
-0.43636620746979643
-0.02352777386715632
-0.5097617602421174
-0.44295162398498494
-0.025685702701150816
-0.5104876573269644
-0.44295162398498494
-0.025685702701150816
-0.5104876573269644
-0.44295162398498494
-0.025685702701150816
-0.5104876573269644
-0.44295162398498494
-0.025685702701150816
-0.5104876573269644
-0.4481097447548357
-0.02790175772103532
-0.5113860348187872
-0.4481097447548357
-0.02790175772103532
-0.5113860348187872
-0.4481097447548357
-0.02790175772103532
-0.5113860348187872
-0.4481097447548357
-0.02790175772103532
-0.5113860348187872
-0.44876506374728975
-0.029239939358409704
-0.5130790705726112
-0.44876506374728975
-0.029239939358409704
-0.5130790705726112
-0.44876506374728975
-0.029239939358409704
-0.5130790705726112
-0.44876506374728975
-0.029239939358409704
-0.5130790705726112
-0.4445204576146139
-0.030368312982674613
-0.5144541073868375
-0.4445204576146139
-0.030368312982674613
-0.5144541073868375
-0.4445204576146139
-0.030368312982674613
-0.5144541073868375
-0.4445204576146139
-0.030368312982674613
-0.5144541073868375
-0.43655588551810653
-0.030768305481389376
-0.5153139339098318
-0.43655588551810653
-0.030768305481389376
-0.5153139339098318
-0.43655588551810653
-0.030768305481389376
-0.5153139339098318
-0.43655588551810653
-0.030768305481389376
-0.5153139339098318
-0.42939444189609155
-0.030962877814666168
-0.51548285891948
-0.42939444189609155
-0.030962877814666168
-0.51548285891948
-0.42939444189609155
-0.030962877814666168
-0.51548285891948
-0.42939444189609155
-0.030962877814666168
-0.51548285891948
-0.42749897746867027
-0.031201751586987583
-0.5153327271026666
-0.42749897746867027
-0.031201751586987583
-0.5153327271026666
-0.42749897746867027
-0.031201751586987583
-0.5153327271026666
-0.42749897746867027
-0.031201751586987583
-0.5153327271026666
-0.4299886504010444
-0.03106348736513622
-0.5152097964705361
-0.4299886504010444
-0.03106348736513622
-0.5152097964705361
-0.4299886504010444
-0.03106348736513622
-0.5152097964705361
-0.4299886504010444
-0.03106348736513622
-0.5152097964705361
-0.43407509462956073
-0.030798581862060713
-0.5149443711204579
-0.43407509462956073
-0.030798581862060713
-0.5149443711204579
-0.43407509462956073
-0.030798581862060713
-0.5149443711204579
-0.43407509462956073
-0.030798581862060713
-0.5149443711204579
-0.4364753865025614
-0.03004791826897547
-0.5150803016343488
-0.4364753865025614
-0.03004791826897547
-0.5150803016343488
-0.4364753865025614
-0.03004791826897547
-0.5150803016343488
-0.4364753865025614
-0.03004791826897547
-0.5150803016343488
-0.43563504591365093
-0.029348248861656864
-0.5158202151041791
-0.43563504591365093
-0.029348248861656864
-0.5158202151041791
-0.43563504591365093
-0.029348248861656864
-0.5158202151041791
-0.43563504591365093
-0.029348248861656864
-0.5158202151041791
-0.43322687821572464
-0.028880335259367278
-0.5166203349144085
-0.43322687821572464
-0.028880335259367278
-0.5166203349144085
-0.43322687821572464
-0.028880335259367278
-0.5166203349144085
-0.43322687821572464
-0.028880335259367278
-0.5166203349144085
-0.4307857605814978
-0.02842692445668197
-0.5175046484811212
-0.4307857605814978
-0.02842692445668197
-0.5175046484811212
-0.4307857605814978
-0.02842692445668197
-0.5175046484811212
-0.4307857605814978
-0.02842692445668197
-0.5175046484811212
-0.4307194288539973
-0.027724002750533792
-0.517900846655811
-0.4307194288539973
-0.027724002750533792
-0.517900846655811
-0.4307194288539973
-0.027724002750533792
-0.517900846655811
-0.4307194288539973
-0.027724002750533792
-0.517900846655811
-0.4328873887409279
-0.026449735376935853
-0.5182790888024442
-0.4328873887409279
-0.026449735376935853
-0.5182790888024442
-0.4328873887409279
-0.026449735376935853
-0.5182790888024442
-0.4328873887409279
-0.026449735376935853
-0.5182790888024442
-0.43550371054908815
-0.025445820951570303
-0.5187476860831425
-0.43550371054908815
-0.025445820951570303
-0.5187476860831425
-0.43550371054908815
-0.025445820951570303
-0.5187476860831425
-0.43550371054908815
-0.025445820951570303
-0.5187476860831425
-0.43646917798737406
-0.024305789301970165
-0.5194147872220228
-0.43646917798737406
-0.024305789301970165
-0.5194147872220228
-0.43646917798737406
-0.024305789301970165
-0.5194147872220228
-0.43646917798737406
-0.024305789301970165
-0.5194147872220228
-0.43601264011375046
-0.02331067819078055
-0.5201565668251635
-0.43601264011375046
-0.02331067819078055
-0.5201565668251635
-0.43601264011375046
-0.02331067819078055
-0.5201565668251635
-0.43601264011375046
-0.02331067819078055
-0.5201565668251635
-0.4347674200969335
-0.02219862636162047
-0.5207147208271439
-0.4347674200969335
-0.02219862636162047
-0.5207147208271439
-0.4347674200969335
-0.02219862636162047
-0.5207147208271439
-0.4347674200969335
-0.02219862636162047
-0.5207147208271439
-0.43363278666301375
-0.02123962713027613
-0.5212688685407552
-0.43363278666301375
-0.02123962713027613
-0.5212688685407552
-0.43363278666301375
-0.02123962713027613
-0.5212688685407552
-0.43363278666301375
-0.02123962713027613
-0.5212688685407552
-0.4337307791837341
-0.020402404997139967
-0.521452261813183
-0.4337307791837341
-0.020402404997139967
-0.521452261813183
-0.4337307791837341
-0.020402404997139967
-0.521452261813183
-0.4337307791837341
-0.020402404997139967
-0.521452261813183
-0.4335507205950749
-0.01958650840038276
-0.5214806953110764
-0.4335507205950749
-0.01958650840038276
-0.5214806953110764
-0.4335507205950749
-0.01958650840038276
-0.5214806953110764
-0.4335507205950749
-0.01958650840038276
-0.5214806953110764
-0.43318789581538514
-0.01862729489932527
-0.5216955100409758
-0.43318789581538514
-0.01862729489932527
-0.5216955100409758
-0.43318789581538514
-0.01862729489932527
-0.5216955100409758
-0.43318789581538514
-0.01862729489932527
-0.5216955100409758
-0.4335141714616619
-0.017301677739620974
-0.5217103773573458
-0.4335141714616619
-0.017301677739620974
-0.5217103773573458
-0.4335141714616619
-0.017301677739620974
-0.5217103773573458
-0.4335141714616619
-0.017301677739620974
-0.5217103773573458
-0.43375235626198927
-0.01603646361828067
-0.5221401976714908
-0.43375235626198927
-0.01603646361828067
-0.5221401976714908
-0.43375235626198927
-0.01603646361828067
-0.5221401976714908
-0.43375235626198927
-0.01603646361828067
-0.5221401976714908
-0.43256354516807993
-0.01426587515263058
-0.5225949898287136
-0.43256354516807993
-0.01426587515263058
-0.5225949898287136
-0.43256354516807993
-0.01426587515263058
-0.5225949898287136
-0.43256354516807993
-0.01426587515263058
-0.5225949898287136
-0.43073834354121665
-0.012284174710663771
-0.5222764865027972
-0.43073834354121665
-0.012284174710663771
-0.5222764865027972
-0.43073834354121665
-0.012284174710663771
-0.5222764865027972
-0.43073834354121665
-0.012284174710663771
-0.5222764865027972
-0.4284799964111624
-0.009794228007151153
-0.5207637047713335
-0.4284799964111624
-0.009794228007151153
-0.5207637047713335
-0.4284799964111624
-0.009794228007151153
-0.5207637047713335
-0.4284799964111624
-0.009794228007151153
-0.5207637047713335
-0.4244365096105438
-0.007017830483497133
-0.5183091382028684
-0.4244365096105438
-0.007017830483497133
-0.5183091382028684
-0.4244365096105438
-0.007017830483497133
-0.5183091382028684
-0.4244365096105438
-0.007017830483497133
-0.5183091382028684
-0.41463313706303967
-0.004280728218283096
-0.5146232384828529
-0.41463313706303967
-0.004280728218283096
-0.5146232384828529
-0.41463313706303967
-0.004280728218283096
-0.5146232384828529
-0.41463313706303967
-0.004280728218283096
-0.5146232384828529
-0.3980241602624793
-0.0024022187773913455
-0.5104042073161348
-0.3980241602624793
-0.0024022187773913455
-0.5104042073161348
-0.3980241602624793
-0.0024022187773913455
-0.5104042073161348
-0.3980241602624793
-0.0024022187773913455
-0.5104042073161348
-0.37425331243326015
-0.003278111146576043
-0.507747500301699
-0.37425331243326015
-0.003278111146576043
-0.507747500301699
-0.37425331243326015
-0.003278111146576043
-0.507747500301699
-0.37425331243326015
-0.003278111146576043
-0.507747500301699
-0.34201497397546626
-0.006868329463372922
-0.5065884364084385
-0.34201497397546626
-0.006868329463372922
-0.5065884364084385
-0.34201497397546626
-0.006868329463372922
-0.5065884364084385
-0.34201497397546626
-0.006868329463372922
-0.5065884364084385
-0.3012538310039745
-0.013352363799528526
-0.5070966892502567
-0.3012538310039745
-0.013352363799528526
-0.5070966892502567
-0.3012538310039745
-0.013352363799528526
-0.5070966892502567
-0.3012538310039745
-0.013352363799528526
-0.5070966892502567
-0.25372835452590337
-0.019515449478737294
-0.5086314578564362
-0.25372835452590337
-0.019515449478737294
-0.5086314578564362
-0.25372835452590337
-0.019515449478737294
-0.5086314578564362
-0.25372835452590337
-0.019515449478737294
-0.5086314578564362
-0.20290480560807725
-0.02063864876281686
-0.510266641871468
-0.20290480560807725
-0.02063864876281686
-0.510266641871468
-0.20290480560807725
-0.02063864876281686
-0.510266641871468
-0.20290480560807725
-0.02063864876281686
-0.510266641871468
-0.14906302441694916
-0.0162676704373584
-0.5097938245245581
-0.14906302441694916
-0.0162676704373584
-0.5097938245245581
-0.09351498300779866
-0.012092021148744669
-0.5089249222247643
-0.09351498300779866
-0.012092021148744669
-0.5089249222247643
-0.09351498300779866
-0.012092021148744669
-0.5089249222247643
-0.09351498300779866
-0.012092021148744669
-0.5089249222247643
-0.048425792828279336
-0.013649807896313216
-0.5057086262750594
-0.048425792828279336
-0.013649807896313216
-0.5057086262750594
-0.048425792828279336
-0.013649807896313216
-0.5057086262750594
-0.048425792828279336
-0.013649807896313216
-0.5057086262750594
-0.018053664760487736
-0.02279869615351876
-0.4932454751713893
-0.018053664760487736
-0.02279869615351876
-0.4932454751713893
-0.018053664760487736
-0.02279869615351876
-0.4932454751713893
-0.018053664760487736
-0.02279869615351876
-0.4932454751713893
-0.006314161353040729
-0.03573969518437017
-0.4812867680797911
-0.006314161353040729
-0.03573969518437017
-0.4812867680797911
-0.006314161353040729
-0.03573969518437017
-0.4812867680797911
-0.006314161353040729
-0.03573969518437017
-0.4812867680797911
-0.0016526273564630308
-0.04410502627351575
-0.4741071829474084
-0.0016526273564630308
-0.04410502627351575
-0.4741071829474084
-0.0016526273564630308
-0.04410502627351575
-0.4741071829474084
-0.0016526273564630308
-0.04410502627351575
-0.4741071829474084
0.009326698085152123
-0.05061657295363578
-0.4687802654831096
0.009326698085152123
-0.05061657295363578
-0.4687802654831096
0.009326698085152123
-0.05061657295363578
-0.4687802654831096
0.009326698085152123
-0.05061657295363578
-0.4687802654831096
0.030558282308841972
-0.05741831431349752
-0.46162522968971614
0.030558282308841972
-0.05741831431349752
-0.46162522968971614
0.030558282308841972
-0.05741831431349752
-0.46162522968971614
0.030558282308841972
-0.05741831431349752
-0.46162522968971614
0.049279992365848214
-0.06407715854889699
-0.4540510691516802
0.049279992365848214
-0.06407715854889699
-0.4540510691516802
0.049279992365848214
-0.06407715854889699
-0.4540510691516802
0.049279992365848214
-0.06407715854889699
-0.4540510691516802
0.05512957935911865
-0.06796764308784602
-0.4492720253876608
0.05512957935911865
-0.06796764308784602
-0.4492720253876608
0.05512957935911865
-0.06796764308784602
-0.4492720253876608
0.05512957935911865
-0.06796764308784602
-0.4492720253876608
0.054306003088585686
-0.07033595341870676
-0.446551652787761
0.054306003088585686
-0.07033595341870676
-0.446551652787761
0.054306003088585686
-0.07033595341870676
-0.446551652787761
0.054306003088585686
-0.07033595341870676
-0.446551652787761
0.051730342031790874
-0.07145397134712168
-0.44474051830201244
0.051730342031790874
-0.07145397134712168
-0.44474051830201244
0.051730342031790874
-0.07145397134712168
-0.44474051830201244
0.051730342031790874
-0.07145397134712168
-0.44474051830201244
0.051677864338640744
-0.07135569923121239
-0.44399399542149737
0.051677864338640744
-0.07135569923121239
-0.44399399542149737
0.051677864338640744
-0.07135569923121239
-0.44399399542149737
0.051677864338640744
-0.07135569923121239
-0.44399399542149737
0.04971429279657509
-0.07041336811044215
-0.44411203512523645
0.04971429279657509
-0.07041336811044215
-0.44411203512523645
0.04971429279657509
-0.07041336811044215
-0.44411203512523645
0.04971429279657509
-0.07041336811044215
-0.44411203512523645
0.044452952241588115
-0.06871789011709854
-0.4442464932471666
0.044452952241588115
-0.06871789011709854
-0.4442464932471666
0.044452952241588115
-0.06871789011709854
-0.4442464932471666
0.044452952241588115
-0.06871789011709854
-0.4442464932471666
0.03963595290691472
-0.06615792822235703
-0.4448374864741495
0.03963595290691472
-0.06615792822235703
-0.4448374864741495
0.03963595290691472
-0.06615792822235703
-0.4448374864741495
0.03963595290691472
-0.06615792822235703
-0.4448374864741495
0.03557453644273105
-0.06369518502302814
-0.4448975173135575
0.03557453644273105
-0.06369518502302814
-0.4448975173135575
0.03557453644273105
-0.06369518502302814
-0.4448975173135575
0.03557453644273105
-0.06369518502302814
-0.4448975173135575
0.03422036141628313
-0.06162307569288877
-0.4446728317260473
0.03422036141628313
-0.06162307569288877
-0.4446728317260473
0.03422036141628313
-0.06162307569288877
-0.4446728317260473
0.03422036141628313
-0.06162307569288877
-0.4446728317260473
0.03322268448109945
-0.060600207955703596
-0.44424072294915795
0.03322268448109945
-0.060600207955703596
-0.44424072294915795
0.03322268448109945
-0.060600207955703596
-0.44424072294915795
0.03322268448109945
-0.060600207955703596
-0.44424072294915795
0.03061355608483843
-0.060188977774121105
-0.4438901569761646
0.03061355608483843
-0.060188977774121105
-0.4438901569761646
0.03061355608483843
-0.060188977774121105
-0.4438901569761646
0.03061355608483843
-0.060188977774121105
-0.4438901569761646
0.03094638482913526
-0.05961970688238183
-0.44273847886356243
0.03094638482913526
-0.05961970688238183
-0.44273847886356243
0.03094638482913526
-0.05961970688238183
-0.44273847886356243
0.03094638482913526
-0.05961970688238183
-0.44273847886356243
0.03228072299135879
-0.05908594561423579
-0.4412860294934294
0.03228072299135879
-0.05908594561423579
-0.4412860294934294
0.03228072299135879
-0.05908594561423579
-0.4412860294934294
0.03228072299135879
-0.05908594561423579
-0.4412860294934294
0.0315174802465799
-0.05864234288637161
-0.4401303694268526
0.0315174802465799
-0.05864234288637161
-0.4401303694268526
0.0315174802465799
-0.05864234288637161
-0.4401303694268526
0.0315174802465799
-0.05864234288637161
-0.4401303694268526
0.029816239749823472
-0.057905328791812406
-0.4390625832445309
0.029816239749823472
-0.057905328791812406
-0.4390625832445309
0.029816239749823472
-0.057905328791812406
-0.4390625832445309
0.029816239749823472
-0.057905328791812406
-0.4390625832445309
0.02938847533276597
-0.057258175186550825
-0.4380338202421851
0.02938847533276597
-0.057258175186550825
-0.4380338202421851
0.02938847533276597
-0.057258175186550825
-0.4380338202421851
0.02938847533276597
-0.057258175186550825
-0.4380338202421851
0.028151414839072637
-0.05628345935165346
-0.4374547831856143
0.028151414839072637
-0.05628345935165346
-0.4374547831856143
0.028151414839072637
-0.05628345935165346
-0.4374547831856143
0.028151414839072637
-0.05628345935165346
-0.4374547831856143
0.026597295130275884
-0.05550562099086918
-0.43728144096565913
0.026597295130275884
-0.05550562099086918
-0.43728144096565913
0.026597295130275884
-0.05550562099086918
-0.43728144096565913
0.026597295130275884
-0.05550562099086918
-0.43728144096565913
0.0260749285033767
-0.05486987411690019
-0.43711296642174896
0.0260749285033767
-0.05486987411690019
-0.43711296642174896
0.0260749285033767
-0.05486987411690019
-0.43711296642174896
0.0260749285033767
-0.05486987411690019
-0.43711296642174896
0.02528770588700166
-0.05467000517026047
-0.4373537407209224
0.02528770588700166
-0.05467000517026047
-0.4373537407209224
0.02528770588700166
-0.05467000517026047
-0.4373537407209224
0.02528770588700166
-0.05467000517026047
-0.4373537407209224
0.02278105010652315
-0.05459631226755324
-0.4377612585787408
0.02278105010652315
-0.05459631226755324
-0.4377612585787408
0.02278105010652315
-0.05459631226755324
-0.4377612585787408
0.02278105010652315
-0.05459631226755324
-0.4377612585787408
0.021878365450834776
-0.05491940434303437
-0.4386276685156302
0.021878365450834776
-0.05491940434303437
-0.4386276685156302
0.021878365450834776
-0.05491940434303437
-0.4386276685156302
0.021878365450834776
-0.05491940434303437
-0.4386276685156302
0.02252933030925124
-0.055522297276957504
-0.43915572974651595
0.02252933030925124
-0.055522297276957504
-0.43915572974651595
0.02252933030925124
-0.055522297276957504
-0.43915572974651595
0.02252933030925124
-0.055522297276957504
-0.43915572974651595
0.022196793152147357
-0.056221007473100854
-0.4395384435228626
0.022196793152147357
-0.056221007473100854
-0.4395384435228626
0.022196793152147357
-0.056221007473100854
-0.4395384435228626
0.022196793152147357
-0.056221007473100854
-0.4395384435228626
0.02177617132749907
-0.05656366230190054
-0.43964954997416716
0.02177617132749907
-0.05656366230190054
-0.43964954997416716
0.02177617132749907
-0.05656366230190054
-0.43964954997416716
0.02177617132749907
-0.05656366230190054
-0.43964954997416716
0.021033895560169692
-0.056604443836781614
-0.43962897831011083
0.021033895560169692
-0.056604443836781614
-0.43962897831011083
0.021033895560169692
-0.056604443836781614
-0.43962897831011083
0.021033895560169692
-0.056604443836781614
-0.43962897831011083
0.02005307669278135
-0.05669848808199253
-0.4396021523412943
0.02005307669278135
-0.05669848808199253
-0.4396021523412943
0.02005307669278135
-0.05669848808199253
-0.4396021523412943
0.02005307669278135
-0.05669848808199253
-0.4396021523412943
0.02005307669278135
-0.05669848808199253
-0.4396021523412943
0.02005307669278135
-0.05669848808199253
-0.4396021523412943
0.02005307669278135
-0.05669848808199253
-0.4396021523412943
0.02005307669278135
-0.05669848808199253
-0.4396021523412943
0.020355964849423196
-0.05750734900845037
-0.4394997808231021
0.020355964849423196
-0.05750734900845037
-0.4394997808231021
0.020355964849423196
-0.05750734900845037
-0.4394997808231021
0.020355964849423196
-0.05750734900845037
-0.4394997808231021
0.019576852276570817
-0.05855653629623836
-0.4391034609571813
0.019576852276570817
-0.05855653629623836
-0.4391034609571813
0.019576852276570817
-0.05855653629623836
-0.4391034609571813
0.019576852276570817
-0.05855653629623836
-0.4391034609571813
0.01882918400572748
-0.05972581884286419
-0.4388541636858454
0.01882918400572748
-0.05972581884286419
-0.4388541636858454
0.01882918400572748
-0.05972581884286419
-0.4388541636858454
0.01882918400572748
-0.05972581884286419
-0.4388541636858454
0.01864505083766728
-0.061142036968718255
-0.43886187799030496
0.01864505083766728
-0.061142036968718255
-0.43886187799030496
0.01864505083766728
-0.061142036968718255
-0.43886187799030496
0.01864505083766728
-0.061142036968718255
-0.43886187799030496
0.01969844034689453
-0.0624102315550156
-0.43943658085440784
0.01969844034689453
-0.0624102315550156
-0.43943658085440784
0.01969844034689453
-0.0624102315550156
-0.43943658085440784
0.01969844034689453
-0.0624102315550156
-0.43943658085440784
0.021485782383549847
-0.06300729661083296
-0.4402406438822597
0.021485782383549847
-0.06300729661083296
-0.4402406438822597
0.021485782383549847
-0.06300729661083296
-0.4402406438822597
0.021485782383549847
-0.06300729661083296
-0.4402406438822597
0.02144862833738328
-0.0632641998537675
-0.4411299111695236
0.02144862833738328
-0.0632641998537675
-0.4411299111695236
0.02144862833738328
-0.0632641998537675
-0.4411299111695236
0.02144862833738328
-0.0632641998537675
-0.4411299111695236
0.019897878128718027
-0.06348194054327211
-0.4419439970176963
0.019897878128718027
-0.06348194054327211
-0.4419439970176963
0.019897878128718027
-0.06348194054327211
-0.4419439970176963
0.019897878128718027
-0.06348194054327211
-0.4419439970176963
0.018717815033062694
-0.06374734320810539
-0.4422932782925678
0.018717815033062694
-0.06374734320810539
-0.4422932782925678
0.018717815033062694
-0.06374734320810539
-0.4422932782925678
0.018717815033062694
-0.06374734320810539
-0.4422932782925678
0.019268325092348892
-0.06400123145342729
-0.44207492869768644
0.019268325092348892
-0.06400123145342729
-0.44207492869768644
0.019268325092348892
-0.06400123145342729
-0.44207492869768644
0.019268325092348892
-0.06400123145342729
-0.44207492869768644
0.02007081046178086
-0.06369321554116751
-0.44195161089550605
0.02007081046178086
-0.06369321554116751
-0.44195161089550605
0.02007081046178086
-0.06369321554116751
-0.44195161089550605
0.02007081046178086
-0.06369321554116751
-0.44195161089550605
0.019459583655824068
-0.0632051869660626
-0.44192738356344324
0.019459583655824068
-0.0632051869660626
-0.44192738356344324
0.019459583655824068
-0.0632051869660626
-0.44192738356344324
0.019459583655824068
-0.0632051869660626
-0.44192738356344324
0.01912459287407053
-0.06290607661462759
-0.44141049684449835
0.01912459287407053
-0.06290607661462759
-0.44141049684449835
0.01912459287407053
-0.06290607661462759
-0.44141049684449835
0.01912459287407053
-0.06290607661462759
-0.44141049684449835
0.019302402529221226
-0.06211806426396328
-0.44078586321258567
0.019302402529221226
-0.06211806426396328
-0.44078586321258567
0.019302402529221226
-0.06211806426396328
-0.44078586321258567
0.019302402529221226
-0.06211806426396328
-0.44078586321258567
0.019984564775832613
-0.06134250377745364
-0.44017667759509693
0.019984564775832613
-0.06134250377745364
-0.44017667759509693
0.019984564775832613
-0.06134250377745364
-0.44017667759509693
0.019984564775832613
-0.06134250377745364
-0.44017667759509693
0.02031601499364569
-0.060643215435834195
-0.4397955165520677
0.02031601499364569
-0.060643215435834195
-0.4397955165520677
0.02031601499364569
-0.060643215435834195
-0.4397955165520677
0.02031601499364569
-0.060643215435834195
-0.4397955165520677
0.02046581593877521
-0.060233443078625874
-0.439530861675074
0.02046581593877521
-0.060233443078625874
-0.439530861675074
0.02046581593877521
-0.060233443078625874
-0.439530861675074
0.02046581593877521
-0.060233443078625874
-0.439530861675074
0.02025657418464425
-0.059908887162399366
-0.43916364540327485
0.02025657418464425
-0.059908887162399366
-0.43916364540327485
0.02025657418464425
-0.059908887162399366
-0.43916364540327485
0.02025657418464425
-0.059908887162399366
-0.43916364540327485
0.020453308434695425
-0.05974134428527026
-0.43866441328750827
0.020453308434695425
-0.05974134428527026
-0.43866441328750827
0.020453308434695425
-0.05974134428527026
-0.43866441328750827
0.020453308434695425
-0.05974134428527026
-0.43866441328750827
0.020918606488205947
-0.059637843454162565
-0.4382930503717754
0.020918606488205947
-0.059637843454162565
-0.4382930503717754
0.020918606488205947
-0.059637843454162565
-0.4382930503717754
0.020918606488205947
-0.059637843454162565
-0.4382930503717754
0.02094521600225883
-0.059756928300186016
-0.43829509244712744
0.02094521600225883
-0.059756928300186016
-0.43829509244712744
0.02094521600225883
-0.059756928300186016
-0.43829509244712744
0.02094521600225883
-0.059756928300186016
-0.43829509244712744
0.020740304033777517
-0.060555190723234176
-0.4380588057830787
0.020740304033777517
-0.060555190723234176
-0.4380588057830787
0.020740304033777517
-0.060555190723234176
-0.4380588057830787
0.020740304033777517
-0.060555190723234176
-0.4380588057830787
0.020657888674536846
-0.06132485182280589
-0.4379450383214419
0.020657888674536846
-0.06132485182280589
-0.4379450383214419
0.020657888674536846
-0.06132485182280589
-0.4379450383214419
0.020657888674536846
-0.06132485182280589
-0.4379450383214419
0.020657888674536846
-0.06132485182280589
-0.4379450383214419
0.020657888674536846
-0.06132485182280589
-0.4379450383214419
0.020657888674536846
-0.06132485182280589
-0.4379450383214419
0.020657888674536846
-0.06132485182280589
-0.4379450383214419
0.020565167124199268
-0.0614704817467595
-0.43794369297730007
0.020565167124199268
-0.0614704817467595
-0.43794369297730007
0.020565167124199268
-0.0614704817467595
-0.43794369297730007
0.020565167124199268
-0.0614704817467595
-0.43794369297730007
0.02044585341759023
-0.061497022964868725
-0.43794029589630146
0.02044585341759023
-0.061497022964868725
-0.43794029589630146
0.02044585341759023
-0.061497022964868725
-0.43794029589630146
0.02044585341759023
-0.061497022964868725
-0.43794029589630146
0.02044585341759023
-0.061497022964868725
-0.43794029589630146
0.02044585341759023
-0.061497022964868725
-0.43794029589630146
0.02044585341759023
-0.061497022964868725
-0.43794029589630146
0.02044585341759023
-0.061497022964868725
-0.43794029589630146
0.020837177168570666
-0.061532372689143966
-0.43819115618448756
0.020837177168570666
-0.061532372689143966
-0.43819115618448756
0.020837177168570666
-0.061532372689143966
-0.43819115618448756
0.020837177168570666
-0.061532372689143966
-0.43819115618448756
0.021290632952015432
-0.061804991819063015
-0.43871142420618303
0.021290632952015432
-0.061804991819063015
-0.43871142420618303
0.021290632952015432
-0.061804991819063015
-0.43871142420618303
0.021290632952015432
-0.061804991819063015
-0.43871142420618303
0.020706204414081122
-0.062435318480783646
-0.4394683016576058
0.020706204414081122
-0.062435318480783646
-0.4394683016576058
0.020706204414081122
-0.062435318480783646
-0.4394683016576058
0.020706204414081122
-0.062435318480783646
-0.4394683016576058
0.018777695609754303
-0.06323894127737899
-0.4400382677590356
0.018777695609754303
-0.06323894127737899
-0.4400382677590356
0.018777695609754303
-0.06323894127737899
-0.4400382677590356
0.018777695609754303
-0.06323894127737899
-0.4400382677590356
0.01702237962516416
-0.0642550458593517
-0.4406140335458956
0.01702237962516416
-0.0642550458593517
-0.4406140335458956
0.01702237962516416
-0.0642550458593517
-0.4406140335458956
0.01702237962516416
-0.0642550458593517
-0.4406140335458956
0.0170198977067864
-0.06525870294645457
-0.4412718257065088
0.0170198977067864
-0.06525870294645457
-0.4412718257065088
0.0170198977067864
-0.06525870294645457
-0.4412718257065088
0.0170198977067864
-0.06525870294645457
-0.4412718257065088
0.017927971549203447
-0.0664303420213271
-0.44181545125064714
0.017927971549203447
-0.0664303420213271
-0.44181545125064714
0.017927971549203447
-0.0664303420213271
-0.44181545125064714
0.017927971549203447
-0.0664303420213271
-0.44181545125064714
0.01788670303818074
-0.06731690667494587
-0.442087126731295
0.01788670303818074
-0.06731690667494587
-0.442087126731295
0.01788670303818074
-0.06731690667494587
-0.442087126731295
0.01788670303818074
-0.06731690667494587
-0.442087126731295
0.017166650301385138
-0.06797662631190989
-0.4423069150220881
0.017166650301385138
-0.06797662631190989
-0.4423069150220881
0.017166650301385138
-0.06797662631190989
-0.4423069150220881
0.017166650301385138
-0.06797662631190989
-0.4423069150220881
0.016743186658301816
-0.06832183951754374
-0.4422954090387527
0.016743186658301816
-0.06832183951754374
-0.4422954090387527
0.016743186658301816
-0.06832183951754374
-0.4422954090387527
0.016743186658301816
-0.06832183951754374
-0.4422954090387527
0.016193128880618017
-0.06806820616668141
-0.44251290718263736
0.016193128880618017
-0.06806820616668141
-0.44251290718263736
0.016193128880618017
-0.06806820616668141
-0.44251290718263736
0.016193128880618017
-0.06806820616668141
-0.44251290718263736
0.01608184459028778
-0.06759401247391124
-0.4423861255800147
0.01608184459028778
-0.06759401247391124
-0.4423861255800147
0.01608184459028778
-0.06759401247391124
-0.4423861255800147
0.01608184459028778
-0.06759401247391124
-0.4423861255800147
0.016503967869120176
-0.06674777542831255
-0.44200911945848803
0.016503967869120176
-0.06674777542831255
-0.44200911945848803
0.016503967869120176
-0.06674777542831255
-0.44200911945848803
0.016503967869120176
-0.06674777542831255
-0.44200911945848803
0.015727122849095918
-0.06504623906747135
-0.44146633017168463
0.015727122849095918
-0.06504623906747135
-0.44146633017168463
0.015727122849095918
-0.06504623906747135
-0.44146633017168463
0.015727122849095918
-0.06504623906747135
-0.44146633017168463
0.013181179369097306
-0.06273700621814349
-0.4407189427601288
0.013181179369097306
-0.06273700621814349
-0.4407189427601288
0.013181179369097306
-0.06273700621814349
-0.4407189427601288
0.013181179369097306
-0.06273700621814349
-0.4407189427601288
0.008530221060859166
-0.06001913909335039
-0.4395279504004372
0.008530221060859166
-0.06001913909335039
-0.4395279504004372
0.008530221060859166
-0.06001913909335039
-0.4395279504004372
0.008530221060859166
-0.06001913909335039
-0.4395279504004372
-0.0011080925290590851
-0.058413483129132436
-0.43885533102203717
-0.0011080925290590851
-0.058413483129132436
-0.43885533102203717
-0.0011080925290590851
-0.058413483129132436
-0.43885533102203717
-0.0011080925290590851
-0.058413483129132436
-0.43885533102203717
-0.0185262202445607
-0.057681387827227516
-0.4393866269375079
-0.0185262202445607
-0.057681387827227516
-0.4393866269375079
-0.0185262202445607
-0.057681387827227516
-0.4393866269375079
-0.0185262202445607
-0.057681387827227516
-0.4393866269375079
-0.04354506145325522
-0.05756701340419987
-0.44099955812361596
-0.04354506145325522
-0.05756701340419987
-0.44099955812361596
-0.04354506145325522
-0.05756701340419987
-0.44099955812361596
-0.04354506145325522
-0.05756701340419987
-0.44099955812361596
-0.07287384256125237
-0.05724866025159817
-0.4432299256708743
-0.07287384256125237
-0.05724866025159817
-0.4432299256708743
-0.07287384256125237
-0.05724866025159817
-0.4432299256708743
-0.07287384256125237
-0.05724866025159817
-0.4432299256708743
-0.10319617826735818
-0.05710996606888706
-0.4455423271067273
-0.10319617826735818
-0.05710996606888706
-0.4455423271067273
-0.10319617826735818
-0.05710996606888706
-0.4455423271067273
-0.10319617826735818
-0.05710996606888706
-0.4455423271067273
-0.13199238665281557
-0.05671344609236787
-0.4480320171525042
-0.13199238665281557
-0.05671344609236787
-0.4480320171525042
-0.13199238665281557
-0.05671344609236787
-0.4480320171525042
-0.13199238665281557
-0.05671344609236787
-0.4480320171525042
-0.1617260180673382
-0.05569550135905941
-0.4501390567081076
-0.1617260180673382
-0.05569550135905941
-0.4501390567081076
-0.1617260180673382
-0.05569550135905941
-0.4501390567081076
-0.1617260180673382
-0.05569550135905941
-0.4501390567081076
-0.19409305865329568
-0.0538663766886255
-0.45245390485556514
-0.19409305865329568
-0.0538663766886255
-0.45245390485556514
-0.19409305865329568
-0.0538663766886255
-0.45245390485556514
-0.19409305865329568
-0.0538663766886255
-0.45245390485556514
-0.2248336918881074
-0.05064880078040516
-0.45523791164310623
-0.2248336918881074
-0.05064880078040516
-0.45523791164310623
-0.2248336918881074
-0.05064880078040516
-0.45523791164310623
-0.2248336918881074
-0.05064880078040516
-0.45523791164310623
-0.25209681041056275
-0.047516253170927024
-0.45859036557762545
-0.25209681041056275
-0.047516253170927024
-0.45859036557762545
-0.25209681041056275
-0.047516253170927024
-0.45859036557762545
-0.25209681041056275
-0.047516253170927024
-0.45859036557762545
-0.27589322317427506
-0.04390317181033829
-0.4629322409690981
-0.27589322317427506
-0.04390317181033829
-0.4629322409690981
-0.27589322317427506
-0.04390317181033829
-0.4629322409690981
-0.27589322317427506
-0.04390317181033829
-0.4629322409690981
-0.29388547952626065
-0.03888182250524838
-0.46830600842390036
-0.29388547952626065
-0.03888182250524838
-0.46830600842390036
-0.29388547952626065
-0.03888182250524838
-0.46830600842390036
-0.29388547952626065
-0.03888182250524838
-0.46830600842390036
-0.30495756139725244
-0.03346688042076557
-0.47576667730585187
-0.30495756139725244
-0.03346688042076557
-0.47576667730585187
-0.30495756139725244
-0.03346688042076557
-0.47576667730585187
-0.30495756139725244
-0.03346688042076557
-0.47576667730585187
-0.3187650034622589
-0.030789466138767263
-0.48299827707769194
-0.3187650034622589
-0.030789466138767263
-0.48299827707769194
-0.3187650034622589
-0.030789466138767263
-0.48299827707769194
-0.3187650034622589
-0.030789466138767263
-0.48299827707769194
-0.339804251933538
-0.030489832468224874
-0.4899535497344576
-0.339804251933538
-0.030489832468224874
-0.4899535497344576
-0.339804251933538
-0.030489832468224874
-0.4899535497344576
-0.339804251933538
-0.030489832468224874
-0.4899535497344576
-0.36568624625554086
-0.03273177375415481
-0.4969731840551597
-0.36568624625554086
-0.03273177375415481
-0.4969731840551597
-0.36568624625554086
-0.03273177375415481
-0.4969731840551597
-0.36568624625554086
-0.03273177375415481
-0.4969731840551597
-0.39133198471884184
-0.035822311026063244
-0.5037771709450438
-0.39133198471884184
-0.035822311026063244
-0.5037771709450438
-0.39133198471884184
-0.035822311026063244
-0.5037771709450438
-0.39133198471884184
-0.035822311026063244
-0.5037771709450438
-0.40882896722186945
-0.038638075411934855
-0.5094669543272167
-0.40882896722186945
-0.038638075411934855
-0.5094669543272167
-0.40882896722186945
-0.038638075411934855
-0.5094669543272167
-0.40882896722186945
-0.038638075411934855
-0.5094669543272167
-0.41893313007723476
-0.0418200599431943
-0.5153687182599525
-0.41893313007723476
-0.0418200599431943
-0.5153687182599525
-0.41893313007723476
-0.0418200599431943
-0.5153687182599525
-0.41893313007723476
-0.0418200599431943
-0.5153687182599525
-0.42745657262668263
-0.045493905829987004
-0.52044766548812
-0.42745657262668263
-0.045493905829987004
-0.52044766548812
-0.42745657262668263
-0.045493905829987004
-0.52044766548812
-0.42745657262668263
-0.045493905829987004
-0.52044766548812
-0.4363390677168379
-0.049225284759537115
-0.5240021831681133
-0.4363390677168379
-0.049225284759537115
-0.5240021831681133
-0.4363390677168379
-0.049225284759537115
-0.5240021831681133
-0.4363390677168379
-0.049225284759537115
-0.5240021831681133
-0.4440872630091791
-0.05274983386860535
-0.5272679910167273
-0.4440872630091791
-0.05274983386860535
-0.5272679910167273
-0.4440872630091791
-0.05274983386860535
-0.5272679910167273
-0.4440872630091791
-0.05274983386860535
-0.5272679910167273
-0.4490443801838126
-0.05548633778048828
-0.5303320855368887
-0.4490443801838126
-0.05548633778048828
-0.5303320855368887
-0.4490443801838126
-0.05548633778048828
-0.5303320855368887
-0.4490443801838126
-0.05548633778048828
-0.5303320855368887
-0.4500347864723205
-0.05791189914801147
-0.5323094470984759
-0.4500347864723205
-0.05791189914801147
-0.5323094470984759
-0.4500347864723205
-0.05791189914801147
-0.5323094470984759
-0.4500347864723205
-0.05791189914801147
-0.5323094470984759
-0.4467951275497334
-0.05992732562029999
-0.533691449713102
-0.4467951275497334
-0.05992732562029999
-0.533691449713102
-0.4467951275497334
-0.05992732562029999
-0.533691449713102
-0.4467951275497334
-0.05992732562029999
-0.533691449713102
-0.4426309750227439
-0.06108132645734352
-0.5347531715833655
-0.4426309750227439
-0.06108132645734352
-0.5347531715833655
-0.4426309750227439
-0.06108132645734352
-0.5347531715833655
-0.4426309750227439
-0.06108132645734352
-0.5347531715833655
-0.4417405342105033
-0.06110580294345007
-0.5353787015364999
-0.4417405342105033
-0.06110580294345007
-0.5353787015364999
-0.4417405342105033
-0.06110580294345007
-0.5353787015364999
-0.4417405342105033
-0.06110580294345007
-0.5353787015364999
-0.444600394603369
-0.06016276018667009
-0.5356699399206117
-0.444600394603369
-0.06016276018667009
-0.5356699399206117
-0.444600394603369
-0.06016276018667009
-0.5356699399206117
-0.444600394603369
-0.06016276018667009
-0.5356699399206117
-0.4489667318305435
-0.0583777818269887
-0.5355406716794348
-0.4489667318305435
-0.0583777818269887
-0.5355406716794348
-0.4489667318305435
-0.0583777818269887
-0.5355406716794348
-0.4489667318305435
-0.0583777818269887
-0.5355406716794348
-0.4518649790162243
-0.05625633890373619
-0.5351972163455672
-0.4518649790162243
-0.05625633890373619
-0.5351972163455672
-0.4518649790162243
-0.05625633890373619
-0.5351972163455672
-0.4518649790162243
-0.05625633890373619
-0.5351972163455672
-0.4510462124941862
-0.05397253545068698
-0.535282261296022
-0.4510462124941862
-0.05397253545068698
-0.535282261296022
-0.4510462124941862
-0.05397253545068698
-0.535282261296022
-0.4510462124941862
-0.05397253545068698
-0.535282261296022
-0.447253821257898
-0.051730610610845565
-0.535783695307116
-0.447253821257898
-0.051730610610845565
-0.535783695307116
-0.447253821257898
-0.051730610610845565
-0.535783695307116
-0.447253821257898
-0.051730610610845565
-0.535783695307116
-0.4438095635799024
-0.05004503842010313
-0.5360209993722274
-0.4438095635799024
-0.05004503842010313
-0.5360209993722274
-0.4438095635799024
-0.05004503842010313
-0.5360209993722274
-0.4438095635799024
-0.05004503842010313
-0.5360209993722274
-0.4428523433081147
-0.048225302025549
-0.535477240044147
-0.4428523433081147
-0.048225302025549
-0.535477240044147
-0.4428523433081147
-0.048225302025549
-0.535477240044147
-0.4428523433081147
-0.048225302025549
-0.535477240044147
-0.4432176056885188
-0.04631383717816928
-0.5346260946048369
-0.4432176056885188
-0.04631383717816928
-0.5346260946048369
-0.4432176056885188
-0.04631383717816928
-0.5346260946048369
-0.4432176056885188
-0.04631383717816928
-0.5346260946048369
-0.4441843253713767
-0.04401481346189647
-0.5336079093595397
-0.4441843253713767
-0.04401481346189647
-0.5336079093595397
-0.4441843253713767
-0.04401481346189647
-0.5336079093595397
-0.4441843253713767
-0.04401481346189647
-0.5336079093595397
-0.44479562098056524
-0.04109691629235267
-0.5325854630822857
-0.44479562098056524
-0.04109691629235267
-0.5325854630822857
-0.44479562098056524
-0.04109691629235267
-0.5325854630822857
-0.44479562098056524
-0.04109691629235267
-0.5325854630822857
-0.4432966144875368
-0.03778381243698615
-0.5318038146701419
-0.4432966144875368
-0.03778381243698615
-0.5318038146701419
-0.4432966144875368
-0.03778381243698615
-0.5318038146701419
-0.4432966144875368
-0.03778381243698615
-0.5318038146701419
-0.44049822726833165
-0.033980350966413546
-0.5304480971534703
-0.44049822726833165
-0.033980350966413546
-0.5304480971534703
-0.44049822726833165
-0.033980350966413546
-0.5304480971534703
-0.44049822726833165
-0.033980350966413546
-0.5304480971534703
-0.4363188955909681
-0.029803925319961046
-0.5279364145226653
-0.4363188955909681
-0.029803925319961046
-0.5279364145226653
-0.4363188955909681
-0.029803925319961046
-0.5279364145226653
-0.4363188955909681
-0.029803925319961046
-0.5279364145226653
-0.430642110031362
-0.025744991177821905
-0.5247906546487144
-0.430642110031362
-0.025744991177821905
-0.5247906546487144
-0.430642110031362
-0.025744991177821905
-0.5247906546487144
-0.430642110031362
-0.025744991177821905
-0.5247906546487144
-0.4225275209356918
-0.022088929321656712
-0.52107579225954
-0.4225275209356918
-0.022088929321656712
-0.52107579225954
-0.4225275209356918
-0.022088929321656712
-0.52107579225954
-0.4225275209356918
-0.022088929321656712
-0.52107579225954
-0.41169398405599716
-0.018780104397363148
-0.5167370443054174
-0.41169398405599716
-0.018780104397363148
-0.5167370443054174
-0.41169398405599716
-0.018780104397363148
-0.5167370443054174
-0.41169398405599716
-0.018780104397363148
-0.5167370443054174
-0.39643519717197084
-0.01621934568466325
-0.5120677552367003
-0.39643519717197084
-0.01621934568466325
-0.5120677552367003
-0.39643519717197084
-0.01621934568466325
-0.5120677552367003
-0.39643519717197084
-0.01621934568466325
-0.5120677552367003
-0.37446344651082514
-0.01582714227337387
-0.5073296686002088
-0.37446344651082514
-0.01582714227337387
-0.5073296686002088
-0.37446344651082514
-0.01582714227337387
-0.5073296686002088
-0.37446344651082514
-0.01582714227337387
-0.5073296686002088
-0.3451144428738428
-0.017867927489482027
-0.504185030589737
-0.3451144428738428
-0.017867927489482027
-0.504185030589737
-0.3451144428738428
-0.017867927489482027
-0.504185030589737
-0.3451144428738428
-0.017867927489482027
-0.504185030589737
-0.3081712752712305
-0.020717469798802447
-0.5027705033777666
-0.3081712752712305
-0.020717469798802447
-0.5027705033777666
-0.3081712752712305
-0.020717469798802447
-0.5027705033777666
-0.3081712752712305
-0.020717469798802447
-0.5027705033777666
-0.2654539008685781
-0.02232809443014118
-0.5030467681507945
-0.2654539008685781
-0.02232809443014118
-0.5030467681507945
-0.2654539008685781
-0.02232809443014118
-0.5030467681507945
-0.2654539008685781
-0.02232809443014118
-0.5030467681507945
-0.2193347050165079
-0.020397206006753106
-0.5026055279992047
-0.2193347050165079
-0.020397206006753106
-0.5026055279992047
-0.2193347050165079
-0.020397206006753106
-0.5026055279992047
-0.2193347050165079
-0.020397206006753106
-0.5026055279992047
-0.17391757632355404
-0.016442694946954987
-0.49856923001293013
-0.17391757632355404
-0.016442694946954987
-0.49856923001293013
-0.17391757632355404
-0.016442694946954987
-0.49856923001293013
-0.17391757632355404
-0.016442694946954987
-0.49856923001293013
-0.12874036693238894
-0.01503764785147625
-0.493112004112712
-0.12874036693238894
-0.01503764785147625
-0.493112004112712
-0.12874036693238894
-0.01503764785147625
-0.493112004112712
-0.12874036693238894
-0.01503764785147625
-0.493112004112712
-0.08983195868921987
-0.017778706106716304
-0.4865797176584553
-0.08983195868921987
-0.017778706106716304
-0.4865797176584553
-0.08983195868921987
-0.017778706106716304
-0.4865797176584553
-0.08983195868921987
-0.017778706106716304
-0.4865797176584553
-0.061258142387019175
-0.026097154279648208
-0.4773973110647485
-0.061258142387019175
-0.026097154279648208
-0.4773973110647485
-0.061258142387019175
-0.026097154279648208
-0.4773973110647485
-0.061258142387019175
-0.026097154279648208
-0.4773973110647485
-0.037606326644391605
-0.03605926588136183
-0.46724375341620455
-0.037606326644391605
-0.03605926588136183
-0.46724375341620455
-0.037606326644391605
-0.03605926588136183
-0.46724375341620455
-0.037606326644391605
-0.03605926588136183
-0.46724375341620455
-0.018588996952181337
-0.04546865456734758
-0.4592065518307025
-0.018588996952181337
-0.04546865456734758
-0.4592065518307025
-0.018588996952181337
-0.04546865456734758
-0.4592065518307025
-0.018588996952181337
-0.04546865456734758
-0.4592065518307025
-0.006222290012275068
-0.05292752861280835
-0.4529753343918641
-0.006222290012275068
-0.05292752861280835
-0.4529753343918641
-0.006222290012275068
-0.05292752861280835
-0.4529753343918641
-0.006222290012275068
-0.05292752861280835
-0.4529753343918641
0.0040482972304749084
-0.0589340936726458
-0.44839873784567147
0.0040482972304749084
-0.0589340936726458
-0.44839873784567147
0.0040482972304749084
-0.0589340936726458
-0.44839873784567147
0.0040482972304749084
-0.0589340936726458
-0.44839873784567147
0.014206638244942131
-0.06413531387615733
-0.44327825782188907
0.014206638244942131
-0.06413531387615733
-0.44327825782188907
0.014206638244942131
-0.06413531387615733
-0.44327825782188907
0.014206638244942131
-0.06413531387615733
-0.44327825782188907
0.019665767019356763
-0.06742670611337241
-0.4386503763189682
0.019665767019356763
-0.06742670611337241
-0.4386503763189682
0.019665767019356763
-0.06742670611337241
-0.4386503763189682
0.019665767019356763
-0.06742670611337241
-0.4386503763189682
0.01771522997984818
-0.06973968965909183
-0.4362334614807464
0.01771522997984818
-0.06973968965909183
-0.4362334614807464
0.01771522997984818
-0.06973968965909183
-0.4362334614807464
0.01771522997984818
-0.06973968965909183
-0.4362334614807464
0.014340144348366569
-0.07211033819603771
-0.4356292741395082
0.014340144348366569
-0.07211033819603771
-0.4356292741395082
0.014340144348366569
-0.07211033819603771
-0.4356292741395082
0.014340144348366569
-0.07211033819603771
-0.4356292741395082
0.012537090849269811
-0.07301312573064257
-0.435596267806255
0.012537090849269811
-0.07301312573064257
-0.435596267806255
0.012537090849269811
-0.07301312573064257
-0.435596267806255
0.012537090849269811
-0.07301312573064257
-0.435596267806255
0.01213807810253933
-0.07297404813273486
-0.43519725505952445
0.01213807810253933
-0.07297404813273486
-0.43519725505952445
0.01213807810253933
-0.07297404813273486
-0.43519725505952445
0.01213807810253933
-0.07297404813273486
-0.43519725505952445
0.008530176800565873
-0.07239718183844189
-0.4358051156309065
0.008530176800565873
-0.07239718183844189
-0.4358051156309065
0.008530176800565873
-0.07239718183844189
-0.4358051156309065
0.008530176800565873
-0.07239718183844189
-0.4358051156309065
0.002733676007947914
-0.07206069445783912
-0.4367209516014319
0.002733676007947914
-0.07206069445783912
-0.4367209516014319
0.002733676007947914
-0.07206069445783912
-0.4367209516014319
0.002733676007947914
-0.07206069445783912
-0.4367209516014319
4.780434292963978E-4
-0.0714351676525858
-0.4369972487030924
4.780434292963978E-4
-0.0714351676525858
-0.4369972487030924
4.780434292963978E-4
-0.0714351676525858
-0.4369972487030924
4.780434292963978E-4
-0.0714351676525858
-0.4369972487030924
-7.248352199455115E-4
-0.07107677902664086
-0.4370736413345706
-7.248352199455115E-4
-0.07107677902664086
-0.4370736413345706
-7.248352199455115E-4
-0.07107677902664086
-0.4370736413345706
-7.248352199455115E-4
-0.07107677902664086
-0.4370736413345706
-0.0013308805748014467
-0.07008176001801869
-0.4367877961423448
-0.0013308805748014467
-0.07008176001801869
-0.4367877961423448
-0.0013308805748014467
-0.07008176001801869
-0.4367877961423448
-0.0013308805748014467
-0.07008176001801869
-0.4367877961423448
-0.0017007803112326402
-0.06853417164038983
-0.4360342087779262
-0.0017007803112326402
-0.06853417164038983
-0.4360342087779262
-0.0017007803112326402
-0.06853417164038983
-0.4360342087779262
-0.0017007803112326402
-0.06853417164038983
-0.4360342087779262
-0.0015871848466521247
-0.06699584316499808
-0.43464829837819896
-0.0015871848466521247
-0.06699584316499808
-0.43464829837819896
-0.0015871848466521247
-0.06699584316499808
-0.43464829837819896
-0.0015871848466521247
-0.06699584316499808
-0.43464829837819896
-0.0011800835836025618
-0.0656435671882847
-0.4332718072814056
-0.0011800835836025618
-0.0656435671882847
-0.4332718072814056
-0.0011800835836025618
-0.0656435671882847
-0.4332718072814056
-0.0011800835836025618
-0.0656435671882847
-0.4332718072814056
-0.001169508830945028
-0.06413348811323778
-0.4322662744373748
-0.001169508830945028
-0.06413348811323778
-0.4322662744373748
-0.001169508830945028
-0.06413348811323778
-0.4322662744373748
-0.001169508830945028
-0.06413348811323778
-0.4322662744373748
-9.781439729306415E-4
-0.06283414153431283
-0.4315049207758288
-9.781439729306415E-4
-0.06283414153431283
-0.4315049207758288
-9.781439729306415E-4
-0.06283414153431283
-0.4315049207758288
-9.781439729306415E-4
-0.06283414153431283
-0.4315049207758288
-0.00104634601804205
-0.06147088596586777
-0.430880839021594
-0.00104634601804205
-0.06147088596586777
-0.430880839021594
-0.00104634601804205
-0.06147088596586777
-0.430880839021594
-0.00104634601804205
-0.06147088596586777
-0.430880839021594
-0.0010732642968644959
-0.05972025975396018
-0.430232219847347
-0.0010732642968644959
-0.05972025975396018
-0.430232219847347
-0.0010732642968644959
-0.05972025975396018
-0.430232219847347
-0.0010732642968644959
-0.05972025975396018
-0.430232219847347
-0.001747557772828248
-0.05786478056300054
-0.42959107291187676
-0.001747557772828248
-0.05786478056300054
-0.42959107291187676
-0.001747557772828248
-0.05786478056300054
-0.42959107291187676
-0.001747557772828248
-0.05786478056300054
-0.42959107291187676
-0.003988926676365382
-0.05622559314396996
-0.4292648139272821
-0.003988926676365382
-0.05622559314396996
-0.4292648139272821
-0.003988926676365382
-0.05622559314396996
-0.4292648139272821
-0.003988926676365382
-0.05622559314396996
-0.4292648139272821
-0.006373152109131712
-0.05499702990212247
-0.4295596299104094
-0.006373152109131712
-0.05499702990212247
-0.4295596299104094
-0.006373152109131712
-0.05499702990212247
-0.4295596299104094
-0.006373152109131712
-0.05499702990212247
-0.4295596299104094
-0.0062872451944234985
-0.05422935942009684
-0.42968371617026946
-0.0062872451944234985
-0.05422935942009684
-0.42968371617026946
-0.0062872451944234985
-0.05422935942009684
-0.42968371617026946
-0.0062872451944234985
-0.05422935942009684
-0.42968371617026946
-0.004468474029148276
-0.05345403013068895
-0.42923151004697097
-0.004468474029148276
-0.05345403013068895
-0.42923151004697097
-0.004468474029148276
-0.05345403013068895
-0.42923151004697097
-0.004468474029148276
-0.05345403013068895
-0.42923151004697097
-0.004559866884692128
-0.05309478727989087
-0.42872662660626676
-0.004559866884692128
-0.05309478727989087
-0.42872662660626676
-0.004559866884692128
-0.05309478727989087
-0.42872662660626676
-0.004559866884692128
-0.05309478727989087
-0.42872662660626676
-0.005683609877765613
-0.05320831149460255
-0.4278352273423114
-0.005683609877765613
-0.05320831149460255
-0.4278352273423114
-0.005683609877765613
-0.05320831149460255
-0.4278352273423114
-0.005683609877765613
-0.05320831149460255
-0.4278352273423114
-0.0055715277930078475
-0.05329874738293729
-0.4265927493763527
-0.0055715277930078475
-0.05329874738293729
-0.4265927493763527
-0.0055715277930078475
-0.05329874738293729
-0.4265927493763527
-0.0055715277930078475
-0.05329874738293729
-0.4265927493763527
-0.004097655417796391
-0.05334183337614845
-0.42524156909020416
-0.004097655417796391
-0.05334183337614845
-0.42524156909020416
-0.004097655417796391
-0.05334183337614845
-0.42524156909020416
-0.004097655417796391
-0.05334183337614845
-0.42524156909020416
-0.004159788212205066
-0.053724823192083826
-0.4244971434179507
-0.004159788212205066
-0.053724823192083826
-0.4244971434179507
-0.004159788212205066
-0.053724823192083826
-0.4244971434179507
-0.004159788212205066
-0.053724823192083826
-0.4244971434179507
-0.004092429142912326
-0.05408404999181255
-0.42414007772262957
-0.004092429142912326
-0.05408404999181255
-0.42414007772262957
-0.004092429142912326
-0.05408404999181255
-0.42414007772262957
-0.004092429142912326
-0.05408404999181255
-0.42414007772262957
-0.004066712270321819
-0.05420334945651768
-0.424140530574899
-0.004066712270321819
-0.05420334945651768
-0.424140530574899
-0.004066712270321819
-0.05420334945651768
-0.424140530574899
-0.004066712270321819
-0.05420334945651768
-0.424140530574899
-0.004971086520009066
-0.054647366723214456
-0.4241149099459507
-0.004971086520009066
-0.054647366723214456
-0.4241149099459507
-0.004971086520009066
-0.054647366723214456
-0.4241149099459507
-0.004971086520009066
-0.054647366723214456
-0.4241149099459507
-0.006484759001545678
-0.055102500288363464
-0.42457531721970887
-0.006484759001545678
-0.055102500288363464
-0.42457531721970887
-0.006484759001545678
-0.055102500288363464
-0.42457531721970887
-0.006484759001545678
-0.055102500288363464
-0.42457531721970887
-0.007766403430541431
-0.05550396921658801
-0.42477718880895016
-0.007766403430541431
-0.05550396921658801
-0.42477718880895016
-0.007766403430541431
-0.05550396921658801
-0.42477718880895016
-0.007766403430541431
-0.05550396921658801
-0.42477718880895016
-0.008514860660122636
-0.05604458802236695
-0.42513799061212476
-0.008514860660122636
-0.05604458802236695
-0.42513799061212476
-0.008514860660122636
-0.05604458802236695
-0.42513799061212476
-0.008514860660122636
-0.05604458802236695
-0.42513799061212476
-0.008998435558515611
-0.05665326568864673
-0.4255055934029187
-0.008998435558515611
-0.05665326568864673
-0.4255055934029187
-0.008998435558515611
-0.05665326568864673
-0.4255055934029187
-0.008998435558515611
-0.05665326568864673
-0.4255055934029187
-0.009627095198654326
-0.05716863334214919
-0.4258692120187319
-0.009627095198654326
-0.05716863334214919
-0.4258692120187319
-0.009627095198654326
-0.05716863334214919
-0.4258692120187319
-0.009627095198654326
-0.05716863334214919
-0.4258692120187319
-0.010632672955368131
-0.05764212561877403
-0.426460590949937
-0.010632672955368131
-0.05764212561877403
-0.426460590949937
-0.010632672955368131
-0.05764212561877403
-0.426460590949937
-0.010632672955368131
-0.05764212561877403
-0.426460590949937
-0.01087309858781228
-0.05819977923613705
-0.4269539197375678
-0.01087309858781228
-0.05819977923613705
-0.4269539197375678
-0.01087309858781228
-0.05819977923613705
-0.4269539197375678
-0.01087309858781228
-0.05819977923613705
-0.4269539197375678
-0.010620608258333265
-0.05877009063371348
-0.42707758820049735
-0.010620608258333265
-0.05877009063371348
-0.42707758820049735
-0.010620608258333265
-0.05877009063371348
-0.42707758820049735
-0.010620608258333265
-0.05877009063371348
-0.42707758820049735
-0.010620608258333265
-0.05877009063371348
-0.42707758820049735
-0.010620608258333265
-0.05877009063371348
-0.42707758820049735
-0.010620608258333265
-0.05877009063371348
-0.42707758820049735
-0.010620608258333265
-0.05877009063371348
-0.42707758820049735
-0.010620608258333265
-0.05877009063371348
-0.42707758820049735
-0.010620608258333265
-0.05877009063371348
-0.42707758820049735
-0.010620608258333265
-0.05877009063371348
-0.42707758820049735
-0.010620608258333265
-0.05877009063371348
-0.42707758820049735
-0.010765948035414221
-0.05867667950496511
-0.4270738193011297
-0.010765948035414221
-0.05867667950496511
-0.4270738193011297
-0.010765948035414221
-0.05867667950496511
-0.4270738193011297
-0.010765948035414221
-0.05867667950496511
-0.4270738193011297
-0.010765948035414221
-0.05867667950496511
-0.4270738193011297
-0.010765948035414221
-0.05867667950496511
-0.4270738193011297
-0.010765948035414221
-0.05867667950496511
-0.4270738193011297
-0.010765948035414221
-0.05867667950496511
-0.4270738193011297
-0.010885404026998512
-0.058702518131652635
-0.427070172797663
-0.010885404026998512
-0.058702518131652635
-0.427070172797663
-0.010885404026998512
-0.058702518131652635
-0.427070172797663
-0.010885404026998512
-0.058702518131652635
-0.427070172797663
-0.010885404026998512
-0.058702518131652635
-0.427070172797663
-0.010885404026998512
-0.058702518131652635
-0.427070172797663
-0.010885404026998512
-0.058702518131652635
-0.427070172797663
-0.010885404026998512
-0.058702518131652635
-0.427070172797663
-0.01138172230217416
-0.05869010445304935
-0.4273202764838988
-0.01138172230217416
-0.05869010445304935
-0.4273202764838988
-0.01138172230217416
-0.05869010445304935
-0.4273202764838988
-0.01138172230217416
-0.05869010445304935
-0.4273202764838988
-0.012830049979009163
-0.058881068408225504
-0.42763456825120794
-0.012830049979009163
-0.058881068408225504
-0.42763456825120794
-0.012830049979009163
-0.058881068408225504
-0.42763456825120794
-0.012830049979009163
-0.058881068408225504
-0.42763456825120794
-0.014129189570447868
-0.05916960382499607
-0.4280975670339503
-0.014129189570447868
-0.05916960382499607
-0.4280975670339503
-0.014129189570447868
-0.05916960382499607
-0.4280975670339503
-0.014129189570447868
-0.05916960382499607
-0.4280975670339503
-0.014466073513189716
-0.05987335416689463
-0.42846647905416735
-0.014466073513189716
-0.05987335416689463
-0.42846647905416735
-0.014466073513189716
-0.05987335416689463
-0.42846647905416735
-0.014466073513189716
-0.05987335416689463
-0.42846647905416735
-0.014585517211588805
-0.059899267905554526
-0.428462712894114
-0.014585517211588805
-0.059899267905554526
-0.428462712894114
-0.014585517211588805
-0.059899267905554526
-0.428462712894114
-0.014585517211588805
-0.059899267905554526
-0.428462712894114
-0.01455955711791291
-0.06001849723346666
-0.42846262190424556
-0.01455955711791291
-0.06001849723346666
-0.42846262190424556
-0.01455955711791291
-0.06001849723346666
-0.42846262190424556
-0.01455955711791291
-0.06001849723346666
-0.42846262190424556
-0.01498854119911203
-0.059853428218099636
-0.42782833081689514
-0.01498854119911203
-0.059853428218099636
-0.42782833081689514
-0.01498854119911203
-0.059853428218099636
-0.42782833081689514
-0.01498854119911203
-0.059853428218099636
-0.42782833081689514
-0.01549268179428679
-0.0599521197668948
-0.42695111117296625
-0.01549268179428679
-0.0599521197668948
-0.42695111117296625
-0.01549268179428679
-0.0599521197668948
-0.42695111117296625
-0.01549268179428679
-0.0599521197668948
-0.42695111117296625
-0.01542142583482757
-0.05979863424583109
-0.42618652842765764
-0.01542142583482757
-0.05979863424583109
-0.42618652842765764
-0.01542142583482757
-0.05979863424583109
-0.42618652842765764
-0.01542142583482757
-0.05979863424583109
-0.42618652842765764
-0.014637053747673408
-0.05949445854547497
-0.4253508142591009
-0.014637053747673408
-0.05949445854547497
-0.4253508142591009
-0.014637053747673408
-0.05949445854547497
-0.4253508142591009
-0.014637053747673408
-0.05949445854547497
-0.4253508142591009
-0.014207069308358744
-0.059264324690955036
-0.4245974185153046
-0.014207069308358744
-0.059264324690955036
-0.4245974185153046
-0.014207069308358744
-0.059264324690955036
-0.4245974185153046
-0.014207069308358744
-0.059264324690955036
-0.4245974185153046
-0.014935237509017908
-0.059418040263204706
-0.4242165318386385
-0.014935237509017908
-0.059418040263204706
-0.4242165318386385
-0.014935237509017908
-0.059418040263204706
-0.4242165318386385
-0.014935237509017908
-0.059418040263204706
-0.4242165318386385
-0.01569462514287147
-0.059955514716741
-0.4241897416386782
-0.01569462514287147
-0.059955514716741
-0.4241897416386782
-0.01569462514287147
-0.059955514716741
-0.4241897416386782
-0.01569462514287147
-0.059955514716741
-0.4241897416386782
-0.016095526106752214
-0.060415995046872374
-0.42417400989232434
-0.016095526106752214
-0.060415995046872374
-0.42417400989232434
-0.016095526106752214
-0.060415995046872374
-0.42417400989232434
-0.016095526106752214
-0.060415995046872374
-0.42417400989232434
-0.015663737832417684
-0.060696727946033355
-0.4240654669058963
-0.015663737832417684
-0.060696727946033355
-0.4240654669058963
-0.015663737832417684
-0.060696727946033355
-0.4240654669058963
-0.015663737832417684
-0.060696727946033355
-0.4240654669058963
-0.01570615685990685
-0.061080235667864996
-0.42406116451214115
-0.01570615685990685
-0.061080235667864996
-0.42406116451214115
-0.01570615685990685
-0.061080235667864996
-0.42406116451214115
-0.01570615685990685
-0.061080235667864996
-0.42406116451214115
-0.016312819051340712
-0.0617155048659096
-0.42430196763427064
-0.016312819051340712
-0.0617155048659096
-0.42430196763427064
-0.016312819051340712
-0.0617155048659096
-0.42430196763427064
-0.016312819051340712
-0.0617155048659096
-0.42430196763427064
-0.016560647291157603
-0.06226999353378217
-0.4245285006483377
-0.016560647291157603
-0.06226999353378217
-0.4245285006483377
-0.016560647291157603
-0.06226999353378217
-0.4245285006483377
-0.016560647291157603
-0.06226999353378217
-0.4245285006483377
-0.016599213142047143
-0.0626576274159392
-0.4246692336502957
-0.016599213142047143
-0.0626576274159392
-0.4246692336502957
-0.016599213142047143
-0.0626576274159392
-0.4246692336502957
-0.016599213142047143
-0.0626576274159392
-0.4246692336502957
-0.016894344184946026
-0.06297381933299978
-0.4250154671932513
-0.016894344184946026
-0.06297381933299978
-0.4250154671932513
-0.016894344184946026
-0.06297381933299978
-0.4250154671932513
-0.016894344184946026
-0.06297381933299978
-0.4250154671932513
-0.016588048849719803
-0.06316563836165315
-0.42552684253331674
-0.016588048849719803
-0.06316563836165315
-0.42552684253331674
-0.016588048849719803
-0.06316563836165315
-0.42552684253331674
-0.016588048849719803
-0.06316563836165315
-0.42552684253331674
-0.016581103007244344
-0.0620407988917407
-0.42553639688674494
-0.016581103007244344
-0.0620407988917407
-0.42553639688674494
-0.016581103007244344
-0.0620407988917407
-0.42553639688674494
-0.016581103007244344
-0.0620407988917407
-0.42553639688674494
-0.017065142253413924
-0.0603927122288324
-0.42539026134192404
-0.017065142253413924
-0.0603927122288324
-0.42539026134192404
-0.017065142253413924
-0.0603927122288324
-0.42539026134192404
-0.017065142253413924
-0.0603927122288324
-0.42539026134192404
-0.018481116382689396
-0.058451983142990355
-0.4254848077285737
-0.018481116382689396
-0.058451983142990355
-0.4254848077285737
-0.018481116382689396
-0.058451983142990355
-0.4254848077285737
-0.018481116382689396
-0.058451983142990355
-0.4254848077285737
-0.021433792985729318
-0.056343055092515325
-0.4255404674687394
-0.021433792985729318
-0.056343055092515325
-0.4255404674687394
-0.021433792985729318
-0.056343055092515325
-0.4255404674687394
-0.021433792985729318
-0.056343055092515325
-0.4255404674687394
-0.02682766040550988
-0.054513866445842364
-0.4255582062551889
-0.02682766040550988
-0.054513866445842364
-0.4255582062551889
-0.02682766040550988
-0.054513866445842364
-0.4255582062551889
-0.02682766040550988
-0.054513866445842364
-0.4255582062551889
-0.03678766708190631
-0.05343729997090563
-0.4263130509175544
-0.03678766708190631
-0.05343729997090563
-0.4263130509175544
-0.03678766708190631
-0.05343729997090563
-0.4263130509175544
-0.03678766708190631
-0.05343729997090563
-0.4263130509175544
-0.049698553567604276
-0.052023197062933055
-0.4273263008745025
-0.049698553567604276
-0.052023197062933055
-0.4273263008745025
-0.049698553567604276
-0.052023197062933055
-0.4273263008745025
-0.049698553567604276
-0.052023197062933055
-0.4273263008745025
-0.06499556030782343
-0.0505336071629735
-0.4288036931631177
-0.06499556030782343
-0.0505336071629735
-0.4288036931631177
-0.06499556030782343
-0.0505336071629735
-0.4288036931631177
-0.06499556030782343
-0.0505336071629735
-0.4288036931631177
-0.08317997927396831
-0.048985905638770505
-0.4310306714367259
-0.08317997927396831
-0.048985905638770505
-0.4310306714367259
-0.08317997927396831
-0.048985905638770505
-0.4310306714367259
-0.08317997927396831
-0.048985905638770505
-0.4310306714367259
-0.10452507919133938
-0.047961711181973045
-0.43379405072990096
-0.10452507919133938
-0.047961711181973045
-0.43379405072990096
-0.10452507919133938
-0.047961711181973045
-0.43379405072990096
-0.10452507919133938
-0.047961711181973045
-0.43379405072990096
-0.1276237392359231
-0.047041017085299855
-0.43697245537696017
-0.1276237392359231
-0.047041017085299855
-0.43697245537696017
-0.1276237392359231
-0.047041017085299855
-0.43697245537696017
-0.1276237392359231
-0.047041017085299855
-0.43697245537696017
-0.14861395640103317
-0.04674858975006026
-0.4404711120696296
-0.14861395640103317
-0.04674858975006026
-0.4404711120696296
-0.14861395640103317
-0.04674858975006026
-0.4404711120696296
-0.14861395640103317
-0.04674858975006026
-0.4404711120696296
-0.16888416897459702
-0.04645135507629884
-0.4435204120910062
-0.16888416897459702
-0.04645135507629884
-0.4435204120910062
-0.16888416897459702
-0.04645135507629884
-0.4435204120910062
-0.16888416897459702
-0.04645135507629884
-0.4435204120910062
-0.19031464061687034
-0.045637688879336745
-0.4456738093231354
-0.19031464061687034
-0.045637688879336745
-0.4456738093231354
-0.19031464061687034
-0.045637688879336745
-0.4456738093231354
-0.19031464061687034
-0.045637688879336745
-0.4456738093231354
-0.2130293937854022
-0.04319035529411868
-0.4470646100498584
-0.2130293937854022
-0.04319035529411868
-0.4470646100498584
-0.2130293937854022
-0.04319035529411868
-0.4470646100498584
-0.2130293937854022
-0.04319035529411868
-0.4470646100498584
-0.2372859542623824
-0.040184787001765476
-0.44800508890853036
-0.2372859542623824
-0.040184787001765476
-0.44800508890853036
-0.2372859542623824
-0.040184787001765476
-0.44800508890853036
-0.2372859542623824
-0.040184787001765476
-0.44800508890853036
-0.2617985688958445
-0.03622554607122642
-0.4488372451689527
-0.2617985688958445
-0.03622554607122642
-0.4488372451689527
-0.2617985688958445
-0.03622554607122642
-0.4488372451689527
-0.2617985688958445
-0.03622554607122642
-0.4488372451689527
-0.2873947560369708
-0.031074544575131584
-0.4501550631967678
-0.2873947560369708
-0.031074544575131584
-0.4501550631967678
-0.2873947560369708
-0.031074544575131584
-0.4501550631967678
-0.2873947560369708
-0.031074544575131584
-0.4501550631967678
-0.31383397369741667
-0.02433997164334569
-0.4529796959928893
-0.31383397369741667
-0.02433997164334569
-0.4529796959928893
-0.31383397369741667
-0.02433997164334569
-0.4529796959928893
-0.31383397369741667
-0.02433997164334569
-0.4529796959928893
-0.3356769245438687
-0.018230483948340172
-0.45734837298738923
-0.3356769245438687
-0.018230483948340172
-0.45734837298738923
-0.3356769245438687
-0.018230483948340172
-0.45734837298738923
-0.3356769245438687
-0.018230483948340172
-0.45734837298738923
-0.3575191119408476
-0.013282118094119553
-0.46288546445689976
-0.3575191119408476
-0.013282118094119553
-0.46288546445689976
-0.3575191119408476
-0.013282118094119553
-0.46288546445689976
-0.3575191119408476
-0.013282118094119553
-0.46288546445689976
-0.38293769692177637
-0.011592007990056254
-0.4691621200774433
-0.38293769692177637
-0.011592007990056254
-0.4691621200774433
-0.38293769692177637
-0.011592007990056254
-0.4691621200774433
-0.38293769692177637
-0.011592007990056254
-0.4691621200774433
-0.4094800965158561
-0.013090869418405041
-0.4752337361830683
-0.4094800965158561
-0.013090869418405041
-0.4752337361830683
-0.4094800965158561
-0.013090869418405041
-0.4752337361830683
-0.4094800965158561
-0.013090869418405041
-0.4752337361830683
-0.431659459598747
-0.017120470039885972
-0.48177829212087786
-0.431659459598747
-0.017120470039885972
-0.48177829212087786
-0.431659459598747
-0.017120470039885972
-0.48177829212087786
-0.431659459598747
-0.017120470039885972
-0.48177829212087786
-0.4453498572316695
-0.020811864091042482
-0.48815903792727516
-0.4453498572316695
-0.020811864091042482
-0.48815903792727516
-0.4453498572316695
-0.020811864091042482
-0.48815903792727516
-0.4453498572316695
-0.020811864091042482
-0.48815903792727516
-0.44984433946047647
-0.02349337943752264
-0.49320835718735434
-0.44984433946047647
-0.02349337943752264
-0.49320835718735434
-0.44984433946047647
-0.02349337943752264
-0.49320835718735434
-0.44984433946047647
-0.02349337943752264
-0.49320835718735434
-0.4505149606654759
-0.025149887179641735
-0.4973775178415889
-0.4505149606654759
-0.025149887179641735
-0.4973775178415889
-0.4505149606654759
-0.025149887179641735
-0.4973775178415889
-0.4505149606654759
-0.025149887179641735
-0.4973775178415889
-0.4515070199178629
-0.026910357377127953
-0.500516209013175
-0.4515070199178629
-0.026910357377127953
-0.500516209013175
-0.4515070199178629
-0.026910357377127953
-0.500516209013175
-0.4515070199178629
-0.026910357377127953
-0.500516209013175
-0.45506146623618665
-0.029016504128737467
-0.5022645956132729
-0.45506146623618665
-0.029016504128737467
-0.5022645956132729
-0.45506146623618665
-0.029016504128737467
-0.5022645956132729
-0.45506146623618665
-0.029016504128737467
-0.5022645956132729
-0.4573185303415331
-0.030989498143436694
-0.5032047963567737
-0.4573185303415331
-0.030989498143436694
-0.5032047963567737
-0.4573185303415331
-0.030989498143436694
-0.5032047963567737
-0.4573185303415331
-0.030989498143436694
-0.5032047963567737
-0.4545482404547096
-0.03281170017028857
-0.5035823668251318
-0.4545482404547096
-0.03281170017028857
-0.5035823668251318
-0.4545482404547096
-0.03281170017028857
-0.5035823668251318
-0.4545482404547096
-0.03281170017028857
-0.5035823668251318
-0.44805779225740405
-0.0339773579475955
-0.5042025719713882
-0.44805779225740405
-0.0339773579475955
-0.5042025719713882
-0.44805779225740405
-0.0339773579475955
-0.5042025719713882
-0.44805779225740405
-0.0339773579475955
-0.5042025719713882
-0.44175919405027964
-0.03448041790052572
-0.5051274531126697
-0.44175919405027964
-0.03448041790052572
-0.5051274531126697
-0.44175919405027964
-0.03448041790052572
-0.5051274531126697
-0.44175919405027964
-0.03448041790052572
-0.5051274531126697
-0.4391348926699554
-0.03428600589042872
-0.5056072052653203
-0.4391348926699554
-0.03428600589042872
-0.5056072052653203
-0.4391348926699554
-0.03428600589042872
-0.5056072052653203
-0.4391348926699554
-0.03428600589042872
-0.5056072052653203
-0.441476745636381
-0.03363126479539579
-0.5056862575236459
-0.441476745636381
-0.03363126479539579
-0.5056862575236459
-0.441476745636381
-0.03363126479539579
-0.5056862575236459
-0.441476745636381
-0.03363126479539579
-0.5056862575236459
-0.44622616973439516
-0.03277926721677267
-0.5055655131245234
-0.44622616973439516
-0.03277926721677267
-0.5055655131245234
-0.44622616973439516
-0.03277926721677267
-0.5055655131245234
-0.44622616973439516
-0.03277926721677267
-0.5055655131245234
-0.44982009589968197
-0.03141134176329647
-0.5056437878289856
-0.44982009589968197
-0.03141134176329647
-0.5056437878289856
-0.44982009589968197
-0.03141134176329647
-0.5056437878289856
-0.44982009589968197
-0.03141134176329647
-0.5056437878289856
-0.44991481659968496
-0.029593683562928057
-0.5060582496297319
-0.44991481659968496
-0.029593683562928057
-0.5060582496297319
-0.44991481659968496
-0.029593683562928057
-0.5060582496297319
-0.44991481659968496
-0.029593683562928057
-0.5060582496297319
-0.44730352601427675
-0.02780373888822627
-0.5068635433734704
-0.44730352601427675
-0.02780373888822627
-0.5068635433734704
-0.44730352601427675
-0.02780373888822627
-0.5068635433734704
-0.44730352601427675
-0.02780373888822627
-0.5068635433734704
-0.4446255272620361
-0.026182768925854017
-0.5073524764307747
-0.4446255272620361
-0.026182768925854017
-0.5073524764307747
-0.4446255272620361
-0.026182768925854017
-0.5073524764307747
-0.4446255272620361
-0.026182768925854017
-0.5073524764307747
-0.44435526635969796
-0.024647276902899563
-0.5071553693194454
-0.44435526635969796
-0.024647276902899563
-0.5071553693194454
-0.44435526635969796
-0.024647276902899563
-0.5071553693194454
-0.44435526635969796
-0.024647276902899563
-0.5071553693194454
-0.44532494695675195
-0.02282976064552414
-0.5065857415023647
-0.44532494695675195
-0.02282976064552414
-0.5065857415023647
-0.44532494695675195
-0.02282976064552414
-0.5065857415023647
-0.44532494695675195
-0.02282976064552414
-0.5065857415023647
-0.44606659986530217
-0.020829256276523125
-0.5060301134157793
-0.44606659986530217
-0.020829256276523125
-0.5060301134157793
-0.44606659986530217
-0.020829256276523125
-0.5060301134157793
-0.44606659986530217
-0.020829256276523125
-0.5060301134157793
-0.44532605004674186
-0.018625403166287687
-0.5057157529626325
-0.44532605004674186
-0.018625403166287687
-0.5057157529626325
-0.44532605004674186
-0.018625403166287687
-0.5057157529626325
-0.44532605004674186
-0.018625403166287687
-0.5057157529626325
-0.44273981665106565
-0.016096449667579234
-0.5055154745605169
-0.44273981665106565
-0.016096449667579234
-0.5055154745605169
-0.44273981665106565
-0.016096449667579234
-0.5055154745605169
-0.44273981665106565
-0.016096449667579234
-0.5055154745605169
-0.43874331784148274
-0.012985076808388882
-0.505475365944535
-0.43874331784148274
-0.012985076808388882
-0.505475365944535
-0.43874331784148274
-0.012985076808388882
-0.505475365944535
-0.43874331784148274
-0.012985076808388882
-0.505475365944535
-0.4349954782832969
-0.00977410994635665
-0.5046861734088405
-0.4349954782832969
-0.00977410994635665
-0.5046861734088405
-0.4349954782832969
-0.00977410994635665
-0.5046861734088405
-0.4349954782832969
-0.00977410994635665
-0.5046861734088405
-0.4311994405312622
-0.00713089349065203
-0.5030043068116229
-0.4311994405312622
-0.00713089349065203
-0.5030043068116229
-0.4311994405312622
-0.00713089349065203
-0.5030043068116229
-0.4311994405312622
-0.00713089349065203
-0.5030043068116229
-0.4281824915078114
-0.0048066215823455195
-0.5006376145547059
-0.4281824915078114
-0.0048066215823455195
-0.5006376145547059
-0.4281824915078114
-0.0048066215823455195
-0.5006376145547059
-0.4281824915078114
-0.0048066215823455195
-0.5006376145547059
-0.42622849957276226
-0.0031367125571671334
-0.49703325702337
-0.42622849957276226
-0.0031367125571671334
-0.49703325702337
-0.42622849957276226
-0.0031367125571671334
-0.49703325702337
-0.42622849957276226
-0.0031367125571671334
-0.49703325702337
-0.4207745470766921
-0.001420925357372633
-0.49249978711538506
-0.4207745470766921
-0.001420925357372633
-0.49249978711538506
-0.4207745470766921
-0.001420925357372633
-0.49249978711538506
-0.4207745470766921
-0.001420925357372633
-0.49249978711538506
-0.4077096799070974
3.615672435238156E-4
-0.4879158303928001
-0.4077096799070974
3.615672435238156E-4
-0.4879158303928001
-0.4077096799070974
3.615672435238156E-4
-0.4879158303928001
-0.4077096799070974
3.615672435238156E-4
-0.4879158303928001
-0.3855024903788792
0.001431997447484915
-0.4844750552297845
-0.3855024903788792
0.001431997447484915
-0.4844750552297845
-0.3855024903788792
0.001431997447484915
-0.4844750552297845
-0.3855024903788792
0.001431997447484915
-0.4844750552297845
-0.3554713388414712
3.342713725292087E-4
-0.48273767590060396
-0.3554713388414712
3.342713725292087E-4
-0.48273767590060396
-0.3554713388414712
3.342713725292087E-4
-0.48273767590060396
-0.3554713388414712
3.342713725292087E-4
-0.48273767590060396
-0.31922238882421455
-0.0032703269680450916
-0.4821438866685695
-0.31922238882421455
-0.0032703269680450916
-0.4821438866685695
-0.31922238882421455
-0.0032703269680450916
-0.4821438866685695
-0.31922238882421455
-0.0032703269680450916
-0.4821438866685695
-0.2779265047775895
-0.007374684356120216
-0.4824086967933402
-0.2779265047775895
-0.007374684356120216
-0.4824086967933402
-0.2779265047775895
-0.007374684356120216
-0.4824086967933402
-0.2779265047775895
-0.007374684356120216
-0.4824086967933402
-0.23300322915239843
-0.009242017017677446
-0.48359946481545774
-0.23300322915239843
-0.009242017017677446
-0.48359946481545774
-0.23300322915239843
-0.009242017017677446
-0.48359946481545774
-0.23300322915239843
-0.009242017017677446
-0.48359946481545774
-0.18848646798139346
-0.007136311897595674
-0.4827105044687398
-0.18848646798139346
-0.007136311897595674
-0.4827105044687398
-0.18848646798139346
-0.007136311897595674
-0.4827105044687398
-0.18848646798139346
-0.007136311897595674
-0.4827105044687398
-0.14373704826255526
-0.0037216443343613573
-0.4798047971411611
-0.14373704826255526
-0.0037216443343613573
-0.4798047971411611
-0.14373704826255526
-0.0037216443343613573
-0.4798047971411611
-0.14373704826255526
-0.0037216443343613573
-0.4798047971411611
-0.1021830829410624
-0.0030915216369065113
-0.4767844945103227
-0.1021830829410624
-0.0030915216369065113
-0.4767844945103227
-0.1021830829410624
-0.0030915216369065113
-0.4767844945103227
-0.1021830829410624
-0.0030915216369065113
-0.4767844945103227
-0.0686194256449984
-0.009141585284228926
-0.46973575664241585
-0.0686194256449984
-0.009141585284228926
-0.46973575664241585
-0.0686194256449984
-0.009141585284228926
-0.46973575664241585
-0.0686194256449984
-0.009141585284228926
-0.46973575664241585
-0.050578136017699435
-0.020721964445715536
-0.45901398522770936
-0.050578136017699435
-0.020721964445715536
-0.45901398522770936
-0.050578136017699435
-0.020721964445715536
-0.45901398522770936
-0.050578136017699435
-0.020721964445715536
-0.45901398522770936
-0.04292970765775993
-0.03128042602283197
-0.45134260650710595
-0.04292970765775993
-0.03128042602283197
-0.45134260650710595
-0.04292970765775993
-0.03128042602283197
-0.45134260650710595
-0.04292970765775993
-0.03128042602283197
-0.45134260650710595
-0.03618464916552276
-0.03751334884584854
-0.4464475543281014
-0.03618464916552276
-0.03751334884584854
-0.4464475543281014
-0.03618464916552276
-0.03751334884584854
-0.4464475543281014
-0.03618464916552276
-0.03751334884584854
-0.4464475543281014
-0.023198327197217754
-0.04212461929619374
-0.4419614880204281
-0.023198327197217754
-0.04212461929619374
-0.4419614880204281
-0.023198327197217754
-0.04212461929619374
-0.4419614880204281
-0.023198327197217754
-0.04212461929619374
-0.4419614880204281
-0.007706615649425411
-0.04647415499119352
-0.4362581828134537
-0.007706615649425411
-0.04647415499119352
-0.4362581828134537
-0.007706615649425411
-0.04647415499119352
-0.4362581828134537
-0.007706615649425411
-0.04647415499119352
-0.4362581828134537
-0.001698460933517763
-0.04974682551781764
-0.43242150624655173
-0.001698460933517763
-0.04974682551781764
-0.43242150624655173
-0.001698460933517763
-0.04974682551781764
-0.43242150624655173
-0.001698460933517763
-0.04974682551781764
-0.43242150624655173
-0.005500450908400041
-0.0519449600996618
-0.4310757721763719
-0.005500450908400041
-0.0519449600996618
-0.4310757721763719
-0.005500450908400041
-0.0519449600996618
-0.4310757721763719
-0.005500450908400041
-0.0519449600996618
-0.4310757721763719
-0.01024251727274614
-0.05311058819208966
-0.4312113118154284
-0.01024251727274614
-0.05311058819208966
-0.4312113118154284
-0.01024251727274614
-0.05311058819208966
-0.4312113118154284
-0.01024251727274614
-0.05311058819208966
-0.4312113118154284
-0.011645549858714374
-0.053542842349438964
-0.4312908102581671
-0.011645549858714374
-0.053542842349438964
-0.4312908102581671
-0.011645549858714374
-0.053542842349438964
-0.4312908102581671
-0.011645549858714374
-0.053542842349438964
-0.4312908102581671
-0.011514639016454952
-0.05301385185437418
-0.43117807864564156
-0.011514639016454952
-0.05301385185437418
-0.43117807864564156
-0.011514639016454952
-0.05301385185437418
-0.43117807864564156
-0.011514639016454952
-0.05301385185437418
-0.43117807864564156
-0.013021811004310813
-0.05184419628362912
-0.43114573814604285
-0.013021811004310813
-0.05184419628362912
-0.43114573814604285
-0.013021811004310813
-0.05184419628362912
-0.43114573814604285
-0.013021811004310813
-0.05184419628362912
-0.43114573814604285
-0.0176174797140278
-0.05084948774518565
-0.43103534317427883
-0.0176174797140278
-0.05084948774518565
-0.43103534317427883
-0.0176174797140278
-0.05084948774518565
-0.43103534317427883
-0.0176174797140278
-0.05084948774518565
-0.43103534317427883
-0.022476762444419627
-0.05029680848910614
-0.43154054466885955
-0.022476762444419627
-0.05029680848910614
-0.43154054466885955
-0.022476762444419627
-0.05029680848910614
-0.43154054466885955
-0.022476762444419627
-0.05029680848910614
-0.43154054466885955
-0.023754136289868763
-0.04958280258880419
-0.4317816389047394
-0.023754136289868763
-0.04958280258880419
-0.4317816389047394
-0.023754136289868763
-0.04958280258880419
-0.4317816389047394
-0.023754136289868763
-0.04958280258880419
-0.4317816389047394
-0.021139995650411265
-0.04899950160756106
-0.4313231692878772
-0.021139995650411265
-0.04899950160756106
-0.4313231692878772
-0.021139995650411265
-0.04899950160756106
-0.4313231692878772
-0.021139995650411265
-0.04899950160756106
-0.4313231692878772
-0.01907096829229197
-0.048789308216490065
-0.4308726134040437
-0.01907096829229197
-0.048789308216490065
-0.4308726134040437
-0.01907096829229197
-0.048789308216490065
-0.4308726134040437
-0.01907096829229197
-0.048789308216490065
-0.4308726134040437
-0.020084329074288646
-0.04875821671292601
-0.4306096259254944
-0.020084329074288646
-0.04875821671292601
-0.4306096259254944
-0.020084329074288646
-0.04875821671292601
-0.4306096259254944
-0.020084329074288646
-0.04875821671292601
-0.4306096259254944
-0.021245692012972064
-0.04862984906539291
-0.4301986907439978
-0.021245692012972064
-0.04862984906539291
-0.4301986907439978
-0.021245692012972064
-0.04862984906539291
-0.4301986907439978
-0.021245692012972064
-0.04862984906539291
-0.4301986907439978
-0.020309141343138333
-0.04841508392338489
-0.42948179296853733
-0.020309141343138333
-0.04841508392338489
-0.42948179296853733
-0.020309141343138333
-0.04841508392338489
-0.42948179296853733
-0.020309141343138333
-0.04841508392338489
-0.42948179296853733
-0.020186615843665157
-0.04838968314758837
-0.4296043184680105
-0.020186615843665157
-0.04838968314758837
-0.4296043184680105
-0.020186615843665157
-0.04838968314758837
-0.4296043184680105
-0.020186615843665157
-0.04838968314758837
-0.4296043184680105
-0.0221600482605802
-0.048457459899915456
-0.43020445913791744
-0.0221600482605802
-0.048457459899915456
-0.43020445913791744
-0.0221600482605802
-0.048457459899915456
-0.43020445913791744
-0.0221600482605802
-0.048457459899915456
-0.43020445913791744
-0.02354163498390973
-0.04838824534307648
-0.43052967078022086
-0.02354163498390973
-0.04838824534307648
-0.43052967078022086
-0.02354163498390973
-0.04838824534307648
-0.43052967078022086
-0.02354163498390973
-0.04838824534307648
-0.43052967078022086
-0.024071185571467677
-0.04825393398129388
-0.430518471991879
-0.024071185571467677
-0.04825393398129388
-0.430518471991879
-0.024071185571467677
-0.04825393398129388
-0.430518471991879
-0.024071185571467677
-0.04825393398129388
-0.430518471991879
-0.025185560140460757
-0.047745980596294584
-0.4303786860928945
-0.025185560140460757
-0.047745980596294584
-0.4303786860928945
-0.025185560140460757
-0.047745980596294584
-0.4303786860928945
-0.025185560140460757
-0.047745980596294584
-0.4303786860928945
-0.026442102990749877
-0.047145608960196234
-0.4303566204358501
-0.026442102990749877
-0.047145608960196234
-0.4303566204358501
-0.026442102990749877
-0.047145608960196234
-0.4303566204358501
-0.026442102990749877
-0.047145608960196234
-0.4303566204358501
-0.026912774986728828
-0.04674065349445502
-0.42996699330484217
-0.026912774986728828
-0.04674065349445502
-0.42996699330484217
-0.026912774986728828
-0.04674065349445502
-0.42996699330484217
-0.026912774986728828
-0.04674065349445502
-0.42996699330484217
-0.026857960979993812
-0.04647222487138912
-0.4294946775261669
-0.026857960979993812
-0.04647222487138912
-0.4294946775261669
-0.026857960979993812
-0.04647222487138912
-0.4294946775261669
-0.026857960979993812
-0.04647222487138912
-0.4294946775261669
-0.027392628119270686
-0.046332439232019115
-0.42921949830825995
-0.027392628119270686
-0.046332439232019115
-0.42921949830825995
-0.027392628119270686
-0.046332439232019115
-0.42921949830825995
-0.027392628119270686
-0.046332439232019115
-0.42921949830825995
-0.027392628119270686
-0.046332439232019115
-0.42921949830825995
-0.027392628119270686
-0.046332439232019115
-0.42921949830825995
-0.027392628119270686
-0.046332439232019115
-0.42921949830825995
-0.027392628119270686
-0.046332439232019115
-0.42921949830825995
-0.02705840498699699
-0.046751329234226174
-0.42883761644458157
-0.02705840498699699
-0.046751329234226174
-0.42883761644458157
-0.02705840498699699
-0.046751329234226174
-0.42883761644458157
-0.02705840498699699
-0.046751329234226174
-0.42883761644458157
-0.027032449977295602
-0.04687056777349828
-0.4288366107454537
-0.027032449977295602
-0.04687056777349828
-0.4288366107454537
-0.027032449977295602
-0.04687056777349828
-0.4288366107454537
-0.027032449977295602
-0.04687056777349828
-0.4288366107454537
-0.027374099966121796
-0.04706452027800636
-0.42846800318100003
-0.027374099966121796
-0.04706452027800636
-0.42846800318100003
-0.027374099966121796
-0.04706452027800636
-0.42846800318100003
-0.027374099966121796
-0.04706452027800636
-0.42846800318100003
-0.027374099966121796
-0.04706452027800636
-0.42846800318100003
-0.027374099966121796
-0.04706452027800636
-0.42846800318100003
-0.027374099966121796
-0.04706452027800636
-0.42846800318100003
-0.027374099966121796
-0.04706452027800636
-0.42846800318100003
-0.028061252276279668
-0.04734024483770926
-0.4285672728443047
-0.028061252276279668
-0.04734024483770926
-0.4285672728443047
-0.028061252276279668
-0.04734024483770926
-0.4285672728443047
-0.028061252276279668
-0.04734024483770926
-0.4285672728443047
-0.028600908955563345
-0.04771365298610332
-0.4288137981837045
-0.028600908955563345
-0.04771365298610332
-0.4288137981837045
-0.028600908955563345
-0.04771365298610332
-0.4288137981837045
-0.028600908955563345
-0.04771365298610332
-0.4288137981837045
-0.02983802349446614
-0.0477410892836607
-0.4291678432204705
-0.02983802349446614
-0.0477410892836607
-0.4291678432204705
-0.02983802349446614
-0.0477410892836607
-0.4291678432204705
-0.02983802349446614
-0.0477410892836607
-0.4291678432204705
-0.03039913983402395
-0.047993596376821414
-0.42950852943843754
-0.03039913983402395
-0.047993596376821414
-0.42950852943843754
-0.03039913983402395
-0.047993596376821414
-0.42950852943843754
-0.03039913983402395
-0.047993596376821414
-0.42950852943843754
-0.030518504159183838
-0.048019556094195774
-0.42950526747778206
-0.030518504159183838
-0.048019556094195774
-0.42950526747778206
-0.030518504159183838
-0.048019556094195774
-0.42950526747778206
-0.030518504159183838
-0.048019556094195774
-0.42950526747778206
-0.030400329306281407
-0.0479968532435873
-0.42953452085777427
-0.030400329306281407
-0.0479968532435873
-0.42953452085777427
-0.030400329306281407
-0.0479968532435873
-0.42953452085777427
-0.030400329306281407
-0.0479968532435873
-0.42953452085777427
-0.03109262335253448
-0.048267347537051246
-0.4293683165920042
-0.03109262335253448
-0.048267347537051246
-0.4293683165920042
-0.03109262335253448
-0.048267347537051246
-0.4293683165920042
-0.03109262335253448
-0.048267347537051246
-0.4293683165920042
-0.0310765201876514
-0.04838290504031053
-0.4290089728626407
-0.0310765201876514
-0.04838290504031053
-0.4290089728626407
-0.0310765201876514
-0.04838290504031053
-0.4290089728626407
-0.0310765201876514
-0.04838290504031053
-0.4290089728626407
-0.03055906713855356
-0.048509602593539036
-0.42851625568790386
-0.03055906713855356
-0.048509602593539036
-0.42851625568790386
-0.03055906713855356
-0.048509602593539036
-0.42851625568790386
-0.03055906713855356
-0.048509602593539036
-0.42851625568790386
-0.030313348738985613
-0.049078745959013015
-0.4283942621917182
-0.030313348738985613
-0.049078745959013015
-0.4283942621917182
-0.030313348738985613
-0.049078745959013015
-0.4283942621917182
-0.030313348738985613
-0.049078745959013015
-0.4283942621917182
-0.03115802430455209
