-0.6265666019154494
0.04228788459485889
-0.4584867919430434
-0.6265666019154494
0.04228788459485889
-0.4584867919430434
-0.6274146535903786
0.04422961948216583
-0.4584138970682485
-0.6274146535903786
0.04422961948216583
-0.4584138970682485
-0.6274146535903786
0.04422961948216583
-0.4584138970682485
-0.6274146535903786
0.04422961948216583
-0.4584138970682485
-0.6282998468555495
0.04584298829585589
-0.4581116027233454
-0.6282998468555495
0.04584298829585589
-0.4581116027233454
-0.6282998468555495
0.04584298829585589
-0.4581116027233454
-0.6282998468555495
0.04584298829585589
-0.4581116027233454
-0.6283599021813726
0.047293894258818414
-0.4580556110189544
-0.6283599021813726
0.047293894258818414
-0.4580556110189544
-0.6283599021813726
0.047293894258818414
-0.4580556110189544
-0.6283599021813726
0.047293894258818414
-0.4580556110189544
-0.6282970787483385
0.04877123357954717
-0.45762922152252755
-0.6282970787483385
0.04877123357954717
-0.45762922152252755
-0.6282970787483385
0.04877123357954717
-0.45762922152252755
-0.6282970787483385
0.04877123357954717
-0.45762922152252755
-0.628050239315485
0.05013135360403004
-0.4572566835091856
-0.628050239315485
0.05013135360403004
-0.4572566835091856
-0.628050239315485
0.05013135360403004
-0.4572566835091856
-0.628050239315485
0.05013135360403004
-0.4572566835091856
-0.6273691271085531
0.05064382698166065
-0.45697219578375553
-0.6273691271085531
0.05064382698166065
-0.45697219578375553
-0.6273691271085531
0.05064382698166065
-0.45697219578375553
-0.6273691271085531
0.05064382698166065
-0.45697219578375553
-0.6273691271085531
0.05064382698166065
-0.45697219578375553
-0.6273691271085531
0.05064382698166065
-0.45697219578375553
-0.6273691271085531
0.05064382698166065
-0.45697219578375553
-0.6273691271085531
0.05064382698166065
-0.45697219578375553
-0.62812872957894
0.050699825435974344
-0.45666385412353844
-0.62812872957894
0.050699825435974344
-0.45666385412353844
-0.62812872957894
0.050699825435974344
-0.45666385412353844
-0.62812872957894
0.050699825435974344
-0.45666385412353844
-0.6290489201240546
0.050723702858452464
-0.45675348918512976
-0.6290489201240546
0.050723702858452464
-0.45675348918512976
-0.6290489201240546
0.050723702858452464
-0.45675348918512976
-0.6290489201240546
0.050723702858452464
-0.45675348918512976
-0.6301638734748013
0.05093989863572613
-0.45656340438196147
-0.6301638734748013
0.05093989863572613
-0.45656340438196147
-0.6301638734748013
0.05093989863572613
-0.45656340438196147
-0.6301638734748013
0.05093989863572613
-0.45656340438196147
-0.6309993576376447
0.05129727153711717
-0.45648099491215527
-0.6309993576376447
0.05129727153711717
-0.45648099491215527
-0.6309993576376447
0.05129727153711717
-0.45648099491215527
-0.6309993576376447
0.05129727153711717
-0.45648099491215527
-0.6319628386937103
0.05135301857904398
-0.4564852646996858
-0.6319628386937103
0.05135301857904398
-0.4564852646996858
-0.6319628386937103
0.05135301857904398
-0.4564852646996858
-0.6319628386937103
0.05135301857904398
-0.4564852646996858
-0.6323897816572881
0.05196947739644465
-0.45672722831168266
-0.6323897816572881
0.05196947739644465
-0.45672722831168266
-0.6323897816572881
0.05196947739644465
-0.45672722831168266
-0.6323897816572881
0.05196947739644465
-0.45672722831168266
-0.6327086393422332
0.052328582906192286
-0.4566032465755761
-0.6327086393422332
0.052328582906192286
-0.4566032465755761
-0.6327086393422332
0.052328582906192286
-0.4566032465755761
-0.6327086393422332
0.052328582906192286
-0.4566032465755761
-0.6328072788448554
0.05277981354492991
-0.456377733608582
-0.6328072788448554
0.05277981354492991
-0.456377733608582
-0.6328072788448554
0.05277981354492991
-0.456377733608582
-0.6328072788448554
0.05277981354492991
-0.456377733608582
-0.6326943804124676
0.05280702511336196
-0.45638334739090836
-0.6326943804124676
0.05280702511336196
-0.45638334739090836
-0.6326943804124676
0.05280702511336196
-0.45638334739090836
-0.6326943804124676
0.05280702511336196
-0.45638334739090836
-0.633598614931008
0.05279349545873901
-0.45621047873028775
-0.633598614931008
0.05279349545873901
-0.45621047873028775
-0.633598614931008
0.05279349545873901
-0.45621047873028775
-0.633598614931008
0.05279349545873901
-0.45621047873028775
-0.6345291077898656
0.052570917106512446
-0.4558162196973693
-0.6345291077898656
0.052570917106512446
-0.4558162196973693
-0.6345291077898656
0.052570917106512446
-0.4558162196973693
-0.6345291077898656
0.052570917106512446
-0.4558162196973693
-0.6344266325352547
0.0523517045384314
-0.45533694398899044
-0.6344266325352547
0.0523517045384314
-0.45533694398899044
-0.6344266325352547
0.0523517045384314
-0.45533694398899044
-0.6344266325352547
0.0523517045384314
-0.45533694398899044
-0.6344266325352547
0.0523517045384314
-0.45533694398899044
-0.6344266325352547
0.0523517045384314
-0.45533694398899044
-0.6344266325352547
0.0523517045384314
-0.45533694398899044
-0.6344266325352547
0.0523517045384314
-0.45533694398899044
-0.6348574381444356
0.05249007875454323
-0.4554228600799684
-0.6348574381444356
0.05249007875454323
-0.4554228600799684
-0.6348574381444356
0.05249007875454323
-0.4554228600799684
-0.6348574381444356
0.05249007875454323
-0.4554228600799684
-0.6354990018360849
0.0528588572359091
-0.4554932876922869
-0.6354990018360849
0.0528588572359091
-0.4554932876922869
-0.6354990018360849
0.0528588572359091
-0.4554932876922869
-0.6354990018360849
0.0528588572359091
-0.4554932876922869
-0.6357318705207956
0.053358167911737885
-0.455413544366798
-0.6357318705207956
0.053358167911737885
-0.455413544366798
-0.6357318705207956
0.053358167911737885
-0.455413544366798
-0.6357318705207956
0.053358167911737885
-0.455413544366798
-0.6353412813706871
0.05411793169574731
-0.4549687722080016
-0.6353412813706871
0.05411793169574731
-0.4549687722080016
-0.6353412813706871
0.05411793169574731
-0.4549687722080016
-0.6353412813706871
0.05411793169574731
-0.4549687722080016
-0.6355048259462579
0.054870693508509906
-0.4545939658715171
-0.6355048259462579
0.054870693508509906
-0.4545939658715171
-0.6355048259462579
0.054870693508509906
-0.4545939658715171
-0.6355048259462579
0.054870693508509906
-0.4545939658715171
-0.635882736513162
0.05529958188189027
-0.4546490326679569
-0.635882736513162
0.05529958188189027
-0.4546490326679569
-0.635882736513162
0.05529958188189027
-0.4546490326679569
-0.635882736513162
0.05529958188189027
-0.4546490326679569
-0.6358934813434702
0.05529860675609175
-0.45502555790953714
-0.6358934813434702
0.05529860675609175
-0.45502555790953714
-0.6358934813434702
0.05529860675609175
-0.45502555790953714
-0.6358934813434702
0.05529860675609175
-0.45502555790953714
-0.635425853327539
0.0554876022961615
-0.4551710587359983
-0.635425853327539
0.0554876022961615
-0.4551710587359983
-0.635425853327539
0.0554876022961615
-0.4551710587359983
-0.635425853327539
0.0554876022961615
-0.4551710587359983
-0.635425853327539
0.0554876022961615
-0.4551710587359983
-0.635425853327539
0.0554876022961615
-0.4551710587359983
-0.635425853327539
0.0554876022961615
-0.4551710587359983
-0.635425853327539
0.0554876022961615
-0.4551710587359983
-0.6352697252358219
0.05555897491539775
-0.4546599259553787
-0.6352697252358219
0.05555897491539775
-0.4546599259553787
-0.6352697252358219
0.05555897491539775
-0.4546599259553787
-0.6352697252358219
0.05555897491539775
-0.4546599259553787
-0.6352425278184863
0.05544627445336088
-0.4546220127115127
-0.6352425278184863
0.05544627445336088
-0.4546220127115127
-0.6352425278184863
0.05544627445336088
-0.4546220127115127
-0.6352425278184863
0.05544627445336088
-0.4546220127115127
-0.6352425278184863
0.05544627445336088
-0.4546220127115127
-0.6352425278184863
0.05544627445336088
-0.4546220127115127
-0.6352425278184863
0.05544627445336088
-0.4546220127115127
-0.6352425278184863
0.05544627445336088
-0.4546220127115127
-0.6352425278184863
0.05544627445336088
-0.4546220127115127
-0.6352425278184863
0.05544627445336088
-0.4546220127115127
-0.6352425278184863
0.05544627445336088
-0.4546220127115127
-0.6352425278184863
0.05544627445336088
-0.4546220127115127
-0.6350972044713817
0.055516726421393874
-0.4544874051909384
-0.6350972044713817
0.055516726421393874
-0.4544874051909384
-0.6350972044713817
0.055516726421393874
-0.4544874051909384
-0.6350972044713817
0.055516726421393874
-0.4544874051909384
-0.6340911487707714
0.055632074688782805
-0.4544387129637837
-0.6340911487707714
0.055632074688782805
-0.4544387129637837
-0.6340911487707714
0.055632074688782805
-0.4544387129637837
-0.6340911487707714
0.055632074688782805
-0.4544387129637837
-0.6327889853633134
0.05585020957958648
-0.4542334079874574
-0.6327889853633134
0.05585020957958648
-0.4542334079874574
-0.6327889853633134
0.05585020957958648
-0.4542334079874574
-0.6327889853633134
0.05585020957958648
-0.4542334079874574
-0.6323852413019503
0.05582427900355072
-0.4541846495112741
-0.6323852413019503
0.05582427900355072
-0.4541846495112741
-0.6323852413019503
0.05582427900355072
-0.4541846495112741
-0.6323852413019503
0.05582427900355072
-0.4541846495112741
-0.6329396957962197
0.05581766857063861
-0.4542551927279439
-0.6329396957962197
0.05581766857063861
-0.4542551927279439
-0.6329396957962197
0.05581766857063861
-0.4542551927279439
-0.6329396957962197
0.05581766857063861
-0.4542551927279439
-0.6329396957962197
0.05581766857063861
-0.4542551927279439
-0.6329396957962197
0.05581766857063861
-0.4542551927279439
-0.6329396957962197
0.05581766857063861
-0.4542551927279439
-0.6329396957962197
0.05581766857063861
-0.4542551927279439
-0.6330526202963705
0.055790522828806775
-0.4542497855148414
-0.6330526202963705
0.055790522828806775
-0.4542497855148414
-0.6330526202963705
0.055790522828806775
-0.4542497855148414
-0.6330526202963705
0.055790522828806775
-0.4542497855148414
-0.6330526202963705
0.055790522828806775
-0.4542497855148414
-0.6330526202963705
0.055790522828806775
-0.4542497855148414
-0.6330526202963705
0.055790522828806775
-0.4542497855148414
-0.6330526202963705
0.055790522828806775
-0.4542497855148414
-0.6338329268220004
0.055729576280774566
-0.45430947861077947
-0.6338329268220004
0.055729576280774566
-0.45430947861077947
-0.6338329268220004
0.055729576280774566
-0.45430947861077947
-0.6338329268220004
0.055729576280774566
-0.45430947861077947
-0.6339458314332701
0.0557024320279703
-0.4543040533681134
-0.6339458314332701
0.0557024320279703
-0.4543040533681134
-0.6339458314332701
0.0557024320279703
-0.4543040533681134
-0.6339458314332701
0.0557024320279703
-0.4543040533681134
-0.6340979930228983
0.05637943830362204
-0.45415460688976717
-0.6340979930228983
0.05637943830362204
-0.45415460688976717
-0.6340979930228983
0.05637943830362204
-0.45415460688976717
-0.6340979930228983
0.05637943830362204
-0.45415460688976717
-0.6339810344885286
0.057078312903972694
-0.4541016554093224
-0.6339810344885286
0.057078312903972694
-0.4541016554093224
-0.6339810344885286
0.057078312903972694
-0.4541016554093224
-0.6339810344885286
0.057078312903972694
-0.4541016554093224
-0.6337292269839863
0.057729389998312224
-0.45390315243641394
-0.6337292269839863
0.057729389998312224
-0.45390315243641394
-0.6337292269839863
0.057729389998312224
-0.45390315243641394
-0.6337292269839863
0.057729389998312224
-0.45390315243641394
-0.6337681879243786
0.0584335863003091
-0.45375902932479834
-0.6337681879243786
0.0584335863003091
-0.45375902932479834
-0.6337681879243786
0.0584335863003091
-0.45375902932479834
-0.6337681879243786
0.0584335863003091
-0.45375902932479834
-0.6342952493556725
0.058701718965201495
-0.45336215178419964
-0.6342952493556725
0.058701718965201495
-0.45336215178419964
-0.6342952493556725
0.058701718965201495
-0.45336215178419964
-0.6342952493556725
0.058701718965201495
-0.45336215178419964
-0.634305449171397
0.058971040709865905
-0.45292123762836056
-0.634305449171397
0.058971040709865905
-0.45292123762836056
-0.634305449171397
0.058971040709865905
-0.45292123762836056
-0.634305449171397
0.058971040709865905
-0.45292123762836056
-0.6339492222267775
0.059402522298321304
-0.45224289970485887
-0.6339492222267775
0.059402522298321304
-0.45224289970485887
-0.6339492222267775
0.059402522298321304
-0.45224289970485887
-0.6339492222267775
0.059402522298321304
-0.45224289970485887
-0.6337655084701677
0.05987648802529983
-0.45173719947674096
-0.6337655084701677
0.05987648802529983
-0.45173719947674096
-0.6337655084701677
0.05987648802529983
-0.45173719947674096
-0.6337655084701677
0.05987648802529983
-0.45173719947674096
-0.6336622811570306
0.060172749357737684
-0.4513013153830781
-0.6336622811570306
0.060172749357737684
-0.4513013153830781
-0.6336622811570306
0.060172749357737684
-0.4513013153830781
-0.6336622811570306
0.060172749357737684
-0.4513013153830781
-0.6333221899365951
0.060640876618047894
-0.4508863561993222
-0.6333221899365951
0.060640876618047894
-0.4508863561993222
-0.6333221899365951
0.060640876618047894
-0.4508863561993222
-0.6333221899365951
0.060640876618047894
-0.4508863561993222
-0.6328101232540502
0.06138843794774424
-0.45055704776977096
-0.6328101232540502
0.06138843794774424
-0.45055704776977096
-0.6328101232540502
0.06138843794774424
-0.45055704776977096
-0.6328101232540502
0.06138843794774424
-0.45055704776977096
-0.6327756947952946
0.06253932440094227
-0.44990120267384875
-0.6327756947952946
0.06253932440094227
-0.44990120267384875
-0.6327756947952946
0.06253932440094227
-0.44990120267384875
-0.6327756947952946
0.06253932440094227
-0.44990120267384875
-0.6334883586700093
0.06367400880768138
-0.44916799711835287
-0.6334883586700093
0.06367400880768138
-0.44916799711835287
-0.6334883586700093
0.06367400880768138
-0.44916799711835287
-0.6334883586700093
0.06367400880768138
-0.44916799711835287
-0.6336513485308013
0.06517440320376269
-0.44850846985942183
-0.6336513485308013
0.06517440320376269
-0.44850846985942183
-0.6336513485308013
0.06517440320376269
-0.44850846985942183
-0.6336513485308013
0.06517440320376269
-0.44850846985942183
-0.6323770904549987
0.06727997984783714
-0.44813676675501435
-0.6323770904549987
0.06727997984783714
-0.44813676675501435
-0.6323770904549987
0.06727997984783714
-0.44813676675501435
-0.6323770904549987
0.06727997984783714
-0.44813676675501435
-0.6293420351574233
0.06999172246790993
-0.44793678245144725
-0.6293420351574233
0.06999172246790993
-0.44793678245144725
-0.6293420351574233
0.06999172246790993
-0.44793678245144725
-0.6293420351574233
0.06999172246790993
-0.44793678245144725
-0.6259852945645338
0.07272791061472125
-0.44741863435373164
-0.6259852945645338
0.07272791061472125
-0.44741863435373164
-0.6259852945645338
0.07272791061472125
-0.44741863435373164
-0.6259852945645338
0.07272791061472125
-0.44741863435373164
-0.6248681162716009
0.07562050149548881
-0.44654284615163065
-0.6248681162716009
0.07562050149548881
-0.44654284615163065
-0.6248681162716009
0.07562050149548881
-0.44654284615163065
-0.6248681162716009
0.07562050149548881
-0.44654284615163065
-0.6231982368524229
0.07813177807171301
-0.44601919920713834
-0.6231982368524229
0.07813177807171301
-0.44601919920713834
-0.6231982368524229
0.07813177807171301
-0.44601919920713834
-0.6231982368524229
0.07813177807171301
-0.44601919920713834
-0.6192571176720749
0.07952899383027312
-0.4455005335563312
-0.6192571176720749
0.07952899383027312
-0.4455005335563312
-0.6192571176720749
0.07952899383027312
-0.4455005335563312
-0.6192571176720749
0.07952899383027312
-0.4455005335563312
-0.6128564981862881
0.08187968861893544
-0.4465935276817894
-0.6128564981862881
0.08187968861893544
-0.4465935276817894
-0.6128564981862881
0.08187968861893544
-0.4465935276817894
-0.6128564981862881
0.08187968861893544
-0.4465935276817894
-0.6180467648292236
0.09056380676432649
-0.4516186770537635
-0.6180467648292236
0.09056380676432649
-0.4516186770537635
-0.6180467648292236
0.09056380676432649
-0.4516186770537635
-0.6180467648292236
0.09056380676432649
-0.4516186770537635
-0.6321172359284155
0.10808405852061441
-0.4594493253638783
-0.6321172359284155
0.10808405852061441
-0.4594493253638783
-0.6321172359284155
0.10808405852061441
-0.4594493253638783
-0.6321172359284155
0.10808405852061441
-0.4594493253638783
-0.6560374479558407
0.13673687846016594
-0.4677192210484664
-0.6560374479558407
0.13673687846016594
-0.4677192210484664
-0.6560374479558407
0.13673687846016594
-0.4677192210484664
-0.6560374479558407
0.13673687846016594
-0.4677192210484664
-0.6829579911048694
0.16940830993804035
-0.47355284638155204
-0.6829579911048694
0.16940830993804035
-0.47355284638155204
-0.6829579911048694
0.16940830993804035
-0.47355284638155204
-0.6829579911048694
0.16940830993804035
-0.47355284638155204
-0.7076310789798571
0.18931356608336436
-0.47991036602896286
-0.7076310789798571
0.18931356608336436
-0.47991036602896286
-0.7076310789798571
0.18931356608336436
-0.47991036602896286
-0.7076310789798571
0.18931356608336436
-0.47991036602896286
-0.7180622919225773
0.1839609974685196
-0.48802175003176945
-0.7180622919225773
0.1839609974685196
-0.48802175003176945
-0.7180622919225773
0.1839609974685196
-0.48802175003176945
-0.7180622919225773
0.1839609974685196
-0.48802175003176945
-0.7213041908396413
0.1682208783828218
-0.49804339851365437
-0.7213041908396413
0.1682208783828218
-0.49804339851365437
-0.7213041908396413
0.1682208783828218
-0.49804339851365437
-0.7213041908396413
0.1682208783828218
-0.49804339851365437
-0.7142592068717862
0.16299704345132007
-0.49995955941923675
-0.7142592068717862
0.16299704345132007
-0.49995955941923675
-0.7142592068717862
0.16299704345132007
-0.49995955941923675
-0.7142592068717862
0.16299704345132007
-0.49995955941923675
-0.6988626458825216
0.1677832672764871
-0.4981760638115498
-0.6988626458825216
0.1677832672764871
-0.4981760638115498
-0.6988626458825216
0.1677832672764871
-0.4981760638115498
-0.6988626458825216
0.1677832672764871
-0.4981760638115498
-0.6892536812506442
0.16563507674820271
-0.5032748703298499
-0.6892536812506442
0.16563507674820271
-0.5032748703298499
-0.6892536812506442
0.16563507674820271
-0.5032748703298499
-0.6892536812506442
0.16563507674820271
-0.5032748703298499
-0.6877927987127396
0.15920010794501424
-0.5084752517628762
-0.6877927987127396
0.15920010794501424
-0.5084752517628762
-0.6877927987127396
0.15920010794501424
-0.5084752517628762
-0.6877927987127396
0.15920010794501424
-0.5084752517628762
-0.6859584486410645
0.15511316288703625
-0.5122504749232007
-0.6859584486410645
0.15511316288703625
-0.5122504749232007
-0.6859584486410645
0.15511316288703625
-0.5122504749232007
-0.6859584486410645
0.15511316288703625
-0.5122504749232007
-0.6902666597177662
0.15373432613003593
-0.5164600753090235
-0.6902666597177662
0.15373432613003593
-0.5164600753090235
-0.6902666597177662
0.15373432613003593
-0.5164600753090235
-0.6902666597177662
0.15373432613003593
-0.5164600753090235
-0.6995026691755799
0.1526186540410846
-0.5184197237361351
-0.6995026691755799
0.1526186540410846
-0.5184197237361351
-0.6995026691755799
0.1526186540410846
-0.5184197237361351
-0.6995026691755799
0.1526186540410846
-0.5184197237361351
-0.7029707278626721
0.15333354173718916
-0.5202304114234891
-0.7029707278626721
0.15333354173718916
-0.5202304114234891
-0.7029707278626721
0.15333354173718916
-0.5202304114234891
-0.7029707278626721
0.15333354173718916
-0.5202304114234891
-0.6982672169257075
0.1556177728299579
-0.5208347667870566
-0.6982672169257075
0.1556177728299579
-0.5208347667870566
-0.6982672169257075
0.1556177728299579
-0.5208347667870566
-0.6982672169257075
0.1556177728299579
-0.5208347667870566
-0.6908821731306319
0.15691888038824658
-0.5217620696114565
-0.6908821731306319
0.15691888038824658
-0.5217620696114565
-0.6908821731306319
0.15691888038824658
-0.5217620696114565
-0.6908821731306319
0.15691888038824658
-0.5217620696114565
-0.6839917312637094
0.15791239421960301
-0.5233634954610481
-0.6839917312637094
0.15791239421960301
-0.5233634954610481
-0.6839917312637094
0.15791239421960301
-0.5233634954610481
-0.6839917312637094
0.15791239421960301
-0.5233634954610481
-0.6796381084564063
0.15855373309928766
-0.5257724034333446
-0.6796381084564063
0.15855373309928766
-0.5257724034333446
-0.6796381084564063
0.15855373309928766
-0.5257724034333446
-0.6796381084564063
0.15855373309928766
-0.5257724034333446
-0.683262114540522
0.15879342269810265
-0.5285003583379709
-0.683262114540522
0.15879342269810265
-0.5285003583379709
-0.683262114540522
0.15879342269810265
-0.5285003583379709
-0.683262114540522
0.15879342269810265
-0.5285003583379709
-0.6885797117822261
0.1587624069185502
-0.5307469466878366
-0.6885797117822261
0.1587624069185502
-0.5307469466878366
-0.6885797117822261
0.1587624069185502
-0.5307469466878366
-0.6885797117822261
0.1587624069185502
-0.5307469466878366
-0.6908070676323134
0.16065570120040473
-0.5324125126548057
-0.6908070676323134
0.16065570120040473
-0.5324125126548057
-0.6908070676323134
0.16065570120040473
-0.5324125126548057
-0.6908070676323134
0.16065570120040473
-0.5324125126548057
-0.6893524123416455
0.16394208467353802
-0.5329959851643149
-0.6893524123416455
0.16394208467353802
-0.5329959851643149
-0.6893524123416455
0.16394208467353802
-0.5329959851643149
-0.6893524123416455
0.16394208467353802
-0.5329959851643149
-0.6835155754675923
0.16769501802890946
-0.5329619750947565
-0.6835155754675923
0.16769501802890946
-0.5329619750947565
-0.6835155754675923
0.16769501802890946
-0.5329619750947565
-0.6835155754675923
0.16769501802890946
-0.5329619750947565
-0.6755044762024327
0.17159343546425548
-0.5324394130060301
-0.6755044762024327
0.17159343546425548
-0.5324394130060301
-0.6755044762024327
0.17159343546425548
-0.5324394130060301
-0.6755044762024327
0.17159343546425548
-0.5324394130060301
-0.6710563336527061
0.17480138535231884
-0.5321418630193882
-0.6710563336527061
0.17480138535231884
-0.5321418630193882
-0.6710563336527061
0.17480138535231884
-0.5321418630193882
-0.6710563336527061
0.17480138535231884
-0.5321418630193882
-0.6715778726542566
0.1767561375635387
-0.5324358719751074
-0.6715778726542566
0.1767561375635387
-0.5324358719751074
-0.6715778726542566
0.1767561375635387
-0.5324358719751074
-0.6715778726542566
0.1767561375635387
-0.5324358719751074
-0.6731669203984186
0.17784687532138796
-0.5320591676719205
-0.6731669203984186
0.17784687532138796
-0.5320591676719205
-0.6731669203984186
0.17784687532138796
-0.5320591676719205
-0.6731669203984186
0.17784687532138796
-0.5320591676719205
-0.6736534165935113
0.1779227060260467
-0.5323211805037414
-0.6736534165935113
0.1779227060260467
-0.5323211805037414
-0.6736534165935113
0.1779227060260467
-0.5323211805037414
-0.6736534165935113
0.1779227060260467
-0.5323211805037414
-0.6707012095708849
0.17752618200043255
-0.5328411120795764
-0.6707012095708849
0.17752618200043255
-0.5328411120795764
-0.6707012095708849
0.17752618200043255
-0.5328411120795764
-0.6707012095708849
0.17752618200043255
-0.5328411120795764
-0.6647556630183561
0.1767792508855414
-0.5337385260860139
-0.6647556630183561
0.1767792508855414
-0.5337385260860139
-0.6647556630183561
0.1767792508855414
-0.5337385260860139
-0.6647556630183561
0.1767792508855414
-0.5337385260860139
-0.6598305038038963
0.17588788446813422
-0.5344027827742998
-0.6598305038038963
0.17588788446813422
-0.5344027827742998
-0.6598305038038963
0.17588788446813422
-0.5344027827742998
-0.6598305038038963
0.17588788446813422
-0.5344027827742998
-0.6571144991367338
0.17475310632670632
-0.5353552270554607
-0.6571144991367338
0.17475310632670632
-0.5353552270554607
-0.6571144991367338
0.17475310632670632
-0.5353552270554607
-0.6571144991367338
0.17475310632670632
-0.5353552270554607
-0.6576605792901246
0.17333207268233194
-0.5363953510081608
-0.6576605792901246
0.17333207268233194
-0.5363953510081608
-0.6576605792901246
0.17333207268233194
-0.5363953510081608
-0.6576605792901246
0.17333207268233194
-0.5363953510081608
-0.6591739152856567
0.17241750164737232
-0.5372911264068279
-0.6591739152856567
0.17241750164737232
-0.5372911264068279
-0.6591739152856567
0.17241750164737232
-0.5372911264068279
-0.6591739152856567
0.17241750164737232
-0.5372911264068279
-0.6605189040727739
0.1720518003224541
-0.5381720304396349
-0.6605189040727739
0.1720518003224541
-0.5381720304396349
-0.6605189040727739
0.1720518003224541
-0.5381720304396349
-0.6605189040727739
0.1720518003224541
-0.5381720304396349
-0.6599599400557851
0.17178516759249865
-0.5390631045996251
-0.6599599400557851
0.17178516759249865
-0.5390631045996251
-0.6599599400557851
0.17178516759249865
-0.5390631045996251
-0.6599599400557851
0.17178516759249865
-0.5390631045996251
-0.6578613862655276
0.1714861006253214
-0.5398926010135698
-0.6578613862655276
0.1714861006253214
-0.5398926010135698
-0.6578613862655276
0.1714861006253214
-0.5398926010135698
-0.6578613862655276
0.1714861006253214
-0.5398926010135698
-0.6547610558438464
0.17098822119731308
-0.5404964835343938
-0.6547610558438464
0.17098822119731308
-0.5404964835343938
-0.6547610558438464
0.17098822119731308
-0.5404964835343938
-0.6547610558438464
0.17098822119731308
-0.5404964835343938
-0.6524141182349301
0.1699742893301099
-0.5417177051786398
-0.6524141182349301
0.1699742893301099
-0.5417177051786398
-0.6524141182349301
0.1699742893301099
-0.5417177051786398
-0.6524141182349301
0.1699742893301099
-0.5417177051786398
-0.6518347265869288
0.16818745268483945
-0.5430938490024354
-0.6518347265869288
0.16818745268483945
-0.5430938490024354
-0.6518347265869288
0.16818745268483945
-0.5430938490024354
-0.6518347265869288
0.16818745268483945
-0.5430938490024354
-0.652418348970646
0.16632127036553493
-0.544268874125051
-0.652418348970646
0.16632127036553493
-0.544268874125051
-0.652418348970646
0.16632127036553493
-0.544268874125051
-0.652418348970646
0.16632127036553493
-0.544268874125051
-0.6528859924148287
0.16472034455873172
-0.545115069029116
-0.6528859924148287
0.16472034455873172
-0.545115069029116
-0.6528859924148287
0.16472034455873172
-0.545115069029116
-0.6528859924148287
0.16472034455873172
-0.545115069029116
-0.6521819532357309
0.16364489591502487
-0.5460638854413161
-0.6521819532357309
0.16364489591502487
-0.5460638854413161
-0.6521819532357309
0.16364489591502487
-0.5460638854413161
-0.6521819532357309
0.16364489591502487
-0.5460638854413161
-0.650080532415731
0.16364968993099366
-0.546907584138703
-0.650080532415731
0.16364968993099366
-0.546907584138703
-0.650080532415731
0.16364968993099366
-0.546907584138703
-0.650080532415731
0.16364968993099366
-0.546907584138703
-0.6486785717880235
0.16429848943645073
-0.547688006527582
-0.6486785717880235
0.16429848943645073
-0.547688006527582
-0.6486785717880235
0.16429848943645073
-0.547688006527582
-0.6486785717880235
0.16429848943645073
-0.547688006527582
-0.6482740441933741
0.16559060629748695
-0.5485888250964561
-0.6482740441933741
0.16559060629748695
-0.5485888250964561
-0.6482740441933741
0.16559060629748695
-0.5485888250964561
-0.6482740441933741
0.16559060629748695
-0.5485888250964561
-0.6488135297807069
0.16690828134934194
-0.5491790001553667
-0.6488135297807069
0.16690828134934194
-0.5491790001553667
-0.6488135297807069
0.16690828134934194
-0.5491790001553667
-0.6488135297807069
0.16690828134934194
-0.5491790001553667
-0.6498008702490581
0.16839930290666474
-0.5492127296441872
-0.6498008702490581
0.16839930290666474
-0.5492127296441872
-0.6498008702490581
0.16839930290666474
-0.5492127296441872
-0.6498008702490581
0.16839930290666474
-0.5492127296441872
-0.6499371052507613
0.16932423441768818
-0.5491631355549945
-0.6499371052507613
0.16932423441768818
-0.5491631355549945
-0.6499371052507613
0.16932423441768818
-0.5491631355549945
-0.6499371052507613
0.16932423441768818
-0.5491631355549945
-0.6482812344041402
0.17003074444065594
-0.5491198874808982
-0.6482812344041402
0.17003074444065594
-0.5491198874808982
-0.6482812344041402
0.17003074444065594
-0.5491198874808982
-0.6482812344041402
0.17003074444065594
-0.5491198874808982
-0.6464833172551108
0.17021699674182378
-0.5491371170413231
-0.6464833172551108
0.17021699674182378
-0.5491371170413231
-0.6464833172551108
0.17021699674182378
-0.5491371170413231
-0.6464833172551108
0.17021699674182378
-0.5491371170413231
-0.6461217444106921
0.16928136377220573
-0.5494138742931364
-0.6461217444106921
0.16928136377220573
-0.5494138742931364
-0.6461217444106921
0.16928136377220573
-0.5494138742931364
-0.6461217444106921
0.16928136377220573
-0.5494138742931364
-0.6469589730908185
0.1680389932222555
-0.5496376702437893
-0.6469589730908185
0.1680389932222555
-0.5496376702437893
-0.6469589730908185
0.1680389932222555
-0.5496376702437893
-0.6469589730908185
0.1680389932222555
-0.5496376702437893
-0.6476852757824765
0.16687081002376505
-0.5497499337052628
-0.6476852757824765
0.16687081002376505
-0.5497499337052628
-0.6476852757824765
0.16687081002376505
-0.5497499337052628
-0.6476852757824765
0.16687081002376505
-0.5497499337052628
-0.6483707418625939
0.16599707165046346
-0.5498318935073487
-0.6483707418625939
0.16599707165046346
-0.5498318935073487
-0.6483707418625939
0.16599707165046346
-0.5498318935073487
-0.6483707418625939
0.16599707165046346
-0.5498318935073487
-0.6470691132025914
0.16542680390989384
-0.5496432759300488
-0.6470691132025914
0.16542680390989384
-0.5496432759300488
-0.6470691132025914
0.16542680390989384
-0.5496432759300488
-0.6470691132025914
0.16542680390989384
-0.5496432759300488
-0.6446136268793136
0.16498749243533356
-0.5492052641680955
-0.6446136268793136
0.16498749243533356
-0.5492052641680955
-0.6446136268793136
0.16498749243533356
-0.5492052641680955
-0.6446136268793136
0.16498749243533356
-0.5492052641680955
-0.6430075304487999
0.16507403430472115
-0.5489605962508766
-0.6430075304487999
0.16507403430472115
-0.5489605962508766
-0.6430075304487999
0.16507403430472115
-0.5489605962508766
-0.6430075304487999
0.16507403430472115
-0.5489605962508766
-0.6430075304487999
0.16507403430472115
-0.5489605962508766
-0.6430075304487999
0.16507403430472115
-0.5489605962508766
-0.6430075304487999
0.16507403430472115
-0.5489605962508766
-0.6430075304487999
0.16507403430472115
-0.5489605962508766
-0.64331049484525
0.16493997934705232
-0.5486931859080938
-0.64331049484525
0.16493997934705232
-0.5486931859080938
-0.64331049484525
0.16493997934705232
-0.5486931859080938
-0.64331049484525
0.16493997934705232
-0.5486931859080938
-0.644140832637502
0.16466625357771023
-0.548490234273846
-0.644140832637502
0.16466625357771023
-0.548490234273846
-0.644140832637502
0.16466625357771023
-0.548490234273846
-0.644140832637502
0.16466625357771023
-0.548490234273846
-0.64384109570252
0.16458626756638456
-0.5485295704298742
-0.64384109570252
0.16458626756638456
-0.5485295704298742
-0.64384109570252
0.16458626756638456
-0.5485295704298742
-0.64384109570252
0.16458626756638456
-0.5485295704298742
-0.6432818077984155
0.1644250800085665
-0.5486430926873944
-0.6432818077984155
0.1644250800085665
-0.5486430926873944
-0.6432818077984155
0.1644250800085665
-0.5486430926873944
-0.6432818077984155
0.1644250800085665
-0.5486430926873944
-0.6431713259590501
0.16449899176889757
-0.548532610848029
-0.6431713259590501
0.16449899176889757
-0.548532610848029
-0.6431713259590501
0.16449899176889757
-0.548532610848029
-0.6431713259590501
0.16449899176889757
-0.548532610848029
-0.6435812225798128
0.16477500628500613
-0.5481620687882213
-0.6435812225798128
0.16477500628500613
-0.5481620687882213
-0.6435812225798128
0.16477500628500613
-0.5481620687882213
-0.6435812225798128
0.16477500628500613
-0.5481620687882213
-0.6435783187109538
0.16496572710439728
-0.5479439461118819
-0.6435783187109538
0.16496572710439728
-0.5479439461118819
-0.6435783187109538
0.16496572710439728
-0.5479439461118819
-0.6435783187109538
0.16496572710439728
-0.5479439461118819
-0.6436532530820565
0.1650747504813681
-0.5480188804829844
-0.6436532530820565
0.1650747504813681
-0.5480188804829844
-0.6436532530820565
0.1650747504813681
-0.5480188804829844
-0.6436532530820565
0.1650747504813681
-0.5480188804829844
-0.6435783187109538
0.16496572710439728
-0.5479439461118819
-0.6435783187109538
0.16496572710439728
-0.5479439461118819
-0.6435783187109538
0.16496572710439728
-0.5479439461118819
-0.6435783187109538
0.16496572710439728
-0.5479439461118819
-0.6440696908764382
0.16467621733903046
-0.5480800249243802
-0.6440696908764382
0.16467621733903046
-0.5480800249243802
-0.6440696908764382
0.16467621733903046
-0.5480800249243802
-0.6440696908764382
0.16467621733903046
-0.5480800249243802
-0.6446400445417413
0.16398863318968196
-0.5480579680967431
-0.6446400445417413
0.16398863318968196
-0.5480579680967431
-0.6446400445417413
0.16398863318968196
-0.5480579680967431
-0.6446400445417413
0.16398863318968196
-0.5480579680967431
-0.6448363386557239
0.16317464188640543
-0.5483345586498609
-0.6448363386557239
0.16317464188640543
-0.5483345586498609
-0.6448363386557239
0.16317464188640543
-0.5483345586498609
-0.6448363386557239
0.16317464188640543
-0.5483345586498609
-0.6445106304147549
0.16238887612687788
-0.5485417194903615
-0.6445106304147549
0.16238887612687788
-0.5485417194903615
-0.6445106304147549
0.16238887612687788
-0.5485417194903615
-0.6445106304147549
0.16238887612687788
-0.5485417194903615
-0.6442195162874893
0.16171340332910777
-0.5487892548763125
-0.6442195162874893
0.16171340332910777
-0.5487892548763125
-0.6442195162874893
0.16171340332910777
-0.5487892548763125
-0.6442195162874893
0.16171340332910777
-0.5487892548763125
-0.6445993404251913
0.1611648471317554
-0.5489210776532489
-0.6445993404251913
0.1611648471317554
-0.5489210776532489
-0.6445993404251913
0.1611648471317554
-0.5489210776532489
-0.6445993404251913
0.1611648471317554
-0.5489210776532489
-0.6449072475298241
0.16058679050539323
-0.5487544463441395
-0.6449072475298241
0.16058679050539323
-0.5487544463441395
-0.6449072475298241
0.16058679050539323
-0.5487544463441395
-0.6449072475298241
0.16058679050539323
-0.5487544463441395
-0.6447768810739696
0.16005101660938315
-0.5480306191423292
-0.6447768810739696
0.16005101660938315
-0.5480306191423292
-0.6447768810739696
0.16005101660938315
-0.5480306191423292
-0.6447768810739696
0.16005101660938315
-0.5480306191423292
-0.6430256250174528
0.15999799045308807
-0.5474172316953111
-0.6430256250174528
0.15999799045308807
-0.5474172316953111
-0.6430256250174528
0.15999799045308807
-0.5474172316953111
-0.6430256250174528
0.15999799045308807
-0.5474172316953111
-0.6410483458588693
0.1602656242459139
-0.5469228145175893
-0.6410483458588693
0.1602656242459139
-0.5469228145175893
-0.6410483458588693
0.1602656242459139
-0.5469228145175893
-0.6410483458588693
0.1602656242459139
-0.5469228145175893
-0.6405947458227736
0.16074397716651
-0.5466037539606605
-0.6405947458227736
0.16074397716651
-0.5466037539606605
-0.6405947458227736
0.16074397716651
-0.5466037539606605
-0.6405947458227736
0.16074397716651
-0.5466037539606605
-0.6408023675735558
0.16227726422300714
-0.5458516573607046
-0.6408023675735558
0.16227726422300714
-0.5458516573607046
-0.6408023675735558
0.16227726422300714
-0.5458516573607046
-0.6408023675735558
0.16227726422300714
-0.5458516573607046
-0.6384533038069371
0.16491325497100745
-0.5445140645521163
-0.6384533038069371
0.16491325497100745
-0.5445140645521163
-0.6384533038069371
0.16491325497100745
-0.5445140645521163
-0.6384533038069371
0.16491325497100745
-0.5445140645521163
-0.6331120472545072
0.1670648139020527
-0.5436718316096563
-0.6331120472545072
0.1670648139020527
-0.5436718316096563
-0.6331120472545072
0.1670648139020527
-0.5436718316096563
-0.6331120472545072
0.1670648139020527
-0.5436718316096563
-0.625036037233257
0.16906793592918193
-0.5433588565164476
-0.625036037233257
0.16906793592918193
-0.5433588565164476
-0.625036037233257
0.16906793592918193
-0.5433588565164476
-0.625036037233257
0.16906793592918193
-0.5433588565164476
-0.6187064272195787
0.1700189354748463
-0.5419210393490749
-0.6187064272195787
0.1700189354748463
-0.5419210393490749
-0.6187064272195787
0.1700189354748463
-0.5419210393490749
-0.6187064272195787
0.1700189354748463
-0.5419210393490749
-0.6201515463413783
0.16983847026824164
-0.5390660591865377
-0.6201515463413783
0.16983847026824164
-0.5390660591865377
-0.6201515463413783
0.16983847026824164
-0.5390660591865377
-0.6201515463413783
0.16983847026824164
-0.5390660591865377
-0.6202079864750303
0.17035130368505333
-0.5346202301777168
-0.6202079864750303
0.17035130368505333
-0.5346202301777168
-0.6202079864750303
0.17035130368505333
-0.5346202301777168
-0.6202079864750303
0.17035130368505333
-0.5346202301777168
-0.6178693637946167
0.1700217656314228
-0.52775072261336
-0.6178693637946167
0.1700217656314228
-0.52775072261336
-0.6178693637946167
0.1700217656314228
-0.52775072261336
-0.6178693637946167
0.1700217656314228
-0.52775072261336
-0.610759051874784
0.16933884016178485
-0.5205021685648004
-0.610759051874784
0.16933884016178485
-0.5205021685648004
-0.610759051874784
0.16933884016178485
-0.5205021685648004
-0.610759051874784
0.16933884016178485
-0.5205021685648004
-0.5994032350600204
0.16608672095885813
-0.5139996081316731
-0.5994032350600204
0.16608672095885813
-0.5139996081316731
-0.5994032350600204
0.16608672095885813
-0.5139996081316731
-0.5994032350600204
0.16608672095885813
-0.5139996081316731
-0.5870560169225488
0.16216895016003685
-0.5071801311996232
-0.5870560169225488
0.16216895016003685
-0.5071801311996232
-0.5870560169225488
0.16216895016003685
-0.5071801311996232
-0.5870560169225488
0.16216895016003685
-0.5071801311996232
-0.5727071400272917
0.15774688966208272
-0.5004016152228106
-0.5727071400272917
0.15774688966208272
-0.5004016152228106
-0.5727071400272917
0.15774688966208272
-0.5004016152228106
-0.5727071400272917
0.15774688966208272
-0.5004016152228106
-0.5600157135620694
0.1526588772896135
-0.4949499208684715
-0.5600157135620694
0.1526588772896135
-0.4949499208684715
-0.5600157135620694
0.1526588772896135
-0.4949499208684715
-0.5600157135620694
0.1526588772896135
-0.4949499208684715
-0.5484888990287071
0.14790010317159377
-0.490131278957177
-0.5484888990287071
0.14790010317159377
-0.490131278957177
-0.5484888990287071
0.14790010317159377
-0.490131278957177
-0.5484888990287071
0.14790010317159377
-0.490131278957177
-0.5428275208833986
0.14307694674927732
-0.4849174034023539
-0.5428275208833986
0.14307694674927732
-0.4849174034023539
-0.5428275208833986
0.14307694674927732
-0.4849174034023539
-0.5428275208833986
0.14307694674927732
-0.4849174034023539
-0.5396325004405909
0.13792762487053023
-0.4802202335892082
-0.5396325004405909
0.13792762487053023
-0.4802202335892082
-0.5396325004405909
0.13792762487053023
-0.4802202335892082
-0.5396325004405909
0.13792762487053023
-0.4802202335892082
-0.5378683578211798
0.13267389257268622
-0.47625227816243143
-0.5378683578211798
0.13267389257268622
-0.47625227816243143
-0.5378683578211798
0.13267389257268622
-0.47625227816243143
-0.5378683578211798
0.13267389257268622
-0.47625227816243143
-0.5369701199855561
0.12754361116847426
-0.47256903437985004
-0.5369701199855561
0.12754361116847426
-0.47256903437985004
-0.5369701199855561
0.12754361116847426
-0.47256903437985004
-0.5369701199855561
0.12754361116847426
-0.47256903437985004
-0.5327897035132585
0.1225526058417718
-0.46916904306816976
-0.5327897035132585
0.1225526058417718
-0.46916904306816976
-0.5327897035132585
0.1225526058417718
-0.46916904306816976
-0.5327897035132585
0.1225526058417718
-0.46916904306816976
-0.5282200992196328
0.11700349866357904
-0.46571517532366014
-0.5282200992196328
0.11700349866357904
-0.46571517532366014
-0.5282200992196328
0.11700349866357904
-0.46571517532366014
-0.5282200992196328
0.11700349866357904
-0.46571517532366014
-0.5281348818051856
0.11112300815239194
-0.4632639620685294
-0.5281348818051856
0.11112300815239194
-0.4632639620685294
-0.5281348818051856
0.11112300815239194
-0.4632639620685294
-0.5281348818051856
0.11112300815239194
-0.4632639620685294
-0.5287848257373995
0.10536996138742845
-0.4622356785648074
-0.5287848257373995
0.10536996138742845
-0.4622356785648074
-0.5287848257373995
0.10536996138742845
-0.4622356785648074
-0.5287848257373995
0.10536996138742845
-0.4622356785648074
-0.5270118969596176
0.10003565392475978
-0.46065298260157406
-0.5270118969596176
0.10003565392475978
-0.46065298260157406
-0.5270118969596176
0.10003565392475978
-0.46065298260157406
-0.5270118969596176
0.10003565392475978
-0.46065298260157406
-0.5260898907310435
0.09593608648088199
-0.45914098605475867
-0.5260898907310435
0.09593608648088199
-0.45914098605475867
-0.5260898907310435
0.09593608648088199
-0.45914098605475867
-0.5260898907310435
0.09593608648088199
-0.45914098605475867
-0.5262901811400547
0.0926916577229962
-0.45889340930745987
-0.5262901811400547
0.0926916577229962
-0.45889340930745987
-0.5262901811400547
0.0926916577229962
-0.45889340930745987
-0.5262901811400547
0.0926916577229962
-0.45889340930745987
-0.5265999725682815
0.08981630813759969
-0.45969695642891645
-0.5265999725682815
0.08981630813759969
-0.45969695642891645
-0.5265999725682815
0.08981630813759969
-0.45969695642891645
-0.5265999725682815
0.08981630813759969
-0.45969695642891645
-0.5270257722909798
0.08764276472374795
-0.4601731930546893
-0.5270257722909798
0.08764276472374795
-0.4601731930546893
-0.5270257722909798
0.08764276472374795
-0.4601731930546893
-0.5270257722909798
0.08764276472374795
-0.4601731930546893
-0.5267941327030458
0.08580946556895477
-0.4598867393623347
-0.5267941327030458
0.08580946556895477
-0.4598867393623347
-0.5267941327030458
0.08580946556895477
-0.4598867393623347
-0.5267941327030458
0.08580946556895477
-0.4598867393623347
-0.5272117631251351
0.08413992975371737
-0.4589604658658251
-0.5272117631251351
0.08413992975371737
-0.4589604658658251
-0.5272117631251351
0.08413992975371737
-0.4589604658658251
-0.5272117631251351
0.08413992975371737
-0.4589604658658251
-0.5293862062907774
0.08378809492303417
-0.4584274355827533
-0.5293862062907774
0.08378809492303417
-0.4584274355827533
-0.5293862062907774
0.08378809492303417
-0.4584274355827533
-0.5293862062907774
0.08378809492303417
-0.4584274355827533
-0.5310658011468459
0.08367451156616762
-0.4584579229888985
-0.5310658011468459
0.08367451156616762
-0.4584579229888985
-0.5310658011468459
0.08367451156616762
-0.4584579229888985
-0.5310658011468459
0.08367451156616762
-0.4584579229888985
-0.5308852604289543
0.08386239339180379
-0.45887181015594247
-0.5308852604289543
0.08386239339180379
-0.45887181015594247
-0.5308852604289543
0.08386239339180379
-0.45887181015594247
-0.5308852604289543
0.08386239339180379
-0.45887181015594247
-0.5284805922012062
0.08460048877259053
-0.4590737980071694
-0.5284805922012062
0.08460048877259053
-0.4590737980071694
-0.5284805922012062
0.08460048877259053
-0.4590737980071694
-0.5284805922012062
0.08460048877259053
-0.4590737980071694
-0.52631502274081
0.08626540755377433
-0.4590681812786452
-0.52631502274081
0.08626540755377433
-0.4590681812786452
-0.52631502274081
0.08626540755377433
-0.4590681812786452
-0.52631502274081
0.08626540755377433
-0.4590681812786452
-0.5259679977556562
0.08801928978457531
-0.459127152720395
-0.5259679977556562
0.08801928978457531
-0.459127152720395
-0.5259679977556562
0.08801928978457531
-0.459127152720395
-0.5259679977556562
0.08801928978457531
-0.459127152720395
-0.5270716335085817
0.08989627595341668
-0.4589998795621706
-0.5270716335085817
0.08989627595341668
-0.4589998795621706
-0.5270716335085817
0.08989627595341668
-0.4589998795621706
-0.5270716335085817
0.08989627595341668
-0.4589998795621706
-0.5267568381632461
0.09200927750422468
-0.4586359108095941
-0.5267568381632461
0.09200927750422468
-0.4586359108095941
-0.5267568381632461
0.09200927750422468
-0.4586359108095941
-0.5267568381632461
0.09200927750422468
-0.4586359108095941
-0.5264982287569833
0.09417022498131504
-0.4585615047593895
-0.5264982287569833
0.09417022498131504
-0.4585615047593895
-0.5264982287569833
0.09417022498131504
-0.4585615047593895
-0.5264982287569833
0.09417022498131504
-0.4585615047593895
-0.5271941006654945
0.09681012307079759
-0.4588705428464737
-0.5271941006654945
0.09681012307079759
-0.4588705428464737
-0.5271941006654945
0.09681012307079759
-0.4588705428464737
-0.5271941006654945
0.09681012307079759
-0.4588705428464737
-0.5279230868583806
0.09984152851309852
-0.4586438788950647
-0.5279230868583806
0.09984152851309852
-0.4586438788950647
-0.5279230868583806
0.09984152851309852
-0.4586438788950647
-0.5279230868583806
0.09984152851309852
-0.4586438788950647
-0.5283021819440666
0.10355903140430502
-0.45855896728254014
-0.5283021819440666
0.10355903140430502
-0.45855896728254014
-0.5283021819440666
0.10355903140430502
-0.45855896728254014
-0.5283021819440666
0.10355903140430502
-0.45855896728254014
-0.528186785453691
0.10808413841039988
-0.4592845540307399
-0.528186785453691
0.10808413841039988
-0.4592845540307399
-0.528186785453691
0.10808413841039988
-0.4592845540307399
-0.528186785453691
0.10808413841039988
-0.4592845540307399
-0.5276734335256555
0.11298396771304905
-0.45996354152849606
-0.5276734335256555
0.11298396771304905
-0.45996354152849606
-0.5276734335256555
0.11298396771304905
-0.45996354152849606
-0.5276734335256555
0.11298396771304905
-0.45996354152849606
-0.5298029653110421
0.11836276557233645
-0.4610994952888039
-0.5298029653110421
0.11836276557233645
-0.4610994952888039
-0.5298029653110421
0.11836276557233645
-0.4610994952888039
-0.5298029653110421
0.11836276557233645
-0.4610994952888039
-0.5324438340680729
0.12461911366356127
-0.46346992465560666
-0.5324438340680729
0.12461911366356127
-0.46346992465560666
-0.5324438340680729
0.12461911366356127
-0.46346992465560666
-0.5324438340680729
0.12461911366356127
-0.46346992465560666
-0.5371437279133179
0.1320688783973466
-0.46609772843430647
-0.5371437279133179
0.1320688783973466
-0.46609772843430647
-0.5371437279133179
0.1320688783973466
-0.46609772843430647
-0.5371437279133179
0.1320688783973466
-0.46609772843430647
-0.54021407627702
0.14171981116831867
-0.46969677697576473
-0.54021407627702
0.14171981116831867
-0.46969677697576473
-0.54021407627702
0.14171981116831867
-0.46969677697576473
-0.54021407627702
0.14171981116831867
-0.46969677697576473
-0.5444632295349483
0.15265449364977093
-0.474047364237834
-0.5444632295349483
0.15265449364977093
-0.474047364237834
-0.5444632295349483
0.15265449364977093
-0.474047364237834
-0.5444632295349483
0.15265449364977093
-0.474047364237834
-0.5565519018033996
0.16524302304655997
-0.48051452199458206
-0.5565519018033996
0.16524302304655997
-0.48051452199458206
-0.5565519018033996
0.16524302304655997
-0.48051452199458206
-0.5565519018033996
0.16524302304655997
-0.48051452199458206
-0.5752635937413182
0.17986019031638004
-0.48968035528956455
-0.5752635937413182
0.17986019031638004
-0.48968035528956455
-0.5752635937413182
0.17986019031638004
-0.48968035528956455
-0.5752635937413182
0.17986019031638004
-0.48968035528956455
-0.5927318650262998
0.19226297721112173
-0.4950437929889877
-0.5927318650262998
0.19226297721112173
-0.4950437929889877
-0.5927318650262998
0.19226297721112173
-0.4950437929889877
-0.5927318650262998
0.19226297721112173
-0.4950437929889877
-0.6079166746726561
0.19785943934031816
-0.49849817139006
-0.6079166746726561
0.19785943934031816
-0.49849817139006
-0.6079166746726561
0.19785943934031816
-0.49849817139006
-0.6079166746726561
0.19785943934031816
-0.49849817139006
-0.6130470774626289
0.19485833567280247
-0.5002464621088054
-0.6130470774626289
0.19485833567280247
-0.5002464621088054
-0.6130470774626289
0.19485833567280247
-0.5002464621088054
-0.6130470774626289
0.19485833567280247
-0.5002464621088054
-0.6173544190372007
0.18888769198241803
-0.5030458858470994
-0.6173544190372007
0.18888769198241803
-0.5030458858470994
-0.6173544190372007
0.18888769198241803
-0.5030458858470994
-0.6173544190372007
0.18888769198241803
-0.5030458858470994
-0.622688860046084
0.1829802286623275
-0.5039376570580961
-0.622688860046084
0.1829802286623275
-0.5039376570580961
-0.622688860046084
0.1829802286623275
-0.5039376570580961
-0.622688860046084
0.1829802286623275
-0.5039376570580961
-0.6215322486351313
0.18016869407590794
-0.5017365345919687
-0.6215322486351313
0.18016869407590794
-0.5017365345919687
-0.6215322486351313
0.18016869407590794
-0.5017365345919687
-0.6215322486351313
0.18016869407590794
-0.5017365345919687
-0.6170875956876172
0.17701994188558803
-0.5026627449721978
-0.6170875956876172
0.17701994188558803
-0.5026627449721978
-0.6170875956876172
0.17701994188558803
-0.5026627449721978
-0.6170875956876172
0.17701994188558803
-0.5026627449721978
-0.6136268660493351
0.17245662191578928
-0.5054199432997916
-0.6136268660493351
0.17245662191578928
-0.5054199432997916
-0.6136268660493351
0.17245662191578928
-0.5054199432997916
-0.6136268660493351
0.17245662191578928
-0.5054199432997916
-0.6134888810284458
0.16892618640993903
-0.5074976239175188
-0.6134888810284458
0.16892618640993903
-0.5074976239175188
-0.6134888810284458
0.16892618640993903
-0.5074976239175188
-0.6134888810284458
0.16892618640993903
-0.5074976239175188
-0.6162734386548759
0.16697488570867058
-0.5100794838621051
-0.6162734386548759
0.16697488570867058
-0.5100794838621051
-0.6162734386548759
0.16697488570867058
-0.5100794838621051
-0.6162734386548759
0.16697488570867058
-0.5100794838621051
-0.6219680227552209
0.16528942195075585
-0.5116235674019344
-0.6219680227552209
0.16528942195075585
-0.5116235674019344
-0.6219680227552209
0.16528942195075585
-0.5116235674019344
-0.6219680227552209
0.16528942195075585
-0.5116235674019344
-0.6288848784983095
0.16413613352957634
-0.512250472629939
-0.6288848784983095
0.16413613352957634
-0.512250472629939
-0.6288848784983095
0.16413613352957634
-0.512250472629939
-0.6288848784983095
0.16413613352957634
-0.512250472629939
-0.6303420202356402
0.16375540549225742
-0.5136878224157806
-0.6303420202356402
0.16375540549225742
-0.5136878224157806
-0.6303420202356402
0.16375540549225742
-0.5136878224157806
-0.6303420202356402
0.16375540549225742
-0.5136878224157806
-0.6273492696357953
0.1632420701578219
-0.51554209253928
-0.6273492696357953
0.1632420701578219
-0.51554209253928
-0.6273492696357953
0.1632420701578219
-0.51554209253928
-0.6273492696357953
0.1632420701578219
-0.51554209253928
-0.6251407615598519
0.16249469449970017
-0.5179507813178803
-0.6251407615598519
0.16249469449970017
-0.5179507813178803
-0.6251407615598519
0.16249469449970017
-0.5179507813178803
-0.6251407615598519
0.16249469449970017
-0.5179507813178803
-0.6272515553025246
0.16261402513208495
-0.519389141562256
-0.6272515553025246
0.16261402513208495
-0.519389141562256
-0.6272515553025246
0.16261402513208495
-0.519389141562256
-0.6272515553025246
0.16261402513208495
-0.519389141562256
-0.6334060354983864
0.16311092235467375
-0.5195513008852314
-0.6334060354983864
0.16311092235467375
-0.5195513008852314
-0.6334060354983864
0.16311092235467375
-0.5195513008852314
-0.6334060354983864
0.16311092235467375
-0.5195513008852314
-0.6383329460855244
0.16354643166157812
-0.5190597136866933
-0.6383329460855244
0.16354643166157812
-0.5190597136866933
-0.6383329460855244
0.16354643166157812
-0.5190597136866933
-0.6383329460855244
0.16354643166157812
-0.5190597136866933
-0.6365796714784221
0.16498688895064673
-0.5179452778897318
-0.6365796714784221
0.16498688895064673
-0.5179452778897318
-0.6365796714784221
0.16498688895064673
-0.5179452778897318
-0.6365796714784221
0.16498688895064673
-0.5179452778897318
-0.6289650379575469
0.16702380922443777
-0.5172281599236197
-0.6289650379575469
0.16702380922443777
-0.5172281599236197
-0.6289650379575469
0.16702380922443777
-0.5172281599236197
-0.6289650379575469
0.16702380922443777
-0.5172281599236197
-0.620909040587281
0.1688195234980474
-0.5163781527224914
-0.620909040587281
0.1688195234980474
-0.5163781527224914
-0.620909040587281
0.1688195234980474
-0.5163781527224914
-0.620909040587281
0.1688195234980474
-0.5163781527224914
-0.6190882905601467
0.16960772600529334
-0.5160645806812866
-0.6190882905601467
0.16960772600529334
-0.5160645806812866
-0.6190882905601467
0.16960772600529334
-0.5160645806812866
-0.6190882905601467
0.16960772600529334
-0.5160645806812866
-0.6235643742377828
0.16998550934460696
-0.516149400865495
-0.6235643742377828
0.16998550934460696
-0.516149400865495
-0.6235643742377828
0.16998550934460696
-0.516149400865495
-0.6235643742377828
0.16998550934460696
-0.516149400865495
-0.6296033108564273
0.17067550762817338
-0.5162272868999215
-0.6296033108564273
0.17067550762817338
-0.5162272868999215
-0.6296033108564273
0.17067550762817338
-0.5162272868999215
-0.6296033108564273
0.17067550762817338
-0.5162272868999215
-0.6331995634937124
0.17172485331577894
-0.5161450185137272
-0.6331995634937124
0.17172485331577894
-0.5161450185137272
-0.6331995634937124
0.17172485331577894
-0.5161450185137272
-0.6331995634937124
0.17172485331577894
-0.5161450185137272
-0.6333391339323391
0.1731276576799474
-0.5162445813575937
-0.6333391339323391
0.1731276576799474
-0.5162445813575937
-0.6333391339323391
0.1731276576799474
-0.5162445813575937
-0.6333391339323391
0.1731276576799474
-0.5162445813575937
-0.6301071845494276
0.17466882234992384
-0.5163602187590624
-0.6301071845494276
0.17466882234992384
-0.5163602187590624
-0.6301071845494276
0.17466882234992384
-0.5163602187590624
-0.6301071845494276
0.17466882234992384
-0.5163602187590624
-0.6265097916479276
0.17594254808905638
-0.5163185979863203
-0.6265097916479276
0.17594254808905638
-0.5163185979863203
-0.6265097916479276
0.17594254808905638
-0.5163185979863203
-0.6265097916479276
0.17594254808905638
-0.5163185979863203
-0.6254826190454529
0.17645853742990447
-0.5163280050225734
-0.6254826190454529
0.17645853742990447
-0.5163280050225734
-0.6254826190454529
0.17645853742990447
-0.5163280050225734
-0.6254826190454529
0.17645853742990447
-0.5163280050225734
-0.6273040897463796
0.1768945403218146
-0.5161384815201748
-0.6273040897463796
0.1768945403218146
-0.5161384815201748
-0.6273040897463796
0.1768945403218146
-0.5161384815201748
-0.6273040897463796
0.1768945403218146
-0.5161384815201748
-0.6293834533527353
0.1763183815107661
-0.5154884644196126
-0.6293834533527353
0.1763183815107661
-0.5154884644196126
-0.6293834533527353
0.1763183815107661
-0.5154884644196126
-0.6293834533527353
0.1763183815107661
-0.5154884644196126
-0.6303439424567705
0.17562000410463302
-0.515286023840457
-0.6303439424567705
0.17562000410463302
-0.515286023840457
-0.6303439424567705
0.17562000410463302
-0.515286023840457
-0.6303439424567705
0.17562000410463302
-0.515286023840457
-0.6295427274562229
0.1749612709965497
-0.515464719733223
-0.6295427274562229
0.1749612709965497
-0.515464719733223
-0.6295427274562229
0.1749612709965497
-0.515464719733223
-0.6295427274562229
0.1749612709965497
-0.515464719733223
-0.6281386790901312
0.17436061796109142
-0.5153914502681323
-0.6281386790901312
0.17436061796109142
-0.5153914502681323
-0.6281386790901312
0.17436061796109142
-0.5153914502681323
-0.6281386790901312
0.17436061796109142
-0.5153914502681323
-0.626999047446877
0.1738501661072095
-0.5149016312918533
-0.626999047446877
0.1738501661072095
-0.5149016312918533
-0.626999047446877
0.1738501661072095
-0.5149016312918533
-0.626999047446877
0.1738501661072095
-0.5149016312918533
-0.6275290322997683
0.17369265296696193
-0.5145249696609501
-0.6275290322997683
0.17369265296696193
-0.5145249696609501
-0.6275290322997683
0.17369265296696193
-0.5145249696609501
-0.6275290322997683
0.17369265296696193
-0.5145249696609501
-0.628774657925912
0.17336724413214086
-0.5146259560077913
-0.628774657925912
0.17336724413214086
-0.5146259560077913
-0.628774657925912
0.17336724413214086
-0.5146259560077913
-0.628774657925912
0.17336724413214086
-0.5146259560077913
-0.6301327404567533
0.17304811692271108
-0.5146139637334908
-0.6301327404567533
0.17304811692271108
-0.5146139637334908
-0.6301327404567533
0.17304811692271108
-0.5146139637334908
-0.6301327404567533
0.17304811692271108
-0.5146139637334908
-0.6312451488574653
0.17338771355198612
-0.5143888656225865
-0.6312451488574653
0.17338771355198612
-0.5143888656225865
-0.6312451488574653
0.17338771355198612
-0.5143888656225865
-0.6312451488574653
0.17338771355198612
-0.5143888656225865
-0.6317810170772425
0.17421677903011276
-0.5143951107766417
-0.6317810170772425
0.17421677903011276
-0.5143951107766417
-0.6317810170772425
0.17421677903011276
-0.5143951107766417
-0.6317810170772425
0.17421677903011276
-0.5143951107766417
-0.6322447068748256
0.1748173784233359
-0.5146669019991438
-0.6322447068748256
0.1748173784233359
-0.5146669019991438
-0.6322447068748256
0.1748173784233359
-0.5146669019991438
-0.6322447068748256
0.1748173784233359
-0.5146669019991438
-0.6313839936257928
0.1747782155935957
-0.5150434128362756
-0.6313839936257928
0.1747782155935957
-0.5150434128362756
-0.6313839936257928
0.1747782155935957
-0.5150434128362756
-0.6313839936257928
0.1747782155935957
-0.5150434128362756
-0.6301191577177554
0.17447143343470448
-0.5152343969892147
-0.6301191577177554
0.17447143343470448
-0.5152343969892147
-0.6301191577177554
0.17447143343470448
-0.5152343969892147
-0.6301191577177554
0.17447143343470448
-0.5152343969892147
-0.6301527078951913
0.17347347031128227
-0.5154412632018631
-0.6301527078951913
0.17347347031128227
-0.5154412632018631
-0.6301527078951913
0.17347347031128227
-0.5154412632018631
-0.6301527078951913
0.17347347031128227
-0.5154412632018631
-0.6305307283852148
0.17220092827061056
-0.5153106851459162
-0.6305307283852148
0.17220092827061056
-0.5153106851459162
-0.6305307283852148
0.17220092827061056
-0.5153106851459162
-0.6305307283852148
0.17220092827061056
-0.5153106851459162
-0.6318687820518295
0.17140493610127336
-0.515138940427303
-0.6318687820518295
0.17140493610127336
-0.515138940427303
-0.6318687820518295
0.17140493610127336
-0.515138940427303
-0.6318687820518295
0.17140493610127336
-0.515138940427303
-0.632815984076179
0.1711114652212212
-0.5149398890504904
-0.632815984076179
0.1711114652212212
-0.5149398890504904
-0.632815984076179
0.1711114652212212
-0.5149398890504904
-0.632815984076179
0.1711114652212212
-0.5149398890504904
-0.6324520086964077
0.17088287197890936
-0.5146752782736386
-0.6324520086964077
0.17088287197890936
-0.5146752782736386
-0.6324520086964077
0.17088287197890936
-0.5146752782736386
-0.6324520086964077
0.17088287197890936
-0.5146752782736386
-0.6319949255427811
0.17112410808720943
-0.5146820740938498
-0.6319949255427811
0.17112410808720943
-0.5146820740938498
-0.6319949255427811
0.17112410808720943
-0.5146820740938498
-0.6319949255427811
0.17112410808720943
-0.5146820740938498
-0.631074120384278
0.1717565936909648
-0.5145892539229552
-0.631074120384278
0.1717565936909648
-0.5145892539229552
-0.631074120384278
0.1717565936909648
-0.5145892539229552
-0.631074120384278
0.1717565936909648
-0.5145892539229552
-0.6311332938543356
0.17227216220641617
-0.5146681237583984
-0.6311332938543356
0.17227216220641617
-0.5146681237583984
-0.6311332938543356
0.17227216220641617
-0.5146681237583984
-0.6311332938543356
0.17227216220641617
-0.5146681237583984
-0.6317887584125566
0.172774874037832
-0.5146744113469618
-0.6317887584125566
0.172774874037832
-0.5146744113469618
-0.6317887584125566
0.172774874037832
-0.5146744113469618
-0.6317887584125566
0.172774874037832
-0.5146744113469618
-0.6320732578696472
0.17326438017154092
-0.5146410579087752
-0.6320732578696472
0.17326438017154092
-0.5146410579087752
-0.6320732578696472
0.17326438017154092
-0.5146410579087752
-0.6320732578696472
0.17326438017154092
-0.5146410579087752
-0.6325036321480609
0.17379312304825464
-0.5147603252082115
-0.6325036321480609
0.17379312304825464
-0.5147603252082115
-0.6325036321480609
0.17379312304825464
-0.5147603252082115
-0.6325036321480609
0.17379312304825464
-0.5147603252082115
-0.6323839885442974
0.17405395194479764
-0.51442892963042
-0.6323839885442974
0.17405395194479764
-0.51442892963042
-0.6323839885442974
0.17405395194479764
-0.51442892963042
-0.6323839885442974
0.17405395194479764
-0.51442892963042
-0.6321981027788033
0.17409284274673595
-0.5140180325055163
-0.6321981027788033
0.17409284274673595
-0.5140180325055163
-0.6321981027788033
0.17409284274673595
-0.5140180325055163
-0.6321981027788033
0.17409284274673595
-0.5140180325055163
-0.6318995284547518
0.17416420900637405
-0.5136069536246014
-0.6318995284547518
0.17416420900637405
-0.5136069536246014
-0.6318995284547518
0.17416420900637405
-0.5136069536246014
-0.6318995284547518
0.17416420900637405
-0.5136069536246014
-0.6311040099291075
0.17443710743173738
-0.5132813647019878
-0.6311040099291075
0.17443710743173738
-0.5132813647019878
-0.6311040099291075
0.17443710743173738
-0.5132813647019878
-0.6311040099291075
0.17443710743173738
-0.5132813647019878
-0.6305734786463797
0.17464491330906395
-0.5129890537334871
-0.6305734786463797
0.17464491330906395
-0.5129890537334871
-0.6305734786463797
0.17464491330906395
-0.5129890537334871
-0.6305734786463797
0.17464491330906395
-0.5129890537334871
-0.630540456234967
0.17453392166662599
-0.5129494105402193
-0.630540456234967
0.17453392166662599
-0.5129494105402193
-0.630540456234967
0.17453392166662599
-0.5129494105402193
-0.630540456234967
0.17453392166662599
-0.5129494105402193
-0.630944490555249
0.17476321234981373
-0.5132475888752432
-0.630944490555249
0.17476321234981373
-0.5132475888752432
-0.630944490555249
0.17476321234981373
-0.5132475888752432
-0.630944490555249
0.17476321234981373
-0.5132475888752432
-0.6309311830266416
0.17508962727971716
-0.5134790745957708
-0.6309311830266416
0.17508962727971716
-0.5134790745957708
-0.6309311830266416
0.17508962727971716
-0.5134790745957708
-0.6309311830266416
0.17508962727971716
-0.5134790745957708
-0.6308184847678555
0.1751221855669003
-0.5134788356843714
-0.6308184847678555
0.1751221855669003
-0.5134788356843714
-0.6308184847678555
0.1751221855669003
-0.5134788356843714
-0.6308184847678555
0.1751221855669003
-0.5134788356843714
-0.6308184847678555
0.1751221855669003
-0.5134788356843714
-0.6308184847678555
0.1751221855669003
-0.5134788356843714
-0.6308184847678555
0.1751221855669003
-0.5134788356843714
-0.6308184847678555
0.1751221855669003
-0.5134788356843714
-0.631123280865364
0.17495262320926452
-0.5133271677047317
-0.631123280865364
0.17495262320926452
-0.5133271677047317
-0.631123280865364
0.17495262320926452
-0.5133271677047317
-0.631123280865364
0.17495262320926452
-0.5133271677047317
-0.631911629119413
0.17490784463920947
-0.513321616955887
-0.631911629119413
0.17490784463920947
-0.513321616955887
-0.631911629119413
0.17490784463920947
-0.513321616955887
-0.631911629119413
0.17490784463920947
-0.513321616955887
-0.6325548497222364
0.17466720026830565
-0.5136140565312078
-0.6325548497222364
0.17466720026830565
-0.5136140565312078
-0.6325548497222364
0.17466720026830565
-0.5136140565312078
-0.6325548497222364
0.17466720026830565
-0.5136140565312078
-0.6320387755619365
0.1744190187840883
-0.5139845078221759
-0.6320387755619365
0.1744190187840883
-0.5139845078221759
-0.6320387755619365
0.1744190187840883
-0.5139845078221759
-0.6320387755619365
0.1744190187840883
-0.5139845078221759
-0.631218056077634
0.17419679712878589
-0.514401257172951
-0.631218056077634
0.17419679712878589
-0.514401257172951
-0.631218056077634
0.17419679712878589
-0.514401257172951
-0.631218056077634
0.17419679712878589
-0.514401257172951
-0.6310794557163063
0.17385135759515893
-0.5148055280926253
-0.6310794557163063
0.17385135759515893
-0.5148055280926253
-0.6310794557163063
0.17385135759515893
-0.5148055280926253
-0.6310794557163063
0.17385135759515893
-0.5148055280926253
-0.6318018290354139
0.17346678793103673
-0.5150580852748154
-0.6318018290354139
0.17346678793103673
-0.5150580852748154
-0.6318018290354139
0.17346678793103673
-0.5150580852748154
-0.6318018290354139
0.17346678793103673
-0.5150580852748154
-0.6335772635690609
0.17293207014362091
-0.5154498240309561
-0.6335772635690609
0.17293207014362091
-0.5154498240309561
-0.6335772635690609
0.17293207014362091
-0.5154498240309561
-0.6335772635690609
0.17293207014362091
-0.5154498240309561
-0.6336634185399976
0.17248167993487323
-0.5159663389613851
-0.6336634185399976
0.17248167993487323
-0.5159663389613851
-0.6336634185399976
0.17248167993487323
-0.5159663389613851
-0.6336634185399976
0.17248167993487323
-0.5159663389613851
-0.6331200871059184
0.17182927565650688
-0.5162973704292116
-0.6331200871059184
0.17182927565650688
-0.5162973704292116
-0.6331200871059184
0.17182927565650688
-0.5162973704292116
-0.6331200871059184
0.17182927565650688
-0.5162973704292116
-0.6328747594470981
0.17130084035663704
-0.5164762643151601
-0.6328747594470981
0.17130084035663704
-0.5164762643151601
-0.6328747594470981
0.17130084035663704
-0.5164762643151601
-0.6328747594470981
0.17130084035663704
-0.5164762643151601
-0.6323715420094993
0.17073977995602713
-0.5160594576996494
-0.6323715420094993
0.17073977995602713
-0.5160594576996494
-0.6323715420094993
0.17073977995602713
-0.5160594576996494
-0.6323715420094993
0.17073977995602713
-0.5160594576996494
-0.6329481386284962
0.17036771384641203
-0.5154895196837687
-0.6329481386284962
0.17036771384641203
-0.5154895196837687
-0.6329481386284962
0.17036771384641203
-0.5154895196837687
-0.6329481386284962
0.17036771384641203
-0.5154895196837687
-0.6334384661768342
0.17035468197333725
-0.5151844253611269
-0.6334384661768342
0.17035468197333725
-0.5151844253611269
-0.6334384661768342
0.17035468197333725
-0.5151844253611269
-0.6334384661768342
0.17035468197333725
-0.5151844253611269
-0.6331271326146247
0.17067439444832236
-0.5152310935688467
-0.6331271326146247
0.17067439444832236
-0.5152310935688467
-0.6331271326146247
0.17067439444832236
-0.5152310935688467
-0.6331271326146247
0.17067439444832236
-0.5152310935688467
-0.6324315528949807
0.17130726944866714
-0.5154698476519605
-0.6324315528949807
0.17130726944866714
-0.5154698476519605
-0.6324315528949807
0.17130726944866714
-0.5154698476519605
-0.6324315528949807
0.17130726944866714
-0.5154698476519605
-0.6305042143496743
0.17182298155681142
-0.5157151698060223
-0.6305042143496743
0.17182298155681142
-0.5157151698060223
-0.6305042143496743
0.17182298155681142
-0.5157151698060223
-0.6305042143496743
0.17182298155681142
-0.5157151698060223
-0.6272654877448426
0.17216004990341385
-0.5171256218456534
-0.6272654877448426
0.17216004990341385
-0.5171256218456534
-0.6272654877448426
0.17216004990341385
-0.5171256218456534
-0.6272654877448426
0.17216004990341385
-0.5171256218456534
-0.6232849123925314
0.17261278809381533
-0.5170044907013426
-0.6232849123925314
0.17261278809381533
-0.5170044907013426
-0.6232849123925314
0.17261278809381533
-0.5170044907013426
-0.6232849123925314
0.17261278809381533
-0.5170044907013426
-0.6180846721506534
0.1737667954613265
-0.5163723267343432
-0.6180846721506534
0.1737667954613265
-0.5163723267343432
-0.6180846721506534
0.1737667954613265
-0.5163723267343432
-0.6180846721506534
0.1737667954613265
-0.5163723267343432
-0.6178845132265705
0.17342383955584356
-0.5141226553045379
-0.6178845132265705
0.17342383955584356
-0.5141226553045379
-0.6178845132265705
0.17342383955584356
-0.5141226553045379
-0.6178845132265705
0.17342383955584356
-0.5141226553045379
-0.6210352892220616
0.17147475152191938
-0.5118782679476234
-0.6210352892220616
0.17147475152191938
-0.5118782679476234
-0.6210352892220616
0.17147475152191938
-0.5118782679476234
-0.6210352892220616
0.17147475152191938
-0.5118782679476234
-0.6168485648936725
0.16786092182109855
-0.5088852074737222
-0.6168485648936725
0.16786092182109855
-0.5088852074737222
-0.6168485648936725
0.16786092182109855
-0.5088852074737222
-0.6168485648936725
0.16786092182109855
-0.5088852074737222
-0.6091786023040819
0.16180119043478847
-0.5029764195359484
-0.6091786023040819
0.16180119043478847
-0.5029764195359484
-0.6091786023040819
0.16180119043478847
-0.5029764195359484
-0.6091786023040819
0.16180119043478847
-0.5029764195359484
-0.6026019669444557
0.15420110620293148
-0.49639642350205815
-0.6026019669444557
0.15420110620293148
-0.49639642350205815
-0.6026019669444557
0.15420110620293148
-0.49639642350205815
-0.6026019669444557
0.15420110620293148
-0.49639642350205815
-0.5909798027723554
0.14782025845369873
-0.49189964323844126
-0.5909798027723554
0.14782025845369873
-0.49189964323844126
-0.5909798027723554
0.14782025845369873
-0.49189964323844126
-0.5909798027723554
0.14782025845369873
-0.49189964323844126
-0.5750896871603608
0.14242513389287415
-0.48732946557215395
-0.5750896871603608
0.14242513389287415
-0.48732946557215395
-0.5750896871603608
0.14242513389287415
-0.48732946557215395
-0.5750896871603608
0.14242513389287415
-0.48732946557215395
-0.5592208511753357
0.13735387042506514
-0.48249407791243865
-0.5592208511753357
0.13735387042506514
-0.48249407791243865
-0.5592208511753357
0.13735387042506514
-0.48249407791243865
-0.5592208511753357
0.13735387042506514
-0.48249407791243865
-0.5465873037028536
0.13206810049809348
-0.478527016165468
-0.5465873037028536
0.13206810049809348
-0.478527016165468
-0.5465873037028536
0.13206810049809348
-0.478527016165468
-0.5465873037028536
0.13206810049809348
-0.478527016165468
-0.540881662516624
0.1271377097035881
-0.476703044529764
-0.540881662516624
0.1271377097035881
-0.476703044529764
-0.540881662516624
0.1271377097035881
-0.476703044529764
-0.540881662516624
0.1271377097035881
-0.476703044529764
-0.5420782161123748
0.12379111638974054
-0.4744616758811178
-0.5420782161123748
0.12379111638974054
-0.4744616758811178
-0.5420782161123748
0.12379111638974054
-0.4744616758811178
-0.5420782161123748
0.12379111638974054
-0.4744616758811178
-0.5478222505206453
0.1202689347866506
-0.47052035394464287
-0.5478222505206453
0.1202689347866506
-0.47052035394464287
-0.5478222505206453
0.1202689347866506
-0.47052035394464287
-0.5478222505206453
0.1202689347866506
-0.47052035394464287
-0.5519576938382199
0.11671771967647918
-0.4671334750605552
-0.5519576938382199
0.11671771967647918
-0.4671334750605552
-0.5519576938382199
0.11671771967647918
-0.4671334750605552
-0.5519576938382199
0.11671771967647918
-0.4671334750605552
-0.5510920403017124
0.113099350654103
-0.46427570005656027
-0.5510920403017124
0.113099350654103
-0.46427570005656027
-0.5510920403017124
0.113099350654103
-0.46427570005656027
-0.5510920403017124
0.113099350654103
-0.46427570005656027
-0.5473027649093463
0.10833136935387669
-0.461232093192923
-0.5473027649093463
0.10833136935387669
-0.461232093192923
-0.5473027649093463
0.10833136935387669
-0.461232093192923
-0.5473027649093463
0.10833136935387669
-0.461232093192923
-0.5428064805560596
0.10371139284801971
-0.459231062747885
-0.5428064805560596
0.10371139284801971
-0.459231062747885
-0.5428064805560596
0.10371139284801971
-0.459231062747885
-0.5428064805560596
0.10371139284801971
-0.459231062747885
-0.5395340834355179
0.09888525428474117
-0.4579894633477394
-0.5395340834355179
0.09888525428474117
-0.4579894633477394
-0.5395340834355179
0.09888525428474117
-0.4579894633477394
-0.5395340834355179
0.09888525428474117
-0.4579894633477394
-0.5395391022964382
0.09478876358321572
-0.45667652240353396
-0.5395391022964382
0.09478876358321572
-0.45667652240353396
-0.5395391022964382
0.09478876358321572
-0.45667652240353396
-0.5395391022964382
0.09478876358321572
-0.45667652240353396
-0.541678906229138
0.09135217139447095
-0.4541222981203679
-0.541678906229138
0.09135217139447095
-0.4541222981203679
-0.541678906229138
0.09135217139447095
-0.4541222981203679
-0.541678906229138
0.09135217139447095
-0.4541222981203679
-0.54394772432447
0.08890823995719975
-0.45067348579945926
-0.54394772432447
0.08890823995719975
-0.45067348579945926
-0.54394772432447
0.08890823995719975
-0.45067348579945926
-0.54394772432447
0.08890823995719975
-0.45067348579945926
-0.5461777765045449
0.08712909274783746
-0.4487225978412379
-0.5461777765045449
0.08712909274783746
-0.4487225978412379
-0.5461777765045449
0.08712909274783746
-0.4487225978412379
-0.5461777765045449
0.08712909274783746
-0.4487225978412379
-0.5477996007368929
0.08566042409676707
-0.4489886446565714
-0.5477996007368929
0.08566042409676707
-0.4489886446565714
-0.5477996007368929
0.08566042409676707
-0.4489886446565714
-0.5477996007368929
0.08566042409676707
-0.4489886446565714
-0.5484492320143725
0.08466493068246601
-0.4501831171488372
-0.5484492320143725
0.08466493068246601
-0.4501831171488372
-0.5484492320143725
0.08466493068246601
-0.4501831171488372
-0.5484492320143725
0.08466493068246601
-0.4501831171488372
-0.5498365542040999
0.08480214916791735
-0.45051680038219105
-0.5498365542040999
0.08480214916791735
-0.45051680038219105
-0.5498365542040999
0.08480214916791735
-0.45051680038219105
-0.5498365542040999
0.08480214916791735
-0.45051680038219105
-0.5483163778597695
0.08489480742034251
-0.4494706919227374
-0.5483163778597695
0.08489480742034251
-0.4494706919227374
-0.5483163778597695
0.08489480742034251
-0.4494706919227374
-0.5483163778597695
0.08489480742034251
-0.4494706919227374
-0.5469382784034902
0.08507258432046833
-0.4484553253046945
-0.5469382784034902
0.08507258432046833
-0.4484553253046945
-0.5469382784034902
0.08507258432046833
-0.4484553253046945
-0.5469382784034902
0.08507258432046833
-0.4484553253046945
-0.5474312177939149
0.0860615693247716
-0.4482866135319613
-0.5474312177939149
0.0860615693247716
-0.4482866135319613
-0.5474312177939149
0.0860615693247716
-0.4482866135319613
-0.5474312177939149
0.0860615693247716
-0.4482866135319613
-0.5479961928449995
0.08704347549786884
-0.44901495074888953
-0.5479961928449995
0.08704347549786884
-0.44901495074888953
-0.5479961928449995
0.08704347549786884
-0.44901495074888953
-0.5479961928449995
0.08704347549786884
-0.44901495074888953
-0.5482099063188695
0.08852514547547344
-0.4501161938551459
-0.5482099063188695
0.08852514547547344
-0.4501161938551459
-0.5482099063188695
0.08852514547547344
-0.4501161938551459
-0.5482099063188695
0.08852514547547344
-0.4501161938551459
-0.5472124356200686
0.09068724468658956
-0.4506228842230559
-0.5472124356200686
0.09068724468658956
-0.4506228842230559
-0.5472124356200686
0.09068724468658956
-0.4506228842230559
-0.5472124356200686
0.09068724468658956
-0.4506228842230559
-0.5441721930588649
0.09382514987082226
-0.4501719405119474
-0.5441721930588649
0.09382514987082226
-0.4501719405119474
-0.5441721930588649
0.09382514987082226
-0.4501719405119474
-0.5441721930588649
0.09382514987082226
-0.4501719405119474
-0.5411914595937328
0.0966513282603809
-0.448830984654496
-0.5411914595937328
0.0966513282603809
-0.448830984654496
-0.5411914595937328
0.0966513282603809
-0.448830984654496
-0.5411914595937328
0.0966513282603809
-0.448830984654496
-0.5406117680105661
0.09957064189346623
-0.4476717330157471
-0.5406117680105661
0.09957064189346623
-0.4476717330157471
-0.5406117680105661
0.09957064189346623
-0.4476717330157471
-0.5406117680105661
0.09957064189346623
-0.4476717330157471
-0.5404272122920496
0.10235404194930246
-0.44714141135173374
-0.5404272122920496
0.10235404194930246
-0.44714141135173374
-0.5404272122920496
0.10235404194930246
-0.44714141135173374
-0.5404272122920496
0.10235404194930246
-0.44714141135173374
-0.5400106540333943
0.10521471592381294
-0.447539982745223
-0.5400106540333943
0.10521471592381294
-0.447539982745223
-0.5400106540333943
0.10521471592381294
-0.447539982745223
-0.5400106540333943
0.10521471592381294
-0.447539982745223
-0.5402284190317868
0.10798354976217854
-0.44822324907181205
-0.5402284190317868
0.10798354976217854
-0.44822324907181205
-0.5402284190317868
0.10798354976217854
-0.44822324907181205
-0.5402284190317868
0.10798354976217854
-0.44822324907181205
-0.5396968961797652
0.11077314728192392
-0.44896605403045603
-0.5396968961797652
0.11077314728192392
-0.44896605403045603
-0.5396968961797652
0.11077314728192392
-0.44896605403045603
-0.5396968961797652
0.11077314728192392
-0.44896605403045603
-0.5384152226496448
0.11413525951001822
-0.4496695309548438
-0.5384152226496448
0.11413525951001822
-0.4496695309548438
-0.5384152226496448
0.11413525951001822
-0.4496695309548438
-0.5384152226496448
0.11413525951001822
-0.4496695309548438
-0.5378279862527424
0.11769986538519288
-0.4504947955837196
-0.5378279862527424
0.11769986538519288
-0.4504947955837196
-0.5378279862527424
0.11769986538519288
-0.4504947955837196
-0.5378279862527424
0.11769986538519288
-0.4504947955837196
-0.5377899231951822
0.12169316617607502
-0.4507278976685635
-0.5377899231951822
0.12169316617607502
-0.4507278976685635
-0.5377899231951822
0.12169316617607502
-0.4507278976685635
-0.5377899231951822
0.12169316617607502
-0.4507278976685635
-0.5386557863004695
0.1264238491491965
-0.4514291944609122
-0.5386557863004695
0.1264238491491965
-0.4514291944609122
-0.5386557863004695
0.1264238491491965
-0.4514291944609122
-0.5386557863004695
0.1264238491491965
-0.4514291944609122
-0.5395944884264797
0.13233996241233376
-0.45351503527883186
-0.5395944884264797
0.13233996241233376
-0.45351503527883186
-0.5395944884264797
0.13233996241233376
-0.45351503527883186
-0.5395944884264797
0.13233996241233376
-0.45351503527883186
-0.5457422451061349
0.14040195277847015
-0.4572164129019233
-0.5457422451061349
0.14040195277847015
-0.4572164129019233
-0.5457422451061349
0.14040195277847015
-0.4572164129019233
-0.5457422451061349
0.14040195277847015
-0.4572164129019233
-0.5535898556202311
0.15272049122861117
-0.463259705658162
-0.5535898556202311
0.15272049122861117
-0.463259705658162
-0.5535898556202311
0.15272049122861117
-0.463259705658162
-0.5535898556202311
0.15272049122861117
-0.463259705658162
-0.5677024595633116
0.16977951534072516
-0.4697759303970442
-0.5677024595633116
0.16977951534072516
-0.4697759303970442
-0.5677024595633116
0.16977951534072516
-0.4697759303970442
-0.5677024595633116
0.16977951534072516
-0.4697759303970442
-0.5857138735027089
0.18938091288456962
-0.4753504801051934
-0.5857138735027089
0.18938091288456962
-0.4753504801051934
-0.5857138735027089
0.18938091288456962
-0.4753504801051934
-0.5857138735027089
0.18938091288456962
-0.4753504801051934
-0.6022005265797383
0.2061337284446321
-0.47699520469413914
-0.6022005265797383
0.2061337284446321
-0.47699520469413914
-0.6022005265797383
0.2061337284446321
-0.47699520469413914
-0.6022005265797383
0.2061337284446321
-0.47699520469413914
-0.6188860769963656
0.21452429047184068
-0.4795563578520431
-0.6188860769963656
0.21452429047184068
-0.4795563578520431
-0.6188860769963656
0.21452429047184068
-0.4795563578520431
-0.6188860769963656
0.21452429047184068
-0.4795563578520431
-0.6310923546535603
0.21181774273781417
-0.48482498093581866
-0.6310923546535603
0.21181774273781417
-0.48482498093581866
-0.6310923546535603
0.21181774273781417
-0.48482498093581866
-0.6310923546535603
0.21181774273781417
-0.48482498093581866
-0.641434859391816
0.20207833088861923
-0.4883268383385738
-0.641434859391816
0.20207833088861923
-0.4883268383385738
-0.641434859391816
0.20207833088861923
-0.4883268383385738
-0.641434859391816
0.20207833088861923
-0.4883268383385738
-0.6428841323056884
0.1943637240278357
-0.481891802134574
-0.6428841323056884
0.1943637240278357
-0.481891802134574
-0.6428841323056884
0.1943637240278357
-0.481891802134574
-0.6428841323056884
0.1943637240278357
-0.481891802134574
-0.6297529842349643
0.19209009151468476
-0.4731035608429667
-0.6297529842349643
0.19209009151468476
-0.4731035608429667
-0.6297529842349643
0.19209009151468476
-0.4731035608429667
-0.6297529842349643
0.19209009151468476
-0.4731035608429667
-0.6140197415572519
0.19036012353237491
-0.4753286587071473
-0.6140197415572519
0.19036012353237491
-0.4753286587071473
-0.6140197415572519
0.19036012353237491
-0.4753286587071473
-0.6140197415572519
0.19036012353237491
-0.4753286587071473
-0.6041979690349455
0.1849101942526763
-0.48025615548892076
-0.6041979690349455
0.1849101942526763
-0.48025615548892076
-0.6041979690349455
0.1849101942526763
-0.48025615548892076
-0.6041979690349455
0.1849101942526763
-0.48025615548892076
-0.598656780466314
0.1791133317412035
-0.4824131562892453
-0.598656780466314
0.1791133317412035
-0.4824131562892453
-0.598656780466314
0.1791133317412035
-0.4824131562892453
-0.598656780466314
0.1791133317412035
-0.4824131562892453
-0.6012345698187358
0.1769038705166301
-0.485785365402149
-0.6012345698187358
0.1769038705166301
-0.485785365402149
-0.6012345698187358
0.1769038705166301
-0.485785365402149
-0.6012345698187358
0.1769038705166301
-0.485785365402149
-0.6132251441065554
0.17589789086027718
-0.48780448085599937
-0.6132251441065554
0.17589789086027718
-0.48780448085599937
-0.6132251441065554
0.17589789086027718
-0.48780448085599937
-0.6132251441065554
0.17589789086027718
-0.48780448085599937
-0.6282134424448009
0.17317068667214555
-0.48976743267516754
-0.6282134424448009
0.17317068667214555
-0.48976743267516754
-0.6282134424448009
0.17317068667214555
-0.48976743267516754
-0.6282134424448009
0.17317068667214555
-0.48976743267516754
-0.6336739366389067
0.171392602046496
-0.49206387860137096
-0.6336739366389067
0.171392602046496
-0.49206387860137096
-0.6336739366389067
0.171392602046496
-0.49206387860137096
-0.6336739366389067
0.171392602046496
-0.49206387860137096
-0.6302161886583892
0.17138104829224052
-0.4937025508572219
-0.6302161886583892
0.17138104829224052
-0.4937025508572219
-0.6302161886583892
0.17138104829224052
-0.4937025508572219
-0.6302161886583892
0.17138104829224052
-0.4937025508572219
-0.6245246537331655
0.17213273268489587
-0.49460709884227577
-0.6245246537331655
0.17213273268489587
-0.49460709884227577
-0.6245246537331655
0.17213273268489587
-0.49460709884227577
-0.6245246537331655
0.17213273268489587
-0.49460709884227577
-0.6228090046693008
0.17274440299157937
-0.4951859005482863
-0.6228090046693008
0.17274440299157937
-0.4951859005482863
-0.6228090046693008
0.17274440299157937
-0.4951859005482863
-0.6228090046693008
0.17274440299157937
-0.4951859005482863
-0.6247070006053856
0.17301743211035592
-0.4950657044463612
-0.6247070006053856
0.17301743211035592
-0.4950657044463612
-0.6247070006053856
0.17301743211035592
-0.4950657044463612
-0.6247070006053856
0.17301743211035592
-0.4950657044463612
-0.6282444737732407
0.17355469604051263
-0.49467322342724607
-0.6282444737732407
0.17355469604051263
-0.49467322342724607
-0.6282444737732407
0.17355469604051263
-0.49467322342724607
-0.6282444737732407
0.17355469604051263
-0.49467322342724607
-0.6293404549640647
0.17505275028944778
-0.49416586573676247
-0.6293404549640647
0.17505275028944778
-0.49416586573676247
-0.6293404549640647
0.17505275028944778
-0.49416586573676247
-0.6293404549640647
0.17505275028944778
-0.49416586573676247
-0.6279380671106056
0.17716497427267786
-0.49400810069134427
-0.6279380671106056
0.17716497427267786
-0.49400810069134427
-0.6279380671106056
0.17716497427267786
-0.49400810069134427
-0.6279380671106056
0.17716497427267786
-0.49400810069134427
-0.6268335393383834
0.17928735921615135
-0.4940338428546046
-0.6268335393383834
0.17928735921615135
-0.4940338428546046
-0.6268335393383834
0.17928735921615135
-0.4940338428546046
-0.6268335393383834
0.17928735921615135
-0.4940338428546046
-0.625312815718085
0.1806211596346614
-0.4938287686483795
-0.625312815718085
0.1806211596346614
-0.4938287686483795
-0.625312815718085
0.1806211596346614
-0.4938287686483795
-0.625312815718085
0.1806211596346614
-0.4938287686483795
-0.6236952324269603
0.18162049301030359
-0.49350339826016426
-0.6236952324269603
0.18162049301030359
-0.49350339826016426
-0.6236952324269603
0.18162049301030359
-0.49350339826016426
-0.6236952324269603
0.18162049301030359
-0.49350339826016426
-0.6239762459777676
0.18203551118715242
-0.493694241313387
-0.6239762459777676
0.18203551118715242
-0.493694241313387
-0.6239762459777676
0.18203551118715242
-0.493694241313387
-0.6239762459777676
0.18203551118715242
-0.493694241313387
-0.6257032815339065
0.1819245439242525
-0.4940688534910928
-0.6257032815339065
0.1819245439242525
-0.4940688534910928
-0.6257032815339065
0.1819245439242525
-0.4940688534910928
-0.6257032815339065
0.1819245439242525
-0.4940688534910928
-0.6270263952139707
0.18168520392402882
-0.49436087568725556
-0.6270263952139707
0.18168520392402882
-0.49436087568725556
-0.6270263952139707
0.18168520392402882
-0.49436087568725556
-0.6270263952139707
0.18168520392402882
-0.49436087568725556
-0.6287284709836054
0.1821546304506202
-0.49507660057299796
-0.6287284709836054
0.1821546304506202
-0.49507660057299796
-0.6287284709836054
0.1821546304506202
-0.49507660057299796
-0.6287284709836054
0.1821546304506202
-0.49507660057299796
-0.6283604088465253
0.1828243577811539
-0.49576187632225044
-0.6283604088465253
0.1828243577811539
-0.49576187632225044
-0.6283604088465253
0.1828243577811539
-0.49576187632225044
-0.6283604088465253
0.1828243577811539
-0.49576187632225044
-0.62719559751885
0.18380516973776154
-0.4956571431114885
-0.62719559751885
0.18380516973776154
-0.4956571431114885
-0.62719559751885
0.18380516973776154
-0.4956571431114885
-0.62719559751885
0.18380516973776154
-0.4956571431114885
-0.6274008552478905
0.18426311962489625
-0.4953246009062659
-0.6274008552478905
0.18426311962489625
-0.4953246009062659
-0.6274008552478905
0.18426311962489625
-0.4953246009062659
-0.6274008552478905
0.18426311962489625
-0.4953246009062659
-0.6290020608216843
0.18448722767343534
-0.49514168249868146
-0.6290020608216843
0.18448722767343534
-0.49514168249868146
-0.6290020608216843
0.18448722767343534
-0.49514168249868146
-0.6290020608216843
0.18448722767343534
-0.49514168249868146
-0.6297171132257023
0.1844155237712689
-0.49484153234939626
-0.6297171132257023
0.1844155237712689
-0.49484153234939626
-0.6297171132257023
0.1844155237712689
-0.49484153234939626
-0.6297171132257023
0.1844155237712689
-0.49484153234939626
-0.6296926503806163
0.18408819994114067
-0.4945779954972799
-0.6296926503806163
0.18408819994114067
-0.4945779954972799
-0.6296926503806163
0.18408819994114067
-0.4945779954972799
-0.6296926503806163
0.18408819994114067
-0.4945779954972799
-0.6289729090749829
0.18431609390860865
-0.4944256759782726
-0.6289729090749829
0.18431609390860865
-0.4944256759782726
-0.6289729090749829
0.18431609390860865
-0.4944256759782726
-0.6289729090749829
0.18431609390860865
-0.4944256759782726
-0.6279996421838875
0.18423363088337819
-0.49446767267098546
-0.6279996421838875
0.18423363088337819
-0.49446767267098546
-0.6279996421838875
0.18423363088337819
-0.49446767267098546
-0.6279996421838875
0.18423363088337819
-0.49446767267098546
-0.6270747465711366
0.1840033363590179
-0.4946476944462104
-0.6270747465711366
0.1840033363590179
-0.4946476944462104
-0.6270747465711366
0.1840033363590179
-0.4946476944462104
-0.6270747465711366
0.1840033363590179
-0.4946476944462104
-0.6278810038586161
0.18440358407873997
-0.4949163635819071
-0.6278810038586161
0.18440358407873997
-0.4949163635819071
-0.6278810038586161
0.18440358407873997
-0.4949163635819071
-0.6278810038586161
0.18440358407873997
-0.4949163635819071
-0.6297317461156925
0.18493114246155207
-0.49488640636391223
-0.6297317461156925
0.18493114246155207
-0.49488640636391223
-0.6297317461156925
0.18493114246155207
-0.49488640636391223
-0.6297317461156925
0.18493114246155207
-0.49488640636391223
-0.6316435315996105
0.1849377982223496
-0.49522350238271884
-0.6316435315996105
0.1849377982223496
-0.49522350238271884
-0.6316435315996105
0.1849377982223496
-0.49522350238271884
-0.6316435315996105
0.1849377982223496
-0.49522350238271884
-0.6317566155277732
0.18490608689503912
-0.49522465481823275
-0.6317566155277732
0.18490608689503912
-0.49522465481823275
-0.6317566155277732
0.18490608689503912
-0.49522465481823275
-0.6317566155277732
0.18490608689503912
-0.49522465481823275
-0.6309015257131964
0.18476054502256425
-0.49503355079496225
-0.6309015257131964
0.18476054502256425
-0.49503355079496225
-0.6309015257131964
0.18476054502256425
-0.49503355079496225
-0.6309015257131964
0.18476054502256425
-0.49503355079496225
-0.6300775145491051
0.18476517515447388
-0.49476926241322794
-0.6300775145491051
0.18476517515447388
-0.49476926241322794
-0.6300775145491051
0.18476517515447388
-0.49476926241322794
-0.6300775145491051
0.18476517515447388
-0.49476926241322794
-0.6300775145491051
0.18476517515447388
-0.49476926241322794
-0.6300775145491051
0.18476517515447388
-0.49476926241322794
-0.6300775145491051
0.18476517515447388
-0.49476926241322794
-0.6300775145491051
0.18476517515447388
-0.49476926241322794
-0.630066332549837
0.184132153036125
-0.4950636514253774
-0.630066332549837
0.184132153036125
-0.4950636514253774
-0.630066332549837
0.184132153036125
-0.4950636514253774
-0.630066332549837
0.184132153036125
-0.4950636514253774
-0.6299254916402446
0.18389615608253032
-0.495475152884588
-0.6299254916402446
0.18389615608253032
-0.495475152884588
-0.6299254916402446
0.18389615608253032
-0.495475152884588
-0.6299254916402446
0.18389615608253032
-0.495475152884588
-0.6302345955157695
0.18371751459014787
-0.4958811735356617
-0.6302345955157695
0.18371751459014787
-0.4958811735356617
-0.6302345955157695
0.18371751459014787
-0.4958811735356617
-0.6302345955157695
0.18371751459014787
-0.4958811735356617
-0.6308828653365145
0.18344349430023787
-0.4962903524270577
-0.6308828653365145
0.18344349430023787
-0.4962903524270577
-0.6308828653365145
0.18344349430023787
-0.4962903524270577
-0.6308828653365145
0.18344349430023787
-0.4962903524270577
-0.6319715020225409
0.1834148974755448
-0.4964753464295871
-0.6319715020225409
0.1834148974755448
-0.4964753464295871
-0.6319715020225409
0.1834148974755448
-0.4964753464295871
-0.6319715020225409
0.1834148974755448
-0.4964753464295871
-0.6331776019962068
0.18325651282527652
-0.4960980383292571
-0.6331776019962068
0.18325651282527652
-0.4960980383292571
-0.6331776019962068
0.18325651282527652
-0.4960980383292571
-0.6331776019962068
0.18325651282527652
-0.4960980383292571
-0.6326899839580744
0.18328448186607552
-0.495498411983417
-0.6326899839580744
0.18328448186607552
-0.495498411983417
-0.6326899839580744
0.18328448186607552
-0.495498411983417
-0.6326899839580744
0.18328448186607552
-0.495498411983417
-0.63125233782186
0.18359619895001505
-0.4950917851532603
-0.63125233782186
0.18359619895001505
-0.4950917851532603
-0.63125233782186
0.18359619895001505
-0.4950917851532603
-0.63125233782186
0.18359619895001505
-0.4950917851532603
-0.629996149755954
0.18313895706838418
-0.49482844104040097
-0.629996149755954
0.18313895706838418
-0.49482844104040097
-0.629996149755954
0.18313895706838418
-0.49482844104040097
-0.629996149755954
0.18313895706838418
-0.49482844104040097
-0.6298830454428821
0.1831706149987891
-0.4948273541858761
-0.6298830454428821
0.1831706149987891
-0.4948273541858761
-0.6298830454428821
0.1831706149987891
-0.4948273541858761
-0.6298830454428821
0.1831706149987891
-0.4948273541858761
-0.6310825681569403
0.18318956885717252
-0.49478708672004534
-0.6310825681569403
0.18318956885717252
-0.49478708672004534
-0.6310825681569403
0.18318956885717252
-0.49478708672004534
-0.6310825681569403
0.18318956885717252
-0.49478708672004534
-0.6317734943869326
0.183699360688799
-0.4948289845825249
-0.6317734943869326
0.183699360688799
-0.4948289845825249
-0.6317734943869326
0.183699360688799
-0.4948289845825249
-0.6317734943869326
0.183699360688799
-0.4948289845825249
-0.6322815068144185
0.18405006901609325
-0.4950241213829063
-0.6322815068144185
0.18405006901609325
-0.4950241213829063
-0.6322815068144185
0.18405006901609325
-0.4950241213829063
-0.6322815068144185
0.18405006901609325
-0.4950241213829063
-0.6322815068144185
0.18405006901609325
-0.4950241213829063
-0.6322815068144185
0.18405006901609325
-0.4950241213829063
-0.6322815068144185
0.18405006901609325
-0.4950241213829063
-0.6322815068144185
0.18405006901609325
-0.4950241213829063
-0.6317259478757785
0.18391416489761897
-0.4950207553987127
-0.6317259478757785
0.18391416489761897
-0.4950207553987127
-0.6317259478757785
0.18391416489761897
-0.4950207553987127
-0.6317259478757785
0.18391416489761897
-0.4950207553987127
-0.630576086513732
0.18360210167517588
-0.4950951291661999
-0.630576086513732
0.18360210167517588
-0.4950951291661999
-0.630576086513732
0.18360210167517588
-0.4950951291661999
-0.630576086513732
0.18360210167517588
-0.4950951291661999
-0.6307951833957678
0.1829130028440903
-0.4950445563598202
-0.6307951833957678
0.1829130028440903
-0.4950445563598202
-0.6307951833957678
0.1829130028440903
-0.4950445563598202
-0.6307951833957678
0.1829130028440903
-0.4950445563598202
-0.6318271133314317
0.18244688818296395
-0.49492549371120165
-0.6318271133314317
0.18244688818296395
-0.49492549371120165
-0.6318271133314317
0.18244688818296395
-0.49492549371120165
-0.6318271133314317
0.18244688818296395
-0.49492549371120165
-0.6327771447752484
0.18216297152321279
-0.49473185232510564
-0.6327771447752484
0.18216297152321279
-0.49473185232510564
-0.6327771447752484
0.18216297152321279
-0.49473185232510564
-0.6327771447752484
0.18216297152321279
-0.49473185232510564
-0.632922358725938
0.18224250138531267
-0.4947727613376305
-0.632922358725938
0.18224250138531267
-0.4947727613376305
-0.632922358725938
0.18224250138531267
-0.4947727613376305
-0.632922358725938
0.18224250138531267
-0.4947727613376305
-0.6318768063907851
0.18215365852838644
-0.49495982150236645
-0.6318768063907851
0.18215365852838644
-0.49495982150236645
-0.6318768063907851
0.18215365852838644
-0.49495982150236645
-0.6318768063907851
0.18215365852838644
-0.49495982150236645
-0.6311303906451607
0.18207470585186608
-0.4953340530057258
-0.6311303906451607
0.18207470585186608
-0.4953340530057258
-0.6311303906451607
0.18207470585186608
-0.4953340530057258
-0.6311303906451607
0.18207470585186608
-0.4953340530057258
-0.6310981912027616
0.1819635086312341
-0.4952942321409771
-0.6310981912027616
0.1819635086312341
-0.4952942321409771
-0.6310981912027616
0.1819635086312341
-0.4952942321409771
-0.6310981912027616
0.1819635086312341
-0.4952942321409771
-0.6321640924757865
0.18153004749272653
-0.4954405393077905
-0.6321640924757865
0.18153004749272653
-0.4954405393077905
-0.6321640924757865
0.18153004749272653
-0.4954405393077905
-0.6321640924757865
0.18153004749272653
-0.4954405393077905
-0.6331471192094074
0.18131781897101354
-0.4953993534275571
-0.6331471192094074
0.18131781897101354
-0.4953993534275571
-0.6331471192094074
0.18131781897101354
-0.4953993534275571
-0.6331471192094074
0.18131781897101354
-0.4953993534275571
-0.6329062883190287
0.18086555849559693
-0.49535182140781153
-0.6329062883190287
0.18086555849559693
-0.49535182140781153
-0.6329062883190287
0.18086555849559693
-0.49535182140781153
-0.6329062883190287
0.18086555849559693
-0.49535182140781153
-0.6318209129604933
0.17997364943064437
-0.49511736724982136
-0.6318209129604933
0.17997364943064437
-0.49511736724982136
-0.6318209129604933
0.17997364943064437
-0.49511736724982136
-0.6318209129604933
0.17997364943064437
-0.49511736724982136
-0.6311957440726357
0.1788447159341356
-0.4948796024325719
-0.6311957440726357
0.1788447159341356
-0.4948796024325719
-0.6311957440726357
0.1788447159341356
-0.4948796024325719
-0.6311957440726357
0.1788447159341356
-0.4948796024325719
-0.6309077873453518
0.17773827400048028
-0.4943058036082183
-0.6309077873453518
0.17773827400048028
-0.4943058036082183
-0.6309077873453518
0.17773827400048028
-0.4943058036082183
-0.6309077873453518
0.17773827400048028
-0.4943058036082183
-0.6310212572394222
0.17694306956480157
-0.4938039598112424
-0.6310212572394222
0.17694306956480157
-0.4938039598112424
-0.6310212572394222
0.17694306956480157
-0.4938039598112424
-0.6310212572394222
0.17694306956480157
-0.4938039598112424
-0.6313134659401581
0.17626076200513063
-0.49360823441161183
-0.6313134659401581
0.17626076200513063
-0.49360823441161183
-0.6313134659401581
0.17626076200513063
-0.49360823441161183
-0.6313134659401581
0.17626076200513063
-0.49360823441161183
-0.631236714804108
0.17544434441410617
-0.4937097300869336
-0.631236714804108
0.17544434441410617
-0.4937097300869336
-0.631236714804108
0.17544434441410617
-0.4937097300869336
-0.631236714804108
0.17544434441410617
-0.4937097300869336
-0.6304344229985517
0.17492677413488147
-0.49378337130662736
-0.6304344229985517
0.17492677413488147
-0.49378337130662736
-0.6304344229985517
0.17492677413488147
-0.49378337130662736
-0.6304344229985517
0.17492677413488147
-0.49378337130662736
-0.6296769882425278
0.17511427551846728
-0.49371564505382726
-0.6296769882425278
0.17511427551846728
-0.49371564505382726
-0.6296769882425278
0.17511427551846728
-0.49371564505382726
-0.6296769882425278
0.17511427551846728
-0.49371564505382726
-0.6295958962867334
0.17525704952076762
-0.49375458939797234
-0.6295958962867334
0.17525704952076762
-0.49375458939797234
-0.6295958962867334
0.17525704952076762
-0.49375458939797234
-0.6295958962867334
0.17525704952076762
-0.49375458939797234
-0.6290897671005939
0.17656886488806056
-0.49332486749420107
-0.6290897671005939
0.17656886488806056
-0.49332486749420107
-0.6290897671005939
0.17656886488806056
-0.49332486749420107
-0.6290897671005939
0.17656886488806056
-0.49332486749420107
-0.6282108139489669
0.1779024340570682
-0.4927391406372451
-0.6282108139489669
0.1779024340570682
-0.4927391406372451
-0.6282108139489669
0.1779024340570682
-0.4927391406372451
-0.6282108139489669
0.1779024340570682
-0.4927391406372451
-0.6262348565630707
0.17851268030223164
-0.4926046501265531
-0.6262348565630707
0.17851268030223164
-0.4926046501265531
-0.6262348565630707
0.17851268030223164
-0.4926046501265531
-0.6262348565630707
0.17851268030223164
-0.4926046501265531
-0.6246800000308431
0.17891390502476673
-0.4928754294536523
-0.6246800000308431
0.17891390502476673
-0.4928754294536523
-0.6246800000308431
0.17891390502476673
-0.4928754294536523
-0.6246800000308431
0.17891390502476673
-0.4928754294536523
-0.6236207602879208
0.17993288276805022
-0.49289243031637037
-0.6236207602879208
0.17993288276805022
-0.49289243031637037
-0.6236207602879208
0.17993288276805022
-0.49289243031637037
-0.6236207602879208
0.17993288276805022
-0.49289243031637037
-0.6227860855728148
0.1818534094359893
-0.4924967684165084
-0.6227860855728148
0.1818534094359893
-0.4924967684165084
-0.6227860855728148
0.1818534094359893
-0.4924967684165084
-0.6227860855728148
0.1818534094359893
-0.4924967684165084
-0.6207097175902886
0.18384378898250298
-0.49097802332733964
-0.6207097175902886
0.18384378898250298
-0.49097802332733964
-0.6207097175902886
0.18384378898250298
-0.49097802332733964
-0.6207097175902886
0.18384378898250298
-0.49097802332733964
-0.6135426439019316
0.18636687694123028
-0.4887749676752011
-0.6135426439019316
0.18636687694123028
-0.4887749676752011
-0.6135426439019316
0.18636687694123028
-0.4887749676752011
-0.6135426439019316
0.18636687694123028
-0.4887749676752011
-0.6128005373055235
0.1868355088864438
-0.483676195602741
-0.6128005373055235
0.1868355088864438
-0.483676195602741
-0.6128005373055235
0.1868355088864438
-0.483676195602741
-0.6128005373055235
0.1868355088864438
-0.483676195602741
-0.6136629764079125
0.1852742829529401
-0.47658673767606424
-0.6136629764079125
0.1852742829529401
-0.47658673767606424
-0.6136629764079125
0.1852742829529401
-0.47658673767606424
-0.6136629764079125
0.1852742829529401
-0.47658673767606424
-0.6097440045587115
0.18228511511814915
-0.4705859841704906
-0.6097440045587115
0.18228511511814915
-0.4705859841704906
-0.6097440045587115
0.18228511511814915
-0.4705859841704906
-0.6097440045587115
0.18228511511814915
-0.4705859841704906
-0.6024831697413068
0.17780346141307657
-0.466217985129212
-0.6024831697413068
0.17780346141307657
-0.466217985129212
-0.6024831697413068
0.17780346141307657
-0.466217985129212
-0.6024831697413068
0.17780346141307657
-0.466217985129212
-0.5944744049730687
0.1725822638148259
-0.46073794991233297
-0.5944744049730687
0.1725822638148259
-0.46073794991233297
-0.5944744049730687
0.1725822638148259
-0.46073794991233297
-0.5944744049730687
0.1725822638148259
-0.46073794991233297
-0.5821354454428024
0.1671050283125483
-0.45511204167732555
-0.5821354454428024
0.1671050283125483
-0.45511204167732555
-0.5821354454428024
0.1671050283125483
-0.45511204167732555
-0.5821354454428024
0.1671050283125483
-0.45511204167732555
-0.5670237113936294
0.1623143765777781
-0.448481155360282
-0.5670237113936294
0.1623143765777781
-0.448481155360282
-0.5670237113936294
0.1623143765777781
-0.448481155360282
-0.5670237113936294
0.1623143765777781
-0.448481155360282
-0.5504365882795625
0.15806825059072752
-0.4427061192383723
-0.5504365882795625
0.15806825059072752
-0.4427061192383723
-0.5504365882795625
0.15806825059072752
-0.4427061192383723
-0.5504365882795625
0.15806825059072752
-0.4427061192383723
-0.5432181858889509
0.1540786611919477
-0.43962324811117237
-0.5432181858889509
0.1540786611919477
-0.43962324811117237
-0.5404654851760802
0.1492266644585924
-0.43677200112486325
-0.5404654851760802
0.1492266644585924
-0.43677200112486325
-0.5404654851760802
0.1492266644585924
-0.43677200112486325
-0.5404654851760802
0.1492266644585924
-0.43677200112486325
-0.5401248956312792
0.14460592520821736
-0.43473683211224684
-0.5401248956312792
0.14460592520821736
-0.43473683211224684
-0.5401248956312792
0.14460592520821736
-0.43473683211224684
-0.5401248956312792
0.14460592520821736
-0.43473683211224684
-0.5380043613064446
0.13975542986247025
-0.43342730427736714
-0.5380043613064446
0.13975542986247025
-0.43342730427736714
-0.5380043613064446
0.13975542986247025
-0.43342730427736714
-0.5380043613064446
0.13975542986247025
-0.43342730427736714
-0.5350867751920606
0.13571687125520604
-0.43319040382541446
-0.5350867751920606
0.13571687125520604
-0.43319040382541446
-0.5350867751920606
0.13571687125520604
-0.43319040382541446
-0.5350867751920606
0.13571687125520604
-0.43319040382541446
-0.5334188037912607
0.13152001405351296
-0.4330606681461789
-0.5334188037912607
0.13152001405351296
-0.4330606681461789
-0.5334188037912607
0.13152001405351296
-0.4330606681461789
-0.5334188037912607
0.13152001405351296
-0.4330606681461789
-0.531457455215641
0.1271548279840082
-0.43182780061345966
-0.531457455215641
0.1271548279840082
-0.43182780061345966
-0.531457455215641
0.1271548279840082
-0.43182780061345966
-0.531457455215641
0.1271548279840082
-0.43182780061345966
-0.5311000234886448
0.122262594256742
-0.4298710699853185
-0.5311000234886448
0.122262594256742
-0.4298710699853185
-0.5311000234886448
0.122262594256742
-0.4298710699853185
-0.5311000234886448
0.122262594256742
-0.4298710699853185
-0.5317392658345952
0.11742725454927118
-0.4284427547911957
-0.5317392658345952
0.11742725454927118
-0.4284427547911957
-0.5317392658345952
0.11742725454927118
-0.4284427547911957
-0.5317392658345952
0.11742725454927118
-0.4284427547911957
-0.5345279759559658
0.11270388993873619
-0.4274213991306824
-0.5345279759559658
0.11270388993873619
-0.4274213991306824
-0.5345279759559658
0.11270388993873619
-0.4274213991306824
-0.5345279759559658
0.11270388993873619
-0.4274213991306824
-0.5370244078418602
0.10856276648961738
-0.4269278780820023
-0.5370244078418602
0.10856276648961738
-0.4269278780820023
-0.5370244078418602
0.10856276648961738
-0.4269278780820023
-0.5370244078418602
0.10856276648961738
-0.4269278780820023
-0.5365473505007007
0.10538437402937116
-0.4269931413705378
-0.5365473505007007
0.10538437402937116
-0.4269931413705378
-0.5365473505007007
0.10538437402937116
-0.4269931413705378
-0.5365473505007007
0.10538437402937116
-0.4269931413705378
-0.5340808748263144
0.10332485562680857
-0.4278029958165565
-0.5340808748263144
0.10332485562680857
-0.4278029958165565
-0.5340808748263144
0.10332485562680857
-0.4278029958165565
-0.5340808748263144
0.10332485562680857
-0.4278029958165565
-0.5309230648694542
0.10327498195917527
-0.4284814692783903
-0.5309230648694542
0.10327498195917527
-0.4284814692783903
-0.5309230648694542
0.10327498195917527
-0.4284814692783903
-0.5309230648694542
0.10327498195917527
-0.4284814692783903
-0.528695461213237
0.1033380832091423
-0.4280009249204868
-0.528695461213237
0.1033380832091423
-0.4280009249204868
-0.528695461213237
0.1033380832091423
-0.4280009249204868
-0.528695461213237
0.1033380832091423
-0.4280009249204868
-0.5278591035907323
0.1035297683928284
-0.4269382728589217
-0.5278591035907323
0.1035297683928284
-0.4269382728589217
-0.5278591035907323
0.1035297683928284
-0.4269382728589217
-0.5278591035907323
0.1035297683928284
-0.4269382728589217
-0.5288667807118269
0.10388839025663303
-0.4262228474668916
-0.5288667807118269
0.10388839025663303
-0.4262228474668916
-0.5288667807118269
0.10388839025663303
-0.4262228474668916
-0.5288667807118269
0.10388839025663303
-0.4262228474668916
-0.5307426364190667
0.10448947463657718
-0.4264923646919458
-0.5307426364190667
0.10448947463657718
-0.4264923646919458
-0.5307426364190667
0.10448947463657718
-0.4264923646919458
-0.5307426364190667
0.10448947463657718
-0.4264923646919458
-0.5321367395902055
0.10587927604939033
-0.42702553108270586
-0.5321367395902055
0.10587927604939033
-0.42702553108270586
-0.5321367395902055
0.10587927604939033
-0.42702553108270586
-0.5321367395902055
0.10587927604939033
-0.42702553108270586
-0.5297912177231492
0.1078422270570658
-0.42732579363977324
-0.5297912177231492
0.1078422270570658
-0.42732579363977324
-0.5297912177231492
0.1078422270570658
-0.42732579363977324
-0.5297912177231492
0.1078422270570658
-0.42732579363977324
-0.5264226643594829
0.11035841709518483
-0.4277845452363227
-0.5264226643594829
0.11035841709518483
-0.4277845452363227
-0.5264226643594829
0.11035841709518483
-0.4277845452363227
-0.5264226643594829
0.11035841709518483
-0.4277845452363227
-0.52591777101892
0.11313591521347748
-0.42798303066752996
-0.52591777101892
0.11313591521347748
-0.42798303066752996
-0.52591777101892
0.11313591521347748
-0.42798303066752996
-0.52591777101892
0.11313591521347748
-0.42798303066752996
-0.5265422237574127
0.11622209317409017
-0.42816047100844234
-0.5265422237574127
0.11622209317409017
-0.42816047100844234
-0.5265422237574127
0.11622209317409017
-0.42816047100844234
-0.5265422237574127
0.11622209317409017
-0.42816047100844234
-0.5274192028780473
0.1195812251932581
-0.42803251649203006
-0.5274192028780473
0.1195812251932581
-0.42803251649203006
-0.5274192028780473
0.1195812251932581
-0.42803251649203006
-0.5274192028780473
0.1195812251932581
-0.42803251649203006
-0.5280647159968431
0.1232995546049588
-0.42826297750595227
-0.5280647159968431
0.1232995546049588
-0.42826297750595227
-0.5280647159968431
0.1232995546049588
-0.42826297750595227
-0.5280647159968431
0.1232995546049588
-0.42826297750595227
-0.5279556024795605
0.1273537344109398
-0.4292561592479479
-0.5279556024795605
0.1273537344109398
-0.4292561592479479
-0.5279556024795605
0.1273537344109398
-0.4292561592479479
-0.5279556024795605
0.1273537344109398
-0.4292561592479479
-0.5285739280701721
0.1326803644241988
-0.43136690589799576
-0.5285739280701721
0.1326803644241988
-0.43136690589799576
-0.5285739280701721
0.1326803644241988
-0.43136690589799576
-0.5285739280701721
0.1326803644241988
-0.43136690589799576
-0.5317928898273482
0.13973864381724518
-0.43534285372035525
-0.5317928898273482
0.13973864381724518
-0.43534285372035525
-0.5317928898273482
0.13973864381724518
-0.43534285372035525
-0.5317928898273482
0.13973864381724518
-0.43534285372035525
-0.5358742981781024
0.14650155802638584
-0.44027960194834354
-0.5358742981781024
0.14650155802638584
-0.44027960194834354
-0.5358742981781024
0.14650155802638584
-0.44027960194834354
-0.5358742981781024
0.14650155802638584
-0.44027960194834354
-0.5399994375130329
0.15335705123013926
-0.4468503678325399
-0.5399994375130329
0.15335705123013926
-0.4468503678325399
-0.5399994375130329
0.15335705123013926
-0.4468503678325399
-0.5399994375130329
0.15335705123013926
-0.4468503678325399
-0.5458845046491073
0.16230457255738973
-0.45410703872730995
-0.5458845046491073
0.16230457255738973
-0.45410703872730995
-0.5458845046491073
0.16230457255738973
-0.45410703872730995
-0.5458845046491073
0.16230457255738973
-0.45410703872730995
-0.5601133785474255
0.17194866059181563
-0.4614809709578006
-0.5601133785474255
0.17194866059181563
-0.4614809709578006
-0.5601133785474255
0.17194866059181563
-0.4614809709578006
-0.5601133785474255
0.17194866059181563
-0.4614809709578006
-0.5744582729881718
0.18294763969154854
-0.466612847515984
-0.5744582729881718
0.18294763969154854
-0.466612847515984
-0.5744582729881718
0.18294763969154854
-0.466612847515984
-0.5744582729881718
0.18294763969154854
-0.466612847515984
-0.5837616325411565
0.19265076083620422
-0.4679508400815193
-0.5837616325411565
0.19265076083620422
-0.4679508400815193
-0.5837616325411565
0.19265076083620422
-0.4679508400815193
-0.5837616325411565
0.19265076083620422
-0.4679508400815193
-0.59273734337665
0.1982302335046732
-0.468804543229042
-0.59273734337665
0.1982302335046732
-0.468804543229042
-0.59273734337665
0.1982302335046732
-0.468804543229042
-0.59273734337665
0.1982302335046732
-0.468804543229042
-0.6025464781239616
0.19921924498456245
-0.4725187449344593
-0.6025464781239616
0.19921924498456245
-0.4725187449344593
-0.6025464781239616
0.19921924498456245
-0.4725187449344593
-0.6025464781239616
0.19921924498456245
-0.4725187449344593
-0.6094561109401911
0.19776056849164755
-0.4766612779435833
-0.6094561109401911
0.19776056849164755
-0.4766612779435833
-0.6094561109401911
0.19776056849164755
-0.4766612779435833
-0.6094561109401911
0.19776056849164755
-0.4766612779435833
-0.6132659339100862
0.19252421672955136
-0.4758145863451798
-0.6132659339100862
0.19252421672955136
-0.4758145863451798
-0.6132659339100862
0.19252421672955136
-0.4758145863451798
-0.6132659339100862
0.19252421672955136
-0.4758145863451798
-0.6151193172176359
0.1866527443946029
-0.47047544798514235
-0.6151193172176359
0.1866527443946029
-0.47047544798514235
-0.6151193172176359
0.1866527443946029
-0.47047544798514235
-0.6151193172176359
0.1866527443946029
-0.47047544798514235
-0.6141911375488862
0.18386684154360172
-0.46792161541099464
-0.6141911375488862
0.18386684154360172
-0.46792161541099464
-0.6141911375488862
0.18386684154360172
-0.46792161541099464
-0.6141911375488862
0.18386684154360172
-0.46792161541099464
-0.612391572470035
0.18383861496872048
-0.4706243105629532
-0.612391572470035
0.18383861496872048
-0.4706243105629532
-0.612391572470035
0.18383861496872048
-0.4706243105629532
-0.612391572470035
0.18383861496872048
-0.4706243105629532
-0.6073741108233367
0.18171197826284646
-0.4738118268377803
-0.6073741108233367
0.18171197826284646
-0.4738118268377803
-0.6073741108233367
0.18171197826284646
-0.4738118268377803
-0.6073741108233367
0.18171197826284646
-0.4738118268377803
-0.6049151782555428
0.1786763558819447
-0.4764779284289528
-0.6049151782555428
0.1786763558819447
-0.4764779284289528
-0.6049151782555428
0.1786763558819447
-0.4764779284289528
-0.6049151782555428
0.1786763558819447
-0.4764779284289528
-0.6071412863016098
0.17689890811074657
-0.4786101226312871
-0.6071412863016098
0.17689890811074657
-0.4786101226312871
-0.6071412863016098
0.17689890811074657
-0.4786101226312871
-0.6071412863016098
0.17689890811074657
-0.4786101226312871
-0.6142806602395652
0.17567868478221854
-0.4801554205719257
-0.6142806602395652
0.17567868478221854
-0.4801554205719257
-0.6142806602395652
0.17567868478221854
-0.4801554205719257
-0.6142806602395652
0.17567868478221854
-0.4801554205719257
-0.6220087679103896
0.17389449073050028
-0.4813451669130856
-0.6220087679103896
0.17389449073050028
-0.4813451669130856
-0.6220087679103896
0.17389449073050028
-0.4813451669130856
-0.6220087679103896
0.17389449073050028
-0.4813451669130856
-0.6245962134180082
0.1729771262554683
-0.4825195207470425
-0.6245962134180082
0.1729771262554683
-0.4825195207470425
-0.6245962134180082
0.1729771262554683
-0.4825195207470425
-0.6245962134180082
0.1729771262554683
-0.4825195207470425
-0.6237301762603148
0.172910166106233
-0.4837984501442535
-0.6237301762603148
0.172910166106233
-0.4837984501442535
-0.6237301762603148
0.172910166106233
-0.4837984501442535
-0.6237301762603148
0.172910166106233
-0.4837984501442535
-0.6221872134685689
0.17369525164635422
-0.4850093664359733
-0.6221872134685689
0.17369525164635422
-0.4850093664359733
-0.6221872134685689
0.17369525164635422
-0.4850093664359733
-0.6221872134685689
0.17369525164635422
-0.4850093664359733
-0.6225490074001233
0.1738918458710598
-0.4853866095110859
-0.6225490074001233
0.1738918458710598
-0.4853866095110859
-0.6225490074001233
0.1738918458710598
-0.4853866095110859
-0.6225490074001233
0.1738918458710598
-0.4853866095110859
-0.624898576390995
0.17485958813564798
-0.48530976385421914
-0.624898576390995
0.17485958813564798
-0.48530976385421914
-0.624898576390995
0.17485958813564798
-0.48530976385421914
-0.624898576390995
0.17485958813564798
-0.48530976385421914
-0.6266723827519068
0.1761707354518213
-0.4850121453409089
-0.6266723827519068
0.1761707354518213
-0.4850121453409089
-0.6266723827519068
0.1761707354518213
-0.4850121453409089
-0.6266723827519068
0.1761707354518213
-0.4850121453409089
-0.6256378786572332
0.177413578797158
-0.4847308495170324
-0.6256378786572332
0.177413578797158
-0.4847308495170324
-0.6256378786572332
0.177413578797158
-0.4847308495170324
-0.6256378786572332
0.177413578797158
-0.4847308495170324
-0.6228184448176968
0.17915197281401396
-0.4846025113664087
-0.6228184448176968
0.17915197281401396
-0.4846025113664087
-0.6228184448176968
0.17915197281401396
-0.4846025113664087
-0.6228184448176968
0.17915197281401396
-0.4846025113664087
-0.6211016901692314
0.18055078526784546
-0.4838681720875292
-0.6211016901692314
0.18055078526784546
-0.4838681720875292
-0.6211016901692314
0.18055078526784546
-0.4838681720875292
-0.6211016901692314
0.18055078526784546
-0.4838681720875292
-0.6216623814533397
0.1813601761762548
-0.48345849717877915
-0.6216623814533397
0.1813601761762548
-0.48345849717877915
-0.6216623814533397
0.1813601761762548
-0.48345849717877915
-0.6216623814533397
0.1813601761762548
-0.48345849717877915
-0.6246494072751514
0.18158421251767284
-0.48364342985735576
-0.6246494072751514
0.18158421251767284
-0.48364342985735576
-0.6246494072751514
0.18158421251767284
-0.48364342985735576
-0.6246494072751514
0.18158421251767284
-0.48364342985735576
-0.6267866318712528
0.18154019721101713
-0.48397959010774194
-0.6267866318712528
0.18154019721101713
-0.48397959010774194
-0.6267866318712528
0.18154019721101713
-0.48397959010774194
-0.6267866318712528
0.18154019721101713
-0.48397959010774194
-0.6268684130737197
0.1813977128482745
-0.48394128494739175
-0.6268684130737197
0.1813977128482745
-0.48394128494739175
-0.6268684130737197
0.1813977128482745
-0.48394128494739175
-0.6268684130737197
0.1813977128482745
-0.48394128494739175
-0.6254110723233878
0.18132304200003482
-0.48394093024166146
-0.6254110723233878
0.18132304200003482
-0.48394093024166146
-0.6254110723233878
0.18132304200003482
-0.48394093024166146
-0.6254110723233878
0.18132304200003482
-0.48394093024166146
-0.6243988674437735
0.18130205470114114
-0.4842816350096392
-0.6243988674437735
0.18130205470114114
-0.4842816350096392
-0.6243988674437735
0.18130205470114114
-0.4842816350096392
-0.6243988674437735
0.18130205470114114
-0.4842816350096392
-0.6240206430409193
0.18135514867101304
-0.48435960181241505
-0.6240206430409193
0.18135514867101304
-0.48435960181241505
-0.6240206430409193
0.18135514867101304
-0.48435960181241505
-0.6240206430409193
0.18135514867101304
-0.48435960181241505
-0.625771887777824
0.1815967008045662
-0.484093490088939
-0.625771887777824
0.1815967008045662
-0.484093490088939
-0.625771887777824
0.1815967008045662
-0.484093490088939
-0.625771887777824
0.1815967008045662
-0.484093490088939
-0.6262414384472437
0.18118489829900025
-0.48375459956469524
-0.6262414384472437
0.18118489829900025
-0.48375459956469524
-0.6262414384472437
0.18118489829900025
-0.48375459956469524
-0.6262414384472437
0.18118489829900025
-0.48375459956469524
-0.6261759122264967
0.18103967594447248
-0.4834488916381269
-0.6261759122264967
0.18103967594447248
-0.4834488916381269
-0.6261759122264967
0.18103967594447248
-0.4834488916381269
-0.6261759122264967
0.18103967594447248
-0.4834488916381269
-0.6260752757981263
0.18154761110243736
-0.4836044321024779
-0.6260752757981263
0.18154761110243736
-0.4836044321024779
-0.6260752757981263
0.18154761110243736
-0.4836044321024779
-0.6260752757981263
0.18154761110243736
-0.4836044321024779
-0.6258695174451723
0.18190904382335435
-0.48342265980898413
-0.6258695174451723
0.18190904382335435
-0.48342265980898413
-0.6258695174451723
0.18190904382335435
-0.48342265980898413
-0.6258695174451723
0.18190904382335435
-0.48342265980898413
-0.6271117112014035
0.18256185002836553
-0.48346461657603546
-0.6271117112014035
0.18256185002836553
-0.48346461657603546
-0.6271117112014035
0.18256185002836553
-0.48346461657603546
-0.6271117112014035
0.18256185002836553
-0.48346461657603546
-0.6289417238979037
0.18342602699994384
-0.4836634244573782
-0.6289417238979037
0.18342602699994384
-0.4836634244573782
-0.6289417238979037
0.18342602699994384
-0.4836634244573782
-0.6289417238979037
0.18342602699994384
-0.4836634244573782
-0.6303203249924977
0.18437491005277776
-0.4839716847929949
-0.6303203249924977
0.18437491005277776
-0.4839716847929949
-0.6303203249924977
0.18437491005277776
-0.4839716847929949
-0.6303203249924977
0.18437491005277776
-0.4839716847929949
-0.6302202365118013
0.18488251808383616
-0.4841281895006624
-0.6302202365118013
0.18488251808383616
-0.4841281895006624
-0.6302202365118013
0.18488251808383616
-0.4841281895006624
-0.6302202365118013
0.18488251808383616
-0.4841281895006624
-0.6293489721057728
0.18505829477870395
-0.4841683735713
-0.6293489721057728
0.18505829477870395
-0.4841683735713
-0.6293489721057728
0.18505829477870395
-0.4841683735713
-0.6293489721057728
0.18505829477870395
-0.4841683735713
-0.6282524864887621
0.18525727066404915
-0.48431884417311094
-0.6282524864887621
0.18525727066404915
-0.48431884417311094
-0.6282524864887621
0.18525727066404915
-0.48431884417311094
-0.6282524864887621
0.18525727066404915
-0.48431884417311094
-0.6287092878017494
0.1851219068126826
-0.4848794712172364
-0.6287092878017494
0.1851219068126826
-0.4848794712172364
-0.6287092878017494
0.1851219068126826
-0.4848794712172364
-0.6287092878017494
0.1851219068126826
-0.4848794712172364
-0.6293250332678403
0.18481852245959562
-0.4850233927446234
-0.6293250332678403
0.18481852245959562
-0.4850233927446234
-0.6293250332678403
0.18481852245959562
-0.4850233927446234
-0.6293250332678403
0.18481852245959562
-0.4850233927446234
-0.629840272242073
0.18421276355848343
-0.4852824080112354
-0.629840272242073
0.18421276355848343
-0.4852824080112354
-0.629840272242073
0.18421276355848343
-0.4852824080112354
-0.629840272242073
0.18421276355848343
-0.4852824080112354
-0.6291930107750651
0.1836619417375254
-0.4853864340730909
-0.6291930107750651
0.1836619417375254
-0.4853864340730909
-0.6291930107750651
0.1836619417375254
-0.4853864340730909
-0.6291930107750651
0.1836619417375254
-0.4853864340730909
-0.627914387031691
0.182959203121742
-0.4859794547149188
-0.627914387031691
0.182959203121742
-0.4859794547149188
-0.627914387031691
0.182959203121742
-0.4859794547149188
-0.627914387031691
0.182959203121742
-0.4859794547149188
-0.6275710896493973
0.1822641643766624
-0.4867246194174673
-0.6275710896493973
0.1822641643766624
-0.4867246194174673
-0.6275710896493973
0.1822641643766624
-0.4867246194174673
-0.6275710896493973
0.1822641643766624
-0.4867246194174673
-0.6287345938589834
0.18223645012186987
-0.4873200194494453
-0.6287345938589834
0.18223645012186987
-0.4873200194494453
-0.6287345938589834
0.18223645012186987
-0.4873200194494453
-0.6287345938589834
0.18223645012186987
-0.4873200194494453
-0.6303792155460892
0.18231170231890154
-0.48762025025489875
-0.6303792155460892
0.18231170231890154
-0.48762025025489875
-0.6303792155460892
0.18231170231890154
-0.48762025025489875
-0.6303792155460892
0.18231170231890154
-0.48762025025489875
-0.6305639761675366
0.18239293603537837
-0.48769298411911005
-0.6305639761675366
0.18239293603537837
-0.48769298411911005
-0.6305639761675366
0.18239293603537837
-0.48769298411911005
-0.6305639761675366
0.18239293603537837
-0.48769298411911005
-0.6298560301526014
0.18228508225132634
-0.4876572120939034
-0.6298560301526014
0.18228508225132634
-0.4876572120939034
-0.6298560301526014
0.18228508225132634
-0.4876572120939034
-0.6298560301526014
0.18228508225132634
-0.4876572120939034
-0.6282558464098734
0.18205496178744557
