-1.107441051758504
0.17134045379138876
-0.6482446354879873
-1.107441051758504
0.17134045379138876
-0.6482446354879873
-1.107441051758504
0.17134045379138876
-0.6482446354879873
-1.107441051758504
0.17134045379138876
-0.6482446354879873
-1.1068854300351982
0.1710038260368858
-0.6479929818548718
-1.1068854300351982
0.1710038260368858
-0.6479929818548718
-1.1068854300351982
0.1710038260368858
-0.6479929818548718
-1.1068854300351982
0.1710038260368858
-0.6479929818548718
-1.1063556339354557
0.17055878176688655
-0.6477159032662583
-1.1063556339354557
0.17055878176688655
-0.6477159032662583
-1.1063556339354557
0.17055878176688655
-0.6477159032662583
-1.1063556339354557
0.17055878176688655
-0.6477159032662583
-1.1062480077145493
0.16997539772336107
-0.6474799592107889
-1.1062480077145493
0.16997539772336107
-0.6474799592107889
-1.1062480077145493
0.16997539772336107
-0.6474799592107889
-1.1062480077145493
0.16997539772336107
-0.6474799592107889
-1.1064318191645943
0.16937155583397334
-0.6468498929457001
-1.1064318191645943
0.16937155583397334
-0.6468498929457001
-1.1064318191645943
0.16937155583397334
-0.6468498929457001
-1.1064318191645943
0.16937155583397334
-0.6468498929457001
-1.1070573396887198
0.16863431913011406
-0.6459496987318891
-1.1070573396887198
0.16863431913011406
-0.6459496987318891
-1.1070573396887198
0.16863431913011406
-0.6459496987318891
-1.1070573396887198
0.16863431913011406
-0.6459496987318891
-1.106622794143251
0.16756408755964655
-0.6448426555684623
-1.106622794143251
0.16756408755964655
-0.6448426555684623
-1.106622794143251
0.16756408755964655
-0.6448426555684623
-1.106622794143251
0.16756408755964655
-0.6448426555684623
-1.105870040229914
0.1667153522011144
-0.643798752089801
-1.105870040229914
0.1667153522011144
-0.643798752089801
-1.105870040229914
0.1667153522011144
-0.643798752089801
-1.105870040229914
0.1667153522011144
-0.643798752089801
-1.105428723851964
0.16593820461737213
-0.6427358275237642
-1.105428723851964
0.16593820461737213
-0.6427358275237642
-1.105428723851964
0.16593820461737213
-0.6427358275237642
-1.105428723851964
0.16593820461737213
-0.6427358275237642
-1.1053645446233678
0.1651277991926577
-0.6420496254717466
-1.1053645446233678
0.1651277991926577
-0.6420496254717466
-1.1053645446233678
0.1651277991926577
-0.6420496254717466
-1.1053645446233678
0.1651277991926577
-0.6420496254717466
-1.105228955327674
0.1643883185338672
-0.6415378742834494
-1.105228955327674
0.1643883185338672
-0.6415378742834494
-1.105228955327674
0.1643883185338672
-0.6415378742834494
-1.105228955327674
0.1643883185338672
-0.6415378742834494
-1.1046198713128519
0.16371889366901848
-0.6406625629515165
-1.1046198713128519
0.16371889366901848
-0.6406625629515165
-1.1046198713128519
0.16371889366901848
-0.6406625629515165
-1.1046198713128519
0.16371889366901848
-0.6406625629515165
-1.1041133433796018
0.16327575954466741
-0.6400779487368484
-1.1041133433796018
0.16327575954466741
-0.6400779487368484
-1.1041133433796018
0.16327575954466741
-0.6400779487368484
-1.1041133433796018
0.16327575954466741
-0.6400779487368484
-1.1041133433796018
0.16327575954466741
-0.6400779487368484
-1.1041133433796018
0.16327575954466741
-0.6400779487368484
-1.1041133433796018
0.16327575954466741
-0.6400779487368484
-1.1041133433796018
0.16327575954466741
-0.6400779487368484
-1.1042032939960285
0.16329717931047952
-0.6402780830640569
-1.1042032939960285
0.16329717931047952
-0.6402780830640569
-1.1042032939960285
0.16329717931047952
-0.6402780830640569
-1.1042032939960285
0.16329717931047952
-0.6402780830640569
-1.1040792847993153
0.1634434520589486
-0.6403162979100419
-1.1040792847993153
0.1634434520589486
-0.6403162979100419
-1.1040792847993153
0.1634434520589486
-0.6403162979100419
-1.1040792847993153
0.1634434520589486
-0.6403162979100419
-1.1046400199747548
0.1637232105698802
-0.64035222926066
-1.1046400199747548
0.1637232105698802
-0.64035222926066
-1.1046400199747548
0.1637232105698802
-0.64035222926066
-1.1046400199747548
0.1637232105698802
-0.64035222926066
-1.105068895022388
0.16420809831686592
-0.6406389434737719
-1.105068895022388
0.16420809831686592
-0.6406389434737719
-1.105068895022388
0.16420809831686592
-0.6406389434737719
-1.105068895022388
0.16420809831686592
-0.6406389434737719
-1.1052578600065428
0.16478449705689527
-0.6406017443930652
-1.1052578600065428
0.16478449705689527
-0.6406017443930652
-1.1052578600065428
0.16478449705689527
-0.6406017443930652
-1.1052578600065428
0.16478449705689527
-0.6406017443930652
-1.1061545569573774
0.16585048200640132
-0.6412404972701621
-1.1061545569573774
0.16585048200640132
-0.6412404972701621
-1.1061545569573774
0.16585048200640132
-0.6412404972701621
-1.1061545569573774
0.16585048200640132
-0.6412404972701621
-1.108335027039573
0.16766014629836118
-0.6418118798514096
-1.108335027039573
0.16766014629836118
-0.6418118798514096
-1.108335027039573
0.16766014629836118
-0.6418118798514096
-1.108335027039573
0.16766014629836118
-0.6418118798514096
-1.1094339038989514
0.1699651110861667
-0.6410532538990565
-1.1094339038989514
0.1699651110861667
-0.6410532538990565
-1.1094339038989514
0.1699651110861667
-0.6410532538990565
-1.1094339038989514
0.1699651110861667
-0.6410532538990565
-1.109482553697812
0.1725918763915007
-0.6397655134680951
-1.109482553697812
0.1725918763915007
-0.6397655134680951
-1.109482553697812
0.1725918763915007
-0.6397655134680951
-1.109482553697812
0.1725918763915007
-0.6397655134680951
-1.1090873179031182
0.17462745803343707
-0.6398993797465465
-1.1090873179031182
0.17462745803343707
-0.6398993797465465
-1.1090873179031182
0.17462745803343707
-0.6398993797465465
-1.1090873179031182
0.17462745803343707
-0.6398993797465465
-1.109425996787493
0.17608481484812274
-0.6380951411476636
-1.109425996787493
0.17608481484812274
-0.6380951411476636
-1.109425996787493
0.17608481484812274
-0.6380951411476636
-1.109425996787493
0.17608481484812274
-0.6380951411476636
-1.1072362947030638
0.1779925875801647
-0.6346627156941715
-1.1072362947030638
0.1779925875801647
-0.6346627156941715
-1.1072362947030638
0.1779925875801647
-0.6346627156941715
-1.1072362947030638
0.1779925875801647
-0.6346627156941715
-1.1054701182973994
0.18111055383588737
-0.6290040019633083
-1.1054701182973994
0.18111055383588737
-0.6290040019633083
-1.1054701182973994
0.18111055383588737
-0.6290040019633083
-1.1054701182973994
0.18111055383588737
-0.6290040019633083
-1.099514313651016
0.1805812806510847
-0.6245772867383934
-1.099514313651016
0.1805812806510847
-0.6245772867383934
-1.099514313651016
0.1805812806510847
-0.6245772867383934
-1.099514313651016
0.1805812806510847
-0.6245772867383934
-1.0874840948956364
0.17821537527494075
-0.62503219773493
-1.0874840948956364
0.17821537527494075
-0.62503219773493
-1.0874840948956364
0.17821537527494075
-0.62503219773493
-1.0874840948956364
0.17821537527494075
-0.62503219773493
-1.0748366136597634
0.17552070783283968
-0.6275539039950214
-1.0748366136597634
0.17552070783283968
-0.6275539039950214
-1.0748366136597634
0.17552070783283968
-0.6275539039950214
-1.0748366136597634
0.17552070783283968
-0.6275539039950214
-1.063613994809869
0.1740127091641357
-0.6270462223924252
-1.063613994809869
0.1740127091641357
-0.6270462223924252
-1.063613994809869
0.1740127091641357
-0.6270462223924252
-1.063613994809869
0.1740127091641357
-0.6270462223924252
-1.0587794322603585
0.17157236727014202
-0.6254430280849088
-1.0587794322603585
0.17157236727014202
-0.6254430280849088
-1.0587794322603585
0.17157236727014202
-0.6254430280849088
-1.0587794322603585
0.17157236727014202
-0.6254430280849088
-1.0575289952168707
0.16743025789962973
-0.6231943803020393
-1.0575289952168707
0.16743025789962973
-0.6231943803020393
-1.0575289952168707
0.16743025789962973
-0.6231943803020393
-1.0575289952168707
0.16743025789962973
-0.6231943803020393
-1.0581962366657622
0.16209975986300929
-0.619728026706178
-1.0581962366657622
0.16209975986300929
-0.619728026706178
-1.0581962366657622
0.16209975986300929
-0.619728026706178
-1.0581962366657622
0.16209975986300929
-0.619728026706178
-1.0596421864216325
0.15618462277350897
-0.6177223447651715
-1.0596421864216325
0.15618462277350897
-0.6177223447651715
-1.0596421864216325
0.15618462277350897
-0.6177223447651715
-1.0596421864216325
0.15618462277350897
-0.6177223447651715
-1.0576774670688684
0.1502878865489154
-0.6189442468116241
-1.0576774670688684
0.1502878865489154
-0.6189442468116241
-1.0576774670688684
0.1502878865489154
-0.6189442468116241
-1.0576774670688684
0.1502878865489154
-0.6189442468116241
-1.0523650936781703
0.14533216178617017
-0.6204968422331952
-1.0523650936781703
0.14533216178617017
-0.6204968422331952
-1.0523650936781703
0.14533216178617017
-0.6204968422331952
-1.0523650936781703
0.14533216178617017
-0.6204968422331952
-1.0464853422105516
0.13968047494466188
-0.6209198283480064
-1.0464853422105516
0.13968047494466188
-0.6209198283480064
-1.0464853422105516
0.13968047494466188
-0.6209198283480064
-1.0464853422105516
0.13968047494466188
-0.6209198283480064
-1.0430944626510785
0.13423046616280307
-0.6214122421250906
-1.0430944626510785
0.13423046616280307
-0.6214122421250906
-1.0430944626510785
0.13423046616280307
-0.6214122421250906
-1.0430944626510785
0.13423046616280307
-0.6214122421250906
-1.0433753678996884
0.12830884375755727
-0.6216462828475341
-1.0433753678996884
0.12830884375755727
-0.6216462828475341
-1.0433753678996884
0.12830884375755727
-0.6216462828475341
-1.0433753678996884
0.12830884375755727
-0.6216462828475341
-1.046202430997759
0.1214875385791826
-0.621406891833665
-1.046202430997759
0.1214875385791826
-0.621406891833665
-1.046202430997759
0.1214875385791826
-0.621406891833665
-1.046202430997759
0.1214875385791826
-0.621406891833665
-1.0508093218989871
0.11483927790067137
-0.6212093300146442
-1.0508093218989871
0.11483927790067137
-0.6212093300146442
-1.0508093218989871
0.11483927790067137
-0.6212093300146442
-1.0508093218989871
0.11483927790067137
-0.6212093300146442
-1.0555125031945582
0.10971211450377075
-0.6225363942478475
-1.0555125031945582
0.10971211450377075
-0.6225363942478475
-1.0555125031945582
0.10971211450377075
-0.6225363942478475
-1.0555125031945582
0.10971211450377075
-0.6225363942478475
-1.0579705422528864
0.10540232068957785
-0.6241214437722172
-1.0579705422528864
0.10540232068957785
-0.6241214437722172
-1.0579705422528864
0.10540232068957785
-0.6241214437722172
-1.0579705422528864
0.10540232068957785
-0.6241214437722172
-1.0596092131800927
0.10172757379658516
-0.6259928928141554
-1.0596092131800927
0.10172757379658516
-0.6259928928141554
-1.0596092131800927
0.10172757379658516
-0.6259928928141554
-1.0596092131800927
0.10172757379658516
-0.6259928928141554
-1.0609702042149856
0.09756842094226167
-0.6278286231565472
-1.0609702042149856
0.09756842094226167
-0.6278286231565472
-1.0609702042149856
0.09756842094226167
-0.6278286231565472
-1.0609702042149856
0.09756842094226167
-0.6278286231565472
-1.063094346280516
0.09246506813406727
-0.6295443047983562
-1.063094346280516
0.09246506813406727
-0.6295443047983562
-1.063094346280516
0.09246506813406727
-0.6295443047983562
-1.063094346280516
0.09246506813406727
-0.6295443047983562
-1.0665001928516489
0.08826577684138227
-0.6313835351971527
-1.0665001928516489
0.08826577684138227
-0.6313835351971527
-1.0665001928516489
0.08826577684138227
-0.6313835351971527
-1.0665001928516489
0.08826577684138227
-0.6313835351971527
-1.0683754461534714
0.08553228536533676
-0.6332997237263865
-1.0683754461534714
0.08553228536533676
-0.6332997237263865
-1.0683754461534714
0.08553228536533676
-0.6332997237263865
-1.0683754461534714
0.08553228536533676
-0.6332997237263865
-1.0697402033198031
0.08474754142745618
-0.6352246904146447
-1.0697402033198031
0.08474754142745618
-0.6352246904146447
-1.0697402033198031
0.08474754142745618
-0.6352246904146447
-1.0697402033198031
0.08474754142745618
-0.6352246904146447
-1.0705117209035024
0.08530102382631549
-0.6372028274484736
-1.0705117209035024
0.08530102382631549
-0.6372028274484736
-1.0705117209035024
0.08530102382631549
-0.6372028274484736
-1.0705117209035024
0.08530102382631549
-0.6372028274484736
-1.0709206649045042
0.08513675630694617
-0.6388707731898925
-1.0709206649045042
0.08513675630694617
-0.6388707731898925
-1.0709206649045042
0.08513675630694617
-0.6388707731898925
-1.0709206649045042
0.08513675630694617
-0.6388707731898925
-1.0702637341576484
0.08498086660902103
-0.6402352867612191
-1.0702637341576484
0.08498086660902103
-0.6402352867612191
-1.0702637341576484
0.08498086660902103
-0.6402352867612191
-1.0702637341576484
0.08498086660902103
-0.6402352867612191
-1.0716356623843344
0.08503600930699338
-0.6414927158263662
-1.0716356623843344
0.08503600930699338
-0.6414927158263662
-1.0716356623843344
0.08503600930699338
-0.6414927158263662
-1.0716356623843344
0.08503600930699338
-0.6414927158263662
-1.0736479642155698
0.0852723899429492
-0.6428431309010875
-1.0736479642155698
0.0852723899429492
-0.6428431309010875
-1.0736479642155698
0.0852723899429492
-0.6428431309010875
-1.0736479642155698
0.0852723899429492
-0.6428431309010875
-1.0755202341114232
0.08597201356581728
-0.6440144891328665
-1.0755202341114232
0.08597201356581728
-0.6440144891328665
-1.0755202341114232
0.08597201356581728
-0.6440144891328665
-1.0755202341114232
0.08597201356581728
-0.6440144891328665
-1.076096280822757
0.08675057361373652
-0.6452235826761642
-1.076096280822757
0.08675057361373652
-0.6452235826761642
-1.076096280822757
0.08675057361373652
-0.6452235826761642
-1.076096280822757
0.08675057361373652
-0.6452235826761642
-1.0746116771670515
0.08757857289523549
-0.6464157082266191
-1.0746116771670515
0.08757857289523549
-0.6464157082266191
-1.0746116771670515
0.08757857289523549
-0.6464157082266191
-1.0746116771670515
0.08757857289523549
-0.6464157082266191
-1.0735114114673963
0.08893484527483217
-0.6472638617826134
-1.0735114114673963
0.08893484527483217
-0.6472638617826134
-1.0735114114673963
0.08893484527483217
-0.6472638617826134
-1.0735114114673963
0.08893484527483217
-0.6472638617826134
-1.0736224703053563
0.09020932533608926
-0.6476222249381204
-1.0736224703053563
0.09020932533608926
-0.6476222249381204
-1.0736224703053563
0.09020932533608926
-0.6476222249381204
-1.0736224703053563
0.09020932533608926
-0.6476222249381204
-1.073559422537179
0.09173239498150276
-0.6476271670512276
-1.073559422537179
0.09173239498150276
-0.6476271670512276
-1.073559422537179
0.09173239498150276
-0.6476271670512276
-1.073559422537179
0.09173239498150276
-0.6476271670512276
-1.0746492047873677
0.09328471944363148
-0.6474802232642531
-1.0746492047873677
0.09328471944363148
-0.6474802232642531
-1.0746492047873677
0.09328471944363148
-0.6474802232642531
-1.0746492047873677
0.09328471944363148
-0.6474802232642531
-1.075929327875695
0.09464906548507326
-0.6475898376977719
-1.075929327875695
0.09464906548507326
-0.6475898376977719
-1.075929327875695
0.09464906548507326
-0.6475898376977719
-1.075929327875695
0.09464906548507326
-0.6475898376977719
-1.0773544980633363
0.09590111907741347
-0.6478210621919938
-1.0773544980633363
0.09590111907741347
-0.6478210621919938
-1.0773544980633363
0.09590111907741347
-0.6478210621919938
-1.0773544980633363
0.09590111907741347
-0.6478210621919938
-1.0778975600771554
0.09724768226442249
-0.6482957423508244
-1.0778975600771554
0.09724768226442249
-0.6482957423508244
-1.0778975600771554
0.09724768226442249
-0.6482957423508244
-1.0778975600771554
0.09724768226442249
-0.6482957423508244
-1.0783416508289674
0.09812506730809292
-0.6486611829502751
-1.0783416508289674
0.09812506730809292
-0.6486611829502751
-1.0783416508289674
0.09812506730809292
-0.6486611829502751
-1.0783416508289674
0.09812506730809292
-0.6486611829502751
-1.0796243277798039
0.09922928331637862
-0.6492075228552677
-1.0796243277798039
0.09922928331637862
-0.6492075228552677
-1.0796243277798039
0.09922928331637862
-0.6492075228552677
-1.0796243277798039
0.09922928331637862
-0.6492075228552677
-1.082138469212902
0.10002838659365353
-0.6498631546321263
-1.082138469212902
0.10002838659365353
-0.6498631546321263
-1.082138469212902
0.10002838659365353
-0.6498631546321263
-1.082138469212902
0.10002838659365353
-0.6498631546321263
-1.084203168722182
0.1012220668743533
-0.6503731376809447
-1.084203168722182
0.1012220668743533
-0.6503731376809447
-1.084203168722182
0.1012220668743533
-0.6503731376809447
-1.084203168722182
0.1012220668743533
-0.6503731376809447
-1.0852192590137608
0.10182092424812457
-0.6511486167767302
-1.0852192590137608
0.10182092424812457
-0.6511486167767302
-1.0852192590137608
0.10182092424812457
-0.6511486167767302
-1.0852192590137608
0.10182092424812457
-0.6511486167767302
-1.085821865445544
0.10202937589415768
-0.6520284366455118
-1.085821865445544
0.10202937589415768
-0.6520284366455118
-1.085821865445544
0.10202937589415768
-0.6520284366455118
-1.085821865445544
0.10202937589415768
-0.6520284366455118
-1.0857984631898905
0.10174034720634448
-0.6530272631820051
-1.0857984631898905
0.10174034720634448
-0.6530272631820051
-1.0857984631898905
0.10174034720634448
-0.6530272631820051
-1.0857984631898905
0.10174034720634448
-0.6530272631820051
-1.0861038379055774
0.10131492213362307
-0.6535985613850346
-1.0861038379055774
0.10131492213362307
-0.6535985613850346
-1.0861038379055774
0.10131492213362307
-0.6535985613850346
-1.0861038379055774
0.10131492213362307
-0.6535985613850346
-1.0861720655212777
0.10101411627448527
-0.654323638487832
-1.0861720655212777
0.10101411627448527
-0.654323638487832
-1.0861720655212777
0.10101411627448527
-0.654323638487832
-1.0861720655212777
0.10101411627448527
-0.654323638487832
-1.0868978317636933
0.10107153498002844
-0.6551630499820552
-1.0868978317636933
0.10107153498002844
-0.6551630499820552
-1.0868978317636933
0.10107153498002844
-0.6551630499820552
-1.0868978317636933
0.10107153498002844
-0.6551630499820552
-1.087276193794178
0.10058004836659108
-0.6562872466458972
-1.087276193794178
0.10058004836659108
-0.6562872466458972
-1.087276193794178
0.10058004836659108
-0.6562872466458972
-1.087276193794178
0.10058004836659108
-0.6562872466458972
-1.087199062909887
0.10013126222053352
-0.6573222215007732
-1.087199062909887
0.10013126222053352
-0.6573222215007732
-1.087199062909887
0.10013126222053352
-0.6573222215007732
-1.087199062909887
0.10013126222053352
-0.6573222215007732
-1.0876529864806397
0.09942416226395445
-0.6588143426608627
-1.0876529864806397
0.09942416226395445
-0.6588143426608627
-1.0876529864806397
0.09942416226395445
-0.6588143426608627
-1.0876529864806397
0.09942416226395445
-0.6588143426608627
-1.0877801064787351
0.09872718956812752
-0.6598913015171275
-1.0877801064787351
0.09872718956812752
-0.6598913015171275
-1.0877801064787351
0.09872718956812752
-0.6598913015171275
-1.0877801064787351
0.09872718956812752
-0.6598913015171275
-1.0881787539888994
0.0986506072340488
-0.6608590336582536
-1.0881787539888994
0.0986506072340488
-0.6608590336582536
-1.0881787539888994
0.0986506072340488
-0.6608590336582536
-1.0881787539888994
0.0986506072340488
-0.6608590336582536
-1.0889317532152325
0.09897703032314453
-0.66168610992627
-1.0889317532152325
0.09897703032314453
-0.66168610992627
-1.0889317532152325
0.09897703032314453
-0.66168610992627
-1.0889317532152325
0.09897703032314453
-0.66168610992627
-1.0892605643510629
0.09920868638082857
-0.6626579425564421
-1.0892605643510629
0.09920868638082857
-0.6626579425564421
-1.0892605643510629
0.09920868638082857
-0.6626579425564421
-1.0892605643510629
0.09920868638082857
-0.6626579425564421
-1.0887475236713844
0.09948832675529201
-0.6637473591610922
-1.0887475236713844
0.09948832675529201
-0.6637473591610922
-1.0887475236713844
0.09948832675529201
-0.6637473591610922
-1.0887475236713844
0.09948832675529201
-0.6637473591610922
-1.0894855804706167
0.10040040473877063
-0.6646572297594184
-1.0894855804706167
0.10040040473877063
-0.6646572297594184
-1.0894855804706167
0.10040040473877063
-0.6646572297594184
-1.0894855804706167
0.10040040473877063
-0.6646572297594184
-1.090700892506874
0.10130270482984902
-0.665816784174698
-1.090700892506874
0.10130270482984902
-0.665816784174698
-1.090700892506874
0.10130270482984902
-0.665816784174698
-1.090700892506874
0.10130270482984902
-0.665816784174698
-1.091561741428029
0.1023307578936237
-0.6669874333861481
-1.091561741428029
0.1023307578936237
-0.6669874333861481
-1.091561741428029
0.1023307578936237
-0.6669874333861481
-1.091561741428029
0.1023307578936237
-0.6669874333861481
-1.0927710961445698
0.103261818796488
-0.6686199373242956
-1.0927710961445698
0.103261818796488
-0.6686199373242956
-1.0927710961445698
0.103261818796488
-0.6686199373242956
-1.0927710961445698
0.103261818796488
-0.6686199373242956
-1.0933295076481202
0.10366324327672066
-0.6702094754721567
-1.0933295076481202
0.10366324327672066
-0.6702094754721567
-1.0933295076481202
0.10366324327672066
-0.6702094754721567
-1.0933295076481202
0.10366324327672066
-0.6702094754721567
-1.093609318744255
0.10411884296735904
-0.671633637313986
-1.093609318744255
0.10411884296735904
-0.671633637313986
-1.093609318744255
0.10411884296735904
-0.671633637313986
-1.093609318744255
0.10411884296735904
-0.671633637313986
-1.0945480440729447
0.10442107894894884
-0.6726453475247341
-1.0945480440729447
0.10442107894894884
-0.6726453475247341
-1.0945480440729447
0.10442107894894884
-0.6726453475247341
-1.0945480440729447
0.10442107894894884
-0.6726453475247341
-1.094918648576081
0.10474532005146654
-0.6736810950037804
-1.094918648576081
0.10474532005146654
-0.6736810950037804
-1.094918648576081
0.10474532005146654
-0.6736810950037804
-1.094918648576081
0.10474532005146654
-0.6736810950037804
-1.0953216455774044
0.10492538034062261
-0.6742219487722505
-1.0953216455774044
0.10492538034062261
-0.6742219487722505
-1.0953216455774044
0.10492538034062261
-0.6742219487722505
-1.0953216455774044
0.10492538034062261
-0.6742219487722505
-1.095896643758702
0.1044647669243544
-0.674699831228922
-1.095896643758702
0.1044647669243544
-0.674699831228922
-1.095896643758702
0.1044647669243544
-0.674699831228922
-1.095896643758702
0.1044647669243544
-0.674699831228922
-1.0971971899687951
0.10380830231376832
-0.6750592173123997
-1.0971971899687951
0.10380830231376832
-0.6750592173123997
-1.0971971899687951
0.10380830231376832
-0.6750592173123997
-1.0971971899687951
0.10380830231376832
-0.6750592173123997
-1.0981146331251084
0.10380513600142492
-0.675611450631242
-1.0981146331251084
0.10380513600142492
-0.675611450631242
-1.0981146331251084
0.10380513600142492
-0.675611450631242
-1.0981146331251084
0.10380513600142492
-0.675611450631242
-1.098152421554772
0.10390215075396432
-0.6756736030462072
-1.098152421554772
0.10390215075396432
-0.6756736030462072
-1.098152421554772
0.10390215075396432
-0.6756736030462072
-1.098152421554772
0.10390215075396432
-0.6756736030462072
-1.098054880491271
0.1039397399784212
-0.6756896744997426
-1.098054880491271
0.1039397399784212
-0.6756896744997426
-1.098054880491271
0.1039397399784212
-0.6756896744997426
-1.098054880491271
0.1039397399784212
-0.6756896744997426
-1.098054880491271
0.1039397399784212
-0.6756896744997426
-1.098054880491271
0.1039397399784212
-0.6756896744997426
-1.098054880491271
0.1039397399784212
-0.6756896744997426
-1.098054880491271
0.1039397399784212
-0.6756896744997426
-1.0987288163080833
0.10397054908608845
-0.6760227810696651
-1.0987288163080833
0.10397054908608845
-0.6760227810696651
-1.0987288163080833
0.10397054908608845
-0.6760227810696651
-1.0987288163080833
0.10397054908608845
-0.6760227810696651
-1.098179988124735
0.10376606249943474
-0.6766344591488092
-1.098179988124735
0.10376606249943474
-0.6766344591488092
-1.098179988124735
0.10376606249943474
-0.6766344591488092
-1.098179988124735
0.10376606249943474
-0.6766344591488092
-1.0981341033515029
0.10369924360725484
-0.6770431048495587
-1.0981341033515029
0.10369924360725484
-0.6770431048495587
-1.0981341033515029
0.10369924360725484
-0.6770431048495587
-1.0981341033515029
0.10369924360725484
-0.6770431048495587
-1.0980019609045697
0.10308323579388168
-0.6773821450928402
-1.0980019609045697
0.10308323579388168
-0.6773821450928402
-1.0980019609045697
0.10308323579388168
-0.6773821450928402
-1.0980019609045697
0.10308323579388168
-0.6773821450928402
-1.0982026129976796
0.1023029945015949
-0.6775508656675643
-1.0982026129976796
0.1023029945015949
-0.6775508656675643
-1.0982026129976796
0.1023029945015949
-0.6775508656675643
-1.0982026129976796
0.1023029945015949
-0.6775508656675643
-1.0976211999337115
0.10144177682964227
-0.6777581016400838
-1.0976211999337115
0.10144177682964227
-0.6777581016400838
-1.0976211999337115
0.10144177682964227
-0.6777581016400838
-1.0976211999337115
0.10144177682964227
-0.6777581016400838
-1.097277890849994
0.1009839852232087
-0.6776834333201772
-1.097277890849994
0.1009839852232087
-0.6776834333201772
-1.097277890849994
0.1009839852232087
-0.6776834333201772
-1.097277890849994
0.1009839852232087
-0.6776834333201772
-1.0977894181092178
0.10027112673762646
-0.6778218660332549
-1.0977894181092178
0.10027112673762646
-0.6778218660332549
-1.0977894181092178
0.10027112673762646
-0.6778218660332549
-1.0977894181092178
0.10027112673762646
-0.6778218660332549
-1.098787887548166
0.09963347079749657
-0.6778534214374922
-1.098787887548166
0.09963347079749657
-0.6778534214374922
-1.098787887548166
0.09963347079749657
-0.6778534214374922
-1.098787887548166
0.09963347079749657
-0.6778534214374922
-1.100048239523793
0.09887769272024476
-0.6781462532179039
-1.100048239523793
0.09887769272024476
-0.6781462532179039
-1.100048239523793
0.09887769272024476
-0.6781462532179039
-1.100048239523793
0.09887769272024476
-0.6781462532179039
-1.1007418045189248
0.09853040343435705
-0.6788805463562686
-1.1007418045189248
0.09853040343435705
-0.6788805463562686
-1.1007418045189248
0.09853040343435705
-0.6788805463562686
-1.1007418045189248
0.09853040343435705
-0.6788805463562686
-1.1008101730161177
0.09793024310798298
-0.6795592837059916
-1.1008101730161177
0.09793024310798298
-0.6795592837059916
-1.1008101730161177
0.09793024310798298
-0.6795592837059916
-1.1008101730161177
0.09793024310798298
-0.6795592837059916
-1.1004701818650802
0.09703399338469473
-0.6799849359805811
-1.1004701818650802
0.09703399338469473
-0.6799849359805811
-1.1004701818650802
0.09703399338469473
-0.6799849359805811
-1.1004701818650802
0.09703399338469473
-0.6799849359805811
-1.099222876072698
0.09664766464157605
-0.6799917040481379
-1.099222876072698
0.09664766464157605
-0.6799917040481379
-1.099222876072698
0.09664766464157605
-0.6799917040481379
-1.099222876072698
0.09664766464157605
-0.6799917040481379
-1.0995751692056968
0.09637303083411639
-0.6805235516968748
-1.0995751692056968
0.09637303083411639
-0.6805235516968748
-1.0995751692056968
0.09637303083411639
-0.6805235516968748
-1.0995751692056968
0.09637303083411639
-0.6805235516968748
-1.1006330364148578
0.09625062763883767
-0.6811907684895392
-1.1006330364148578
0.09625062763883767
-0.6811907684895392
-1.1006330364148578
0.09625062763883767
-0.6811907684895392
-1.1006330364148578
0.09625062763883767
-0.6811907684895392
-1.100908227575189
0.0963147634817325
-0.6821987421653541
-1.100908227575189
0.0963147634817325
-0.6821987421653541
-1.100908227575189
0.0963147634817325
-0.6821987421653541
-1.100908227575189
0.0963147634817325
-0.6821987421653541
-1.1007506414990573
0.09646327141535166
-0.6832784317508344
-1.1007506414990573
0.09646327141535166
-0.6832784317508344
-1.1007506414990573
0.09646327141535166
-0.6832784317508344
-1.1007506414990573
0.09646327141535166
-0.6832784317508344
-1.1005842656540443
0.0966652004224061
-0.683844647868792
-1.1005842656540443
0.0966652004224061
-0.683844647868792
-1.1005842656540443
0.0966652004224061
-0.683844647868792
-1.1005842656540443
0.0966652004224061
-0.683844647868792
-1.1015255477558474
0.09695588451070897
-0.6841258009232009
-1.1015255477558474
0.09695588451070897
-0.6841258009232009
-1.1015255477558474
0.09695588451070897
-0.6841258009232009
-1.1015255477558474
0.09695588451070897
-0.6841258009232009
-1.1022148748813096
0.09704529238174668
-0.6843590208998375
-1.1022148748813096
0.09704529238174668
-0.6843590208998375
-1.1022148748813096
0.09704529238174668
-0.6843590208998375
-1.1022148748813096
0.09704529238174668
-0.6843590208998375
-1.101924836053968
0.09783748173092441
-0.6844661008110537
-1.101924836053968
0.09783748173092441
-0.6844661008110537
-1.101924836053968
0.09783748173092441
-0.6844661008110537
-1.101924836053968
0.09783748173092441
-0.6844661008110537
-1.101508541355257
0.09936493831322381
-0.6839734832030926
-1.101508541355257
0.09936493831322381
-0.6839734832030926
-1.101508541355257
0.09936493831322381
-0.6839734832030926
-1.101508541355257
0.09936493831322381
-0.6839734832030926
-1.1013450274796315
0.10024546384311689
-0.6845963330588803
-1.1013450274796315
0.10024546384311689
-0.6845963330588803
-1.1013450274796315
0.10024546384311689
-0.6845963330588803
-1.1013450274796315
0.10024546384311689
-0.6845963330588803
-1.1037123160231253
0.10119273956651767
-0.6851008468744978
-1.1037123160231253
0.10119273956651767
-0.6851008468744978
-1.1037123160231253
0.10119273956651767
-0.6851008468744978
-1.1037123160231253
0.10119273956651767
-0.6851008468744978
-1.1046676880368014
0.10198422829024999
-0.6847877881697023
-1.1046676880368014
0.10198422829024999
-0.6847877881697023
-1.1046676880368014
0.10198422829024999
-0.6847877881697023
-1.1046676880368014
0.10198422829024999
-0.6847877881697023
-1.102580738959363
0.10177524881940739
-0.6850244460441915
-1.102580738959363
0.10177524881940739
-0.6850244460441915
-1.102580738959363
0.10177524881940739
-0.6850244460441915
-1.102580738959363
0.10177524881940739
-0.6850244460441915
-1.1007149669667078
0.10300064676335823
-0.6860218516600337
-1.1007149669667078
0.10300064676335823
-0.6860218516600337
-1.1007149669667078
0.10300064676335823
-0.6860218516600337
-1.1007149669667078
0.10300064676335823
-0.6860218516600337
-1.1004116227461946
0.1054996307089032
-0.6869022191844667
-1.1004116227461946
0.1054996307089032
-0.6869022191844667
-1.1004116227461946
0.1054996307089032
-0.6869022191844667
-1.1004116227461946
0.1054996307089032
-0.6869022191844667
-1.1028895243235282
0.10814685971283504
-0.6883331005944646
-1.1028895243235282
0.10814685971283504
-0.6883331005944646
-1.1028895243235282
0.10814685971283504
-0.6883331005944646
-1.1028895243235282
0.10814685971283504
-0.6883331005944646
-1.1104358330314856
0.11035570693665224
-0.6902640387407819
-1.1104358330314856
0.11035570693665224
-0.6902640387407819
-1.1104358330314856
0.11035570693665224
-0.6902640387407819
-1.1104358330314856
0.11035570693665224
-0.6902640387407819
-1.120087749886451
0.11213421568029015
-0.6925565940865203
-1.120087749886451
0.11213421568029015
-0.6925565940865203
-1.120087749886451
0.11213421568029015
-0.6925565940865203
-1.120087749886451
0.11213421568029015
-0.6925565940865203
-1.1301747309929469
0.11353479590554585
-0.6952210770414488
-1.1301747309929469
0.11353479590554585
-0.6952210770414488
-1.1301747309929469
0.11353479590554585
-0.6952210770414488
-1.1301747309929469
0.11353479590554585
-0.6952210770414488
-1.1436021887268577
0.1125331088432433
-0.6967105493744288
-1.1436021887268577
0.1125331088432433
-0.6967105493744288
-1.1436021887268577
0.1125331088432433
-0.6967105493744288
-1.1436021887268577
0.1125331088432433
-0.6967105493744288
-1.153226779059421
0.11243611325934597
-0.6992907160523665
-1.153226779059421
0.11243611325934597
-0.6992907160523665
-1.153226779059421
0.11243611325934597
-0.6992907160523665
-1.153226779059421
0.11243611325934597
-0.6992907160523665
-1.1606228530635685
0.11057326602221684
-0.6983420178343911
-1.1606228530635685
0.11057326602221684
-0.6983420178343911
-1.1606228530635685
0.11057326602221684
-0.6983420178343911
-1.1606228530635685
0.11057326602221684
-0.6983420178343911
-1.1551033446201382
0.10666977027495361
-0.6935466426550323
-1.1551033446201382
0.10666977027495361
-0.6935466426550323
-1.1551033446201382
0.10666977027495361
-0.6935466426550323
-1.1551033446201382
0.10666977027495361
-0.6935466426550323
-1.1485586271893888
0.10277386061845684
-0.6892796232770474
-1.1485586271893888
0.10277386061845684
-0.6892796232770474
-1.1485586271893888
0.10277386061845684
-0.6892796232770474
-1.1485586271893888
0.10277386061845684
-0.6892796232770474
-1.1383000122163909
0.09981158870981607
-0.6856969762716143
-1.1383000122163909
0.09981158870981607
-0.6856969762716143
-1.1383000122163909
0.09981158870981607
-0.6856969762716143
-1.1383000122163909
0.09981158870981607
-0.6856969762716143
-1.127710898930566
0.09702892744908959
-0.6825348677922743
-1.127710898930566
0.09702892744908959
-0.6825348677922743
-1.127710898930566
0.09702892744908959
-0.6825348677922743
-1.127710898930566
0.09702892744908959
-0.6825348677922743
-1.1205151734679446
0.09447340636602936
-0.678987759138318
-1.1205151734679446
0.09447340636602936
-0.678987759138318
-1.1205151734679446
0.09447340636602936
-0.678987759138318
-1.1205151734679446
0.09447340636602936
-0.678987759138318
-1.1175248058862253
0.09248480524147713
-0.6752463066110242
-1.1175248058862253
0.09248480524147713
-0.6752463066110242
-1.1175248058862253
0.09248480524147713
-0.6752463066110242
-1.1175248058862253
0.09248480524147713
-0.6752463066110242
-1.118155062473344
0.09036614106446463
-0.6713573191324677
-1.118155062473344
0.09036614106446463
-0.6713573191324677
-1.118155062473344
0.09036614106446463
-0.6713573191324677
-1.118155062473344
0.09036614106446463
-0.6713573191324677
-1.1166995970192815
0.08801807817687811
-0.6684442980791818
-1.1166995970192815
0.08801807817687811
-0.6684442980791818
-1.1166995970192815
0.08801807817687811
-0.6684442980791818
-1.1166995970192815
0.08801807817687811
-0.6684442980791818
-1.1144704208916467
0.08628660016399063
-0.6669305454534875
-1.1144704208916467
0.08628660016399063
-0.6669305454534875
-1.1103352501788677
0.08563030460935368
-0.6659060007526368
-1.1103352501788677
0.08563030460935368
-0.6659060007526368
-1.1103352501788677
0.08563030460935368
-0.6659060007526368
-1.1103352501788677
0.08563030460935368
-0.6659060007526368
-1.1103352501788677
0.08563030460935368
-0.6659060007526368
-1.1103352501788677
0.08563030460935368
-0.6659060007526368
-1.106233082843978
0.08533305762299989
-0.6652475314882037
-1.106233082843978
0.08533305762299989
-0.6652475314882037
-1.106233082843978
0.08533305762299989
-0.6652475314882037
-1.106233082843978
0.08533305762299989
-0.6652475314882037
-1.102443299551692
0.08521984680261242
-0.6646732556929881
-1.102443299551692
0.08521984680261242
-0.6646732556929881
-1.102443299551692
0.08521984680261242
-0.6646732556929881
-1.102443299551692
0.08521984680261242
-0.6646732556929881
-1.1006774458778046
0.08493864421735407
-0.6640514245394383
-1.1006774458778046
0.08493864421735407
-0.6640514245394383
-1.1006774458778046
0.08493864421735407
-0.6640514245394383
-1.1006774458778046
0.08493864421735407
-0.6640514245394383
-1.0987687648429678
0.08477099168905848
-0.6633123759629699
-1.0987687648429678
0.08477099168905848
-0.6633123759629699
-1.0987687648429678
0.08477099168905848
-0.6633123759629699
-1.0987687648429678
0.08477099168905848
-0.6633123759629699
-1.09751404532799
0.0846935508047596
-0.6631129903626595
-1.09751404532799
0.0846935508047596
-0.6631129903626595
-1.09751404532799
0.0846935508047596
-0.6631129903626595
-1.09751404532799
0.0846935508047596
-0.6631129903626595
-1.0953109833580041
0.0850456435873754
-0.6621806144646968
-1.0953109833580041
0.0850456435873754
-0.6621806144646968
-1.0953109833580041
0.0850456435873754
-0.6621806144646968
-1.0953109833580041
0.0850456435873754
-0.6621806144646968
-1.092535082384322
0.08515306022360034
-0.6617052010198812
-1.092535082384322
0.08515306022360034
-0.6617052010198812
-1.092535082384322
0.08515306022360034
-0.6617052010198812
-1.092535082384322
0.08515306022360034
-0.6617052010198812
-1.0900283361638408
0.08549973424314254
-0.6614340581289828
-1.0900283361638408
0.08549973424314254
-0.6614340581289828
-1.0900283361638408
0.08549973424314254
-0.6614340581289828
-1.0900283361638408
0.08549973424314254
-0.6614340581289828
-1.0905802433480045
0.08553699941405804
-0.6616175758884112
-1.0905802433480045
0.08553699941405804
-0.6616175758884112
-1.0905802433480045
0.08553699941405804
-0.6616175758884112
-1.0905802433480045
0.08553699941405804
-0.6616175758884112
-1.0920672431635416
0.08628853014807922
-0.6618309807402288
-1.0920672431635416
0.08628853014807922
-0.6618309807402288
-1.0920672431635416
0.08628853014807922
-0.6618309807402288
-1.0920672431635416
0.08628853014807922
-0.6618309807402288
-1.0930808277361557
0.08668731919235952
-0.6611284861055882
-1.0930808277361557
0.08668731919235952
-0.6611284861055882
-1.0930808277361557
0.08668731919235952
-0.6611284861055882
-1.0930808277361557
0.08668731919235952
-0.6611284861055882
-1.0928554239266302
0.08706857065264004
-0.6601276039601512
-1.0928554239266302
0.08706857065264004
-0.6601276039601512
-1.0928554239266302
0.08706857065264004
-0.6601276039601512
-1.0928554239266302
0.08706857065264004
-0.6601276039601512
-1.0928954509320354
0.08742819677569522
-0.6597605408006989
-1.0928954509320354
0.08742819677569522
-0.6597605408006989
-1.0928954509320354
0.08742819677569522
-0.6597605408006989
-1.0928954509320354
0.08742819677569522
-0.6597605408006989
-1.092948242046862
0.08758731218646286
-0.6597241600612558
-1.092948242046862
0.08758731218646286
-0.6597241600612558
-1.092948242046862
0.08758731218646286
-0.6597241600612558
-1.092948242046862
0.08758731218646286
-0.6597241600612558
-1.0929306004809018
0.08805579669702694
-0.6596928324668447
-1.0929306004809018
0.08805579669702694
-0.6596928324668447
-1.0929306004809018
0.08805579669702694
-0.6596928324668447
-1.0929306004809018
0.08805579669702694
-0.6596928324668447
-1.0919331358179842
0.08920809780606763
-0.6588073934637433
-1.0919331358179842
0.08920809780606763
-0.6588073934637433
-1.0919331358179842
0.08920809780606763
-0.6588073934637433
-1.0919331358179842
0.08920809780606763
-0.6588073934637433
-1.0924185145627865
0.09060898210943057
-0.6580095467181339
-1.0924185145627865
0.09060898210943057
-0.6580095467181339
-1.0924185145627865
0.09060898210943057
-0.6580095467181339
-1.0924185145627865
0.09060898210943057
-0.6580095467181339
-1.0938891105030155
0.0918511667604053
-0.6572101806128763
-1.0938891105030155
0.0918511667604053
-0.6572101806128763
-1.0938891105030155
0.0918511667604053
-0.6572101806128763
-1.0938891105030155
0.0918511667604053
-0.6572101806128763
-1.09474625098085
0.09345242265703392
-0.6558761127017128
-1.09474625098085
0.09345242265703392
-0.6558761127017128
-1.09474625098085
0.09345242265703392
-0.6558761127017128
-1.09474625098085
0.09345242265703392
-0.6558761127017128
-1.0930366600878132
0.0946108865852994
-0.6540534594245841
-1.0930366600878132
0.0946108865852994
-0.6540534594245841
-1.0930366600878132
0.0946108865852994
-0.6540534594245841
-1.0930366600878132
0.0946108865852994
-0.6540534594245841
-1.0957279050818425
0.09749409378616887
-0.6529171197812313
-1.0957279050818425
0.09749409378616887
-0.6529171197812313
-1.0957279050818425
0.09749409378616887
-0.6529171197812313
-1.0957279050818425
0.09749409378616887
-0.6529171197812313
-1.100286832842675
0.09902909766952105
-0.6497876631092694
-1.100286832842675
0.09902909766952105
-0.6497876631092694
-1.100286832842675
0.09902909766952105
-0.6497876631092694
-1.100286832842675
0.09902909766952105
-0.6497876631092694
-1.0956096309207672
0.1006890568100256
-0.6448552206451995
-1.0956096309207672
0.1006890568100256
-0.6448552206451995
-1.0956096309207672
0.1006890568100256
-0.6448552206451995
-1.0956096309207672
0.1006890568100256
-0.6448552206451995
-1.0939969553851738
0.10278502741772964
-0.6396237649386008
-1.0939969553851738
0.10278502741772964
-0.6396237649386008
-1.0939969553851738
0.10278502741772964
-0.6396237649386008
-1.0939969553851738
0.10278502741772964
-0.6396237649386008
-1.0911253983626232
0.10424721380603667
-0.6343058030748658
-1.0911253983626232
0.10424721380603667
-0.6343058030748658
-1.0911253983626232
0.10424721380603667
-0.6343058030748658
-1.0911253983626232
0.10424721380603667
-0.6343058030748658
-1.0806330711793362
0.10309650817616894
-0.6302589023069678
-1.0806330711793362
0.10309650817616894
-0.6302589023069678
-1.0806330711793362
0.10309650817616894
-0.6302589023069678
-1.0806330711793362
0.10309650817616894
-0.6302589023069678
-1.0622565324160718
0.09958622054547081
-0.6309546999014419
-1.0622565324160718
0.09958622054547081
-0.6309546999014419
-1.0622565324160718
0.09958622054547081
-0.6309546999014419
-1.0622565324160718
0.09958622054547081
-0.6309546999014419
-1.045318856147372
0.09810334767802552
-0.6319524191788735
-1.045318856147372
0.09810334767802552
-0.6319524191788735
-1.045318856147372
0.09810334767802552
-0.6319524191788735
-1.045318856147372
0.09810334767802552
-0.6319524191788735
-1.0419070839089049
0.0961262673209651
-0.6311543556508882
-1.0419070839089049
0.0961262673209651
-0.6311543556508882
-1.0419070839089049
0.0961262673209651
-0.6311543556508882
-1.0419070839089049
0.0961262673209651
-0.6311543556508882
-1.0409328271060083
0.09308283036562036
-0.6288750926392795
-1.0409328271060083
0.09308283036562036
-0.6288750926392795
-1.0409328271060083
0.09308283036562036
-0.6288750926392795
-1.0409328271060083
0.09308283036562036
-0.6288750926392795
-1.03893155653979
0.08950194551087237
-0.629414581292751
-1.03893155653979
0.08950194551087237
-0.629414581292751
-1.03893155653979
0.08950194551087237
-0.629414581292751
-1.03893155653979
0.08950194551087237
-0.629414581292751
-1.0369146664534072
0.08714470216387236
-0.6325713805797292
-1.0369146664534072
0.08714470216387236
-0.6325713805797292
-1.0336165067114904
0.08547076054003443
-0.636596297150985
-1.0336165067114904
0.08547076054003443
-0.636596297150985
-1.0336165067114904
0.08547076054003443
-0.636596297150985
-1.0336165067114904
0.08547076054003443
-0.636596297150985
-1.0336165067114904
0.08547076054003443
-0.636596297150985
-1.0336165067114904
0.08547076054003443
-0.636596297150985
-1.0304260315772238
0.08333567069312049
-0.6413855918635368
-1.0304260315772238
0.08333567069312049
-0.6413855918635368
-1.0304260315772238
0.08333567069312049
-0.6413855918635368
-1.0304260315772238
0.08333567069312049
-0.6413855918635368
-1.0289879520613059
0.08233170186192519
-0.6452886528274485
-1.0289879520613059
0.08233170186192519
-0.6452886528274485
-1.0289879520613059
0.08233170186192519
-0.6452886528274485
-1.0289879520613059
0.08233170186192519
-0.6452886528274485
-1.0305016319328668
0.08113281375173051
-0.6484896703407546
-1.0305016319328668
0.08113281375173051
-0.6484896703407546
-1.0305016319328668
0.08113281375173051
-0.6484896703407546
-1.0305016319328668
0.08113281375173051
-0.6484896703407546
-1.0327800123725266
0.08071760952101999
-0.6514152193090746
-1.0327800123725266
0.08071760952101999
-0.6514152193090746
-1.0327800123725266
0.08071760952101999
-0.6514152193090746
-1.0327800123725266
0.08071760952101999
-0.6514152193090746
-1.0360047091939262
0.0806674761472535
-0.6545023539635512
-1.0360047091939262
0.0806674761472535
-0.6545023539635512
-1.0360047091939262
0.0806674761472535
-0.6545023539635512
-1.0360047091939262
0.0806674761472535
-0.6545023539635512
-1.0387400807265241
0.07992024679654557
-0.6572194325712116
-1.0387400807265241
0.07992024679654557
-0.6572194325712116
-1.040344738869473
0.0794371644409693
-0.65981785782624
-1.040344738869473
0.0794371644409693
-0.65981785782624
-1.040344738869473
0.0794371644409693
-0.65981785782624
-1.040344738869473
0.0794371644409693
-0.65981785782624
-1.0437277133517122
0.07820257916981975
-0.66166411379146
-1.0437277133517122
0.07820257916981975
-0.66166411379146
-1.0437277133517122
0.07820257916981975
-0.66166411379146
-1.0437277133517122
0.07820257916981975
-0.66166411379146
-1.0498355465355735
0.07568262998946237
-0.663377423409016
-1.0498355465355735
0.07568262998946237
-0.663377423409016
-1.0498355465355735
0.07568262998946237
-0.663377423409016
-1.0498355465355735
0.07568262998946237
-0.663377423409016
-1.055623513224437
0.0732027630733724
-0.6652233180406278
-1.055623513224437
0.0732027630733724
-0.6652233180406278
-1.055623513224437
0.0732027630733724
-0.6652233180406278
-1.055623513224437
0.0732027630733724
-0.6652233180406278
-1.060754005133288
0.07161018649264866
-0.6674198862974365
-1.060754005133288
0.07161018649264866
-0.6674198862974365
-1.060754005133288
0.07161018649264866
-0.6674198862974365
-1.060754005133288
0.07161018649264866
-0.6674198862974365
-1.064913208105159
0.07032890003934422
-0.6698906765627721
-1.064913208105159
0.07032890003934422
-0.6698906765627721
-1.064913208105159
0.07032890003934422
-0.6698906765627721
-1.064913208105159
0.07032890003934422
-0.6698906765627721
-1.0674114034234765
0.06943852157060425
-0.6723424737937965
-1.0674114034234765
0.06943852157060425
-0.6723424737937965
-1.0674114034234765
0.06943852157060425
-0.6723424737937965
-1.0674114034234765
0.06943852157060425
-0.6723424737937965
-1.0698276221315648
0.06852077232772369
-0.6745964584345036
-1.0698276221315648
0.06852077232772369
-0.6745964584345036
-1.0698276221315648
0.06852077232772369
-0.6745964584345036
-1.0698276221315648
0.06852077232772369
-0.6745964584345036
-1.0712727796500725
0.06784797680400553
-0.6765048282097945
-1.0712727796500725
0.06784797680400553
-0.6765048282097945
-1.0712727796500725
0.06784797680400553
-0.6765048282097945
-1.0712727796500725
0.06784797680400553
-0.6765048282097945
-1.0736712957166927
0.06777082609314018
-0.6773278669788755
-1.0736712957166927
0.06777082609314018
-0.6773278669788755
-1.0736712957166927
0.06777082609314018
-0.6773278669788755
-1.0736712957166927
0.06777082609314018
-0.6773278669788755
-1.0761116443932253
0.06751881772149321
-0.6779143203471271
-1.0761116443932253
0.06751881772149321
-0.6779143203471271
-1.0761116443932253
0.06751881772149321
-0.6779143203471271
-1.0761116443932253
0.06751881772149321
-0.6779143203471271
-1.0782830769078933
0.06792036339871017
-0.6788353612370263
-1.0782830769078933
0.06792036339871017
-0.6788353612370263
-1.0782830769078933
0.06792036339871017
-0.6788353612370263
-1.0782830769078933
0.06792036339871017
-0.6788353612370263
-1.07887938727747
0.06783035298531488
-0.6796632397570335
-1.07887938727747
0.06783035298531488
-0.6796632397570335
-1.07887938727747
0.06783035298531488
-0.6796632397570335
-1.07887938727747
0.06783035298531488
-0.6796632397570335
-1.0786312211225852
0.06781821862540968
-0.6803648257397992
-1.0786312211225852
0.06781821862540968
-0.6803648257397992
-1.0786312211225852
0.06781821862540968
-0.6803648257397992
-1.0786312211225852
0.06781821862540968
-0.6803648257397992
-1.0785338226631649
0.06773779642887214
-0.6802674272803789
-1.0785338226631649
0.06773779642887214
-0.6802674272803789
-1.0785338226631649
0.06773779642887214
-0.6802674272803789
-1.0785338226631649
0.06773779642887214
-0.6802674272803789
-1.078728070770713
0.06860359019568993
-0.680254567006415
-1.078728070770713
0.06860359019568993
-0.680254567006415
-1.078728070770713
0.06860359019568993
-0.680254567006415
-1.078728070770713
0.06860359019568993
-0.680254567006415
-1.0797473390566519
0.06935341610061119
-0.6802101437854784
-1.0797473390566519
0.06935341610061119
-0.6802101437854784
-1.0797473390566519
0.06935341610061119
-0.6802101437854784
-1.0797473390566519
0.06935341610061119
-0.6802101437854784
-1.080396217810919
0.0701484562238886
-0.6805368963727351
-1.080396217810919
0.0701484562238886
-0.6805368963727351
-1.080396217810919
0.0701484562238886
-0.6805368963727351
-1.080396217810919
0.0701484562238886
-0.6805368963727351
-1.079910737750027
0.07108746506743283
-0.6813026963509771
-1.079910737750027
0.07108746506743283
-0.6813026963509771
-1.079910737750027
0.07108746506743283
-0.6813026963509771
-1.079910737750027
0.07108746506743283
-0.6813026963509771
-1.0799912639749807
0.07272950498185927
-0.6815710554158703
-1.0799912639749807
0.07272950498185927
-0.6815710554158703
-1.0799912639749807
0.07272950498185927
-0.6815710554158703
-1.0799912639749807
0.07272950498185927
-0.6815710554158703
-1.080534819668763
0.07375976300056385
-0.6815849332629846
-1.080534819668763
0.07375976300056385
-0.6815849332629846
-1.080534819668763
0.07375976300056385
-0.6815849332629846
-1.080534819668763
0.07375976300056385
-0.6815849332629846
-1.0812830094902888
0.07463459595214211
-0.6820114242956892
-1.0812830094902888
0.07463459595214211
-0.6820114242956892
-1.0812830094902888
0.07463459595214211
-0.6820114242956892
-1.0812830094902888
0.07463459595214211
-0.6820114242956892
-1.0818929168392843
0.07560088727761001
-0.6825773357903933
-1.0818929168392843
0.07560088727761001
-0.6825773357903933
-1.0818929168392843
0.07560088727761001
-0.6825773357903933
-1.0818929168392843
0.07560088727761001
-0.6825773357903933
-1.0824372856259854
0.07617242960532287
-0.6833537327495256
-1.0824372856259854
0.07617242960532287
-0.6833537327495256
-1.0824372856259854
0.07617242960532287
-0.6833537327495256
-1.0824372856259854
0.07617242960532287
-0.6833537327495256
-1.0825639897876929
0.07691358959529018
-0.6838509446024111
-1.0825639897876929
0.07691358959529018
-0.6838509446024111
-1.0825639897876929
0.07691358959529018
-0.6838509446024111
-1.0825639897876929
0.07691358959529018
-0.6838509446024111
-1.08392806218133
0.07811884849691039
-0.683879864434549
-1.08392806218133
0.07811884849691039
-0.683879864434549
-1.08392806218133
0.07811884849691039
-0.683879864434549
-1.08392806218133
0.07811884849691039
-0.683879864434549
-1.085009400435096
0.07873198164095216
-0.683764162116654
-1.085009400435096
0.07873198164095216
-0.683764162116654
-1.085009400435096
0.07873198164095216
-0.683764162116654
-1.085009400435096
0.07873198164095216
-0.683764162116654
-1.0856356977915422
0.07895844087517302
-0.6840683807276786
-1.0856356977915422
0.07895844087517302
-0.6840683807276786
-1.0856356977915422
0.07895844087517302
-0.6840683807276786
-1.0856356977915422
0.07895844087517302
-0.6840683807276786
-1.0858090108843732
0.07841109469382292
-0.6843782991987472
-1.0858090108843732
0.07841109469382292
-0.6843782991987472
-1.0858090108843732
0.07841109469382292
-0.6843782991987472
-1.0858090108843732
0.07841109469382292
-0.6843782991987472
-1.0862707606046382
0.07816236459949132
-0.6847931702324378
-1.0862707606046382
0.07816236459949132
-0.6847931702324378
-1.0862707606046382
0.07816236459949132
-0.6847931702324378
-1.0862707606046382
0.07816236459949132
-0.6847931702324378
-1.0876440726589283
0.07834429111141074
-0.6852449204925588
-1.0876440726589283
0.07834429111141074
-0.6852449204925588
-1.0876440726589283
0.07834429111141074
-0.6852449204925588
-1.0876440726589283
0.07834429111141074
-0.6852449204925588
-1.0888874573830296
0.07817241581422908
-0.6856114562600707
-1.0888874573830296
0.07817241581422908
-0.6856114562600707
-1.0888874573830296
0.07817241581422908
-0.6856114562600707
-1.0888874573830296
0.07817241581422908
-0.6856114562600707
-1.089845383525602
0.07779473682042042
-0.6862447640449679
-1.089845383525602
0.07779473682042042
-0.6862447640449679
-1.089845383525602
0.07779473682042042
-0.6862447640449679
-1.089845383525602
0.07779473682042042
-0.6862447640449679
-1.0910535145516551
0.07749990445565065
-0.6868060914924605
-1.0910535145516551
0.07749990445565065
-0.6868060914924605
-1.0910535145516551
0.07749990445565065
-0.6868060914924605
-1.0910535145516551
0.07749990445565065
-0.6868060914924605
-1.0926589617579616
0.07699598783900528
-0.6874868335043443
-1.0926589617579616
0.07699598783900528
-0.6874868335043443
-1.0926589617579616
0.07699598783900528
-0.6874868335043443
-1.0926589617579616
0.07699598783900528
-0.6874868335043443
-1.0934327026100563
0.07692807865013328
-0.687982769095356
-1.0934327026100563
0.07692807865013328
-0.687982769095356
-1.0934327026100563
0.07692807865013328
-0.687982769095356
-1.0934327026100563
0.07692807865013328
-0.687982769095356
-1.0939768786871666
0.07667057638409394
-0.688848979777359
-1.0939768786871666
0.07667057638409394
-0.688848979777359
-1.0939768786871666
0.07667057638409394
-0.688848979777359
-1.0939768786871666
0.07667057638409394
-0.688848979777359
-1.0941412633433387
0.0766826597560139
-0.6894980065867311
-1.0941412633433387
0.0766826597560139
-0.6894980065867311
-1.0941412633433387
0.0766826597560139
-0.6894980065867311
-1.0941412633433387
0.0766826597560139
-0.6894980065867311
-1.0952509019719883
0.07642220971839846
-0.6900756595915395
-1.0952509019719883
0.07642220971839846
-0.6900756595915395
-1.0952509019719883
0.07642220971839846
-0.6900756595915395
-1.0952509019719883
0.07642220971839846
-0.6900756595915395
-1.09642262657244
0.07575866599573075
-0.6902745503899161
-1.09642262657244
0.07575866599573075
-0.6902745503899161
-1.09642262657244
0.07575866599573075
-0.6902745503899161
-1.09642262657244
0.07575866599573075
-0.6902745503899161
-1.0972108577421158
0.07478461831399545
-0.6908965475753057
-1.0972108577421158
0.07478461831399545
-0.6908965475753057
-1.0972108577421158
0.07478461831399545
-0.6908965475753057
-1.0972108577421158
0.07478461831399545
-0.6908965475753057
-1.0977740202782846
0.07431834073054318
-0.6913646589965922
-1.0977740202782846
0.07431834073054318
-0.6913646589965922
-1.0977740202782846
0.07431834073054318
-0.6913646589965922
-1.0977740202782846
0.07431834073054318
-0.6913646589965922
-1.0990372421444516
0.07317706521781805
-0.6920438241189211
-1.0990372421444516
0.07317706521781805
-0.6920438241189211
-1.0990372421444516
0.07317706521781805
-0.6920438241189211
-1.0990372421444516
0.07317706521781805
-0.6920438241189211
-1.0993923078722163
0.07240550008644275
-0.6928570161429284
-1.0993923078722163
0.07240550008644275
-0.6928570161429284
-1.0993923078722163
0.07240550008644275
-0.6928570161429284
-1.0993923078722163
0.07240550008644275
-0.6928570161429284
-1.0994255112368823
0.07203779291114228
-0.6936747102621026
-1.0994255112368823
0.07203779291114228
-0.6936747102621026
-1.0994255112368823
0.07203779291114228
-0.6936747102621026
-1.0994255112368823
0.07203779291114228
-0.6936747102621026
-1.0998210632038519
0.07221150260528887
-0.6942094900166623
-1.0998210632038519
0.07221150260528887
-0.6942094900166623
-1.0998210632038519
0.07221150260528887
-0.6942094900166623
-1.0998210632038519
0.07221150260528887
-0.6942094900166623
-1.1008724627496687
0.0727882860117382
-0.6946631978732307
-1.1008724627496687
0.0727882860117382
-0.6946631978732307
-1.1008724627496687
0.0727882860117382
-0.6946631978732307
-1.1008724627496687
0.0727882860117382
-0.6946631978732307
-1.1018471550797764
0.07357987561742528
-0.695155952830082
-1.1018471550797764
0.07357987561742528
-0.695155952830082
-1.1018471550797764
0.07357987561742528
-0.695155952830082
-1.1018471550797764
0.07357987561742528
-0.695155952830082
-1.1027313729289332
0.07406412846801515
-0.6961353240773988
-1.1027313729289332
0.07406412846801515
-0.6961353240773988
-1.1027313729289332
0.07406412846801515
-0.6961353240773988
-1.1027313729289332
0.07406412846801515
-0.6961353240773988
-1.1030050968193659
0.07465614684459036
-0.6970130410978191
-1.1030050968193659
0.07465614684459036
-0.6970130410978191
-1.1030050968193659
0.07465614684459036
-0.6970130410978191
-1.1030050968193659
0.07465614684459036
-0.6970130410978191
-1.1030418123390768
0.0754030497366006
-0.6977923964325023
-1.1030418123390768
0.0754030497366006
-0.6977923964325023
-1.1030418123390768
0.0754030497366006
-0.6977923964325023
-1.1030418123390768
0.0754030497366006
-0.6977923964325023
-1.1033278638769524
0.07625852199695995
-0.6982442106524079
-1.1033278638769524
0.07625852199695995
-0.6982442106524079
-1.1033278638769524
0.07625852199695995
-0.6982442106524079
-1.1033278638769524
0.07625852199695995
-0.6982442106524079
-1.1043757403484418
0.07741789839200083
-0.6987901227668909
-1.1043757403484418
0.07741789839200083
-0.6987901227668909
-1.1043757403484418
0.07741789839200083
-0.6987901227668909
-1.1043757403484418
0.07741789839200083
-0.6987901227668909
-1.1050209311889054
0.07796470198186507
-0.6992996984736601
-1.1050209311889054
0.07796470198186507
-0.6992996984736601
-1.1050209311889054
0.07796470198186507
-0.6992996984736601
-1.1050209311889054
0.07796470198186507
-0.6992996984736601
-1.1052029823184002
0.07830030927278199
-0.7001522318164071
-1.1052029823184002
0.07830030927278199
-0.7001522318164071
-1.1052029823184002
0.07830030927278199
-0.7001522318164071
-1.1052029823184002
0.07830030927278199
-0.7001522318164071
-1.1051018665556231
0.0791639754247136
-0.7008157616127825
-1.1051018665556231
0.0791639754247136
-0.7008157616127825
-1.1051018665556231
0.0791639754247136
-0.7008157616127825
-1.1051018665556231
0.0791639754247136
-0.7008157616127825
-1.1053028731924217
0.0795609329369845
-0.7015715148774337
-1.1053028731924217
0.0795609329369845
-0.7015715148774337
-1.1053028731924217
0.0795609329369845
-0.7015715148774337
-1.1053028731924217
0.0795609329369845
-0.7015715148774337
-1.1058343582336985
0.08008311458735486
-0.7021972043953368
-1.1058343582336985
0.08008311458735486
-0.7021972043953368
-1.1058343582336985
0.08008311458735486
-0.7021972043953368
-1.1058343582336985
0.08008311458735486
-0.7021972043953368
-1.1063351314670629
0.08030546912290856
-0.7030902757617838
-1.1063351314670629
0.08030546912290856
-0.7030902757617838
-1.1063351314670629
0.08030546912290856
-0.7030902757617838
-1.1063351314670629
0.08030546912290856
-0.7030902757617838
-1.1062452271045806
0.08040690632416547
-0.7037378297138693
-1.1062452271045806
0.08040690632416547
-0.7037378297138693
-1.1062452271045806
0.08040690632416547
-0.7037378297138693
-1.1062452271045806
0.08040690632416547
-0.7037378297138693
-1.1066864809947266
0.08008790198840732
-0.704247215019757
-1.1066864809947266
0.08008790198840732
-0.704247215019757
-1.1066864809947266
0.08008790198840732
-0.704247215019757
-1.1066864809947266
0.08008790198840732
-0.704247215019757
-1.1072609467635814
0.07985371489221103
-0.7045445143250089
-1.1072609467635814
0.07985371489221103
-0.7045445143250089
-1.1072609467635814
0.07985371489221103
-0.7045445143250089
-1.1072609467635814
0.07985371489221103
-0.7045445143250089
-1.1072992740048477
0.07995020977263062
-0.7046063351427145
-1.1072992740048477
0.07995020977263062
-0.7046063351427145
-1.1072992740048477
0.07995020977263062
-0.7046063351427145
-1.1072992740048477
0.07995020977263062
-0.7046063351427145
-1.1071778830250856
0.07948572624193581
-0.705220317437474
-1.1071778830250856
0.07948572624193581
-0.705220317437474
-1.1071778830250856
0.07948572624193581
-0.705220317437474
-1.1071778830250856
0.07948572624193581
-0.705220317437474
-1.1075551117302944
0.07947728759477636
-0.705736128287599
-1.1075551117302944
0.07947728759477636
-0.705736128287599
-1.1075551117302944
0.07947728759477636
-0.705736128287599
-1.1075551117302944
0.07947728759477636
-0.705736128287599
-1.1084264262362096
0.07936053146008092
-0.7062151308806821
-1.1084264262362096
0.07936053146008092
-0.7062151308806821
-1.1084264262362096
0.07936053146008092
-0.7062151308806821
-1.1084264262362096
0.07936053146008092
-0.7062151308806821
-1.1087213430235754
0.07842453709626517
-0.7070602501133136
-1.1087213430235754
0.07842453709626517
-0.7070602501133136
-1.1087213430235754
0.07842453709626517
-0.7070602501133136
-1.1087213430235754
0.07842453709626517
-0.7070602501133136
-1.1087190783059961
0.0780724579696706
-0.7079327727260764
-1.1087190783059961
0.0780724579696706
-0.7079327727260764
-1.1087190783059961
0.0780724579696706
-0.7079327727260764
-1.1087190783059961
0.0780724579696706
-0.7079327727260764
-1.1095912750876529
0.0779274685923806
-0.7086663370507873
-1.1095912750876529
0.0779274685923806
-0.7086663370507873
-1.1095912750876529
0.0779274685923806
-0.7086663370507873
-1.1095912750876529
0.0779274685923806
-0.7086663370507873
-1.1103035427507872
0.07786578534297703
-0.7091247313184055
-1.1103035427507872
0.07786578534297703
-0.7091247313184055
-1.1103035427507872
0.07786578534297703
-0.7091247313184055
-1.1103035427507872
0.07786578534297703
-0.7091247313184055
-1.110391566463316
0.07794391695631213
-0.7099509396932967
-1.110391566463316
0.07794391695631213
-0.7099509396932967
-1.110391566463316
0.07794391695631213
-0.7099509396932967
-1.110391566463316
0.07794391695631213
-0.7099509396932967
-1.1110457252666486
0.07801628550045386
-0.7104898695311341
-1.1110457252666486
0.07801628550045386
-0.7104898695311341
-1.1110457252666486
0.07801628550045386
-0.7104898695311341
-1.1110457252666486
0.07801628550045386
-0.7104898695311341
-1.1109956768019276
0.07762740993869092
-0.7111078809814948
-1.1109956768019276
0.07762740993869092
-0.7111078809814948
-1.1109956768019276
0.07762740993869092
-0.7111078809814948
-1.1109956768019276
0.07762740993869092
-0.7111078809814948
-1.111496702799411
0.07728700140778032
-0.7116540985757817
-1.111496702799411
0.07728700140778032
-0.7116540985757817
-1.111496702799411
0.07728700140778032
-0.7116540985757817
-1.111496702799411
0.07728700140778032
-0.7116540985757817
-1.1121945643124824
0.07698538928373462
-0.7122818759619534
-1.1121945643124824
0.07698538928373462
-0.7122818759619534
-1.1121945643124824
0.07698538928373462
-0.7122818759619534
-1.1121945643124824
0.07698538928373462
-0.7122818759619534
-1.1129978529970703
0.07735271273938675
-0.7126941825305613
-1.1129978529970703
0.07735271273938675
-0.7126941825305613
-1.1129978529970703
0.07735271273938675
-0.7126941825305613
-1.1129978529970703
0.07735271273938675
-0.7126941825305613
-1.1129978529970703
0.07735271273938675
-0.7126941825305613
-1.1129978529970703
0.07735271273938675
-0.7126941825305613
-1.1129978529970703
0.07735271273938675
-0.7126941825305613
-1.1129978529970703
0.07735271273938675
-0.7126941825305613
-1.1130364390286858
0.0774489060353711
-0.7127561500314026
-1.1130364390286858
0.0774489060353711
-0.7127561500314026
-1.1130364390286858
0.0774489060353711
-0.7127561500314026
-1.1130364390286858
0.0774489060353711
-0.7127561500314026
-1.1128445490884207
0.07694056189361972
-0.7127012839994165
-1.1128445490884207
0.07694056189361972
-0.7127012839994165
-1.1128445490884207
0.07694056189361972
-0.7127012839994165
-1.1128445490884207
0.07694056189361972
-0.7127012839994165
-1.1127436680017548
0.07659776701250079
-0.7122996521060505
-1.1127436680017548
0.07659776701250079
-0.7122996521060505
-1.1127436680017548
0.07659776701250079
-0.7122996521060505
-1.1127436680017548
0.07659776701250079
-0.7122996521060505
-1.1135264133188345
0.07640015797780654
-0.7119509651932073
-1.1135264133188345
0.07640015797780654
-0.7119509651932073
-1.1135264133188345
0.07640015797780654
-0.7119509651932073
-1.1135264133188345
0.07640015797780654
-0.7119509651932073
-1.1145015318788203
0.07641866046360182
-0.7116108614384815
-1.1145015318788203
0.07641866046360182
-0.7116108614384815
-1.1145015318788203
0.07641866046360182
-0.7116108614384815
-1.1145015318788203
0.07641866046360182
-0.7116108614384815
-1.1145015318788203
0.07641866046360182
-0.7116108614384815
-1.1145015318788203
0.07641866046360182
-0.7116108614384815
-1.1145015318788203
0.07641866046360182
-0.7116108614384815
-1.1145015318788203
0.07641866046360182
-0.7116108614384815
-1.113362917711884
0.0761035665209076
-0.7112557988411834
-1.113362917711884
0.0761035665209076
-0.7112557988411834
-1.113362917711884
0.0761035665209076
-0.7112557988411834
-1.113362917711884
0.0761035665209076
-0.7112557988411834
-1.1124973962973022
0.07604703773390922
-0.7108515345270603
-1.1124973962973022
0.07604703773390922
-0.7108515345270603
-1.1124973962973022
0.07604703773390922
-0.7108515345270603
-1.1124973962973022
0.07604703773390922
-0.7108515345270603
-1.1120603963502402
0.07578358749607328
-0.7102522475292584
-1.1120603963502402
0.07578358749607328
-0.7102522475292584
-1.1120603963502402
0.07578358749607328
-0.7102522475292584
-1.1120603963502402
0.07578358749607328
-0.7102522475292584
-1.111546810348999
0.07532723487073323
-0.7095293377125655
-1.111546810348999
0.07532723487073323
-0.7095293377125655
-1.111546810348999
0.07532723487073323
-0.7095293377125655
-1.111546810348999
0.07532723487073323
-0.7095293377125655
-1.1099253023436886
0.07447356039308894
-0.7093139343907336
-1.1099253023436886
0.07447356039308894
-0.7093139343907336
-1.1099253023436886
0.07447356039308894
-0.7093139343907336
-1.1099253023436886
0.07447356039308894
-0.7093139343907336
-1.1056274276861973
0.07367206300237937
-0.709796602894276
-1.1056274276861973
0.07367206300237937
-0.709796602894276
-1.1056274276861973
0.07367206300237937
-0.709796602894276
-1.1056274276861973
0.07367206300237937
-0.709796602894276
-1.1018571789885407
0.07303605203272284
-0.7102323323406449
-1.1018571789885407
0.07303605203272284
-0.7102323323406449
-1.1018571789885407
0.07303605203272284
-0.7102323323406449
-1.1018571789885407
0.07303605203272284
-0.7102323323406449
-1.1015125467418236
0.07416942625361825
-0.710093949312683
-1.1015125467418236
0.07416942625361825
-0.710093949312683
-1.1015125467418236
0.07416942625361825
-0.710093949312683
-1.1015125467418236
0.07416942625361825
-0.710093949312683
-1.0980854577576726
0.07447019001240825
-0.7087680815362372
-1.0980854577576726
0.07447019001240825
-0.7087680815362372
-1.0980854577576726
0.07447019001240825
-0.7087680815362372
-1.0980854577576726
0.07447019001240825
-0.7087680815362372
-1.0950324016068738
0.07357437316372918
-0.7099918920539509
-1.0950324016068738
0.07357437316372918
-0.7099918920539509
-1.0950324016068738
0.07357437316372918
-0.7099918920539509
-1.0950324016068738
0.07357437316372918
-0.7099918920539509
-1.093361892690992
0.0745221461996971
-0.7119664199616542
-1.093361892690992
0.0745221461996971
-0.7119664199616542
-1.093361892690992
0.0745221461996971
-0.7119664199616542
-1.093361892690992
0.0745221461996971
-0.7119664199616542
-1.0934201539733452
0.07787156708727806
-0.7140564497534306
-1.0934201539733452
0.07787156708727806
-0.7140564497534306
-1.0934201539733452
0.07787156708727806
-0.7140564497534306
-1.0934201539733452
0.07787156708727806
-0.7140564497534306
-1.0981626883493771
0.08266402087761524
-0.7151063626557701
-1.0981626883493771
0.08266402087761524
-0.7151063626557701
-1.0981626883493771
0.08266402087761524
-0.7151063626557701
-1.0981626883493771
0.08266402087761524
-0.7151063626557701
-1.1041733753502836
0.0864307902246672
-0.7140448943465463
-1.1041733753502836
0.0864307902246672
-0.7140448943465463
-1.1041733753502836
0.0864307902246672
-0.7140448943465463
-1.1041733753502836
0.0864307902246672
-0.7140448943465463
-1.1086033595639477
0.0882450297833891
-0.7125959043973161
-1.1086033595639477
0.0882450297833891
-0.7125959043973161
-1.1086033595639477
0.0882450297833891
-0.7125959043973161
-1.1086033595639477
0.0882450297833891
-0.7125959043973161
-1.1156545938432103
0.08994395867278311
-0.7108879798309293
-1.1156545938432103
0.08994395867278311
-0.7108879798309293
-1.1156545938432103
0.08994395867278311
-0.7108879798309293
-1.1156545938432103
0.08994395867278311
-0.7108879798309293
-1.123293651179838
0.09074181043194664
-0.7098423361590094
-1.123293651179838
0.09074181043194664
-0.7098423361590094
-1.123293651179838
0.09074181043194664
-0.7098423361590094
-1.123293651179838
0.09074181043194664
-0.7098423361590094
-1.1226648252862037
0.0906278904805505
-0.7076302288749042
-1.1226648252862037
0.0906278904805505
-0.7076302288749042
-1.1226648252862037
0.0906278904805505
-0.7076302288749042
-1.1226648252862037
0.0906278904805505
-0.7076302288749042
-1.1162526155998438
0.0896655493516447
-0.7049704765905674
-1.1162526155998438
0.0896655493516447
-0.7049704765905674
-1.1162526155998438
0.0896655493516447
-0.7049704765905674
-1.1162526155998438
0.0896655493516447
-0.7049704765905674
-1.1121927928552877
0.08916602157871732
-0.7024899303889692
-1.1121927928552877
0.08916602157871732
-0.7024899303889692
-1.1121927928552877
0.08916602157871732
-0.7024899303889692
-1.1121927928552877
0.08916602157871732
-0.7024899303889692
-1.1118868375576452
0.08936760963247022
-0.6998221375319791
-1.1118868375576452
0.08936760963247022
-0.6998221375319791
-1.1118868375576452
0.08936760963247022
-0.6998221375319791
-1.1118868375576452
0.08936760963247022
-0.6998221375319791
-1.1153897270180724
0.08927035857925773
-0.6974755982792472
-1.1153897270180724
0.08927035857925773
-0.6974755982792472
-1.1153897270180724
0.08927035857925773
-0.6974755982792472
-1.1153897270180724
0.08927035857925773
-0.6974755982792472
-1.1179198046003853
0.08836146617031695
-0.6945562494454309
-1.1179198046003853
0.08836146617031695
-0.6945562494454309
-1.1179198046003853
0.08836146617031695
-0.6945562494454309
-1.1179198046003853
0.08836146617031695
-0.6945562494454309
-1.1155083985094694
0.08671916330344555
-0.6907453624916468
-1.1155083985094694
0.08671916330344555
-0.6907453624916468
-1.1155083985094694
0.08671916330344555
-0.6907453624916468
-1.1155083985094694
0.08671916330344555
-0.6907453624916468
-1.1105321952208758
0.08449336202872008
-0.6872566412676355
-1.1105321952208758
0.08449336202872008
-0.6872566412676355
-1.1105321952208758
0.08449336202872008
-0.6872566412676355
-1.1105321952208758
0.08449336202872008
-0.6872566412676355
-1.1042418704476573
0.08243969513261609
-0.6845055504550637
-1.1042418704476573
0.08243969513261609
-0.6845055504550637
-1.1042418704476573
0.08243969513261609
-0.6845055504550637
-1.1042418704476573
0.08243969513261609
-0.6845055504550637
-1.0997205090567619
0.08054398919945664
-0.6820123101478298
-1.0997205090567619
0.08054398919945664
-0.6820123101478298
-1.0997205090567619
0.08054398919945664
-0.6820123101478298
-1.0997205090567619
0.08054398919945664
-0.6820123101478298
-1.0963778652443885
0.07904538863514073
-0.6801991585336932
-1.0963778652443885
0.07904538863514073
-0.6801991585336932
-1.0963778652443885
0.07904538863514073
-0.6801991585336932
-1.0963778652443885
0.07904538863514073
-0.6801991585336932
-1.0934908980061941
0.0780725696445959
-0.6778323739210675
-1.0934908980061941
0.0780725696445959
-0.6778323739210675
-1.0934908980061941
0.0780725696445959
-0.6778323739210675
-1.0934908980061941
0.0780725696445959
-0.6778323739210675
-1.09320224269244
0.07695987139346665
-0.6760106570337066
-1.09320224269244
0.07695987139346665
-0.6760106570337066
-1.09320224269244
0.07695987139346665
-0.6760106570337066
-1.09320224269244
0.07695987139346665
-0.6760106570337066
-1.0923674492818325
0.07602300228711532
-0.6744959924147182
-1.0923674492818325
0.07602300228711532
-0.6744959924147182
-1.0923674492818325
0.07602300228711532
-0.6744959924147182
-1.0923674492818325
0.07602300228711532
-0.6744959924147182
-1.091769050054062
0.07520165279706528
-0.6733811588262025
-1.091769050054062
0.07520165279706528
-0.6733811588262025
-1.091769050054062
0.07520165279706528
-0.6733811588262025
-1.091769050054062
0.07520165279706528
-0.6733811588262025
-1.089362508766465
0.07509566012205432
-0.6718052162403954
-1.089362508766465
0.07509566012205432
-0.6718052162403954
-1.089362508766465
0.07509566012205432
-0.6718052162403954
-1.089362508766465
0.07509566012205432
-0.6718052162403954
-1.0868096133954253
0.0745945833689073
-0.6699855259085188
-1.0868096133954253
0.0745945833689073
-0.6699855259085188
-1.0868096133954253
0.0745945833689073
-0.6699855259085188
-1.0868096133954253
0.0745945833689073
-0.6699855259085188
-1.0844808701227078
0.07387745658909198
-0.6683660352505857
-1.0844808701227078
0.07387745658909198
-0.6683660352505857
-1.0844808701227078
0.07387745658909198
-0.6683660352505857
-1.0844808701227078
0.07387745658909198
-0.6683660352505857
-1.082555899194986
0.07357650616583872
-0.6671083671941724
-1.082555899194986
0.07357650616583872
-0.6671083671941724
-1.082555899194986
0.07357650616583872
-0.6671083671941724
-1.082555899194986
0.07357650616583872
-0.6671083671941724
-1.0818457446945289
0.07327581946663832
-0.6657245039042766
-1.0818457446945289
0.07327581946663832
-0.6657245039042766
-1.0818457446945289
0.07327581946663832
-0.6657245039042766
-1.0818457446945289
0.07327581946663832
-0.6657245039042766
-1.0808865237944887
0.07320516296277368
-0.6637942449616917
-1.0808865237944887
0.07320516296277368
-0.6637942449616917
-1.0808865237944887
0.07320516296277368
-0.6637942449616917
-1.0808865237944887
0.07320516296277368
-0.6637942449616917
-1.0794820002632697
0.07300094214783157
-0.6618553344764935
-1.0794820002632697
0.07300094214783157
-0.6618553344764935
-1.0794820002632697
0.07300094214783157
-0.6618553344764935
-1.0794820002632697
0.07300094214783157
-0.6618553344764935
-1.0769526616259708
0.07304515773284044
-0.660066568797521
-1.0769526616259708
0.07304515773284044
-0.660066568797521
-1.0769526616259708
0.07304515773284044
-0.660066568797521
-1.0769526616259708
0.07304515773284044
-0.660066568797521
-1.074814881750688
0.07327220448984442
-0.6588089349311744
-1.074814881750688
0.07327220448984442
-0.6588089349311744
-1.074814881750688
0.07327220448984442
-0.6588089349311744
-1.074814881750688
0.07327220448984442
-0.6588089349311744
-1.0744094260014143
0.07392915873015711
-0.6579244768435314
-1.0744094260014143
0.07392915873015711
-0.6579244768435314
-1.0744094260014143
0.07392915873015711
-0.6579244768435314
-1.0744094260014143
0.07392915873015711
-0.6579244768435314
-1.0738585409962884
0.07450678914135846
-0.6561792057393108
-1.0738585409962884
0.07450678914135846
-0.6561792057393108
-1.0738585409962884
0.07450678914135846
-0.6561792057393108
-1.0738585409962884
0.07450678914135846
-0.6561792057393108
-1.07276595116015
0.07568489068130105
-0.6553062422282193
-1.07276595116015
0.07568489068130105
-0.6553062422282193
-1.07276595116015
0.07568489068130105
-0.6553062422282193
-1.07276595116015
0.07568489068130105
-0.6553062422282193
-1.0746121982579004
0.07798816965461319
-0.6547330367523267
-1.0746121982579004
0.07798816965461319
-0.6547330367523267
-1.0746121982579004
0.07798816965461319
-0.6547330367523267
-1.0746121982579004
0.07798816965461319
-0.6547330367523267
-1.0761025946362544
0.08051212950333611
-0.6545475131610103
-1.0761025946362544
0.08051212950333611
-0.6545475131610103
-1.0761025946362544
0.08051212950333611
-0.6545475131610103
-1.0761025946362544
0.08051212950333611
-0.6545475131610103
-1.0728625581146722
0.08241594262946858
-0.6525279858096508
-1.0728625581146722
0.08241594262946858
-0.6525279858096508
-1.0728625581146722
0.08241594262946858
-0.6525279858096508
-1.0728625581146722
0.08241594262946858
-0.6525279858096508
-1.0737396138971016
0.08450606708905911
-0.6523716800078061
-1.0737396138971016
0.08450606708905911
-0.6523716800078061
-1.0737396138971016
0.08450606708905911
-0.6523716800078061
-1.0737396138971016
0.08450606708905911
-0.6523716800078061
-1.0726040608531715
0.08671494466887682
-0.6517914643426721
-1.0726040608531715
0.08671494466887682
-0.6517914643426721
-1.0726040608531715
0.08671494466887682
-0.6517914643426721
-1.0726040608531715
0.08671494466887682
-0.6517914643426721
-1.075149588420716
0.0892814353759139
-0.6517293476658257
-1.075149588420716
0.0892814353759139
-0.6517293476658257
-1.075149588420716
0.0892814353759139
-0.6517293476658257
-1.075149588420716
0.0892814353759139
-0.6517293476658257
-1.0753844803138937
0.09056757530443968
-0.6512464197302716
-1.0753844803138937
0.09056757530443968
-0.6512464197302716
-1.0753844803138937
0.09056757530443968
-0.6512464197302716
-1.0753844803138937
0.09056757530443968
-0.6512464197302716
-1.0733622274324894
0.09174245669765319
-0.6505472306527841
-1.0733622274324894
0.09174245669765319
-0.6505472306527841
-1.0733622274324894
0.09174245669765319
-0.6505472306527841
-1.0733622274324894
0.09174245669765319
-0.6505472306527841
-1.0689433903348253
0.09184031024528541
-0.6504368803246199
-1.0689433903348253
0.09184031024528541
-0.6504368803246199
-1.0689433903348253
0.09184031024528541
-0.6504368803246199
-1.0689433903348253
0.09184031024528541
-0.6504368803246199
-1.0671986003902791
0.0925229617495211
-0.6527775863874316
-1.0671986003902791
0.0925229617495211
-0.6527775863874316
-1.0671986003902791
0.0925229617495211
-0.6527775863874316
-1.0671986003902791
0.0925229617495211
-0.6527775863874316
-1.0647774793663949
0.09318794624456772
-0.6545296550724677
-1.0647774793663949
0.09318794624456772
-0.6545296550724677
-1.0647774793663949
0.09318794624456772
-0.6545296550724677
-1.0647774793663949
0.09318794624456772
-0.6545296550724677
-1.0670170064129623
0.09401335762927171
-0.6552645317131942
-1.0670170064129623
0.09401335762927171
-0.6552645317131942
-1.0670170064129623
0.09401335762927171
-0.6552645317131942
-1.0670170064129623
0.09401335762927171
-0.6552645317131942
-1.0666084258506001
0.09423592946136551
-0.6548798090908079
-1.0666084258506001
0.09423592946136551
-0.6548798090908079
-1.0666084258506001
0.09423592946136551
-0.6548798090908079
-1.0666084258506001
0.09423592946136551
-0.6548798090908079
-1.0679241036631975
0.09508362226391748
-0.6555392034115566
-1.0679241036631975
0.09508362226391748
-0.6555392034115566
-1.0679241036631975
0.09508362226391748
-0.6555392034115566
-1.0679241036631975
0.09508362226391748
-0.6555392034115566
-1.0682984716180235
0.09575661422477146
-0.6567655994262155
-1.0682984716180235
0.09575661422477146
-0.6567655994262155
-1.0682984716180235
0.09575661422477146
-0.6567655994262155
-1.0682984716180235
0.09575661422477146
-0.6567655994262155
-1.0675159386553534
0.09553140813296285
-0.6573531754417268
-1.0675159386553534
0.09553140813296285
-0.6573531754417268
-1.0675159386553534
0.09553140813296285
-0.6573531754417268
-1.0675159386553534
0.09553140813296285
-0.6573531754417268
-1.066958883512606
0.09588193234279888
-0.6575761603093178
-1.066958883512606
0.09588193234279888
-0.6575761603093178
-1.066958883512606
0.09588193234279888
-0.6575761603093178
-1.066958883512606
0.09588193234279888
-0.6575761603093178
-1.0648402716291097
0.09594274132413722
-0.6567846237226971
-1.0648402716291097
0.09594274132413722
-0.6567846237226971
-1.0648402716291097
0.09594274132413722
-0.6567846237226971
-1.0648402716291097
0.09594274132413722
-0.6567846237226971
-1.0675917518442135
0.09635387147569592
-0.6577093401255593
-1.0675917518442135
0.09635387147569592
-0.6577093401255593
-1.0675917518442135
0.09635387147569592
-0.6577093401255593
-1.0675917518442135
0.09635387147569592
-0.6577093401255593
-1.067878342236764
0.09561579654496004
-0.6588144942723146
-1.067878342236764
0.09561579654496004
-0.6588144942723146
-1.067878342236764
0.09561579654496004
-0.6588144942723146
-1.067878342236764
0.09561579654496004
-0.6588144942723146
-1.066528056997297
0.0939546751429628
-0.6616649153146874
-1.066528056997297
0.0939546751429628
-0.6616649153146874
-1.066528056997297
0.0939546751429628
-0.6616649153146874
-1.066528056997297
0.0939546751429628
-0.6616649153146874
-1.0650012920723388
0.09261544035565038
-0.6671638732361389
-1.0650012920723388
0.09261544035565038
-0.6671638732361389
-1.0650012920723388
0.09261544035565038
-0.6671638732361389
-1.0650012920723388
0.09261544035565038
-0.6671638732361389
-1.068731303331494
0.09198949124692696
-0.6721989019381767
-1.068731303331494
0.09198949124692696
-0.6721989019381767
-1.068731303331494
0.09198949124692696
-0.6721989019381767
-1.068731303331494
0.09198949124692696
-0.6721989019381767
-1.0723879841795403
0.09025865722579866
-0.6751892990047029
-1.0723879841795403
0.09025865722579866
-0.6751892990047029
-1.0723879841795403
0.09025865722579866
-0.6751892990047029
-1.0723879841795403
0.09025865722579866
-0.6751892990047029
-1.07555523939091
0.08702579388938746
-0.6796848881170064
-1.07555523939091
0.08702579388938746
-0.6796848881170064
-1.07555523939091
0.08702579388938746
-0.6796848881170064
-1.07555523939091
0.08702579388938746
-0.6796848881170064
-1.0801480074219696
0.0839716771630792
-0.6862077264369332
-1.0801480074219696
0.0839716771630792
-0.6862077264369332
-1.0801480074219696
0.0839716771630792
-0.6862077264369332
-1.0801480074219696
0.0839716771630792
-0.6862077264369332
-1.0806481093660196
0.08059358214801976
-0.6926742552323253
-1.0806481093660196
0.08059358214801976
-0.6926742552323253
-1.0806481093660196
0.08059358214801976
-0.6926742552323253
-1.0806481093660196
0.08059358214801976
-0.6926742552323253
-1.0780609358658613
0.07727275872982403
-0.7000389289899576
-1.0780609358658613
0.07727275872982403
-0.7000389289899576
-1.0780609358658613
0.07727275872982403
-0.7000389289899576
-1.0780609358658613
0.07727275872982403
-0.7000389289899576
-1.0743590842813369
0.07431781364238904
-0.7064775567223736
-1.0743590842813369
0.07431781364238904
-0.7064775567223736
-1.0743590842813369
0.07431781364238904
-0.7064775567223736
-1.0743590842813369
0.07431781364238904
-0.7064775567223736
-1.0722057233452364
0.07178158724560323
-0.711317501121119
-1.0722057233452364
0.07178158724560323
-0.711317501121119
-1.0722057233452364
0.07178158724560323
-0.711317501121119
-1.0722057233452364
0.07178158724560323
-0.711317501121119
-1.0740196124223038
0.07034678305950373
-0.7152835582720288
-1.0740196124223038
0.07034678305950373
-0.7152835582720288
-1.0740196124223038
0.07034678305950373
-0.7152835582720288
-1.0740196124223038
0.07034678305950373
-0.7152835582720288
-1.076962227468111
0.06856257776933007
-0.7188818706717217
-1.076962227468111
0.06856257776933007
-0.7188818706717217
-1.076962227468111
0.06856257776933007
-0.7188818706717217
-1.076962227468111
0.06856257776933007
-0.7188818706717217
-1.0786114687165191
0.06593802708500672
-0.7228491746141964
-1.0786114687165191
0.06593802708500672
-0.7228491746141964
-1.0786114687165191
0.06593802708500672
-0.7228491746141964
-1.0786114687165191
0.06593802708500672
-0.7228491746141964
-1.0782321639872205
0.0629727004230601
-0.7265420236789187
-1.0782321639872205
0.0629727004230601
-0.7265420236789187
-1.0782321639872205
0.0629727004230601
-0.7265420236789187
-1.0782321639872205
0.0629727004230601
-0.7265420236789187
-1.0779160155051748
0.060797947611135404
-0.729361178760546
-1.0779160155051748
0.060797947611135404
-0.729361178760546
-1.0779160155051748
0.060797947611135404
-0.729361178760546
-1.0779160155051748
0.060797947611135404
-0.729361178760546
-1.0784550170661051
0.0598599214007835
-0.7316658435083275
-1.0784550170661051
0.0598599214007835
-0.7316658435083275
-1.0784550170661051
0.0598599214007835
-0.7316658435083275
-1.0784550170661051
0.0598599214007835
-0.7316658435083275
-1.0808087584880235
0.05875026231137214
-0.7331137539453737
-1.0808087584880235
0.05875026231137214
-0.7331137539453737
-1.0808087584880235
0.05875026231137214
-0.7331137539453737
-1.0808087584880235
0.05875026231137214
-0.7331137539453737
-1.0842965674264011
0.057850574678097136
-0.7345258973035106
-1.0842965674264011
0.057850574678097136
-0.7345258973035106
-1.0842965674264011
0.057850574678097136
-0.7345258973035106
-1.0842965674264011
0.057850574678097136
-0.7345258973035106
-1.0882332476637995
0.05668519407560031
-0.7363436040980409
-1.0882332476637995
0.05668519407560031
-0.7363436040980409
-1.0882332476637995
0.05668519407560031
-0.7363436040980409
-1.0882332476637995
0.05668519407560031
-0.7363436040980409
-1.0910137651043557
0.05535696633327583
-0.7384065475723209
-1.0910137651043557
0.05535696633327583
-0.7384065475723209
-1.0910137651043557
0.05535696633327583
-0.7384065475723209
-1.0910137651043557
0.05535696633327583
-0.7384065475723209
-1.0916221185570925
0.054995648350169964
-0.7401641168055845
-1.0916221185570925
0.054995648350169964
-0.7401641168055845
-1.0916221185570925
0.054995648350169964
-0.7401641168055845
-1.0916221185570925
0.054995648350169964
-0.7401641168055845
-1.090728787498371
0.05566551178398809
-0.7414256856303317
-1.090728787498371
0.05566551178398809
-0.7414256856303317
-1.090728787498371
0.05566551178398809
-0.7414256856303317
-1.090728787498371
0.05566551178398809
-0.7414256856303317
-1.0915575635620443
0.05627092872365068
-0.7424746340336819
-1.0915575635620443
0.05627092872365068
-0.7424746340336819
-1.0915575635620443
0.05627092872365068
-0.7424746340336819
-1.0915575635620443
0.05627092872365068
-0.7424746340336819
-1.0934262407537172
0.05709956264564427
-0.7437654588699522
-1.0934262407537172
0.05709956264564427
-0.7437654588699522
-1.0934262407537172
0.05709956264564427
-0.7437654588699522
-1.0934262407537172
0.05709956264564427
-0.7437654588699522
-1.095309462768856
0.05702269300956528
-0.7452772548351363
-1.095309462768856
0.05702269300956528
-0.7452772548351363
-1.095309462768856
0.05702269300956528
-0.7452772548351363
-1.095309462768856
0.05702269300956528
-0.7452772548351363
-1.0954909875916692
0.0568707905966328
-0.7472334338362193
-1.0954909875916692
0.0568707905966328
-0.7472334338362193
-1.0954909875916692
0.0568707905966328
-0.7472334338362193
-1.0954909875916692
0.0568707905966328
-0.7472334338362193
-1.0960693901537328
0.05726009119390243
-0.7493178469186592
-1.0960693901537328
0.05726009119390243
-0.7493178469186592
-1.0960693901537328
0.05726009119390243
-0.7493178469186592
-1.0960693901537328
0.05726009119390243
-0.7493178469186592
-1.0973487368635728
0.057392060629669256
-0.7511059005531608
-1.0973487368635728
0.057392060629669256
-0.7511059005531608
-1.0973487368635728
0.057392060629669256
-0.7511059005531608
-1.0973487368635728
0.057392060629669256
-0.7511059005531608
-1.0994107900133516
0.057371148773526455
-0.7531679537029397
-1.0994107900133516
0.057371148773526455
-0.7531679537029397
-1.0994107900133516
0.057371148773526455
-0.7531679537029397
-1.0994107900133516
0.057371148773526455
-0.7531679537029397
-1.100511395572696
0.057432360759747704
-0.7544059446446817
-1.100511395572696
0.057432360759747704
-0.7544059446446817
-1.100511395572696
0.057432360759747704
-0.7544059446446817
-1.100511395572696
0.057432360759747704
-0.7544059446446817
-1.1011169857221215
0.05699234135920139
-0.7555350201157465
-1.1011169857221215
0.05699234135920139
-0.7555350201157465
-1.1011169857221215
0.05699234135920139
-0.7555350201157465
-1.1011169857221215
0.05699234135920139
-0.7555350201157465
-1.1032197457585926
0.057373741861970765
-0.7566260938672024
-1.1032197457585926
0.057373741861970765
-0.7566260938672024
-1.1032197457585926
0.057373741861970765
-0.7566260938672024
-1.1032197457585926
0.057373741861970765
-0.7566260938672024
-1.1043533107504928
0.05699236989445788
-0.7573268870100457
-1.1043533107504928
0.05699236989445788
-0.7573268870100457
-1.1043533107504928
0.05699236989445788
-0.7573268870100457
-1.1043533107504928
0.05699236989445788
-0.7573268870100457
-1.1043235696633513
0.05752047258223781
-0.7582385584165529
-1.1043235696633513
0.05752047258223781
-0.7582385584165529
-1.1043235696633513
0.05752047258223781
-0.7582385584165529
-1.1043235696633513
0.05752047258223781
-0.7582385584165529
-1.1043417336385677
0.0584620946873104
-0.7590045749181757
-1.1043417336385677
0.0584620946873104
-0.7590045749181757
-1.1043417336385677
0.0584620946873104
-0.7590045749181757
-1.1043417336385677
0.0584620946873104
-0.7590045749181757
-1.1057173902757882
0.058792310308584506
-0.7591150418567544
-1.1057173902757882
0.058792310308584506
-0.7591150418567544
-1.1057173902757882
0.058792310308584506
-0.7591150418567544
-1.1057173902757882
0.058792310308584506
-0.7591150418567544
-1.10662212200506
0.05895113720686009
-0.7593186728370558
-1.10662212200506
0.05895113720686009
-0.7593186728370558
-1.10662212200506
0.05895113720686009
-0.7593186728370558
-1.10662212200506
0.05895113720686009
-0.7593186728370558
-1.106134270853763
0.058986052083330645
-0.7598065239883525
-1.106134270853763
0.058986052083330645
-0.7598065239883525
-1.106134270853763
0.058986052083330645
-0.7598065239883525
-1.106134270853763
0.058986052083330645
-0.7598065239883525
-1.1061552286082046
0.059046715210036356
-0.7597106340940881
-1.1061552286082046
0.059046715210036356
-0.7597106340940881
-1.1061552286082046
0.059046715210036356
-0.7597106340940881
-1.1061552286082046
0.059046715210036356
-0.7597106340940881
-1.1058533474079335
0.05975381213248368
-0.7597650000953952
-1.1058533474079335
0.05975381213248368
-0.7597650000953952
-1.1058533474079335
0.05975381213248368
-0.7597650000953952
-1.1058533474079335
0.05975381213248368
-0.7597650000953952
-1.1064929584895766
0.06062575387772477
-0.759709730208061
-1.1064929584895766
0.06062575387772477
-0.759709730208061
-1.1064929584895766
0.06062575387772477
-0.759709730208061
-1.1064929584895766
0.06062575387772477
-0.759709730208061
-1.1067591895298396
0.061489358756111744
-0.7593983663092027
-1.1067591895298396
0.061489358756111744
-0.7593983663092027
-1.1067591895298396
0.061489358756111744
-0.7593983663092027
-1.1067591895298396
0.061489358756111744
-0.7593983663092027
-1.1073774925114053
0.06212340915118426
-0.7595152059583754
-1.1073774925114053
0.06212340915118426
-0.7595152059583754
-1.1073774925114053
0.06212340915118426
-0.7595152059583754
-1.1073774925114053
0.06212340915118426
-0.7595152059583754
-1.107387926251565
0.06268229819442482
-0.759861366564216
-1.107387926251565
0.06268229819442482
-0.759861366564216
-1.107387926251565
0.06268229819442482
-0.759861366564216
-1.107387926251565
0.06268229819442482
-0.759861366564216
-1.107231197595028
0.06274342259366635
-0.759841739295957
-1.107231197595028
0.06274342259366635
-0.759841739295957
-1.107231197595028
0.06274342259366635
-0.759841739295957
-1.107231197595028
0.06274342259366635
-0.759841739295957
-1.1066305877051594
0.06316390699570677
-0.759789403126532
-1.1066305877051594
0.06316390699570677
-0.759789403126532
-1.1066305877051594
0.06316390699570677
-0.759789403126532
-1.1066305877051594
0.06316390699570677
-0.759789403126532
-1.1070681532683149
0.06373478106162045
-0.7593555683967619
-1.1070681532683149
0.06373478106162045
-0.7593555683967619
-1.1070681532683149
0.06373478106162045
-0.7593555683967619
-1.1070681532683149
0.06373478106162045
-0.7593555683967619
-1.1074982541971028
0.06363309954117624
-0.7592783837947571
-1.1074982541971028
0.06363309954117624
-0.7592783837947571
-1.1074982541971028
0.06363309954117624
-0.7592783837947571
-1.1074982541971028
0.06363309954117624
-0.7592783837947571
-1.1086667313842247
0.063369702555667
-0.7589657366755296
-1.1086667313842247
0.063369702555667
-0.7589657366755296
-1.1086667313842247
0.063369702555667
-0.7589657366755296
-1.1086667313842247
0.063369702555667
-0.7589657366755296
-1.10891187025909
0.06259530505994605
-0.759320506153682
-1.10891187025909
0.06259530505994605
-0.759320506153682
-1.10891187025909
0.06259530505994605
-0.759320506153682
-1.10891187025909
0.06259530505994605
-0.759320506153682
-1.1079822749896389
0.06179213548828637
-0.7599418009137546
-1.1079822749896389
0.06179213548828637
-0.7599418009137546
-1.1079822749896389
0.06179213548828637
-0.7599418009137546
-1.1079822749896389
0.06179213548828637
-0.7599418009137546
-1.107488708023293
0.06135718172457234
-0.7604575428006767
-1.107488708023293
0.06135718172457234
-0.7604575428006767
-1.107488708023293
0.06135718172457234
-0.7604575428006767
-1.107488708023293
0.06135718172457234
-0.7604575428006767
-1.108407012095556
0.061080396857728536
-0.7608475433064121
-1.108407012095556
0.061080396857728536
-0.7608475433064121
-1.108407012095556
0.061080396857728536
-0.7608475433064121
-1.108407012095556
0.061080396857728536
-0.7608475433064121
-1.1093912634712488
0.060028946124895136
-0.7616677887516181
-1.1093912634712488
0.060028946124895136
-0.7616677887516181
-1.1093912634712488
0.060028946124895136
-0.7616677887516181
-1.1093912634712488
0.060028946124895136
-0.7616677887516181
-1.1105265154790989
0.05952762491420333
-0.7630714046391724
-1.1105265154790989
0.05952762491420333
-0.7630714046391724
-1.1105265154790989
0.05952762491420333
-0.7630714046391724
-1.1105265154790989
0.05952762491420333
-0.7630714046391724
-1.1110825218870868
0.05866543334992375
-0.7643428528358236
-1.1110825218870868
0.05866543334992375
-0.7643428528358236
-1.1110825218870868
0.05866543334992375
-0.7643428528358236
-1.1110825218870868
0.05866543334992375
-0.7643428528358236
-1.1109968794485237
0.05795189920397475
-0.7655781565953905
-1.1109968794485237
0.05795189920397475
-0.7655781565953905
-1.1109968794485237
0.05795189920397475
-0.7655781565953905
-1.1109968794485237
0.05795189920397475
-0.7655781565953905
-1.1109831337590221
0.057074768078849016
-0.766260746758853
-1.1109831337590221
0.057074768078849016
-0.766260746758853
-1.1109831337590221
0.057074768078849016
-0.766260746758853
-1.1109831337590221
0.057074768078849016
-0.766260746758853
-1.1111691397637493
0.05643496465094978
-0.7666959342286727
-1.1111691397637493
0.05643496465094978
-0.7666959342286727
-1.1111691397637493
0.05643496465094978
-0.7666959342286727
-1.1111691397637493
0.05643496465094978
-0.7666959342286727
-1.111689091030899
0.056061271730937376
-0.7671751693539135
-1.111689091030899
0.056061271730937376
-0.7671751693539135
-1.111689091030899
0.056061271730937376
-0.7671751693539135
-1.111689091030899
0.056061271730937376
-0.7671751693539135
-1.111545995530405
0.055598763027393736
-0.7677903668559705
-1.111545995530405
0.055598763027393736
-0.7677903668559705
-1.111545995530405
0.055598763027393736
-0.7677903668559705
-1.111545995530405
0.055598763027393736
-0.7677903668559705
-1.1108054108179544
0.055737073746601064
-0.7682812875993157
-1.1108054108179544
0.055737073746601064
-0.7682812875993157
-1.1108054108179544
0.055737073746601064
-0.7682812875993157
-1.1108054108179544
0.055737073746601064
-0.7682812875993157
-1.110162818926743
0.05586113416079355
-0.7684986209979777
-1.110162818926743
0.05586113416079355
-0.7684986209979777
-1.110162818926743
0.05586113416079355
-0.7684986209979777
-1.110162818926743
0.05586113416079355
-0.7684986209979777
-1.1100063056502498
0.05580825834768564
-0.7691818070959956
-1.1100063056502498
0.05580825834768564
-0.7691818070959956
-1.1100063056502498
0.05580825834768564
-0.7691818070959956
-1.1100063056502498
0.05580825834768564
-0.7691818070959956
-1.110036225522967
0.05622386570919804
-0.7697605310936881
-1.110036225522967
0.05622386570919804
-0.7697605310936881
-1.110036225522967
0.05622386570919804
-0.7697605310936881
-1.110036225522967
0.05622386570919804
-0.7697605310936881
-1.1101057032319084
0.05655732159171548
-0.7704755774381862
-1.1101057032319084
0.05655732159171548
-0.7704755774381862
-1.1101057032319084
0.05655732159171548
-0.7704755774381862
-1.1101057032319084
0.05655732159171548
-0.7704755774381862
-1.110840838875106
0.056888991995406236
-0.77150499018632
-1.110840838875106
0.056888991995406236
-0.77150499018632
-1.110840838875106
0.056888991995406236
-0.77150499018632
-1.110840838875106
0.056888991995406236
-0.77150499018632
-1.1113205712386924
0.05723448982394404
-0.7721618848743721
-1.1113205712386924
0.05723448982394404
-0.7721618848743721
-1.1113205712386924
0.05723448982394404
-0.7721618848743721
-1.1113205712386924
0.05723448982394404
-0.7721618848743721
-1.1108186583000594
0.05750288250444845
-0.7727931555209782
-1.1108186583000594
0.05750288250444845
-0.7727931555209782
-1.1108186583000594
0.05750288250444845
-0.7727931555209782
-1.1108186583000594
0.05750288250444845
-0.7727931555209782
-1.1100121641001788
0.05818838707879446
-0.773433067522596
-1.1100121641001788
0.05818838707879446
-0.773433067522596
-1.1100121641001788
0.05818838707879446
-0.773433067522596
-1.1100121641001788
0.05818838707879446
-0.773433067522596
-1.1099303403451268
0.05878762976556788
-0.7738014727768121
-1.1099303403451268
0.05878762976556788
-0.7738014727768121
-1.1099303403451268
0.05878762976556788
-0.7738014727768121
-1.1099303403451268
0.05878762976556788
-0.7738014727768121
-1.1101222509946607
0.058439621220667794
-0.7742847981677272
-1.1101222509946607
0.058439621220667794
-0.7742847981677272
-1.1101222509946607
0.058439621220667794
-0.7742847981677272
-1.1101222509946607
0.058439621220667794
-0.7742847981677272
-1.1107431391529248
0.058137866758603364
-0.7748660186748706
-1.1107431391529248
0.058137866758603364
-0.7748660186748706
-1.1107431391529248
0.058137866758603364
-0.7748660186748706
-1.1107431391529248
0.058137866758603364
-0.7748660186748706
-1.1113129346556827
0.057270783496489994
-0.7754139549696392
-1.1113129346556827
0.057270783496489994
-0.7754139549696392
-1.1113129346556827
0.057270783496489994
-0.7754139549696392
-1.1113129346556827
0.057270783496489994
-0.7754139549696392
-1.1112420493429498
0.056707387311256255
-0.7761030816375571
-1.1112420493429498
0.056707387311256255
-0.7761030816375571
-1.1112420493429498
0.056707387311256255
-0.7761030816375571
-1.1112420493429498
0.056707387311256255
-0.7761030816375571
-1.1103943092497455
0.05639406528339378
-0.7768948015592497
-1.1103943092497455
0.05639406528339378
-0.7768948015592497
-1.1103943092497455
0.05639406528339378
-0.7768948015592497
-1.1103943092497455
0.05639406528339378
-0.7768948015592497
-1.1097509358569306
0.05561620194888544
-0.7773244884546007
-1.1097509358569306
0.05561620194888544
-0.7773244884546007
-1.1097509358569306
0.05561620194888544
-0.7773244884546007
-1.1097509358569306
0.05561620194888544
-0.7773244884546007
-1.10990658932344
0.054711578521783356
-0.7781827290886892
-1.10990658932344
0.054711578521783356
-0.7781827290886892
-1.10990658932344
0.054711578521783356
-0.7781827290886892
-1.10990658932344
0.054711578521783356
-0.7781827290886892
-1.1097556030118325
0.05404692491163416
-0.7791259378468758
-1.1097556030118325
0.05404692491163416
-0.7791259378468758
-1.1097556030118325
0.05404692491163416
-0.7791259378468758
-1.1097556030118325
0.05404692491163416
-0.7791259378468758
-1.1106924244136724
0.05388432667286113
-0.7800431909470831
-1.1106924244136724
0.05388432667286113
-0.7800431909470831
-1.1106924244136724
0.05388432667286113
-0.7800431909470831
-1.1106924244136724
0.05388432667286113
-0.7800431909470831
-1.1113557425496259
0.05376433224797982
-0.7810583877203722
-1.1113557425496259
0.05376433224797982
-0.7810583877203722
-1.1113557425496259
0.05376433224797982
-0.7810583877203722
-1.1113557425496259
0.05376433224797982
-0.7810583877203722
-1.1121785852612915
0.05366880416992571
-0.7824677406791543
-1.1121785852612915
0.05366880416992571
-0.7824677406791543
-1.1121785852612915
0.05366880416992571
-0.7824677406791543
-1.1121785852612915
0.05366880416992571
-0.7824677406791543
-1.112726202027744
0.054255088628560315
-0.7834647418354986
-1.112726202027744
0.054255088628560315
-0.7834647418354986
-1.112726202027744
0.054255088628560315
-0.7834647418354986
-1.112726202027744
0.054255088628560315
-0.7834647418354986
-1.112685474955608
0.054771540323675344
-0.783970970294673
-1.112685474955608
0.054771540323675344
-0.783970970294673
-1.112685474955608
0.054771540323675344
-0.783970970294673
-1.112685474955608
0.054771540323675344
-0.783970970294673
-1.1130625781044496
0.05567971740501578
-0.7840153085674626
-1.1130625781044496
0.05567971740501578
-0.7840153085674626
-1.1130625781044496
0.05567971740501578
-0.7840153085674626
-1.1130625781044496
0.05567971740501578
-0.7840153085674626
-1.1133940764450132
0.05640478306435058
-0.7836239109035592
-1.1133940764450132
0.05640478306435058
-0.7836239109035592
-1.1133940764450132
0.05640478306435058
-0.7836239109035592
-1.1133940764450132
0.05640478306435058
-0.7836239109035592
-1.1124053222249255
0.05699995363296071
-0.7820103683327004
-1.1124053222249255
0.05699995363296071
-0.7820103683327004
-1.1124053222249255
0.05699995363296071
-0.7820103683327004
-1.1124053222249255
0.05699995363296071
-0.7820103683327004
-1.1109386115605437
0.05733853517557067
-0.7801143040911553
-1.1109386115605437
0.05733853517557067
-0.7801143040911553
-1.1109386115605437
0.05733853517557067
-0.7801143040911553
-1.1109386115605437
0.05733853517557067
-0.7801143040911553
-1.1092737853943033
0.057412608645236146
-0.7795424001632287
-1.1092737853943033
0.057412608645236146
-0.7795424001632287
-1.1092737853943033
0.057412608645236146
-0.7795424001632287
-1.1092737853943033
0.057412608645236146
-0.7795424001632287
-1.106143050152672
0.05838147426987291
-0.7789668827432507
-1.106143050152672
0.05838147426987291
-0.7789668827432507
-1.106143050152672
0.05838147426987291
-0.7789668827432507
-1.106143050152672
0.05838147426987291
-0.7789668827432507
-1.1064343944053467
0.060345018314736404
-0.7765657975356529
-1.1064343944053467
0.060345018314736404
-0.7765657975356529
-1.1064343944053467
0.060345018314736404
-0.7765657975356529
-1.1064343944053467
0.060345018314736404
-0.7765657975356529
-1.1094474497567888
0.06165406725819532
-0.7737743920849984
-1.1094474497567888
0.06165406725819532
-0.7737743920849984
-1.1094474497567888
0.06165406725819532
-0.7737743920849984
-1.1094474497567888
0.06165406725819532
-0.7737743920849984
-1.1121791786007715
0.06213580080217786
-0.7702177072314279
-1.1121791786007715
0.06213580080217786
-0.7702177072314279
-1.1121791786007715
0.06213580080217786
-0.7702177072314279
-1.1121791786007715
0.06213580080217786
-0.7702177072314279
-1.1130967433579577
0.062140205775232965
-0.7663253927789416
-1.1130967433579577
0.062140205775232965
-0.7663253927789416
-1.1130967433579577
0.062140205775232965
-0.7663253927789416
-1.1130967433579577
0.062140205775232965
-0.7663253927789416
-1.1152746617618425
0.06213363458162037
-0.7636934352122412
-1.1152746617618425
0.06213363458162037
-0.7636934352122412
-1.1152746617618425
0.06213363458162037
-0.7636934352122412
-1.1152746617618425
0.06213363458162037
-0.7636934352122412
-1.118784747555668
0.06297560064171487
-0.7616829473677575
-1.118784747555668
0.06297560064171487
-0.7616829473677575
-1.118784747555668
0.06297560064171487
-0.7616829473677575
-1.118784747555668
0.06297560064171487
-0.7616829473677575
-1.1249265614107609
0.06391411641540282
-0.7581273929717269
-1.1249265614107609
0.06391411641540282
-0.7581273929717269
-1.1249265614107609
0.06391411641540282
-0.7581273929717269
-1.1249265614107609
0.06391411641540282
-0.7581273929717269
-1.1316963782022553
0.06563717853220329
-0.7532785649542241
-1.1316963782022553
0.06563717853220329
-0.7532785649542241
-1.1316963782022553
0.06563717853220329
-0.7532785649542241
-1.1316963782022553
0.06563717853220329
-0.7532785649542241
-1.138057390749374
0.06715306258756788
-0.7450971144645477
-1.138057390749374
0.06715306258756788
-0.7450971144645477
-1.138057390749374
0.06715306258756788
-0.7450971144645477
-1.138057390749374
0.06715306258756788
-0.7450971144645477
-1.1385067504659947
0.06799914212211673
-0.7372755483150629
-1.1385067504659947
0.06799914212211673
-0.7372755483150629
-1.1385067504659947
0.06799914212211673
-0.7372755483150629
-1.1385067504659947
0.06799914212211673
-0.7372755483150629
-1.1308747954140186
0.0674127884687738
-0.731704171412048
-1.1308747954140186
0.0674127884687738
-0.731704171412048
-1.1308747954140186
0.0674127884687738
-0.731704171412048
-1.1308747954140186
0.0674127884687738
-0.731704171412048
-1.1211743456714047
0.06778279725108975
-0.72856111718929
-1.1211743456714047
0.06778279725108975
-0.72856111718929
-1.1211743456714047
0.06778279725108975
-0.72856111718929
-1.1211743456714047
0.06778279725108975
-0.72856111718929
-1.1134653099277245
0.06774547895155661
-0.7250688302848818
-1.1134653099277245
0.06774547895155661
-0.7250688302848818
-1.1134653099277245
0.06774547895155661
-0.7250688302848818
-1.1134653099277245
0.06774547895155661
-0.7250688302848818
-1.1107008419279234
0.06855216712141102
-0.7205415951855969
-1.1107008419279234
0.06855216712141102
-0.7205415951855969
-1.1107008419279234
0.06855216712141102
-0.7205415951855969
-1.1107008419279234
0.06855216712141102
-0.7205415951855969
-1.1093833668058268
0.06918926460083519
-0.715726729463579
-1.1093833668058268
0.06918926460083519
-0.715726729463579
-1.1093833668058268
0.06918926460083519
-0.715726729463579
-1.1093833668058268
0.06918926460083519
-0.715726729463579
-1.110497327386832
0.0698734166611001
-0.7137156979866945
-1.110497327386832
0.0698734166611001
-0.7137156979866945
-1.110497327386832
0.0698734166611001
-0.7137156979866945
-1.110497327386832
0.0698734166611001
-0.7137156979866945
-1.1112555981620602
0.07066766654758092
-0.7135259921629185
-1.1112555981620602
0.07066766654758092
-0.7135259921629185
-1.1112555981620602
0.07066766654758092
-0.7135259921629185
-1.1112555981620602
0.07066766654758092
-0.7135259921629185
-1.1062074852723414
0.0709807250830677
-0.7123880029365672
-1.1062074852723414
0.0709807250830677
-0.7123880029365672
-1.1062074852723414
0.0709807250830677
-0.7123880029365672
-1.1062074852723414
0.0709807250830677
-0.7123880029365672
-1.100454728930759
0.0708536468679565
-0.7110771298447329
-1.100454728930759
0.0708536468679565
-0.7110771298447329
-1.100454728930759
0.0708536468679565
-0.7110771298447329
-1.100454728930759
0.0708536468679565
-0.7110771298447329
-1.0983591011327636
0.07052870459196556
-0.7085429228688322
-1.0983591011327636
0.07052870459196556
-0.7085429228688322
-1.0983591011327636
0.07052870459196556
-0.7085429228688322
-1.0983591011327636
0.07052870459196556
-0.7085429228688322
-1.0988125688311303
0.07010433403440366
-0.7064051830608955
-1.0988125688311303
0.07010433403440366
-0.7064051830608955
-1.0988125688311303
0.07010433403440366
-0.7064051830608955
-1.0988125688311303
0.07010433403440366
-0.7064051830608955
-1.0980703183616913
0.07017084883955448
-0.7044594945246297
-1.0980703183616913
0.07017084883955448
-0.7044594945246297
-1.0980703183616913
0.07017084883955448
-0.7044594945246297
-1.0980703183616913
0.07017084883955448
-0.7044594945246297
-1.0952964123652817
0.07015375977761709
-0.7032592511892388
-1.0952964123652817
0.07015375977761709
-0.7032592511892388
-1.0952964123652817
0.07015375977761709
-0.7032592511892388
-1.0952964123652817
0.07015375977761709
-0.7032592511892388
-1.092529988083923
0.07004937600636091
-0.7025066053198186
-1.092529988083923
0.07004937600636091
-0.7025066053198186
-1.092529988083923
0.07004937600636091
-0.7025066053198186
-1.092529988083923
0.07004937600636091
-0.7025066053198186
-1.0917734916142856
0.06918469162872035
-0.7020761326071804
-1.0917734916142856
0.06918469162872035
-0.7020761326071804
-1.0917734916142856
0.06918469162872035
-0.7020761326071804
-1.0917734916142856
0.06918469162872035
-0.7020761326071804
-1.0932093720623872
0.06829670477956469
-0.7014293913099914
-1.0932093720623872
0.06829670477956469
-0.7014293913099914
-1.0932093720623872
0.06829670477956469
-0.7014293913099914
-1.0932093720623872
0.06829670477956469
-0.7014293913099914
-1.0936554380605232
0.06772338258781059
-0.6998374189998982
-1.0936554380605232
0.06772338258781059
-0.6998374189998982
-1.0936554380605232
0.06772338258781059
-0.6998374189998982
-1.0936554380605232
0.06772338258781059
-0.6998374189998982
-1.0933277187037629
0.06696952685747264
-0.6990001521304787
-1.0933277187037629
0.06696952685747264
-0.6990001521304787
-1.0933277187037629
0.06696952685747264
-0.6990001521304787
-1.0933277187037629
0.06696952685747264
-0.6990001521304787
-1.092449381181969
0.06654991674662905
-0.6986550739177794
-1.092449381181969
0.06654991674662905
-0.6986550739177794
-1.092449381181969
0.06654991674662905
-0.6986550739177794
-1.092449381181969
0.06654991674662905
-0.6986550739177794
-1.0913789851407
0.06627364515601951
-0.6989759101658222
-1.0913789851407
0.06627364515601951
-0.6989759101658222
-1.0913789851407
0.06627364515601951
-0.6989759101658222
-1.0913789851407
0.06627364515601951
-0.6989759101658222
-1.091110182341138
0.06576908948343246
-0.6984758586141682
-1.091110182341138
0.06576908948343246
-0.6984758586141682
-1.091110182341138
0.06576908948343246
-0.6984758586141682
-1.091110182341138
0.06576908948343246
-0.6984758586141682
-1.0914223221951496
0.06535564820460078
-0.6976517525761295
-1.0914223221951496
0.06535564820460078
-0.6976517525761295
-1.0914223221951496
0.06535564820460078
-0.6976517525761295
-1.0914223221951496
0.06535564820460078
-0.6976517525761295
-1.092105379671851
0.06537366149052233
-0.6972446761990535
-1.092105379671851
0.06537366149052233
-0.6972446761990535
-1.092105379671851
0.06537366149052233
-0.6972446761990535
-1.092105379671851
0.06537366149052233
-0.6972446761990535
-1.0945835732412017
0.0659448905611875
-0.6971721348051187
-1.0945835732412017
0.0659448905611875
-0.6971721348051187
-1.0945835732412017
0.0659448905611875
-0.6971721348051187
-1.0945835732412017
0.0659448905611875
-0.6971721348051187
-1.0955570160568608
0.06623555968255077
-0.6971258693084585
-1.0955570160568608
0.06623555968255077
-0.6971258693084585
-1.0955570160568608
0.06623555968255077
-0.6971258693084585
-1.0955570160568608
0.06623555968255077
-0.6971258693084585
-1.0967257577679146
0.06797600987188364
-0.6971622620918022
-1.0967257577679146
0.06797600987188364
-0.6971622620918022
-1.0967257577679146
0.06797600987188364
-0.6971622620918022
-1.0967257577679146
0.06797600987188364
-0.6971622620918022
-1.1022777797356975
0.0716899525731796
-0.698004769929579
-1.1022777797356975
0.0716899525731796
-0.698004769929579
-1.1022777797356975
0.0716899525731796
-0.698004769929579
-1.1022777797356975
0.0716899525731796
-0.698004769929579
-1.1030774554485958
0.07413533844431608
-0.695789241557736
-1.1030774554485958
0.07413533844431608
-0.695789241557736
-1.1030774554485958
0.07413533844431608
-0.695789241557736
-1.1030774554485958
0.07413533844431608
-0.695789241557736
-1.1001358360142308
0.07585695190190028
-0.6930655861232516
-1.1001358360142308
0.07585695190190028
-0.6930655861232516
-1.1001358360142308
0.07585695190190028
-0.6930655861232516
-1.1001358360142308
0.07585695190190028
-0.6930655861232516
-1.098032540661215
0.07679130599416077
-0.6922132236651211
-1.098032540661215
0.07679130599416077
-0.6922132236651211
-1.098032540661215
0.07679130599416077
-0.6922132236651211
-1.098032540661215
0.07679130599416077
-0.6922132236651211
-1.0910584326758874
0.077853446141259
-0.6892800591798022
-1.0910584326758874
0.077853446141259
-0.6892800591798022
-1.0910584326758874
0.077853446141259
-0.6892800591798022
-1.0910584326758874
0.077853446141259
-0.6892800591798022
-1.0823679936884651
0.07805726431186229
-0.6843487645458929
-1.0823679936884651
0.07805726431186229
-0.6843487645458929
-1.0823679936884651
0.07805726431186229
-0.6843487645458929
-1.0823679936884651
0.07805726431186229
-0.6843487645458929
-1.0674604600579571
0.07623478473875804
-0.681208209801972
-1.0674604600579571
0.07623478473875804
-0.681208209801972
-1.0674604600579571
0.07623478473875804
-0.681208209801972
-1.0674604600579571
0.07623478473875804
-0.681208209801972
-1.0568338740959449
0.07476325884650001
-0.6841198697105932
-1.0568338740959449
0.07476325884650001
-0.6841198697105932
-1.0568338740959449
0.07476325884650001
-0.6841198697105932
-1.0568338740959449
0.07476325884650001
-0.6841198697105932
-1.0506342948651686
0.0742451039017975
-0.6873981040737801
-1.0506342948651686
0.0742451039017975
-0.6873981040737801
-1.0506342948651686
0.0742451039017975
-0.6873981040737801
-1.0506342948651686
0.0742451039017975
-0.6873981040737801
-1.044795963127817
0.07287825866128213
-0.686364473574012
-1.044795963127817
0.07287825866128213
-0.686364473574012
-1.044795963127817
0.07287825866128213
-0.686364473574012
-1.044795963127817
0.07287825866128213
-0.686364473574012
-1.0427452507314872
0.07029765353265745
-0.6849590847467865
-1.0427452507314872
0.07029765353265745
-0.6849590847467865
-1.0427452507314872
0.07029765353265745
-0.6849590847467865
-1.0427452507314872
0.07029765353265745
-0.6849590847467865
-1.0407901377691056
0.0670133320824775
-0.685564994460691
-1.0407901377691056
0.0670133320824775
-0.685564994460691
-1.0407901377691056
0.0670133320824775
-0.685564994460691
-1.0407901377691056
0.0670133320824775
-0.685564994460691
-1.0377367089178182
0.06468617512448412
-0.6864528062544962
-1.0377367089178182
0.06468617512448412
-0.6864528062544962
-1.0377367089178182
0.06468617512448412
-0.6864528062544962
-1.0377367089178182
0.06468617512448412
-0.6864528062544962
-1.033487988905489
0.06364937415719946
-0.6890049566933839
-1.033487988905489
0.06364937415719946
-0.6890049566933839
-1.033487988905489
0.06364937415719946
-0.6890049566933839
-1.033487988905489
0.06364937415719946
-0.6890049566933839
-1.0311049380625716
0.061766829639177526
-0.6932898467048284
-1.0311049380625716
0.061766829639177526
-0.6932898467048284
-1.0311049380625716
0.061766829639177526
-0.6932898467048284
-1.0311049380625716
0.061766829639177526
-0.6932898467048284
-1.0298395811137824
0.06042179665692732
-0.6975738764367259
-1.0298395811137824
0.06042179665692732
-0.6975738764367259
-1.0298395811137824
0.06042179665692732
-0.6975738764367259
-1.0298395811137824
0.06042179665692732
-0.6975738764367259
-1.0327980431700357
0.059061824031273816
-0.7016426457058018
-1.0327980431700357
0.059061824031273816
-0.7016426457058018
-1.0327980431700357
0.059061824031273816
-0.7016426457058018
-1.0327980431700357
0.059061824031273816
-0.7016426457058018
-1.0369370308847983
0.05678693565108165
-0.7057807037516517
-1.0369370308847983
0.05678693565108165
-0.7057807037516517
-1.0369370308847983
0.05678693565108165
-0.7057807037516517
-1.0369370308847983
0.05678693565108165
-0.7057807037516517
-1.0404752756416964
0.05308032052672044
-0.7098259148710881
-1.0404752756416964
0.05308032052672044
-0.7098259148710881
-1.0404752756416964
0.05308032052672044
-0.7098259148710881
-1.0404752756416964
0.05308032052672044
-0.7098259148710881
-1.0446672175523986
0.048743356463648885
-0.714291476691576
-1.0446672175523986
0.048743356463648885
-0.714291476691576
-1.0446672175523986
0.048743356463648885
-0.714291476691576
-1.0446672175523986
0.048743356463648885
-0.714291476691576
-1.0480784810588923
0.04391382848844104
-0.718743590062945
-1.0480784810588923
0.04391382848844104
-0.718743590062945
-1.0480784810588923
0.04391382848844104
-0.718743590062945
-1.0480784810588923
0.04391382848844104
-0.718743590062945
-1.0523044382026614
0.04003107199549804
-0.723325539604479
-1.0523044382026614
0.04003107199549804
-0.723325539604479
-1.0523044382026614
0.04003107199549804
-0.723325539604479
-1.0523044382026614
0.04003107199549804
-0.723325539604479
-1.0570808337485325
0.03657866195410199
-0.7275522092935801
-1.0570808337485325
0.03657866195410199
-0.7275522092935801
-1.0570808337485325
0.03657866195410199
-0.7275522092935801
-1.0570808337485325
0.03657866195410199
-0.7275522092935801
-1.0621554500884325
0.034219871569581
-0.7317594272770191
-1.0621554500884325
0.034219871569581
-0.7317594272770191
-1.0621554500884325
0.034219871569581
-0.7317594272770191
-1.0621554500884325
0.034219871569581
-0.7317594272770191
-1.0668093426449985
0.03199751112550965
-0.7359391087187824
-1.0668093426449985
0.03199751112550965
-0.7359391087187824
-1.0668093426449985
0.03199751112550965
-0.7359391087187824
-1.0668093426449985
0.03199751112550965
-0.7359391087187824
-1.0715930470761479
0.029949619440725956
-0.7400103199624772
-1.0715930470761479
0.029949619440725956
-0.7400103199624772
-1.0715930470761479
0.029949619440725956
-0.7400103199624772
-1.0715930470761479
0.029949619440725956
-0.7400103199624772
-1.0751391783542241
0.028360611691063506
-0.7440304244006765
-1.0751391783542241
0.028360611691063506
-0.7440304244006765
-1.0751391783542241
0.028360611691063506
-0.7440304244006765
-1.0751391783542241
0.028360611691063506
-0.7440304244006765
-1.077029197670929
0.027558171105969486
-0.7475039518488718
-1.077029197670929
0.027558171105969486
-0.7475039518488718
-1.077029197670929
0.027558171105969486
-0.7475039518488718
-1.077029197670929
0.027558171105969486
-0.7475039518488718
-1.0782085852588326
0.02715626577803991
-0.7499705336966846
-1.0782085852588326
0.02715626577803991
-0.7499705336966846
-1.0782085852588326
0.02715626577803991
-0.7499705336966846
-1.0782085852588326
0.02715626577803991
-0.7499705336966846
-1.0798909286048646
0.026373303371144373
-0.7525054142013836
-1.0798909286048646
0.026373303371144373
-0.7525054142013836
-1.0798909286048646
0.026373303371144373
-0.7525054142013836
-1.0798909286048646
0.026373303371144373
-0.7525054142013836
-1.0823614396903904
0.026105514111417844
-0.7549366498711471
-1.0823614396903904
0.026105514111417844
-0.7549366498711471
-1.0823614396903904
0.026105514111417844
-0.7549366498711471
-1.0823614396903904
0.026105514111417844
-0.7549366498711471
-1.0849761531037603
0.02620253402024144
-0.7571946946474599
-1.0849761531037603
0.02620253402024144
-0.7571946946474599
-1.0849761531037603
0.02620253402024144
-0.7571946946474599
-1.0849761531037603
0.02620253402024144
-0.7571946946474599
-1.0861457637713519
0.02623898954651055
-0.7592161761959523
-1.0861457637713519
0.02623898954651055
-0.7592161761959523
-1.0861457637713519
0.02623898954651055
-0.7592161761959523
-1.0861457637713519
0.02623898954651055
-0.7592161761959523
-1.0855831052337304
0.02658009281960438
-0.7607919954055786
-1.0855831052337304
0.02658009281960438
-0.7607919954055786
-1.0855831052337304
0.02658009281960438
-0.7607919954055786
-1.0855831052337304
0.02658009281960438
-0.7607919954055786
-1.0863920072770044
0.027073331806805812
-0.7625303375190994
-1.0863920072770044
0.027073331806805812
-0.7625303375190994
-1.0863920072770044
0.027073331806805812
-0.7625303375190994
-1.0863920072770044
0.027073331806805812
-0.7625303375190994
-1.0883707422660376
0.02829101870020286
-0.7640897163375875
-1.0883707422660376
0.02829101870020286
-0.7640897163375875
-1.0883707422660376
0.02829101870020286
-0.7640897163375875
-1.0883707422660376
0.02829101870020286
-0.7640897163375875
-1.0895309080769484
0.029179320931846543
-0.7649108603596187
-1.0895309080769484
0.029179320931846543
-0.7649108603596187
-1.0895309080769484
0.029179320931846543
-0.7649108603596187
-1.0895309080769484
0.029179320931846543
-0.7649108603596187
-1.0920737961909688
0.028879161533121228
-0.7663070947123214
-1.0920737961909688
0.028879161533121228
-0.7663070947123214
-1.0920737961909688
0.028879161533121228
-0.7663070947123214
-1.0920737961909688
0.028879161533121228
-0.7663070947123214
-1.0943067132973603
0.02854441906426124
-0.7674921930647859
-1.0943067132973603
0.02854441906426124
-0.7674921930647859
-1.0943067132973603
0.02854441906426124
-0.7674921930647859
-1.0943067132973603
0.02854441906426124
-0.7674921930647859
-1.0957204084732706
0.02842260956514265
-0.7685299932803977
-1.0957204084732706
0.02842260956514265
-0.7685299932803977
-1.0957204084732706
0.02842260956514265
-0.7685299932803977
-1.0957204084732706
0.02842260956514265
-0.7685299932803977
-1.0979733136000482
0.029836705648846537
-0.7690602605648822
-1.0979733136000482
0.029836705648846537
-0.7690602605648822
-1.0979733136000482
0.029836705648846537
-0.7690602605648822
-1.0979733136000482
0.029836705648846537
-0.7690602605648822
-1.0996370386421441
0.031874254140479286
-0.7692211453917635
-1.0996370386421441
0.031874254140479286
-0.7692211453917635
-1.0996370386421441
0.031874254140479286
-0.7692211453917635
-1.0996370386421441
0.031874254140479286
-0.7692211453917635
-1.0997335186441228
0.0340909984648893
-0.769811116941335
-1.0997335186441228
0.0340909984648893
-0.769811116941335
-1.0997335186441228
0.0340909984648893
-0.769811116941335
-1.0997335186441228
0.0340909984648893
-0.769811116941335
-1.099866659293223
0.035957119119463817
-0.7702396778763022
-1.099866659293223
0.035957119119463817
-0.7702396778763022
-1.099866659293223
0.035957119119463817
-0.7702396778763022
-1.099866659293223
0.035957119119463817
-0.7702396778763022
-1.1005284662405392
0.03604807535584278
-0.77092116087031
-1.1005284662405392
0.03604807535584278
-0.77092116087031
-1.1005284662405392
0.03604807535584278
-0.77092116087031
-1.1005284662405392
0.03604807535584278
-0.77092116087031
-1.1007549137805053
0.03588777581146888
-0.7718378209819483
-1.1007549137805053
0.03588777581146888
-0.7718378209819483
-1.1007549137805053
0.03588777581146888
-0.7718378209819483
-1.1007549137805053
0.03588777581146888
-0.7718378209819483
-1.1011899435754728
0.0363186748963773
-0.7723513776924793
-1.1011899435754728
0.0363186748963773
-0.7723513776924793
-1.1011899435754728
0.0363186748963773
-0.7723513776924793
-1.1011899435754728
0.0363186748963773
-0.7723513776924793
-1.1019925072984689
0.03657789664111415
-0.7731931909409642
-1.1019925072984689
0.03657789664111415
-0.7731931909409642
-1.1019925072984689
0.03657789664111415
-0.7731931909409642
-1.1019925072984689
0.03657789664111415
-0.7731931909409642
-1.1017991582873254
0.03708249814883033
-0.7745365828808022
