-1.028569543753936
0.004390788785221689
-0.7148528669960328
-1.028569543753936
0.004390788785221689
-0.7148528669960328
-1.028569543753936
0.004390788785221689
-0.7148528669960328
-1.028569543753936
0.004390788785221689
-0.7148528669960328
-1.028569543753936
0.004390788785221689
-0.7148528669960328
-1.028569543753936
0.004390788785221689
-0.7148528669960328
-1.028569543753936
0.004390788785221689
-0.7148528669960328
-1.028569543753936
0.004390788785221689
-0.7148528669960328
-1.028569543753936
0.004390788785221689
-0.7148528669960328
-1.028569543753936
0.004390788785221689
-0.7148528669960328
-1.028569543753936
0.004390788785221689
-0.7148528669960328
-1.028569543753936
0.004390788785221689
-0.7148528669960328
-1.028569543753936
0.004390788785221689
-0.7148528669960328
-1.028569543753936
0.004390788785221689
-0.7148528669960328
-1.028569543753936
0.004390788785221689
-0.7148528669960328
-1.028569543753936
0.004390788785221689
-0.7148528669960328
-1.028569543753936
0.004390788785221689
-0.7148528669960328
-1.028569543753936
0.004390788785221689
-0.7148528669960328
-1.028569543753936
0.004390788785221689
-0.7148528669960328
-1.028569543753936
0.004390788785221689
-0.7148528669960328
-1.028382776161755
0.004495475238874665
-0.7153056605816491
-1.028382776161755
0.004495475238874665
-0.7153056605816491
-1.028382776161755
0.004495475238874665
-0.7153056605816491
-1.028382776161755
0.004495475238874665
-0.7153056605816491
-1.0287856751019888
0.004621371594879057
-0.7156072470507976
-1.0287856751019888
0.004621371594879057
-0.7156072470507976
-1.0287856751019888
0.004621371594879057
-0.7156072470507976
-1.0287856751019888
0.004621371594879057
-0.7156072470507976
-1.0287856751019888
0.004621371594879057
-0.7156072470507976
-1.0287856751019888
0.004621371594879057
-0.7156072470507976
-1.0287856751019888
0.004621371594879057
-0.7156072470507976
-1.0287856751019888
0.004621371594879057
-0.7156072470507976
-1.0289853989659807
0.004808654778814553
-0.7162058150941306
-1.0289853989659807
0.004808654778814553
-0.7162058150941306
-1.0289853989659807
0.004808654778814553
-0.7162058150941306
-1.0289853989659807
0.004808654778814553
-0.7162058150941306
-1.0289299631790156
0.00509147524108556
-0.7168086485860539
-1.0289299631790156
0.00509147524108556
-0.7168086485860539
-1.0289299631790156
0.00509147524108556
-0.7168086485860539
-1.0289299631790156
0.00509147524108556
-0.7168086485860539
-1.0289299631790156
0.00509147524108556
-0.7168086485860539
-1.0289299631790156
0.00509147524108556
-0.7168086485860539
-1.0289299631790156
0.00509147524108556
-0.7168086485860539
-1.0289299631790156
0.00509147524108556
-0.7168086485860539
-1.0289299631790156
0.00509147524108556
-0.7168086485860539
-1.0289299631790156
0.00509147524108556
-0.7168086485860539
-1.0289299631790156
0.00509147524108556
-0.7168086485860539
-1.0289299631790156
0.00509147524108556
-0.7168086485860539
-1.0289299631790156
0.00509147524108556
-0.7168086485860539
-1.0289299631790156
0.00509147524108556
-0.7168086485860539
-1.0289299631790156
0.00509147524108556
-0.7168086485860539
-1.0289299631790156
0.00509147524108556
-0.7168086485860539
-1.0286311319475052
0.004897857984379989
-0.7170923613446734
-1.0286311319475052
0.004897857984379989
-0.7170923613446734
-1.0286311319475052
0.004897857984379989
-0.7170923613446734
-1.0286311319475052
0.004897857984379989
-0.7170923613446734
-1.0282593356332792
0.004681984376750269
-0.7171829171380502
-1.0282593356332792
0.004681984376750269
-0.7171829171380502
-1.0282593356332792
0.004681984376750269
-0.7171829171380502
-1.0282593356332792
0.004681984376750269
-0.7171829171380502
-1.0281598529710037
0.004719420895393666
-0.717203751478896
-1.0281598529710037
0.004719420895393666
-0.717203751478896
-1.0281598529710037
0.004719420895393666
-0.717203751478896
-1.0281598529710037
0.004719420895393666
-0.717203751478896
-1.0281598529710037
0.004719420895393666
-0.717203751478896
-1.0281598529710037
0.004719420895393666
-0.717203751478896
-1.0281598529710037
0.004719420895393666
-0.717203751478896
-1.0281598529710037
0.004719420895393666
-0.717203751478896
-1.0281972944038567
0.004818902746528949
-0.7172600508147758
-1.0281972944038567
0.004818902746528949
-0.7172600508147758
-1.0281972944038567
0.004818902746528949
-0.7172600508147758
-1.0281972944038567
0.004818902746528949
-0.7172600508147758
-1.0281224163589973
0.004619934817272844
-0.7171474546947786
-1.0281224163589973
0.004619934817272844
-0.7171474546947786
-1.0281224163589973
0.004619934817272844
-0.7171474546947786
-1.0281224163589973
0.004619934817272844
-0.7171474546947786
-1.0284188941178585
0.004331024140851647
-0.7171655311969919
-1.0284188941178585
0.004331024140851647
-0.7171655311969919
-1.0284188941178585
0.004331024140851647
-0.7171655311969919
-1.0284188941178585
0.004331024140851647
-0.7171655311969919
-1.0289711483398163
0.004252284715646469
-0.7169579684338894
-1.0289711483398163
0.004252284715646469
-0.7169579684338894
-1.0289711483398163
0.004252284715646469
-0.7169579684338894
-1.0289711483398163
0.004252284715646469
-0.7169579684338894
-1.0293239490127435
0.003942529451013057
-0.7170132698587975
-1.0293239490127435
0.003942529451013057
-0.7170132698587975
-1.0293239490127435
0.003942529451013057
-0.7170132698587975
-1.0293239490127435
0.003942529451013057
-0.7170132698587975
-1.0293258820546936
0.004119215967298756
-0.7169327574239879
-1.0293258820546936
0.004119215967298756
-0.7169327574239879
-1.0293258820546936
0.004119215967298756
-0.7169327574239879
-1.0293258820546936
0.004119215967298756
-0.7169327574239879
-1.0293258820546936
0.004119215967298756
-0.7169327574239879
-1.0293258820546936
0.004119215967298756
-0.7169327574239879
-1.0293258820546936
0.004119215967298756
-0.7169327574239879
-1.0293258820546936
0.004119215967298756
-0.7169327574239879
-1.0293258820546936
0.004119215967298756
-0.7169327574239879
-1.0293258820546936
0.004119215967298756
-0.7169327574239879
-1.0293258820546936
0.004119215967298756
-0.7169327574239879
-1.0293258820546936
0.004119215967298756
-0.7169327574239879
-1.0296318533690167
0.004764696894932784
-0.7169536004391466
-1.0296318533690167
0.004764696894932784
-0.7169536004391466
-1.0296318533690167
0.004764696894932784
-0.7169536004391466
-1.0296318533690167
0.004764696894932784
-0.7169536004391466
-1.030798813607918
0.005072310594698686
-0.7171962636333349
-1.030798813607918
0.005072310594698686
-0.7171962636333349
-1.030798813607918
0.005072310594698686
-0.7171962636333349
-1.030798813607918
0.005072310594698686
-0.7171962636333349
-1.0330733469794007
0.005660384353617565
-0.7175850513763141
-1.0330733469794007
0.005660384353617565
-0.7175850513763141
-1.0330733469794007
0.005660384353617565
-0.7175850513763141
-1.0330733469794007
0.005660384353617565
-0.7175850513763141
-1.0362339043765638
0.0059794811649027
-0.7178417663414669
-1.0362339043765638
0.0059794811649027
-0.7178417663414669
-1.0362339043765638
0.0059794811649027
-0.7178417663414669
-1.0362339043765638
0.0059794811649027
-0.7178417663414669
-1.0401504208189247
0.006111133660073839
-0.7184561100432686
-1.0401504208189247
0.006111133660073839
-0.7184561100432686
-1.0401504208189247
0.006111133660073839
-0.7184561100432686
-1.0401504208189247
0.006111133660073839
-0.7184561100432686
-1.0454124465474017
0.0060738760024847665
-0.7192765838517352
-1.0454124465474017
0.0060738760024847665
-0.7192765838517352
-1.0454124465474017
0.0060738760024847665
-0.7192765838517352
-1.0454124465474017
0.0060738760024847665
-0.7192765838517352
-1.0517487696059293
0.005919204836106822
-0.7201508166848052
-1.0517487696059293
0.005919204836106822
-0.7201508166848052
-1.0517487696059293
0.005919204836106822
-0.7201508166848052
-1.0517487696059293
0.005919204836106822
-0.7201508166848052
-1.0587670758610856
0.005548680233372609
-0.7211850910619522
-1.0587670758610856
0.005548680233372609
-0.7211850910619522
-1.0587670758610856
0.005548680233372609
-0.7211850910619522
-1.0587670758610856
0.005548680233372609
-0.7211850910619522
-1.065880160524144
0.005247565095991168
-0.722312118334639
-1.065880160524144
0.005247565095991168
-0.722312118334639
-1.065880160524144
0.005247565095991168
-0.722312118334639
-1.065880160524144
0.005247565095991168
-0.722312118334639
-1.0751057782309306
0.005258034173178628
-0.7233703782960215
-1.0751057782309306
0.005258034173178628
-0.7233703782960215
-1.0751057782309306
0.005258034173178628
-0.7233703782960215
-1.0751057782309306
0.005258034173178628
-0.7233703782960215
-1.086611050696425
0.005244759094322766
-0.7247479055684073
-1.086611050696425
0.005244759094322766
-0.7247479055684073
-1.086611050696425
0.005244759094322766
-0.7247479055684073
-1.086611050696425
0.005244759094322766
-0.7247479055684073
-1.0993090882411172
0.005523907936079604
-0.7262201740053569
-1.0993090882411172
0.005523907936079604
-0.7262201740053569
-1.0993090882411172
0.005523907936079604
-0.7262201740053569
-1.0993090882411172
0.005523907936079604
-0.7262201740053569
-1.1139652281381807
0.005980539307656787
-0.7276954618319874
-1.1139652281381807
0.005980539307656787
-0.7276954618319874
-1.1139652281381807
0.005980539307656787
-0.7276954618319874
-1.1139652281381807
0.005980539307656787
-0.7276954618319874
-1.1316182087706512
0.006574480671932187
-0.7290959068103058
-1.1316182087706512
0.006574480671932187
-0.7290959068103058
-1.1316182087706512
0.006574480671932187
-0.7290959068103058
-1.1316182087706512
0.006574480671932187
-0.7290959068103058
-1.153557089020992
0.00774494295050833
-0.7300285455925857
-1.153557089020992
0.00774494295050833
-0.7300285455925857
-1.153557089020992
0.00774494295050833
-0.7300285455925857
-1.153557089020992
0.00774494295050833
-0.7300285455925857
-1.1814494888353602
0.008828403317902661
-0.73087618599862
-1.1814494888353602
0.008828403317902661
-0.73087618599862
-1.1814494888353602
0.008828403317902661
-0.73087618599862
-1.1814494888353602
0.008828403317902661
-0.73087618599862
-1.2190111072160177
0.009682669460767256
-0.7310279394619302
-1.2190111072160177
0.009682669460767256
-0.7310279394619302
-1.2190111072160177
0.009682669460767256
-0.7310279394619302
-1.2190111072160177
0.009682669460767256
-0.7310279394619302
-1.2659648531486254
0.012050243714654936
-0.7289165416492881
-1.2659648531486254
0.012050243714654936
-0.7289165416492881
-1.2659648531486254
0.012050243714654936
-0.7289165416492881
-1.2659648531486254
0.012050243714654936
-0.7289165416492881
-1.313982387209419
0.01704175510253075
-0.726373290808836
-1.313982387209419
0.01704175510253075
-0.726373290808836
-1.313982387209419
0.01704175510253075
-0.726373290808836
-1.313982387209419
0.01704175510253075
-0.726373290808836
-1.3485644201386393
0.022290207112827694
-0.7257181331897123
-1.3485644201386393
0.022290207112827694
-0.7257181331897123
-1.3485644201386393
0.022290207112827694
-0.7257181331897123
-1.3485644201386393
0.022290207112827694
-0.7257181331897123
-1.364506398610807
0.02571890204995045
-0.7268750701893762
-1.364506398610807
0.02571890204995045
-0.7268750701893762
-1.364506398610807
0.02571890204995045
-0.7268750701893762
-1.364506398610807
0.02571890204995045
-0.7268750701893762
-1.3676703404858188
0.02828497783540261
-0.7283186823122373
-1.3676703404858188
0.02828497783540261
-0.7283186823122373
-1.3676703404858188
0.02828497783540261
-0.7283186823122373
-1.3676703404858188
0.02828497783540261
-0.7283186823122373
-1.369838565710992
0.030844682652152903
-0.7287708232695528
-1.369838565710992
0.030844682652152903
-0.7287708232695528
-1.369838565710992
0.030844682652152903
-0.7287708232695528
-1.369838565710992
0.030844682652152903
-0.7287708232695528
-1.3780090801084068
0.03324278287364021
-0.7283557804814573
-1.3780090801084068
0.03324278287364021
-0.7283557804814573
-1.3780090801084068
0.03324278287364021
-0.7283557804814573
-1.3780090801084068
0.03324278287364021
-0.7283557804814573
-1.3870489457616808
0.035746875864161975
-0.7276926139938497
-1.3870489457616808
0.035746875864161975
-0.7276926139938497
-1.3870489457616808
0.035746875864161975
-0.7276926139938497
-1.3870489457616808
0.035746875864161975
-0.7276926139938497
-1.3929429077918687
0.0390566028788897
-0.7277035246440439
-1.3929429077918687
0.0390566028788897
-0.7277035246440439
-1.3929429077918687
0.0390566028788897
-0.7277035246440439
-1.3929429077918687
0.0390566028788897
-0.7277035246440439
-1.3964447754715323
0.04385875474846368
-0.7269858203574574
-1.3964447754715323
0.04385875474846368
-0.7269858203574574
-1.3964447754715323
0.04385875474846368
-0.7269858203574574
-1.3964447754715323
0.04385875474846368
-0.7269858203574574
-1.3987690857684656
0.04752033190425597
-0.726111784535394
-1.3987690857684656
0.04752033190425597
-0.726111784535394
-1.3987690857684656
0.04752033190425597
-0.726111784535394
-1.3987690857684656
0.04752033190425597
-0.726111784535394
-1.4003780422359198
0.05053559313408451
-0.7253140876556071
-1.4003780422359198
0.05053559313408451
-0.7253140876556071
-1.4003780422359198
0.05053559313408451
-0.7253140876556071
-1.4003780422359198
0.05053559313408451
-0.7253140876556071
-1.4017538897805537
0.053169373980336304
-0.7244354899021345
-1.4017538897805537
0.053169373980336304
-0.7244354899021345
-1.4017538897805537
0.053169373980336304
-0.7244354899021345
-1.4017538897805537
0.053169373980336304
-0.7244354899021345
-1.4025877935315112
0.05562642081353235
-0.7234291890385689
-1.4025877935315112
0.05562642081353235
-0.7234291890385689
-1.4025877935315112
0.05562642081353235
-0.7234291890385689
-1.4025877935315112
0.05562642081353235
-0.7234291890385689
-1.4029085382390087
0.05647258532444073
-0.7229003284255328
-1.4029085382390087
0.05647258532444073
-0.7229003284255328
-1.4029085382390087
0.05647258532444073
-0.7229003284255328
-1.4029085382390087
0.05647258532444073
-0.7229003284255328
-1.40435520104513
0.056126788915333126
-0.7231014621570175
-1.40435520104513
0.056126788915333126
-0.7231014621570175
-1.40435520104513
0.056126788915333126
-0.7231014621570175
-1.40435520104513
0.056126788915333126
-0.7231014621570175
-1.4064557238966897
0.055298645429367015
-0.7227818667516415
-1.4064557238966897
0.055298645429367015
-0.7227818667516415
-1.4064557238966897
0.055298645429367015
-0.7227818667516415
-1.4064557238966897
0.055298645429367015
-0.7227818667516415
-1.4086406603445554
0.05445704088055064
-0.7226567523786276
-1.4086406603445554
0.05445704088055064
-0.7226567523786276
-1.4086406603445554
0.05445704088055064
-0.7226567523786276
-1.4086406603445554
0.05445704088055064
-0.7226567523786276
-1.4114766426008085
0.0541041600541834
-0.7224775548254272
-1.4114766426008085
0.0541041600541834
-0.7224775548254272
-1.4114766426008085
0.0541041600541834
-0.7224775548254272
-1.4114766426008085
0.0541041600541834
-0.7224775548254272
-1.4135371366790181
0.054180433950909726
-0.7227705292144594
-1.4135371366790181
0.054180433950909726
-0.7227705292144594
-1.4135371366790181
0.054180433950909726
-0.7227705292144594
-1.4135371366790181
0.054180433950909726
-0.7227705292144594
-1.415315012916269
0.05372356302756548
-0.723147616256798
-1.415315012916269
0.05372356302756548
-0.723147616256798
-1.415315012916269
0.05372356302756548
-0.723147616256798
-1.415315012916269
0.05372356302756548
-0.723147616256798
-1.4166329646969118
0.053294617940406505
-0.7229119551819506
-1.4166329646969118
0.053294617940406505
-0.7229119551819506
-1.4166329646969118
0.053294617940406505
-0.7229119551819506
-1.4166329646969118
0.053294617940406505
-0.7229119551819506
-1.4186123913838855
0.05214647957005223
-0.7226057012981406
-1.4186123913838855
0.05214647957005223
-0.7226057012981406
-1.4186123913838855
0.05214647957005223
-0.7226057012981406
-1.4186123913838855
0.05214647957005223
-0.7226057012981406
-1.4203368201264484
0.05131093014998044
-0.722652409907381
-1.4203368201264484
0.05131093014998044
-0.722652409907381
-1.4203368201264484
0.05131093014998044
-0.722652409907381
-1.4203368201264484
0.05131093014998044
-0.722652409907381
-1.4221711555105425
0.05053511404143311
-0.7228077108260715
-1.4221711555105425
0.05053511404143311
-0.7228077108260715
-1.4221711555105425
0.05053511404143311
-0.7228077108260715
-1.4221711555105425
0.05053511404143311
-0.7228077108260715
-1.4249641717333277
0.05031374999924123
-0.7228834943739026
-1.4249641717333277
0.05031374999924123
-0.7228834943739026
-1.4249641717333277
0.05031374999924123
-0.7228834943739026
-1.4249641717333277
0.05031374999924123
-0.7228834943739026
-1.4262770419637898
0.050354495205233135
-0.7226903898550118
-1.4262770419637898
0.050354495205233135
-0.7226903898550118
-1.4262770419637898
0.050354495205233135
-0.7226903898550118
-1.4262770419637898
0.050354495205233135
-0.7226903898550118
-1.426679774910618
0.04946772991586962
-0.7227646339406092
-1.426679774910618
0.04946772991586962
-0.7227646339406092
-1.426679774910618
0.04946772991586962
-0.7227646339406092
-1.426679774910618
0.04946772991586962
-0.7227646339406092
-1.4265717075166067
0.04771349611814886
-0.7234357796176831
-1.4265717075166067
0.04771349611814886
-0.7234357796176831
-1.4265717075166067
0.04771349611814886
-0.7234357796176831
-1.4265717075166067
0.04771349611814886
-0.7234357796176831
-1.4266847991142473
0.045067661287946946
-0.7244192990122813
-1.4266847991142473
0.045067661287946946
-0.7244192990122813
-1.4266847991142473
0.045067661287946946
-0.7244192990122813
-1.4266847991142473
0.045067661287946946
-0.7244192990122813
-1.4277110002549402
0.04217677814687277
-0.7255511725920816
-1.4277110002549402
0.04217677814687277
-0.7255511725920816
-1.4277110002549402
0.04217677814687277
-0.7255511725920816
-1.4277110002549402
0.04217677814687277
-0.7255511725920816
-1.4299184851560645
0.039920682220567195
-0.726373315456053
-1.4299184851560645
0.039920682220567195
-0.726373315456053
-1.4299184851560645
0.039920682220567195
-0.726373315456053
-1.4299184851560645
0.039920682220567195
-0.726373315456053
-1.4324384711146945
0.038540951004900376
-0.7269546368943802
-1.4324384711146945
0.038540951004900376
-0.7269546368943802
-1.4324384711146945
0.038540951004900376
-0.7269546368943802
-1.4324384711146945
0.038540951004900376
-0.7269546368943802
-1.4331756134796372
0.037550632391371686
-0.727360559484074
-1.4331756134796372
0.037550632391371686
-0.727360559484074
-1.4331756134796372
0.037550632391371686
-0.727360559484074
-1.4331756134796372
0.037550632391371686
-0.727360559484074
-1.4331823310430898
0.036838524163679456
-0.7277640100450349
-1.4331823310430898
0.036838524163679456
-0.7277640100450349
-1.4331823310430898
0.036838524163679456
-0.7277640100450349
-1.4331823310430898
0.036838524163679456
-0.7277640100450349
-1.4345783032896116
0.03613757759568176
-0.7279993334892791
-1.4345783032896116
0.03613757759568176
-0.7279993334892791
-1.4345783032896116
0.03613757759568176
-0.7279993334892791
-1.4345783032896116
0.03613757759568176
-0.7279993334892791
-1.4360595817420645
0.035402207419692674
-0.728206591259251
-1.4360595817420645
0.035402207419692674
-0.728206591259251
-1.4360595817420645
0.035402207419692674
-0.728206591259251
-1.4360595817420645
0.035402207419692674
-0.728206591259251
-1.4363744679657884
0.03479846674998137
-0.7291846674430909
-1.4363744679657884
0.03479846674998137
-0.7291846674430909
-1.4363744679657884
0.03479846674998137
-0.7291846674430909
-1.4363744679657884
0.03479846674998137
-0.7291846674430909
-1.436568748339006
0.03435080553574808
-0.730392358590924
-1.436568748339006
0.03435080553574808
-0.730392358590924
-1.436568748339006
0.03435080553574808
-0.730392358590924
-1.436568748339006
0.03435080553574808
-0.730392358590924
-1.4375122600176697
0.03368903123839965
-0.7313535959003848
-1.4375122600176697
0.03368903123839965
-0.7313535959003848
-1.4375122600176697
0.03368903123839965
-0.7313535959003848
-1.4375122600176697
0.03368903123839965
-0.7313535959003848
-1.4390021918653333
0.033725587440574474
-0.7320845481471928
-1.4390021918653333
0.033725587440574474
-0.7320845481471928
-1.4390021918653333
0.033725587440574474
-0.7320845481471928
-1.4390021918653333
0.033725587440574474
-0.7320845481471928
-1.4398073436867052
0.0339124821346624
-0.7325517953670697
-1.4398073436867052
0.0339124821346624
-0.7325517953670697
-1.4398073436867052
0.0339124821346624
-0.7325517953670697
-1.4398073436867052
0.0339124821346624
-0.7325517953670697
-1.4414952203470408
0.03395476425122402
-0.7331429511701634
-1.4414952203470408
0.03395476425122402
-0.7331429511701634
-1.4414952203470408
0.03395476425122402
-0.7331429511701634
-1.4414952203470408
0.03395476425122402
-0.7331429511701634
-1.4428523475482553
0.03486519133256139
-0.7337661315681904
-1.4428523475482553
0.03486519133256139
-0.7337661315681904
-1.4428523475482553
0.03486519133256139
-0.7337661315681904
-1.4428523475482553
0.03486519133256139
-0.7337661315681904
-1.4442125065855773
0.035758979759728964
-0.7341679721514681
-1.4442125065855773
0.035758979759728964
-0.7341679721514681
-1.4442125065855773
0.035758979759728964
-0.7341679721514681
-1.4442125065855773
0.035758979759728964
-0.7341679721514681
-1.445641619537206
0.03682200523183618
-0.7347230501138767
-1.445641619537206
0.03682200523183618
-0.7347230501138767
-1.445641619537206
0.03682200523183618
-0.7347230501138767
-1.445641619537206
0.03682200523183618
-0.7347230501138767
-1.4471910364830187
0.03772885424318605
-0.735049478049969
-1.4471910364830187
0.03772885424318605
-0.735049478049969
-1.4471910364830187
0.03772885424318605
-0.735049478049969
-1.4471910364830187
0.03772885424318605
-0.735049478049969
-1.4485754653435328
0.038425719205899614
-0.7354364394265093
-1.4485754653435328
0.038425719205899614
-0.7354364394265093
-1.4485754653435328
0.038425719205899614
-0.7354364394265093
-1.4485754653435328
0.038425719205899614
-0.7354364394265093
-1.449460245424707
0.038566246440471734
-0.735718169900459
-1.449460245424707
0.038566246440471734
-0.735718169900459
-1.449460245424707
0.038566246440471734
-0.735718169900459
-1.449460245424707
0.038566246440471734
-0.735718169900459
-1.450187087333055
0.03830020388228031
-0.7359408446265469
-1.450187087333055
0.03830020388228031
-0.7359408446265469
-1.450187087333055
0.03830020388228031
-0.7359408446265469
-1.450187087333055
0.03830020388228031
-0.7359408446265469
-1.4504911721569966
0.03764083494797816
-0.736147741831557
-1.4504911721569966
0.03764083494797816
-0.736147741831557
-1.4504911721569966
0.03764083494797816
-0.736147741831557
-1.4504911721569966
0.03764083494797816
-0.736147741831557
-1.4514730857672062
0.03681872226067311
-0.7364573861683658
-1.4514730857672062
0.03681872226067311
-0.7364573861683658
-1.4514730857672062
0.03681872226067311
-0.7364573861683658
-1.4514730857672062
0.03681872226067311
-0.7364573861683658
-1.4535573383690665
0.03621140673612438
-0.7366616254327438
-1.4535573383690665
0.03621140673612438
-0.7366616254327438
-1.4535573383690665
0.03621140673612438
-0.7366616254327438
-1.4535573383690665
0.03621140673612438
-0.7366616254327438
-1.4556691440060545
0.03568000410538558
-0.7367800474724009
-1.4556691440060545
0.03568000410538558
-0.7367800474724009
-1.4556691440060545
0.03568000410538558
-0.7367800474724009
-1.4556691440060545
0.03568000410538558
-0.7367800474724009
-1.456204163896137
0.035866366751200564
-0.7371327091756932
-1.456204163896137
0.035866366751200564
-0.7371327091756932
-1.456204163896137
0.035866366751200564
-0.7371327091756932
-1.456204163896137
0.035866366751200564
-0.7371327091756932
-1.456284273492598
0.03631472886936348
-0.7373815774197986
-1.456284273492598
0.03631472886936348
-0.7373815774197986
-1.456284273492598
0.03631472886936348
-0.7373815774197986
-1.456284273492598
0.03631472886936348
-0.7373815774197986
-1.4565254003500507
0.0367011093158688
-0.7376369940905652
-1.4565254003500507
0.0367011093158688
-0.7376369940905652
-1.4565254003500507
0.0367011093158688
-0.7376369940905652
-1.4565254003500507
0.0367011093158688
-0.7376369940905652
-1.457235991734972
0.03663655139809144
-0.7380387668666715
-1.457235991734972
0.03663655139809144
-0.7380387668666715
-1.457235991734972
0.03663655139809144
-0.7380387668666715
-1.457235991734972
0.03663655139809144
-0.7380387668666715
-1.457968962857054
0.036376678673411336
-0.7384206617814549
-1.457968962857054
0.036376678673411336
-0.7384206617814549
-1.457968962857054
0.036376678673411336
-0.7384206617814549
-1.457968962857054
0.036376678673411336
-0.7384206617814549
-1.4584670496150074
0.036696568327671535
-0.7391997933986514
-1.4584670496150074
0.036696568327671535
-0.7391997933986514
-1.4584670496150074
0.036696568327671535
-0.7391997933986514
-1.4584670496150074
0.036696568327671535
-0.7391997933986514
-1.4592271063810458
0.03748468648651639
-0.7402129190928759
-1.4592271063810458
0.03748468648651639
-0.7402129190928759
-1.4592271063810458
0.03748468648651639
-0.7402129190928759
-1.4592271063810458
0.03748468648651639
-0.7402129190928759
-1.4596949280822409
0.03820923718486059
-0.7413543503644257
-1.4596949280822409
0.03820923718486059
-0.7413543503644257
-1.4596949280822409
0.03820923718486059
-0.7413543503644257
-1.4596949280822409
0.03820923718486059
-0.7413543503644257
-1.459740098012764
0.03833747651705032
-0.7421987574716196
-1.459740098012764
0.03833747651705032
-0.7421987574716196
-1.459740098012764
0.03833747651705032
-0.7421987574716196
-1.459740098012764
0.03833747651705032
-0.7421987574716196
-1.4599973185432766
0.037816765288121924
-0.7428907514572723
-1.4599973185432766
0.037816765288121924
-0.7428907514572723
-1.4599973185432766
0.037816765288121924
-0.7428907514572723
-1.4599973185432766
0.037816765288121924
-0.7428907514572723
-1.460344875906156
0.03726911256819546
-0.7437153552945418
-1.460344875906156
0.03726911256819546
-0.7437153552945418
-1.460344875906156
0.03726911256819546
-0.7437153552945418
-1.460344875906156
0.03726911256819546
-0.7437153552945418
-1.461032667990319
0.037146907918492504
-0.7445856187862642
-1.461032667990319
0.037146907918492504
-0.7445856187862642
-1.461032667990319
0.037146907918492504
-0.7445856187862642
-1.461032667990319
0.037146907918492504
-0.7445856187862642
-1.4619652443332374
0.03692699782323425
-0.7454341322703889
-1.4619652443332374
0.03692699782323425
-0.7454341322703889
-1.4619652443332374
0.03692699782323425
-0.7454341322703889
-1.4619652443332374
0.03692699782323425
-0.7454341322703889
-1.4622354817255012
0.03667027544824592
-0.7459991752036637
-1.4622354817255012
0.03667027544824592
-0.7459991752036637
-1.4622354817255012
0.03667027544824592
-0.7459991752036637
-1.4622354817255012
0.03667027544824592
-0.7459991752036637
-1.4618152841718615
0.03630095587695118
-0.7463651122393469
-1.4618152841718615
0.03630095587695118
-0.7463651122393469
-1.4618152841718615
0.03630095587695118
-0.7463651122393469
-1.4618152841718615
0.03630095587695118
-0.7463651122393469
-1.4613196036697385
0.03575594754248234
-0.7464175619011452
-1.4613196036697385
0.03575594754248234
-0.7464175619011452
-1.4613196036697385
0.03575594754248234
-0.7464175619011452
-1.4613196036697385
0.03575594754248234
-0.7464175619011452
-1.460188260972237
0.035001523215544846
-0.7465511356810441
-1.460188260972237
0.035001523215544846
-0.7465511356810441
-1.460188260972237
0.035001523215544846
-0.7465511356810441
-1.460188260972237
0.035001523215544846
-0.7465511356810441
-1.4586446269538147
0.034135833079853906
-0.7467652126445257
-1.4586446269538147
0.034135833079853906
-0.7467652126445257
-1.4586446269538147
0.034135833079853906
-0.7467652126445257
-1.4586446269538147
0.034135833079853906
-0.7467652126445257
-1.4569735394096324
0.03296384570515684
-0.7472201682207753
-1.4569735394096324
0.03296384570515684
-0.7472201682207753
-1.4569735394096324
0.03296384570515684
-0.7472201682207753
-1.4569735394096324
0.03296384570515684
-0.7472201682207753
-1.4544579286146182
0.03175103095427091
-0.7476343880293441
-1.4544579286146182
0.03175103095427091
-0.7476343880293441
-1.4544579286146182
0.03175103095427091
-0.7476343880293441
-1.4544579286146182
0.03175103095427091
-0.7476343880293441
-1.450540579452797
0.030562061438843036
-0.7485090229257111
-1.450540579452797
0.030562061438843036
-0.7485090229257111
-1.450540579452797
0.030562061438843036
-0.7485090229257111
-1.450540579452797
0.030562061438843036
-0.7485090229257111
-1.4449261185725448
0.029301013341091538
-0.7493681051617508
-1.4449261185725448
0.029301013341091538
-0.7493681051617508
-1.4449261185725448
0.029301013341091538
-0.7493681051617508
-1.4449261185725448
0.029301013341091538
-0.7493681051617508
-1.4369044206710835
0.028094313990424294
-0.7506459802684187
-1.4369044206710835
0.028094313990424294
-0.7506459802684187
-1.4369044206710835
0.028094313990424294
-0.7506459802684187
-1.4369044206710835
0.028094313990424294
-0.7506459802684187
-1.425458272871055
0.02648424219283742
-0.7519323650318568
-1.425458272871055
0.02648424219283742
-0.7519323650318568
-1.425458272871055
0.02648424219283742
-0.7519323650318568
-1.425458272871055
0.02648424219283742
-0.7519323650318568
-1.4081076337362097
0.025322485203052164
-0.7538176625535219
-1.4081076337362097
0.025322485203052164
-0.7538176625535219
-1.4081076337362097
0.025322485203052164
-0.7538176625535219
-1.4081076337362097
0.025322485203052164
-0.7538176625535219
-1.3860320174343452
0.024286240314275957
-0.7555751969396616
-1.3860320174343452
0.024286240314275957
-0.7555751969396616
-1.3860320174343452
0.024286240314275957
-0.7555751969396616
-1.3860320174343452
0.024286240314275957
-0.7555751969396616
-1.3587530917654862
0.023888405956845007
-0.7567616472646165
-1.3587530917654862
0.023888405956845007
-0.7567616472646165
-1.3587530917654862
0.023888405956845007
-0.7567616472646165
-1.3587530917654862
0.023888405956845007
-0.7567616472646165
-1.3300357672000371
0.023604153136814215
-0.7563327915056892
-1.3300357672000371
0.023604153136814215
-0.7563327915056892
-1.3300357672000371
0.023604153136814215
-0.7563327915056892
-1.3300357672000371
0.023604153136814215
-0.7563327915056892
-1.3005814967425293
0.024006784718725922
-0.7542388389666264
-1.3005814967425293
0.024006784718725922
-0.7542388389666264
-1.3005814967425293
0.024006784718725922
-0.7542388389666264
-1.3005814967425293
0.024006784718725922
-0.7542388389666264
-1.2740821860159166
0.024749055065883905
-0.7509276689940716
-1.2740821860159166
0.024749055065883905
-0.7509276689940716
-1.2740821860159166
0.024749055065883905
-0.7509276689940716
-1.2740821860159166
0.024749055065883905
-0.7509276689940716
-1.247266309812409
0.025560323427025137
-0.7467549146770915
-1.247266309812409
0.025560323427025137
-0.7467549146770915
-1.247266309812409
0.025560323427025137
-0.7467549146770915
-1.247266309812409
0.025560323427025137
-0.7467549146770915
-1.2202568588015432
0.026606129560212056
-0.7421048393878141
-1.2202568588015432
0.026606129560212056
-0.7421048393878141
-1.2202568588015432
0.026606129560212056
-0.7421048393878141
-1.2202568588015432
0.026606129560212056
-0.7421048393878141
-1.1900946823036476
0.026279027984319418
-0.7383665750190278
-1.1900946823036476
0.026279027984319418
-0.7383665750190278
-1.1900946823036476
0.026279027984319418
-0.7383665750190278
-1.1900946823036476
0.026279027984319418
-0.7383665750190278
-1.1595944389669157
0.023496483410159967
-0.7364302184229643
-1.1595944389669157
0.023496483410159967
-0.7364302184229643
-1.1595944389669157
0.023496483410159967
-0.7364302184229643
-1.1595944389669157
0.023496483410159967
-0.7364302184229643
-1.1307348636200871
0.020576953701461138
-0.7359437439203256
-1.1307348636200871
0.020576953701461138
-0.7359437439203256
-1.1307348636200871
0.020576953701461138
-0.7359437439203256
-1.1307348636200871
0.020576953701461138
-0.7359437439203256
-1.1023297776162533
0.018176378493288205
-0.7350375477794798
-1.1023297776162533
0.018176378493288205
-0.7350375477794798
-1.1023297776162533
0.018176378493288205
-0.7350375477794798
-1.1023297776162533
0.018176378493288205
-0.7350375477794798
-1.0757309832631126
0.015759643714845048
-0.7344622325450951
-1.0757309832631126
0.015759643714845048
-0.7344622325450951
-1.0757309832631126
0.015759643714845048
-0.7344622325450951
-1.0757309832631126
0.015759643714845048
-0.7344622325450951
-1.052440228919495
0.012010888461955613
-0.7350098852343588
-1.052440228919495
0.012010888461955613
-0.7350098852343588
-1.052440228919495
0.012010888461955613
-0.7350098852343588
-1.052440228919495
0.012010888461955613
-0.7350098852343588
-1.0334647522793108
0.008481536387426264
-0.7359012311703096
-1.0334647522793108
0.008481536387426264
-0.7359012311703096
-1.0334647522793108
0.008481536387426264
-0.7359012311703096
-1.0334647522793108
0.008481536387426264
-0.7359012311703096
-1.019702581510041
0.004523131439900566
-0.7360634937029682
-1.019702581510041
0.004523131439900566
-0.7360634937029682
-1.019702581510041
0.004523131439900566
-0.7360634937029682
-1.019702581510041
0.004523131439900566
-0.7360634937029682
-1.0083363241578738
4.5248100485522735E-4
-0.7350877820180531
-1.0083363241578738
4.5248100485522735E-4
-0.7350877820180531
-1.0083363241578738
4.5248100485522735E-4
-0.7350877820180531
-1.0083363241578738
4.5248100485522735E-4
-0.7350877820180531
-1.0025609769253996
-0.0037315846079656483
-0.734281695430956
-1.0025609769253996
-0.0037315846079656483
-0.734281695430956
-1.0025609769253996
-0.0037315846079656483
-0.734281695430956
-1.0025609769253996
-0.0037315846079656483
-0.734281695430956
-1.0037425763403878
-0.0073369318829873496
-0.7340004074086348
-1.0037425763403878
-0.0073369318829873496
-0.7340004074086348
-1.0037425763403878
-0.0073369318829873496
-0.7340004074086348
-1.0037425763403878
-0.0073369318829873496
-0.7340004074086348
-1.0091190811259123
-0.010128050011152348
-0.7345215060932586
-1.0091190811259123
-0.010128050011152348
-0.7345215060932586
-1.0091190811259123
-0.010128050011152348
-0.7345215060932586
-1.0091190811259123
-0.010128050011152348
-0.7345215060932586
-1.0132536567956172
-0.012024202151686498
-0.734791756683377
-1.0132536567956172
-0.012024202151686498
-0.734791756683377
-1.0132536567956172
-0.012024202151686498
-0.734791756683377
-1.0132536567956172
-0.012024202151686498
-0.734791756683377
-1.0149630453716543
-0.012758990230254199
-0.7351651084145624
-1.0149630453716543
-0.012758990230254199
-0.7351651084145624
-1.0149630453716543
-0.012758990230254199
-0.7351651084145624
-1.0149630453716543
-0.012758990230254199
-0.7351651084145624
-1.0142504443603475
-0.01279009873263551
-0.7354429027582251
-1.0142504443603475
-0.01279009873263551
-0.7354429027582251
-1.0142504443603475
-0.01279009873263551
-0.7354429027582251
-1.0142504443603475
-0.01279009873263551
-0.7354429027582251
-1.0138537804096166
-0.012002512736153523
-0.7356521675237756
-1.0138537804096166
-0.012002512736153523
-0.7356521675237756
-1.0138537804096166
-0.012002512736153523
-0.7356521675237756
-1.0138537804096166
-0.012002512736153523
-0.7356521675237756
-1.0136266217352705
-0.010937592370637541
-0.7360644279901722
-1.0136266217352705
-0.010937592370637541
-0.7360644279901722
-1.0136266217352705
-0.010937592370637541
-0.7360644279901722
-1.0136266217352705
-0.010937592370637541
-0.7360644279901722
-1.0136858882726898
-0.009562370554788806
-0.7362058311848234
-1.0136858882726898
-0.009562370554788806
-0.7362058311848234
-1.0136858882726898
-0.009562370554788806
-0.7362058311848234
-1.0136858882726898
-0.009562370554788806
-0.7362058311848234
-1.0148867034734366
-0.007966693284626585
-0.7360151065979292
-1.0148867034734366
-0.007966693284626585
-0.7360151065979292
-1.0148867034734366
-0.007966693284626585
-0.7360151065979292
-1.0148867034734366
-0.007966693284626585
-0.7360151065979292
-1.0166262087515432
-0.0058930125794875565
-0.7361911710808684
-1.0166262087515432
-0.0058930125794875565
-0.7361911710808684
-1.0166262087515432
-0.0058930125794875565
-0.7361911710808684
-1.0166262087515432
-0.0058930125794875565
-0.7361911710808684
-1.0187321760000225
-0.00408852851775455
-0.7365814517957053
-1.0187321760000225
-0.00408852851775455
-0.7365814517957053
-1.0187321760000225
-0.00408852851775455
-0.7365814517957053
-1.0187321760000225
-0.00408852851775455
-0.7365814517957053
-1.0205573112173716
-0.0021261994026022333
-0.7371952607623139
-1.0205573112173716
-0.0021261994026022333
-0.7371952607623139
-1.0205573112173716
-0.0021261994026022333
-0.7371952607623139
-1.0205573112173716
-0.0021261994026022333
-0.7371952607623139
-1.0219029202795769
-3.214371147745088E-4
-0.7375735577451694
-1.0219029202795769
-3.214371147745088E-4
-0.7375735577451694
-1.0219029202795769
-3.214371147745088E-4
-0.7375735577451694
-1.0219029202795769
-3.214371147745088E-4
-0.7375735577451694
-1.0224532742601278
0.0013978985102165355
-0.7376240577518298
-1.0224532742601278
0.0013978985102165355
-0.7376240577518298
-1.0224532742601278
0.0013978985102165355
-0.7376240577518298
-1.0224532742601278
0.0013978985102165355
-0.7376240577518298
-1.0224371630595588
0.0025733287307134287
-0.7376603037816201
-1.0224371630595588
0.0025733287307134287
-0.7376603037816201
-1.0224371630595588
0.0025733287307134287
-0.7376603037816201
-1.0224371630595588
0.0025733287307134287
-0.7376603037816201
-1.0219316736927884
0.0032391372043927462
-0.7376205014142846
-1.0219316736927884
0.0032391372043927462
-0.7376205014142846
-1.0219316736927884
0.0032391372043927462
-0.7376205014142846
-1.0219316736927884
0.0032391372043927462
-0.7376205014142846
-1.0219176345696566
0.0036647727448013757
-0.7374170125485541
-1.0219176345696566
0.0036647727448013757
-0.7374170125485541
-1.0219176345696566
0.0036647727448013757
-0.7374170125485541
-1.0219176345696566
0.0036647727448013757
-0.7374170125485541
-1.0209095199976763
0.00395354741823645
-0.7370637218533767
-1.0209095199976763
0.00395354741823645
-0.7370637218533767
-1.0209095199976763
0.00395354741823645
-0.7370637218533767
-1.0209095199976763
0.00395354741823645
-0.7370637218533767
-1.0201780693769444
0.00390660326869687
-0.7365734895321782
-1.0201780693769444
0.00390660326869687
-0.7365734895321782
-1.0201780693769444
0.00390660326869687
-0.7365734895321782
-1.0201780693769444
0.00390660326869687
-0.7365734895321782
-1.0195884983307684
0.003932169659593842
-0.7358633082974507
-1.0195884983307684
0.003932169659593842
-0.7358633082974507
-1.0195884983307684
0.003932169659593842
-0.7358633082974507
-1.0195884983307684
0.003932169659593842
-0.7358633082974507
-1.018998904481721
0.003957317540866051
-0.7351531063374214
-1.018998904481721
0.003957317540866051
-0.7351531063374214
-1.018998904481721
0.003957317540866051
-0.7351531063374214
-1.018998904481721
0.003957317540866051
-0.7351531063374214
-1.0177216578714134
0.003712778983110747
-0.7345823484949443
-1.0177216578714134
0.003712778983110747
-0.7345823484949443
-1.0177216578714134
0.003712778983110747
-0.7345823484949443
-1.0177216578714134
0.003712778983110747
-0.7345823484949443
-1.0165096659562642
0.0033411812204069066
-0.7336807244570895
-1.0165096659562642
0.0033411812204069066
-0.7336807244570895
-1.0165096659562642
0.0033411812204069066
-0.7336807244570895
-1.0165096659562642
0.0033411812204069066
-0.7336807244570895
-1.0155618053542843
0.0027273158580304324
-0.7332675794944906
-1.0155618053542843
0.0027273158580304324
-0.7332675794944906
-1.0155618053542843
0.0027273158580304324
-0.7332675794944906
-1.0155618053542843
0.0027273158580304324
-0.7332675794944906
-1.0143807838608776
0.0022661995235622743
-0.7327594247418937
-1.0143807838608776
0.0022661995235622743
-0.7327594247418937
-1.0143807838608776
0.0022661995235622743
-0.7327594247418937
-1.0143807838608776
0.0022661995235622743
-0.7327594247418937
-1.0131505671288699
0.0023056044081884736
-0.7319084886772663
-1.0131505671288699
0.0023056044081884736
-0.7319084886772663
-1.0131505671288699
0.0023056044081884736
-0.7319084886772663
-1.0131505671288699
0.0023056044081884736
-0.7319084886772663
-1.0123760459389182
0.0024738876728629066
-0.7307889084890234
-1.0123760459389182
0.0024738876728629066
-0.7307889084890234
-1.0123760459389182
0.0024738876728629066
-0.7307889084890234
-1.0123760459389182
0.0024738876728629066
-0.7307889084890234
-1.0130402423856597
0.0030186340903651503
-0.7299184136481198
-1.0130402423856597
0.0030186340903651503
-0.7299184136481198
-1.0130402423856597
0.0030186340903651503
-0.7299184136481198
-1.0130402423856597
0.0030186340903651503
-0.7299184136481198
-1.0141962904276232
0.003490140428320245
-0.7290579795846204
-1.0141962904276232
0.003490140428320245
-0.7290579795846204
-1.0141962904276232
0.003490140428320245
-0.7290579795846204
-1.0141962904276232
0.003490140428320245
-0.7290579795846204
-1.0150282443167764
0.004010021207715035
-0.7286153884355666
-1.0150282443167764
0.004010021207715035
-0.7286153884355666
-1.0150282443167764
0.004010021207715035
-0.7286153884355666
-1.0150282443167764
0.004010021207715035
-0.7286153884355666
-1.016826469795506
0.004733066104967803
-0.7285371346543935
-1.016826469795506
0.004733066104967803
-0.7285371346543935
-1.016826469795506
0.004733066104967803
-0.7285371346543935
-1.016826469795506
0.004733066104967803
-0.7285371346543935
-1.0205583409743841
0.0054669243004661925
-0.7286896933543663
-1.0205583409743841
0.0054669243004661925
-0.7286896933543663
-1.0205583409743841
0.0054669243004661925
-0.7286896933543663
-1.0205583409743841
0.0054669243004661925
-0.7286896933543663
-1.0254632299550859
0.006514242224040838
-0.7288324590790735
-1.0254632299550859
0.006514242224040838
-0.7288324590790735
-1.0254632299550859
0.006514242224040838
-0.7288324590790735
-1.0254632299550859
0.006514242224040838
-0.7288324590790735
-1.0322945745934402
0.007978215817522227
-0.7293623758378308
-1.0322945745934402
0.007978215817522227
-0.7293623758378308
-1.0322945745934402
0.007978215817522227
-0.7293623758378308
-1.0322945745934402
0.007978215817522227
-0.7293623758378308
-1.041920827478099
0.009538283477624723
-0.7299992501335392
-1.041920827478099
0.009538283477624723
-0.7299992501335392
-1.041920827478099
0.009538283477624723
-0.7299992501335392
-1.041920827478099
0.009538283477624723
-0.7299992501335392
-1.0545606062108583
0.011231812652972207
-0.7315874714959605
-1.0545606062108583
0.011231812652972207
-0.7315874714959605
-1.0545606062108583
0.011231812652972207
-0.7315874714959605
-1.0545606062108583
0.011231812652972207
-0.7315874714959605
-1.0707249446386191
0.01342223199739037
-0.7342076381713082
-1.0707249446386191
0.01342223199739037
-0.7342076381713082
-1.0707249446386191
0.01342223199739037
-0.7342076381713082
-1.0707249446386191
0.01342223199739037
-0.7342076381713082
-1.0903652604830154
0.015822454712874856
-0.7375479494439516
-1.0903652604830154
0.015822454712874856
-0.7375479494439516
-1.0903652604830154
0.015822454712874856
-0.7375479494439516
-1.0903652604830154
0.015822454712874856
-0.7375479494439516
-1.1126746052514505
0.018402455584242534
-0.7412505111764932
-1.1126746052514505
0.018402455584242534
-0.7412505111764932
-1.1126746052514505
0.018402455584242534
-0.7412505111764932
-1.1126746052514505
0.018402455584242534
-0.7412505111764932
-1.1365738504244736
0.02096016203564511
-0.7460475207349808
-1.1365738504244736
0.02096016203564511
-0.7460475207349808
-1.1365738504244736
0.02096016203564511
-0.7460475207349808
-1.1365738504244736
0.02096016203564511
-0.7460475207349808
-1.1615402557716963
0.022664751481149808
-0.7512664908156079
-1.1615402557716963
0.022664751481149808
-0.7512664908156079
-1.1615402557716963
0.022664751481149808
-0.7512664908156079
-1.1615402557716963
0.022664751481149808
-0.7512664908156079
-1.1909142090479714
0.02442648103300462
-0.7559572062619897
-1.1909142090479714
0.02442648103300462
-0.7559572062619897
-1.1909142090479714
0.02442648103300462
-0.7559572062619897
-1.1909142090479714
0.02442648103300462
-0.7559572062619897
-1.2247917039165772
0.02602948376571167
-0.7597673157069447
-1.2247917039165772
0.02602948376571167
-0.7597673157069447
-1.2247917039165772
0.02602948376571167
-0.7597673157069447
-1.2247917039165772
0.02602948376571167
-0.7597673157069447
-1.2588206385077196
0.02647143666749954
-0.763632465034426
-1.2588206385077196
0.02647143666749954
-0.763632465034426
-1.2588206385077196
0.02647143666749954
-0.763632465034426
-1.2588206385077196
0.02647143666749954
-0.763632465034426
-1.2937218679391953
0.025854407801243182
-0.7669893627952985
-1.2937218679391953
0.025854407801243182
-0.7669893627952985
-1.2937218679391953
0.025854407801243182
-0.7669893627952985
-1.2937218679391953
0.025854407801243182
-0.7669893627952985
-1.3276286794338032
0.02516773127675658
-0.769936356762919
-1.3276286794338032
0.02516773127675658
-0.769936356762919
-1.3276286794338032
0.02516773127675658
-0.769936356762919
-1.3276286794338032
0.02516773127675658
-0.769936356762919
-1.3573968311228808
0.024977510833970398
-0.7725083733120689
-1.3573968311228808
0.024977510833970398
-0.7725083733120689
-1.3573968311228808
0.024977510833970398
-0.7725083733120689
-1.3573968311228808
0.024977510833970398
-0.7725083733120689
-1.3805478822132973
0.0245393597771275
-0.7763680846243871
-1.3805478822132973
0.0245393597771275
-0.7763680846243871
-1.3805478822132973
0.0245393597771275
-0.7763680846243871
-1.3805478822132973
0.0245393597771275
-0.7763680846243871
-1.3999886885159516
0.02199033609011231
-0.7814614592112438
-1.3999886885159516
0.02199033609011231
-0.7814614592112438
-1.3999886885159516
0.02199033609011231
-0.7814614592112438
-1.3999886885159516
0.02199033609011231
-0.7814614592112438
-1.4173538133395454
0.019352319137921948
-0.7864696275954994
-1.4173538133395454
0.019352319137921948
-0.7864696275954994
-1.4173538133395454
0.019352319137921948
-0.7864696275954994
-1.4173538133395454
0.019352319137921948
-0.7864696275954994
-1.4325000480760317
0.017237377191159968
-0.7911040002219859
-1.4325000480760317
0.017237377191159968
-0.7911040002219859
-1.4325000480760317
0.017237377191159968
-0.7911040002219859
-1.4325000480760317
0.017237377191159968
-0.7911040002219859
-1.4431065215858563
0.017230344494392265
-0.7955866640150587
-1.4431065215858563
0.017230344494392265
-0.7955866640150587
-1.4431065215858563
0.017230344494392265
-0.7955866640150587
-1.4431065215858563
0.017230344494392265
-0.7955866640150587
-1.4520220238078585
0.018895023107353057
-0.7981571245729984
-1.4520220238078585
0.018895023107353057
-0.7981571245729984
-1.4520220238078585
0.018895023107353057
-0.7981571245729984
-1.4520220238078585
0.018895023107353057
-0.7981571245729984
-1.4594553166373454
0.021405749116834828
-0.7984982443786238
-1.4594553166373454
0.021405749116834828
-0.7984982443786238
-1.4594553166373454
0.021405749116834828
-0.7984982443786238
-1.4594553166373454
0.021405749116834828
-0.7984982443786238
-1.4651638911069031
0.02469766319077214
-0.7981712422764917
-1.4651638911069031
0.02469766319077214
-0.7981712422764917
-1.4651638911069031
0.02469766319077214
-0.7981712422764917
-1.4651638911069031
0.02469766319077214
-0.7981712422764917
-1.4691594341438687
0.02903374391694445
-0.7968888073449826
-1.4691594341438687
0.02903374391694445
-0.7968888073449826
-1.4691594341438687
0.02903374391694445
-0.7968888073449826
-1.4691594341438687
0.02903374391694445
-0.7968888073449826
-1.4710653290010278
0.032656108312837606
-0.7955784967746364
-1.4710653290010278
0.032656108312837606
-0.7955784967746364
-1.4710653290010278
0.032656108312837606
-0.7955784967746364
-1.4710653290010278
0.032656108312837606
-0.7955784967746364
-1.4731208003697631
0.03509673712878032
-0.794369182110976
-1.4731208003697631
0.03509673712878032
-0.794369182110976
-1.4731208003697631
0.03509673712878032
-0.794369182110976
-1.4731208003697631
0.03509673712878032
-0.794369182110976
-1.4740471202703875
0.037304242731454024
-0.7938928627203156
-1.4740471202703875
0.037304242731454024
-0.7938928627203156
-1.4740471202703875
0.037304242731454024
-0.7938928627203156
-1.4740471202703875
0.037304242731454024
-0.7938928627203156
-1.4745309658238894
0.039125098886673766
-0.7932356214682701
-1.4745309658238894
0.039125098886673766
-0.7932356214682701
-1.4745309658238894
0.039125098886673766
-0.7932356214682701
-1.4745309658238894
0.039125098886673766
-0.7932356214682701
-1.475806200346773
0.04016576778809739
-0.7929386070766568
-1.475806200346773
0.04016576778809739
-0.7929386070766568
-1.475806200346773
0.04016576778809739
-0.7929386070766568
-1.475806200346773
0.04016576778809739
-0.7929386070766568
-1.4774463111088996
0.041623864503800796
-0.7927903416684469
-1.4774463111088996
0.041623864503800796
-0.7927903416684469
-1.4774463111088996
0.041623864503800796
-0.7927903416684469
-1.4774463111088996
0.041623864503800796
-0.7927903416684469
-1.4801209789464218
0.04309065822474441
-0.7921676246647411
-1.4801209789464218
0.04309065822474441
-0.7921676246647411
-1.4801209789464218
0.04309065822474441
-0.7921676246647411
-1.4801209789464218
0.04309065822474441
-0.7921676246647411
-1.48197467065993
0.04506852120757777
-0.7911556187253053
-1.48197467065993
0.04506852120757777
-0.7911556187253053
-1.48197467065993
0.04506852120757777
-0.7911556187253053
-1.48197467065993
0.04506852120757777
-0.7911556187253053
-1.4819907386465392
0.04714464519101003
-0.7898604589966493
-1.4819907386465392
0.04714464519101003
-0.7898604589966493
-1.4819907386465392
0.04714464519101003
-0.7898604589966493
-1.4819907386465392
0.04714464519101003
-0.7898604589966493
-1.4801101812064452
0.04850605330022137
-0.7884247174102835
-1.4801101812064452
0.04850605330022137
-0.7884247174102835
-1.4801101812064452
0.04850605330022137
-0.7884247174102835
-1.4801101812064452
0.04850605330022137
-0.7884247174102835
-1.4787775051056418
0.048702272132679914
-0.7870203027616149
-1.4787775051056418
0.048702272132679914
-0.7870203027616149
-1.4787775051056418
0.048702272132679914
-0.7870203027616149
-1.4787775051056418
0.048702272132679914
-0.7870203027616149
-1.479307435084014
0.04840761346944896
-0.7856970772530832
-1.479307435084014
0.04840761346944896
-0.7856970772530832
-1.479307435084014
0.04840761346944896
-0.7856970772530832
-1.479307435084014
0.04840761346944896
-0.7856970772530832
-1.480146873960761
0.04818352982088189
-0.7845708635723337
-1.480146873960761
0.04818352982088189
-0.7845708635723337
-1.480146873960761
0.04818352982088189
-0.7845708635723337
-1.480146873960761
0.04818352982088189
-0.7845708635723337
-1.4796256131873478
0.04761163549093336
-0.783846366474619
-1.4796256131873478
0.04761163549093336
-0.783846366474619
-1.4796256131873478
0.04761163549093336
-0.783846366474619
-1.4796256131873478
0.04761163549093336
-0.783846366474619
-1.4787762913935705
0.046242229906267765
-0.7831511546527651
-1.4787762913935705
0.046242229906267765
-0.7831511546527651
-1.4787762913935705
0.046242229906267765
-0.7831511546527651
-1.4787762913935705
0.046242229906267765
-0.7831511546527651
-1.4788849120189858
0.044466290867157046
-0.7822715283296383
-1.4788849120189858
0.044466290867157046
-0.7822715283296383
-1.4788849120189858
0.044466290867157046
-0.7822715283296383
-1.4788849120189858
0.044466290867157046
-0.7822715283296383
-1.4788477946731866
0.043028225181798135
-0.7813262116119448
-1.4788477946731866
0.043028225181798135
-0.7813262116119448
-1.4788477946731866
0.043028225181798135
-0.7813262116119448
-1.4788477946731866
0.043028225181798135
-0.7813262116119448
-1.4776750088852646
0.04130861262223466
-0.7803374055983686
-1.4776750088852646
0.04130861262223466
-0.7803374055983686
-1.4776750088852646
0.04130861262223466
-0.7803374055983686
-1.4776750088852646
0.04130861262223466
-0.7803374055983686
-1.4775928701399785
0.03951493495398121
-0.7793757506069365
-1.4775928701399785
0.03951493495398121
-0.7793757506069365
-1.4775928701399785
0.03951493495398121
-0.7793757506069365
-1.4775928701399785
0.03951493495398121
-0.7793757506069365
-1.4778681413366526
0.038134638417856
-0.7784018078932216
-1.4778681413366526
0.038134638417856
-0.7784018078932216
-1.4778681413366526
0.038134638417856
-0.7784018078932216
-1.4778681413366526
0.038134638417856
-0.7784018078932216
-1.477523352452857
0.03683246515400694
-0.7776051736798943
-1.477523352452857
0.03683246515400694
-0.7776051736798943
-1.477523352452857
0.03683246515400694
-0.7776051736798943
-1.477523352452857
0.03683246515400694
-0.7776051736798943
-1.4773570970897427
0.03574299578789265
-0.7769149966510579
-1.4773570970897427
0.03574299578789265
-0.7769149966510579
-1.4773570970897427
0.03574299578789265
-0.7769149966510579
-1.4773570970897427
0.03574299578789265
-0.7769149966510579
-1.4777297840580266
0.034825372734926266
-0.7765789864209042
-1.4777297840580266
0.034825372734926266
-0.7765789864209042
-1.4777297840580266
0.034825372734926266
-0.7765789864209042
-1.4777297840580266
0.034825372734926266
-0.7765789864209042
-1.4778363700159949
0.03439917604262898
-0.7764079655331558
-1.4778363700159949
0.03439917604262898
-0.7764079655331558
-1.4778363700159949
0.03439917604262898
-0.7764079655331558
-1.4778363700159949
0.03439917604262898
-0.7764079655331558
-1.4770436965095852
0.03405596028437177
-0.7761377279587565
-1.4770436965095852
0.03405596028437177
-0.7761377279587565
-1.4770436965095852
0.03405596028437177
-0.7761377279587565
-1.4770436965095852
0.03405596028437177
-0.7761377279587565
-1.4760734156209596
0.033972727243907715
-0.7758851882993301
-1.4760734156209596
0.033972727243907715
-0.7758851882993301
-1.4760734156209596
0.033972727243907715
-0.7758851882993301
-1.4760734156209596
0.033972727243907715
-0.7758851882993301
-1.4759967730809043
0.03400237069461054
-0.7758497193364996
-1.4759967730809043
0.03400237069461054
-0.7758497193364996
-1.4759967730809043
0.03400237069461054
-0.7758497193364996
-1.4759967730809043
0.03400237069461054
-0.7758497193364996
-1.47596130711403
0.033919310598091224
-0.7757730797924003
-1.47596130711403
0.033919310598091224
-0.7757730797924003
-1.47596130711403
0.033919310598091224
-0.7757730797924003
-1.47596130711403
0.033919310598091224
-0.7757730797924003
-1.4759316461390446
0.033842717964956526
-0.775856190064474
-1.4759316461390446
0.033842717964956526
-0.775856190064474
-1.4759316461390446
0.033842717964956526
-0.775856190064474
-1.4759316461390446
0.033842717964956526
-0.775856190064474
-1.4751495589652404
0.03399777051358257
-0.7762536989075356
-1.4751495589652404
0.03399777051358257
-0.7762536989075356
-1.4751495589652404
0.03399777051358257
-0.7762536989075356
-1.4751495589652404
0.03399777051358257
-0.7762536989075356
-1.4749898244483173
0.03406289076550061
-0.7762478543464307
-1.4749898244483173
0.03406289076550061
-0.7762478543464307
-1.4749898244483173
0.03406289076550061
-0.7762478543464307
-1.4749898244483173
0.03406289076550061
-0.7762478543464307
-1.4749898244483173
0.03406289076550061
-0.7762478543464307
-1.4749898244483173
0.03406289076550061
-0.7762478543464307
-1.4749898244483173
0.03406289076550061
-0.7762478543464307
-1.4749898244483173
0.03406289076550061
-0.7762478543464307
-1.4749543235846145
0.03397979767289395
-0.7761712591130808
-1.4749543235846145
0.03397979767289395
-0.7761712591130808
-1.4749543235846145
0.03397979767289395
-0.7761712591130808
-1.4749543235846145
0.03397979767289395
-0.7761712591130808
-1.4741554345081649
0.03384444661788544
-0.7762441757457383
-1.4741554345081649
0.03384444661788544
-0.7762441757457383
-1.4741554345081649
0.03384444661788544
-0.7762441757457383
-1.4741554345081649
0.03384444661788544
-0.7762441757457383
-1.4737877671849307
0.03317155375320698
-0.7765433057754073
-1.4737877671849307
0.03317155375320698
-0.7765433057754073
-1.4737877671849307
0.03317155375320698
-0.7765433057754073
-1.4737877671849307
0.03317155375320698
-0.7765433057754073
-1.474620972780446
0.03294131801818829
-0.7768737279481363
-1.474620972780446
0.03294131801818829
-0.7768737279481363
-1.474620972780446
0.03294131801818829
-0.7768737279481363
-1.474620972780446
0.03294131801818829
-0.7768737279481363
-1.4748511809082296
0.0325814239099595
-0.7771346984496388
-1.4748511809082296
0.0325814239099595
-0.7771346984496388
-1.4748511809082296
0.0325814239099595
-0.7771346984496388
-1.4748511809082296
0.0325814239099595
-0.7771346984496388
-1.4748511809082296
0.0325814239099595
-0.7771346984496388
-1.4748511809082296
0.0325814239099595
-0.7771346984496388
-1.4748511809082296
0.0325814239099595
-0.7771346984496388
-1.4748511809082296
0.0325814239099595
-0.7771346984496388
-1.4744253393753697
0.03246245074586232
-0.7768935964607543
-1.4744253393753697
0.03246245074586232
-0.7768935964607543
-1.4744253393753697
0.03246245074586232
-0.7768935964607543
-1.4744253393753697
0.03246245074586232
-0.7768935964607543
-1.4743255871414587
0.032207319828136835
-0.776598806347526
-1.4743255871414587
0.032207319828136835
-0.776598806347526
-1.4743255871414587
0.032207319828136835
-0.776598806347526
-1.4743255871414587
0.032207319828136835
-0.776598806347526
-1.4744324155349728
0.03178083568374053
-0.7764283794523674
-1.4744324155349728
0.03178083568374053
-0.7764283794523674
-1.4744324155349728
0.03178083568374053
-0.7764283794523674
-1.4744324155349728
0.03178083568374053
-0.7764283794523674
-1.4740478205645802
0.03175148671014521
-0.7764236744999379
-1.4740478205645802
0.03175148671014521
-0.7764236744999379
-1.4740478205645802
0.03175148671014521
-0.7764236744999379
-1.4740478205645802
0.03175148671014521
-0.7764236744999379
-1.4741069340080302
0.03144355474227374
-0.7763595448046782
-1.4741069340080302
0.03144355474227374
-0.7763595448046782
-1.4741069340080302
0.03144355474227374
-0.7763595448046782
-1.4741069340080302
0.03144355474227374
-0.7763595448046782
-1.4745095551055043
0.03127788660944573
-0.7763411005823238
-1.4745095551055043
0.03127788660944573
-0.7763411005823238
-1.4745095551055043
0.03127788660944573
-0.7763411005823238
-1.4745095551055043
0.03127788660944573
-0.7763411005823238
-1.4745095551055043
0.03127788660944573
-0.7763411005823238
-1.4745095551055043
0.03127788660944573
-0.7763411005823238
-1.4745095551055043
0.03127788660944573
-0.7763411005823238
-1.4745095551055043
0.03127788660944573
-0.7763411005823238
-1.4748335733973126
0.03116652453377729
-0.7767369635549182
-1.4748335733973126
0.03116652453377729
-0.7767369635549182
-1.4748335733973126
0.03116652453377729
-0.7767369635549182
-1.4748335733973126
0.03116652453377729
-0.7767369635549182
-1.4748335733973126
0.03116652453377729
-0.7767369635549182
-1.4748335733973126
0.03116652453377729
-0.7767369635549182
-1.4748335733973126
0.03116652453377729
-0.7767369635549182
-1.4748335733973126
0.03116652453377729
-0.7767369635549182
-1.4750625016193235
0.030818925476448655
-0.7772226002575133
-1.4750625016193235
0.030818925476448655
-0.7772226002575133
-1.4750625016193235
0.030818925476448655
-0.7772226002575133
-1.4750625016193235
0.030818925476448655
-0.7772226002575133
-1.474936497741473
0.03051859002776379
-0.7776205152607569
-1.474936497741473
0.03051859002776379
-0.7776205152607569
-1.474936497741473
0.03051859002776379
-0.7776205152607569
-1.474936497741473
0.03051859002776379
-0.7776205152607569
-1.474901076274701
0.03043546058395125
-0.7775440088468278
-1.474901076274701
0.03043546058395125
-0.7775440088468278
-1.474901076274701
0.03043546058395125
-0.7775440088468278
-1.474901076274701
0.03043546058395125
-0.7775440088468278
-1.4753035892635855
0.03026958586097911
-0.7775252580658001
-1.4753035892635855
0.03026958586097911
-0.7775252580658001
-1.4753035892635855
0.03026958586097911
-0.7775252580658001
-1.4753035892635855
0.03026958586097911
-0.7775252580658001
-1.4752737223774186
0.030193105676019585
-0.7776084131814424
-1.4752737223774186
0.030193105676019585
-0.7776084131814424
-1.4752737223774186
0.030193105676019585
-0.7776084131814424
-1.4752737223774186
0.030193105676019585
-0.7776084131814424
-1.4752383201231891
0.03010998609045012
-0.7775319009598352
-1.4752383201231891
0.03010998609045012
-0.7775319009598352
-1.4752383201231891
0.03010998609045012
-0.7775319009598352
-1.4752383201231891
0.03010998609045012
-0.7775319009598352
-1.4750786486024585
0.03017522527329878
-0.7775263660544555
-1.4750786486024585
0.03017522527329878
-0.7775263660544555
-1.4750786486024585
0.03017522527329878
-0.7775263660544555
-1.4750786486024585
0.03017522527329878
-0.7775263660544555
-1.4750786486024585
0.03017522527329878
-0.7775263660544555
-1.4750786486024585
0.03017522527329878
-0.7775263660544555
-1.4750786486024585
0.03017522527329878
-0.7775263660544555
-1.4750786486024585
0.03017522527329878
-0.7775263660544555
-1.4750177736639856
0.030034485643831915
-0.7779176441608003
-1.4750177736639856
0.030034485643831915
-0.7779176441608003
-1.4750177736639856
0.030034485643831915
-0.7779176441608003
-1.4750177736639856
0.030034485643831915
-0.7779176441608003
-1.474767293346057
0.029882624990641232
-0.7783865770333406
-1.474767293346057
0.029882624990641232
-0.7783865770333406
-1.474767293346057
0.029882624990641232
-0.7783865770333406
-1.474767293346057
0.029882624990641232
-0.7783865770333406
-1.4741364622850686
0.02972104053786132
-0.7792358233938853
-1.4741364622850686
0.02972104053786132
-0.7792358233938853
-1.4741364622850686
0.02972104053786132
-0.7792358233938853
-1.4741364622850686
0.02972104053786132
-0.7792358233938853
-1.4739733035903118
0.02955313138730451
-0.7800595082441213
-1.4739733035903118
0.02955313138730451
-0.7800595082441213
-1.4739733035903118
0.02955313138730451
-0.7800595082441213
-1.4739733035903118
0.02955313138730451
-0.7800595082441213
-1.4735126059434798
0.029137438756178184
-0.7809567608125741
-1.4735126059434798
0.029137438756178184
-0.7809567608125741
-1.4735126059434798
0.029137438756178184
-0.7809567608125741
-1.4735126059434798
0.029137438756178184
-0.7809567608125741
-1.4731540037986064
0.02895237612664786
-0.7816986303864362
-1.4731540037986064
0.02895237612664786
-0.7816986303864362
-1.4731540037986064
0.02895237612664786
-0.7816986303864362
-1.4731540037986064
0.02895237612664786
-0.7816986303864362
-1.4723186493043487
0.029425203205411195
-0.7823213712672459
-1.4723186493043487
0.029425203205411195
-0.7823213712672459
-1.4723186493043487
0.029425203205411195
-0.7823213712672459
-1.4723186493043487
0.029425203205411195
-0.7823213712672459
-1.4705673226708806
0.030179286617229083
-0.7828690502359916
-1.4705673226708806
0.030179286617229083
-0.7828690502359916
-1.4705673226708806
0.030179286617229083
-0.7828690502359916
-1.4705673226708806
0.030179286617229083
-0.7828690502359916
-1.4674912540765201
0.03111835490313673
-0.7835781634533937
-1.4674912540765201
0.03111835490313673
-0.7835781634533937
-1.4674912540765201
0.03111835490313673
-0.7835781634533937
-1.4674912540765201
0.03111835490313673
-0.7835781634533937
-1.4634220919480303
0.03238414302729958
-0.7843970287179622
-1.4634220919480303
0.03238414302729958
-0.7843970287179622
-1.4634220919480303
0.03238414302729958
-0.7843970287179622
-1.4634220919480303
0.03238414302729958
-0.7843970287179622
-1.457740188458025
0.034046432331474176
-0.7852743046796092
-1.457740188458025
0.034046432331474176
-0.7852743046796092
-1.457740188458025
0.034046432331474176
-0.7852743046796092
-1.457740188458025
0.034046432331474176
-0.7852743046796092
-1.4491643420840665
0.03598431318181987
-0.7862066018430112
-1.4491643420840665
0.03598431318181987
-0.7862066018430112
-1.4491643420840665
0.03598431318181987
-0.7862066018430112
-1.4491643420840665
0.03598431318181987
-0.7862066018430112
-1.4361883723483015
0.038392105271446555
-0.7875731540459324
-1.4361883723483015
0.038392105271446555
-0.7875731540459324
-1.4361883723483015
0.038392105271446555
-0.7875731540459324
-1.4361883723483015
0.038392105271446555
-0.7875731540459324
-1.4213512875895542
0.04130659707232387
-0.7888203732979766
-1.4213512875895542
0.04130659707232387
-0.7888203732979766
-1.4213512875895542
0.04130659707232387
-0.7888203732979766
-1.4213512875895542
0.04130659707232387
-0.7888203732979766
-1.4040791804730512
0.04497274261010581
-0.7899960454770331
-1.4040791804730512
0.04497274261010581
-0.7899960454770331
-1.4040791804730512
0.04497274261010581
-0.7899960454770331
-1.4040791804730512
0.04497274261010581
-0.7899960454770331
-1.3845688826337414
0.04962361644288363
-0.7904706854133028
-1.3845688826337414
0.04962361644288363
-0.7904706854133028
-1.3845688826337414
0.04962361644288363
-0.7904706854133028
-1.3845688826337414
0.04962361644288363
-0.7904706854133028
-1.3605602100980714
0.05479269618921021
-0.7895439914344214
-1.3605602100980714
0.05479269618921021
-0.7895439914344214
-1.3605602100980714
0.05479269618921021
-0.7895439914344214
-1.3605602100980714
0.05479269618921021
-0.7895439914344214
-1.330707256233529
0.060215211277701325
-0.7870873664535165
-1.330707256233529
0.060215211277701325
-0.7870873664535165
-1.330707256233529
0.060215211277701325
-0.7870873664535165
-1.330707256233529
0.060215211277701325
-0.7870873664535165
-1.2979997373003274
0.0656271657783444
-0.7827443698800716
-1.2979997373003274
0.0656271657783444
-0.7827443698800716
-1.2979997373003274
0.0656271657783444
-0.7827443698800716
-1.2979997373003274
0.0656271657783444
-0.7827443698800716
-1.2625308521556853
0.06984905866753423
-0.7765810202881125
-1.2625308521556853
0.06984905866753423
-0.7765810202881125
-1.2625308521556853
0.06984905866753423
-0.7765810202881125
-1.2625308521556853
0.06984905866753423
-0.7765810202881125
-1.226786660948249
0.0714555197007723
-0.77066961802121
-1.226786660948249
0.0714555197007723
-0.77066961802121
-1.226786660948249
0.0714555197007723
-0.77066961802121
-1.226786660948249
0.0714555197007723
-0.77066961802121
-1.1916448526870025
0.07121276849686316
-0.7663196352709342
-1.1916448526870025
0.07121276849686316
-0.7663196352709342
-1.1916448526870025
0.07121276849686316
-0.7663196352709342
-1.1916448526870025
0.07121276849686316
-0.7663196352709342
-1.1579355852800586
0.06964506851658592
-0.7632833512540165
-1.1579355852800586
0.06964506851658592
-0.7632833512540165
-1.1579355852800586
0.06964506851658592
-0.7632833512540165
-1.1579355852800586
0.06964506851658592
-0.7632833512540165
-1.1260196402978129
0.06832689542307496
-0.7609463902737682
-1.1260196402978129
0.06832689542307496
-0.7609463902737682
-1.1260196402978129
0.06832689542307496
-0.7609463902737682
-1.1260196402978129
0.06832689542307496
-0.7609463902737682
-1.0963125252936377
0.0675474631858055
-0.7590616493558223
-1.0963125252936377
0.0675474631858055
-0.7590616493558223
-1.0963125252936377
0.0675474631858055
-0.7590616493558223
-1.0963125252936377
0.0675474631858055
-0.7590616493558223
-1.0690457754786038
0.06576907917121909
-0.7564198927192759
-1.0690457754786038
0.06576907917121909
-0.7564198927192759
-1.0690457754786038
0.06576907917121909
-0.7564198927192759
-1.0690457754786038
0.06576907917121909
-0.7564198927192759
-1.0438795449752365
0.06213246049196934
-0.7532509480732019
-1.0438795449752365
0.06213246049196934
-0.7532509480732019
-1.0438795449752365
0.06213246049196934
-0.7532509480732019
-1.0438795449752365
0.06213246049196934
-0.7532509480732019
-1.0215175551687066
0.05722312774810331
-0.7503498376404844
-1.0215175551687066
0.05722312774810331
-0.7503498376404844
-1.0215175551687066
0.05722312774810331
-0.7503498376404844
-1.0215175551687066
0.05722312774810331
-0.7503498376404844
-1.0007728281809172
0.051624137656521824
-0.7479728954331615
-1.0007728281809172
0.051624137656521824
-0.7479728954331615
-1.0007728281809172
0.051624137656521824
-0.7479728954331615
-1.0007728281809172
0.051624137656521824
-0.7479728954331615
-0.9825459969239443
0.04588750698004412
-0.7458878007780424
-0.9825459969239443
0.04588750698004412
-0.7458878007780424
-0.9825459969239443
0.04588750698004412
-0.7458878007780424
-0.9825459969239443
0.04588750698004412
-0.7458878007780424
-0.9695794465560255
0.03942048990866112
-0.7440074971858619
-0.9695794465560255
0.03942048990866112
-0.7440074971858619
-0.9695794465560255
0.03942048990866112
-0.7440074971858619
-0.9695794465560255
0.03942048990866112
-0.7440074971858619
-0.9603911008909246
0.03158841601880729
-0.7424213145884553
-0.9603911008909246
0.03158841601880729
-0.7424213145884553
-0.9603911008909246
0.03158841601880729
-0.7424213145884553
-0.9603911008909246
0.03158841601880729
-0.7424213145884553
-0.9556197629026695
0.02427005714457785
-0.7397797958967819
-0.9556197629026695
0.02427005714457785
-0.7397797958967819
-0.9556197629026695
0.02427005714457785
-0.7397797958967819
-0.9556197629026695
0.02427005714457785
-0.7397797958967819
-0.9556161792479897
0.01727665336107642
-0.7367208911544729
-0.9556161792479897
0.01727665336107642
-0.7367208911544729
-0.9556161792479897
0.01727665336107642
-0.7367208911544729
-0.9556161792479897
0.01727665336107642
-0.7367208911544729
-0.9570684845574245
0.010193659182050622
-0.7342250315361951
-0.9570684845574245
0.010193659182050622
-0.7342250315361951
-0.9570684845574245
0.010193659182050622
-0.7342250315361951
-0.9570684845574245
0.010193659182050622
-0.7342250315361951
-0.9577091262955211
0.003827771523997966
-0.7326810675700146
-0.9577091262955211
0.003827771523997966
-0.7326810675700146
-0.9577091262955211
0.003827771523997966
-0.7326810675700146
-0.9577091262955211
0.003827771523997966
-0.7326810675700146
-0.9565717577249071
-0.001109569397120749
-0.7322225391439506
-0.9565717577249071
-0.001109569397120749
-0.7322225391439506
-0.9565717577249071
-0.001109569397120749
-0.7322225391439506
-0.9565717577249071
-0.001109569397120749
-0.7322225391439506
-0.9539978339734821
-0.004619317412033535
-0.7318321381048699
-0.9539978339734821
-0.004619317412033535
-0.7318321381048699
-0.9539978339734821
-0.004619317412033535
-0.7318321381048699
-0.9539978339734821
-0.004619317412033535
-0.7318321381048699
-0.9501606393392339
-0.007001084816238547
-0.7313082503458447
-0.9501606393392339
-0.007001084816238547
-0.7313082503458447
-0.9501606393392339
-0.007001084816238547
-0.7313082503458447
-0.9501606393392339
-0.007001084816238547
-0.7313082503458447
-0.9482608215002168
-0.00860472164453989
-0.7307101503990954
-0.9482608215002168
-0.00860472164453989
-0.7307101503990954
-0.9482608215002168
-0.00860472164453989
-0.7307101503990954
-0.9482608215002168
-0.00860472164453989
-0.7307101503990954
-0.948595358048503
-0.00971823103039188
-0.7300579203031934
-0.948595358048503
-0.00971823103039188
-0.7300579203031934
-0.948595358048503
-0.00971823103039188
-0.7300579203031934
-0.948595358048503
-0.00971823103039188
-0.7300579203031934
-0.9510219303478065
-0.009945104331178446
-0.7301139259719849
-0.9510219303478065
-0.009945104331178446
-0.7301139259719849
-0.9510219303478065
-0.009945104331178446
-0.7301139259719849
-0.9510219303478065
-0.009945104331178446
-0.7301139259719849
-0.9527950877649938
-0.009282127483215786
-0.7303565402488912
-0.9527950877649938
-0.009282127483215786
-0.7303565402488912
-0.9527950877649938
-0.009282127483215786
-0.7303565402488912
-0.9527950877649938
-0.009282127483215786
-0.7303565402488912
-0.9537498327454792
-0.00801025677249271
-0.7303374370108661
-0.9537498327454792
-0.00801025677249271
-0.7303374370108661
-0.9537498327454792
-0.00801025677249271
-0.7303374370108661
-0.9537498327454792
-0.00801025677249271
-0.7303374370108661
-0.9528831469551231
-0.0064539385084814846
-0.7305138095860746
-0.9528831469551231
-0.0064539385084814846
-0.7305138095860746
-0.9528831469551231
-0.0064539385084814846
-0.7305138095860746
-0.9528831469551231
-0.0064539385084814846
-0.7305138095860746
-0.9516788861812129
-0.0047121285046235
-0.7308643931524679
-0.9516788861812129
-0.0047121285046235
-0.7308643931524679
-0.9516788861812129
-0.0047121285046235
-0.7308643931524679
-0.9516788861812129
-0.0047121285046235
-0.7308643931524679
-0.9509479425403755
-0.0032636531407569803
-0.7309027583162475
-0.9509479425403755
-0.0032636531407569803
-0.7309027583162475
-0.9509479425403755
-0.0032636531407569803
-0.7309027583162475
-0.9509479425403755
-0.0032636531407569803
-0.7309027583162475
-0.9510444508608604
-0.0022478166482663483
-0.7308636728269813
-0.9510444508608604
-0.0022478166482663483
-0.7308636728269813
-0.9510444508608604
-0.0022478166482663483
-0.7308636728269813
-0.9510444508608604
-0.0022478166482663483
-0.7308636728269813
-0.9519562485335594
-0.0015401486063565941
-0.7305068971146866
-0.9519562485335594
-0.0015401486063565941
-0.7305068971146866
-0.9519562485335594
-0.0015401486063565941
-0.7305068971146866
-0.9519562485335594
-0.0015401486063565941
-0.7305068971146866
-0.9529052708210459
-0.001194942000787704
-0.7300126162277394
-0.9529052708210459
-0.001194942000787704
-0.7300126162277394
-0.9529052708210459
-0.001194942000787704
-0.7300126162277394
-0.9529052708210459
-0.001194942000787704
-0.7300126162277394
-0.953174493261475
-9.41781649745882E-4
-0.729580780458085
-0.953174493261475
-9.41781649745882E-4
-0.729580780458085
-0.953174493261475
-9.41781649745882E-4
-0.729580780458085
-0.953174493261475
-9.41781649745882E-4
-0.729580780458085
-0.9529072477207732
-7.198275047398911E-4
-0.7293407818626544
-0.9529072477207732
-7.198275047398911E-4
-0.7293407818626544
-0.9529072477207732
-7.198275047398911E-4
-0.7293407818626544
-0.9529072477207732
-7.198275047398911E-4
-0.7293407818626544
-0.9530058964233216
-4.6158629450428884E-4
-0.7290890270605214
-0.9530058964233216
-4.6158629450428884E-4
-0.7290890270605214
-0.9530058964233216
-4.6158629450428884E-4
-0.7290890270605214
-0.9530058964233216
-4.6158629450428884E-4
-0.7290890270605214
-0.9540598951369268
-4.477004916167906E-4
-0.7285520214616125
-0.9540598951369268
-4.477004916167906E-4
-0.7285520214616125
-0.9540598951369268
-4.477004916167906E-4
-0.7285520214616125
-0.9540598951369268
-4.477004916167906E-4
-0.7285520214616125
-0.9546017092901601
-7.062646569954983E-4
-0.728081895304763
-0.9546017092901601
-7.062646569954983E-4
-0.728081895304763
-0.9546017092901601
-7.062646569954983E-4
-0.728081895304763
-0.9546017092901601
-7.062646569954983E-4
-0.728081895304763
-0.9554958313280799
-8.066193274428058E-4
-0.7276136888373437
-0.9554958313280799
-8.066193274428058E-4
-0.7276136888373437
-0.9554958313280799
-8.066193274428058E-4
-0.7276136888373437
-0.9554958313280799
-8.066193274428058E-4
-0.7276136888373437
-0.9566960211828316
-0.0010273452160323722
-0.7274374590333783
-0.9566960211828316
-0.0010273452160323722
-0.7274374590333783
-0.9566960211828316
-0.0010273452160323722
-0.7274374590333783
-0.9566960211828316
-0.0010273452160323722
-0.7274374590333783
-0.9582442066927345
-7.96260225348728E-4
-0.7272871577199318
-0.9582442066927345
-7.96260225348728E-4
-0.7272871577199318
-0.9582442066927345
-7.96260225348728E-4
-0.7272871577199318
-0.9582442066927345
-7.96260225348728E-4
-0.7272871577199318
-0.9602399979119994
-1.5600432829822637E-4
-0.7273989661439447
-0.9602399979119994
-1.5600432829822637E-4
-0.7273989661439447
-0.9602399979119994
-1.5600432829822637E-4
-0.7273989661439447
-0.9602399979119994
-1.5600432829822637E-4
-0.7273989661439447
-0.9631853133195607
8.223091987973906E-4
-0.7276276523739142
-0.9631853133195607
8.223091987973906E-4
-0.7276276523739142
-0.9631853133195607
8.223091987973906E-4
-0.7276276523739142
-0.9631853133195607
8.223091987973906E-4
-0.7276276523739142
-0.9667694600175147
0.0017824447684822154
-0.7282555144155222
-0.9667694600175147
0.0017824447684822154
-0.7282555144155222
-0.9667694600175147
0.0017824447684822154
-0.7282555144155222
-0.9667694600175147
0.0017824447684822154
-0.7282555144155222
-0.971071629835769
0.0029289722058055225
-0.7291349207647028
-0.971071629835769
0.0029289722058055225
-0.7291349207647028
-0.971071629835769
0.0029289722058055225
-0.7291349207647028
-0.971071629835769
0.0029289722058055225
-0.7291349207647028
-0.9767048290234626
0.004032320877095975
-0.7299894598374075
-0.9767048290234626
0.004032320877095975
-0.7299894598374075
-0.9767048290234626
0.004032320877095975
-0.7299894598374075
-0.9767048290234626
0.004032320877095975
-0.7299894598374075
-0.9836925369095206
0.004851569061514825
-0.7306927833835768
-0.9836925369095206
0.004851569061514825
-0.7306927833835768
-0.9836925369095206
0.004851569061514825
-0.7306927833835768
-0.9836925369095206
0.004851569061514825
-0.7306927833835768
-0.9923309957552195
0.005829769446667892
-0.7321020664255153
-0.9923309957552195
0.005829769446667892
-0.7321020664255153
-0.9923309957552195
0.005829769446667892
-0.7321020664255153
-0.9923309957552195
0.005829769446667892
-0.7321020664255153
-1.0027003487274768
0.0067050622331280944
-0.7338749896109777
-1.0027003487274768
0.0067050622331280944
-0.7338749896109777
-1.0027003487274768
0.0067050622331280944
-0.7338749896109777
-1.0027003487274768
0.0067050622331280944
-0.7338749896109777
-1.0155919392830424
0.0077089626059816865
-0.7355984394451707
-1.0155919392830424
0.0077089626059816865
-0.7355984394451707
-1.0155919392830424
0.0077089626059816865
-0.7355984394451707
-1.0155919392830424
0.0077089626059816865
-0.7355984394451707
-1.029404642392979
0.008584564390072557
-0.738236074783163
-1.029404642392979
0.008584564390072557
-0.738236074783163
-1.029404642392979
0.008584564390072557
-0.738236074783163
-1.029404642392979
0.008584564390072557
-0.738236074783163
-1.0435824459439669
0.009559076929192233
-0.7412488710379894
-1.0435824459439669
0.009559076929192233
-0.7412488710379894
-1.0435824459439669
0.009559076929192233
-0.7412488710379894
-1.0435824459439669
0.009559076929192233
-0.7412488710379894
-1.0592290898545063
0.010909540991487238
-0.7444410253182092
-1.0592290898545063
0.010909540991487238
-0.7444410253182092
-1.0592290898545063
0.010909540991487238
-0.7444410253182092
-1.0592290898545063
0.010909540991487238
-0.7444410253182092
-1.0763449713015667
0.012332761942834494
-0.7477828614644286
-1.0763449713015667
0.012332761942834494
-0.7477828614644286
-1.0763449713015667
0.012332761942834494
-0.7477828614644286
-1.0763449713015667
0.012332761942834494
-0.7477828614644286
-1.0961218095562881
0.0142024774878307
-0.7517557569961467
-1.0961218095562881
0.0142024774878307
-0.7517557569961467
-1.0961218095562881
0.0142024774878307
-0.7517557569961467
-1.0961218095562881
0.0142024774878307
-0.7517557569961467
-1.1196626764217175
0.015479676263626287
-0.7568026946774158
-1.1196626764217175
0.015479676263626287
-0.7568026946774158
-1.1196626764217175
0.015479676263626287
-0.7568026946774158
-1.1196626764217175
0.015479676263626287
-0.7568026946774158
-1.1470170222105274
0.01623591803135989
-0.7614879542352758
-1.1470170222105274
0.01623591803135989
-0.7614879542352758
-1.1470170222105274
0.01623591803135989
-0.7614879542352758
-1.1470170222105274
0.01623591803135989
-0.7614879542352758
-1.1755125695209292
0.016989117889775057
-0.7659315241612891
-1.1755125695209292
0.016989117889775057
-0.7659315241612891
-1.1755125695209292
0.016989117889775057
-0.7659315241612891
-1.1755125695209292
0.016989117889775057
-0.7659315241612891
-1.2007285327137915
0.017566423322674763
-0.7697434511385536
-1.2007285327137915
0.017566423322674763
-0.7697434511385536
-1.2007285327137915
0.017566423322674763
-0.7697434511385536
-1.2007285327137915
0.017566423322674763
-0.7697434511385536
-1.2237566050455975
0.01776446878540239
-0.7739770308780244
-1.2237566050455975
0.01776446878540239
-0.7739770308780244
-1.2237566050455975
0.01776446878540239
-0.7739770308780244
-1.2237566050455975
0.01776446878540239
-0.7739770308780244
-1.2452607285767021
0.016620660945514964
-0.7784417494683484
-1.2452607285767021
0.016620660945514964
-0.7784417494683484
-1.2452607285767021
0.016620660945514964
-0.7784417494683484
-1.2452607285767021
0.016620660945514964
-0.7784417494683484
-1.2689436823971008
0.013714499444376931
-0.7829561802271667
-1.2689436823971008
0.013714499444376931
-0.7829561802271667
-1.2689436823971008
0.013714499444376931
-0.7829561802271667
-1.2689436823971008
0.013714499444376931
-0.7829561802271667
-1.2982353833546818
0.0108795621246871
-0.7872525488473316
-1.2982353833546818
0.0108795621246871
-0.7872525488473316
-1.2982353833546818
0.0108795621246871
-0.7872525488473316
-1.2982353833546818
0.0108795621246871
-0.7872525488473316
-1.334519833458986
0.008699373344267524
-0.7903750683802511
-1.334519833458986
0.008699373344267524
-0.7903750683802511
-1.334519833458986
0.008699373344267524
-0.7903750683802511
-1.334519833458986
0.008699373344267524
-0.7903750683802511
-1.3679652990508349
0.006089885427548335
-0.7928267870580592
-1.3679652990508349
0.006089885427548335
-0.7928267870580592
-1.3679652990508349
0.006089885427548335
-0.7928267870580592
-1.3679652990508349
0.006089885427548335
-0.7928267870580592
-1.391093975406259
0.003406203785497414
-0.7954221521523068
-1.391093975406259
0.003406203785497414
-0.7954221521523068
-1.391093975406259
0.003406203785497414
-0.7954221521523068
-1.391093975406259
0.003406203785497414
-0.7954221521523068
-1.4019026710485898
0.0018325663150514215
-0.7982427686214772
-1.4019026710485898
0.0018325663150514215
-0.7982427686214772
-1.4019026710485898
0.0018325663150514215
-0.7982427686214772
-1.4019026710485898
0.0018325663150514215
-0.7982427686214772
-1.4083828525246127
-4.762116932132441E-4
-0.8000200471346393
-1.4083828525246127
-4.762116932132441E-4
-0.8000200471346393
-1.4083828525246127
-4.762116932132441E-4
-0.8000200471346393
-1.4083828525246127
-4.762116932132441E-4
-0.8000200471346393
-1.4140909243787143
-0.0029175246936849024
-0.8008606582056832
-1.4140909243787143
-0.0029175246936849024
-0.8008606582056832
-1.4140909243787143
-0.0029175246936849024
-0.8008606582056832
-1.4140909243787143
-0.0029175246936849024
-0.8008606582056832
-1.4221514280588532
-0.004086126549399876
-0.8006997160337593
-1.4221514280588532
-0.004086126549399876
-0.8006997160337593
-1.4221514280588532
-0.004086126549399876
-0.8006997160337593
-1.4221514280588532
-0.004086126549399876
-0.8006997160337593
-1.4316886888665603
-0.0034240719124381393
-0.7992854727799216
-1.4316886888665603
-0.0034240719124381393
-0.7992854727799216
-1.4316886888665603
-0.0034240719124381393
-0.7992854727799216
-1.4316886888665603
-0.0034240719124381393
-0.7992854727799216
-1.4398999536274983
-0.001042522753845033
-0.7968236946820227
-1.4398999536274983
-0.001042522753845033
-0.7968236946820227
-1.4398999536274983
-0.001042522753845033
-0.7968236946820227
-1.4398999536274983
-0.001042522753845033
-0.7968236946820227
-1.4447065404606132
0.003897807300966782
-0.792729273592376
-1.4447065404606132
0.003897807300966782
-0.792729273592376
-1.4447065404606132
0.003897807300966782
-0.792729273592376
-1.4447065404606132
0.003897807300966782
-0.792729273592376
-1.446769478881615
0.009446478875824577
-0.7874389853309406
-1.446769478881615
0.009446478875824577
-0.7874389853309406
-1.446769478881615
0.009446478875824577
-0.7874389853309406
-1.446769478881615
0.009446478875824577
-0.7874389853309406
-1.4491030365108355
0.014363668253800449
-0.7814162044632104
-1.4491030365108355
0.014363668253800449
-0.7814162044632104
-1.4491030365108355
0.014363668253800449
-0.7814162044632104
-1.4491030365108355
0.014363668253800449
-0.7814162044632104
-1.4507947058659967
0.020043282091461213
-0.7744219396000429
-1.4507947058659967
0.020043282091461213
-0.7744219396000429
-1.4507947058659967
0.020043282091461213
-0.7744219396000429
-1.4507947058659967
0.020043282091461213
-0.7744219396000429
-1.451877021401466
0.02390602866947024
-0.7687748616537295
-1.451877021401466
0.02390602866947024
-0.7687748616537295
-1.451877021401466
0.02390602866947024
-0.7687748616537295
-1.451877021401466
0.02390602866947024
-0.7687748616537295
-1.451387298396941
0.026277515144868827
-0.7649017275929166
-1.451387298396941
0.026277515144868827
-0.7649017275929166
-1.451387298396941
0.026277515144868827
-0.7649017275929166
-1.451387298396941
0.026277515144868827
-0.7649017275929166
-1.4506143211405993
0.028001852427447516
-0.7622988400285403
-1.4506143211405993
0.028001852427447516
-0.7622988400285403
-1.4506143211405993
0.028001852427447516
-0.7622988400285403
-1.4506143211405993
0.028001852427447516
-0.7622988400285403
-1.4510676845418875
0.029109743194497384
-0.76068113477388
-1.4510676845418875
0.029109743194497384
-0.76068113477388
-1.4510676845418875
0.029109743194497384
-0.76068113477388
-1.4510676845418875
0.029109743194497384
-0.76068113477388
-1.452116257419169
0.029384253788453017
-0.7599092704658754
-1.452116257419169
0.029384253788453017
-0.7599092704658754
-1.452116257419169
0.029384253788453017
-0.7599092704658754
-1.452116257419169
0.029384253788453017
-0.7599092704658754
-1.4531904560651847
0.028559682569508103
-0.7595561199374116
-1.4531904560651847
0.028559682569508103
-0.7595561199374116
-1.4531904560651847
0.028559682569508103
-0.7595561199374116
-1.4531904560651847
0.028559682569508103
-0.7595561199374116
-1.4556375999544358
0.027907290992912392
-0.7588259439913823
-1.4556375999544358
0.027907290992912392
-0.7588259439913823
-1.4572493593760107
0.02749072745055478
-0.7579891484115325
-1.4572493593760107
0.02749072745055478
-0.7579891484115325
-1.4572493593760107
0.02749072745055478
-0.7579891484115325
-1.4572493593760107
0.02749072745055478
-0.7579891484115325
-1.4556128875433325
0.026404004123697755
-0.7569693775015085
-1.4556128875433325
0.026404004123697755
-0.7569693775015085
-1.4556128875433325
0.026404004123697755
-0.7569693775015085
-1.4556128875433325
0.026404004123697755
-0.7569693775015085
-1.453475096273588
0.024042474472423227
-0.7561804378353048
-1.453475096273588
0.024042474472423227
-0.7561804378353048
-1.453475096273588
0.024042474472423227
-0.7561804378353048
-1.453475096273588
0.024042474472423227
-0.7561804378353048
-1.4518921601395662
0.020730080199897267
-0.7556198433270161
-1.4518921601395662
0.020730080199897267
-0.7556198433270161
-1.4518921601395662
0.020730080199897267
-0.7556198433270161
-1.4518921601395662
0.020730080199897267
-0.7556198433270161
-1.451079400718041
0.017038419499862043
-0.7553989067335866
-1.451079400718041
0.017038419499862043
-0.7553989067335866
-1.451079400718041
0.017038419499862043
-0.7553989067335866
-1.451079400718041
0.017038419499862043
-0.7553989067335866
-1.452299484344422
0.013784804759639935
-0.7557311365053411
-1.452299484344422
0.013784804759639935
-0.7557311365053411
-1.452299484344422
0.013784804759639935
-0.7557311365053411
-1.452299484344422
0.013784804759639935
-0.7557311365053411
-1.4537561889096757
0.011374990378846487
-0.7562038114713537
-1.4537561889096757
0.011374990378846487
-0.7562038114713537
-1.4537561889096757
0.011374990378846487
-0.7562038114713537
-1.4537561889096757
0.011374990378846487
-0.7562038114713537
-1.4536349620913653
0.009689785716556813
-0.7567675856673548
-1.4536349620913653
0.009689785716556813
-0.7567675856673548
-1.4536349620913653
0.009689785716556813
-0.7567675856673548
-1.4536349620913653
0.009689785716556813
-0.7567675856673548
-1.451825435342755
0.008206732035371167
-0.7572643924446089
-1.451825435342755
0.008206732035371167
-0.7572643924446089
-1.451825435342755
0.008206732035371167
-0.7572643924446089
-1.451825435342755
0.008206732035371167
-0.7572643924446089
-1.4510576071711254
0.006767591289319361
-0.7576524857179529
-1.4510576071711254
0.006767591289319361
-0.7576524857179529
-1.4510576071711254
0.006767591289319361
-0.7576524857179529
-1.4510576071711254
0.006767591289319361
-0.7576524857179529
-1.4503232167921745
0.005413508461725169
-0.7581169988433288
-1.4503232167921745
0.005413508461725169
-0.7581169988433288
-1.4503232167921745
0.005413508461725169
-0.7581169988433288
-1.4503232167921745
0.005413508461725169
-0.7581169988433288
-1.4502969057512625
0.004466221486423858
-0.759185744587838
-1.4502969057512625
0.004466221486423858
-0.759185744587838
-1.4502969057512625
0.004466221486423858
-0.759185744587838
-1.4502969057512625
0.004466221486423858
-0.759185744587838
-1.4510722948976946
0.004159913981012247
-0.760763435150277
-1.4510722948976946
0.004159913981012247
-0.760763435150277
-1.4510722948976946
0.004159913981012247
-0.760763435150277
-1.4510722948976946
0.004159913981012247
-0.760763435150277
-1.4514931461550047
0.003895866764190836
-0.7622573182995415
-1.4514931461550047
0.003895866764190836
-0.7622573182995415
-1.4514931461550047
0.003895866764190836
-0.7622573182995415
-1.4514931461550047
0.003895866764190836
-0.7622573182995415
-1.451570272917823
0.003921281078095398
-0.7632194636204019
-1.451570272917823
0.003921281078095398
-0.7632194636204019
-1.451570272917823
0.003921281078095398
-0.7632194636204019
-1.451570272917823
0.003921281078095398
-0.7632194636204019
-1.4515721792743992
0.003976666298271212
-0.7641474977457239
-1.4515721792743992
0.003976666298271212
-0.7641474977457239
-1.4515721792743992
0.003976666298271212
-0.7641474977457239
-1.4515721792743992
0.003976666298271212
-0.7641474977457239
-1.4515440610934789
0.003956817159913505
-0.7651601780261454
-1.4515440610934789
0.003956817159913505
-0.7651601780261454
-1.4515440610934789
0.003956817159913505
-0.7651601780261454
-1.4515440610934789
0.003956817159913505
-0.7651601780261454
-1.4518013443666054
0.0037235861116064316
-0.7661058994273927
-1.4518013443666054
0.0037235861116064316
-0.7661058994273927
-1.4518013443666054
0.0037235861116064316
-0.7661058994273927
-1.4518013443666054
0.0037235861116064316
-0.7661058994273927
-1.4524310125640125
0.004170330174794487
-0.7668993728203215
-1.4524310125640125
0.004170330174794487
-0.7668993728203215
-1.4524310125640125
0.004170330174794487
-0.7668993728203215
-1.4524310125640125
0.004170330174794487
-0.7668993728203215
-1.453225260713866
0.004998013557798854
-0.7673657647175701
-1.453225260713866
0.004998013557798854
-0.7673657647175701
-1.453225260713866
0.004998013557798854
-0.7673657647175701
-1.453225260713866
0.004998013557798854
-0.7673657647175701
-1.4540414971990052
0.005882294517338029
-0.7674286839393609
-1.4540414971990052
0.005882294517338029
-0.7674286839393609
-1.4540414971990052
0.005882294517338029
-0.7674286839393609
-1.4540414971990052
0.005882294517338029
-0.7674286839393609
-1.4544632953852457
0.006903213844859067
-0.7670652023973878
-1.4544632953852457
0.006903213844859067
-0.7670652023973878
-1.4544632953852457
0.006903213844859067
-0.7670652023973878
-1.4544632953852457
0.006903213844859067
-0.7670652023973878
-1.4545612806092003
0.00760700185961415
-0.7670245926838325
-1.4545612806092003
0.00760700185961415
-0.7670245926838325
-1.4545612806092003
0.00760700185961415
-0.7670245926838325
-1.4545612806092003
0.00760700185961415
-0.7670245926838325
-1.4545913243130555
0.007682395137186064
-0.7669401456016295
-1.4545913243130555
0.007682395137186064
-0.7669401456016295
-1.4545913243130555
0.007682395137186064
-0.7669401456016295
-1.4545913243130555
0.007682395137186064
-0.7669401456016295
-1.4553639626156967
0.0077532837156416646
-0.7670993772297943
-1.4553639626156967
0.0077532837156416646
-0.7670993772297943
-1.4553639626156967
0.0077532837156416646
-0.7670993772297943
-1.4553639626156967
0.0077532837156416646
-0.7670993772297943
-1.4568103484332957
0.007650506168488198
-0.7673513721493149
-1.4568103484332957
0.007650506168488198
-0.7673513721493149
-1.4568103484332957
0.007650506168488198
-0.7673513721493149
-1.4568103484332957
0.007650506168488198
-0.7673513721493149
-1.457160133791928
0.007597036154393485
-0.7672755900766698
-1.457160133791928
0.007597036154393485
-0.7672755900766698
-1.457160133791928
0.007597036154393485
-0.7672755900766698
-1.457160133791928
0.007597036154393485
-0.7672755900766698
-1.457354358320182
0.007616894229626217
-0.7673553684538208
-1.457354358320182
0.007616894229626217
-0.7673553684538208
-1.457354358320182
0.007616894229626217
-0.7673553684538208
-1.457354358320182
0.007616894229626217
-0.7673553684538208
-1.4577379427155628
0.008085600997630159
-0.7668647242617326
-1.4577379427155628
0.008085600997630159
-0.7668647242617326
-1.4577379427155628
0.008085600997630159
-0.7668647242617326
-1.4577379427155628
0.008085600997630159
-0.7668647242617326
-1.4580956925194408
0.008465881898544232
-0.7662342786383755
-1.4580956925194408
0.008465881898544232
-0.7662342786383755
-1.4580956925194408
0.008465881898544232
-0.7662342786383755
-1.4580956925194408
0.008465881898544232
-0.7662342786383755
-1.4583169182381728
0.00807116582472417
-0.7657918835019498
-1.4583169182381728
0.00807116582472417
-0.7657918835019498
-1.4583169182381728
0.00807116582472417
-0.7657918835019498
-1.4583169182381728
0.00807116582472417
-0.7657918835019498
-1.4589687951504313
0.007164002711653992
-0.7659578037120516
-1.4589687951504313
0.007164002711653992
-0.7659578037120516
-1.4589687951504313
0.007164002711653992
-0.7659578037120516
-1.4589687951504313
0.007164002711653992
-0.7659578037120516
-1.4600508353848725
0.006836370087234503
-0.7661880649373876
-1.4600508353848725
0.006836370087234503
-0.7661880649373876
-1.4600508353848725
0.006836370087234503
-0.7661880649373876
-1.4600508353848725
0.006836370087234503
-0.7661880649373876
-1.4608345171467254
0.006717080261014949
-0.7663899952111571
-1.4608345171467254
0.006717080261014949
-0.7663899952111571
-1.4608345171467254
0.006717080261014949
-0.7663899952111571
-1.4608345171467254
0.006717080261014949
-0.7663899952111571
-1.460750693936268
0.00673006807446489
-0.7660359660696769
-1.460750693936268
0.00673006807446489
-0.7660359660696769
-1.460750693936268
0.00673006807446489
-0.7660359660696769
-1.460750693936268
0.00673006807446489
-0.7660359660696769
-1.460169799746769
0.0061892600484879405
-0.7655182194001852
-1.460169799746769
0.0061892600484879405
-0.7655182194001852
-1.460169799746769
0.0061892600484879405
-0.7655182194001852
-1.460169799746769
0.0061892600484879405
-0.7655182194001852
-1.4596847987865247
0.0054239156599480256
-0.7650135283943718
-1.4596847987865247
0.0054239156599480256
-0.7650135283943718
-1.4596847987865247
0.0054239156599480256
-0.7650135283943718
-1.4596847987865247
0.0054239156599480256
-0.7650135283943718
-1.4594926477327095
0.004922673515166673
-0.7646555769881546
-1.4594926477327095
0.004922673515166673
-0.7646555769881546
-1.4594926477327095
0.004922673515166673
-0.7646555769881546
-1.4594926477327095
0.004922673515166673
-0.7646555769881546
-1.4597945164115975
0.004506984161975149
-0.7644065370688685
-1.4597945164115975
0.004506984161975149
-0.7644065370688685
-1.4597945164115975
0.004506984161975149
-0.7644065370688685
-1.4597945164115975
0.004506984161975149
-0.7644065370688685
-1.4597945164115975
0.004506984161975149
-0.7644065370688685
-1.4597945164115975
0.004506984161975149
-0.7644065370688685
-1.4597945164115975
0.004506984161975149
-0.7644065370688685
-1.4597945164115975
0.004506984161975149
-0.7644065370688685
-1.4586695599798687
0.0040198025332424114
-0.7642709114345504
-1.4586695599798687
0.0040198025332424114
-0.7642709114345504
-1.4586695599798687
0.0040198025332424114
-0.7642709114345504
-1.4586695599798687
0.0040198025332424114
-0.7642709114345504
-1.4577224496832875
0.0037556192948545856
-0.7643964195317203
-1.4577224496832875
0.0037556192948545856
-0.7643964195317203
-1.4577224496832875
0.0037556192948545856
-0.7643964195317203
-1.4577224496832875
0.0037556192948545856
-0.7643964195317203
-1.4576922827779875
0.003680121759374508
-0.7644808504518402
-1.4576922827779875
0.003680121759374508
-0.7644808504518402
-1.4576922827779875
0.003680121759374508
-0.7644808504518402
-1.4576922827779875
0.003680121759374508
-0.7644808504518402
-1.4574982519723954
0.0036599563655624586
-0.7644014222152069
-1.4574982519723954
0.0036599563655624586
-0.7644014222152069
-1.4574982519723954
0.0036599563655624586
-0.7644014222152069
-1.4574982519723954
0.0036599563655624586
-0.7644014222152069
-1.4568547132386145
0.0034703992851409815
-0.7647162130197976
-1.4568547132386145
0.0034703992851409815
-0.7647162130197976
-1.4568547132386145
0.0034703992851409815
-0.7647162130197976
-1.4568547132386145
0.0034703992851409815
-0.7647162130197976
-1.4558471543298956
0.0030557360905073944
-0.7650112199975154
-1.4558471543298956
0.0030557360905073944
-0.7650112199975154
-1.4558471543298956
0.0030557360905073944
-0.7650112199975154
-1.4558471543298956
0.0030557360905073944
-0.7650112199975154
-1.454689647145196
0.002975104615709392
-0.7652391122343981
-1.454689647145196
0.002975104615709392
-0.7652391122343981
-1.454689647145196
0.002975104615709392
-0.7652391122343981
-1.454689647145196
0.002975104615709392
-0.7652391122343981
-1.4530381743021987
0.002372455828024239
-0.7658502952245388
-1.4530381743021987
0.002372455828024239
-0.7658502952245388
-1.4530381743021987
0.002372455828024239
-0.7658502952245388
-1.4530381743021987
0.002372455828024239
-0.7658502952245388
-1.4516074434050448
0.001397516515589733
-0.7664047184569104
-1.4516074434050448
0.001397516515589733
-0.7664047184569104
-1.4516074434050448
0.001397516515589733
-0.7664047184569104
-1.4516074434050448
0.001397516515589733
-0.7664047184569104
-1.4500106745782073
5.014306936436023E-4
-0.7671808779218058
-1.4500106745782073
5.014306936436023E-4
-0.7671808779218058
-1.4500106745782073
5.014306936436023E-4
-0.7671808779218058
-1.4500106745782073
5.014306936436023E-4
-0.7671808779218058
-1.4487404386465785
-5.030385945108927E-4
-0.768285880498521
-1.4487404386465785
-5.030385945108927E-4
-0.768285880498521
-1.4487404386465785
-5.030385945108927E-4
-0.768285880498521
-1.4487404386465785
-5.030385945108927E-4
-0.768285880498521
-1.4476468724861677
-0.0012820682673777954
-0.769651106404525
-1.4476468724861677
-0.0012820682673777954
-0.769651106404525
-1.4476468724861677
-0.0012820682673777954
-0.769651106404525
-1.4476468724861677
-0.0012820682673777954
-0.769651106404525
-1.4460576375303364
-0.0012022759504684748
-0.7710767529733616
-1.4460576375303364
-0.0012022759504684748
-0.7710767529733616
-1.4460576375303364
-0.0012022759504684748
-0.7710767529733616
-1.4460576375303364
-0.0012022759504684748
-0.7710767529733616
-1.4436161743122198
-6.865149193707458E-4
-0.7724275567747669
-1.4436161743122198
-6.865149193707458E-4
-0.7724275567747669
-1.4436161743122198
-6.865149193707458E-4
-0.7724275567747669
-1.4436161743122198
-6.865149193707458E-4
-0.7724275567747669
-1.4398279219344712
2.077214108444033E-4
-0.773978140001225
-1.4398279219344712
2.077214108444033E-4
-0.773978140001225
-1.4398279219344712
2.077214108444033E-4
-0.773978140001225
-1.4398279219344712
2.077214108444033E-4
-0.773978140001225
-1.4341504880261735
0.0015206683382000617
-0.7757216925458635
-1.4341504880261735
0.0015206683382000617
-0.7757216925458635
-1.4341504880261735
0.0015206683382000617
-0.7757216925458635
-1.4341504880261735
0.0015206683382000617
-0.7757216925458635
-1.4281442536369273
0.003610172829069918
-0.7771294531917309
-1.4281442536369273
0.003610172829069918
-0.7771294531917309
-1.4281442536369273
0.003610172829069918
-0.7771294531917309
-1.4281442536369273
0.003610172829069918
-0.7771294531917309
-1.4196546707513684
0.006728130536201182
-0.7785388183965297
-1.4196546707513684
0.006728130536201182
-0.7785388183965297
-1.4196546707513684
0.006728130536201182
-0.7785388183965297
-1.4196546707513684
0.006728130536201182
-0.7785388183965297
-1.4083657179525788
0.010352206262157165
-0.7799192445511001
-1.4083657179525788
0.010352206262157165
-0.7799192445511001
-1.4083657179525788
0.010352206262157165
-0.7799192445511001
-1.4083657179525788
0.010352206262157165
-0.7799192445511001
-1.3912006575535942
0.013826727645806119
-0.7815907102974046
-1.3912006575535942
0.013826727645806119
-0.7815907102974046
-1.3912006575535942
0.013826727645806119
-0.7815907102974046
-1.3912006575535942
0.013826727645806119
-0.7815907102974046
-1.3703398167598102
0.01795791739666743
-0.7827443768235447
-1.3703398167598102
0.01795791739666743
-0.7827443768235447
-1.3703398167598102
0.01795791739666743
-0.7827443768235447
-1.3703398167598102
0.01795791739666743
-0.7827443768235447
-1.3457523711514199
0.02169034084388474
-0.7830817083884165
-1.3457523711514199
0.02169034084388474
-0.7830817083884165
-1.3457523711514199
0.02169034084388474
-0.7830817083884165
-1.3457523711514199
0.02169034084388474
-0.7830817083884165
-1.3176197284691915
0.026464351073686426
-0.7823046544109851
-1.3176197284691915
0.026464351073686426
-0.7823046544109851
-1.3176197284691915
0.026464351073686426
-0.7823046544109851
-1.3176197284691915
0.026464351073686426
-0.7823046544109851
-1.2869361173575098
0.03228198596182662
-0.7796697657192247
-1.2869361173575098
0.03228198596182662
-0.7796697657192247
-1.2869361173575098
0.03228198596182662
-0.7796697657192247
-1.2869361173575098
0.03228198596182662
-0.7796697657192247
-1.2563829062667393
0.03774078010957002
-0.7751738711877852
-1.2563829062667393
0.03774078010957002
-0.7751738711877852
-1.2563829062667393
0.03774078010957002
-0.7751738711877852
-1.2563829062667393
0.03774078010957002
-0.7751738711877852
-1.2248965740285536
0.0415840373014043
-0.7698106628883534
-1.2248965740285536
0.0415840373014043
-0.7698106628883534
-1.2248965740285536
0.0415840373014043
-0.7698106628883534
-1.2248965740285536
0.0415840373014043
-0.7698106628883534
-1.1911229637826848
0.043737598948168845
-0.7650474110312929
-1.1911229637826848
0.043737598948168845
-0.7650474110312929
-1.1911229637826848
0.043737598948168845
-0.7650474110312929
-1.1911229637826848
0.043737598948168845
-0.7650474110312929
-1.157090628453915
0.044149477212268654
-0.7613623675721242
-1.157090628453915
0.044149477212268654
-0.7613623675721242
-1.157090628453915
0.044149477212268654
-0.7613623675721242
-1.157090628453915
0.044149477212268654
-0.7613623675721242
-1.1231432555722503
0.044574555021073325
-0.758148230492361
-1.1231432555722503
0.044574555021073325
-0.758148230492361
-1.1231432555722503
0.044574555021073325
-0.758148230492361
-1.1231432555722503
0.044574555021073325
-0.758148230492361
-1.0891736475575926
0.044892422335539146
-0.7546749481936588
-1.0891736475575926
0.044892422335539146
-0.7546749481936588
-1.0891736475575926
0.044892422335539146
-0.7546749481936588
-1.0891736475575926
0.044892422335539146
-0.7546749481936588
-1.0585915292205996
0.04450860070413449
-0.7510135521279312
-1.0585915292205996
0.04450860070413449
-0.7510135521279312
-1.0585915292205996
0.04450860070413449
-0.7510135521279312
-1.0585915292205996
0.04450860070413449
-0.7510135521279312
-1.0323027187452953
0.042677568778030556
-0.7481366612082604
-1.0323027187452953
0.042677568778030556
-0.7481366612082604
-1.0323027187452953
0.042677568778030556
-0.7481366612082604
-1.0323027187452953
0.042677568778030556
-0.7481366612082604
-1.0084712968391354
0.03916347064736058
-0.745829219197302
-1.0084712968391354
0.03916347064736058
-0.745829219197302
-1.0084712968391354
0.03916347064736058
-0.745829219197302
-1.0084712968391354
0.03916347064736058
-0.745829219197302
-0.986963461771607
0.03411789539170276
-0.7437624853597427
-0.986963461771607
0.03411789539170276
-0.7437624853597427
-0.986963461771607
0.03411789539170276
-0.7437624853597427
-0.986963461771607
0.03411789539170276
-0.7437624853597427
-0.9685305813701282
0.027555905986062883
-0.7416439373871534
-0.9685305813701282
0.027555905986062883
-0.7416439373871534
-0.9685305813701282
0.027555905986062883
-0.7416439373871534
-0.9685305813701282
0.027555905986062883
-0.7416439373871534
-0.9484359197324024
0.01997468080578252
-0.738827553871483
-0.9484359197324024
0.01997468080578252
-0.738827553871483
-0.9484359197324024
0.01997468080578252
-0.738827553871483
-0.9484359197324024
0.01997468080578252
-0.738827553871483
-0.9293078770462305
0.010223878460308972
-0.7362667379024198
-0.9293078770462305
0.010223878460308972
-0.7362667379024198
-0.9293078770462305
0.010223878460308972
-0.7362667379024198
-0.9293078770462305
0.010223878460308972
-0.7362667379024198
-0.9139412034147415
-6.556261667846887E-4
-0.7341913394712378
-0.9139412034147415
-6.556261667846887E-4
-0.7341913394712378
-0.9139412034147415
-6.556261667846887E-4
-0.7341913394712378
-0.9139412034147415
-6.556261667846887E-4
-0.7341913394712378
-0.9057586956041284
-0.011326196645087326
-0.7326861596323306
-0.9057586956041284
-0.011326196645087326
-0.7326861596323306
-0.9057586956041284
-0.011326196645087326
-0.7326861596323306
-0.9057586956041284
-0.011326196645087326
-0.7326861596323306
-0.9021192762524355
-0.02258135182886337
-0.7304021825642204
-0.9021192762524355
-0.02258135182886337
-0.7304021825642204
-0.9021192762524355
-0.02258135182886337
-0.7304021825642204
-0.9021192762524355
-0.02258135182886337
-0.7304021825642204
-0.9012186411315137
-0.03271898597164564
-0.7278548642737664
-0.9012186411315137
-0.03271898597164564
-0.7278548642737664
-0.9012186411315137
-0.03271898597164564
-0.7278548642737664
-0.9012186411315137
-0.03271898597164564
-0.7278548642737664
-0.9032028634405881
-0.04183554004588146
-0.7268848568959567
-0.9032028634405881
-0.04183554004588146
-0.7268848568959567
-0.9032028634405881
-0.04183554004588146
-0.7268848568959567
-0.9032028634405881
-0.04183554004588146
-0.7268848568959567
-0.9083855471824741
-0.04941492147566432
-0.726714372568092
-0.9083855471824741
-0.04941492147566432
-0.726714372568092
-0.9083855471824741
-0.04941492147566432
-0.726714372568092
-0.9083855471824741
-0.04941492147566432
-0.726714372568092
-0.9152232630157257
-0.05540197180187223
-0.7266713986001133
-0.9152232630157257
-0.05540197180187223
-0.7266713986001133
-0.9152232630157257
-0.05540197180187223
-0.7266713986001133
-0.9152232630157257
-0.05540197180187223
-0.7266713986001133
-0.9202405334516137
-0.059586099262328385
-0.7264644408630262
-0.9202405334516137
-0.059586099262328385
-0.7264644408630262
-0.9202405334516137
-0.059586099262328385
-0.7264644408630262
-0.9202405334516137
-0.059586099262328385
-0.7264644408630262
-0.9226669567259371
-0.062313954676997914
-0.7259511945701669
-0.9226669567259371
-0.062313954676997914
-0.7259511945701669
-0.9226669567259371
-0.062313954676997914
-0.7259511945701669
-0.9226669567259371
-0.062313954676997914
-0.7259511945701669
-0.9247998530050839
-0.06376814464388905
-0.7260274381993617
-0.9247998530050839
-0.06376814464388905
-0.7260274381993617
-0.9247998530050839
-0.06376814464388905
-0.7260274381993617
-0.9247998530050839
-0.06376814464388905
-0.7260274381993617
-0.9284595129549986
-0.06440438060408117
-0.7264474726458949
-0.9284595129549986
-0.06440438060408117
-0.7264474726458949
-0.9284595129549986
-0.06440438060408117
-0.7264474726458949
-0.9284595129549986
-0.06440438060408117
-0.7264474726458949
-0.932062316616069
-0.06455793688569891
-0.7271112468713301
-0.932062316616069
-0.06455793688569891
-0.7271112468713301
-0.932062316616069
-0.06455793688569891
-0.7271112468713301
-0.932062316616069
-0.06455793688569891
-0.7271112468713301
-0.9352285132473098
-0.06372428750653919
-0.7275810937140956
-0.9352285132473098
-0.06372428750653919
-0.7275810937140956
-0.9352285132473098
-0.06372428750653919
-0.7275810937140956
-0.9352285132473098
-0.06372428750653919
-0.7275810937140956
-0.9368392494203422
-0.06235982624766102
-0.7282070953374142
-0.9368392494203422
-0.06235982624766102
-0.7282070953374142
-0.9368392494203422
-0.06235982624766102
-0.7282070953374142
-0.9368392494203422
-0.06235982624766102
-0.7282070953374142
-0.9375167836743681
-0.06052807862956387
-0.7289560818976778
-0.9375167836743681
-0.06052807862956387
-0.7289560818976778
-0.9375167836743681
-0.06052807862956387
-0.7289560818976778
-0.9375167836743681
-0.06052807862956387
-0.7289560818976778
-0.9384329536767924
-0.05837691353083406
-0.7297326087454674
-0.9384329536767924
-0.05837691353083406
-0.7297326087454674
-0.9384329536767924
-0.05837691353083406
-0.7297326087454674
-0.9384329536767924
-0.05837691353083406
-0.7297326087454674
-0.9395035975999041
-0.056286486794785824
-0.7305258546216892
-0.9395035975999041
-0.056286486794785824
-0.7305258546216892
-0.9395035975999041
-0.056286486794785824
-0.7305258546216892
-0.9395035975999041
-0.056286486794785824
-0.7305258546216892
-0.9403749877767424
-0.05458284354356068
-0.7310811145796313
-0.9403749877767424
-0.05458284354356068
-0.7310811145796313
-0.9403749877767424
-0.05458284354356068
-0.7310811145796313
-0.9403749877767424
-0.05458284354356068
-0.7310811145796313
-0.9405508967229061
-0.05301902564317981
-0.7315652171439602
-0.9405508967229061
-0.05301902564317981
-0.7315652171439602
-0.9405508967229061
-0.05301902564317981
-0.7315652171439602
-0.9405508967229061
-0.05301902564317981
-0.7315652171439602
-0.9403712285355299
-0.051957340718132926
-0.7316279226182437
-0.9403712285355299
-0.051957340718132926
-0.7316279226182437
-0.9403712285355299
-0.051957340718132926
-0.7316279226182437
-0.9403712285355299
-0.051957340718132926
-0.7316279226182437
-0.9403208029026979
-0.051175023639680614
-0.7315442533235601
-0.9403208029026979
-0.051175023639680614
-0.7315442533235601
-0.9403208029026979
-0.051175023639680614
-0.7315442533235601
-0.9403208029026979
-0.051175023639680614
-0.7315442533235601
-0.9401811435916543
-0.050479580706437446
-0.731469861640794
-0.9401811435916543
-0.050479580706437446
-0.731469861640794
-0.9401811435916543
-0.050479580706437446
-0.731469861640794
-0.9401811435916543
-0.050479580706437446
-0.731469861640794
-0.9399568983195413
-0.0495191458218401
-0.7317365769347421
-0.9399568983195413
-0.0495191458218401
-0.7317365769347421
-0.9399568983195413
-0.0495191458218401
-0.7317365769347421
-0.9399568983195413
-0.0495191458218401
-0.7317365769347421
-0.9397997172904657
-0.04840676476593795
-0.7316964368142919
-0.9397997172904657
-0.04840676476593795
-0.7316964368142919
-0.9397997172904657
-0.04840676476593795
-0.7316964368142919
-0.9397997172904657
-0.04840676476593795
-0.7316964368142919
-0.9408501199576094
-0.04722017031419703
-0.7311224253912009
-0.9408501199576094
-0.04722017031419703
-0.7311224253912009
-0.9408501199576094
-0.04722017031419703
-0.7311224253912009
-0.9408501199576094
-0.04722017031419703
-0.7311224253912009
-0.9422767679675601
-0.046416087345261856
-0.7307497253148221
-0.9422767679675601
-0.046416087345261856
-0.7307497253148221
-0.9422767679675601
-0.046416087345261856
-0.7307497253148221
-0.9422767679675601
-0.046416087345261856
-0.7307497253148221
-0.9441755439416422
-0.04527207260207704
-0.7307663078268591
-0.9441755439416422
-0.04527207260207704
-0.7307663078268591
-0.9441755439416422
-0.04527207260207704
-0.7307663078268591
-0.9441755439416422
-0.04527207260207704
-0.7307663078268591
-0.9457548029014216
-0.04389105817499742
-0.7308648231882585
-0.9457548029014216
-0.04389105817499742
-0.7308648231882585
-0.9457548029014216
-0.04389105817499742
-0.7308648231882585
-0.9457548029014216
-0.04389105817499742
-0.7308648231882585
-0.9474204334470366
-0.042598555502832924
-0.7307902749989901
-0.9474204334470366
-0.042598555502832924
-0.7307902749989901
-0.9474204334470366
-0.042598555502832924
-0.7307902749989901
-0.9474204334470366
-0.042598555502832924
-0.7307902749989901
-0.9500956701545139
-0.04140393710483792
-0.7309704200288712
-0.9500956701545139
-0.04140393710483792
-0.7309704200288712
-0.9500956701545139
-0.04140393710483792
-0.7309704200288712
-0.9500956701545139
-0.04140393710483792
-0.7309704200288712
-0.9538478243438939
-0.04028055758460083
-0.7315976966748214
-0.9538478243438939
-0.04028055758460083
-0.7315976966748214
-0.9538478243438939
-0.04028055758460083
-0.7315976966748214
-0.9538478243438939
-0.04028055758460083
-0.7315976966748214
-0.9595947769898868
-0.03945683046428885
-0.7321733993964857
-0.9595947769898868
-0.03945683046428885
-0.7321733993964857
-0.9595947769898868
-0.03945683046428885
-0.7321733993964857
-0.9595947769898868
-0.03945683046428885
-0.7321733993964857
-0.967464624637084
-0.038451094017517846
-0.7325125927529019
-0.967464624637084
-0.038451094017517846
-0.7325125927529019
-0.967464624637084
-0.038451094017517846
-0.7325125927529019
-0.967464624637084
-0.038451094017517846
-0.7325125927529019
-0.9776495591496432
-0.03735318956837438
-0.7331833908473296
-0.9776495591496432
-0.03735318956837438
-0.7331833908473296
-0.9776495591496432
-0.03735318956837438
-0.7331833908473296
-0.9776495591496432
-0.03735318956837438
-0.7331833908473296
-0.9899517381800503
-0.035626549645713525
-0.7341801977467048
-0.9899517381800503
-0.035626549645713525
-0.7341801977467048
-0.9899517381800503
-0.035626549645713525
-0.7341801977467048
-0.9899517381800503
-0.035626549645713525
-0.7341801977467048
-1.0059000413730703
-0.03372795912428878
-0.7349788412144292
-1.0059000413730703
-0.03372795912428878
-0.7349788412144292
-1.0059000413730703
-0.03372795912428878
-0.7349788412144292
-1.0059000413730703
-0.03372795912428878
-0.7349788412144292
-1.025288767158493
-0.030996063941447508
-0.7367246619087738
-1.025288767158493
-0.030996063941447508
-0.7367246619087738
-1.025288767158493
-0.030996063941447508
-0.7367246619087738
-1.025288767158493
-0.030996063941447508
-0.7367246619087738
-1.047009171671427
-0.028113618195577793
-0.7398371158204324
-1.047009171671427
-0.028113618195577793
-0.7398371158204324
-1.047009171671427
-0.028113618195577793
-0.7398371158204324
-1.047009171671427
-0.028113618195577793
-0.7398371158204324
-1.0729243716227765
-0.025182764900143477
-0.7439278692783516
-1.0729243716227765
-0.025182764900143477
-0.7439278692783516
-1.0729243716227765
-0.025182764900143477
-0.7439278692783516
-1.0729243716227765
-0.025182764900143477
-0.7439278692783516
-1.1035453815135048
-0.022191290302896093
-0.7486303258109621
-1.1035453815135048
-0.022191290302896093
-0.7486303258109621
-1.1035453815135048
-0.022191290302896093
-0.7486303258109621
-1.1035453815135048
-0.022191290302896093
-0.7486303258109621
-1.1383842424221675
-0.02000900146689462
-0.7530004365686729
-1.1383842424221675
-0.02000900146689462
-0.7530004365686729
-1.1383842424221675
-0.02000900146689462
-0.7530004365686729
-1.1383842424221675
-0.02000900146689462
-0.7530004365686729
-1.1752256672460086
-0.018271513256312807
-0.7568766611380982
-1.1752256672460086
-0.018271513256312807
-0.7568766611380982
-1.1752256672460086
-0.018271513256312807
-0.7568766611380982
-1.1752256672460086
-0.018271513256312807
-0.7568766611380982
-1.2153930150739507
-0.017869545550472748
-0.760899745651341
-1.2153930150739507
-0.017869545550472748
-0.760899745651341
-1.2153930150739507
-0.017869545550472748
-0.760899745651341
-1.2153930150739507
-0.017869545550472748
-0.760899745651341
-1.2571359971674654
-0.018649876921642522
-0.7645785916863792
-1.2571359971674654
-0.018649876921642522
-0.7645785916863792
-1.2571359971674654
-0.018649876921642522
-0.7645785916863792
-1.2571359971674654
-0.018649876921642522
-0.7645785916863792
-1.3002063356888256
-0.018772667997205415
-0.7661890513376183
-1.3002063356888256
-0.018772667997205415
-0.7661890513376183
-1.3002063356888256
-0.018772667997205415
-0.7661890513376183
-1.3002063356888256
-0.018772667997205415
-0.7661890513376183
-1.3433142515504324
-0.015479229609455225
-0.7651849477854867
-1.3433142515504324
-0.015479229609455225
-0.7651849477854867
-1.3433142515504324
-0.015479229609455225
-0.7651849477854867
-1.3433142515504324
-0.015479229609455225
-0.7651849477854867
-1.3765039043559164
-0.009812509755905712
-0.7642720717920444
-1.3765039043559164
-0.009812509755905712
-0.7642720717920444
-1.3765039043559164
-0.009812509755905712
-0.7642720717920444
-1.3765039043559164
-0.009812509755905712
-0.7642720717920444
-1.3856791511423514
-0.005431364714182753
-0.7635452470174433
-1.3856791511423514
-0.005431364714182753
-0.7635452470174433
-1.3856791511423514
-0.005431364714182753
-0.7635452470174433
-1.3856791511423514
-0.005431364714182753
-0.7635452470174433
-1.3794841703432679
-0.006683158425662337
-0.7635218474092975
-1.3794841703432679
-0.006683158425662337
-0.7635218474092975
-1.3794841703432679
-0.006683158425662337
-0.7635218474092975
-1.3794841703432679
-0.006683158425662337
-0.7635218474092975
-1.3789657700026645
-0.009406862779393708
-0.7631577052568483
-1.3789657700026645
-0.009406862779393708
-0.7631577052568483
-1.3789657700026645
-0.009406862779393708
-0.7631577052568483
-1.3789657700026645
-0.009406862779393708
-0.7631577052568483
-1.3878578057253192
-0.009351684168599144
-0.7608403729463136
-1.3878578057253192
-0.009351684168599144
-0.7608403729463136
-1.3878578057253192
-0.009351684168599144
-0.7608403729463136
-1.3878578057253192
-0.009351684168599144
-0.7608403729463136
-1.3968565722883723
-0.008122115727409177
-0.7582778387811513
-1.3968565722883723
-0.008122115727409177
-0.7582778387811513
-1.3968565722883723
-0.008122115727409177
-0.7582778387811513
-1.3968565722883723
-0.008122115727409177
-0.7582778387811513
-1.397578072570973
-0.008097049881936033
-0.756518870353193
-1.397578072570973
-0.008097049881936033
-0.756518870353193
-1.397578072570973
-0.008097049881936033
-0.756518870353193
-1.397578072570973
-0.008097049881936033
-0.756518870353193
-1.3965367342635386
-0.00903609641909002
-0.7548193312286725
-1.3965367342635386
-0.00903609641909002
-0.7548193312286725
-1.3965367342635386
-0.00903609641909002
-0.7548193312286725
-1.3965367342635386
-0.00903609641909002
-0.7548193312286725
-1.3989540477125795
-0.010166107764260846
-0.7528145203978617
-1.3989540477125795
-0.010166107764260846
-0.7528145203978617
-1.3989540477125795
-0.010166107764260846
-0.7528145203978617
-1.3989540477125795
-0.010166107764260846
-0.7528145203978617
-1.403755025709902
-0.009555043338876093
-0.7504403768551628
-1.403755025709902
-0.009555043338876093
-0.7504403768551628
-1.403755025709902
-0.009555043338876093
-0.7504403768551628
-1.403755025709902
-0.009555043338876093
-0.7504403768551628
-1.4063031173105696
-0.007563808656481871
-0.7482716044842815
-1.4063031173105696
-0.007563808656481871
-0.7482716044842815
-1.4063031173105696
-0.007563808656481871
-0.7482716044842815
-1.4063031173105696
-0.007563808656481871
-0.7482716044842815
-1.406775618575417
-0.0064904163159141565
-0.7466211378950725
-1.406775618575417
-0.0064904163159141565
-0.7466211378950725
-1.406775618575417
-0.0064904163159141565
-0.7466211378950725
-1.406775618575417
-0.0064904163159141565
-0.7466211378950725
-1.4082354210155414
-0.005502865830544745
-0.745185917054041
-1.4082354210155414
-0.005502865830544745
-0.745185917054041
-1.4082354210155414
-0.005502865830544745
-0.745185917054041
-1.4082354210155414
-0.005502865830544745
-0.745185917054041
-1.4106014947340402
-0.00506653411516826
-0.7435702385904377
-1.4106014947340402
-0.00506653411516826
-0.7435702385904377
-1.4106014947340402
-0.00506653411516826
-0.7435702385904377
-1.4106014947340402
-0.00506653411516826
-0.7435702385904377
-1.4114283246446286
-0.006086456170627481
-0.742990466025831
-1.4114283246446286
-0.006086456170627481
-0.742990466025831
-1.4114283246446286
-0.006086456170627481
-0.742990466025831
-1.4114283246446286
-0.006086456170627481
-0.742990466025831
-1.4122311261455522
-0.0071666705068077485
-0.7426568349842336
-1.4122311261455522
-0.0071666705068077485
-0.7426568349842336
-1.4122311261455522
-0.0071666705068077485
-0.7426568349842336
-1.4122311261455522
-0.0071666705068077485
-0.7426568349842336
-1.4146555154504183
-0.008565384084999976
-0.7427754181353364
-1.4146555154504183
-0.008565384084999976
-0.7427754181353364
-1.4146555154504183
-0.008565384084999976
-0.7427754181353364
-1.4146555154504183
-0.008565384084999976
-0.7427754181353364
-1.4174017575807074
-0.008882409792205491
-0.7429179220241551
-1.4174017575807074
-0.008882409792205491
-0.7429179220241551
-1.4174017575807074
-0.008882409792205491
-0.7429179220241551
-1.4174017575807074
-0.008882409792205491
-0.7429179220241551
-1.4176187609106827
-0.009962380713170385
-0.7432732648703058
-1.4176187609106827
-0.009962380713170385
-0.7432732648703058
-1.4176187609106827
-0.009962380713170385
-0.7432732648703058
-1.4176187609106827
-0.009962380713170385
-0.7432732648703058
-1.4169822649228931
-0.01107942311359776
-0.743667385182439
-1.4169822649228931
-0.01107942311359776
-0.743667385182439
-1.4169822649228931
-0.01107942311359776
-0.743667385182439
-1.4169822649228931
-0.01107942311359776
-0.743667385182439
-1.417450390539687
-0.01228450498562973
-0.7436138531174312
-1.417450390539687
-0.01228450498562973
-0.7436138531174312
-1.417450390539687
-0.01228450498562973
-0.7436138531174312
-1.417450390539687
-0.01228450498562973
-0.7436138531174312
-1.418696366069858
-0.01360901693793118
-0.7435950028463544
-1.418696366069858
-0.01360901693793118
-0.7435950028463544
-1.418696366069858
-0.01360901693793118
-0.7435950028463544
-1.418696366069858
-0.01360901693793118
-0.7435950028463544
-1.4200086078929886
-0.014760632321797137
-0.7437222755930474
-1.4200086078929886
-0.014760632321797137
-0.7437222755930474
-1.4200086078929886
-0.014760632321797137
-0.7437222755930474
-1.4200086078929886
-0.014760632321797137
-0.7437222755930474
-1.4212175524389112
-0.015232161998920782
