-0.6674778702537245
0.08577468912963099
-0.3755488080206867
-0.6674778702537245
0.08577468912963099
-0.3755488080206867
-0.6676271191502632
0.08551784972325907
-0.3747024692797533
-0.6676271191502632
0.08551784972325907
-0.3747024692797533
-0.6676271191502632
0.08551784972325907
-0.3747024692797533
-0.6676271191502632
0.08551784972325907
-0.3747024692797533
-0.6669679111675827
0.08528699813600038
-0.37414208641429364
-0.6669679111675827
0.08528699813600038
-0.37414208641429364
-0.6669679111675827
0.08528699813600038
-0.37414208641429364
-0.6669679111675827
0.08528699813600038
-0.37414208641429364
-0.6654726297801956
0.0851798294873261
-0.3736902306575388
-0.6654726297801956
0.0851798294873261
-0.3736902306575388
-0.6654726297801956
0.0851798294873261
-0.3736902306575388
-0.6654726297801956
0.0851798294873261
-0.3736902306575388
-0.6637155180886
0.08520055963281477
-0.3729936808157677
-0.6637155180886
0.08520055963281477
-0.3729936808157677
-0.6637155180886
0.08520055963281477
-0.3729936808157677
-0.6637155180886
0.08520055963281477
-0.3729936808157677
-0.663191790842073
0.08545752430984103
-0.3725039001062979
-0.663191790842073
0.08545752430984103
-0.3725039001062979
-0.663191790842073
0.08545752430984103
-0.3725039001062979
-0.663191790842073
0.08545752430984103
-0.3725039001062979
-0.6642952500615211
0.08528529147832942
-0.3724139488428467
-0.6642952500615211
0.08528529147832942
-0.3724139488428467
-0.6642952500615211
0.08528529147832942
-0.3724139488428467
-0.6642952500615211
0.08528529147832942
-0.3724139488428467
-0.665009734025336
0.08491620096654766
-0.37236451156234157
-0.665009734025336
0.08491620096654766
-0.37236451156234157
-0.665009734025336
0.08491620096654766
-0.37236451156234157
-0.665009734025336
0.08491620096654766
-0.37236451156234157
-0.6650538862950599
0.08455427128821488
-0.3722414200800444
-0.6650538862950599
0.08455427128821488
-0.3722414200800444
-0.6650538862950599
0.08455427128821488
-0.3722414200800444
-0.6650538862950599
0.08455427128821488
-0.3722414200800444
-0.6654593147582907
0.08369203716598715
-0.372643109391969
-0.6654593147582907
0.08369203716598715
-0.372643109391969
-0.6654593147582907
0.08369203716598715
-0.372643109391969
-0.6654593147582907
0.08369203716598715
-0.372643109391969
-0.6656701078680707
0.08270945314526161
-0.3727169732871023
-0.6656701078680707
0.08270945314526161
-0.3727169732871023
-0.6656701078680707
0.08270945314526161
-0.3727169732871023
-0.6656701078680707
0.08270945314526161
-0.3727169732871023
-0.6662724665370796
0.08196400657824646
-0.37263603145166324
-0.6662724665370796
0.08196400657824646
-0.37263603145166324
-0.6662724665370796
0.08196400657824646
-0.37263603145166324
-0.6662724665370796
0.08196400657824646
-0.37263603145166324
-0.6662892204449615
0.08086132511474448
-0.3723820262285238
-0.6662892204449615
0.08086132511474448
-0.3723820262285238
-0.6662892204449615
0.08086132511474448
-0.3723820262285238
-0.6662892204449615
0.08086132511474448
-0.3723820262285238
-0.6653521126783225
0.0797813926652537
-0.37177215900406796
-0.6653521126783225
0.0797813926652537
-0.37177215900406796
-0.6653521126783225
0.0797813926652537
-0.37177215900406796
-0.6653521126783225
0.0797813926652537
-0.37177215900406796
-0.6652306398844049
0.07890422088299487
-0.37093183196937396
-0.6652306398844049
0.07890422088299487
-0.37093183196937396
-0.6652306398844049
0.07890422088299487
-0.37093183196937396
-0.6652306398844049
0.07890422088299487
-0.37093183196937396
-0.665594764484107
0.07781305979697795
-0.3704429046032107
-0.665594764484107
0.07781305979697795
-0.3704429046032107
-0.665594764484107
0.07781305979697795
-0.3704429046032107
-0.665594764484107
0.07781305979697795
-0.3704429046032107
-0.6655227010363398
0.07684606331842797
-0.3702324576377582
-0.6655227010363398
0.07684606331842797
-0.3702324576377582
-0.6655227010363398
0.07684606331842797
-0.3702324576377582
-0.6655227010363398
0.07684606331842797
-0.3702324576377582
-0.6649687356126239
0.07628184131352313
-0.3698420300851794
-0.6649687356126239
0.07628184131352313
-0.3698420300851794
-0.6649687356126239
0.07628184131352313
-0.3698420300851794
-0.6649687356126239
0.07628184131352313
-0.3698420300851794
-0.6642993496652616
0.07605567438475791
-0.36890523406137204
-0.6642993496652616
0.07605567438475791
-0.36890523406137204
-0.6642993496652616
0.07605567438475791
-0.36890523406137204
-0.6642993496652616
0.07605567438475791
-0.36890523406137204
-0.6642062223603726
0.07591890515561363
-0.36819542449828857
-0.6642062223603726
0.07591890515561363
-0.36819542449828857
-0.6642062223603726
0.07591890515561363
-0.36819542449828857
-0.6642062223603726
0.07591890515561363
-0.36819542449828857
-0.664132838508388
0.07585527463543733
-0.36763906060854873
-0.664132838508388
0.07585527463543733
-0.36763906060854873
-0.664132838508388
0.07585527463543733
-0.36763906060854873
-0.664132838508388
0.07585527463543733
-0.36763906060854873
-0.6638833483327765
0.07578729135781247
-0.36760500676537927
-0.6638833483327765
0.07578729135781247
-0.36760500676537927
-0.6638833483327765
0.07578729135781247
-0.36760500676537927
-0.6638833483327765
0.07578729135781247
-0.36760500676537927
-0.662895508592379
0.07553505448925123
-0.36766496199571674
-0.662895508592379
0.07553505448925123
-0.36766496199571674
-0.662895508592379
0.07553505448925123
-0.36766496199571674
-0.662895508592379
0.07553505448925123
-0.36766496199571674
-0.6627820554227354
0.07555761467726622
-0.3676679405780732
-0.6627820554227354
0.07555761467726622
-0.3676679405780732
-0.6627820554227354
0.07555761467726622
-0.3676679405780732
-0.6627820554227354
0.07555761467726622
-0.3676679405780732
-0.6636304574962962
0.07524076834664244
-0.36776573522177186
-0.6636304574962962
0.07524076834664244
-0.36776573522177186
-0.6636304574962962
0.07524076834664244
-0.36776573522177186
-0.6636304574962962
0.07524076834664244
-0.36776573522177186
-0.6646352395453637
0.07493818418442483
-0.36776942104517363
-0.6646352395453637
0.07493818418442483
-0.36776942104517363
-0.6646352395453637
0.07493818418442483
-0.36776942104517363
-0.6646352395453637
0.07493818418442483
-0.36776942104517363
-0.6650549650212779
0.07442581303646395
-0.36788652673957445
-0.6650549650212779
0.07442581303646395
-0.36788652673957445
-0.6650549650212779
0.07442581303646395
-0.36788652673957445
-0.6650549650212779
0.07442581303646395
-0.36788652673957445
-0.6655372682738776
0.07402339872269044
-0.3680660797461245
-0.6655372682738776
0.07402339872269044
-0.3680660797461245
-0.6655372682738776
0.07402339872269044
-0.3680660797461245
-0.6655372682738776
0.07402339872269044
-0.3680660797461245
-0.6657919227382411
0.07322738872245393
-0.3683324983172438
-0.6657919227382411
0.07322738872245393
-0.3683324983172438
-0.6657919227382411
0.07322738872245393
-0.3683324983172438
-0.6657919227382411
0.07322738872245393
-0.3683324983172438
-0.6653117701091841
0.07272602829528846
-0.3684993338069986
-0.6653117701091841
0.07272602829528846
-0.3684993338069986
-0.6653117701091841
0.07272602829528846
-0.3684993338069986
-0.6653117701091841
0.07272602829528846
-0.3684993338069986
-0.6646135839633619
0.07195108885367492
-0.3684136376357887
-0.6646135839633619
0.07195108885367492
-0.3684136376357887
-0.6646135839633619
0.07195108885367492
-0.3684136376357887
-0.6646135839633619
0.07195108885367492
-0.3684136376357887
-0.6646075943577149
0.07128327745095044
-0.3684372816409955
-0.6646075943577149
0.07128327745095044
-0.3684372816409955
-0.6646075943577149
0.07128327745095044
-0.3684372816409955
-0.6646075943577149
0.07128327745095044
-0.3684372816409955
-0.6654244462431615
0.07058365205457102
-0.36854881295350156
-0.6654244462431615
0.07058365205457102
-0.36854881295350156
-0.6654244462431615
0.07058365205457102
-0.36854881295350156
-0.6654244462431615
0.07058365205457102
-0.36854881295350156
-0.6665813178055819
0.06981637689264468
-0.3686496885882501
-0.6665813178055819
0.06981637689264468
-0.3686496885882501
-0.6665813178055819
0.06981637689264468
-0.3686496885882501
-0.6665813178055819
0.06981637689264468
-0.3686496885882501
-0.6672930723656267
0.0694085188020471
-0.3687076670337542
-0.6672930723656267
0.0694085188020471
-0.3687076670337542
-0.6672930723656267
0.0694085188020471
-0.3687076670337542
-0.6672930723656267
0.0694085188020471
-0.3687076670337542
-0.6675952758663245
0.06887840200980344
-0.3689396217121766
-0.6675952758663245
0.06887840200980344
-0.3689396217121766
-0.6675952758663245
0.06887840200980344
-0.3689396217121766
-0.6675952758663245
0.06887840200980344
-0.3689396217121766
-0.667290620591872
0.06846418927487628
-0.3691661847394697
-0.667290620591872
0.06846418927487628
-0.3691661847394697
-0.667290620591872
0.06846418927487628
-0.3691661847394697
-0.667290620591872
0.06846418927487628
-0.3691661847394697
-0.666904180523758
0.06786733231931524
-0.3691768564729705
-0.666904180523758
0.06786733231931524
-0.3691768564729705
-0.666904180523758
0.06786733231931524
-0.3691768564729705
-0.666904180523758
0.06786733231931524
-0.3691768564729705
-0.6670251337625535
0.06702048156965074
-0.36929198799570523
-0.6670251337625535
0.06702048156965074
-0.36929198799570523
-0.6670251337625535
0.06702048156965074
-0.36929198799570523
-0.6670251337625535
0.06702048156965074
-0.36929198799570523
-0.6680223014776865
0.06663689131980971
-0.36951765849096
-0.6680223014776865
0.06663689131980971
-0.36951765849096
-0.6680223014776865
0.06663689131980971
-0.36951765849096
-0.6680223014776865
0.06663689131980971
-0.36951765849096
-0.6691434818214113
0.06635083472947273
-0.36939946749268554
-0.6691434818214113
0.06635083472947273
-0.36939946749268554
-0.6691434818214113
0.06635083472947273
-0.36939946749268554
-0.6691434818214113
0.06635083472947273
-0.36939946749268554
-0.6700662026579495
0.06586493950464255
-0.3691816368443305
-0.6700662026579495
0.06586493950464255
-0.3691816368443305
-0.6700662026579495
0.06586493950464255
-0.3691816368443305
-0.6700662026579495
0.06586493950464255
-0.3691816368443305
-0.6705145098412378
0.06554548708884604
-0.3691090678168932
-0.6705145098412378
0.06554548708884604
-0.3691090678168932
-0.6705145098412378
0.06554548708884604
-0.3691090678168932
-0.6705145098412378
0.06554548708884604
-0.3691090678168932
-0.6704012476803927
0.06556792432425267
-0.36911272775903214
-0.6704012476803927
0.06556792432425267
-0.36911272775903214
-0.6704012476803927
0.06556792432425267
-0.36911272775903214
-0.6704012476803927
0.06556792432425267
-0.36911272775903214
-0.6698489024050621
0.0655920534209764
-0.36892888843013183
-0.6698489024050621
0.0655920534209764
-0.36892888843013183
-0.6698489024050621
0.0655920534209764
-0.36892888843013183
-0.6698489024050621
0.0655920534209764
-0.36892888843013183
-0.6698489024050621
0.0655920534209764
-0.36892888843013183
-0.6698489024050621
0.0655920534209764
-0.36892888843013183
-0.6698489024050621
0.0655920534209764
-0.36892888843013183
-0.6698489024050621
0.0655920534209764
-0.36892888843013183
-0.6703944375522966
0.0658050314172082
-0.36879068998382736
-0.6703944375522966
0.0658050314172082
-0.36879068998382736
-0.6703944375522966
0.0658050314172082
-0.36879068998382736
-0.6703944375522966
0.0658050314172082
-0.36879068998382736
-0.6707619812066277
0.0663291237483086
-0.36862712499208944
-0.6707619812066277
0.0663291237483086
-0.36862712499208944
-0.6707619812066277
0.0663291237483086
-0.36862712499208944
-0.6707619812066277
0.0663291237483086
-0.36862712499208944
-0.6709983970121474
0.06699230508751317
-0.36848512860002514
-0.6709983970121474
0.06699230508751317
-0.36848512860002514
-0.6709983970121474
0.06699230508751317
-0.36848512860002514
-0.6709983970121474
0.06699230508751317
-0.36848512860002514
-0.6710765014569451
0.06745192366035821
-0.3682662212205736
-0.6710765014569451
0.06745192366035821
-0.3682662212205736
-0.6710765014569451
0.06745192366035821
-0.3682662212205736
-0.6710765014569451
0.06745192366035821
-0.3682662212205736
-0.6710765014569451
0.06745192366035821
-0.3682662212205736
-0.6710765014569451
0.06745192366035821
-0.3682662212205736
-0.6710765014569451
0.06745192366035821
-0.3682662212205736
-0.6710765014569451
0.06745192366035821
-0.3682662212205736
-0.6707343227853805
0.0676683759885136
-0.3685614493873593
-0.6707343227853805
0.0676683759885136
-0.3685614493873593
-0.6707343227853805
0.0676683759885136
-0.3685614493873593
-0.6707343227853805
0.0676683759885136
-0.3685614493873593
-0.6700067229555913
0.06831384455721518
-0.36899138786108565
-0.6700067229555913
0.06831384455721518
-0.36899138786108565
-0.6700067229555913
0.06831384455721518
-0.36899138786108565
-0.6700067229555913
0.06831384455721518
-0.36899138786108565
-0.6691156011341709
0.06859470282640806
-0.36898837139406987
-0.6691156011341709
0.06859470282640806
-0.36898837139406987
-0.6691156011341709
0.06859470282640806
-0.36898837139406987
-0.6691156011341709
0.06859470282640806
-0.36898837139406987
-0.6691121287664886
0.06855459989250613
-0.36910166220208607
-0.6691121287664886
0.06855459989250613
-0.36910166220208607
-0.6691121287664886
0.06855459989250613
-0.36910166220208607
-0.6691121287664886
0.06855459989250613
-0.36910166220208607
-0.6689762889137947
0.06846406764277363
-0.3690649454083399
-0.6689762889137947
0.06846406764277363
-0.3690649454083399
-0.6689762889137947
0.06846406764277363
-0.3690649454083399
-0.6689762889137947
0.06846406764277363
-0.3690649454083399
-0.6689792287116019
0.06909180576677297
-0.36915607549773316
-0.6689792287116019
0.06909180576677297
-0.36915607549773316
-0.6689792287116019
0.06909180576677297
-0.36915607549773316
-0.6689792287116019
0.06909180576677297
-0.36915607549773316
-0.6687905997074172
0.06987036032498577
-0.36967431731004713
-0.6687905997074172
0.06987036032498577
-0.36967431731004713
-0.6687905997074172
0.06987036032498577
-0.36967431731004713
-0.6687905997074172
0.06987036032498577
-0.36967431731004713
-0.6686845220820152
0.07083157485143139
-0.37040879333324844
-0.6686845220820152
0.07083157485143139
-0.37040879333324844
-0.6686845220820152
0.07083157485143139
-0.37040879333324844
-0.6686845220820152
0.07083157485143139
-0.37040879333324844
-0.6675798561414246
0.07173886526910077
-0.37099523333142
-0.6675798561414246
0.07173886526910077
-0.37099523333142
-0.6675798561414246
0.07173886526910077
-0.37099523333142
-0.6675798561414246
0.07173886526910077
-0.37099523333142
-0.6657166442000619
0.07264009687519844
-0.3712705940690772
-0.6657166442000619
0.07264009687519844
-0.3712705940690772
-0.6657166442000619
0.07264009687519844
-0.3712705940690772
-0.6657166442000619
0.07264009687519844
-0.3712705940690772
-0.6649712215411712
0.07304831813643858
-0.37237746243939435
-0.6649712215411712
0.07304831813643858
-0.37237746243939435
-0.6649712215411712
0.07304831813643858
-0.37237746243939435
-0.6649712215411712
0.07304831813643858
-0.37237746243939435
-0.6658127398327297
0.07428761013031242
-0.3768384601523131
-0.6658127398327297
0.07428761013031242
-0.3768384601523131
-0.6658127398327297
0.07428761013031242
-0.3768384601523131
-0.6658127398327297
0.07428761013031242
-0.3768384601523131
-0.6684479754385355
0.07555566113694202
-0.3845206927053013
-0.6684479754385355
0.07555566113694202
-0.3845206927053013
-0.6684479754385355
0.07555566113694202
-0.3845206927053013
-0.6684479754385355
0.07555566113694202
-0.3845206927053013
-0.6742694628171463
0.07783762198578005
-0.39634541349643215
-0.6742694628171463
0.07783762198578005
-0.39634541349643215
-0.6742694628171463
0.07783762198578005
-0.39634541349643215
-0.6742694628171463
0.07783762198578005
-0.39634541349643215
-0.6873618386636502
0.08272172199825693
-0.4129088815310599
-0.6873618386636502
0.08272172199825693
-0.4129088815310599
-0.6873618386636502
0.08272172199825693
-0.4129088815310599
-0.6873618386636502
0.08272172199825693
-0.4129088815310599
-0.7062981418233691
0.09069989880454486
-0.43498475666416264
-0.7062981418233691
0.09069989880454486
-0.43498475666416264
-0.7062981418233691
0.09069989880454486
-0.43498475666416264
-0.7062981418233691
0.09069989880454486
-0.43498475666416264
-0.7304540102628106
0.09839485826431034
-0.46102491382046684
-0.7304540102628106
0.09839485826431034
-0.46102491382046684
-0.7304540102628106
0.09839485826431034
-0.46102491382046684
-0.7304540102628106
0.09839485826431034
-0.46102491382046684
-0.7548927356830318
0.1040409930127343
-0.48439199836618413
-0.7548927356830318
0.1040409930127343
-0.48439199836618413
-0.7548927356830318
0.1040409930127343
-0.48439199836618413
-0.7548927356830318
0.1040409930127343
-0.48439199836618413
-0.7796616450319395
0.10386450679400079
-0.49741221622768317
-0.7796616450319395
0.10386450679400079
-0.49741221622768317
-0.7796616450319395
0.10386450679400079
-0.49741221622768317
-0.7796616450319395
0.10386450679400079
-0.49741221622768317
-0.7940238520788876
0.09555195824360366
-0.5004482968880017
-0.7940238520788876
0.09555195824360366
-0.5004482968880017
-0.7940238520788876
0.09555195824360366
-0.5004482968880017
-0.7940238520788876
0.09555195824360366
-0.5004482968880017
-0.8023040123462531
0.08464899301233575
-0.4964617247390049
-0.8023040123462531
0.08464899301233575
-0.4964617247390049
-0.8023040123462531
0.08464899301233575
-0.4964617247390049
-0.8023040123462531
0.08464899301233575
-0.4964617247390049
-0.7997384942657959
0.07819675060041267
-0.485000590482103
-0.7997384942657959
0.07819675060041267
-0.485000590482103
-0.7997384942657959
0.07819675060041267
-0.485000590482103
-0.7997384942657959
0.07819675060041267
-0.485000590482103
-0.791067802504221
0.07959686832372011
-0.47809614929530814
-0.791067802504221
0.07959686832372011
-0.47809614929530814
-0.791067802504221
0.07959686832372011
-0.47809614929530814
-0.791067802504221
0.07959686832372011
-0.47809614929530814
-0.7814367823304044
0.08843350057415307
-0.47316666356844866
-0.7814367823304044
0.08843350057415307
-0.47316666356844866
-0.7814367823304044
0.08843350057415307
-0.47316666356844866
-0.7814367823304044
0.08843350057415307
-0.47316666356844866
-0.777250348913323
0.09895549107807501
-0.4703491141740741
-0.777250348913323
0.09895549107807501
-0.4703491141740741
-0.777250348913323
0.09895549107807501
-0.4703491141740741
-0.777250348913323
0.09895549107807501
-0.4703491141740741
-0.78045918558683
0.1068705776673574
-0.46996410829454277
-0.78045918558683
0.1068705776673574
-0.46996410829454277
-0.78045918558683
0.1068705776673574
-0.46996410829454277
-0.78045918558683
0.1068705776673574
-0.46996410829454277
-0.7848925511001166
0.104990870043173
-0.4704993956298583
-0.7848925511001166
0.104990870043173
-0.4704993956298583
-0.7848925511001166
0.104990870043173
-0.4704993956298583
-0.7848925511001166
0.104990870043173
-0.4704993956298583
-0.7874910140660153
0.09631409791419938
-0.471262680863753
-0.7874910140660153
0.09631409791419938
-0.471262680863753
-0.7874910140660153
0.09631409791419938
-0.471262680863753
-0.7874910140660153
0.09631409791419938
-0.471262680863753
-0.7863031402626945
0.08877839034500776
-0.47264321661144765
-0.7863031402626945
0.08877839034500776
-0.47264321661144765
-0.7863031402626945
0.08877839034500776
-0.47264321661144765
-0.7863031402626945
0.08877839034500776
-0.47264321661144765
-0.7861026810556627
0.08842714774521832
-0.47463875534655003
-0.7861026810556627
0.08842714774521832
-0.47463875534655003
-0.7861026810556627
0.08842714774521832
-0.47463875534655003
-0.7861026810556627
0.08842714774521832
-0.47463875534655003
-0.784350564242893
0.09237428343010658
-0.4770005350393928
-0.784350564242893
0.09237428343010658
-0.4770005350393928
-0.784350564242893
0.09237428343010658
-0.4770005350393928
-0.784350564242893
0.09237428343010658
-0.4770005350393928
-0.782296817141303
0.09371802302227442
-0.47890633653107284
-0.782296817141303
0.09371802302227442
-0.47890633653107284
-0.782296817141303
0.09371802302227442
-0.47890633653107284
-0.782296817141303
0.09371802302227442
-0.47890633653107284
-0.7814381131595863
0.091262879487416
-0.4793647297874285
-0.7814381131595863
0.091262879487416
-0.4793647297874285
-0.7814381131595863
0.091262879487416
-0.4793647297874285
-0.7814381131595863
0.091262879487416
-0.4793647297874285
-0.7818769742507036
0.08792892803286403
-0.4792300214958693
-0.7818769742507036
0.08792892803286403
-0.4792300214958693
-0.7818769742507036
0.08792892803286403
-0.4792300214958693
-0.7818769742507036
0.08792892803286403
-0.4792300214958693
-0.7835861020175523
0.0882371443492258
-0.4792038519585343
-0.7835861020175523
0.0882371443492258
-0.4792038519585343
-0.7835861020175523
0.0882371443492258
-0.4792038519585343
-0.7835861020175523
0.0882371443492258
-0.4792038519585343
-0.782097412151936
0.09208281669267387
-0.47966753123240097
-0.782097412151936
0.09208281669267387
-0.47966753123240097
-0.782097412151936
0.09208281669267387
-0.47966753123240097
-0.782097412151936
0.09208281669267387
-0.47966753123240097
-0.7778165344347436
0.09677370847498075
-0.4799271221859605
-0.7778165344347436
0.09677370847498075
-0.4799271221859605
-0.7778165344347436
0.09677370847498075
-0.4799271221859605
-0.7778165344347436
0.09677370847498075
-0.4799271221859605
-0.7729402251702051
0.09957509801341329
-0.4794318595974605
-0.7729402251702051
0.09957509801341329
-0.4794318595974605
-0.7729402251702051
0.09957509801341329
-0.4794318595974605
-0.7729402251702051
0.09957509801341329
-0.4794318595974605
-0.7699688842131562
0.10026651907350685
-0.47832367428446343
-0.7699688842131562
0.10026651907350685
-0.47832367428446343
-0.7699688842131562
0.10026651907350685
-0.47832367428446343
-0.7699688842131562
0.10026651907350685
-0.47832367428446343
-0.7685390032351658
0.09986297606247316
-0.4774189194663686
-0.7685390032351658
0.09986297606247316
-0.4774189194663686
-0.7685390032351658
0.09986297606247316
-0.4774189194663686
-0.7685390032351658
0.09986297606247316
-0.4774189194663686
-0.7664480655953839
0.09985129498091815
-0.4772214238591388
-0.7664480655953839
0.09985129498091815
-0.4772214238591388
-0.7664480655953839
0.09985129498091815
-0.4772214238591388
-0.7664480655953839
0.09985129498091815
-0.4772214238591388
-0.7636381203233749
0.10101172085234666
-0.4779682712411627
-0.7636381203233749
0.10101172085234666
-0.4779682712411627
-0.7636381203233749
0.10101172085234666
-0.4779682712411627
-0.7636381203233749
0.10101172085234666
-0.4779682712411627
-0.7618288155377936
0.10111800077733447
-0.47910418095090523
-0.7618288155377936
0.10111800077733447
-0.47910418095090523
-0.7618288155377936
0.10111800077733447
-0.47910418095090523
-0.7618288155377936
0.10111800077733447
-0.47910418095090523
-0.7622008853300217
0.10019045621107477
-0.47983876856888924
-0.7622008853300217
0.10019045621107477
-0.47983876856888924
-0.7622008853300217
0.10019045621107477
-0.47983876856888924
-0.7622008853300217
0.10019045621107477
-0.47983876856888924
-0.7646353641429435
0.09958285157265731
-0.48102235917607594
-0.7646353641429435
0.09958285157265731
-0.48102235917607594
-0.7646353641429435
0.09958285157265731
-0.48102235917607594
-0.7646353641429435
0.09958285157265731
-0.48102235917607594
-0.7660311551385354
0.10011867104332348
-0.4820065970497275
-0.7660311551385354
0.10011867104332348
-0.4820065970497275
-0.7660311551385354
0.10011867104332348
-0.4820065970497275
-0.7660311551385354
0.10011867104332348
-0.4820065970497275
-0.7647565199102299
0.10223403144412833
-0.4825410721293185
-0.7647565199102299
0.10223403144412833
-0.4825410721293185
-0.7647565199102299
0.10223403144412833
-0.4825410721293185
-0.7647565199102299
0.10223403144412833
-0.4825410721293185
-0.7617911898270792
0.1050163285858492
-0.48203741280270296
-0.7617911898270792
0.1050163285858492
-0.48203741280270296
-0.7617911898270792
0.1050163285858492
-0.48203741280270296
-0.7617911898270792
0.1050163285858492
-0.48203741280270296
-0.7592656176406818
0.10717759987505397
-0.4803774406893523
-0.7592656176406818
0.10717759987505397
-0.4803774406893523
-0.7592656176406818
0.10717759987505397
-0.4803774406893523
-0.7592656176406818
0.10717759987505397
-0.4803774406893523
-0.7583382107889246
0.10737561171506849
-0.4783011827127447
-0.7583382107889246
0.10737561171506849
-0.4783011827127447
-0.7583382107889246
0.10737561171506849
-0.4783011827127447
-0.7583382107889246
0.10737561171506849
-0.4783011827127447
-0.7576685891213947
0.10716842873360913
-0.4767787596361934
-0.7576685891213947
0.10716842873360913
-0.4767787596361934
-0.7576685891213947
0.10716842873360913
-0.4767787596361934
-0.7576685891213947
0.10716842873360913
-0.4767787596361934
-0.7558811071386747
0.10729157622363178
-0.4764184814205008
-0.7558811071386747
0.10729157622363178
-0.4764184814205008
-0.7558811071386747
0.10729157622363178
-0.4764184814205008
-0.7558811071386747
0.10729157622363178
-0.4764184814205008
-0.7534580998314768
0.10749254748160302
-0.47694813992953594
-0.7534580998314768
0.10749254748160302
-0.47694813992953594
-0.7534580998314768
0.10749254748160302
-0.47694813992953594
-0.7534580998314768
0.10749254748160302
-0.47694813992953594
-0.7509570796751904
0.10662440953776026
-0.47784752378469575
-0.7509570796751904
0.10662440953776026
-0.47784752378469575
-0.7509570796751904
0.10662440953776026
-0.47784752378469575
-0.7509570796751904
0.10662440953776026
-0.47784752378469575
-0.7496063188448058
0.10487464016245085
-0.4789693742316755
-0.7496063188448058
0.10487464016245085
-0.4789693742316755
-0.7496063188448058
0.10487464016245085
-0.4789693742316755
-0.7496063188448058
0.10487464016245085
-0.4789693742316755
-0.7492819830376416
0.10363916441228324
-0.47990141682611265
-0.7492819830376416
0.10363916441228324
-0.47990141682611265
-0.7492819830376416
0.10363916441228324
-0.47990141682611265
-0.7492819830376416
0.10363916441228324
-0.47990141682611265
-0.7490450484531384
0.10369314147339348
-0.4809624130338824
-0.7490450484531384
0.10369314147339348
-0.4809624130338824
-0.7490450484531384
0.10369314147339348
-0.4809624130338824
-0.7490450484531384
0.10369314147339348
-0.4809624130338824
-0.747739554164686
0.10449387201054582
-0.48175371110244636
-0.747739554164686
0.10449387201054582
-0.48175371110244636
-0.747739554164686
0.10449387201054582
-0.48175371110244636
-0.747739554164686
0.10449387201054582
-0.48175371110244636
-0.7456499296460892
0.10519644082630897
-0.48185909508026925
-0.7456499296460892
0.10519644082630897
-0.48185909508026925
-0.7456499296460892
0.10519644082630897
-0.48185909508026925
-0.7456499296460892
0.10519644082630897
-0.48185909508026925
-0.743897796258028
0.1054761789442383
-0.48143415344907037
-0.743897796258028
0.1054761789442383
-0.48143415344907037
-0.743897796258028
0.1054761789442383
-0.48143415344907037
-0.743897796258028
0.1054761789442383
-0.48143415344907037
-0.7421170319426559
0.10551322396524927
-0.4802441270462621
-0.7421170319426559
0.10551322396524927
-0.4802441270462621
-0.7421170319426559
0.10551322396524927
-0.4802441270462621
-0.7421170319426559
0.10551322396524927
-0.4802441270462621
-0.7401763168680188
0.10544619458374684
-0.4787487454608485
-0.7401763168680188
0.10544619458374684
-0.4787487454608485
-0.7401763168680188
0.10544619458374684
-0.4787487454608485
-0.7401763168680188
0.10544619458374684
-0.4787487454608485
-0.7388493635431006
0.1050700733425662
-0.47691580759305974
-0.7388493635431006
0.1050700733425662
-0.47691580759305974
-0.7388493635431006
0.1050700733425662
-0.47691580759305974
-0.7388493635431006
0.1050700733425662
-0.47691580759305974
-0.7381462519332525
0.10368926407700746
-0.47558493086785364
-0.7381462519332525
0.10368926407700746
-0.47558493086785364
-0.7381462519332525
0.10368926407700746
-0.47558493086785364
-0.7381462519332525
0.10368926407700746
-0.47558493086785364
-0.7373881541969586
0.10184066253959116
-0.4744831611781435
-0.7373881541969586
0.10184066253959116
-0.4744831611781435
-0.7373881541969586
0.10184066253959116
-0.4744831611781435
-0.7373881541969586
0.10184066253959116
-0.4744831611781435
-0.7371568055815513
0.09906522487339361
-0.47333881091308394
-0.7371568055815513
0.09906522487339361
-0.47333881091308394
-0.7371568055815513
0.09906522487339361
-0.47333881091308394
-0.7371568055815513
0.09906522487339361
-0.47333881091308394
-0.7382498967522713
0.0966062453486578
-0.4723764844235168
-0.7382498967522713
0.0966062453486578
-0.4723764844235168
-0.7382498967522713
0.0966062453486578
-0.4723764844235168
-0.7382498967522713
0.0966062453486578
-0.4723764844235168
-0.7395000469025332
0.09511877293511899
-0.47131334883755
-0.7395000469025332
0.09511877293511899
-0.47131334883755
-0.7395000469025332
0.09511877293511899
-0.47131334883755
-0.7395000469025332
0.09511877293511899
-0.47131334883755
-0.7404942892525799
0.0947026953383824
-0.4696700812285239
-0.7404942892525799
0.0947026953383824
-0.4696700812285239
-0.7404942892525799
0.0947026953383824
-0.4696700812285239
-0.7404942892525799
0.0947026953383824
-0.4696700812285239
-0.7413836305724645
0.09436085262831566
-0.46792099685970734
-0.7413836305724645
0.09436085262831566
-0.46792099685970734
-0.7413836305724645
0.09436085262831566
-0.46792099685970734
-0.7413836305724645
0.09436085262831566
-0.46792099685970734
-0.7420588286465037
0.0933650237099249
-0.4658765281042925
-0.7420588286465037
0.0933650237099249
-0.4658765281042925
-0.7420588286465037
0.0933650237099249
-0.4658765281042925
-0.7420588286465037
0.0933650237099249
-0.4658765281042925
-0.7424360561921846
0.09252539880237066
-0.4635640585138117
-0.7424360561921846
0.09252539880237066
-0.4635640585138117
-0.7424360561921846
0.09252539880237066
-0.4635640585138117
-0.7424360561921846
0.09252539880237066
-0.4635640585138117
-0.7426056943047278
0.09229974146818669
-0.4612233719543018
-0.7426056943047278
0.09229974146818669
-0.4612233719543018
-0.7426056943047278
0.09229974146818669
-0.4612233719543018
-0.7426056943047278
0.09229974146818669
-0.4612233719543018
-0.7421581398683297
0.09204157792925098
-0.4593222647923368
-0.7421581398683297
0.09204157792925098
-0.4593222647923368
-0.7421581398683297
0.09204157792925098
-0.4593222647923368
-0.7421581398683297
0.09204157792925098
-0.4593222647923368
-0.741495286178493
0.09155054740321057
-0.45742025720765467
-0.741495286178493
0.09155054740321057
-0.45742025720765467
-0.741495286178493
0.09155054740321057
-0.45742025720765467
-0.741495286178493
0.09155054740321057
-0.45742025720765467
-0.7408477137904275
0.09031956345904198
-0.4560285232440228
-0.7408477137904275
0.09031956345904198
-0.4560285232440228
-0.7408477137904275
0.09031956345904198
-0.4560285232440228
-0.7408477137904275
0.09031956345904198
-0.4560285232440228
-0.7409163181437426
0.08904533243258757
-0.45473991842990086
-0.7409163181437426
0.08904533243258757
-0.45473991842990086
-0.7409163181437426
0.08904533243258757
-0.45473991842990086
-0.7409163181437426
0.08904533243258757
-0.45473991842990086
-0.7421112493605406
0.08746471307175459
-0.45359880115531476
-0.7421112493605406
0.08746471307175459
-0.45359880115531476
-0.7421112493605406
0.08746471307175459
-0.45359880115531476
-0.7421112493605406
0.08746471307175459
-0.45359880115531476
-0.7422387119650059
0.08663254965623723
-0.4528961924947596
-0.7422387119650059
0.08663254965623723
-0.4528961924947596
-0.7422387119650059
0.08663254965623723
-0.4528961924947596
-0.7422387119650059
0.08663254965623723
-0.4528961924947596
-0.7413572527398762
0.08672913279156923
-0.45239613782045346
-0.7413572527398762
0.08672913279156923
-0.45239613782045346
-0.7413572527398762
0.08672913279156923
-0.45239613782045346
-0.7413572527398762
0.08672913279156923
-0.45239613782045346
-0.7408414597538581
0.08629142010140858
-0.45134926588161334
-0.7408414597538581
0.08629142010140858
-0.45134926588161334
-0.7408414597538581
0.08629142010140858
-0.45134926588161334
-0.7408414597538581
0.08629142010140858
-0.45134926588161334
-0.7402033148065903
0.08590226938899333
-0.44993105274659356
-0.7402033148065903
0.08590226938899333
-0.44993105274659356
-0.7402033148065903
0.08590226938899333
-0.44993105274659356
-0.7402033148065903
0.08590226938899333
-0.44993105274659356
-0.7398316944432077
0.08559066519936014
-0.44881297333444414
-0.7398316944432077
0.08559066519936014
-0.44881297333444414
-0.7398316944432077
0.08559066519936014
-0.44881297333444414
-0.7398316944432077
0.08559066519936014
-0.44881297333444414
-0.7384355537425864
0.08568794779856338
-0.4482622772353539
-0.7384355537425864
0.08568794779856338
-0.4482622772353539
-0.7384355537425864
0.08568794779856338
-0.4482622772353539
-0.7384355537425864
0.08568794779856338
-0.4482622772353539
-0.7362885332127671
0.0864701132730837
-0.44775729435971917
-0.7362885332127671
0.0864701132730837
-0.44775729435971917
-0.7362885332127671
0.0864701132730837
-0.44775729435971917
-0.7362885332127671
0.0864701132730837
-0.44775729435971917
-0.7341709252381639
0.08787496247400602
-0.4473642216817407
-0.7341709252381639
0.08787496247400602
-0.4473642216817407
-0.7341709252381639
0.08787496247400602
-0.4473642216817407
-0.7341709252381639
0.08787496247400602
-0.4473642216817407
-0.73313504797151
0.09004878253494898
-0.44755498871533445
-0.73313504797151
0.09004878253494898
-0.44755498871533445
-0.73313504797151
0.09004878253494898
-0.44755498871533445
-0.73313504797151
0.09004878253494898
-0.44755498871533445
-0.7317389767940679
0.09280192481528451
-0.4481760852761664
-0.7317389767940679
0.09280192481528451
-0.4481760852761664
-0.7317389767940679
0.09280192481528451
-0.4481760852761664
-0.7317389767940679
0.09280192481528451
-0.4481760852761664
-0.7245699419694458
0.09617385330971454
-0.44933427594055053
-0.7245699419694458
0.09617385330971454
-0.44933427594055053
-0.7245699419694458
0.09617385330971454
-0.44933427594055053
-0.7245699419694458
0.09617385330971454
-0.44933427594055053
-0.7179868605571055
0.0986726338165773
-0.45035158667383846
-0.7179868605571055
0.0986726338165773
-0.45035158667383846
-0.7179868605571055
0.0986726338165773
-0.45035158667383846
-0.7179868605571055
0.0986726338165773
-0.45035158667383846
-0.7162719737084946
0.09887230499877102
-0.45006837165595126
-0.7162719737084946
0.09887230499877102
-0.45006837165595126
-0.7162719737084946
0.09887230499877102
-0.45006837165595126
-0.7162719737084946
0.09887230499877102
-0.45006837165595126
-0.7176589553368669
0.09824028927788382
-0.44986160541642
-0.7176589553368669
0.09824028927788382
-0.44986160541642
-0.7176589553368669
0.09824028927788382
-0.44986160541642
-0.7176589553368669
0.09824028927788382
-0.44986160541642
-0.7172371141532558
0.0991757970363974
-0.4497793894189578
-0.7172371141532558
0.0991757970363974
-0.4497793894189578
-0.7172371141532558
0.0991757970363974
-0.4497793894189578
-0.7172371141532558
0.0991757970363974
-0.4497793894189578
-0.7166312416034833
0.10144453727381678
-0.4501599095043437
-0.7166312416034833
0.10144453727381678
-0.4501599095043437
-0.7166312416034833
0.10144453727381678
-0.4501599095043437
-0.7166312416034833
0.10144453727381678
-0.4501599095043437
-0.7160369873985855
0.10394425945811435
-0.4491679527482205
-0.7160369873985855
0.10394425945811435
-0.4491679527482205
-0.7160369873985855
0.10394425945811435
-0.4491679527482205
-0.7160369873985855
0.10394425945811435
-0.4491679527482205
-0.7146074784431894
0.10581460220099574
-0.44596770399482305
-0.7146074784431894
0.10581460220099574
-0.44596770399482305
-0.7146074784431894
0.10581460220099574
-0.44596770399482305
-0.7146074784431894
0.10581460220099574
-0.44596770399482305
-0.7126371760122151
0.1099560646935867
-0.4386433751341808
-0.7126371760122151
0.1099560646935867
-0.4386433751341808
-0.7126371760122151
0.1099560646935867
-0.4386433751341808
-0.7126371760122151
0.1099560646935867
-0.4386433751341808
-0.7079603129660065
0.11472795894966681
-0.4275675054022943
-0.7079603129660065
0.11472795894966681
-0.4275675054022943
-0.7079603129660065
0.11472795894966681
-0.4275675054022943
-0.7079603129660065
0.11472795894966681
-0.4275675054022943
-0.6989348081462857
0.11703511950639062
-0.41171017056989834
-0.6989348081462857
0.11703511950639062
-0.41171017056989834
-0.6989348081462857
0.11703511950639062
-0.41171017056989834
-0.6989348081462857
0.11703511950639062
-0.41171017056989834
-0.6823489533898822
0.11875910775865293
-0.39300474416146636
-0.6823489533898822
0.11875910775865293
-0.39300474416146636
-0.6823489533898822
0.11875910775865293
-0.39300474416146636
-0.6823489533898822
0.11875910775865293
-0.39300474416146636
-0.6656062594802147
0.11856060479685997
-0.37529825981377524
-0.6656062594802147
0.11856060479685997
-0.37529825981377524
-0.6656062594802147
0.11856060479685997
-0.37529825981377524
-0.6656062594802147
0.11856060479685997
-0.37529825981377524
-0.6471612577709889
0.11614274152409408
-0.3612098636570041
-0.6471612577709889
0.11614274152409408
-0.3612098636570041
-0.6471612577709889
0.11614274152409408
-0.3612098636570041
-0.6471612577709889
0.11614274152409408
-0.3612098636570041
-0.6367319304376914
0.11275622535086563
-0.3537398311214772
-0.6367319304376914
0.11275622535086563
-0.3537398311214772
-0.6367319304376914
0.11275622535086563
-0.3537398311214772
-0.6367319304376914
0.11275622535086563
-0.3537398311214772
-0.6258353580676747
0.10484749559745518
-0.34946541238681095
-0.6258353580676747
0.10484749559745518
-0.34946541238681095
-0.6258353580676747
0.10484749559745518
-0.34946541238681095
-0.6258353580676747
0.10484749559745518
-0.34946541238681095
-0.6114669762467712
0.0951021519317105
-0.3491699644146298
-0.6114669762467712
0.0951021519317105
-0.3491699644146298
-0.6114669762467712
0.0951021519317105
-0.3491699644146298
-0.6114669762467712
0.0951021519317105
-0.3491699644146298
-0.6033745906615051
0.08693700111038234
-0.352486032297833
-0.6033745906615051
0.08693700111038234
-0.352486032297833
-0.6033745906615051
0.08693700111038234
-0.352486032297833
-0.6033745906615051
0.08693700111038234
-0.352486032297833
-0.6061850673319868
0.081801335427037
-0.3554078052283408
-0.6061850673319868
0.081801335427037
-0.3554078052283408
-0.6061850673319868
0.081801335427037
-0.3554078052283408
-0.6061850673319868
0.081801335427037
-0.3554078052283408
-0.6158703201175404
0.07820945266692028
-0.35543633241392075
-0.6158703201175404
0.07820945266692028
-0.35543633241392075
-0.6158703201175404
0.07820945266692028
-0.35543633241392075
-0.6158703201175404
0.07820945266692028
-0.35543633241392075
-0.6266336782336314
0.07624329571747687
-0.3534901589756839
-0.6266336782336314
0.07624329571747687
-0.3534901589756839
-0.6266336782336314
0.07624329571747687
-0.3534901589756839
-0.6266336782336314
0.07624329571747687
-0.3534901589756839
-0.6349757663737695
0.07457203579659388
-0.35151474068305494
-0.6349757663737695
0.07457203579659388
-0.35151474068305494
-0.6349757663737695
0.07457203579659388
-0.35151474068305494
-0.6349757663737695
0.07457203579659388
-0.35151474068305494
-0.6380439111451903
0.07315835980217222
-0.35106681611462864
-0.6380439111451903
0.07315835980217222
-0.35106681611462864
-0.6380439111451903
0.07315835980217222
-0.35106681611462864
-0.6380439111451903
0.07315835980217222
-0.35106681611462864
-0.6363096129666177
0.07277731687572515
-0.35273218667532774
-0.6363096129666177
0.07277731687572515
-0.35273218667532774
-0.6363096129666177
0.07277731687572515
-0.35273218667532774
-0.6363096129666177
0.07277731687572515
-0.35273218667532774
-0.6308941279846745
0.07257910581660296
-0.3537178194098729
-0.6308941279846745
0.07257910581660296
-0.3537178194098729
-0.6308941279846745
0.07257910581660296
-0.3537178194098729
-0.6308941279846745
0.07257910581660296
-0.3537178194098729
-0.6253044852463367
0.07120491554943868
-0.3523526384640929
-0.6253044852463367
0.07120491554943868
-0.3523526384640929
-0.6253044852463367
0.07120491554943868
-0.3523526384640929
-0.6253044852463367
0.07120491554943868
-0.3523526384640929
-0.6235683396223987
0.06939588196820903
-0.34990778421074065
-0.6235683396223987
0.06939588196820903
-0.34990778421074065
-0.6235683396223987
0.06939588196820903
-0.34990778421074065
-0.6235683396223987
0.06939588196820903
-0.34990778421074065
-0.6265772026281385
0.06767766241229303
-0.3492324202825971
-0.6265772026281385
0.06767766241229303
-0.3492324202825971
-0.6265772026281385
0.06767766241229303
-0.3492324202825971
-0.6265772026281385
0.06767766241229303
-0.3492324202825971
-0.6296626172902304
0.06662717216464567
-0.3496797466358816
-0.6296626172902304
0.06662717216464567
-0.3496797466358816
-0.6296626172902304
0.06662717216464567
-0.3496797466358816
-0.6296626172902304
0.06662717216464567
-0.3496797466358816
-0.631270086868288
0.06679314381272958
-0.35118667258480485
-0.631270086868288
0.06679314381272958
-0.35118667258480485
-0.631270086868288
0.06679314381272958
-0.35118667258480485
-0.631270086868288
0.06679314381272958
-0.35118667258480485
-0.6291690450368825
0.06757271157347354
-0.3522923170574484
-0.6291690450368825
0.06757271157347354
-0.3522923170574484
-0.6291690450368825
0.06757271157347354
-0.3522923170574484
-0.6291690450368825
0.06757271157347354
-0.3522923170574484
-0.6253179270143948
0.06834406675467516
-0.35271461466187803
-0.6253179270143948
0.06834406675467516
-0.35271461466187803
-0.6253179270143948
0.06834406675467516
-0.35271461466187803
-0.6253179270143948
0.06834406675467516
-0.35271461466187803
-0.623818982878799
0.06909104024490458
-0.3532155323012332
-0.623818982878799
0.06909104024490458
-0.3532155323012332
-0.623818982878799
0.06909104024490458
-0.3532155323012332
-0.623818982878799
0.06909104024490458
-0.3532155323012332
-0.6258668127812989
0.07042965301688019
-0.35448723484329214
-0.6258668127812989
0.07042965301688019
-0.35448723484329214
-0.6258668127812989
0.07042965301688019
-0.35448723484329214
-0.6258668127812989
0.07042965301688019
-0.35448723484329214
-0.6303751552921953
0.07211338191238771
-0.3558682597571492
-0.6303751552921953
0.07211338191238771
-0.3558682597571492
-0.6303751552921953
0.07211338191238771
-0.3558682597571492
-0.6303751552921953
0.07211338191238771
-0.3558682597571492
-0.6341461964734005
0.07438726378654145
-0.3565981631481201
-0.6341461964734005
0.07438726378654145
-0.3565981631481201
-0.6341461964734005
0.07438726378654145
-0.3565981631481201
-0.6341461964734005
0.07438726378654145
-0.3565981631481201
-0.635677648097849
0.07634628303638026
-0.3566094594709565
-0.635677648097849
0.07634628303638026
-0.3566094594709565
-0.635677648097849
0.07634628303638026
-0.3566094594709565
-0.635677648097849
0.07634628303638026
-0.3566094594709565
-0.636246436761255
0.07829186021476732
-0.35719067023994455
-0.636246436761255
0.07829186021476732
-0.35719067023994455
-0.636246436761255
0.07829186021476732
-0.35719067023994455
-0.636246436761255
0.07829186021476732
-0.35719067023994455
-0.6372000907211757
0.07982206982803552
-0.35845672755856195
-0.6372000907211757
0.07982206982803552
-0.35845672755856195
-0.6372000907211757
0.07982206982803552
-0.35845672755856195
-0.6372000907211757
0.07982206982803552
-0.35845672755856195
-0.637249213238971
0.08061472320764954
-0.36003195165958896
-0.637249213238971
0.08061472320764954
-0.36003195165958896
-0.637249213238971
0.08061472320764954
-0.36003195165958896
-0.637249213238971
0.08061472320764954
-0.36003195165958896
-0.6375774346249137
0.08128173801604334
-0.3622340027341823
-0.6375774346249137
0.08128173801604334
-0.3622340027341823
-0.6375774346249137
0.08128173801604334
-0.3622340027341823
-0.6375774346249137
0.08128173801604334
-0.3622340027341823
-0.6382109620387791
0.08269424356586046
-0.36564961370646315
-0.6382109620387791
0.08269424356586046
-0.36564961370646315
-0.6382109620387791
0.08269424356586046
-0.36564961370646315
-0.6382109620387791
0.08269424356586046
-0.36564961370646315
-0.6395477495673476
0.0852511696381273
-0.37121558403036986
-0.6395477495673476
0.0852511696381273
-0.37121558403036986
-0.6395477495673476
0.0852511696381273
-0.37121558403036986
-0.6395477495673476
0.0852511696381273
-0.37121558403036986
-0.6480393872282744
0.09002110238673713
-0.38265042732092075
-0.6480393872282744
0.09002110238673713
-0.38265042732092075
-0.6480393872282744
0.09002110238673713
-0.38265042732092075
-0.6480393872282744
0.09002110238673713
-0.38265042732092075
-0.6644433029000792
0.09710652625164609
-0.4027368145855517
-0.6644433029000792
0.09710652625164609
-0.4027368145855517
-0.6644433029000792
0.09710652625164609
-0.4027368145855517
-0.6644433029000792
0.09710652625164609
-0.4027368145855517
-0.689858703448119
0.10383108391458315
-0.42731259307198216
-0.689858703448119
0.10383108391458315
-0.42731259307198216
-0.689858703448119
0.10383108391458315
-0.42731259307198216
-0.689858703448119
0.10383108391458315
-0.42731259307198216
-0.7189946476123613
0.10618564923439033
-0.4501714490889932
-0.7189946476123613
0.10618564923439033
-0.4501714490889932
-0.7189946476123613
0.10618564923439033
-0.4501714490889932
-0.7189946476123613
0.10618564923439033
-0.4501714490889932
-0.7440887432359596
0.10485712914643923
-0.46512387610817013
-0.7440887432359596
0.10485712914643923
-0.46512387610817013
-0.7440887432359596
0.10485712914643923
-0.46512387610817013
-0.7440887432359596
0.10485712914643923
-0.46512387610817013
-0.7618391977328869
0.10316536168693362
-0.47280127929077315
-0.7618391977328869
0.10316536168693362
-0.47280127929077315
-0.7618391977328869
0.10316536168693362
-0.47280127929077315
-0.7618391977328869
0.10316536168693362
-0.47280127929077315
-0.7790174592725152
0.10208283899303008
-0.477609108490914
-0.7790174592725152
0.10208283899303008
-0.477609108490914
-0.7790174592725152
0.10208283899303008
-0.477609108490914
-0.7790174592725152
0.10208283899303008
-0.477609108490914
-0.8015003043495617
0.09861324758235064
-0.47449648297787245
-0.8015003043495617
0.09861324758235064
-0.47449648297787245
-0.8015003043495617
0.09861324758235064
-0.47449648297787245
-0.8015003043495617
0.09861324758235064
-0.47449648297787245
-0.7958931414978917
0.09128144055229397
-0.46234900508618143
-0.7958931414978917
0.09128144055229397
-0.46234900508618143
-0.7958931414978917
0.09128144055229397
-0.46234900508618143
-0.7958931414978917
0.09128144055229397
-0.46234900508618143
-0.7638526482959547
0.08924074715788938
-0.4530935091820496
-0.7638526482959547
0.08924074715788938
-0.4530935091820496
-0.7638526482959547
0.08924074715788938
-0.4530935091820496
-0.7638526482959547
0.08924074715788938
-0.4530935091820496
-0.7470729439941205
0.11244507462706783
-0.44848029662343136
-0.7470729439941205
0.11244507462706783
-0.44848029662343136
-0.7470729439941205
0.11244507462706783
-0.44848029662343136
-0.7470729439941205
0.11244507462706783
-0.44848029662343136
-0.7497659656171396
0.1417860305590538
-0.44509281920532473
-0.7497659656171396
0.1417860305590538
-0.44509281920532473
-0.7497659656171396
0.1417860305590538
-0.44509281920532473
-0.7497659656171396
0.1417860305590538
-0.44509281920532473
-0.7567738973305439
0.14911336509724146
-0.4446597323533505
-0.7567738973305439
0.14911336509724146
-0.4446597323533505
-0.7567738973305439
0.14911336509724146
-0.4446597323533505
-0.7567738973305439
0.14911336509724146
-0.4446597323533505
-0.7648694612547776
0.1356626457051957
-0.44361295496236286
-0.7648694612547776
0.1356626457051957
-0.44361295496236286
-0.7648694612547776
0.1356626457051957
-0.44361295496236286
-0.7648694612547776
0.1356626457051957
-0.44361295496236286
-0.7699643611973603
0.11355768319278553
-0.44084620665749924
-0.7699643611973603
0.11355768319278553
-0.44084620665749924
-0.7699643611973603
0.11355768319278553
-0.44084620665749924
-0.7699643611973603
0.11355768319278553
-0.44084620665749924
-0.7688825352632694
0.10251742680906059
-0.4408215248930962
-0.7688825352632694
0.10251742680906059
-0.4408215248930962
-0.7688825352632694
0.10251742680906059
-0.4408215248930962
-0.7688825352632694
0.10251742680906059
-0.4408215248930962
-0.7657931735986782
0.10806030650986541
-0.44455234625080126
-0.7657931735986782
0.10806030650986541
-0.44455234625080126
-0.7657931735986782
0.10806030650986541
-0.44455234625080126
-0.7657931735986782
0.10806030650986541
-0.44455234625080126
-0.7643208547346708
0.11605281268365845
-0.44819714922809817
-0.7643208547346708
0.11605281268365845
-0.44819714922809817
-0.7643208547346708
0.11605281268365845
-0.44819714922809817
-0.7643208547346708
0.11605281268365845
-0.44819714922809817
-0.7625468010259849
0.11480296131507171
-0.45023272671857273
-0.7625468010259849
0.11480296131507171
-0.45023272671857273
-0.7625468010259849
0.11480296131507171
-0.45023272671857273
-0.7625468010259849
0.11480296131507171
-0.45023272671857273
-0.7641598723795786
0.10680241625976929
-0.4510707430048101
-0.7641598723795786
0.10680241625976929
-0.4510707430048101
-0.7641598723795786
0.10680241625976929
-0.4510707430048101
-0.7641598723795786
0.10680241625976929
-0.4510707430048101
-0.7671032844053428
0.09977722638616655
-0.4518297141956576
-0.7671032844053428
0.09977722638616655
-0.4518297141956576
-0.7671032844053428
0.09977722638616655
-0.4518297141956576
-0.7671032844053428
0.09977722638616655
-0.4518297141956576
-0.7696454390019435
0.09861536609654949
-0.4530387625321275
-0.7696454390019435
0.09861536609654949
-0.4530387625321275
-0.7696454390019435
0.09861536609654949
-0.4530387625321275
-0.7696454390019435
0.09861536609654949
-0.4530387625321275
-0.769560028903155
0.10149295159684968
-0.45477187256620244
-0.769560028903155
0.10149295159684968
-0.45477187256620244
-0.769560028903155
0.10149295159684968
-0.45477187256620244
-0.769560028903155
0.10149295159684968
-0.45477187256620244
-0.7667266149609309
0.10311899254332726
-0.45664699924161817
-0.7667266149609309
0.10311899254332726
-0.45664699924161817
-0.7667266149609309
0.10311899254332726
-0.45664699924161817
-0.7667266149609309
0.10311899254332726
-0.45664699924161817
-0.7632013777536133
0.10172910162930617
-0.4569211498205005
-0.7632013777536133
0.10172910162930617
-0.4569211498205005
-0.7632013777536133
0.10172910162930617
-0.4569211498205005
-0.7632013777536133
0.10172910162930617
-0.4569211498205005
-0.7620457851525314
0.09825706312007051
-0.45599430975599425
-0.7620457851525314
0.09825706312007051
-0.45599430975599425
-0.7620457851525314
0.09825706312007051
-0.45599430975599425
-0.7620457851525314
0.09825706312007051
-0.45599430975599425
-0.7628073919561271
0.09453639740222947
-0.4553972063776237
-0.7628073919561271
0.09453639740222947
-0.4553972063776237
-0.7628073919561271
0.09453639740222947
-0.4553972063776237
-0.7628073919561271
0.09453639740222947
-0.4553972063776237
-0.7647137821463176
0.0934428930793948
-0.45574040476244637
-0.7647137821463176
0.0934428930793948
-0.45574040476244637
-0.7647137821463176
0.0934428930793948
-0.45574040476244637
-0.7647137821463176
0.0934428930793948
-0.45574040476244637
-0.7655197562818082
0.0942914884378661
-0.4572665773588334
-0.7655197562818082
0.0942914884378661
-0.4572665773588334
-0.7655197562818082
0.0942914884378661
-0.4572665773588334
-0.7655197562818082
0.0942914884378661
-0.4572665773588334
-0.7651117486965087
0.09477865437275604
-0.45904133299919875
-0.7651117486965087
0.09477865437275604
-0.45904133299919875
-0.7651117486965087
0.09477865437275604
-0.45904133299919875
-0.7651117486965087
0.09477865437275604
-0.45904133299919875
-0.7648842960619914
0.09454347367376642
-0.46079217928247634
-0.7648842960619914
0.09454347367376642
-0.46079217928247634
-0.7648842960619914
0.09454347367376642
-0.46079217928247634
-0.7648842960619914
0.09454347367376642
-0.46079217928247634
-0.765999523778725
0.09380588858696341
-0.4623959096905791
-0.765999523778725
0.09380588858696341
-0.4623959096905791
-0.765999523778725
0.09380588858696341
-0.4623959096905791
-0.765999523778725
0.09380588858696341
-0.4623959096905791
-0.7675375512191845
0.0935209371798563
-0.46330397993422306
-0.7675375512191845
0.0935209371798563
-0.46330397993422306
-0.7675375512191845
0.0935209371798563
-0.46330397993422306
-0.7675375512191845
0.0935209371798563
-0.46330397993422306
-0.767806778559983
0.09384258785665014
-0.4644339373164966
-0.767806778559983
0.09384258785665014
-0.4644339373164966
-0.767806778559983
0.09384258785665014
-0.4644339373164966
-0.767806778559983
0.09384258785665014
-0.4644339373164966
-0.7670807816101586
0.09455215002664738
-0.46475416766508165
-0.7670807816101586
0.09455215002664738
-0.46475416766508165
-0.7670807816101586
0.09455215002664738
-0.46475416766508165
-0.7670807816101586
0.09455215002664738
-0.46475416766508165
-0.7655028929967811
0.09480672012390867
-0.46463069552298664
-0.7655028929967811
0.09480672012390867
-0.46463069552298664
-0.7655028929967811
0.09480672012390867
-0.46463069552298664
-0.7655028929967811
0.09480672012390867
-0.46463069552298664
-0.764088641073663
0.09478559079896572
-0.4644049570234008
-0.764088641073663
0.09478559079896572
-0.4644049570234008
-0.764088641073663
0.09478559079896572
-0.4644049570234008
-0.764088641073663
0.09478559079896572
-0.4644049570234008
-0.762961316229235
0.09488432649466272
-0.46375649660793083
-0.762961316229235
0.09488432649466272
-0.46375649660793083
-0.762961316229235
0.09488432649466272
-0.46375649660793083
-0.762961316229235
0.09488432649466272
-0.46375649660793083
-0.7624706627416569
0.09478623246471866
-0.46324845314618346
-0.7624706627416569
0.09478623246471866
-0.46324845314618346
-0.7624706627416569
0.09478623246471866
-0.46324845314618346
-0.7624706627416569
0.09478623246471866
-0.46324845314618346
-0.7614191871594835
0.09487136838781754
-0.46327007324606395
-0.7614191871594835
0.09487136838781754
-0.46327007324606395
-0.7614191871594835
0.09487136838781754
-0.46327007324606395
-0.7614191871594835
0.09487136838781754
-0.46327007324606395
-0.7597233550673899
0.09611251319826515
-0.46314854991134136
-0.7597233550673899
0.09611251319826515
-0.46314854991134136
-0.7597233550673899
0.09611251319826515
-0.46314854991134136
-0.7597233550673899
0.09611251319826515
-0.46314854991134136
-0.7581019364965063
0.09742074567366318
-0.46277107844572335
-0.7581019364965063
0.09742074567366318
-0.46277107844572335
-0.7581019364965063
0.09742074567366318
-0.46277107844572335
-0.7581019364965063
0.09742074567366318
-0.46277107844572335
-0.7577691625348086
0.09830091679200238
-0.461734578148758
-0.7577691625348086
0.09830091679200238
-0.461734578148758
-0.7577691625348086
0.09830091679200238
-0.461734578148758
-0.7577691625348086
0.09830091679200238
-0.461734578148758
-0.7583366324610966
0.09845764471560943
-0.46067193200752465
-0.7583366324610966
0.09845764471560943
-0.46067193200752465
-0.7583366324610966
0.09845764471560943
-0.46067193200752465
-0.7583366324610966
0.09845764471560943
-0.46067193200752465
-0.7589271921716435
0.09867949214375041
-0.4597651152257193
-0.7589271921716435
0.09867949214375041
-0.4597651152257193
-0.7589271921716435
0.09867949214375041
-0.4597651152257193
-0.7589271921716435
0.09867949214375041
-0.4597651152257193
-0.7596493791656487
0.09969328918743608
-0.45920997994046625
-0.7596493791656487
0.09969328918743608
-0.45920997994046625
-0.7596493791656487
0.09969328918743608
-0.45920997994046625
-0.7596493791656487
0.09969328918743608
-0.45920997994046625
-0.7593377776572223
0.10080941732436345
-0.45894005276320815
-0.7593377776572223
0.10080941732436345
-0.45894005276320815
-0.7593377776572223
0.10080941732436345
-0.45894005276320815
-0.7593377776572223
0.10080941732436345
-0.45894005276320815
-0.7590104460528418
0.10165596552658437
-0.4587171511861295
-0.7590104460528418
0.10165596552658437
-0.4587171511861295
-0.7590104460528418
0.10165596552658437
-0.4587171511861295
-0.7590104460528418
0.10165596552658437
-0.4587171511861295
-0.7582085154578778
0.10208796062800733
-0.45834712645433306
-0.7582085154578778
0.10208796062800733
-0.45834712645433306
-0.7582085154578778
0.10208796062800733
-0.45834712645433306
-0.7582085154578778
0.10208796062800733
-0.45834712645433306
-0.7574999754561417
0.10208854094339566
-0.4577362049116945
-0.7574999754561417
0.10208854094339566
-0.4577362049116945
-0.7574999754561417
0.10208854094339566
-0.4577362049116945
-0.7574999754561417
0.10208854094339566
-0.4577362049116945
-0.7573088800550354
0.10132698606255866
-0.4569807831869692
-0.7573088800550354
0.10132698606255866
-0.4569807831869692
-0.7573088800550354
0.10132698606255866
-0.4569807831869692
-0.7573088800550354
0.10132698606255866
-0.4569807831869692
-0.7570950871388135
0.10050068083952461
-0.4560698146876928
-0.7570950871388135
0.10050068083952461
-0.4560698146876928
-0.7570950871388135
0.10050068083952461
-0.4560698146876928
-0.7570950871388135
0.10050068083952461
-0.4560698146876928
-0.7572517880491811
0.10059150896528385
-0.4550585402300667
-0.7572517880491811
0.10059150896528385
-0.4550585402300667
-0.7572517880491811
0.10059150896528385
-0.4550585402300667
-0.7572517880491811
0.10059150896528385
-0.4550585402300667
-0.7558461577880716
0.10065270537018244
-0.45460823847159154
-0.7558461577880716
0.10065270537018244
-0.45460823847159154
-0.7558461577880716
0.10065270537018244
-0.45460823847159154
-0.7558461577880716
0.10065270537018244
-0.45460823847159154
-0.7538697494165051
0.10049888284298569
-0.4540125217569831
-0.7538697494165051
0.10049888284298569
-0.4540125217569831
-0.7538697494165051
0.10049888284298569
-0.4540125217569831
-0.7538697494165051
0.10049888284298569
-0.4540125217569831
-0.7519219097214568
0.10074798802916012
-0.4530372870135988
-0.7519219097214568
0.10074798802916012
-0.4530372870135988
-0.7519219097214568
0.10074798802916012
-0.4530372870135988
-0.7519219097214568
0.10074798802916012
-0.4530372870135988
-0.7515228550785602
0.10135838275774817
-0.45201730993331807
-0.7515228550785602
0.10135838275774817
-0.45201730993331807
-0.7515228550785602
0.10135838275774817
-0.45201730993331807
-0.7515228550785602
0.10135838275774817
-0.45201730993331807
-0.751941099899663
0.1018099352854892
-0.45132020764109904
-0.751941099899663
0.1018099352854892
-0.45132020764109904
-0.751941099899663
0.1018099352854892
-0.45132020764109904
-0.751941099899663
0.1018099352854892
-0.45132020764109904
-0.7512381436961414
0.10198566688582665
-0.4508820492803348
-0.7512381436961414
0.10198566688582665
-0.4508820492803348
-0.7512381436961414
0.10198566688582665
-0.4508820492803348
-0.7512381436961414
0.10198566688582665
-0.4508820492803348
-0.7500663741552236
0.1021219231805471
-0.45009000452965076
-0.7500663741552236
0.1021219231805471
-0.45009000452965076
-0.7500663741552236
0.1021219231805471
-0.45009000452965076
-0.7500663741552236
0.1021219231805471
-0.45009000452965076
-0.7493400258831124
0.10176362582670943
-0.44931151902280114
-0.7493400258831124
0.10176362582670943
-0.44931151902280114
-0.7493400258831124
0.10176362582670943
-0.44931151902280114
-0.7493400258831124
0.10176362582670943
-0.44931151902280114
-0.7494318930799564
0.10154129206032338
-0.44843114792459793
-0.7494318930799564
0.10154129206032338
-0.44843114792459793
-0.7494318930799564
0.10154129206032338
-0.44843114792459793
-0.7494318930799564
0.10154129206032338
-0.44843114792459793
-0.7497071983097205
0.10139747818502141
-0.447619010382567
-0.7497071983097205
0.10139747818502141
-0.447619010382567
-0.7497071983097205
0.10139747818502141
-0.447619010382567
-0.7497071983097205
0.10139747818502141
-0.447619010382567
-0.7495055113766874
0.10112419361169958
-0.4466747005571209
-0.7495055113766874
0.10112419361169958
-0.4466747005571209
-0.7495055113766874
0.10112419361169958
-0.4466747005571209
-0.7495055113766874
0.10112419361169958
-0.4466747005571209
-0.7483000385582854
0.10012175528707068
-0.44569151469639423
-0.7483000385582854
0.10012175528707068
-0.44569151469639423
-0.7483000385582854
0.10012175528707068
-0.44569151469639423
-0.7483000385582854
0.10012175528707068
-0.44569151469639423
-0.7471922169788104
0.09911470312680469
-0.44432816761131966
-0.7471922169788104
0.09911470312680469
-0.44432816761131966
-0.7471922169788104
0.09911470312680469
-0.44432816761131966
-0.7471922169788104
0.09911470312680469
-0.44432816761131966
-0.7473211896066139
0.09811035144188088
-0.4430145566850209
-0.7473211896066139
0.09811035144188088
-0.4430145566850209
-0.7473211896066139
0.09811035144188088
-0.4430145566850209
-0.7473211896066139
0.09811035144188088
-0.4430145566850209
-0.7475511870136436
0.0974579352816243
-0.44210191513796815
-0.7475511870136436
0.0974579352816243
-0.44210191513796815
-0.7475511870136436
0.0974579352816243
-0.44210191513796815
-0.7475511870136436
0.0974579352816243
-0.44210191513796815
-0.7471174630146822
0.0971031408104065
-0.44149980434829056
-0.7471174630146822
0.0971031408104065
-0.44149980434829056
-0.7471174630146822
0.0971031408104065
-0.44149980434829056
-0.7471174630146822
0.0971031408104065
-0.44149980434829056
-0.7462770216317595
0.09719110565485264
-0.4410226692836282
-0.7462770216317595
0.09719110565485264
-0.4410226692836282
-0.7462770216317595
0.09719110565485264
-0.4410226692836282
-0.7462770216317595
0.09719110565485264
-0.4410226692836282
-0.7455877968008519
0.09720289885971418
-0.44067902946286014
-0.7455877968008519
0.09720289885971418
-0.44067902946286014
-0.7455877968008519
0.09720289885971418
-0.44067902946286014
-0.7455877968008519
0.09720289885971418
-0.44067902946286014
-0.7457911458257322
0.09712782217814603
-0.4404038758318927
-0.7457911458257322
0.09712782217814603
-0.4404038758318927
-0.7457911458257322
0.09712782217814603
-0.4404038758318927
-0.7457911458257322
0.09712782217814603
-0.4404038758318927
-0.7458181847669728
0.09723815706802534
-0.4404486414967391
-0.7458181847669728
0.09723815706802534
-0.4404486414967391
-0.7458181847669728
0.09723815706802534
-0.4404486414967391
-0.7458181847669728
0.09723815706802534
-0.4404486414967391
-0.7451218897961851
0.09767347369095018
-0.4403990784859661
-0.7451218897961851
0.09767347369095018
-0.4403990784859661
-0.7451218897961851
0.09767347369095018
-0.4403990784859661
-0.7451218897961851
0.09767347369095018
-0.4403990784859661
-0.7440581647933859
0.09812628694466265
-0.440823198265936
-0.7440581647933859
0.09812628694466265
-0.440823198265936
-0.7440581647933859
0.09812628694466265
-0.440823198265936
-0.7440581647933859
0.09812628694466265
-0.440823198265936
-0.74256966879543
0.09870909314190403
-0.44153020579283203
-0.74256966879543
0.09870909314190403
-0.44153020579283203
-0.74256966879543
0.09870909314190403
-0.44153020579283203
-0.74256966879543
0.09870909314190403
-0.44153020579283203
-0.7413688196695669
0.09976935793616032
-0.44259310066129864
-0.7413688196695669
0.09976935793616032
-0.44259310066129864
-0.7413688196695669
0.09976935793616032
-0.44259310066129864
-0.7413688196695669
0.09976935793616032
-0.44259310066129864
-0.7400538869610163
0.10081380366299195
-0.44376991650570613
-0.7400538869610163
0.10081380366299195
-0.44376991650570613
-0.7400538869610163
0.10081380366299195
-0.44376991650570613
-0.7400538869610163
0.10081380366299195
-0.44376991650570613
-0.7354860577083107
0.10093198171462452
-0.44451785875749017
-0.7354860577083107
0.10093198171462452
-0.44451785875749017
-0.7354860577083107
0.10093198171462452
-0.44451785875749017
-0.7354860577083107
0.10093198171462452
-0.44451785875749017
-0.7353003334631995
0.09993706591445668
-0.4458433150805828
-0.7353003334631995
0.09993706591445668
-0.4458433150805828
-0.7353003334631995
0.09993706591445668
-0.4458433150805828
-0.7353003334631995
0.09993706591445668
-0.4458433150805828
-0.7351421520210659
0.09887420293042638
-0.44660473434847947
-0.7351421520210659
0.09887420293042638
-0.44660473434847947
-0.7351421520210659
0.09887420293042638
-0.44660473434847947
-0.7351421520210659
0.09887420293042638
-0.44660473434847947
-0.7305319503779224
0.0989107330226127
-0.44693547939218353
-0.7305319503779224
0.0989107330226127
-0.44693547939218353
-0.7305319503779224
0.0989107330226127
-0.44693547939218353
-0.7305319503779224
0.0989107330226127
-0.44693547939218353
-0.7280237356785212
0.09857023494269836
-0.44673345503346706
-0.7280237356785212
0.09857023494269836
-0.44673345503346706
-0.7280237356785212
0.09857023494269836
-0.44673345503346706
-0.7280237356785212
0.09857023494269836
-0.44673345503346706
-0.730615903821766
0.09760987223403834
-0.44603078578879135
-0.730615903821766
0.09760987223403834
-0.44603078578879135
-0.730615903821766
0.09760987223403834
-0.44603078578879135
-0.730615903821766
0.09760987223403834
-0.44603078578879135
-0.7324129351744109
0.0982961736837833
-0.4442696458230579
-0.7324129351744109
0.0982961736837833
-0.4442696458230579
-0.7324129351744109
0.0982961736837833
-0.4442696458230579
-0.7324129351744109
0.0982961736837833
-0.4442696458230579
-0.7313760870932782
0.10099452887269204
-0.44052300944294026
-0.7313760870932782
0.10099452887269204
-0.44052300944294026
-0.7313760870932782
0.10099452887269204
-0.44052300944294026
-0.7313760870932782
0.10099452887269204
-0.44052300944294026
-0.7274307013045184
0.10529957665244087
-0.43726467645499856
-0.7274307013045184
0.10529957665244087
-0.43726467645499856
-0.7274307013045184
0.10529957665244087
-0.43726467645499856
-0.7274307013045184
0.10529957665244087
-0.43726467645499856
-0.7241470083393612
0.1092847765876822
-0.43263181587727795
-0.7241470083393612
0.1092847765876822
-0.43263181587727795
-0.7241470083393612
0.1092847765876822
-0.43263181587727795
-0.7241470083393612
0.1092847765876822
-0.43263181587727795
-0.7208485986298283
0.1140893970536771
-0.4264545755850928
-0.7208485986298283
0.1140893970536771
-0.4264545755850928
-0.7208485986298283
0.1140893970536771
-0.4264545755850928
-0.7208485986298283
0.1140893970536771
-0.4264545755850928
-0.7091129838288459
0.11732914120658591
-0.41597604857071757
-0.7091129838288459
0.11732914120658591
-0.41597604857071757
-0.7091129838288459
0.11732914120658591
-0.41597604857071757
-0.7091129838288459
0.11732914120658591
-0.41597604857071757
-0.6985969611887017
0.12011729525206792
-0.4009197374238156
-0.6985969611887017
0.12011729525206792
-0.4009197374238156
-0.6985969611887017
0.12011729525206792
-0.4009197374238156
-0.6985969611887017
0.12011729525206792
-0.4009197374238156
-0.6859459037766331
0.12193223158096281
-0.3827855712668477
-0.6859459037766331
0.12193223158096281
-0.3827855712668477
-0.6859459037766331
0.12193223158096281
-0.3827855712668477
-0.6859459037766331
0.12193223158096281
-0.3827855712668477
-0.6770788366486786
0.12237779354306973
-0.3673379818315103
-0.6770788366486786
0.12237779354306973
-0.3673379818315103
-0.6770788366486786
0.12237779354306973
-0.3673379818315103
-0.6770788366486786
0.12237779354306973
-0.3673379818315103
-0.670796267432352
0.11825433314096231
-0.35640413094896295
-0.670796267432352
0.11825433314096231
-0.35640413094896295
-0.670796267432352
0.11825433314096231
-0.35640413094896295
-0.670796267432352
0.11825433314096231
-0.35640413094896295
-0.6594342910325683
0.1108137277949313
-0.3501990128474237
-0.6594342910325683
0.1108137277949313
-0.3501990128474237
-0.6594342910325683
0.1108137277949313
-0.3501990128474237
-0.6594342910325683
0.1108137277949313
-0.3501990128474237
-0.64797493793986
0.10064734890712317
-0.3470821644676352
-0.64797493793986
0.10064734890712317
-0.3470821644676352
-0.64797493793986
0.10064734890712317
-0.3470821644676352
-0.64797493793986
0.10064734890712317
-0.3470821644676352
-0.6354648008431516
0.09054233230853788
-0.34558675847735415
-0.6354648008431516
0.09054233230853788
-0.34558675847735415
-0.6354648008431516
0.09054233230853788
-0.34558675847735415
-0.6354648008431516
0.09054233230853788
-0.34558675847735415
-0.6326612359722504
0.08336458692269964
-0.34407351858663165
-0.6326612359722504
0.08336458692269964
-0.34407351858663165
-0.6326612359722504
0.08336458692269964
-0.34407351858663165
-0.6326612359722504
0.08336458692269964
-0.34407351858663165
-0.6355088424044698
0.07810135579503065
-0.3419379496454918
-0.6355088424044698
0.07810135579503065
-0.3419379496454918
-0.6355088424044698
0.07810135579503065
-0.3419379496454918
-0.6355088424044698
0.07810135579503065
-0.3419379496454918
-0.6443728929499734
0.07400453800884335
-0.3389219875825896
-0.6443728929499734
0.07400453800884335
-0.3389219875825896
-0.6443728929499734
0.07400453800884335
-0.3389219875825896
-0.6443728929499734
0.07400453800884335
-0.3389219875825896
-0.6544575192776401
0.07137614266257372
-0.3376547391585153
-0.6544575192776401
0.07137614266257372
-0.3376547391585153
-0.6544575192776401
0.07137614266257372
-0.3376547391585153
-0.6544575192776401
0.07137614266257372
-0.3376547391585153
-0.6574024636924207
0.06954218070813398
-0.33781679717213325
-0.6574024636924207
0.06954218070813398
-0.33781679717213325
-0.6574024636924207
0.06954218070813398
-0.33781679717213325
-0.6574024636924207
0.06954218070813398
-0.33781679717213325
-0.6546958502828703
0.06741837820929249
-0.3380153559206587
-0.6546958502828703
0.06741837820929249
-0.3380153559206587
-0.6546958502828703
0.06741837820929249
-0.3380153559206587
-0.6546958502828703
0.06741837820929249
-0.3380153559206587
-0.6475952160931283
0.06588625039210931
-0.3373790301394412
-0.6475952160931283
0.06588625039210931
-0.3373790301394412
-0.6475952160931283
0.06588625039210931
-0.3373790301394412
-0.6475952160931283
0.06588625039210931
-0.3373790301394412
-0.6428571574403921
0.06503695928174996
-0.3358767480660706
-0.6428571574403921
0.06503695928174996
-0.3358767480660706
-0.6428571574403921
0.06503695928174996
-0.3358767480660706
-0.6428571574403921
0.06503695928174996
-0.3358767480660706
-0.6452126694629373
0.06545711045462159
-0.33505851840830825
-0.6452126694629373
0.06545711045462159
-0.33505851840830825
-0.6452126694629373
0.06545711045462159
-0.33505851840830825
-0.6452126694629373
0.06545711045462159
-0.33505851840830825
-0.6500742965896058
0.06643719373030628
-0.33491624194102415
-0.6500742965896058
0.06643719373030628
-0.33491624194102415
-0.6500742965896058
0.06643719373030628
-0.33491624194102415
-0.6500742965896058
0.06643719373030628
-0.33491624194102415
-0.6520285746560177
0.06775269578819317
-0.3351520122324063
-0.6520285746560177
0.06775269578819317
-0.3351520122324063
-0.6520285746560177
0.06775269578819317
-0.3351520122324063
-0.6520285746560177
0.06775269578819317
-0.3351520122324063
-0.6495872431394887
0.06981096618330064
-0.3360153458491458
-0.6495872431394887
0.06981096618330064
-0.3360153458491458
-0.6495872431394887
0.06981096618330064
-0.3360153458491458
-0.6495872431394887
0.06981096618330064
-0.3360153458491458
-0.6462732104363553
0.0727352504297598
-0.33789188401968984
-0.6462732104363553
0.0727352504297598
-0.33789188401968984
-0.6462732104363553
0.0727352504297598
-0.33789188401968984
-0.6462732104363553
0.0727352504297598
-0.33789188401968984
-0.6433804328958652
0.07539302712154392
-0.3395585237695156
-0.6433804328958652
0.07539302712154392
-0.3395585237695156
-0.6433804328958652
0.07539302712154392
-0.3395585237695156
-0.6433804328958652
0.07539302712154392
-0.3395585237695156
-0.6469850381086495
0.07777536975681054
-0.34410017633234136
-0.6469850381086495
0.07777536975681054
-0.34410017633234136
-0.6469850381086495
0.07777536975681054
-0.34410017633234136
-0.6469850381086495
0.07777536975681054
-0.34410017633234136
-0.6526106134172892
0.08022897467177374
-0.35137508590171557
-0.6526106134172892
0.08022897467177374
-0.35137508590171557
-0.6526106134172892
0.08022897467177374
-0.35137508590171557
-0.6526106134172892
0.08022897467177374
-0.35137508590171557
-0.6576646709731089
0.08341729460281234
-0.35900908605941284
-0.6576646709731089
0.08341729460281234
-0.35900908605941284
-0.6576646709731089
0.08341729460281234
-0.35900908605941284
-0.6576646709731089
0.08341729460281234
-0.35900908605941284
-0.6616327218936934
0.087599206423272
-0.3665153551999625
-0.6616327218936934
0.087599206423272
-0.3665153551999625
-0.6616327218936934
0.087599206423272
-0.3665153551999625
-0.6616327218936934
0.087599206423272
-0.3665153551999625
-0.669820520588668
0.09162019412009577
-0.37736759840384243
-0.669820520588668
0.09162019412009577
-0.37736759840384243
-0.669820520588668
0.09162019412009577
-0.37736759840384243
-0.669820520588668
0.09162019412009577
-0.37736759840384243
-0.6814756542843811
0.09453616657487407
-0.3913118245379253
-0.6814756542843811
0.09453616657487407
-0.3913118245379253
-0.6814756542843811
0.09453616657487407
-0.3913118245379253
-0.6814756542843811
0.09453616657487407
-0.3913118245379253
-0.6927701679626042
0.09641730261872437
-0.40696445146533133
-0.6927701679626042
0.09641730261872437
-0.40696445146533133
-0.6927701679626042
0.09641730261872437
-0.40696445146533133
-0.6927701679626042
0.09641730261872437
-0.40696445146533133
-0.7065615764926085
0.09677229007117218
-0.42245423830821544
-0.7065615764926085
0.09677229007117218
-0.42245423830821544
-0.7065615764926085
0.09677229007117218
-0.42245423830821544
-0.7065615764926085
0.09677229007117218
-0.42245423830821544
-0.7189399439209708
0.09698093354260871
-0.4356898012040801
-0.7189399439209708
0.09698093354260871
-0.4356898012040801
-0.7189399439209708
0.09698093354260871
-0.4356898012040801
-0.7189399439209708
0.09698093354260871
-0.4356898012040801
-0.728105032330464
0.09646570230436935
-0.4461905908237482
-0.728105032330464
0.09646570230436935
-0.4461905908237482
-0.728105032330464
0.09646570230436935
-0.4461905908237482
-0.728105032330464
0.09646570230436935
-0.4461905908237482
-0.7340831274960863
0.09574140498978662
-0.452317699526007
-0.7340831274960863
0.09574140498978662
-0.452317699526007
-0.7340831274960863
0.09574140498978662
-0.452317699526007
-0.7340831274960863
0.09574140498978662
-0.452317699526007
-0.737490009835949
0.09245010180286369
-0.4558927762151853
-0.737490009835949
0.09245010180286369
-0.4558927762151853
-0.737490009835949
0.09245010180286369
-0.4558927762151853
-0.737490009835949
0.09245010180286369
-0.4558927762151853
-0.740464994518238
0.08960683324823485
-0.45423954703805874
-0.740464994518238
0.08960683324823485
-0.45423954703805874
-0.740464994518238
0.08960683324823485
-0.45423954703805874
-0.740464994518238
0.08960683324823485
-0.45423954703805874
-0.7456166147839598
0.0890942594920974
-0.45057272762223666
-0.7456166147839598
0.0890942594920974
-0.45057272762223666
-0.7456166147839598
0.0890942594920974
-0.45057272762223666
-0.7456166147839598
0.0890942594920974
-0.45057272762223666
-0.7514037159343246
0.0900322061273483
-0.44809641741039796
-0.7514037159343246
0.0900322061273483
-0.44809641741039796
-0.7514037159343246
0.0900322061273483
-0.44809641741039796
-0.7514037159343246
0.0900322061273483
-0.44809641741039796
-0.753110149644214
0.09212646153677853
-0.4459552418601631
-0.753110149644214
0.09212646153677853
-0.4459552418601631
-0.753110149644214
0.09212646153677853
-0.4459552418601631
-0.753110149644214
0.09212646153677853
-0.4459552418601631
-0.7504390933959725
0.0980345449932808
-0.44435210047846924
-0.7504390933959725
0.0980345449932808
-0.44435210047846924
-0.7504390933959725
0.0980345449932808
-0.44435210047846924
-0.7504390933959725
0.0980345449932808
-0.44435210047846924
-0.7490931758900227
0.10493605486352231
-0.44397994383197165
-0.7490931758900227
0.10493605486352231
-0.44397994383197165
-0.7490931758900227
0.10493605486352231
-0.44397994383197165
-0.7490931758900227
0.10493605486352231
-0.44397994383197165
-0.7479815601446984
0.10813979210092046
-0.44365280972624843
-0.7479815601446984
0.10813979210092046
-0.44365280972624843
-0.7479815601446984
0.10813979210092046
-0.44365280972624843
-0.7479815601446984
0.10813979210092046
-0.44365280972624843
-0.7477461994743113
0.10351085461694325
-0.4434901342247508
-0.7477461994743113
0.10351085461694325
-0.4434901342247508
-0.7477461994743113
0.10351085461694325
-0.4434901342247508
-0.7477461994743113
0.10351085461694325
-0.4434901342247508
-0.749888648423279
0.09599604255987165
-0.442923184973729
-0.749888648423279
0.09599604255987165
-0.442923184973729
-0.749888648423279
0.09599604255987165
-0.442923184973729
-0.749888648423279
0.09599604255987165
-0.442923184973729
-0.7530535174678858
0.09028952563869061
-0.44197709897265697
-0.7530535174678858
0.09028952563869061
-0.44197709897265697
-0.7530535174678858
0.09028952563869061
-0.44197709897265697
-0.7530535174678858
0.09028952563869061
-0.44197709897265697
-0.7535778171090941
0.09037734857081488
-0.44180841689285033
-0.7535778171090941
0.09037734857081488
-0.44180841689285033
-0.7535778171090941
0.09037734857081488
-0.44180841689285033
-0.7535778171090941
0.09037734857081488
-0.44180841689285033
-0.7501123166370375
0.09547415165767911
-0.4427297268431689
-0.7501123166370375
0.09547415165767911
-0.4427297268431689
-0.7501123166370375
0.09547415165767911
-0.4427297268431689
-0.7501123166370375
0.09547415165767911
-0.4427297268431689
-0.7455137347251407
0.10078655349472196
-0.44370061251892773
-0.7455137347251407
0.10078655349472196
-0.44370061251892773
-0.7455137347251407
0.10078655349472196
-0.44370061251892773
-0.7455137347251407
0.10078655349472196
-0.44370061251892773
-0.7432787196354738
0.10221608900307842
-0.4433023500099008
-0.7432787196354738
0.10221608900307842
-0.4433023500099008
-0.7432787196354738
0.10221608900307842
-0.4433023500099008
-0.7432787196354738
0.10221608900307842
-0.4433023500099008
-0.7453832230229115
0.10120246511072875
-0.4419773826919957
-0.7453832230229115
0.10120246511072875
-0.4419773826919957
-0.7453832230229115
0.10120246511072875
-0.4419773826919957
-0.7453832230229115
0.10120246511072875
-0.4419773826919957
-0.7475491033030852
0.10085132094718323
-0.44173735381326656
-0.7475491033030852
0.10085132094718323
-0.44173735381326656
-0.7475491033030852
0.10085132094718323
-0.44173735381326656
-0.7475491033030852
0.10085132094718323
-0.44173735381326656
-0.7475233023588448
0.10368347534665957
-0.44246318991655365
-0.7475233023588448
0.10368347534665957
-0.44246318991655365
-0.7475233023588448
0.10368347534665957
-0.44246318991655365
-0.7475233023588448
0.10368347534665957
-0.44246318991655365
-0.7456763647304474
0.10823448524225264
-0.4432344331929115
-0.7456763647304474
0.10823448524225264
-0.4432344331929115
-0.7456763647304474
0.10823448524225264
-0.4432344331929115
-0.7456763647304474
0.10823448524225264
-0.4432344331929115
-0.7433295445955883
0.11144858849899923
-0.44459909543551185
-0.7433295445955883
0.11144858849899923
-0.44459909543551185
-0.7433295445955883
0.11144858849899923
-0.44459909543551185
-0.7433295445955883
0.11144858849899923
-0.44459909543551185
-0.7431447173830129
0.11196947348466471
-0.4454335180302176
-0.7431447173830129
0.11196947348466471
-0.4454335180302176
-0.7431447173830129
0.11196947348466471
-0.4454335180302176
-0.7431447173830129
0.11196947348466471
-0.4454335180302176
-0.7446952387954384
0.1107716293911624
-0.4459931488181198
-0.7446952387954384
0.1107716293911624
-0.4459931488181198
-0.7446952387954384
0.1107716293911624
-0.4459931488181198
-0.7446952387954384
0.1107716293911624
-0.4459931488181198
-0.7470236819701743
0.10946562053029024
-0.44673922453934445
-0.7470236819701743
0.10946562053029024
-0.44673922453934445
-0.7470236819701743
0.10946562053029024
-0.44673922453934445
-0.7470236819701743
0.10946562053029024
-0.44673922453934445
-0.7486595903075635
0.10957646717546433
-0.44768754693710555
-0.7486595903075635
0.10957646717546433
-0.44768754693710555
-0.7486595903075635
0.10957646717546433
-0.44768754693710555
-0.7486595903075635
0.10957646717546433
-0.44768754693710555
-0.7483213076360103
0.11144115892616725
-0.44865750521123854
-0.7483213076360103
0.11144115892616725
-0.44865750521123854
-0.7483213076360103
0.11144115892616725
-0.44865750521123854
-0.7483213076360103
0.11144115892616725
-0.44865750521123854
-0.7473723209246488
0.11373729667836109
-0.45024453057991076
-0.7473723209246488
0.11373729667836109
-0.45024453057991076
-0.7473723209246488
0.11373729667836109
-0.45024453057991076
-0.7473723209246488
0.11373729667836109
-0.45024453057991076
-0.7457161888673844
0.11493590803400354
-0.45155524203197783
-0.7457161888673844
0.11493590803400354
-0.45155524203197783
-0.7457161888673844
0.11493590803400354
-0.45155524203197783
-0.7457161888673844
0.11493590803400354
-0.45155524203197783
-0.7460951357052559
0.11531667189327388
-0.4517563087388249
-0.7460951357052559
0.11531667189327388
-0.4517563087388249
-0.7460951357052559
0.11531667189327388
-0.4517563087388249
-0.7460951357052559
0.11531667189327388
-0.4517563087388249
-0.7484078237911181
0.11483397961511643
-0.45177713029351857
-0.7484078237911181
0.11483397961511643
-0.45177713029351857
-0.7484078237911181
0.11483397961511643
-0.45177713029351857
-0.7484078237911181
0.11483397961511643
-0.45177713029351857
-0.7510375968514907
0.11488916580076852
-0.4523143648054008
-0.7510375968514907
0.11488916580076852
-0.4523143648054008
-0.7510375968514907
0.11488916580076852
-0.4523143648054008
-0.7510375968514907
0.11488916580076852
-0.4523143648054008
-0.750663005906264
0.11557325964921092
-0.45320317286804723
-0.750663005906264
0.11557325964921092
-0.45320317286804723
-0.750663005906264
0.11557325964921092
-0.45320317286804723
-0.750663005906264
0.11557325964921092
-0.45320317286804723
-0.7479852593573318
0.11640976208850294
-0.453553387189523
-0.7479852593573318
0.11640976208850294
-0.453553387189523
-0.7479852593573318
0.11640976208850294
-0.453553387189523
-0.7479852593573318
0.11640976208850294
-0.453553387189523
-0.7460612257436376
0.11618048007133389
-0.45345832869611985
-0.7460612257436376
0.11618048007133389
-0.45345832869611985
-0.7460612257436376
0.11618048007133389
-0.45345832869611985
-0.7460612257436376
0.11618048007133389
-0.45345832869611985
-0.7466222154405433
0.11447806670850066
-0.45298241437945275
-0.7466222154405433
0.11447806670850066
-0.45298241437945275
-0.7466222154405433
0.11447806670850066
-0.45298241437945275
-0.7466222154405433
0.11447806670850066
-0.45298241437945275
-0.7490324506359861
0.1124727995915216
-0.4526662739774146
-0.7490324506359861
0.1124727995915216
-0.4526662739774146
-0.7490324506359861
0.1124727995915216
-0.4526662739774146
-0.7490324506359861
0.1124727995915216
-0.4526662739774146
-0.7507889182488485
0.11094803895045979
-0.45282575169429035
-0.7507889182488485
0.11094803895045979
-0.45282575169429035
-0.7507889182488485
0.11094803895045979
-0.45282575169429035
-0.7507889182488485
0.11094803895045979
-0.45282575169429035
-0.7510420184556958
0.11028585548720608
-0.4529928663586714
-0.7510420184556958
0.11028585548720608
-0.4529928663586714
-0.7510420184556958
0.11028585548720608
-0.4529928663586714
-0.7510420184556958
0.11028585548720608
-0.4529928663586714
-0.749323082103247
0.110154420134863
-0.45323908252394995
-0.749323082103247
0.110154420134863
-0.45323908252394995
-0.749323082103247
0.110154420134863
-0.45323908252394995
-0.749323082103247
0.110154420134863
-0.45323908252394995
-0.7479705138864096
0.10967138177160139
-0.45311321081930006
-0.7479705138864096
0.10967138177160139
-0.45311321081930006
-0.7479705138864096
0.10967138177160139
-0.45311321081930006
-0.7479705138864096
0.10967138177160139
-0.45311321081930006
-0.7482661656115235
0.10883069329997141
-0.45269919157855876
-0.7482661656115235
0.10883069329997141
-0.45269919157855876
-0.7482661656115235
0.10883069329997141
-0.45269919157855876
-0.7482661656115235
0.10883069329997141
-0.45269919157855876
-0.7497772984251692
0.10805790638562356
-0.4524676648809304
-0.7497772984251692
0.10805790638562356
-0.4524676648809304
-0.7497772984251692
0.10805790638562356
-0.4524676648809304
-0.7497772984251692
0.10805790638562356
-0.4524676648809304
-0.75043116692008
0.10737348641060247
-0.4528061557098625
-0.75043116692008
0.10737348641060247
-0.4528061557098625
-0.75043116692008
0.10737348641060247
-0.4528061557098625
-0.75043116692008
0.10737348641060247
-0.4528061557098625
-0.7502344724633495
0.10720054829386014
-0.45339546476469356
-0.7502344724633495
0.10720054829386014
-0.45339546476469356
-0.7502344724633495
0.10720054829386014
-0.45339546476469356
-0.7502344724633495
0.10720054829386014
-0.45339546476469356
-0.7489135227783924
0.10747009194796818
-0.4541107718888137
-0.7489135227783924
0.10747009194796818
-0.4541107718888137
-0.7489135227783924
0.10747009194796818
-0.4541107718888137
-0.7489135227783924
0.10747009194796818
-0.4541107718888137
-0.7483227440597177
0.10749965543072436
-0.4547015506074885
-0.7483227440597177
0.10749965543072436
-0.4547015506074885
-0.7483227440597177
0.10749965543072436
-0.4547015506074885
-0.7483227440597177
0.10749965543072436
-0.4547015506074885
-0.7482806389916188
0.10678741009257192
-0.4548041569154941
-0.7482806389916188
0.10678741009257192
-0.4548041569154941
-0.7482806389916188
0.10678741009257192
-0.4548041569154941
-0.7482806389916188
0.10678741009257192
-0.4548041569154941
-0.7487147728422223
0.10602859109258254
-0.4544304744288323
-0.7487147728422223
0.10602859109258254
-0.4544304744288323
-0.7487147728422223
0.10602859109258254
-0.4544304744288323
-0.7487147728422223
0.10602859109258254
-0.4544304744288323
-0.748838215568309
0.10584174884370134
-0.45451987522555476
-0.748838215568309
0.10584174884370134
-0.45451987522555476
-0.748838215568309
0.10584174884370134
-0.45451987522555476
-0.748838215568309
0.10584174884370134
-0.45451987522555476
-0.7487511740168368
0.10622817622892293
-0.45425425486568194
-0.7487511740168368
0.10622817622892293
-0.45425425486568194
-0.7487511740168368
0.10622817622892293
-0.45425425486568194
-0.7487511740168368
0.10622817622892293
-0.45425425486568194
-0.748173732491672
0.10715327483414898
-0.4542720695349508
-0.748173732491672
0.10715327483414898
-0.4542720695349508
-0.748173732491672
0.10715327483414898
-0.4542720695349508
-0.748173732491672
0.10715327483414898
-0.4542720695349508
-0.7475177195190429
0.10826103329450448
-0.45422775310671604
-0.7475177195190429
0.10826103329450448
-0.45422775310671604
-0.7475177195190429
0.10826103329450448
-0.45422775310671604
-0.7475177195190429
0.10826103329450448
-0.45422775310671604
-0.7475498343406073
0.10841580353016446
-0.4541620961190472
-0.7475498343406073
0.10841580353016446
-0.4541620961190472
-0.7475498343406073
0.10841580353016446
-0.4541620961190472
-0.7475498343406073
0.10841580353016446
-0.4541620961190472
-0.7479187363426052
0.1082385402956831
-0.45439932678590517
-0.7479187363426052
0.1082385402956831
-0.45439932678590517
-0.7479187363426052
0.1082385402956831
-0.45439932678590517
-0.7479187363426052
0.1082385402956831
-0.45439932678590517
-0.7485059382373977
0.10787090895898399
-0.4543449779912453
-0.7485059382373977
0.10787090895898399
-0.4543449779912453
-0.7485059382373977
0.10787090895898399
-0.4543449779912453
-0.7485059382373977
0.10787090895898399
-0.4543449779912453
-0.7489742850349967
0.10744154127253427
-0.4545157978173211
-0.7489742850349967
0.10744154127253427
-0.4545157978173211
-0.7489742850349967
0.10744154127253427
-0.4545157978173211
-0.7489742850349967
0.10744154127253427
-0.4545157978173211
-0.749405768666977
0.1071058849036267
-0.4544371246408355
-0.749405768666977
0.1071058849036267
-0.4544371246408355
-0.749405768666977
0.1071058849036267
-0.4544371246408355
-0.749405768666977
0.1071058849036267
-0.4544371246408355
-0.7498689523740332
0.10721866130641515
-0.4538674667876872
-0.7498689523740332
0.10721866130641515
-0.4538674667876872
-0.7498689523740332
0.10721866130641515
-0.4538674667876872
-0.7498689523740332
0.10721866130641515
-0.4538674667876872
-0.749819330187238
0.10691417435431586
-0.4529460038010863
-0.749819330187238
0.10691417435431586
-0.4529460038010863
-0.749819330187238
0.10691417435431586
-0.4529460038010863
-0.749819330187238
0.10691417435431586
-0.4529460038010863
-0.74970523352032
0.1065934145489989
-0.4517302241888817
-0.74970523352032
0.1065934145489989
-0.4517302241888817
-0.74970523352032
0.1065934145489989
-0.4517302241888817
-0.74970523352032
0.1065934145489989
-0.4517302241888817
-0.749643054918508
0.10644774538740213
-0.45071537705488873
-0.749643054918508
0.10644774538740213
-0.45071537705488873
-0.749643054918508
0.10644774538740213
-0.45071537705488873
-0.749643054918508
0.10644774538740213
-0.45071537705488873
-0.7494981169890909
0.10643968033287605
-0.44974978060242354
-0.7494981169890909
0.10643968033287605
-0.44974978060242354
-0.7494981169890909
0.10643968033287605
-0.44974978060242354
-0.7494981169890909
0.10643968033287605
-0.44974978060242354
-0.7497028412066853
0.10670249874167133
-0.44893912397168784
-0.7497028412066853
0.10670249874167133
-0.44893912397168784
-0.7497028412066853
0.10670249874167133
-0.44893912397168784
-0.7497028412066853
0.10670249874167133
-0.44893912397168784
-0.750181913141177
0.10699618632837145
-0.4479267897958935
-0.750181913141177
0.10699618632837145
-0.4479267897958935
-0.750181913141177
0.10699618632837145
-0.4479267897958935
-0.750181913141177
0.10699618632837145
-0.4479267897958935
-0.7511860384789415
0.10661495585242647
-0.4469903357290003
-0.7511860384789415
0.10661495585242647
-0.4469903357290003
-0.7511860384789415
0.10661495585242647
-0.4469903357290003
-0.7511860384789415
0.10661495585242647
-0.4469903357290003
-0.7515548534537173
0.10532962987413769
-0.44624736808330834
-0.7515548534537173
0.10532962987413769
-0.44624736808330834
-0.7515548534537173
0.10532962987413769
-0.44624736808330834
-0.7515548534537173
0.10532962987413769
-0.44624736808330834
-0.7524961341117218
0.10510726904015512
-0.44562581004357926
-0.7524961341117218
0.10510726904015512
-0.44562581004357926
-0.7524961341117218
0.10510726904015512
-0.44562581004357926
-0.7524961341117218
0.10510726904015512
-0.44562581004357926
-0.7521159188700552
0.10578152428543029
-0.44476064853875796
-0.7521159188700552
0.10578152428543029
-0.44476064853875796
-0.7521159188700552
0.10578152428543029
-0.44476064853875796
-0.7521159188700552
0.10578152428543029
-0.44476064853875796
-0.7512448755022932
0.10622970641579939
-0.44441950145105874
-0.7512448755022932
0.10622970641579939
-0.44441950145105874
-0.7512448755022932
0.10622970641579939
-0.44441950145105874
-0.7512448755022932
0.10622970641579939
-0.44441950145105874
-0.7510889631968062
0.10626098943831716
-0.44439603110389053
-0.7510889631968062
0.10626098943831716
-0.44439603110389053
-0.7510889631968062
0.10626098943831716
-0.44439603110389053
-0.7510889631968062
0.10626098943831716
-0.44439603110389053
-0.7509782470010525
0.1062883001181667
-0.4444000224378437
-0.7509782470010525
0.1062883001181667
-0.4444000224378437
-0.7509782470010525
0.1062883001181667
-0.4444000224378437
-0.7509782470010525
0.1062883001181667
-0.4444000224378437
-0.7503280001489631
0.10604932682639846
-0.4450116924319802
-0.7503280001489631
0.10604932682639846
-0.4450116924319802
-0.7503280001489631
0.10604932682639846
-0.4450116924319802
-0.7503280001489631
0.10604932682639846
-0.4450116924319802
-0.7498023481304559
0.10626645412823872
-0.44650691170826645
-0.7498023481304559
0.10626645412823872
-0.44650691170826645
-0.7498023481304559
0.10626645412823872
-0.44650691170826645
-0.7498023481304559
0.10626645412823872
-0.44650691170826645
-0.749167790249991
0.10715420545437492
-0.4488003813784349
-0.749167790249991
0.10715420545437492
-0.4488003813784349
-0.749167790249991
0.10715420545437492
-0.4488003813784349
-0.749167790249991
0.10715420545437492
-0.4488003813784349
-0.7489469044298231
0.10824556522581166
-0.4513275638119499
-0.7489469044298231
0.10824556522581166
-0.4513275638119499
-0.7489469044298231
0.10824556522581166
-0.4513275638119499
-0.7489469044298231
0.10824556522581166
-0.4513275638119499
-0.7483721455619081
0.1085947385528862
-0.4539520499516449
-0.7483721455619081
0.1085947385528862
-0.4539520499516449
-0.7483721455619081
0.1085947385528862
-0.4539520499516449
-0.7483721455619081
0.1085947385528862
-0.4539520499516449
-0.7464781845265217
0.10768722864355444
-0.45558102854982807
-0.7464781845265217
0.10768722864355444
-0.45558102854982807
-0.7464781845265217
0.10768722864355444
-0.45558102854982807
-0.7464781845265217
0.10768722864355444
-0.45558102854982807
-0.7459318590115664
0.1051425955447271
-0.45691497191718183
-0.7459318590115664
0.1051425955447271
-0.45691497191718183
-0.7459318590115664
0.1051425955447271
-0.45691497191718183
-0.7459318590115664
0.1051425955447271
-0.45691497191718183
-0.7466650725533475
0.10221614651076893
-0.4581020199083875
-0.7466650725533475
0.10221614651076893
-0.4581020199083875
-0.7466650725533475
0.10221614651076893
-0.4581020199083875
-0.7466650725533475
0.10221614651076893
-0.4581020199083875
-0.7446912572483063
0.10029765963075239
-0.45786864288221557
-0.7446912572483063
0.10029765963075239
-0.45786864288221557
-0.7446912572483063
0.10029765963075239
-0.45786864288221557
-0.7446912572483063
0.10029765963075239
-0.45786864288221557
-0.7397667516103347
0.09883979322767107
-0.4569937731333123
-0.7397667516103347
0.09883979322767107
-0.4569937731333123
-0.7397667516103347
0.09883979322767107
-0.4569937731333123
-0.7397667516103347
0.09883979322767107
-0.4569937731333123
-0.7388548387904565
0.09699540919403778
-0.4556046960735658
-0.7388548387904565
0.09699540919403778
-0.4556046960735658
-0.7388548387904565
0.09699540919403778
-0.4556046960735658
-0.7388548387904565
0.09699540919403778
-0.4556046960735658
-0.7408099758581851
0.0956180879361994
-0.45384901569754393
-0.7408099758581851
0.0956180879361994
-0.45384901569754393
-0.7408099758581851
0.0956180879361994
-0.45384901569754393
-0.7408099758581851
0.0956180879361994
-0.45384901569754393
-0.7407334216543735
0.0960920317252031
-0.4533608497282956
-0.7407334216543735
0.0960920317252031
-0.4533608497282956
-0.7407334216543735
0.0960920317252031
-0.4533608497282956
-0.7407334216543735
0.0960920317252031
-0.4533608497282956
-0.7419206342756368
0.09686104068641649
-0.45100524563266003
-0.7419206342756368
0.09686104068641649
-0.45100524563266003
-0.7419206342756368
0.09686104068641649
-0.45100524563266003
-0.7419206342756368
0.09686104068641649
-0.45100524563266003
-0.7361888999682579
0.09806206546731193
-0.44601872187674413
-0.7361888999682579
0.09806206546731193
-0.44601872187674413
-0.7361888999682579
0.09806206546731193
-0.44601872187674413
-0.7361888999682579
0.09806206546731193
-0.44601872187674413
-0.72756421168637
0.10014091278248774
-0.43766327635829244
-0.72756421168637
0.10014091278248774
-0.43766327635829244
-0.72756421168637
0.10014091278248774
-0.43766327635829244
-0.72756421168637
0.10014091278248774
-0.43766327635829244
-0.7200419691812019
0.1027263838493987
-0.42672858489428533
-0.7200419691812019
0.1027263838493987
-0.42672858489428533
-0.7200419691812019
0.1027263838493987
-0.42672858489428533
-0.7200419691812019
0.1027263838493987
-0.42672858489428533
-0.711734775495796
0.10413651530617705
-0.4155519385919116
-0.711734775495796
0.10413651530617705
-0.4155519385919116
-0.711734775495796
0.10413651530617705
-0.4155519385919116
-0.711734775495796
0.10413651530617705
-0.4155519385919116
-0.706575667880074
0.10353910660543582
-0.40512944723504624
-0.706575667880074
0.10353910660543582
-0.40512944723504624
-0.706575667880074
0.10353910660543582
-0.40512944723504624
-0.706575667880074
0.10353910660543582
-0.40512944723504624
-0.6995286645750799
0.1018098783824214
-0.39644064536088675
-0.6995286645750799
0.1018098783824214
-0.39644064536088675
-0.6995286645750799
0.1018098783824214
-0.39644064536088675
-0.6995286645750799
0.1018098783824214
-0.39644064536088675
-0.6894758427584817
0.09806309160966153
-0.3899965559851482
-0.6894758427584817
0.09806309160966153
-0.3899965559851482
-0.6894758427584817
0.09806309160966153
-0.3899965559851482
-0.6894758427584817
0.09806309160966153
-0.3899965559851482
-0.6762259674168283
0.09332838281556613
-0.38566229766619575
-0.6762259674168283
0.09332838281556613
-0.38566229766619575
-0.6762259674168283
0.09332838281556613
-0.38566229766619575
-0.6762259674168283
0.09332838281556613
-0.38566229766619575
-0.6644729435973075
0.08747482379531826
-0.3818708477573222
-0.6644729435973075
0.08747482379531826
-0.3818708477573222
-0.6644729435973075
0.08747482379531826
-0.3818708477573222
-0.6644729435973075
0.08747482379531826
-0.3818708477573222
-0.659240524063382
0.0807699221489688
-0.3790832877820763
-0.659240524063382
0.0807699221489688
-0.3790832877820763
-0.659240524063382
0.0807699221489688
-0.3790832877820763
-0.659240524063382
0.0807699221489688
-0.3790832877820763
-0.6606756062114265
0.07431881420533529
-0.3790801402868344
-0.6606756062114265
0.07431881420533529
-0.3790801402868344
-0.6606756062114265
0.07431881420533529
-0.3790801402868344
-0.6606756062114265
0.07431881420533529
-0.3790801402868344
-0.6655662625973899
0.06862096876678106
-0.3792837823858453
-0.6655662625973899
0.06862096876678106
-0.3792837823858453
-0.6655662625973899
0.06862096876678106
-0.3792837823858453
-0.6655662625973899
0.06862096876678106
-0.3792837823858453
-0.6679710365989179
0.0647927105974876
-0.37686566090696894
-0.6679710365989179
0.0647927105974876
-0.37686566090696894
-0.6679710365989179
0.0647927105974876
-0.37686566090696894
-0.6679710365989179
0.0647927105974876
-0.37686566090696894
-0.6679485304740707
0.06296202821565708
-0.37491104289151067
-0.6679485304740707
0.06296202821565708
-0.37491104289151067
-0.6679485304740707
0.06296202821565708
-0.37491104289151067
-0.6679485304740707
0.06296202821565708
-0.37491104289151067
-0.6681488138863053
0.061311180525300525
-0.3750036533652411
-0.6681488138863053
0.061311180525300525
-0.3750036533652411
-0.6681488138863053
0.061311180525300525
-0.3750036533652411
-0.6681488138863053
0.061311180525300525
-0.3750036533652411
-0.6698780633849447
0.0593648541932426
-0.37551712864903375
-0.6698780633849447
0.0593648541932426
-0.37551712864903375
-0.6698780633849447
0.0593648541932426
-0.37551712864903375
-0.6698780633849447
0.0593648541932426
-0.37551712864903375
-0.6695439986496303
0.057345539721967556
-0.37584399327902085
-0.6695439986496303
0.057345539721967556
-0.37584399327902085
-0.6695439986496303
0.057345539721967556
-0.37584399327902085
-0.6695439986496303
0.057345539721967556
-0.37584399327902085
-0.6664708582865588
0.05592661807510236
-0.37545231813450425
-0.6664708582865588
0.05592661807510236
-0.37545231813450425
-0.6664708582865588
0.05592661807510236
-0.37545231813450425
-0.6664708582865588
0.05592661807510236
-0.37545231813450425
-0.6654097783323518
0.05471178329222045
-0.3753118446536674
-0.6654097783323518
0.05471178329222045
-0.3753118446536674
-0.6654097783323518
0.05471178329222045
-0.3753118446536674
-0.6654097783323518
0.05471178329222045
-0.3753118446536674
-0.6665718156072203
0.05343253843166404
-0.37497299925052824
-0.6665718156072203
0.05343253843166404
-0.37497299925052824
-0.6665718156072203
0.05343253843166404
-0.37497299925052824
-0.6665718156072203
0.05343253843166404
-0.37497299925052824
-0.6674215995675046
0.052288011584267054
-0.37517892234941236
-0.6674215995675046
0.052288011584267054
-0.37517892234941236
-0.6674215995675046
0.052288011584267054
-0.37517892234941236
-0.6674215995675046
0.052288011584267054
-0.37517892234941236
-0.6671226495301408
0.052455968887609616
-0.3759914703823841
-0.6671226495301408
0.052455968887609616
-0.3759914703823841
-0.6671226495301408
0.052455968887609616
-0.3759914703823841
-0.6671226495301408
0.052455968887609616
-0.3759914703823841
-0.6663362960173198
0.053623630328653846
-0.37645387435658995
-0.6663362960173198
0.053623630328653846
-0.37645387435658995
-0.6663362960173198
0.053623630328653846
-0.37645387435658995
-0.6663362960173198
0.053623630328653846
-0.37645387435658995
-0.6654915830609177
0.05539637343474233
-0.37633690794839414
-0.6654915830609177
0.05539637343474233
-0.37633690794839414
-0.6654915830609177
0.05539637343474233
-0.37633690794839414
-0.6654915830609177
0.05539637343474233
-0.37633690794839414
-0.6659847216808685
0.05746295731958485
-0.37698622566338663
-0.6659847216808685
0.05746295731958485
-0.37698622566338663
-0.6659847216808685
0.05746295731958485
-0.37698622566338663
-0.6659847216808685
0.05746295731958485
-0.37698622566338663
-0.6674732922858652
0.059326364050811646
-0.3792175255733594
-0.6674732922858652
0.059326364050811646
-0.3792175255733594
-0.6674732922858652
0.059326364050811646
-0.3792175255733594
-0.6674732922858652
0.059326364050811646
-0.3792175255733594
-0.6670421105767432
0.06084660836669022
-0.3823428875367086
-0.6670421105767432
0.06084660836669022
-0.3823428875367086
-0.6670421105767432
0.06084660836669022
-0.3823428875367086
-0.6670421105767432
0.06084660836669022
-0.3823428875367086
-0.6666274977962341
0.06303590483100001
-0.38544553358375466
-0.6666274977962341
0.06303590483100001
-0.38544553358375466
-0.6666274977962341
0.06303590483100001
-0.38544553358375466
-0.6666274977962341
0.06303590483100001
-0.38544553358375466
-0.6671242026224651
0.06551785141483044
-0.38913377175245023
-0.6671242026224651
0.06551785141483044
-0.38913377175245023
-0.6671242026224651
0.06551785141483044
-0.38913377175245023
-0.6671242026224651
0.06551785141483044
-0.38913377175245023
-0.6700980798299351
0.0672576572062309
-0.3943753834240076
-0.6700980798299351
0.0672576572062309
-0.3943753834240076
-0.6700980798299351
0.0672576572062309
-0.3943753834240076
-0.6700980798299351
0.0672576572062309
-0.3943753834240076
-0.6758715269259807
0.06937403065213117
-0.40351349659244334
-0.6758715269259807
0.06937403065213117
-0.40351349659244334
-0.6758715269259807
0.06937403065213117
-0.40351349659244334
-0.6758715269259807
0.06937403065213117
-0.40351349659244334
-0.6858676316867041
0.07180256095944125
-0.4141802351546024
-0.6858676316867041
0.07180256095944125
-0.4141802351546024
-0.6858676316867041
0.07180256095944125
-0.4141802351546024
-0.6858676316867041
0.07180256095944125
-0.4141802351546024
-0.7024263175227428
0.07388156433829428
-0.4263624110571685
-0.7024263175227428
0.07388156433829428
-0.4263624110571685
-0.7024263175227428
0.07388156433829428
-0.4263624110571685
-0.7024263175227428
0.07388156433829428
-0.4263624110571685
-0.7162750119883147
0.07496270162600598
-0.4379758519041526
-0.7162750119883147
0.07496270162600598
-0.4379758519041526
-0.7162750119883147
0.07496270162600598
-0.4379758519041526
-0.7162750119883147
0.07496270162600598
-0.4379758519041526
-0.7263965364394768
0.07548888450816243
-0.4478129597195806
-0.7263965364394768
0.07548888450816243
-0.4478129597195806
-0.7263965364394768
0.07548888450816243
-0.4478129597195806
-0.7263965364394768
0.07548888450816243
-0.4478129597195806
-0.7330863976047943
0.07639593895621713
-0.4555657204670625
-0.7330863976047943
0.07639593895621713
-0.4555657204670625
-0.7330863976047943
0.07639593895621713
-0.4555657204670625
-0.7330863976047943
0.07639593895621713
-0.4555657204670625
-0.7375858791740804
0.07618215898816769
-0.46099753670826227
-0.7375858791740804
0.07618215898816769
-0.46099753670826227
-0.7375858791740804
0.07618215898816769
-0.46099753670826227
-0.7375858791740804
0.07618215898816769
-0.46099753670826227
-0.7422339408021352
0.07456505015881276
-0.4615042486214867
-0.7422339408021352
0.07456505015881276
-0.4615042486214867
-0.7422339408021352
0.07456505015881276
-0.4615042486214867
-0.7422339408021352
0.07456505015881276
-0.4615042486214867
-0.747437459223425
0.07066053127946464
-0.45845453681737947
-0.747437459223425
0.07066053127946464
-0.45845453681737947
-0.747437459223425
0.07066053127946464
-0.45845453681737947
-0.747437459223425
0.07066053127946464
-0.45845453681737947
-0.7436590064603751
0.06737971116281903
-0.4515932311676956
-0.7436590064603751
0.06737971116281903
-0.4515932311676956
-0.7436590064603751
0.06737971116281903
-0.4515932311676956
-0.7436590064603751
0.06737971116281903
-0.4515932311676956
-0.739470672795203
0.07090935026155129
-0.44468298858991684
-0.739470672795203
0.07090935026155129
-0.44468298858991684
-0.739470672795203
0.07090935026155129
-0.44468298858991684
-0.739470672795203
0.07090935026155129
-0.44468298858991684
-0.7317707425177343
0.08010396598104878
-0.43893954948868386
-0.7317707425177343
0.08010396598104878
-0.43893954948868386
-0.7317707425177343
0.08010396598104878
-0.43893954948868386
-0.7317707425177343
0.08010396598104878
-0.43893954948868386
-0.729679343312715
0.09087986995957174
-0.43393387663926125
-0.729679343312715
0.09087986995957174
-0.43393387663926125
-0.729679343312715
0.09087986995957174
-0.43393387663926125
-0.729679343312715
0.09087986995957174
-0.43393387663926125
-0.7291793315527965
0.09635598187112748
-0.42958922121645504
-0.7291793315527965
0.09635598187112748
-0.42958922121645504
-0.7291793315527965
0.09635598187112748
-0.42958922121645504
-0.7291793315527965
0.09635598187112748
-0.42958922121645504
-0.7322158603871507
0.09336149803745264
-0.4262958374988193
-0.7322158603871507
0.09336149803745264
-0.4262958374988193
-0.7322158603871507
0.09336149803745264
-0.4262958374988193
-0.7322158603871507
0.09336149803745264
-0.4262958374988193
-0.7350109241736672
0.085614067765306
-0.4236101897797845
-0.7350109241736672
0.085614067765306
-0.4236101897797845
-0.7350109241736672
0.085614067765306
-0.4236101897797845
-0.7350109241736672
0.085614067765306
-0.4236101897797845
-0.7348452119746635
0.07881616306034875
-0.422111944160801
-0.7348452119746635
0.07881616306034875
-0.422111944160801
-0.7348452119746635
0.07881616306034875
-0.422111944160801
-0.7348452119746635
0.07881616306034875
-0.422111944160801
-0.7344845371692674
0.07740195079773166
-0.42178214972423866
-0.7344845371692674
0.07740195079773166
-0.42178214972423866
-0.7344845371692674
0.07740195079773166
-0.42178214972423866
-0.7344845371692674
0.07740195079773166
-0.42178214972423866
-0.7360151215070672
0.08140298584926806
-0.42246960404670486
-0.7360151215070672
0.08140298584926806
-0.42246960404670486
-0.7360151215070672
0.08140298584926806
-0.42246960404670486
-0.7360151215070672
0.08140298584926806
-0.42246960404670486
-0.7375049691161669
0.08616062883532943
-0.42440474080966
-0.7375049691161669
0.08616062883532943
-0.42440474080966
-0.7375049691161669
0.08616062883532943
-0.42440474080966
-0.7375049691161669
0.08616062883532943
-0.42440474080966
-0.7377716624990324
0.08876083478240564
-0.4262465973035134
-0.7377716624990324
0.08876083478240564
-0.4262465973035134
-0.7377716624990324
0.08876083478240564
-0.4262465973035134
-0.7377716624990324
0.08876083478240564
-0.4262465973035134
-0.7351579779870635
0.08904795344883522
-0.42722679589132195
-0.7351579779870635
0.08904795344883522
-0.42722679589132195
-0.7351579779870635
0.08904795344883522
-0.42722679589132195
-0.7351579779870635
0.08904795344883522
-0.42722679589132195
-0.7330561423327248
0.08745919089583645
-0.42689411989369397
-0.7330561423327248
0.08745919089583645
-0.42689411989369397
-0.7330561423327248
0.08745919089583645
-0.42689411989369397
-0.7330561423327248
0.08745919089583645
-0.42689411989369397
-0.7338455510779734
0.08615627526758522
-0.42632941270664
-0.7338455510779734
0.08615627526758522
-0.42632941270664
-0.7338455510779734
0.08615627526758522
-0.42632941270664
-0.7338455510779734
0.08615627526758522
-0.42632941270664
-0.735674468764884
0.08706271567072127
-0.42651244140019295
-0.735674468764884
0.08706271567072127
-0.42651244140019295
-0.735674468764884
0.08706271567072127
-0.42651244140019295
-0.735674468764884
0.08706271567072127
-0.42651244140019295
-0.7350162409656802
0.088919286879083
-0.42729832376355475
-0.7350162409656802
0.088919286879083
-0.42729832376355475
-0.7350162409656802
0.088919286879083
-0.42729832376355475
-0.7350162409656802
0.088919286879083
-0.42729832376355475
-0.73445140677952
0.08987962457667666
-0.4282814646759238
-0.73445140677952
0.08987962457667666
-0.4282814646759238
-0.73445140677952
0.08987962457667666
-0.4282814646759238
-0.73445140677952
0.08987962457667666
-0.4282814646759238
-0.7335590155722044
0.08951767574517111
-0.4293540760222945
-0.7335590155722044
0.08951767574517111
-0.4293540760222945
-0.7335590155722044
0.08951767574517111
-0.4293540760222945
-0.7335590155722044
0.08951767574517111
-0.4293540760222945
-0.7344802215392341
0.0884530558067132
-0.4302491090727346
-0.7344802215392341
0.0884530558067132
-0.4302491090727346
-0.7344802215392341
0.0884530558067132
-0.4302491090727346
-0.7344802215392341
0.0884530558067132
-0.4302491090727346
-0.7368862387382401
0.08801436218368759
-0.4311782819454158
-0.7368862387382401
0.08801436218368759
-0.4311782819454158
-0.7368862387382401
0.08801436218368759
-0.4311782819454158
-0.7368862387382401
0.08801436218368759
-0.4311782819454158
-0.738424487333478
0.08827948498601111
-0.43215606678758034
-0.738424487333478
0.08827948498601111
-0.43215606678758034
-0.738424487333478
0.08827948498601111
-0.43215606678758034
-0.738424487333478
0.08827948498601111
-0.43215606678758034
-0.73951792812905
0.08959072026356671
-0.4330811547777361
-0.73951792812905
0.08959072026356671
-0.4330811547777361
-0.73951792812905
0.08959072026356671
-0.4330811547777361
-0.73951792812905
0.08959072026356671
-0.4330811547777361
-0.7390411320052014
0.09070497311786367
-0.43359139700532406
-0.7390411320052014
0.09070497311786367
-0.43359139700532406
-0.7390411320052014
0.09070497311786367
-0.43359139700532406
-0.7390411320052014
0.09070497311786367
-0.43359139700532406
-0.7381434492117105
0.091257065631457
-0.43370663920787633
-0.7381434492117105
0.091257065631457
-0.43370663920787633
-0.7381434492117105
0.091257065631457
-0.43370663920787633
-0.7381434492117105
0.091257065631457
-0.43370663920787633
-0.7384275361929813
0.09151364719807667
-0.4335641795750277
-0.7384275361929813
0.09151364719807667
-0.4335641795750277
-0.7384275361929813
0.09151364719807667
-0.4335641795750277
-0.7384275361929813
0.09151364719807667
-0.4335641795750277
-0.7395594951531314
0.09193000243392987
-0.43296399449429235
-0.7395594951531314
0.09193000243392987
-0.43296399449429235
-0.7395594951531314
0.09193000243392987
-0.43296399449429235
-0.7395594951531314
0.09193000243392987
-0.43296399449429235
-0.7409040975676559
0.09271881469113888
-0.4326486494096094
-0.7409040975676559
0.09271881469113888
-0.4326486494096094
-0.7409040975676559
0.09271881469113888
-0.4326486494096094
-0.7409040975676559
0.09271881469113888
-0.4326486494096094
-0.7412713626364629
0.09408562304080305
-0.4330976784326707
-0.7412713626364629
0.09408562304080305
-0.4330976784326707
-0.7412713626364629
0.09408562304080305
-0.4330976784326707
-0.7412713626364629
0.09408562304080305
-0.4330976784326707
-0.7400659820562866
0.09576909675957987
-0.4331979401308405
-0.7400659820562866
0.09576909675957987
-0.4331979401308405
-0.7400659820562866
0.09576909675957987
-0.4331979401308405
-0.7400659820562866
0.09576909675957987
-0.4331979401308405
-0.7381463019369654
0.09654557525771858
-0.43326424163568106
-0.7381463019369654
0.09654557525771858
-0.43326424163568106
-0.7381463019369654
0.09654557525771858
-0.43326424163568106
-0.7381463019369654
0.09654557525771858
-0.43326424163568106
-0.7376099725622545
0.09558954229351632
-0.43319803706144017
-0.7376099725622545
0.09558954229351632
-0.43319803706144017
-0.7376099725622545
0.09558954229351632
-0.43319803706144017
-0.7376099725622545
0.09558954229351632
-0.43319803706144017
-0.7382873782052013
0.0937730341519657
-0.43337920947541764
-0.7382873782052013
0.0937730341519657
-0.43337920947541764
-0.7382873782052013
0.0937730341519657
-0.43337920947541764
-0.7382873782052013
0.0937730341519657
-0.43337920947541764
-0.7393680309308175
0.09249628391456743
-0.43368753545845157
-0.7393680309308175
0.09249628391456743
-0.43368753545845157
-0.7393680309308175
0.09249628391456743
-0.43368753545845157
-0.7393680309308175
0.09249628391456743
-0.43368753545845157
-0.7402301558986528
0.09167467524124867
-0.43467388620402914
-0.7402301558986528
0.09167467524124867
-0.43467388620402914
-0.7402301558986528
0.09167467524124867
-0.43467388620402914
-0.7402301558986528
0.09167467524124867
-0.43467388620402914
-0.7395549380762215
0.0910779149404304
-0.435562500749243
-0.7395549380762215
0.0910779149404304
-0.435562500749243
-0.7395549380762215
0.0910779149404304
-0.435562500749243
-0.7395549380762215
0.0910779149404304
-0.435562500749243
-0.7384086623481823
0.09039330085928766
-0.4362121425684307
-0.7384086623481823
0.09039330085928766
-0.4362121425684307
-0.7384086623481823
0.09039330085928766
-0.4362121425684307
-0.7384086623481823
0.09039330085928766
-0.4362121425684307
-0.7381954357811763
0.08964601870013009
-0.436142129285551
-0.7381954357811763
0.08964601870013009
-0.436142129285551
-0.7381954357811763
0.08964601870013009
-0.436142129285551
-0.7381954357811763
0.08964601870013009
-0.436142129285551
-0.7392303503652544
0.08903943424164612
-0.43578166725420153
-0.7392303503652544
0.08903943424164612
-0.43578166725420153
-0.7392303503652544
0.08903943424164612
-0.43578166725420153
-0.7392303503652544
0.08903943424164612
-0.43578166725420153
-0.7400568657301597
0.08875607134816137
-0.4353808850034115
-0.7400568657301597
0.08875607134816137
-0.4353808850034115
-0.7400568657301597
0.08875607134816137
-0.4353808850034115
-0.7400568657301597
0.08875607134816137
-0.4353808850034115
-0.7396397304147345
0.08888878672270596
-0.43523052379637794
-0.7396397304147345
0.08888878672270596
-0.43523052379637794
-0.7396397304147345
0.08888878672270596
-0.43523052379637794
-0.7396397304147345
0.08888878672270596
-0.43523052379637794
-0.7390620724633358
0.08960523870748173
-0.4354528748217388
-0.7390620724633358
0.08960523870748173
-0.4354528748217388
-0.7390620724633358
0.08960523870748173
-0.4354528748217388
-0.7390620724633358
0.08960523870748173
-0.4354528748217388
-0.7385291237630546
0.09074636319488164
-0.4355588787783821
-0.7385291237630546
0.09074636319488164
-0.4355588787783821
-0.7385291237630546
0.09074636319488164
-0.4355588787783821
-0.7385291237630546
0.09074636319488164
-0.4355588787783821
-0.7384579727109233
0.09137488489997436
-0.4360555984779515
-0.7384579727109233
0.09137488489997436
-0.4360555984779515
-0.7384579727109233
0.09137488489997436
-0.4360555984779515
-0.7384579727109233
0.09137488489997436
-0.4360555984779515
-0.7384578836483343
0.09159652581558199
-0.4365527581183469
-0.7384578836483343
0.09159652581558199
-0.4365527581183469
-0.7384578836483343
0.09159652581558199
-0.4365527581183469
-0.7384578836483343
0.09159652581558199
-0.4365527581183469
-0.7388312971599211
0.09220277472722277
-0.43724497430173387
-0.7388312971599211
0.09220277472722277
-0.43724497430173387
-0.7388312971599211
0.09220277472722277
-0.43724497430173387
-0.7388312971599211
0.09220277472722277
-0.43724497430173387
-0.7394128391991013
0.0919726785803666
-0.43790691836134465
-0.7394128391991013
0.0919726785803666
-0.43790691836134465
-0.7394128391991013
0.0919726785803666
-0.43790691836134465
-0.7394128391991013
0.0919726785803666
-0.43790691836134465
-0.7395457069473453
0.09172076113657869
-0.4384842943123304
-0.7395457069473453
0.09172076113657869
-0.4384842943123304
-0.7395457069473453
0.09172076113657869
-0.4384842943123304
-0.7395457069473453
0.09172076113657869
-0.4384842943123304
-0.7397411611193832
0.0917781497239343
-0.43892829547881895
-0.7397411611193832
0.0917781497239343
-0.43892829547881895
-0.7397411611193832
0.0917781497239343
-0.43892829547881895
-0.7397411611193832
0.0917781497239343
-0.43892829547881895
-0.7397680045617678
0.09188867641887272
-0.4389726443603018
-0.7397680045617678
0.09188867641887272
-0.4389726443603018
-0.7397680045617678
0.09188867641887272
-0.4389726443603018
-0.7397680045617678
0.09188867641887272
-0.4389726443603018
-0.7396570086121669
0.09191540981412247
-0.4389771581738704
-0.7396570086121669
0.09191540981412247
-0.4389771581738704
-0.7396570086121669
0.09191540981412247
-0.4389771581738704
-0.7396570086121669
0.09191540981412247
-0.4389771581738704
-0.7397411611193832
0.0917781497239343
-0.43892829547881895
-0.7397411611193832
0.0917781497239343
-0.43892829547881895
-0.7397411611193832
0.0917781497239343
-0.43892829547881895
-0.7397411611193832
0.0917781497239343
-0.43892829547881895
-0.7397411611193832
0.0917781497239343
-0.43892829547881895
-0.7397411611193832
0.0917781497239343
-0.43892829547881895
-0.7397411611193832
0.0917781497239343
-0.43892829547881895
-0.7397411611193832
0.0917781497239343
-0.43892829547881895
-0.7400702176705958
0.09202959488065228
-0.4388128386427724
-0.7400702176705958
0.09202959488065228
-0.4388128386427724
-0.7400702176705958
0.09202959488065228
-0.4388128386427724
-0.7400702176705958
0.09202959488065228
-0.4388128386427724
-0.7403646758097624
0.09288695726371642
-0.4385197103293674
-0.7403646758097624
0.09288695726371642
-0.4385197103293674
-0.7403646758097624
0.09288695726371642
-0.4385197103293674
-0.7403646758097624
0.09288695726371642
-0.4385197103293674
-0.7403872861031591
0.09324504043920749
-0.4382487031993599
-0.7403872861031591
0.09324504043920749
-0.4382487031993599
-0.7403872861031591
0.09324504043920749
-0.4382487031993599
-0.7403872861031591
0.09324504043920749
-0.4382487031993599
-0.7403781618039704
0.09331138709179393
-0.4377603019663433
-0.7403781618039704
0.09331138709179393
-0.4377603019663433
-0.7403781618039704
0.09331138709179393
-0.4377603019663433
-0.7403781618039704
0.09331138709179393
-0.4377603019663433
-0.7405598312044781
0.09316964389230878
-0.4373296187916522
-0.7405598312044781
0.09316964389230878
-0.4373296187916522
-0.7405598312044781
0.09316964389230878
-0.4373296187916522
-0.7405598312044781
0.09316964389230878
-0.4373296187916522
-0.7409679920364665
0.0930189451266006
-0.4367790652456863
-0.7409679920364665
0.0930189451266006
-0.4367790652456863
-0.7409679920364665
0.0930189451266006
-0.4367790652456863
-0.7409679920364665
0.0930189451266006
-0.4367790652456863
-0.7409368187296804
0.0928641767331008
-0.4368456285538152
-0.7409368187296804
0.0928641767331008
-0.4368456285538152
-0.7409368187296804
0.0928641767331008
-0.4368456285538152
-0.7409368187296804
0.0928641767331008
-0.4368456285538152
-0.7410210725732617
0.09272702486656507
-0.4367967584213677
-0.7410210725732617
0.09272702486656507
-0.4367967584213677
-0.7410210725732617
0.09272702486656507
-0.4367967584213677
-0.7410210725732617
0.09272702486656507
-0.4367967584213677
-0.7409100725603065
0.09275365286630674
-0.4368011941885496
-0.7409100725603065
0.09275365286630674
-0.4368011941885496
-0.7409100725603065
0.09275365286630674
-0.4368011941885496
-0.7409100725603065
0.09275365286630674
-0.4368011941885496
-0.7405898112753126
0.09207727633591115
-0.4366234040579196
-0.7405898112753126
0.09207727633591115
-0.4366234040579196
-0.7405898112753126
0.09207727633591115
-0.4366234040579196
-0.7405898112753126
0.09207727633591115
-0.4366234040579196
-0.7403940204358451
0.09099387221639212
-0.43603729275326175
-0.7403940204358451
0.09099387221639212
-0.43603729275326175
-0.7403940204358451
0.09099387221639212
-0.43603729275326175
-0.7403940204358451
0.09099387221639212
-0.43603729275326175
-0.7404475361175504
0.08996791855392078
-0.43548669613819485
-0.7404475361175504
0.08996791855392078
-0.43548669613819485
-0.7404475361175504
0.08996791855392078
-0.43548669613819485
-0.7404475361175504
0.08996791855392078
-0.43548669613819485
-0.7403152884757966
0.08919390075658297
-0.4347676221663854
-0.7403152884757966
0.08919390075658297
-0.4347676221663854
-0.7403152884757966
0.08919390075658297
-0.4347676221663854
-0.7403152884757966
0.08919390075658297
-0.4347676221663854
-0.7403915603880736
0.08912298780660319
-0.4342302021502154
-0.7403915603880736
0.08912298780660319
-0.4342302021502154
-0.7403915603880736
0.08912298780660319
-0.4342302021502154
-0.7403915603880736
0.08912298780660319
-0.4342302021502154
-0.7403472079054195
0.08912754094200728
-0.4342036861656781
-0.7403472079054195
0.08912754094200728
-0.4342036861656781
-0.7403472079054195
0.08912754094200728
-0.4342036861656781
-0.7403472079054195
0.08912754094200728
-0.4342036861656781
-0.7395691824379422
0.08996295857733078
-0.4345905811209625
-0.7395691824379422
0.08996295857733078
-0.4345905811209625
-0.7395691824379422
0.08996295857733078
-0.4345905811209625
-0.7395691824379422
0.08996295857733078
-0.4345905811209625
-0.7386138244693798
0.09090068459984145
-0.4350835138139735
-0.7386138244693798
0.09090068459984145
-0.4350835138139735
-0.7386138244693798
0.09090068459984145
-0.4350835138139735
-0.7386138244693798
0.09090068459984145
-0.4350835138139735
-0.7375077031122803
0.09148501916748114
-0.4355850053756969
-0.7375077031122803
0.09148501916748114
-0.4355850053756969
-0.7375077031122803
0.09148501916748114
-0.4355850053756969
-0.7375077031122803
0.09148501916748114
-0.4355850053756969
-0.7363530913554687
0.0915172277671518
-0.4361003524693845
-0.7363530913554687
0.0915172277671518
-0.4361003524693845
-0.7363530913554687
0.0915172277671518
-0.4361003524693845
-0.7363530913554687
0.0915172277671518
-0.4361003524693845
-0.7357702181804493
0.09058243012484055
-0.43714638018000174
