-0.5608069745152275
0.07684758869101255
-0.553630956841872
-0.5608069745152275
0.07684758869101255
-0.553630956841872
-0.5608069745152275
0.07684758869101255
-0.553630956841872
-0.5608069745152275
0.07684758869101255
-0.553630956841872
-0.5608069745152275
0.07684758869101255
-0.553630956841872
-0.5608069745152275
0.07684758869101255
-0.553630956841872
-0.5614859146142748
0.07700228479631264
-0.5533692670210777
-0.5614859146142748
0.07700228479631264
-0.5533692670210777
-0.5614859146142748
0.07700228479631264
-0.5533692670210777
-0.5614859146142748
0.07700228479631264
-0.5533692670210777
-0.5614859146142748
0.07700228479631264
-0.5533692670210777
-0.5614859146142748
0.07700228479631264
-0.5533692670210777
-0.5614859146142748
0.07700228479631264
-0.5533692670210777
-0.5614859146142748
0.07700228479631264
-0.5533692670210777
-0.5614859146142748
0.07700228479631264
-0.5533692670210777
-0.5614859146142748
0.07700228479631264
-0.5533692670210777
-0.5614859146142748
0.07700228479631264
-0.5533692670210777
-0.5614859146142748
0.07700228479631264
-0.5533692670210777
-0.5609677829505592
0.07702784681626126
-0.5533216609267828
-0.5609677829505592
0.07702784681626126
-0.5533216609267828
-0.5609677829505592
0.07702784681626126
-0.5533216609267828
-0.5609677829505592
0.07702784681626126
-0.5533216609267828
-0.5609677829505592
0.07702784681626126
-0.5533216609267828
-0.5609677829505592
0.07702784681626126
-0.5533216609267828
-0.5609677829505592
0.07702784681626126
-0.5533216609267828
-0.5609677829505592
0.07702784681626126
-0.5533216609267828
-0.5609677829505592
0.07702784681626126
-0.5533216609267828
-0.5609677829505592
0.07702784681626126
-0.5533216609267828
-0.5609677829505592
0.07702784681626126
-0.5533216609267828
-0.5609677829505592
0.07702784681626126
-0.5533216609267828
-0.5609677829505592
0.07702784681626126
-0.5533216609267828
-0.5609677829505592
0.07702784681626126
-0.5533216609267828
-0.5609677829505592
0.07702784681626126
-0.5533216609267828
-0.5609677829505592
0.07702784681626126
-0.5533216609267828
-0.5610011526496579
0.077140249683079
-0.5533554803140265
-0.5610011526496579
0.077140249683079
-0.5533554803140265
-0.5610011526496579
0.077140249683079
-0.5533554803140265
-0.5610011526496579
0.077140249683079
-0.5533554803140265
-0.5610011526496579
0.077140249683079
-0.5533554803140265
-0.5610011526496579
0.077140249683079
-0.5533554803140265
-0.5610011526496579
0.077140249683079
-0.5533554803140265
-0.5610011526496579
0.077140249683079
-0.5533554803140265
-0.5611138876266049
0.07710697819520487
-0.5533505907353049
-0.5611138876266049
0.07710697819520487
-0.5533505907353049
-0.5611138876266049
0.07710697819520487
-0.5533505907353049
-0.5611138876266049
0.07710697819520487
-0.5533505907353049
-0.5611138876266049
0.07710697819520487
-0.5533505907353049
-0.5611138876266049
0.07710697819520487
-0.5533505907353049
-0.5611138876266049
0.07710697819520487
-0.5533505907353049
-0.5611138876266049
0.07710697819520487
-0.5533505907353049
-0.5611138876266049
0.07710697819520487
-0.5533505907353049
-0.5611138876266049
0.07710697819520487
-0.5533505907353049
-0.5611138876266049
0.07710697819520487
-0.5533505907353049
-0.5611138876266049
0.07710697819520487
-0.5533505907353049
-0.5612266189534165
0.07707370829701883
-0.5533456975601535
-0.5612266189534165
0.07707370829701883
-0.5533456975601535
-0.5612266189534165
0.07707370829701883
-0.5533456975601535
-0.5612266189534165
0.07707370829701883
-0.5533456975601535
-0.5612266189534165
0.07707370829701883
-0.5533456975601535
-0.5612266189534165
0.07707370829701883
-0.5533456975601535
-0.5612266189534165
0.07707370829701883
-0.5533456975601535
-0.5612266189534165
0.07707370829701883
-0.5533456975601535
-0.5612266189534165
0.07707370829701883
-0.5533456975601535
-0.5612266189534165
0.07707370829701883
-0.5533456975601535
-0.5612266189534165
0.07707370829701883
-0.5533456975601535
-0.5612266189534165
0.07707370829701883
-0.5533456975601535
-0.5619629598580276
0.07726851206636294
-0.5533767975994014
-0.5619629598580276
0.07726851206636294
-0.5533767975994014
-0.5619629598580276
0.07726851206636294
-0.5533767975994014
-0.5619629598580276
0.07726851206636294
-0.5533767975994014
-0.56245262321681
0.07716433705715861
-0.5532778360791804
-0.56245262321681
0.07716433705715861
-0.5532778360791804
-0.56245262321681
0.07716433705715861
-0.5532778360791804
-0.56245262321681
0.07716433705715861
-0.5532778360791804
-0.5625987002918108
0.0772434472112699
-0.5533068358361011
-0.5625987002918108
0.0772434472112699
-0.5533068358361011
-0.5625987002918108
0.0772434472112699
-0.5533068358361011
-0.5625987002918108
0.0772434472112699
-0.5533068358361011
-0.5632295041127288
0.07718458151521577
-0.5533495562527782
-0.5632295041127288
0.07718458151521577
-0.5533495562527782
-0.5632295041127288
0.07718458151521577
-0.5533495562527782
-0.5632295041127288
0.07718458151521577
-0.5533495562527782
-0.5636781099284565
0.07737232059614317
-0.5532106959468731
-0.5636781099284565
0.07737232059614317
-0.5532106959468731
-0.5636781099284565
0.07737232059614317
-0.5532106959468731
-0.5636781099284565
0.07737232059614317
-0.5532106959468731
-0.5643428989148355
0.077308541198266
-0.5532867894734655
-0.5643428989148355
0.077308541198266
-0.5532867894734655
-0.5643428989148355
0.077308541198266
-0.5532867894734655
-0.5643428989148355
0.077308541198266
-0.5532867894734655
-0.5649403083427529
0.07713730794474503
-0.5532954361116977
-0.5649403083427529
0.07713730794474503
-0.5532954361116977
-0.5649403083427529
0.07713730794474503
-0.5532954361116977
-0.5649403083427529
0.07713730794474503
-0.5532954361116977
-0.565638477230922
0.07718577012998495
-0.5534054944554219
-0.565638477230922
0.07718577012998495
-0.5534054944554219
-0.565638477230922
0.07718577012998495
-0.5534054944554219
-0.565638477230922
0.07718577012998495
-0.5534054944554219
-0.5664201750166744
0.0772398749813254
-0.5533646088730255
-0.5664201750166744
0.0772398749813254
-0.5533646088730255
-0.5664201750166744
0.0772398749813254
-0.5533646088730255
-0.5664201750166744
0.0772398749813254
-0.5533646088730255
-0.567053204623183
0.07765324152324524
-0.5531767882608496
-0.567053204623183
0.07765324152324524
-0.5531767882608496
-0.567053204623183
0.07765324152324524
-0.5531767882608496
-0.567053204623183
0.07765324152324524
-0.5531767882608496
-0.5675686203180219
0.07806588198363494
-0.5531067912455468
-0.5675686203180219
0.07806588198363494
-0.5531067912455468
-0.5675686203180219
0.07806588198363494
-0.5531067912455468
-0.5675686203180219
0.07806588198363494
-0.5531067912455468
-0.5681583664742779
0.0782988929459083
-0.553110449164984
-0.5681583664742779
0.0782988929459083
-0.553110449164984
-0.5681583664742779
0.0782988929459083
-0.553110449164984
-0.5681583664742779
0.0782988929459083
-0.553110449164984
-0.5686529840739287
0.07822926703768159
-0.5528987981372186
-0.5686529840739287
0.07822926703768159
-0.5528987981372186
-0.5686529840739287
0.07822926703768159
-0.5528987981372186
-0.5686529840739287
0.07822926703768159
-0.5528987981372186
-0.5691056705359689
0.0785689043662164
-0.552649006565333
-0.5691056705359689
0.0785689043662164
-0.552649006565333
-0.5691056705359689
0.0785689043662164
-0.552649006565333
-0.5691056705359689
0.0785689043662164
-0.552649006565333
-0.5691056705359689
0.0785689043662164
-0.552649006565333
-0.5691056705359689
0.0785689043662164
-0.552649006565333
-0.5691056705359689
0.0785689043662164
-0.552649006565333
-0.5691056705359689
0.0785689043662164
-0.552649006565333
-0.5691390100631629
0.07868116752471323
-0.5526833132345335
-0.5691390100631629
0.07868116752471323
-0.5526833132345335
-0.5691390100631629
0.07868116752471323
-0.5526833132345335
-0.5691390100631629
0.07868116752471323
-0.5526833132345335
-0.5691390100631629
0.07868116752471323
-0.5526833132345335
-0.5691390100631629
0.07868116752471323
-0.5526833132345335
-0.5691390100631629
0.07868116752471323
-0.5526833132345335
-0.5691390100631629
0.07868116752471323
-0.5526833132345335
-0.5691390100631629
0.07868116752471323
-0.5526833132345335
-0.5691390100631629
0.07868116752471323
-0.5526833132345335
-0.5691390100631629
0.07868116752471323
-0.5526833132345335
-0.5691390100631629
0.07868116752471323
-0.5526833132345335
-0.5696620266037743
0.07868978567950437
-0.5526186542783971
-0.5696620266037743
0.07868978567950437
-0.5526186542783971
-0.5696620266037743
0.07868978567950437
-0.5526186542783971
-0.5696620266037743
0.07868978567950437
-0.5526186542783971
-0.5705522439388124
0.07855954230048813
-0.5526850808579838
-0.5705522439388124
0.07855954230048813
-0.5526850808579838
-0.5705522439388124
0.07855954230048813
-0.5526850808579838
-0.5705522439388124
0.07855954230048813
-0.5526850808579838
-0.5705522439388124
0.07855954230048813
-0.5526850808579838
-0.5705522439388124
0.07855954230048813
-0.5526850808579838
-0.5705522439388124
0.07855954230048813
-0.5526850808579838
-0.5705522439388124
0.07855954230048813
-0.5526850808579838
-0.5705050407103947
0.07822728599886283
-0.5529874121510614
-0.5705050407103947
0.07822728599886283
-0.5529874121510614
-0.5705050407103947
0.07822728599886283
-0.5529874121510614
-0.5705050407103947
0.07822728599886283
-0.5529874121510614
-0.570471695166732
0.07811504581632515
-0.5529530368171247
-0.570471695166732
0.07811504581632515
-0.5529530368171247
-0.570471695166732
0.07811504581632515
-0.5529530368171247
-0.570471695166732
0.07811504581632515
-0.5529530368171247
-0.5703591084686139
0.07814828863649506
-0.5529580190537331
-0.5703591084686139
0.07814828863649506
-0.5529580190537331
-0.5703591084686139
0.07814828863649506
-0.5529580190537331
-0.5703591084686139
0.07814828863649506
-0.5529580190537331
-0.5703580856487563
0.07826549138093493
-0.5529590418735902
-0.5703580856487563
0.07826549138093493
-0.5529590418735902
-0.5703580856487563
0.07826549138093493
-0.5529590418735902
-0.5703580856487563
0.07826549138093493
-0.5529590418735902
-0.5707979383789226
0.07826806270458313
-0.5530451861347082
-0.5707979383789226
0.07826806270458313
-0.5530451861347082
-0.5707979383789226
0.07826806270458313
-0.5530451861347082
-0.5707979383789226
0.07826806270458313
-0.5530451861347082
-0.5709438671638228
0.07834704417275465
-0.5530746036583187
-0.5709438671638228
0.07834704417275465
-0.5530746036583187
-0.5709438671638228
0.07834704417275465
-0.5530746036583187
-0.5709438671638228
0.07834704417275465
-0.5530746036583187
-0.5708546967289163
0.0784239375656374
-0.5533391273869814
-0.5708546967289163
0.0784239375656374
-0.5533391273869814
-0.5708546967289163
0.0784239375656374
-0.5533391273869814
-0.5708546967289163
0.0784239375656374
-0.5533391273869814
-0.5708546967289163
0.0784239375656374
-0.5533391273869814
-0.5708546967289163
0.0784239375656374
-0.5533391273869814
-0.5708546967289163
0.0784239375656374
-0.5533391273869814
-0.5708546967289163
0.0784239375656374
-0.5533391273869814
-0.571586469929664
0.07858429363922709
-0.5534842253539171
-0.571586469929664
0.07858429363922709
-0.5534842253539171
-0.571586469929664
0.07858429363922709
-0.5534842253539171
-0.571586469929664
0.07858429363922709
-0.5534842253539171
-0.5723133013573224
0.07871016865646442
-0.5537419867674689
-0.5723133013573224
0.07871016865646442
-0.5537419867674689
-0.5723133013573224
0.07871016865646442
-0.5537419867674689
-0.5723133013573224
0.07871016865646442
-0.5537419867674689
-0.5723466969853863
0.07882235735333307
-0.5537764737358702
-0.5723466969853863
0.07882235735333307
-0.5537764737358702
-0.5723466969853863
0.07882235735333307
-0.5537764737358702
-0.5723466969853863
0.07882235735333307
-0.5537764737358702
-0.5730874200619013
0.07916844909125922
-0.5536979341196792
-0.5730874200619013
0.07916844909125922
-0.5536979341196792
-0.5730874200619013
0.07916844909125922
-0.5536979341196792
-0.5730874200619013
0.07916844909125922
-0.5536979341196792
-0.5732506263884353
0.07957772296828212
-0.5539820415181527
-0.5732506263884353
0.07957772296828212
-0.5539820415181527
-0.5732506263884353
0.07957772296828212
-0.5539820415181527
-0.5732506263884353
0.07957772296828212
-0.5539820415181527
-0.5728255557949489
0.0803445161224552
-0.5540335319005641
-0.5728255557949489
0.0803445161224552
-0.5540335319005641
-0.5728255557949489
0.0803445161224552
-0.5540335319005641
-0.5728255557949489
0.0803445161224552
-0.5540335319005641
-0.572815833657137
0.08118748492253372
-0.5539130268025698
-0.572815833657137
0.08118748492253372
-0.5539130268025698
-0.572815833657137
0.08118748492253372
-0.5539130268025698
-0.572815833657137
0.08118748492253372
-0.5539130268025698
-0.5731339564308959
0.08186153314143009
-0.5540030845292552
-0.5731339564308959
0.08186153314143009
-0.5540030845292552
-0.5731339564308959
0.08186153314143009
-0.5540030845292552
-0.5731339564308959
0.08186153314143009
-0.5540030845292552
-0.5731339564308959
0.08186153314143009
-0.5540030845292552
-0.5731339564308959
0.08186153314143009
-0.5540030845292552
-0.5731339564308959
0.08186153314143009
-0.5540030845292552
-0.5731339564308959
0.08186153314143009
-0.5540030845292552
-0.5726084779411051
0.08229187946024154
-0.553950332391789
-0.5726084779411051
0.08229187946024154
-0.553950332391789
-0.5726084779411051
0.08229187946024154
-0.553950332391789
-0.5726084779411051
0.08229187946024154
-0.553950332391789
-0.5703825823301165
0.08180982071244283
-0.5540674327688626
-0.5703825823301165
0.08180982071244283
-0.5540674327688626
-0.5703825823301165
0.08180982071244283
-0.5540674327688626
-0.5703825823301165
0.08180982071244283
-0.5540674327688626
-0.5672856553762203
0.07928714510826272
-0.5509513338019352
-0.5672856553762203
0.07928714510826272
-0.5509513338019352
-0.5672856553762203
0.07928714510826272
-0.5509513338019352
-0.5672856553762203
0.07928714510826272
-0.5509513338019352
-0.5663389013577769
0.07877354470111868
-0.5522347628145042
-0.5663389013577769
0.07877354470111868
-0.5522347628145042
-0.5663389013577769
0.07877354470111868
-0.5522347628145042
-0.5663389013577769
0.07877354470111868
-0.5522347628145042
-0.5767155757371318
0.07954397298223126
-0.5573283679538028
-0.5767155757371318
0.07954397298223126
-0.5573283679538028
-0.5767155757371318
0.07954397298223126
-0.5573283679538028
-0.5767155757371318
0.07954397298223126
-0.5573283679538028
-0.6070647147647469
0.07849003860855291
-0.5622750259134774
-0.6070647147647469
0.07849003860855291
-0.5622750259134774
-0.6070647147647469
0.07849003860855291
-0.5622750259134774
-0.6070647147647469
0.07849003860855291
-0.5622750259134774
-0.6677380771931496
0.07970046449773781
-0.5651283602704963
-0.6677380771931496
0.07970046449773781
-0.5651283602704963
-0.6677380771931496
0.07970046449773781
-0.5651283602704963
-0.6677380771931496
0.07970046449773781
-0.5651283602704963
-0.7636408707876843
0.08756500630272127
-0.5691373158354144
-0.7636408707876843
0.08756500630272127
-0.5691373158354144
-0.7636408707876843
0.08756500630272127
-0.5691373158354144
-0.7636408707876843
0.08756500630272127
-0.5691373158354144
-0.8615322405119733
0.09686815716497227
-0.5820243100368211
-0.8615322405119733
0.09686815716497227
-0.5820243100368211
-0.8615322405119733
0.09686815716497227
-0.5820243100368211
-0.8615322405119733
0.09686815716497227
-0.5820243100368211
-0.912603299981869
0.10590905651899658
-0.6002263388892883
-0.912603299981869
0.10590905651899658
-0.6002263388892883
-0.912603299981869
0.10590905651899658
-0.6002263388892883
-0.912603299981869
0.10590905651899658
-0.6002263388892883
-0.9206135490342866
0.11291149979510337
-0.6210426112260676
-0.9206135490342866
0.11291149979510337
-0.6210426112260676
-0.9206135490342866
0.11291149979510337
-0.6210426112260676
-0.9206135490342866
0.11291149979510337
-0.6210426112260676
-0.9259983940168617
0.11723223652749729
-0.6393783897118233
-0.9259983940168617
0.11723223652749729
-0.6393783897118233
-0.9259983940168617
0.11723223652749729
-0.6393783897118233
-0.9259983940168617
0.11723223652749729
-0.6393783897118233
-0.946572072333112
0.11802190302317617
-0.6501395395620779
-0.946572072333112
0.11802190302317617
-0.6501395395620779
-0.946572072333112
0.11802190302317617
-0.6501395395620779
-0.946572072333112
0.11802190302317617
-0.6501395395620779
-0.968659073201313
0.11786286129689852
-0.6569080046494511
-0.968659073201313
0.11786286129689852
-0.6569080046494511
-0.968659073201313
0.11786286129689852
-0.6569080046494511
-0.968659073201313
0.11786286129689852
-0.6569080046494511
-0.9834797301141308
0.11585793694773257
-0.6624167621514738
-0.9834797301141308
0.11585793694773257
-0.6624167621514738
-0.9834797301141308
0.11585793694773257
-0.6624167621514738
-0.9834797301141308
0.11585793694773257
-0.6624167621514738
-0.9928491825155712
0.1108130744771713
-0.6651987897498529
-0.9928491825155712
0.1108130744771713
-0.6651987897498529
-0.9928491825155712
0.1108130744771713
-0.6651987897498529
-0.9928491825155712
0.1108130744771713
-0.6651987897498529
-0.9938192432816242
0.10445838452385954
-0.6651069616927416
-0.9938192432816242
0.10445838452385954
-0.6651069616927416
-0.9938192432816242
0.10445838452385954
-0.6651069616927416
-0.9938192432816242
0.10445838452385954
-0.6651069616927416
-0.989660887851512
0.099541123245273
-0.6637465947275512
-0.989660887851512
0.099541123245273
-0.6637465947275512
-0.989660887851512
0.099541123245273
-0.6637465947275512
-0.989660887851512
0.099541123245273
-0.6637465947275512
-0.9851889992916154
0.09687747662529034
-0.6613685787995927
-0.9851889992916154
0.09687747662529034
-0.6613685787995927
-0.9851889992916154
0.09687747662529034
-0.6613685787995927
-0.9851889992916154
0.09687747662529034
-0.6613685787995927
-0.9808086785418837
0.09509669551074175
-0.6601390818336004
-0.9808086785418837
0.09509669551074175
-0.6601390818336004
-0.9808086785418837
0.09509669551074175
-0.6601390818336004
-0.9808086785418837
0.09509669551074175
-0.6601390818336004
-0.9752453065220839
0.09457741851943055
-0.6588749825639482
-0.9752453065220839
0.09457741851943055
-0.6588749825639482
-0.9752453065220839
0.09457741851943055
-0.6588749825639482
-0.9752453065220839
0.09457741851943055
-0.6588749825639482
-0.9688294020517874
0.09416418993574528
-0.6581981343982091
-0.9688294020517874
0.09416418993574528
-0.6581981343982091
-0.9688294020517874
0.09416418993574528
-0.6581981343982091
-0.9688294020517874
0.09416418993574528
-0.6581981343982091
-0.9628753368949758
0.09342204268523806
-0.6585086754391396
-0.9628753368949758
0.09342204268523806
-0.6585086754391396
-0.9628753368949758
0.09342204268523806
-0.6585086754391396
-0.9628753368949758
0.09342204268523806
-0.6585086754391396
-0.9586648627601905
0.09277653494822476
-0.6595279824510627
-0.9586648627601905
0.09277653494822476
-0.6595279824510627
-0.9586648627601905
0.09277653494822476
-0.6595279824510627
-0.9586648627601905
0.09277653494822476
-0.6595279824510627
-0.9547265722174109
0.09210136223629246
-0.6604585867462981
-0.9547265722174109
0.09210136223629246
-0.6604585867462981
-0.9547265722174109
0.09210136223629246
-0.6604585867462981
-0.9547265722174109
0.09210136223629246
-0.6604585867462981
-0.953783293936545
0.09254385454002065
-0.6605080777067157
-0.953783293936545
0.09254385454002065
-0.6605080777067157
-0.953783293936545
0.09254385454002065
-0.6605080777067157
-0.953783293936545
0.09254385454002065
-0.6605080777067157
-0.9528083758114322
0.09327841672933289
-0.6602300818838647
-0.9528083758114322
0.09327841672933289
-0.6602300818838647
-0.9528083758114322
0.09327841672933289
-0.6602300818838647
-0.9528083758114322
0.09327841672933289
-0.6602300818838647
-0.9515380351916907
0.09446820052759544
-0.6601688922723301
-0.9515380351916907
0.09446820052759544
-0.6601688922723301
-0.9515380351916907
0.09446820052759544
-0.6601688922723301
-0.9515380351916907
0.09446820052759544
-0.6601688922723301
-0.9485447731396285
0.09595480849516305
-0.6605617393883475
-0.9485447731396285
0.09595480849516305
-0.6605617393883475
-0.9485447731396285
0.09595480849516305
-0.6605617393883475
-0.9485447731396285
0.09595480849516305
-0.6605617393883475
-0.94521513545692
0.0979663225317638
-0.6610255804710099
-0.94521513545692
0.0979663225317638
-0.6610255804710099
-0.94521513545692
0.0979663225317638
-0.6610255804710099
-0.94521513545692
0.0979663225317638
-0.6610255804710099
-0.9407759192114816
0.09990115569169168
-0.661772436876148
-0.9407759192114816
0.09990115569169168
-0.661772436876148
-0.9407759192114816
0.09990115569169168
-0.661772436876148
-0.9407759192114816
0.09990115569169168
-0.661772436876148
-0.9362741161931222
0.10128006537779687
-0.662745776264825
-0.9362741161931222
0.10128006537779687
-0.662745776264825
-0.9362741161931222
0.10128006537779687
-0.662745776264825
-0.9362741161931222
0.10128006537779687
-0.662745776264825
-0.9337204539613992
0.10206430434662896
-0.6640372564355216
-0.9337204539613992
0.10206430434662896
-0.6640372564355216
-0.9337204539613992
0.10206430434662896
-0.6640372564355216
-0.9337204539613992
0.10206430434662896
-0.6640372564355216
-0.9344647588348951
0.10217081098127434
-0.6653889630426327
-0.9344647588348951
0.10217081098127434
-0.6653889630426327
-0.9344647588348951
0.10217081098127434
-0.6653889630426327
-0.9344647588348951
0.10217081098127434
-0.6653889630426327
-0.9356913190171761
0.10182748632220927
-0.6667992302318511
-0.9356913190171761
0.10182748632220927
-0.6667992302318511
-0.9356913190171761
0.10182748632220927
-0.6667992302318511
-0.9356913190171761
0.10182748632220927
-0.6667992302318511
-0.9354027965635543
0.10212100557812862
-0.6681864370528452
-0.9354027965635543
0.10212100557812862
-0.6681864370528452
-0.9354027965635543
0.10212100557812862
-0.6681864370528452
-0.9354027965635543
0.10212100557812862
-0.6681864370528452
-0.9333559537374713
0.10233039363571286
-0.6696897643459312
-0.9333559537374713
0.10233039363571286
-0.6696897643459312
-0.9333559537374713
0.10233039363571286
-0.6696897643459312
-0.9333559537374713
0.10233039363571286
-0.6696897643459312
-0.9320959893671547
0.1025540058035517
-0.6706808453295274
-0.9320959893671547
0.1025540058035517
-0.6706808453295274
-0.9320959893671547
0.1025540058035517
-0.6706808453295274
-0.9320959893671547
0.1025540058035517
-0.6706808453295274
-0.9330286823612562
0.10333238247643828
-0.6711282693165872
-0.9330286823612562
0.10333238247643828
-0.6711282693165872
-0.9330286823612562
0.10333238247643828
-0.6711282693165872
-0.9330286823612562
0.10333238247643828
-0.6711282693165872
-0.9334338487547487
0.10406813755337968
-0.6717396492926423
-0.9334338487547487
0.10406813755337968
-0.6717396492926423
-0.9334338487547487
0.10406813755337968
-0.6717396492926423
-0.9334338487547487
0.10406813755337968
-0.6717396492926423
-0.9326146218062963
0.1039093074295459
-0.6726484730516047
-0.9326146218062963
0.1039093074295459
-0.6726484730516047
-0.9326146218062963
0.1039093074295459
-0.6726484730516047
-0.9326146218062963
0.1039093074295459
-0.6726484730516047
-0.9325408512632499
0.10376903262360353
-0.6732660322516302
-0.9325408512632499
0.10376903262360353
-0.6732660322516302
-0.9325408512632499
0.10376903262360353
-0.6732660322516302
-0.9325408512632499
0.10376903262360353
-0.6732660322516302
-0.9329100295658389
0.10336715256207399
-0.6741663905445328
-0.9329100295658389
0.10336715256207399
-0.6741663905445328
-0.9329100295658389
0.10336715256207399
-0.6741663905445328
-0.9329100295658389
0.10336715256207399
-0.6741663905445328
-0.9325875552491153
0.10273058810672565
-0.6744756425376354
-0.9325875552491153
0.10273058810672565
-0.6744756425376354
-0.9325875552491153
0.10273058810672565
-0.6744756425376354
-0.9325875552491153
0.10273058810672565
-0.6744756425376354
-0.9325234823491465
0.1020038630057563
-0.6747980476479557
-0.9325234823491465
0.1020038630057563
-0.6747980476479557
-0.9325234823491465
0.1020038630057563
-0.6747980476479557
-0.9325234823491465
0.1020038630057563
-0.6747980476479557
-0.9321098613820573
0.10111027376321063
-0.6751023622629589
-0.9321098613820573
0.10111027376321063
-0.6751023622629589
-0.9321098613820573
0.10111027376321063
-0.6751023622629589
-0.9321098613820573
0.10111027376321063
-0.6751023622629589
-0.9310852324252403
0.10001773858006154
-0.6750122505371278
-0.9310852324252403
0.10001773858006154
-0.6750122505371278
-0.9310852324252403
0.10001773858006154
-0.6750122505371278
-0.9310852324252403
0.10001773858006154
-0.6750122505371278
-0.9304483171273823
0.09838543925543958
-0.6748900293156763
-0.9304483171273823
0.09838543925543958
-0.6748900293156763
-0.9304483171273823
0.09838543925543958
-0.6748900293156763
-0.9304483171273823
0.09838543925543958
-0.6748900293156763
-0.9300220048955403
0.09697937940545093
-0.675109611101723
-0.9300220048955403
0.09697937940545093
-0.675109611101723
-0.9300220048955403
0.09697937940545093
-0.675109611101723
-0.9300220048955403
0.09697937940545093
-0.675109611101723
-0.9296448946270499
0.09583908138670257
-0.6755541028596752
-0.9296448946270499
0.09583908138670257
-0.6755541028596752
-0.9296448946270499
0.09583908138670257
-0.6755541028596752
-0.9296448946270499
0.09583908138670257
-0.6755541028596752
-0.9292472783570833
0.09547131852982256
-0.6760377779127458
-0.9292472783570833
0.09547131852982256
-0.6760377779127458
-0.9292472783570833
0.09547131852982256
-0.6760377779127458
-0.9292472783570833
0.09547131852982256
-0.6760377779127458
-0.9285135371138903
0.09574140064332115
-0.67686696871648
-0.9285135371138903
0.09574140064332115
-0.67686696871648
-0.9285135371138903
0.09574140064332115
-0.67686696871648
-0.9285135371138903
0.09574140064332115
-0.67686696871648
-0.9278440949352873
0.09638881013927851
-0.6774566178401689
-0.9278440949352873
0.09638881013927851
-0.6774566178401689
-0.9278440949352873
0.09638881013927851
-0.6774566178401689
-0.9278440949352873
0.09638881013927851
-0.6774566178401689
-0.9266596569613377
0.09704963066977092
-0.6781086928994654
-0.9266596569613377
0.09704963066977092
-0.6781086928994654
-0.9266596569613377
0.09704963066977092
-0.6781086928994654
-0.9266596569613377
0.09704963066977092
-0.6781086928994654
-0.9250480502447606
0.09734086101386394
-0.6786364620995804
-0.9250480502447606
0.09734086101386394
-0.6786364620995804
-0.9250480502447606
0.09734086101386394
-0.6786364620995804
-0.9250480502447606
0.09734086101386394
-0.6786364620995804
-0.9225674660901441
0.09746740042482153
-0.6791186448683926
-0.9225674660901441
0.09746740042482153
-0.6791186448683926
-0.9225674660901441
0.09746740042482153
-0.6791186448683926
-0.9225674660901441
0.09746740042482153
-0.6791186448683926
-0.9208362343246547
0.09732984286852273
-0.6791226100802853
-0.9208362343246547
0.09732984286852273
-0.6791226100802853
-0.9208362343246547
0.09732984286852273
-0.6791226100802853
-0.9208362343246547
0.09732984286852273
-0.6791226100802853
-0.9199916352874299
0.09646064748763847
-0.6787723561933905
-0.9199916352874299
0.09646064748763847
-0.6787723561933905
-0.9199916352874299
0.09646064748763847
-0.6787723561933905
-0.9199916352874299
0.09646064748763847
-0.6787723561933905
-0.9200134348215363
0.09557627602063828
-0.6784643554532181
-0.9200134348215363
0.09557627602063828
-0.6784643554532181
-0.9200134348215363
0.09557627602063828
-0.6784643554532181
-0.9200134348215363
0.09557627602063828
-0.6784643554532181
-0.9201169714222971
0.09536942986949692
-0.6785397848202994
-0.9201169714222971
0.09536942986949692
-0.6785397848202994
-0.9201169714222971
0.09536942986949692
-0.6785397848202994
-0.9201169714222971
0.09536942986949692
-0.6785397848202994
-0.9201809464139338
0.095004209401751
-0.6789230807029307
-0.9201809464139338
0.095004209401751
-0.6789230807029307
-0.9201809464139338
0.095004209401751
-0.6789230807029307
-0.9201809464139338
0.095004209401751
-0.6789230807029307
-0.9195374420196435
0.09524355171021263
-0.6794797077987816
-0.9195374420196435
0.09524355171021263
-0.6794797077987816
-0.9195374420196435
0.09524355171021263
-0.6794797077987816
-0.9195374420196435
0.09524355171021263
-0.6794797077987816
-0.9197110963140063
0.09595400760239586
-0.6803160132531167
-0.9197110963140063
0.09595400760239586
-0.6803160132531167
-0.9197110963140063
0.09595400760239586
-0.6803160132531167
-0.9197110963140063
0.09595400760239586
-0.6803160132531167
-0.920673153580726
0.0964440592164541
-0.6810883235127451
-0.920673153580726
0.0964440592164541
-0.6810883235127451
-0.920673153580726
0.0964440592164541
-0.6810883235127451
-0.920673153580726
0.0964440592164541
-0.6810883235127451
-0.9217751597923943
0.09664762380569991
-0.6819867113383087
-0.9217751597923943
0.09664762380569991
-0.6819867113383087
-0.9217751597923943
0.09664762380569991
-0.6819867113383087
-0.9217751597923943
0.09664762380569991
-0.6819867113383087
-0.9223441223429992
0.09617073038518628
-0.6828611212749405
-0.9223441223429992
0.09617073038518628
-0.6828611212749405
-0.9223441223429992
0.09617073038518628
-0.6828611212749405
-0.9223441223429992
0.09617073038518628
-0.6828611212749405
-0.9230835885714694
0.09621094949999227
-0.6834848243204807
-0.9230835885714694
0.09621094949999227
-0.6834848243204807
-0.9230835885714694
0.09621094949999227
-0.6834848243204807
-0.9230835885714694
0.09621094949999227
-0.6834848243204807
-0.9236654943294382
0.09601106333841364
-0.6838073089316965
-0.9236654943294382
0.09601106333841364
-0.6838073089316965
-0.9236654943294382
0.09601106333841364
-0.6838073089316965
-0.9236654943294382
0.09601106333841364
-0.6838073089316965
-0.9237028119285854
0.09582102448443787
-0.6835851525497066
-0.9237028119285854
0.09582102448443787
-0.6835851525497066
-0.9237028119285854
0.09582102448443787
-0.6835851525497066
-0.9237028119285854
0.09582102448443787
-0.6835851525497066
-0.9231037786102524
0.09515882602017368
-0.6832637130581488
-0.9231037786102524
0.09515882602017368
-0.6832637130581488
-0.9231037786102524
0.09515882602017368
-0.6832637130581488
-0.9231037786102524
0.09515882602017368
-0.6832637130581488
-0.9222164589280171
0.09406569633546016
-0.682496442076574
-0.9222164589280171
0.09406569633546016
-0.682496442076574
-0.9222164589280171
0.09406569633546016
-0.682496442076574
-0.9222164589280171
0.09406569633546016
-0.682496442076574
-0.9235314237895413
0.09398484525884823
-0.6814519325216771
-0.9235314237895413
0.09398484525884823
-0.6814519325216771
-0.9235314237895413
0.09398484525884823
-0.6814519325216771
-0.9235314237895413
0.09398484525884823
-0.6814519325216771
-0.9240981059544447
0.09383392004924591
-0.6810634623097159
-0.9240981059544447
0.09383392004924591
-0.6810634623097159
-0.9240981059544447
0.09383392004924591
-0.6810634623097159
-0.9240981059544447
0.09383392004924591
-0.6810634623097159
-0.9242005842896837
0.09379506125733268
-0.6810500776265362
-0.9242005842896837
0.09379506125733268
-0.6810500776265362
-0.9242005842896837
0.09379506125733268
-0.6810500776265362
-0.9242005842896837
0.09379506125733268
-0.6810500776265362
-0.9240233277060876
0.09404558774149181
-0.6815962526828578
-0.9240233277060876
0.09404558774149181
-0.6815962526828578
-0.9240233277060876
0.09404558774149181
-0.6815962526828578
-0.9240233277060876
0.09404558774149181
-0.6815962526828578
-0.9244514654377222
0.09402196547341603
-0.682256111284211
-0.9244514654377222
0.09402196547341603
-0.682256111284211
-0.9244514654377222
0.09402196547341603
-0.682256111284211
-0.9244514654377222
0.09402196547341603
-0.682256111284211
-0.9248795892738416
0.09399806179272406
-0.6829159625244923
-0.9248795892738416
0.09399806179272406
-0.6829159625244923
-0.9248795892738416
0.09399806179272406
-0.6829159625244923
-0.9248795892738416
0.09399806179272406
-0.6829159625244923
-0.9264789833868315
0.09315396416280741
-0.6838371741128494
-0.9264789833868315
0.09315396416280741
-0.6838371741128494
-0.9264789833868315
0.09315396416280741
-0.6838371741128494
-0.9264789833868315
0.09315396416280741
-0.6838371741128494
-0.9280868987472295
0.09155252353018097
-0.6845511486042232
-0.9280868987472295
0.09155252353018097
-0.6845511486042232
-0.9280868987472295
0.09155252353018097
-0.6845511486042232
-0.9280868987472295
0.09155252353018097
-0.6845511486042232
-0.9290079384083332
0.09030133175238972
-0.6852283337587413
-0.9290079384083332
0.09030133175238972
-0.6852283337587413
-0.9290079384083332
0.09030133175238972
-0.6852283337587413
-0.9290079384083332
0.09030133175238972
-0.6852283337587413
-0.9294917366684604
0.08920286163083056
-0.6853519246040085
-0.9294917366684604
0.08920286163083056
-0.6853519246040085
-0.9294917366684604
0.08920286163083056
-0.6853519246040085
-0.9294917366684604
0.08920286163083056
-0.6853519246040085
-0.9297197471331738
0.0884222527309057
-0.6850156163383372
-0.9297197471331738
0.0884222527309057
-0.6850156163383372
-0.9297197471331738
0.0884222527309057
-0.6850156163383372
-0.9297197471331738
0.0884222527309057
-0.6850156163383372
-0.9284947125937817
0.08867387907540365
-0.6841675306284764
-0.9284947125937817
0.08867387907540365
-0.6841675306284764
-0.9284947125937817
0.08867387907540365
-0.6841675306284764
-0.9284947125937817
0.08867387907540365
-0.6841675306284764
-0.9282874623779194
0.0887777737253549
-0.6825668124599491
-0.9282874623779194
0.0887777737253549
-0.6825668124599491
-0.9282874623779194
0.0887777737253549
-0.6825668124599491
-0.9282874623779194
0.0887777737253549
-0.6825668124599491
-0.9251442840809913
0.09101282242026912
-0.6801454306714706
-0.9251442840809913
0.09101282242026912
-0.6801454306714706
-0.9251442840809913
0.09101282242026912
-0.6801454306714706
-0.9251442840809913
0.09101282242026912
-0.6801454306714706
-0.9185860081565468
0.09483539544917048
-0.6770684106881698
-0.9185860081565468
0.09483539544917048
-0.6770684106881698
-0.9185860081565468
0.09483539544917048
-0.6770684106881698
-0.9185860081565468
0.09483539544917048
-0.6770684106881698
-0.9027153316223667
0.09885621746551324
-0.6728998247802054
-0.9027153316223667
0.09885621746551324
-0.6728998247802054
-0.9027153316223667
0.09885621746551324
-0.6728998247802054
-0.9027153316223667
0.09885621746551324
-0.6728998247802054
-0.8761436360759249
0.10230027883426723
-0.6683252359921483
-0.8761436360759249
0.10230027883426723
-0.6683252359921483
-0.8761436360759249
0.10230027883426723
-0.6683252359921483
-0.8761436360759249
0.10230027883426723
-0.6683252359921483
-0.8420815016549048
0.10460567671166623
-0.664126957014757
-0.8420815016549048
0.10460567671166623
-0.664126957014757
-0.8420815016549048
0.10460567671166623
-0.664126957014757
-0.8420815016549048
0.10460567671166623
-0.664126957014757
-0.8053771461169574
0.1042646470785155
-0.6617772355186112
-0.8053771461169574
0.1042646470785155
-0.6617772355186112
-0.8053771461169574
0.1042646470785155
-0.6617772355186112
-0.8053771461169574
0.1042646470785155
-0.6617772355186112
-0.7710540285652763
0.10396189484180117
-0.6600312368213264
-0.7710540285652763
0.10396189484180117
-0.6600312368213264
-0.7710540285652763
0.10396189484180117
-0.6600312368213264
-0.7710540285652763
0.10396189484180117
-0.6600312368213264
-0.7410797720222497
0.10420379816716614
-0.655777734626776
-0.7410797720222497
0.10420379816716614
-0.655777734626776
-0.7410797720222497
0.10420379816716614
-0.655777734626776
-0.7410797720222497
0.10420379816716614
-0.655777734626776
-0.7142515199547411
0.1042185647235445
-0.6499937370960648
-0.7142515199547411
0.1042185647235445
-0.6499937370960648
-0.7142515199547411
0.1042185647235445
-0.6499937370960648
-0.7142515199547411
0.1042185647235445
-0.6499937370960648
-0.6901700333694554
0.10334892334950885
-0.6443747370168216
-0.6901700333694554
0.10334892334950885
-0.6443747370168216
-0.6901700333694554
0.10334892334950885
-0.6443747370168216
-0.6901700333694554
0.10334892334950885
-0.6443747370168216
-0.6665997285043923
0.10167646962903068
-0.6400804034344919
-0.6665997285043923
0.10167646962903068
-0.6400804034344919
-0.6665997285043923
0.10167646962903068
-0.6400804034344919
-0.6665997285043923
0.10167646962903068
-0.6400804034344919
-0.6402959285845907
0.097347104850402
-0.6369161753773115
-0.6402959285845907
0.097347104850402
-0.6369161753773115
-0.6402959285845907
0.097347104850402
-0.6369161753773115
-0.6402959285845907
0.097347104850402
-0.6369161753773115
-0.6124245668721673
0.09156155429615105
-0.6339253453236757
-0.6124245668721673
0.09156155429615105
-0.6339253453236757
-0.6124245668721673
0.09156155429615105
-0.6339253453236757
-0.6124245668721673
0.09156155429615105
-0.6339253453236757
-0.5852583966867004
0.08466794494290492
-0.6299220924942298
-0.5852583966867004
0.08466794494290492
-0.6299220924942298
-0.5852583966867004
0.08466794494290492
-0.6299220924942298
-0.5852583966867004
0.08466794494290492
-0.6299220924942298
-0.5623198653271619
0.0775573977230138
-0.6248950382596081
-0.5623198653271619
0.0775573977230138
-0.6248950382596081
-0.5623198653271619
0.0775573977230138
-0.6248950382596081
-0.5623198653271619
0.0775573977230138
-0.6248950382596081
-0.5473347182786785
0.07022928653990583
-0.619330996997871
-0.5473347182786785
0.07022928653990583
-0.619330996997871
-0.5473347182786785
0.07022928653990583
-0.619330996997871
-0.5473347182786785
0.07022928653990583
-0.619330996997871
-0.5380182578255146
0.06254907758847865
-0.6134742587286607
-0.5380182578255146
0.06254907758847865
-0.6134742587286607
-0.5380182578255146
0.06254907758847865
-0.6134742587286607
-0.5380182578255146
0.06254907758847865
-0.6134742587286607
-0.5328071807006374
0.05493877779626027
-0.6080570941546565
-0.5328071807006374
0.05493877779626027
-0.6080570941546565
-0.5328071807006374
0.05493877779626027
-0.6080570941546565
-0.5328071807006374
0.05493877779626027
-0.6080570941546565
-0.5290970483552389
0.047952425216969394
-0.6041215037557974
-0.5290970483552389
0.047952425216969394
-0.6041215037557974
-0.5290970483552389
0.047952425216969394
-0.6041215037557974
-0.5290970483552389
0.047952425216969394
-0.6041215037557974
-0.5264118229643997
0.04286332338556211
-0.6013811759621175
-0.5264118229643997
0.04286332338556211
-0.6013811759621175
-0.5264118229643997
0.04286332338556211
-0.6013811759621175
-0.5264118229643997
0.04286332338556211
-0.6013811759621175
-0.5238383588347486
0.0395262914842465
-0.5994074559329688
-0.5238383588347486
0.0395262914842465
-0.5994074559329688
-0.5238383588347486
0.0395262914842465
-0.5994074559329688
-0.5238383588347486
0.0395262914842465
-0.5994074559329688
-0.5210729628967644
0.037232735284618484
-0.5976817490519689
-0.5210729628967644
0.037232735284618484
-0.5976817490519689
-0.5210729628967644
0.037232735284618484
-0.5976817490519689
-0.5210729628967644
0.037232735284618484
-0.5976817490519689
-0.5190636745237603
0.03517386248622689
-0.5957505704163759
-0.5190636745237603
0.03517386248622689
-0.5957505704163759
-0.5190636745237603
0.03517386248622689
-0.5957505704163759
-0.5190636745237603
0.03517386248622689
-0.5957505704163759
-0.5193329825069225
0.033777621020087946
-0.5936664902342663
-0.5193329825069225
0.033777621020087946
-0.5936664902342663
-0.5193329825069225
0.033777621020087946
-0.5936664902342663
-0.5193329825069225
0.033777621020087946
-0.5936664902342663
-0.5213050679766337
0.032945130383912856
-0.5920645444474805
-0.5213050679766337
0.032945130383912856
-0.5920645444474805
-0.5213050679766337
0.032945130383912856
-0.5920645444474805
-0.5213050679766337
0.032945130383912856
-0.5920645444474805
-0.523600721494464
0.03302987798800846
-0.5911109702004855
-0.523600721494464
0.03302987798800846
-0.5911109702004855
-0.523600721494464
0.03302987798800846
-0.5911109702004855
-0.523600721494464
0.03302987798800846
-0.5911109702004855
-0.5261449292766561
0.03368491992465007
-0.5907509543119138
-0.5261449292766561
0.03368491992465007
-0.5907509543119138
-0.5261449292766561
0.03368491992465007
-0.5907509543119138
-0.5261449292766561
0.03368491992465007
-0.5907509543119138
-0.5273649321042448
0.034373139718173316
-0.5902682292828794
-0.5273649321042448
0.034373139718173316
-0.5902682292828794
-0.5273649321042448
0.034373139718173316
-0.5902682292828794
-0.5273649321042448
0.034373139718173316
-0.5902682292828794
-0.5279720447475907
0.0350611168479717
-0.5900169591521585
-0.5279720447475907
0.0350611168479717
-0.5900169591521585
-0.5279720447475907
0.0350611168479717
-0.5900169591521585
-0.5279720447475907
0.0350611168479717
-0.5900169591521585
-0.527922466002349
0.035944962390230185
-0.5896978692876258
-0.527922466002349
0.035944962390230185
-0.5896978692876258
-0.527922466002349
0.035944962390230185
-0.5896978692876258
-0.527922466002349
0.035944962390230185
-0.5896978692876258
-0.5276436141750372
0.036778523654088555
-0.589396802224349
-0.5276436141750372
0.036778523654088555
-0.589396802224349
-0.5276436141750372
0.036778523654088555
-0.589396802224349
-0.5276436141750372
0.036778523654088555
-0.589396802224349
-0.5275913602957426
0.0378146304450938
-0.5895545030754701
-0.5275913602957426
0.0378146304450938
-0.5895545030754701
-0.5275913602957426
0.0378146304450938
-0.5895545030754701
-0.5275913602957426
0.0378146304450938
-0.5895545030754701
-0.528825503276003
0.03879478551429586
-0.5899172738642328
-0.528825503276003
0.03879478551429586
-0.5899172738642328
-0.528825503276003
0.03879478551429586
-0.5899172738642328
-0.528825503276003
0.03879478551429586
-0.5899172738642328
-0.531946478188522
0.03976351932417058
-0.5902567967778977
-0.531946478188522
0.03976351932417058
-0.5902567967778977
-0.531946478188522
0.03976351932417058
-0.5902567967778977
-0.531946478188522
0.03976351932417058
-0.5902567967778977
-0.5360786601402785
0.041375328946126874
-0.5909921588084794
-0.5360786601402785
0.041375328946126874
-0.5909921588084794
-0.5360786601402785
0.041375328946126874
-0.5909921588084794
-0.5360786601402785
0.041375328946126874
-0.5909921588084794
-0.5447731332678667
0.04559392336935011
-0.5932470403657506
-0.5447731332678667
0.04559392336935011
-0.5932470403657506
-0.5447731332678667
0.04559392336935011
-0.5932470403657506
-0.5447731332678667
0.04559392336935011
-0.5932470403657506
-0.5599366790031309
0.05138729827187075
-0.5976792806296864
-0.5599366790031309
0.05138729827187075
-0.5976792806296864
-0.5599366790031309
0.05138729827187075
-0.5976792806296864
-0.5599366790031309
0.05138729827187075
-0.5976792806296864
-0.5813205136379677
0.05740208725673709
-0.6039955482172402
-0.5813205136379677
0.05740208725673709
-0.6039955482172402
-0.5813205136379677
0.05740208725673709
-0.6039955482172402
-0.5813205136379677
0.05740208725673709
-0.6039955482172402
-0.6111782492222667
0.061672561808106506
-0.6117706311728366
-0.6111782492222667
0.061672561808106506
-0.6117706311728366
-0.6111782492222667
0.061672561808106506
-0.6117706311728366
-0.6111782492222667
0.061672561808106506
-0.6117706311728366
-0.6518389432541707
0.06199019625312776
-0.6197364997089947
-0.6518389432541707
0.06199019625312776
-0.6197364997089947
-0.6518389432541707
0.06199019625312776
-0.6197364997089947
-0.6518389432541707
0.06199019625312776
-0.6197364997089947
-0.707637959026851
0.060924794747799965
-0.6280926912305363
-0.707637959026851
0.060924794747799965
-0.6280926912305363
-0.707637959026851
0.060924794747799965
-0.6280926912305363
-0.707637959026851
0.060924794747799965
-0.6280926912305363
-0.7784622020534296
0.0665382686319757
-0.6374473799381826
-0.7784622020534296
0.0665382686319757
-0.6374473799381826
-0.7784622020534296
0.0665382686319757
-0.6374473799381826
-0.7784622020534296
0.0665382686319757
-0.6374473799381826
-0.8679132532127475
0.07813079764512541
-0.6490267662286855
-0.8679132532127475
0.07813079764512541
-0.6490267662286855
-0.8679132532127475
0.07813079764512541
-0.6490267662286855
-0.8679132532127475
0.07813079764512541
-0.6490267662286855
-0.9400784417874529
0.08721701373347951
-0.6647782918260449
-0.9400784417874529
0.08721701373347951
-0.6647782918260449
-0.9400784417874529
0.08721701373347951
-0.6647782918260449
-0.9400784417874529
0.08721701373347951
-0.6647782918260449
-0.9696362786367771
0.09306611589087078
-0.6844716167157018
-0.9696362786367771
0.09306611589087078
-0.6844716167157018
-0.9696362786367771
0.09306611589087078
-0.6844716167157018
-0.9696362786367771
0.09306611589087078
-0.6844716167157018
-0.964117025588705
0.0962311417831773
-0.70395288842924
-0.964117025588705
0.0962311417831773
-0.70395288842924
-0.964117025588705
0.0962311417831773
-0.70395288842924
-0.964117025588705
0.0962311417831773
-0.70395288842924
-0.9650960293460592
0.09585805901981051
-0.720045701735327
-0.9650960293460592
0.09585805901981051
-0.720045701735327
-0.9650960293460592
0.09585805901981051
-0.720045701735327
-0.9650960293460592
0.09585805901981051
-0.720045701735327
-0.9873359173238445
0.09416555422243733
-0.7298680224255931
-0.9873359173238445
0.09416555422243733
-0.7298680224255931
-0.9873359173238445
0.09416555422243733
-0.7298680224255931
-0.9873359173238445
0.09416555422243733
-0.7298680224255931
-1.0105568133141964
0.09291080994761232
-0.7337318924393369
-1.0105568133141964
0.09291080994761232
-0.7337318924393369
-1.0105568133141964
0.09291080994761232
-0.7337318924393369
-1.0105568133141964
0.09291080994761232
-0.7337318924393369
-1.0233416175319203
0.08956727919868193
-0.7349824390918301
-1.0233416175319203
0.08956727919868193
-0.7349824390918301
-1.0233416175319203
0.08956727919868193
-0.7349824390918301
-1.0233416175319203
0.08956727919868193
-0.7349824390918301
-1.0278766472159744
0.08608602147257804
-0.7344409447896568
-1.0278766472159744
0.08608602147257804
-0.7344409447896568
-1.0278766472159744
0.08608602147257804
-0.7344409447896568
-1.0278766472159744
0.08608602147257804
-0.7344409447896568
-1.0247481529482645
0.08206968135556265
-0.7325392254677364
-1.0247481529482645
0.08206968135556265
-0.7325392254677364
-1.0247481529482645
0.08206968135556265
-0.7325392254677364
-1.0247481529482645
0.08206968135556265
-0.7325392254677364
-1.0190537705930036
0.07841258039076635
-0.7313529293102281
-1.0190537705930036
0.07841258039076635
-0.7313529293102281
-1.0190537705930036
0.07841258039076635
-0.7313529293102281
-1.0190537705930036
0.07841258039076635
-0.7313529293102281
-1.015911788188079
0.07716983150540536
-0.7307702953538621
-1.015911788188079
0.07716983150540536
-0.7307702953538621
-1.015911788188079
0.07716983150540536
-0.7307702953538621
-1.015911788188079
0.07716983150540536
-0.7307702953538621
-1.0164801948001883
0.07898070304213221
-0.7295614517054938
-1.0164801948001883
0.07898070304213221
-0.7295614517054938
-1.0164801948001883
0.07898070304213221
-0.7295614517054938
-1.0164801948001883
0.07898070304213221
-0.7295614517054938
-1.020418606833274
0.08186498221244547
-0.7299685338830086
-1.020418606833274
0.08186498221244547
-0.7299685338830086
-1.020418606833274
0.08186498221244547
-0.7299685338830086
-1.020418606833274
0.08186498221244547
-0.7299685338830086
-1.022541165675701
0.08396629256729636
-0.730489355535021
-1.022541165675701
0.08396629256729636
-0.730489355535021
-1.022541165675701
0.08396629256729636
-0.730489355535021
-1.022541165675701
0.08396629256729636
-0.730489355535021
-1.0179291144387559
0.08374442650691769
-0.7301051265226199
-1.0179291144387559
0.08374442650691769
-0.7301051265226199
-1.0179291144387559
0.08374442650691769
-0.7301051265226199
-1.0179291144387559
0.08374442650691769
-0.7301051265226199
-1.0079443793680372
0.08273088223237735
-0.7280492241154466
-1.0079443793680372
0.08273088223237735
-0.7280492241154466
-1.0079443793680372
0.08273088223237735
-0.7280492241154466
-1.0079443793680372
0.08273088223237735
-0.7280492241154466
-1.0034010022083557
0.08237117600368418
-0.7245188494039924
-1.0034010022083557
0.08237117600368418
-0.7245188494039924
-1.0034010022083557
0.08237117600368418
-0.7245188494039924
-1.0034010022083557
0.08237117600368418
-0.7245188494039924
-1.0039065855186509
0.08270745506235785
-0.7218711989576587
-1.0039065855186509
0.08270745506235785
-0.7218711989576587
-1.0039065855186509
0.08270745506235785
-0.7218711989576587
-1.0039065855186509
0.08270745506235785
-0.7218711989576587
-1.0041044062455207
0.08277482915059142
-0.7207748499795792
-1.0041044062455207
0.08277482915059142
-0.7207748499795792
-1.0041044062455207
0.08277482915059142
-0.7207748499795792
-1.0041044062455207
0.08277482915059142
-0.7207748499795792
-1.0004379345226113
0.08251920599090445
-0.7206262310690136
-1.0004379345226113
0.08251920599090445
-0.7206262310690136
-1.0004379345226113
0.08251920599090445
-0.7206262310690136
-1.0004379345226113
0.08251920599090445
-0.7206262310690136
-0.9984126860227269
0.08380100747974392
-0.7206713753823366
-0.9984126860227269
0.08380100747974392
-0.7206713753823366
-0.9984126860227269
0.08380100747974392
-0.7206713753823366
-0.9984126860227269
0.08380100747974392
-0.7206713753823366
-0.9982497930421854
0.08531910344609414
-0.7210512882483332
-0.9982497930421854
0.08531910344609414
-0.7210512882483332
-0.9982497930421854
0.08531910344609414
-0.7210512882483332
-0.9982497930421854
0.08531910344609414
-0.7210512882483332
-0.9986230550836137
0.08668717476710754
-0.7216025178503434
-0.9986230550836137
0.08668717476710754
-0.7216025178503434
-0.9986230550836137
0.08668717476710754
-0.7216025178503434
-0.9986230550836137
0.08668717476710754
-0.7216025178503434
-0.9981403493465932
0.08703340973651481
-0.7221121946663007
-0.9981403493465932
0.08703340973651481
-0.7221121946663007
-0.9981403493465932
0.08703340973651481
-0.7221121946663007
-0.9981403493465932
0.08703340973651481
-0.7221121946663007
-0.9976296351443169
0.08633387146015888
-0.7229291581422052
-0.9976296351443169
0.08633387146015888
-0.7229291581422052
-0.9976296351443169
0.08633387146015888
-0.7229291581422052
-0.9976296351443169
0.08633387146015888
-0.7229291581422052
-0.9961952858306502
0.08598192837160819
-0.7236995554868121
-0.9961952858306502
0.08598192837160819
-0.7236995554868121
-0.9961952858306502
0.08598192837160819
-0.7236995554868121
-0.9961952858306502
0.08598192837160819
-0.7236995554868121
-0.9962944950019847
0.08576989801351396
-0.7237669388048268
-0.9962944950019847
0.08576989801351396
-0.7237669388048268
-0.9962944950019847
0.08576989801351396
-0.7237669388048268
-0.9962944950019847
0.08576989801351396
-0.7237669388048268
-0.9962565483746524
0.0853755666788121
-0.7236812395424953
-0.9962565483746524
0.0853755666788121
-0.7236812395424953
-0.9962565483746524
0.0853755666788121
-0.7236812395424953
-0.9962565483746524
0.0853755666788121
-0.7236812395424953
-0.9948859148746988
0.08501500214272205
-0.7235718584802915
-0.9948859148746988
0.08501500214272205
-0.7235718584802915
-0.9948859148746988
0.08501500214272205
-0.7235718584802915
-0.9948859148746988
0.08501500214272205
-0.7235718584802915
-0.9942747847605247
0.08524892774219107
-0.723572964508209
-0.9942747847605247
0.08524892774219107
-0.723572964508209
-0.9942747847605247
0.08524892774219107
-0.723572964508209
-0.9942747847605247
0.08524892774219107
-0.723572964508209
-0.992956349579983
0.08580530394118582
-0.7233941043968477
-0.992956349579983
0.08580530394118582
-0.7233941043968477
-0.992956349579983
0.08580530394118582
-0.7233941043968477
-0.992956349579983
0.08580530394118582
-0.7233941043968477
-0.9930125207661065
0.08578905103377558
-0.7234345325449287
-0.9930125207661065
0.08578905103377558
-0.7234345325449287
-0.9930125207661065
0.08578905103377558
-0.7234345325449287
-0.9930125207661065
0.08578905103377558
-0.7234345325449287
-0.9942870395179466
0.08534694261056548
-0.7241973616433973
-0.9942870395179466
0.08534694261056548
-0.7241973616433973
-0.9942870395179466
0.08534694261056548
-0.7241973616433973
-0.9942870395179466
0.08534694261056548
-0.7241973616433973
-0.9935762958926364
0.08490185109452111
-0.7249648026561342
-0.9935762958926364
0.08490185109452111
-0.7249648026561342
-0.9935762958926364
0.08490185109452111
-0.7249648026561342
-0.9935762958926364
0.08490185109452111
-0.7249648026561342
-0.9924904480858932
0.083961142931156
-0.7255277478198017
-0.9924904480858932
0.083961142931156
-0.7255277478198017
-0.9924904480858932
0.083961142931156
-0.7255277478198017
-0.9924904480858932
0.083961142931156
-0.7255277478198017
-0.9937533705710601
0.08295301004536484
-0.7257200300856465
-0.9937533705710601
0.08295301004536484
-0.7257200300856465
-0.9937533705710601
0.08295301004536484
-0.7257200300856465
-0.9937533705710601
0.08295301004536484
-0.7257200300856465
-0.9954954771934357
0.08235848395702679
-0.7253754608278482
-0.9954954771934357
0.08235848395702679
-0.7253754608278482
-0.9954954771934357
0.08235848395702679
-0.7253754608278482
-0.9954954771934357
0.08235848395702679
-0.7253754608278482
-0.9967835378959747
0.0821140015574654
-0.7249722900152358
-0.9967835378959747
0.0821140015574654
-0.7249722900152358
-0.9967835378959747
0.0821140015574654
-0.7249722900152358
-0.9967835378959747
0.0821140015574654
-0.7249722900152358
-0.9964075815157978
0.08208496071368217
-0.7247126085420967
-0.9964075815157978
0.08208496071368217
-0.7247126085420967
-0.9964075815157978
0.08208496071368217
-0.7247126085420967
-0.9964075815157978
0.08208496071368217
-0.7247126085420967
-0.9946865728355946
0.08214476734285169
-0.7248996034114693
-0.9946865728355946
0.08214476734285169
-0.7248996034114693
-0.9946865728355946
0.08214476734285169
-0.7248996034114693
-0.9946865728355946
0.08214476734285169
-0.7248996034114693
-0.9943322664008547
0.08332627280731128
-0.72516791599211
-0.9943322664008547
0.08332627280731128
-0.72516791599211
-0.9943322664008547
0.08332627280731128
-0.72516791599211
-0.9943322664008547
0.08332627280731128
-0.72516791599211
-0.9954556321502677
0.08464229079024303
-0.725867783860695
-0.9954556321502677
0.08464229079024303
-0.725867783860695
-0.9954556321502677
0.08464229079024303
-0.725867783860695
-0.9954556321502677
0.08464229079024303
-0.725867783860695
-0.9972463450094439
0.08553438875384983
-0.7266922468713164
-0.9972463450094439
0.08553438875384983
-0.7266922468713164
-0.9972463450094439
0.08553438875384983
-0.7266922468713164
-0.9972463450094439
0.08553438875384983
-0.7266922468713164
-0.9983467144756097
0.08608422079956042
-0.7279876744912054
-0.9983467144756097
0.08608422079956042
-0.7279876744912054
-0.9983467144756097
0.08608422079956042
-0.7279876744912054
-0.9983467144756097
0.08608422079956042
-0.7279876744912054
-0.9986920460130752
0.08669985972763093
-0.7288760791660532
-0.9986920460130752
0.08669985972763093
-0.7288760791660532
-0.9986920460130752
0.08669985972763093
-0.7288760791660532
-0.9986920460130752
0.08669985972763093
-0.7288760791660532
-0.998683883154098
0.08762525956372637
-0.729689848134513
-0.998683883154098
0.08762525956372637
-0.729689848134513
-0.998683883154098
0.08762525956372637
-0.729689848134513
-0.998683883154098
0.08762525956372637
-0.729689848134513
-0.9987144344722595
0.08794978836263426
-0.7301311084275507
-0.9987144344722595
0.08794978836263426
-0.7301311084275507
-0.9987144344722595
0.08794978836263426
-0.7301311084275507
-0.9987144344722595
0.08794978836263426
-0.7301311084275507
-0.9990670614130968
0.08793471705186125
-0.7302360920918574
-0.9990670614130968
0.08793471705186125
-0.7302360920918574
-0.9990670614130968
0.08793471705186125
-0.7302360920918574
-0.9990670614130968
0.08793471705186125
-0.7302360920918574
-0.9995994136359925
0.08837212375369582
-0.7304676042163158
-0.9995994136359925
0.08837212375369582
-0.7304676042163158
-0.9995994136359925
0.08837212375369582
-0.7304676042163158
-0.9995994136359925
0.08837212375369582
-0.7304676042163158
-1.0000332673368009
0.08902185523199582
-0.7306321597159869
-1.0000332673368009
0.08902185523199582
-0.7306321597159869
-1.0000332673368009
0.08902185523199582
-0.7306321597159869
-1.0000332673368009
0.08902185523199582
-0.7306321597159869
-0.9993079606753025
0.08941418283454627
-0.7306650767693655
-0.9993079606753025
0.08941418283454627
-0.7306650767693655
-0.9993079606753025
0.08941418283454627
-0.7306650767693655
-0.9993079606753025
0.08941418283454627
-0.7306650767693655
-0.9990343752020314
0.0902174747665999
-0.7307328090611888
-0.9990343752020314
0.0902174747665999
-0.7307328090611888
-0.9990343752020314
0.0902174747665999
-0.7307328090611888
-0.9990343752020314
0.0902174747665999
-0.7307328090611888
-0.9987928339339187
0.09096168479242198
-0.7306852609729512
-0.9987928339339187
0.09096168479242198
-0.7306852609729512
-0.9987928339339187
0.09096168479242198
-0.7306852609729512
-0.9987928339339187
0.09096168479242198
-0.7306852609729512
-0.9984381647273572
0.09173850360597889
-0.730555683516598
-0.9984381647273572
0.09173850360597889
-0.730555683516598
-0.9984381647273572
0.09173850360597889
-0.730555683516598
-0.9984381647273572
0.09173850360597889
-0.730555683516598
-0.9978938935503416
0.09164993535298062
-0.7308219684826427
-0.9978938935503416
0.09164993535298062
-0.7308219684826427
-0.9978938935503416
0.09164993535298062
-0.7308219684826427
-0.9978938935503416
0.09164993535298062
-0.7308219684826427
-0.9980498520678568
0.09159290723769077
-0.7308465643255724
-0.9980498520678568
0.09159290723769077
-0.7308465643255724
-0.9980498520678568
0.09159290723769077
-0.7308465643255724
-0.9980498520678568
0.09159290723769077
-0.7308465643255724
-0.9979749861827473
0.09167646223830776
-0.7310188620612083
-0.9979749861827473
0.09167646223830776
-0.7310188620612083
-0.9979749861827473
0.09167646223830776
-0.7310188620612083
-0.9979749861827473
0.09167646223830776
-0.7310188620612083
-0.9979749861827473
0.09167646223830776
-0.7310188620612083
-0.9979749861827473
0.09167646223830776
-0.7310188620612083
-0.9979749861827473
0.09167646223830776
-0.7310188620612083
-0.9979749861827473
0.09167646223830776
-0.7310188620612083
-0.9979193608979947
0.09075935576531292
-0.7310860459271865
-0.9979193608979947
0.09075935576531292
-0.7310860459271865
-0.9979193608979947
0.09075935576531292
-0.7310860459271865
-0.9979193608979947
0.09075935576531292
-0.7310860459271865
-0.9980188251353849
0.09071860667751033
-0.731069659507585
-0.9980188251353849
0.09071860667751033
-0.731069659507585
-0.9980188251353849
0.09071860667751033
-0.731069659507585
-0.9980188251353849
0.09071860667751033
-0.731069659507585
-0.9981587292417079
0.09013856533167419
-0.7312476472770484
-0.9981587292417079
0.09013856533167419
-0.7312476472770484
-0.9981587292417079
0.09013856533167419
-0.7312476472770484
-0.9981587292417079
0.09013856533167419
-0.7312476472770484
-0.9982246964750494
0.08934694777350193
-0.7315680150101136
-0.9982246964750494
0.08934694777350193
-0.7315680150101136
-0.9982246964750494
0.08934694777350193
-0.7315680150101136
-0.9982246964750494
0.08934694777350193
-0.7315680150101136
-0.9982806878821725
0.08831400463722434
-0.7323269938743104
-0.9982806878821725
0.08831400463722434
-0.7323269938743104
-0.9982806878821725
0.08831400463722434
-0.7323269938743104
-0.9982806878821725
0.08831400463722434
-0.7323269938743104
-0.9993271824059283
0.0872030531185883
-0.7325375231615385
-0.9993271824059283
0.0872030531185883
-0.7325375231615385
-0.9993271824059283
0.0872030531185883
-0.7325375231615385
-0.9993271824059283
0.0872030531185883
-0.7325375231615385
-1.0008355093711858
0.08581046317931346
-0.7324499263772475
-1.0008355093711858
0.08581046317931346
-0.7324499263772475
-1.0008355093711858
0.08581046317931346
-0.7324499263772475
-1.0008355093711858
0.08581046317931346
-0.7324499263772475
-1.0018522949199726
0.08408037047222293
-0.7321856639375945
-1.0018522949199726
0.08408037047222293
-0.7321856639375945
-1.0018522949199726
0.08408037047222293
-0.7321856639375945
-1.0018522949199726
0.08408037047222293
-0.7321856639375945
-1.0014567145496929
0.08189694833221174
-0.7317544770743029
-1.0014567145496929
0.08189694833221174
-0.7317544770743029
-1.0014567145496929
0.08189694833221174
-0.7317544770743029
-1.0014567145496929
0.08189694833221174
-0.7317544770743029
-1.00082511574911
0.080039594712529
-0.7311345827787663
-1.00082511574911
0.080039594712529
-0.7311345827787663
-1.00082511574911
0.080039594712529
-0.7311345827787663
-1.00082511574911
0.080039594712529
-0.7311345827787663
-1.001213023675446
0.07791353827557172
-0.7306553847692839
-1.001213023675446
0.07791353827557172
-0.7306553847692839
-1.001213023675446
0.07791353827557172
-0.7306553847692839
-1.001213023675446
0.07791353827557172
-0.7306553847692839
-1.0016998729677076
0.07604203806989436
-0.7301886178372996
-1.0016998729677076
0.07604203806989436
-0.7301886178372996
-1.0016998729677076
0.07604203806989436
-0.7301886178372996
-1.0016998729677076
0.07604203806989436
-0.7301886178372996
-1.0014493821657875
0.07478827086178516
-0.7301447026137264
-1.0014493821657875
0.07478827086178516
-0.7301447026137264
-1.0014493821657875
0.07478827086178516
-0.7301447026137264
-1.0014493821657875
0.07478827086178516
-0.7301447026137264
-1.0009564144547933
0.07457250927553742
-0.7300866269295384
-1.0009564144547933
0.07457250927553742
-0.7300866269295384
-1.0009564144547933
0.07457250927553742
-0.7300866269295384
-1.0009564144547933
0.07457250927553742
-0.7300866269295384
-0.9993670404310123
0.07593750029803263
-0.7299865562811284
-0.9993670404310123
0.07593750029803263
-0.7299865562811284
-0.9993670404310123
0.07593750029803263
-0.7299865562811284
-0.9993670404310123
0.07593750029803263
-0.7299865562811284
-0.9958020551131863
0.07924082633293379
-0.7293245377025164
-0.9958020551131863
0.07924082633293379
-0.7293245377025164
-0.9958020551131863
0.07924082633293379
-0.7293245377025164
-0.9958020551131863
0.07924082633293379
-0.7293245377025164
-0.988956027970842
0.08479748565043922
-0.7277721881469196
-0.988956027970842
0.08479748565043922
-0.7277721881469196
-0.988956027970842
0.08479748565043922
-0.7277721881469196
-0.988956027970842
0.08479748565043922
-0.7277721881469196
-0.976075096103253
0.09198338252423566
-0.7254234725891446
-0.976075096103253
0.09198338252423566
-0.7254234725891446
-0.976075096103253
0.09198338252423566
-0.7254234725891446
-0.976075096103253
0.09198338252423566
-0.7254234725891446
-0.9574820351109077
0.09977246773141532
-0.7214351309822504
-0.9574820351109077
0.09977246773141532
-0.7214351309822504
-0.9574820351109077
0.09977246773141532
-0.7214351309822504
-0.9574820351109077
0.09977246773141532
-0.7214351309822504
-0.9338578650528004
0.10653579419716279
-0.7159397014728012
-0.9338578650528004
0.10653579419716279
-0.7159397014728012
-0.9338578650528004
0.10653579419716279
-0.7159397014728012
-0.9338578650528004
0.10653579419716279
-0.7159397014728012
-0.9028410228969785
0.11076699893392847
-0.7097856111078036
-0.9028410228969785
0.11076699893392847
-0.7097856111078036
-0.9028410228969785
0.11076699893392847
-0.7097856111078036
-0.9028410228969785
0.11076699893392847
-0.7097856111078036
-0.8623501050752966
0.1117141436772975
-0.7033180278300205
-0.8623501050752966
0.1117141436772975
-0.7033180278300205
-0.8623501050752966
0.1117141436772975
-0.7033180278300205
-0.8623501050752966
0.1117141436772975
-0.7033180278300205
-0.8177166664225359
0.11102462514413616
-0.69741638141073
-0.8177166664225359
0.11102462514413616
-0.69741638141073
-0.8177166664225359
0.11102462514413616
-0.69741638141073
-0.8177166664225359
0.11102462514413616
-0.69741638141073
-0.7755047670293365
0.11032882179219666
-0.691481642421419
-0.7755047670293365
0.11032882179219666
-0.691481642421419
-0.7755047670293365
0.11032882179219666
-0.691481642421419
-0.7755047670293365
0.11032882179219666
-0.691481642421419
-0.7370328408005185
0.10937326262919819
-0.6838249208080681
-0.7370328408005185
0.10937326262919819
-0.6838249208080681
-0.7370328408005185
0.10937326262919819
-0.6838249208080681
-0.7370328408005185
0.10937326262919819
-0.6838249208080681
-0.7030543474634463
0.10660567824331622
-0.6735747345688732
-0.7030543474634463
0.10660567824331622
-0.6735747345688732
-0.7030543474634463
0.10660567824331622
-0.6735747345688732
-0.7030543474634463
0.10660567824331622
-0.6735747345688732
-0.6758821281785526
0.10262678435763446
-0.6625117890527495
-0.6758821281785526
0.10262678435763446
-0.6625117890527495
-0.6758821281785526
0.10262678435763446
-0.6625117890527495
-0.6758821281785526
0.10262678435763446
-0.6625117890527495
-0.6536339419052649
0.09722190809185752
-0.651302940629734
-0.6536339419052649
0.09722190809185752
-0.651302940629734
-0.6536339419052649
0.09722190809185752
-0.651302940629734
-0.6536339419052649
0.09722190809185752
-0.651302940629734
-0.6355267097310745
0.09038274767024128
-0.6417229838208879
-0.6355267097310745
0.09038274767024128
-0.6417229838208879
-0.6355267097310745
0.09038274767024128
-0.6417229838208879
-0.6355267097310745
0.09038274767024128
-0.6417229838208879
-0.6191856358759374
0.08243985876161176
-0.6345564098050229
-0.6191856358759374
0.08243985876161176
-0.6345564098050229
-0.6191856358759374
0.08243985876161176
-0.6345564098050229
-0.6191856358759374
0.08243985876161176
-0.6345564098050229
-0.6044981360828056
0.07450108559680457
-0.6292304010147434
-0.6044981360828056
0.07450108559680457
-0.6292304010147434
-0.6044981360828056
0.07450108559680457
-0.6292304010147434
-0.6044981360828056
0.07450108559680457
-0.6292304010147434
-0.5828043075286016
0.0666808189691474
-0.6235860280639873
-0.5828043075286016
0.0666808189691474
-0.6235860280639873
-0.5828043075286016
0.0666808189691474
-0.6235860280639873
-0.5828043075286016
0.0666808189691474
-0.6235860280639873
-0.5577113552969861
0.05834146349157467
-0.6163400119019451
-0.5577113552969861
0.05834146349157467
-0.6163400119019451
-0.5577113552969861
0.05834146349157467
-0.6163400119019451
-0.5577113552969861
0.05834146349157467
-0.6163400119019451
-0.5357883836218238
0.051234921619168546
-0.6085506884295108
-0.5357883836218238
0.051234921619168546
-0.6085506884295108
-0.5357883836218238
0.051234921619168546
-0.6085506884295108
-0.5357883836218238
0.051234921619168546
-0.6085506884295108
-0.5208733748729154
0.04591261469415755
-0.6012267197552454
-0.5208733748729154
0.04591261469415755
-0.6012267197552454
-0.5208733748729154
0.04591261469415755
-0.6012267197552454
-0.5208733748729154
0.04591261469415755
-0.6012267197552454
-0.5162812635084679
0.042230789056314284
-0.5947427517213499
-0.5162812635084679
0.042230789056314284
-0.5947427517213499
-0.5162812635084679
0.042230789056314284
-0.5947427517213499
-0.5162812635084679
0.042230789056314284
-0.5947427517213499
-0.5217504036789388
0.03920471380215334
-0.5903790982305813
-0.5217504036789388
0.03920471380215334
-0.5903790982305813
-0.5217504036789388
0.03920471380215334
-0.5903790982305813
-0.5217504036789388
0.03920471380215334
-0.5903790982305813
-0.5317300198862214
0.037329232005030424
-0.5877105996937042
-0.5317300198862214
0.037329232005030424
-0.5877105996937042
-0.5317300198862214
0.037329232005030424
-0.5877105996937042
-0.5317300198862214
0.037329232005030424
-0.5877105996937042
-0.5403665934670865
0.03608730160224784
-0.5857015970071858
-0.5403665934670865
0.03608730160224784
-0.5857015970071858
-0.5403665934670865
0.03608730160224784
-0.5857015970071858
-0.5403665934670865
0.03608730160224784
-0.5857015970071858
-0.5457346458480353
0.03622687639930966
-0.5847102208753111
-0.5457346458480353
0.03622687639930966
-0.5847102208753111
-0.5457346458480353
0.03622687639930966
-0.5847102208753111
-0.5457346458480353
0.03622687639930966
-0.5847102208753111
-0.5467093808600391
0.036540573855239664
-0.5840019341923158
-0.5467093808600391
0.036540573855239664
-0.5840019341923158
-0.5467093808600391
0.036540573855239664
-0.5840019341923158
-0.5467093808600391
0.036540573855239664
-0.5840019341923158
-0.5458657455437608
0.037351883458980085
-0.5838616531955574
-0.5458657455437608
0.037351883458980085
-0.5838616531955574
-0.5458657455437608
0.037351883458980085
-0.5838616531955574
-0.5458657455437608
0.037351883458980085
-0.5838616531955574
-0.5468153972860222
0.03864449807988823
-0.583950221191609
-0.5468153972860222
0.03864449807988823
-0.583950221191609
-0.5468153972860222
0.03864449807988823
-0.583950221191609
-0.5468153972860222
0.03864449807988823
-0.583950221191609
-0.5492881813570185
0.039611450748265435
-0.5835301803422429
-0.5492881813570185
0.039611450748265435
-0.5835301803422429
-0.5492881813570185
0.039611450748265435
-0.5835301803422429
-0.5492881813570185
0.039611450748265435
-0.5835301803422429
-0.5540094955891944
0.04016657267464098
-0.5827362726084232
-0.5540094955891944
0.04016657267464098
-0.5827362726084232
-0.5540094955891944
0.04016657267464098
-0.5827362726084232
-0.5540094955891944
0.04016657267464098
-0.5827362726084232
-0.559538812395318
0.04072917392184464
-0.5820353206397525
-0.559538812395318
0.04072917392184464
-0.5820353206397525
-0.559538812395318
0.04072917392184464
-0.5820353206397525
-0.559538812395318
0.04072917392184464
-0.5820353206397525
-0.5636903302460781
0.04195333248312366
-0.5813900415653225
-0.5636903302460781
0.04195333248312366
-0.5813900415653225
-0.5636903302460781
0.04195333248312366
-0.5813900415653225
-0.5636903302460781
0.04195333248312366
-0.5813900415653225
-0.5653877970522188
0.04317868053030745
-0.5814037099945525
-0.5653877970522188
0.04317868053030745
-0.5814037099945525
-0.5653877970522188
0.04317868053030745
-0.5814037099945525
-0.5653877970522188
0.04317868053030745
-0.5814037099945525
-0.5647770105407808
0.044885106740760884
-0.582093112150157
-0.5647770105407808
0.044885106740760884
-0.582093112150157
-0.5647770105407808
0.044885106740760884
-0.582093112150157
-0.5647770105407808
0.044885106740760884
-0.582093112150157
-0.5646811870922704
0.046843740853264454
-0.582816950585355
-0.5646811870922704
0.046843740853264454
-0.582816950585355
-0.5646811870922704
0.046843740853264454
-0.582816950585355
-0.5646811870922704
0.046843740853264454
-0.582816950585355
-0.5646210052109616
0.04943757595374528
-0.5835681831029357
-0.5646210052109616
0.04943757595374528
-0.5835681831029357
-0.5646210052109616
0.04943757595374528
-0.5835681831029357
-0.5646210052109616
0.04943757595374528
-0.5835681831029357
-0.5691371128644093
0.05300403322295134
-0.5846019485861891
-0.5691371128644093
0.05300403322295134
-0.5846019485861891
-0.5691371128644093
0.05300403322295134
-0.5846019485861891
-0.5691371128644093
0.05300403322295134
-0.5846019485861891
-0.5804665610214353
0.05698274421280704
-0.5869970531293603
-0.5804665610214353
0.05698274421280704
-0.5869970531293603
-0.5804665610214353
0.05698274421280704
-0.5869970531293603
-0.5804665610214353
0.05698274421280704
-0.5869970531293603
-0.5978063081615459
0.061578034270574185
-0.5908158153017
-0.5978063081615459
0.061578034270574185
-0.5908158153017
-0.5978063081615459
0.061578034270574185
-0.5908158153017
-0.5978063081615459
0.061578034270574185
-0.5908158153017
-0.6194515079201901
0.06641904209256905
-0.5969911683361986
-0.6194515079201901
0.06641904209256905
-0.5969911683361986
-0.6194515079201901
0.06641904209256905
-0.5969911683361986
-0.6194515079201901
0.06641904209256905
-0.5969911683361986
-0.6466036988403694
0.07034012239261056
-0.6049479742160827
-0.6466036988403694
0.07034012239261056
-0.6049479742160827
-0.6466036988403694
0.07034012239261056
-0.6049479742160827
-0.6466036988403694
0.07034012239261056
-0.6049479742160827
-0.6755181742976663
0.07212960188324152
-0.6136129692776169
-0.6755181742976663
0.07212960188324152
-0.6136129692776169
-0.6755181742976663
0.07212960188324152
-0.6136129692776169
-0.6755181742976663
0.07212960188324152
-0.6136129692776169
-0.7074306433769917
0.07069657126946718
-0.6205749725005547
-0.7074306433769917
0.07069657126946718
-0.6205749725005547
-0.7074306433769917
0.07069657126946718
-0.6205749725005547
-0.7074306433769917
0.07069657126946718
-0.6205749725005547
-0.7476500263499564
0.06837944067307722
-0.6273504526583334
-0.7476500263499564
0.06837944067307722
-0.6273504526583334
-0.7476500263499564
0.06837944067307722
-0.6273504526583334
-0.7476500263499564
0.06837944067307722
-0.6273504526583334
-0.7963337006770427
0.06990493249581485
-0.6355396704312785
-0.7963337006770427
0.06990493249581485
-0.6355396704312785
-0.7963337006770427
0.06990493249581485
-0.6355396704312785
-0.7963337006770427
0.06990493249581485
-0.6355396704312785
-0.8547889952970652
0.07419364565760793
-0.6429697989856531
-0.8547889952970652
0.07419364565760793
-0.6429697989856531
-0.8547889952970652
0.07419364565760793
-0.6429697989856531
-0.8547889952970652
0.07419364565760793
-0.6429697989856531
-0.9124753596696796
0.07673655992138115
-0.6503263993302717
-0.9124753596696796
0.07673655992138115
-0.6503263993302717
-0.9124753596696796
0.07673655992138115
-0.6503263993302717
-0.9124753596696796
0.07673655992138115
-0.6503263993302717
-0.9437237719153846
0.07431416746441831
-0.6592800795457745
-0.9437237719153846
0.07431416746441831
-0.6592800795457745
-0.9437237719153846
0.07431416746441831
-0.6592800795457745
-0.9437237719153846
0.07431416746441831
-0.6592800795457745
-0.9433467114359786
0.07183242647030373
-0.6700078217718803
-0.9433467114359786
0.07183242647030373
-0.6700078217718803
-0.9433467114359786
0.07183242647030373
-0.6700078217718803
-0.9433467114359786
0.07183242647030373
-0.6700078217718803
-0.9334284712302765
0.0682050607475736
-0.6804700267630841
-0.9334284712302765
0.0682050607475736
-0.6804700267630841
-0.9334284712302765
0.0682050607475736
-0.6804700267630841
-0.9334284712302765
0.0682050607475736
-0.6804700267630841
-0.9367380097641832
0.06400776217310306
-0.6869711322781153
-0.9367380097641832
0.06400776217310306
-0.6869711322781153
-0.9367380097641832
0.06400776217310306
-0.6869711322781153
-0.9367380097641832
0.06400776217310306
-0.6869711322781153
-0.9499850395642055
0.06170938369509607
-0.6912235546201356
-0.9499850395642055
0.06170938369509607
-0.6912235546201356
-0.9499850395642055
0.06170938369509607
-0.6912235546201356
-0.9499850395642055
0.06170938369509607
-0.6912235546201356
-0.9614837536364171
0.060457144289971405
-0.6942029537309881
-0.9614837536364171
0.060457144289971405
-0.6942029537309881
-0.9614837536364171
0.060457144289971405
-0.6942029537309881
-0.9614837536364171
0.060457144289971405
-0.6942029537309881
-0.9650729431807948
0.05885872118515014
-0.6954387208584306
-0.9650729431807948
0.05885872118515014
-0.6954387208584306
-0.9650729431807948
0.05885872118515014
-0.6954387208584306
-0.9650729431807948
0.05885872118515014
-0.6954387208584306
-0.9657281761463375
0.0582763116575435
-0.6952927109577108
-0.9657281761463375
0.0582763116575435
-0.6952927109577108
-0.9657281761463375
0.0582763116575435
-0.6952927109577108
-0.9657281761463375
0.0582763116575435
-0.6952927109577108
-0.961871527455441
0.05891954142775501
-0.6946361922914027
-0.961871527455441
0.05891954142775501
-0.6946361922914027
-0.961871527455441
0.05891954142775501
-0.6946361922914027
-0.961871527455441
0.05891954142775501
-0.6946361922914027
-0.9577715135549221
0.05999529457548778
-0.6941492685480646
-0.9577715135549221
0.05999529457548778
-0.6941492685480646
-0.9577715135549221
0.05999529457548778
-0.6941492685480646
-0.9577715135549221
0.05999529457548778
-0.6941492685480646
-0.9582304865558223
0.06128451698919
-0.6939261283288503
-0.9582304865558223
0.06128451698919
-0.6939261283288503
-0.9582304865558223
0.06128451698919
-0.6939261283288503
-0.9582304865558223
0.06128451698919
-0.6939261283288503
-0.9593022042803901
0.06328169929200474
-0.6939253224812972
-0.9593022042803901
0.06328169929200474
-0.6939253224812972
-0.9593022042803901
0.06328169929200474
-0.6939253224812972
-0.9593022042803901
0.06328169929200474
-0.6939253224812972
-0.9619622335488553
0.0663299463832991
-0.693632810901764
-0.9619622335488553
0.0663299463832991
-0.693632810901764
-0.9619622335488553
0.0663299463832991
-0.693632810901764
-0.9619622335488553
0.0663299463832991
-0.693632810901764
-0.9601140816352067
0.06844803298039996
-0.6936062762719781
-0.9601140816352067
0.06844803298039996
-0.6936062762719781
-0.9601140816352067
0.06844803298039996
-0.6936062762719781
-0.9601140816352067
0.06844803298039996
-0.6936062762719781
-0.9573931991192205
0.07001428276221273
-0.6941618584615862
-0.9573931991192205
0.07001428276221273
-0.6941618584615862
-0.9573931991192205
0.07001428276221273
-0.6941618584615862
-0.9573931991192205
0.07001428276221273
-0.6941618584615862
-0.9550083932072068
0.07104718509287171
-0.6948862597839844
-0.9550083932072068
0.07104718509287171
-0.6948862597839844
-0.9550083932072068
0.07104718509287171
-0.6948862597839844
-0.9550083932072068
0.07104718509287171
-0.6948862597839844
-0.9521647935391607
0.07143762489661154
-0.6957749124095054
-0.9521647935391607
0.07143762489661154
-0.6957749124095054
-0.9521647935391607
0.07143762489661154
-0.6957749124095054
-0.9521647935391607
0.07143762489661154
-0.6957749124095054
-0.9515885977904902
0.0709490873603303
-0.6959724476453423
-0.9515885977904902
0.0709490873603303
-0.6959724476453423
-0.9515885977904902
0.0709490873603303
-0.6959724476453423
-0.9515885977904902
0.0709490873603303
-0.6959724476453423
-0.9509423771414929
0.07025177755127113
-0.696319402524607
-0.9509423771414929
0.07025177755127113
-0.696319402524607
-0.9509423771414929
0.07025177755127113
-0.696319402524607
-0.9509423771414929
0.07025177755127113
-0.696319402524607
-0.9513621821560247
0.069112540418323
-0.6968385113687788
-0.9513621821560247
0.069112540418323
-0.6968385113687788
-0.9513621821560247
0.069112540418323
-0.6968385113687788
-0.9513621821560247
0.069112540418323
-0.6968385113687788
-0.9530125205060922
0.06723349156640751
-0.6970767904413764
-0.9530125205060922
0.06723349156640751
-0.6970767904413764
-0.9530125205060922
0.06723349156640751
-0.6970767904413764
-0.9530125205060922
0.06723349156640751
-0.6970767904413764
-0.9533702703624904
0.06693063142329334
-0.6971548559860571
-0.9533702703624904
0.06693063142329334
-0.6971548559860571
-0.9533702703624904
0.06693063142329334
-0.6971548559860571
-0.9533702703624904
0.06693063142329334
-0.6971548559860571
-0.9529956199697023
0.06729758450659411
-0.6975437540238069
-0.9529956199697023
0.06729758450659411
-0.6975437540238069
-0.9529956199697023
0.06729758450659411
-0.6975437540238069
-0.9529956199697023
0.06729758450659411
-0.6975437540238069
-0.9510408186568263
0.06812363375439094
-0.6978331299505626
-0.9510408186568263
0.06812363375439094
-0.6978331299505626
-0.9510408186568263
0.06812363375439094
-0.6978331299505626
-0.9510408186568263
0.06812363375439094
-0.6978331299505626
-0.9507437469509852
0.06852306379766346
-0.698415747903322
-0.9507437469509852
0.06852306379766346
-0.698415747903322
-0.9507437469509852
0.06852306379766346
-0.698415747903322
-0.9507437469509852
0.06852306379766346
-0.698415747903322
-0.9526121256384608
0.06929949599716435
-0.6988210252370529
-0.9526121256384608
0.06929949599716435
-0.6988210252370529
-0.9526121256384608
0.06929949599716435
-0.6988210252370529
-0.9526121256384608
0.06929949599716435
-0.6988210252370529
-0.9546848572670412
0.07081234971559494
-0.6990536704675785
-0.9546848572670412
0.07081234971559494
-0.6990536704675785
-0.9546848572670412
0.07081234971559494
-0.6990536704675785
-0.9546848572670412
0.07081234971559494
-0.6990536704675785
-0.9549966732523998
0.07116225634007534
-0.6992936033574231
-0.9549966732523998
0.07116225634007534
-0.6992936033574231
-0.9549966732523998
0.07116225634007534
-0.6992936033574231
-0.9549966732523998
0.07116225634007534
-0.6992936033574231
-0.953531999451313
0.07094031050341398
-0.6995839305800704
-0.953531999451313
0.07094031050341398
-0.6995839305800704
-0.953531999451313
0.07094031050341398
-0.6995839305800704
-0.953531999451313
0.07094031050341398
-0.6995839305800704
-0.9525034520295655
0.070499783515061
-0.6996958577229357
-0.9525034520295655
0.070499783515061
-0.6996958577229357
-0.9525034520295655
0.070499783515061
-0.6996958577229357
-0.9525034520295655
0.070499783515061
-0.6996958577229357
-0.952930309833059
0.06987916152416869
-0.7000483231312254
-0.952930309833059
0.06987916152416869
-0.7000483231312254
-0.952930309833059
0.06987916152416869
-0.7000483231312254
-0.952930309833059
0.06987916152416869
-0.7000483231312254
-0.9531856544767084
0.06897059037818494
-0.7001994452301625
-0.9531856544767084
0.06897059037818494
-0.7001994452301625
-0.9531856544767084
0.06897059037818494
-0.7001994452301625
-0.9531856544767084
0.06897059037818494
-0.7001994452301625
-0.9532055811210108
0.06786153631970565
-0.700671196723962
-0.9532055811210108
0.06786153631970565
-0.700671196723962
-0.9532055811210108
0.06786153631970565
-0.700671196723962
-0.9532055811210108
0.06786153631970565
-0.700671196723962
-0.9530632346090989
0.06727312742299485
-0.7010554580239315
-0.9530632346090989
0.06727312742299485
-0.7010554580239315
-0.9530632346090989
0.06727312742299485
-0.7010554580239315
-0.9530632346090989
0.06727312742299485
-0.7010554580239315
-0.9533505978323682
0.06693154178571546
-0.7011958745315698
-0.9533505978323682
0.06693154178571546
-0.7011958745315698
-0.9533505978323682
0.06693154178571546
-0.7011958745315698
-0.9533505978323682
0.06693154178571546
-0.7011958745315698
-0.9533505978323682
0.06693154178571546
-0.7011958745315698
-0.9533505978323682
0.06693154178571546
-0.7011958745315698
-0.9533505978323682
0.06693154178571546
-0.7011958745315698
-0.9533505978323682
0.06693154178571546
-0.7011958745315698
-0.9533505978323682
0.06693154178571546
-0.7011958745315698
-0.9533505978323682
0.06693154178571546
-0.7011958745315698
-0.9533505978323682
0.06693154178571546
-0.7011958745315698
-0.9533505978323682
0.06693154178571546
-0.7011958745315698
-0.9532492063475249
0.06697053457362374
-0.7012117259860966
-0.9532492063475249
0.06697053457362374
-0.7012117259860966
-0.9532492063475249
0.06697053457362374
-0.7012117259860966
-0.9532492063475249
0.06697053457362374
-0.7012117259860966
-0.9540056190834062
0.06745021097955124
-0.7011921697846483
-0.9540056190834062
0.06745021097955124
-0.7011921697846483
-0.9540056190834062
0.06745021097955124
-0.7011921697846483
-0.9540056190834062
0.06745021097955124
-0.7011921697846483
-0.9536634482201342
0.06792547667071776
-0.7013783189764718
-0.9536634482201342
0.06792547667071776
-0.7013783189764718
-0.9536634482201342
0.06792547667071776
-0.7013783189764718
-0.9536634482201342
0.06792547667071776
-0.7013783189764718
-0.9521750823090047
0.06794662493437068
-0.7017947394594675
-0.9521750823090047
0.06794662493437068
-0.7017947394594675
-0.9521750823090047
0.06794662493437068
-0.7017947394594675
-0.9521750823090047
0.06794662493437068
-0.7017947394594675
-0.9518076466899053
0.0678487845157905
-0.7022477847621449
-0.9518076466899053
0.0678487845157905
-0.7022477847621449
-0.9518076466899053
0.0678487845157905
-0.7022477847621449
-0.9518076466899053
0.0678487845157905
-0.7022477847621449
-0.9517887444122073
0.067387263556773
-0.7031373775496832
-0.9517887444122073
0.067387263556773
-0.7031373775496832
-0.9517887444122073
0.067387263556773
-0.7031373775496832
-0.9517887444122073
0.067387263556773
-0.7031373775496832
-0.9522580064676374
0.06651931495488327
-0.7039732154880395
-0.9522580064676374
0.06651931495488327
-0.7039732154880395
-0.9522580064676374
0.06651931495488327
-0.7039732154880395
-0.9522580064676374
0.06651931495488327
-0.7039732154880395
-0.953452802875251
0.0659038663481131
-0.7046254867841871
-0.953452802875251
0.0659038663481131
-0.7046254867841871
-0.953452802875251
0.0659038663481131
-0.7046254867841871
-0.953452802875251
0.0659038663481131
-0.7046254867841871
-0.9543227444374941
0.06569967283413301
-0.7049967344187399
-0.9543227444374941
0.06569967283413301
-0.7049967344187399
-0.9543227444374941
0.06569967283413301
-0.7049967344187399
-0.9543227444374941
0.06569967283413301
-0.7049967344187399
-0.954422700824041
0.0654896250114163
-0.705067280744365
-0.954422700824041
0.0654896250114163
-0.705067280744365
-0.954422700824041
0.0654896250114163
-0.705067280744365
-0.954422700824041
0.0654896250114163
-0.705067280744365
-0.9536773223991284
0.06570205038386746
-0.7048353326897943
-0.9536773223991284
0.06570205038386746
-0.7048353326897943
-0.9536773223991284
0.06570205038386746
-0.7048353326897943
-0.9536773223991284
0.06570205038386746
-0.7048353326897943
-0.9542949750623622
0.06600074568438666
-0.7044117935531753
-0.9542949750623622
0.06600074568438666
-0.7044117935531753
-0.9542949750623622
0.06600074568438666
-0.7044117935531753
-0.9542949750623622
0.06600074568438666
-0.7044117935531753
-0.9547162867604799
0.06648890148722353
-0.7046427214959657
-0.9547162867604799
0.06648890148722353
-0.7046427214959657
-0.9547162867604799
0.06648890148722353
-0.7046427214959657
-0.9547162867604799
0.06648890148722353
-0.7046427214959657
-0.9549897733158845
0.06702540903865209
-0.7051071506948177
-0.9549897733158845
0.06702540903865209
-0.7051071506948177
-0.9549897733158845
0.06702540903865209
-0.7051071506948177
-0.9549897733158845
0.06702540903865209
-0.7051071506948177
-0.954888502235745
0.06706458928223379
-0.7051231352096335
-0.954888502235745
0.06706458928223379
-0.7051231352096335
-0.954888502235745
0.06706458928223379
-0.7051231352096335
-0.954888502235745
0.06706458928223379
-0.7051231352096335
-0.954888502235745
0.06706458928223379
-0.7051231352096335
-0.954888502235745
0.06706458928223379
-0.7051231352096335
-0.954888502235745
0.06706458928223379
-0.7051231352096335
-0.954888502235745
0.06706458928223379
-0.7051231352096335
-0.9556640568555107
0.06660396238667449
-0.705487953594373
-0.9556640568555107
0.06660396238667449
-0.705487953594373
-0.9556640568555107
0.06660396238667449
-0.705487953594373
-0.9556640568555107
0.06660396238667449
-0.705487953594373
-0.9563613901212905
0.06622932015845957
-0.7060237399406929
-0.9563613901212905
0.06622932015845957
-0.7060237399406929
-0.9563613901212905
0.06622932015845957
-0.7060237399406929
-0.9563613901212905
0.06622932015845957
-0.7060237399406929
-0.9562453642267414
0.0652217347975151
-0.7066258108332446
-0.9562453642267414
0.0652217347975151
-0.7066258108332446
-0.9562453642267414
0.0652217347975151
-0.7066258108332446
-0.9562453642267414
0.0652217347975151
-0.7066258108332446
-0.9563001371347968
0.0642127301666654
-0.7071498133940515
-0.9563001371347968
0.0642127301666654
-0.7071498133940515
-0.9563001371347968
0.0642127301666654
-0.7071498133940515
-0.9563001371347968
0.0642127301666654
-0.7071498133940515
-0.9566301591789615
0.06350506214864797
-0.7074062954821528
-0.9566301591789615
0.06350506214864797
-0.7074062954821528
-0.9566301591789615
0.06350506214864797
-0.7074062954821528
-0.9566301591789615
0.06350506214864797
-0.7074062954821528
-0.9575379039842471
0.06282370017985946
-0.7072710606388984
-0.9575379039842471
0.06282370017985946
-0.7072710606388984
-0.9575379039842471
0.06282370017985946
-0.7072710606388984
-0.9575379039842471
0.06282370017985946
-0.7072710606388984
-0.9576390825617138
0.06278454159627037
-0.7072547531310089
-0.9576390825617138
0.06278454159627037
-0.7072547531310089
-0.9576390825617138
0.06278454159627037
-0.7072547531310089
-0.9576390825617138
0.06278454159627037
-0.7072547531310089
-0.9578156622119811
0.06260497406982636
-0.7075192578690446
-0.9578156622119811
0.06260497406982636
-0.7075192578690446
-0.9578156622119811
0.06260497406982636
-0.7075192578690446
-0.9578156622119811
0.06260497406982636
-0.7075192578690446
-0.9581389272373604
0.06219211508107408
-0.7077981683703758
-0.9581389272373604
0.06219211508107408
-0.7077981683703758
-0.9581389272373604
0.06219211508107408
-0.7077981683703758
-0.9581389272373604
0.06219211508107408
-0.7077981683703758
-0.9581335509891757
0.061376957829295066
-0.7079391630559183
-0.9581335509891757
0.061376957829295066
-0.7079391630559183
-0.9581335509891757
0.061376957829295066
-0.7079391630559183
-0.9581335509891757
0.061376957829295066
-0.7079391630559183
-0.9590639664053854
0.06074238818648948
-0.7079576420600081
-0.9590639664053854
0.06074238818648948
-0.7079576420600081
-0.9590639664053854
0.06074238818648948
-0.7079576420600081
-0.9590639664053854
0.06074238818648948
-0.7079576420600081
-0.9608972728559245
0.060180463104662366
-0.7080551493844476
-0.9608972728559245
0.060180463104662366
-0.7080551493844476
-0.9608972728559245
0.060180463104662366
-0.7080551493844476
-0.9608972728559245
0.060180463104662366
-0.7080551493844476
-0.9614746150260312
0.059500943808230504
-0.7084251211213333
-0.9614746150260312
0.059500943808230504
-0.7084251211213333
-0.9614746150260312
0.059500943808230504
-0.7084251211213333
-0.9614746150260312
0.059500943808230504
-0.7084251211213333
-0.9609725844331829
0.059216943447595184
-0.7087317593300402
-0.9609725844331829
0.059216943447595184
-0.7087317593300402
-0.9609725844331829
0.059216943447595184
-0.7087317593300402
-0.9609725844331829
0.059216943447595184
-0.7087317593300402
-0.9612680114975102
0.05922304512863966
-0.7087918532732629
-0.9612680114975102
0.05922304512863966
-0.7087918532732629
-0.9612680114975102
0.05922304512863966
-0.7087918532732629
-0.9612680114975102
0.05922304512863966
-0.7087918532732629
-0.9615225845430347
0.05895674965132208
-0.7088839344833099
-0.9615225845430347
0.05895674965132208
-0.7088839344833099
-0.9615225845430347
0.05895674965132208
-0.7088839344833099
-0.9615225845430347
0.05895674965132208
-0.7088839344833099
-0.9607599464017574
0.05894625745113157
-0.7088423323787035
-0.9607599464017574
0.05894625745113157
-0.7088423323787035
-0.9607599464017574
0.05894625745113157
-0.7088423323787035
-0.9607599464017574
0.05894625745113157
-0.7088423323787035
-0.9585015989312003
0.059255911122139446
-0.7092472680633236
-0.9585015989312003
0.059255911122139446
-0.7092472680633236
-0.9585015989312003
0.059255911122139446
-0.7092472680633236
-0.9585015989312003
0.059255911122139446
-0.7092472680633236
-0.954816293789854
0.06067651841203639
-0.7087231998281571
-0.954816293789854
0.06067651841203639
-0.7087231998281571
-0.954816293789854
0.06067651841203639
-0.7087231998281571
-0.954816293789854
0.06067651841203639
-0.7087231998281571
-0.9488549330897993
0.062764720313366
-0.7076503432271566
-0.9488549330897993
0.062764720313366
-0.7076503432271566
-0.9488549330897993
0.062764720313366
-0.7076503432271566
-0.9488549330897993
0.062764720313366
-0.7076503432271566
-0.9443008922085439
0.06606774169271241
-0.7057388571763704
-0.9443008922085439
0.06606774169271241
-0.7057388571763704
-0.9443008922085439
0.06606774169271241
-0.7057388571763704
-0.9443008922085439
0.06606774169271241
-0.7057388571763704
-0.9378751295786302
0.07139114933910884
-0.7040572683721977
-0.9378751295786302
0.07139114933910884
-0.7040572683721977
-0.9378751295786302
0.07139114933910884
-0.7040572683721977
-0.9378751295786302
0.07139114933910884
-0.7040572683721977
-0.925551395127433
0.07780570493606494
-0.7021463566821596
-0.925551395127433
0.07780570493606494
-0.7021463566821596
-0.925551395127433
0.07780570493606494
-0.7021463566821596
-0.925551395127433
0.07780570493606494
-0.7021463566821596
-0.906134231697673
0.08317905968961335
-0.6999106652291307
-0.906134231697673
0.08317905968961335
-0.6999106652291307
-0.906134231697673
0.08317905968961335
-0.6999106652291307
-0.906134231697673
0.08317905968961335
-0.6999106652291307
-0.8788843356506291
0.08653879628989447
-0.6976917998531597
-0.8788843356506291
0.08653879628989447
-0.6976917998531597
-0.8788843356506291
0.08653879628989447
-0.6976917998531597
-0.8788843356506291
0.08653879628989447
-0.6976917998531597
-0.8445289056596157
0.08769611726061381
-0.6949084294701898
-0.8445289056596157
0.08769611726061381
-0.6949084294701898
-0.8445289056596157
0.08769611726061381
-0.6949084294701898
-0.8445289056596157
0.08769611726061381
-0.6949084294701898
-0.8091473905451699
0.08851119656109262
-0.6906669493477617
-0.8091473905451699
0.08851119656109262
-0.6906669493477617
-0.8091473905451699
0.08851119656109262
-0.6906669493477617
-0.8091473905451699
0.08851119656109262
-0.6906669493477617
-0.7752544597120878
0.08903190095484502
-0.6847956717392951
-0.7752544597120878
0.08903190095484502
-0.6847956717392951
-0.7752544597120878
0.08903190095484502
-0.6847956717392951
-0.7752544597120878
0.08903190095484502
-0.6847956717392951
-0.7455876251742981
0.08950903626534769
-0.676451922566292
-0.7455876251742981
0.08950903626534769
-0.676451922566292
-0.7455876251742981
0.08950903626534769
-0.676451922566292
-0.7455876251742981
0.08950903626534769
-0.676451922566292
-0.7215622255601619
0.0906083576063622
-0.666144299761607
-0.7215622255601619
0.0906083576063622
-0.666144299761607
-0.7215622255601619
0.0906083576063622
-0.666144299761607
-0.7215622255601619
0.0906083576063622
-0.666144299761607
-0.7017665267266061
0.0903320171422857
-0.6552306628372784
-0.7017665267266061
0.0903320171422857
-0.6552306628372784
-0.7017665267266061
0.0903320171422857
-0.6552306628372784
-0.7017665267266061
0.0903320171422857
-0.6552306628372784
-0.6839102203040167
0.08712084419621374
-0.6457393184100901
-0.6839102203040167
0.08712084419621374
-0.6457393184100901
-0.6839102203040167
0.08712084419621374
-0.6457393184100901
-0.6839102203040167
0.08712084419621374
-0.6457393184100901
-0.6662107824590414
0.08087650162702063
-0.6392028534915886
-0.6662107824590414
0.08087650162702063
-0.6392028534915886
-0.6662107824590414
0.08087650162702063
-0.6392028534915886
-0.6662107824590414
0.08087650162702063
-0.6392028534915886
-0.6452676228310602
0.07411988546590301
-0.6351381452511453
-0.6452676228310602
0.07411988546590301
-0.6351381452511453
-0.6452676228310602
0.07411988546590301
-0.6351381452511453
-0.6452676228310602
0.07411988546590301
-0.6351381452511453
-0.6181838294925426
0.06801981302238955
-0.6314138060279663
-0.6181838294925426
0.06801981302238955
-0.6314138060279663
-0.6181838294925426
0.06801981302238955
-0.6314138060279663
-0.6181838294925426
0.06801981302238955
-0.6314138060279663
-0.5881872626872194
0.0634841667098343
-0.6268989797379819
-0.5881872626872194
0.0634841667098343
-0.6268989797379819
-0.5881872626872194
0.0634841667098343
-0.6268989797379819
-0.5881872626872194
0.0634841667098343
-0.6268989797379819
-0.5625237808607686
0.05812620095589339
-0.6217490132722092
-0.5625237808607686
0.05812620095589339
-0.6217490132722092
-0.5625237808607686
0.05812620095589339
-0.6217490132722092
-0.5625237808607686
0.05812620095589339
-0.6217490132722092
-0.5502313863261993
0.05101839165754514
-0.6159728739405317
-0.5502313863261993
0.05101839165754514
-0.6159728739405317
-0.5502313863261993
0.05101839165754514
-0.6159728739405317
-0.5502313863261993
0.05101839165754514
-0.6159728739405317
-0.5515341165594894
0.04167388222051107
-0.6096690989590291
-0.5515341165594894
0.04167388222051107
-0.6096690989590291
-0.5515341165594894
0.04167388222051107
-0.6096690989590291
-0.5515341165594894
0.04167388222051107
-0.6096690989590291
-0.5581341778366254
0.03229318268293922
-0.6035536004614539
-0.5581341778366254
0.03229318268293922
-0.6035536004614539
-0.5581341778366254
0.03229318268293922
-0.6035536004614539
-0.5581341778366254
0.03229318268293922
-0.6035536004614539
-0.561907025081175
0.024490787956001216
-0.5983302338020072
-0.561907025081175
0.024490787956001216
-0.5983302338020072
-0.561907025081175
0.024490787956001216
-0.5983302338020072
-0.561907025081175
0.024490787956001216
-0.5983302338020072
-0.5590980722698204
0.018349822656031457
-0.5944219651722358
-0.5590980722698204
0.018349822656031457
-0.5944219651722358
-0.5590980722698204
0.018349822656031457
-0.5944219651722358
-0.5590980722698204
0.018349822656031457
-0.5944219651722358
-0.5522895928016601
0.013743880493864912
-0.5921800156703021
-0.5522895928016601
0.013743880493864912
-0.5921800156703021
-0.5522895928016601
0.013743880493864912
-0.5921800156703021
-0.5522895928016601
0.013743880493864912
-0.5921800156703021
-0.5467079647394918
0.01091784181216326
-0.5912691729034522
-0.5467079647394918
0.01091784181216326
-0.5912691729034522
-0.5467079647394918
0.01091784181216326
-0.5912691729034522
-0.5467079647394918
0.01091784181216326
-0.5912691729034522
-0.5458994167732338
0.009422639801886545
-0.5903716384135484
-0.5458994167732338
0.009422639801886545
-0.5903716384135484
-0.5458994167732338
0.009422639801886545
-0.5903716384135484
-0.5458994167732338
0.009422639801886545
-0.5903716384135484
-0.548436904141573
0.008960449560857276
-0.5892723615056321
-0.548436904141573
0.008960449560857276
-0.5892723615056321
-0.548436904141573
0.008960449560857276
-0.5892723615056321
-0.548436904141573
0.008960449560857276
-0.5892723615056321
-0.5523397023003421
0.009016469508076958
-0.588191224826779
-0.5523397023003421
0.009016469508076958
-0.588191224826779
-0.5523397023003421
0.009016469508076958
-0.588191224826779
-0.5523397023003421
0.009016469508076958
-0.588191224826779
-0.5558292621509494
0.009446980800156659
-0.5871773235864437
-0.5558292621509494
0.009446980800156659
-0.5871773235864437
-0.5558292621509494
0.009446980800156659
-0.5871773235864437
-0.5558292621509494
0.009446980800156659
-0.5871773235864437
-0.5582347906189284
0.009770230265455628
-0.5862975825075767
-0.5582347906189284
0.009770230265455628
-0.5862975825075767
-0.5582347906189284
0.009770230265455628
-0.5862975825075767
-0.5582347906189284
0.009770230265455628
-0.5862975825075767
-0.5586228947793123
0.009565353948346407
-0.5852312883062826
-0.5586228947793123
0.009565353948346407
-0.5852312883062826
-0.5586228947793123
0.009565353948346407
-0.5852312883062826
-0.5586228947793123
0.009565353948346407
-0.5852312883062826
-0.5569275834780731
0.009409757123320367
-0.5847525090491643
-0.5569275834780731
0.009409757123320367
-0.5847525090491643
-0.5569275834780731
0.009409757123320367
-0.5847525090491643
-0.5569275834780731
0.009409757123320367
-0.5847525090491643
-0.5547895518697621
0.009405074241138619
-0.5846797863301657
-0.5547895518697621
0.009405074241138619
-0.5846797863301657
-0.5547895518697621
0.009405074241138619
-0.5846797863301657
-0.5547895518697621
0.009405074241138619
-0.5846797863301657
-0.5531604987285823
0.01003677070825226
-0.5851062753254984
-0.5531604987285823
0.01003677070825226
-0.5851062753254984
-0.5531604987285823
0.01003677070825226
-0.5851062753254984
-0.5531604987285823
0.01003677070825226
-0.5851062753254984
-0.5539745117420664
0.011562985444973783
-0.5858970251567615
-0.5539745117420664
0.011562985444973783
-0.5858970251567615
-0.5539745117420664
0.011562985444973783
-0.5858970251567615
-0.5539745117420664
0.011562985444973783
-0.5858970251567615
-0.5567437341038021
0.014055979525171382
-0.5863227132856804
-0.5567437341038021
0.014055979525171382
-0.5863227132856804
-0.5567437341038021
0.014055979525171382
-0.5863227132856804
-0.5567437341038021
0.014055979525171382
-0.5863227132856804
-0.5606798020686152
0.017212086412754703
-0.5869447085812107
-0.5606798020686152
0.017212086412754703
-0.5869447085812107
-0.5606798020686152
0.017212086412754703
-0.5869447085812107
-0.5606798020686152
0.017212086412754703
-0.5869447085812107
-0.5661518273256568
0.021180592622777605
-0.5882590513445809
-0.5661518273256568
0.021180592622777605
-0.5882590513445809
-0.5661518273256568
0.021180592622777605
-0.5882590513445809
-0.5661518273256568
0.021180592622777605
-0.5882590513445809
-0.5743705873322312
0.026443326256169287
-0.590516760226513
-0.5743705873322312
0.026443326256169287
-0.590516760226513
-0.5743705873322312
0.026443326256169287
-0.590516760226513
-0.5743705873322312
0.026443326256169287
-0.590516760226513
-0.5854593355480963
0.0328239166612725
-0.5937475763893773
-0.5854593355480963
0.0328239166612725
-0.5937475763893773
-0.5854593355480963
0.0328239166612725
-0.5937475763893773
-0.5854593355480963
0.0328239166612725
-0.5937475763893773
-0.5995023274740039
0.03896357476445407
-0.597466400033535
-0.5995023274740039
0.03896357476445407
-0.597466400033535
-0.5995023274740039
0.03896357476445407
-0.597466400033535
-0.5995023274740039
0.03896357476445407
-0.597466400033535
-0.6184785571459472
0.04402888160225712
-0.6019914754241544
-0.6184785571459472
0.04402888160225712
-0.6019914754241544
-0.6184785571459472
0.04402888160225712
-0.6019914754241544
-0.6184785571459472
0.04402888160225712
-0.6019914754241544
-0.6420978270713226
0.047863232449737
-0.6083482728571126
-0.6420978270713226
0.047863232449737
-0.6083482728571126
-0.6690391365374972
0.04945683577416914
-0.6144573878822255
-0.6690391365374972
0.04945683577416914
-0.6144573878822255
-0.6690391365374972
0.04945683577416914
-0.6144573878822255
-0.6690391365374972
0.04945683577416914
-0.6144573878822255
-0.7037829269085311
0.04828040645695569
-0.6189838471238406
-0.7037829269085311
0.04828040645695569
-0.6189838471238406
-0.7037829269085311
0.04828040645695569
-0.6189838471238406
-0.7037829269085311
0.04828040645695569
-0.6189838471238406
-0.7464135532939844
0.048016255927012995
-0.6241123699947407
-0.7464135532939844
0.048016255927012995
-0.6241123699947407
-0.7464135532939844
0.048016255927012995
-0.6241123699947407
-0.7464135532939844
0.048016255927012995
-0.6241123699947407
-0.7939219249080928
0.04919527675202537
-0.6313014637195247
-0.7939219249080928
0.04919527675202537
-0.6313014637195247
-0.7939219249080928
0.04919527675202537
-0.6313014637195247
-0.7939219249080928
0.04919527675202537
-0.6313014637195247
-0.8432940330184929
0.05056046743587255
-0.6360523802996889
-0.8432940330184929
0.05056046743587255
-0.6360523802996889
-0.8432940330184929
0.05056046743587255
-0.6360523802996889
-0.8432940330184929
0.05056046743587255
-0.6360523802996889
-0.8806060085412427
0.05162410188496063
-0.640637132183405
-0.8806060085412427
0.05162410188496063
-0.640637132183405
-0.8806060085412427
0.05162410188496063
-0.640637132183405
-0.8806060085412427
0.05162410188496063
-0.640637132183405
-0.8985813390463058
0.04880956229010067
-0.6479640963116923
-0.8985813390463058
0.04880956229010067
-0.6479640963116923
-0.8985813390463058
0.04880956229010067
-0.6479640963116923
-0.8985813390463058
0.04880956229010067
-0.6479640963116923
-0.8935917746737073
0.04293867778100416
-0.6574399083389157
-0.8935917746737073
0.04293867778100416
-0.6574399083389157
-0.8935917746737073
0.04293867778100416
-0.6574399083389157
-0.8935917746737073
0.04293867778100416
-0.6574399083389157
-0.8907457142232265
0.03735048510098021
-0.6651826332665358
-0.8907457142232265
0.03735048510098021
-0.6651826332665358
-0.8907457142232265
0.03735048510098021
-0.6651826332665358
-0.8907457142232265
0.03735048510098021
-0.6651826332665358
-0.8947133320025604
0.031632399496458775
-0.6698552178947687
-0.8947133320025604
0.031632399496458775
-0.6698552178947687
-0.8947133320025604
0.031632399496458775
-0.6698552178947687
-0.8947133320025604
0.031632399496458775
-0.6698552178947687
-0.9049972395213254
0.027564794374038304
-0.6719265190824744
-0.9049972395213254
0.027564794374038304
-0.6719265190824744
-0.9049972395213254
0.027564794374038304
-0.6719265190824744
-0.9049972395213254
0.027564794374038304
-0.6719265190824744
-0.9161229345185264
0.025598332254248082
-0.6731241827133905
-0.9161229345185264
0.025598332254248082
-0.6731241827133905
-0.9161229345185264
0.025598332254248082
-0.6731241827133905
-0.9161229345185264
0.025598332254248082
-0.6731241827133905
-0.9216060907214509
0.024551270505132
-0.6737487185119417
-0.9216060907214509
0.024551270505132
-0.6737487185119417
-0.9216060907214509
0.024551270505132
-0.6737487185119417
-0.9216060907214509
0.024551270505132
-0.6737487185119417
-0.9224308225960547
0.02426394635923111
-0.6737956390081822
-0.9224308225960547
0.02426394635923111
-0.6737956390081822
-0.9224308225960547
0.02426394635923111
-0.6737956390081822
-0.9224308225960547
0.02426394635923111
-0.6737956390081822
-0.9198316654978184
0.02459729144099145
-0.674038543563237
-0.9198316654978184
0.02459729144099145
-0.674038543563237
-0.9198316654978184
0.02459729144099145
-0.674038543563237
-0.9198316654978184
0.02459729144099145
-0.674038543563237
-0.9159741660379654
0.026296926070250876
-0.6741541047017989
-0.9159741660379654
0.026296926070250876
-0.6741541047017989
-0.9159741660379654
0.026296926070250876
-0.6741541047017989
-0.9159741660379654
0.026296926070250876
-0.6741541047017989
-0.9145851656867283
0.02927084007230324
-0.6740834731669505
-0.9145851656867283
0.02927084007230324
-0.6740834731669505
-0.9145851656867283
0.02927084007230324
-0.6740834731669505
-0.9145851656867283
0.02927084007230324
-0.6740834731669505
-0.9159638005290577
0.030875516712512874
-0.6745609406863633
-0.9159638005290577
0.030875516712512874
-0.6745609406863633
-0.9159638005290577
0.030875516712512874
-0.6745609406863633
-0.9159638005290577
0.030875516712512874
-0.6745609406863633
-0.9181108562540246
0.03169143650276698
-0.6752293641657289
-0.9181108562540246
0.03169143650276698
-0.6752293641657289
-0.9181108562540246
0.03169143650276698
-0.6752293641657289
-0.9181108562540246
0.03169143650276698
-0.6752293641657289
-0.9174039820154928
0.03259078375132088
-0.6765613978059037
-0.9174039820154928
0.03259078375132088
-0.6765613978059037
-0.9174039820154928
0.03259078375132088
-0.6765613978059037
-0.9174039820154928
0.03259078375132088
-0.6765613978059037
-0.9136376002811606
0.03352484674559467
-0.677617248099196
-0.9136376002811606
0.03352484674559467
-0.677617248099196
-0.9136376002811606
0.03352484674559467
-0.677617248099196
-0.9136376002811606
0.03352484674559467
-0.677617248099196
-0.910274146350714
0.0343121975260081
-0.6780902458012509
-0.910274146350714
0.0343121975260081
-0.6780902458012509
-0.910274146350714
0.0343121975260081
-0.6780902458012509
-0.910274146350714
0.0343121975260081
-0.6780902458012509
-0.9108475859452962
0.034757013721930456
-0.678838483580728
-0.9108475859452962
0.034757013721930456
-0.678838483580728
-0.9108475859452962
0.034757013721930456
-0.678838483580728
-0.9108475859452962
0.034757013721930456
-0.678838483580728
-0.9120647186254095
0.03537985068821596
-0.6796484057267961
-0.9120647186254095
0.03537985068821596
-0.6796484057267961
-0.9120647186254095
0.03537985068821596
-0.6796484057267961
-0.9120647186254095
0.03537985068821596
-0.6796484057267961
-0.9119329152267934
0.035615727115727754
-0.680749761536469
-0.9119329152267934
0.035615727115727754
-0.680749761536469
-0.9119329152267934
0.035615727115727754
-0.680749761536469
-0.9119329152267934
0.035615727115727754
-0.680749761536469
-0.9105799468530783
0.03616724405158642
-0.6817568491694554
-0.9105799468530783
0.03616724405158642
-0.6817568491694554
-0.9105799468530783
0.03616724405158642
-0.6817568491694554
-0.9105799468530783
0.03616724405158642
-0.6817568491694554
-0.9101131961229286
0.03645918658343572
-0.6824032458247872
-0.9101131961229286
0.03645918658343572
-0.6824032458247872
-0.9101131961229286
0.03645918658343572
-0.6824032458247872
-0.9101131961229286
0.03645918658343572
-0.6824032458247872
-0.9109171475264266
0.03624336348610231
-0.683179949572093
-0.9109171475264266
0.03624336348610231
-0.683179949572093
-0.9109171475264266
0.03624336348610231
-0.683179949572093
-0.9109171475264266
0.03624336348610231
-0.683179949572093
-0.9138023502307606
0.036203805484333766
-0.6832839548736142
-0.9138023502307606
0.036203805484333766
-0.6832839548736142
-0.9138023502307606
0.036203805484333766
-0.6832839548736142
-0.9138023502307606
0.036203805484333766
-0.6832839548736142
-0.9156511533994858
0.036012863489279914
-0.6835426142635683
-0.9156511533994858
0.036012863489279914
-0.6835426142635683
-0.9156511533994858
0.036012863489279914
-0.6835426142635683
-0.9156511533994858
0.036012863489279914
-0.6835426142635683
-0.9142686658379389
0.03552582454226583
-0.6840387810970838
-0.9142686658379389
0.03552582454226583
-0.6840387810970838
-0.9142686658379389
0.03552582454226583
-0.6840387810970838
-0.9142686658379389
0.03552582454226583
-0.6840387810970838
-0.912816843033459
0.035991316764086206
-0.6844429676086144
-0.912816843033459
0.035991316764086206
-0.6844429676086144
-0.912816843033459
0.035991316764086206
-0.6844429676086144
-0.912816843033459
0.035991316764086206
-0.6844429676086144
-0.9127132361392515
0.03632421515148397
-0.6849896628245501
-0.9127132361392515
0.03632421515148397
-0.6849896628245501
-0.9127132361392515
0.03632421515148397
-0.6849896628245501
-0.9127132361392515
0.03632421515148397
-0.6849896628245501
-0.914344606704435
0.03684296890502072
-0.6848616488074201
-0.914344606704435
0.03684296890502072
-0.6848616488074201
-0.914344606704435
0.03684296890502072
-0.6848616488074201
-0.914344606704435
0.03684296890502072
-0.6848616488074201
-0.915713761108698
0.03710726569474049
-0.6848155734140232
-0.915713761108698
0.03710726569474049
-0.6848155734140232
-0.915713761108698
0.03710726569474049
-0.6848155734140232
-0.915713761108698
0.03710726569474049
-0.6848155734140232
-0.9157514906035291
0.037210051160108636
-0.6848671099767181
-0.9157514906035291
0.037210051160108636
-0.6848671099767181
-0.9157514906035291
0.037210051160108636
-0.6848671099767181
-0.9157514906035291
0.037210051160108636
-0.6848671099767181
-0.9159058867314813
0.037156145514363165
-0.68488863015731
-0.9159058867314813
0.037156145514363165
-0.68488863015731
-0.9159058867314813
0.037156145514363165
-0.68488863015731
-0.9159058867314813
0.037156145514363165
-0.68488863015731
-0.915597549005806
0.03692279442145917
-0.685280956614983
-0.915597549005806
0.03692279442145917
-0.685280956614983
-0.915597549005806
0.03692279442145917
-0.685280956614983
-0.915597549005806
0.03692279442145917
-0.685280956614983
-0.9163256324578793
0.03683952277215853
-0.6855189102073271
-0.9163256324578793
0.03683952277215853
-0.6855189102073271
-0.9163256324578793
0.03683952277215853
-0.6855189102073271
-0.9163256324578793
0.03683952277215853
-0.6855189102073271
-0.9174462565244312
0.03672977331746424
-0.6855400953759134
-0.9174462565244312
0.03672977331746424
-0.6855400953759134
-0.9174462565244312
0.03672977331746424
-0.6855400953759134
-0.9174462565244312
0.03672977331746424
-0.6855400953759134
-0.9184560849527499
0.036482507499538595
-0.6853173330313692
-0.9184560849527499
0.036482507499538595
-0.6853173330313692
-0.9184560849527499
0.036482507499538595
-0.6853173330313692
-0.9184560849527499
0.036482507499538595
-0.6853173330313692
-0.9194362459852436
0.0363078364818734
-0.6853028246100791
-0.9194362459852436
0.0363078364818734
-0.6853028246100791
-0.9194362459852436
0.0363078364818734
-0.6853028246100791
-0.9194362459852436
0.0363078364818734
-0.6853028246100791
-0.9194362459852436
0.0363078364818734
-0.6853028246100791
-0.9194362459852436
0.0363078364818734
-0.6853028246100791
-0.9194362459852436
0.0363078364818734
-0.6853028246100791
-0.9194362459852436
0.0363078364818734
-0.6853028246100791
-0.9194008698186984
0.03637583051906477
-0.685162365143978
-0.9194008698186984
0.03637583051906477
-0.685162365143978
-0.9194008698186984
0.03637583051906477
-0.685162365143978
-0.9194008698186984
0.03637583051906477
-0.685162365143978
-0.9202265877938519
0.03625523726846408
-0.6851263841600056
-0.9202265877938519
0.03625523726846408
-0.6851263841600056
-0.9202265877938519
0.03625523726846408
-0.6851263841600056
-0.9202265877938519
0.03625523726846408
-0.6851263841600056
-0.921569028627437
0.036122152138783475
-0.6850115644515921
-0.921569028627437
0.036122152138783475
-0.6850115644515921
-0.921569028627437
0.036122152138783475
-0.6850115644515921
-0.921569028627437
0.036122152138783475
-0.6850115644515921
-0.9221025131145447
0.035818869109131464
-0.6852643812506197
-0.9221025131145447
0.035818869109131464
-0.6852643812506197
-0.9221025131145447
0.035818869109131464
-0.6852643812506197
-0.9221025131145447
0.035818869109131464
-0.6852643812506197
-0.9221025131145447
0.035818869109131464
-0.6852643812506197
-0.9221025131145447
0.035818869109131464
-0.6852643812506197
-0.9221025131145447
0.035818869109131464
-0.6852643812506197
-0.9221025131145447
0.035818869109131464
-0.6852643812506197
-0.9228658076471153
0.03566658015902386
-0.68564199277255
-0.9228658076471153
0.03566658015902386
-0.68564199277255
-0.9228658076471153
0.03566658015902386
-0.68564199277255
-0.9228658076471153
0.03566658015902386
-0.68564199277255
-0.9228658076471153
0.03566658015902386
-0.68564199277255
-0.9228658076471153
0.03566658015902386
-0.68564199277255
-0.9228658076471153
0.03566658015902386
-0.68564199277255
-0.9228658076471153
0.03566658015902386
-0.68564199277255
-0.9222158625409745
0.035784088079855315
-0.6858541506689543
-0.9222158625409745
0.035784088079855315
-0.6858541506689543
-0.9222158625409745
0.035784088079855315
-0.6858541506689543
-0.9222158625409745
0.035784088079855315
-0.6858541506689543
-0.9223185399313379
0.03574642139320431
-0.6858377205326318
-0.9223185399313379
0.03574642139320431
-0.6858377205326318
-0.9223185399313379
0.03574642139320431
-0.6858377205326318
-0.9223185399313379
0.03574642139320431
-0.6858377205326318
-0.9235200926423313
0.03618814130930334
-0.6858767256932368
-0.9235200926423313
0.03618814130930334
-0.6858767256932368
-0.9235200926423313
0.03618814130930334
-0.6858767256932368
-0.9235200926423313
0.03618814130930334
-0.6858767256932368
-0.924039021256025
0.03664340578384974
-0.6863334567638011
-0.924039021256025
0.03664340578384974
-0.6863334567638011
-0.924039021256025
0.03664340578384974
-0.6863334567638011
-0.924039021256025
0.03664340578384974
-0.6863334567638011
-0.9231865956316455
0.036664443425048134
-0.6869238381214147
-0.9231865956316455
0.036664443425048134
-0.6869238381214147
-0.9231865956316455
0.036664443425048134
-0.6869238381214147
-0.9231865956316455
0.036664443425048134
-0.6869238381214147
-0.9219767189900384
0.03698651942736947
-0.6874370750637169
-0.9219767189900384
0.03698651942736947
-0.6874370750637169
-0.9219767189900384
0.03698651942736947
-0.6874370750637169
-0.9219767189900384
0.03698651942736947
-0.6874370750637169
-0.9226422285457216
0.037212843780733834
-0.6876544825694059
-0.9226422285457216
0.037212843780733834
-0.6876544825694059
-0.9226422285457216
0.037212843780733834
-0.6876544825694059
-0.9226422285457216
0.037212843780733834
-0.6876544825694059
-0.9234622473107796
0.03738479565860652
-0.6878934354164966
-0.9234622473107796
0.03738479565860652
-0.6878934354164966
-0.9234622473107796
0.03738479565860652
-0.6878934354164966
-0.9234622473107796
0.03738479565860652
-0.6878934354164966
-0.9239226249812246
0.03768641177850372
-0.6881439706810323
-0.9239226249812246
0.03768641177850372
-0.6881439706810323
-0.9239226249812246
0.03768641177850372
-0.6881439706810323
-0.9239226249812246
0.03768641177850372
-0.6881439706810323
-0.9240393043556503
0.03752967133863978
-0.6881134432122284
-0.9240393043556503
0.03752967133863978
-0.6881134432122284
-0.9240393043556503
0.03752967133863978
-0.6881134432122284
-0.9240393043556503
0.03752967133863978
-0.6881134432122284
-0.9240393043556503
0.03752967133863978
-0.6881134432122284
-0.9240393043556503
0.03752967133863978
-0.6881134432122284
-0.9240393043556503
0.03752967133863978
-0.6881134432122284
-0.9240393043556503
0.03752967133863978
-0.6881134432122284
-0.9241961528758952
0.03764627807480283
-0.6880463851290328
-0.9241961528758952
0.03764627807480283
-0.6880463851290328
-0.9241961528758952
0.03764627807480283
-0.6880463851290328
-0.9241961528758952
0.03764627807480283
-0.6880463851290328
-0.9250031022812819
0.038284935170699856
-0.6879580377542729
-0.9250031022812819
0.038284935170699856
-0.6879580377542729
-0.9250031022812819
0.038284935170699856
-0.6879580377542729
-0.9250031022812819
0.038284935170699856
-0.6879580377542729
-0.925739392194869
0.03871718190990751
-0.6880232011511148
-0.925739392194869
0.03871718190990751
-0.6880232011511148
-0.925739392194869
0.03871718190990751
-0.6880232011511148
-0.925739392194869
0.03871718190990751
-0.6880232011511148
-0.925739392194869
0.03871718190990751
-0.6880232011511148
-0.925739392194869
0.03871718190990751
-0.6880232011511148
-0.925739392194869
0.03871718190990751
-0.6880232011511148
-0.925739392194869
0.03871718190990751
-0.6880232011511148
-0.925739392194869
0.03871718190990751
-0.6880232011511148
-0.925739392194869
0.03871718190990751
-0.6880232011511148
-0.925739392194869
0.03871718190990751
-0.6880232011511148
-0.925739392194869
0.03871718190990751
-0.6880232011511148
-0.9257936442138046
0.038871654171258166
-0.6879727318751138
-0.9257936442138046
0.038871654171258166
-0.6879727318751138
-0.9257936442138046
0.038871654171258166
-0.6879727318751138
-0.9257936442138046
0.038871654171258166
-0.6879727318751138
-0.9257936442138046
0.038871654171258166
-0.6879727318751138
-0.9257936442138046
0.038871654171258166
-0.6879727318751138
-0.9257936442138046
0.038871654171258166
-0.6879727318751138
-0.9257936442138046
0.038871654171258166
-0.6879727318751138
-0.9257936442138046
0.038871654171258166
-0.6879727318751138
-0.9257936442138046
0.038871654171258166
-0.6879727318751138
-0.9257936442138046
0.038871654171258166
-0.6879727318751138
-0.9257936442138046
0.038871654171258166
-0.6879727318751138
-0.9266729657759051
0.03826469099629959
-0.6876961638291756
-0.9266729657759051
0.03826469099629959
-0.6876961638291756
-0.9266729657759051
0.03826469099629959
-0.6876961638291756
-0.9266729657759051
0.03826469099629959
-0.6876961638291756
-0.9268814002557912
0.03772515526317226
-0.6874762276052147
-0.9268814002557912
0.03772515526317226
-0.6874762276052147
-0.9268814002557912
0.03772515526317226
-0.6874762276052147
-0.9268814002557912
0.03772515526317226
-0.6874762276052147
-0.9270564600998041
0.0374251615930866
-0.6870277204640898
-0.9270564600998041
0.0374251615930866
-0.6870277204640898
-0.9270564600998041
0.0374251615930866
-0.6870277204640898
-0.9270564600998041
0.0374251615930866
-0.6870277204640898
-0.9276743140022792
0.03691243905491869
-0.6864882851615934
-0.9276743140022792
0.03691243905491869
-0.6864882851615934
-0.9276743140022792
0.03691243905491869
-0.6864882851615934
-0.9276743140022792
0.03691243905491869
-0.6864882851615934
-0.92751506559918
0.03632859067243854
-0.6860188183238671
-0.92751506559918
0.03632859067243854
-0.6860188183238671
-0.92751506559918
0.03632859067243854
-0.6860188183238671
-0.92751506559918
0.03632859067243854
-0.6860188183238671
-0.9275318630900031
0.035740951370424184
-0.6857252216467558
-0.9275318630900031
0.035740951370424184
-0.6857252216467558
-0.9275318630900031
0.035740951370424184
-0.6857252216467558
-0.9275318630900031
0.035740951370424184
-0.6857252216467558
-0.9274131714383114
0.03508678443058489
-0.6856532831018866
-0.9274131714383114
0.03508678443058489
-0.6856532831018866
-0.9274131714383114
0.03508678443058489
-0.6856532831018866
-0.9274131714383114
0.03508678443058489
-0.6856532831018866
-0.9269644134135717
0.03414669385585105
-0.6858181892181289
-0.9269644134135717
0.03414669385585105
-0.6858181892181289
-0.9269644134135717
0.03414669385585105
-0.6858181892181289
-0.9269644134135717
0.03414669385585105
-0.6858181892181289
-0.9275463973870817
0.03301070707442281
-0.6859124653199307
-0.9275463973870817
0.03301070707442281
-0.6859124653199307
-0.9275463973870817
0.03301070707442281
-0.6859124653199307
-0.9275463973870817
0.03301070707442281
-0.6859124653199307
-0.9270973730383668
0.03207067788376493
-0.6860777620852105
-0.9270973730383668
0.03207067788376493
-0.6860777620852105
-0.9270973730383668
0.03207067788376493
-0.6860777620852105
-0.9270973730383668
0.03207067788376493
-0.6860777620852105
-0.9266857553996355
0.031233247308257887
-0.6862954463604182
-0.9266857553996355
0.031233247308257887
-0.6862954463604182
-0.9266857553996355
0.031233247308257887
-0.6862954463604182
-0.9266857553996355
0.031233247308257887
-0.6862954463604182
-0.9267876184267253
0.030851875499951626
-0.6867121497746174
-0.9267876184267253
0.030851875499951626
-0.6867121497746174
-0.9267876184267253
0.030851875499951626
-0.6867121497746174
-0.9267876184267253
0.030851875499951626
-0.6867121497746174
-0.925532311542291
0.031363611007962
-0.6874525897100785
-0.925532311542291
0.031363611007962
-0.6874525897100785
-0.925532311542291
0.031363611007962
-0.6874525897100785
-0.925532311542291
0.031363611007962
-0.6874525897100785
-0.9234500493556824
0.03217014203826583
-0.6878848231504908
-0.9234500493556824
0.03217014203826583
-0.6878848231504908
-0.9234500493556824
0.03217014203826583
-0.6878848231504908
-0.9234500493556824
0.03217014203826583
-0.6878848231504908
-0.9224971616995531
0.03338353459342944
-0.6881604123999137
-0.9224971616995531
0.03338353459342944
-0.6881604123999137
-0.9224971616995531
0.03338353459342944
-0.6881604123999137
-0.9224971616995531
0.03338353459342944
-0.6881604123999137
-0.9219315869725012
0.03486457770637509
-0.6884922260855253
-0.9219315869725012
0.03486457770637509
-0.6884922260855253
-0.9219315869725012
0.03486457770637509
-0.6884922260855253
-0.9219315869725012
0.03486457770637509
-0.6884922260855253
-0.9204986279713807
0.03700645082304896
-0.6887392757178387
-0.9204986279713807
0.03700645082304896
-0.6887392757178387
-0.9204986279713807
0.03700645082304896
-0.6887392757178387
-0.9204986279713807
0.03700645082304896
-0.6887392757178387
-0.9174961533976058
0.04028644859980644
