2
2
5
0
2
1
0
1
1
2
3
5
2
2
2
1
1
2
3
6
2
1
1
1
1
2
16
5
1
1
1
1
1
2
17
6
1
1
1
1
1
2
16
5
2
1
1
1
1
2
15
5
2
1
1
1
1
2
14
5
2
1
1
1
1
2
13
5
1
1
1
1
1
2
14
5
2
1
1
1
1
2
13
5
2
2
1
1
1
2
12
5
2
2
1
1
1
1
12
6
2
2
1
1
1
1
13
5
2
2
1
1
1
1
12
5
2
2
1
1
1
2
14
6
2
1
1
1
1
1
14
6
3
2
1
1
1
1
14
6
2
1
1
1
1
2
14
6
2
1
1
1
1
2
14
6
2
1
1
1
1
2
14
5
2
1
1
1
1
1
14
5
2
2
1
1
1
1
13
5
2
2
1
1
1
1
13
5
2
1
1
1
1
1
13
5
2
1
1
1
1
1
13
5
2
1
1
1
1
1
13
5
2
1
1
1
1
1
12
5
2
1
1
1
1
1
12
5
2
1
1
1
1
1
12
5
2
1
1
1
1
1
12
5
2
1
1
1
1
2
12
5
2
1
1
1
1
2
11
5
2
1
1
1
1
2
12
5
2
1
1
1
1
1
13
5
2
1
1
1
1
1
13
4
2
1
1
1
1
1
12
4
2
1
1
1
1
2
13
4
2
1
1
1
1
2
13
4
2
1
1
1
1
2
12
4
2
1
1
1
1
2
13
4
2
1
1
1
1
2
12
4
2
1
1
1
1
2
12
4
2
1
1
1
1
2
13
4
2
1
1
1
1
2
13
4
2
1
1
1
1
2
13
4
2
1
1
1
1
2
13
4
2
1
1
1
1
2
12
4
2
1
1
1
1
2
12
4
2
1
1
1
1
2
12
4
2
1
1
1
1
2
12
4
2
1
1
1
1
2
12
4
2
1
1
1
1
2
12
4
2
1
1
1
1
2
12
4
2
1
1
1
1
2
11
4
2
1
1
1
1
2
11
4
2
1
1
1
1
2
11
4
2
1
1
1
1
2
11
4
2
1
1
1
1
1
11
4
2
1
1
1
1
2
11
4
2
1
1
1
1
2
11
4
2
1
1
1
1
2
11
4
2
1
1
1
1
2
11
4
2
1
1
1
1
2
11
4
2
1
1
1
1
2
11
4
2
1
1
1
1
1
10
3
2
1
1
1
1
2
10
4
2
1
1
1
1
2
10
4
2
1
1
1
1
2
10
4
2
1
1
1
1
2
10
4
2
1
1
1
1
2
10
4
2
1
1
1
1
2
9
4
2
1
1
1
1
2
9
4
2
1
1
1
1
2
10
4
2
1
1
1
1
2
10
4
2
1
1
1
1
2
10
4
2
1
1
1
1
2
10
4
2
1
1
1
1
2
10
4
2
1
1
1
1
2
10
4
2
1
1
1
1
2
10
4
2
1
1
1
1
2
10
4
2
1
1
1
1
2
10
4
2
1
1
1
1
2
10
4
2
1
1
1
1
2
10
4
2
1
1
1
1
2
9
5
2
1
1
1
1
2
8
5
2
1
1
1
1
2
8
5
2
1
1
1
1
2
8
5
2
1
1
1
1
2
8
5
2
1
1
1
1
2
8
4
2
1
1
1
1
2
8
4
2
1
1
1
1
2
8
4
2
1
1
1
1
2
8
4
2
1
1
1
1
2
8
4
2
1
1
1
1
2
7
4
2
1
1
1
1
2
7
4
2
1
1
1
1
2
7
4
2
1
1
1
1
2
7
4
2
1
1
1
1
2
8
5
2
1
1
1
1
2
7
4
2
1
1
1
1
2
7
4
2
1
1
1
1
2
7
5
2
1
1
1
1
2
8
4
2
1
1
1
1
2
8
4
2
1
1
1
1
2
8
5
2
1
1
1
1
2
8
5
2
1
1
1
1
2
8
5
2
1
1
1
1
2
8
5
2
1
1
1
1
2
8
5
2
1
1
1
1
2
8
5
2
1
1
1
1
2
8
5
2
1
1
1
1
2
8
5
2
1
1
1
1
2
8
4
2
1
1
1
1
2
9
4
2
1
1
1
1
2
9
4
2
1
1
1
1
2
9
4
2
1
1
1
1
2
11
4
2
1
1
1
1
2
11
4
2
1
1
1
1
2
10
4
2
1
1
1
1
1
11
4
2
1
1
1
1
1
10
4
2
1
1
1
1
1
10
4
2
1
1
1
1
1
11
4
2
1
1
1
1
1
11
4
2
1
1
1
1
1
11
4
2
1
1
1
1
1
11
4
2
1
1
1
1
1
11
4
2
1
1
1
1
1
12
4
2
1
1
1
1
1
12
4
2
1
1
1
1
2
11
4
2
1
1
1
1
2
11
4
2
2
1
1
1
2
12
4
2
1
1
1
1
2
12
4
2
1
1
1
1
2
12
3
2
1
1
1
1
2
12
3
2
1
1
1
1
2
12
4
2
1
1
1
1
2
12
4
2
2
1
1
1
2
12
4
2
2
1
1
1
2
12
4
2
2
1
1
1
2
12
4
2
2
1
1
1
2
12
4
2
2
1
1
1
2
12
4
2
2
1
1
1
1
12
4
2
2
1
1
1
1
12
4
2
2
1
1
1
1
12
4
2
2
1
1
1
1
12
5
2
2
1
1
1
1
12
5
2
2
1
1
1
1
12
5
2
2
1
1
1
1
12
5
2
2
1
1
1
1
12
4
2
2
1
1
1
1
12
4
2
2
1
1
1
1
12
4
2
2
1
1
1
1
12
4
2
2
1
1
1
1
12
4
2
2
1
1
1
1
12
4
2
2
1
1
1
2
12
4
2
2
1
1
1
1
14
5
2
2
1
1
1
2
14
5
2
2
1
1
1
2
14
5
2
2
1
1
1
2
14
5
2
2
1
1
1
2
14
5
2
2
1
1
1
2
14
5
2
2
1
1
1
2
13
5
2
2
1
1
1
2
13
5
2
2
1
1
1
1
13
5
2
2
1
1
1
1
13
5
2
2
1
1
1
1
12
5
2
1
1
1
1
1
12
6
2
1
1
1
1
1
12
6
2
1
1
1
1
1
12
6
2
1
1
1
1
1
12
6
2
2
1
1
1
1
12
6
2
2
1
1
1
1
12
6
2
2
1
1
1
1
12
6
2
2
1
1
1
2
12
6
2
2
1
1
1
2
12
6
2
2
1
1
1
2
12
6
3
2
1
1
1
2
12
6
2
2
1
1
1
2
13
6
2
2
1
1
1
2
13
6
2
2
1
1
1
2
13
6
2
2
1
1
1
2
13
6
2
2
1
1
1
2
13
6
2
2
1
1
1
2
13
7
3
2
1
1
1
2
12
7
3
2
1
1
1
2
12
7
3
2
1
1
1
2
13
7
3
2
1
1
1
2
13
6
3
2
1
1
1
2
13
7
3
2
1
1
1
2
13
7
3
2
1
1
1
2
13
7
3
2
1
1
1
2
13
7
3
2
1
1
1
2
13
7
3
2
1
1
1
2
13
7
3
2
1
1
1
2
13
7
3
2
1
1
1
2
13
6
3
2
1
1
1
2
13
6
3
2
1
1
1
2
13
6
3
2
1
1
1
2
13
7
3
2
1
1
1
2
14
7
3
2
1
1
1
2
14
7
3
2
1
1
1
2
13
7
3
2
1
1
1
2
13
7
3
2
1
1
1
2
14
7
3
2
1
1
1
2
13
7
3
2
1
1
1
2
13
7
3
2
1
1
1
2
12
6
3
2
1
1
1
2
12
6
3
2
1
1
1
2
12
6
3
2
1
1
1
2
12
6
3
2
1
1
1
2
12
6
3
2
1
1
1
2
12
6
3
2
1
1
1
2
13
6
3
2
1
1
1
2
13
6
3
2
1
1
1
2
13
6
3
2
1
1
1
2
13
6
2
2
1
1
1
2
13
6
3
2
1
1
1
2
13
6
3
2
1
1
1
2
13
6
2
2
1
1
1
2
13
6
2
2
1
1
1
2
13
6
2
2
1
1
1
2
13
6
2
2
1
1
1
2
13
6
2
2
1
1
1
2
12
6
2
1
1
1
1
2
12
6
2
1
1
1
1
2
12
6
2
1
1
1
1
2
12
6
2
1
1
1
1
2
11
6
2
1
1
1
1
2
11
6
2
1
1
1
1
2
11
6
2
1
1
1
1
2
11
5
2
1
1
1
1
2
12
5
2
1
1
1
1
2
13
5
2
1
1
1
1
2
12
5
2
1
1
1
1
2
13
5
2
1
1
1
1
2
13
5
2
1
1
1
1
2
12
5
2
1
1
1
1
2
12
5
2
1
1
1
1
2
12
5
2
1
1
1
1
2
12
5
2
1
1
1
1
2
12
5
2
1
1
1
1
2
12
6
2
1
1
1
1
2
12
6
2
1
1
1
1
2
12
6
2
1
1
1
1
2
12
6
2
1
1
1
1
2
12
7
3
1
1
1
1
2
13
7
3
1
1
1
1
3
13
7
3
2
1
1
1
3
12
7
3
2
1
1
1
2
12
7
3
2
1
1
1
2
12
7
3
2
1
1
1
2
13
7
3
2
1
1
1
3
13
7
3
2
1
1
1
2
13
7
3
2
1
1
1
2
13
7
3
2
1
1
1
2
14
7
3
2
1
1
1
2
14
7
3
2
1
1
1
2
14
7
3
2
1
1
2
3
15
7
3
2
1
1
2
4
16
9
4
2
1
1
2
4
16
9
4
2
1
1
2
4
19
10
4
2
2
2
2
4
18
10
5
3
2
2
2
5
22
11
5
3
2
2
2
5
23
11
5
3
2
3
2
5
23
14
6
3
3
4
3
5
25
14
6
5
3
6
5
7
30
17
7
8
6
6
6
7
34
18
7
8
6
6
6
7
35
18
7
8
6
6
6
10
38
23
9
8
7
7
7
10
39
28
10
8
7
8
7
10
39
28
10
9
8
8
7
11
41
32
11
9
8
8
8
11
42
34
11
9
8
8
8
12
43
36
12
9
8
8
8
13
44
37
12
10
8
8
8
13
44
37
12
10
8
8
8
13
44
38
12
10
8
8
9
13
44
38
12
10
8
9
9
13
46
39
12
10
9
10
10
13
46
39
12
10
9
11
11
16
46
39
13
10
9
11
12
16
47
40
13
11
9
11
12
16
48
40
13
11
9
13
12
17
49
40
13
11
10
13
13
17
49
40
14
11
10
14
13
17
50
40
14
11
10
15
13
18
50
40
14
11
10
16
14
18
51
41
14
11
10
16
14
18
51
42
14
13
11
16
14
18
51
42
14
14
11
16
14
18
53
42
14
14
11
16
14
18
53
42
15
14
11
16
15
19
53
42
15
14
11
16
15
19
54
42
15
14
11
17
16
20
54
42
15
15
11
17
16
20
55
42
15
15
11
17
16
20
55
42
15
15
12
17
16
20
55
44
15
15
12
17
16
22
57
44
15
15
12
17
16
22
57
44
15
15
12
18
16
22
58
44
15
15
12
18
16
22
58
44
15
15
12
19
17
23
59
45
15
15
12
19
17
25
59
45
15
15
12
19
17
25
60
45
15
15
12
19
17
25
60
46
15
15
12
19
17
25
60
46
15
15
12
19
17
25
60
46
15
15
12
19
17
25
60
47
15
15
12
20
17
25
60
47
16
15
12
20
17
25
61
47
15
15
12
20
17
25
61
47
16
15
12
20
17
26
63
48
16
15
12
20
17
26
63
48
16
15
12
20
17
26
62
48
16
15
12
19
17
26
61
47
16
13
11
19
17
27
59
48
16
13
11
19
17
27
58
48
16
13
11
19
17
26
56
45
15
13
11
19
17
26
56
43
14
13
10
18
17
26
56
43
14
13
10
18
16
26
55
40
14
13
10
18
16
26
55
39
14
13
11
19
16
25
54
37
13
12
11
19
16
25
53
37
13
12
11
19
16
26
55
38
13
12
11
19
16
26
56
37
13
12
11
19
16
26
56
37
13
12
11
18
16
26
55
37
13
12
11
18
16
27
55
38
13
12
11
18
15
25
56
38
12
12
11
18
14
25
55
38
12
12
10
18
14
26
55
38
12
11
10
17
14
25
54
37
12
11
10
17
14
25
54
37
12
11
10
16
14
25
54
38
12
11
10
15
14
25
54
38
12
11
10
14
13
25
54
38
12
11
10
14
13
25
55
37
12
10
9
14
13
25
54
37
12
8
9
14
12
25
53
37
12
8
9
14
12
25
53
37
12
8
9
14
11
25
54
37
12
7
9
14
12
25
53
37
12
7
9
15
11
25
53
37
12
7
8
15
11
25
54
37
12
7
8
15
11
25
55
37
12
7
8
15
11
25
55
35
12
6
8
15
11
24
53
35
12
6
8
15
11
24
54
36
12
6
8
14
11
24
53
36
11
6
8
14
11
24
53
36
12
6
8
13
11
24
53
35
12
6
7
12
11
22
54
35
12
6
7
13
11
24
54
36
11
6
7
13
12
24
55
35
11
6
7
13
12
24
54
35
11
6
8
14
12
24
54
34
11
6
8
14
13
24
54
33
11
6
8
14
12
24
53
34
11
6
8
14
13
24
52
34
11
6
8
14
13
24
54
34
11
5
8
14
13
24
53
33
11
5
8
14
12
23
53
33
10
5
8
14
12
23
53
36
10
5
8
14
12
23
52
35
10
5
8
14
12
23
52
35
10
5
8
14
12
22
53
35
10
5
8
14
12
22
53
35
10
6
8
15
12
22
53
35
10
5
8
15
12
23
52
35
10
5
8
15
13
23
52
35
10
5
8
14
13
23
53
34
10
5
7
14
13
22
53
34
10
5
7
14
13
22
53
34
10
5
7
14
13
22
52
33
10
6
7
14
13
22
51
33
10
6
7
14
13
21
51
33
10
5
7
14
13
21
51
33
10
5
7
14
13
21
51
32
10
5
7
14
13
21
51
32
11
5
7
14
13
21
51
32
11
5
7
14
13
21
50
32
10
5
7
13
13
21
50
32
10
5
7
13
13
21
51
32
10
5
7
13
13
22
53
32
10
5
7
14
13
22
51
32
10
5
7
14
13
23
51
32
10
5
7
14
13
22
51
32
10
5
7
14
14
22
50
32
9
5
7
14
14
22
51
32
9
5
7
14
14
23
51
32
9
5
7
14
14
23
49
32
9
5
7
14
14
23
49
32
9
5
7
13
14
23
50
32
9
5
7
12
14
22
49
33
9
5
7
13
14
22
48
33
9
5
7
13
14
22
48
33
9
5
7
13
14
22
47
34
9
5
6
13
14
22
46
33
9
5
6
13
14
22
47
33
9
5
6
13
13
23
47
33
9
5
6
12
13
22
46
33
9
4
6
12
13
22
44
33
9
4
6
12
13
20
45
32
8
4
6
12
13
20
45
31
8
4
6
11
13
20
45
32
8
4
6
11
12
20
45
32
8
4
6
10
12
20
46
33
8
4
6
10
12
20
48
32
8
4
6
11
12
20
48
32
8
4
6
11
11
20
46
32
8
4
6
11
11
21
44
32
8
4
6
10
11
21
44
31
8
4
6
10
11
20
43
28
7
4
5
10
11
20
43
28
8
4
5
10
11
20
43
28
8
4
5
10
11
20
43
28
8
4
5
10
11
20
42
28
8
4
5
9
11
20
43
28
8
4
5
10
11
20
43
27
7
4
5
10
11
20
43
27
8
4
5
10
11
20
43
27
8
4
4
11
11
20
43
27
8
4
4
11
11
20
42
27
8
4
4
11
11
20
42
27
7
4
4
11
11
20
41
26
7
4
4
11
11
20
41
26
7
4
4
11
11
20
40
25
7
4
4
10
11
20
40
25
7
4
4
10
10
20
41
26
7
4
4
10
10
20
41
26
7
4
4
10
10
20
41
26
7
4
4
10
10
20
42
26
7
4
4
10
10
19
42
25
7
4
4
10
10
18
42
25
7
4
4
10
10
18
41
25
7
4
4
10
10
17
42
25
7
4
4
10
10
16
41
25
7
4
3
11
10
16
42
25
7
4
3
11
10
17
42
25
7
4
3
11
10
16
43
25
7
4
3
10
10
16
43
25
7
4
3
11
9
16
43
25
7
4
3
11
9
16
43
25
7
4
4
11
9
15
42
24
7
4
4
10
9
15
42
24
7
4
4
11
9
15
42
25
7
4
4
11
9
15
42
25
7
4
4
11
10
16
43
26
7
4
4
11
10
15
42
26
8
4
4
11
10
14
42
26
8
4
4
11
10
14
42
26
8
4
4
11
10
14
42
26
8
4
4
11
9
13
41
26
8
4
4
11
9
13
41
27
8
4
4
11
9
13
42
26
8
4
4
11
9
13
44
27
8
4
4
11
9
14
42
27
8
4
4
11
9
14
40
27
8
4
4
11
9
14
40
26
8
4
4
11
9
13
40
27
8
4
4
11
10
13
41
27
8
4
4
11
10
13
41
26
8
4
4
11
10
13
42
26
8
4
4
11
10
14
42
26
8
4
4
11
10
14
42
26
8
4
4
12
10
14
43
26
8
4
4
11
11
13
43
26
8
4
3
12
10
13
44
26
8
4
3
11
10
13
44
26
8
4
3
11
10
13
43
26
8
4
3
11
10
13
43
26
8
4
3
10
10
13
45
27
8
4
3
10
10
13
45
27
8
4
4
10
10
14
46
27
8
4
4
10
10
14
45
27
7
4
4
10
10
14
45
27
7
4
4
10
10
14
45
27
7
4
4
11
10
14
45
27
7
4
4
11
10
14
45
26
7
4
4
11
10
14
47
26
7
4
4
11
10
14
49
27
7
4
4
11
10
14
47
27
7
4
4
11
10
14
47
26
7
4
4
11
10
14
46
26
7
4
4
11
10
14
46
27
6
4
4
11
10
14
46
27
6
4
4
11
10
14
46
26
6
4
4
10
10
14
45
26
6
4
4
10
10
13
45
26
6
4
4
10
10
14
44
26
7
4
4
10
9
13
44
26
7
4
4
9
9
13
44
26
7
4
4
9
9
13
44
26
7
4
4
9
9
13
45
26
7
4
4
10
10
14
45
26
7
4
4
9
10
14
45
26
7
4
4
9
10
14
45
25
7
4
4
9
10
13
45
24
7
4
4
9
10
14
45
24
7
4
4
9
10
15
45
25
7
4
4
9
10
15
46
25
8
4
4
9
10
16
45
25
8
4
4
9
10
16
45
24
7
4
4
9
11
16
45
24
7
5
4
9
11
16
45
23
7
5
4
9
11
16
43
23
8
5
4
9
11
16
43
22
7
5
4
9
11
16
44
22
7
5
4
9
11
16
44
22
7
5
4
9
11
16
44
22
7
5
4
9
10
15
42
22
7
4
4
9
10
15
42
22
7
4
4
9
11
15
42
22
8
5
4
11
11
15
42
22
8
4
4
11
10
15
42
22
8
4
4
10
10
15
41
22
8
4
4
10
9
15
41
22
8
4
5
11
10
15
40
22
8
4
5
11
9
16
40
22
8
4
5
11
9
16
40
22
8
4
5
11
9
16
40
22
8
4
5
11
9
16
38
22
8
4
5
11
9
16
38
22
8
4
5
11
9
15
37
21
8
4
5
11
9
15
38
22
8
4
5
11
9
15
38
21
8
4
5
11
9
15
38
21
8
4
5
11
9
15
38
21
8
4
5
10
9
15
39
21
8
4
5
10
9
15
38
21
8
4
5
10
9
15
35
21
8
4
5
10
10
15
35
20
8
4
5
11
9
15
35
20
8
4
5
10
9
16
35
20
8
4
5
10
9
16
35
20
8
4
5
10
9
16
35
20
8
4
5
10
9
16
37
20
8
4
5
10
9
16
38
20
8
4
5
11
9
16
37
20
8
4
5
11
9
16
37
20
8
4
5
11
9
16
37
20
8
4
5
11
10
16
37
20
8
4
5
11
10
16
36
19
7
4
5
11
9
15
36
19
7
4
4
11
9
15
37
18
7
4
4
11
9
15
36
18
7
4
4
11
9
15
36
18
7
4
5
11
9
15
36
18
7
4
4
11
9
15
37
18
7
4
5
11
9
14
35
16
6
3
4
11
9
13
36
16
6
3
4
11
9
13
36
16
6
3
4
11
9
13
36
16
6
3
4
11
8
13
36
16
6
3
4
11
8
13
35
16
7
3
4
11
8
13
35
16
6
3
4
11
8
13
36
16
6
3
4
11
8
13
35
15
6
3
4
11
8
13
35
15
6
3
4
11
9
13
35
15
6
3
4
11
9
13
35
15
6
3
4
11
9
13
35
15
6
3
4
10
8
13
35
14
5
3
4
9
8
13
35
14
5
3
4
9
8
13
35
14
5
3
4
9
8
13
35
14
5
3
4
9
8
13
35
14
5
3
4
9
9
13
35
14
5
3
4
9
9
12
35
13
5
3
4
9
9
12
35
13
5
3
4
9
9
12
35
13
5
3
4
9
9
12
35
13
5
3
4
9
9
11
35
14
5
3
4
9
9
11
35
14
5
3
4
9
9
11
35
14
5
3
4
9
9
11
35
14
5
3
4
9
9
11
35
14
5
3
3
9
9
11
34
14
5
3
3
9
9
11
33
14
5
3
3
9
9
11
33
15
5
3
3
9
9
11
34
15
5
3
3
9
9
11
33
15
5
3
3
9
9
10
33
14
5
3
3
9
9
9
33
14
5
3
3
9
9
9
32
14
5
3
3
9
9
9
32
14
5
3
3
8
9
9
30
14
5
3
3
8
9
9
29
14
5
3
3
8
9
9
29
14
5
3
3
8
9
8
29
14
5
3
3
8
8
8
29
14
5
3
3
8
8
8
29
14
5
3
3
8
8
8
29
14
5
3
3
8
8
8
29
14
5
3
3
8
7
8
28
14
6
3
3
7
7
8
28
14
5
3
3
7
7
8
28
14
5
3
3
7
7
8
28
14
5
3
3
7
7
8
27
14
5
3
3
7
7
8
27
14
6
3
3
7
7
8
25
15
6
3
3
6
7
8
25
15
6
3
3
6
7
7
25
15
6
3
3
6
7
7
25
15
6
3
3
6
6
6
25
16
6
3
3
6
6
6
25
16
6
3
3
6
6
5
23
16
6
3
3
6
6
5
23
17
6
3
3
6
6
5
23
17
7
4
3
6
6
4
23
17
6
4
3
6
6
4
21
17
6
3
2
6
6
4
21
17
6
3
2
6
6
4
20
17
7
4
2
6
6
4
20
17
7
4
2
6
6
4
20
17
7
4
2
6
6
4
20
17
7
4
2
6
5
4
19
17
7
4
2
5
3
4
17
17
7
4
2
3
3
4
17
17
7
4
2
3
3
4
17
17
7
4
2
3
3
3
17
17
7
4
2
3
2
3
17
17
7
4
2
3
2
3
15
16
6
3
2
3
2
3
15
16
6
3
2
3
2
2
14
16
6
3
2
3
2
2
13
16
6
3
2
3
2
2
13
16
6
3
2
3
2
2
13
16
6
3
2
3
2
2
13
16
6
3
2
2
2
2
13
15
6
3
2
2
2
2
10
15
6
3
2
2
2
2
9
15
6
3
2
2
2
2
9
15
6
3
1
2
1
2
10
15
6
3
1
2
1
2
9
15
6
3
1
2
1
2
9
15
6
3
1
2
1
2
10
14
6
3
1
1
1
2
9
14
6
3
1
1
1
2
9
14
6
3
1
1
1
2
10
14
6
3
1
1
1
2
9
14
6
3
1
1
1
2
9
14
6
3
1
1
1
2
9
14
6
3
1
1
1
2
7
14
6
3
1
1
1
2
6
14
5
3
1
1
1
2
6
14
5
3
1
1
1
2
6
13
5
3
1
1
1
2
6
13
5
3
1
1
1
2
5
13
5
3
1
1
1
2
5
13
5
3
1
1
1
2
5
10
5
3
1
1
1
2
5
10
5
2
1
1
1
2
5
10
4
2
1
1
1
2
6
10
4
2
1
1
1
2
6
9
4
2
1
1
1
2
6
9
4
2
1
1
1
2
6
9
3
2
1
1
1
2
6
6
3
2
1
1
1
2
6
5
3
2
1
1
1
2
6
5
3
2
1
1
1
2
6
5
3
1
1
1
1
2
6
5
3
1
1
1
1
2
6
5
3
1
1
1
1
2
6
4
3
1
1
1
1
2
6
4
3
1
1
1
1
2
6
4
3
1
1
1
1
2
6
4
3
1
1
1
1
2
6
4
3
1
1
1
1
2
6
4
3
1
1
1
1
2
6
4
3
1
1
1
1
2
6
4
3
1
1
1
1
2
6
4
3
1
1
1
1
2
6
4
3
1
1
1
1
2
6
4
3
1
1
1
1
2
6
4
3
1
1
1
1
2
7
4
3
1
1
1
1
2
7
4
3
1
1
1
1
2
7
4
3
1
1
1
1
2
7
4
3
1
1
1
1
2
7
4
2
1
1
1
1
2
7
4
2
1
1
1
1
2
7
4
2
1
1
1
1
2
7
4
2
1
1
1
1
2
7
4
3
1
1
1
1
2
7
4
3
1
1
1
1
2
7
4
3
1
1
1
1
2
9
4
3
1
1
1
1
2
9
4
3
1
1
1
1
2
9
4
3
1
1
1
1
2
9
4
3
1
1
1
1
2
9
4
3
1
1
1
1
2
9
4
2
1
1
1
1
2
9
4
2
1
1
1
1
2
9
4
2
1
1
1
1
2
9
4
2
1
1
1
1
2
9
4
3
1
1
1
1
2
9
4
2
1
1
1
1
2
10
4
3
1
1
1
1
2
10
4
3
1
1
1
1
2
10
4
3
1
1
1
1
2
10
4
3
1
1
1
1
2
9
4
3
1
1
1
1
2
9
4
2
1
1
1
1
2
9
4
2
1
1
1
1
2
9
4
2
1
1
1
1
2
9
4
2
1
1
1
1
2
9
4
2
1
1
1
1
2
9
4
2
1
1
1
1
2
9
4
2
1
1
1
1
2
9
4
2
1
1
1
1
2
9
4
2
1
1
1
1
2
9
4
2
1
1
1
1
2
9
4
2
1
1
1
1
2
9
4
2
1
1
1
1
2
9
4
2
1
1
1
1
2
9
4
2
1
1
1
1
2
9
4
2
1
1
1
1
2
9
4
2
1
1
1
1
2
10
4
2
1
1
1
1
2
10
4
2
1
1
1
1
2
10
4
2
1
1
1
1
2
10
5
2
1
1
1
1
2
10
5
2
1
1
1
1
2
10
5
2
1
1
1
1
2
10
5
2
1
1
1
1
2
10
5
2
1
1
1
1
2
12
5
2
1
1
1
1
3
17
5
2
1
2
1
1
3
17
5
2
1
3
1
1
3
17
5
2
1
3
1
1
3
18
5
2
1
3
1
1
3
18
5
2
1
3
1
1
3
19
5
2
2
3
2
1
4
20
5
2
2
3
3
1
4
20
5
2
2
3
3
1
4
20
5
2
2
3
3
2
4
20
5
2
2
3
3
2
4
23
6
3
2
3
3
3
5
23
7
4
2
3
3
4
5
23
7
4
3
4
3
4
5
23
8
4
3
4
3
5
5
25
8
4
3
4
4
5
5
25
8
4
3
5
4
5
5
29
8
4
5
5
4
6
6
31
9
4
5
5
4
7
6
31
9
4
5
5
4
7
6
32
10
5
5
5
4
7
6
33
10
5
7
6
5
8
7
33
10
5
8
6
5
8
7
33
11
5
8
6
5
8
7
34
11
5
8
7
5
8
7
35
11
5
9
10
5
8
8
35
11
5
9
11
7
8
8
35
12
5
9
11
8
8
8
35
14
6
9
11
8
8
8
38
15
6
9
11
8
8
9
38
15
7
10
11
8
9
11
38
18
8
10
11
9
9
11
40
21
8
10
11
9
10
11
40
21
8
10
11
9
10
11
41
22
8
10
11
9
10
12
41
24
9
10
11
10
10
12
42
24
9
10
12
10
10
12
42
24
9
10
12
10
10
12
43
24
9
10
12
10
10
14
45
24
9
10
12
10
11
16
45
25
9
10
12
10
11
16
46
25
9
10
12
10
11
16
47
25
9
10
12
11
11
17
47
26
9
10
12
11
11
17
49
26
10
10
12
11
11
19
50
26
10
10
12
11
11
20
52
27
10
10
12
11
11
21
54
28
10
11
12
12
12
21
54
28
10
11
13
12
12
21
54
28
10
11
13
13
12
21
54
28
11
11
13
13
12
22
53
30
11
11
13
13
12
22
53
30
11
11
12
13
12
22
54
30
11
11
12
13
12
23
54
30
11
11
13
14
12
23
56
32
11
11
13
14
12
23
57
32
12
11
13
13
12
23
56
33
12
11
13
13
12
23
58
33
12
11
13
13
13
23
59
34
12
11
13
14
13
23
59
34
12
11
13
14
13
23
58
33
12
11
13
14
13
24
59
33
11
11
13
14
13
24
60
34
11
11
12
14
13
24
61
34
11
11
12
14
13
24
60
34
11
11
13
13
13
24
61
35
12
11
13
13
12
24
59
35
12
10
13
13
12
24
59
35
12
10
13
13
11
24
60
35
12
10
13
13
12
24
60
36
12
10
13
13
12
24
60
36
12
9
13
13
11
24
60
36
12
8
12
14
11
24
60
36
13
9
12
14
11
24
62
36
13
8
12
14
11
24
64
36
13
7
9
14
11
24
64
37
13
7
8
13
12
24
64
36
13
7
8
13
12
24
65
36
13
7
8
13
12
24
63
35
12
7
8
13
12
24
64
35
12
7
8
12
12
23
65
36
12
7
8
12
12
23
65
34
12
7
8
12
11
23
65
34
12
7
8
12
11
23
66
34
12
7
8
12
11
23
67
33
12
7
8
11
11
23
67
33
12
7
7
11
12
24
67
33
12
7
7
11
12
24
67
33
12
7
7
12
12
22
67
34
11
7
7
11
12
21
66
33
11
7
7
11
12
21
66
33
11
7
7
12
12
21
66
33
11
7
7
12
12
21
66
33
11
7
7
12
12
20
65
33
11
7
7
12
12
18
63
33
11
7
7
12
12
18
63
32
11
7
7
11
12
17
61
31
11
7
7
11
11
17
61
31
11
7
7
11
11
16
61
31
11
7
7
10
11
16
61
31
11
7
7
10
11
16
60
30
10
6
7
10
11
16
61
31
10
6
7
10
11
16
60
31
10
6
7
10
11
15
60
32
10
6
7
10
11
14
58
30
10
6
7
10
11
14
59
31
10
6
7
10
12
16
61
33
11
6
7
10
12
16
61
33
11
6
7
10
11
17
60
33
11
6
7
10
11
17
60
33
11
6
7
10
11
17
60
33
11
6
7
10
11
16
59
33
11
6
7
10
11
16
58
33
11
6
7
10
12
16
58
32
11
6
6
10
12
16
58
33
11
6
5
10
12
16
58
33
11
6
5
10
12
17
58
32
11
6
5
10
12
18
57
33
11
6
5
10
12
18
55
33
11
6
5
10
12
18
56
32
10
6
6
10
12
18
55
31
10
6
6
10
12
18
55
32
10
6
6
10
12
18
55
31
9
5
6
10
12
18
54
32
9
5
6
10
12
18
53
32
9
5
6
10
12
18
53
31
9
5
6
10
11
18
54
32
9
5
6
10
11
18
52
32
9
5
6
10
11
18
52
33
9
5
6
10
11
18
51
33
9
5
6
10
11
18
50
31
8
4
6
10
10
19
50
31
8
4
6
10
10
19
50
31
8
4
6
10
12
19
49
31
8
4
6
11
12
19
47
31
8
4
6
11
12
20
46
30
9
4
6
11
12
19
45
30
9
4
6
10
12
19
45
30
9
4
6
10
12
19
45
30
8
4
6
10
12
19
44
30
8
4
6
10
11
19
44
30
8
4
6
10
11
19
44
30
8
4
6
10
12
19
44
30
8
4
6
10
11
19
44
30
8
4
6
10
12
19
44
30
8
4
6
10
12
19
43
30
8
4
6
10
12
19
43
30
8
4
6
10
12
19
43
30
8
4
6
10
12
19
43
30
8
4
6
10
12
19
43
30
8
4
5
10
12
20
43
30
8
4
5
10
12
20
42
29
9
4
6
11
13
20
43
29
9
4
6
10
12
20
43
28
9
4
6
9
12
20
42
28
9
4
6
10
12
20
40
27
8
4
6
10
12
19
37
23
7
4
6
10
12
18
36
23
7
4
6
10
12
18
36
24
7
4
6
10
12
17
36
23
7
4
6
10
12
17
36
23
7
4
6
10
12
17
35
23
7
4
6
10
11
17
34
24
7
4
6
11
11
17
34
24
8
5
6
10
11
17
33
23
8
5
6
10
11
17
33
23
8
5
6
10
11
17
33
23
8
5
6
10
11
16
34
22
8
5
6
11
11
16
34
23
8
5
6
11
11
15
34
23
7
4
5
10
11
15
34
23
8
5
5
10
11
15
34
23
8
5
6
11
11
15
34
23
7
5
6
11
11
15
32
22
7
5
6
11
11
15
31
22
7
5
6
11
12
16
31
22
7
5
5
11
12
16
30
21
7
5
5
11
12
15
31
22
7
5
5
11
12
15
31
21
7
5
6
11
12
15
30
21
7
5
6
11
12
16
30
22
7
5
6
11
12
16
30
23
7
5
6
11
12
16
30
23
8
6
6
12
11
16
33
25
8
6
6
13
11
16
33
25
8
6
6
13
11
16
33
25
8
6
6
13
11
16
33
25
8
6
6
13
12
16
33
25
8
6
6
13
12
16
33
24
8
6
6
13
11
17
33
25
8
6
6
13
11
17
33
25
8
6
6
13
11
17
33
25
8
6
6
13
11
17
33
25
8
6
6
13
11
17
33
25
8
6
6
13
11
17
33
26
8
6
7
14
11
17
33
26
8
6
7
14
11
17
33
26
8
6
6
14
11
17
33
26
8
6
8
14
11
17
34
26
8
6
8
14
11
17
34
27
8
6
8
14
11
18
34
27
8
6
8
14
11
18
34
28
8
6
8
13
10
18
35
28
8
6
8
13
10
19
36
28
8
6
8
13
10
18
39
28
8
5
8
13
10
18
38
28
8
5
8
13
11
18
38
27
8
6
8
13
11
18
38
27
8
6
8
13
11
18
37
26
8
5
8
13
11
19
37
26
8
5
8
13
11
19
37
26
8
5
8
13
11
19
38
26
8
5
9
12
11
19
39
26
7
5
8
12
11
19
39
26
7
5
8
12
11
19
39
26
7
5
8
12
10
19
39
26
7
5
8
12
11
19
39
26
7
5
8
12
11
19
38
26
7
5
8
12
11
19
38
25
7
5
8
12
11
19
38
25
7
5
8
12
10
19
38
26
7
5
8
12
10
19
37
25
7
4
8
11
11
19
38
25
7
4
8
11
11
19
39
26
7
4
8
12
11
19
40
26
7
4
8
12
11
19
41
26
6
4
9
12
11
19
40
26
6
4
9
12
12
19
40
26
6
4
9
13
12
19
39
26
7
4
9
13
12
19
41
27
7
4
8
13
12
18
40
26
7
4
8
13
12
18
40
25
7
4
8
13
12
18
41
25
6
4
8
12
12
18
38
24
6
4
8
10
12
18
38
24
6
3
8
10
12
18
38
24
6
3
8
10
11
18
38
23
6
3
8
10
11
18
39
24
6
3
8
11
11
17
38
24
6
3
8
11
11
17
38
24
6
3
8
11
11
18
38
24
6
4
8
10
11
18
38
24
7
4
8
10
11
18
38
23
7
4
8
11
11
18
38
23
7
4
8
10
11
18
38
22
6
4
7
9
11
18
38
22
6
4
7
9
11
18
38
22
6
4
8
9
11
17
38
22
6
4
7
9
11
17
37
22
6
4
6
9
11
17
38
21
6
4
6
9
11
17
39
20
6
4
6
9
11
17
38
20
6
4
6
9
10
16
37
20
6
3
6
9
10
15
36
20
6
3
6
9
11
15
34
20
6
3
6
10
11
15
35
20
6
4
6
10
11
16
35
20
6
4
6
10
11
16
35
20
6
4
6
10
11
16
35
20
6
4
6
10
11
15
35
20
6
4
6
10
11
15
37
20
6
4
5
10
11
15
38
20
6
4
5
10
11
15
36
20
6
4
5
10
11
15
36
20
6
4
5
10
11
15
37
20
6
4
5
10
11
15
37
20
6
4
5
10
14
15
37
21
6
4
6
11
14
15
39
20
6
4
6
11
14
15
40
20
6
4
6
13
14
15
40
20
6
4
6
13
14
15
41
20
6
4
6
13
14
15
41
20
6
4
6
13
14
15
41
21
6
4
6
13
14
17
41
21
7
4
6
12
13
17
39
19
6
4
6
12
13
17
39
19
6
4
6
12
13
17
40
20
6
4
5
11
12
17
40
19
7
4
5
11
12
17
41
19
6
4
6
11
12
17
41
18
7
4
6
11
12
16
41
18
6
4
6
11
12
16
41
18
6
4
6
11
12
17
41
18
7
4
6
11
12
17
41
17
7
4
6
11
12
17
41
18
7
4
6
11
12
16
42
18
7
4
6
11
12
16
43
18
7
4
6
11
11
16
45
17
7
4
6
11
11
16
46
17
7
4
6
11
11
16
46
17
7
5
6
11
11
15
46
17
7
4
6
11
11
15
46
16
6
4
6
11
12
15
46
16
6
4
6
11
12
15
46
17
7
4
6
11
12
15
47
17
6
4
6
11
12
15
47
17
6
4
6
11
12
15
47
17
6
4
6
11
12
15
47
17
6
4
5
11
12
15
46
17
6
4
5
11
12
16
46
16
6
4
5
11
12
15
46
16
6
4
5
11
12
16
46
16
6
4
5
11
13
16
46
17
7
4
5
11
13
15
47
17
7
4
5
11
13
15
47
16
7
4
5
11
13
15
46
16
6
4
5
11
13
15
46
16
6
4
5
11
13
15
47
17
7
4
5
11
13
16
48
17
7
4
5
11
13
16
48
18
7
4
5
11
13
15
46
18
7
4
5
11
13
15
45
18
7
4
5
11
13
15
46
18
7
4
5
11
13
15
46
17
7
4
5
11
13
16
45
17
7
4
5
11
13
16
45
16
7
4
5
11
10
16
45
17
7
4
5
10
10
16
43
16
7
4
5
10
10
15
44
16
7
4
5
8
10
15
44
16
7
4
5
8
10
15
44
16
7
4
5
8
10
15
44
16
7
4
5
8
10
15
43
15
7
4
5
8
10
12
42
15
6
4
5
8
10
13
42
15
6
4
4
8
10
13
42
15
6
4
4
8
11
13
41
14
7
4
5
8
11
12
42
14
6
4
5
8
11
13
41
14
6
4
4
8
11
13
40
14
6
3
4
8
11
13
40
14
6
3
4
8
11
13
40
14
6
3
4
8
11
12
39
14
6
3
3
8
11
11
39
14
6
3
3
8
11
11
39
14
6
3
3
8
11
11
39
14
5
3
3
8
11
11
37
13
5
3
3
8
11
11
33
14
5
3
3
7
11
11
31
14
5
3
3
7
10
11
31
14
5
3
3
7
10
11
31
14
5
3
3
7
10
11
31
14
5
3
3
7
10
11
32
15
5
3
3
7
10
11
32
15
5
3
3
7
10
11
31
15
5
3
3
7
10
10
32
15
5
3
3
7
10
10
32
15
5
3
3
7
10
10
32
15
5
3
3
7
10
10
31
15
5
3
3
7
10
10
31
15
5
3
3
7
10
10
31
15
5
3
3
7
10
10
31
15
6
3
3
7
8
10
30
14
5
3
3
6
8
10
30
14
6
3
3
6
8
10
30
14
6
3
3
6
8
10
30
14
6
3
3
6
8
10
30
14
6
3
3
6
8
9
28
13
6
3
3
5
6
8
27
13
5
3
3
5
6
8
26
13
5
3
3
5
6
8
26
12
5
3
3
5
6
8
26
12
5
3
3
5
6
8
25
12
6
3
3
5
6
8
24
12
6
3
2
5
6
7
25
13
6
3
2
5
6
7
25
13
6
3
2
5
6
7
25
13
6
3
2
5
6
7
24
13
6
3
2
5
6
7
21
13
6
3
2
5
6
7
20
13
6
3
2
5
6
7
19
13
6
3
2
5
6
7
19
13
6
3
2
5
6
7
19
13
6
3
2
4
6
7
19
13
6
3
2
4
6
6
19
13
6
3
2
4
5
6
19
13
6
3
2
4
4
6
19
13
6
3
2
4
3
6
18
13
6
3
2
4
3
5
17
13
6
3
2
4
3
5
17
12
6
3
2
4
3
5
17
12
6
3
2
4
3
5
17
12
6
3
2
4
3
4
17
12
6
3
2
4
3
4
17
12
6
3
2
3
3
4
16
12
6
3
2
3
3
4
15
12
6
3
2
3
2
4
15
12
6
3
1
2
2
4
14
11
6
3
1
2
2
4
14
11
6
3
2
2
2
4
14
11
6
3
2
2
2
4
13
11
6
3
2
2
2
4
13
10
6
3
1
2
2
3
10
9
6
3
1
2
2
3
10
9
6
3
1
2
2
3
10
9
6
3
1
2
2
3
10
9
5
3
1
2
1
3
9
9
5
3
1
2
1
3
9
9
5
2
1
1
1
3
9
9
5
2
1
1
1
3
9
9
5
2
1
1
1
3
8
8
5
2
1
1
1
2
8
8
5
2
1
1
1
2
8
8
5
2
1
1
1
2
7
7
4
2
1
1
1
2
7
7
4
2
1
1
1
2
7
7
4
2
1
1
1
2
8
8
4
2
1
1
1
2
7
8
4
2
1
1
1
2
7
8
4
2
1
1
1
2
7
8
4
2
1
1
1
2
7
8
4
2
1
1
1
2
7
7
4
2
1
1
1
2
7
7
4
2
1
1
1
1
7
7
4
2
1
1
1
1
6
7
2
1
1
1
1
1
6
7
2
1
1
2
1
1
7
6
2
1
1
3
1
1
6
6
2
1
1
3
1
1
6
5
2
1
1
3
1
1
6
5
2
1
1
3
1
1
7
5
2
1
1
3
1
1
7
5
2
1
1
3
1
1
8
5
2
1
1
3
1
1
8
5
2
1
1
3
1
1
8
5
2
1
1
3
1
1
8
5
2
1
1
3
1
1
8
5
2
1
1
3
1
1
8
5
2
1
1
3
1
1
8
5
3
1
1
3
1
1
8
5
3
1
1
3
1
1
8
5
3
1
1
3
1
1
8
5
3
1
1
3
1
1
9
5
2
1
1
3
1
1
9
5
2
1
1
3
1
1
9
5
2
1
1
3
1
2
9
5
2
1
1
3
1
2
10
5
2
1
1
3
1
2
10
5
2
1
1
3
1
2
10
5
2
1
1
3
1
2
10
5
2
1
1
3
1
2
10
5
2
1
1
3
1
2
10
4
2
1
1
3
1
2
10
4
2
1
1
3
1
2
10
4
2
1
1
4
1
2
10
5
2
1
1
4
1
2
11
5
2
1
1
4
1
2
11
5
2
1
1
4
1
2
11
4
2
1
1
4
1
2
11
4
2
1
1
4
1
2
10
4
2
1
1
4
1
2
10
4
2
1
1
4
1
2
11
4
2
1
1
4
1
2
11
4
2
1
1
4
1
2
11
4
2
1
1
4
1
2
11
4
2
1
1
4
1
2
11
4
2
1
1
4
1
1
10
4
2
1
1
4
1
1
10
4
2
1
1
4
1
1
10
4
2
1
1
4
1
1
10
4
2
1
1
4
1
2
10
4
2
1
1
4
1
2
10
4
2
1
1
4
1
2
10
4
2
1
1
4
1
2
10
4
2
1
1
4
1
2
10
4
2
1
1
4
1
2
10
4
2
1
1
3
1
2
10
4
2
1
1
2
1
2
10
4
2
1
1
2
1
2
10
4
2
1
1
1
1
2
10
4
2
1
1
1
1
2
10
4
2
1
1
1
1
2
10
4
2
1
1
1
1
2
9
4
2
1
1
1
1
2
9
4
2
1
1
1
1
2
9
4
2
1
1
1
1
2
10
4
2
1
1
1
1
2
10
4
2
1
1
1
1
2
10
4
2
1
1
1
1
2
10
4
2
1
1
1
1
2
10
4
2
1
1
1
1
2
10
4
2
1
1
1
1
2
10
4
2
1
1
1
1
2
10
4
2
1
1
1
1
2
10
4
2
1
1
1
1
2
10
4
2
1
1
1
1
1
10
4
2
1
1
1
1
1
10
4
2
1
1
1
1
1
10
4
2
1
1
1
1
1
10
4
2
1
1
1
1
1
10
4
2
1
1
1
1
1
10
4
2
1
1
1
1
1
10
4
2
1
1
1
1
1
10
4
2
1
1
1
1
2
11
4
2
1
1
1
1
2
11
4
2
1
1
1
1
2
10
4
2
1
1
1
1
2
11
4
2
1
1
1
1
2
11
4
2
1
1
1
1
2
11
4
2
1
1
1
1
2
11
4
2
1
1
1
1
2
11
4
2
1
1
1
1
2
11
4
2
1
1
1
1
2
11
4
2
1
1
1
1
2
12
4
2
1
1
1
1
2
12
4
2
1
1
1
1
2
14
4
2
1
1
1
1
2
15
4
2
1
1
1
1
2
15
5
2
1
1
1
1
2
15
5
2
1
1
1
1
2
16
5
2
1
1
1
1
2
16
6
2
1
1
2
2
2
16
6
2
1
1
2
2
2
21
6
2
1
1
4
2
3
24
7
3
1
2
4
2
3
26
8
3
2
3
4
3
5
26
8
3
2
3
5
3
5
26
9
4
2
4
5
3
5
26
9
4
3
5
5
3
5
26
9
4
3
5
5
3
7
26
10
4
3
5
5
4
9
28
10
4
3
5
5
4
9
28
11
5
3
6
5
5
9
29
11
5
3
6
6
5
9
31
11
5
4
6
6
6
9
31
11
5
4
6
6
6
9
33
13
5
4
6
6
6
9
33
13
5
4
6
6
6
9
34
13
5
4
6
6
6
10
35
13
5
4
6
6
7
10
35
16
6
5
6
6
7
10
36
16
6
5
6
6
7
10
36
16
6
5
6
7
8
11
37
17
7
5
6
7
8
11
37
17
7
5
6
7
8
11
37
17
7
5
6
7
9
12
37
18
7
5
6
8
9
12
37
18
7
5
6
8
9
12
38
18
7
5
6
8
9
12
38
18
7
5
6
8
10
12
39
19
8
5
6
8
10
13
41
20
9
5
6
8
11
15
43
23
10
6
6
8
11
17
43
24
11
6
7
11
11
17
44
24
11
6
7
11
11
17
47
25
11
6
7
12
11
17
47
25
11
6
7
12
12
18
48
26
11
6
7
12
12
18
49
27
11
6
7
12
12
18
49
27
11
6
7
12
12
18
50
28
11
6
7
12
12
18
51
29
11
6
7
12
12
19
52
29
12
6
7
12
12
19
53
29
12
6
7
12
13
19
53
29
12
6
8
13
13
19
54
29
12
6
8
13
13
19
56
30
12
6
8
13
13
19
56
31
12
6
8
13
13
20
57
32
12
7
8
13
13
21
58
34
12
7
8
13
13
21
58
34
12
7
8
13
13
21
58
34
13
7
8
13
13
22
59
34
13
7
8
13
13
22
59
35
13
7
8
13
13
22
58
36
13
7
8
13
13
22
58
38
13
7
8
13
13
22
58
38
13
7
8
13
13
22
59
37
13
7
7
13
13
22
59
37
13
7
7
13
13
22
59
38
13
7
7
13
13
21
59
38
13
6
7
13
13
21
58
38
13
6
7
13
13
21
58
38
13
6
7
14
13
21
59
39
13
6
6
14
13
21
59
39
13
6
6
14
12
21
58
39
13
6
6
14
12
21
57
39
13
6
7
14
12
21
57
39
13
6
7
14
12
21
57
39
13
6
7
14
12
21
57
39
13
6
7
14
12
21
60
38
13
6
7
14
12
21
59
38
13
6
7
14
12
21
60
39
13
6
7
14
12
21
59
39
13
6
7
14
11
21
60
39
13
6
7
14
11
21
60
39
13
6
8
14
11
20
60
39
13
6
8
14
11
21
60
39
13
6
8
14
10
21
60
40
13
6
8
14
10
22
61
40
13
6
8
14
10
22
60
39
13
6
8
14
10
21
58
39
12
6
8
14
9
20
57
38
11
6
8
14
9
18
57
37
10
6
7
12
9
18
57
38
11
6
8
12
9
18
55
37
11
6
8
12
9
18
55
37
11
6
7
12
8
18
54
37
11
6
7
12
8
18
53
36
11
6
7
12
8
18
53
36
11
6
7
12
9
19
52
36
11
6
7
12
9
19
52
35
11
6
7
12
8
18
51
35
11
6
7
12
8
18
50
35
11
6
7
12
8
18
50
35
11
6
7
11
8
18
48
35
11
6
7
11
8
18
46
34
11
6
7
11
9
18
47
34
10
6
7
11
10
18
46
34
10
6
7
11
10
17
45
32
10
6
8
11
10
18
44
33
10
5
8
13
10
18
44
32
10
5
7
13
10
17
44
32
9
5
7
13
10
17
41
32
9
5
7
13
10
18
41
31
9
5
7
13
10
17
41
28
9
5
7
13
11
18
40
28
9
5
7
12
12
19
41
29
9
5
7
13
12
19
41
29
9
5
7
13
12
19
40
28
10
5
7
13
12
20
41
29
10
5
7
13
12
20
42
30
10
5
8
13
12
20
42
30
10
5
8
12
12
19
40
29
10
5
8
12
12
19
40
29
10
5
8
12
12
19
40
30
10
5
8
12
12
20
41
30
9
5
7
12
12
20
41
30
9
5
7
12
12
20
41
30
9
5
7
12
12
19
40
30
9
5
7
13
12
20
36
30
9
5
7
13
12
20
36
30
9
5
7
13
12
20
35
28
9
5
7
13
12
20
35
28
9
4
7
13
12
20
36
29
9
4
7
13
12
20
36
28
9
5
6
13
12
20
35
28
9
5
6
13
12
19
35
28
9
5
6
13
12
19
35
27
9
5
6
13
12
18
34
27
8
4
6
13
12
18
34
27
9
4
6
12
12
18
34
27
8
4
7
13
12
18
34
27
9
5
7
13
12
18
36
27
9
5
7
13
13
18
35
27
8
4
7
13
13
18
35
28
8
4
7
13
13
18
35
28
8
4
7
13
13
18
35
28
8
4
7
13
13
18
35
28
8
4
7
13
12
18
35
28
8
4
7
13
12
18
36
28
8
4
7
13
12
18
35
28
8
4
7
13
12
17
35
28
8
4
7
13
12
17
36
28
8
4
7
13
12
17
36
28
8
4
7
13
12
17
36
28
8
4
7
13
13
18
36
28
8
4
7
13
13
18
36
27
8
4
7
13
12
17
35
26
8
4
7
13
12
17
35
26
8
4
6
13
12
16
36
26
8
4
6
12
12
16
36
26
8
4
6
12
12
16
36
26
8
4
6
12
11
16
36
26
8
4
6
12
11
15
35
26
7
4
6
12
12
15
35
26
7
4
6
12
11
15
35
26
7
4
6
12
10
13
34
25
7
4
6
12
10
13
34
25
7
4
6
11
10
12
34
25
7
4
6
11
10
12
35
24
7
4
6
11
10
12
34
22
7
4
6
11
10
12
34
22
6
4
6
11
10
12
34
22
6
4
6
11
10
12
34
22
6
4
6
11
10
11
33
21
6
4
6
11
10
12
32
21
6
4
6
11
10
12
32
21
6
4
6
11
10
12
32
20
6
4
7
11
10
12
33
20
6
4
7
10
10
12
33
23
8
4
7
10
10
12
33
23
8
4
7
10
10
12
33
23
8
4
7
10
10
12
33
22
7
4
6
10
10
13
31
22
7
4
6
10
10
13
31
22
7
4
6
10
11
13
31
22
8
4
6
10
11
13
31
22
7
4
7
10
11
13
31
22
7
4
7
11
11
13
31
22
7
4
6
11
11
13
32
22
7
4
7
10
11
13
32
22
7
4
6
10
11
13
31
22
7
4
6
10
11
12
29
21
7
4
6
10
10
12
30
20
6
4
5
9
10
12
31
19
6
4
5
9
10
12
31
19
6
4
5
9
10
12
31
19
6
4
5
9
11
12
31
19
6
4
5
9
11
12
32
19
6
4
5
9
11
11
31
19
6
4
5
9
10
12
31
19
6
4
5
9
10
12
31
19
6
4
5
9
10
12
31
19
6
4
5
10
10
12
32
19
6
4
5
11
10
12
32
19
6
4
5
11
10
12
32
20
6
4
5
11
10
12
32
20
6
4
5
11
10
12
32
20
6
4
5
11
10
12
34
21
6
4
5
11
10
12
33
21
6
4
5
11
10
12
33
21
6
4
5
11
10
13
33
21
6
4
5
11
10
13
34
21
6
4
5
11
9
13
34
21
6
4
5
11
9
14
34
20
6
4
5
11
9
15
34
21
6
4
5
11
9
15
34
21
6
4
5
11
9
15
35
21
6
4
5
10
9
15
36
20
7
4
5
11
9
15
36
21
7
4
5
10
9
15
35
21
7
4
4
10
10
15
35
21
7
4
4
10
10
15
35
21
7
4
4
10
10
15
35
21
6
4
4
10
9
15
36
21
6
4
4
10
9
14
36
21
6
4
4
10
9
14
35
21
7
4
4
11
9
14
36
21
7
4
4
11
9
14
35
21
7
4
4
11
9
14
34
18
5
3
4
11
9
14
34
18
5
3
4
11
9
14
34
18
5
4
4
11
9
14
34
18
5
3
4
10
9
13
35
18
5
3
4
11
9
13
35
18
5
4
5
10
8
13
35
18
5
3
5
10
7
13
35
18
5
3
5
10
7
14
35
18
5
3
5
10
8
14
35
18
5
3
5
11
8
14
35
18
5
3
5
11
8
14
35
19
5
3
5
11
8
14
36
20
5
3
5
11
8
14
37
20
5
3
5
11
8
14
35
19
5
3
5
11
8
14
35
19
5
3
5
11
8
14
36
19
5
3
5
11
8
14
36
19
5
3
5
11
8
14
36
19
5
3
5
11
8
14
35
19
5
3
5
10
8
14
35
19
5
3
5
10
9
13
36
19
5
3
5
11
9
13
36
19
5
3
5
10
9
13
36
19
5
3
5
10
9
13
35
19
5
3
5
9
9
13
34
19
5
3
5
9
9
13
35
18
5
3
5
9
9
13
34
18
5
3
5
9
9
13
34
18
5
3
5
9
9
13
32
16
5
3
5
9
9
13
33
16
5
3
4
9
9
12
33
16
5
3
5
11
9
11
34
16
5
3
5
11
9
13
33
17
5
3
5
11
9
12
33
17
5
3
5
11
9
12
33
16
5
3
5
11
9
11
33
16
5
3
5
11
9
11
33
16
5
3
5
11
9
11
33
16
5
3
5
11
9
11
31
16
5
3
5
11
9
10
31
16
5
3
5
11
9
10
32
16
5
3
5
11
9
10
32
16
5
3
5
11
9
10
33
16
5
3
5
11
9
10
32
17
5
3
5
11
8
10
32
17
5
3
5
11
8
11
34
18
5
3
5
11
9
11
34
17
5
3
5
11
9
11
34
17
5
3
5
11
9
11
36
17
5
3
5
11
9
11
36
17
5
3
5
11
8
11
36
17
5
3
5
11
8
11
37
18
5
3
5
11
9
11
37
18
5
3
5
11
9
11
39
18
5
3
5
11
9
11
40
18
5
3
5
11
9
11
39
18
5
3
4
11
9
11
39
18
5
3
4
11
9
10
40
19
5
3
4
11
9
10
40
20
6
3
4
11
9
10
40
20
6
3
4
10
9
10
40
19
6
3
4
11
9
10
39
19
6
3
4
11
9
10
39
19
6
3
4
11
11
10
40
19
6
3
4
11
11
10
39
19
6
3
4
11
11
10
38
19
6
4
4
11
11
10
38
19
6
4
4
11
11
11
38
19
6
3
4
11
11
13
39
19
6
3
4
11
11
13
39
19
6
3
4
11
11
13
38
19
6
4
4
11
11
13
38
20
6
4
4
12
11
13
38
20
6
3
4
12
11
13
39
20
5
4
4
12
11
14
38
19
5
4
4
12
11
14
38
19
6
4
4
12
11
14
38
20
6
4
4
12
11
14
38
20
6
4
4
12
11
14
38
20
6
4
5
12
11
14
38
20
6
4
5
12
11
14
38
22
6
4
4
10
11
14
36
22
6
4
4
10
11
13
36
21
6
4
5
11
11
13
36
21
6
4
5
11
11
13
36
21
6
4
5
11
11
13
38
21
6
4
5
11
11
13
38
21
6
4
5
11
11
13
38
22
6
4
5
11
11
13
38
22
6
4
5
11
11
13
38
22
6
4
5
11
11
13
38
22
6
4
4
11
11
13
39
22
6
4
4
11
11
13
38
22
6
4
4
11
11
13
39
21
6
4
4
11
11
13
41
21
6
4
4
11
11
13
40
20
6
4
4
11
11
13
39
20
6
4
4
10
11
13
41
21
6
4
4
10
11
13
40
21
6
4
4
10
11
13
39
21
6
4
4
10
11
13
39
21
6
4
4
10
11
13
39
21
6
4
4
10
10
13
39
21
6
4
4
10
10
12
37
20
6
4
3
10
10
12
36
20
6
4
3
10
10
12
36
20
6
4
3
10
10
12
36
20
6
3
3
10
10
12
35
19
5
3
3
10
10
12
35
17
5
3
3
10
10
12
34
17
5
3
3
10
10
12
34
17
5
3
3
10
10
12
34
17
5
3
2
10
10
12
34
17
5
3
2
10
8
12
34
17
5
3
2
9
8
12
34
17
5
3
2
9
7
11
34
17
5
3
2
9
7
11
34
17
5
3
2
9
7
11
33
17
5
3
2
9
7
9
33
17
5
3
2
9
6
8
33
17
5
3
2
8
6
8
33
17
5
3
2
8
6
8
32
18
5
3
2
8
6
8
32
18
5
3
2
7
6
8
32
18
5
3
2
7
6
7
32
18
5
3
2
6
6
7
32
18
5
3
2
6
5
7
32
17
5
3
2
6
5
7
32
17
4
3
2
6
5
7
32
17
4
3
2
6
5
7
32
17
4
3
2
6
5
7
33
15
4
3
2
6
5
6
33
15
4
3
2
6
5
6
33
15
4
2
2
5
4
6
33
15
4
2
2
5
4
6
32
15
4
2
2
5
4
6
31
15
4
2
2
5
4
5
30
15
4
2
2
5
4
5
29
14
4
2
2
5
4
5
29
14
4
2
2
5
4
4
29
14
4
2
2
5
3
4
29
14
4
2
2
3
3
4
27
14
4
2
2
3
3
4
27
14
4
2
2
3
3
4
25
14
4
2
2
3
2
4
22
15
5
2
2
3
2
4
22
14
5
2
2
3
2
4
22
14
5
2
2
3
2
3
19
14
5
2
2
3
2
3
18
13
5
2
2
2
2
3
18
14
5
2
2
2
2
3
18
13
5
2
2
2
2
3
16
13
5
2
2
2
2
3
16
13
5
2
2
2
2
3
16
13
5
2
2
2
2
3
16
13
5
2
2
2
2
3
16
13
5
2
2
2
2
3
16
13
5
2
2
2
2
3
16
13
5
2
2
2
2
3
16
13
5
2
2
2
2
3
15
13
5
2
1
2
2
3
15
13
5
2
1
2
2
3
15
13
5
2
2
1
1
3
14
13
5
2
2
1
1
3
14
13
5
2
1
1
1
3
14
13
5
2
1
1
1
3
14
13
5
2
1
1
1
3
14
13
5
2
1
1
1
3
14
13
5
2
1
1
1
3
13
12
5
2
1
1
1
3
13
12
5
2
1
1
1
2
13
12
5
2
1
1
1
2
12
10
5
2
1
1
1
2
12
10
5
2
1
1
1
2
12
10
5
2
1
1
1
2
12
10
5
2
1
1
1
2
12
10
5
2
1
1
1
2
11
10
5
2
1
1
1
2
11
10
5
2
1
1
1
2
11
9
5
2
1
1
1
2
9
9
5
2
1
1
1
2
6
9
5
2
1
1
1
2
6
9
5
2
1
1
1
2
6
9
5
2
1
1
1
2
6
8
5
2
1
1
1
2
6
8
5
2
1
1
1
2
6
8
5
2
1
1
1
2
6
8
5
2
1
1
1
2
6
8
5
2
1
1
1
2
6
8
5
2
1
1
1
2
6
8
5
2
1
1
1
2
6
8
5
2
1
1
1
2
6
8
5
2
1
1
1
2
6
8
4
2
1
1
1
2
6
8
4
2
1
1
1
2
6
7
4
2
1
1
1
2
6
6
3
1
1
1
1
2
6
6
3
1
1
1
1
2
6
6
3
1
1
1
1
2
6
6
2
1
1
1
1
2
6
5
2
1
1
1
1
2
6
5
2
1
1
1
1
2
6
5
2
1
1
1
1
2
7
5
2
1
1
1
1
2
7
5
2
1
1
1
1
2
7
5
2
1
1
1
1
2
7
5
2
1
1
1
1
2
7
5
2
1
1
1
1
2
7
5
2
1
1
1
1
2
7
5
2
1
1
1
1
2
7
5
2
1
1
1
1
2
7
5
2
1
1
1
1
2
7
5
2
1
1
1
1
2
7
5
2
1
1
1
1
2
7
5
2
1
1
1
1
2
7
3
2
1
1
1
1
2
7
4
2
1
1
1
1
2
7
3
2
1
1
1
1
2
7
3
2
1
1
1
1
2
8
3
2
1
1
1
1
2
8
4
2
1
1
1
1
2
8
4
2
1
1
1
1
2
8
4
2
1
1
1
1
2
8
3
2
1
1
1
1
2
8
3
2
1
1
1
1
2
8
3
2
1
1
1
1
2
8
3
2
1
1
1
1
2
8
3
2
1
1
1
1
2
8
3
2
1
1
1
1
2
8
3
2
1
1
1
1
2
9
4
2
1
1
1
1
2
9
4
2
1
1
1
1
2
9
4
2
1
1
1
1
2
9
4
2
1
1
1
1
2
9
4
2
1
1
1
1
2
9
4
2
1
1
1
1
2
9
4
2
1
1
1
1
2
9
4
2
1
1
1
1
2
9
4
2
2
1
1
1
2
9
4
2
2
1
1
1
2
9
4
2
2
1
1
1
2
9
4
2
1
1
1
1
2
9
4
2
1
1
1
1
2
9
4
2
1
1
1
1
2
9
4
2
1
1
1
1
2
9
4
2
1
1
1
1
2
8
3
2
1
1
1
1
2
9
3
2
1
1
1
1
2
9
3
2
1
1
1
1
2
9
3
2
1
1
1
1
2
9
4
2
1
1
1
1
2
9
4
2
1
1
1
1
2
10
4
2
1
1
1
1
2
10
4
2
1
1
1
1
2
10
4
2
1
1
1
1
2
9
4
2
1
1
1
1
2
13
4
2
1
1
1
1
2
16
5
2
1
1
1
1
3
16
6
2
1
1
1
1
3
16
6
2
1
1
1
1
3
16
6
2
1
1
1
1
3
18
6
2
1
1
1
1
3
18
6
2
2
2
1
2
3
19
6
2
2
2
1
2
3
19
6
2
2
2
1
2
3
19
6
2
2
2
1
3
3
19
6
2
2
3
6
3
3
19
6
3
2
3
6
3
3
19
6
3
2
3
6
3
3
19
6
3
3
4
6
3
4
21
7
3
3
4
6
3
5
22
7
4
3
4
6
3
5
22
7
4
3
4
6
3
5
22
7
4
3
4
7
3
6
23
7
4
3
4
10
4
6
24
7
5
3
4
10
4
6
28
9
5
3
5
10
4
6
32
12
5
3
5
10
4
7
34
14
5
4
5
11
4
8
34
14
5
4
5
12
4
9
36
15
6
5
5
12
4
9
37
16
6
5
5
12
5
9
37
16
6
5
5
12
5
10
39
20
7
5
5
12
6
10
39
20
8
6
5
12
6
11
39
20
8
6
5
13
7
11
40
20
8
6
5
13
10
14
42
21
9
6
6
13
11
14
42
21
9
6
6
13
11
15
43
22
9
7
7
14
11
16
46
24
10
7
7
14
11
17
49
25
10
7
7
14
11
17
50
25
10
7
7
14
12
18
51
26
12
7
7
14
13
18
51
26
12
7
7
14
13
18
52
26
12
7
7
14
13
19
52
26
12
8
7
14
13
19
52
26
12
8
7
14
13
19
53
27
12
8
7
14
13
19
53
27
12
8
7
15
13
19
54
27
12
8
8
15
14
21
54
30
13
8
8
15
14
22
55
32
13
8
8
15
15
22
56
33
13
8
8
15
15
22
56
34
13
8
8
15
15
22
56
34
13
8
8
15
15
22
56
34
13
8
8
15
15
23
55
34
13
8
8
15
15
23
55
34
13
8
8
15
15
23
55
35
13
8
8
15
15
23
55
35
13
8
9
15
15
23
55
35
13
8
8
16
16
23
55
35
13
9
9
17
16
24
55
35
13
9
9
17
16
24
55
35
14
9
10
17
16
24
56
37
16
9
10
17
16
24
57
38
16
9
10
16
16
24
57
38
16
9
10
16
16
24
57
40
16
9
10
16
17
25
57
40
16
9
9
16
17
25
57
39
16
9
9
17
17
25
57
41
16
9
9
17
17
25
57
41
16
9
9
17
17
25
57
41
16
9
9
16
17
25
56
42
16
9
10
15
17
25
57
43
16
9
9
15
17
25
55
43
16
9
9
15
17
25
53
42
16
9
9
15
17
25
54
42
16
9
9
14
17
25
53
42
16
9
9
13
17
25
52
41
15
8
9
13
17
25
52
42
15
8
9
14
17
25
51
42
15
8
9
14
18
25
52
41
15
8
9
14
17
25
52
41
14
8
9
14
17
24
52
41
14
8
9
14
17
24
52
41
14
8
9
14
15
23
50
41
14
7
9
13
15
23
50
41
14
7
9
14
15
22
49
40
14
7
9
14
15
21
47
40
14
7
9
14
15
21
45
39
14
7
9
14
15
21
44
39
13
7
9
14
14
21
43
39
12
7
9
13
14
20
43
39
12
7
9
13
14
20
42
39
12
7
9
13
14
20
42
39
12
7
9
13
14
20
42
39
12
7
9
13
14
20
41
39
12
7
9
13
14
20
42
39
12
7
9
14
14
20
41
39
12
7
9
14
14
18
41
38
12
7
9
14
13
17
40
36
12
7
9
14
13
17
39
35
11
7
9
14
13
18
40
35
11
7
9
14
13
19
40
35
11
7
8
14
13
19
40
35
11
7
8
14
13
19
40
35
11
7
9
13
13
19
40
35
11
7
9
14
13
19
41
35
11
7
8
14
13
19
42
35
11
7
8
14
13
19
42
35
11
6
9
13
12
18
42
35
11
6
8
12
13
17
43
35
11
6
8
12
13
17
45
36
11
6
7
12
12
18
43
33
8
5
7
12
13
18
43
33
8
5
7
12
12
18
44
33
8
5
7
12
11
19
44
31
8
6
7
12
11
18
44
32
8
6
7
11
11
17
44
32
8
6
7
11
11
17
44
31
8
6
7
11
11
17
44
31
8
6
7
11
11
18
44
30
8
6
7
11
11
18
44
30
8
6
7
11
11
18
45
29
8
6
7
11
11
18
45
30
9
6
7
11
11
17
44
29
9
6
7
11
11
17
44
30
9
6
7
11
11
17
45
29
9
6
7
11
11
17
45
29
9
6
7
11
11
18
45
28
8
6
7
11
10
18
45
27
8
6
7
10
9
18
43
27
9
6
7
10
10
18
44
28
9
6
7
10
10
18
45
28
9
6
7
10
10
18
45
28
9
6
7
13
10
18
45
28
9
6
7
12
10
18
45
28
8
6
7
12
10
18
45
27
8
6
7
12
10
18
45
27
8
6
7
13
10
18
45
27
8
6
7
13
10
18
45
27
9
6
7
13
11
18
46
26
8
6
7
13
10
18
45
26
8
6
7
13
10
18
46
27
9
6
7
13
10
18
46
27
9
5
6
13
10
18
46
27
9
5
6
13
10
18
46
27
9
5
6
13
10
18
46
27
9
5
6
13
10
18
46
27
9
5
6
13
10
17
45
26
8
5
6
13
10
17
45
26
8
5
6
13
10
17
45
26
8
5
6
13
10
16
44
26
8
5
6
13
10
15
44
26
8
5
6
13
10
15
44
26
8
5
6
15
10
15
44
25
8
5
6
15
10
16
44
25
8
5
6
15
10
16
43
25
8
4
6
15
10
15
43
25
8
4
6
15
11
16
42
25
8
4
6
15
10
16
42
25
8
4
6
15
10
16
41
25
8
4
5
15
10
16
39
23
8
4
5
15
10
16
39
23
8
4
5
15
10
16
39
23
8
4
5
15
10
16
38
23
8
4
5
15
10
15
38
23
7
3
5
15
10
14
39
22
7
3
5
15
10
14
38
22
7
3
5
15
10
14
38
21
6
3
5
15
10
14
38
22
6
3
5
15
10
14
40
22
6
3
5
15
10
14
40
21
6
3
5
15
10
14
39
21
7
3
5
15
10
14
38
20
6
3
5
15
10
14
39
21
6
3
5
15
10
14
36
20
6
3
5
15
10
14
37
21
6
3
5
15
10
14
37
21
6
3
5
15
10
14
37
21
6
3
6
15
10
14
38
21
6
3
6
15
10
14
38
21
6
2
5
15
10
14
37
20
6
3
5
15
10
14
36
19
6
2
5
15
9
15
37
20
6
2
5
13
9
15
39
20
6
3
5
13
9
15
39
20
6
3
5
14
9
15
39
20
6
3
5
13
8
15
39
20
6
3
5
12
8
15
41
20
6
3
5
12
9
15
40
20
6
3
5
12
8
15
40
20
6
3
5
13
8
15
42
20
6
3
5
12
8
15
42
19
5
3
5
12
8
16
42
19
5
3
5
13
8
16
42
19
5
3
5
13
8
16
42
19
5
3
5
13
8
16
40
19
5
3
5
13
8
16
40
19
5
3
5
13
8
16
41
20
5
3
5
13
8
16
41
19
5
3
5
13
8
16
41
19
5
3
5
13
8
16
41
18
5
3
5
13
8
16
40
18
5
3
5
13
8
16
40
18
5
3
5
11
8
16
41
18
5
3
5
11
8
15
41
18
5
3
5
11
8
15
41
18
5
3
5
11
8
15
42
18
5
3
5
11
7
15
42
18
5
3
5
11
8
15
42
18
5
3
5
11
7
15
42
18
5
3
5
11
7
16
41
18
5
3
5
11
7
17
41
19
5
3
5
11
8
16
44
19
5
3
5
11
9
16
44
19
5
3
5
11
9
16
43
19
5
3
5
11
9
16
43
19
5
3
5
11
9
16
43
19
5
3
5
11
9
16
43
20
5
3
5
11
9
16
43
20
5
3
5
11
9
16
41
19
5
3
5
10
9
16
42
19
5
3
5
10
8
18
42
19
5
3
5
10
8
18
42
19
5
3
5
10
8
18
41
18
5
3
5
10
8
18
41
18
5
3
5
10
8
18
41
18
5
3
5
10
9
18
40
18
5
3
5
10
8
18
40
17
5
3
4
10
9
18
39
17
5
3
5
10
9
18
39
18
5
3
5
10
9
18
39
19
5
3
5
10
9
18
39
19
5
3
5
10
9
17
37
19
5
3
5
10
9
17
35
20
5
3
5
10
9
17
36
21
5
3
4
10
9
17
35
21
5
3
5
10
9
17
35
20
5
3
4
10
9
17
33
20
5
3
4
10
9
17
33
20
4
3
4
10
9
17
33
20
4
3
4
10
9
16
31
20
4
3
4
10
9
16
31
21
4
3
4
10
9
16
31
21
4
3
4
10
9
16
31
21
4
3
4
10
9
17
32
21
4
3
5
10
9
18
32
21
4
3
4
9
9
18
32
21
4
3
4
9
9
18
32
20
4
3
4
10
9
18
32
20
4
3
4
11
9
18
32
20
4
3
4
11
9
18
32
20
4
3
4
11
9
18
33
20
4
3
4
11
9
18
32
20
5
3
5
11
8
18
31
20
4
3
4
11
8
18
31
20
4
3
5
11
8
18
30
19
4
3
5
11
8
18
30
19
4
3
5
11
8
18
30
20
5
3
5
11
8
18
30
20
5
3
5
11
8
18
31
20
5
3
5
11
8
17
32
20
5
3
5
11
8
18
32
20
5
3
5
11
8
18
29
20
5
3
5
11
7
18
29
20
5
3
5
11
7
18
29
20
5
3
5
11
7
18
29
20
5
3
5
11
7
18
29
20
5
3
5
11
7
18
30
19
4
3
5
11
7
18
28
19
4
3
5
11
7
19
29
19
4
3
5
11
7
18
29
19
5
3
5
11
7
17
29
18
4
3
5
11
7
17
29
19
4
3
5
11
7
17
30
19
4
3
5
11
7
16
29
19
4
3
5
11
8
16
28
19
5
3
5
11
8
16
29
19
5
3
5
11
8
16
29
19
5
3
5
11
7
16
28
19
5
3
5
11
8
16
30
19
5
3
5
11
8
16
31
18
5
3
5
11
8
16
31
19
5
3
5
11
8
16
31
19
5
3
5
11
8
17
31
17
5
3
5
11
8
17
30
16
5
3
5
11
8
17
30
17
5
3
5
11
8
18
30
17
5
3
5
10
8
18
30
17
5
3
5
10
9
18
31
17
5
3
5
11
9
18
30
17
5
3
5
11
9
18
30
16
5
3
5
10
8
18
30
16
5
3
5
10
8
18
30
16
5
3
5
10
8
18
30
16
5
3
4
10
8
18
32
17
6
3
5
10
8
18
32
17
6
3
5
10
8
18
32
17
6
3
5
10
8
18
31
17
6
3
5
10
8
18
31
17
6
3
5
8
8
18
30
19
7
4
5
9
8
18
31
20
7
4
5
9
8
18
30
20
7
4
5
8
8
18
30
20
6
4
5
8
8
17
30
20
6
4
5
8
9
18
30
21
6
3
4
8
8
18
30
21
7
4
4
8
8
18
31
21
7
4
4
8
8
19
31
20
6
4
4
8
8
19
31
20
6
4
4
8
9
19
30
20
7
4
4
9
9
18
29
20
7
4
4
9
9
17
28
20
7
4
4
9
9
17
31
20
7
4
4
10
9
17
31
20
7
4
4
9
9
17
31
20
7
4
4
10
9
18
31
20
7
4
4
10
9
18
31
20
7
4
4
10
9
18
31
20
7
4
4
10
9
18
32
21
7
4
4
10
9
16
31
21
7
4
4
10
9
16
33
21
7
4
4
10
9
16
33
21
7
4
4
10
9
17
34
21
7
4
4
10
9
17
33
21
7
4
4
10
9
17
34
21
7
4
4
10
8
17
35
20
7
4
4
9
8
17
35
20
7
4
4
9
8
17
35
21
7
4
4
10
9
17
35
21
7
4
4
10
8
17
34
21
7
4
4
10
8
17
34
21
7
4
4
10
8
17
34
21
7
4
4
10
8
17
36
21
7
4
4
10
8
16
36
21
7
4
4
10
8
16
36
21
7
4
4
10
8
16
36
20
7
4
4
10
8
16
36
20
7
4
4
10
8
16
36
20
7
4
4
10
7
15
36
20
7
4
4
9
7
15
36
21
7
4
4
9
7
15
37
21
7
4
4
9
7
15
37
20
7
4
4
9
7
15
37
20
7
4
4
9
7
14
37
21
6
4
4
9
7
12
35
20
5
3
4
9
7
12
35
20
5
3
4
9
6
12
35
20
5
3
4
9
6
12
35
20
5
3
4
9
7
12
37
21
5
3
4
9
6
12
37
18
5
3
3
9
6
12
37
19
5
3
3
9
6
12
37
19
5
3
3
9
6
12
37
19
5
3
3
9
6
12
37
18
5
3
3
9
6
11
37
17
5
3
3
9
6
11
37
17
5
3
3
9
6
10
37
17
5
3
3
9
6
9
37
17
5
3
3
8
6
9
37
17
4
2
3
8
6
9
37
17
4
2
3
7
6
9
37
16
4
2
3
7
5
9
37
16
5
2
3
6
5
8
35
16
5
3
3
6
5
8
34
16
4
2
3
6
5
8
34
16
4
2
3
5
4
8
34
16
4
2
2
5
4
8
34
16
4
2
2
5
4
8
33
16
4
2
2
5
4
8
33
15
4
2
2
5
4
8
33
15
4
2
2
5
4
8
30
15
5
2
2
5
4
8
30
15
5
2
2
5
4
7
30
14
5
2
2
5
4
6
30
14
5
2
2
4
3
6
29
14
5
2
2
4
3
5
28
14
4
2
2
4
2
5
28
14
4
2
2
4
2
5
28
14
4
2
2
4
2
4
28
13
4
2
2
4
2
4
27
13
4
2
2
3
2
4
27
13
4
2
2
3
2
4
26
13
4
2
2
3
2
4
24
13
4
2
2
2
2
4
23
13
4
2
1
2
2
4
23
13
4
2
1
2
2
4
23
13
4
2
1
2
2
4
23
13
4
2
1
2
2
3
23
13
4
2
1
2
2
3
22
13
4
2
1
2
2
3
22
12
4
2
1
2
2
3
19
11
4
2
1
2
2
3
18
11
4
2
1
2
2
3
18
11
4
2
1
2
2
3
18
10
4
2
1
2
2
3
18
10
4
2
1
2
2
3
18
10
4
2
1
2
2
3
18
10
4
2
1
2
2
3
17
10
4
2
1
2
1
2
11
8
4
2
1
2
1
2
11
8
4
2
1
1
1
2
11
7
4
2
1
1
1
2
10
7
4
2
1
1
1
2
9
7
4
2
1
1
1
2
9
7
4
2
1
1
1
2
9
7
4
2
1
1
1
2
9
7
4
2
1
1
1
2
9
6
4
2
1
1
1
2
9
6
4
2
1
1
1
2
8
6
4
2
1
1
1
2
8
6
4
2
1
1
1
2
8
6
4
2
1
1
1
2
7
6
4
2
1
1
1
2
7
6
4
2
1
1
1
2
7
6
4
2
1
1
1
2
7
6
4
2
1
1
1
2
7
6
4
2
1
1
1
2
8
5
4
2
1
1
1
2
7
6
4
2
1
1
1
2
7
6
4
2
1
1
1
1
7
5
3
1
1
1
1
1
7
5
3
2
1
1
1
1
6
5
3
2
1
1
1
1
7
6
3
2
1
1
1
1
7
6
3
2
1
1
1
1
7
6
3
2
1
1
1
1
6
5
3
1
1
1
1
1
6
5
3
1
1
1
1
1
6
5
3
1
1
1
1
1
6
5
3
1
1
1
1
1
6
5
3
1
1
1
1
1
6
5
3
1
1
1
1
1
6
4
3
1
1
1
1
1
6
4
3
1
1
1
1
1
6
4
3
1
1
1
1
1
6
4
3
1
1
1
1
1
8
4
3
1
1
1
1
1
8
4
3
1
1
1
1
1
8
4
3
1
1
1
1
1
8
4
3
1
1
1
1
1
8
4
3
1
1
1
1
1
8
4
3
1
1
1
1
1
8
4
3
1
1
1
1
1
8
4
3
2
1
1
1
1
8
4
3
2
1
1
1
1
8
4
3
1
1
1
1
1
8
4
3
2
1
1
1
1
8
5
3
1
1
1
1
1
9
5
3
2
1
1
1
1
9
5
3
2
1
1
1
1
9
5
3
2
1
1
1
1
9
5
3
2
1
1
1
1
9
5
3
2
1
1
1
1
9
5
3
2
1
1
1
1
9
5
3
2
1
1
1
1
9
4
3
1
1
1
1
1
9
4
2
1
1
1
1
1
9
4
2
1
1
1
1
1
9
4
2
1
1
1
1
1
9
5
3
1
1
1
1
1
9
5
3
1
1
1
1
1
9
5
3
1
1
1
1
1
9
5
3
1
1
1
1
1
9
5
3
1
1
1
1
1
9
5
3
1
1
1
1
1
9
5
3
1
1
1
1
1
9
5
3
1
1
1
1
1
9
5
3
1
1
1
1
1
10
5
3
1
1
1
1
1
10
5
3
1
1
1
1
1
10
5
3
1
1
1
1
1
10
5
3
1
1
1
1
1
10
5
3
1
1
1
1
1
10
5
3
1
1
1
1
1
10
5
3
1
1
1
1
1
10
5
3
1
1
1
1
1
10
5
3
1
1
1
1
1
10
5
3
1
1
1
1
1
10
5
3
1
1
1
1
1
10
5
3
1
1
1
1
1
10
5
3
1
1
1
1
1
10
5
3
1
1
1
1
1
10
5
3
1
1
1
1
1
10
5
3
1
1
1
1
2
10
5
3
1
1
1
1
2
11
5
3
1
1
1
1
2
10
5
3
1
1
1
1
2
10
5
3
1
1
1
1
2
10
5
3
1
1
1
1
2
11
5
3
1
1
1
1
2
11
6
3
1
1
1
1
2
12
6
3
1
1
1
1
2
12
7
3
1
1
1
1
2
12
7
3
1
1
1
1
2
12
7
3
1
1
1
1
2
14
7
3
1
1
1
1
2
17
8
3
1
1
1
1
3
18
8
3
1
1
1
1
3
18
8
3
2
1
1
1
3
19
9
3
2
1
2
1
3
21
10
3
2
1
3
2
3
21
10
3
2
1
3
2
3
21
10
4
2
1
3
2
4
21
10
5
3
1
3
2
4
22
12
5
3
2
3
2
4
22
15
6
3
2
3
2
4
22
16
6
3
2
4
2
4
24
16
6
3
3
4
3
4
27
16
6
3
3
4
3
5
27
17
7
3
3
5
3
5
27
17
7
3
3
5
3
5
28
17
7
3
3
6
3
5
29
19
8
4
3
6
3
5
30
21
9
4
3
6
5
5
31
22
9
4
3
7
5
5
33
22
9
4
3
7
5
6
34
22
9
4
3
7
5
7
35
25
9
4
3
7
6
7
36
25
9
4
3
7
6
7
36
25
9
4
3
9
6
7
37
25
9
4
4
9
6
7
37
25
9
4
4
9
7
8
37
26
9
4
5
9
7
8
39
26
9
4
5
9
7
9
41
26
10
4
5
9
8
10
42
26
10
4
5
10
8
10
42
27
10
4
5
10
8
12
45
27
10
4
5
10
8
13
45
28
10
5
6
10
8
13
45
28
10
5
6
10
9
14
46
28
11
5
6
10
9
14
47
29
11
5
6
10
9
15
47
30
11
6
6
11
9
15
47
30
11
6
6
11
9
15
47
31
11
6
6
11
9
17
47
31
11
6
6
11
10
18
48
31
11
6
6
11
10
18
49
31
11
6
6
11
11
18
50
31
11
6
6
12
11
18
51
32
11
6
6
12
11
18
51
32
11
6
6
12
11
20
51
32
11
6
6
12
11
21
51
33
11
6
6
12
11
21
51
33
11
6
6
12
12
21
51
33
12
6
6
12
12
21
51
33
12
6
7
13
12
21
50
32
12
6
7
13
12
21
50
32
12
6
7
13
13
22
50
33
12
6
7
13
13
22
50
33
12
6
7
13
13
22
52
34
12
6
7
13
13
22
53
36
13
6
7
13
13
22
54
36
13
6
7
13
13
22
55
36
12
6
7
13
13
22
55
35
12
6
7
13
13
22
55
34
12
6
7
13
13
22
54
34
12
6
7
13
13
22
54
34
12
6
8
13
13
22
53
35
12
7
7
13
13
22
53
34
12
7
7
13
13
22
53
34
12
7
7
13
13
23
53
34
12
7
8
13
13
24
52
34
11
7
8
14
13
24
52
33
10
7
8
13
13
24
53
33
10
7
8
14
12
24
52
33
10
7
8
13
12
24
51
33
10
7
8
13
12
24
50
31
10
7
8
13
12
24
50
31
10
7
8
13
12
24
50
31
10
7
8
13
12
24
50
31
10
7
8
13
12
24
50
31
10
7
8
13
12
24
50
32
10
7
8
13
12
23
49
31
10
7
8
13
12
23
47
31
10
7
8
13
11
23
46
31
10
7
8
13
11
23
48
31
9
7
8
13
11
23
46
31
9
7
8
13
11
22
46
31
9
7
8
13
11
22
46
31
9
7
8
13
10
21
46
31
9
6
8
13
10
21
46
31
9
6
8
12
10
21
47
29
8
6
8
12
10
21
47
29
8
6
8
12
10
21
47
28
8
6
8
12
10
20
48
28
8
6
8
12
10
19
46
28
8
6
8
12
10
19
46
29
8
6
8
12
10
20
45
28
8
6
8
11
9
19
45
28
8
6
8
11
9
20
46
28
8
6
8
11
9
19
45
28
8
6
8
11
9
18
46
28
8
6
8
11
9
19
46
28
8
6
8
11
9
19
46
28
8
6
8
11
9
20
46
28
8
6
7
11
8
21
46
29
8
6
7
11
8
21
47
29
8
6
7
11
8
20
47
29
8
6
7
11
8
21
47
29
8
6
7
11
8
21
44
28
8
6
7
11
8
21
43
25
7
6
7
11
8
20
42
27
7
6
7
11
8
20
42
28
7
6
7
12
8
20
43
28
7
6
7
12
8
20
43
28
7
6
7
13
8
21
43
28
7
6
7
13
8
21
43
27
7
5
6
13
8
21
43
27
7
5
6
13
8
21
42
27
7
5
6
13
8
21
42
27
7
5
6
13
8
21
42
27
7
5
6
12
8
19
42
26
7
5
6
12
9
19
44
26
7
5
7
12
9
19
43
26
7
5
7
12
9
19
43
26
7
5
7
12
9
19
43
26
7
5
6
12
9
19
43
26
7
5
6
12
9
19
43
26
7
5
6
13
9
20
45
26
7
5
6
13
9
20
45
26
7
5
7
12
9
20
45
26
7
5
7
12
9
20
45
27
7
5
7
13
9
20
45
28
7
5
7
13
9
20
45
28
7
5
7
13
9
20
46
28
7
5
7
13
9
20
43
28
7
5
7
13
9
19
44
28
7
5
6
13
9
19
44
28
7
5
6
13
9
19
44
28
7
5
7
13
9
19
44
28
7
5
7
13
9
19
44
28
7
5
7
13
9
19
44
28
7
5
7
13
10
19
44
28
7
5
7
13
10
19
44
29
7
5
6
13
10
19
44
30
7
5
6
13
11
19
45
30
7
5
6
14
11
20
45
30
7
5
6
14
10
20
45
30
7
5
6
14
10
20
44
29
7
5
6
14
10
19
44
29
7
5
6
14
10
19
44
29
7
5
6
14
10
18
43
29
7
5
6
14
10
18
43
28
7
5
6
14
10
18
44
29
7
5
6
14
11
16
44
28
6
5
6
14
12
15
44
28
6
5
6
14
12
16
44
28
6
5
6
14
12
16
44
28
6
5
6
14
12
16
45
28
6
5
6
14
12
16
45
27
6
5
6
14
12
16
44
27
6
5
6
14
12
16
44
25
6
5
6
14
12
16
44
25
6
4
6
13
12
16
44
25
6
5
6
13
12
17
44
25
6
5
6
13
12
16
44
25
6
5
6
13
11
16
44
25
6
5
6
13
12
16
43
26
6
5
6
13
12
16
44
26
6
5
6
12
12
16
44
26
6
5
6
12
12
16
45
26
6
5
6
12
12
16
45
26
6
5
6
12
11
16
43
26
6
5
6
12
11
16
42
26
6
4
6
12
11
16
43
26
6
5
6
12
12
16
42
26
6
4
6
12
13
16
43
26
6
5
6
12
13
17
43
26
6
5
6
12
13
16
41
26
6
5
6
12
13
15
41
26
6
4
5
12
13
15
42
26
6
5
5
11
13
15
41
24
6
5
5
11
13
15
42
24
6
4
5
11
13
15
44
25
7
5
6
11
13
15
44
25
7
5
6
11
13
15
44
24
7
5
5
10
13
16
43
24
6
5
6
10
13
16
43
25
6
4
6
10
13
16
42
24
6
4
5
10
13
16
42
24
6
4
5
10
13
16
41
24
6
4
5
10
13
16
41
24
7
4
5
10
13
16
41
24
6
4
5
11
13
16
40
23
6
4
5
11
13
16
39
22
6
5
5
11
12
16
39
22
7
5
5
10
12
15
39
22
7
5
5
10
12
14
39
22
7
5
5
10
12
14
39
22
7
5
5
10
12
15
38
22
7
6
5
10
12
16
38
22
7
6
5
10
12
16
41
22
7
6
5
10
12
16
41
22
7
6
5
10
12
16
40
22
7
6
5
10
11
16
39
22
7
6
5
11
10
16
39
22
7
6
5
10
10
16
39
22
7
6
5
10
10
15
39
22
7
6
5
10
10
15
37
23
7
6
5
10
10
15
37
23
7
6
5
10
10
15
39
23
7
6
5
10
10
15
39
23
7
6
5
10
10
15
38
23
7
6
5
10
10
15
37
23
7
6
5
10
11
14
37
23
7
6
5
10
11
14
37
23
7
6
5
10
11
14
37
22
6
6
5
10
11
14
37
22
6
6
5
10
11
14
36
21
6
6
5
10
11
14
36
22
7
6
5
10
11
15
36
22
7
6
5
10
10
14
36
22
7
6
6
11
10
14
36
22
7
6
6
11
10
15
36
22
7
6
5
11
10
15
36
21
7
6
5
10
9
15
37
21
7
6
6
10
7
15
37
22
7
6
6
10
7
15
37
23
7
6
6
10
7
15
37
23
7
6
6
10
7
15
37
22
7
6
6
10
7
15
36
22
7
6
6
10
7
15
36
22
7
5
5
11
8
15
36
22
7
5
5
11
8
15
34
20
6
5
4
11
8
15
34
20
6
5
4
11
8
16
36
20
6
5
4
11
8
15
36
20
7
5
4
11
8
15
36
20
7
5
4
11
8
15
37
20
7
5
4
11
8
15
37
20
7
5
5
11
8
15
37
20
7
5
5
11
8
15
38
20
7
5
5
12
8
15
41
21
7
6
5
11
8
15
42
21
7
6
5
11
8
15
42
21
7
5
5
11
9
15
42
21
7
5
5
12
9
15
42
21
7
5
5
12
9
15
42
21
7
5
5
12
10
15
42
21
7
5
5
13
10
15
42
21
7
4
5
13
10
14
42
21
7
4
5
13
10
13
39
20
7
4
5
13
10
13
39
20
7
4
5
13
10
13
39
20
7
4
5
13
10
13
39
20
7
4
5
12
10
13
39
20
6
4
5
12
10
13
39
20
6
4
5
12
10
13
39
20
6
4
5
12
10
13
39
19
6
4
5
12
10
13
39
19
6
4
5
12
10
13
37
19
6
4
5
12
10
13
37
19
6
4
5
12
11
13
38
19
6
4
5
12
11
13
39
19
6
4
5
12
11
13
39
19
6
4
5
12
11
13
38
19
6
4
5
12
11
13
38
19
6
4
5
12
11
13
39
19
6
4
5
12
11
13
38
18
6
4
5
12
11
13
40
20
6
4
6
12
11
12
40
19
6
4
6
12
11
12
40
20
6
4
5
11
11
13
41
20
6
4
5
11
11
13
44
21
6
4
5
11
11
13
43
21
6
4
5
11
11
12
43
21
6
4
5
12
11
12
40
20
5
4
5
12
11
12
40
19
5
3
5
12
11
12
40
19
5
3
5
12
11
12
40
19
5
3
5
12
11
12
40
19
5
3
5
12
11
12
40
19
5
3
5
11
11
12
41
19
5
4
5
11
11
12
40
19
5
3
5
11
11
11
39
19
5
3
5
11
11
10
38
19
5
3
5
11
11
11
37
18
5
3
5
11
11
11
38
18
5
3
5
11
11
11
37
18
5
3
5
11
11
11
37
19
5
3
5
11
11
11
38
19
5
3
5
11
11
11
38
19
5
3
5
10
11
11
34
19
4
3
5
10
11
11
33
18
4
3
5
10
11
11
33
18
4
3
5
10
11
11
33
18
4
3
5
10
11
11
33
18
4
3
4
10
10
11
34
18
4
3
4
10
9
11
33
18
4
3
4
9
9
12
36
19
4
3
5
9
10
12
37
19
4
3
5
9
10
12
38
19
4
3
4
9
10
12
38
19
5
3
4
9
9
13
38
19
4
3
4
9
9
13
38
19
4
3
4
9
9
13
38
19
4
3
4
9
9
13
39
19
5
3
4
9
9
13
39
19
5
3
4
9
9
13
39
19
5
3
4
10
9
13
39
19
5
3
4
10
9
13
39
19
5
3
5
10
9
13
40
19
5
3
5
10
9
13
40
18
5
3
5
10
9
13
39
18
5
3
5
10
9
13
39
18
5
3
5
9
8
13
39
18
5
3
5
10
9
13
39
18
5
3
5
10
8
13
39
18
5
3
5
10
8
13
39
19
5
3
4
10
8
13
38
17
5
3
4
10
8
13
38
17
5
3
4
10
8
13
37
16
5
3
4
10
9
12
36
16
5
3
4
10
9
12
33
15
5
3
4
10
9
12
33
14
5
3
4
10
9
12
34
14
5
3
4
10
9
12
34
14
5
3
4
10
9
12
34
14
5
3
4
9
9
12
34
14
5
3
4
9
9
12
33
14
5
3
4
9
9
12
33
14
5
3
4
9
9
12
33
14
5
3
4
9
8
12
33
14
5
3
4
9
8
13
34
15
5
3
4
10
8
13
34
15
5
3
4
10
8
13
34
15
5
3
3
10
8
12
34
14
5
3
3
10
8
12
33
14
5
3
3
10
8
12
33
14
5
3
3
10
8
12
33
13
5
3
3
10
8
12
31
13
5
3
3
10
8
12
31
12
5
3
3
9
8
12
31
12
5
3
3
9
8
11
31
12
5
3
3
9
8
11
31
12
5
3
3
9
7
11
30
12
5
3
3
9
7
11
30
12
5
3
3
9
7
11
30
12
5
3
3
9
7
10
31
13
5
3
3
9
7
10
28
13
5
3
3
8
6
10
26
13
5
3
3
8
6
9
25
13
5
3
3
8
6
9
24
13
5
3
3
8
6
8
24
13
5
3
3
8
6
8
24
13
5
3
3
8
6
8
24
12
5
3
3
8
6
8
23
12
5
3
3
8
6
8
22
13
5
3
3
8
6
8
22
15
4
3
2
7
6
8
22
15
4
3
2
7
6
8
23
14
4
3
2
7
6
8
22
14
4
3
2
7
6
8
21
14
4
3
2
7
6
8
21
14
4
3
2
7
6
8
21
14
4
3
2
7
6
8
21
14
4
3
2
6
6
8
21
15
4
3
2
6
6
8
21
14
4
3
2
6
6
7
20
14
4
3
2
5
5
7
20
14
4
3
2
5
5
7
21
14
4
3
2
5
5
7
21
14
4
2
2
5
4
7
20
15
4
3
2
5
4
7
20
15
4
3
2
5
4
7
20
14
5
3
2
5
4
7
20
15
5
3
2
5
4
7
20
15
5
3
2
5
3
6
20
15
5
3
2
5
3
6
20
15
5
3
2
5
3
6
20
15
5
3
2
5
3
6
20
15
5
3
2
5
3
6
20
15
5
3
2
5
3
6
20
15
6
3
2
5
2
5
19
14
5
3
2
4
2
5
19
14
6
3
2
4
2
5
19
14
6
3
2
3
2
5
19
14
6
3
2
2
2
5
19
14
6
3
2
2
2
5
18
14
6
3
2
2
2
4
18
14
6
3
2
2
2
4
18
14
5
3
2
2
2
4
18
14
5
3
2
2
2
4
18
14
5
3
2
2
2
4
18
14
5
3
2
2
2
4
18
14
5
3
2
2
2
4
18
14
5
3
2
2
2
4
18
14
5
3
2
2
2
4
17
14
5
3
2
2
2
4
14
13
5
3
2
1
2
4
14
13
5
3
1
1
2
4
14
13
5
3
1
1
2
4
14
13
5
3
1
1
2
4
14
13
5
3
1
1
1
3
14
13
5
3
1
1
1
3
14
13
5
2
1
1
1
3
13
13
5
2
1
1
1
3
13
12
5
2
1
1
1
3
13
11
5
2
1
1
1
3
13
9
5
2
1
1
1
3
13
9
5
2
1
1
1
3
12
9
5
2
1
1
1
3
12
9
5
2
1
1
1
3
11
9
5
2
1
1
1
3
11
9
5
2
1
1
1
3
10
9
5
2
1
1
1
2
10
9
5
2
1
1
1
2
10
9
5
2
1
1
1
2
10
9
5
2
1
1
1
2
10
9
5
2
1
1
1
2
10
9
5
2
1
1
1
2
9
8
5
2
1
1
1
2
9
8
5
2
1
1
1
2
9
8
5
2
1
1
1
2
9
8
5
2
1
1
1
2
9
8
5
2
1
1
1
2
9
7
4
2
1
1
1
2
8
7
4
2
1
1
1
2
8
6
4
2
1
1
1
2
8
6
4
2
1
1
1
1
8
6
4
1
1
1
1
2
7
6
3
1
1
1
1
1
7
5
3
1
1
1
1
1
7
5
3
1
1
1
1
1
7
5
3
1
1
1
1
1
7
5
3
1
1
1
1
1
7
5
3
1
1
1
1
1
7
5
3
1
1
1
1
1
8
5
3
1
1
1
1
1
7
5
3
1
1
1
1
1
7
5
3
1
1
1
1
1
8
5
2
1
1
1
1
1
8
5
2
1
1
1
1
1
8
5
3
1
1
1
1
1
8
4
3
1
1
1
1
1
8
4
3
1
1
1
1
1
8
4
3
1
1
1
1
1
8
4
2
1
1
1
1
2
8
4
2
1
1
1
1
1
8
4
2
1
1
1
1
1
8
4
2
1
1
1
1
1
8
4
2
1
1
1
1
1
8
4
2
1
1
1
1
1
8
4
2
1
1
1
1
1
8
5
2
1
1
1
1
1
8
5
2
1
1
1
1
1
8
4
2
1
1
1
1
1
9
4
2
1
1
1
1
1
9
4
2
1
1
1
1
1
9
4
2
1
1
1
1
1
9
4
2
1
1
1
1
1
8
4
2
1
1
1
1
1
8
4
2
1
1
1
1
1
8
4
2
1
1
1
1
1
8
4
2
1
1
1
1
1
8
4
2
1
1
1
1
1
8
4
2
1
1
1
1
1
8
4
2
1
1
1
1
1
8
4
2
1
1
1
1
1
9
4
2
1
1
1
1
1
9
4
2
1
1
1
1
1
9
4
2
1
1
1
1
1
9
4
2
1
1
1
1
1
9
4
2
1
1
1
1
1
9
4
2
1
1
1
1
1
9
4
2
1
1
1
1
1
9
4
2
1
1
1
1
2
10
4
2
1
1
1
1
2
10
4
2
1
1
1
1
2
9
4
2
1
1
1
1
2
9
4
2
1
1
1
1
2
9
4
2
1
1
1
1
2
9
4
2
1
1
1
1
2
9
4
2
1
1
1
1
2
9
4
2
1
1
1
1
2
9
4
2
1
1
1
1
2
9
4
2
1
1
1
1
2
9
4
2
1
1
1
1
2
9
4
2
1
1
1
1
2
9
4
2
1
1
1
1
2
10
4
2
1
1
1
1
2
10
4
2
1
1
1
1
2
10
4
2
1
1
1
1
2
11
4
2
1
1
1
1
2
11
4
2
1
1
1
1
2
11
4
2
1
1
1
1
2
11
4
2
1
1
1
1
2
10
4
2
1
1
1
1
2
10
4
2
1
1
1
1
2
10
4
2
1
1
1
1
2
10
4
2
1
1
1
1
2
10
4
2
1
1
1
1
2
11
4
2
1
1
1
1
2
11
4
2
1
1
1
1
2
11
4
2
1
1
1
1
2
11
4
2
1
1
1
1
2
11
4
2
1
1
1
1
2
10
4
2
1
1
1
1
2
10
5
2
1
1
1
1
2
10
5
2
1
1
1
1
2
10
5
2
1
1
1
1
2
11
5
2
1
1
1
1
2
11
5
2
1
1
1
1
2
11
5
2
1
1
1
1
2
11
5
2
1
1
1
1
2
10
5
2
1
1
1
1
2
10
5
2
1
1
1
1
2
10
5
2
1
1
1
1
2
10
5
2
1
1
1
1
2
10
5
2
1
1
1
1
3
12
7
2
1
1
1
1
3
12
7
3
1
1
1
1
3
12
8
3
1
1
1
1
3
12
8
3
1
1
1
1
3
12
8
3
1
1
1
1
3
14
8
3
1
1
1
1
3
17
9
3
1
1
1
1
3
17
9
4
2
1
1
2
4
18
9
4
2
1
2
2
4
24
10
4
2
1
4
3
4
26
10
4
2
1
4
3
4
26
10
4
2
1
4
3
4
27
10
4
2
1
5
3
5
28
10
4
2
1
5
4
5
27
10
4
2
1
6
4
5
28
10
4
2
2
6
4
5
28
10
4
2
1
6
4
5
28
11
4
2
2
6
4
5
28
11
4
2
2
6
4
5
30
12
5
2
2
6
4
5
30
13
5
2
2
6
5
5
31
13
5
2
2
9
5
5
31
13
5
2
2
9
5
5
31
13
5
3
3
9
5
6
31
13
5
3
3
9
6
6
32
16
5
3
3
9
6
6
36
19
5
3
3
9
6
6
36
19
5
3
3
9
6
6
37
19
5
3
3
9
6
7
38
19
5
3
3
10
6
8
39
20
5
3
3
10
7
8
40
22
5
3
3
10
7
8
40
22
6
4
3
10
7
8
41
22
6
4
3
10
7
10
41
22
7
4
4
10
7
11
42
23
7
4
4
10
7
11
42
24
8
4
4
10
9
14
43
25
8
5
4
11
9
16
44
28
9
5
4
11
9
17
45
29
9
5
4
12
9
17
45
29
9
5
4
12
10
17
45
30
9
5
5
13
10
18
46
30
9
5
5
13
10
18
46
30
9
5
5
13
11
18
46
30
9
6
5
13
11
18
49
32
11
6
5
13
11
19
50
32
11
6
5
13
11
19
53
33
11
6
5
13
11
19
54
33
12
7
5
13
11
19
54
35
13
8
5
13
12
20
57
38
15
9
6
13
12
20
57
38
15
9
6
13
12
20
58
38
15
9
6
14
12
22
59
38
15
9
6
14
13
22
59
39
15
9
6
14
13
22
60
40
15
9
6
14
13
23
59
40
15
9
7
14
13
24
59
40
15
9
6
14
13
25
59
40
15
9
6
14
13
25
57
40
15
9
7
14
13
25
56
40
15
9
7
14
13
25
57
40
15
9
7
14
13
25
57
40
15
9
7
14
13
26
59
40
15
9
7
14
13
26
60
40
15
9
7
14
13
27
61
41
15
9
7
14
13
27
62
41
15
9
7
14
13
27
62
41
15
10
7
14
13
27
62
41
15
10
7
14
13
27
63
41
15
10
7
14
13
27
62
41
15
10
7
14
12
27
62
41
15
10
7
13
12
27
62
41
15
10
7
13
12
27
62
41
15
10
7
13
12
27
63
41
15
10
7
13
12
27
62
40
15
10
7
13
12
27
60
39
15
9
7
13
12
28
61
40
15
9
7
13
12
28
60
40
15
9
7
13
12
28
59
40
15
9
7
13
12
28
61
40
15
10
7
13
12
28
62
39
15
10
8
13
12
28
62
40
15
10
7
13
12
28
62
40
15
9
7
13
12
28
62
40
15
9
7
13
14
27
61
39
14
9
7
13
14
28
61
39
14
9
7
13
13
26
61
38
14
9
7
12
13
25
61
37
14
9
7
12
13
24
60
36
14
9
7
11
13
24
60
36
14
9
7
11
13
24
60
36
14
9
7
11
13
24
60
36
14
9
7
11
12
24
60
36
14
9
7
11
12
24
60
36
14
9
7
11
12
23
58
35
12
9
7
11
12
23
57
34
12
9
7
11
12
23
54
34
12
9
7
11
12
24
55
34
12
9
7
11
12
23
56
33
11
7
7
11
11
23
54
29
8
7
6
11
11
23
53
28
8
7
6
11
11
23
54
29
8
7
6
10
11
22
53
31
9
7
6
10
11
22
53
31
9
7
7
10
11
22
52
30
9
7
7
11
11
21
52
29
9
7
6
12
11
21
52
30
9
7
6
12
11
19
52
29
8
7
6
12
11
19
51
29
8
7
6
12
11
19
52
29
8
7
6
12
11
19
51
29
8
7
7
12
11
19
51
29
8
7
7
12
11
18
48
29
8
7
7
12
11
17
47
30
8
6
7
12
11
17
45
29
8
6
8
12
11
17
45
29
8
6
8
12
11
16
44
28
8
6
8
12
11
16
44
28
8
6
8
12
11
17
42
28
8
6
8
12
12
17
42
29
9
6
8
12
13
18
43
30
10
6
8
12
13
18
43
32
10
6
8
12
13
18
43
32
10
6
8
12
13
18
43
31
10
6
8
12
13
18
43
31
10
6
8
12
13
18
43
31
10
7
8
12
13
18
43
30
10
7
8
12
13
18
43
30
10
7
8
12
14
19
43
30
10
7
8
12
15
18
40
29
10
7
8
12
16
18
38
29
10
6
8
12
15
18
38
29
10
6
9
12
15
18
37
29
10
6
9
12
15
18
37
29
10
6
8
12
13
18
37
29
10
6
8
12
14
18
38
29
10
6
9
12
14
18
38
29
10
6
9
12
14
18
37
28
10
6
9
12
14
18
37
28
10
6
9
12
14
18
37
29
10
6
8
12
14
18
37
28
10
6
8
12
14
18
37
27
9
6
8
12
14
18
37
28
9
6
8
12
14
18
37
28
9
6
8
12
14
18
38
28
9
6
8
12
14
19
38
28
9
6
8
11
14
19
39
28
9
6
8
11
14
19
36
28
9
6
8
12
14
19
34
27
9
6
8
11
14
19
34
27
9
6
8
11
14
20
34
28
9
6
9
11
14
20
31
27
9
6
8
11
14
20
33
25
9
5
8
11
14
19
34
25
9
5
8
11
14
19
35
26
9
5
8
11
14
19
35
26
9
5
8
9
14
19
35
25
9
6
8
9
14
19
35
25
9
6
8
9
14
19
35
25
9
6
8
9
14
19
35
25
8
6
8
9
14
19
35
25
8
6
8
9
14
19
36
25
8
6
8
8
14
19
37
26
8
6
8
8
14
19
38
27
8
6
8
9
14
19
39
27
8
6
7
8
14
20
39
27
8
6
7
8
14
20
39
28
9
6
7
8
14
20
40
27
9
6
7
8
14
19
40
27
9
6
7
8
13
19
40
27
8
5
7
8
12
18
39
25
6
5
6
7
12
18
40
23
6
5
7
7
12
18
40
24
6
5
7
8
12
18
39
24
6
5
7
8
12
18
39
24
6
5
7
8
12
18
39
24
6
4
7
8
12
19
40
24
6
4
7
8
12
18
40
23
6
4
7
8
11
18
40
23
6
4
7
8
10
18
39
24
6
4
7
8
10
18
39
24
6
4
6
8
10
18
39
24
6
5
6
8
10
18
39
24
6
5
7
8
10
18
40
25
6
5
7
8
10
17
40
25
6
5
7
8
9
17
41
25
6
5
7
8
9
17
41
26
6
5
7
8
9
18
43
26
6
5
7
8
9
18
43
26
6
5
7
8
9
18
43
26
6
5
7
8
9
18
43
26
6
5
7
8
9
18
44
26
7
5
7
8
10
17
44
26
7
4
8
10
10
17
45
26
7
4
8
10
10
17
44
26
7
5
8
10
10
17
44
26
6
4
8
10
10
17
44
25
6
4
7
10
10
17
44
25
6
5
8
9
10
16
44
25
6
4
7
9
9
16
44
25
6
4
8
9
9
14
45
25
6
5
8
9
9
15
46
25
6
5
8
9
9
14
44
25
6
5
8
9
9
14
43
25
6
5
8
10
9
15
43
24
6
5
8
10
9
15
43
24
7
5
8
10
9
15
43
24
7
4
8
10
9
15
43
24
7
4
8
10
9
15
42
24
7
4
8
10
9
15
42
24
7
4
8
10
9
15
42
24
7
4
8
10
9
15
41
24
7
4
8
10
9
15
40
22
7
4
8
10
9
16
39
21
7
4
8
10
11
16
38
21
7
4
8
11
11
15
38
21
7
4
8
11
11
14
39
20
7
4
8
11
11
14
39
20
7
4
8
11
11
14
39
20
7
5
8
11
11
14
39
21
7
5
8
11
11
14
39
21
7
5
8
11
11
15
38
21
7
5
7
11
11
15
39
21
7
5
7
10
11
15
41
20
7
5
7
10
11
15
41
21
7
5
7
10
11
15
40
20
7
5
7
10
11
14
40
20
7
5
7
11
11
14
40
20
7
5
7
11
11
14
40
20
7
4
7
11
11
14
40
20
6
4
7
11
10
14
40
20
6
4
7
10
10
14
41
20
6
4
7
10
10
14
40
20
6
4
7
10
10
14
40
19
6
4
7
10
10
14
40
18
6
4
7
11
11
14
37
17
6
4
7
11
11
14
38
16
5
4
7
11
11
14
36
16
5
4
7
11
11
15
36
17
6
4
7
11
11
15
37
17
6
4
7
11
11
15
37
17
6
4
7
11
11
15
36
15
5
4
6
11
10
16
36
15
6
4
6
10
10
16
36
17
6
4
6
10
10
16
36
17
6
4
6
11
10
16
37
17
6
4
6
11
10
15
37
18
6
4
6
11
10
16
37
18
6
4
6
11
10
16
37
18
6
4
6
11
10
16
37
18
6
4
6
11
10
15
37
18
6
4
6
11
11
15
36
17
6
4
6
11
11
15
36
17
6
4
6
11
11
15
36
17
6
4
6
11
11
15
36
17
6
4
6
11
10
15
36
17
6
4
6
11
10
15
35
19
7
5
6
11
10
14
35
18
5
4
6
11
10
15
35
18
5
4
6
11
10
14
35
18
6
4
5
11
10
14
35
19
6
4
6
11
11
15
36
20
6
4
6
11
11
15
35
20
6
4
5
11
11
14
36
20
6
4
5
11
8
14
35
20
6
4
5
11
8
14
36
20
6
4
5
11
8
14
34
20
6
4
5
11
8
14
34
20
6
4
5
11
8
15
34
20
6
4
5
11
8
15
35
20
6
4
5
11
8
15
34
19
6
4
6
11
8
14
35
19
6
4
6
11
8
14
35
19
6
4
6
10
8
14
34
19
6
4
6
11
8
14
35
19
6
4
6
11
8
14
35
19
6
4
6
11
8
14
34
20
6
4
6
10
8
14
33
20
7
4
6
10
8
14
35
20
7
4
6
10
8
14
36
20
7
4
6
10
8
14
36
21
7
4
6
10
8
14
36
21
7
4
5
11
8
15
37
21
7
4
5
11
8
15
37
21
7
4
5
11
7
15
37
21
7
4
5
10
7
15
37
21
7
4
5
10
7
14
36
21
7
4
5
10
6
14
35
20
7
4
5
10
6
13
35
20
6
4
5
10
6
14
35
20
6
4
5
11
7
14
37
22
6
4
5
11
7
14
37
22
6
4
5
11
6
12
36
22
6
4
5
11
6
12
35
21
6
4
5
10
6
13
35
21
6
4
5
9
6
15
34
20
6
4
5
9
6
15
35
21
6
4
5
9
6
14
35
20
6
4
5
9
6
14
35
20
6
4
5
9
6
14
34
20
6
4
5
9
6
14
34
20
6
4
5
9
6
15
33
21
6
4
5
9
6
15
33
21
6
4
4
9
6
15
33
21
6
4
4
10
6
15
33
21
6
4
5
9
6
15
37
21
6
4
5
9
6
15
37
20
5
3
5
9
7
15
37
21
6
3
5
9
7
15
38
21
6
3
5
9
6
15
38
21
6
3
5
9
6
15
38
21
6
3
4
9
6
15
37
20
5
3
4
9
6
15
37
20
5
3
4
9
6
15
37
20
5
3
4
9
6
15
37
20
5
3
4
9
6
15
37
20
5
3
4
9
6
15
37
20
5
3
4
9
6
15
37
20
5
3
4
9
6
14
38
20
5
3
4
9
6
14
37
20
5
2
3
9
6
13
39
21
5
3
3
9
6
14
38
21
5
3
3
9
7
13
39
21
5
2
3
10
7
13
39
21
5
2
3
9
7
13
38
21
5
2
3
9
7
13
38
21
5
2
3
9
7
13
39
21
5
2
3
9
7
13
40
21
5
2
3
9
7
13
39
21
5
2
3
9
7
13
37
20
5
2
3
9
7
14
37
20
5
2
3
9
7
13
37
20
5
2
3
9
7
13
36
20
5
2
3
8
7
13
36
20
5
2
3
8
7
13
36
20
5
2
3
8
7
13
36
20
5
2
3
8
7
13
37
20
5
2
3
8
7
13
37
21
5
2
3
9
7
12
37
21
5
2
3
8
7
12
36
21
5
2
3
8
7
12
34
19
5
2
3
8
7
12
34
18
5
3
3
8
7
12
34
18
5
3
3
8
7
12
34
18
5
3
3
8
7
11
34
18
5
3
3
8
7
9
34
19
5
2
3
8
7
9
33
18
5
2
3
8
7
9
33
18
5
2
3
8
7
9
33
18
5
3
3
8
7
9
33
19
5
3
3
8
7
9
34
19
5
3
3
8
6
8
34
19
5
3
3
8
6
8
34
18
5
2
3
8
6
8
34
18
5
2
3
7
7
8
34
18
5
2
2
7
6
8
30
18
5
2
2
7
6
8
29
18
5
2
2
7
6
7
29
16
4
2
2
7
6
7
28
16
4
2
2
7
6
7
28
16
4
2
2
7
6
7
29
16
4
2
2
7
6
7
29
16
5
2
2
7
6
6
29
16
5
3
2
6
6
6
29
16
5
3
2
6
6
6
29
16
5
3
2
6
6
6
29
16
5
3
2
6
6
6
28
16
5
3
2
6
6
6
28
15
5
3
2
6
6
6
28
15
5
3
2
5
6
6
28
15
5
3
2
5
6
6
25
14
5
3
2
5
6
6
25
14
5
3
2
5
5
6
22
15
5
3
2
5
5
6
21
14
5
3
2
5
5
6
21
14
5
3
2
5
5
6
21
14
5
3
2
5
5
6
21
14
5
3
2
4
4
5
19
13
5
3
2
4
3
5
19
14
5
3
2
4
3
4
19
13
5
3
2
4
3
4
19
13
5
3
2
4
4
4
18
13
5
3
2
4
3
4
18
13
5
3
2
4
3
4
17
13
5
3
2
4
3
4
17
13
5
3
2
4
3
3
17
12
5
3
2
4
3
3
16
12
5
3
2
4
3
3
16
11
5
3
2
3
3
3
16
11
5
3
2
3
3
3
15
11
5
3
2
3
2
3
15
11
5
3
2
2
2
3
15
11
5
2
2
2
2
4
15
11
5
3
2
2
2
3
15
11
5
2
2
2
2
3
14
10
5
3
2
2
2
3
14
10
5
3
2
2
2
3
13
10
5
3
2
2
2
3
12
9
5
3
2
2
2
3
12
9
5
2
2
1
2
3
11
9
5
2
2
1
2
3
10
7
5
2
2
1
2
3
10
7
4
2
2
1
1
3
10
7
4
2
2
1
1
3
10
7
4
2
2
1
1
2
9
7
4
2
2
1
1
2
9
7
4
2
2
1
1
2
9
7
4
2
2
1
1
2
9
7
4
2
2
1
1
2
8
7
4
2
2
1
1
2
8
7
4
2
2
1
1
2
6
6
4
2
2
1
1
2
6
6
4
2
2
1
1
2
6
6
4
2
2
1
1
2
6
6
4
2
2
1
1
2
6
6
4
2
2
1
1
2
6
6
4
2
2
1
1
2
6
6
4
2
2
1
1
2
6
6
3
2
2
1
1
2
6
6
3
2
2
1
1
2
6
6
3
2
2
1
1
2
6
6
3
2
2
1
1
2
6
6
3
2
2
1
1
2
6
5
3
2
2
1
1
2
7
5
3
2
2
1
1
2
7
5
3
2
2
1
1
2
7
5
3
2
2
1
1
2
7
5
3
2
2
1
1
2
7
5
2
2
2
1
1
2
6
5
2
2
2
1
1
2
7
5
2
2
2
1
1
2
7
5
2
2
2
1
1
2
7
5
2
2
2
1
1
2
8
4
2
2
2
1
1
2
8
5
2
2
2
1
1
2
8
5
2
2
2
1
1
2
8
5
2
2
2
1
1
2
9
5
2
2
2
1
1
2
9
5
2
2
2
1
1
2
9
5
2
2
2
1
1
2
9
5
2
2
3
1
1
2
9
5
2
2
3
1
1
2
9
5
2
2
3
1
1
1
9
4
2
2
3
1
1
1
9
4
2
2
3
1
1
1
9
4
2
2
3
1
1
1
8
4
2
2
3
1
1
1
8
4
2
2
3
1
1
1
8
4
2
2
3
1
1
1
8
4
2
2
3
1
1
1
8
4
2
2
3
1
1
1
8
4
2
2
3
1
1
1
8
4
2
2
2
1
1
1
8
4
2
2
2
1
1
1
8
4
2
2
2
1
1
2
9
5
2
2
2
1
1
2
9
5
2
2
2
1
1
2
9
5
2
2
2
1
1
2
9
5
2
2
2
1
1
2
9
5
2
2
2
1
1
2
9
5
2
2
2
1
1
2
9
5
2
2
2
1
1
2
9
5
2
2
2
1
1
2
10
5
2
2
2
1
1
2
10
5
2
2
2
1
1
2
10
5
2
2
2
1
1
2
10
5
2
2
2
1
1
2
10
4
2
2
2
1
1
2
10
4
2
2
2
1
1
2
10
4
2
2
2
1
1
2
10
4
2
2
2
1
1
2
9
4
2
2
2
1
1
2
9
4
2
2
2
1
1
2
9
4
2
2
2
1
1
2
9
4
2
2
2
1
1
2
10
4
2
2
2
1
1
2
10
4
2
2
2
1
1
2
10
4
2
2
2
1
1
2
10
4
2
2
2
1
1
2
10
4
2
2
2
1
1
2
10
4
2
2
2
1
1
2
10
4
2
2
2
1
1
2
10
4
2
1
2
1
1
2
9
4
2
2
2
1
1
2
9
4
2
2
2
1
1
2
9
4
2
2
2
1
1
2
9
4
2
2
2
1
1
2
10
4
2
1
2
1
1
2
9
4
2
1
2
1
1
2
9
4
2
1
2
1
1
2
9
4
2
1
1
1
1
2
10
4
2
1
1
1
1
2
11
4
2
2
1
1
1
2
11
4
2
2
1
1
1
2
11
4
2
2
1
1
1
2
11
4
2
2
2
1
1
2
11
4
2
2
2
1
1
2
12
4
2
2
2
1
1
2
13
4
2
2
2
1
1
2
13
4
2
2
2
1
1
2
13
4
2
2
2
1
1
2
13
4
2
2
2
1
1
2
13
4
2
2
2
1
1
2
14
4
2
2
2
1
1
2
14
5
2
2
2
1
2
2
14
4
2
2
2
1
2
2
14
5
2
2
2
1
2
3
15
5
2
2
2
1
2
3
18
5
2
2
2
1
2
4
18
5
3
2
3
2
2
4
20
5
3
2
3
2
2
4
22
5
3
2
3
3
2
4
22
5
3
2
3
3
2
5
23
6
3
2
3
3
2
6
26
7
3
3
3
3
4
6
29
8
3
4
3
4
5
6
29
8
3
4
3
5
5
7
30
8
3
4
3
5
5
7
30
8
3
4
3
5
5
7
30
9
3
4
3
5
6
7
30
10
4
4
3
5
6
7
30
10
4
4
3
6
6
7
30
10
4
4
3
6
6
7
32
11
4
5
3
6
7
7
34
11
4
5
3
6
7
8
36
13
5
5
3
6
7
8
39
13
6
5
3
6
7
8
41
15
6
5
3
6
7
8
41
15
6
5
3
6
7
8
41
15
6
5
3
6
7
8
41
16
7
5
4
7
8
9
41
16
7
5
4
7
8
11
41
16
7
5
4
8
8
11
43
17
7
5
4
8
8
11
43
18
8
6
4
8
8
11
43
20
8
6
4
8
9
12
45
20
9
6
4
8
9
12
48
22
9
6
4
8
9
13
51
23
9
6
4
8
10
13
51
23
9
6
4
9
10
13
52
23
9
6
4
9
10
13
52
23
9
6
4
9
10
13
54
26
9
6
4
9
10
13
57
27
9
6
5
9
10
13
57
27
9
6
5
10
10
13
57
27
9
6
5
10
10
14
57
27
9
6
5
10
10
14
57
28
10
7
5
11
10
14
58
30
10
7
6
11
10
14
58
30
10
7
6
11
11
14
58
30
11
7
6
11
11
14
60
30
11
7
6
11
11
14
60
30
11
7
6
11
11
14
60
30
11
7
6
11
11
15
60
31
11
7
6
11
11
15
60
31
11
7
6
11
12
16
61
31
12
7
6
11
12
16
61
31
12
7
6
11
12
16
61
31
12
7
6
11
12
16
61
33
12
7
6
11
12
16
62
33
12
7
6
11
13
17
61
33
12
7
6
11
12
17
61
33
12
7
6
11
13
17
61
33
12
7
6
11
13
17
60
33
12
7
6
11
12
17
60
33
12
7
6
11
12
17
60
33
12
7
6
11
12
17
59
33
12
7
6
10
13
17
59
33
12
7
6
11
13
17
59
33
12
7
6
11
12
17
60
33
12
7
6
11
12
17
60
33
12
7
6
11
12
18
60
34
12
6
6
11
12
19
60
34
12
6
6
11
12
19
59
34
12
6
6
11
12
19
58
33
12
6
6
11
12
19
56
33
12
6
6
11
12
19
56
33
12
6
6
11
12
19
56
32
11
6
6
11
12
19
55
32
11
6
6
11
12
19
55
32
11
6
6
11
12
18
56
32
11
6
6
11
12
17
56
33
11
6
6
10
12
17
55
33
11
6
6
10
12
17
55
32
11
6
6
10
12
18
55
32
10
6
6
11
11
17
53
31
10
6
6
10
11
17
51
31
10
6
6
10
11
17
48
30
10
6
6
10
11
17
48
30
10
6
6
10
11
17
49
30
10
6
6
10
11
17
49
30
10
6
6
10
11
18
47
28
10
6
6
10
11
18
44
27
10
6
6
10
11
18
44
28
11
6
6
9
11
18
44
28
11
6
6
9
11
18
44
28
11
6
6
9
11
18
44
27
10
6
5
9
11
19
43
25
10
5
5
9
11
19
43
25
10
5
5
9
11
18
42
25
9
6
5
9
11
18
40
24
9
6
5
9
11
18
41
24
9
6
6
9
11
19
41
24
9
6
6
9
11
19
41
25
9
6
6
9
11
18
41
25
9
6
6
10
11
18
40
25
8
6
6
11
11
18
40
25
8
6
6
11
11
18
41
26
8
6
5
11
11
18
41
24
7
6
5
11
11
18
39
25
8
6
6
11
11
19
39
25
7
5
6
11
11
19
39
26
7
5
6
11
10
17
39
25
7
6
6
11
10
17
39
25
7
6
6
11
10
17
37
25
7
5
5
11
10
17
37
25
7
5
5
11
10
17
38
25
7
5
6
11
10
17
41
27
8
5
6
10
10
17
41
27
8
5
5
10
10
17
40
27
8
5
6
10
10
17
40
27
8
5
6
10
10
17
40
27
8
5
6
10
10
16
39
27
8
5
6
10
10
16
38
27
8
5
6
10
10
17
39
27
8
5
6
10
10
17
38
26
7
5
6
10
10
17
37
26
8
5
6
11
11
17
37
26
8
5
6
11
11
17
37
26
8
5
6
11
11
17
38
26
7
5
6
10
11
17
38
27
8
5
6
10
11
17
38
26
7
5
6
10
11
17
39
27
7
5
6
10
11
17
41
28
7
5
6
10
11
17
41
28
7
5
6
10
11
17
41
28
7
5
6
10
11
16
41
28
7
5
6
10
11
16
40
28
7
5
6
10
11
17
40
28
7
5
6
10
11
17
38
28
7
5
6
10
11
16
39
28
7
5
6
11
11
16
38
28
7
5
6
11
11
16
39
27
7
5
6
11
10
16
41
27
6
5
6
11
10
16
41
27
6
5
6
10
10
16
41
27
6
4
6
10
10
16
42
27
6
4
6
11
10
15
42
28
6
4
6
11
10
15
43
29
7
4
6
11
11
15
44
30
7
4
6
11
12
15
43
30
7
4
6
11
12
14
42
30
7
4
5
11
12
14
42
30
7
4
5
11
12
15
42
30
7
4
5
11
12
15
42
30
7
4
5
11
11
15
42
30
7
4
5
10
11
15
42
29
7
4
5
10
11
15
41
28
7
4
5
10
11
15
41
28
7
4
5
10
11
14
41
28
7
4
5
10
12
13
41
27
7
4
5
10
12
13
40
27
7
4
5
10
12
13
40
27
7
3
6
10
12
14
41
27
7
3
6
10
12
14
41
27
7
3
6
10
12
13
41
27
7
3
6
10
12
14
41
27
7
3
6
10
12
14
38
24
6
3
6
10
12
14
38
24
6
3
6
10
12
14
38
25
6
3
6
11
12
14
40
24
6
3
6
11
12
14
43
24
6
3
6
10
12
14
43
24
6
3
7
11
11
13
44
25
6
3
7
10
11
13
43
26
6
3
7
10
11
13
44
26
6
3
7
10
11
14
44
26
6
3
7
10
11
14
44
26
6
3
7
10
11
14
44
26
6
3
7
10
11
14
44
26
6
4
7
10
11
14
44
26
7
4
7
10
11
14
43
26
7
4
7
10
11
14
43
25
7
4
7
10
11
14
41
25
6
4
7
11
11
14
41
24
6
4
7
11
11
14
41
24
6
4
7
11
11
14
41
24
6
4
7
11
11
14
41
23
6
4
7
11
11
14
41
23
7
4
7
10
10
14
41
23
6
4
7
10
10
15
40
24
6
4
7
10
10
14
42
24
7
4
7
10
10
15
43
23
6
4
7
10
10
15
41
23
6
4
7
10
10
15
41
23
6
4
7
10
10
15
41
23
6
4
7
10
10
14
39
23
6
4
7
10
10
15
40
23
6
4
7
9
10
15
41
22
6
4
7
11
11
15
40
20
6
4
7
12
9
15
41
20
6
4
7
12
9
15
41
20
6
4
7
12
9
14
41
20
6
4
7
12
9
14
41
20
6
5
7
12
9
14
41
20
7
5
7
12
9
14
40
20
7
5
7
12
9
14
40
20
7
5
7
12
9
14
41
21
7
5
7
13
9
14
43
23
7
5
7
13
9
14
44
23
7
5
7
13
8
14
44
24
7
5
7
12
9
14
44
24
7
5
7
13
9
14
44
24
7
5
6
13
9
14
44
24
7
5
6
13
9
14
43
24
7
5
6
13
9
14
43
24
7
5
6
13
9
14
43
24
7
5
6
12
9
14
43
24
7
5
6
12
9
14
43
24
7
5
6
12
9
14
43
24
7
5
6
12
9
14
41
24
7
5
6
12
9
14
38
24
7
5
6
12
9
14
38
24
7
5
5
12
9
13
38
23
7
5
5
12
9
14
37
22
7
5
5
12
9
14
37
22
7
5
5
12
9
13
37
22
7
5
6
13
9
13
37
22
7
5
6
13
9
13
37
22
7
5
6
13
9
12
36
22
6
5
6
13
9
12
37
21
6
4
6
13
9
12
37
21
6
4
6
13
10
12
37
21
6
4
6
13
9
12
37
20
6
4
6
13
10
12
37
20
6
4
6
13
9
12
37
20
6
4
6
13
10
12
36
20
6
4
6
13
10
13
36
21
6
4
6
13
10
13
37
21
6
4
6
13
10
13
36
21
6
4
6
13
10
12
36
21
6
4
6
13
10
12
35
21
6
4
6
13
10
11
34
21
6
4
6
13
11
11
34
21
6
4
6
13
11
11
34
21
6
4
6
13
11
11
35
21
6
4
6
13
11
11
34
21
6
4
6
13
11
12
34
21
6
4
6
13
11
12
31
21
6
4
6
12
10
12
31
21
6
4
6
10
10
12
31
20
6
4
6
10
10
13
31
20
6
4
6
10
10
13
32
20
6
4
6
10
10
13
32
21
6
4
6
10
10
13
32
20
6
4
6
10
10
13
32
20
6
4
6
11
10
13
33
21
6
3
6
11
9
13
31
20
6
3
6
10
9
13
29
18
6
3
6
10
9
13
28
18
6
3
7
10
9
13
27
17
5
3
7
10
9
13
27
17
5
3
7
10
9
13
27
17
6
3
7
10
9
14
27
17
6
3
7
10
10
14
27
17
6
3
7
10
10
14
27
16
6
3
7
9
10
14
28
17
6
3
7
9
10
14
28
17
6
3
7
10
10
14
28
16
6
3
7
10
10
14
29
17
7
4
7
10
10
14
29
18
7
4
7
10
10
14
29
17
7
4
7
11
10
14
29
18
7
4
7
10
10
14
30
18
7
4
7
10
10
13
30
18
7
4
7
10
10
14
30
18
7
4
7
10
10
13
30
18
7
4
6
9
10
14
32
19
8
4
6
9
10
14
32
19
8
4
6
9
10
14
32
19
8
4
6
9
10
14
32
19
8
4
6
9
10
14
32
19
8
4
6
9
10
14
32
19
7
4
6
9
10
14
32
20
8
4
6
9
10
14
32
20
8
4
6
9
10
14
32
20
8
4
6
9
9
14
32
20
8
4
6
9
9
14
33
19
8
4
6
9
9
14
32
19
8
4
6
10
10
14
32
19
8
4
6
9
10
14
32
19
8
4
6
9
10
14
32
19
8
4
6
9
10
14
31
19
8
4
6
9
10
14
32
19
8
4
6
9
10
14
32
19
8
4
6
9
10
14
31
19
8
4
6
9
10
13
31
18
8
4
6
9
10
13
30
18
8
4
6
9
10
13
30
18
8
4
6
9
10
13
31
18
8
4
6
9
10
13
31
18
8
4
6
9
10
12
31
18
8
4
6
9
10
12
31
18
8
4
6
9
10
12
31
18
8
4
6
9
10
12
31
18
8
4
6
9
10
13
30
18
8
4
6
9
10
12
31
17
7
4
6
9
10
12
31
17
7
4
6
9
10
12
31
17
7
4
6
9
10
13
31
17
7
4
5
9
10
12
30
17
7
4
5
9
10
12
30
17
7
4
5
9
10
12
31
17
7
4
5
9
10
12
32
17
7
4
5
9
9
11
32
17
7
4
5
9
9
11
32
18
7
4
6
9
9
11
31
18
7
4
6
9
9
12
31
18
7
4
5
9
9
12
32
19
7
4
5
10
9
12
30
17
7
3
5
9
9
11
30
17
6
3
5
9
9
11
30
17
6
3
5
9
8
11
30
17
6
3
5
9
8
11
30
17
6
3
5
9
8
11
29
17
6
3
5
9
8
11
30
17
6
3
5
9
8
11
30
17
6
3
5
9
8
11
28
16
5
3
5
9
7
11
28
16
5
3
5
9
8
11
28
16
5
3
5
9
8
11
27
16
5
3
5
9
8
11
29
16
5
3
5
9
8
11
28
17
6
3
5
9
8
11
28
17
5
3
5
9
8
11
28
17
5
3
5
9
8
11
29
17
5
3
5
9
8
11
29
17
5
3
5
9
8
10
28
17
4
2
4
9
7
10
30
18
4
2
4
9
6
10
30
18
5
2
4
8
6
10
30
18
5
2
4
8
6
10
30
18
5
2
4
8
6
10
30
18
5
2
4
8
6
10
29
18
5
2
4
8
6
10
29
18
5
2
4
8
6
10
29
18
5
2
4
8
5
10
29
18
5
2
4
8
5
10
30
18
5
2
4
8
5
10
30
18
5
2
3
8
5
10
29
18
4
2
3
8
5
10
28
18
4
2
3
8
5
10
28
18
4
2
3
8
5
10
28
18
4
2
3
8
5
10
28
18
4
2
3
8
5
9
28
18
5
2
3
7
5
8
28
18
5
2
3
7
5
8
27
18
4
2
3
7
4
8
27
18
4
2
3
7
4
8
27
18
4
2
3
7
4
7
27
17
4
2
3
7
4
7
27
17
4
2
3
7
4
7
27
17
4
2
3
6
4
6
25
17
4
2
3
6
4
6
25
17
4
2
3
6
4
6
25
17
5
2
3
6
4
6
25
17
4
2
2
6
4
6
25
16
4
2
2
6
4
5
25
16
4
2
2
5
4
5
24
15
4
2
2
5
4
5
24
15
4
2
2
5
4
5
24
15
5
2
2
5
3
5
24
15
5
2
2
5
3
5
23
15
5
2
2
5
3
5
23
14
5
2
2
5
3
5
23
14
5
2
2
4
3
4
22
14
5
2
2
4
3
4
22
14
5
2
2
4
3
4
22
14
5
2
2
4
3
4
22
14
5
2
2
4
3
4
22
14
5
2
2
4
3
4
22
14
5
2
2
4
3
4
19
14
5
2
2
4
3
4
19
12
5
2
2
4
3
4
19
11
5
2
2
4
3
4
19
11
5
2
2
3
3
4
18
11
5
2
2
2
3
4
18
11
5
2
2
2
3
4
18
11
5
2
2
2
3
4
15
10
5
2
1
2
2
4
15
9
5
2
1
2
2
4
15
9
5
2
1
2
2
4
15
9
5
2
1
2
2
4
14
8
5
2
1
2
2
4
14
8
5
2
1
2
2
4
14
8
5
2
1
2
2
4
14
8
5
2
1
2
2
3
13
8
5
2
1
2
2
2
13
8
5
2
1
2
2
2
12
8
5
2
1
2
2
2
12
8
5
2
1
1
2
2
13
8
5
2
1
1
1
2
12
8
5
2
1
1
1
2
12
7
4
2
1
1
1
2
12
7
4
2
1
1
1
2
12
7
4
2
1
1
1
2
11
7
4
2
1
1
1
2
10
7
4
2
1
1
1
2
10
7
4
2
1
1
1
2
9
7
4
2
1
1
1
2
10
7
4
2
1
1
1
2
10
7
4
2
1
1
1
2
10
7
4
2
1
1
1
2
10
7
4
2
1
1
1
2
10
7
4
2
1
1
1
2
11
7
4
2
1
1
1
2
13
7
4
2
1
1
1
2
12
7
4
2
1
1
1
2
12
7
4
2
1
1
1
2
12
7
4
2
1
1
1
2
12
7
4
2
1
1
1
2
12
7
3
2
1
1
1
2
12
6
3
2
1
1
1
2
12
6
3
2
1
1
1
2
12
6
3
2
1
1
1
2
12
6
3
1
1
1
1
2
12
6
3
1
1
1
1
1
12
6
3
2
1
1
1
1
12
6
3
1
1
1
1
1
12
6
3
2
1
1
1
1
12
6
3
2
1
1
1
2
12
6
3
2
1
1
1
1
12
6
3
2
1
1
1
1
12
6
3
2
1
1
1
1
11
5
2
1
1
1
1
1
11
5
2
1
1
1
1
1
11
4
2
1
1
1
1
1
11
4
2
1
1
1
1
1
11
5
2
1
1
1
1
1
11
5
2
1
1
1
1
1
11
4
2
1
1
1
1
1
11
4
2
1
1
1
1
1
11
4
2
1
1
1
1
1
11
5
2
2
1
1
1
1
11
5
2
2
1
1
1
1
11
5
2
2
1
1
1
1
11
4
2
2
1
1
1
1
11
4
2
2
1
1
1
1
11
5
2
2
1
1
1
1
11
5
2
2
1
1
1
1
11
5
2
2
1
1
1
1
11
5
2
2
1
1
1
1
11
4
2
2
1
1
1
1
11
4
2
2
1
1
1
1
11
4
2
2
1
1
1
1
11
4
2
2
1
1
1
1
11
4
2
2
1
1
1
1
11
4
2
2
1
1
1
1
11
4
2
2
1
1
1
1
11
4
2
2
1
1
1
1
11
4
2
2
1
1
1
1
10
4
2
2
1
1
1
1
10
4
2
2
1
1
1
1
10
4
2
2
1
1
1
1
10
4
2
2
1
1
1
1
10
4
2
2
1
1
1
1
8
4
2
2
1
1
1
1
8
4
2
2
1
1
1
1
8
4
2
2
1
1
1
1
7
4
2
2
1
1
1
1
7
4
2
2
1
1
1
1
7
4
2
2
1
1
1
1
7
4
2
2
1
1
1
1
8
4
2
2
1
1
1
1
8
4
2
2
1
1
1
1
8
4
2
2
1
1
1
1
8
4
2
2
1
1
1
1
8
4
2
2
1
1
1
1
8
4
2
2
1
1
1
1
8
4
2
2
1
1
1
1
8
4
2
2
1
1
1
1
8
4
2
2
1
1
1
1
8
4
2
2
1
1
1
1
8
4
2
2
1
1
1
1
7
4
2
2
1
1
1
1
7
3
2
2
1
1
1
1
7
3
2
2
1
1
1
1
7
3
2
2
1
1
1
1
9
3
2
2
1
1
1
1
10
3
2
2
1
1
1
1
10
3
2
2
1
1
1
1
10
3
2
2
1
1
1
1
10
3
2
2
1
1
1
1
10
3
2
2
1
1
1
1
11
3
2
2
1
1
1
2
11
3
2
2
1
1
1
2
12
3
2
2
1
1
1
2
13
3
2
2
1
1
1
2
14
4
2
2
1
1
1
2
14
4
2
2
1
1
1
2
14
4
3
2
1
1
1
2
14
4
3
2
1
1
1
2
14
4
3
2
1
1
1
2
14
4
3
2
1
1
1
2
14
4
3
2
2
1
1
2
15
4
3
2
2
1
1
2
15
4
3
2
2
1
1
2
15
5
3
2
2
1
1
2
15
5
3
2
2
1
1
2
16
5
3
2
2
1
1
3
18
7
3
2
2
1
2
3
21
8
4
2
2
1
2
3
22
9
4
2
2
1
2
4
24
9
4
2
2
2
2
4
25
10
4
2
2
3
2
4
26
10
4
2
2
3
2
4
26
12
4
2
2
3
2
4
28
12
4
3
2
4
4
4
30
13
5
3
2
4
4
4
31
13
5
3
3
5
4
4
31
13
5
3
3
5
4
4
35
14
5
3
3
5
4
4
35
14
5
3
3
5
4
4
35
14
5
4
3
5
4
5
37
14
5
3
3
5
5
6
38
15
6
4
3
5
5
6
40
16
6
4
3
6
5
6
40
16
6
4
3
6
5
7
41
16
6
4
3
6
5
7
40
17
6
4
3
7
5
8
40
17
7
4
3
7
5
8
41
18
9
5
4
7
6
8
41
18
9
5
4
7
6
8
42
18
9
6
4
9
6
8
43
20
9
6
5
10
6
8
44
20
9
6
5
10
6
8
44
20
9
6
5
10
6
8
44
20
9
6
5
10
6
9
44
20
9
6
5
10
6
9
45
21
9
6
6
11
8
10
47
23
10
7
6
11
8
10
48
23
10
7
6
12
8
10
48
24
10
7
6
12
8
11
48
24
10
7
6
12
8
12
49
24
11
7
6
13
9
14
52
25
11
8
6
13
9
14
53
25
11
8
6
13
9
14
53
25
11
8
6
13
9
14
53
25
11
8
6
13
9
14
53
25
11
8
6
13
9
14
53
25
11
8
6
13
10
14
53
26
11
8
7
14
10
14
54
26
12
8
7
14
10
14
54
27
12
8
7
14
10
15
55
28
12
8
7
14
10
15
55
28
12
8
7
14
10
15
55
28
12
8
7
14
10
15
56
28
12
8
7
16
11
16
57
30
12
8
7
16
11
16
57
30
12
8
7
16
12
17
59
31
12
8
7
16
12
18
59
31
13
8
7
16
12
18
59
31
14
9
8
17
12
18
58
32
14
9
7
17
12
18
57
32
14
9
7
16
12
18
60
32
14
9
8
16
12
18
62
34
14
9
8
16
13
19
61
34
14
9
8
16
13
19
60
34
14
9
8
16
13
19
60
34
14
9
8
17
13
19
61
35
14
9
8
17
13
19
59
34
14
9
8
17
14
19
59
34
14
9
8
17
14
19
60
35
14
9
8
17
14
19
61
36
14
9
8
17
14
19
60
35
14
9
8
17
14
19
58
35
14
9
8
17
14
19
59
35
14
9
8
17
14
20
59
35
14
9
8
17
14
19
59
35
14
9
8
17
14
19
59
35
14
9
8
17
14
19
59
37
13
8
8
16
14
20
60
38
14
8
8
16
14
20
60
39
14
8
8
16
14
19
59
38
13
8
7
15
14
20
59
38
13
8
8
16
14
20
59
39
13
8
8
15
14
20
59
38
13
8
7
15
14
19
59
38
13
8
7
15
14
19
58
38
13
8
7
15
13
19
57
37
13
7
8
15
12
19
56
38
13
7
7
14
13
19
57
38
13
7
7
14
12
19
57
38
13
7
7
14
12
18
57
38
12
8
7
14
12
16
54
37
12
7
7
14
12
17
53
38
12
7
7
14
12
17
54
39
13
7
7
14
12
17
54
39
13
7
7
14
12
17
54
39
13
7
7
14
12
17
53
39
13
7
7
14
12
17
53
38
13
7
7
13
12
17
53
38
13
7
7
13
12
17
53
38
13
7
7
13
12
17
52
37
13
7
7
13
12
17
52
37
13
7
7
13
12
17
52
37
13
7
7
14
12
17
51
37
12
7
7
12
12
16
50
36
12
7
7
12
11
16
50
36
13
7
7
11
11
14
47
34
12
7
7
11
11
13
47
34
12
7
7
12
10
13
47
35
11
6
7
11
10
13
47
35
11
6
7
12
10
13
47
35
11
6
7
12
10
14
44
35
11
6
7
12
10
14
42
33
10
6
7
12
9
13
41
33
10
5
6
11
9
13
42
33
10
5
6
11
9
13
42
33
10
5
7
11
9
13
41
33
10
5
7
10
8
13
42
33
10
5
7
10
7
13
41
33
10
5
7
10
8
13
39
32
10
5
7
10
7
13
38
31
10
5
7
10
8
13
38
31
9
5
7
10
8
14
38
31
9
5
7
10
8
16
37
31
9
6
7
11
9
16
38
31
9
6
7
11
8
17
38
31
9
6
7
11
9
17
38
31
9
6
7
11
9
18
37
29
9
6
7
11
9
19
36
28
9
6
7
11
9
19
36
27
9
6
7
11
9
19
36
27
9
6
7
12
9
19
35
27
9
6
6
11
10
19
37
28
9
5
6
11
10
20
38
28
9
5
6
11
10
20
38
28
9
5
6
11
10
20
37
28
9
5
6
12
10
20
37
28
9
6
6
12
10
20
37
27
9
6
6
11
10
20
35
26
9
6
6
11
10
20
36
27
9
6
6
11
10
20
36
26
9
6
6
11
10
20
37
27
9
6
6
11
11
20
36
26
8
6
6
11
11
20
36
24
7
5
6
11
11
20
36
24
7
5
6
11
11
20
36
25
7
5
6
11
11
20
36
25
7
5
7
13
11
20
36
25
7
5
7
13
11
20
36
25
7
5
6
13
11
20
36
27
7
5
6
13
11
20
36
27
7
5
6
13
11
20
36
27
7
5
6
13
11
21
36
27
7
5
6
12
11
21
36
27
7
5
6
12
11
21
36
27
7
5
6
12
11
21
37
27
7
5
6
12
11
21
37
27
7
5
6
12
11
21
35
27
7
5
6
12
10
21
35
26
6
5
6
12
10
21
35
26
6
5
6
12
10
21
35
26
6
5
6
12
10
21
35
25
6
5
5
12
10
20
34
24
6
5
5
12
10
20
35
24
6
5
6
12
10
21
33
23
7
5
6
12
11
21
34
23
7
5
5
12
11
21
34
23
7
5
5
12
11
21
33
23
6
5
5
12
11
21
33
23
7
5
5
12
10
21
37
24
7
5
5
11
10
21
37
24
7
5
5
11
10
21
37
25
7
5
5
12
10
20
37
25
7
5
5
11
10
19
37
25
7
5
5
11
9
18
36
25
7
5
5
11
9
17
36
25
7
5
5
11
9
17
37
25
6
4
5
11
9
16
37
26
6
4
5
10
9
15
36
24
6
4
5
10
8
15
36
24
6
4
5
11
8
15
36
24
6
4
5
10
8
15
36
24
6
4
5
10
8
14
35
22
6
4
5
10
7
14
34
22
6
4
5
10
7
14
34
23
6
4
5
10
7
14
34
23
6
4
5
10
7
14
34
23
6
4
5
10
7
13
34
23
6
4
5
10
7
13
34
24
6
4
5
10
8
14
33
24
6
4
5
10
8
14
33
24
6
3
5
10
8
14
31
24
6
3
5
10
7
14
31
24
7
4
5
10
7
14
31
24
7
4
5
10
7
14
32
24
7
4
5
10
6
14
33
24
7
4
5
10
7
14
33
23
7
4
4
8
7
14
33
23
7
4
4
8
7
14
33
23
7
4
4
8
7
14
33
21
7
4
4
8
7
14
34
21
7
4
4
8
8
14
35
22
7
4
4
8
8
14
35
22
7
3
4
8
8
14
35
21
7
3
4
8
8
14
35
21
7
3
4
8
8
14
34
21
7
4
4
8
8
14
35
21
7
4
4
8
8
14
34
20
7
3
4
8
8
14
35
20
7
4
4
8
8
14
35
20
7
4
4
8
8
14
34
20
7
4
4
8
8
14
34
20
7
4
4
8
8
14
35
20
7
4
4
8
9
14
35
21
7
4
4
8
9
13
37
23
7
4
4
8
9
13
36
23
7
4
4
8
9
13
37
23
7
4
4
8
9
13
37
23
7
4
4
8
9
13
36
23
7
4
4
8
9
13
33
22
7
4
4
8
9
13
33
22
7
4
4
8
9
13
33
21
7
4
4
8
9
13
34
21
7
4
4
8
9
13
34
20
7
4
4
8
9
12
34
20
7
4
4
8
9
12
34
20
7
3
4
8
9
12
34
20
7
3
4
8
9
13
34
20
7
3
4
8
10
12
36
20
7
3
4
8
10
13
36
21
7
4
4
8
10
13
38
21
8
4
4
9
10
13
39
21
8
4
4
8
10
13
38
22
8
4
4
8
10
13
39
22
8
4
4
9
10
13
39
22
8
4
4
9
10
13
41
22
8
4
4
9
11
13
41
22
9
5
4
9
10
13
41
22
8
5
4
10
10
13
41
21
8
4
5
9
10
12
41
21
8
5
5
9
10
12
41
21
8
5
5
9
10
12
41
21
8
5
5
12
10
11
41
21
8
4
5
12
10
11
40
20
8
4
5
12
10
11
40
20
8
4
5
12
10
11
40
20
8
4
5
13
11
12
41
20
8
4
5
13
11
12
41
21
8
4
5
13
11
12
41
20
8
4
5
13
11
12
41
20
8
4
5
13
11
12
40
21
8
4
5
13
10
12
39
22
8
4
5
13
10
12
40
22
8
4
5
13
10
12
40
22
8
4
5
13
10
12
41
22
8
4
5
13
10
12
41
22
8
4
5
13
10
12
42
22
8
4
5
13
10
12
42
22
8
4
5
13
10
12
41
22
8
4
5
13
10
12
41
22
8
4
5
13
10
12
41
22
8
4
5
13
10
13
42
22
8
4
5
13
10
12
42
23
8
4
5
13
10
12
40
22
8
4
5
13
10
12
39
20
7
4
5
13
10
12
40
21
7
4
5
13
10
12
40
22
7
4
5
13
10
12
40
22
7
4
5
13
10
12
40
21
7
4
5
13
10
12
40
22
7
4
5
13
10
12
39
22
8
4
5
13
10
12
40
22
8
4
5
13
10
12
42
22
8
4
5
13
9
12
42
22
8
4
5
13
9
12
42
22
8
4
5
13
9
12
42
22
8
4
5
13
9
12
42
22
8
4
5
13
9
12
42
22
8
4
5
13
9
12
44
22
8
4
5
13
8
11
44
22
7
4
5
13
8
11
42
21
7
4
5
13
8
11
42
21
7
4
5
13
8
12
43
21
7
4
5
13
8
11
42
21
6
3
5
13
8
11
42
21
6
3
5
13
8
11
41
21
6
3
5
12
8
11
41
20
5
3
5
12
8
11
41
20
5
3
5
12
8
11
41
20
5
3
5
12
8
11
41
20
5
3
5
12
8
11
41
22
5
3
4
12
8
11
42
22
5
3
4
10
8
11
42
22
5
3
4
10
8
10
42
22
5
3
4
9
8
10
41
22
5
3
4
9
7
10
41
22
5
3
5
8
7
10
41
23
5
3
5
9
7
10
41
23
5
3
5
9
7
10
41
23
5
3
5
8
7
10
41
23
5
3
5
8
7
10
40
22
5
3
5
9
7
10
40
21
5
3
5
8
6
10
42
21
5
3
5
8
6
10
42
21
5
3
5
8
6
10
41
21
5
3
5
8
6
10
41
21
5
3
5
8
6
10
41
21
5
3
5
8
6
10
41
21
5
3
5
8
6
10
41
21
5
3
5
8
6
10
41
21
5
3
5
8
6
10
42
21
5
3
5
8
6
11
41
21
5
3
5
8
6
11
41
21
5
3
5
8
6
11
41
21
5
3
4
8
6
11
41
21
5
3
4
8
6
11
40
19
5
3
4
8
6
11
40
19
5
3
4
8
6
11
40
19
5
3
4
8
6
11
41
19
5
3
4
8
6
11
41
19
4
3
4
8
6
11
41
19
4
3
4
8
6
11
40
19
4
3
4
8
6
11
38
19
4
3
4
7
6
11
38
18
4
3
4
7
6
11
38
18
4
3
4
7
5
11
38
18
4
3
4
7
5
11
38
18
4
3
4
7
5
11
37
18
4
3
4
7
5
11
35
17
4
3
4
7
5
11
35
17
4
3
4
7
5
11
35
17
4
3
4
7
5
11
34
17
4
3
4
7
5
11
34
16
4
3
4
7
5
11
34
16
4
3
4
7
5
11
33
16
5
3
4
6
5
11
32
16
5
3
4
6
5
11
32
16
5
3
4
6
5
11
32
16
5
3
4
6
5
11
32
16
5
3
4
6
4
11
32
16
5
3
3
6
4
11
32
13
5
3
3
6
4
11
32
13
5
3
3
6
4
11
31
13
5
3
3
6
4
11
31
13
5
3
3
5
4
11
31
13
5
3
3
5
4
11
31
13
5
3
2
5
3
10
30
12
5
3
2
4
3
10
30
11
5
3
2
4
3
10
30
11
5
3
2
4
3
10
30
10
5
2
2
4
3
10
29
10
5
2
2
3
3
10
29
10
5
2
2
3
3
9
26
10
5
2
2
3
3
9
26
10
5
2
2
3
3
9
26
10
5
2
2
3
3
9
26
10
5
2
2
3
3
9
24
9
5
2
2
3
3
9
24
9
5
2
2
3
3
9
24
9
5
2
2
3
3
9
24
9
5
2
2
3
3
8
24
9
5
2
2
3
2
5
24
9
5
2
2
2
2
5
24
9
5
2
2
2
2
5
24
9
5
2
2
2
2
5
24
8
5
2
2
2
2
5
24
8
5
2
2
2
2
4
23
8
5
2
1
2
2
4
22
8
5
2
1
2
2
4
21
8
5
2
1
2
2
4
21
8
5
2
1
2
2
4
21
8
5
2
1
2
2
4
20
8
5
2
1
2
2
4
20
8
5
2
1
2
1
4
20
9
5
2
1
2
1
4
20
9
5
2
1
1
1
4
19
9
5
2
1
1
1
3
19
9
5
2
1
1
1
3
19
9
5
2
1
1
1
3
15
9
5
2
1
1
1
3
14
8
5
2
1
1
1
3
14
8
5
2
1
1
1
2
13
8
5
2
1
1
1
2
13
8
5
2
1
1
1
2
13
8
5
2
1
1
1
2
13
8
4
2
1
1
1
2
12
8
4
2
1
1
1
2
12
8
4
2
1
1
1
2
11
7
4
2
1
1
1
2
11
7
4
2
1
1
1
2
11
7
4
2
1
1
1
2
11
7
4
2
1
1
1
2
11
7
4
2
1
1
1
2
13
7
4
2
1
1
1
2
13
7
4
2
1
1
1
2
13
7
4
2
1
1
1
2
13
7
4
2
1
1
1
2
13
7
4
2
1
1
1
2
13
6
3
2
1
1
1
2
13
6
3
2
1
1
1
2
13
6
3
2
1
1
1
2
13
6
3
2
1
1
1
2
13
7
3
2
1
1
1
2
13
6
3
2
1
1
1
2
12
6
3
2
1
1
1
2
11
6
3
2
1
1
1
1
11
6
3
2
1
1
1
1
10
6
3
2
1
1
1
1
10
6
3
2
1
1
1
1
9
6
3
2
1
1
1
2
9
6
3
2
1
1
1
1
9
6
3
2
1
1
1
1
9
6
3
2
1
1
1
1
9
6
3
2
1
1
1
2
9
6
3
2
1
1
1
2
9
6
3
2
1
1
1
1
8
6
3
2
1
1
1
1
8
6
3
2
1
1
1
1
8
6
3
2
1
1
1
1
8
6
3
2
1
1
1
1
9
5
3
2
1
1
1
1
8
5
3
2
1
1
1
1
9
5
3
2
1
1
1
1
9
5
3
2
1
1
1
1
9
4
3
2
1
1
1
1
9
4
3
2
1
1
1
1
9
4
3
2
1
1
1
1
9
4
3
2
1
1
1
1
9
4
3
2
1
1
1
1
9
4
2
2
1
1
1
1
9
4
2
2
1
1
1
1
9
4
2
2
1
1
1
1
9
4
2
2
1
1
1
1
9
4
2
2
1
1
1
1
9
4
2
2
1
1
1
1
9
4
2
2
1
1
1
1
9
4
3
2
1
1
1
1
9
5
3
2
1
1
1
1
9
5
3
2
1
1
1
1
9
5
3
2
1
1
1
1
9
5
3
2
1
1
1
1
9
6
3
2
1
1
1
1
9
6
3
2
1
1
1
1
7
6
3
2
1
1
1
1
7
6
3
2
1
1
1
1
7
6
3
2
1
1
1
1
7
6
3
2
1
1
1
1
6
6
3
2
1
1
1
1
6
6
3
2
1
1
1
1
6
6
3
2
1
1
1
1
6
6
3
2
1
1
1
1
6
6
3
2
1
1
1
1
6
5
3
2
1
1
1
1
6
5
3
2
1
1
1
1
6
5
3
2
1
1
1
1
7
5
3
2
1
1
1
1
7
5
3
1
1
1
1
1
7
5
3
1
1
1
1
1
6
5
3
1
1
1
1
1
7
5
3
1
1
1
1
1
7
5
3
1
1
1
1
1
7
5
3
1
1
1
1
1
7
5
3
1
1
1
1
1
7
5
3
1
1
1
1
1
7
5
3
1
1
1
1
1
7
5
3
1
1
1
1
1
7
5
3
1
1
1
1
1
7
5
3
1
1
1
1
1
7
5
3
1
1
1
1
1
7
5
3
1
1
1
1
1
7
5
3
1
1
1
1
1
7
5
3
1
1
1
1
1
7
5
3
1
1
1
1
1
7
6
3
1
1
1
1
1
7
6
3
1
1
1
1
1
7
6
3
1
1
1
1
2
7
6
3
1
1
1
1
2
9
6
3
1
1
1
1
2
9
6
3
1
1
1
1
2
9
6
3
1
1
1
1
2
9
6
3
1
1
1
1
2
9
6
3
1
1
1
1
2
9
6
3
1
1
1
1
2
9
6
3
1
1
1
1
2
9
6
3
1
1
1
1
2
9
6
3
1
1
1
1
2
9
6
3
1
1
1
1
2
9
5
3
1
1
1
1
2
9
5
3
1
1
1
1
2
9
5
2
1
1
1
1
2
9
5
2
1
1
1
1
2
10
4
2
1
1
1
1
2
12
4
2
1
1
1
1
2
12
4
2
1
1
1
1
2
13
4
2
1
1
1
1
2
13
4
2
1
1
1
1
2
13
4
2
1
1
1
1
2
13
4
2
1
1
1
1
2
13
5
2
1
1
1
1
2
13
4
2
1
1
1
1
2
13
4
2
1
1
1
1
3
13
5
2
1
1
1
1
3
13
5
2
1
1
1
1
3
14
5
2
1
1
1
1
3
15
5
3
1
1
1
1
3
16
6
3
1
1
1
1
3
16
6
3
1
1
1
1
3
16
6
3
1
1
1
1
3
16
6
2
1
1
1
2
4
17
6
3
1
2
2
3
4
18
7
3
1
2
2
3
4
18
7
3
1
3
2
3
4
18
7
3
1
3
2
3
5
19
7
3
2
3
2
4
5
24
8
3
2
3
2
4
5
25
8
3
2
3
2
4
5
25
8
3
2
3
3
5
5
26
8
3
2
3
3
5
5
30
9
4
2
3
6
6
5
34
9
4
2
4
6
6
5
34
10
4
2
4
6
6
6
34
10
4
2
4
7
6
6
34
10
4
2
4
7
6
6
37
11
4
3
4
7
7
6
37
11
4
3
5
7
7
6
39
13
5
3
5
9
7
6
39
13
5
3
5
9
7
6
39
13
5
3
5
9
7
7
40
13
5
3
5
9
8
8
43
13
6
4
5
9
8
8
43
13
6
4
5
9
8
8
43
13
6
4
5
9
8
8
43
13
6
4
5
10
9
8
43
15
6
4
6
11
9
9
44
16
6
4
6
11
9
9
44
16
6
4
6
11
10
10
44
17
6
4
6
11
10
10
45
17
7
4
6
11
10
11
45
17
7
4
6
12
10
11
46
18
7
4
6
12
10
11
46
18
7
4
6
12
10
12
46
18
7
4
6
12
10
11
45
18
7
4
6
12
10
11
46
18
7
4
6
13
11
12
47
18
7
5
6
13
12
12
47
19
7
5
6
13
12
12
47
19
7
5
6
13
12
12
48
19
7
5
6
13
12
12
49
19
7
5
6
13
12
12
50
20
7
5
6
13
12
12
50
20
8
5
6
13
12
13
53
20
8
5
6
13
12
13
53
20
8
5
6
13
12
13
53
21
8
5
6
13
13
13
53
21
8
5
6
13
13
13
53
21
8
5
6
13
13
13
53
21
8
5
6
13
13
13
53
21
8
5
6
13
13
13
54
22
8
5
7
14
13
13
55
22
8
5
7
13
13
13
55
22
8
5
6
13
13
13
55
22
8
5
6
13
13
13
55
22
8
5
6
13
13
13
55
23
8
5
6
14
12
14
54
23
8
5
7
14
12
15
53
24
8
5
6
14
12
16
54
24
8
5
7
14
12
16
53
25
8
5
7
14
12
16
51
25
8
5
6
13
12
15
49
25
8
5
6
12
12
15
49
24
8
5
6
13
12
15
49
24
7
5
6
13
12
15
50
25
7
5
6
13
12
16
48
25
7
5
6
13
12
16
49
25
7
5
6
13
12
16
48
25
7
5
6
12
12
16
48
25
7
5
6
12
12
16
48
24
7
5
6
12
12
16
48
25
7
5
6
12
11
15
46
25
7
5
6
12
11
15
46
25
7
5
6
12
11
16
46
25
7
5
6
12
12
16
46
25
8
5
6
11
12
16
47
24
7
5
6
10
12
16
47
23
7
5
6
10
12
16
47
23
7
5
6
10
11
16
47
23
7
5
6
10
11
16
46
23
7
5
6
10
11
15
45
23
7
5
6
10
11
15
45
23
7
5
6
10
11
15
46
23
7
5
6
10
11
15
45
23
7
5
6
10
11
15
45
23
7
5
6
10
11
15
45
23
7
5
6
10
10
15
44
23
7
4
6
10
10
15
44
23
7
4
6
9
10
15
44
23
7
4
5
9
9
15
42
23
7
4
5
9
9
15
41
23
7
4
5
10
9
15
40
23
7
4
5
10
9
15
40
23
7
4
5
10
9
15
39
24
6
4
5
10
9
15
40
25
7
4
5
10
9
14
40
25
7
4
5
10
9
15
40
24
6
4
5
10
9
15
39
24
6
4
5
10
9
15
39
24
7
4
5
10
9
15
39
25
6
4
5
10
9
14
38
24
6
4
5
10
9
14
37
24
6
4
5
10
9
14
37
24
6
4
5
10
9
14
37
24
6
4
5
10
9
14
36
24
7
4
5
10
9
14
36
23
7
4
5
10
9
14
36
22
7
4
5
10
9
12
36
22
7
4
5
10
9
12
35
22
7
4
5
10
9
13
35
22
7
4
5
10
9
13
37
22
7
5
5
10
9
13
37
23
7
5
5
10
9
13
39
25
8
5
5
10
9
14
39
25
8
5
5
10
9
14
38
24
8
5
5
10
9
14
38
24
8
5
5
10
9
14
36
24
8
5
4
10
9
14
35
24
7
5
4
10
9
14
35
24
8
5
5
9
9
14
35
24
8
5
5
9
9
14
35
24
8
5
5
9
9
14
35
24
7
5
5
10
9
14
35
24
8
5
5
10
9
14
35
25
7
5
5
10
8
13
35
25
7
4
5
10
8
13
34
25
7
4
5
10
8
13
34
26
7
4
5
10
8
13
34
26
7
4
5
10
8
13
34
26
7
4
5
10
8
13
33
26
7
4
5
10
8
13
33
26
7
4
5
10
8
13
33
25
7
4
5
10
8
14
33
26
7
4
5
9
9
14
33
26
7
4
5
9
9
14
33
26
7
4
5
9
9
14
33
25
7
4
5
9
9
14
33
26
7
4
5
9
9
14
33
25
7
4
5
9
9
14
33
25
7
4
5
10
10
14
33
25
7
4
5
10
9
14
33
25
7
4
5
10
9
13
34
25
7
4
5
10
9
13
34
25
7
4
5
10
9
13
31
24
7
4
5
10
9
14
32
23
7
4
5
10
9
14
32
23
7
4
6
10
10
14
34
23
7
4
6
10
10
14
34
23
7
4
5
10
10
14
35
23
7
4
6
10
10
14
35
23
7
4
6
11
10
14
34
23
7
4
6
11
10
14
34
23
7
4
5
11
10
14
34
23
7
4
5
11
11
14
34
23
7
4
5
11
11
14
34
23
7
4
5
11
11
14
36
23
7
4
5
11
10
14
35
23
7
4
5
10
10
15
35
22
7
4
5
10
10
15
37
22
7
4
5
10
10
14
37
22
7
4
5
10
10
14
35
22
6
4
5
10
10
14
35
21
6
3
5
10
10
14
32
19
6
3
5
10
10
13
32
19
6
3
5
10
10
13
32
19
6
3
5
10
10
14
32
19
6
3
5
10
10
13
32
19
6
3
5
11
10
13
32
19
6
3
5
10
10
13
32
19
5
3
5
10
10
13
31
19
6
3
4
11
10
12
31
19
6
3
4
11
10
12
32
19
6
3
4
10
10
12
33
18
5
3
4
11
10
12
32
16
5
3
4
11
11
12
32
16
6
3
5
11
11
12
32
17
6
3
5
11
11
12
32
16
6
3
5
11
11
12
33
16
6
3
5
11
10
12
33
16
6
3
5
11
11
14
34
19
7
4
5
11
11
14
34
19
7
4
5
11
11
13
34
19
7
4
5
11
11
13
34
18
7
4
5
10
10
13
34
18
7
4
5
10
10
12
34
19
7
4
5
11
9
12
34
19
7
4
5
11
10
12
34
19
7
4
5
11
10
12
34
19
7
4
5
11
10
12
35
19
7
4
5
10
10
12
35
19
7
4
5
10
10
13
36
20
7
4
5
10
10
13
35
19
7
4
5
10
10
12
35
19
7
4
5
10
10
12
34
19
7
4
5
10
10
13
35
20
7
4
5
10
10
13
35
20
7
4
5
9
10
13
33
20
7
4
5
9
10
12
32
20
8
4
5
9
10
12
32
20
8
4
5
9
10
13
32
21
8
4
5
9
10
12
32
21
8
4
5
9
10
12
32
20
8
4
5
9
10
12
32
20
8
4
5
10
9
12
32
20
8
4
5
10
9
12
32
20
8
4
5
10
9
12
30
20
8
4
5
10
9
12
32
21
8
4
5
10
10
12
32
21
8
4
5
11
10
12
30
21
8
4
5
11
10
12
30
21
8
4
5
11
10
12
31
21
8
4
5
10
10
12
31
21
8
4
5
10
10
12
31
21
8
4
5
10
10
12
32
22
8
4
5
11
10
12
33
22
8
4
5
12
10
12
33
22
8
4
5
12
10
12
34
21
8
4
5
12
10
12
34
21
8
4
5
12
10
12
34
22
8
4
5
12
10
12
34
21
8
4
5
12
10
12
34
22
8
4
5
12
10
13
33
21
8
4
5
13
10
13
33
21
8
4
5
12
10
13
33
21
8
4
5
12
10
13
33
21
8
4
5
12
10
14
33
21
8
4
5
12
10
14
33
21
8
4
5
12
10
14
33
20
8
4
5
12
10
14
34
20
7
4
5
12
9
13
32
18
6
4
5
12
9
14
34
18
6
4
5
12
11
15
34
18
6
4
5
12
11
15
34
18
6
4
5
12
11
15
34
18
6
4
5
12
11
15
34
17
6
4
5
12
11
15
34
17
6
4
5
12
11
15
34
17
6
4
5
12
10
15
34
17
6
4
5
12
10
15
34
17
6
4
5
12
10
15
34
17
6
4
5
12
10
15
33
16
5
4
5
12
10
15
32
16
5
4
4
12
10
15
32
16
5
4
5
12
10
16
33
16
6
4
5
13
10
16
31
16
6
4
5
13
10
16
32
17
6
4
5
13
10
16
32
17
5
4
4
13
10
16
32
16
5
4
4
13
10
16
32
16
5
4
4
13
10
16
32
15
5
4
4
13
10
16
32
15
5
4
5
12
10
16
34
15
5
4
5
12
10
16
34
15
5
4
4
12
10
16
34
15
4
3
4
11
10
16
35
15
5
3
4
11
10
16
35
15
5
3
4
11
10
16
33
15
5
3
4
11
9
16
34
15
5
3
4
11
9
16
33
13
4
3
4
11
8
16
35
13
4
3
5
11
9
16
35
13
4
3
5
11
9
16
34
13
4
3
4
11
9
16
34
15
5
3
5
11
9
16
34
14
4
3
4
10
9
16
32
13
4
3
4
9
9
16
32
13
5
3
4
9
9
16
33
14
5
3
4
9
9
16
33
14
5
3
4
9
9
15
32
14
5
3
5
9
9
15
33
14
5
3
5
9
9
15
32
14
5
3
5
9
9
15
33
14
5
3
4
8
9
15
35
14
5
3
4
8
9
14
35
14
5
3
4
8
9
14
34
14
5
3
4
8
9
14
34
14
5
3
4
8
9
14
34
14
5
3
4
8
9
14
34
14
5
3
4
8
10
14
34
14
5
3
4
8
10
14
37
17
5
3
4
8
10
13
34
16
5
3
4
8
8
12
35
17
5
3
4
8
8
12
36
17
5
3
4
8
8
12
36
17
5
3
4
8
8
12
36
17
5
3
4
8
8
12
36
17
5
3
4
8
8
12
35
17
5
3
4
8
8
12
36
17
5
3
4
8
8
12
36
17
5
3
4
8
8
12
36
17
5
3
4
8
8
12
36
17
5
3
4
8
8
12
38
17
5
3
4
8
8
12
38
17
5
3
4
7
8
11
38
17
5
3
4
6
8
11
38
17
5
3
4
6
8
10
37
16
5
3
4
6
8
10
37
16
5
3
4
6
8
10
37
16
5
3
4
6
8
10
37
16
5
3
4
6
8
10
37
16
5
3
4
6
8
11
37
16
5
3
4
6
8
11
35
16
5
3
4
6
8
11
35
16
5
3
4
6
8
11
35
16
5
3
4
6
8
11
34
16
5
3
4
6
8
11
35
16
5
3
4
6
8
11
34
16
5
3
4
6
8
11
34
16
5
3
4
6
8
10
34
16
5
3
3
6
8
11
34
16
5
3
3
5
8
11
34
16
5
3
3
6
8
11
34
16
5
3
3
6
8
11
34
15
4
2
3
6
8
11
34
15
4
2
3
6
8
11
34
15
4
2
3
6
8
11
34
15
4
2
3
6
8
11
33
15
4
3
3
6
9
11
35
16
4
3
3
6
8
11
36
16
4
3
3
6
8
11
35
16
4
3
3
6
9
12
35
16
4
3
3
6
9
12
36
16
4
3
3
6
9
12
38
18
5
3
3
7
9
12
38
18
5
3
3
7
9
12
38
18
5
3
3
6
9
12
38
18
5
2
3
6
9
12
39
18
5
2
3
6
9
12
39
18
5
2
3
6
8
12
38
19
4
2
3
6
8
11
36
16
4
2
3
6
8
11
36
17
4
2
3
6
8
11
35
16
4
2
3
6
9
11
34
16
4
2
3
6
9
11
34
16
4
3
3
7
9
11
34
17
4
3
3
6
9
11
34
17
4
3
3
6
9
11
37
17
4
3
3
6
9
11
37
17
4
2
3
6
9
12
37
17
4
2
3
6
9
12
37
17
4
3
3
6
10
12
38
18
5
2
3
6
10
12
36
18
5
2
3
6
10
12
36
18
5
2
3
6
9
12
38
18
5
2
3
6
9
12
37
18
5
2
3
6
9
12
37
18
5
2
3
6
10
12
37
18
5
2
3
7
10
12
37
18
5
3
3
7
10
12
37
18
5
3
3
7
10
12
38
18
5
3
3
7
10
11
38
18
5
3
3
7
10
11
38
18
5
3
3
7
10
11
38
18
5
3
3
7
10
11
38
18
5
3
3
7
10
11
39
18
5
3
3
7
10
11
39
18
5
3
3
7
10
11
39
18
5
3
3
7
10
10
39
18
5
3
3
7
10
11
39
18
5
3
3
7
10
10
38
18
5
3
3
7
9
10
38
18
5
3
3
6
9
10
38
18
5
3
3
6
9
10
38
18
5
3
3
6
9
10
38
18
5
3
3
6
9
10
38
18
5
3
3
6
9
10
38
18
5
3
3
6
9
9
38
18
5
3
3
6
8
9
36
17
5
3
3
6
8
9
35
17
5
3
2
6
8
9
35
17
5
3
2
6
8
9
36
17
5
3
2
6
8
9
35
17
5
3
2
6
7
8
30
15
4
3
2
6
7
8
30
15
4
3
2
6
7
8
30
14
5
3
2
6
7
8
30
14
5
3
2
6
7
7
30
14
5
3
2
5
7
7
30
14
5
3
2
5
7
7
30
14
5
3
2
5
7
7
30
14
5
3
2
5
7
7
30
13
5
3
2
5
7
7
30
13
5
3
2
5
6
7
30
13
5
3
2
5
5
7
30
15
5
3
2
5
5
7
29
14
5
3
2
5
5
7
29
14
5
2
2
5
5
7
26
13
5
2
2
5
5
7
26
13
5
2
2
5
5
5
25
14
5
3
2
5
5
5
25
14
5
2
2
5
4
5
23
12
5
2
2
4
4
5
23
12
5
3
2
4
4
4
23
12
5
3
3
4
4
4
20
12
5
2
3
4
4
4
20
12
5
2
3
4
4
4
20
11
4
2
3
4
4
3
19
11
5
2
3
4
2
2
19
11
4
2
3
3
2
2
19
11
4
2
3
3
2
2
17
11
4
2
3
3
2
2
17
11
4
2
4
3
2
2
17
11
4
2
4
3
2
2
16
11
4
2
4
3
2
2
16
10
4
2
4
3
2
2
15
11
4
2
4
3
2
2
14
10
4
2
4
2
1
2
13
10
4
2
4
2
1
1
13
10
4
2
4
2
1
1
12
10
4
2
4
2
1
1
12
10
4
2
4
2
1
1
12
10
4
2
4
2
1
1
11
9
4
2
4
2
1
1
11
9
4
2
4
1
1
1
11
9
4
2
4
1
1
1
10
9
4
2
4
1
1
1
10
9
4
2
4
1
1
1
9
9
4
2
4
1
1
1
9
9
4
2
4
1
1
1
9
9
4
2
4
1
1
1
9
9
4
2
4
1
1
1
9
9
4
2
3
1
1
1
9
9
4
2
3
1
1
1
8
9
4
2
3
1
1
1
7
9
4
2
3
1
1
1
7
9
4
2
3
1
1
1
7
9
4
2
3
1
1
1
7
9
3
2
3
1
1
1
6
9
3
2
3
1
1
1
6
9
3
2
3
1
1
1
6
9
3
2
3
1
1
1
6
9
4
2
3
1
1
1
6
9
4
2
3
1
1
1
6
8
4
2
3
1
1
1
6
6
3
2
3
1
1
1
6
6
3
2
3
1
1
1
6
5
3
2
3
1
1
1
6
5
3
2
3
1
1
1
4
5
3
2
3
1
1
1
5
5
2
2
3
1
1
1
5
5
2
2
3
1
1
1
5
5
2
1
3
1
1
1
5
5
2
1
3
1
1
1
5
5
2
1
3
1
1
1
5
5
2
1
2
1
1
1
4
5
2
1
2
1
1
1
4
5
2
1
2
1
1
1
4
5
2
1
2
1
1
1
4
5
2
1
2
1
1
1
4
4
2
1
1
1
1
1
4
4
2
1
1
1
1
1
4
4
2
1
1
1
1
1
4
4
2
1
1
1
1
1
4
4
2
1
1
1
1
1
4
4
2
1
1
1
1
1
4
4
2
1
1
1
1
1
4
4
2
1
1
1
1
1
4
4
2
1
1
1
1
1
4
4
2
1
1
1
1
1
4
4
2
1
1
1
1
1
4
4
2
1
1
1
1
1
4
4
2
1
1
1
1
1
4
3
2
1
1
1
1
1
4
3
2
1
1
1
1
1
4
3
2
1
1
1
1
1
4
3
2
1
1
1
1
1
4
3
2
1
1
1
1
1
5
3
2
1
1
1
1
1
5
3
2
1
1
1
1
1
5
3
2
1
1
1
1
1
5
3
2
1
1
1
1
1
5
3
2
1
1
1
1
1
5
3
2
1
1
1
1
1
5
3
2
1
1
1
1
1
5
3
2
1
1
1
1
1
5
3
2
1
1
1
1
1
5
3
2
1
1
1
1
1
5
3
2
1
1
1
1
1
5
3
2
1
1
1
1
1
6
3
2
1
1
1
1
1
6
3
2
1
1
1
1
1
6
3
2
1
1
1
1
1
6
3
2
1
1
1
1
1
6
3
2
1
1
1
1
1
6
3
2
1
1
1
1
1
6
2
2
1
1
1
1
1
6
2
2
1
1
1
1
1
7
2
2
1
1
1
1
1
8
2
2
1
1
1
1
1
8
2
2
1
1
1
1
1
8
2
2
1
1
1
1
1
8
2
2
1
1
1
1
2
11
2
2
1
1
1
1
3
14
4
2
1
1
1
1
3
14
4
2
1
1
1
1
3
14
4
2
1
1
1
1
3
14
4
3
2
1
1
2
3
15
4
3
2
1
1
2
3
15
5
3
2
1
1
2
3
16
5
3
2
1
1
2
4
16
5
3
2
2
1
2
4
17
6
3
2
2
1
4
5
17
7
4
2
2
2
4
5
17
8
5
2
2
2
5
5
17
8
5
2
2
2
5
5
20
8
5
3
2
3
7
6
21
11
5
3
2
3
7
7
26
13
5
3
2
4
7
7
27
14
5
3
2
4
7
7
30
14
5
3
3
4
7
7
30
14
5
3
3
4
7
7
30
14
6
3
3
5
7
7
31
14
6
3
3
5
7
7
31
15
6
3
3
5
7
8
31
15
6
3
3
5
7
8
32
15
6
4
3
6
7
8
32
15
6
4
3
6
7
8
34
16
6
4
3
6
8
9
38
21
8
5
4
6
8
10
42
23
9
5
4
6
9
10
42
23
10
5
4
7
9
11
43
24
10
6
4
9
9
12
46
25
11
6
5
9
9
13
46
25
11
6
5
9
9
13
46
25
11
6
5
9
9
13
47
25
11
6
5
10
10
14
47
27
11
6
5
10
10
15
47
27
11
6
5
10
10
15
48
28
11
6
5
10
10
15
49
28
11
6
5
11
11
15
49
28
11
6
5
11
11
15
49
28
11
6
5
12
11
16
51
28
11
6
5
12
12
16
51
28
11
6
5
12
12
16
51
29
11
6
5
12
13
16
51
29
11
6
6
12
13
16
51
29
11
7
6
12
13
16
53
30
11
7
6
12
13
16
53
30
11
7
6
13
13
17
53
31
11
7
6
13
13
17
53
31
11
7
6
13
13
17
53
32
11
7
6
13
13
17
54
33
11
7
6
13
13
17
54
33
11
7
6
13
13
17
55
34
12
7
7
13
13
17
56
34
12
7
7
13
13
17
56
34
12
7
7
13
14
18
55
34
12
7
7
13
14
18
56
34
12
7
7
13
14
18
56
35
12
7
7
14
14
18
56
35
12
7
7
14
14
18
57
35
12
8
7
14
13
18
57
35
11
7
7
14
13
18
57
36
11
7
7
14
14
19
57
36
11
7
7
14
14
21
57
36
11
7
8
14
13
22
56
36
11
7
8
14
13
21
54
36
11
7
8
14
13
21
54
35
11
7
8
14
13
21
52
35
11
7
8
14
13
21
52
35
11
7
8
14
13
21
52
36
11
7
8
14
13
21
52
36
11
7
8
14
13
21
53
37
11
7
8
14
13
22
53
37
11
7
8
14
13
22
53
37
11
7
8
14
13
22
53
38
11
7
8
14
13
22
52
37
11
7
8
14
13
21
51
35
10
6
8
14
13
22
48
34
9
6
8
13
12
22
48
34
8
6
8
13
12
21
47
33
8
6
7
12
12
21
44
32
7
6
7
12
12
21
44
32
7
6
7
12
12
21
46
32
7
6
7
12
12
20
45
32
7
6
7
11
12
20
45
31
7
6
7
11
12
19
45
31
7
6
7
12
12
19
44
30
7
6
7
12
12
19
44
31
7
6
7
11
12
19
45
31
7
6
7
11
11
19
47
33
8
6
7
10
11
19
45
33
8
6
7
10
10
19
45
33
8
5
7
10
10
20
45
33
8
5
7
10
9
20
45
33
8
5
7
10
9
19
47
34
8
5
7
10
9
19
45
34
8
5
7
10
9
19
44
33
8
5
7
10
9
19
44
33
8
5
7
10
9
19
44
34
8
5
7
10
9
19
44
32
8
5
7
10
9
19
43
31
8
5
7
10
9
20
46
31
8
5
7
10
9
20
45
31
8
4
7
10
10
20
44
32
7
4
7
10
10
20
44
31
7
4
7
10
10
19
45
31
7
4
7
10
10
18
45
31
7
4
7
10
10
18
45
31
7
4
7
10
9
18
44
32
7
4
7
10
9
19
44
32
7
4
7
10
10
19
44
32
7
4
7
10
10
18
43
31
7
4
7
10
9
18
43
31
7
4
7
10
9
15
44
32
7
4
7
10
9
15
45
35
8
4
7
10
9
15
45
35
8
4
7
11
9
15
45
35
8
4
7
11
9
15
45
35
8
4
7
11
9
15
45
35
8
4
7
11
9
15
45
35
8
5
7
11
9
15
45
34
8
5
7
11
9
16
44
32
8
5
7
11
9
16
44
33
8
6
7
11
9
15
43
33
8
6
7
11
9
15
43
32
8
6
7
11
9
15
43
32
8
6
7
11
9
15
41
32
8
6
7
11
9
15
42
32
8
6
7
11
9
17
45
33
8
6
7
12
9
17
45
33
8
6
7
12
9
16
45
33
8
6
7
12
9
16
45
33
8
6
7
12
9
16
44
33
8
6
7
12
9
17
44
33
8
6
7
12
9
17
43
33
8
7
7
12
9
17
44
33
8
7
7
11
9
17
45
33
8
7
7
11
9
17
44
33
8
7
7
11
9
19
43
33
9
8
7
11
10
19
41
31
8
8
7
11
10
18
41
32
9
8
7
11
11
18
41
32
9
8
7
11
11
18
41
32
9
8
7
11
11
18
41
32
9
8
7
11
11
18
41
31
9
8
7
11
11
18
41
30
8
8
7
11
11
18
41
30
8
8
7
11
11
18
41
30
8
8
7
12
11
18
41
30
8
8
7
12
11
18
41
30
8
8
7
12
11
18
41
30
8
8
8
13
11
17
37
30
8
8
8
13
10
17
37
30
8
8
8
13
10
17
37
29
8
8
7
13
10
17
37
29
8
8
7
12
10
17
37
29
8
8
7
12
10
17
37
29
8
8
7
12
10
17
36
29
8
8
7
12
10
17
36
27
9
8
7
12
10
17
36
27
9
8
7
12
10
17
36
27
9
8
7
12
10
17
35
27
9
9
7
12
10
17
35
27
9
9
7
12
10
17
35
25
8
8
7
12
10
17
34
21
7
8
7
11
10
17
34
20
8
9
7
11
10
18
34
21
8
9
7
12
10
18
34
21
8
9
7
11
10
17
34
21
8
9
7
11
10
18
34
21
8
9
7
11
10
18
34
21
8
9
7
12
10
17
34
21
8
9
7
11
10
17
35
21
8
9
7
11
10
18
37
21
8
8
7
11
10
18
37
21
8
8
7
11
10
18
37
21
8
8
7
11
10
18
37
21
8
8
7
10
10
17
37
21
8
8
7
11
10
16
34
20
7
8
8
10
10
16
35
20
8
8
8
10
11
16
38
20
8
8
8
10
11
16
38
20
8
8
8
11
11
16
38
20
8
8
8
11
11
16
38
20
8
8
8
10
11
16
39
21
8
8
8
11
10
15
38
20
8
8
8
11
10
15
37
20
8
8
8
11
10
15
38
20
8
8
8
11
10
14
39
20
7
7
7
10
10
13
39
21
7
7
7
10
10
13
38
20
6
7
7
10
9
13
39
20
6
7
7
10
9
13
39
20
6
7
7
10
9
13
39
21
6
7
8
10
9
13
37
20
6
7
8
10
9
14
38
21
7
7
8
10
9
14
38
21
7
7
8
10
9
14
38
21
7
7
8
9
9
14
38
21
7
7
8
9
9
14
38
21
7
7
7
9
9
14
38
21
7
6
7
8
9
14
38
21
6
6
7
9
9
14
38
20
7
6
7
8
9
14
37
20
6
6
7
9
9
15
38
20
6
6
7
9
9
15
38
21
7
6
8
9
11
15
39
21
7
6
8
9
11
15
39
21
7
6
8
9
11
15
39
21
6
6
7
9
11
15
39
20
6
6
8
9
11
15
39
20
6
6
8
9
11
15
39
20
6
6
8
9
11
15
39
20
6
6
8
8
11
14
39
21
6
6
8
8
11
14
38
20
6
6
8
8
11
14
39
20
6
5
7
8
11
13
38
20
6
4
7
7
11
13
38
20
6
4
7
7
11
14
38
20
6
5
7
7
11
14
39
20
6
5
8
7
11
14
39
20
7
5
7
7
11
14
39
20
7
5
8
10
11
14
38
20
7
5
8
10
11
13
36
20
7
5
8
10
11
13
35
20
7
5
8
10
11
13
35
20
7
5
8
10
11
13
36
21
7
5
8
10
11
13
36
21
7
5
7
10
11
13
36
21
7
5
7
10
10
13
34
20
7
5
7
10
10
13
31
20
6
5
7
10
9
13
31
20
6
5
7
9
9
13
31
20
6
5
7
9
9
12
31
20
6
5
7
9
9
12
30
19
6
5
7
10
9
13
31
19
6
5
7
10
9
14
32
20
6
5
7
10
9
14
31
19
6
5
7
10
9
14
30
19
6
5
7
10
9
14
30
18
6
5
7
10
9
14
30
18
6
5
7
10
9
14
29
18
6
5
7
10
9
14
29
18
6
5
7
10
9
14
32
17
6
5
6
10
9
14
32
17
6
5
6
10
9
14
32
16
6
5
6
10
10
14
32
16
6
5
6
10
9
13
33
16
6
5
6
10
9
13
33
17
6
5
6
10
9
14
35
18
7
5
6
9
9
14
37
18
7
5
6
10
10
14
37
19
7
5
6
10
10
14
37
19
7
5
6
10
10
14
37
18
7
5
6
10
10
13
38
18
7
5
5
9
10
13
39
18
7
5
5
9
8
13
38
18
7
5
5
9
8
13
38
19
7
5
5
9
8
13
38
19
7
5
5
9
8
13
38
19
7
5
5
9
8
13
38
20
7
5
5
9
8
13
39
20
7
5
5
9
8
13
39
20
7
5
5
9
8
15
39
20
7
5
5
10
8
15
39
20
7
5
5
10
7
15
38
20
7
5
5
10
7
15
38
20
7
5
5
10
7
15
39
20
7
5
5
10
7
15
39
21
7
5
5
10
7
15
40
20
7
5
5
10
7
14
41
20
6
5
4
10
7
15
41
20
6
4
4
7
7
14
41
20
6
4
4
7
7
14
40
20
6
4
4
7
7
14
41
20
6
4
4
7
7
15
41
20
6
4
4
6
7
14
40
20
6
4
4
6
7
15
40
20
6
4
4
6
7
15
40
19
6
4
4
6
7
15
41
19
6
4
4
6
7
15
41
19
6
4
4
6
7
15
41
19
6
4
4
6
7
15
41
19
6
4
4
6
7
15
41
19
6
4
4
6
7
15
40
20
6
4
4
6
7
14
40
20
6
4
4
6
7
14
39
19
6
4
4
6
7
13
40
19
6
4
4
6
7
13
40
19
6
4
4
6
7
13
40
19
6
4
4
6
7
14
40
19
6
4
4
6
8
14
40
19
6
4
4
6
8
14
41
19
6
4
4
6
8
14
39
19
6
3
4
6
8
14
39
19
6
4
4
6
8
14
38
20
6
4
4
6
8
14
38
20
6
4
4
6
8
14
39
20
6
4
4
6
8
14
38
19
6
4
4
6
8
14
36
17
5
3
4
7
8
14
34
17
5
3
4
6
7
13
34
18
5
3
4
6
8
13
34
18
5
3
4
7
8
13
34
18
5
3
4
7
8
13
33
19
5
3
4
7
7
13
31
18
5
3
4
7
7
13
32
18
5
3
4
8
8
13
32
18
5
3
4
8
8
14
32
17
5
3
4
8
8
13
32
17
5
3
4
8
8
13
31
17
5
3
4
8
8
13
31
16
5
3
4
8
8
13
31
16
5
3
4
8
8
12
31
16
5
3
4
8
8
13
31
16
5
3
4
8
8
13
33
17
5
3
4
8
10
14
33
17
5
3
4
9
10
14
33
17
4
3
4
9
10
14
32
17
4
3
4
9
10
14
30
17
4
3
4
9
10
14
30
17
4
3
4
9
10
13
30
17
4
3
4
9
10
13
30
17
4
3
4
9
10
13
30
16
4
3
4
9
10
13
29
17
5
3
4
9
10
13
29
17
5
3
4
9
11
13
29
17
5
3
4
9
11
13
29
17
5
3
4
9
11
13
29
17
5
3
4
9
11
13
28
17
5
3
4
9
11
13
29
18
5
3
4
9
11
13
29
18
5
3
4
9
11
13
30
18
5
3
4
10
11
13
30
18
5
3
4
9
11
14
30
18
5
3
4
10
11
14
30
18
5
3
4
10
11
14
30
18
5
3
4
11
11
14
29
18
5
3
4
12
11
14
28
18
4
3
4
12
11
14
29
18
4
3
4
12
11
14
30
19
5
3
4
12
11
13
29
19
5
3
4
12
11
13
30
19
5
3
4
12
11
13
30
20
5
3
4
12
11
14
30
20
5
3
4
12
10
13
30
19
5
3
4
12
10
13
30
19
5
3
4
12
10
13
30
19
5
3
5
12
11
13
30
19
5
3
4
12
11
13
31
19
5
3
5
12
10
13
31
19
5
3
5
12
10
13
32
18
4
3
5
12
10
13
32
18
4
3
5
12
11
13
32
18
4
3
5
11
11
13
32
18
4
3
5
12
10
13
32
17
4
3
5
12
10
13
33
17
4
3
5
11
10
13
33
17
4
3
5
11
10
13
33
17
4
3
5
11
10
13
32
17
4
3
5
11
10
13
33
17
4
3
5
11
10
13
33
17
4
3
5
11
10
13
34
17
4
3
5
11
10
13
33
17
4
3
5
11
10
11
33
17
4
3
5
11
10
11
32
16
4
3
5
11
8
11
31
16
4
3
5
10
8
11
31
16
4
3
5
10
8
10
31
16
4
3
5
10
8
10
31
16
4
3
5
10
8
10
30
16
4
3
5
10
8
10
30
15
4
2
5
10
8
10
30
15
4
2
5
10
8
10
30
15
4
2
5
10
8
10
30
15
4
2
5
10
8
10
30
15
4
2
5
10
6
10
30
14
4
2
4
10
6
10
30
14
4
2
4
10
6
10
30
14
4
2
4
10
6
10
30
14
4
2
4
10
6
9
29
14
4
2
4
10
6
9
29
14
4
2
4
10
6
9
28
13
4
2
4
9
6
8
28
13
4
2
4
9
6
8
28
13
4
2
4
9
6
7
28
13
4
2
4
9
5
7
28
13
4
2
4
7
5
7
27
12
4
2
4
6
5
7
28
12
4
2
4
5
5
7
27
12
4
2
4
5
5
7
26
10
4
2
4
5
5
7
25
10
3
2
4
5
5
7
24
10
3
2
4
5
5
6
24
9
3
2
4
5
5
6
24
9
3
2
4
5
5
6
23
9
3
2
4
5
5
6
23
9
3
2
3
5
5
6
21
9
3
2
3
5
4
6
20
9
3
2
3
5
4
6
19
9
3
2
2
5
4
6
18
9
3
2
2
4
4
6
16
9
3
2
2
4
3
5
16
9
3
2
2
4
3
5
16
9
3
2
2
4
3
5
16
9
3
2
2
2
3
5
15
9
3
2
2
2
3
5
14
9
3
2
2
2
2
3
13
8
3
2
2
2
2
3
12
8
3
2
2
1
2
3
12
8
3
2
2
1
2
2
9
9
4
2
2
1
2
2
10
9
4
2
2
1
2
2
10
9
4
2
2
1
2
2
9
9
4
2
2
1
2
2
10
9
4
2
1
1
2
2
10
8
4
2
1
1
2
2
9
8
4
2
1
1
2
2
8
8
4
2
2
1
1
2
8
8
4
2
2
1
1
2
8
8
4
2
1
1
1
2
8
8
4
2
1
1
1
2
8
8
3
2
1
1
1
2
8
8
3
2
1
1
1
2
8
8
3
2
1
1
1
2
8
8
3
2
1
1
1
2
8
8
3
2
1
1
1
2
8
8
3
2
1
1
1
2
8
8
3
2
1
1
1
2
8
8
3
2
1
1
1
2
8
7
3
2
1
1
1
2
8
7
3
2
1
1
1
2
8
7
3
2
1
1
1
2
8
7
3
2
1
1
1
2
9
7
3
2
1
1
1
2
9
7
3
2
1
1
1
2
9
7
3
2
1
1
1
2
10
7
3
2
1
1
1
2
9
7
3
2
1
1
1
2
9
7
3
2
1
1
1
2
9
7
3
2
1
1
1
2
9
6
3
2
1
1
1
2
9
6
3
2
1
1
1
2
9
6
3
2
1
1
1
2
9
6
3
2
1
1
1
2
9
6
3
1
1
1
1
2
9
6
3
1
1
1
1
2
10
6
3
1
1
1
1
2
10
6
3
1
1
1
1
2
9
6
3
2
1
1
1
2
9
6
3
2
1
1
1
2
9
6
3
1
1
1
1
2
9
6
3
1
1
1
1
2
9
6
3
1
1
1
1
2
10
6
3
1
1
1
1
2
10
6
3
2
1
1
1
2
10
6
3
2
1
1
1
2
10
6
3
2
1
1
1
2
10
6
3
2
1
1
1
2
10
6
3
2
1
1
1
2
10
6
3
2
1
1
1
2
10
5
3
2
1
1
1
1
10
5
3
1
1
1
1
1
10
5
2
1
1
1
1
2
10
5
2
1
1
1
1
2
11
4
2
1
1
1
1
2
11
4
2
1
1
1
1
2
11
4
2
1
1
1
1
2
11
4
2
1
1
1
1
2
11
4
2
1
1
1
1
2
11
4
2
1
1
1
1
2
11
4
2
1
1
1
1
2
11
4
2
1
1
1
1
2
11
4
2
1
1
1
1
2
11
4
2
1
1
1
1
2
11
4
2
1
1
1
1
2
11
4
2
1
1
1
1
2
11
4
2
1
1
1
1
2
11
4
2
2
1
1
1
2
11
4
2
2
1
1
1
2
11
4
2
2
1
1
1
2
12
4
2
2
1
1
1
2
13
4
2
2
1
1
1
2
13
4
2
2
1
1
1
2
13
4
2
2
1
1
1
2
13
4
2
2
1
1
1
2
13
4
2
2
1
1
1
2
13
4
2
2
1
1
1
2
13
4
2
2
1
1
1
2
13
4
2
2
1
1
1
2
13
4
2
2
1
1
1
2
13
4
2
2
1
1
1
2
13
4
2
2
1
1
1
2
13
4
2
2
1
1
1
2
13
4
2
2
1
1
1
2
13
4
2
2
1
1
1
2
13
4
2
2
1
1
1
2
13
4
2
2
1
1
1
2
13
4
2
2
1
1
1
2
13
4
2
2
1
1
1
2
13
4
2
2
1
1
1
2
13
4
2
2
1
1
1
2
13
4
2
2
1
1
1
2
13
4
2
2
1
1
1
2
13
4
2
2
1
1
1
2
12
4
2
2
1
1
1
2
12
4
2
2
1
1
1
2
12
4
2
2
1
1
1
2
12
4
2
2
1
1
1
2
12
4
2
2
1
1
1
2
12
4
2
2
1
1
1
2
12
4
2
2
1
1
1
2
12
3
2
2
1
1
1
2
12
4
2
2
1
1
1
2
12
4
2
2
1
1
1
2
11
3
2
2
1
1
1
2
12
3
2
2
1
1
1
2
12
3
2
2
1
1
1
2
12
3
2
2
1
1
1
2
12
3
2
2
1
1
1
2
12
3
2
2
1
1
1
2
12
3
2
2
1
1
1
2
12
3
2
2
1
1
1
2
12
3
2
2
1
1
1
2
12
3
2
2
1
1
1
2
12
3
2
2
1
1
1
2
12
3
2
2
1
1
1
2
12
3
2
2
1
1
1
2
12
3
2
1
1
1
1
2
12
3
2
1
1
1
1
2
12
4
2
1
1
1
1
2
11
3
2
1
1
1
1
2
10
3
2
1
1
1
1
2
10
3
2
1
1
1
1
2
10
3
2
1
1
1
1
2
10
3
2
1
1
1
1
2
10
3
2
1
1
1
1
2
10
3
2
1
1
1
1
2
10
3
2
1
1
1
1
2
10
3
2
1
1
1
1
2
10
3
2
1
1
1
1
2
10
3
2
1
1
1
1
2
10
3
2
1
1
1
1
2
10
3
2
1
1
1
1
2
10
4
2
1
1
1
1
2
10
4
2
1
1
1
1
2
10
4
2
1
1
1
1
1
10
4
2
1
1
1
1
1
10
4
2
1
1
1
1
1
10
4
2
1
1
1
1
1
10
4
2
1
1
1
1
1
10
4
2
1
1
1
1
1
10
4
2
1
1
1
1
1
10
4
2
1
1
1
1
1
10
4
2
1
1
1
1
1
11
4
2
1
1
1
1
1
12
4
2
1
1
1
1
1
11
4
2
1
1
1
1
1
11
4
2
1
1
1
1
2
11
4
2
1
1
1
1
1
11
4
2
1
1
1
1
2
11
4
2
1
1
1
1
2
11
4
2
1
1
1
1
2
11
4
2
1
1
1
1
2
11
4
2
1
1
1
1
2
11
4
2
1
1
1
1
2
11
4
2
1
1
1
1
1
11
4
2
1
1
1
1
1
11
4
2
1
1
1
1
1
11
4
2
1
1
1
1
1
11
4
2
1
1
1
1
1
11
4
2
1
1
1
1
1
11
4
2
1
1
1
1
1
11
4
2
1
1
1
1
1
10
4
2
1
1
1
1
1
11
4
2
1
1
1
1
1
10
4
2
1
1
1
1
1
11
4
2
1
1
1
1
1
10
4
2
1
1
1
1
1
10
4
2
1
1
1
1
1
10
4
2
1
1
1
1
1
10
4
2
1
1
1
1
1
10
4
2
1
1
1
1
1
10
4
2
1
1
1
1
1
10
4
2
1
1
1
1
1
10
4
2
1
1
1