0
-3
3
-2
1
6
2
-2
0
-5
3
-8
-3
-1
0
0
1
4
8
9
3
0
-3
-2
-1
-7
-23
-4
-1
0
2
-1
-1
1
-6
4
-1
-5
-3
-2
0
2
-1
-11
-2
-3
-2
0
-2
-2
-2
1
0
3
-3
-3
-1
3
8
0
-4
-5
-1
0
0
0
-1
2
1
0
3
0
-1
-4
-5
0
0
1
4
-3
-3
-3
-8
-7
-4
-2
-3
0
0
-2
0
0
2
4
1
0
-2
-1
-12
-9
-6
-3
0
0
-1
1
8
0
0
-3
-4
-2
1
-2
1
1
2
3
-2
0
-2
-4
-12
-1
1
0
1
-1
0
-1
-13
-3
-2
-2
-3
0
0
0
4
2
0
-1
-2
1
-2
-4
-4
-3
-4
-2
3
-1
-1
-3
3
-2
-2
-4
-2
-3
-2
0
-17
-8
-3
-1
-1
-2
0
0
12
3
1
2
1
1
1
1
2
6
4
2
-4
-1
0
-2
11
4
-1
-1
2
0
-4
2
-2
-13
-3
-2
0
-2
-2
-5
-10
3
0
-2
-1
-2
-2
-1
-11
-7
-3
-2
-3
-1
0
3
18
3
2
1
1
2
-2
-4
9
5
-2
-5
1
0
1
-2
-3
-4
-4
0
0
-2
0
-1
-1
0
-1
-1
0
1
2
1
-10
-4
-1
1
-3
-1
0
1
30
15
3
2
2
0
-1
-1
-21
-2
3
2
-1
0
-1
2
-6
-7
-4
-5
-2
-1
0
1
8
-3
-4
-1
-2
0
-2
-3
-18
-5
-3
-2
-2
0
0
0
13
-2
-2
-2
2
0
1
-6
-6
2
0
0
2
-1
-1
-4
-19
-6
-3
-3
0
-2
0
1
4
0
0
0
1
-3
1
1
3
-1
0
1
0
1
-3
2
13
3
0
1
-2
-1
-2
-3
8
3
0
-2
-1
-2
-2
-3
-32
-7
-1
-1
-3
-1
-1
-1
9
-6
-1
-3
-2
0
0
-4
-10
3
0
1
-4
-1
0
1
12
1
-2
-4
10
-1
3
-2
-3
4
0
3
-5
-1
-3
-1
-7
-7
-4
-2
-1
-1
-2
1
13
9
4
1
-2
0
0
-1
-4
-9
1
0
-1
2
0
-4
-9
-2
-3
-4
-2
-2
-2
-3
-9
4
-3
-1
1
-2
0
1
42
13
2
-1
-2
1
-1
-5
-75
-22
-4
-2
-5
-5
0
2
36
10
-1
0
-2
-1
-1
-6
3
3
1
-1
-7
-2
-3
1
-20
-4
-2
0
6
-1
0
-1
13
-4
0
-2
-5
-1
1
-1
-1
-5
1
-1
3
0
-3
0
-1
-5
0
-3
0
-2
-2
-1
-1
-5
-7
-2
1
-2
-2
2
19
11
4
6
-3
0
-1
-3
-30
-7
-2
-3
3
1
0
4
28
-1
0
1
-5
-3
0
-3
-15
-6
-2
-2
-1
0
-1
2
9
8
2
2
2
-1
-1
-2
6
1
1
1
0
0
2
3
-8
0
-1
0
3
0
0
-3
-11
-6
-4
-4
-2
-2
-2
-6
0
-2
-4
-2
-3
-1
-2
-1
-1
-2
-2
-3
-4
-1
0
-2
-4
-2
0
1
3
0
-1
1
-10
0
0
0
-1
-1
-1
1
8
8
3
-1
-4
0
-1
-1
22
2
1
0
0
0
-3
-2
-34
-13
-3
2
-3
-1
2
-1
12
5
0
-2
-4
0
-3
-3
-1
4
-2
-3
-1
-2
-1
1
-2
0
-1
-3
0
0
0
-1
6
-8
-5
-2
-3
0
1
-1
-4
4
0
0
1
-1
-1
-1
-2
-9
-1
0
0
-1
-1
3
-6
0
0
0
-2
-3
0
0
20
9
2
0
2
1
-1
0
-39
-20
-5
-3
-1
-2
-2
0
18
10
-2
-2
-3
-1
0
-3
-21
-9
0
-1
0
1
1
1
-1
1
-1
-4
-1
-1
0
1
27
6
2
3
-4
-2
2
0
-11
-10
-3
0
3
0
-3
0
0
-3
-6
-2
0
0
-1
-2
-2
8
3
2
1
-2
-2
-2
5
2
1
-2
-1
-1
0
-1
4
-1
0
-2
-3
0
0
0
-10
2
1
1
-2
0
-1
-4
-2
-1
-3
-4
-1
-1
0
-1
-6
0
-1
2
-1
-1
-3
0
2
0
-3
-4
4
-1
-3
-3
-14
1
1
2
-8
-3
0
1
0
-2
-2
-2
-1
-1
-2
-4
1
-3
-3
-1
1
-2
2
0
-4
-2
2
2
0
-1
-1
-1
12
1
0
1
2
-1
-1
-4
-2
-2
-2
-3
-1
-2
1
0
0
2
-2
-2
1
-1
0
3
-1
-5
-3
-3
-3
0
0
-2
-6
3
0
0
2
-1
-4
-3
-9
-1
-2
2
2
-1
-1
0
10
0
-1
-2
-2
0
-1
-1
5
0
-1
1
-3
-1
1
-3
3
0
1
-1
1
-1
0
-1
-11
-8
-4
-2
-4
-1
-2
-3
-4
3
-1
-2
-1
-1
1
0
12
7
2
0
1
-1
-3
0
2
-10
-4
1
-1
-1
-1
-1
11
5
0
-3
1
-2
2
-2
-11
-4
-1
-3
0
-2
-4
-2
22
-4
-1
0
-4
0
1
2
12
8
2
1
1
0
-2
-3
-11
-14
-5
-3
-2
0
0
-3
-15
3
-1
-3
-4
-1
-1
0
-4
-1
0
0
0
1
-2
-1
2
2
3
2
-1
0
-1
0
12
2
2
-1
1
-2
0
2
6
-3
-3
-3
-5
-1
0
-3
-6
-5
-3
-4
-1
-2
-1
-2
-8
1
-3
-2
-3
-1
2
2
2
11
7
5
2
1
-3
0
-7
-9
-1
0
2
0
-2
0
-7
-3
-2
-2
-1
-1
-1
0
3
4
-3
-5
-1
-2
1
-2
14
5
0
-1
-1
-1
-2
-4
-15
-1
-2
0
2
-3
-2
-1
-21
-4
-2
-3
-2
1
-1
-2
0
2
1
1
1
-1
-1
1
-3
-3
-4
-2
1
0
0
-1
6
3
2
1
-2
-1
0
0
0
-6
-5
-3
1
-1
-1
-3
-7
-3
0
-1
0
-1
-1
2
10
10
2
1
-2
0
-2
2
-4
-7
-4
0
0
-1
-3
-2
-5
-2
-4
0
-2
-1
-1
-6
-12
-6
3
-1
0
-2
-1
-1
-1
-4
-3
-1
-3
-1
2
0
15
-1
2
-1
0
-1
-1
1
-12
1
-1
0
-1
2
-2
-3
6
-1
-6
-3
-3
-1
-1
-2
0
3
1
-1
-1
0
-2
0
12
-6
-4
-2
-2
0
-1
-3
-7
-9
-3
-2
-2
-2
2
0
2
8
2
1
4
-2
-4
1
-5
-7
-4
-3
-3
1
2
-2
-17
-2
-1
-1
0
1
-1
1
-3
8
5
2
-2
0
-7
0
9
-3
-6
-5
-2
-2
1
-3
-13
-7
-1
-3
-1
0
4
1
12
6
3
5
2
0
-6
-4
-6
-3
-4
-2
-1
0
12
0
-10
-5
0
-1
-1
-3
-9
1
8
-5
-2
2
-2
0
-3
-3
-8
11
5
1
0
-1
1
3
1
8
3
1
2
2
11
-2
4
-5
-5
-4
-1
-3
-15
0
-2
-1
-1
2
-3
-1
23
0
-10
9
5
1
1
3
-8
1
12
4
0
0
-2
3
-2
4
-6
-14
-4
-3
0
3
20
-2
-6
12
5
3
4
3
-41
-5
11
5
-2
-2
-2
-7
-2
1
-7
1
-1
1
0
-8
-64
-22
-7
-11
5
-1
2
-6
39
10
7
17
-6
-3
-4
5
50
14
4
-14
1
1
3
7
-58
-4
-3
-10
-3
-6
-9
-6
85
4
1
-10
-6
1
-4
9
-37
-28
-27
-46
-12
0
-5
-23
-49
-1
13
49
11
2
-1
-4
113
12
0
3
12
13
38
24
-105
16
14
-6
-33
-12
-35
-33
-16
-33
-12
-5
0
-18
-6
-22
28
-23
21
-11
-9
-20
-12
-3
18
42
-1
-21
3
0
-6
-2
72
-18
-27
12
-32
2
26
25
55
-5
-5
24
41
12
-4
31
-128
-32
-21
0
-26
-1
3
-24
96
53
31
-13
5
6
-8
51
-79
-19
-7
3
-14
-23
15
-23
-96
21
72
4
19
12
-36
-45
101
-10
-96
-57
44
24
41
24
33
-21
33
-41
-26
-30
-8
42
-13
-26
39
-71
-9
-16
-37
-80
11
69
8
-35
20
19
-5
11
-43
-47
-30
-16
-32
1
-27
-24
-40
30
18
13
-9
3
6
3
7
-11
-19
111
57
7
24
51
-22
11
13
22
-62
-31
2
-12
-54
33
7
18
49
18
-6
-12
-67
-60
-49
14
-14
-37
-22
-17
78
-24
-2
-73
0
2
-37
-10
5
15
-4
5
-21
-1
16
12
-57
-6
57
9
19
-8
-13
-6
35
17
-70
8
-1
20
20
-11
-71
-8
70
6
-8
29
19
-3
-48
3
-40
10
-3
-10
4
-4
127
2
14
33
-9
-15
6
40
-93
-9
52
-16
0
-20
-48
-50
122
21
-65
-21
7
24
20
54
42
50
-5
-7
-20
-8
-2
-23
112
-42
13
60
-5
-2
4
34
-112
-74
20
7
5
-27
-13
-35
-56
25
-12
34
-5
16
4
-24
101
-18
24
-35
23
-7
-12
21
62
31
-24
22
18
0
11
19
-45
-35
9
-8
-3
11
5
-37
26
58
5
20
16
2
39
37
-83
-20
16
-53
-12
-4
-31
-7
-74
25
-35
-71
-36
2
1
-45
30
-46
24
25
18
-6
-24
13
71
59
-3
50
5
-9
8
-11
41
-21
-78
43
25
11
12
14
56
52
30
-8
-14
-9
-16
0
5
28
-24
-33
-1
3
20
19
-88
-83
-5
22
-8
-15
-14
-37
91
-6
5
-15
-5
6
13
14
-90
0
-60
36
4
0
-25
-24
100
28
10
35
12
6
15
28
66
4
1
-21
-8
4
17
16
-43
-26
3
12
8
2
3
15
84
53
-18
-28
-20
-6
-16
6
-91
-28
3
-38
5
16
5
-35
-30
-13
-8
26
16
-8
-8
-9
66
-13
-7
9
-10
15
18
23
-41
-26
-10
-11
-3
-13
4
0
17
81
-16
11
-12
11
0
30
-128
-41
26
-20
13
13
0
-27
2
-17
-20
40
15
5
23
-2
58
82
29
-1
-6
5
2
5
-33
-77
-16
47
5
7
5
-4
50
13
-17
-43
-32
-30
-28
15
-38
20
-25
21
12
20
16
3
-65
-19
7
0
10
5
5
6
-56
27
48
5
-5
4
-7
-26
-29
-60
-18
21
1
-2
0
3
77
50
13
-21
-3
-16
-3
5
-22
-36
20
4
-1
3
8
-1
127
67
-23
10
-1
-8
9
30
-6
-71
15
-30
-9
-6
-32
-10
-6
14
1
-41
1
-2
-9
-34
66
-18
8
-52
-21
-4
1
-6
-6
3
-18
4
10
0
25
2
-15
61
-2
24
-2
1
-19
18
85
-12
18
12
-9
-10
4
18
-90
-53
28
9
16
3
7
-19
16
2
-69
-37
-7
1
-9
3
-19
16
12
-5
2
2
5
-2
-115
-51
-2
-12
3
2
8
-15
118
26
19
13
-2
2
6
19
-54
-26
-23
-12
-7
-3
-7
-14
104
9
-12
-11
-17
-7
15
13
-47
31
5
32
17
7
-36
-36
-16
13
66
28
4
5
27
23
-39
-14
-15
-5
1
-3
-1
-7
127
14
-34
-17
-10
-12
-13
2
85
-21
34
-13
-18
4
-7
5
-24
-24
-34
-21
-4
-1
-3
2
-25
10
51
27
23
4
3
-29
-60
32
-44
24
19
4
8
5
1
1
6
10
-16
-26
-18
13
-76
-2
0
11
7
13
-14
-16
103
-10
22
-17
-12
3
11
20
-27
8
2
5
5
-5
-3
-4
13
9
4
5
-7
-3
28
-8
-70
-2
10
-34
0
4
-19
16
8
-8
-13
-20
-19
-4
-5
-10
2
23
9
12
10
7
-6
2
41
-15
-25
1
-13
-11
8
-2
52
10
17
-2
-7
-10
1
1
36
-18
21
-12
-4
5
-10
-3
-100
-4
-11
15
11
5
-6
-17
-9
-7
-1
27
-7
3
7
-4
23
-31
1
-77
-18
-10
-5
2
-31
-18
26
41
14
-11
-14
-7
8
16
24
5
-11
6
16
12
-1
2
-40
-15
0
-1
-24
-2
-19
6
12
28
-14
-9
3
-11
-12
11
-9
6
1
-2
7
11
21
3
14
-26
-1
-1
-9
-18
-79
4
28
24
0
1
7
1
63
10
-4
32
5
3
5
10
28
-10
2
-18
-5
3
-16
-6
-1
17
-8
-2
3
2
8
11
-59
-9
3
-26
-7
-11
-10
-1
30
-11
-18
-16
-9
2
-3
-29
20
14
-23
42
-1
2
19
21
-9
-7
37
14
10
8
-7
12
-107
-16
-3
-8
3
-5
-3
-14
85
-1
-6
-11
-6
-12
-4
14
-75
4
-7
-1
-2
5
12
-10
66
-3
-2
-45
-1
-1
-5
-7
34
-15
-1
17
4
0
2
2
-72
0
-15
4
-2
-4
-8
7
1
1
11
15
-5
1
0
-24
34
6
-7
-13
-17
-10
1
-2
24
-2
-4
27
19
11
7
9
-68
5
9
-5
-5
-4
-9
-13
111
-3
-9
-34
-5
-6
-2
32
-36
11
1
3
1
6
21
-12
-62
-46
-13
-7
-12
-10
-11
-16
-5
-11
-32
8
4
8
11
-2
-10
20
12
-12
-3
0
-24
-5
-23
-31
-10
-9
13
13
15
14
-35
20
32
13
9
0
10
10
49
0
-10
10
3
0
-37
-18
-24
-12
-5
25
-3
-4
1
-21
11
9
-3
31
3
-6
-8
0
38
-9
-2
-41
-7
1
18
20
-52
11
16
16
10
2
9
-1
42
4
-19
-9
-9
0
0
28
-38
-17
-12
11
-9
-16
-25
-35
36
-10
10
-1
2
20
15
9
25
17
19
-20
-14
-18
-2
-9
0
-9
-32
12
14
10
8
3
11
-2
-34
-8
-5
-7
-5
9
-10
12
-23
-14
-4
-6
-5
-10
-11
-6
19
-10
-10
-8
-7
-5
-30
-10
0
-4
6
6
14
5
-31
-2
22
3
-1
-5
0
-8
-19
3
-1
-2
-3
-2
11
9
19
22
12
12
5
-8
-15
-14
-6
-5
-23
-12
-5
-8
-16
-4
-54
10
-1
4
6
9
11
1
68
-26
-1
13
-2
-6
-10
-1
-6
-8
-3
5
4
13
25
3
-35
13
9
-3
1
5
-6
-2
10
-8
-13
-22
-5
-4
-15
7
-59
7
11
-21
-4
-4
-13
-10
-37
-7
-42
-17
-6
-6
4
1
-22
-7
28
15
3
-6
-4
-21
26
0
-12
14
2
3
20
15
30
-4
20
3
-6
-14
-26
2
30
-5
-38
-23
9
9
-2
-3
42
10
11
2
-7
-2
6
3
8
-5
1
-28
-2
-11
-9
-17
99
-8
-4
10
5
8
4
11
-36
19
29
1
-2
-3
4
-2
-40
-17
-27
-4
-5
0
-6
-7
-6
-2
1
7
-3
-3
3
0
-20
15
1
-14
1
-3
-26
-12
48
-6
-16
-1
0
-2
10
18
-39
-7
3
-24
-5
-5
-1
0
70
7
-4
13
1
3
-4
8
-87
-1
14
-19
-2
7
18
-7
-75
8
16
66
12
8
5
10
-15
11
2
-6
-2
2
-4
-10
-15
-6
-26
-5
6
1
4
13
54
5
-2
-12
-8
-1
12
6
-46
-5
-4
17
15
3
-8
-5
48
-9
6
21
4
2
14
14
23
2
20
4
-4
-2
-13
4
-26
49
-3
-9
-5
4
19
-9
58
-50
-26
-4
-3
2
7
1
34
11
13
5
-2
-8
-15
-2
2
-4
32
7
10
2
1
-5
20
8
-12
-3
-5
-5
-6
1
-8
-17
-20
-11
0
-2
-5
1
38
7
-1
12
0
5
-9
0
-52
-13
26
-27
-15
-9
14
0
-11
7
-17
43
19
10
-5
3
15
-1
18
-7
-3
-4
0
-13
-56
-11
-70
-11
-7
-11
4
14
77
9
6
4
-13
0
-4
-9
-79
-36
-11
15
11
-5
-12
-13
33
-9
8
-11
-1
0
9
11
-47
5
35
-4
-5
-8
4
-3
-33
15
18
-37
-4
8
-6
-5
-14
5
-21
23
0
-1
7
5
14
-10
4
2
-9
-1
-19
-6
-24
2
21
-28
-1
-14
1
-15
36
8
-36
13
5
12
-5
8
-19
-21
-4
-20
-5
-3
-24
-8
-87
8
32
-14
-10
4
18
4
43
-23
-5
-1
-6
-5
3
0
5
16
-13
-3
-1
-8
-6
-10
85
7
-6
45
22
11
6
23
4
10
-28
-16
-5
-13
-2
6
-6
-2
1
6
0
2
-12
-23
74
-25
-29
16
1
-3
14
16
-59
-20
17
-55
-21
-7
0
2
-28
19
-8
30
22
5
-2
-18
38
-14
3
31
18
0
-9
-1
-68
6
27
-15
-3
0
14
-2
73
-1
-61
20
-5
-5
-11
-10
41
10
3
-11
-3
-4
-8
-10
22
15
-14
2
0
4
1
20
8
-30
0
13
9
7
34
-7
66
9
3
-25
-5
-2
-23
-9
-38
5
16
-21
-13
-3
-1
1
25
-1
-26
17
9
10
8
-2
-21
16
2
3
-7
-4
-7
3
49
-11
-8
-67
-24
-13
7
26
-5
6
10
64
14
5
-14
-27
-111
4
19
-21
-1
4
15
-5
66
11
-19
-7
6
0
-28
2
-25
-46
16
0
-5
-7
7
-8
-28
-4
12
-18
-10
-10
-1
0
-7
0
-18
-2
-4
9
9
-2
-41
8
10
14
-1
-1
-7
-10
28
17
18
9
1
4
7
8
38
1
-1
-11
-7
-2
3
9
-20
13
17
17
7
4
8
8
-34
-18
-1
13
2
-3
-9
-5
-66
17
-25
2
-3
-6
-3
-17
24
0
-19
-2
-5
-1
16
27
19
4
12
-31
-9
-3
-19
-9
-6
-4
22
17
8
10
2
1
-62
4
16
11
0
-5
5
-11
29
-2
-1
-10
2
4
-4
6
9
-14
-16
-4
-3
-5
0
1
11
-10
8
-19
-7
-17
9
22
-42
0
30
-4
1
19
-5
-40
26
-6
-50
-23
2
2
3
-3
0
-7
22
-6
-12
-8
-8
-2
-31
-9
-15
9
-3
-6
-13
0
-12
2
3
-13
0
1
19
16
27
18
28
28
5
-3
-22
-3
60
4
4
1
3
7
12
4
-39
-26
-7
-5
-6
-10
-11
-20
9
13
2
-17
-3
-7
-1
2
-14
-11
-6
-15
-3
-4
1
-4
35
2
-11
6
2
13
0
7
16
11
5
-3
0
2
-6
-1
21
-6
-13
12
0
-2
3
5
-11
-7
18
-1
-5
-13
-8
1
-15
5
-7
-2
0
11
6
-4
1
4
-4
-5
0
3
-1
-5
-5
-1
2
8
0
-7
1
1
3
-4
-10
-1
-5
-5
-3
2
-16
-1
19
-6
-8
-12
-5
-8
4
-4
-2
5
6
12
5
-2
31
8
0
14
9
-2
-4
10
-2
-5
-8
-16
-3
3
7
-1
-4
-9
-10
-1
-8
-19
-10
-6
6
4
-28
-9
-7
9
7
0
3
11
23
11
0
-6
-5
3
-5
0
15
3
6
-26
-34
2
-10
-3
25
12
11
25
35
-13
3
-2
-66
-16
-10
-4
-16
2
12
-6
7
-2
-4
10
4
3
-11
-1
20
0
5
23
19
-4
-3
15
30
20
0
-42
-29
-6
3
-7
-45
-14
3
35
17
-3
-9
-10
-4
-2
-7
10
10
4
3
9
1
-4
-3
-9
-13
1
3
2
41
22
6
-5
-10
-9
-2
3
9
-1
5
0
23
1
-8
-1
-36
-5
-5
-30
-31
-5
11
-4
-18
17
1
5
32
12
-15
-8
-30
-37
-4
27
-7
-8
6
4
47
6
-2
-11
-7
-2
0
-2
-12
-3
1
-3
0
-1
3
3
12
10
8
-12
-10
-8
-4
-10
-55
0
-9
11
7
3
-5
-15
-71
-37
-12
-7
-7
2
3
2
32
33
3
-10
-2
1
-5
5
-3
-12
-5
8
-8
-2
4
5
28
4
4
-5
4
7
-2
-15
7
-2
-4
-23
-4
3
-1
6
10
13
4
20
12
-5
2
20
58
20
5
-8
0
-4
-2
-28
-108
-52
-14
20
-7
-4
2
5
59
22
0
-25
-8
0
13
-9
41
-32
-2
3
1
14
-7
7
-7
36
6
6
3
-15
1
-1
33
-5
5
-19
1
-3
3
-9
47
-25
-10
5
7
-5
-9
-14
-74
8
-6
-2
-21
-2
1
1
28
25
-4
12
15
4
3
13
45
0
-5
-21
-1
0
5
15
16
-2
8
1
-11
-7
-2
-18
-41
-40
-2
3
-2
2
-8
2
23
14
-8
-6
-1
-2
8
8
113
62
8
-6
-22
3
6
14
-46
-3
4
16
19
4
-9
-30
-74
-60
-11
-3
4
-9
1
10
63
-1
-7
-2
-8
10
-14
-12
-57
-37
-21
-12
-7
-3
1
10
72
46
5
-9
-3
-10
2
21
20
6
5
-18
-24
-14
-6
-16
-18
3
5
27
21
1
1
2
-19
-2
-2
2
4
4
1
-3
-2
13
-1
-12
-8
3
-1
11
-12
6
3
5
10
-1
8
-18
-20
-24
-3
-6
-8
-5
3
6
-12
8
3
1
12
5
-3
1
-35
-21
-4
-3
-15
-3
-2
-15
-8
24
3
11
4
1
-9
-10
-47
-43
-13
-6
-10
0
0
-3
-17
16
7
11
16
0
0
5
4
5
5
0
0
1
6
13
16
3
0
1
12
2
-3
-7
-13
-2
-2
-11
-11
-6
2
2
-19
-22
1
-2
-5
-2
-2
-4
-4
-1
-9
-8
-7
-2
-2
-4
27
20
2
7
8
4
1
-2
-23
-15
-2
1
6
-2
4
2
14
11
4
3
-5
-2
-5
0
-16
-4
3
5
-5
0
1
8
37
5
-2
-7
4
0
-1
-4
-14
-4
3
5
5
0
2
12
37
5
-2
-6
-5
1
-7
-33
-66
-22
-11
-8
-11
-2
-1
9
22
16
1
9
9
-3
3
8
11
-11
2
0
1
1
-7
-23
-52
-3
3
4
2
-3
4
-2
-15
-14
-7
-10
-4
-1
1
12
11
11
1
-8
4
2
-4
-12
-20
-8
-3
10
3
-3
1
5
24
6
2
-2
1
1
1
7
-5
5
2
8
7
3
-9
-19
-9
-15
-8
-10
-14
-4
1
1
-24
-2
5
-4
3
1
4
-1
-2
5
0
-2
0
4
-3
10
52
8
4
11
2
-6
2
10
5
3
-1
2
2
-3
-6
-11
-34
-13
-1
-2
-5
-1
-2
-6
-1
-1
-4
0
4
0
0
2
35
17
3
-4
-2
1
-1
3
-24
-24
-11
-17
-21
-2
-2
0
7
8
-1
27
29
2
3
14
32
3
5
0
-12
-2
-4
-18
-21
-13
-3
-3
0
-1
-4
2
30
20
0
-4
-8
-2
-2
-7
2
1
-1
-7
-4
1
1
8
14
1
0
-1
2
-1
-2
-1
-40
-2
-2
3
1
0
0
-1
-2
-19
-2
1
2
-1
-4
-3
-14
-4
-9
-13
-14
-2
-2
-4
-16
4
1
0
1
1
3
14
38
14
5
5
5
0
1
-10
-3
0
2
3
4
-1
1
9
6
-7
-6
-6
-5
5
-9
-6
-28
-1
3
4
0
-5
8
0
10
5
2
-4
3
-2
0
6
26
3
-1
-2
-8
-1
2
-4
-3
-4
-3
6
8
0
-1
-4
26
1
2
2
0
0
-3
8
-25
-6
0
-4
1
-2
0
5
20
10
0
2
-1
2
-4
-4
-24
-12
-7
-13
-12
-4
-1
-8
-10
-6
-7
-2
-1
-2
1
-1
20
6
0
3
1
-1
0
-5
7
-2
3
4
7
0
0
5
6
1
3
0
-1
-2
0
-7
-9
6
-5
-3
-2
-1
-3
3
-5
7
-1
-1
-3
-1
-3
-11
-6
-16
-4
-1
-1
0
-1
1
5
-9
-7
-4
-3
-4
2
-6
-16
-16
-8
-3
-1
-4
2
0
18
22
13
4
-1
1
3
5
-12
11
7
3
6
1
-5
-3
-6
5
5
1
-3
0
-10
-3
-6
-21
-8
-5
-3
-4
-19
-5
7
-5
-5
-1
-3
-3
0
2
-5
-4
0
2
1
0
6
-1
-2
-6
-4
-4
-2
0
12
6
-5
-9
-8
-4
2
6
11
1
10
14
12
2
-4
-1
-13
1
-6
5
3
2
0
-4
-11
-7
4
-1
4
-3
-3
-1
-36
-4
-4
-1
-9
-3
-3
-1
-1
1
-3
-18
-2
2
1
-4
3
-3
-10
-1
-8
-7
-4
-1
-2
-2
5
4
1
-2
-2
-3
4
4
-12
7
6
5
3
5
16
0
10
-19
-9
-2
1
5
-5
4
2
6
0
-1
-2
-2
2
2
-3
1
0
-2
-1
0
34
4
7
0
0
0
0
5
-23
-10
-18
19
9
5
-1
3
13
-8
-2
-10
-4
-5
-5
-6
27
10
3
-4
-4
-5
-3
-6
-7
-5
-9
-11
-2
2
4
3
-43
-12
19
10
4
-2
-10
-5
15
-4
-25
-11
-8
-4
-3
-2
-2
-5
6
0
4
-1
-8
-2
-6
1
7
11
0
-2
-2
-22
39
3
4
-16
-11
-4
2
11
4
1
4
-3
5
9
8
-4
-70
-7
-18
-8
-12
3
20
13
89
8
-24
37
23
7
-24
19
15
16
4
5
-3
-1
-2
-2
-35
-15
16
-16
-2
-3
7
3
62
-10
-13
-24
-5
-15
-24
-17
-97
-10
14
15
16
7
13
-20
93
1
-44
-2
-10
-1
3
15
33
2
27
-4
4
3
-3
-10
40
-14
1
-15
-20
-16
-4
21
-13
25
-14
3
8
7
2
-17
-81
-28
-41
-2
21
6
-1
-12
-8
17
27
-6
-5
-1
5
11
40
32
45
33
1
-7
12
1
18
-20
-37
-29
-23
-3
-23
23
-44
-8
-19
-39
-11
-17
-17
-21
-4
53
4
19
3
-17
8
-5
52
-40
0
-7
7
31
18
0
6
-31
25
-43
-21
0
11
9
76
19
23
-9
-6
-6
-7
-26
-82
-19
-38
44
9
11
-5
-7
-35
25
5
57
8
-15
-7
12
67
31
32
-33
-8
-1
12
16
24
-28
-4
33
7
-2
-8
24
-33
18
0
-40
-16
-9
-8
-11
82
-38
-8
27
9
29
12
15
-81
1
0
-11
-9
-8
-14
-37
-61
43
30
27
10
7
17
16
-24
6
5
31
4
0
10
11
-128
-33
-14
-18
-2
-4
-17
0
65
32
11
0
7
8
-2
-31
27
-27
-7
-31
-18
-18
27
44
-46
20
-25
12
3
34
11
6
99
-29
-14
-22
21
5
-2
29
-116
-45
39
32
15
0
-12
-94
72
41
-54
9
-5
0
9
9
112
-10
46
-88
-34
-6
1
13
14
26
-19
60
23
2
-10
-8
-41
-20
-58
-3
-25
-26
-7
31
46
33
30
92
33
30
4
18
-78
-89
-5
-63
-22
-17
-8
-32
-72
48
31
-22
8
-2
3
-33
7
22
-31
21
2
-12
-1
24
-91
-10
6
-11
-2
2
-13
-30
113
60
8
-20
-4
15
22
47
-46
-44
-13
56
22
8
-12
-2
-60
29
-19
9
-9
-10
9
6
36
-19
-22
-23
-19
-10
-14
-29
9
-24
25
9
1
-14
-28
-19
-70
0
-32
-19
-7
0
24
19
-40
-3
2
-56
-18
-1
7
16
-4
47
31
39
9
5
12
-11
83
-27
-46
-6
0
-14
-41
14
-103
3
-21
-32
-5
10
12
-26
24
-75
20
-27
-11
-16
-11
5
-60
-5
15
-12
-8
0
0
-8
-125
36
-14
16
11
-1
1
-4
10
15
5
10
-8
-9
-3
-11
127
37
23
3
15
19
29
52
-120
-68
28
-33
-2
-10
-23
-36
81
-14
-24
23
8
17
11
13
4
39
17
-23
-23
-33
-24
-9
47
-2
-3
-31
3
35
31
4
2
15
37
-26
2
7
-8
15
87
-82
-53
92
16
14
1
2
-4
32
37
-44
-27
-37
-1
5
-7
-9
13
11
-2
-7
-16
-39
-35
4
-33
-32
8
4
5
19
-128
17
11
-25
18
4
-4
-25
80
-24
13
-28
-14
3
1
9
-80
2
-41
-7
-14
-18
-9
15
47
-28
18
106
8
6
8
-19
18
-12
-5
13
-4
-11
-30
-8
115
35
27
-15
-1
-1
8
10
16
33
-9
10
19
26
13
7
58
-22
-39
-20
-7
-2
4
7
-59
47
34
0
-8
-15
-5
-23
-87
41
22
39
18
17
2
-15
57
-36
-11
24
-1
-11
-19
-7
-51
18
17
-35
-10
0
16
16
121
-32
-37
26
-4
2
64
75
-37
-5
45
-15
-3
-9
-81
-72
-88
11
8
-8
18
5
6
-8
-49
-26
-15
-18
-31
-3
-7
-31
48
11
-21
29
7
3
3
6
63
-21
11
-35
-33
-14
20
12
-12
29
-16
81
13
2
-12
3
-3
7
-6
-24
-5
-9
-9
15
68
15
-17
-5
-1
0
4
21
-32
-48
-39
39
6
8
19
6
44
40
30
-39
-2
-1
-16
2
106
-3
-22
-50
8
-11
10
0
-108
-38
-29
-2
1
-20
-20
-37
-26
21
-8
5
17
52
30
13
7
-49
13
-36
-13
-4
5
34
-17
5
6
23
-1
-1
-14
-3
-110
-4
36
-51
-5
-9
5
-42
47
3
-22
-20
-1
-12
1
-9
-8
7
0
2
-10
-13
-15
-17
-57
11
-15
-49
14
13
9
16
86
-42
15
57
0
-1
-32
-10
100
-14
-26
12
-2
-6
10
34
10
-25
14
15
3
-2
18
-6
-18
9
10
0
-15
-13
-11
-15
31
53
-1
-119
-6
11
6
21
-5
-68
-40
77
40
17
-7
-20
117
36
13
39
2
-4
-1
36
0
7
17
33
3
-4
10
-24
-121
5
-37
-48
-13
11
-14
-12
24
-24
21
0
15
8
21
3
-46
-5
-19
25
-3
-6
-5
-22
99
28
41
27
-2
4
7
3
-74
8
23
-15
-1
-8
14
12
-104
12
1
-15
-15
-11
-47
-17
-18
-26
6
-46
-9
3
19
7
17
21
16
54
21
-1
2
4
12
-12
7
19
-8
2
-1
0
-27
-13
13
-69
-6
0
1
3
6
32
-16
24
1
-10
-1
2
33
-82
4
-42
-31
-10
-38
-26
-21
39
9
39
14
9
22
25
-72
14
11
-12
-8
1
8
-11
4
-16
8
-40
-30
-14
-20
-27
117
26
-68
14
23
5
-3
41
-46
-22
30
34
5
-4
-6
-28
10
11
-26
-15
-25
-7
-3
-8
75
10
0
-8
8
2
-4
20
-57
-30
27
-22
-21
-4
2
2
17
45
12
18
16
13
33
6
6
-30
-29
-28
-19
-13
-31
6
6
2
-7
5
13
14
17
5
23
2
2
-12
-1
-1
-7
-7
-24
9
-18
-38
-8
-10
-7
8
27
-28
-3
76
20
0
-3
-11
20
-26
-17
3
-3
-1
0
13
7
36
6
-6
11
1
-1
-7
62
17
16
35
-3
-5
-20
-25
-51
-4
-37
-28
-14
-11
16
6
-16
-18
-2
-75
-30
-6
-27
-39
20
-41
-5
109
37
21
35
65
53
-1
-13
-6
-5
-12
-1
-7
-42
-27
-39
-29
-21
-15
-22
-18
96
18
23
41
13
13
0
15
-82
-3
-13
-80
-19
-6
1
-19
-13
-8
46
26
0
-11
-13
-3
79
18
-5
-34
8
8
21
2
-9
0
5
-10
-6
0
-24
-7
-11
-4
-2
13
20
-2
-1
3
-25
22
-3
51
14
6
-2
-6
45
18
20
-25
-16
-11
17
7
-60
-9
2
11
1
-11
-15
-2
23
35
3
-21
-7
3
16
6
-44
-23
-10
-24
-9
-2
-11
-14
3
-4
-13
-11
3
6
-1
-3
-44
-12
-13
52
37
1
0
-9
-76
56
28
44
-12
-5
-2
22
30
-63
-22
-29
-8
3
-4
0
-18
20
19
-25
-6
-3
-14
-8
-6
-11
-13
-3
9
1
0
-12
-9
-13
-3
-42
-29
-12
-4
-19
60
11
-8
35
10
2
3
11
47
48
9
18
-9
0
-1
17
-62
-14
23
6
4
7
6
-11
31
-32
-7
-29
-6
-9
0
-6
14
13
4
-42
-5
7
-31
-21
-63
20
33
74
15
19
43
42
2
-46
-18
-19
-6
-11
-1
-14
43
13
-20
73
20
-3
-16
-2
-75
-10
20
-28
-15
-7
9
4
44
0
-45
-54
14
2
-2
-40
60
18
-4
21
16
10
26
55
-66
-8
14
-7
-16
-2
-13
-24
66
39
17
-23
-7
-4
4
5
-39
-13
7
68
21
9
-5
-6
30
45
-15
-14
-4
4
6
15
-53
-65
-25
-3
-6
1
-5
-19
98
17
-1
-4
-4
-17
-10
4
9
-3
19
-8
-1
7
7
38
-21
18
-10
-24
5
-1
-17
-22
-4
-14
12
25
4
2
34
-8
62
1
-7
-41
-3
15
-7
16
38
9
-6
-11
-13
-19
-12
-6
-33
25
19
35
8
4
-1
-30
-1
-9
12
-37
-24
-10
3
43
5
-31
-24
11
19
14
36
11
-51
-7
-3
-2
-2
-16
-53
-25
-8
-20
5
20
2
-3
5
16
-19
3
52
-23
-20
-9
-12
-9
24
-20
-13
8
-13
-16
-30
-35
-7
30
6
87
34
16
28
19
-98
-29
-9
30
2
-4
-3
-16
-49
29
-13
-31
-5
-4
-21
-22
24
-26
2
6
-9
6
12
28
-43
-7
-33
-42
-19
-9
-1
17
36
-30
54
-30
-17
-12
-13
-58
45
21
-21
14
15
8
39
35
-91
24
3
2
10
8
-6
-25
-56
-44
9
20
-8
-7
-20
-8
-11
-3
-22
8
8
9
20
5
-66
14
-2
-52
-3
-2
-11
-30
73
26
4
34
3
-13
-23
10
0
-21
-14
-7
9
9
34
27
-3
-12
-3
13
-9
-2
-16
9
54
9
-23
19
-1
-2
-19
-21
-73
-30
-22
14
2
-7
4
-14
81
10
2
-95
13
18
28
-3
2
15
16
58
-20
-18
-12
26
15
-8
6
44
15
10
4
11
-78
17
-29
2
16
7
23
-6
10
-13
1
-21
-45
-27
-30
-16
69
16
3
-8
5
5
3
-8
-19
-39
-14
14
-4
1
-15
-3
87
4
11
25
-7
-9
-3
21
24
-35
13
27
0
-2
0
-18
6
-2
-5
-42
1
29
17
10
96
37
0
-18
3
-6
-10
-19
-63
-11
9
0
1
9
30
0
73
15
-11
13
-5
-22
3
-1
-24
-12
-7
-2
5
1
-19
-3
9
2
3
-6
0
4
3
15
-64
-3
-8
-19
-3
4
15
-7
3
21
6
18
8
3
-6
2
-37
-3
2
-26
-13
-12
5
-1
-15
-11
-7
-36
-3
0
-2
2
-2
-12
0
-3
-2
-6
-8
1
-32
15
-1
12
-8
-2
-3
-5
12
9
-5
14
6
-3
-2
7
-21
3
2
-3
-1
0
0
-5
25
3
2
-9
3
-2
-8
0
5
-6
7
-1
-2
2
-4
-4
-18
4
-2
-9
0
-6
6
-2
8
-2
-1
1
1
1
-1
2
8
-11
2
-7
-8
1
-5
2
-40
0
1
6
4
6
3
-4
6
0
-12
-19
-9
-11
-2
2
-19
2
8
1
-5
-9
-13
-4
8
-5
2
1
2
2
-2
1
-9
4
8
8
1
9
6
-1
6
1
-6
-5
0
1
5
1
4
-4
-10
-2
-7
-14
-13
0
-4
1
-1
2
5
6
-8
0
10
6
7
10
1
5
6
-4
-15
-7
-3
-11
-4
-2
6
-2
0
-2
-4
1
0
-1
10
5
-1
-4
-6
-9
-5
-6
-17
1
-11
-16
-40
-1
-10
-20
-21
-2
21
9
-5
5
9
17
10
19
-17
6
14
-12
-1
8
7
-19
3
-10
6
5
1
-1
1
-1
0
-8
-19
-11
-2
4
3
-2
-8
13
22
3
-3
-10
-8
-2
3
1
21
5
2
-12
-4
7
3
-13
-63
-15
-14
-3
-2
-2
3
-1
29
10
3
1
-8
5
-6
-15
-61
-16
-7
-28
-9
-12
0
18
55
19
12
37
11
-6
-6
-5
-8
-16
-7
-10
4
2
-8
11
18
-3
-1
10
6
-4
14
9
59
3
3
10
20
6
3
-11
-53
-9
0
-13
-8
-2
-12
-13
-58
-25
-12
-21
-18
4
13
10
35
36
5
23
17
3
-6
5
14
-2
5
0
-7
1
-2
1
73
6
-2
-12
-10
-5
11
24
35
28
20
13
23
-1
-12
-38
-63
-31
-23
-38
-32
-2
-7
-11
39
7
-4
28
2
2
10
13
-41
-6
4
-4
-2
-4
-10
-23
-4
-38
-10
-1
4
-5
0
21
29
52
11
1
-3
-6
4
16
75
30
17
3
19
-2
-11
-30
-99
-46
-24
-27
-6
-2
-6
4
-24
-20
-8
11
-3
17
11
-6
40
-16
4
-1
4
-4
-20
-34
-51
-29
-20
-5
-3
-8
8
26
29
51
29
9
-12
12
-1
-5
20
13
-5
-23
10
-14
5
11
-36
-7
8
47
21
4
10
20
17
15
6
-3
0
4
1
-23
-14
-23
-5
1
-7
5
-11
18
54
24
-3
-13
-14
-14
-14
-13
-19
-25
-7
-3
2
0
6
3
12
0
5
-7
1
-3
-12
5
4
28
-7
4
-1
1
8
2
-47
12
0
-11
-9
3
0
-11
-7
-5
6
-6
1
-3
-1
3
45
-20
-1
20
0
0
-1
-12
-68
-17
-11
-6
-5
4
4
5
4
12
7
12
10
-2
2
16
26
1
-1
-17
-5
-2
-10
2
-6
0
0
1
-4
-4
-10
-18
59
0
-16
-2
1
-2
7
8
37
19
4
-1
-8
7
0
-2
-24
-11
-1
-4
11
1
-2
15
50
20
5
0
-4
-5
0
-4
-54
-22
-1
2
3
2
-3
-5
6
0
3
2
0
-4
7
27
57
16
5
-7
-2
7
-9
-43
-75
-21
-14
-12
-9
0
-1
3
45
4
2
6
2
-6
4
0
-11
-2
3
6
-2
2
0
-1
-10
-9
-2
0
-4
-4
-3
7
17
2
-7
-9
-5
-1
0
-8
-99
-15
-2
-4
1
-2
-2
-8
50
4
-3
-1
-2
-1
-3
1
21
-1
0
-1
1
-2
-3
0
-36
-3
-2
-9
-7
-2
4
9
46
13
5
8
19
3
-4
-9
-16
-12
-1
7
-5
-3
-9
-15
-18
-4
-7
-14
-18
-4
1
-4
-31
-8
-6
-2
15
1
5
9
55
11
11
8
2
4
-5
-6
-44
-5
4
5
-3
-5
-7
-11
-24
-18
-12
-16
-14
-3
2
2
3
5
-2
-3
2
1
0
3
0
-9
-1
1
4
1
1
9
11
1
-2
-3
4
-1
-1
-8
-6
5
8
4
-3
1
3
0
-32
-12
-1
-5
-4
-2
-1
7
27
2
2
1
-1
-4
1
-9
15
-10
-8
-4
-4
0
-1
5
-15
24
-1
1
5
1
0
0
-8
-6
4
3
-2
0
-1
-7
17
1
0
-4
-3
-2
2
3
-9
-10
-7
0
4
-3
1
-3
25
-6
6
7
2
-2
-3
0
-27
-2
-4
-5
-5
1
1
2
7
-13
-8
-4
-6
0
2
4
68
20
4
-2
3
-3
-3
-17
-39
7
0
1
5
2
0
4
7
6
1
-1
-12
-1
0
4
-11
-2
-1
-1
5
-2
-3
-11
1
-12
-5
2
1
-2
1
2
-5
-7
-4
0
0
-2
0
2
-8
0
0
-3
0
1
-6
-6
1
-2
-4
-3
-7
-1
2
0
-28
-2
4
0
0
0
3
7
23
2
-4
-1
-3
-2
-4
-10
-28
-13
-5
-5
-1
-1
4
1
4
12
0
4
-1
-1
3
7
-12
12
8
0
0
1
-10
0
21
-2
7
3
2
1
-1
-4
-11
4
-2
0
1
-4
-1
-3
5
-17
-8
-3
-3
-1
-1
-4
2
12
3
1
-2
-1
2
2
-6
1
-15
-6
-5
-1
-12
1
-1
-4
12
5
1
-2
11
-5
-4
1
2
0
0
0
-10
0
7
6
3
-1
0
-2
7
2
0
-2
0
-1
-3
-6
-8
-3
0
-13
-8
-3
-3
-3
-19
-3
-8
2
-2
-4
-2
0
7
4
5
0
-1
1
1
2
13
5
8
10
2
2
4
8
7
-2
-14
-6
-3
0
4
5
-22
-6
2
-3
0
-5
-10
-12
-33
-6
-4
-3
-6
-4
-4
-12
-19
-5
9
-2
-1
-2
-2
-5
19
5
11
4
-6
-2
-1
3
18
5
-9
-8
3
0
1
4
12
5
-14
12
3
3
3
4
9
-4
-8
-12
0
-1
-2
0
-9
-1
5
9
-2
-1
-1
2
16
-6
7
6
-1
-3
-3
-2
-1
3
2
-5
6
0
1
-6
0
-1
1
6
2
2
1
0
-6
8
6
0
-7
-3
-1
-1
-34
-10
-24
4
-1
3
-9
-4
-1
-14
11
0
-8
-8
-3
1
17
6
-8
-18
-11
-6
-8
0
-1
-3
6
-7
-2
-8
-6
-10
46
13
6
-7
-1
3
6
-7
11
11
-10
18
7
7
8
16
-65
-6
3
-15
1
-2
-3
0
47
-10
-7
-15
-3
1
-1
2
-1
-2
-2
11
-3
-7
-3
1
61
5
12
1
-6
-6
-1
-6
67
26
-15
22
13
19
0
7
-35
-26
-2
11
5
1
-7
13
24
6
32
-8
-5
-6
9
0
24
-38
-51
2
17
1
-2
17
-83
16
31
-45
-5
-7
16
-29
3
0
13
20
-19
-7
-18
-2
-57
28
-51
-5
-4
12
-5
17
-97
-34
46
11
2
0
14
-34
73
15
-23
-12
7
9
4
4
-73
-3
43
-64
-45
-21
-9
-23
-66
-22
-13
13
14
-22
-5
-25
37
13
-76
15
5
15
3
34
19
21
56
1
-30
-1
-21
21
-83
-54
36
21
31
10
26
-17
-50
-44
22
-11
-20
-5
-16
-24
69
42
-23
27
21
3
14
11
-6
-62
-32
-16
-20
-10
-20
4
127
52
-3
36
17
17
18
23
3
-28
4
1
-8
-11
1
-1
67
-17
24
42
-12
-29
-48
-6
-64
9
20
27
-10
5
5
-22
6
15
-11
-24
-4
-3
3
-18
65
24
-38
-106
41
48
43
14
-57
-33
-12
23
-11
-18
0
26
34
-37
-4
24
14
-18
16
-1
1
20
-21
40
-14
0
-54
2
17
16
44
-5
0
-12
-10
-9
15
-4
22
-42
-32
11
1
12
-25
37
-24
28
49
7
28
3
-128
36
-12
30
5
1
20
-26
21
1
-33
30
18
0
-14
13
40
65
51
-48
-13
-7
-3
1
-97
-57
4
-27
-17
-31
1
-39
127
-14
-12
-89
-48
-1
-20
16
-6
31
40
85
23
20
16
-1
-118
-19
-16
6
2
0
7
-15
102
78
6
4
-12
-4
-47
-2
-39
-15
-2
-40
-12
-16
11
6
-19
-15
15
8
-17
-20
12
5
8
7
5
-49
-10
13
-16
-45
0
-1
-15
31
9
-1
14
23
92
30
-6
74
22
-10
-35
-25
76
20
1
25
4
-9
-20
21
-93
59
-31
-16
10
26
53
41
-2
-56
35
-27
-14
-6
-3
-32
25
-28
6
-17
4
-36
-8
0
20
6
-5
-10
-5
57
15
-16
14
42
6
33
12
6
-10
7
-52
-3
-29
-33
0
8
3
10
-7
-49
-33
39
20
-5
38
50
-32
-23
-20
7
-19
-47
-42
-29
71
16
31
2
4
34
11
37
21
-17
-6
-80
-7
3
2
8
42
31
29
16
8
11
15
-12
35
15
-5
-41
-7
1
13
35
-68
-77
-14
95
38
5
2
-39
-14
84
-12
19
-10
-3
-9
-21
19
-50
0
-58
-14
9
15
51
-13
-49
-2
-65
-23
-22
-11
-24
55
9
-3
-38
-15
-34
-20
-15
-23
-33
3
21
7
-11
-18
-2
-19
12
-15
41
12
42
28
-4
-39
14
-8
-23
7
20
19
0
87
-17
6
-7
-11
-9
1
11
66
29
-28
78
-6
-14
-17
4
-63
-51
-1
-53
16
-14
-4
23
-57
-35
10
-2
-5
-3
9
-12
1
-3
-9
-51
-6
-19
-16
-46
-39
8
11
39
-41
-3
-11
3
9
21
-49
-69
51
23
5
-13
-28
10
-6
27
10
-7
-12
21
54
-5
-17
18
-13
-13
-13
-16
37
-31
2
-24
1
12
6
9
6
1
14
-40
-34
-14
-17
-25
-75
-18
-7
56
8
3
16
20
-10
33
-30
0
-3
-2
4
-7
34
13
27
-4
11
3
-14
15
-62
4
5
44
-5
-5
0
5
-11
-3
7
-6
-18
-27
-25
-53
-23
-24
4
-10
-9
2
-2
14
-31
-5
0
26
14
20
19
-25
106
52
-13
-11
1
6
26
70
-29
-71
13
-11
-15
-11
-44
-71
-49
-14
22
-74
-10
-8
4
-15
49
-28
-32
34
13
-4
-10
18
-51
3
15
5
-6
-1
-4
-19
5
23
-33
-5
20
7
12
22
-34
-27
18
34
8
1
5
-7
-32
-1
0
3
9
8
5
-2
51
19
18
21
-22
-17
-17
-1
-9
33
7
-1
-12
-2
-2
14
-90
-17
-5
-5
-7
5
-1
-23
12
-60
-31
-83
-3
-8
-8
13
-104
-14
8
35
13
2
-4
-41
78
43
15
-5
-4
5
8
12
0
-45
-7
1
5
-2
-14
2
33
19
2
-7
-5
4
17
22
-77
11
5
-42
5
17
9
4
45
-2
2
-11
-9
-8
-4
5
-70
11
-14
-5
-5
-1
-3
-34
78
55
-6
2
13
0
12
11
-13
-51
-6
49
6
-6
-3
-9
0
20
9
40
-5
-1
-10
18
-42
-7
-7
23
22
8
0
6
5
-15
-4
-26
-4
-7
0
-13
17
38
-4
15
-3
1
5
-3
21
1
9
23
2
3
9
36
53
-10
-25
-76
-7
0
-5
-3
-27
-16
11
-23
-10
-3
-6
-9
-41
23
-5
34
16
6
11
4
-91
-53
-16
-21
-20
-11
-21
-19
64
28
15
57
6
6
-5
0
-72
8
31
-6
0
1
12
-2
12
-32
-26
0
-7
-5
-12
-19
54
35
4
-16
-19
-18
-10
12
-14
-3
5
-14
5
-1
-9
27
-2
-10
5
43
13
15
29
-13
44
-14
21
-19
-15
-12
-15
-6
43
-15
-33
21
22
27
16
-17
-30
0
2
-13
-14
-21
-12
5
33
-51
-10
10
9
-5
-14
4
74
24
5
-50
-1
0
5
-4
-2
28
7
-16
-4
-5
-1
-7
75
34
-2
27
9
8
-6
11
-21
16
3
4
5
-2
2
20
-48
-10
-12
9
-7
1
-22
-42
30
-10
3
-20
5
10
25
25
-28
5
0
4
-7
-4
14
-26
37
28
27
1
-3
4
-3
26
50
-34
-18
5
1
8
-9
-7
-45
-16
7
-9
-5
-13
-3
-25
25
12
1
-18
-10
4
18
-2
-11
-16
-25
-21
1
3
-16
2
28
44
20
-2
-7
3
7
2
-2
1
-14
12
10
8
4
-5
51
-37
9
54
1
-5
6
2
-78
-13
-1
4
-5
-11
-15
-33
34
-49
-35
39
12
1
-11
21
-3
17
23
12
7
9
13
6
-8
13
13
-13
-9
-8
4
12
9
1
-6
-1
-12
-3
-5
-25
-36
-9
-11
-2
7
1
-5
-7
-5
-5
-14
9
-10
-10
11
15
26
22
6
-4
4
0
-21
16
-79
-25
12
-6
0
7
4
0
10
17
13
-26
0
9
8
-22
51
7
8
-14
-14
-5
-2
6
21
-26
-14
28
7
-8
-11
-10
-28
32
0
-5
-2
-1
8
1
-13
-8
1
-15
-8
-6
11
15
-13
-4
0
-3
-2
-3
-21
3
-20
-22
-7
19
4
1
-9
-7
43
-5
-8
-26
-2
3
8
3
2
15
15
4
-13
-16
-11
-3
31
4
8
-1
4
5
9
14
-41
17
11
21
6
6
8
4
4
25
-14
12
-1
-9
-2
0
2
0
8
7
-2
7
-2
11
-23
10
-5
-26
-7
-11
-23
-3
-6
-45
-8
-21
-4
4
11
-7
23
25
18
4
6
-6
-18
0
-43
6
-4
21
-2
-2
1
-12
105
14
-4
-44
-5
-7
-6
8
-34
19
12
9
4
-3
1
-4
-40
-12
-1
17
-7
5
8
-2
22
31
-1
-24
-4
-3
-6
7
-90
-21
-26
39
10
2
-8
-41
27
5
-1
-29
4
-5
1
1
52
2
4
-13
-1
-4
6
12
-26
-18
-8
7
4
8
5
-4
68
8
-3
38
23
7
8
11
-29
31
7
-11
-15
-3
-2
0
15
-49
-29
6
-5
-7
-5
1
-30
10
6
-12
5
1
10
11
-33
-12
12
-4
-5
0
-5
-17
24
17
-9
-29
-15
-4
1
-8
-56
-30
-5
-4
4
-2
-2
-7
3
5
4
1
-2
-13
1
-4
13
-13
-8
4
-1
20
-12
16
0
-11
2
-18
-4
2
-1
2
-14
11
6
-13
2
2
11
-2
6
-15
2
-12
-7
-10
5
9
52
9
-15
12
5
-5
-14
-5
-84
13
6
8
-1
0
-7
-19
-33
-14
0
-21
-1
4
2
5
51
6
12
11
-4
-8
0
11
-86
-6
-4
15
5
1
8
-16
-13
12
-8
7
-5
-1
-1
15
35
0
5
8
-1
0
-9
-12
-23
-1
2
-4
-8
-3
-13
-5
-35
12
5
-9
-3
2
19
3
38
-18
-6
4
-5
2
-6
7
-25
3
-2
2
-7
-9
23
0
-4
-25
-6
21
14
2
-27
-9
5
16
11
0
1
4
13
12
12
-28
-7
-11
-2
-18
-7
-7
65
26
15
-3
-5
29
11
-5
-10
5
-25
23
17
6
3
1
-62
-7
4
4
-2
-8
0
-1
-14
-7
15
-14
-4
1
4
-4
38
15
-19
23
1
-11
-17
3
29
7
14
-23
-9
2
8
3
1
4
-9
21
-8
-4
-18
-5
13
4
-8
14
21
12
12
12
-40
4
3
-2
4
-1
-8
-2
2
-7
13
-7
-4
-6
9
-9
13
-12
-18
-11
-11
-7
-6
-7
1
11
-3
-11
2
8
-5
16
42
3
4
-1
7
-4
7
7
-16
-19
6
-15
-2
-16
-17
-16
-8
9
2
-22
-1
13
2
10
-31
-18
1
17
-1
4
29
-27
-7
-2
-2
-8
-4
-4
-19
1
0
7
-2
-14
-5
-6
-2
-8
-19
-18
-1
34
1
-9
-11
-1
-7
18
-7
5
4
10
11
28
32
1
2
-8
-2
-5
-11
-13
-28
2
5
-18
-14
-9
2
-7
69
-17
-14
4
7
-2
-31
4
26
11
11
2
0
4
12
1
-55
-7
1
19
-1
0
3
1
42
15
-13
-23
-8
0
-3
10
-12
2
10
8
10
5
22
-16
9
-9
2
-4
-3
-10
-9
2
13
-16
-7
-24
-23
-6
-13
-10
-5
39
14
25
8
18
5
7
61
5
-12
-13
-4
-1
11
26
-20
1
9
-11
-5
0
-6
-14
39
-17
13
12
7
-4
14
-2
4
-16
-24
-17
-9
-6
-11
25
-8
-19
14
20
9
2
2
-12
31
-9
-10
-19
-15
-9
-16
-10
-92
4
-8
-2
8
4
9
1
8
-13
3
16
23
7
4
-8
-11
1
-7
9
0
-4
13
15
62
17
-2
8
-6
-1
-15
-5
-67
9
13
-28
-11
-8
-15
-5
-5
-26
-13
-11
25
14
16
5
26
19
1
19
0
0
10
-1
-100
-31
-9
-1
2
-2
-13
8
25
16
5
-2
-3
-9
-19
-18
-2
6
14
22
-6
2
-7
-3
-27
-7
-7
-38
-3
-4
1
-14
11
5
-2
12
7
4
13
3
58
-12
-1
2
-1
7
12
20
-37
11
3
-16
-4
-4
-10
-5
-10
9
2
-5
17
11
5
-2
-32
-30
-27
16
1
-7
0
8
14
12
-5
8
-3
1
1
6
9
-36
-1
5
-9
-9
-3
-15
7
-3
6
-7
-9
-1
-1
8
10
-6
-2
-2
12
3
10
3
27
14
15
-9
0
0
-11
-9
-29
-4
-22
78
13
-1
-9
6
-5
-5
4
-13
-13
-3
5
-16
9
6
9
-27
-10
-6
-12
-11
3
-3
-14
16
2
-5
0
8
5
19
12
-18
-13
-7
-5
2
-24
-13
-3
1
-1
2
4
0
69
4
6
3
3
-1
-2
-1
-28
11
2
-9
2
2
-6
-9
13
9
-12
-38
-6
-2
-3
1
-16
-10
-8
-5
-11
-12
1
-9
11
12
10
-3
-5
-1
-3
1
4
-23
-24
6
6
-1
0
4
3
-9
-1
-7
-2
2
6
1
0
7
6
9
-1
-3
-5
3
-14
-1
-9
-15
-5
3
-1
-4
2
4
3
11
6
6
6
5
-2
3
1
4
-5
0
2
-1
12
3
0
-8
-7
-7
-9
-3
-7
6
5
-2
-5
-11
-4
-4
12
-1
-4
-3
-2
-2
6
-2
-2
-3
0
-3
0
5
-8
-3
2
0
-2
-2
2
1
-1
2
-7
-3
0
2
6
9
7
1
-2
-2
-2
0
-1
-2
0
1
-3
4
0
-1
-8
-7
-2
-2
0
-2
-2
-4
-1
-2
-3
0
2
0
1
1
-4
-4
-5
-1
0
-8
-5
-3
-3
-1
1
0
-4
3
5
6
5
3
2
-2
1
-6
-7
-5
-2
-1
-1
-1
-2
-2
-1
-7
-5
-3
-4
-1
2
0
-4
-2
-2
-3
-2
-3
-2
-2
0
2
2
-8
8
0
-4
2
0
0
3
-1
-3
-2
-4
0
2
-3
-6
6
-3
-3
-2
0
6
5
1
0
4
0
1
-4
-9
-3
0
10
6
1
-2
-1
-7
-5
-2
-5
-7
-3
-2
-1
7
0
-3
-11
-7
-1
3
5
10
-1
-1
-4
-1
0
1
-3
-11
-6
-3
2
4
-1
-5
-11
-45
-14
-6
-9
-3
0
7
4
8
7
1
2
-1
-1
-5
-16
-33
-3
-5
-11
-7
6
-1
9
37
8
5
19
7
-5
-1
-2
14
-16
-6
1
-4
3
3
11
22
15
-1
-23
0
2
-2
2
9
2
2
6
0
-5
-7
5
-12
4
1
-3
5
-3
14
-3
-17
-7
4
18
-4
1
-5
-2
14
5
2
-4
-13
1
6
11
5
6
1
5
26
1
-8
-12
20
-10
-6
-10
-37
-7
-1
1
-20
2
0
8
25
-4
-5
-13
-43
-15
-3
-15
-4
6
-8
7
67
25
6
2
-16
-6
10
-6
-80
-30
-11
-2
9
-7
-4
3
9
7
-1
-9
-7
3
7
6
52
6
9
11
3
1
0
-8
-50
7
4
12
10
1
-11
-16
24
0
-13
-15
-5
-3
15
9
19
7
10
-15
-17
7
-15
5
-76
-18
-11
16
21
-14
-6
-40
-64
-41
-6
7
-19
-2
1
17
46
42
4
-4
3
0
-6
-2
3
-8
-4
-20
-7
-5
4
-11
-11
8
1
-2
17
-2
12
17
-32
-17
8
18
10
0
-10
1
25
7
0
-12
-16
-1
14
9
41
11
-11
2
21
22
-14
-20
17
-13
-9
-2
-28
-12
7
10
45
22
9
-1
9
-10
-4
-5
-35
-20
-6
-5
-10
3
-11
11
61
52
9
-3
0
-14
14
10
44
-9
6
11
18
2
1
-18
-28
-44
-16
-11
-14
3
-2
6
35
9
-3
-5
5
4
-6
5
-9
-4
0
4
-9
-1
-3
-4
-12
21
-3
-7
-9
-1
-1
13
68
14
6
-9
-3
-2
-3
-22
-42
-33
-7
8
6
-2
2
8
12
2
5
17
7
-2
-9
0
-9
2
2
8
5
0
8
2
2
-19
-17
-25
-8
5
-2
-8
-51
-16
-1
0
4
-3
-9
-11
-2
9
-7
-1
6
-8
3
18
73
13
8
-7
-24
-3
-9
-8
-52
-30
-8
-4
-2
0
15
13
42
36
5
-2
4
4
-8
-12
-17
-18
-2
4
0
-7
5
2
-12
11
2
-2
5
2
-13
-4
-10
7
0
14
-7
-3
4
5
39
10
3
-3
-7
0
2
5
-7
-16
-1
-8
-2
-2
3
-1
34
13
0
6
7
4
5
17
-6
14
7
9
5
4
-7
-16
-64
-26
-11
-7
-2
-6
-2
-6
-6
4
0
-1
-5
-1
-5
-8
-3
-6
-1
11
8
0
1
5
-2
4
1
-7
7
-1
-2
-3
-36
-2
1
2
-3
-1
0
-8
13
0
-3
3
1
-2
-2
5
-55
-20
-9
-12
-11
4
-2
-8
14
3
-4
-11
-5
-4
6
11
62
12
9
13
14
1
-5
-9
-26
-7
-3
2
1
-5
-5
-7
-22
-10
-1
-4
-10
-3
2
12
31
16
5
4
0
4
-1
-5
-1
-10
-3
-5
-3
-1
-2
-5
-6
-13
-11
-9
-7
0
-3
-2
-4
2
0
-2
-1
-2
7
2
12
15
4
-3
3
0
-1
0
-5
-11
2
2
-1
0
2
4
-13
-1
4
-1
0
-1
0
3
-1
-3
0
1
-2
-3
-4
-10
-6
-5
-4
-3
-5
4
-1
3
28
11
0
-2
3
-2
0
2
-18
-13
1
2
-5
1
0
-8
12
-2
-3
-8
3
0
-3
2
-14
0
4
13
5
1
4
1
-33
1
7
4
-1
1
-5
-4
6
2
-7
-5
-3
-4
-2
-3
3
1
-6
-5
0
0
-1
6
14
3
-2
-2
-2
-2
1
-1
-15
-4
-2
-1
0
1
-4
-11
-12
-14
-2
0
-3
-1
1
1
-5
-1
6
8
4
1
-4
-6
-6
-4
-5
-7
-4
-2
1
4
13
0
-2
-2
-1
-2
3
1
-2
11
1
2
2
-1
-1
-1
5
-3
3
1
-2
2
-5
-8
-10
0
-7
-6
-1
-1
-2
3
19
2
-1
-2
-1
-2
1
0
8
5
4
1
-1
-1
0
-2
8
-8
-1
1
0
-3
-3
-2
30
3
-5
-5
-4
-1
-1
0
-30
-11
-10
-6
-4
2
-3
-6
6
-8
-6
-2
-1
-2
-2
-4
-15
-7
5
2
1
0
0
-1
8
12
6
1
0
-2
-3
3
1
-1
1
2
1
-1
-2
-3
-7
-2
0
0
-2
-3
0
-5
-15
7
-7
-4
-4
0
3
3
-11
-1
3
-2
1
1
8
0
8
6
0
2
-1
1
-9
1
-14
11
4
2
2
3
0
-2
7
-17
-7
-3
0
-3
-13
-5
-5
-13
-6
-1
-3
-3
-2
-3
4
7
1
-2
-1
-3
13
5
-12
-14
-3
1
0
0
-21
3
3
-8
-3
-3
0
2
23
-6
0
17
3
0
1
1
-18
1
2
-13
-6
-6
-4
-5
2
-2
8
8
4
1
0
1
12
1
-13
-1
2
-1
-1
-1
-7
3
-1
-16
-8
-3
-1
-3
-16
-7
-3
5
5
3
2
-1
12
0
-1
1
1
-1
-1
0
24
11
9
17
0
-1
0
5
23
2
-20
-4
0
2
1
10
-33
-2
18
2
-3
-4
-5
-6
-58
-16
5
-16
-2
-2
-2
-15
27
10
-17
4
-6
-1
0
0
26
-6
-8
8
6
4
4
11
-53
9
-1
1
-3
0
0
0
8
2
10
-1
3
-2
-3
-2
57
9
7
-7
-8
-5
-4
-10
-39
-7
-5
-16
-1
0
-1
0
18
-17
-6
-10
4
4
3
3
-19
2
9
4
-9
-6
-5
-10
27
16
-11
0
0
2
2
5
24
8
-1
-3
0
-3
-2
9
54
-4
-2
13
7
4
3
9
45
11
-8
8
2
2
-1
-4
-7
-16
5
-1
-2
-1
2
-7
-34
-5
12
10
-3
0
-4
-2
64
-9
-23
-18
-5
-2
0
9
32
0
12
-7
0
-3
-6
-11
-56
-3
-9
-5
-3
-9
-10
-14
64
-4
9
6
10
6
7
4
-85
36
0
-7
-3
1
-1
-19
86
8
-19
1
-3
5
11
23
-5
-49
13
2
12
0
-2
-3
-41
0
6
-24
-24
-19
-17
-28
39
13
-19
28
9
5
5
11
-63
9
0
12
-5
6
4
5
-44
-20
-29
-1
0
1
-4
2
45
-6
24
-33
-7
-2
-1
-6
-60
-9
20
24
4
2
6
-7
8
6
-20
-79
-17
-8
-1
-6
16
-13
20
78
16
12
10
19
-85
-26
-19
-17
-11
-4
-12
-1
28
-21
-1
-63
-27
-12
-14
-19
63
11
2
36
11
-9
-2
26
19
30
17
21
5
13
20
10
-111
30
-7
28
19
9
-7
-15
-29
-7
24
-11
-16
-8
3
-2
-103
-17
-20
15
6
-5
0
-11
-89
-44
14
-63
-23
-8
-9
-25
127
29
-9
-18
-4
-2
10
10
91
45
-34
24
20
0
-5
14
4
8
30
23
2
1
-1
0
-89
-22
-10
24
0
-3
-4
-4
28
14
-8
10
-3
-5
-9
-7
-100
-48
-13
-36
-6
-5
-11
-26
111
25
6
-17
-20
-5
-1
12
-6
60
-21
26
12
11
-3
17
9
-11
51
-41
-13
-19
-14
-17
26
62
-2
20
0
-2
7
0
19
-29
-14
20
5
5
23
41
-76
1
6
-74
-24
0
-30
-63
41
-7
-26
50
19
16
10
13
-115
-14
35
-15
-7
-9
-9
-11
-81
-2
22
15
15
8
2
-15
120
17
-10
-1
-7
-16
-1
13
-108
31
-3
-10
2
23
10
24
-63
-38
1
-10
2
-1
0
-18
56
47
-43
-7
23
15
-6
-1
21
-6
32
-20
-6
-14
7
20
-49
-3
-10
-30
-20
-5
-5
-17
103
-25
-49
-5
31
6
2
22
-84
-25
14
-40
-19
-11
-18
-35
59
-21
-25
78
24
14
25
57
-111
92
24
-32
-11
-16
-19
-47
-6
-65
1
-3
-14
-16
-4
-1
87
-20
-6
-13
11
29
21
15
52
33
-20
-17
-2
-3
-2
15
-34
-32
2
21
9
-3
17
21
-72
-48
-2
24
-3
-15
-22
-32
47
-32
4
0
-3
10
-10
-4
54
39
11
-17
-9
-4
3
-18
-43
-45
1
0
-1
-5
10
25
5
52
-9
-80
-3
7
7
7
-26
-52
-29
88
15
-14
-9
3
-40
31
16
-39
-7
0
-8
-4
122
-10
-27
52
22
1
-1
14
-36
-71
17
53
-3
5
2
-13
-7
28
5
-16
-8
-6
3
9
-59
-32
-7
-23
-2
-4
-8
-28
-15
19
10
-21
-4
3
5
-13
94
11
2
50
4
5
12
45
-113
-28
16
-20
-3
-4
-28
-40
-99
-7
1
49
-2
-5
5
-9
96
-1
-7
-35
1
9
8
15
49
26
-12
28
1
-3
9
-10
81
-8
3
-17
-6
-3
-18
37
-4
-49
5
-28
3
1
7
-8
36
-28
-10
23
-5
-8
-7
0
-8
62
6
0
-1
3
9
-7
74
26
1
-26
-7
-10
-4
-5
-14
8
-36
-38
21
11
5
-12
15
-49
7
59
8
-1
-15
-10
29
28
17
-32
-20
-3
-1
10
-32
24
-24
11
3
-4
6
5
18
1
10
2
-13
0
-8
18
-21
-54
-6
4
5
2
6
2
-67
48
-3
18
7
7
-5
-8
-83
-25
18
-38
-6
-7
10
-17
91
22
-20
9
-8
3
-2
19
-61
4
-1
-18
-15
-19
-14
-23
-47
-10
16
-9
0
-7
-14
-26
104
48
3
8
-4
14
15
-14
12
11
3
26
7
-8
3
2
52
-40
-7
-14
-11
17
-3
15
57
1
-3
7
6
9
14
37
0
12
0
12
-8
-15
-7
-35
8
-34
24
-46
-14
-15
-7
-5
59
80
-4
2
-11
-5
-3
-7
24
31
9
46
-10
1
2
22
-68
13
-3
79
32
11
7
-2
-63
-54
8
17
-3
4
1
-12
60
35
14
-24
-8
-5
-3
2
-20
-28
-8
-42
-9
1
-4
-9
12
19
3
11
-12
-7
7
19
-46
19
-11
-2
5
4
-1
-6
-58
-36
7
-1
-1
-4
-8
-3
4
-14
-16
-10
4
6
7
29
-95
-9
-12
11
16
3
0
-28
-11
-15
4
-18
-1
-13
-10
18
-50
-51
7
-16
-4
-8
10
-22
6
15
-5
19
14
26
2
-9
37
-25
6
-13
-14
-5
6
21
15
35
3
23
5
-1
4
4
-12
14
-15
21
0
2
13
0
9
-20
-45
-49
9
-12
-24
-12
91
-6
11
1
-11
-2
10
32
29
51
14
7
4
-3
-15
-42
-33
-21
10
-16
-6
1
2
3
-57
-2
15
14
-19
-17
-10
-22
10
5
-35
-24
11
4
1
2
37
-34
-5
14
1
1
-2
25
-57
36
10
-2
0
-6
6
8
127
2
-1
4
-3
16
13
20
-79
-44
16
-21
-11
-8
-23
-38
14
37
2
0
-6
-11
-7
-15
39
34
-10
16
13
12
12
8
85
6
-16
3
6
1
10
31
-69
-52
12
-16
-13
-17
-14
-13
-92
-31
-21
-66
10
31
20
-13
78
0
-12
-2
0
-14
-15
12
31
23
11
-12
-9
-15
4
-9
-33
13
-13
-6
4
9
7
4
105
-38
-12
17
-8
-4
-2
37
-81
-16
4
19
5
1
-3
-43
81
-17
-14
14
10
4
3
1
-73
8
15
-11
-9
-4
-7
-2
39
-7
5
-9
-17
-4
3
-2
-58
-1
-16
26
7
3
1
10
91
17
2
12
5
-4
-15
7
-50
12
12
-5
0
0
3
-12
-55
18
-10
28
3
-5
-5
-14
79
-18
4
-24
-11
-2
-3
-4
44
-17
2
-19
-3
-5
-3
0
40
-18
-4
4
-3
0
-5
1
12
14
2
-4
4
-1
-1
1
-29
-15
6
-11
-5
-2
0
16
-112
16
-23
69
16
0
-11
-37
-19
-69
3
-15
-19
-8
-9
11
16
20
12
-24
-9
-2
10
-13
17
17
-14
27
33
28
9
3
7
-5
-13
-33
6
3
3
12
-39
9
9
-21
-11
-5
-5
5
16
5
-5
7
0
-12
-12
-17
3
-19
-17
25
1
-4
2
20
-36
6
21
10
-25
-3
0
-6
36
36
-2
-19
17
-1
3
-2
-22
30
-5
26
10
7
1
7
77
-24
3
-20
-3
11
5
-12
-103
-31
11
-4
-2
2
-5
-12
54
-19
-19
17
-6
-7
2
-11
-48
32
13
-8
-4
0
-4
29
80
2
10
-18
4
7
26
9
-69
-4
6
-13
-14
-17
-15
-29
-21
24
3
12
0
2
-4
-11
40
-18
-27
-27
0
-7
-7
23
-94
21
23
-25
-22
-14
-17
-35
20
-26
4
52
5
9
15
10
-59
20
-17
30
23
-1
-10
13
17
-11
7
8
-4
4
0
-6
21
2
-22
-31
3
0
-10
8
-41
-36
6
30
8
-1
7
-9
-14
67
3
6
-1
-1
6
1
58
-35
-2
40
-4
-7
9
13
-13
21
3
-45
-7
-6
-18
-13
-2
8
27
-5
-14
-7
-6
-9
5
27
-27
30
12
7
17
15
48
-1
4
-3
0
3
-18
-15
46
-30
5
10
-4
-9
7
15
28
23
-1
-37
-6
-4
2
-6
35
-8
5
-13
-12
2
3
-1
-65
6
10
-31
-3
2
-12
-15
-59
-18
-14
19
-4
-1
14
-2
55
3
-11
1
2
3
-15
3
34
-19
5
-16
-3
-2
9
19
-52
-5
-1
-11
-2
-8
-7
-36
63
2
-5
36
13
1
-9
15
-32
-4
11
-30
4
-2
17
7
-11
4
6
12
-6
-3
-19
-11
55
3
14
7
-9
-3
7
15
-54
11
-4
-12
-11
-10
-11
-18
55
-1
-20
4
2
4
9
15
-58
-14
2
11
5
7
-9
-9
1
10
0
9
0
-7
-3
-5
-49
18
-8
-29
-7
5
-7
11
64
17
-5
1
-2
0
1
8
-4
-14
13
-36
-9
-4
0
-21
30
-1
-24
-1
16
9
22
8
-36
6
10
27
-2
-15
-21
4
5
-3
-5
-9
3
10
5
14
50
0
0
-7
2
6
14
7
-19
-15
5
-5
-6
-16
-22
-19
94
10
-19
23
9
15
3
2
-20
-27
-4
-4
6
4
1
-5
55
1
-5
-45
-5
-5
2
-2
26
-9
-6
-5
-9
1
1
13
-58
-12
11
48
16
-5
-7
-16
-21
19
-4
7
-8
-9
0
1
10
30
11
-18
-10
-1
-3
-14
30
-33
-22
-12
-3
-6
-7
9
-21
10
11
2
-3
2
15
5
57
-55
-12
-24
0
-1
-23
-15
-63
-7
2
45
6
-2
2
6
-60
-15
-1
-20
-7
0
2
-9
90
11
-3
-2
-12
-6
9
0
13
27
-2
10
3
0
-3
23
-33
-5
-5
0
-8
-18
-21
-12
18
11
10
6
-3
12
20
-8
35
-23
14
-14
-2
-7
-2
10
-109
-8
-23
-12
14
3
2
-35
3
-11
-29
50
21
8
4
25
-16
1
32
3
-1
-3
-4
9
-59
-10
-7
-14
0
2
0
2
-2
18
3
-11
-7
2
-2
-2
31
10
5
-50
-25
-4
-6
-1
-7
-32
-21
71
33
13
10
10
12
27
-5
-31
-7
-7
-7
-22
29
-15
9
11
-8
-8
-12
7
-64
12
18
-11
-7
-2
3
-13
31
11
-3
-4
-6
4
8
6
-52
-3
-5
-8
-3
-3
-7
0
-59
-42
-2
-6
-5
-8
-5
-13
80
9
-2
4
7
8
2
9
-44
-18
2
-46
-2
-6
-6
-10
1
27
-6
45
2
5
-2
4
94
-24
17
-25
-3
-17
-1
20
41
23
-6
25
11
5
-8
-6
-41
-16
4
-24
-11
-6
-7
-17
16
20
-4
-1
7
3
13
9
5
22
-7
27
-4
-1
1
1
52
-36
8
-5
-2
5
-2
11
-39
29
-1
-4
-3
-1
3
-6
-3
-24
-9
-25
-9
-5
-2
-7
-20
12
4
7
1
0
0
-5
-10
-4
2
5
4
-6
3
0
-10
6
-2
6
-5
-2
-13
6
29
-4
5
-8
0
3
4
7
-113
-6
4
-16
-2
1
-4
-17
20
-17
-2
-9
-8
-2
2
-3
26
-1
-5
9
-2
0
0
3
18
-1
3
-11
1
-2
1
-1
-29
2
-5
5
2
3
2
-2
9
-9
-8
0
-5
1
4
1
-9
-2
2
-5
-2
-7
-6
-4
-6
-9
-6
2
-3
-4
-6
-7
8
17
-2
13
9
18
16
4
-11
-10
4
-4
1
-2
-1
0
11
1
-3
-6
-1
-1
-4
0
-19
-1
4
2
-2
-4
-4
-3
14
8
-4
0
-6
-4
-3
-1
-6
-11
2
-3
2
-1
-2
-2
-3
13
1
5
2
1
3
3
-8
-14
-7
1
-2
-2
-3
-3
-1
-7
-9
-11
-5
-2
-2
-1
5
7
4
4
3
0
2
-1
-3
-2
-4
4
1
-2
6
0
-14
-2
2
-2
-2
-8
-26
-4
10
7
1
-8
-5
-4
3
-2
-5
3
5
4
1
5
1
-1
1
-7
-4
-1
-2
4
4
6
-9
-14
-12
-7
-5
-2
11
-8
2
4
-16
-1
-3
-15
-14
1
1
9
15
2
-2
3
6
0
-8
-11
-12
-5
4
11
-4
-2
6
2
10
14
4
-14
6
-4
3
3
-5
-3
3
41
6
1
3
-7
-1
-5
-2
-8
2
7
-4
7
19
7
-2
-6
-6
-7
-4
-7
-39
-2
-4
-4
2
2
1
1
6
-6
-5
-7
1
-4
-1
-1
14
8
0
-4
-8
0
2
14
23
6
5
3
3
-2
-2
-1
-8
1
0
9
0
2
-4
-10
-12
-1
-4
-34
6
-3
0
-1
4
-6
6
41
-4
-5
1
-14
-25
-8
-7
-12
-9
5
2
2
21
7
0
0
0
-10
-15
1
-25
-13
-7
6
-10
-7
-4
5
31
11
-1
-23
3
1
-5
-13
-41
-17
-2
6
4
1
3
0
3
2
5
4
-7
7
5
1
-3
7
2
-5
-3
-4
3
-5
8
3
1
-12
11
-4
-1
8
22
6
1
7
-15
-6
0
13
13
13
5
-8
-7
12
-7
-16
-6
-13
-10
-17
-7
4
-1
-5
-12
-1
2
30
43
1
3
25
25
2
0
-7
-10
-5
5
-20
-58
-27
-6
6
3
0
-7
10
-13
14
8
19
10
-10
0
-18
19
-16
-10
-20
-21
4
0
2
29
23
0
-6
0
-1
-8
22
52
6
-3
-9
-6
-9
7
-4
41
1
11
18
25
8
2
-6
-15
-12
0
-3
-16
-2
2
-2
-87
-9
-16
-14
-6
-1
3
18
24
6
0
7
2
5
3
-5
46
12
-1
-11
-7
4
-4
2
-16
1
9
19
7
0
8
6
85
6
15
7
12
-1
-5
-18
-10
9
-1
-5
-1
-4
-4
-16
-95
-52
-13
-11
-6
-2
-4
13
31
14
-11
4
-5
1
3
0
59
8
0
-6
-2
-2
-12
-16
-28
-7
-7
3
6
-6
3
5
25
11
7
5
-9
2
-1
6
-4
10
5
-10
-5
-1
-1
-22
-76
-19
-6
-1
-1
10
-2
11
1
-13
-4
0
-9
-16
3
16
40
27
8
2
7
-2
-3
-28
-68
-24
-19
-18
-15
-1
-8
-6
-51
-17
-6
2
7
-5
4
-12
-10
2
7
16
10
4
1
7
29
2
-6
-7
-11
-6
0
9
1
9
3
-6
-6
-3
5
-2
37
2
1
-1
1
0
-4
-5
-5
-3
-2
-2
0
2
1
6
4
9
3
6
6
2
-4
-4
-9
-6
-7
-16
-11
-3
-3
-1
27
15
-1
1
-4
-1
1
1
-58
-19
-3
2
6
1
-2
4
36
12
1
-2
-12
-5
9
-5
-32
-8
5
0
4
4
-6
-3
-16
10
-6
-2
-2
-2
-5
-2
32
-3
-5
2
-1
-4
5
1
-14
2
3
-2
4
3
0
5
12
4
4
0
-8
-2
-5
-2
-20
-24
-7
-6
-1
-3
0
1
21
20
4
5
9
2
-3
-5
-11
-13
-8
-8
-13
0
1
1
-15
-2
-2
0
-1
-1
-2
2
11
0
0
-1
3
-1
0
-1
23
5
9
5
0
-1
-2
-8
-53
-31
-4
4
2
0
-7
-10
-37
-2
-6
-7
-1
-3
4
2
18
2
-1
-4
-5
1
-2
-4
-14
-8
-4
-6
-3
-4
4
10
33
22
4
2
10
3
-2
-3
7
3
-1
4
-4
2
-8
-7
-14
-8
-4
1
0
0
2
5
9
6
-1
-1
-6
1
0
-6
-18
-3
-1
2
1
-4
0
7
26
2
-4
-10
-4
-1
-1
-3
13
-2
-1
5
1
0
0
-1
17
7
9
3
5
0
-7
-12
-22
-16
-14
-12
-7
-1
-5
5
14
-5
-5
0
-3
-1
2
7
-11
3
2
1
-1
0
-1
-3
3
0
-2
-4
-1
-2
1
0
1
4
6
1
1
2
2
-4
16
0
1
3
4
-3
2
5
16
-8
1
-1
3
-2
-3
-1
-21
-7
-9
-7
-8
-3
-1
-10
-26
4
-6
3
-5
-1
-1
-1
16
4
3
1
6
-1
2
0
-21
0
9
14
8
2
0
-4
0
-6
-5
-6
-3
0
0
4
22
3
-1
-1
-2
0
-2
0
-3
5
3
1
-1
-2
-1
-3
-27
-5
1
-3
-2
0
-3
-5
-1
-6
-2
0
3
0
-1
-3
1
0
-2
-2
-3
-2
0
0
-7
-8
-3
-1
0
-1
-2
-2
-15
3
0
-1
-1
-1
1
3
31
11
-2
0
1
1
-1
-1
-46
-9
0
-3
-2
1
-2
-4
9
-5
-8
-4
-2
-3
-1
-2
-11
3
8
1
-2
0
1
0
-4
0
-7
-2
0
-2
2
2
10
16
9
4
3
3
-3
4
0
-2
0
3
-1
-2
-4
-3
6
-3
-5
-4
-3
-1
-1
-4
-22
-14
-6
-2
-2
-1
12
7
18
-3
-1
1
2
-1
-17
1
-15
4
2
1
0
2
-2
-4
11
20
-1
-1
-2
-1
4
-6
-2
-3
0
-2
-5
-5
-15
-3
5
-13
-8
-4
-3
-7
0
0
-6
-8
-2
-2
-1
-2
-1
2
2
-8
0
0
0
2
-1
2
-4
6
0
-1
0
4
17
1
9
0
2
1
1
2
9
1
-6
5
1
-1
0
0
-23
-2
7
2
-3
-3
-1
-3
-8
-6
-14
4
4
1
1
0
8
-3
12
12
7
1
-2
0
5
3
15
5
-2
-2
1
0
21
-2
-18
-17
-2
-1
-1
0
-8
3
-1
-2
-2
-1
-3
-8
-21
-2
0
4
-5
1
1
0
24
-3
-4
-1
1
-1
0
2
-11
5
1
11
0
-3
-2
1
11
4
8
-8
-4
-4
-4
-8
-16
-3
-4
-11
-5
-1
3
3
-1
-12
-10
-8
-4
0
-7
-6
-22
0
7
-10
-3
-1
-1
-5
13
-2
-4
2
3
1
-3
3
13
6
8
0
0
-2
-1
-1
7
8
-8
4
1
2
5
4
-33
-6
2
4
1
0
1
2
-10
-6
7
-2
-2
0
3
-4
14
4
-16
-2
-1
3
-3
3
1
0
2
-4
0
-1
3
2
23
-1
-14
-10
-5
-3
-7
1
-5
0
-12
13
4
1
4
5
-24
-11
49
4
-4
-4
-11
-17
13
4
-9
0
0
-2
-1
3
61
3
9
7
-2
1
2
-1
-68
-15
-6
1
0
-2
0
-3
16
4
-17
1
-1
0
-2
1
28
5
8
-5
4
-2
-7
-5
-2
-6
12
-11
-2
0
5
2
-26
4
-2
3
-1
-4
-4
-4
-67
-7
-12
-2
-10
7
7
-10
17
-3
-10
30
22
3
-6
18
7
11
10
-20
-7
-14
2
9
26
-10
4
-7
-2
7
5
1
13
8
-3
-6
-3
-11
-5
-3
-106
-8
8
-7
-17
-2
13
11
126
4
-11
-11
0
-1
-5
-5
-84
19
21
7
-1
-2
-8
-20
-68
-13
-8
-5
-7
1
2
-13
-13
-20
-28
-8
10
11
-1
-2
-27
6
23
-19
-26
-9
0
18
101
7
15
15
-11
-6
-6
0
116
8
7
-14
-14
-4
1
10
-67
10
-17
15
18
-1
-6
-21
-12
-11
-31
55
24
21
22
24
-29
-14
4
-18
-17
-11
-14
-20
81
14
-2
-2
12
3
-2
-5
36
-6
23
-35
-25
-11
-4
2
50
26
26
-12
0
1
2
-10
-53
-39
-72
8
11
6
6
21
5
18
13
6
5
8
17
27
10
18
25
-3
-2
-8
-12
-28
-96
6
-1
-17
-3
-8
-16
-29
-58
-14
5
-50
-1
7
14
-12
34
-7
9
74
4
-1
-3
10
-12
24
-18
15
14
15
4
13
62
1
10
7
-10
-15
-11
8
46
24
27
-63
-16
-10
-3
-2
-105
-41
-18
15
-1
-2
-2
-25
-76
-3
15
16
3
4
10
-6
-108
-34
11
42
9
-2
-15
-16
44
-7
-40
-12
-10
-1
-7
18
27
36
-18
24
11
1
23
42
80
-18
7
4
-12
-3
-13
-15
-94
-18
-6
-25
10
13
-5
-21
-12
16
19
41
7
0
19
14
43
-29
-11
-36
-1
0
-11
4
35
18
-10
-9
-15
-23
-10
-17
74
22
-7
7
-12
10
1
31
93
3
-23
-39
3
-6
-4
15
-118
-23
13
-6
-2
-19
-14
-36
-28
-14
-16
-11
0
14
22
16
74
1
6
-20
-11
12
2
-2
-13
19
-20
19
17
14
1
-13
75
35
-11
53
22
6
-1
21
-101
-22
18
-9
-15
-11
-2
-15
34
1
-25
-60
-18
-13
-5
9
83
-13
-39
51
22
12
2
3
-36
5
25
-68
-18
-15
-7
-13
24
-6
-1
26
13
5
-7
-2
-16
16
30
-11
-9
-4
5
4
-14
11
4
29
20
-2
-3
-13
25
-25
3
-35
-15
-8
-22
17
0
18
20
-9
1
-1
8
-29
-34
-9
-40
28
6
1
-9
-17
-3
-10
4
-18
-15
-17
-5
7
58
1
12
6
1
22
15
-4
-64
-2
12
6
11
12
8
35
-38
12
-4
32
15
-8
5
-16
-17
1
2
8
-2
1
-1
12
-25
-19
2
-16
-14
-17
-17
-24
22
-24
-35
-23
-1
0
-7
3
57
-31
-18
0
-1
-4
2
1
-48
10
52
65
2
-4
-3
-8
-22
14
26
-26
-2
6
6
1
-13
-8
-35
1
5
5
9
9
-25
27
40
32
13
3
1
8
-94
-8
-1
-35
-29
-9
-24
-34
20
2
-22
-26
19
8
20
4
41
-32
34
-4
-19
-24
-32
3
14
0
3
-33
1
-3
18
6
15
19
6
-6
-1
5
3
5
-66
-2
-9
21
6
4
3
-6
31
32
5
24
0
-2
-11
-4
-8
-20
-17
10
7
5
-6
-4
45
-19
25
-29
-8
-4
12
8
-48
14
0
0
-3
-9
-7
-33
113
22
-18
22
3
3
11
32
-99
-40
-22
-48
-18
-15
-14
-33
-1
14
5
30
10
4
8
13
-71
-5
-14
10
27
8
-13
-6
73
13
10
33
1
0
10
15
-33
10
23
7
-4
-2
-4
-12
41
-18
-60
-15
-6
-1
-4
-1
25
-1
13
-2
-8
-8
0
6
-52
-3
11
-53
-8
-9
-9
-22
103
-17
-3
13
10
10
7
24
-69
-3
9
31
6
6
-4
-16
48
13
-5
-2
-11
-6
2
5
-99
-6
-3
2
0
5
-4
-14
-68
6
-12
-22
-19
-7
-1
-4
63
2
2
-50
8
5
9
18
6
-4
-30
2
-8
4
-4
-2
27
-2
7
-6
1
0
0
-6
-17
14
4
12
1
0
2
4
60
-2
-25
-8
-12
-12
-11
-3
-29
-9
13
-6
4
6
9
1
-14
-2
-2
0
0
4
9
0
22
-21
-11
-7
-6
-7
-12
-9
51
4
12
59
16
6
8
15
-72
0
23
-5
-8
-6
-8
-4
23
-3
3
-46
-9
-1
1
-11
9
-9
-15
21
11
3
6
9
-17
9
16
-4
-4
-6
-10
-4
4
5
-17
31
2
6
20
24
-25
-9
16
-40
-15
-11
-40
-34
-28
1
-1
-5
6
-2
6
-12
20
2
10
-4
-6
-5
1
-6
-17
1
2
6
0
7
-1
7
-37
-21
-18
-2
1
2
14
-3
60
25
2
11
3
-5
-2
16
-22
-7
4
8
-2
6
-2
-13
21
3
-10
-23
-17
-11
-9
-9
27
-8
-17
-18
4
1
6
8
23
-13
-28
46
24
9
-3
11
-73
21
53
-1
0
-1
8
15
-6
-17
-37
14
3
-3
-2
-22
31
6
15
14
-9
3
-8
3
5
-11
-23
-40
-24
-12
-9
-15
54
5
-28
-3
19
8
6
3
64
-8
12
16
0
-4
-5
28
-57
15
29
-17
-2
-5
2
-16
-37
-1
-22
-4
0
1
1
-7
23
4
-16
-22
-10
-3
-6
-2
-38
-4
4
-9
-3
-3
-7
-3
-43
1
-8
33
7
-12
19
9
53
6
22
4
0
16
-9
7
52
-13
-14
-14
-8
-3
0
-10
-43
7
6
-1
0
5
6
0
-21
4
-1
-34
-10
-14
-15
16
-64
5
27
31
1
-3
0
-20
-37
-13
1
3
-3
4
1
-5
4
12
-29
7
-2
-5
-2
-26
27
-26
-11
-28
-8
-1
0
23
-13
12
20
-5
-8
-6
0
-1
1
-5
-10
-5
7
8
2
10
9
3
-14
42
3
1
-3
8
-75
7
9
-13
-7
1
2
-21
47
-19
-2
8
19
3
2
10
-42
-4
6
-22
-19
-10
-4
-30
17
2
13
-36
-2
0
-2
3
67
7
-20
32
19
5
4
9
-50
16
29
2
-6
2
0
1
-20
4
-12
5
0
3
11
6
80
-37
-1
-15
2
-4
2
23
3
13
-11
-21
17
4
2
-8
-61
7
-9
-5
-3
-3
-7
-18
-16
0
-7
40
4
10
-3
16
-40
-7
8
-33
-10
-3
-4
-6
10
18
16
11
8
4
7
7
-18
-9
-4
11
-8
-11
-11
-8
-31
1
0
1
2
-4
-5
-20
87
4
0
-68
-5
2
2
17
-1
-6
-1
61
4
-3
3
0
22
0
-24
-7
-2
2
4
7
-59
-6
29
-26
-12
-7
-6
0
39
5
-18
29
14
3
-1
5
0
8
0
3
-4
6
10
-1
11
-10
-29
-44
-5
-5
-11
-11
8
-7
32
29
0
-5
-4
-8
41
24
13
11
0
4
8
16
-40
-18
-22
-3
-8
-3
-8
-5
22
-3
10
-23
-2
3
5
5
-58
-9
-1
-1
-1
-4
6
-7
-52
-9
16
-1
-9
-8
-11
-27
120
29
7
45
6
6
-5
32
-59
-15
5
-25
-12
-5
-3
-25
41
-18
-33
-4
2
-3
-1
9
-20
16
-1
17
-8
-3
-2
-2
7
-14
6
-30
-13
-11
-5
-10
26
4
-4
28
13
3
6
26
23
10
-12
14
5
3
1
-17
-6
1
21
-25
-4
8
2
-23
37
-9
6
-9
-2
0
-4
-5
65
0
-20
29
4
2
16
23
-63
28
16
-13
-14
-16
-22
-8
22
14
-12
-7
-8
-6
-6
7
-40
-17
-10
-47
-5
4
1
-7
10
-4
9
70
14
5
1
1
35
1
19
-14
-5
-1
1
5
-21
-13
-22
4
-1
-1
-3
-8
-26
4
-10
6
-7
-4
0
7
0
-1
13
-41
-18
-4
2
-10
18
-20
-1
3
15
2
0
8
-64
-14
17
0
2
1
0
-1
-55
-6
3
0
-7
-17
-10
-13
62
-6
-11
18
3
19
6
10
34
18
18
-21
1
9
5
12
14
-14
8
-5
1
-5
-11
-16
-26
-8
-26
-39
-12
-3
3
-9
7
8
10
29
-3
-6
-6
20
22
-16
4
14
-3
-4
14
13
-20
14
0
35
7
1
-1
-8
74
3
-1
-5
-1
6
2
14
-119
1
-5
-48
-10
-2
-7
-42
36
-6
-18
12
5
4
5
2
0
-16
6
-23
-8
-5
-15
-4
25
9
14
53
22
3
5
7
-45
-2
-26
-53
-8
-23
-2
-10
71
2
-2
10
-5
15
-5
13
-38
-14
-17
-10
12
2
12
6
61
-18
22
8
-2
3
-14
-9
30
31
-10
12
3
-1
-3
-3
-43
-13
-2
-7
4
-18
-6
2
-40
2
-21
-27
-10
2
7
1
38
17
12
11
-7
-24
-11
3
27
-31
16
1
-4
25
-1
-6
-45
-7
-16
-31
3
16
11
-17
31
13
2
14
4
-8
2
9
-9
12
-17
-4
-1
2
-3
-8
-56
10
12
34
-13
6
26
22
-87
-12
-1
13
7
18
1
-20
105
-8
-17
9
15
16
1
8
5
-15
-8
41
5
-15
-7
-1
24
-6
-8
-4
-3
-18
-6
8
-4
15
13
1
-3
1
0
-7
24
-48
-8
-13
12
-3
-10
8
17
28
-29
21
4
0
9
-23
-13
-62
-1
-19
-8
-4
6
12
-6
10
3
-5
-5
-14
-7
-17
3
7
-25
21
-10
0
4
16
55
7
13
-17
-1
28
-6
3
-37
34
15
-24
12
6
22
18
-43
-43
-8
-27
-9
-38
-41
-16
-20
18
16
14
-3
5
12
0
17
-13
-21
-26
-3
21
-3
-18
34
34
20
-3
-6
3
8
-18
9
-4
5
29
0
-3
14
25
-71
0
2
46
7
-7
-12
-4
-42
13
-10
21
-1
0
6
2
-53
-40
-2
-62
-7
-6
-27
-5
53
30
10
-5
2
-1
3
-3
6
19
13
15
-30
-18
9
-5
-14
-24
12
37
18
19
-15
-3
27
6
-21
-46
6
-1
-6
-3
94
32
-3
-28
-19
-9
23
20
11
-8
-19
-11
-7
0
-17
-10
-57
-7
32
-5
-13
-2
15
7
-16
-27
-14
-12
-11
-4
-13
-2
46
15
-41
34
12
-3
-20
8
-18
-47
25
-24
1
-16
5
-29
-24
14
4
-50
0
24
7
8
101
16
31
59
5
2
7
3
8
-1
-27
37
-5
0
-12
-31
1
21
-25
56
17
0
1
7
-7
-36
13
-16
0
-15
-3
1
46
10
3
38
7
-1
-3
2
-64
-3
-6
-13
-3
4
1
16
20
3
-1
-30
-12
-2
-5
10
9
1
30
-10
-6
-4
9
4
-59
-6
-28
28
9
-3
-11
-4
12
1
-1
-7
-5
-2
2
2
-29
-11
16
-9
-1
-3
-14
-13
-4
18
-16
-2
6
-2
12
3
33
2
-7
6
-5
0
5
1
-22
-15
10
-26
4
26
18
-1
-20
8
5
-8
-6
-6
-9
-3
5
-7
1
-11
-11
-15
-3
3
27
4
-10
0
8
-2
-2
-3
-12
-7
7
10
1
0
1
-5
31
10
0
-8
0
5
-4
5
-6
-3
-16
-4
1
-7
-7
5
-1
-5
-5
1
-1
-1
2
-7
5
-3
5
-9
-3
0
-6
-2
-4
8
9
0
0
-1
5
1
-4
-16
-15
-1
1
3
2
3
-8
1
5
6
1
-2
-4
-7
0
0
9
-7
-3
-6
-4
0
12
0
4
-7
1
2
3
1
-5
-3
-14
0
-6
-8
-1
-3
7
11
19
1
4
1
1
-3
-2
-10
-41
-4
1
-2
-1
2
2
-11
-17
-12
-4
0
3
-1
-8
1
17
-1
-3
-5
-10
2
-8
2
-1
1
0
5
0
-6
-4
-8
-6
-7
-6
-17
-7
-3
5
5
7
2
3
14
11
-1
1
2
13
-4
2
1
0
7
-11
10
-1
6
0
6
-1
-15
5
-4
3
8
4
1
0
-3
2
6
13
-2
0
-12
-3
1
1
-8
-20
-8
-6
-3
5
-4
0
-12
-17
3
2
-15
8
-1
-8
10
2
-6
3
34
6
6
-8
-12
18
-9
-5
-12
-6
1
-2
4
-5
1
1
6
-5
-6
5
2
-2
-4
1
-1
6
6
4
4
18
6
2
-16
0
-4
5
5
-4
11
2
-7
-25
-2
-4
-2
-30
-21
-9
-2
9
2
-2
3
-5
0
3
5
5
-4
-8
-11
35
6
-7
-4
-12
-3
15
12
-42
5
1
2
1
3
-9
-22
9
-14
-9
-22
-16
-8
-3
-4
-48
10
1
5
-7
2
0
2
36
-2
2
-2
7
3
5
16
19
16
11
11
9
-1
6
17
24
10
8
-5
-1
0
1
-12
-40
-32
-9
-31
-14
12
-12
-14
34
7
-2
40
0
-13
4
-1
-7
-5
-4
9
21
-2
-1
8
4
5
1
9
1
-4
11
13
50
7
7
-7
5
6
1
-11
-50
-7
-2
-25
-16
4
-10
12
96
18
-1
-7
-19
-3
5
-21
-94
-14
-1
19
28
6
5
7
46
12
-6
-4
-18
-18
-3
-2
31
13
6
-5
1
-1
-13
-19
-99
-65
-32
-13
-13
-5
-6
14
96
53
6
-16
-1
2
4
6
-27
1
8
12
0
-2
2
-11
-23
-31
-3
13
-3
1
5
12
30
26
15
8
20
-1
18
0
-9
-16
6
10
9
6
-30
-29
15
-3
-28
-27
-34
-18
-1
14
31
21
5
0
24
3
1
11
-8
-13
-4
5
-22
2
7
-9
-26
-5
0
-3
-3
-1
1
-4
-58
-13
9
9
14
6
14
-9
-32
22
-2
-19
-8
-7
-12
-2
24
-9
-5
6
6
-6
-8
-1
4
0
-6
-7
-8
-5
-1
13
29
-1
6
0
-6
4
-5
-11
-28
-18
-12
-19
-15
2
4
1
4
15
4
11
10
1
4
13
41
6
11
4
5
-1
-11
-37
-13
-16
-12
2
3
-3
-2
21
25
15
-1
-6
0
1
0
-14
-22
-11
1
0
-1
1
-6
5
-13
5
0
2
-4
-3
5
16
44
16
8
6
8
-1
-2
-11
-5
-23
-5
-2
1
7
-7
-11
-8
7
-5
-19
-16
-11
0
5
9
8
-6
-1
24
0
12
14
10
8
9
29
5
12
-20
-1
12
8
-3
0
-6
-18
0
-3
-25
-17
1
-4
2
5
-3
-1
-15
-3
-3
-6
-10
-3
0
-3
-7
1
-1
-6
3
-2
5
10
23
-1
3
6
4
5
5
3
24
-1
7
2
4
2
-9
-20
-53
-6
-10
-5
-14
-5
-1
9
-1
5
-4
-4
2
-2
-2
-11
-26
-22
-2
-1
-7
1
0
0
-12
1
-1
0
8
-4
2
4
31
12
7
0
-9
3
-1
-8
0
-9
-5
-2
6
-3
1
7
-9
-10
0
-4
2
0
2
-3
-2
10
2
1
12
2
-4
0
17
2
2
4
-14
-3
3
12
-17
8
7
16
0
0
-7
-15
-32
-17
-8
-2
2
-1
-1
2
23
8
-5
-8
-7
-1
-4
-4
-6
0
-7
-9
-3
-2
1
4
-13
-10
1
-5
1
-2
6
9
10
3
5
8
-4
4
-1
-7
10
0
2
3
-2
-3
-5
0
8
-6
-5
-4
1
-2
-1
-2
8
4
0
-4
-3
1
2
8
6
1
-2
-2
1
0
-5
-12
-20
-2
0
-2
-2
0
-2
0
-8
-3
3
2
-2
-2
-2
-3
4
-1
-1
-4
4
0
2
-7
-6
5
-1
-3
0
-3
-1
2
-2
-9
-6
-1
-2
-1
1
-8
-14
-21
-5
-1
1
-1
-4
-2
-2
3
-3
-1
-3
0
-2
-1
-4
3
3
-1
3
1
3
6
26
4
1
3
-1
1
-4
-2
-39
-7
0
0
-1
-1
-2
-9
4
-1
-5
-3
0
-1
2
4
11
3
-2
-2
-5
-2
10
-2
-26
-7
4
2
4
2
-18
1
12
-2
-2
-3
-2
1
1
-8
-6
-6
-6
-5
-4
-4
2
-3
-8
-2
1
1
1
-3
-9
5
10
4
-5
-2
-1
0
16
2
-2
12
15
5
3
1
8
-2
-15
8
11
3
2
1
-22
-3
13
-4
-4
-2
0
1
3
-6
-15
-14
-7
-4
-5
-7
-13
-2
15
-2
-12
-5
-4
-3
8
-5
-15
-6
-4
-3
0
-2
13
0
-5
-5
3
-1
2
0
3
1
5
10
5
4
6
5
17
2
-2
-6
-4
-3
-3
1
-22
-2
2
-1
0
-1
-1
0
-13
1
-6
14
0
4
6
7
-10
-10
6
-8
-6
-8
-12
-13
2
-5
-1
-14
-2
-1
-2
-15
-8
1
6
-1
-8
-4
-2
-5
12
1
-13
-3
0
0
8
11
11
7
-4
6
3
4
4
16
45
2
2
11
6
-3
-6
1
-30
-6
13
-7
-3
0
-1
-6
15
9
-8
5
4
1
-2
-3
-30
-15
-2
-9
-2
3
7
4
9
0
-11
10
-1
-1
-1
2
-25
-1
7
-12
-6
-2
0
-6
-23
-4
-6
5
-1
0
-1
1
33
-12
-7
-6
2
-1
-10
-8
3
11
9
18
-1
0
25
24
61
9
8
-5
0
-2
-38
-8
17
-8
-10
5
-1
1
8
-6
-54
13
9
-9
-5
0
0
-5
-79
-21
5
-2
6
-3
-3
-8
-9
20
-16
2
-4
-8
8
5
37
-14
24
-39
-10
0
-4
-9
109
-9
-21
11
7
2
3
20
-23
14
12
5
-2
8
14
3
33
-24
-2
-12
2
-4
-4
-15
-85
14
-8
19
13
5
1
-1
35
-25
-13
42
0
2
11
21
111
1
-7
-78
-47
-26
-27
12
-11
-37
-3
43
13
2
0
-9
87
1
-2
3
-4
-6
-9
-1
-115
29
7
-9
17
12
14
-15
63
5
-20
31
-1
0
8
29
102
47
15
-37
-4
-2
-1
-2
-111
-70
24
-28
-22
-16
-16
-53
75
-19
-36
8
11
9
-7
-3
75
-20
15
-38
-9
-5
-8
21
-100
17
-18
39
-9
-8
11
8
-72
44
14
-32
-17
1
-3
9
62
63
26
43
49
24
23
32
-71
-19
-46
-35
-15
-11
-22
-54
1
-48
39
-14
9
5
-3
-27
8
14
-3
29
-4
-11
5
13
24
-39
-6
-39
-34
-20
-15
-12
55
62
1
30
16
20
30
40
-24
13
26
-19
11
12
-11
2
4
8
-35
13
13
-20
-10
-29
-125
45
21
33
-13
33
8
-3
19
21
-41
-3
16
12
6
31
-103
-28
-1
-74
-32
-7
-2
-8
127
-8
40
64
55
25
45
33
21
18
-31
31
-12
-21
-2
-6
-70
-7
-18
21
7
-10
-20
-30
9
-4
-20
43
-15
5
6
-2
117
21
-25
69
14
-3
-11
39
-67
-19
28
-7
-18
-26
-9
-35
-30
8
-23
38
26
15
-21
-12
85
-51
-38
-26
3
-27
-3
10
-6
-20
50
-76
-17
-3
-9
9
112
49
18
57
-32
-10
-15
-11
-119
-63
-8
-44
21
8
10
5
-18
2
-21
6
-5
-15
8
-34
-45
-24
-45
3
-20
14
12
27
43
18
7
-43
18
8
-30
-11
-102
-32
50
-42
-13
-12
-2
-56
120
7
-5
53
6
51
29
121
-128
-53
11
2
42
1
14
-92
59
29
-28
-44
-1
-22
-19
-1
-15
12
2
56
-3
4
-11
-10
101
9
-20
-59
36
5
0
27
-112
-10
-9
44
-18
-13
-10
16
35
19
0
-11
-18
-72
-10
-2
23
-11
-28
-20
-12
32
20
4
42
37
38
20
3
26
5
-28
43
58
-15
46
24
14
-17
-15
-128
-102
-24
-67
-15
-12
12
4
-5
-28
27
-43
17
-10
-16
2
-21
39
0
36
-30
-20
-27
-21
127
14
18
-52
-5
33
14
19
2
36
-34
-20
7
-39
8
29
-51
-23
18
17
-32
-55
-56
-35
-81
-3
24
9
29
101
64
-8
-96
-17
-48
3
0
18
36
10
42
-28
-34
-39
18
29
18
37
-59
-4
37
-6
-26
-51
-50
-43
15
10
-31
-19
-4
-40
-26
-25
33
32
36
2
-22
1
-25
-32
-1
33
-22
-77
15
32
35
54
11
-6
-29
82
35
19
29
21
-9
-34
-20
48
-9
-45
-23
15
-59
2
9
-29
-51
-28
-14
-17
41
29
33
-50
-2
12
-14
-30
36
7
14
71
2
-1
15
13
-25
7
32
39
-12
-30
-29
-2
-12
-35
-37
-61
-7
49
23
27
-2
-17
26
44
41
-10
20
-17
9
48
25
-2
1
30
18
-22
-17
-33
29
-9
-3
-12
27
-9
117
15
-20
-2
2
16
-14
3
-26
-21
34
3
-19
9
-17
38
-41
28
4
-70
-29
-19
-6
-55
72
38
-14
-53
29
4
-1
-7
-41
-19
-4
22
7
-27
-9
16
-53
-6
19
-9
-22
3
1
-30
88
-23
-31
-10
23
10
10
58
-120
39
-5
57
38
9
-18
-17
2
-52
-1
31
1
-26
-4
0
-41
8
-11
19
5
13
-6
-14
14
-50
29
-25
-49
-13
-5
-18
76
68
-24
-22
-6
1
23
12
-60
-60
16
-36
9
-26
-43
0
35
3
-10
57
-9
-4
-13
-8
25
-5
3
-7
7
26
24
12
-37
7
-17
45
-20
-10
39
28
-28
115
53
-59
-6
44
-3
-17
-85
-70
11
11
3
-19
-33
-30
72
57
-16
-5
-10
-3
23
20
31
-38
-30
41
37
17
21
5
19
14
7
-13
-2
-31
-27
4
62
-21
5
45
-3
10
2
-9
11
25
21
-36
-6
6
14
3
-4
-34
-19
11
4
-2
-14
19
-48
-8
-30
66
14
-11
0
-9
64
-13
17
19
8
16
10
27
-24
32
-7
-4
12
-14
-28
-38
-26
-20
-9
-72
-40
-15
-12
-17
114
-12
-20
-12
3
-30
-15
20
-128
14
33
-33
-3
29
9
-60
59
-36
-8
23
8
16
22
26
-34
-23
38
-47
-17
5
1
1
-1
74
-22
52
30
17
20
-18
34
-41
8
34
-9
-20
-18
33
-55
29
18
-88
-45
-24
-5
32
-127
-68
26
17
2
17
-14
-60
83
2
-22
26
-20
-17
12
36
-64
34
2
-13
2
-3
11
-4
0
-1
-24
-1
7
-12
-5
-1
19
2
19
-50
-29
13
6
16
17
-13
16
-12
24
1
3
7
76
-19
-30
-4
8
-4
-4
-1
89
-11
13
77
8
7
3
11
-56
-5
-12
-63
-22
-31
-25
-31
34
-9
17
-1
-3
16
26
5
75
4
-58
16
-7
4
-12
30
26
31
9
-11
4
-37
-14
-10
-18
-9
4
2
5
31
-4
-17
-7
34
5
-20
-9
19
16
-12
93
-5
16
-97
-33
-3
-17
-17
-63
-6
-8
84
24
14
19
15
-12
-5
23
51
-7
-23
0
-20
15
19
0
27
1
-17
-24
19
-48
17
1
-39
-45
-7
18
-12
-39
-72
-86
-52
72
31
-22
-9
-27
40
2
38
13
-1
1
27
-110
-19
14
-45
-32
-20
-17
-44
39
20
-9
56
14
0
2
12
34
-14
25
-40
-34
-18
-5
-3
52
9
-5
1
6
-11
-1
5
-70
-37
-4
-35
11
13
-6
-22
55
18
-2
-26
-8
-4
9
-11
-2
-24
-16
41
0
44
31
13
21
88
27
4
2
23
-6
33
111
7
15
-33
-27
-43
5
8
-112
-50
7
4
10
13
8
-44
79
11
-18
93
26
10
-6
9
42
-11
-1
38
-16
-13
-1
-8
1
-11
-35
-103
38
9
3
6
-103
-26
-7
127
24
-14
-12
6
25
41
27
-56
-57
-9
-12
0
-74
-6
-40
30
33
-9
-7
20
-58
9
8
-7
-32
-14
-35
-35
48
0
4
-28
4
-22
-16
1
-28
51
24
2
0
59
29
24
64
3
11
-19
4
-25
-8
-11
-14
-16
6
25
-12
-20
-21
-17
52
13
-10
1
12
-2
2
17
62
35
30
10
10
55
30
-1
38
-26
19
52
1
0
29
5
-54
-58
14
57
6
-4
-13
35
38
7
27
-69
-44
-14
26
0
-57
-38
-12
-30
-3
-16
-32
-23
96
55
-7
73
12
12
24
53
-88
-11
8
-65
-31
-35
-33
-7
-62
-28
-9
33
-7
7
-11
-36
23
-1
-55
-4
51
20
29
15
-72
-3
-32
-4
-18
-20
-38
-7
11
28
5
42
-12
-11
9
4
33
43
11
-54
-24
3
-15
44
-32
10
-18
-18
37
11
56
-42
-25
-50
-10
-6
19
7
-14
51
-7
-3
15
-7
7
49
62
-30
40
39
24
-10
3
-7
-50
7
-29
-54
-47
25
-10
-25
-41
-60
1
17
26
-92
-9
1
47
11
127
23
8
19
17
12
26
22
-14
18
-12
-18
15
18
-2
2
54
-14
-4
-50
-24
-12
4
47
15
29
-5
-1
12
-5
-25
-19
39
-11
-4
44
-6
1
-4
8
-17
-42
-14
42
24
7
38
-20
42
27
-41
15
-67
-40
-37
13
-40
-4
-14
-63
13
15
1
-17
48
-15
-12
-38
14
-5
-15
14
-47
16
-25
20
-5
-14
-8
-9
-78
22
63
-41
-23
4
20
13
-54
-27
16
13
2
-13
-12
-30
51
-14
-60
12
-7
-37
-32
55
-103
-19
47
-9
5
53
38
-23
-80
9
22
-11
6
7
-33
24
51
19
16
15
1
0
10
-32
-18
10
-4
-41
6
13
13
-14
110
9
1
24
-7
-34
-30
19
40
-64
-9
33
25
-19
-3
-3
22
40
9
-21
-23
3
-2
5
-4
-34
-9
-11
-19
-7
-15
-10
25
-7
-26
-19
6
1
13
-3
30
15
-3
51
-24
-20
-5
-9
2
-90
-59
-11
61
16
-5
18
-38
33
32
37
-7
-4
-3
-37
-56
15
-7
0
8
15
7
7
-18
54
0
0
-11
-26
-16
-20
37
-22
-3
-19
-35
-22
15
36
17
49
9
25
19
10
13
22
24
-40
20
27
12
57
11
0
-30
15
21
-14
-7
-23
-14
-46
20
-16
-26
44
6
9
36
45
-113
-6
29
-33
-16
-19
-39
-69
42
46
8
-55
-16
-28
-6
-6
46
-38
-37
-71
37
15
-4
16
-60
2
-4
-7
-29
-9
-8
-35
84
15
15
82
-2
1
16
55
-83
-13
-20
37
4
-12
3
-3
-76
17
6
-9
1
10
-3
-15
8
-23
-11
-39
-14
-15
-21
-9
71
18
1
-29
-10
-17
-17
-11
-22
-85
-35
-29
-10
31
7
-1
28
-7
17
33
14
-1
27
0
35
19
33
-13
-33
-3
-16
-8
-28
-5
-19
64
25
5
-30
-4
107
14
27
13
5
-6
35
38
-128
-24
-36
-21
-12
-18
-8
-46
-45
-21
1
32
8
7
-1
-12
8
-4
-13
-32
-11
6
4
7
82
-28
-21
-22
10
-20
-21
39
36
6
32
43
-9
-9
4
8
12
18
7
-19
-1
9
-21
-53
-25
-40
-28
-35
23
17
33
0
38
51
-3
98
16
-11
-31
8
-42
1
16
15
1
17
19
38
-34
-9
16
-27
-8
4
33
-26
-29
-1
-17
-56
1
-11
-9
-14
-34
-1
-46
-74
-6
13
5
-3
26
-22
36
27
-4
-5
-8
-15
-39
10
-8
37
-6
-6
-7
48
-71
-5
8
-61
-21
21
43
-15
-20
28
5
-37
-11
-25
-3
-30
37
-21
-3
56
0
-7
-32
8
14
-26
25
-4
1
35
15
31
43
-29
11
23
0
-1
7
-4
-108
24
2
86
19
-2
8
6
-71
-46
2
12
-19
-18
-7
-14
53
8
-6
-49
-12
-13
-35
5
-49
23
5
-10
-3
6
15
9
28
-18
-28
-19
-9
1
18
-14
-32
8
28
-2
9
0
-15
-5
-37
39
38
6
6
-11
-10
-42
65
-5
-26
58
-9
2
-11
10
-12
40
22
32
21
-4
3
12
55
-27
-18
-3
-7
-46
9
18
16
40
33
-15
2
70
41
-3
-107
15
8
-64
-15
-5
-25
-15
-32
-37
-22
-77
-36
-13
4
-30
80
66
-27
90
36
16
13
49
88
-34
-20
-5
-1
-41
-19
-7
29
-23
6
10
-5
14
-7
-6
46
13
21
-24
-18
15
-15
-29
-57
-24
-9
-63
7
-1
-10
-9
-25
-4
-28
37
3
-3
-6
10
32
4
13
4
-15
-5
11
-18
-79
-12
21
50
4
-28
-35
3
62
12
-10
-11
-2
23
27
14
58
-36
-12
11
4
0
-24
8
62
24
2
-15
3
1
22
31
-19
-37
14
-26
19
3
3
-30
-49
-4
-16
-29
-15
-4
-15
-25
42
18
-27
-11
-12
-8
1
9
-36
0
4
45
20
4
-3
17
69
15
-7
10
1
-4
9
21
16
1
25
-5
-3
7
9
-9
-91
-18
3
-23
-8
-11
-4
-23
12
6
-11
6
8
5
4
12
-40
7
19
2
1
-3
-7
-6
-9
-9
-1
-9
-8
2
-4
-5
-3
7
-3
-8
-5
-9
0
-1
10
2
-6
4
6
-3
1
-4
-42
-28
-5
-41
-11
0
-3
0
31
4
-2
-3
7
2
0
-1
-11
12
4
20
10
-4
-4
-3
1
-10
-12
13
-4
4
-2
-2
-5
0
-9
-1
-9
-4
-2
2
12
9
11
-15
-4
4
1
5
-6
3
20
-6
2
-2
0
-10
-5
-3
-6
0
7
2
1
0
-2
0
-3
9
-2
0
3
6
17
0
3
-4
-9
-2
-4
-3
-30
-6
-9
-1
-3
-12
0
-7
23
-6
2
-1
1
7
-8
1
7
10
-3
3
2
-4
2
2
0
4
5
4
2
1
1
1
1
-3
-6
-9
0
2
2
-4
-4
-1
-5
-4
0
0
10
2
-16
-4
7
8
5
0
-8
-12
9
-4
-7
-5
-8
-14
0
-6
7
6
2
-7
-6
-3
-12
3
-1
-3
-2
-7
-4
3
14
-7
0
-9
0
10
3
0
-5
1
-2
12
28
7
5
-3
2
-1
1
-13
-32
-8
-4
-11
-2
-1
0
-12
-32
-12
-7
-5
-12
-5
0
-3
0
1
2
1
2
3
-3
1
-4
-6
-2
0
-2
4
6
15
34
9
4
3
-1
1
-4
-6
17
-3
2
-1
-6
-3
3
5
-2
6
-1
-3
1
2
-1
2
18
3
0
-9
-3
1
3
-3
-24
-5
5
15
12
-3
2
10
16
5
-2
10
9
-1
2
-16
-28
-2
-4
-16
-18
7
9
7
-35
-10
0
3
-1
-11
-6
-5
23
-2
2
27
18
-8
5
-3
-6
9
2
-14
-9
-5
-5
3
4
-13
-3
2
1
3
-4
-1
11
22
1
7
-9
4
0
-11
-39
-15
-3
-22
8
6
5
35
69
11
10
21
6
-6
-13
-54
-86
-55
-24
-4
0
-2
-8
-3
43
-2
-6
-1
-17
-2
6
8
-5
25
12
-20
6
-13
-10
-6
13
-11
-6
1
-11
19
20
23
3
-1
9
25
23
-3
-15
-23
-57
-15
-12
-9
-4
-12
-1
12
42
2
-3
-4
-9
3
-4
-10
-45
11
-1
-31
-18
-10
2
17
45
26
10
6
-4
3
5
0
-81
4
14
13
20
12
-7
-4
80
-34
-15
-14
-18
-12
-15
-9
-83
-26
-25
-33
-6
-7
-1
0
70
37
14
28
16
4
17
17
43
5
11
7
3
-1
-4
-14
-78
-13
-5
-14
-7
10
11
3
15
7
6
16
14
2
-5
24
68
-9
-8
4
0
-8
-3
-9
-59
-3
-11
-4
0
9
5
10
10
7
8
-7
-3
3
4
3
74
25
10
20
13
-5
-1
7
-87
9
-1
-16
-17
-4
-18
-26
45
-8
-7
-1
-11
-4
12
28
-44
-8
3
7
6
8
-11
-14
83
6
-12
-17
-10
-2
6
-5
25
0
-1
-27
-10
0
-6
2
72
11
-5
16
20
-5
-1
-8
-94
7
5
11
-9
-1
6
7
72
-5
7
-1
1
11
-1
1
-46
14
1
-3
-12
-22
-1
-4
-17
-13
-9
-26
5
14
3
1
47
10
1
21
13
2
-5
7
-71
-19
10
17
2
-7
-10
-19
9
-11
-6
-10
1
4
-2
6
-31
8
1
-2
-10
-2
-2
-1
38
4
-5
-1
-3
-5
1
-4
-70
-26
-6
-4
2
4
3
5
-7
2
6
0
4
5
-3
-16
8
0
2
1
-5
-3
-7
-16
10
-5
-13
-5
-4
-2
10
0
-7
-10
2
4
-5
2
-8
-3
-70
5
-10
-11
-6
-2
6
7
-49
-7
12
10
3
-8
-5
-8
78
38
-3
-17
-11
2
-4
-3
-21
-3
-3
5
-3
2
11
4
9
-9
5
9
6
-1
1
5
3
1
-1
1
6
3
-2
-4
-9
-1
-4
1
-11
-3
-2
11
33
11
8
2
6
-6
-1
-6
-14
-11
3
0
0
5
0
-5
17
-2
-9
-4
-9
-5
-1
0
-2
-8
-7
-15
-1
-4
2
-6
-15
-7
-6
3
8
2
0
-1
24
8
10
11
-4
1
-2
2
11
9
2
-4
0
-1
-3
1
-44
-22
-1
15
1
0
-1
-4
20
15
2
-7
1
1
-1
-5
17
1
-7
-3
4
-3
9
34
80
20
10
5
3
-1
-7
-40
-87
-20
0
0
-2
1
-4
1
15
12
-5
-9
-9
-2
1
4
14
5
-1
-2
4
-2
1
-1
-50
-13
-3
-2
-5
0
-5
-7
19
-13
-3
0
2
-3
-1
-1
-1
-7
-7
-8
-3
-1
-2
-5
9
2
-5
-10
-9
-1
-1
0
7
0
1
-8
-1
-2
3
9
-4
2
5
25
13
0
-3
-4
-30
-12
-2
-2
3
-1
3
11
33
8
-1
-1
-4
0
-7
-14
-23
-19
-3
-3
-5
-3
4
8
20
16
-1
-12
-6
0
-2
-10
-23
-14
-4
2
0
-3
-4
0
-14
-6
-2
-1
3
-1
-2
1
8
-2
-1
-1
0
1
3
0
23
10
-1
-3
-2
-1
-3
0
31
11
3
2
-2
-1
-2
2
-20
-12
-6
-2
4
-1
-7
-22
-23
-18
-6
2
-3
0
2
14
33
5
2
0
0
0
3
7
36
16
4
1
-1
-1
-3
-9
-59
-15
-1
-2
1
0
-1
-1
-8
-9
-12
-2
-5
-1
1
-2
-1
-8
-2
-6
-4
-2
1
-2
-15
5
6
3
1
0
1
2
19
1
-1
1
1
0
1
3
5
1
3
3
0
3
-4
-7
-14
-9
-8
-6
-3
0
0
-1
-25
-15
-3
-2
-1
-3
5
2
21
15
3
4
2
1
-1
4
2
0
0
2
1
-1
-16
0
4
7
5
1
-1
0
-3
-5
-13
7
1
-2
-1
-2
1
-4
3
-18
0
-1
-1
-2
1
-2
7
4
-3
-2
1
-2
15
8
1
11
5
1
0
2
-11
0
-9
-3
-4
-2
-1
1
-1
-7
13
13
2
0
1
-3
0
1
-8
-2
-3
0
0
0
1
4
-16
-18
-7
-4
-3
0
13
-3
-6
-9
-7
-3
-2
2
0
1
-8
19
10
5
4
1
4
2
13
12
2
3
3
1
-4
0
3
6
2
-1
-5
-2
-4
-4
-10
-11
-4
-2
-3
-4
-10
-4
5
-2
-1
-2
0
-3
4
-4
-7
-6
2
0
1
0
15
3
-3
2
-4
-2
3
0
20
5
-2
6
5
-1
1
2
-10
-6
3
-5
-7
-3
-1
-3
-12
-10
0
-9
-2
-4
-3
-8
10
1
5
-7
-1
-1
0
-2
2
1
-9
6
4
6
3
2
3
4
5
16
1
0
1
4
20
6
-17
-4
1
-1
-1
3
-17
-6
3
2
-2
-2
-1
0
0
-6
2
-10
-5
-5
-8
-6
-17
-4
-12
-6
-2
-2
-1
-5
16
-4
2
3
0
1
-1
-1
-15
5
10
7
0
1
5
2
23
3
-10
-5
0
2
1
7
-11
-3
-5
-4
-4
-5
-3
-4
-14
-1
15
-9
1
1
6
0
12
-2
-6
10
2
-3
-14
-5
-24
-1
0
-14
-4
-1
8
-6
8
7
-3
13
1
-1
-13
2
-23
5
7
-2
-7
-3
0
1
22
-11
-12
-15
6
7
11
6
-87
-12
8
2
-5
-8
-11
-17
25
-1
13
4
-6
-4
6
2
-47
-12
-10
2
4
-4
-10
-11
18
9
-24
-8
-2
4
5
4
-15
-2
-5
6
-5
-5
-5
-1
99
9
-18
-16
-1
7
4
10
-36
-15
-5
-14
-11
-9
-8
-13
32
-1
17
68
28
1
4
32
-50
-26
-16
-42
-14
-14
-16
-47
-10
43
85
33
10
7
10
-20
55
3
-46
-33
-29
-11
-5
39
-106
-17
-22
-37
-22
-5
1
-30
80
-3
-51
42
14
8
33
48
-11
12
18
0
5
-11
-50
-14
29
5
11
13
5
12
14
2
62
-8
1
2
-13
-13
-8
11
-53
0
12
-36
-11
-9
-16
-22
38
-26
-26
7
-10
29
37
-21
48
57
39
6
32
5
3
24
-72
-34
-28
-31
-16
-6
-7
-26
63
4
14
42
6
-2
-7
12
98
13
-29
-60
-15
-19
-1
21
-89
-32
-10
-5
17
-2
-7
-41
81
56
15
23
-12
9
13
26
-60
-49
-17
17
9
5
-3
1
-37
-26
20
26
-20
-9
-9
-6
35
0
-36
-70
-4
-3
-5
4
-90
20
18
13
5
4
-2
-16
102
-15
1
-39
-1
-17
1
36
-46
26
17
10
5
7
-10
-2
-60
-22
14
11
-8
19
13
-17
30
-16
-26
10
16
1
-12
-14
-21
-45
20
-49
-19
-11
-4
6
3
21
-19
-33
-1
-10
16
-7
8
47
27
49
3
-11
-5
-11
88
-11
-22
-75
-28
0
-11
29
-10
0
5
87
54
30
2
1
-87
-31
-13
-37
-30
-36
-21
-23
-7
17
-11
71
15
6
16
-11
78
35
44
53
0
9
9
54
-2
-29
-4
-56
-14
-17
-9
-39
67
-15
-59
-50
42
24
20
36
-78
-70
26
64
11
-3
-11
2
-6
-7
-10
-37
-19
-14
-15
-35
-18
70
-2
-26
14
17
20
-12
-17
29
6
64
17
4
-15
-9
127
-46
-29
-8
-8
-10
2
8
14
-7
5
6
12
-10
9
12
28
22
42
-35
-24
17
20
49
-92
-47
-9
-10
-7
-9
-5
-52
82
5
-11
9
-7
-4
-15
15
-110
17
26
8
-3
-5
-8
-17
52
29
-25
-27
8
22
23
1
-14
-38
0
-47
-20
-13
-14
-14
-101
-13
18
23
-5
-3
-21
-22
-13
-49
-49
29
8
-4
0
-26
60
46
57
-16
-14
-5
13
61
-55
-45
-28
43
-15
-1
2
8
3
19
0
-126
-9
-6
-13
-13
-30
3
11
13
-5
1
7
-26
-48
-19
-23
52
5
-5
-32
-17
-38
49
-4
2
-13
-1
5
-3
63
45
8
55
15
19
35
43
-42
-39
21
-25
-20
-19
1
0
14
38
4
21
-5
-24
-28
-39
-50
-17
-25
-27
-2
14
5
14
84
51
37
-1
-25
1
-18
20
-68
-22
-62
-72
63
27
24
-21
-105
-46
3
30
-10
-20
-16
-37
71
44
6
11
5
-10
1
37
50
-17
-15
30
1
2
19
28
-42
35
43
20
-13
-8
-30
-22
-32
-6
-14
-23
-2
0
-4
-22
64
-26
-44
14
45
18
5
13
-32
-21
-8
-24
-1
-21
-18
-20
4
8
35
2
-3
-1
8
-7
-14
-9
-16
25
0
3
9
44
-37
21
45
-56
-25
-2
-3
-41
-21
-11
14
-14
-48
-12
-4
-18
-61
18
-44
-4
31
19
12
57
15
7
22
43
15
3
16
9
1
-12
2
1
-4
2
1
7
-39
-11
-4
-38
-11
-1
-17
-46
-12
-9
-6
6
-18
-14
-8
-18
127
12
-14
-8
0
6
7
25
-54
-53
16
37
12
-1
-19
6
-56
8
-2
-10
16
1
31
-9
127
33
7
7
4
9
11
4
1
-58
-14
19
1
-8
-6
16
-28
25
18
-31
-6
-9
-4
-42
1
-23
-17
30
15
7
-1
19
24
32
13
-21
-25
-12
-12
5
-24
-7
-16
8
5
-1
2
-11
28
8
17
21
-10
1
0
1
7
7
-30
-4
8
1
14
18
-88
-2
42
29
4
-3
-17
-11
43
7
-11
-57
-19
1
-7
-19
12
-14
-10
36
7
-7
-1
9
2
52
18
16
4
7
5
0
34
-48
-31
18
11
1
2
19
-23
20
20
14
-3
-10
-13
-19
36
30
14
11
3
-2
4
-5
-41
-1
4
-8
5
-2
-3
9
-10
-24
-10
-46
-3
5
-2
-9
-30
1
-9
-1
-7
-1
0
-27
37
9
-25
7
0
4
8
44
-43
11
28
-33
-8
-1
16
11
36
-12
0
-22
-1
4
-8
9
-43
14
-11
16
2
-3
-1
-18
6
15
1
-13
-17
-6
2
8
75
-27
-22
8
21
7
-9
1
7
8
19
63
2
-2
7
14
-27
20
21
-15
-19
-7
-2
-1
28
-37
-51
-10
7
1
4
-12
-17
-6
10
9
0
-1
-8
4
48
-6
-4
2
0
-4
3
-2
-52
28
37
-55
-13
-3
3
-16
28
23
10
48
24
21
28
24
-31
-7
-18
-1
-14
-14
-34
-34
77
-24
6
-12
0
4
7
25
29
6
-9
4
-3
-1
-4
20
-49
-15
10
-11
-2
3
-9
-45
79
6
-2
-10
-3
22
20
-6
-100
-11
8
-31
-16
-15
-1
-16
56
-7
-22
4
6
2
-4
22
-53
-19
7
0
-6
-17
-6
-2
-128
20
-8
-14
7
3
-5
-38
94
21
6
-22
-12
-6
-11
13
-4
11
-13
6
14
10
10
7
1
-35
2
-28
-9
-4
7
-11
45
-5
-22
47
12
-1
-20
27
-66
0
15
4
3
12
14
-12
-21
9
6
25
25
3
-2
-14
1
20
19
-25
-8
-2
6
10
9
4
-10
1
-4
-3
-19
-1
37
3
6
10
4
3
15
19
21
14
3
-1
-4
3
2
-15
5
-5
-2
-7
-1
-1
-1
7
29
-12
9
-8
-3
-5
15
17
-38
20
-22
11
-2
-3
-21
-29
29
-27
3
11
-9
5
16
24
-14
24
-5
-19
1
-1
-20
-4
73
1
17
-14
14
9
25
6
-38
-8
30
-38
-24
-10
-9
-4
-16
-17
-35
56
8
5
-4
-16
115
34
-2
5
-4
-5
-9
28
-95
-23
20
-6
-17
-19
-7
-13
19
-2
-41
47
24
4
-1
-18
-66
-35
-10
-24
-10
-5
-13
-10
-13
-14
4
20
3
-1
-9
7
-7
5
8
-9
-8
-4
5
-9
-5
22
-1
-19
-3
-5
5
41
-26
-22
-5
-17
-9
-7
-4
-40
4
9
-12
32
9
5
3
16
-12
-4
1
3
0
9
-1
-19
-4
12
-1
-49
4
-7
1
0
51
15
1
12
6
-2
-2
40
-11
0
21
-27
-9
-2
5
-15
43
-8
-32
-17
-1
-4
-4
10
28
-20
7
36
1
-3
-11
-21
-86
8
15
-34
-7
7
1
2
36
5
4
35
9
4
16
0
5
20
-8
17
0
-5
-13
-11
13
-6
-5
15
-3
0
-4
-2
20
-11
1
-21
-11
-8
-14
-1
-22
-10
-17
9
15
11
1
-1
-17
-15
15
-6
-10
-3
4
24
-9
-2
-1
26
0
2
28
-6
25
27
12
4
-1
-1
-18
-13
-84
-1
0
-16
-12
-10
1
-13
56
-4
-9
6
-9
-8
-15
18
-103
-3
16
-16
11
-4
-6
-32
25
-39
-14
8
0
-6
-6
15
12
28
-8
8
-1
25
19
-5
6
4
5
-14
2
-11
-11
-3
27
14
-7
3
-7
22
5
6
27
2
-13
-5
-2
-9
-4
2
-21
-10
4
-6
-11
-14
-4
10
-25
16
1
47
19
12
21
6
-44
-19
-19
1
9
-7
-10
-17
10
31
11
20
4
4
1
0
27
-28
3
-26
-15
-13
-9
-2
-47
7
-9
1
11
0
7
15
126
-12
-6
7
-9
0
20
-11
-53
-26
10
-37
-5
-6
-26
-19
-5
-17
-6
0
7
-7
-8
6
94
19
14
-16
-12
-3
2
4
-43
3
-8
-36
-15
-9
-10
15
0
-12
-15
39
6
8
22
3
-57
7
3
12
0
0
-12
-2
-7
-4
3
-16
-1
2
16
-7
-27
-2
1
-7
-6
-9
-15
-8
56
15
0
-12
-4
2
9
7
14
13
8
-40
-6
-4
-15
3
-55
-17
-3
20
18
5
10
-5
-8
25
-15
-2
-6
-3
2
-4
41
-36
-12
-10
-1
-2
-3
-19
5
2
-6
15
-6
-3
4
1
43
-23
1
-36
1
2
-8
-3
-55
-7
20
15
4
-5
-9
5
68
36
-2
19
9
12
17
7
-90
-16
-8
9
-2
-7
4
-17
0
-3
-1
-2
-14
-1
-8
-14
37
-10
-11
-2
-1
18
4
43
23
-20
-1
-32
-12
5
7
-21
-8
-20
-4
7
21
6
1
-11
2
3
-2
-15
-14
-16
7
5
15
12
-4
22
2
-6
-13
14
-44
15
2
1
-3
3
2
-5
53
-13
15
-17
-5
-6
0
-4
-30
-4
-11
6
7
5
-2
-16
27
0
-2
-2
-1
-6
-4
7
-64
8
-3
17
-4
-6
-1
4
27
-2
21
-3
-2
-2
-3
10
-37
-16
-14
7
-6
-7
-9
-3
21
-16
-4
-12
1
-7
6
12
41
24
2
8
4
1
-6
-5
-3
33
-4
27
5
14
8
3
11
-10
-3
-16
-8
0
-13
-1
-46
5
18
7
8
13
6
-15
21
-36
-25
-16
-6
-9
-2
2
19
11
10
-6
1
-3
4
11
35
11
-12
43
-5
-4
4
8
-35
0
4
-11
1
3
-24
-23
-2
-12
1
-9
-4
-12
10
26
-5
-2
-3
-6
4
11
14
7
-17
18
9
-26
-12
8
-7
-17
37
-22
-1
41
13
8
5
-3
-7
38
3
15
-7
-15
-20
18
35
-24
-15
-7
-10
13
8
-20
-53
14
31
-26
-9
-8
-2
-9
87
2
-21
50
18
5
-5
-2
-7
20
27
3
12
6
22
20
35
-35
-15
-3
-10
-14
-7
-4
-33
0
-11
6
-6
8
1
22
23
-9
6
-72
-22
-8
-7
-40
-61
-51
13
38
6
3
-9
-11
32
16
-7
16
7
-15
-9
2
21
22
17
12
9
17
11
14
-18
-28
-34
-42
-1
0
7
5
13
6
-12
27
-2
1
-23
-7
9
26
25
-18
2
3
20
21
-78
-8
-1
17
11
-7
-23
-23
73
13
-3
0
-1
-6
6
31
3
-64
-24
-36
-16
-9
4
-5
-20
8
6
-12
-8
8
-8
-19
34
-1
-9
0
4
-13
5
3
-54
9
-1
-3
-3
3
0
-8
-15
18
-5
-6
4
7
-14
1
-59
-5
-2
41
0
-10
-18
-22
100
22
-6
-31
-2
21
45
39
-57
-54
20
10
3
-22
-18
-33
3
16
-6
-9
-3
-4
17
8
18
-18
-23
22
4
4
-13
-5
-35
-6
-5
-5
-11
-12
-19
-34
22
9
18
11
-2
3
7
20
-7
33
0
24
5
4
2
0
-42
8
-5
1
-1
-5
1
-11
105
-29
-21
9
13
-1
-2
14
-34
-7
10
-4
-5
-4
-3
5
25
18
8
-4
-4
1
11
-8
7
2
-10
-17
3
0
-4
38
-29
8
7
0
-7
-9
-11
-61
4
7
-19
-3
-4
-6
-8
7
-26
7
-4
-10
-1
3
0
-25
9
-10
2
-5
3
14
-2
12
-12
-5
10
-2
1
2
2
15
-14
14
3
-5
-5
-16
0
13
-1
-13
-10
-5
-4
15
4
-26
44
2
9
-2
-3
-7
2
12
-21
-23
-1
-9
-1
-3
-9
-10
14
23
5
0
-3
1
-4
-8
14
-3
-14
3
3
-8
2
12
-3
0
0
3
-1
-1
2
-1
-21
-8
1
7
3
2
-2
5
6
9
0
-8
-4
1
7
-4
2
10
11
0
1
1
-1
10
-12
-14
-11
-7
-1
-1
1
-11
-6
-7
-4
-6
-5
-7
-5
-1
3
14
7
-6
-4
2
0
-4
-2
-11
-1
-5
-1
1
-1
-2
0
4
5
0
-2
-5
-3
-7
-6
-3
-5
1
-3
-3
1
5
3
3
-4
4
2
6
2
-3
1
5
6
0
3
0
0
2
4
-8
-7
-6
-1
-4
1
0
-9
-4
-1
2
1
0
-1
1
-6
1
1
-1
-4
4
0
-3
3
-2
-3
-5
-2
-4
-2
-1
0
5
2
-2
-2
-5
-1
-1
-12
-1
1
-1
-2
5
5
-2
5
-6
-11
-4
-3
0
-4
-1
2
2
-1
-1
0
-5
-1
-1
-2
3
-1
-1
-3
-1
-2
-4
-9
-3
0
1
-2
-7
-4
0
4
-1
-1
-2
1
1
9
6
4
-3
-11
-1
4
4
7
4
-12
2
8
-3
-1
4
-3
-6
2
5
14
2
1
4
5
1
1
-2
-2
-5
-5
-5
-8
-8
3
-3
-14
3
1
1
-3
15
-10
-7
1
-3
0
1
4
-6
-1
-3
-11
-7
-6
-3
-5
1
-7
7
31
8
-3
-3
3
-10
0
4
-11
-2
0
-13
-12
-2
3
-8
-1
-9
-8
8
9
1
-1
0
29
7
3
2
0
5
-4
-11
-67
-18
-5
-13
8
-4
-3
-6
10
2
3
33
1
0
3
1
-13
-3
-3
-16
-8
-3
-5
-5
-18
-6
-7
-9
-12
-3
6
10
42
15
6
10
16
5
-3
-11
-11
-5
-2
-20
-21
-7
5
15
31
17
9
-3
-12
2
-3
-15
-41
-5
-3
-5
3
-5
7
20
-20
-13
8
22
24
12
-13
-21
-38
-11
-10
-15
4
-15
0
-12
-16
-10
-13
19
3
7
9
17
43
19
2
-18
-19
-2
-7
-2
2
-5
-3
-9
-18
0
10
19
51
7
7
9
16
-1
-1
-34
-56
-27
-17
-29
-7
-3
-2
5
39
21
9
21
16
-2
1
-2
2
-12
-1
4
-5
1
-8
-4
6
13
-6
-12
-3
-1
5
22
43
24
6
-12
-16
-2
-2
-16
-18
-5
4
24
19
-2
-5
-4
-45
-42
-18
-5
-11
1
9
25
28
11
8
3
4
4
-14
-29
-1
-1
-11
-20
-11
-1
12
9
57
27
5
-9
-5
4
0
-5
8
6
3
-4
3
1
-22
-13
-57
-23
-5
40
22
-24
7
30
62
1
8
11
8
9
0
3
3
11
0
-9
-9
0
1
2
-5
1
-2
-14
-15
-3
3
-15
40
11
-5
-11
-2
8
-5
4
19
1
4
6
1
-8
-10
-32
-106
-35
-15
-9
-5
-2
-5
-2
-3
4
-6
-4
1
1
4
13
7
3
5
1
-3
1
4
-1
24
1
4
5
6
-4
4
7
-23
-10
-1
-11
6
2
-2
20
85
58
6
9
-16
-5
-5
-26
-76
-49
-10
-10
-1
-1
-17
-28
-42
-8
-13
-13
5
1
18
9
-40
-29
-10
-4
-15
1
-8
-10
-2
11
5
5
1
-4
4
13
25
3
4
2
-6
3
11
17
-42
14
11
13
18
0
-12
-5
38
-5
-8
-7
-4
-5
5
8
-2
0
5
12
13
0
5
-2
-14
5
2
-14
-12
4
-5
-16
-10
-17
-12
-1
-3
2
-4
9
53
19
2
-3
-4
-3
4
1
-11
-11
-1
-3
-6
2
0
5
17
7
2
-2
2
0
-2
2
-2
7
6
7
4
-5
-1
5
-4
-12
0
11
6
1
-5
-9
-2
5
-6
-11
-8
-2
-2
-5
13
4
-5
-6
10
0
7
13
27
8
8
7
-1
3
-3
-13
-32
-8
4
3
-4
-2
-1
0
-19
-20
-2
-4
8
-4
1
2
29
18
-4
-3
-10
-2
4
1
-14
-14
-1
-2
-2
2
-4
10
23
3
-2
-1
2
-2
-1
-8
-12
10
5
-1
-2
-1
1
-2
25
10
2
2
1
0
3
5
-36
-6
3
3
2
1
-8
-5
23
-4
-6
-3
-6
-1
-1
-2
27
16
0
-1
4
-3
-2
-6
-66
-22
-3
-5
-4
1
0
6
51
-2
2
5
2
0
-3
-10
-38
-8
-3
-2
-3
-3
1
3
35
9
-2
-4
-1
-2
-2
2
-26
-10
-7
-1
1
-1
-4
-2
18
7
-5
-6
-5
0
2
2
3
2
9
4
5
1
-1
2
-2
1
-1
0
-3
-1
-1
2
-32
-13
1
1
-2
0
0
-1
-5
-4
-2
-4
-9
-2
-1
-1
3
-7
-10
-1
1
0
0
-4
10
6
10
2
3
-2
-1
-2
-26
-1
0
0
-2
-2
-1
-4
-13
5
1
-3
-3
-1
-1
4
12
-5
-1
0
2
-1
-1
-9
-28
-9
-6
-1
-3
-1
-1
1
37
5
-5
-3
-4
-1
1
3
-16
0
1
-3
2
-1
-4
-1
-10
-5
-2
0
1
-3
-1
-5
-21
-12
-3
-3
-2
0
0
-4
15
0
0
0
0
0
1
6
-8
18
5
3
1
1
-4
-4
2
0
1
-3
-1
-2
-6
-6
-9
-6
-1
0
-1
-1
-2
1
5
2
1
2
0
-2
3
-4
-1
-12
-9
-5
-3
-3
-5
-8
-14
-6
-2
-3
-2
-1
5
6
-4
-8
-5
-3
-1
1
-6
-1
6
20
4
1
3
-3
0
0
2
-5
0
0
-2
-1
3
-1
-13
1
-4
-2
-1
1
-3
-1
-7
-5
-1
-1
0
-1
5
2
25
9
4
2
-1
1
0
-2
-21
-11
-1
-2
0
-1
0
2
0
6
4
4
0
3
-13
-3
5
15
-4
-4
-4
0
11
-5
2
-22
1
-1
-2
-2
-29
-5
-3
5
-1
0
-3
-4
-12
3
-4
3
-1
-3
1
-2
0
-5
-1
-9
-3
-1
-2
-2
-4
3
4
8
-5
-2
4
-3
-6
3
-7
1
-4
1
4
5
16
-3
-1
-9
3
0
-7
0
-8
2
14
-11
-2
-6
-9
-10
-3
-12
-21
-11
-4
-5
-1
-4
10
3
12
3
0
-1
3
-2
-7
2
3
10
1
0
2
3
1
-1
-10
1
2
3
2
5
18
0
5
2
0
-1
-1
1
-9
0
-10
-3
1
0
-3
0
-7
-5
3
-1
0
0
-1
-4
-19
-8
-3
-1
-2
-4
-2
-1
-11
0
6
0
-1
-3
-3
-9
-9
-1
-2
-21
-8
-5
-4
-4
16
5
3
10
0
3
1
3
37
8
-12
5
7
5
-3
6
-20
5
9
6
-2
-1
0
5
26
-10
4
3
1
-3
-2
-1
-50
0
12
-12
-4
-4
1
-8
-7
-2
-14
2
-4
0
1
-4
35
-2
5
-19
-5
1
0
6
-12
3
-1
29
13
6
1
9
-8
2
-2
-3
-5
-2
-3
-13
17
5
-4
11
1
-2
3
0
-3
-8
6
-2
-3
-4
-3
-9
-23
-8
-7
-10
2
3
-2
-1
75
4
-17
-24
-10
-8
-5
8
-9
6
10
13
2
3
2
2
-73
-3
-2
-3
-1
1
7
-11
57
0
14
-35
-14
-6
-7
-9
-10
-6
-14
56
20
9
12
15
-17
26
45
-39
-8
-1
-17
-8
-81
-23
-36
12
-1
-4
3
-1
25
18
1
19
17
9
11
29
20
-16
26
-57
3
-10
-8
-26
-82
0
0
-46
-50
-13
-7
-24
90
-16
2
75
44
20
9
30
-113
54
0
-4
-20
-13
-6
-37
21
-47
-57
-43
-11
-4
-12
0
83
-1
24
-11
-13
0
1
2
-65
8
14
48
23
10
3
6
23
-1
20
31
14
3
16
11
-82
31
17
-53
-21
-7
6
-16
-77
-40
-53
71
24
12
7
34
38
-6
17
-30
-25
-16
-30
-30
-39
44
6
9
17
3
0
-15
0
-31
-2
-41
-26
-14
4
15
-118
-35
-85
68
56
12
-3
-28
127
23
16
8
3
-5
1
44
-117
-79
25
-32
-21
-11
-7
-16
-39
46
27
13
11
29
-1
-28
127
-77
1
2
-9
-26
-15
40
-120
91
20
-37
-10
-8
-3
-41
112
38
1
8
-12
0
4
9
-79
-102
-21
24
25
15
20
41
96
86
17
-19
-4
3
-4
-28
-82
-49
-14
-105
-37
-18
-9
-23
70
-74
-22
84
7
-12
4
50
-93
117
39
-7
-16
-14
-21
-14
-94
20
-14
-51
22
43
24
-22
127
-10
-48
32
25
15
-3
47
-110
-15
29
-14
-18
-27
-24
-60
127
-20
4
78
21
3
1
21
-66
-2
20
-14
-13
-15
13
2
-60
-6
29
-14
-8
-30
8
-36
127
40
-34
-20
-3
15
-12
72
-121
-29
-18
29
32
34
15
-18
40
-10
34
-33
-22
-30
-16
-37
32
21
-31
6
-3
14
20
-5
-66
-1
-22
24
-7
9
-19
5
8
-16
56
-64
-24
-37
-25
-24
73
-28
-37
34
10
1
-2
0
17
5
-7
34
-14
-24
-23
12
106
-57
-10
-36
17
48
35
8
-38
52
21
0
-11
-4
14
1
-12
-14
2
18
17
14
8
8
-9
-24
-20
-28
-14
-24
-20
-29
11
-2
-12
28
-1
9
13
17
65
28
-16
32
3
2
-18
26
-96
8
44
-88
-37
-25
20
-14
64
5
-23
98
40
29
8
3
-89
-29
-22
-37
-2
-15
-9
3
36
-30
-19
-24
0
-9
0
-13
-4
65
5
1
-9
5
0
3
-65
-21
11
-115
5
25
-2
-15
-17
38
-20
63
16
-17
-5
33
-26
-31
29
7
-3
-27
-12
-4
57
13
-16
-26
3
10
-11
7
-42
-36
-11
51
3
35
22
-19
52
72
-3
3
-17
-30
-28
-3
34
36
0
34
-2
-2
30
-1
15
-18
1
17
-4
-13
-31
-18
13
1
35
-23
-17
5
22
15
-3
-4
-6
-53
-12
10
-5
-42
68
9
-42
46
1
-8
-7
36
-42
-81
-17
15
1
-12
-4
14
-40
3
13
12
-18
-16
-32
-14
73
-25
7
-54
-28
0
24
6
27
19
-6
-16
34
18
-6
-20
2
9
-7
40
18
6
20
33
-60
18
23
-18
-26
-19
-34
-5
11
-49
-14
-1
-6
-14
3
-22
-1
0
-2
-80
-46
24
4
3
-3
39
-41
72
27
5
-5
9
-19
20
35
31
7
1
21
21
-10
-37
39
-66
6
2
7
-52
62
9
-14
-6
-17
-10
-7
26
-113
-3
-2
-4
-4
-16
-9
12
37
31
-25
-9
0
-17
-14
8
65
-7
-21
57
30
41
46
28
-5
15
40
-42
-21
6
-6
-59
102
-7
6
-30
-10
11
27
14
70
6
-2
-3
11
8
1
17
-24
10
-10
-26
-11
-25
-10
1
-8
-1
-9
77
13
2
-30
-3
70
1
33
-34
-6
14
17
5
-76
1
-27
64
20
-13
-18
-21
-20
48
8
40
46
17
2
0
-38
-108
-4
-31
-6
-7
12
21
-75
4
-13
-54
-25
-12
-21
-26
-81
-42
-18
-20
-4
3
20
5
57
77
11
29
-13
-20
-31
-23
-21
12
1
4
17
5
13
32
-10
-15
-11
-33
-11
-6
-31
-3
127
18
-22
-8
-3
2
20
13
-36
-27
20
-18
-1
12
25
-6
-80
13
2
-35
3
5
-23
-14
-63
6
-9
33
-1
10
38
-16
50
16
8
-31
-20
-7
-12
-2
-8
-37
11
-74
-20
-24
-21
-7
-7
66
-1
57
26
-1
18
7
-27
-2
-16
41
4
-4
-21
-23
22
-37
2
-13
0
4
6
38
-33
16
-11
73
29
4
2
-28
8
-39
-15
32
11
-2
-8
-4
-4
3
-22
-10
7
2
0
4
-39
-26
24
14
-4
1
16
-4
53
5
16
-25
-20
-6
-38
23
-61
7
-15
-19
-11
-12
5
-26
48
-2
11
32
20
24
15
10
16
-11
-29
7
0
2
-1
8
-53
13
13
-14
-7
-6
-20
-32
-38
-27
-2
-2
-4
1
16
22
15
25
11
-35
-4
-2
7
-24
-34
-39
15
-110
-34
-24
-9
-27
-10
25
-18
-1
6
17
29
33
38
-12
2
44
21
-7
-30
10
19
24
16
13
-13
-21
-5
-10
-45
-17
-30
-60
-9
5
3
13
-22
-23
-24
20
15
-2
-11
-21
74
27
-19
-26
6
-2
-3
-5
-18
-20
7
9
-1
-2
-1
9
-19
78
48
-44
-17
-5
-21
-21
-25
-25
-11
-3
-5
-2
2
5
19
25
-7
-18
-26
-29
-10
-10
-10
6
-11
86
32
33
0
-14
27
-42
-12
29
16
-18
-9
34
22
0
25
-6
5
53
42
15
17
-20
7
-25
0
-10
-14
0
66
-3
12
-3
-19
-9
7
25
-10
8
-15
34
16
-3
5
-28
-72
-9
-1
2
-3
-13
-32
-14
-7
-58
-39
-44
-25
10
10
-10
23
6
-3
-43
-5
-16
5
34
3
8
-2
35
3
-1
-13
-29
-6
-17
10
-57
-30
-10
-6
-2
-39
5
9
-31
8
10
-15
-17
4
17
5
26
3
-7
-12
-7
-24
-11
-2
-42
-6
-2
4
14
-23
25
-20
47
-8
-18
-8
-13
32
-53
-1
40
11
12
17
5
-23
-39
-4
-21
1
-7
-6
29
36
18
12
11
-11
8
-2
-46
-48
-33
8
-7
-11
-17
-9
1
-42
30
-10
-4
-2
22
34
-3
-27
13
10
11
-2
-43
-60
2
13
-60
-8
18
6
55
66
-16
-39
29
3
-24
2
2
-16
0
1
34
34
12
1
0
12
20
43
17
20
-77
-27
-11
-1
-22
1
34
34
12
1
0
12
20
43
17
20
-77
-27
-11
-1
-22
16
-11
-29
7
0
2
-1
8
-53
13
13
-14
-7
-6
-20
-32
-38
-27
-2
-2
-4
1
16
22
15
25
11
-35
-4
-2
7
-24
-34
-39
15
-110
-34
-24
-9
-27
-10
25
-18
-1
6
17
29
33
38
-12
2
44
21
-7
-30
10
19
24
16
13
-13
-21
-5
-10
30
4
18
16
6
0
23
32
22
-10
-3
10
-11
2
-11
-33
-13
24
0
-41
2
-10
-13
-3
20
11
-11
-67
-12
3
-2
-9
-14
-12
-24
115
4
-4
-7
22
-34
-33
-3
-24
-20
-10
17
-17
44
13
2
-24
-4
-1
-7
44
5
-16
5
25
7
-2
11
7
-29
33
-5
-47
-14
3
-6
-25
9
3
-11
35
18
16
-1
-2
31
29
11
17
-4
-15
-9
16
8
-14
8
2
4
37
16
-7
89
-42
-19
-61
7
3
16
-13
-99
43
-3
47
30
19
16
0
70
10
11
-10
-20
-12
13
13
-13
-5
7
29
16
-11
-4
35
0
25
-1
26
-35
-17
-28
-25
7
9
-27
2
-2
6
6
13
19
1
19
-5
3
-3
-16
-3
-57
-38
-7
17
-8
-4
11
-10
29
36
16
9
-8
-4
-21
9
-57
-29
-6
-24
-5
-7
-11
-7
-15
27
17
3
-8
-1
3
5
71
-9
-6
-2
-1
5
-3
13
-18
19
12
-14
16
-1
2
-29
36
-25
-31
6
-3
-10
-9
-21
-2
-33
13
0
8
12
-4
28
26
6
0
-29
2
2
1
-40
82
17
-9
20
13
13
-3
24
-90
-17
21
-69
-9
-7
-6
-10
-30
-1
-11
11
-4
1
6
-13
28
-20
-7
-22
-4
-27
5
11
-54
-11
-10
19
-2
2
-18
-4
115
39
11
-8
-8
13
11
20
-27
-75
-14
8
-7
-8
10
-6
-61
-11
-10
-47
-7
-6
-26
-14
-5
24
3
11
-2
0
15
17
15
-5
-6
40
5
-1
-10
2
-15
15
35
-43
-18
-3
10
-12
-13
25
-5
58
26
9
-4
-4
1
-33
-12
1
-2
-19
-8
0
74
5
-8
28
-4
1
12
8
-88
0
-5
3
4
4
-26
3
-20
27
24
-10
-4
19
4
8
-17
-21
5
-31
-1
-6
7
-5
37
0
3
13
4
-2
-6
12
-18
-43
-25
-1
-2
-3
4
15
8
53
-4
11
-9
-5
17
41
-104
-25
2
-9
6
-7
-12
-40
18
7
19
-22
-2
5
16
-8
-7
-5
-2
32
11
-4
-8
-33
34
21
-3
40
-8
1
-7
19
-23
-40
16
-28
-14
-4
11
23
-18
20
-19
-28
-3
1
-8
-33
-25
-12
-17
52
23
5
-8
27
-10
25
13
-13
-6
-11
-3
-30
15
-18
-4
-5
-19
-6
-3
5
83
-11
-25
10
20
9
5
30
-94
-3
21
-21
-10
3
7
-31
31
-11
5
-4
-3
-9
-16
-22
14
10
-12
13
7
0
0
-6
66
-8
-4
-7
-14
-3
10
31
32
42
12
-1
-4
-19
6
4
-11
-51
-18
-37
-9
7
-15
-51
-19
32
12
-8
15
19
14
-23
-62
-36
3
31
7
7
10
24
123
41
10
-16
1
8
19
43
-18
-25
-10
-29
-14
-15
-17
-6
8
35
-7
-25
-25
-10
-7
-14
-45
-16
-5
-18
9
-1
3
-1
13
10
3
21
-1
-1
-12
-20
-22
8
-3
2
7
-4
-1
0
44
7
-17
5
-3
-1
-8
12
-52
-7
20
5
-9
1
-4
0
55
-8
-18
-36
0
0
4
-2
-61
-12
-2
9
6
3
6
13
-20
-7
10
8
-7
-8
-8
2
-1
-10
13
-13
-7
-5
3
-15
-11
17
-8
9
5
14
8
-7
28
17
5
-12
0
-5
0
15
14
-30
-14
42
14
0
-6
-4
2
4
4
-15
-2
-3
3
-7
10
6
-7
9
4
2
-11
-1
39
-17
5
0
-1
1
14
12
-27
-16
1
-20
-8
1
-2
-18
15
-2
-12
5
-4
-3
-19
-20
9
-6
-11
-9
-7
-12
-8
7
1
-5
0
-1
-3
-14
3
4
39
34
13
21
6
9
6
7
-10
-39
-21
-1
-2
1
0
-1
-7
6
7
5
-1
2
3
5
-10
-9
-11
-24
-1
-2
-11
-10
4
9
4
3
-2
-3
5
5
-9
17
9
8
-1
-1
-4
-4
-12
-2
-8
-20
-7
-2
2
-5
27
-8
9
26
6
3
-8
-5
13
-5
-13
-10
5
2
0
9
-42
-14
4
-12
-11
-5
-2
-6
-1
-6
14
6
-7
-5
-2
-10
20
15
2
8
-3
-2
1
3
21
-7
-12
-13
2
1
4
5
-5
8
4
6
3
4
-12
-1
-9
0
-2
3
-4
1
4
1
-3
12
3
-3
0
1
4
-2
4
-5
-2
-12
1
0
-3
3
-8
5
2
10
1
0
6
-3
-13
-2
3
-3
4
0
-6
-2
-10
2
-5
-6
-2
0
3
1
1
0
1
-1
-3
-5
-5
0
-2
2
-1
-3
-2
2
3
-3
9
5
2
1
0
1
-2
2
-10
-9
-2
5
-2
-3
-2
-5
2
-4
0
1
-1
-1
0
-2
0
7
4
1
3
3
1
0
-1
-5
-4
-9
-3
-1
-2
3
-2
-2
1
3
-2
-1
3
-4
-8
-4
-1
0
0
-1
-2
0
0
2
-2
-1
-3
-2
-1
0
0
0
0
-1
3
-2
0
-1
-6
-3
-1
-1
-3
-1
1
-2
0
0
-3
4
-1
-4
-1
-2
1
1
-1
-2
-3
-6
-9
-2
1
0
-1
0
3
14
16
3
-3
7
2
3
0
-1
-2
1
-5
-3
-5
-1
-2
-10
1
-7
-2
0
3
-3
-2
1
-2
4
6
-5
-3
0
0
-3
-12
-7
-1
-4
2
2
-1
4
12
2
0
3
14
2
1
9
0
-3
-2
1
-8
0
0
-7
2
-1
0
6
8
0
-1
-7
5
7
-4
-4
-28
-6
1
2
-8
-12
1
-10
-50
-14
-10
-14
-12
6
3
-3
21
0
-3
-1
7
7
-6
-8
-2
-5
5
4
-5
-16
-8
7
8
9
-9
4
3
-1
-6
-1
11
2
0
-2
-2
0
11
-3
-9
3
0
2
-8
-1
3
4
17
0
1
-3
10
6
0
3
15
-5
1
-7
-13
-1
4
-1
-10
5
-2
-35
6
1
-11
1
17
2
3
61
6
-7
9
-4
-19
-18
-2
-4
-3
-2
-4
-1
-22
-1
0
-3
-5
0
1
2
16
8
-2
0
8
3
-4
-4
5
-17
-6
-25
-19
-10
-6
-7
-16
6
-6
-1
1
10
-6
3
14
-7
3
10
0
3
2
-2
13
17
-2
-5
-6
-2
6
-1
-18
-1
2
-9
9
5
-14
11
52
10
2
-8
-8
-22
17
5
6
-1
6
13
9
4
-3
-4
23
10
-1
24
22
13
1
3
-16
-16
-5
-7
1
-20
-4
-2
-15
4
-5
5
-13
4
-2
-8
30
12
7
-9
-1
-1
-3
11
41
-19
-8
7
-6
-7
5
11
-18
11
10
7
15
5
-7
-8
-13
-9
-10
-28
-19
4
5
22
6
27
6
-13
-1
1
-1
11
15
-14
-3
17
-2
-7
-5
-22
-51
-15
-9
-20
-18
5
-10
-25
66
-12
-2
6
10
-10
-5
-16
-93
-23
-8
-6
0
9
4
26
107
22
10
-1
8
5
-12
-12
-36
-20
-14
-9
-21
-12
-3
-37
-16
-13
0
3
6
-2
-6
14
109
39
-3
4
-1
-7
-1
-9
-121
-63
-8
-7
0
-1
4
22
47
35
15
17
7
6
-1
3
-47
-11
-5
-8
-3
5
-1
-14
-61
-14
-7
-11
-7
-5
7
-2
-30
15
11
9
0
-2
6
21
63
34
14
-3
3
-1
-11
-7
20
-6
-15
-7
-8
-5
4
-5
-5
-8
-3
4
4
2
-2
-5
-34
-3
-3
-6
-17
-9
-4
-4
-11
-4
-3
-2
9
9
7
17
34
23
12
16
15
2
-8
-10
5
-20
-7
-9
-4
-3
4
5
-12
3
1
1
-16
6
-13
-21
-8
-2
-9
-13
5
-14
12
29
-24
14
12
19
-12
1
-1
-4
-47
-21
4
-11
17
2
-6
6
80
35
-7
7
-14
-7
3
-7
-10
-1
-1
-1
9
4
7
8
-22
-6
0
-4
0
5
-3
0
-6
-1
3
2
-5
-4
-4
-14
-17
0
0
-11
-11
-2
6
10
19
-4
3
6
5
0
-4
-1
12
15
-3
-4
0
-3
0
-2
9
-9
-2
2
-4
-2
-3
1
-9
3
-4
-1
11
-3
5
-3
5
-5
-7
-2
-2
-1
2
-5
-24
-16
2
-2
3
1
-3
-2
2
6
-2
1
-2
-1
-2
-5
-3
-6
2
4
4
-3
4
6
-16
1
7
2
2
2
-3
-1
31
-15
-12
-12
-8
-2
2
6
38
9
3
0
-4
-1
-4
-17
-66
-2
-1
2
-2
-2
-7
-6
-31
-16
-14
-7
-5
2
4
5
-6
-3
-9
-2
2
-1
-1
4
42
28
26
13
3
-2
2
-2
10
6
2
-2
4
2
-1
1
-16
-16
1
-5
-5
0
-1
5
12
10
-4
0
1
-2
-2
-7
-20
-21
-7
-4
-3
-3
1
-3
0
4
8
5
2
-1
-1
1
15
6
1
2
2
1
0
-2
-2
-1
-5
-6
-1
0
-3
-2
-10
-11
-8
-4
0
-2
1
-1
-7
0
1
2
4
-1
-4
1
8
0
-2
0
-5
0
1
-2
-13
-1
1
0
2
2
-3
-1
1
-1
-7
-4
-5
-2
2
-1
9
-4
0
-3
0
0
2
-3
15
-6
-2
3
3
-3
4
2
-35
7
13
5
-1
2
-4
-1
2
7
-1
2
-1
3
-1
-3
8
6
-5
-3
1
-5
-6
3
11
-6
1
-1
0
0
-5
-14
-18
-17
-6
-4
-3
-3
4
-2
4
-12
-6
-1
-3
-2
5
3
6
9
3
1
1
2
-3
-10
-21
-17
-11
-8
-5
-3
-1
4
10
6
-1
3
2
-2
5
-2
-13
-13
-4
-2
-2
-1
-5
-1
10
9
5
-1
0
-1
5
0
6
-1
-1
1
0
0
-14
0
-4
16
9
1
-1
-3
7
-1
0
-13
-3
0
-1
1
31
1
-10
12
4
2
2
2
-28
-5
3
7
4
3
2
1
-18
-5
-3
-5
-6
-5
-7
-5
25
-1
5
-17
-8
-8
-11
-7
-33
-3
-9
-16
-4
-3
-2
-8
26
4
-2
-3
-3
-1
1
0
1
2
5
4
0
1
2
1
-9
-5
6
15
5
5
5
4
15
-1
-34
-15
-6
-4
-4
2
-5
4
21
18
1
-1
-2
2
-6
2
-7
-12
-1
1
3
3
-2
1
-3
16
4
3
-1
-2
-1
-5
4
-2
1
0
0
-2
-3
6
0
0
1
0
-1
1
4
-1
1
-1
-2
0
0
0
-4
1
1
-2
-3
-3
-2
-2
14
-12
-5
-11
-4
1
1
1
-25
-2
-2
7
2
0
-4
-9
30
3
-3
6
-3
-2
3
4
-19
-1
-4
-7
-3
-3
-2
-1
18
13
3
0
-4
1
2
4
-28
-8
5
9
2
0
3
7
27
-9
4
-23
-4
-3
-1
-10
-9
-4
-10
2
-9
-5
-8
-6
46
-6
10
-1
2
-1
0
0
-11
8
-17
3
4
0
1
-5
-16
3
5
8
2
2
2
5
8
-2
-2
-4
-4
0
4
2
4
4
9
1
-2
-2
-4
-1
-9
-12
-11
-2
2
3
3
-1
-4
3
-10
17
1
-1
-7
5
22
12
23
12
2
2
2
3
-54
-5
-29
-1
2
0
1
-2
72
7
26
-3
-9
-7
-2
5
-19
-10
-15
-9
2
-1
-1
-4
-75
-8
4
-18
-8
-4
-3
-10
-20
-10
-2
14
3
-6
-3
-3
-33
3
-4
-17
-6
-1
-4
-6
64
2
-10
2
-4
-1
0
11
62
28
6
12
7
6
7
6
27
-6
-16
-9
-1
1
-1
2
83
-18
6
-17
0
-7
-6
7
-48
-2
9
-18
-7
-2
-8
-22
-44
-15
-51
-8
2
-1
0
-1
-6
-21
7
-65
2
4
-3
-3
21
22
-18
42
-12
1
5
6
-68
11
43
50
5
2
3
2
77
1
28
-66
-24
-10
-10
2
-21
-8
-43
64
26
5
-4
-5
43
-33
15
-35
-10
-12
-7
9
-47
14
3
-4
-3
3
15
-12
-10
-3
19
6
-7
-2
4
2
-81
25
14
-12
-13
-3
3
-24
15
28
-23
11
5
5
-2
27
-8
-29
-18
-20
17
1
-11
0
14
19
11
-26
-10
-6
-4
-17
51
-1
15
46
18
12
-3
-12
11
3
-6
35
-3
-15
-3
-1
-81
-20
-21
-17
-2
12
1
-22
75
6
-29
10
-1
-2
17
32
-78
-7
17
17
8
1
-11
-4
-34
-29
-8
-5
6
-11
-18
-22
-13
9
11
-13
-29
-15
-17
-10
58
-24
3
0
16
14
21
1
-47
69
-17
46
-2
-12
9
20
-28
-48
34
-29
-7
0
7
-14
125
27
-7
-2
-2
-9
-13
25
-128
-47
-13
-7
-18
-2
-4
-45
127
45
4
-63
-11
-1
16
36
-92
38
20
29
13
-8
-19
-35
38
-18
-38
11
-5
4
9
7
67
26
10
-12
19
20
7
24
-57
-73
-8
16
-18
-28
15
-2
25
1
3
10
2
4
-35
9
-57
0
11
-14
12
7
-5
-33
49
18
20
15
6
-6
-1
25
-124
-7
1
-6
-18
-6
-10
-45
-26
27
8
-3
10
-2
8
10
47
-14
-11
3
4
-1
15
11
-68
8
-23
49
6
-5
-9
1
6
-13
9
-58
-11
11
-22
-6
10
37
34
-2
-5
11
24
9
59
-19
16
42
8
2
6
9
-81
1
-35
9
0
-15
-8
23
-24
-33
2
-5
-8
1
-7
-17
-53
-50
-34
-34
-9
12
9
6
-19
56
1
18
10
8
-5
-13
-3
20
17
1
-1
-5
5
-8
72
-15
3
15
-1
-12
-4
24
-28
-9
-17
-29
0
4
1
-17
44
2
-2
8
-6
-3
1
25
-27
-6
-6
-42
-7
-7
-13
-39
27
18
-7
-11
-19
1
-1
-4
74
5
32
44
23
7
14
23
-38
4
-29
8
4
0
3
-6
23
-8
9
18
2
8
-6
14
-9
-6
-2
-10
4
-4
6
-8
35
13
1
-14
-9
4
8
5
-13
9
33
-37
-27
-9
-4
-5
-61
-26
-8
13
6
0
-11
-4
8
6
5
12
2
4
6
4
-3
7
-9
15
1
-1
-5
-13
-11
-29
-6
5
7
2
0
1
22
-10
5
-5
0
5
2
-2
46
24
4
11
3
-1
-4
18
-59
-12
-3
-44
-11
-2
-6
-24
37
-17
-26
-15
5
-10
-1
-10
-18
-6
2
47
25
12
14
23
-78
17
11
15
5
2
-3
-13
34
-6
-21
17
-4
0
1
6
18
15
4
-12
-14
-7
-7
9
-16
-62
5
-10
-4
0
-1
-6
67
5
-9
-13
11
7
5
12
-46
-17
-9
-7
-1
-4
-4
-7
10
2
13
-38
-13
-13
-9
-12
20
66
-16
13
-2
-3
-7
9
-60
-23
6
-8
-6
-2
8
-16
35
11
1
-59
-15
-6
-15
-7
3
-7
1
45
4
6
1
4
-1
27
10
9
-3
-6
-6
-10
86
-20
-15
13
-2
-14
-12
10
-2
9
19
2
2
-5
15
11
-43
19
1
5
6
-2
-14
-6
-8
-2
-3
-17
-17
-12
-9
-25
18
-16
-5
-6
-3
2
5
4
13
6
4
6
-11
-7
-12
18
4
1
0
18
27
24
12
-19
12
22
12
35
11
0
-5
-12
42
-1
-19
-15
0
-1
3
10
13
6
-7
1
-16
-10
-5
11
-51
-24
13
-45
-3
-8
-1
7
-2
-11
-3
12
-14
0
-6
-21
46
17
-11
27
14
11
14
32
-91
-14
-8
-7
3
-8
-8
-31
44
3
16
-16
-4
-9
23
24
-8
-37
-19
-14
-6
-3
-18
-10
-36
8
28
-13
-7
11
-10
-12
41
21
-1
12
6
6
19
7
-21
7
-4
20
2
-5
0
21
-7
-58
-7
-9
4
-8
-12
-18
-27
45
6
27
11
9
-5
-2
10
-45
-22
9
-1
-3
-8
-11
74
9
6
-15
-4
0
6
7
-38
19
2
-55
-25
-3
12
20
-23
6
-1
20
26
5
-2
-11
-23
-21
-8
23
1
3
5
4
3
4
15
-19
-9
-2
1
2
55
4
-18
33
8
4
-3
10
-93
-15
7
-35
-9
-10
-1
-2
28
36
20
18
5
1
5
-6
-40
-17
-19
-40
4
5
9
-9
-3
11
1
-18
-19
-6
-20
-13
42
-12
-25
39
-3
-20
-12
4
-36
12
9
-6
1
26
25
11
-29
1
14
26
7
15
3
-10
12
0
-18
-50
7
3
16
5
24
-6
-2
-32
-15
-8
-14
2
7
10
-21
56
3
-7
-6
-9
30
-5
6
2
-15
-10
-18
15
-39
-15
5
18
23
3
15
1
-9
-19
-4
-6
-6
-5
-3
-7
2
16
-6
-31
-18
-11
-19
-6
61
20
-1
33
12
7
10
8
-58
-35
-5
-10
19
2
-1
0
17
1
-7
12
-10
-4
-3
-5
-10
-2
-2
6
10
8
2
-15
-5
8
7
-16
-3
-9
-18
-5
17
-1
2
-19
-12
-4
9
16
-4
-12
-3
-78
-13
-2
-1
-18
3
12
-10
39
15
7
5
3
-25
-15
-7
5
-2
-8
-12
-1
115
10
-12
26
13
24
15
33
-51
1
33
-35
-17
0
1
-9
52
9
-5
-19
-5
-2
-7
-8
-36
-17
-20
-21
-3
-3
-2
-14
-8
-22
5
29
-3
-9
-6
5
23
10
-12
8
6
5
7
6
38
-17
9
4
9
-2
11
12
-43
15
-4
25
-4
-7
-8
1
-48
-1
15
-39
-14
3
-6
-47
106
21
-8
28
0
0
-3
28
-100
-26
18
-4
1
-4
-2
0
-23
-29
1
-14
2
0
-4
-17
-19
21
-9
6
-10
-9
-2
11
-13
-8
7
-11
-1
0
4
-11
49
-7
-15
2
2
5
-5
-24
-27
3
-1
-1
-17
-14
-13
-4
23
49
10
14
-1
2
7
9
-42
-59
-6
-23
0
3
5
-3
67
0
4
-24
-3
-5
-7
9
-30
-2
-1
5
1
-1
7
3
58
10
2
8
3
2
-5
0
-19
21
6
-7
-1
1
5
-19
23
7
-31
-19
5
7
12
17
-48
-30
20
-43
-17
-4
-15
-22
-10
-10
-7
37
6
-8
-6
-1
1
13
-10
-6
-5
-9
-7
14
-6
-32
7
-3
-5
1
-2
-10
20
18
-5
47
13
12
17
8
-50
-12
3
-2
8
2
-12
1
-14
-11
4
10
0
0
-1
-20
-42
-2
5
-29
-5
-13
-6
10
13
5
-5
1
-4
2
11
1
-11
1
6
-34
-28
-9
-18
-2
43
-12
5
34
31
12
12
17
-39
-3
14
7
2
-7
-2
-11
23
5
3
-10
-8
10
7
32
-1
8
-16
-46
4
-1
-2
-22
-38
25
10
21
2
11
8
4
-1
-16
-9
-7
-5
-4
1
29
27
5
5
16
1
-5
-3
-9
-18
-5
-32
13
11
-1
-1
6
-28
-30
-3
-8
-11
-7
-6
5
-6
-1
1
-62
-9
-4
-2
-30
35
24
-9
22
-4
4
-5
-4
11
-24
15
-1
13
7
11
4
3
3
-12
6
17
0
-13
-13
-2
-5
-6
22
-11
-3
-2
15
1
5
8
-17
-15
-7
-10
-26
-32
-36
-24
31
1
0
10
-18
-8
11
-1
6
-9
-5
-3
8
-10
23
12
14
3
5
3
7
9
-18
-2
-25
0
-4
1
8
25
4
14
-1
-11
-11
-5
-4
-45
-8
5
2
-9
0
3
-15
41
-11
-33
23
12
7
-10
4
83
65
4
18
13
-8
3
18
6
-51
19
-23
-11
10
2
2
2
-2
1
-16
-9
-2
0
-14
-17
14
0
43
2
-3
-4
-1
24
-17
-9
9
7
-5
-11
8
19
29
-3
-34
-12
-5
-1
5
22
3
-8
24
-2
7
11
7
-4
2
11
15
8
-6
-5
0
-60
-10
-1
-4
2
0
13
-20
7
17
-5
10
-1
-2
-16
-4
55
-28
-8
-16
-11
9
7
13
-74
21
4
-37
-12
-4
-2
-20
34
-43
-11
-8
8
4
-7
5
-39
-3
12
-17
-9
-11
8
-11
0
17
-6
9
3
-13
-12
-6
60
10
5
-1
-1
8
3
22
5
-1
-5
-71
-14
-3
4
-10
-52
13
-22
14
2
-1
-2
4
15
-78
-15
11
18
1
-5
0
-28
13
9
5
-6
-7
-6
-18
-25
-2
2
-1
-4
0
3
13
39
15
-1
-8
2
-4
6
-2
-30
11
-9
-1
0
-1
-7
-10
42
-1
-22
-10
1
12
14
19
-5
5
22
22
4
6
-4
-9
-53
0
-2
2
4
-7
-4
-17
-1
25
7
14
-1
-5
-8
-9
-6
-19
2
3
-2
7
10
3
-10
-25
-29
-28
-3
6
7
31
22
27
10
25
2
-2
-13
-17
-14
4
22
-11
-8
-6
2
-4
-9
-7
11
5
10
-4
2
1
-51
-5
-1
13
-4
-4
-10
-18
-22
-1
10
-11
-13
-3
-1
1
-23
8
13
-16
0
10
4
7
-10
-6
-28
-29
-1
3
5
-9
-40
-12
-8
16
11
-8
-5
-1
31
-5
-8
3
-1
0
6
23
-29
16
5
-4
0
-4
-15
-27
-7
-18
4
3
7
6
-1
-16
-16
-1
-19
-2
2
2
-3
-7
63
4
-4
25
0
-5
2
8
24
9
10
-12
-2
-1
18
23
-57
-26
5
-9
-6
-6
-6
-15
-17
-20
3
1
-5
1
-7
6
38
43
10
-9
6
18
12
-9
-21
-23
-9
39
-5
-1
-1
28
21
16
3
-3
-13
-22
-24
-16
-6
-38
-7
-7
8
12
4
-17
13
-19
14
-6
0
-6
9
17
17
1
-9
-46
-10
3
4
-8
30
26
-5
36
17
11
0
8
-37
18
12
30
-6
2
9
5
-39
-13
-10
1
-12
-9
-11
-12
29
-2
-18
-21
6
-1
-7
13
18
-7
11
7
-6
-6
9
11
7
19
-5
-13
-12
-10
-17
-2
-43
-20
-4
16
22
14
13
-6
52
21
11
24
4
-9
-10
-13
-50
-1
3
-35
-17
-5
-5
-9
80
-5
0
-13
1
-2
5
10
5
10
-9
6
3
5
5
-1
-8
-4
0
0
-6
-6
-6
-3
9
-7
-6
5
-1
-3
-1
2
39
20
13
1
-1
0
-3
1
-25
-24
-28
-4
-4
-2
-6
-5
-20
0
5
1
3
-3
-4
-7
5
-3
-2
-4
-4
12
9
1
-2
11
5
8
4
-5
-2
-4
15
-3
2
2
-3
1
-4
3
-9
3
-3
-2
2
2
3
-3
14
0
-2
-6
-1
-5
-5
-5
-5
-3
-3
-6
-5
-4
0
1
5
-1
-2
6
-2
-1
-1
2
-18
-3
-11
-1
-1
2
4
-4
0
-7
2
-4
-2
-4
-3
2
1
5
2
3
0
-4
-4
1
1
4
3
4
-1
-4
4
-1
-1
-2
-7
-4
1
15
3
3
10
-1
1
-4
2
5
1
-6
-8
5
0
0
1
0
0
1
-1
0
-2
0
-5
-5
1
-1
3
0
4
-3
3
-4
-4
-1
4
-5
-4
-1
-1
0
0
3
-13
0
-3
-1
-2
2
-2
-4
2
3
4
3
0
0
-3
2
0
-3
-4
-2
-4
-7
2
-1
0
-6
-7
0
2
4
-5
3
-5
3
2
3
1
0
8
-3
11
-2
-2
-2
-3
0
-3
-1
-5
0
4
2
1
-5
-6
-2
-2
0
-3
-6
-3
-19
-3
0
1
2
-2
4
3
25
17
4
-1
-1
0
1
4
20
-10
-7
-6
-2
2
-7
-5
-3
3
-2
-1
-6
20
1
-4
-5
-6
2
4
0
-22
-5
-2
-14
2
-6
-6
-7
-21
1
-6
-12
-3
0
0
5
13
3
-2
3
-3
-4
4
9
27
2
4
6
4
13
-6
-6
-13
2
3
-6
-1
-10
-9
0
-29
-2
-2
-4
-5
8
0
-3
-11
-11
-7
-13
-12
-6
-1
-1
33
0
-3
17
0
-8
-6
9
27
11
-1
-23
-16
0
1
-11
-68
-9
-1
44
43
9
-2
-1
6
-21
-5
-3
-9
14
-2
7
-1
9
5
-4
10
-6
2
5
49
8
1
-8
-15
-4
-4
-7
-17
-2
-6
-24
-29
-1
5
7
34
25
7
14
15
-5
-1
-12
-25
-33
-7
7
-5
-7
13
19
48
24
8
-2
0
6
-5
-12
-46
-20
-7
-16
-13
-11
0
-13
-7
-6
-11
-3
4
4
-3
-1
-19
11
3
-35
-21
-6
1
-10
11
-10
5
38
17
9
13
13
-2
-17
8
11
14
-3
3
15
8
1
-5
-12
-5
-6
-4
-21
-9
9
-1
0
-12
-3
-20
-25
-91
-50
-22
-22
-10
0
1
2
18
8
3
-6
-4
-2
1
1
-9
4
-1
4
0
1
7
16
-4
-2
7
4
7
5
1
10
8
17
0
-7
-7
-7
-9
-5
49
11
3
-8
13
8
1
7
88
25
7
-2
-24
-9
4
4
-90
-30
-9
32
36
17
3
16
28
21
14
12
4
-4
-2
-20
17
-38
-9
-11
0
-9
-3
-11
13
19
-1
-3
10
2
4
12
12
1
-2
-4
-9
3
1
-13
-42
-22
-1
4
0
2
-10
9
88
46
-8
-23
-19
-12
-1
-1
-15
-29
0
12
3
5
-2
2
69
23
5
-1
3
-6
-4
-11
-35
-12
-5
0
-2
4
3
8
52
14
1
-5
-5
0
-3
7
6
14
7
1
9
-1
5
-8
6
-21
-9
-9
12
-4
-3
2
51
27
-3
-3
-17
-1
13
23
-48
7
14
20
5
-3
-17
-31
-32
-33
-22
-10
-4
-4
-3
16
63
16
4
-20
-15
-1
-2
-20
-82
-24
-5
12
6
0
-8
-4
23
2
-8
7
11
0
10
11
-18
-2
9
4
6
3
-6
2
30
36
7
-5
-8
-5
0
-2
-41
-36
-11
-10
0
2
4
10
46
21
9
10
-5
6
-4
-14
-47
-17
-5
-8
-6
-4
-1
3
11
-1
-2
5
-5
-2
-15
-18
-20
-10
-4
-4
-4
-8
5
-1
-3
4
-8
-10
-4
1
1
4
-13
-8
2
-11
9
-2
-2
-5
-25
-2
-3
13
-1
1
1
11
35
13
0
-14
-19
-7
-1
-7
3
2
8
24
22
0
2
7
0
-11
-1
-2
-4
-3
0
-7
-58
-6
-2
-2
-1
0
-4
6
34
2
1
-1
6
0
-3
-11
-16
-15
-9
-14
-16
4
2
15
48
33
7
3
-3
-2
-3
-1
-4
-3
3
6
7
1
-1
-7
-19
-18
-3
-3
-1
0
3
7
13
12
4
-4
-4
-2
-3
-10
-18
-26
-8
2
1
-1
-4
-2
1
10
0
-5
-7
-1
3
2
34
13
0
0
6
-1
0
4
-33
-20
-7
-1
0
1
0
-15
-16
8
9
2
0
1
-5
-7
-2
-10
-10
-7
-4
-1
0
6
20
-2
-7
0
3
3
-2
2
25
29
12
8
6
-1
3
22
2
-25
2
5
-3
2
-8
-35
-52
-24
-6
-4
-5
-4
4
5
27
27
8
4
7
1
-2
-4
-11
-20
-16
-14
-9
-3
-1
-2
6
14
1
4
3
-3
3
6
18
-2
2
-4
2
-1
-3
0
-33
-9
-2
6
4
0
-1
-9
-16
1
0
-7
-12
-2
-2
1
-8
2
-4
4
3
-1
-1
3
3
-6
-4
0
1
-1
0
-2
9
-4
-4
-5
-3
-1
8
4
5
1
-4
-4
-1
-1
-6
-5
-15
10
5
-2
0
-1
-5
-1
10
-2
5
3
-3
0
3
0
12
6
3
0
3
1
0
-1
-15
-16
-4
-1
-1
-2
-6
-2
-4
7
-3
-1
-1
0
0
2
-1
-5
-9
-4
-1
-2
3
1
10
-1
5
1
1
-1
4
-6
-26
-12
1
-1
0
0
-6
1
-3
-3
-8
-6
-3
-1
0
3
20
11
6
4
2
-1
8
-2
2
8
2
-1
0
1
-18
-2
-10
-14
-1
1
0
-3
0
0
17
7
0
0
0
-2
10
4
-16
-19
-18
-5
-4
-1
-8
2
-6
6
2
-2
-1
0
4
-1
8
20
8
4
2
1
7
-1
-6
-1
-4
-2
-3
-1
-13
-3
-4
-10
0
-3
-1
-1
8
-3
-2
-6
-3
0
1
-2
-3
-3
2
-3
0
-2
1
1
3
-1
-1
-6
-1
-1
-1
-1
10
1
8
9
4
-2
-1
0
-8
0
-17
-5
-7
-3
-2
-1
3
0
4
3
1
0
0
-2
-1
-1
-6
1
1
0
-1
0
3
1
4
13
5
3
0
2
-3
1
7
-5
-6
-3
-1
-1
-1
-1
-16
-22
-13
-3
-2
-1
8
-2
-2
27
17
6
1
3
-9
3
1
-4
-2
-2
-2
0
-15
-6
-2
10
-2
-2
-3
-4
-6
-9
11
-19
-9
-7
-2
-4
2
-2
16
14
0
-1
1
-2
19
-1
-45
-22
-7
-2
-2
3
-11
5
-6
5
1
2
2
3
-8
-1
21
15
2
0
-3
-3
-26
-6
-19
-21
-9
-3
4
-1
-2
-7
16
3
4
-2
-3
-1
36
-4
-8
-14
-4
-6
-6
-6
-33
8
-2
-5
-1
1
1
-2
19
-8
21
11
-1
1
-2
-3
-9
4
-24
-10
0
2
3
3
15
-3
2
5
-2
1
1
1
14
1
14
9
1
-1
-5
-1
-4
3
-3
-4
-5
-3
-1
-2
-1
1
11
19
10
2
3
3
4
2
3
-8
2
1
-5
0
0
2
-3
-11
0
-4
-4
-5
0
-2
-22
3
-11
-6
-2
3
-1
-19
-3
-34
-13
0
1
-8
2
5
-5
-1
-1
1
6
3
-28
-12
14
52
28
7
1
5
28
23
-22
-2
1
-1
-3
5
27
4
-6
-26
-12
-7
-4
-11
-11
-11
16
-2
-10
-1
4
-1
-62
1
-2
-25
1
3
-2
-11
-8
-4
10
18
4
-1
-1
3
40
-2
-28
-14
-4
9
11
11
-76
6
-16
6
-1
1
-7
0
122
30
8
24
-9
-5
6
23
-16
-27
14
-40
16
3
1
-12
-28
5
7
-4
-5
-7
-5
-2
10
-5
-22
13
-2
1
-2
8
-5
58
5
16
-8
9
5
2
-83
-55
-30
18
21
6
5
1
74
-27
27
4
3
-13
-6
2
63
16
5
-12
5
3
0
-9
81
-16
-15
-30
-10
-6
-5
-11
0
34
-6
16
-3
3
-2
25
-66
2
31
-12
-2
2
8
-5
-9
-12
-21
57
7
-3
4
-9
-102
-19
-21
-74
-30
-5
-7
10
47
-48
18
5
17
3
-2
-22
-21
32
9
48
4
-3
5
9
99
46
4
19
3
6
-8
6
-37
24
9
-24
-7
-1
11
-5
-77
-53
-24
41
6
0
5
4
-93
-9
7
20
22
0
-18
-18
70
-4
-12
8
-14
-22
1
24
-19
-32
-25
-47
10
19
-2
-19
-62
50
19
1
1
-20
-10
-8
81
-10
4
2
-1
-1
-13
-3
-97
69
30
0
-6
10
16
-7
-77
-71
-29
-38
7
-28
-38
-8
26
7
-4
-13
-26
-7
15
-11
45
8
1
17
8
4
9
-22
-75
-39
-29
-35
-5
-9
-38
-12
111
32
-21
19
3
9
23
34
-101
-3
10
-44
-7
-2
1
-25
39
13
10
8
-14
-58
-34
-1
53
-55
-57
-42
-4
83
58
32
37
-1
19
41
24
-8
-13
-22
109
-11
-17
-52
-6
13
-4
58
-83
12
30
29
10
10
32
-10
-101
-3
33
-28
-12
-29
-13
-37
42
15
2
28
-8
2
10
1
66
66
-7
10
-18
-2
-6
3
-45
-18
-23
-83
11
10
-13
-13
-14
-4
11
17
10
-8
0
16
-59
-12
18
-22
-22
-2
-4
-19
127
-4
0
6
22
-10
-2
9
-66
20
-24
37
-2
10
7
-1
86
-15
0
2
8
-8
-9
1
-68
9
22
7
4
6
5
2
34
33
13
10
-10
-4
-14
-3
43
2
-6
-8
-16
2
7
16
-18
-30
-43
-11
2
-5
-9
-32
127
31
35
60
14
-8
-8
34
-64
-44
27
-30
-3
-3
-9
-28
18
8
-3
-23
-16
-17
-11
-11
-18
4
7
31
-17
-6
7
23
-50
-9
-16
-2
3
-9
-7
11
-50
-5
28
13
-7
25
21
-30
10
-5
21
-23
-12
-19
-23
-10
39
38
15
-6
5
1
-6
10
95
19
-48
-53
-13
3
29
20
-52
-14
-30
-7
12
-4
-38
-38
18
-16
0
53
29
35
41
45
-54
12
16
5
-7
-30
-12
-21
35
-32
10
99
18
5
-7
-30
6
50
2
-11
-8
1
13
64
1
-38
-19
-54
-9
-2
-16
-21
-39
-21
-24
-6
10
11
2
-10
30
19
18
36
10
3
-1
22
6
-36
-2
1
-23
-23
-8
-24
-33
7
16
30
6
11
0
4
55
28
23
-5
-2
6
12
8
-5
-21
-49
-18
-10
-6
-14
-5
-39
-43
18
-18
-9
10
1
-11
126
30
1
-6
-1
-1
-2
27
-55
-24
26
-30
-2
-11
-15
-22
-64
12
-10
-3
-3
3
-1
-50
70
14
-5
6
6
-11
6
20
64
-8
-18
-14
2
5
5
-6
71
-17
8
-13
-3
-5
-3
0
-18
-35
-3
23
15
2
8
20
70
36
-12
11
-6
1
-9
-7
-71
-46
19
-12
-13
-10
-16
-8
-44
-14
-18
26
25
3
-1
2
-33
-29
-11
-26
-17
-3
9
-17
92
45
2
-38
-24
-1
-7
19
1
-1
-19
-5
-1
1
2
-2
49
-19
3
20
-3
-10
-11
9
23
11
0
-38
-1
-4
3
15
-66
-19
-2
24
8
1
2
0
-90
13
-11
6
-4
15
4
-7
53
25
9
2
15
23
6
5
-56
-13
-10
16
-8
-17
8
15
64
12
7
-22
-5
6
1
-17
3
11
-9
42
21
10
10
-4
-94
-24
4
12
6
0
1
-17
26
14
-12
-2
-12
-7
-23
2
22
0
0
12
-4
-12
11
29
-45
-21
12
20
-2
3
1
-3
8
-1
-29
-13
-13
-2
0
-7
34
11
15
-8
10
7
-8
-3
0
15
-2
7
-8
-8
0
-10
3
1
-3
-23
-6
-2
-5
5
-43
11
-13
-56
7
-16
-3
-7
35
0
28
24
-3
15
4
1
-41
-1
-24
0
9
11
4
2
-4
2
6
-12
-4
-8
-18
-12
92
20
-1
28
-4
0
17
17
-32
-37
4
-15
2
-9
18
2
-6
-19
1
6
2
-3
-24
-20
-49
19
15
-20
-1
5
33
8
19
13
7
25
-11
-10
-28
1
-7
10
-8
3
2
6
0
-13
-21
-16
9
-2
-7
-9
-5
-5
58
19
-24
-36
-4
-7
-5
5
-10
-17
22
3
-19
1
5
5
-64
-14
-4
2
-5
-13
-16
0
-36
-19
-17
20
18
-1
6
0
5
48
2
-7
-18
2
-15
-7
-52
-15
-3
-17
22
15
15
-10
79
9
21
14
-8
-13
-13
27
-18
3
25
-16
-17
-7
12
-27
51
-33
-54
1
13
5
13
6
51
29
4
5
-1
-12
-14
16
-38
-25
-9
-32
-5
24
13
-20
1
21
1
-9
0
-9
14
13
6
1
10
-12
-20
-8
-13
5
-58
7
18
31
13
-3
24
-9
-7
0
-19
-45
1
-1
-11
3
-88
-13
-3
-43
5
30
1
-8
-63
-12
16
19
-2
-4
7
-18
18
-6
-41
-5
13
8
-2
13
-24
24
4
18
-2
-15
-17
-13
31
-32
15
-17
-6
11
2
12
-56
34
-11
17
20
-11
-1
24
-80
-48
-24
-102
1
-1
-9
-28
-14
32
32
57
4
-1
5
-13
1
47
-13
36
5
-1
-13
-2
-15
-39
-9
-8
-25
0
8
1
66
-11
26
29
-9
-13
-2
26
6
-24
-11
-26
1
13
-1
-10
-25
34
4
30
8
8
12
16
27
-8
20
-11
-2
-9
7
-4
-12
0
-16
-12
-12
3
-40
-4
29
-21
-16
3
-3
-17
2
-15
41
-2
10
15
-2
-13
-4
19
16
-44
-1
-62
-2
3
12
-23
48
9
-17
48
-3
3
4
-2
20
-22
-17
5
10
9
-4
-1
16
4
8
-29
-2
-3
-14
10
-15
3
0
11
6
0
-11
-24
-29
21
7
28
7
6
28
0
28
21
-7
-18
-12
-3
-3
3
-13
9
-27
-7
-6
-2
0
-1
-56
-62
40
-59
0
-3
-15
9
-93
0
-11
24
11
6
17
-11
-34
19
-1
24
14
4
4
-3
38
-6
-10
9
-2
-1
-5
5
30
34
9
41
4
7
-6
-1
68
-22
-26
-44
-25
-26
-16
3
-69
-4
-3
10
0
3
13
43
-30
-16
-3
-5
3
7
21
-33
105
29
-4
31
2
-3
-18
-8
24
-28
16
-27
-4
0
-18
-21
5
10
33
-18
2
8
-6
12
-50
-31
3
16
-1
1
16
15
24
37
-11
38
14
11
12
12
-35
-1
-23
-13
-10
-10
9
-7
-1
11
44
-67
-43
-13
-6
-9
37
11
-10
93
28
5
-20
3
-38
-13
19
29
11
4
0
0
27
2
8
14
-10
1
2
9
-37
-14
-4
2
20
14
14
-11
-39
12
0
-33
-15
-12
-2
-13
48
-12
-43
-31
-16
-10
-1
29
22
72
13
-8
14
6
-29
-20
5
-3
-12
7
1
4
17
10
-14
-12
19
-25
-7
-3
-6
-14
-70
27
11
25
18
-10
0
-9
3
-5
1
5
-8
-5
6
6
-7
10
-8
-2
-4
3
-3
3
99
10
-8
-7
11
2
-11
18
-20
-19
-7
7
-8
15
21
5
-16
18
19
-2
-4
8
1
-22
8
-33
-9
30
5
-13
-19
-27
58
-17
-10
-40
-28
-11
-5
9
-17
-8
-11
63
32
7
7
15
-3
-4
6
37
8
7
-7
2
11
-39
-6
-51
15
4
9
8
-32
30
15
38
4
-6
6
-15
62
-30
-45
-37
-21
-9
-29
1
-60
-9
2
-13
-2
1
11
26
34
8
3
-1
-6
0
5
5
-12
-21
-11
-24
-1
-3
9
-7
-43
25
26
7
-10
-6
-28
-42
-3
-7
-3
8
5
1
0
10
24
24
15
-26
-19
-14
3
7
-25
-1
-16
14
22
8
9
-21
51
-5
-10
19
2
8
-12
-1
49
-26
-10
-34
-22
-9
6
-2
14
17
-4
-41
-7
-9
-6
-2
10
-1
6
29
0
-11
-8
1
-30
-29
-3
3
-3
-3
6
5
6
28
0
-24
-21
2
-2
-4
-26
-5
-24
70
31
6
0
-13
38
-25
-7
-5
2
3
-6
18
-2
29
4
-16
-11
-11
5
-4
-35
-3
10
18
-4
-2
-2
-16
69
9
-1
-19
-6
-2
1
7
-24
-33
-14
1
-9
6
5
2
-32
-7
0
-20
-1
-8
-19
-14
36
15
18
25
14
-1
9
-4
1
-19
14
-9
-8
-6
3
16
-5
-6
-5
4
4
20
-3
11
88
42
-20
-12
-4
1
13
3
-26
-29
9
-1
-6
-5
3
-9
-54
-25
-1
11
-4
-6
-27
-34
54
6
6
-25
-6
-13
17
17
-53
21
5
1
-1
-1
-22
-19
7
6
-11
1
0
13
9
32
32
-6
-16
21
24
-3
10
4
-48
-14
-15
-5
-6
-5
1
-13
51
-31
8
13
-12
-7
-21
20
-3
2
-14
0
0
-9
-8
-30
34
26
3
-34
-11
7
-6
6
-55
11
2
22
14
4
2
-1
66
1
5
-9
-5
-1
16
1
-30
-39
-14
-9
-4
-9
-11
-1
-20
21
5
15
-5
14
7
-7
6
10
7
-9
-10
-9
-16
-16
-12
-3
-1
9
5
1
10
23
47
8
0
0
5
9
6
14
-73
-32
-24
-18
-12
-14
4
-11
4
-5
-5
-9
-2
-9
-18
-8
-11
3
20
0
-6
1
14
2
-15
12
-6
-6
5
5
5
1
5
-14
-3
23
9
11
-7
-15
3
19
3
-14
-4
-2
-1
10
-27
-26
-9
-32
-11
-9
0
-6
10
12
9
3
4
0
-9
-4
13
19
15
15
-7
-15
-1
2
9
-2
-17
-13
-7
10
2
-3
-18
13
4
0
12
11
5
0
3
0
8
-13
-2
-5
0
-4
0
-23
-11
19
-3
1
-6
4
-18
-4
15
4
-5
-15
-8
-10
4
-2
-32
3
6
1
2
4
3
-10
4
13
-5
1
0
1
9
16
5
-25
-1
1
-1
3
-9
3
6
3
9
8
2
-5
-40
-29
-1
-3
-5
-4
8
-4
16
19
-1
0
1
-4
-12
1
-9
-3
-1
-1
-4
-1
-9
-10
29
2
14
-5
-5
1
9
11
37
3
1
-13
-6
-4
7
-1
-48
-1
4
0
4
-1
-23
-11
-7
3
-5
6
-4
6
8
1
-5
4
-3
-4
-3
-18
-7
-5
9
2
6
16
4
22
7
3
10
-9
-2
-2
3
0
14
2
6
11
10
3
-1
3
-2
1
-8
-3
1
0
2
-4
-11
-2
-9
4
-3
-1
-1
-8
-2
0
3
-12
-6
6
0
-3
2
0
-7
7
8
-2
-4
-2
-4
0
0
-7
-6
-7
-4
-1
2
-3
-11
6
2
2
1
-5
-8
-1
3
-13
0
-5
-1
6
9
-1
7
0
0
1
-5
-8
-2
0
-5
4
1
-3
3
5
0
-3
-3
0
2
8
4
4
0
-1
3
-7
-4
0
-3
-7
-4
2
0
3
-2
-1
0
-1
3
1
-4
-1
1
-1
0
3
1
-3
-8
2
1
-1
1
0
-9
-2
5
-5
-7
-7
-4
-3
3
1
5
3
0
1
1
-2
-2
0
-12
-1
-1
-6
-4
1
0
-3
1
1
-1
2
2
-3
1
0
1
-8
-9
1
0
-1
0
0
2
2
2
1
-1
-1
-3
1
2
0
2
-2
2
2
-1
0
-2
1
5
0
-2
-3
0
-1
-2
-4
-2
-1
-2
0
-2
-1
-4
3
-10
-4
0
2
0
0
0
-6
-18
-6
-3
0
-1
0
-5
2
1
-1
-3
-6
-5
-2
-1
-6
-20
-3
0
2
1
-1
0
0
3
6
2
-2
-5
0
0
-2
23
-2
1
4
0
-2
4
1
-3
-3
-1
-7
-1
-2
1
0
-9
1
-1
-4
-2
-7
-5
-4
-32
-9
-3
15
4
9
1
-3
8
0
-6
-7
-4
-4
-3
-1
4
9
1
-7
-3
-1
0
3
-2
-9
-1
9
6
3
-10
-5
5
-1
-2
-8
-1
-3
5
3
15
2
-2
-12
-18
0
0
-4
-13
2
3
19
16
2
5
0
39
7
3
-10
9
-7
-15
2
-14
-10
-10
-8
-35
-6
2
17
19
13
10
22
31
7
-5
-26
-11
-16
-7
-5
-17
-2
10
21
-14
-2
3
2
5
-5
-8
-28
-7
-10
-6
-7
1
10
4
19
55
3
1
-11
-7
-6
1
-7
22
14
6
-1
-3
1
-8
-15
-51
-3
-5
3
1
4
-1
11
6
1
-10
-9
-9
-3
-2
-6
-27
9
3
-2
0
0
5
10
31
-2
4
17
14
2
-1
1
64
17
9
-13
4
-3
6
-4
-48
-15
-9
-56
-74
-10
-2
-7
-26
-9
8
90
62
-1
-8
-7
-58
-36
-13
-14
0
-2
-4
-14
-9
-9
-10
-4
-20
7
1
22
40
8
13
18
29
-7
1
-6
24
31
-3
-48
-41
-1
-12
-5
9
8
-9
5
7
-2
10
15
-43
0
2
-5
2
10
-3
-7
122
5
0
11
0
-1
4
1
-67
0
10
-6
-13
1
-8
4
27
13
2
0
4
-11
2
8
25
2
1
-12
-16
0
4
-12
13
-8
-3
-4
16
-3
1
22
5
1
0
-4
10
-2
-7
-33
-27
-24
-14
3
-12
1
-10
-8
13
0
-12
-5
-5
-3
8
21
-17
10
12
14
24
2
-6
-31
-51
-45
-13
-7
-6
-1
5
20
15
18
4
-14
-6
1
-8
-45
-67
-42
-2
10
9
1
11
6
74
25
-2
0
-1
-2
2
24
44
38
10
7
2
3
10
-16
-78
-39
-8
-6
-5
-2
-2
2
23
1
-2
9
-2
4
0
10
-10
8
5
4
7
7
1
-8
9
-3
2
-2
-3
-6
6
0
-45
7
5
0
2
4
-14
11
18
-1
-7
-12
-7
-15
0
-7
-27
-10
-2
7
7
0
-2
4
44
13
3
0
0
-1
-2
-1
-16
-12
-3
-12
-4
1
4
9
33
15
4
13
6
1
3
6
27
10
7
5
6
-1
-16
-41
-112
-50
-21
-11
-7
-3
2
16
41
23
6
-2
-3
-3
2
3
27
7
1
6
0
1
-2
2
-51
-3
-1
1
3
-2
2
-3
7
1
-4
-11
-4
1
-2
6
57
14
4
-1
-6
-3
-2
-2
-56
-9
-1
4
1
-5
-3
-11
-44
-18
1
6
6
-1
-3
2
25
2
-7
-10
-6
0
-2
4
26
16
-3
-11
-2
-2
4
8
0
3
2
18
5
1
0
-9
-15
-8
-1
-4
2
0
-3
-6
12
-4
-4
-3
-8
-3
-2
2
20
-3
0
0
-1
-3
2
4
35
4
-1
-9
-5
2
0
-2
-45
-7
-4
0
0
-2
-4
-7
24
-5
-6
-5
-3
-1
0
2
-2
3
1
4
3
-1
-2
-3
-4
-5
2
-1
-5
-2
-3
-4
-1
5
1
-1
-1
2
1
6
-7
5
-3
-3
-4
-1
1
-4
-7
-6
4
8
5
0
-4
-2
18
-4
-2
-7
-5
-3
0
-2
9
7
1
-3
-2
-1
2
1
-12
-5
3
5
4
1
-4
-3
3
-9
-10
-2
0
1
1
1
-4
3
-2
-17
3
0
-3
2
18
5
-3
20
-2
-2
1
-3
-11
-3
1
-9
3
1
0
1
0
9
5
17
2
1
0
2
18
-10
3
-1
1
-1
-1
-4
1
3
-1
-7
-3
-3
-3
-4
-37
-10
1
1
0
0
-2
2
24
9
-2
-2
0
-4
-3
-6
-5
-4
-4
-1
-4
1
2
2
6
2
-3
-10
1
0
1
3
21
8
3
4
-5
-2
-4
-3
-18
-3
1
-2
-3
-2
2
3
-3
-3
1
1
-1
-1
-5
-8
-19
-10
-9
-7
-3
-1
1
2
29
6
0
-3
0
-1
0
0
-22
-1
-1
0
-3
-1
-1
2
-6
1
0
4
-2
1
0
0
2
3
2
2
7
-1
0
4
7
1
0
0
-4
-2
0
-12
-5
-3
3
-2
0
-1
-3
-3
-19
1
-4
0
0
0
-1
2
5
3
0
0
-2
0
-2
1
7
-5
-6
-5
-1
-1
0
-2
-15
-3
-4
1
0
-1
0
0
13
0
4
0
6
-2
-1
-2
5
3
-2
4
-2
0
1
4
9
2
1
0
0
0
-1
4
-1
-5
-5
-18
-9
-1
-1
-4
-12
5
0
10
-1
-2
0
1
21
1
3
-4
1
0
-1
-2
-11
-5
4
7
3
0
0
-2
1
0
-1
-6
-8
1
0
-2
5
-5
-8
-10
-5
-2
-1
-2
-21
-3
-2
-2
0
-1
-3
-2
-8
6
0
-3
0
-1
-3
-2
5
-5
0
0
1
-1
1
0
23
4
2
2
3
-3
0
-1
-3
-4
-1
1
-1
0
-1
-6
-18
-8
-3
-5
-3
-2
1
5
-2
-1
-3
2
0
-1
-1
0
1
-3
-6
-4
-5
1
0
0
9
10
1
-1
0
-1
0
1
-7
-7
-2
0
-2
1
3
3
19
8
8
6
1
0
-7
-8
-27
-8
3
0
-3
-1
0
-1
-2
1
-1
-1
0
-3
3
1
15
4
-6
-4
-5
1
-1
-3
-23
-14
-9
1
2
-1
-4
3
8
0
-4
-8
3
-13
-2
2
10
2
6
-3
-21
-3
-6
-11
-35
-6
-1
8
2
-3
4
6
0
0
1
-4
4
2
1
-5
15
0
-2
-1
-3
2
-1
2
4
2
-5
-4
8
-1
0
1
-2
-4
-2
-2
-3
0
-3
-2
-3
6
0
1
-7
-2
4
7
9
5
1
1
4
1
-5
-17
-12
-17
-7
-5
-2
-1
-3
5
16
4
0
-1
-1
-1
-2
-6
-51
-6
2
2
8
1
2
5
28
11
0
3
-4
0
1
1
10
-5
0
-1
6
0
-3
-4
-25
-2
-1
-2
-4
-2
-3
3
35
3
-2
-4
-2
-5
4
-2
-29
1
2
0
1
0
-3
-4
-20
-8
-7
-4
-7
-2
-1
-1
6
-3
-3
-2
1
0
1
2
16
12
7
5
2
-2
-1
1
-22
-3
0
0
0
3
-1
1
3
4
0
1
-2
-1
-2
-3
-7
-6
1
-3
3
-1
0
-5
-3
-3
-4
-8
-4
-2
-1
-4
17
-3
-1
3
-8
0
0
4
-5
-2
-2
4
9
0
-1
-3
-13
5
3
9
8
0
1
0
9
8
0
-3
-8
0
-5
-6
-6
-8
-5
-4
2
-1
0
0
14
6
4
0
-2
-2
-1
1
7
-10
-4
-7
-4
0
0
-3
-19
2
1
1
3
-1
1
0
29
2
3
-1
1
0
-2
-3
-34
-2
-2
0
-1
-2
-4
1
32
3
-2
-3
-4
0
-1
-4
-9
1
-1
2
1
-2
0
1
-5
-1
-2
0
0
-1
1
4
2
0
2
-2
-1
-2
0
1
9
1
0
1
-1
-1
-1
0
2
-2
-2
-1
-2
-1
0
-2
0
-1
0
-1
0
0
0
0
-12
-1
-1
-2
-1
-1
-3
-4
-17
-7
-4
-3
-4
-2
-1
3
19
1
0
0
1
1
-1
-4
-13
-3
0
-2
4
0
-3
-5
3
-3
-1
-2
-4
-1
0
5
20
5
-3
-3
-2
-1
0
-3
1
-6
-6
-3
5
-1
-4
-7
-23
-2
2
5
-7
0
-1
0
-10
1
1
2
5
-1
1
3
13
2
5
3
2
2
0
1
2
-2
-5
-2
-2
-2
-1
0
16
7
-1
-4
-2
0
0
-2
-14
-6
-1
0
-2
0
0
-1
-2
-2
-1
-1
-1
0
-1
-5
-3
0
1
1
1
-2
1
9
11
-4
-6
-3
-2
-2
-2
-12
-5
-1
0
0
-1
0
0
0
-15
-3
-3
-5
-2
-2
-4
0
-19
-6
0
-1
-4
-2
0
-2
9
2
0
-3
1
-1
0
6
13
4
1
0
-1
-1
-2
-2
4
7
6
7
2
0
-1
0
5
2
-2
-2
-3
0