-0.6509467435830083
0.05149251248987619
1.1954771683618142
-0.6509467435830083
0.05149251248987619
1.1954771683618142
-0.6529534198216707
0.05141822166514932
1.195779680879629
-0.6529534198216707
0.05141822166514932
1.195779680879629
-0.6529534198216707
0.05141822166514932
1.195779680879629
-0.6529534198216707
0.05141822166514932
1.195779680879629
-0.6544249390878023
0.051165365705735696
1.1961174014790679
-0.6544249390878023
0.051165365705735696
1.1961174014790679
-0.6544249390878023
0.051165365705735696
1.1961174014790679
-0.6544249390878023
0.051165365705735696
1.1961174014790679
-0.6543941513350247
0.05114084161059684
1.1960530881853546
-0.6543941513350247
0.05114084161059684
1.1960530881853546
-0.6543941513350247
0.05114084161059684
1.1960530881853546
-0.6543941513350247
0.05114084161059684
1.1960530881853546
-0.6528076510567398
0.05183207815197363
1.1958555010074203
-0.6528076510567398
0.05183207815197363
1.1958555010074203
-0.6528076510567398
0.05183207815197363
1.1958555010074203
-0.6528076510567398
0.05183207815197363
1.1958555010074203
-0.6506838933579691
0.05304238490477613
1.1955320198346888
-0.6506838933579691
0.05304238490477613
1.1955320198346888
-0.6506838933579691
0.05304238490477613
1.1955320198346888
-0.6506838933579691
0.05304238490477613
1.1955320198346888
-0.6490726803040041
0.054181910208111465
1.1952931390334978
-0.6490726803040041
0.054181910208111465
1.1952931390334978
-0.6490726803040041
0.054181910208111465
1.1952931390334978
-0.6490726803040041
0.054181910208111465
1.1952931390334978
-0.6499463256510811
0.05529590566268252
1.1954702988470676
-0.6499463256510811
0.05529590566268252
1.1954702988470676
-0.6499463256510811
0.05529590566268252
1.1954702988470676
-0.6499463256510811
0.05529590566268252
1.1954702988470676
-0.6510711700440002
0.05597032480671675
1.195607783247391
-0.6510711700440002
0.05597032480671675
1.195607783247391
-0.6510711700440002
0.05597032480671675
1.195607783247391
-0.6510711700440002
0.05597032480671675
1.195607783247391
-0.6521885920228441
0.05645408928284313
1.195703452180227
-0.6521885920228441
0.05645408928284313
1.195703452180227
-0.6521885920228441
0.05645408928284313
1.195703452180227
-0.6521885920228441
0.05645408928284313
1.195703452180227
-0.6533529376375502
0.05667602314493389
1.1953475485244005
-0.6533529376375502
0.05667602314493389
1.1953475485244005
-0.6533529376375502
0.05667602314493389
1.1953475485244005
-0.6533529376375502
0.05667602314493389
1.1953475485244005
-0.6534798226900738
0.056764882173345445
1.1953869791025902
-0.6534798226900738
0.056764882173345445
1.1953869791025902
-0.6534798226900738
0.056764882173345445
1.1953869791025902
-0.6534798226900738
0.056764882173345445
1.1953869791025902
-0.6529692092273309
0.05697182278319268
1.1951858758049123
-0.6529692092273309
0.05697182278319268
1.1951858758049123
-0.6529692092273309
0.05697182278319268
1.1951858758049123
-0.6529692092273309
0.05697182278319268
1.1951858758049123
-0.6526687378289753
0.05708580978674269
1.1947979526995047
-0.6526687378289753
0.05708580978674269
1.1947979526995047
-0.6526687378289753
0.05708580978674269
1.1947979526995047
-0.6526687378289753
0.05708580978674269
1.1947979526995047
-0.6536158046401089
0.057209523995999254
1.1945876076186863
-0.6536158046401089
0.057209523995999254
1.1945876076186863
-0.6536158046401089
0.057209523995999254
1.1945876076186863
-0.6536158046401089
0.057209523995999254
1.1945876076186863
-0.6548165480333195
0.05709412408780637
1.1945973507202192
-0.6548165480333195
0.05709412408780637
1.1945973507202192
-0.6548165480333195
0.05709412408780637
1.1945973507202192
-0.6548165480333195
0.05709412408780637
1.1945973507202192
-0.6558509038613032
0.05734324895779861
1.1950593558479685
-0.6558509038613032
0.05734324895779861
1.1950593558479685
-0.6558509038613032
0.05734324895779861
1.1950593558479685
-0.6558509038613032
0.05734324895779861
1.1950593558479685
-0.6559716997427544
0.05734806999315422
1.1956983717468992
-0.6559716997427544
0.05734806999315422
1.1956983717468992
-0.6559716997427544
0.05734806999315422
1.1956983717468992
-0.6559716997427544
0.05734806999315422
1.1956983717468992
-0.6553908110883309
0.057149991719384244
1.1962078900393123
-0.6553908110883309
0.057149991719384244
1.1962078900393123
-0.6553908110883309
0.057149991719384244
1.1962078900393123
-0.6553908110883309
0.057149991719384244
1.1962078900393123
-0.6538956242945773
0.05660004475962315
1.1962534885101017
-0.6538956242945773
0.05660004475962315
1.1962534885101017
-0.6538956242945773
0.05660004475962315
1.1962534885101017
-0.6538956242945773
0.05660004475962315
1.1962534885101017
-0.652886205616963
0.05629052013539956
1.1964546492260921
-0.652886205616963
0.05629052013539956
1.1964546492260921
-0.652886205616963
0.05629052013539956
1.1964546492260921
-0.652886205616963
0.05629052013539956
1.1964546492260921
-0.6532236920445383
0.0558401162460899
1.1972087457913105
-0.6532236920445383
0.0558401162460899
1.1972087457913105
-0.6532236920445383
0.0558401162460899
1.1972087457913105
-0.6532236920445383
0.0558401162460899
1.1972087457913105
-0.6541002931756494
0.05539499831807585
1.1985890027157775
-0.6541002931756494
0.05539499831807585
1.1985890027157775
-0.6541002931756494
0.05539499831807585
1.1985890027157775
-0.6541002931756494
0.05539499831807585
1.1985890027157775
-0.6543500159233223
0.05504277625675875
1.200169115442754
-0.6543500159233223
0.05504277625675875
1.200169115442754
-0.6543500159233223
0.05504277625675875
1.200169115442754
-0.6543500159233223
0.05504277625675875
1.200169115442754
-0.6553792735423153
0.054658382813908495
1.2014933980621643
-0.6553792735423153
0.054658382813908495
1.2014933980621643
-0.6553792735423153
0.054658382813908495
1.2014933980621643
-0.6553792735423153
0.054658382813908495
1.2014933980621643
-0.6556647456826478
0.05379895438306275
1.2024216913260986
-0.6556647456826478
0.05379895438306275
1.2024216913260986
-0.6556647456826478
0.05379895438306275
1.2024216913260986
-0.6556647456826478
0.05379895438306275
1.2024216913260986
-0.6541459157574994
0.05313923452203892
1.2026808308271617
-0.6541459157574994
0.05313923452203892
1.2026808308271617
-0.6541459157574994
0.05313923452203892
1.2026808308271617
-0.6541459157574994
0.05313923452203892
1.2026808308271617
-0.6523348473045587
0.05250189306773644
1.2026125403279293
-0.6523348473045587
0.05250189306773644
1.2026125403279293
-0.6523348473045587
0.05250189306773644
1.2026125403279293
-0.6523348473045587
0.05250189306773644
1.2026125403279293
-0.6524966080530261
0.051917944668123134
1.2028793645146196
-0.6524966080530261
0.051917944668123134
1.2028793645146196
-0.6524966080530261
0.051917944668123134
1.2028793645146196
-0.6524966080530261
0.051917944668123134
1.2028793645146196
-0.6534504051390724
0.051684197261409257
1.2029731236362544
-0.6534504051390724
0.051684197261409257
1.2029731236362544
-0.6534504051390724
0.051684197261409257
1.2029731236362544
-0.6534504051390724
0.051684197261409257
1.2029731236362544
-0.6541482398873708
0.051553033276698315
1.2029657639604836
-0.6541482398873708
0.051553033276698315
1.2029657639604836
-0.6541482398873708
0.051553033276698315
1.2029657639604836
-0.6541482398873708
0.051553033276698315
1.2029657639604836
-0.6550100439642965
0.05172680618664987
1.2031036107145163
-0.6550100439642965
0.05172680618664987
1.2031036107145163
-0.6550100439642965
0.05172680618664987
1.2031036107145163
-0.6550100439642965
0.05172680618664987
1.2031036107145163
-0.6559364798449794
0.05180488622785706
1.2032720609516827
-0.6559364798449794
0.05180488622785706
1.2032720609516827
-0.6559364798449794
0.05180488622785706
1.2032720609516827
-0.6559364798449794
0.05180488622785706
1.2032720609516827
-0.6567276594637834
0.052019224717716084
1.2032183126826508
-0.6567276594637834
0.052019224717716084
1.2032183126826508
-0.6567276594637834
0.052019224717716084
1.2032183126826508
-0.6567276594637834
0.052019224717716084
1.2032183126826508
-0.6567276594637834
0.052019224717716084
1.2032183126826508
-0.6567276594637834
0.052019224717716084
1.2032183126826508
-0.6567276594637834
0.052019224717716084
1.2032183126826508
-0.6567276594637834
0.052019224717716084
1.2032183126826508
-0.6556278609268853
0.05211389702273934
1.2034611215261328
-0.6556278609268853
0.05211389702273934
1.2034611215261328
-0.6556278609268853
0.05211389702273934
1.2034611215261328
-0.6556278609268853
0.05211389702273934
1.2034611215261328
-0.6545513134866655
0.05181243510264289
1.204228694812091
-0.6545513134866655
0.05181243510264289
1.204228694812091
-0.6545513134866655
0.05181243510264289
1.204228694812091
-0.6545513134866655
0.05181243510264289
1.204228694812091
-0.6517873774872227
0.05035228589356005
1.2050660399228164
-0.6517873774872227
0.05035228589356005
1.2050660399228164
-0.6517873774872227
0.05035228589356005
1.2050660399228164
-0.6517873774872227
0.05035228589356005
1.2050660399228164
-0.6514360507390989
0.04755756084291617
1.2062314160038705
-0.6514360507390989
0.04755756084291617
1.2062314160038705
-0.6514360507390989
0.04755756084291617
1.2062314160038705
-0.6514360507390989
0.04755756084291617
1.2062314160038705
-0.6529042716176993
0.044706308404618526
1.2076336937890413
-0.6529042716176993
0.044706308404618526
1.2076336937890413
-0.6529042716176993
0.044706308404618526
1.2076336937890413
-0.6529042716176993
0.044706308404618526
1.2076336937890413
-0.6540329708707363
0.04255718508284057
1.2090215555742991
-0.6540329708707363
0.04255718508284057
1.2090215555742991
-0.6540329708707363
0.04255718508284057
1.2090215555742991
-0.6540329708707363
0.04255718508284057
1.2090215555742991
-0.6517557161752909
0.04092156808982493
1.210683541090589
-0.6517557161752909
0.04092156808982493
1.210683541090589
-0.6517557161752909
0.04092156808982493
1.210683541090589
-0.6517557161752909
0.04092156808982493
1.210683541090589
-0.6480365394938178
0.039512706879253734
1.2131387275499963
-0.6480365394938178
0.039512706879253734
1.2131387275499963
-0.6480365394938178
0.039512706879253734
1.2131387275499963
-0.6480365394938178
0.039512706879253734
1.2131387275499963
-0.6419085794577589
0.03946156478652392
1.2181654279679015
-0.6419085794577589
0.03946156478652392
1.2181654279679015
-0.6419085794577589
0.03946156478652392
1.2181654279679015
-0.6419085794577589
0.03946156478652392
1.2181654279679015
-0.6397241307595064
0.0399323770765773
1.2235326543252798
-0.6397241307595064
0.0399323770765773
1.2235326543252798
-0.6397241307595064
0.0399323770765773
1.2235326543252798
-0.6397241307595064
0.0399323770765773
1.2235326543252798
-0.6372853010972324
0.04024899227977988
1.2235285604538886
-0.6372853010972324
0.04024899227977988
1.2235285604538886
-0.6372853010972324
0.04024899227977988
1.2235285604538886
-0.6372853010972324
0.04024899227977988
1.2235285604538886
-0.6244432826656792
0.036295045804027024
1.2257104437858408
-0.6244432826656792
0.036295045804027024
1.2257104437858408
-0.6244432826656792
0.036295045804027024
1.2257104437858408
-0.6244432826656792
0.036295045804027024
1.2257104437858408
-0.618328475729656
0.02871752411341288
1.2348417794993654
-0.618328475729656
0.02871752411341288
1.2348417794993654
-0.618328475729656
0.02871752411341288
1.2348417794993654
-0.618328475729656
0.02871752411341288
1.2348417794993654
-0.591695217884327
0.013232040871134738
1.2363620541539158
-0.591695217884327
0.013232040871134738
1.2363620541539158
-0.591695217884327
0.013232040871134738
1.2363620541539158
-0.591695217884327
0.013232040871134738
1.2363620541539158
-0.5656896736690084
0.014913743305210343
1.2397996450949151
-0.5656896736690084
0.014913743305210343
1.2397996450949151
-0.5656896736690084
0.014913743305210343
1.2397996450949151
-0.5656896736690084
0.014913743305210343
1.2397996450949151
-0.5561778650007873
0.019669253507590072
1.2500544033423346
-0.5561778650007873
0.019669253507590072
1.2500544033423346
-0.5561778650007873
0.019669253507590072
1.2500544033423346
-0.5561778650007873
0.019669253507590072
1.2500544033423346
-0.5576137433476795
0.019317687962152254
1.2608003660207883
-0.5576137433476795
0.019317687962152254
1.2608003660207883
-0.5576137433476795
0.019317687962152254
1.2608003660207883
-0.5576137433476795
0.019317687962152254
1.2608003660207883
-0.5686637991792004
0.013453232343335793
1.2683687622446187
-0.5686637991792004
0.013453232343335793
1.2683687622446187
-0.5686637991792004
0.013453232343335793
1.2683687622446187
-0.5686637991792004
0.013453232343335793
1.2683687622446187
-0.5647367890827935
0.005718199211906842
1.2722773533047629
-0.5647367890827935
0.005718199211906842
1.2722773533047629
-0.5647367890827935
0.005718199211906842
1.2722773533047629
-0.5647367890827935
0.005718199211906842
1.2722773533047629
-0.5520154039432944
-0.004348173355042495
1.2732632423010315
-0.5520154039432944
-0.004348173355042495
1.2732632423010315
-0.5520154039432944
-0.004348173355042495
1.2732632423010315
-0.5520154039432944
-0.004348173355042495
1.2732632423010315
-0.5515119952863439
-0.014642659631662234
1.2728261669359922
-0.5515119952863439
-0.014642659631662234
1.2728261669359922
-0.5515119952863439
-0.014642659631662234
1.2728261669359922
-0.5515119952863439
-0.014642659631662234
1.2728261669359922
-0.5533488540483215
-0.02488171752699807
1.2732046490242135
-0.5533488540483215
-0.02488171752699807
1.2732046490242135
-0.5533488540483215
-0.02488171752699807
1.2732046490242135
-0.5533488540483215
-0.02488171752699807
1.2732046490242135
-0.5497301307759389
-0.030154959762772226
1.2740702402074922
-0.5497301307759389
-0.030154959762772226
1.2740702402074922
-0.5497301307759389
-0.030154959762772226
1.2740702402074922
-0.5497301307759389
-0.030154959762772226
1.2740702402074922
-0.5459543664038609
-0.031129306716821074
1.2749768147786034
-0.5459543664038609
-0.031129306716821074
1.2749768147786034
-0.5459543664038609
-0.031129306716821074
1.2749768147786034
-0.5459543664038609
-0.031129306716821074
1.2749768147786034
-0.5479947981830182
-0.029420534828788893
1.275717141834909
-0.5479947981830182
-0.029420534828788893
1.275717141834909
-0.5479947981830182
-0.029420534828788893
1.275717141834909
-0.5479947981830182
-0.029420534828788893
1.275717141834909
-0.5530587863835074
-0.026131818341281636
1.2762979564829595
-0.5530587863835074
-0.026131818341281636
1.2762979564829595
-0.5530587863835074
-0.026131818341281636
1.2762979564829595
-0.5530587863835074
-0.026131818341281636
1.2762979564829595
-0.5535882902226532
-0.02256699507013778
1.2763571581012259
-0.5535882902226532
-0.02256699507013778
1.2763571581012259
-0.5535882902226532
-0.02256699507013778
1.2763571581012259
-0.5535882902226532
-0.02256699507013778
1.2763571581012259
-0.5520786715449989
-0.020473625298996594
1.276535995296677
-0.5520786715449989
-0.020473625298996594
1.276535995296677
-0.5520786715449989
-0.020473625298996594
1.276535995296677
-0.5520786715449989
-0.020473625298996594
1.276535995296677
-0.5495267407444748
-0.019819197698367295
1.2765326032963138
-0.5495267407444748
-0.019819197698367295
1.2765326032963138
-0.5495267407444748
-0.019819197698367295
1.2765326032963138
-0.5495267407444748
-0.019819197698367295
1.2765326032963138
-0.5460867693466955
-0.020303743067509254
1.2765129074046384
-0.5460867693466955
-0.020303743067509254
1.2765129074046384
-0.5460867693466955
-0.020303743067509254
1.2765129074046384
-0.5460867693466955
-0.020303743067509254
1.2765129074046384
-0.5455113411095418
-0.020652696159180434
1.276883504649811
-0.5455113411095418
-0.020652696159180434
1.276883504649811
-0.5455113411095418
-0.020652696159180434
1.276883504649811
-0.5455113411095418
-0.020652696159180434
1.276883504649811
-0.5451750817264102
-0.02151602745917133
1.2775023816146631
-0.5451750817264102
-0.02151602745917133
1.2775023816146631
-0.5451750817264102
-0.02151602745917133
1.2775023816146631
-0.5451750817264102
-0.02151602745917133
1.2775023816146631
-0.5449067318715148
-0.02219609316499501
1.2775120508981423
-0.5449067318715148
-0.02219609316499501
1.2775120508981423
-0.5449067318715148
-0.02219609316499501
1.2775120508981423
-0.5449067318715148
-0.02219609316499501
1.2775120508981423
-0.5436321291683425
-0.02304693205409231
1.2766974013268082
-0.5436321291683425
-0.02304693205409231
1.2766974013268082
-0.5436321291683425
-0.02304693205409231
1.2766974013268082
-0.5436321291683425
-0.02304693205409231
1.2766974013268082
-0.5406829618804555
-0.024147648362594188
1.2753770248370933
-0.5406829618804555
-0.024147648362594188
1.2753770248370933
-0.5406829618804555
-0.024147648362594188
1.2753770248370933
-0.5406829618804555
-0.024147648362594188
1.2753770248370933
-0.5403752971608101
-0.024847249421740943
1.2736667884273876
-0.5403752971608101
-0.024847249421740943
1.2736667884273876
-0.5403752971608101
-0.024847249421740943
1.2736667884273876
-0.5403752971608101
-0.024847249421740943
1.2736667884273876
-0.5407979731838428
-0.025766202611296293
1.2725583873064101
-0.5407979731838428
-0.025766202611296293
1.2725583873064101
-0.5407979731838428
-0.025766202611296293
1.2725583873064101
-0.5407979731838428
-0.025766202611296293
1.2725583873064101
-0.539766653452767
-0.026832108051924916
1.2720559078326312
-0.539766653452767
-0.026832108051924916
1.2720559078326312
-0.539766653452767
-0.026832108051924916
1.2720559078326312
-0.539766653452767
-0.026832108051924916
1.2720559078326312
-0.5365125222556721
-0.02860853189271075
1.272000834751329
-0.5365125222556721
-0.02860853189271075
1.272000834751329
-0.5365125222556721
-0.02860853189271075
1.272000834751329
-0.5365125222556721
-0.02860853189271075
1.272000834751329
-0.5327913253239274
-0.0306607345073958
1.2716539697729659
-0.5327913253239274
-0.0306607345073958
1.2716539697729659
-0.5327913253239274
-0.0306607345073958
1.2716539697729659
-0.5327913253239274
-0.0306607345073958
1.2716539697729659
-0.5286245096993687
-0.03255954178802475
1.271277899208496
-0.5286245096993687
-0.03255954178802475
1.271277899208496
-0.5286245096993687
-0.03255954178802475
1.271277899208496
-0.5286245096993687
-0.03255954178802475
1.271277899208496
-0.525505186762401
-0.035075181603197114
1.2722141688270432
-0.525505186762401
-0.035075181603197114
1.2722141688270432
-0.525505186762401
-0.035075181603197114
1.2722141688270432
-0.525505186762401
-0.035075181603197114
1.2722141688270432
-0.5240649124124888
-0.037500785563471854
1.2724373542486944
-0.5240649124124888
-0.037500785563471854
1.2724373542486944
-0.5240649124124888
-0.037500785563471854
1.2724373542486944
-0.5240649124124888
-0.037500785563471854
1.2724373542486944
-0.5202284978961292
-0.03911928585190941
1.2715905559627463
-0.5202284978961292
-0.03911928585190941
1.2715905559627463
-0.5202284978961292
-0.03911928585190941
1.2715905559627463
-0.5202284978961292
-0.03911928585190941
1.2715905559627463
-0.5155877479806633
-0.04007270459160652
1.2700438773639589
-0.5155877479806633
-0.04007270459160652
1.2700438773639589
-0.5155877479806633
-0.04007270459160652
1.2700438773639589
-0.5155877479806633
-0.04007270459160652
1.2700438773639589
-0.5123437566019098
-0.04091385247853286
1.2686908376009651
-0.5123437566019098
-0.04091385247853286
1.2686908376009651
-0.5123437566019098
-0.04091385247853286
1.2686908376009651
-0.5123437566019098
-0.04091385247853286
1.2686908376009651
-0.5105271439691438
-0.04114096630265211
1.2674301171320423
-0.5105271439691438
-0.04114096630265211
1.2674301171320423
-0.5105271439691438
-0.04114096630265211
1.2674301171320423
-0.5105271439691438
-0.04114096630265211
1.2674301171320423
-0.5096974427280695
-0.04075222251191366
1.266355277324903
-0.5096974427280695
-0.04075222251191366
1.266355277324903
-0.5096974427280695
-0.04075222251191366
1.266355277324903
-0.5096974427280695
-0.04075222251191366
1.266355277324903
-0.5081835368848894
-0.043949424992325944
1.264936635661128
-0.5081835368848894
-0.043949424992325944
1.264936635661128
-0.5081835368848894
-0.043949424992325944
1.264936635661128
-0.5081835368848894
-0.043949424992325944
1.264936635661128
-0.5056932486796422
-0.03511859447280004
1.2640994009849573
-0.5056932486796422
-0.03511859447280004
1.2640994009849573
-0.5056932486796422
-0.03511859447280004
1.2640994009849573
-0.5056932486796422
-0.03511859447280004
1.2640994009849573
-0.49339532477679826
-0.04580662181915081
1.2635847668300455
-0.49339532477679826
-0.04580662181915081
1.2635847668300455
-0.49339532477679826
-0.04580662181915081
1.2635847668300455
-0.49339532477679826
-0.04580662181915081
1.2635847668300455
-0.4941204485722471
-0.04443305802681337
1.2637832841574872
-0.4941204485722471
-0.04443305802681337
1.2637832841574872
-0.4941204485722471
-0.04443305802681337
1.2637832841574872
-0.4941204485722471
-0.04443305802681337
1.2637832841574872
-0.49286070875691096
-0.036654564669482845
1.2634910211736048
-0.49286070875691096
-0.036654564669482845
1.2634910211736048
-0.49286070875691096
-0.036654564669482845
1.2634910211736048
-0.49286070875691096
-0.036654564669482845
1.2634910211736048
-0.48611259672767804
-0.04870538378059871
1.2631512165585286
-0.48611259672767804
-0.04870538378059871
1.2631512165585286
-0.48611259672767804
-0.04870538378059871
1.2631512165585286
-0.48611259672767804
-0.04870538378059871
1.2631512165585286
-0.4918731673165473
-0.03245586507556165
1.2631028893488692
-0.4918731673165473
-0.03245586507556165
1.2631028893488692
-0.4918731673165473
-0.03245586507556165
1.2631028893488692
-0.4918731673165473
-0.03245586507556165
1.2631028893488692
-0.48626801109529694
-0.0374992290061806
1.2623911932839607
-0.48626801109529694
-0.0374992290061806
1.2623911932839607
-0.48626801109529694
-0.0374992290061806
1.2623911932839607
-0.48626801109529694
-0.0374992290061806
1.2623911932839607
-0.4836650477244738
-0.037137567292382184
1.2607260707836285
-0.4836650477244738
-0.037137567292382184
1.2607260707836285
-0.4836650477244738
-0.037137567292382184
1.2607260707836285
-0.4836650477244738
-0.037137567292382184
1.2607260707836285
-0.4820280377107515
-0.03671186212255789
1.2602946023133057
-0.4820280377107515
-0.03671186212255789
1.2602946023133057
-0.4820280377107515
-0.03671186212255789
1.2602946023133057
-0.4820280377107515
-0.03671186212255789
1.2602946023133057
-0.48066306088260474
-0.03670746070452225
1.2597970285244848
-0.48066306088260474
-0.03670746070452225
1.2597970285244848
-0.48066306088260474
-0.03670746070452225
1.2597970285244848
-0.48066306088260474
-0.03670746070452225
1.2597970285244848
-0.4786382252258596
-0.036496764121333174
1.2596892735737422
-0.4786382252258596
-0.036496764121333174
1.2596892735737422
-0.4786382252258596
-0.036496764121333174
1.2596892735737422
-0.4786382252258596
-0.036496764121333174
1.2596892735737422
-0.4785679143378705
-0.03640125737886167
1.2596646071113569
-0.4785679143378705
-0.03640125737886167
1.2596646071113569
-0.4785679143378705
-0.03640125737886167
1.2596646071113569
-0.4785679143378705
-0.03640125737886167
1.2596646071113569
-0.4787743710146296
-0.03628538854950099
1.2595384148807787
-0.4787743710146296
-0.03628538854950099
1.2595384148807787
-0.4787743710146296
-0.03628538854950099
1.2595384148807787
-0.4787743710146296
-0.03628538854950099
1.2595384148807787
-0.47583433048174445
-0.04129330815863452
1.259904787302377
-0.47583433048174445
-0.04129330815863452
1.259904787302377
-0.47583433048174445
-0.04129330815863452
1.259904787302377
-0.47583433048174445
-0.04129330815863452
1.259904787302377
-0.4789992785220003
-0.024772225469385935
1.2600756280327867
-0.4789992785220003
-0.024772225469385935
1.2600756280327867
-0.4789992785220003
-0.024772225469385935
1.2600756280327867
-0.4789992785220003
-0.024772225469385935
1.2600756280327867
-0.47888485494034927
-0.027512021750776106
1.2612975706468694
-0.47888485494034927
-0.027512021750776106
1.2612975706468694
-0.47888485494034927
-0.027512021750776106
1.2612975706468694
-0.47888485494034927
-0.027512021750776106
1.2612975706468694
-0.4795137393982479
-0.02981712653904731
1.2621933922789341
-0.4795137393982479
-0.02981712653904731
1.2621933922789341
-0.4795137393982479
-0.02981712653904731
1.2621933922789341
-0.4795137393982479
-0.02981712653904731
1.2621933922789341
-0.4796593491474429
-0.031601401988670945
1.2634359286036543
-0.4796593491474429
-0.031601401988670945
1.2634359286036543
-0.4796593491474429
-0.031601401988670945
1.2634359286036543
-0.4796593491474429
-0.031601401988670945
1.2634359286036543
-0.47816561390255513
-0.033705394001954575
1.2645061704643001
-0.47816561390255513
-0.033705394001954575
1.2645061704643001
-0.47816561390255513
-0.033705394001954575
1.2645061704643001
-0.47816561390255513
-0.033705394001954575
1.2645061704643001
-0.47682156447778473
-0.03591554926063103
1.2652506089629227
-0.47682156447778473
-0.03591554926063103
1.2652506089629227
-0.47682156447778473
-0.03591554926063103
1.2652506089629227
-0.47682156447778473
-0.03591554926063103
1.2652506089629227
-0.47668079463165297
-0.038610179221219856
1.2662538202436644
-0.47668079463165297
-0.038610179221219856
1.2662538202436644
-0.47668079463165297
-0.038610179221219856
1.2662538202436644
-0.47668079463165297
-0.038610179221219856
1.2662538202436644
-0.4778007281789598
-0.041707527247644136
1.267530163721678
-0.4778007281789598
-0.041707527247644136
1.267530163721678
-0.4778007281789598
-0.041707527247644136
1.267530163721678
-0.4778007281789598
-0.041707527247644136
1.267530163721678
-0.47918447774899675
-0.044589158472025665
1.2676550549143626
-0.47918447774899675
-0.044589158472025665
1.2676550549143626
-0.47918447774899675
-0.044589158472025665
1.2676550549143626
-0.47918447774899675
-0.044589158472025665
1.2676550549143626
-0.48147736837438637
-0.04623104946754002
1.266845918119826
-0.48147736837438637
-0.04623104946754002
1.266845918119826
-0.48147736837438637
-0.04623104946754002
1.266845918119826
-0.48147736837438637
-0.04623104946754002
1.266845918119826
-0.4833824259210022
-0.04703309099271122
1.2648430968355604
-0.4833824259210022
-0.04703309099271122
1.2648430968355604
-0.4833824259210022
-0.04703309099271122
1.2648430968355604
-0.4833824259210022
-0.04703309099271122
1.2648430968355604
-0.4858892518447461
-0.04540789476762006
1.2625317108292258
-0.4858892518447461
-0.04540789476762006
1.2625317108292258
-0.4858892518447461
-0.04540789476762006
1.2625317108292258
-0.4858892518447461
-0.04540789476762006
1.2625317108292258
-0.4905785870173004
-0.040888690249811545
1.2606118986309947
-0.4905785870173004
-0.040888690249811545
1.2606118986309947
-0.4905785870173004
-0.040888690249811545
1.2606118986309947
-0.4905785870173004
-0.040888690249811545
1.2606118986309947
-0.49279965165101575
-0.035921111664749275
1.2596029710922192
-0.49279965165101575
-0.035921111664749275
1.2596029710922192
-0.49279965165101575
-0.035921111664749275
1.2596029710922192
-0.49279965165101575
-0.035921111664749275
1.2596029710922192
-0.4930560249973151
-0.030127160668794527
1.2556321338633751
-0.4930560249973151
-0.030127160668794527
1.2556321338633751
-0.4930560249973151
-0.030127160668794527
1.2556321338633751
-0.4930560249973151
-0.030127160668794527
1.2556321338633751
-0.4980456835794213
-0.021573870038612306
1.2478450273038395
-0.4980456835794213
-0.021573870038612306
1.2478450273038395
-0.4980456835794213
-0.021573870038612306
1.2478450273038395
-0.4980456835794213
-0.021573870038612306
1.2478450273038395
-0.5038154295643859
-0.010042252292770356
1.2395670340982559
-0.5038154295643859
-0.010042252292770356
1.2395670340982559
-0.5038154295643859
-0.010042252292770356
1.2395670340982559
-0.5038154295643859
-0.010042252292770356
1.2395670340982559
-0.5042754165737616
2.786920160493164E-4
1.2332763939348725
-0.5042754165737616
2.786920160493164E-4
1.2332763939348725
-0.5042754165737616
2.786920160493164E-4
1.2332763939348725
-0.5042754165737616
2.786920160493164E-4
1.2332763939348725
-0.5056843258648498
0.011141900976169341
1.2296765154062128
-0.5056843258648498
0.011141900976169341
1.2296765154062128
-0.5056843258648498
0.011141900976169341
1.2296765154062128
-0.5056843258648498
0.011141900976169341
1.2296765154062128
-0.5080306398179085
0.02015267642293364
1.227202936416346
-0.5080306398179085
0.02015267642293364
1.227202936416346
-0.5080306398179085
0.02015267642293364
1.227202936416346
-0.5080306398179085
0.02015267642293364
1.227202936416346
-0.50662417296337
0.024041967403060433
1.222386746384688
-0.50662417296337
0.024041967403060433
1.222386746384688
-0.50662417296337
0.024041967403060433
1.222386746384688
-0.50662417296337
0.024041967403060433
1.222386746384688
-0.5098879491929404
0.03146916214096748
1.2175287398406094
-0.5098879491929404
0.03146916214096748
1.2175287398406094
-0.5098879491929404
0.03146916214096748
1.2175287398406094
-0.5098879491929404
0.03146916214096748
1.2175287398406094
-0.5171606510169081
0.03677496884454177
1.2100271626242523
-0.5171606510169081
0.03677496884454177
1.2100271626242523
-0.5171606510169081
0.03677496884454177
1.2100271626242523
-0.5171606510169081
0.03677496884454177
1.2100271626242523
-0.522009800813689
0.042118393611503165
1.2056246642762656
-0.522009800813689
0.042118393611503165
1.2056246642762656
-0.522009800813689
0.042118393611503165
1.2056246642762656
-0.522009800813689
0.042118393611503165
1.2056246642762656
-0.5249967063540008
0.0426511848823579
1.2007308149100722
-0.5249967063540008
0.0426511848823579
1.2007308149100722
-0.5249967063540008
0.0426511848823579
1.2007308149100722
-0.5249967063540008
0.0426511848823579
1.2007308149100722
-0.5287228852103885
0.042312058642090054
1.1948261362248727
-0.5287228852103885
0.042312058642090054
1.1948261362248727
-0.5287228852103885
0.042312058642090054
1.1948261362248727
-0.5287228852103885
0.042312058642090054
1.1948261362248727
-0.5335621182436208
0.03867146281353056
1.1870235785397698
-0.5335621182436208
0.03867146281353056
1.1870235785397698
-0.5335621182436208
0.03867146281353056
1.1870235785397698
-0.5335621182436208
0.03867146281353056
1.1870235785397698
-0.5377159138920499
0.0314513025829007
1.1801580123707056
-0.5377159138920499
0.0314513025829007
1.1801580123707056
-0.5377159138920499
0.0314513025829007
1.1801580123707056
-0.5377159138920499
0.0314513025829007
1.1801580123707056
-0.5355476172955629
0.02268264448534745
1.1762765356849205
-0.5355476172955629
0.02268264448534745
1.1762765356849205
-0.5355476172955629
0.02268264448534745
1.1762765356849205
-0.5355476172955629
0.02268264448534745
1.1762765356849205
-0.5328416298642401
0.014029881504346498
1.1757207514283154
-0.5328416298642401
0.014029881504346498
1.1757207514283154
-0.5328416298642401
0.014029881504346498
1.1757207514283154
-0.5328416298642401
0.014029881504346498
1.1757207514283154
-0.5319497522823714
0.004495241612516016
1.1769209938966056
-0.5319497522823714
0.004495241612516016
1.1769209938966056
-0.5319497522823714
0.004495241612516016
1.1769209938966056
-0.5319497522823714
0.004495241612516016
1.1769209938966056
-0.5352390687448563
-0.005976128325090147
1.1790480711584617
-0.5352390687448563
-0.005976128325090147
1.1790480711584617
-0.5352390687448563
-0.005976128325090147
1.1790480711584617
-0.5352390687448563
-0.005976128325090147
1.1790480711584617
-0.5390562186817122
-0.014632417199694867
1.1815226664188254
-0.5390562186817122
-0.014632417199694867
1.1815226664188254
-0.5390562186817122
-0.014632417199694867
1.1815226664188254
-0.5390562186817122
-0.014632417199694867
1.1815226664188254
-0.5402354317140042
-0.021638658160892277
1.184385779538122
-0.5402354317140042
-0.021638658160892277
1.184385779538122
-0.5402354317140042
-0.021638658160892277
1.184385779538122
-0.5402354317140042
-0.021638658160892277
1.184385779538122
-0.5372722706697909
-0.02652409283484659
1.1866786866184733
-0.5372722706697909
-0.02652409283484659
1.1866786866184733
-0.5372722706697909
-0.02652409283484659
1.1866786866184733
-0.5372722706697909
-0.02652409283484659
1.1866786866184733
-0.5335093982873258
-0.02802021349665852
1.18713758111683
-0.5335093982873258
-0.02802021349665852
1.18713758111683
-0.5335093982873258
-0.02802021349665852
1.18713758111683
-0.5335093982873258
-0.02802021349665852
1.18713758111683
-0.5343561789622105
-0.026489002133458152
1.1866963356279576
-0.5343561789622105
-0.026489002133458152
1.1866963356279576
-0.5343561789622105
-0.026489002133458152
1.1866963356279576
-0.5343561789622105
-0.026489002133458152
1.1866963356279576
-0.5365538118616223
-0.022219432386942527
1.1868891723505621
-0.5365538118616223
-0.022219432386942527
1.1868891723505621
-0.5365538118616223
-0.022219432386942527
1.1868891723505621
-0.5365538118616223
-0.022219432386942527
1.1868891723505621
-0.5368204437003016
-0.015804432105966312
1.1878666631015915
-0.5368204437003016
-0.015804432105966312
1.1878666631015915
-0.5368204437003016
-0.015804432105966312
1.1878666631015915
-0.5368204437003016
-0.015804432105966312
1.1878666631015915
-0.535504594263108
-0.00783010161246941
1.1877721802875059
-0.535504594263108
-0.00783010161246941
1.1877721802875059
-0.535504594263108
-0.00783010161246941
1.1877721802875059
-0.535504594263108
-0.00783010161246941
1.1877721802875059
-0.5366518235269183
0.0011453389082089283
1.1870663705933024
-0.5366518235269183
0.0011453389082089283
1.1870663705933024
-0.5366518235269183
0.0011453389082089283
1.1870663705933024
-0.5366518235269183
0.0011453389082089283
1.1870663705933024
-0.535853629019902
0.00983692569354627
1.1862598232636892
-0.535853629019902
0.00983692569354627
1.1862598232636892
-0.535853629019902
0.00983692569354627
1.1862598232636892
-0.535853629019902
0.00983692569354627
1.1862598232636892
-0.5339978655501942
0.017477822296134073
1.1875464013064194
-0.5339978655501942
0.017477822296134073
1.1875464013064194
-0.5339978655501942
0.017477822296134073
1.1875464013064194
-0.5339978655501942
0.017477822296134073
1.1875464013064194
-0.5313476210581957
0.02453744670049289
1.1908734015849396
-0.5313476210581957
0.02453744670049289
1.1908734015849396
-0.5313476210581957
0.02453744670049289
1.1908734015849396
-0.5313476210581957
0.02453744670049289
1.1908734015849396
-0.5295208700409146
0.03022915544175938
1.196541082806462
-0.5295208700409146
0.03022915544175938
1.196541082806462
-0.5295208700409146
0.03022915544175938
1.196541082806462
-0.5295208700409146
0.03022915544175938
1.196541082806462
-0.5259746437723722
0.03465332180988572
1.202478650609914
-0.5259746437723722
0.03465332180988572
1.202478650609914
-0.5259746437723722
0.03465332180988572
1.202478650609914
-0.5259746437723722
0.03465332180988572
1.202478650609914
-0.5278393284465136
0.037756167737325604
1.2078603072874365
-0.5278393284465136
0.037756167737325604
1.2078603072874365
-0.5278393284465136
0.037756167737325604
1.2078603072874365
-0.5278393284465136
0.037756167737325604
1.2078603072874365
-0.5300799879504333
0.040851664389586706
1.2100410367754877
-0.5300799879504333
0.040851664389586706
1.2100410367754877
-0.5300799879504333
0.040851664389586706
1.2100410367754877
-0.5300799879504333
0.040851664389586706
1.2100410367754877
-0.5255651821476722
0.0427863603581768
1.2149953084146135
-0.5255651821476722
0.0427863603581768
1.2149953084146135
-0.5255651821476722
0.0427863603581768
1.2149953084146135
-0.5255651821476722
0.0427863603581768
1.2149953084146135
-0.5213413794200095
0.04301348131301923
1.2241177209032188
-0.5213413794200095
0.04301348131301923
1.2241177209032188
-0.5213413794200095
0.04301348131301923
1.2241177209032188
-0.5213413794200095
0.04301348131301923
1.2241177209032188
-0.5151869992482828
0.042728132155826486
1.2287711296064472
-0.5151869992482828
0.042728132155826486
1.2287711296064472
-0.5151869992482828
0.042728132155826486
1.2287711296064472
-0.5151869992482828
0.042728132155826486
1.2287711296064472
-0.5076593407356755
0.03661921833577043
1.2304262119545397
-0.5076593407356755
0.03661921833577043
1.2304262119545397
-0.5076593407356755
0.03661921833577043
1.2304262119545397
-0.5076593407356755
0.03661921833577043
1.2304262119545397
-0.5069547076497949
0.025516936765532086
1.22938792485112
-0.5069547076497949
0.025516936765532086
1.22938792485112
-0.5069547076497949
0.025516936765532086
1.22938792485112
-0.5069547076497949
0.025516936765532086
1.22938792485112
-0.5085889087929303
0.011298328734930455
1.2370930982418273
-0.5085889087929303
0.011298328734930455
1.2370930982418273
-0.5085889087929303
0.011298328734930455
1.2370930982418273
-0.5085889087929303
0.011298328734930455
1.2370930982418273
-0.47964262992031703
-0.0038124872459093426
1.247668930055947
-0.47964262992031703
-0.0038124872459093426
1.247668930055947
-0.47964262992031703
-0.0038124872459093426
1.247668930055947
-0.47964262992031703
-0.0038124872459093426
1.247668930055947
-0.4608093785328187
-0.009836067008395637
1.254802042575572
-0.4608093785328187
-0.009836067008395637
1.254802042575572
-0.4608093785328187
-0.009836067008395637
1.254802042575572
-0.4608093785328187
-0.009836067008395637
1.254802042575572
-0.4787904514998933
-0.016126390888338164
1.2629421487545005
-0.4787904514998933
-0.016126390888338164
1.2629421487545005
-0.4787904514998933
-0.016126390888338164
1.2629421487545005
-0.4787904514998933
-0.016126390888338164
1.2629421487545005
-0.48832306990096275
-0.03172521758539839
1.2698443779600659
-0.48832306990096275
-0.03172521758539839
1.2698443779600659
-0.48832306990096275
-0.03172521758539839
1.2698443779600659
-0.48832306990096275
-0.03172521758539839
1.2698443779600659
-0.48309167182026014
-0.04158776905107085
1.2764001692370546
-0.48309167182026014
-0.04158776905107085
1.2764001692370546
-0.48309167182026014
-0.04158776905107085
1.2764001692370546
-0.48309167182026014
-0.04158776905107085
1.2764001692370546
-0.47197126161696357
-0.04316805593860987
1.2780197475062198
-0.47197126161696357
-0.04316805593860987
1.2780197475062198
-0.47197126161696357
-0.04316805593860987
1.2780197475062198
-0.47197126161696357
-0.04316805593860987
1.2780197475062198
-0.46693849132895243
-0.04747878244967971
1.2774111250260327
-0.46693849132895243
-0.04747878244967971
1.2774111250260327
-0.46693849132895243
-0.04747878244967971
1.2774111250260327
-0.46693849132895243
-0.04747878244967971
1.2774111250260327
-0.4674054681462387
-0.05061191840000216
1.2766104591955518
-0.4674054681462387
-0.05061191840000216
1.2766104591955518
-0.4674054681462387
-0.05061191840000216
1.2766104591955518
-0.4674054681462387
-0.05061191840000216
1.2766104591955518
-0.47397081098127936
-0.0513009825992224
1.2750003359701976
-0.47397081098127936
-0.0513009825992224
1.2750003359701976
-0.47397081098127936
-0.0513009825992224
1.2750003359701976
-0.47397081098127936
-0.0513009825992224
1.2750003359701976
-0.47779826514291646
-0.049280450308749904
1.272137947994854
-0.47779826514291646
-0.049280450308749904
1.272137947994854
-0.47779826514291646
-0.049280450308749904
1.272137947994854
-0.47779826514291646
-0.049280450308749904
1.272137947994854
-0.47747492927954466
-0.044338403449369485
1.27085205618174
-0.47747492927954466
-0.044338403449369485
1.27085205618174
-0.47747492927954466
-0.044338403449369485
1.27085205618174
-0.47747492927954466
-0.044338403449369485
1.27085205618174
-0.47899058613856
-0.038194763750418095
1.2715955861154775
-0.47899058613856
-0.038194763750418095
1.2715955861154775
-0.47899058613856
-0.038194763750418095
1.2715955861154775
-0.47899058613856
-0.038194763750418095
1.2715955861154775
-0.47586992156403085
-0.0316671594608827
1.2717197913246676
-0.47586992156403085
-0.0316671594608827
1.2717197913246676
-0.47586992156403085
-0.0316671594608827
1.2717197913246676
-0.47586992156403085
-0.0316671594608827
1.2717197913246676
-0.47590232160484297
-0.02651346218482443
1.2729822784078346
-0.47590232160484297
-0.02651346218482443
1.2729822784078346
-0.47590232160484297
-0.02651346218482443
1.2729822784078346
-0.47590232160484297
-0.02651346218482443
1.2729822784078346
-0.47738455803252805
-0.023211531085969232
1.2756645338058066
-0.47738455803252805
-0.023211531085969232
1.2756645338058066
-0.47738455803252805
-0.023211531085969232
1.2756645338058066
-0.47738455803252805
-0.023211531085969232
1.2756645338058066
-0.4759751798321856
-0.021238908984708
1.2784631034887861
-0.4759751798321856
-0.021238908984708
1.2784631034887861
-0.4759751798321856
-0.021238908984708
1.2784631034887861
-0.4759751798321856
-0.021238908984708
1.2784631034887861
-0.4714996053045025
-0.018843688082259898
1.2781708342179143
-0.4714996053045025
-0.018843688082259898
1.2781708342179143
-0.4714996053045025
-0.018843688082259898
1.2781708342179143
-0.4714996053045025
-0.018843688082259898
1.2781708342179143
-0.4709327765816246
-0.01778278694429308
1.2777613436762403
-0.4709327765816246
-0.01778278694429308
1.2777613436762403
-0.4709327765816246
-0.01778278694429308
1.2777613436762403
-0.4709327765816246
-0.01778278694429308
1.2777613436762403
-0.4728598869952701
-0.019383492075935094
1.2782618882545826
-0.4728598869952701
-0.019383492075935094
1.2782618882545826
-0.4728598869952701
-0.019383492075935094
1.2782618882545826
-0.4728598869952701
-0.019383492075935094
1.2782618882545826
-0.47359938085823666
-0.02296126274589064
1.2780265591481763
-0.47359938085823666
-0.02296126274589064
1.2780265591481763
-0.47359938085823666
-0.02296126274589064
1.2780265591481763
-0.47359938085823666
-0.02296126274589064
1.2780265591481763
-0.4740877136521284
-0.024880327475433426
1.27560687045139
-0.4740877136521284
-0.024880327475433426
1.27560687045139
-0.4740877136521284
-0.024880327475433426
1.27560687045139
-0.4740877136521284
-0.024880327475433426
1.27560687045139
-0.4744312352223513
-0.02644966169590067
1.2745327179143924
-0.4744312352223513
-0.02644966169590067
1.2745327179143924
-0.4744312352223513
-0.02644966169590067
1.2745327179143924
-0.4744312352223513
-0.02644966169590067
1.2745327179143924
-0.475667307301068
-0.03041957415463309
1.273750489909688
-0.475667307301068
-0.03041957415463309
1.273750489909688
-0.475667307301068
-0.03041957415463309
1.273750489909688
-0.475667307301068
-0.03041957415463309
1.273750489909688
-0.47534677592409696
-0.034460814162280695
1.2742721100915801
-0.47534677592409696
-0.034460814162280695
1.2742721100915801
-0.47534677592409696
-0.034460814162280695
1.2742721100915801
-0.47534677592409696
-0.034460814162280695
1.2742721100915801
-0.4763903592461339
-0.03770771658025879
1.2744989535020954
-0.4763903592461339
-0.03770771658025879
1.2744989535020954
-0.4763903592461339
-0.03770771658025879
1.2744989535020954
-0.4763903592461339
-0.03770771658025879
1.2744989535020954
-0.4770169089483502
-0.0401939174745421
1.2746365579527525
-0.4770169089483502
-0.0401939174745421
1.2746365579527525
-0.4770169089483502
-0.0401939174745421
1.2746365579527525
-0.4770169089483502
-0.0401939174745421
1.2746365579527525
-0.4747399453913389
-0.042140300377644935
1.2747892482845404
-0.4747399453913389
-0.042140300377644935
1.2747892482845404
-0.4747399453913389
-0.042140300377644935
1.2747892482845404
-0.4747399453913389
-0.042140300377644935
1.2747892482845404
-0.4770476860974665
-0.04549321842748195
1.2753723567397848
-0.4770476860974665
-0.04549321842748195
1.2753723567397848
-0.4770476860974665
-0.04549321842748195
1.2753723567397848
-0.4770476860974665
-0.04549321842748195
1.2753723567397848
-0.47880901006979143
-0.047787852099551616
1.2748126566306235
-0.47880901006979143
-0.047787852099551616
1.2748126566306235
-0.47880901006979143
-0.047787852099551616
1.2748126566306235
-0.47880901006979143
-0.047787852099551616
1.2748126566306235
-0.4779653731844576
-0.04683207202483492
1.2734303534482927
-0.4779653731844576
-0.04683207202483492
1.2734303534482927
-0.4779653731844576
-0.04683207202483492
1.2734303534482927
-0.4779653731844576
-0.04683207202483492
1.2734303534482927
-0.479266078153413
-0.04532966450599896
1.2723381704676942
-0.479266078153413
-0.04532966450599896
1.2723381704676942
-0.479266078153413
-0.04532966450599896
1.2723381704676942
-0.479266078153413
-0.04532966450599896
1.2723381704676942
-0.48382320262158596
-0.04434122138396009
1.2715862082550975
-0.48382320262158596
-0.04434122138396009
1.2715862082550975
-0.48382320262158596
-0.04434122138396009
1.2715862082550975
-0.48382320262158596
-0.04434122138396009
1.2715862082550975
-0.48464945092133194
-0.04133379425120864
1.2711859279906286
-0.48464945092133194
-0.04133379425120864
1.2711859279906286
-0.48464945092133194
-0.04133379425120864
1.2711859279906286
-0.48464945092133194
-0.04133379425120864
1.2711859279906286
-0.4819817638976106
-0.039340951997748265
1.2699429894129568
-0.4819817638976106
-0.039340951997748265
1.2699429894129568
-0.4819817638976106
-0.039340951997748265
1.2699429894129568
-0.4819817638976106
-0.039340951997748265
1.2699429894129568
-0.4793044798933829
-0.02980103089105601
1.2675913167657367
-0.4793044798933829
-0.02980103089105601
1.2675913167657367
-0.4793044798933829
-0.02980103089105601
1.2675913167657367
-0.4793044798933829
-0.02980103089105601
1.2675913167657367
-0.48267338196849674
-0.025443399876297217
1.2669887910058197
-0.48267338196849674
-0.025443399876297217
1.2669887910058197
-0.48267338196849674
-0.025443399876297217
1.2669887910058197
-0.48267338196849674
-0.025443399876297217
1.2669887910058197
-0.4888735855103191
-0.018642219252312
1.266035126857616
-0.4888735855103191
-0.018642219252312
1.266035126857616
-0.4888735855103191
-0.018642219252312
1.266035126857616
-0.4888735855103191
-0.018642219252312
1.266035126857616
-0.4929074016291475
-0.007784637852362205
1.2644650323439093
-0.4929074016291475
-0.007784637852362205
1.2644650323439093
-0.4929074016291475
-0.007784637852362205
1.2644650323439093
-0.4929074016291475
-0.007784637852362205
1.2644650323439093
-0.4937892517970488
0.0014800683583262953
1.2621062937568748
-0.4937892517970488
0.0014800683583262953
1.2621062937568748
-0.4937892517970488
0.0014800683583262953
1.2621062937568748
-0.4937892517970488
0.0014800683583262953
1.2621062937568748
-0.4906339193452519
0.0024369864942096328
1.261450961607932
-0.4906339193452519
0.0024369864942096328
1.261450961607932
-0.4906339193452519
0.0024369864942096328
1.261450961607932
-0.4906339193452519
0.0024369864942096328
1.261450961607932
-0.4844615389806083
-0.005776420917259855
1.2621999020411132
-0.4844615389806083
-0.005776420917259855
1.2621999020411132
-0.4844615389806083
-0.005776420917259855
1.2621999020411132
-0.4844615389806083
-0.005776420917259855
1.2621999020411132
-0.4817463077508825
-0.01696412713120624
1.2621571611849915
-0.4817463077508825
-0.01696412713120624
1.2621571611849915
-0.4817463077508825
-0.01696412713120624
1.2621571611849915
-0.4817463077508825
-0.01696412713120624
1.2621571611849915
-0.4864744048190535
-0.022848815291605675
1.261024848309411
-0.4864744048190535
-0.022848815291605675
1.261024848309411
-0.4864744048190535
-0.022848815291605675
1.261024848309411
-0.4864744048190535
-0.022848815291605675
1.261024848309411
-0.49175969578857265
-0.02049407620266654
1.2612091356722845
-0.49175969578857265
-0.02049407620266654
1.2612091356722845
-0.49175969578857265
-0.02049407620266654
1.2612091356722845
-0.49175969578857265
-0.02049407620266654
1.2612091356722845
-0.4938555733756978
-0.013870445396719657
1.261644299783447
-0.4938555733756978
-0.013870445396719657
1.261644299783447
-0.4938555733756978
-0.013870445396719657
1.261644299783447
-0.4938555733756978
-0.013870445396719657
1.261644299783447
-0.49145628419845006
-0.013093969922444338
1.2617925602396498
-0.49145628419845006
-0.013093969922444338
1.2617925602396498
-0.49145628419845006
-0.013093969922444338
1.2617925602396498
-0.49145628419845006
-0.013093969922444338
1.2617925602396498
-0.48663536144056935
-0.023148053982131246
1.2624605016974568
-0.48663536144056935
-0.023148053982131246
1.2624605016974568
-0.48663536144056935
-0.023148053982131246
1.2624605016974568
-0.48663536144056935
-0.023148053982131246
1.2624605016974568
-0.48441976897441547
-0.0387803064084632
1.2647153046192567
-0.48441976897441547
-0.0387803064084632
1.2647153046192567
-0.48441976897441547
-0.0387803064084632
1.2647153046192567
-0.48441976897441547
-0.0387803064084632
1.2647153046192567
-0.4857588068932749
-0.043368619042567065
1.266277400402255
-0.4857588068932749
-0.043368619042567065
1.266277400402255
-0.4857588068932749
-0.043368619042567065
1.266277400402255
-0.4857588068932749
-0.043368619042567065
1.266277400402255
-0.48596341060904663
-0.04848045036874229
1.2686040035366246
-0.48596341060904663
-0.04848045036874229
1.2686040035366246
-0.48596341060904663
-0.04848045036874229
1.2686040035366246
-0.48596341060904663
-0.04848045036874229
1.2686040035366246
-0.4862127139135415
-0.05180263240379907
1.269129501588012
-0.4862127139135415
-0.05180263240379907
1.269129501588012
-0.4862127139135415
-0.05180263240379907
1.269129501588012
-0.4862127139135415
-0.05180263240379907
1.269129501588012
-0.48780140856161885
-0.05450062420734419
1.2694099158797845
-0.48780140856161885
-0.05450062420734419
1.2694099158797845
-0.48780140856161885
-0.05450062420734419
1.2694099158797845
-0.48780140856161885
-0.05450062420734419
1.2694099158797845
-0.4888624603266106
-0.0552325535890009
1.2696693381795165
-0.4888624603266106
-0.0552325535890009
1.2696693381795165
-0.4888624603266106
-0.0552325535890009
1.2696693381795165
-0.4888624603266106
-0.0552325535890009
1.2696693381795165
-0.49289351948138216
-0.054606527651232056
1.2711011792605706
-0.49289351948138216
-0.054606527651232056
1.2711011792605706
-0.49289351948138216
-0.054606527651232056
1.2711011792605706
-0.49289351948138216
-0.054606527651232056
1.2711011792605706
-0.4932320117408657
-0.055190288211768634
1.274303897598117
-0.4932320117408657
-0.055190288211768634
1.274303897598117
-0.4932320117408657
-0.055190288211768634
1.274303897598117
-0.4932320117408657
-0.055190288211768634
1.274303897598117
-0.4890467825465772
-0.055434561510896666
1.273602138649449
-0.4890467825465772
-0.055434561510896666
1.273602138649449
-0.4890467825465772
-0.055434561510896666
1.273602138649449
-0.4890467825465772
-0.055434561510896666
1.273602138649449
-0.4894735069742443
-0.050960389337520076
1.2698780115433141
-0.4894735069742443
-0.050960389337520076
1.2698780115433141
-0.4894735069742443
-0.050960389337520076
1.2698780115433141
-0.4894735069742443
-0.050960389337520076
1.2698780115433141
-0.49613092086801364
-0.04249532800628654
1.2645144581734273
-0.49613092086801364
-0.04249532800628654
1.2645144581734273
-0.49613092086801364
-0.04249532800628654
1.2645144581734273
-0.49613092086801364
-0.04249532800628654
1.2645144581734273
-0.5036799380024644
-0.03080880353676377
1.2589773376813458
-0.5036799380024644
-0.03080880353676377
1.2589773376813458
-0.5036799380024644
-0.03080880353676377
1.2589773376813458
-0.5036799380024644
-0.03080880353676377
1.2589773376813458
-0.5101315717238326
-0.016274475133277254
1.2546852727027966
-0.5101315717238326
-0.016274475133277254
1.2546852727027966
-0.5101315717238326
-0.016274475133277254
1.2546852727027966
-0.5101315717238326
-0.016274475133277254
1.2546852727027966
-0.5108370887659299
2.1436681910978032E-4
1.2508118287041115
-0.5108370887659299
2.1436681910978032E-4
1.2508118287041115
-0.5108370887659299
2.1436681910978032E-4
1.2508118287041115
-0.5108370887659299
2.1436681910978032E-4
1.2508118287041115
-0.5114501997747947
0.014738625596282612
1.2476166747960489
-0.5114501997747947
0.014738625596282612
1.2476166747960489
-0.5114501997747947
0.014738625596282612
1.2476166747960489
-0.5114501997747947
0.014738625596282612
1.2476166747960489
-0.507727232640079
0.024550364315539464
1.2444351895142167
-0.507727232640079
0.024550364315539464
1.2444351895142167
-0.507727232640079
0.024550364315539464
1.2444351895142167
-0.507727232640079
0.024550364315539464
1.2444351895142167
-0.5049121591736834
0.03347959962197825
1.2397322838901954
-0.5049121591736834
0.03347959962197825
1.2397322838901954
-0.5049121591736834
0.03347959962197825
1.2397322838901954
-0.5049121591736834
0.03347959962197825
1.2397322838901954
-0.5062253557407934
0.04264484125246842
1.235360176797641
-0.5062253557407934
0.04264484125246842
1.235360176797641
-0.5062253557407934
0.04264484125246842
1.235360176797641
-0.5062253557407934
0.04264484125246842
1.235360176797641
-0.5096989655742836
0.05083249321083361
1.232064803492093
-0.5096989655742836
0.05083249321083361
1.232064803492093
-0.5096989655742836
0.05083249321083361
1.232064803492093
-0.5096989655742836
0.05083249321083361
1.232064803492093
-0.5183376979413186
0.05628452706171632
1.2274522459882533
-0.5183376979413186
0.05628452706171632
1.2274522459882533
-0.5183376979413186
0.05628452706171632
1.2274522459882533
-0.5183376979413186
0.05628452706171632
1.2274522459882533
-0.5239950952979905
0.05760070163917345
1.2218593902767754
-0.5239950952979905
0.05760070163917345
1.2218593902767754
-0.5239950952979905
0.05760070163917345
1.2218593902767754
-0.5239950952979905
0.05760070163917345
1.2218593902767754
-0.5229705890775336
0.055256948486902595
1.21886024497082
-0.5229705890775336
0.055256948486902595
1.21886024497082
-0.5229705890775336
0.055256948486902595
1.21886024497082
-0.5229705890775336
0.055256948486902595
1.21886024497082
-0.5218107508476268
0.04955670764636826
1.2140575767123631
-0.5218107508476268
0.04955670764636826
1.2140575767123631
-0.5218107508476268
0.04955670764636826
1.2140575767123631
-0.5218107508476268
0.04955670764636826
1.2140575767123631
-0.520613002599797
0.04102496346867277
1.208463666786587
-0.520613002599797
0.04102496346867277
1.208463666786587
-0.520613002599797
0.04102496346867277
1.208463666786587
-0.520613002599797
0.04102496346867277
1.208463666786587
-0.5217909897267278
0.028337018242293024
1.2039070167472574
-0.5217909897267278
0.028337018242293024
1.2039070167472574
-0.5217909897267278
0.028337018242293024
1.2039070167472574
-0.5217909897267278
0.028337018242293024
1.2039070167472574
-0.5229570900282803
0.01480850375731038
1.202395051893992
-0.5229570900282803
0.01480850375731038
1.202395051893992
-0.5229570900282803
0.01480850375731038
1.202395051893992
-0.5229570900282803
0.01480850375731038
1.202395051893992
-0.5238582479520754
0.0017477568380734828
1.204490163663291
-0.5238582479520754
0.0017477568380734828
1.204490163663291
-0.5238582479520754
0.0017477568380734828
1.204490163663291
-0.5238582479520754
0.0017477568380734828
1.204490163663291
-0.5269887147065377
-0.010337870119691162
1.2063216751239556
-0.5269887147065377
-0.010337870119691162
1.2063216751239556
-0.5269887147065377
-0.010337870119691162
1.2063216751239556
-0.5269887147065377
-0.010337870119691162
1.2063216751239556
-0.5302260440135198
-0.021333448940601754
1.206881728705255
-0.5302260440135198
-0.021333448940601754
1.206881728705255
-0.5302260440135198
-0.021333448940601754
1.206881728705255
-0.5302260440135198
-0.021333448940601754
1.206881728705255
-0.5295282708604871
-0.029688022263438103
1.2074195372704029
-0.5295282708604871
-0.029688022263438103
1.2074195372704029
-0.5250547122602462
-0.03672615115773491
1.208175246660221
-0.5250547122602462
-0.03672615115773491
1.208175246660221
-0.5250547122602462
-0.03672615115773491
1.208175246660221
-0.5250547122602462
-0.03672615115773491
1.208175246660221
-0.5218317654718485
-0.04096594297415156
1.2093766158770074
-0.5218317654718485
-0.04096594297415156
1.2093766158770074
-0.5218317654718485
-0.04096594297415156
1.2093766158770074
-0.5218317654718485
-0.04096594297415156
1.2093766158770074
-0.5216189038992051
-0.04125184356077166
1.2111993405633266
-0.5216189038992051
-0.04125184356077166
1.2111993405633266
-0.5216189038992051
-0.04125184356077166
1.2111993405633266
-0.5216189038992051
-0.04125184356077166
1.2111993405633266
-0.5236587636093691
-0.0371677104738818
1.2126091776969714
-0.5236587636093691
-0.0371677104738818
1.2126091776969714
-0.5236587636093691
-0.0371677104738818
1.2126091776969714
-0.5236587636093691
-0.0371677104738818
1.2126091776969714
-0.5237041875817076
-0.03010460656200679
1.2129233558817072
-0.5237041875817076
-0.03010460656200679
1.2129233558817072
-0.5237041875817076
-0.03010460656200679
1.2129233558817072
-0.5237041875817076
-0.03010460656200679
1.2129233558817072
-0.5225196292679845
-0.021482591218872783
1.213117148242222
-0.5225196292679845
-0.021482591218872783
1.213117148242222
-0.5225196292679845
-0.021482591218872783
1.213117148242222
-0.5225196292679845
-0.021482591218872783
1.213117148242222
-0.5195113700028627
-0.013180416649040218
1.2139451511561175
-0.5195113700028627
-0.013180416649040218
1.2139451511561175
-0.5195113700028627
-0.013180416649040218
1.2139451511561175
-0.5195113700028627
-0.013180416649040218
1.2139451511561175
-0.5189625138034268
-0.005489923568913155
1.216556523051312
-0.5189625138034268
-0.005489923568913155
1.216556523051312
-0.5189625138034268
-0.005489923568913155
1.216556523051312
-0.5189625138034268
-0.005489923568913155
1.216556523051312
-0.5184447118839548
0.0033091920958821025
1.218598297312034
-0.5184447118839548
0.0033091920958821025
1.218598297312034
-0.5184447118839548
0.0033091920958821025
1.218598297312034
-0.5184447118839548
0.0033091920958821025
1.218598297312034
-0.51571389964186
0.012603149224516635
1.2190071490446102
-0.51571389964186
0.012603149224516635
1.2190071490446102
-0.51571389964186
0.012603149224516635
1.2190071490446102
-0.51571389964186
0.012603149224516635
1.2190071490446102
-0.510912752218268
0.022373671688337367
1.2198566873852843
-0.510912752218268
0.022373671688337367
1.2198566873852843
-0.510912752218268
0.022373671688337367
1.2198566873852843
-0.510912752218268
0.022373671688337367
1.2198566873852843
-0.5090855244003343
0.03032949470423814
1.2227676584031446
-0.5090855244003343
0.03032949470423814
1.2227676584031446
-0.5090855244003343
0.03032949470423814
1.2227676584031446
-0.5090855244003343
0.03032949470423814
1.2227676584031446
-0.5093406039601734
0.036092493170844724
1.2235060518946068
-0.5093406039601734
0.036092493170844724
1.2235060518946068
-0.5093406039601734
0.036092493170844724
1.2235060518946068
-0.5093406039601734
0.036092493170844724
1.2235060518946068
-0.5084427969313927
0.04059550234181227
1.2249047988910506
-0.5084427969313927
0.04059550234181227
1.2249047988910506
-0.5084427969313927
0.04059550234181227
1.2249047988910506
-0.5084427969313927
0.04059550234181227
1.2249047988910506
-0.5050875718939573
0.04291686412922772
1.228587056249012
-0.5050875718939573
0.04291686412922772
1.228587056249012
-0.5050875718939573
0.04291686412922772
1.228587056249012
-0.5050875718939573
0.04291686412922772
1.228587056249012
-0.48827150029171196
0.033608466772432684
1.2332816444725663
-0.48827150029171196
0.033608466772432684
1.2332816444725663
-0.48827150029171196
0.033608466772432684
1.2332816444725663
-0.48827150029171196
0.033608466772432684
1.2332816444725663
-0.4511925497578817
0.02982265645895096
1.2429292724632932
-0.4511925497578817
0.02982265645895096
1.2429292724632932
-0.4511925497578817
0.02982265645895096
1.2429292724632932
-0.4511925497578817
0.02982265645895096
1.2429292724632932
-0.46233576331729637
0.02856360157935215
1.2591583763586298
-0.46233576331729637
0.02856360157935215
1.2591583763586298
-0.46233576331729637
0.02856360157935215
1.2591583763586298
-0.46233576331729637
0.02856360157935215
1.2591583763586298
-0.47253219512704925
0.023423486498596872
1.2690318302029515
-0.47253219512704925
0.023423486498596872
1.2690318302029515
-0.47253219512704925
0.023423486498596872
1.2690318302029515
-0.47253219512704925
0.023423486498596872
1.2690318302029515
-0.47853252178174116
0.011207657410529476
1.2779354531804896
-0.47853252178174116
0.011207657410529476
1.2779354531804896
-0.47853252178174116
0.011207657410529476
1.2779354531804896
-0.47853252178174116
0.011207657410529476
1.2779354531804896
-0.4708686341707147
0.001690523718401762
1.284839220861226
-0.4708686341707147
0.001690523718401762
1.284839220861226
-0.4708686341707147
0.001690523718401762
1.284839220861226
-0.4708686341707147
0.001690523718401762
1.284839220861226
-0.46933050335150295
-0.010889238337660158
1.2875471942793617
-0.46933050335150295
-0.010889238337660158
1.2875471942793617
-0.46933050335150295
-0.010889238337660158
1.2875471942793617
-0.46933050335150295
-0.010889238337660158
1.2875471942793617
-0.47232500864994476
-0.023903040593739974
1.2881593769261435
-0.47232500864994476
-0.023903040593739974
1.2881593769261435
-0.47232500864994476
-0.023903040593739974
1.2881593769261435
-0.47232500864994476
-0.023903040593739974
1.2881593769261435
-0.47670179777977306
-0.03446607442771005
1.2882661453834396
-0.47670179777977306
-0.03446607442771005
1.2882661453834396
-0.47670179777977306
-0.03446607442771005
1.2882661453834396
-0.47670179777977306
-0.03446607442771005
1.2882661453834396
-0.4814938872399117
-0.04331023856467559
1.2883587618020345
-0.4814938872399117
-0.04331023856467559
1.2883587618020345
-0.4814938872399117
-0.04331023856467559
1.2883587618020345
-0.4814938872399117
-0.04331023856467559
1.2883587618020345
-0.4814022403176089
-0.04809548037253621
1.2856592783853835
-0.4814022403176089
-0.04809548037253621
1.2856592783853835
-0.4814022403176089
-0.04809548037253621
1.2856592783853835
-0.4814022403176089
-0.04809548037253621
1.2856592783853835
-0.477161939416423
-0.046593667444853416
1.2833576081810707
-0.477161939416423
-0.046593667444853416
1.2833576081810707
-0.477161939416423
-0.046593667444853416
1.2833576081810707
-0.477161939416423
-0.046593667444853416
1.2833576081810707
-0.47990289743195486
-0.047539831674559885
1.2833752677793782
-0.47990289743195486
-0.047539831674559885
1.2833752677793782
-0.47990289743195486
-0.047539831674559885
1.2833752677793782
-0.47990289743195486
-0.047539831674559885
1.2833752677793782
-0.48298564176185166
-0.04739231237748155
1.282229065555966
-0.48298564176185166
-0.04739231237748155
1.282229065555966
-0.48298564176185166
-0.04739231237748155
1.282229065555966
-0.48298564176185166
-0.04739231237748155
1.282229065555966
-0.48527770927344244
-0.04256161065102523
1.2813889913171268
-0.48527770927344244
-0.04256161065102523
1.2813889913171268
-0.48527770927344244
-0.04256161065102523
1.2813889913171268
-0.48527770927344244
-0.04256161065102523
1.2813889913171268
-0.4822890579128723
-0.036709227647792435
1.279636350425099
-0.4822890579128723
-0.036709227647792435
1.279636350425099
-0.4822890579128723
-0.036709227647792435
1.279636350425099
-0.4822890579128723
-0.036709227647792435
1.279636350425099
-0.48272617296321724
-0.03169357517708659
1.2794912535199219
-0.48272617296321724
-0.03169357517708659
1.2794912535199219
-0.48272617296321724
-0.03169357517708659
1.2794912535199219
-0.48272617296321724
-0.03169357517708659
1.2794912535199219
-0.48626927822160243
-0.026902912503049457
1.2813742152726433
-0.48626927822160243
-0.026902912503049457
1.2813742152726433
-0.48626927822160243
-0.026902912503049457
1.2813742152726433
-0.48626927822160243
-0.026902912503049457
1.2813742152726433
-0.4861950680313705
-0.022237346440528594
1.2820276643803112
-0.4861950680313705
-0.022237346440528594
1.2820276643803112
-0.4861950680313705
-0.022237346440528594
1.2820276643803112
-0.4861950680313705
-0.022237346440528594
1.2820276643803112
-0.4839822047950515
-0.019140904832934128
1.2801590329897472
-0.4839822047950515
-0.019140904832934128
1.2801590329897472
-0.4839822047950515
-0.019140904832934128
1.2801590329897472
-0.4839822047950515
-0.019140904832934128
1.2801590329897472
-0.48288086900728777
-0.017029206793994917
1.2785988581766274
-0.48288086900728777
-0.017029206793994917
1.2785988581766274
-0.48288086900728777
-0.017029206793994917
1.2785988581766274
-0.48288086900728777
-0.017029206793994917
1.2785988581766274
-0.48301562760345
-0.01810696627622706
1.2783117649293767
-0.48301562760345
-0.01810696627622706
1.2783117649293767
-0.48301562760345
-0.01810696627622706
1.2783117649293767
-0.48301562760345
-0.01810696627622706
1.2783117649293767
-0.48661407985372984
-0.019122772441152288
1.2785680581615608
-0.48661407985372984
-0.019122772441152288
1.2785680581615608
-0.48661407985372984
-0.019122772441152288
1.2785680581615608
-0.48661407985372984
-0.019122772441152288
1.2785680581615608
-0.48815094778949986
-0.02000650788888935
1.27809579067813
-0.48815094778949986
-0.02000650788888935
1.27809579067813
-0.48815094778949986
-0.02000650788888935
1.27809579067813
-0.48815094778949986
-0.02000650788888935
1.27809579067813
-0.4866996607906338
-0.02112503266535787
1.2785119991093312
-0.4866996607906338
-0.02112503266535787
1.2785119991093312
-0.4866996607906338
-0.02112503266535787
1.2785119991093312
-0.4866996607906338
-0.02112503266535787
1.2785119991093312
-0.48542274887667014
-0.023773189964861205
1.2786521129316664
-0.48542274887667014
-0.023773189964861205
1.2786521129316664
-0.48542274887667014
-0.023773189964861205
1.2786521129316664
-0.48542274887667014
-0.023773189964861205
1.2786521129316664
-0.48573497603839166
-0.027818189730810468
1.2784754828957252
-0.48573497603839166
-0.027818189730810468
1.2784754828957252
-0.48573497603839166
-0.027818189730810468
1.2784754828957252
-0.48573497603839166
-0.027818189730810468
1.2784754828957252
-0.4879849294867873
-0.032783529729483514
1.2783063149541247
-0.4879849294867873
-0.032783529729483514
1.2783063149541247
-0.4879849294867873
-0.032783529729483514
1.2783063149541247
-0.4879849294867873
-0.032783529729483514
1.2783063149541247
-0.4890189546687499
-0.03757206042890647
1.277402871862958
-0.4890189546687499
-0.03757206042890647
1.277402871862958
-0.4890189546687499
-0.03757206042890647
1.277402871862958
-0.4890189546687499
-0.03757206042890647
1.277402871862958
-0.48814214096753344
-0.04326585634852964
1.2767407301845983
-0.48814214096753344
-0.04326585634852964
1.2767407301845983
-0.48814214096753344
-0.04326585634852964
1.2767407301845983
-0.48814214096753344
-0.04326585634852964
1.2767407301845983
-0.4863041410469209
-0.048711252173561384
1.2761156131120122
-0.4863041410469209
-0.048711252173561384
1.2761156131120122
-0.4863041410469209
-0.048711252173561384
1.2761156131120122
-0.4863041410469209
-0.048711252173561384
1.2761156131120122
-0.48770382474434326
-0.052266735623319543
1.2753454280959349
-0.48770382474434326
-0.052266735623319543
1.2753454280959349
-0.48770382474434326
-0.052266735623319543
1.2753454280959349
-0.48770382474434326
-0.052266735623319543
1.2753454280959349
-0.4903957802019516
-0.05482843101739892
1.2746935812578364
-0.4903957802019516
-0.05482843101739892
1.2746935812578364
-0.4903957802019516
-0.05482843101739892
1.2746935812578364
-0.4903957802019516
-0.05482843101739892
1.2746935812578364
-0.4914006003079601
-0.056611299291511624
1.2739582092075128
-0.4914006003079601
-0.056611299291511624
1.2739582092075128
-0.4914006003079601
-0.056611299291511624
1.2739582092075128
-0.4914006003079601
-0.056611299291511624
1.2739582092075128
-0.48947024347637197
-0.057092368677980274
1.272641106797055
-0.48947024347637197
-0.057092368677980274
1.272641106797055
-0.48947024347637197
-0.057092368677980274
1.272641106797055
-0.48947024347637197
-0.057092368677980274
1.272641106797055
-0.48876609689377426
-0.056990740237586865
1.2711878629127291
-0.48876609689377426
-0.056990740237586865
1.2711878629127291
-0.48876609689377426
-0.056990740237586865
1.2711878629127291
-0.48876609689377426
-0.056990740237586865
1.2711878629127291
-0.49093420812558164
-0.056368502288804856
1.2703847016047647
-0.49093420812558164
-0.056368502288804856
1.2703847016047647
-0.49093420812558164
-0.056368502288804856
1.2703847016047647
-0.49093420812558164
-0.056368502288804856
1.2703847016047647
-0.4934723864521725
-0.05514827005932142
1.2696898616496834
-0.4934723864521725
-0.05514827005932142
1.2696898616496834
-0.4934723864521725
-0.05514827005932142
1.2696898616496834
-0.4934723864521725
-0.05514827005932142
1.2696898616496834
-0.494203076823713
-0.05325559429952405
1.2680483440697892
-0.494203076823713
-0.05325559429952405
1.2680483440697892
-0.494203076823713
-0.05325559429952405
1.2680483440697892
-0.494203076823713
-0.05325559429952405
1.2680483440697892
-0.4936594556520049
-0.05045440316507399
1.265642032081132
-0.4936594556520049
-0.05045440316507399
1.265642032081132
-0.4936594556520049
-0.05045440316507399
1.265642032081132
-0.4936594556520049
-0.05045440316507399
1.265642032081132
-0.4933206332088236
-0.04788709912316169
1.2642090849413887
-0.4933206332088236
-0.04788709912316169
1.2642090849413887
-0.4933206332088236
-0.04788709912316169
1.2642090849413887
-0.4933206332088236
-0.04788709912316169
1.2642090849413887
-0.4940012024499095
-0.04708589535711372
1.2635423590063266
-0.4940012024499095
-0.04708589535711372
1.2635423590063266
-0.4940012024499095
-0.04708589535711372
1.2635423590063266
-0.4940012024499095
-0.04708589535711372
1.2635423590063266
-0.4943406215989268
-0.04627685257499378
1.262688766823817
-0.4943406215989268
-0.04627685257499378
1.262688766823817
-0.4943406215989268
-0.04627685257499378
1.262688766823817
-0.4943406215989268
-0.04627685257499378
1.262688766823817
-0.49497492797790066
-0.04491578792588341
1.2617307785630312
-0.49497492797790066
-0.04491578792588341
1.2617307785630312
-0.49497492797790066
-0.04491578792588341
1.2617307785630312
-0.49497492797790066
-0.04491578792588341
1.2617307785630312
-0.49499414600536257
-0.043866416793697224
1.2609101018993503
-0.49499414600536257
-0.043866416793697224
1.2609101018993503
-0.49499414600536257
-0.043866416793697224
1.2609101018993503
-0.49499414600536257
-0.043866416793697224
1.2609101018993503
-0.4952299077557108
-0.043477937041655194
1.261168979019113
-0.4952299077557108
-0.043477937041655194
1.261168979019113
-0.4952299077557108
-0.043477937041655194
1.261168979019113
-0.4952299077557108
-0.043477937041655194
1.261168979019113
-0.4953185313854286
-0.042682269059504785
1.2615256178676684
-0.4953185313854286
-0.042682269059504785
1.2615256178676684
-0.4953185313854286
-0.042682269059504785
1.2615256178676684
-0.4953185313854286
-0.042682269059504785
1.2615256178676684
-0.4965834915715822
-0.04202682230966118
1.262414817989088
-0.4965834915715822
-0.04202682230966118
1.262414817989088
-0.4965834915715822
-0.04202682230966118
1.262414817989088
-0.4965834915715822
-0.04202682230966118
1.262414817989088
-0.49935265629734715
-0.04217639254854898
1.2632075477627014
-0.49935265629734715
-0.04217639254854898
1.2632075477627014
-0.49935265629734715
-0.04217639254854898
1.2632075477627014
-0.49935265629734715
-0.04217639254854898
1.2632075477627014
-0.5012231162728111
-0.04279746860644321
1.2640560495712652
-0.5012231162728111
-0.04279746860644321
1.2640560495712652
-0.5012231162728111
-0.04279746860644321
1.2640560495712652
-0.5012231162728111
-0.04279746860644321
1.2640560495712652
-0.5008752221428607
-0.04427703442889767
1.265436942886704
-0.5008752221428607
-0.04427703442889767
1.265436942886704
-0.5008752221428607
-0.04427703442889767
1.265436942886704
-0.5008752221428607
-0.04427703442889767
1.265436942886704
-0.4996987540790029
-0.04676233647382978
1.2658958284892794
-0.4996987540790029
-0.04676233647382978
1.2658958284892794
-0.4996987540790029
-0.04676233647382978
1.2658958284892794
-0.4996987540790029
-0.04676233647382978
1.2658958284892794
-0.49989177153591074
-0.049603270143395446
1.2665242286575358
-0.49989177153591074
-0.049603270143395446
1.2665242286575358
-0.49989177153591074
-0.049603270143395446
1.2665242286575358
-0.49989177153591074
-0.049603270143395446
1.2665242286575358
-0.5011263218924645
-0.052899847630831345
1.267418789925448
-0.5011263218924645
-0.052899847630831345
1.267418789925448
-0.5011263218924645
-0.052899847630831345
1.267418789925448
-0.5011263218924645
-0.052899847630831345
1.267418789925448
-0.5019460874745242
-0.05579417702022277
1.2678782026284432
-0.5019460874745242
-0.05579417702022277
1.2678782026284432
-0.5019460874745242
-0.05579417702022277
1.2678782026284432
-0.5019460874745242
-0.05579417702022277
1.2678782026284432
-0.5008776503575381
-0.05834600471622446
1.267795617296181
-0.5008776503575381
-0.05834600471622446
1.267795617296181
-0.5008776503575381
-0.05834600471622446
1.267795617296181
-0.5008776503575381
-0.05834600471622446
1.267795617296181
-0.49961639940173264
-0.06006469114903228
1.2669916177154743
-0.49961639940173264
-0.06006469114903228
1.2669916177154743
-0.49961639940173264
-0.06006469114903228
1.2669916177154743
-0.49961639940173264
-0.06006469114903228
1.2669916177154743
-0.5005459424227678
-0.06131928629229739
1.2662014079296406
-0.5005459424227678
-0.06131928629229739
1.2662014079296406
-0.5005459424227678
-0.06131928629229739
1.2662014079296406
-0.5005459424227678
-0.06131928629229739
1.2662014079296406
-0.5029312258737237
-0.06171880884427147
1.265109929830523
-0.5029312258737237
-0.06171880884427147
1.265109929830523
-0.5029312258737237
-0.06171880884427147
1.265109929830523
-0.5029312258737237
-0.06171880884427147
1.265109929830523
-0.5030646691928854
-0.060932763543645733
1.2633731903455638
-0.5030646691928854
-0.060932763543645733
1.2633731903455638
-0.5030646691928854
-0.060932763543645733
1.2633731903455638
-0.5030646691928854
-0.060932763543645733
1.2633731903455638
-0.5031859549720441
-0.05961143421041641
1.2619525583276927
-0.5031859549720441
-0.05961143421041641
1.2619525583276927
-0.5031859549720441
-0.05961143421041641
1.2619525583276927
-0.5031859549720441
-0.05961143421041641
1.2619525583276927
-0.5021254973323873
-0.058231816732101455
1.2603618833341335
-0.5021254973323873
-0.058231816732101455
1.2603618833341335
-0.5021254973323873
-0.058231816732101455
1.2603618833341335
-0.5021254973323873
-0.058231816732101455
1.2603618833341335
-0.501240570267121
-0.05592579561009941
1.2589664660726922
-0.501240570267121
-0.05592579561009941
1.2589664660726922
-0.501240570267121
-0.05592579561009941
1.2589664660726922
-0.501240570267121
-0.05592579561009941
1.2589664660726922
-0.5029554011112627
-0.05298115020931614
1.2582026363935968
-0.5029554011112627
-0.05298115020931614
1.2582026363935968
-0.5029554011112627
-0.05298115020931614
1.2582026363935968
-0.5029554011112627
-0.05298115020931614
1.2582026363935968
-0.5042999167963341
-0.04898689888401156
1.257079532480552
-0.5042999167963341
-0.04898689888401156
1.257079532480552
-0.5042999167963341
-0.04898689888401156
1.257079532480552
-0.5042999167963341
-0.04898689888401156
1.257079532480552
-0.5037943434935586
-0.044066121347001774
1.255578817102426
-0.5037943434935586
-0.044066121347001774
1.255578817102426
-0.5037943434935586
-0.044066121347001774
1.255578817102426
-0.5037943434935586
-0.044066121347001774
1.255578817102426
-0.5043063994305956
-0.0382322032878541
1.2537063809360933
-0.5043063994305956
-0.0382322032878541
1.2537063809360933
-0.5043063994305956
-0.0382322032878541
1.2537063809360933
-0.5043063994305956
-0.0382322032878541
1.2537063809360933
-0.5063658621163418
-0.031140170835246304
1.2517523646835655
-0.5063658621163418
-0.031140170835246304
1.2517523646835655
-0.5063658621163418
-0.031140170835246304
1.2517523646835655
-0.5063658621163418
-0.031140170835246304
1.2517523646835655
-0.5087165004695974
-0.024434587260323087
1.249887125047073
-0.5087165004695974
-0.024434587260323087
1.249887125047073
-0.5087165004695974
-0.024434587260323087
1.249887125047073
-0.5087165004695974
-0.024434587260323087
1.249887125047073
-0.5107572186141651
-0.018483247557651187
1.2466592653364714
-0.5107572186141651
-0.018483247557651187
1.2466592653364714
-0.5107572186141651
-0.018483247557651187
1.2466592653364714
-0.5107572186141651
-0.018483247557651187
1.2466592653364714
-0.5127029520804258
-0.0127833524011527
1.241033282461933
-0.5127029520804258
-0.0127833524011527
1.241033282461933
-0.5127029520804258
-0.0127833524011527
1.241033282461933
-0.5127029520804258
-0.0127833524011527
1.241033282461933
-0.515493983663265
-0.006422736191678932
1.2340037023088954
-0.515493983663265
-0.006422736191678932
1.2340037023088954
-0.515493983663265
-0.006422736191678932
1.2340037023088954
-0.515493983663265
-0.006422736191678932
1.2340037023088954
-0.5208320867397147
0.002344291678537886
1.2278027163092489
-0.5208320867397147
0.002344291678537886
1.2278027163092489
-0.5208320867397147
0.002344291678537886
1.2278027163092489
-0.5208320867397147
0.002344291678537886
1.2278027163092489
-0.5305654949557104
0.012016272810129194
1.2228090148865782
-0.5305654949557104
0.012016272810129194
1.2228090148865782
-0.5305654949557104
0.012016272810129194
1.2228090148865782
-0.5305654949557104
0.012016272810129194
1.2228090148865782
-0.526404109057817
0.01994723423126039
1.2185315279384281
-0.526404109057817
0.01994723423126039
1.2185315279384281
-0.526404109057817
0.01994723423126039
1.2185315279384281
-0.526404109057817
0.01994723423126039
1.2185315279384281
-0.5199310707746433
0.027073001581928335
1.2133709099658274
-0.5199310707746433
0.027073001581928335
1.2133709099658274
-0.5199310707746433
0.027073001581928335
1.2133709099658274
-0.5199310707746433
0.027073001581928335
1.2133709099658274
-0.5227798007810905
0.03296851489552804
1.210405831018782
-0.5227798007810905
0.03296851489552804
1.210405831018782
-0.5227798007810905
0.03296851489552804
1.210405831018782
-0.5227798007810905
0.03296851489552804
1.210405831018782
-0.5249061354077019
0.0360908878316836
1.2102431326506962
-0.5249061354077019
0.0360908878316836
1.2102431326506962
-0.5249061354077019
0.0360908878316836
1.2102431326506962
-0.5249061354077019
0.0360908878316836
1.2102431326506962
-0.5208135156294494
0.03661969225699154
1.2080911925210613
-0.5208135156294494
0.03661969225699154
1.2080911925210613
-0.5208135156294494
0.03661969225699154
1.2080911925210613
-0.5208135156294494
0.03661969225699154
1.2080911925210613
-0.5219514461001712
0.039785509493693985
1.202284793435168
-0.5219514461001712
0.039785509493693985
1.202284793435168
-0.5219514461001712
0.039785509493693985
1.202284793435168
-0.5219514461001712
0.039785509493693985
1.202284793435168
-0.523688486061591
0.041924878867795876
1.1981092737459362
-0.523688486061591
0.041924878867795876
1.1981092737459362
-0.523688486061591
0.041924878867795876
1.1981092737459362
-0.523688486061591
0.041924878867795876
1.1981092737459362
-0.5284362256205098
0.03958173192363343
1.193956022108607
-0.5284362256205098
0.03958173192363343
1.193956022108607
-0.5284362256205098
0.03958173192363343
1.193956022108607
-0.5284362256205098
0.03958173192363343
1.193956022108607
-0.532082667618962
0.034334009063610005
1.190864448567224
-0.532082667618962
0.034334009063610005
1.190864448567224
-0.532082667618962
0.034334009063610005
1.190864448567224
-0.532082667618962
0.034334009063610005
1.190864448567224
-0.5367596122504918
0.02773803696558238
1.188638373266021
-0.5367596122504918
0.02773803696558238
1.188638373266021
-0.5367596122504918
0.02773803696558238
1.188638373266021
-0.5367596122504918
0.02773803696558238
1.188638373266021
-0.5385834111813141
0.021160455925578844
1.1868834807417377
-0.5385834111813141
0.021160455925578844
1.1868834807417377
-0.5385834111813141
0.021160455925578844
1.1868834807417377
-0.5385834111813141
0.021160455925578844
1.1868834807417377
-0.5333473111911482
0.013710858798234285
1.1859825514046667
-0.5333473111911482
0.013710858798234285
1.1859825514046667
-0.5333473111911482
0.013710858798234285
1.1859825514046667
-0.5333473111911482
0.013710858798234285
1.1859825514046667
-0.5272190250754947
0.0044567895660426946
1.1851122714025557
-0.5272190250754947
0.0044567895660426946
1.1851122714025557
-0.5272190250754947
0.0044567895660426946
1.1851122714025557
-0.5272190250754947
0.0044567895660426946
1.1851122714025557
-0.524263820358856
-0.0030209956132267123
1.1856491271405754
-0.524263820358856
-0.0030209956132267123
1.1856491271405754
-0.524263820358856
-0.0030209956132267123
1.1856491271405754
-0.524263820358856
-0.0030209956132267123
1.1856491271405754
-0.5208720281273959
-0.00971100573830577
1.1874224429613771
-0.5208720281273959
-0.00971100573830577
1.1874224429613771
-0.5208720281273959
-0.00971100573830577
1.1874224429613771
-0.5208720281273959
-0.00971100573830577
1.1874224429613771
-0.5171725177993686
-0.014652356128065173
1.189721520681907
-0.5171725177993686
-0.014652356128065173
1.189721520681907
-0.5171725177993686
-0.014652356128065173
1.189721520681907
-0.5171725177993686
-0.014652356128065173
1.189721520681907
-0.5144796828064894
-0.01620478810531141
1.1925208621859065
-0.5144796828064894
-0.01620478810531141
1.1925208621859065
-0.5144796828064894
-0.01620478810531141
1.1925208621859065
-0.5144796828064894
-0.01620478810531141
1.1925208621859065
-0.5115641438035835
-0.015454927676944844
1.1942548875599936
-0.5115641438035835
-0.015454927676944844
1.1942548875599936
-0.5115641438035835
-0.015454927676944844
1.1942548875599936
-0.5115641438035835
-0.015454927676944844
1.1942548875599936
-0.5064145329903669
-0.014548164051841126
1.1953318874091443
-0.5064145329903669
-0.014548164051841126
1.1953318874091443
-0.5064145329903669
-0.014548164051841126
1.1953318874091443
-0.5064145329903669
-0.014548164051841126
1.1953318874091443
-0.500969075968675
-0.016034247354034904
1.1974764648994816
-0.500969075968675
-0.016034247354034904
1.1974764648994816
-0.500969075968675
-0.016034247354034904
1.1974764648994816
-0.500969075968675
-0.016034247354034904
1.1974764648994816
-0.499798832885105
-0.01672811372388465
1.2009608017619189
-0.499798832885105
-0.01672811372388465
1.2009608017619189
-0.499798832885105
-0.01672811372388465
1.2009608017619189
-0.499798832885105
-0.01672811372388465
1.2009608017619189
-0.5020705541056034
-0.014128426577076983
1.2039207121477953
-0.5020705541056034
-0.014128426577076983
1.2039207121477953
-0.5020705541056034
-0.014128426577076983
1.2039207121477953
-0.5020705541056034
-0.014128426577076983
1.2039207121477953
-0.5020909087760839
-0.007716034052742034
1.2049310268723192
-0.5020909087760839
-0.007716034052742034
1.2049310268723192
-0.5020909087760839
-0.007716034052742034
1.2049310268723192
-0.5020909087760839
-0.007716034052742034
1.2049310268723192
-0.4983359088432169
4.1155113818768695E-4
1.2056311884743744
-0.4983359088432169
4.1155113818768695E-4
1.2056311884743744
-0.4983359088432169
4.1155113818768695E-4
1.2056311884743744
-0.4983359088432169
4.1155113818768695E-4
1.2056311884743744
-0.4963668810228185
0.008018466894939775
1.2077830838195394
-0.4963668810228185
0.008018466894939775
1.2077830838195394
-0.4963668810228185
0.008018466894939775
1.2077830838195394
-0.4963668810228185
0.008018466894939775
1.2077830838195394
-0.49640001315555743
0.013619768159049283
1.2127905644541195
-0.49640001315555743
0.013619768159049283
1.2127905644541195
-0.49640001315555743
0.013619768159049283
1.2127905644541195
-0.49640001315555743
0.013619768159049283
1.2127905644541195
-0.49744561666552173
0.017932332071368868
1.21840378574405
-0.49744561666552173
0.017932332071368868
1.21840378574405
-0.49744561666552173
0.017932332071368868
1.21840378574405
-0.49744561666552173
0.017932332071368868
1.21840378574405
-0.49947148457033513
0.024317513459063297
1.220368429588107
-0.49947148457033513
0.024317513459063297
1.220368429588107
-0.49947148457033513
0.024317513459063297
1.220368429588107
-0.49947148457033513
0.024317513459063297
1.220368429588107
-0.5001962859694457
0.030629961391955073
1.219696575016759
-0.5001962859694457
0.030629961391955073
1.219696575016759
-0.5001962859694457
0.030629961391955073
1.219696575016759
-0.5001962859694457
0.030629961391955073
1.219696575016759
-0.5007777430951872
0.03495700691610546
1.2228856177812713
-0.5007777430951872
0.03495700691610546
1.2228856177812713
-0.5007777430951872
0.03495700691610546
1.2228856177812713
-0.5007777430951872
0.03495700691610546
1.2228856177812713
-0.49985185135791876
0.03568034809017571
1.2269081309882404
-0.49985185135791876
0.03568034809017571
1.2269081309882404
-0.49985185135791876
0.03568034809017571
1.2269081309882404
-0.49985185135791876
0.03568034809017571
1.2269081309882404
-0.5029916472367489
0.033021397611233246
1.2299331626447945
-0.5029916472367489
0.033021397611233246
1.2299331626447945
-0.5029916472367489
0.033021397611233246
1.2299331626447945
-0.5029916472367489
0.033021397611233246
1.2299331626447945
-0.4992113939334151
0.032105679003960406
1.233104744901128
-0.4992113939334151
0.032105679003960406
1.233104744901128
-0.4992113939334151
0.032105679003960406
1.233104744901128
-0.4992113939334151
0.032105679003960406
1.233104744901128
-0.4858061173697009
0.027574213071686393
1.232773932656909
-0.4858061173697009
0.027574213071686393
1.232773932656909
-0.4858061173697009
0.027574213071686393
1.232773932656909
-0.4858061173697009
0.027574213071686393
1.232773932656909
-0.4793259914542353
0.020334141340584942
1.23266673475877
-0.4793259914542353
0.020334141340584942
1.23266673475877
-0.4793259914542353
0.020334141340584942
1.23266673475877
-0.4793259914542353
0.020334141340584942
1.23266673475877
-0.46790906089871753
0.007832218479566323
1.244350587630785
-0.46790906089871753
0.007832218479566323
1.244350587630785
-0.46790906089871753
0.007832218479566323
1.244350587630785
-0.46790906089871753
0.007832218479566323
1.244350587630785
-0.459055382812488
-0.0026305031210474526
1.255248749879553
-0.459055382812488
-0.0026305031210474526
1.255248749879553
-0.459055382812488
-0.0026305031210474526
1.255248749879553
-0.459055382812488
-0.0026305031210474526
1.255248749879553
-0.4610315434708788
-0.011349947416834087
1.2622566492084646
-0.4610315434708788
-0.011349947416834087
1.2622566492084646
-0.4610315434708788
-0.011349947416834087
1.2622566492084646
-0.4610315434708788
-0.011349947416834087
1.2622566492084646
-0.4720024523708844
-0.02111986319341583
1.2668441206220122
-0.4720024523708844
-0.02111986319341583
1.2668441206220122
-0.4720024523708844
-0.02111986319341583
1.2668441206220122
-0.4720024523708844
-0.02111986319341583
1.2668441206220122
-0.4681378773744941
-0.03225061065920176
1.2729047380581262
-0.4681378773744941
-0.03225061065920176
1.2729047380581262
-0.4681378773744941
-0.03225061065920176
1.2729047380581262
-0.4681378773744941
-0.03225061065920176
1.2729047380581262
-0.45478911464024563
-0.03907262368711848
1.2766958474014491
-0.45478911464024563
-0.03907262368711848
1.2766958474014491
-0.45478911464024563
-0.03907262368711848
1.2766958474014491
-0.45478911464024563
-0.03907262368711848
1.2766958474014491
-0.45123403472495616
-0.04578332905434131
1.275139076315
-0.45123403472495616
-0.04578332905434131
1.275139076315
-0.45123403472495616
-0.04578332905434131
1.275139076315
-0.45123403472495616
-0.04578332905434131
1.275139076315
-0.4539342653803013
-0.05216343576593391
1.2726088906122355
-0.4539342653803013
-0.05216343576593391
1.2726088906122355
-0.4539342653803013
-0.05216343576593391
1.2726088906122355
-0.4539342653803013
-0.05216343576593391
1.2726088906122355
-0.4596268785022313
-0.05695132513785217
1.273916247205128
-0.4596268785022313
-0.05695132513785217
1.273916247205128
-0.4596268785022313
-0.05695132513785217
1.273916247205128
-0.4596268785022313
-0.05695132513785217
1.273916247205128
-0.4598502553779319
-0.059647714066822705
1.2736510123812987
-0.4598502553779319
-0.059647714066822705
1.2736510123812987
-0.4598502553779319
-0.059647714066822705
1.2736510123812987
-0.4598502553779319
-0.059647714066822705
1.2736510123812987
-0.45580690863607587
-0.057896159755459226
1.270047246253369
-0.45580690863607587
-0.057896159755459226
1.270047246253369
-0.45580690863607587
-0.057896159755459226
1.270047246253369
-0.45580690863607587
-0.057896159755459226
1.270047246253369
-0.45493134075004754
-0.05196742054869289
1.267246636666312
-0.45493134075004754
-0.05196742054869289
1.267246636666312
-0.45493134075004754
-0.05196742054869289
1.267246636666312
-0.45493134075004754
-0.05196742054869289
1.267246636666312
-0.45752191245337404
-0.04685185441054411
1.2690286502090387
-0.45752191245337404
-0.04685185441054411
1.2690286502090387
-0.45752191245337404
-0.04685185441054411
1.2690286502090387
-0.45752191245337404
-0.04685185441054411
1.2690286502090387
-0.45961625972142
-0.04167230419516793
1.2714728586398898
-0.45961625972142
-0.04167230419516793
1.2714728586398898
-0.45961625972142
-0.04167230419516793
1.2714728586398898
-0.45961625972142
-0.04167230419516793
1.2714728586398898
-0.45770286926438497
-0.03623296976571635
1.2712495354154394
-0.45770286926438497
-0.03623296976571635
1.2712495354154394
-0.45770286926438497
-0.03623296976571635
1.2712495354154394
-0.45770286926438497
-0.03623296976571635
1.2712495354154394
-0.45648923953043186
-0.031199502169846145
1.2697608961923832
-0.45648923953043186
-0.031199502169846145
1.2697608961923832
-0.45648923953043186
-0.031199502169846145
1.2697608961923832
-0.45648923953043186
-0.031199502169846145
1.2697608961923832
-0.46037702202990816
-0.029784326851413176
1.270334333217784
-0.46037702202990816
-0.029784326851413176
1.270334333217784
-0.46037702202990816
-0.029784326851413176
1.270334333217784
-0.46037702202990816
-0.029784326851413176
1.270334333217784
-0.463092085389774
-0.030118162640225044
1.2710753931439003
-0.463092085389774
-0.030118162640225044
1.2710753931439003
-0.463092085389774
-0.030118162640225044
1.2710753931439003
-0.463092085389774
-0.030118162640225044
1.2710753931439003
-0.4620430612570391
-0.029345187185160618
1.2710051488813021
-0.4620430612570391
-0.029345187185160618
1.2710051488813021
-0.4620430612570391
-0.029345187185160618
1.2710051488813021
-0.4620430612570391
-0.029345187185160618
1.2710051488813021
-0.4597612586711341
-0.027951956597364103
1.2700981340498199
-0.4597612586711341
-0.027951956597364103
1.2700981340498199
-0.4597612586711341
-0.027951956597364103
1.2700981340498199
-0.4597612586711341
-0.027951956597364103
1.2700981340498199
-0.45864121894661186
-0.029221169359295394
1.271584546218484
-0.45864121894661186
-0.029221169359295394
1.271584546218484
-0.45864121894661186
-0.029221169359295394
1.271584546218484
-0.45864121894661186
-0.029221169359295394
1.271584546218484
-0.46007617951910806
-0.02961055872307439
1.27352442961871
-0.46007617951910806
-0.02961055872307439
1.27352442961871
-0.46007617951910806
-0.02961055872307439
1.27352442961871
-0.46007617951910806
-0.02961055872307439
1.27352442961871
-0.4617901665463196
-0.02987283341626742
1.275790776356284
-0.4617901665463196
-0.02987283341626742
1.275790776356284
-0.4617901665463196
-0.02987283341626742
1.275790776356284
-0.4617901665463196
-0.02987283341626742
1.275790776356284
-0.46325055186250064
-0.028460590282658838
1.2758790277627532
-0.46325055186250064
-0.028460590282658838
1.2758790277627532
-0.46325055186250064
-0.028460590282658838
1.2758790277627532
-0.46325055186250064
-0.028460590282658838
1.2758790277627532
-0.4636396431498428
-0.02813746274782643
1.2759839528250383
-0.4636396431498428
-0.02813746274782643
1.2759839528250383
-0.4636396431498428
-0.02813746274782643
1.2759839528250383
-0.4636396431498428
-0.02813746274782643
1.2759839528250383
-0.4632894564898095
-0.029746369494518136
1.27691106836765
-0.4632894564898095
-0.029746369494518136
1.27691106836765
-0.4632894564898095
-0.029746369494518136
1.27691106836765
-0.4632894564898095
-0.029746369494518136
1.27691106836765
-0.46355580077488173
-0.03110055317433149
1.2770329590311207
-0.46355580077488173
-0.03110055317433149
1.2770329590311207
-0.46355580077488173
-0.03110055317433149
1.2770329590311207
-0.46355580077488173
-0.03110055317433149
1.2770329590311207
-0.46504963653577963
-0.03246459184272013
1.2771519480605775
-0.46504963653577963
-0.03246459184272013
1.2771519480605775
-0.46504963653577963
-0.03246459184272013
1.2771519480605775
-0.46504963653577963
-0.03246459184272013
1.2771519480605775
-0.46607465046338575
-0.03409602580668592
1.2769772759772244
-0.46607465046338575
-0.03409602580668592
1.2769772759772244
-0.46607465046338575
-0.03409602580668592
1.2769772759772244
-0.46607465046338575
-0.03409602580668592
1.2769772759772244
-0.46586243392033355
-0.0369443194157115
1.2769209644094501
-0.46586243392033355
-0.0369443194157115
1.2769209644094501
-0.46586243392033355
-0.0369443194157115
1.2769209644094501
-0.46586243392033355
-0.0369443194157115
1.2769209644094501
-0.4643215109934997
-0.03964028147814325
1.277029058088611
-0.4643215109934997
-0.03964028147814325
1.277029058088611
-0.4643215109934997
-0.03964028147814325
1.277029058088611
-0.4643215109934997
-0.03964028147814325
1.277029058088611
-0.4647055294704234
-0.04072044146681788
1.2757617363006588
-0.4647055294704234
-0.04072044146681788
1.2757617363006588
-0.4647055294704234
-0.04072044146681788
1.2757617363006588
-0.4647055294704234
-0.04072044146681788
1.2757617363006588
-0.4646037042913445
-0.04160163381429082
1.2742616368830353
-0.4646037042913445
-0.04160163381429082
1.2742616368830353
-0.4646037042913445
-0.04160163381429082
1.2742616368830353
-0.4646037042913445
-0.04160163381429082
1.2742616368830353
-0.4647352727998195
-0.04135149165302174
1.2727754405169587
-0.4647352727998195
-0.04135149165302174
1.2727754405169587
-0.4647352727998195
-0.04135149165302174
1.2727754405169587
-0.4647352727998195
-0.04135149165302174
1.2727754405169587
-0.47404952161977
-0.02646049406666147
1.2716671589912882
-0.47404952161977
-0.02646049406666147
1.2716671589912882
-0.47404952161977
-0.02646049406666147
1.2716671589912882
-0.47404952161977
-0.02646049406666147
1.2716671589912882
-0.4813093796930163
-0.009974164333557002
1.2698171591121001
-0.4813093796930163
-0.009974164333557002
1.2698171591121001
-0.4813093796930163
-0.009974164333557002
1.2698171591121001
-0.4813093796930163
-0.009974164333557002
1.2698171591121001
-0.4714639630053144
-0.02218426661772821
1.2672965593542553
-0.4714639630053144
-0.02218426661772821
1.2672965593542553
-0.4714639630053144
-0.02218426661772821
1.2672965593542553
-0.4714639630053144
-0.02218426661772821
1.2672965593542553
-0.4784411273819936
-0.016635420773269134
1.2657790959710622
-0.4784411273819936
-0.016635420773269134
1.2657790959710622
-0.4784411273819936
-0.016635420773269134
1.2657790959710622
-0.4784411273819936
-0.016635420773269134
1.2657790959710622
-0.47879394664852937
-0.014568057434240979
1.264899063540508
-0.47879394664852937
-0.014568057434240979
1.264899063540508
-0.47879394664852937
-0.014568057434240979
1.264899063540508
-0.47879394664852937
-0.014568057434240979
1.264899063540508
-0.4784519384856621
-0.019915687735423626
1.2644917255798442
-0.4784519384856621
-0.019915687735423626
1.2644917255798442
-0.4784519384856621
-0.019915687735423626
1.2644917255798442
-0.4784519384856621
-0.019915687735423626
1.2644917255798442
-0.4808714213410221
-0.005331139852384656
1.2639263971407233
-0.4808714213410221
-0.005331139852384656
1.2639263971407233
-0.4808714213410221
-0.005331139852384656
1.2639263971407233
-0.4808714213410221
-0.005331139852384656
1.2639263971407233
-0.4786628442048078
-0.0022122862852809243
1.2635179578102194
-0.4786628442048078
-0.0022122862852809243
1.2635179578102194
-0.4786628442048078
-0.0022122862852809243
1.2635179578102194
-0.4786628442048078
-0.0022122862852809243
1.2635179578102194
-0.48022246606994323
-4.800933831250865E-4
1.2627641337548985
-0.48022246606994323
-4.800933831250865E-4
1.2627641337548985
-0.48022246606994323
-4.800933831250865E-4
1.2627641337548985
-0.48022246606994323
-4.800933831250865E-4
1.2627641337548985
-0.4819352212487072
-3.6644081168606693E-4
1.2632090535333855
-0.4819352212487072
-3.6644081168606693E-4
1.2632090535333855
-0.4819352212487072
-3.6644081168606693E-4
1.2632090535333855
-0.4819352212487072
-3.6644081168606693E-4
1.2632090535333855
-0.4810400670887718
-9.463361095295629E-4
1.26285141899485
-0.4810400670887718
-9.463361095295629E-4
1.26285141899485
-0.4810400670887718
-9.463361095295629E-4
1.26285141899485
-0.4810400670887718
-9.463361095295629E-4
1.26285141899485
-0.4795318733238396
-0.0021925479407994986
1.2623045587263801
-0.4795318733238396
-0.0021925479407994986
1.2623045587263801
-0.4795318733238396
-0.0021925479407994986
1.2623045587263801
-0.4795318733238396
-0.0021925479407994986
1.2623045587263801
-0.4791102419459743
-0.004223655093455175
1.2621993018765847
-0.4791102419459743
-0.004223655093455175
1.2621993018765847
-0.4791102419459743
-0.004223655093455175
1.2621993018765847
-0.4791102419459743
-0.004223655093455175
1.2621993018765847
-0.47932233538928576
-0.012037907195817361
1.263453623633064
-0.47932233538928576
-0.012037907195817361
1.263453623633064
-0.47932233538928576
-0.012037907195817361
1.263453623633064
-0.47932233538928576
-0.012037907195817361
1.263453623633064
-0.48405653113857655
-0.01279189780012399
1.2634035504071224
-0.48405653113857655
-0.01279189780012399
1.2634035504071224
-0.48405653113857655
-0.01279189780012399
1.2634035504071224
-0.48405653113857655
-0.01279189780012399
1.2634035504071224
-0.4867627997015563
-0.017596726671918833
1.2631456924445432
-0.4867627997015563
-0.017596726671918833
1.2631456924445432
-0.4867627997015563
-0.017596726671918833
1.2631456924445432
-0.4867627997015563
-0.017596726671918833
1.2631456924445432
-0.48679085125586946
-0.019634688664145347
1.2636520592713913
-0.48679085125586946
-0.019634688664145347
1.2636520592713913
-0.48679085125586946
-0.019634688664145347
1.2636520592713913
-0.48679085125586946
-0.019634688664145347
1.2636520592713913
-0.48659389548645027
-0.023163341227175723
1.2645259614752757
-0.48659389548645027
-0.023163341227175723
1.2645259614752757
-0.48659389548645027
-0.023163341227175723
1.2645259614752757
-0.48659389548645027
-0.023163341227175723
1.2645259614752757
-0.4863296129073233
-0.02659689577869905
1.265374610369167
-0.4863296129073233
-0.02659689577869905
1.265374610369167
-0.4863296129073233
-0.02659689577869905
1.265374610369167
-0.4863296129073233
-0.02659689577869905
1.265374610369167
-0.48642705241306095
-0.02942852302004458
1.265625591973638
-0.48642705241306095
-0.02942852302004458
1.265625591973638
-0.48642705241306095
-0.02942852302004458
1.265625591973638
-0.48642705241306095
-0.02942852302004458
1.265625591973638
-0.4882358840132679
-0.033433243469067724
1.2662170361368932
-0.4882358840132679
-0.033433243469067724
1.2662170361368932
-0.4882358840132679
-0.033433243469067724
1.2662170361368932
-0.4882358840132679
-0.033433243469067724
1.2662170361368932
-0.4900630133281629
-0.03746189545245402
1.2667206169099052
-0.4900630133281629
-0.03746189545245402
1.2667206169099052
-0.4900630133281629
-0.03746189545245402
1.2667206169099052
-0.4900630133281629
-0.03746189545245402
1.2667206169099052
-0.4899477224092202
-0.040576298987952
1.267848776459914
-0.4899477224092202
-0.040576298987952
1.267848776459914
-0.4899477224092202
-0.040576298987952
1.267848776459914
-0.4899477224092202
-0.040576298987952
1.267848776459914
-0.4901888411186127
-0.041838793319992115
1.2683456822889159
-0.4901888411186127
-0.041838793319992115
1.2683456822889159
-0.4901888411186127
-0.041838793319992115
1.2683456822889159
-0.4901888411186127
-0.041838793319992115
1.2683456822889159
-0.49196481500202793
-0.04096899802064024
1.2679076391497133
-0.49196481500202793
-0.04096899802064024
1.2679076391497133
-0.49196481500202793
-0.04096899802064024
1.2679076391497133
-0.49196481500202793
-0.04096899802064024
1.2679076391497133
-0.494726535306391
-0.03760370956080874
1.2669324967264126
-0.494726535306391
-0.03760370956080874
1.2669324967264126
-0.494726535306391
-0.03760370956080874
1.2669324967264126
-0.494726535306391
-0.03760370956080874
1.2669324967264126
-0.4970406112565928
-0.03317781312336448
1.2659478852613575
-0.4970406112565928
-0.03317781312336448
1.2659478852613575
-0.4970406112565928
-0.03317781312336448
1.2659478852613575
-0.4970406112565928
-0.03317781312336448
1.2659478852613575
-0.49867936542182084
-0.03019924911418089
1.2641808734570987
-0.49867936542182084
-0.03019924911418089
1.2641808734570987
-0.49867936542182084
-0.03019924911418089
1.2641808734570987
-0.49867936542182084
-0.03019924911418089
1.2641808734570987
-0.4993499282706951
-0.027154502443028628
1.2599601015093944
-0.4993499282706951
-0.027154502443028628
1.2599601015093944
-0.4993499282706951
-0.027154502443028628
1.2599601015093944
-0.4993499282706951
-0.027154502443028628
1.2599601015093944
-0.4999864272802951
-0.02220353637825176
1.254721738214755
-0.4999864272802951
-0.02220353637825176
1.254721738214755
-0.4999864272802951
-0.02220353637825176
1.254721738214755
-0.4999864272802951
-0.02220353637825176
1.254721738214755
-0.5022310315177007
-0.014181134655178144
1.2498063648454631
-0.5022310315177007
-0.014181134655178144
1.2498063648454631
-0.5022310315177007
-0.014181134655178144
1.2498063648454631
-0.5022310315177007
-0.014181134655178144
1.2498063648454631
-0.5023349093764594
-0.004340115533125246
1.2460220921663394
-0.5023349093764594
-0.004340115533125246
1.2460220921663394
-0.5023349093764594
-0.004340115533125246
1.2460220921663394
-0.5023349093764594
-0.004340115533125246
1.2460220921663394
-0.501051649652126
0.00845817155095483
1.2433293223351114
-0.501051649652126
0.00845817155095483
1.2433293223351114
-0.501051649652126
0.00845817155095483
1.2433293223351114
-0.501051649652126
0.00845817155095483
1.2433293223351114
-0.5049235908174801
0.02049978263542863
1.2420251628769772
-0.5049235908174801
0.02049978263542863
1.2420251628769772
-0.5049235908174801
0.02049978263542863
1.2420251628769772
-0.5049235908174801
0.02049978263542863
1.2420251628769772
-0.5041719794722955
0.03072282618388545
1.2412168267856223
-0.5041719794722955
0.03072282618388545
1.2412168267856223
-0.5041719794722955
0.03072282618388545
1.2412168267856223
-0.5041719794722955
0.03072282618388545
1.2412168267856223
-0.49893748454742726
0.03895666087765887
1.2393016638470036
-0.49893748454742726
0.03895666087765887
1.2393016638470036
-0.49893748454742726
0.03895666087765887
1.2393016638470036
-0.49893748454742726
0.03895666087765887
1.2393016638470036
-0.4973883480997857
0.04637160437588426
1.2343296522409388
-0.4973883480997857
0.04637160437588426
1.2343296522409388
-0.4973883480997857
0.04637160437588426
1.2343296522409388
-0.4973883480997857
0.04637160437588426
1.2343296522409388
-0.49807246558570184
0.055880249031730986
1.2290379035413215
-0.49807246558570184
0.055880249031730986
1.2290379035413215
-0.49807246558570184
0.055880249031730986
1.2290379035413215
-0.49807246558570184
0.055880249031730986
1.2290379035413215
-0.501327567357177
0.05969675960289603
1.226176587518613
-0.501327567357177
0.05969675960289603
1.226176587518613
-0.501327567357177
0.05969675960289603
1.226176587518613
-0.501327567357177
0.05969675960289603
1.226176587518613
-0.5151556551622949
0.05966541769879916
1.2223548511945248
-0.5151556551622949
0.05966541769879916
1.2223548511945248
-0.5151556551622949
0.05966541769879916
1.2223548511945248
-0.5151556551622949
0.05966541769879916
1.2223548511945248
-0.5222482753315854
0.056612139578970495
1.218373000482731
-0.5222482753315854
0.056612139578970495
1.218373000482731
-0.5222482753315854
0.056612139578970495
1.218373000482731
-0.5222482753315854
0.056612139578970495
1.218373000482731
-0.520906227598348
0.05086832705475925
1.216039706525019
-0.520906227598348
0.05086832705475925
1.216039706525019
-0.520906227598348
0.05086832705475925
1.216039706525019
-0.520906227598348
0.05086832705475925
1.216039706525019
-0.517432084008471
0.04429210206992417
1.2132565933853126
-0.517432084008471
0.04429210206992417
1.2132565933853126
-0.517432084008471
0.04429210206992417
1.2132565933853126
-0.517432084008471
0.04429210206992417
1.2132565933853126
-0.5179283157617546
0.036280985119798756
1.2107429025523015
-0.5179283157617546
0.036280985119798756
1.2107429025523015
-0.5179283157617546
0.036280985119798756
1.2107429025523015
-0.5179283157617546
0.036280985119798756
1.2107429025523015
-0.5184666396965343
0.024942055249364273
1.2087636410364995
-0.5184666396965343
0.024942055249364273
1.2087636410364995
-0.5184666396965343
0.024942055249364273
1.2087636410364995
-0.5184666396965343
0.024942055249364273
1.2087636410364995
-0.5175159554752187
0.013811963632022922
1.208599359678587
-0.5175159554752187
0.013811963632022922
1.208599359678587
-0.5175159554752187
0.013811963632022922
1.208599359678587
-0.5175159554752187
0.013811963632022922
1.208599359678587
-0.5165378480760042
0.002116149633845867
1.2103945609369198
-0.5165378480760042
0.002116149633845867
1.2103945609369198
-0.5165378480760042
0.002116149633845867
1.2103945609369198
-0.5165378480760042
0.002116149633845867
1.2103945609369198
-0.5189826972057103
-0.00960471794454145
1.2120096410482044
-0.5189826972057103
-0.00960471794454145
1.2120096410482044
-0.5189826972057103
-0.00960471794454145
1.2120096410482044
-0.5189826972057103
-0.00960471794454145
1.2120096410482044
-0.5233835538760909
-0.019489548630532212
1.2120012911477567
-0.5233835538760909
-0.019489548630532212
1.2120012911477567
-0.5233835538760909
-0.019489548630532212
1.2120012911477567
-0.5233835538760909
-0.019489548630532212
1.2120012911477567
-0.5256071428483907
-0.027000417918586508
1.2109339117501818
-0.5256071428483907
-0.027000417918586508
1.2109339117501818
-0.5256071428483907
-0.027000417918586508
1.2109339117501818
-0.5256071428483907
-0.027000417918586508
1.2109339117501818
-0.524709866709641
-0.03216308924084171
1.21069308906909
-0.524709866709641
-0.03216308924084171
1.21069308906909
-0.524709866709641
-0.03216308924084171
1.21069308906909
-0.524709866709641
-0.03216308924084171
1.21069308906909
-0.5205471607936853
-0.03489479649344101
1.2118254127479862
-0.5205471607936853
-0.03489479649344101
1.2118254127479862
-0.5205471607936853
-0.03489479649344101
1.2118254127479862
-0.5205471607936853
-0.03489479649344101
1.2118254127479862
-0.5180552515248753
-0.036006812449971594
1.2123800153893989
-0.5180552515248753
-0.036006812449971594
1.2123800153893989
-0.5180552515248753
-0.036006812449971594
1.2123800153893989
-0.5180552515248753
-0.036006812449971594
1.2123800153893989
-0.5167015314447894
-0.03420950093267919
1.2110336800181907
-0.5167015314447894
-0.03420950093267919
1.2110336800181907
-0.5167015314447894
-0.03420950093267919
1.2110336800181907
-0.5167015314447894
-0.03420950093267919
1.2110336800181907
-0.5160091644504409
-0.029108621847440588
1.2092849445563618
-0.5160091644504409
-0.029108621847440588
1.2092849445563618
-0.5160091644504409
-0.029108621847440588
1.2092849445563618
-0.5160091644504409
-0.029108621847440588
1.2092849445563618
-0.5144389754710937
-0.02213973408001947
1.2077722216181264
-0.5144389754710937
-0.02213973408001947
1.2077722216181264
-0.5144389754710937
-0.02213973408001947
1.2077722216181264
-0.5144389754710937
-0.02213973408001947
1.2077722216181264
-0.5104118561885864
-0.014735806417154742
1.2079124514163087
-0.5104118561885864
-0.014735806417154742
1.2079124514163087
-0.5104118561885864
-0.014735806417154742
1.2079124514163087
-0.5104118561885864
-0.014735806417154742
1.2079124514163087
-0.506926736418304
-0.006258048067155143
1.210852187278975
-0.506926736418304
-0.006258048067155143
1.210852187278975
-0.506926736418304
-0.006258048067155143
1.210852187278975
-0.506926736418304
-0.006258048067155143
1.210852187278975
-0.5040060067300604
0.0018386291839775093
1.2155984737970054
-0.5040060067300604
0.0018386291839775093
1.2155984737970054
-0.5040060067300604
0.0018386291839775093
1.2155984737970054
-0.5040060067300604
0.0018386291839775093
1.2155984737970054
-0.5021091101562908
0.011354035400419838
1.217135921628865
-0.5021091101562908
0.011354035400419838
1.217135921628865
-0.5021091101562908
0.011354035400419838
1.217135921628865
-0.5021091101562908
0.011354035400419838
1.217135921628865
-0.4992325999423222
0.020219276053209317
1.2147387952255204
-0.4992325999423222
0.020219276053209317
1.2147387952255204
-0.4992325999423222
0.020219276053209317
1.2147387952255204
-0.4992325999423222
0.020219276053209317
1.2147387952255204
-0.4951473446950147
0.028633786364000012
1.2150805430776366
-0.4951473446950147
0.028633786364000012
1.2150805430776366
-0.4951473446950147
0.028633786364000012
1.2150805430776366
-0.4951473446950147
0.028633786364000012
1.2150805430776366
-0.4911862333755808
0.03454693567200933
1.2189783020401763
-0.4911862333755808
0.03454693567200933
1.2189783020401763
-0.4911862333755808
0.03454693567200933
1.2189783020401763
-0.4911862333755808
0.03454693567200933
1.2189783020401763
-0.4884386947069438
0.03861954746369705
1.221454572534016
-0.4884386947069438
0.03861954746369705
1.221454572534016
-0.4884386947069438
0.03861954746369705
1.221454572534016
-0.4884386947069438
0.03861954746369705
1.221454572534016
-0.4918402059763596
0.04023211127184627
1.2208294097088452
-0.4918402059763596
0.04023211127184627
1.2208294097088452
-0.4918402059763596
0.04023211127184627
1.2208294097088452
-0.4918402059763596
0.04023211127184627
1.2208294097088452
-0.5054003085588418
0.04018212190760683
1.2177065552239337
-0.5054003085588418
0.04018212190760683
1.2177065552239337
-0.5054003085588418
0.04018212190760683
1.2177065552239337
-0.5054003085588418
0.04018212190760683
1.2177065552239337
-0.5075898624957699
0.04017462950559079
1.221631388891439
-0.5075898624957699
0.04017462950559079
1.221631388891439
-0.5075898624957699
0.04017462950559079
1.221631388891439
-0.5075898624957699
0.04017462950559079
1.221631388891439
-0.49207299529845516
0.0396589779510155
1.2296311627237484
-0.49207299529845516
0.0396589779510155
1.2296311627237484
-0.49207299529845516
0.0396589779510155
1.2296311627237484
-0.49207299529845516
0.0396589779510155
1.2296311627237484
-0.4711112155350629
0.03652702003202606
1.228637037754965
-0.4711112155350629
0.03652702003202606
1.228637037754965
-0.4711112155350629
0.03652702003202606
1.228637037754965
-0.4711112155350629
0.03652702003202606
1.228637037754965
-0.45766292950479276
0.02799256414585177
1.2219864821951345
-0.45766292950479276
0.02799256414585177
1.2219864821951345
-0.45766292950479276
0.02799256414585177
1.2219864821951345
-0.45766292950479276
0.02799256414585177
1.2219864821951345
-0.46472335223306427
0.017139285725315714
1.2323893353791422
-0.46472335223306427
0.017139285725315714
1.2323893353791422
-0.46472335223306427
0.017139285725315714
1.2323893353791422
-0.46472335223306427
0.017139285725315714
1.2323893353791422
-0.474969764831795
0.005566062415874664
1.239005690631942
-0.474969764831795
0.005566062415874664
1.239005690631942
-0.474969764831795
0.005566062415874664
1.239005690631942
-0.474969764831795
0.005566062415874664
1.239005690631942
-0.482894050941218
-0.004375001892701518
1.2446305577918844
-0.482894050941218
-0.004375001892701518
1.2446305577918844
-0.482894050941218
-0.004375001892701518
1.2446305577918844
-0.482894050941218
-0.004375001892701518
1.2446305577918844
-0.4889608730206923
-0.011440087999774775
1.2474041803015905
-0.4889608730206923
-0.011440087999774775
1.2474041803015905
-0.4889608730206923
-0.011440087999774775
1.2474041803015905
-0.4889608730206923
-0.011440087999774775
1.2474041803015905
-0.48593991533476677
-0.018795046710781655
1.2477161911536456
-0.48593991533476677
-0.018795046710781655
1.2477161911536456
-0.48593991533476677
-0.018795046710781655
1.2477161911536456
-0.48593991533476677
-0.018795046710781655
1.2477161911536456
-0.4828831956748639
-0.02765439805998923
1.2491506810526372
-0.4828831956748639
-0.02765439805998923
1.2491506810526372
-0.4828831956748639
-0.02765439805998923
1.2491506810526372
-0.4828831956748639
-0.02765439805998923
1.2491506810526372
-0.48320744779203345
-0.033581589999282985
1.2487016999453675
-0.48320744779203345
-0.033581589999282985
1.2487016999453675
-0.48320744779203345
-0.033581589999282985
1.2487016999453675
-0.48320744779203345
-0.033581589999282985
1.2487016999453675
-0.48770898171198496
-0.03677722405890531
1.2472079002098797
-0.48770898171198496
-0.03677722405890531
1.2472079002098797
-0.48770898171198496
-0.03677722405890531
1.2472079002098797
-0.48770898171198496
-0.03677722405890531
1.2472079002098797
-0.4904734581673116
-0.03662813313890331
1.248569788972744
-0.4904734581673116
-0.03662813313890331
1.248569788972744
-0.4904734581673116
-0.03662813313890331
1.248569788972744
-0.4904734581673116
-0.03662813313890331
1.248569788972744
-0.49292124578727353
-0.036975044476644806
1.2509288601414972
-0.49292124578727353
-0.036975044476644806
1.2509288601414972
-0.49292124578727353
-0.036975044476644806
1.2509288601414972
-0.49292124578727353
-0.036975044476644806
1.2509288601414972
-0.49200838685222437
-0.03574282351783248
1.2516402027036282
-0.49200838685222437
-0.03574282351783248
1.2516402027036282
-0.49200838685222437
-0.03574282351783248
1.2516402027036282
-0.49200838685222437
-0.03574282351783248
1.2516402027036282
-0.4900744144255078
-0.031910968050907526
1.2512879920254039
-0.4900744144255078
-0.031910968050907526
1.2512879920254039
-0.4900744144255078
-0.031910968050907526
1.2512879920254039
-0.4900744144255078
-0.031910968050907526
1.2512879920254039
-0.48595549109208497
-0.026115751519485395
1.2508618159982237
-0.48595549109208497
-0.026115751519485395
1.2508618159982237
-0.48595549109208497
-0.026115751519485395
1.2508618159982237
-0.48595549109208497
-0.026115751519485395
1.2508618159982237
-0.48400935466164624
-0.021415641256712404
1.253634624617399
-0.48400935466164624
-0.021415641256712404
1.253634624617399
-0.48400935466164624
-0.021415641256712404
1.253634624617399
-0.48400935466164624
-0.021415641256712404
1.253634624617399
-0.48618350747910727
-0.01748143217398359
1.2556680259581336
-0.48618350747910727
-0.01748143217398359
1.2556680259581336
-0.48618350747910727
-0.01748143217398359
1.2556680259581336
-0.48618350747910727
-0.01748143217398359
1.2556680259581336
-0.48945484944255796
-0.013612317815319104
1.2566814906668131
-0.48945484944255796
-0.013612317815319104
1.2566814906668131
-0.48945484944255796
-0.013612317815319104
1.2566814906668131
-0.48945484944255796
-0.013612317815319104
1.2566814906668131
-0.4885949400075313
-0.008558926873081095
1.25509232685926
-0.4885949400075313
-0.008558926873081095
1.25509232685926
-0.4885949400075313
-0.008558926873081095
1.25509232685926
-0.4885949400075313
-0.008558926873081095
1.25509232685926
-0.48585357191028905
-0.005283015026173854
1.2556380014045279
-0.48585357191028905
-0.005283015026173854
1.2556380014045279
-0.48585357191028905
-0.005283015026173854
1.2556380014045279
-0.48585357191028905
-0.005283015026173854
1.2556380014045279
-0.4844879978009219
-0.0029487033616291585
1.2565462367654219
-0.4844879978009219
-0.0029487033616291585
1.2565462367654219
-0.4844879978009219
-0.0029487033616291585
1.2565462367654219
-0.4844879978009219
-0.0029487033616291585
1.2565462367654219
-0.48465139733290985
-0.002067792784733982
1.2583902849825725
-0.48465139733290985
-0.002067792784733982
1.2583902849825725
-0.48465139733290985
-0.002067792784733982
1.2583902849825725
-0.48465139733290985
-0.002067792784733982
1.2583902849825725
-0.48646706445502
-0.0010419279775440587
1.2596912282672146
-0.48646706445502
-0.0010419279775440587
1.2596912282672146
-0.48646706445502
-0.0010419279775440587
1.2596912282672146
-0.48646706445502
-0.0010419279775440587
1.2596912282672146
-0.48586857896279834
6.811942584323149E-4
1.2608262111148583
-0.48586857896279834
6.811942584323149E-4
1.2608262111148583
-0.48586857896279834
6.811942584323149E-4
1.2608262111148583
-0.48586857896279834
6.811942584323149E-4
1.2608262111148583
-0.4861445338725083
-9.558550977817265E-4
1.2634697704613391
-0.4861445338725083
-9.558550977817265E-4
1.2634697704613391
-0.4861445338725083
-9.558550977817265E-4
1.2634697704613391
-0.4861445338725083
-9.558550977817265E-4
1.2634697704613391
-0.4866880938485625
-0.0033516590827617314
1.2653966976637416
-0.4866880938485625
-0.0033516590827617314
1.2653966976637416
-0.4866880938485625
-0.0033516590827617314
1.2653966976637416
-0.4866880938485625
-0.0033516590827617314
1.2653966976637416
-0.48779686246572834
-0.005260445761475189
1.2670772524648848
-0.48779686246572834
-0.005260445761475189
1.2670772524648848
-0.48779686246572834
-0.005260445761475189
1.2670772524648848
-0.48779686246572834
-0.005260445761475189
1.2670772524648848
-0.4879714616729386
-0.006643063640618845
1.268503946733577
-0.4879714616729386
-0.006643063640618845
1.268503946733577
-0.4879714616729386
-0.006643063640618845
1.268503946733577
-0.4879714616729386
-0.006643063640618845
1.268503946733577
-0.4888849778913271
-0.009174769086622181
1.2700924560979456
-0.4888849778913271
-0.009174769086622181
1.2700924560979456
-0.4888849778913271
-0.009174769086622181
1.2700924560979456
-0.4888849778913271
-0.009174769086622181
1.2700924560979456
-0.490023257704776
-0.012204649128471497
1.2716069210735046
-0.490023257704776
-0.012204649128471497
1.2716069210735046
-0.490023257704776
-0.012204649128471497
1.2716069210735046
-0.490023257704776
-0.012204649128471497
1.2716069210735046
-0.4904109580866439
-0.01486611382748406
1.2723500413309667
-0.4904109580866439
-0.01486611382748406
1.2723500413309667
-0.4904109580866439
-0.01486611382748406
1.2723500413309667
-0.4904109580866439
-0.01486611382748406
1.2723500413309667
-0.49020381396009044
-0.017481548745010914
1.2718457454425498
-0.49020381396009044
-0.017481548745010914
1.2718457454425498
-0.49020381396009044
-0.017481548745010914
1.2718457454425498
-0.49020381396009044
-0.017481548745010914
1.2718457454425498
-0.48847105619611153
-0.01952845592704721
1.2712369683183673
-0.48847105619611153
-0.01952845592704721
1.2712369683183673
-0.48847105619611153
-0.01952845592704721
1.2712369683183673
-0.48847105619611153
-0.01952845592704721
1.2712369683183673
-0.4900108918296173
-0.021856326468521824
1.2718555252175379
-0.4900108918296173
-0.021856326468521824
1.2718555252175379
-0.4900108918296173
-0.021856326468521824
1.2718555252175379
-0.4900108918296173
-0.021856326468521824
1.2718555252175379
-0.4905659516753247
-0.021771233059901845
1.271110079556059
-0.4905659516753247
-0.021771233059901845
1.271110079556059
-0.4905659516753247
-0.021771233059901845
1.271110079556059
-0.4905659516753247
-0.021771233059901845
1.271110079556059
-0.4931750124815618
-0.01958507928784727
1.2703057686555752
-0.4931750124815618
-0.01958507928784727
1.2703057686555752
-0.4931750124815618
-0.01958507928784727
1.2703057686555752
-0.4931750124815618
-0.01958507928784727
1.2703057686555752
-0.49635930922386107
-0.015100901067654701
1.2682614522038986
-0.49635930922386107
-0.015100901067654701
1.2682614522038986
-0.49635930922386107
-0.015100901067654701
1.2682614522038986
-0.49635930922386107
-0.015100901067654701
1.2682614522038986
-0.4998374765257248
-0.00545408252728198
1.2665241347148624
-0.4998374765257248
-0.00545408252728198
1.2665241347148624
-0.4998374765257248
-0.00545408252728198
1.2665241347148624
-0.4998374765257248
-0.00545408252728198
1.2665241347148624
-0.5008014695329429
0.0035879103308563763
1.2661514788063601
-0.5008014695329429
0.0035879103308563763
1.2661514788063601
-0.5008014695329429
0.0035879103308563763
1.2661514788063601
-0.5008014695329429
0.0035879103308563763
1.2661514788063601
-0.4970176122561904
0.004741099114008512
1.2662783514416154
-0.4970176122561904
0.004741099114008512
1.2662783514416154
-0.4970176122561904
0.004741099114008512
1.2662783514416154
-0.4970176122561904
0.004741099114008512
1.2662783514416154
-0.49086396114296266
-0.0016849393037718272
1.2667112223820693
-0.49086396114296266
-0.0016849393037718272
1.2667112223820693
-0.49086396114296266
-0.0016849393037718272
1.2667112223820693
-0.49086396114296266
-0.0016849393037718272
1.2667112223820693
-0.4886061067737776
-0.007713916225601401
1.2667578145848615
-0.4886061067737776
-0.007713916225601401
1.2667578145848615
-0.4886061067737776
-0.007713916225601401
1.2667578145848615
-0.4886061067737776
-0.007713916225601401
1.2667578145848615
-0.49135339384746063
-0.004556524807435794
1.2656186255633748
-0.49135339384746063
-0.004556524807435794
1.2656186255633748
-0.49135339384746063
-0.004556524807435794
1.2656186255633748
-0.49135339384746063
-0.004556524807435794
1.2656186255633748
-0.4951059904145002
0.007149018214385334
1.2646723118520353
-0.4951059904145002
0.007149018214385334
1.2646723118520353
-0.4951059904145002
0.007149018214385334
1.2646723118520353
-0.4951059904145002
0.007149018214385334
1.2646723118520353
-0.49616445153001965
0.01638742832211237
1.2630052278378838
-0.49616445153001965
0.01638742832211237
1.2630052278378838
-0.49616445153001965
0.01638742832211237
1.2630052278378838
-0.49616445153001965
0.01638742832211237
1.2630052278378838
-0.49151046392136244
0.014483277639973794
1.2622505013580236
-0.49151046392136244
0.014483277639973794
1.2622505013580236
-0.49151046392136244
