0
3
3
2
1
6
2
2
0
4
3
5
2
4
1
1
0
4
5
7
2
3
2
1
0
4
12
6
2
3
2
1
0
4
11
6
2
3
2
1
0
4
10
7
2
3
2
1
1
3
9
6
1
3
2
1
1
3
9
6
2
3
2
1
0
3
8
5
2
3
2
1
0
3
8
5
2
3
2
1
1
3
8
5
2
3
2
1
1
3
8
5
2
3
2
1
1
3
8
5
2
3
2
1
1
3
8
5
2
3
2
1
1
3
8
5
2
3
2
1
1
3
8
5
2
3
2
1
1
3
8
5
2
3
2
1
1
3
8
5
2
2
2
1
1
3
8
4
2
2
2
1
1
3
8
4
2
2
2
1
1
3
8
5
2
2
2
1
1
2
9
4
2
2
2
1
1
2
8
4
2
2
2
1
1
2
8
4
2
2
2
1
1
2
8
5
2
2
2
1
1
2
8
5
2
2
2
1
1
2
8
5
2
2
2
1
1
2
9
5
2
2
2
1
1
2
9
5
2
2
2
1
1
2
9
5
2
2
2
1
1
2
9
5
2
2
2
1
1
2
9
5
2
2
2
1
1
2
10
5
2
2
2
1
1
2
10
5
2
2
2
1
1
2
10
5
2
2
2
1
1
2
10
5
2
2
2
1
1
2
10
5
2
2
2
1
1
2
11
5
2
2
2
1
1
2
10
5
2
2
2
1
1
2
11
5
2
2
2
1
1
2
11
5
2
2
2
1
1
2
10
5
2
2
2
1
1
2
10
5
2
2
2
1
1
2
10
5
2
2
2
1
1
2
11
5
2
2
2
1
1
2
11
5
2
2
2
1
1
2
11
5
2
2
2
1
1
2
11
5
2
2
2
1
1
2
11
5
2
2
2
1
1
2
11
5
2
2
2
1
1
2
11
5
2
2
2
1
1
2
11
5
2
2
2
1
1
2
11
5
2
2
2
1
1
2
11
5
2
2
2
1
1
2
12
5
2
2
2
1
1
2
16
6
2
2
2
1
1
2
17
6
2
2
2
1
1
2
17
6
2
2
2
1
1
2
17
6
2
2
2
1
1
2
17
6
2
2
2
1
1
2
17
6
2
2
2
1
1
2
17
6
2
2
2
1
1
2
17
6
2
2
2
1
1
2
17
6
2
2
2
1
1
2
18
6
2
2
2
1
1
2
18
6
2
2
3
1
1
2
18
6
2
2
3
1
1
2
18
6
2
2
3
1
1
2
18
6
2
2
2
1
1
2
18
6
2
2
2
1
1
2
18
6
2
2
3
1
1
2
18
6
2
2
3
1
1
2
18
6
2
2
3
1
1
2
18
6
2
2
3
1
1
2
18
6
2
2
3
1
1
2
18
6
2
2
3
1
1
2
18
6
2
2
3
1
1
2
19
6
2
2
3
1
1
2
19
6
2
2
3
1
1
2
19
6
2
2
3
1
1
2
19
6
2
2
3
1
1
2
19
6
2
2
3
1
1
2
18
6
2
2
3
1
1
2
18
6
2
2
3
1
1
2
18
6
2
2
3
1
1
2
18
6
2
2
3
1
1
2
19
7
2
2
3
1
1
2
19
7
2
2
3
1
1
2
19
7
2
2
3
1
1
2
19
7
2
2
3
1
1
2
19
7
2
2
3
1
1
2
19
7
2
2
3
1
1
2
19
7
2
2
3
1
1
2
19
7
2
2
3
1
1
2
19
7
2
2
3
1
1
2
19
7
2
2
3
1
1
2
19
7
2
2
3
1
1
2
18
7
2
2
2
1
1
2
18
7
2
2
2
1
1
2
18
7
2
2
2
1
1
2
18
7
2
2
2
1
1
2
18
7
2
2
2
1
1
2
18
7
2
2
2
1
1
2
18
7
2
2
2
1
1
2
18
6
2
2
2
1
1
2
14
6
2
2
2
1
1
2
13
5
2
2
2
1
1
2
13
6
2
2
2
1
1
2
13
5
2
2
2
1
1
2
13
5
2
2
2
1
1
2
13
5
2
2
2
1
1
2
13
5
2
2
2
1
1
2
13
5
2
2
2
1
1
2
13
5
2
2
2
1
1
2
12
5
2
2
2
1
1
2
12
5
2
2
2
1
1
2
11
5
2
2
2
1
1
2
11
5
2
2
2
1
1
2
11
5
2
2
2
1
1
2
12
5
2
2
2
1
1
2
12
5
2
2
2
1
1
1
12
6
2
2
2
1
1
1
12
6
2
2
2
1
1
1
12
6
2
2
2
1
1
1
12
6
2
2
2
1
1
1
12
6
2
2
2
1
1
1
12
6
2
2
2
1
1
1
11
5
2
2
2
1
1
1
11
5
2
2
2
1
1
1
11
6
2
2
2
1
1
1
11
6
2
2
2
1
1
1
11
6
2
2
2
1
1
1
11
6
2
2
2
1
1
1
11
5
2
2
2
1
1
1
11
5
2
2
2
1
1
1
11
5
2
2
2
1
1
2
10
5
2
2
2
1
1
2
9
4
2
2
2
1
1
1
9
4
2
2
2
1
1
1
9
4
2
2
2
1
1
2
8
4
2
2
2
1
1
2
8
4
2
2
2
1
1
2
8
4
2
2
2
1
1
2
8
4
2
2
2
1
1
2
8
4
2
2
2
1
1
2
8
4
2
2
2
1
1
2
8
4
2
2
2
1
1
2
9
4
2
2
2
1
1
2
9
4
2
2
2
1
1
2
9
4
2
2
2
1
1
2
9
4
2
2
1
1
1
2
9
5
2
2
1
1
1
2
9
5
2
2
2
1
1
2
9
5
2
2
2
1
1
2
9
5
2
2
2
1
1
2
9
5
2
2
2
1
2
2
9
5
2
2
2
1
2
2
9
5
2
2
2
1
2
2
9
5
2
2
2
1
2
2
9
5
3
2
2
1
2
2
9
5
3
2
2
1
3
2
9
5
3
2
2
1
3
2
9
5
3
2
2
1
3
2
9
5
3
2
1
1
3
2
9
5
3
2
1
1
4
2
9
5
3
2
1
1
5
2
9
5
3
2
1
1
5
2
9
5
3
2
1
1
5
2
9
6
3
2
1
1
5
2
9
6
3
2
1
1
8
2
8
6
3
2
2
1
8
2
8
5
3
2
1
2
12
3
8
6
3
2
1
2
13
4
8
6
3
2
2
2
15
4
8
6
3
2
2
2
17
4
8
6
3
2
2
2
21
4
8
7
3
2
2
3
21
6
9
9
3
2
2
4
22
6
9
11
4
2
2
4
27
6
9
11
4
2
5
5
31
6
9
11
6
3
7
7
31
8
9
11
6
4
7
7
31
8
10
11
6
5
7
7
31
10
9
12
6
5
7
7
33
10
10
12
7
5
8
8
34
10
10
12
9
5
8
9
38
11
10
12
10
5
8
10
41
13
11
12
10
5
8
12
42
14
11
12
10
6
9
12
44
14
15
12
10
6
10
14
47
14
20
15
12
7
11
14
47
14
20
16
13
8
11
15
47
15
21
18
13
8
13
19
47
18
21
19
13
9
13
19
47
19
21
19
14
9
13
19
48
19
22
19
14
9
13
19
48
19
22
25
16
9
14
21
48
19
22
25
18
10
14
21
48
20
22
25
19
10
14
21
49
22
23
25
19
11
14
21
50
22
23
27
19
11
15
21
50
22
23
27
20
11
15
21
51
22
24
27
20
11
15
21
51
22
26
27
20
12
15
21
52
22
28
27
20
12
16
21
53
22
28
27
20
12
16
21
56
22
28
28
20
13
16
22
57
22
29
28
20
13
17
23
60
22
30
28
20
13
17
24
60
23
30
28
20
13
17
24
62
24
30
29
20
13
17
25
64
26
31
29
20
14
17
25
64
27
31
29
20
14
17
26
66
27
31
30
20
14
17
26
66
27
31
30
20
14
17
26
67
27
31
30
20
14
17
26
67
29
31
30
21
14
18
27
68
29
31
31
21
14
19
27
69
29
31
32
21
14
19
28
69
30
32
33
21
14
19
28
69
31
31
33
21
14
19
28
69
31
33
34
22
14
19
28
69
32
34
34
22
14
19
28
69
32
34
34
22
14
20
28
70
34
34
34
22
14
20
28
70
34
34
34
22
14
20
28
71
34
35
35
22
14
20
29
72
34
35
34
22
14
20
29
72
34
35
34
22
14
20
29
71
34
35
34
22
14
19
29
70
35
35
34
21
14
19
28
71
35
35
34
21
14
19
28
71
35
34
35
21
14
19
29
72
34
34
34
22
14
19
29
71
34
34
34
21
14
19
28
71
36
34
34
20
14
19
28
71
36
34
34
20
14
19
29
70
36
34
35
20
14
19
28
69
37
34
35
20
14
19
27
68
39
33
35
20
14
18
27
67
39
30
35
19
14
18
27
67
39
30
35
19
14
18
26
67
39
30
33
19
14
17
23
68
38
30
33
19
13
17
24
68
38
30
33
18
13
17
23
68
38
30
33
18
14
17
23
68
39
30
29
17
14
16
22
71
40
30
29
14
13
16
23
70
41
30
29
13
13
17
23
70
40
30
30
12
12
17
23
69
40
30
29
13
12
16
23
69
40
30
29
13
12
16
23
69
41
29
29
12
12
16
23
70
41
27
29
12
11
16
23
70
41
25
29
12
11
16
23
70
41
27
29
12
11
16
23
68
41
27
29
12
10
16
23
68
42
26
29
12
10
14
22
68
42
24
29
12
9
14
20
68
42
24
29
12
9
14
20
68
41
24
28
12
9
14
20
67
40
24
28
13
9
15
20
66
40
26
28
13
8
16
20
65
40
26
28
12
8
15
19
67
40
26
28
12
9
16
19
67
40
26
28
12
8
16
19
67
39
27
28
12
8
15
18
67
39
27
27
12
8
14
18
66
39
28
25
12
8
14
17
66
38
28
25
11
9
14
17
66
37
28
24
12
9
14
17
68
37
25
23
11
9
14
17
67
37
25
23
11
9
14
17
67
36
25
23
11
9
14
17
67
35
25
23
11
9
14
17
66
35
25
23
11
9
14
17
64
35
24
23
11
9
14
16
63
35
24
22
11
9
13
16
63
35
24
22
11
9
13
16
63
34
24
22
11
9
13
15
63
34
24
22
11
9
13
16
62
33
24
21
11
9
13
15
62
34
24
24
11
9
13
15
61
34
24
24
11
9
13
14
61
34
24
24
11
9
13
15
61
32
25
24
11
8
14
14
58
31
25
24
11
8
14
14
58
31
25
24
11
8
13
14
58
29
24
24
11
8
13
14
59
27
25
23
11
8
13
14
59
27
24
23
10
7
13
14
59
27
24
23
10
7
13
14
58
27
24
23
10
7
13
14
58
26
23
23
10
7
13
13
58
25
23
23
10
7
13
14
57
24
23
24
10
6
13
14
57
24
24
24
10
6
13
14
56
22
24
24
10
6
13
14
58
19
24
24
10
7
12
14
59
19
24
23
10
7
12
13
59
19
24
23
10
7
12
13
59
19
23
23
9
7
12
13
60
17
23
22
9
7
12
13
58
17
23
22
9
6
12
13
57
15
23
23
9
7
12
13
57
15
21
22
10
7
12
13
58
15
21
22
10
7
12
13
58
14
21
23
10
7
12
14
56
13
21
23
10
7
12
13
56
14
21
23
10
7
12
14
54
14
21
23
10
7
12
13
53
14
21
22
9
7
11
12
53
14
19
22
9
7
11
12
53
15
19
22
10
7
11
12
51
14
19
22
9
7
12
12
49
14
18
22
9
7
12
13
49
14
18
22
9
7
12
13
50
14
16
23
9
7
12
12
49
13
15
23
8
7
12
12
50
13
15
23
8
6
12
13
49
13
15
23
8
6
12
14
47
13
15
22
8
7
12
13
47
14
15
23
8
7
12
13
47
14
16
23
8
7
12
13
46
14
17
22
8
7
11
13
46
14
17
22
8
7
11
13
46
13
17
22
8
7
11
13
46
13
17
22
8
7
12
13
45
13
17
22
8
7
12
13
45
13
17
22
8
7
12
13
43
13
17
22
8
7
12
13
43
13
17
22
8
7
12
13
43
13
17
19
7
7
12
13
44
13
16
18
7
7
12
13
44
13
16
18
7
7
12
13
45
13
15
18
7
7
12
13
45
13
15
18
7
7
12
13
45
13
15
18
7
7
12
13
45
13
16
18
7
7
12
13
44
13
16
18
7
7
12
13
43
13
16
17
7
7
12
13
43
13
17
17
7
7
13
13
44
12
17
17
7
8
13
13
43
12
17
17
7
7
13
13
43
12
17
17
7
8
13
13
45
12
17
16
7
8
12
13
45
13
17
16
7
8
12
12
43
13
17
16
7
8
12
12
42
13
17
16
7
7
12
12
40
13
17
16
7
7
13
12
40
13
17
15
7
7
13
12
40
13
17
15
7
7
13
12
40
13
17
15
7
7
13
12
42
13
17
15
7
7
13
12
43
13
17
18
6
7
13
12
43
13
17
17
6
7
13
12
42
13
17
17
6
7
13
12
39
13
17
17
6
7
13
11
40
13
17
17
6
7
13
11
39
11
17
17
6
7
13
11
39
11
17
17
6
7
13
11
39
13
17
17
6
7
13
11
40
14
17
17
6
7
13
11
40
14
17
17
6
7
13
11
40
14
17
17
6
7
12
11
39
13
17
17
6
7
12
10
39
14
18
16
6
7
12
10
39
14
18
15
6
7
11
10
39
14
18
15
6
7
11
10
39
14
18
16
6
7
11
9
39
13
18
16
6
7
11
8
39
13
20
16
6
6
11
8
41
13
20
16
6
6
11
8
42
14
20
16
6
6
11
8
42
14
19
16
6
6
11
8
43
14
20
16
6
6
11
8
43
14
20
17
6
6
11
8
43
14
20
17
6
6
11
8
43
14
20
17
6
6
11
8
43
14
20
18
6
6
11
8
43
14
20
18
6
6
11
8
43
14
20
18
6
6
11
8
44
14
21
18
6
6
11
8
43
14
21
18
6
6
11
8
43
14
21
18
6
6
11
8
45
14
21
19
7
6
11
9
45
14
21
19
7
6
10
9
44
14
21
19
7
6
10
9
45
15
20
19
7
6
11
10
46
15
20
20
7
6
11
9
46
15
20
20
8
6
10
9
46
15
20
21
8
6
10
9
46
15
20
21
8
6
10
9
47
15
21
21
8
6
10
9
48
15
21
20
8
5
10
9
46
15
21
20
8
5
10
9
45
16
21
21
8
5
11
10
46
15
21
21
8
5
11
10
46
15
21
21
8
5
11
10
46
15
21
21
9
6
11
9
46
15
21
21
9
6
11
9
46
16
21
23
9
6
11
10
45
16
21
24
9
6
11
10
46
16
21
24
9
6
11
10
46
16
21
23
9
6
11
10
46
17
21
23
9
6
12
10
46
17
21
23
9
6
12
10
45
17
21
23
9
6
11
10
45
17
21
23
9
6
11
10
45
17
21
23
9
6
11
10
45
17
21
23
9
6
11
10
45
16
21
23
9
6
11
10
45
14
21
23
9
6
11
10
45
14
21
23
9
6
11
10
45
14
21
23
9
6
11
11
45
14
21
23
9
6
11
11
45
14
21
23
9
6
11
11
46
14
21
23
9
6
11
11
45
14
21
23
9
6
11
11
45
14
21
22
9
6
11
11
45
14
21
22
9
6
11
11
45
14
19
22
9
7
11
13
44
14
20
22
8
7
11
13
43
13
20
22
8
7
11
12
43
13
20
22
8
7
11
12
42
13
20
22
8
7
11
12
42
13
20
22
8
7
12
12
43
13
20
22
8
7
12
12
43
14
20
22
8
7
12
13
43
14
19
22
8
7
12
13
43
14
19
22
8
6
12
13
43
13
19
22
8
7
11
13
41
13
18
21
8
7
11
13
41
13
18
22
8
7
11
13
41
13
18
22
8
7
11
12
39
13
18
21
8
7
11
12
39
13
18
20
8
7
11
12
39
13
18
20
8
7
11
12
38
12
18
20
8
7
11
11
37
12
18
19
7
7
11
11
37
12
18
18
7
7
11
11
37
12
18
18
6
7
11
11
35
12
17
18
6
7
10
11
34
12
15
18
6
7
10
11
33
12
15
18
6
7
10
11
33
12
16
18
6
7
10
11
33
11
16
18
6
8
10
11
32
11
16
17
6
9
11
11
31
11
19
17
6
9
11
11
31
11
18
17
6
9
11
11
31
10
18
17
6
9
12
11
30
11
19
15
5
11
12
10
30
11
20
12
5
12
12
10
26
11
20
12
5
12
12
10
24
11
19
12
5
12
12
10
24
9
20
12
5
12
12
10
24
9
20
12
5
12
12
10
24
9
21
12
5
13
13
10
23
8
21
12
5
13
14
10
23
8
21
13
5
13
14
10
22
8
22
13
5
13
14
10
22
8
22
12
5
13
13
10
22
8
22
12
5
13
14
10
20
7
23
12
5
13
14
9
19
8
25
13
5
13
13
8
19
8
25
14
5
14
13
8
19
8
25
13
5
13
13
8
17
8
25
13
5
13
13
8
17
8
25
13
5
14
13
8
17
8
25
13
5
14
13
8
16
8
26
13
5
14
13
8
15
9
30
15
5
14
13
6
15
9
31
15
5
14
13
6
15
9
31
16
5
14
13
6
14
9
31
17
5
14
13
6
14
9
31
16
5
15
13
6
14
9
32
16
5
15
13
6
11
9
33
16
5
15
13
6
10
8
34
17
5
15
13
5
10
8
34
17
5
15
13
5
10
8
34
16
5
15
13
5
8
9
35
17
5
15
13
5
8
9
35
17
5
15
13
5
8
9
38
19
6
15
13
5
7
9
39
19
6
15
13
5
7
10
40
21
6
15
13
5
7
10
41
21
6
15
13
5
7
10
42
22
7
15
14
5
7
10
43
23
7
15
14
6
7
10
43
23
6
15
14
6
7
11
43
23
6
15
14
6
6
11
43
23
6
15
14
6
6
10
43
23
6
15
14
6
6
11
43
23
6
15
14
6
6
11
43
23
6
15
14
6
6
11
43
23
6
15
14
6
6
11
43
23
6
15
14
6
6
11
43
23
6
14
13
5
6
11
43
24
6
14
13
5
6
11
43
24
6
14
13
5
5
11
42
24
6
14
13
5
5
11
42
24
6
13
12
5
5
11
42
24
6
12
12
5
5
11
42
24
6
12
12
5
5
11
42
24
6
12
12
5
5
11
42
24
6
12
12
5
5
11
42
24
6
12
11
5
5
11
42
24
6
11
10
5
5
11
42
24
6
11
9
5
5
11
42
23
6
11
9
5
4
11
41
23
6
10
9
5
4
11
42
23
6
11
9
5
5
12
43
23
6
10
9
5
4
12
42
24
6
10
10
5
4
12
41
23
6
10
9
5
5
12
41
23
6
10
9
5
5
12
41
23
6
10
9
5
4
12
41
23
6
10
9
5
5
12
41
23
6
10
9
5
5
12
41
23
6
10
9
5
5
12
40
22
6
10
9
5
5
11
37
21
6
9
9
5
5
11
37
21
6
9
9
5
4
11
36
21
6
9
9
4
4
11
37
20
6
9
9
4
4
12
37
20
6
8
9
4
4
12
36
20
5
8
9
4
4
11
35
20
5
8
9
4
4
11
35
20
5
8
9
4
4
11
35
20
5
8
9
4
4
11
35
20
5
9
10
4
4
11
34
19
5
9
10
4
4
11
34
19
5
9
10
4
4
11
31
17
5
9
10
4
4
11
30
17
5
8
9
3
4
10
28
15
5
8
9
3
4
10
27
15
5
8
9
3
3
10
26
14
4
8
9
3
3
10
24
13
4
8
9
3
3
10
24
13
4
8
9
2
3
10
25
13
4
7
8
2
3
10
25
13
4
7
8
2
3
10
25
13
4
7
8
2
3
10
25
13
4
7
8
2
3
9
25
13
4
7
8
2
3
9
25
13
4
7
8
2
3
9
24
12
4
7
8
2
3
9
25
12
4
7
8
2
3
9
24
10
4
7
8
2
3
9
24
10
4
7
7
2
3
9
24
10
4
7
7
2
3
9
24
10
4
7
7
2
3
9
24
10
4
7
7
2
3
9
24
10
4
7
7
2
3
9
24
10
4
7
7
2
3
9
24
9
4
7
7
2
3
9
24
9
4
7
7
2
3
9
24
9
4
7
7
2
3
9
24
9
4
7
7
2
3
9
23
10
4
7
7
2
3
9
23
10
4
7
7
2
3
9
23
10
4
7
7
2
3
8
21
10
4
6
7
2
3
8
21
10
4
6
7
2
4
8
20
10
4
6
7
2
4
7
19
10
4
6
7
2
4
7
19
10
4
6
7
2
4
7
19
10
4
6
7
2
4
7
19
10
5
6
7
2
5
7
19
10
5
6
7
2
5
7
19
10
5
6
7
2
7
6
19
9
5
6
6
2
7
6
18
10
5
6
6
2
7
6
18
10
5
6
6
2
7
6
17
10
5
6
6
2
7
6
17
10
5
6
6
2
7
6
16
10
5
6
6
2
7
6
16
10
5
6
6
2
7
6
15
10
5
6
6
2
9
6
15
9
5
5
6
2
9
6
15
9
5
4
4
2
9
5
15
10
5
4
4
2
10
5
14
9
5
4
4
2
10
5
14
9
5
4
4
2
12
5
14
9
5
4
4
2
12
5
14
9
5
4
4
2
12
5
13
9
5
4
4
2
12
5
13
9
5
4
4
4
13
5
13
9
5
3
4
4
13
5
13
9
5
4
4
4
16
5
12
9
5
3
4
4
20
5
13
10
6
4
5
5
21
5
13
10
6
3
5
5
21
6
12
11
6
3
6
5
23
6
12
11
6
4
6
6
27
6
12
11
7
4
7
6
30
6
13
11
7
4
6
7
30
6
13
11
7
4
7
7
30
6
13
12
7
5
7
7
31
7
13
11
7
5
7
8
33
8
14
11
8
4
6
8
33
8
14
11
8
4
6
8
33
9
15
12
8
4
7
8
33
10
16
13
8
4
7
9
34
10
16
14
8
5
8
9
34
12
16
14
8
5
8
9
34
13
16
14
9
7
8
9
35
14
16
15
9
7
8
9
36
14
17
15
9
7
8
10
38
14
17
16
9
7
8
10
38
15
17
18
9
7
8
10
39
15
18
18
9
7
8
10
40
16
18
19
9
7
8
11
40
16
18
19
9
7
9
11
41
17
18
20
9
8
9
11
43
17
18
20
9
8
9
12
44
18
18
20
9
8
9
12
44
18
18
21
9
8
9
12
47
18
18
21
9
8
10
12
48
19
18
21
9
9
10
13
48
19
18
21
9
9
10
14
48
20
19
21
9
10
10
14
50
20
19
21
10
10
10
15
53
21
19
22
10
10
10
20
54
22
21
22
10
10
11
20
56
22
22
25
11
10
11
20
56
22
22
26
11
10
11
20
56
22
23
26
12
11
11
21
57
23
24
29
13
11
11
21
58
26
24
31
13
12
11
21
58
27
24
31
13
12
11
22
58
27
24
31
13
12
11
22
60
27
24
31
13
12
11
22
62
28
24
31
13
12
11
23
62
29
24
32
13
12
11
23
62
29
24
32
13
12
11
23
63
29
24
32
14
12
11
24
63
29
25
32
14
12
12
24
63
29
25
32
14
12
13
24
63
29
25
33
14
12
13
24
63
30
25
33
14
12
12
24
62
30
26
33
13
12
13
24
64
30
26
33
13
12
13
24
64
32
26
33
14
13
13
24
64
32
26
33
14
12
13
24
65
32
26
33
13
12
13
24
64
32
25
33
13
12
13
24
66
33
25
33
14
13
13
25
68
34
25
34
13
13
14
25
69
34
26
34
13
13
14
25
68
34
25
34
13
14
14
25
68
34
25
34
13
14
15
25
68
34
25
34
13
14
15
25
69
36
25
36
13
15
14
25
69
36
26
36
14
15
14
25
69
35
26
36
14
15
14
25
68
35
26
36
14
14
14
25
71
34
26
36
14
14
14
26
71
35
26
36
14
14
14
25
71
34
26
36
14
15
14
25
71
34
26
38
14
14
14
25
70
34
25
38
14
15
15
25
72
34
26
37
14
15
15
25
72
35
26
37
14
15
15
25
72
34
26
37
14
14
15
25
71
35
27
37
14
14
15
25
72
35
27
37
14
15
14
25
72
35
27
37
14
15
15
25
70
35
27
37
14
15
14
25
72
35
27
37
14
15
17
27
72
35
28
37
14
14
20
28
72
35
28
37
14
14
20
28
71
35
28
37
14
14
20
28
70
34
27
37
14
14
20
25
70
34
26
37
15
14
20
25
68
34
26
37
14
14
20
25
68
34
25
36
14
14
20
25
68
34
24
36
13
13
20
24
68
34
24
34
13
13
20
24
67
32
25
34
12
13
20
24
68
32
25
34
12
13
20
23
70
32
25
34
12
13
21
24
69
32
25
34
12
15
21
23
67
32
25
34
13
15
21
23
67
31
25
34
12
15
21
23
68
31
25
34
12
15
21
24
68
31
25
34
12
15
21
23
68
30
25
34
12
15
20
23
68
30
24
35
12
15
20
23
69
31
24
35
12
15
21
23
70
30
24
34
12
15
21
24
69
30
24
35
12
15
20
24
68
30
23
34
12
15
20
23
68
29
23
38
12
15
20
24
67
31
24
39
13
15
20
24
67
31
24
40
13
15
20
24
67
31
24
40
13
15
20
24
67
30
24
41
13
15
20
23
65
29
24
40
13
14
20
23
64
29
24
40
13
14
20
23
66
29
25
40
13
14
19
23
66
29
25
40
13
13
19
23
68
29
24
40
13
13
20
23
67
27
23
38
13
13
20
23
67
26
23
39
12
12
20
23
67
26
23
39
12
12
20
22
67
27
22
40
12
11
20
22
64
27
22
40
12
12
20
22
63
29
22
40
13
12
21
22
62
29
21
40
13
11
21
22
63
29
21
37
13
11
21
22
63
29
21
38
13
11
21
23
63
29
23
38
14
11
21
23
63
29
23
38
14
11
21
24
63
29
23
38
14
11
21
24
63
28
23
38
14
11
21
24
62
28
23
38
14
11
21
23
62
28
23
38
14
11
21
23
61
28
23
38
14
11
21
23
59
28
22
37
14
11
19
21
59
28
21
37
14
11
16
18
58
28
22
38
14
11
16
18
57
28
21
39
14
11
16
18
57
28
21
39
14
11
16
18
56
28
21
39
13
11
16
18
57
28
21
37
13
11
16
18
57
28
22
37
13
11
16
18
57
28
22
39
14
11
16
19
56
28
21
41
15
11
17
21
57
27
21
41
15
11
17
21
55
28
21
41
15
11
17
21
54
27
21
41
15
11
17
20
56
27
21
43
15
9
16
20
56
26
22
42
15
9
16
20
57
26
22
43
15
9
16
20
54
26
22
42
15
9
17
19
54
26
21
42
15
8
17
19
54
27
21
42
15
8
17
19
54
27
21
42
15
8
17
19
53
26
21
41
15
8
16
19
52
26
21
41
15
8
16
18
52
26
21
41
16
8
16
18
52
26
21
42
15
8
16
18
52
25
21
39
16
8
16
18
53
25
21
38
15
8
16
18
51
26
21
37
15
8
16
17
51
26
21
37
15
8
16
17
48
26
20
37
15
8
16
17
48
26
20
37
16
8
16
17
48
26
20
37
16
8
16
17
46
26
19
37
16
8
16
17
46
26
19
37
16
8
16
17
44
27
19
37
16
8
14
17
44
27
19
37
16
8
15
17
45
27
20
38
16
8
16
18
45
27
20
38
16
8
16
18
45
27
20
38
16
8
16
18
46
27
20
38
16
8
16
18
46
24
21
38
15
8
15
19
47
24
21
38
15
8
15
20
47
24
21
38
16
8
15
20
48
24
21
38
15
8
15
20
45
24
19
39
15
8
15
19
45
25
18
39
15
8
15
19
45
26
18
39
15
8
15
19
46
26
18
39
15
8
15
19
46
26
18
39
14
8
15
19
46
25
18
39
14
8
15
20
46
25
18
39
14
8
15
20
46
25
18
39
14
8
15
20
47
25
18
39
14
8
15
20
47
25
18
39
14
8
15
20
47
25
18
38
14
8
15
21
46
25
18
38
14
9
15
21
47
25
18
38
14
9
17
21
46
25
18
38
14
9
17
21
46
25
19
38
14
9
17
21
46
25
19
36
14
9
17
21
46
25
19
35
14
9
17
19
47
25
19
35
14
9
17
19
47
25
18
35
13
8
17
19
45
25
18
35
13
8
17
19
44
25
18
33
13
8
17
19
45
25
19
33
13
8
17
21
44
25
19
33
14
8
17
22
46
26
19
33
14
8
17
22
46
26
19
33
13
8
17
22
46
26
19
32
13
9
17
22
47
26
19
33
13
8
17
22
47
26
19
33
13
8
18
22
47
26
19
33
13
9
18
23
46
26
19
33
13
9
18
23
47
26
19
33
13
8
18
23
48
26
19
32
12
9
18
23
48
25
19
35
12
9
19
23
48
24
19
35
12
9
19
23
48
23
19
36
13
9
19
23
49
24
19
36
13
9
19
23
49
24
19
35
14
10
19
23
49
24
19
35
13
10
19
23
49
23
19
35
13
10
20
23
50
23
19
35
13
10
20
23
49
23
19
35
13
10
20
23
49
23
19
35
13
11
19
23
50
24
18
34
13
10
18
22
51
23
18
33
13
10
19
22
52
23
18
32
13
11
19
22
51
23
18
32
13
11
19
22
51
23
17
31
13
11
19
21
51
23
17
31
12
11
19
20
50
23
16
31
12
11
18
20
49
22
16
31
12
11
18
20
49
22
16
30
12
11
18
20
49
21
16
30
12
11
18
20
48
19
16
30
12
11
18
19
46
19
16
30
12
10
18
20
47
19
16
30
12
10
18
19
47
19
16
30
12
10
18
19
47
19
15
29
12
10
18
19
46
19
15
29
12
10
18
18
45
19
15
29
12
10
18
18
45
19
15
28
12
10
18
18
46
19
15
28
11
10
18
17
46
18
15
28
11
10
17
17
45
18
15
28
11
10
15
16
45
18
15
28
11
10
15
16
45
18
13
28
11
10
15
16
45
18
13
28
11
9
15
15
45
17
13
25
10
9
14
15
43
17
13
25
10
9
14
15
42
16
13
24
10
9
14
15
42
16
13
24
10
9
14
14
42
16
12
24
9
9
14
14
41
15
9
23
9
9
14
12
41
15
11
23
9
9
13
11
39
15
11
23
9
10
13
10
38
14
11
23
9
10
13
11
38
14
10
23
9
10
13
11
37
14
11
22
9
10
13
10
36
13
11
21
9
9
12
10
36
13
11
21
9
10
11
9
36
13
14
21
9
10
11
9
35
13
14
21
9
10
11
8
33
12
16
21
9
10
11
8
31
13
18
17
9
11
10
8
31
12
18
15
8
11
10
8
31
12
18
14
8
11
10
7
29
12
20
14
8
11
10
7
29
12
21
13
5
11
9
7
28
12
22
14
5
11
10
7
28
11
23
14
5
11
10
7
25
11
23
14
5
11
10
6
25
10
25
14
5
11
10
6
25
10
25
13
6
11
10
6
21
10
27
13
7
12
11
5
19
10
27
13
7
13
10
5
16
10
28
13
7
12
10
5
16
11
28
14
7
12
10
5
16
11
28
16
7
12
10
5
13
11
30
16
7
12
10
5
13
12
33
17
8
13
10
5
12
12
33
17
8
13
10
5
12
12
34
17
8
13
10
5
12
12
35
17
8
13
10
5
11
13
35
18
9
13
10
6
11
13
35
18
9
13
10
6
11
13
35
18
9
15
10
6
11
13
35
19
9
15
10
6
10
13
35
19
9
15
10
6
10
14
36
19
9
15
11
6
10
14
36
19
9
15
11
6
10
14
36
19
9
15
11
6
9
14
36
20
9
15
11
6
9
14
37
20
9
15
11
6
9
14
37
20
9
15
10
6
9
14
37
20
9
15
10
6
8
14
39
20
9
15
10
6
8
14
39
20
9
15
11
6
8
14
39
20
9
15
10
6
9
14
39
20
9
15
10
6
9
14
40
20
10
15
10
6
8
14
40
20
10
15
10
6
8
14
40
20
10
15
10
6
8
14
41
20
10
15
10
6
8
14
41
20
9
15
10
6
8
14
41
20
9
15
10
6
7
15
42
21
9
15
10
5
7
16
43
21
10
15
10
5
7
16
43
21
10
15
10
5
7
16
43
21
10
15
10
5
7
16
43
21
10
15
10
5
7
16
42
21
9
15
10
5
7
16
44
21
9
15
10
5
7
16
44
21
9
14
9
5
7
15
44
20
9
13
9
5
7
15
44
20
9
13
9
5
7
15
44
20
9
13
10
5
7
15
44
20
9
13
9
5
7
15
43
20
9
13
10
5
7
15
42
20
9
13
9
5
7
15
43
20
9
12
9
5
7
15
43
20
9
12
9
5
7
15
42
20
9
13
9
5
7
15
42
19
9
12
9
5
6
14
41
19
8
11
8
5
6
14
41
19
8
11
8
5
6
14
40
19
8
11
8
5
6
14
40
18
8
11
8
5
6
13
40
17
8
11
8
5
6
13
39
16
8
11
7
5
6
12
37
15
7
10
7
5
6
12
36
15
7
10
7
4
6
12
36
15
7
10
7
4
5
12
35
14
7
10
7
4
5
11
35
12
5
10
7
4
5
11
35
12
5
9
7
3
5
11
35
12
5
7
6
3
5
11
36
13
5
7
6
3
5
10
37
12
5
7
6
3
4
10
36
12
5
6
6
2
4
10
36
11
5
6
6
2
4
10
36
11
5
6
6
2
3
10
36
11
5
6
6
2
3
10
35
11
5
6
6
2
3
10
35
11
5
6
6
2
3
10
35
10
5
6
6
2
3
10
34
10
5
5
6
2
3
10
34
10
5
5
6
2
3
10
34
10
5
5
6
2
3
10
34
10
5
5
6
2
3
9
33
10
5
5
6
2
3
9
32
10
5
5
6
2
3
9
32
10
5
5
6
2
3
9
31
10
5
5
6
2
3
9
31
9
5
5
6
2
3
9
31
9
5
5
6
2
4
8
29
9
5
5
6
2
4
6
28
9
5
5
5
2
4
6
27
9
5
4
5
2
4
6
27
9
5
4
5
2
5
6
27
9
5
4
5
2
5
6
27
9
5
4
5
2
5
6
23
9
5
4
5
2
5
6
22
9
5
4
5
2
6
6
22
9
5
4
6
3
7
6
21
9
5
4
6
3
8
6
20
8
5
4
5
3
8
6
20
8
5
4
5
3
9
5
20
8
5
3
4
3
9
5
19
8
5
3
4
3
9
5
18
8
5
3
4
3
9
5
17
9
5
3
4
3
9
5
17
8
4
2
3
3
9
5
17
8
4
2
3
3
9
5
17
8
4
2
3
3
9
5
17
8
5
2
3
3
10
5
17
8
4
2
3
3
10
5
16
8
5
3
3
3
10
5
16
8
5
3
4
3
10
5
16
8
5
3
4
3
12
5
16
8
5
3
4
3
12
6
16
8
5
3
4
4
15
6
16
8
5
3
4
4
17
6
15
8
5
3
4
4
17
6
15
8
5
3
4
4
19
6
15
8
5
3
4
4
21
7
15
9
5
4
4
4
21
8
11
9
5
4
4
5
22
7
11
9
5
4
4
5
22
9
13
9
5
4
3
5
25
9
14
11
5
4
4
6
25
9
14
11
6
4
5
6
26
10
15
11
6
4
5
7
29
11
17
11
6
4
5
8
31
11
17
11
6
5
5
8
33
11
18
14
9
5
5
9
34
11
17
14
9
6
5
9
34
11
20
14
9
6
5
11
35
12
21
14
10
6
6
11
36
14
22
14
11
7
7
11
37
15
22
14
11
7
7
12
38
16
22
15
11
7
7
12
38
18
23
15
12
7
8
12
42
20
23
16
12
7
8
12
42
20
23
16
12
7
8
12
43
20
23
17
12
8
11
12
44
20
23
17
12
8
11
13
44
21
23
17
12
8
11
13
45
21
24
23
13
11
12
13
46
21
24
23
13
11
12
13
46
22
24
23
13
11
12
13
46
22
24
24
13
11
14
13
46
22
25
24
13
11
15
13
46
22
25
25
14
11
15
14
46
23
25
25
16
11
15
13
49
23
25
25
16
11
15
14
49
23
25
26
16
11
15
14
50
25
26
26
16
11
15
14
51
26
26
27
16
12
15
15
54
26
26
29
17
12
16
15
54
27
27
32
18
12
16
15
57
27
27
32
18
12
16
15
59
29
27
32
18
12
17
15
59
29
27
32
18
13
17
15
59
29
27
32
18
13
17
15
59
29
27
33
18
13
17
17
59
29
27
33
18
13
17
17
60
29
27
35
18
13
18
17
61
29
27
35
18
13
18
17
62
31
27
35
18
14
20
18
62
31
28
35
18
14
20
19
62
32
28
35
18
14
20
19
61
32
28
35
18
16
20
19
61
32
28
35
18
17
20
19
62
32
28
36
18
17
20
19
61
33
28
36
19
17
21
20
60
33
28
36
19
18
21
20
61
33
29
36
19
18
21
21
61
33
28
38
19
18
21
21
61
33
28
38
19
18
21
21
60
33
27
38
19
18
21
21
61
34
27
40
19
18
21
22
61
36
26
40
19
18
21
22
59
37
26
41
19
18
21
23
58
37
25
42
20
18
21
23
58
37
25
41
19
19
22
23
57
37
25
41
19
19
22
22
57
37
22
41
19
19
22
22
57
37
21
41
18
20
22
22
57
36
20
41
18
20
22
22
58
36
21
43
18
20
22
21
57
36
20
43
17
20
22
22
58
36
20
43
17
20
21
22
55
35
20
44
17
20
21
22
55
35
20
44
18
20
21
22
55
35
21
45
19
20
20
22
54
35
21
45
19
20
20
22
55
35
21
44
19
20
21
22
54
35
20
42
18
19
20
22
53
35
20
42
19
18
20
22
54
34
20
43
19
18
20
22
54
34
20
43
19
18
18
22
54
34
20
42
19
18
18
23
55
34
19
43
18
18
18
22
55
34
19
42
17
19
18
24
52
34
19
42
17
19
18
23
52
34
19
42
17
19
18
24
54
33
17
42
17
19
19
26
52
34
17
41
17
18
19
27
50
34
17
41
16
18
19
27
50
34
17
39
16
18
19
27
48
34
17
39
16
18
19
27
46
32
18
39
16
18
18
27
46
32
18
39
16
18
18
27
46
32
18
39
16
18
18
27
46
32
18
39
16
18
18
27
46
33
18
39
16
18
18
26
46
32
18
37
16
18
17
26
45
33
18
39
16
18
17
26
46
32
18
39
16
17
15
26
47
32
17
39
16
17
15
26
47
32
17
39
16
17
16
26
47
32
17
39
16
15
16
26
48
32
17
39
15
15
16
26
48
32
17
39
15
15
16
26
49
31
16
38
15
15
15
25
50
32
16
38
15
13
14
25
49
33
16
39
15
13
13
25
49
33
16
38
15
13
13
25
49
33
15
38
15
12
13
25
49
33
15
37
15
12
13
24
48
31
15
35
14
12
13
24
48
29
15
35
14
12
13
24
48
28
15
36
14
12
13
23
48
27
15
35
14
12
13
23
48
27
15
35
14
11
13
23
50
28
16
35
14
11
13
23
50
28
16
35
14
10
12
23
51
28
16
35
14
9
12
23
50
28
16
35
14
9
12
23
49
29
16
33
14
9
12
23
49
28
16
32
14
9
12
23
48
27
16
33
14
9
13
23
48
27
16
32
14
9
13
22
48
27
17
32
14
10
13
22
49
27
15
31
12
10
13
22
49
28
15
30
12
10
13
22
49
28
15
31
12
9
13
22
49
28
15
31
12
9
13
22
50
29
15
31
11
9
13
22
49
29
15
30
11
9
12
22
49
28
15
30
11
9
13
22
49
28
14
30
11
9
13
23
49
28
14
29
11
9
13
23
49
29
15
29
10
8
13
22
49
29
15
29
10
9
13
22
50
29
15
29
10
8
13
22
47
28
15
29
10
8
12
20
47
26
15
29
10
8
11
17
47
27
15
27
10
8
11
17
46
27
14
27
10
8
11
17
46
27
14
28
10
8
11
16
48
27
14
28
9
8
11
17
48
27
14
28
10
8
11
17
47
28
14
28
9
8
11
17
47
28
14
28
9
8
11
17
47
27
14
28
9
8
11
17
46
27
14
28
9
8
11
17
45
26
14
25
9
8
11
17
43
26
14
25
9
8
11
16
43
25
14
25
9
8
11
16
43
25
14
25
9
8
11
16
44
25
14
25
9
8
11
16
42
25
14
25
9
8
11
16
42
25
14
25
9
8
11
16
41
25
14
25
9
8
11
16
39
24
14
25
9
8
11
16
40
23
14
24
9
8
11
16
40
23
14
24
9
8
11
15
40
23
14
24
9
8
12
15
40
23
14
23
9
8
12
15
40
22
14
23
9
8
12
15
40
23
14
23
9
8
12
15
39
23
14
21
9
8
12
15
39
23
14
21
8
8
12
15
39
23
14
20
8
8
12
15
37
22
14
20
8
8
12
14
36
22
14
19
8
8
12
14
38
22
13
20
8
8
12
14
38
22
13
20
8
8
12
14
38
21
13
20
7
8
12
14
38
22
13
20
7
8
12
14
40
22
13
20
7
8
11
15
40
22
13
20
7
7
11
15
40
22
12
20
6
7
11
15
40
22
12
20
6
6
10
15
41
21
12
20
7
6
10
15
39
21
12
19
7
6
10
15
40
22
13
19
7
6
10
15
38
21
13
19
7
6
10
15
38
21
13
19
7
6
10
15
38
21
13
19
7
6
10
13
39
21
13
19
7
6
9
13
38
21
13
19
7
6
9
12
38
21
12
19
7
7
9
12
37
21
12
19
7
7
9
12
37
21
12
19
7
6
9
12
37
21
12
19
7
6
9
12
37
21
12
19
7
6
9
12
39
20
11
19
7
6
9
12
39
20
11
19
7
6
9
12
39
19
11
18
7
6
9
12
40
19
11
18
7
6
9
11
39
18
10
17
7
6
9
11
40
18
10
17
7
6
8
11
40
18
9
17
7
6
9
11
40
18
9
17
6
6
9
11
40
18
9
17
6
6
9
11
40
18
9
17
6
6
9
10
40
18
9
17
7
6
10
10
39
18
9
17
7
6
10
10
39
18
9
17
7
6
10
10
39
18
9
17
6
7
10
10
39
18
10
17
7
7
10
10
40
17
10
17
7
7
10
10
40
17
10
17
7
7
10
10
40
18
10
17
7
8
10
10
40
17
10
17
7
8
10
10
40
17
10
17
7
8
10
10
40
17
10
17
7
7
10
10
40
17
10
17
7
7
10
10
39
17
10
17
7
7
10
10
40
17
10
17
7
7
10
10
40
17
10
17
7
7
10
10
40
17
10
16
7
7
9
10
40
16
10
16
7
8
10
10
40
15
10
16
7
8
9
10
40
16
10
16
7
8
10
11
37
15
10
15
7
8
10
11
36
15
10
15
7
8
10
11
36
15
10
16
7
8
10
11
36
15
10
16
7
8
10
11
34
15
9
15
7
8
11
10
34
15
9
14
7
8
11
10
35
15
9
14
7
8
11
10
35
15
9
14
7
8
11
10
34
15
9
13
7
8
11
10
34
14
9
14
6
8
11
10
34
13
9
14
6
8
12
10
34
13
9
14
6
8
12
10
34
13
9
14
7
8
12
10
34
14
9
14
7
8
12
10
34
13
9
14
7
8
12
10
34
13
9
14
7
8
12
11
34
13
9
14
7
8
12
10
34
13
10
14
7
8
12
11
34
13
10
14
7
8
12
11
35
13
10
14
7
8
12
11
36
13
10
14
7
8
12
11
34
13
10
14
8
8
12
11
34
13
10
14
8
8
12
11
34
13
10
14
8
8
12
11
33
13
10
14
8
8
13
11
33
14
10
15
9
8
13
10
33
14
10
15
9
8
13
10
36
14
10
15
9
8
13
10
36
15
10
15
9
8
13
11
35
14
10
15
9
8
13
11
35
14
10
16
9
8
12
11
35
14
10
16
9
8
12
11
36
14
10
16
9
8
12
11
37
13
10
16
9
8
12
11
36
13
10
16
9
7
12
11
36
14
10
16
9
7
12
11
35
14
10
16
9
7
12
11
35
15
10
16
9
7
12
11
34
14
9
15
9
7
12
11
34
14
9
15
9
7
12
11
34
14
9
15
9
7
12
11
35
14
10
18
8
6
11
11
34
14
10
18
9
6
11
11
34
14
10
19
9
6
11
11
34
14
9
19
9
6
11
11
34
15
10
19
9
6
11
11
34
15
10
19
9
6
11
11
35
14
10
19
9
6
11
11
35
14
10
18
9
6
11
11
35
14
10
19
9
6
10
10
35
14
10
19
9
6
10
10
35
14
10
19
9
6
10
10
35
15
10
18
9
6
10
10
35
14
10
18
9
6
10
10
35
14
10
18
9
6
10
9
35
14
10
18
9
5
10
9
33
14
10
18
9
5
9
9
33
14
10
18
9
5
9
9
32
14
10
18
9
5
9
9
32
14
10
18
9
6
9
9
32
14
10
18
9
6
8
9
32
14
10
18
9
6
8
9
31
14
10
18
8
5
8
9
31
13
10
17
8
5
8
9
30
13
10
17
8
5
8
8
30
13
9
17
8
5
8
8
30
12
9
17
8
5
8
8
30
12
9
17
8
5
8
7
30
12
8
17
8
5
8
7
29
12
8
16
8
5
7
7
26
12
8
16
8
5
7
7
26
12
8
16
7
5
7
7
26
12
8
16
7
5
7
6
25
12
8
16
7
5
7
6
23
12
8
16
7
5
6
6
23
11
8
16
6
5
6
6
23
11
8
15
6
5
6
6
18
10
8
15
6
5
6
6
18
10
8
16
6
5
5
6
18
9
8
15
6
5
5
6
17
9
8
14
6
5
5
5
17
9
8
14
6
5
5
5
15
9
10
14
6
5
5
5
14
9
10
14
6
5
5
5
14
9
11
14
5
5
5
5
13
9
12
14
5
5
5
5
13
8
12
14
5
5
5
5
13
7
12
14
5
6
5
4
13
7
12
14
5
6
5
4
13
7
12
14
5
6
5
4
13
7
12
14
5
7
4
4
12
7
12
9
5
7
5
4
12
7
12
9
4
7
6
3
12
7
12
9
4
7
7
3
12
7
13
8
4
7
8
3
12
7
14
8
4
7
8
3
12
7
17
9
4
7
8
3
7
7
20
10
4
7
9
3
6
6
20
10
4
7
9
3
6
6
21
8
4
7
9
3
5
6
22
8
4
7
9
3
5
7
23
8
4
8
9
3
5
6
23
8
4
8
9
3
6
6
25
9
5
8
9
3
6
8
26
10
5
8
10
3
6
8
27
12
5
8
10
3
6
8
27
11
5
9
10
3
6
8
27
12
4
9
10
3
6
9
28
12
5
9
10
3
6
9
28
12
4
9
10
3
6
9
28
12
5
9
11
4
6
9
28
12
5
9
11
5
6
9
29
12
5
9
11
5
6
9
30
13
5
9
11
5
6
9
31
15
5
9
11
5
7
9
31
15
5
9
12
5
7
10
32
16
6
9
12
5
7
10
32
16
6
9
12
5
7
10
32
16
6
9
12
5
7
10
32
16
5
9
12
5
7
10
33
16
6
9
12
5
7
10
34
17
6
9
12
5
7
10
34
17
6
10
12
5
7
10
34
17
6
10
12
5
7
10
34
17
6
10
12
5
7
10
35
17
6
10
12
5
7
11
35
17
6
10
12
5
7
11
36
17
6
10
12
5
7
11
37
18
6
10
12
5
7
11
37
18
6
10
12
5
7
11
37
19
6
10
12
5
7
11
37
19
6
10
12
5
8
11
37
19
6
10
12
5
8
11
37
19
6
10
12
5
8
11
37
19
6
10
12
5
8
11
37
19
6
10
12
5
8
11
37
19
6
10
12
5
8
11
38
19
6
9
12
5
8
11
38
19
6
9
12
5
8
11
38
19
6
9
12
5
7
11
38
19
6
9
13
5
7
11
38
19
6
9
12
5
7
11
38
19
6
9
12
5
7
11
39
19
6
9
11
5
7
11
39
19
6
9
10
5
7
11
39
19
7
9
10
5
7
11
38
19
6
9
10
5
7
11
37
18
6
9
10
5
7
11
37
19
6
9
10
5
7
11
36
19
6
9
10
5
7
11
36
19
6
9
10
5
7
11
35
19
6
9
10
5
7
11
35
19
6
8
10
5
6
11
34
19
6
8
9
5
6
9
33
18
6
8
9
5
6
9
32
17
6
8
9
5
6
9
32
17
6
8
9
5
6
9
32
17
6
8
9
5
6
9
32
17
6
7
9
5
6
9
32
17
6
7
8
5
5
9
31
17
6
7
8
4
5
8
32
16
5
7
7
3
5
8
31
16
5
7
7
3
5
8
30
16
5
7
7
3
5
8
29
14
5
7
7
2
4
8
29
14
5
7
6
2
5
8
29
13
5
7
6
2
5
8
28
13
5
7
6
2
4
8
28
13
5
7
6
2
4
8
28
13
5
7
6
2
4
8
26
12
5
7
6
2
4
7
26
12
5
7
6
2
4
7
26
12
5
7
5
2
4
7
26
12
5
6
5
2
4
7
26
11
4
5
5
2
4
7
25
11
4
5
5
2
4
7
25
11
4
6
5
2
4
6
23
11
4
6
4
2
4
6
22
10
4
5
4
2
3
6
22
9
4
5
4
2
3
6
22
9
4
5
4
2
3
6
22
9
4
5
4
2
3
6
21
9
4
5
4
2
3
6
21
9
4
5
4
2
3
6
21
8
4
5
4
2
3
6
20
8
4
5
4
2
3
5
20
8
4
5
4
2
3
5
18
8
4
5
4
2
3
5
18
8
4
5
4
2
3
5
18
8
4
5
4
2
4
5
19
8
4
4
3
2
5
5
18
8
4
4
3
2
6
5
18
8
4
4
3
2
6
5
16
8
4
4
3
2
6
4
16
8
4
4
3
2
6
4
14
8
4
4
2
2
6
4
13
8
4
4
2
2
7
4
13
8
4
4
2
2
7
4
12
8
4
3
2
1
8
4
12
8
4
3
2
2
8
4
12
8
4
3
2
2
9
4
12
8
4
3
2
2
12
4
12
8
4
3
2
3
13
5
13
8
4
3
2
3
13
5
13
8
4
3
2
3
15
5
13
8
4
3
2
3
15
5
13
8
4
3
2
3
17
5
12
8
4
3
2
3
18
5
12
8
4
3
2
3
18
5
12
8
4
3
2
3
18
5
12
8
4
3
2
4
19
6
11
8
4
3
2
4
19
6
11
8
4
3
2
4
20
6
11
8
4
3
2
4
21
6
11
8
4
3
2
4
21
6
10
8
4
3
2
4
22
6
10
8
4
3
2
4
24
6
11
9
4
2
2
4
24
6
11
9
4
2
2
5
25
6
11
9
4
3
2
5
27
6
11
9
4
3
2
5
29
8
11
9
4
3
2
6
32
8
11
9
4
3
3
6
32
10
11
9
4
3
3
6
32
10
11
9
5
4
4
7
33
11
11
10
6
4
4
8
34
11
10
10
6
4
4
8
35
11
10
10
5
4
4
8
35
11
11
11
5
4
4
8
36
11
11
11
5
4
4
8
36
11
11
16
6
4
4
8
36
11
12
19
6
4
4
8
38
12
12
19
6
4
4
8
38
12
12
21
7
4
5
9
39
12
12
22
7
5
5
9
39
13
12
22
7
5
5
9
42
14
12
22
8
5
5
10
43
14
12
22
8
5
5
10
45
14
12
22
8
5
5
10
47
15
13
24
9
5
6
10
50
16
12
24
9
5
6
10
51
17
13
24
9
5
6
11
51
17
14
24
9
5
6
11
53
17
14
24
9
5
6
11
53
17
14
24
9
5
6
11
55
18
14
25
9
5
6
11
57
19
14
25
9
5
6
11
57
21
14
25
10
6
6
12
57
21
16
26
10
6
6
12
57
22
16
26
10
6
6
12
57
23
16
26
10
6
7
13
58
23
16
28
10
6
8
16
57
23
16
29
11
6
8
16
59
23
17
29
11
7
8
16
60
23
17
29
11
7
8
16
62
23
17
29
11
7
8
16
64
23
17
29
11
8
9
16
64
24
17
29
11
8
9
16
64
25
18
29
11
8
9
16
65
24
18
29
11
8
9
17
65
24
18
29
12
8
9
17
66
25
20
29
12
8
9
17
67
25
20
30
13
8
9
18
67
25
20
32
13
8
10
19
69
28
20
32
13
9
10
20
69
29
20
32
13
9
10
20
70
30
20
32
13
10
10
20
70
30
20
32
13
10
10
21
70
30
20
32
13
10
11
21
70
31
20
32
13
10
11
21
70
31
20
32
13
10
11
21
69
31
20
32
13
10
11
21
68
32
20
32
13
10
11
21
68
32
20
34
13
10
11
21
68
33
20
36
13
10
11
21
68
33
20
36
13
10
11
21
70
33
20
37
13
10
11
21
70
34
20
38
13
10
11
21
69
35
20
38
13
10
11
21
69
35
20
38
13
10
11
21
69
35
20
36
13
10
11
21
71
35
19
35
13
10
11
22
71
35
19
35
13
10
11
23
73
35
19
35
12
10
11
23
73
35
19
35
12
10
11
22
74
35
19
35
12
10
11
22
73
35
19
35
12
9
11
23
73
35
19
35
12
9
11
23
71
35
19
35
12
9
11
23
70
36
19
34
11
9
11
23
69
36
19
34
11
9
11
23
68
35
19
34
11
10
11
23
68
36
18
35
11
10
12
23
67
36
18
35
12
10
12
23
67
36
19
35
12
10
11
23
65
36
19
35
12
10
11
22
63
36
19
35
12
10
11
22
64
36
18
35
11
9
11
22
65
36
17
34
11
9
11
22
66
35
17
34
11
9
11
22
67
35
17
34
12
10
11
22
66
35
17
33
11
10
10
20
67
35
17
32
11
10
11
20
66
35
16
32
11
9
10
20
65
36
16
32
11
10
10
20
63
36
16
32
11
10
11
21
61
36
16
32
11
9
11
21
61
35
16
33
11
9
11
21
61
37
15
33
11
9
11
21
61
37
15
33
11
9
11
21
61
37
15
35
11
9
11
21
60
38
13
35
10
9
11
21
59
38
13
35
10
9
10
20
59
38
13
33
9
9
10
19
57
36
12
33
10
9
9
18
57
34
12
33
9
8
9
18
57
35
12
33
9
7
9
18
56
34
12
33
9
7
9
18
57
34
12
33
9
7
9
18
57
34
12
33
9
7
8
18
57
34
12
33
9
7
8
18
56
34
12
33
10
8
8
18
56
33
12
33
10
8
8
18
56
33
12
31
10
8
8
18
56
32
12
29
10
8
8
18
56
32
13
29
10
8
9
18
54
32
13
28
9
8
9
18
54
31
13
27
9
8
9
19
55
31
13
27
9
8
9
19
55
31
13
27
10
8
9
19
55
31
14
27
10
8
9
19
53
31
14
26
10
8
9
18
51
31
13
26
10
8
8
17
53
31
13
25
10
8
8
17
52
32
14
25
10
8
9
18
52
32
14
25
10
9
9
18
51
32
14
25
10
9
9
17
52
32
14
24
10
9
9
18
53
32
14
24
10
9
9
18
54
31
14
26
10
10
9
18
54
31
14
26
10
10
9
18
54
31
13
25
10
10
9
18
55
30
13
24
10
10
9
18
56
31
13
23
9
10
9
19
57
31
13
23
9
10
9
20
58
31
13
24
9
10
9
20
59
30
13
24
9
10
9
20
59
29
13
24
10
10
9
20
58
29
13
23
10
10
9
19
58
29
13
23
10
10
9
19
58
29
13
23
9
10
9
19
58
29
13
23
9
10
9
19
57
28
13
24
9
10
9
19
58
28
13
23
9
10
9
19
57
28
13
23
9
9
9
19
57
28
13
23
9
9
9
18
57
28
13
23
9
9
8
17
59
27
13
24
9
9
9
18
59
27
13
25
10
9
9
18
59
27
13
24
10
9
9
18
58
27
13
22
10
9
9
18
57
26
13
22
10
9
9
18
57
25
13
22
10
9
9
18
57
25
13
21
10
10
9
18
57
25
13
21
9
10
9
18
57
25
13
21
10
10
9
18
56
25
13
22
10
10
9
18
56
25
13
22
10
10
9
18
56
25
13
22
10
10
9
17
58
26
13
22
10
9
9
17
58
25
13
22
10
9
9
17
58
25
13
22
10
9
9
17
59
25
13
22
10
9
9
17
60
24
13
22
10
9
10
18
60
24
13
21
10
9
9
18
60
24
12
21
10
9
9
18
60
25
13
21
10
9
9
18
60
24
13
22
10
9
9
17
60
24
13
22
11
9
9
17
60
24
13
22
10
9
9
17
60
24
12
23
10
9
9
17
60
24
12
23
10
9
9
17
60
25
12
23
10
9
9
17
57
26
12
24
10
9
9
17
56
25
12
24
10
9
9
16
56
24
12
24
10
9
9
16
56
24
13
24
10
9
9
16
55
24
13
24
10
9
9
15
55
24
12
24
10
8
9
15
53
23
12
23
10
7
9
15
52
23
12
23
10
7
8
15
53
23
12
24
10
7
9
15
53
23
12
24
10
6
9
15
52
23
12
24
10
6
9
14
51
23
12
24
10
6
9
13
50
23
12
23
10
7
9
14
50
23
12
24
10
6
9
14
50
23
12
24
10
6
9
14
49
23
12
24
10
6
10
14
48
22
12
24
10
6
10
15
48
22
12
24
10
7
10
15
48
22
12
24
10
7
10
15
47
22
12
24
10
7
10
15
47
22
12
23
10
7
10
15
47
22
12
24
10
7
10
15
48
22
12
24
10
7
10
15
48
22
12
24
10
7
10
15
45
22
12
22
10
7
10
14
46
20
12
23
10
7
11
14
46
20
12
22
10
7
10
14
46
20
12
22
9
6
11
14
46
20
12
22
9
7
11
14
48
20
12
22
8
7
11
14
48
20
12
22
9
7
11
14
48
20
12
22
9
7
11
14
48
20
11
22
8
7
11
14
49
19
12
23
8
7
11
14
49
19
12
23
8
7
11
14
47
19
12
23
8
7
11
14
45
19
12
23
8
7
11
14
45
19
12
23
8
7
11
14
45
20
12
23
8
7
12
14
44
20
12
24
8
6
11
14
44
20
12
24
8
6
11
13
46
20
12
24
8
6
11
13
46
20
11
23
8
6
11
13
44
20
11
23
7
6
11
12
44
20
11
22
7
6
11
12
43
20
11
22
7
6
11
12
46
20
11
22
7
6
11
13
46
20
11
22
8
6
11
13
46
19
12
22
7
6
11
13
46
17
12
22
7
6
11
13
45
16
12
21
7
6
11
13
46
16
12
22
8
6
11
13
46
17
12
24
9
7
11
13
46
17
11
24
9
7
10
13
45
17
11
24
9
7
10
13
46
16
12
24
9
6
10
13
46
16
12
23
9
6
10
13
46
16
12
23
9
6
10
13
46
17
12
23
9
7
10
13
47
17
11
23
9
7
10
13
46
17
11
24
9
7
10
13
46
17
11
24
9
7
10
13
47
18
12
24
9
7
10
12
47
18
12
24
9
7
10
12
47
18
11
24
9
7
9
12
47
18
11
24
9
7
9
12
47
18
11
24
9
7
9
12
46
19
11
24
9
7
9
12
46
19
11
24
9
7
9
12
45
20
11
24
9
7
9
12
46
20
11
24
9
7
9
12
45
20
11
24
9
7
9
12
44
19
11
24
9
7
9
12
44
19
11
24
9
7
9
11
47
19
10
24
9
7
8
11
47
19
10
23
9
6
8
11
47
19
10
23
9
6
8
11
46
19
10
23
9
6
8
11
46
19
10
23
9
6
7
11
45
19
10
23
9
6
7
11
44
19
10
23
9
6
7
11
44
19
10
22
9
6
7
11
44
19
10
22
9
6
8
11
43
19
10
21
8
6
7
11
43
19
10
21
8
6
7
11
43
18
10
21
8
6
8
10
43
18
9
21
8
6
7
10
43
18
9
21
8
6
7
10
42
16
9
21
8
6
6
10
41
16
9
20
8
6
6
10
40
16
9
20
8
6
6
10
38
16
9
20
8
6
6
10
38
16
9
20
8
6
6
10
38
16
9
20
8
5
7
9
38
16
9
20
8
5
6
9
37
15
9
20
8
5
6
9
34
15
8
20
8
5
6
8
34
15
8
18
7
5
6
7
34
15
7
18
7
5
7
7
33
15
7
18
7
5
7
7
33
15
7
18
7
6
7
7
33
15
7
17
6
6
7
7
33
15
7
14
4
8
7
7
33
14
6
13
4
8
7
6
33
14
7
13
4
8
6
6
31
14
8
13
4
8
6
6
31
14
8
13
4
8
6
6
30
14
9
13
4
8
6
6
29
13
9
13
4
8
6
6
27
13
9
13
4
8
6
6
26
12
9
11
4
9
6
6
26
12
9
10
4
11
6
6
22
12
10
9
4
11
6
5
22
11
10
8
4
11
6
5
21
11
11
8
4
11
6
5
21
11
11
8
3
11
6
4
21
10
13
7
3
11
6
4
20
9
13
7
3
11
6
4
19
8
13
7
3
11
6
4
19
7
13
7
3
11
6
4
19
7
13
7
3
11
7
4
19
8
13
7
3
11
7
5
18
8
13
7
3
12
7
4
18
8
13
7
3
12
9
4
9
8
14
7
3
12
9
4
8
9
16
7
3
12
9
4
8
9
16
8
4
13
9
4
7
9
16
8
4
13
9
4
6
9
17
8
4
13
9
4
6
9
18
8
4
13
9
4
6
9
19
8
4
13
10
4
6
9
19
9
4
13
10
4
6
9
23
8
4
13
10
4
6
9
23
8
4
13
10
4
6
9
24
9
4
13
10
4
5
9
24
9
5
13
10
4
5
9
27
9
5
13
10
4
5
10
27
9
5
14
10
4
5
10
30
11
5
14
10
4
5
10
30
11
5
14
10
4
5
10
31
11
5
14
10
4
5
10
31
11
5
14
10
4
5
10
32
11
5
14
10
4
5
10
32
12
6
14
10
4
4
10
33
12
6
14
10
4
4
10
33
12
6
14
10
5
4
11
34
12
6
14
10
5
4
11
35
13
6
14
10
5
4
11
36
13
6
14
10
5
4
11
36
13
6
14
10
5
4
11
36
13
6
14
10
5
4
11
36
13
6
14
10
5
4
11
36
13
6
12
10
5
4
11
36
13
6
12
10
5
4
11
36
13
6
12
10
5
4
11
36
13
6
13
10
5
4
11
36
13
6
13
10
5
4
11
37
13
6
13
10
5
4
11
37
13
6
13
10
5
4
11
37
14
6
13
10
5
4
11
37
14
6
12
10
5
4
11
38
14
6
10
10
5
4
11
38
14
6
10
10
5
4
11
37
13
6
10
10
5
4
11
37
14
6
10
10
4
4
11
37
14
6
9
10
4
4
11
37
14
6
10
10
4
4
11
37
14
6
9
10
4
4
11
37
14
6
9
10
4
4
11
37
14
6
9
10
4
4
11
38
14
7
9
10
4
4
10
38
14
7
9
10
4
4
10
38
14
6
9
10
4
4
10
38
14
6
8
8
4
4
10
38
15
6
8
8
4
4
9
37
14
6
8
8
4
4
9
37
14
6
8
8
4
4
9
37
14
6
7
7
4
4
9
37
14
6
7
7
4
4
9
37
14
6
7
7
3
4
9
36
14
6
7
6
3
4
9
36
13
6
7
6
3
4
9
34
14
6
7
6
3
4
8
34
14
6
6
6
3
4
8
33
13
6
6
6
3
4
8
33
13
6
6
6
3
4
8
31
13
6
6
6
3
4
8
31
13
6
6
6
3
4
8
28
11
5
5
6
3
4
8
28
11
5
6
6
3
3
8
27
11
5
5
6
3
3
7
27
11
5
5
6
3
3
7
27
11
5
6
6
3
3
7
27
11
5
6
6
3
3
7
25
11
5
6
6
3
3
6
25
11
5
6
6
2
3
6
25
10
5
6
5
2
3
5
23
9
4
5
5
2
3
5
22
9
4
5
5
2
3
4
21
9
4
5
5
2
3
4
21
9
4
5
5
2
3
4
22
9
4
4
5
2
3
4
22
9
4
4
5
2
3
4
22
9
4
4
5
2
3
4
22
9
4
4
4
2
3
4
22
9
4
4
4
2
3
4
22
9
5
4
4
2
3
4
20
9
5
4
4
2
3
4
20
9
5
4
4
1
2
4
19
9
5
4
4
1
3
4
19
9
5
4
4
1
4
4
19
9
5
4
4
1
3
4
19
9
5
4
4
1
4
4
19
9
5
4
4
1
4
4
19
9
5
4
4
2
4
4
18
8
5
4
4
2
4
4
18
8
4
4
3
2
4
4
18
8
4
4
3
2
5
4
18
8
4
4
3
2
5
4
18
8
4
4
3
2
6
4
16
7
4
4
3
2
6
4
16
7
4
4
3
2
6
4
16
7
4
3
3
2
6
4
16
7
4
3
3
2
6
4
15
7
4
3
3
2
7
4
15
7
4
3
3
2
7
4
15
7
4
3
3
2
8
4
15
7
4
3
3
2
8
4
15
7
4
3
3
2
8
3
14
7
4
3
3
2
8
3
14
7
4
3
3
2
8
4
14
7
4
3
3
2
9
3
14
7
4
3
2
2
9
3
14
7
4
3
2
2
9
3
14
7
4
3
2
2
9
4
14
7
4
3
3
2
10
4
14
7
4
3
3
2
10
4
13
7
4
3
3
2
11
4
13
7
4
3
3
2
11
4
13
7
3
2
2
2
11
3
13
7
3
2
2
2
11
3
13
7
3
2
2
2
11
4
14
7
3
2
3
3
12
4
14
7
3
2
3
3
14
4
14
7
3
2
3
3
17
4
14
7
3
2
3
3
17
4
14
7
3
2
3
3
18
4
14
7
3
2
3
3
18
4
14
7
3
2
3
3
18
4
14
7
3
2
3
3
20
4
14
7
3
2
3
4
21
4
13
8
5
2
3
4
21
5
11
9
5
3
3
5
21
5
11
9
4
3
3
5
21
5
11
9
4
3
3
5
26
5
11
9
5
3
4
5
31
5
11
9
5
3
4
5
33
6
12
9
5
3
4
6
35
6
12
9
5
3
4
6
35
6
12
8
5
3
4
6
35
6
12
9
6
3
4
6
38
6
12
9
6
4
4
6
41
7
12
9
6
4
4
6
42
7
12
9
7
4
4
7
42
7
13
12
8
5
5
8
42
7
13
12
8
5
5
8
44
7
13
12
8
5
5
8
44
7
13
13
9
5
5
8
45
8
14
13
9
5
5
8
45
10
17
13
9
5
5
9
45
10
17
13
9
5
6
10
45
10
17
13
9
5
6
10
47
10
17
13
9
5
6
11
48
11
17
15
9
5
7
11
48
11
17
18
9
5
7
11
48
11
17
18
9
6
7
11
49
11
17
18
9
6
7
11
49
12
18
20
9
6
7
11
51
13
18
20
9
6
7
12
52
13
18
20
9
6
7
12
54
14
18
21
9
6
7
12
55
14
19
21
10
6
7
12
55
15
19
21
10
6
8
14
56
15
19
21
10
6
8
14
57
15
19
21
10
7
8
14
57
15
19
22
10
7
8
14
57
16
19
23
10
7
9
14
58
16
19
23
10
7
9
14
58
16
19
23
10
7
9
15
60
16
19
23
10
7
9
15
62
16
19
23
10
8
9
16
62
16
19
23
10
8
9
16
63
16
18
24
10
8
9
16
63
17
18
24
11
8
9
16
63
17
18
25
11
8
9
16
64
17
18
25
11
9
9
16
64
17
19
26
12
9
9
16
65
18
19
27
12
9
9
16
65
17
20
29
12
9
9
17
65
18
20
29
12
9
9
17
65
18
20
29
12
9
9
16
65
18
20
29
12
9
9
16
65
18
20
29
12
9
10
17
65
18
20
29
12
9
10
17
65
18
21
30
12
9
10
17
63
18
21
30
12
9
10
17
61
18
21
30
12
10
10
17
61
18
21
30
12
10
10
18
60
18
21
30
13
10
10
18
60
18
20
30
12
10
10
18
60
18
20
30
12
10
10
18
59
18
21
30
12
10
10
18
57
19
21
30
12
10
10
18
56
19
22
31
12
10
10
18
56
19
22
31
11
9
10
17
56
19
22
30
11
9
10
17
55
19
23
31
11
9
10
17
57
19
23
31
11
9
10
18
56
19
23
31
11
9
10
18
56
18
21
31
12
10
11
17
56
18
21
31
12
10
11
17
56
18
20
31
12
10
11
17
55
18
20
31
12
10
11
16
55
19
20
31
12
10
11
16
55
19
21
29
12
10
11
16
55
19
21
29
11
10
11
16
55
19
21
29
11
9
11
17
57
19
20
28
11
9
11
17
56
19
21
29
11
10
11
17
55
19
20
29
12
10
11
17
54
18
20
28
12
10
11
17
55
18
20
29
12
10
11
17
55
18
20
28
12
10
11
16
54
18
22
28
12
10
11
16
52
17
22
28
12
10
11
16
53
17
21
29
12
10
10
16
55
17
21
28
12
10
10
17
55
17
21
29
12
9
10
16
55
17
21
29
12
9
10
16
55
17
21
28
12
9
10
16
53
16
21
28
12
9
10
15
54
16
21
29
12
9
10
15
53
16
21
29
12
8
10
15
53
16
21
29
12
8
10
15
52
15
21
28
11
8
10
15
51
15
21
28
11
8
10
15
50
15
21
27
11
8
10
15
49
15
20
26
11
8
10
15
49
15
20
24
10
8
10
15
49
15
20
25
10
8
10
15
50
15
20
25
10
8
10
15
50
15
20
25
10
8
10
15
50
15
20
25
10
8
10
15
50
14
20
25
10
8
10
14
50
14
19
25
10
8
10
14
50
14
20
26
10
8
11
15
50
14
20
26
10
7
11
15
49
14
19
26
10
7
11
14
49
14
19
25
10
7
11
14
49
15
20
25
10
7
11
14
50
15
20
25
10
6
11
14
50
14
19
25
10
6
11
14
49
14
19
25
10
7
11
14
49
14
18
24
10
7
11
14
49
14
18
24
10
7
11
14
50
14
19
24
10
7
11
14
50
14
18
24
10
7
11
14
48
14
19
23
9
7
11
14
48
14
19
24
10
7
10
14
48
13
18
24
10
6
9
14
49
13
18
23
10
6
9
14
50
13
19
23
10
6
9
14
49
13
19
23
10
6
9
14
49
12
19
23
10
6
9
14
49
12
19
23
10
6
9
14
49
12
19
23
10
6
9
14
49
11
19
23
10
6
9
14
47
11
19
23
10
6
9
13
46
10
19
22
9
6
9
12
46
10
19
22
9
6
9
12
45
10
19
23
9
6
9
13
45
10
19
22
9
6
9
12
44
10
19
22
9
6
9
13
44
10
17
23
9
6
9
13
44
10
17
23
9
6
9
13
43
10
17
21
9
6
9
13
41
10
17
22
9
6
9
12
41
10
17
22
9
6
9
13
41
10
17
22
9
6
9
13
39
10
17
22
9
6
9
13
38
10
17
22
9
6
9
13
38
10
18
22
9
6
9
13
39
10
18
22
9
6
9
13
39
10
18
22
9
6
9
13
40
11
18
22
9
6
9
13
39
11
17
22
9
6
9
13
40
11
17
22
9
6
9
14
40
11
17
23
9
6
9
14
40
11
17
23
9
6
8
14
40
11
17
21
9
6
8
14
38
11
17
22
9
6
8
14
39
11
17
21
9
6
8
14
40
11
17
22
9
6
8
14
40
11
17
24
9
6
8
14
40
11
17
24
9
6
8
14
41
11
17
23
9
6
6
13
41
11
18
24
9
6
6
13
41
11
17
24
9
6
6
13
41
11
18
24
9
6
6
13
41
11
18
25
9
6
6
13
40
11
18
25
9
6
6
13
41
11
19
25
9
6
6
13
41
11
19
25
9
5
6
13
41
11
18
25
9
6
6
13
42
11
18
24
8
5
6
13
44
12
17
25
8
6
6
14
45
12
16
25
8
6
6
14
45
12
16
25
8
6
6
14
45
12
16
24
8
5
6
14
44
12
16
24
8
5
6
14
44
12
16
25
8
5
6
14
43
12
15
25
8
5
6
14
43
12
15
25
8
6
6
14
43
12
15
25
8
5
6
14
43
12
15
25
8
5
6
14
44
13
15
25
8
6
6
14
43
13
15
25
8
5
6
14
43
13
15
25
8
5
6
14
43
13
15
27
8
5
6
14
43
13
15
27
8
5
6
14
42
13
15
27
8
5
6
14
42
13
15
27
8
5
6
14
42
13
15
27
8
5
6
14
42
12
15
27
9
5
6
13
43
12
15
27
9
5
6
13
43
12
15
27
9
5
6
13
44
12
14
26
9
6
6
13
43
13
15
26
9
6
6
13
43
13
15
26
8
6
6
13
43
13
15
27
8
6
6
13
43
13
15
27
8
6
6
13
42
13
15
26
7
6
6
13
41
13
14
27
7
6
6
13
42
13
14
27
7
6
6
13
44
12
14
28
8
6
6
14
44
12
14
27
7
6
6
14
44
12
14
28
7
6
7
14
44
12
14
28
8
6
7
14
44
12
15
29
8
7
7
14
45
11
15
29
8
7
7
14
45
12
15
29
8
7
7
14
46
12
15
29
8
7
7
13
44
13
15
27
8
7
7
13
45
13
15
26
8
7
7
13
45
13
15
26
8
7
7
13
44
13
15
26
8
8
7
13
44
14
15
25
8
9
7
13
45
14
15
26
8
9
7
13
45
14
14
25
8
9
7
13
45
14
14
25
8
9
7
13
45
13
14
25
8
9
8
14
46
13
13
25
8
9
8
14
49
13
13
25
8
9
8
14
48
13
14
26
8
10
8
14
48
13
13
26
8
10
8
13
44
13
13
25
8
10
8
13
44
14
13
25
8
10
8
12
43
15
13
25
8
10
8
13
43
17
13
25
8
10
8
13
43
17
13
25
8
10
8
13
43
17
14
24
8
10
8
13
44
17
14
25
8
11
8
12
44
17
14
25
8
11
8
12
44
18
14
25
8
12
10
12
43
19
14
25
8
12
10
12
43
18
14
25
8
12
10
12
43
19
14
25
8
12
10
12
42
19
14
24
8
12
10
13
43
19
14
23
7
12
10
13
44
19
14
23
7
12
10
13
44
19
13
25
8
12
11
13
45
20
13
25
7
12
11
13
45
20
13
24
8
12
11
13
45
20
13
25
8
12
11
13
44
20
13
25
8
12
11
13
45
21
13
26
9
12
11
13
44
21
14
26
9
12
11
13
45
20
14
26
9
12
12
13
45
21
14
26
9
12
12
13
45
21
15
25
9
12
12
13
45
22
15
25
9
12
12
13
45
22
15
26
9
13
12
13
47
22
16
27
9
13
12
13
46
22
16
28
9
13
12
13
43
22
17
28
9
13
12
12
43
22
16
28
9
13
12
12
43
22
16
28
9
13
12
12
44
22
16
27
9
13
12
12
44
22
16
27
9
12
12
12
42
22
16
27
9
12
12
12
43
22
17
27
9
12
12
12
42
22
16
27
9
12
12
12
42
22
17
27
9
12
12
12
42
22
17
27
9
12
12
12
42
22
17
26
9
12
12
12
41
22
16
27
9
12
12
12
41
21
16
27
9
11
12
12
41
21
16
26
9
11
12
12
41
21
16
26
9
11
12
12
41
21
16
26
9
11
12
12
40
21
16
26
9
11
11
11
38
21
16
26
9
11
12
11
35
21
16
26
8
11
12
11
35
21
16
25
8
11
12
11
35
21
16
25
8
10
12
11
35
21
16
25
8
10
12
11
35
20
16
25
8
10
11
11
35
20
16
25
8
10
11
10
35
18
16
25
8
10
11
10
35
18
16
25
8
10
11
10
35
18
15
25
8
10
11
10
34
18
16
25
8
10
11
10
34
17
16
24
8
10
11
9
33
16
17
24
8
8
9
9
33
16
16
24
8
8
9
9
33
16
16
24
8
8
9
9
33
15
16
24
8
8
9
9
33
15
16
23
8
8
9
8
31
15
16
23
8
8
9
8
31
15
16
22
8
8
9
8
30
14
16
21
8
8
8
8
29
13
16
21
8
8
8
8
29
13
16
21
6
8
8
8
29
13
16
20
6
9
8
8
28
13
16
19
6
9
8
8
25
12
16
19
5
9
7
8
25
12
16
18
5
9
7
8
24
12
16
18
5
9
7
8
24
12
15
18
5
9
7
8
23
11
15
18
5
9
7
8
23
9
15
18
5
9
7
6
22
9
15
16
5
9
7
6
18
9
16
14
5
9
7
6
18
10
15
13
5
9
7
5
18
9
16
11
4
9
7
5
18
8
17
11
4
9
7
5
16
8
17
10
4
9
7
5
14
8
18
10
4
9
7
4
13
8
18
10
4
10
7
4
14
9
19
10
4
11
7
5
11
9
18
9
4
11
8
5
11
9
18
9
4
11
8
5
10
9
19
9
4
12
8
4
10
8
20
9
4
12
8
4
9
9
24
9
4
12
8
4
8
9
28
9
4
12
9
5
8
9
28
9
4
12
9
5
8
9
29
9
4
12
9
5
7
9
32
13
6
12
9
5
7
9
35
14
6
12
9
5
6
9
35
14
6
12
9
5
6
9
35
15
6
12
9
5
6
9
35
16
6
12
9
5
6
9
35
16
6
12
9
5
8
10
35
16
7
13
11
6
7
10
35
16
7
13
11
6
7
10
35
16
7
13
11
5
7
10
36
16
7
13
11
5
7
10
37
16
7
13
12
6
8
10
37
16
7
13
12
6
8
10
37
16
7
13
12
6
8
10
36
16
7
13
12
6
8
10
37
16
7
13
12
6
8
10
37
16
8
13
12
6
8
10
37
17
8
13
12
6
8
10
37
17
8
13
12
6
8
12
37
17
8
13
12
6
8
12
37
17
8
13
12
6
8
12
37
17
8
13
12
5
8
12
37
17
8
13
12
5
8
12
38
17
8
13
12
5
8
12
38
17
8
13
12
5
8
12
38
17
8
13
12
5
8
12
38
17
8
12
12
5
8
12
38
17
8
13
12
6
8
12
38
17
8
13
12
6
8
12
38
18
8
13
12
6
8
12
38
17
8
13
12
6
8
12
38
17
8
13
12
6
8
12
38
17
8
13
12
6
8
12
38
17
8
13
12
6
8
13
38
17
8
13
12
6
8
12
38
17
8
13
12
6
8
12
38
17
8
12
12
6
8
12
37
17
8
12
12
6
8
12
37
17
8
12
12
6
8
12
37
17
8
12
12
6
8
12
37
17
8
12
12
6
8
12
37
17
8
11
12
6
8
12
36
17
8
10
12
6
8
12
37
17
8
10
12
6
8
12
37
17
8
10
12
6
7
12
36
17
8
10
12
5
7
12
36
17
8
10
11
5
7
11
33
17
8
10
11
5
7
11
30
17
8
9
10
5
7
11
30
17
8
9
10
5
7
11
29
16
8
9
10
5
7
11
26
14
7
9
10
5
7
11
22
12
7
9
10
5
7
11
22
12
7
9
10
5
7
11
22
11
7
8
10
5
7
11
21
10
6
8
10
5
7
11
21
10
6
8
9
5
5
10
21
10
5
7
8
4
5
10
21
10
5
7
8
4
5
10
21
10
5
7
7
4
5
10
21
10
5
7
7
4
5
10
19
10
5
7
7
4
5
10
20
9
5
7
7
4
5
10
19
9
5
7
7
4
4
10
19
9
5
7
7
4
5
9
19
9
5
7
6
4
5
9
19
9
4
6
6
4
5
9
19
9
4
6
6
4
5
9
18
9
4
6
6
4
5
8
18
8
4
6
6
4
6
7
18
8
4
6
6
4
6
7
18
8
5
6
6
4
6
7
18
8
5
6
6
4
6
7
17
8
5
6
6
4
7
6
17
8
5
6
6
4
7
6
17
8
5
5
6
3
7
6
17
8
5
5
4
3
7
6
17
8
5
4
5
3
6
6
17
8
5
4
4
2
7
6
16
7
5
4
4
2
7
6
16
7
5
4
4
2
7
6
16
8
5
4
5
3
7
6
16
8
5
4
5
3
7
6
15
8
5
4
5
3
8
5
14
8
5
4
4
4
8
5
14
8
5
4
4
4
10
5
13
7
5
4
4
4
11
5
13
7
5
4
4
4
11
5
13
7
5
4
4
4
12
5
13
7
5
4
4
4
12
5
13
7
5
4
4
4
12
5
13
7
5
4
4
4
13
5
12
7
5
4
3
4
13
5
12
7
4
3
3
4
13
5
11
7
4
3
5
5
16
5
11
7
4
3
7
6
16
5
11
7
4
3
7
6
18
6
11
7
4
3
7
6
21
6
11
7
4
2
7
6
21
7
11
7
4
3
7
6
22
7
12
9
4
3
7
6
26
7
12
9
5
2
7
6
27
7
12
9
5
3
7
6
27
8
12
9
5
3
7
7
29
8
12
10
5
3
7
7
30
9
12
11
5
3
8
7
34
9
12
16
8
4
8
8
34
10
12
17
8
4
8
8
36
10
12
16
8
4
8
8
39
11
12
16
9
5
9
8
40
11
12
17
8
5
9
9
43
13
12
18
9
5
9
9
46
16
11
18
9
5
9
11
47
16
12
18
9
5
9
11
48
16
12
19
9
5
9
12
50
16
12
20
9
5
9
12
51
18
12
20
10
5
9
12
52
20
12
21
12
6
10
13
53
20
14
22
12
6
10
15
53
21
15
22
12
7
10
15
53
21
15
22
12
7
10
15
53
22
15
23
13
7
10
15
53
23
14
23
13
8
11
16
53
23
15
23
13
8
11
16
53
23
15
23
13
8
11
17
56
24
16
24
13
9
11
17
56
24
17
24
13
10
11
17
58
25
17
26
14
10
11
17
61
25
17
27
16
10
13
18
61
25
18
28
16
11
13
18
61
25
18
28
16
11
13
19
61
25
18
28
16
11
13
18
63
25
19
30
16
11
13
19
64
25
19
30
16
11
13
20
64
25
19
30
17
11
14
20
65
26
20
31
17
12
14
20
65
26
21
32
17
12
14
20
67
27
21
33
17
12
14
20
69
29
21
34
18
12
14
20
69
28
21
34
18
12
14
20
69
29
22
34
18
12
14
21
69
29
22
34
18
12
15
21
71
29
23
35
18
13
15
22
72
29
23
36
18
14
15
28
75
30
23
35
19
14
15
30
75
30
24
36
19
15
14
30
75
30
24
37
19
15
14
30
76
30
24
38
20
15
14
31
76
30
24
38
20
15
14
31
77
30
24
38
20
18
14
31
76
30
24
38
20
18
14
31
75
31
24
38
20
19
14
31
75
32
24
39
20
19
15
31
77
34
24
40
20
19
15
31
76
35
25
40
20
19
15
31
76
35
25
40
21
19
15
31
77
35
25
39
20
19
15
31
77
35
25
39
20
20
15
31
76
35
25
39
20
22
17
32
75
35
25
39
21
26
19
32
76
35
26
39
21
26
19
31
75
34
27
39
21
26
20
32
74
33
27
38
21
27
21
31
73
33
27
38
21
28
21
32
72
33
27
38
21
28
21
32
71
33
27
39
21
28
22
33
70
33
27
41
21
28
22
33
70
32
27
41
20
29
22
33
69
32
27
41
21
29
22
32
70
31
26
41
21
29
22
32
70
31
26
42
21
29
22
32
70
31
27
42
21
29
22
32
69
30
27
43
21
30
22
31
69
30
27
43
22
30
22
32
69
31
27
43
21
30
23
31
67
31
27
43
21
29
23
31
69
30
27
43
21
29
23
31
68
30
27
42
21
29
23
32
65
31
27
42
20
29
22
32
66
31
26
42
20
29
22
32
66
31
26
42
20
29
22
32
66
31
26
42
20
29
22
32
65
31
26
41
21
29
22
33
67
31
26
42
21
29
22
33
67
32
26
41
21
29
22
33
66
31
25
41
21
29
22
33
66
32
25
40
22
29
22
33
65
33
25
39
21
29
22
33
63
33
25
39
21
29
23
33
63
33
25
40
21
29
23
32
63
33
24
40
21
30
23
32
63
32
24
40
21
30
23
32
61
36
24
41
21
30
23
31
60
37
24
40
21
29
23
27
58
37
24
40
20
29
24
24
58
38
24
40
21
29
24
24
58
38
24
39
21
30
24
24
57
38
24
39
20
30
24
23
55
38
24
39
20
30
24
23
54
38
24
39
20
28
24
23
55
38
25
40
20
28
24
23
55
38
24
40
20
27
24
23
55
37
24
39
20
27
24
24
52
34
24
39
20
27
24
24
54
34
24
39
20
28
24
24
57
34
24
39
20
28
24
25
55
34
24
38
20
28
24
26
55
34
24
39
20
27
24
25
55
35
24
39
20
26
23
25
54
36
24
39
20
22
21
25
53
36
23
41
21
22
20
26
55
37
23
41
20
22
20
26
56
37
23
41
20
21
19
26
57
37
22
41
20
20
19
26
56
37
22
41
20
20
18
26
56
37
22
40
20
20
18
25
56
37
21
39
20
20
17
24
57
36
22
38
20
19
17
24
58
36
22
39
19
18
17
24
58
36
21
40
19
19
17
24
58
36
21
39
19
19
17
24
59
36
22
38
19
18
17
25
59
36
22
37
19
18
17
24
59
36
22
37
18
18
17
24
59
36
21
37
18
18
17
24
61
35
21
39
19
18
16
24
59
35
21
41
19
18
16
24
59
35
21
42
19
18
16
24
59
35
21
41
18
18
17
23
58
35
20
40
19
18
17
23
58
36
24
41
21
18
17
23
58
37
24
41
21
18
17
23
59
37
23
42
22
18
17
22
56
36
23
42
21
18
17
22
57
36
24
42
21
18
17
22
57
36
23
42
21
18
17
22
58
35
23
42
20
18
17
22
57
34
23
42
20
18
17
22
57
33
23
42
20
19
16
22
56
35
23
41
20
19
16
23
58
35
23
41
21
20
16
23
60
36
23
41
21
20
15
23
61
32
22
42
21
19
15
23
60
31
22
42
21
19
14
23
59
30
22
45
22
19
14
22
61
30
22
48
21
19
14
22
61
30
22
49
23
18
13
22
61
30
23
48
23
18
13
23
62
30
23
48
24
18
14
23
62
29
23
48
24
18
14
23
62
30
23
47
23
20
15
23
62
30
23
47
23
20
15
23
62
30
23
47
23
20
14
22
62
30
23
46
23
20
14
22
61
30
23
46
23
21
15
22
58
30
22
47
23
21
15
21
58
31
22
47
23
21
15
21
58
31
22
48
24
21
15
21
59
30
22
47
23
21
16
21
60
30
22
48
23
21
16
22
61
30
22
48
23
21
17
21
59
28
22
48
23
21
16
20
58
28
23
48
24
21
17
20
58
28
23
48
24
21
18
20
58
28
23
48
24
21
18
20
58
29
23
48
24
21
18
21
58
29
23
48
24
21
19
21
57
30
23
48
24
21
20
22
56
30
23
47
24
22
21
23
56
30
23
46
24
22
22
22
56
31
24
46
24
22
23
24
55
31
22
48
24
22
23
24
57
31
22
48
24
21
24
24
57
31
22
48
24
21
24
24
58
31
22
48
24
21
24
24
56
31
22
46
24
21
24
25
56
31
22
45
24
21
24
24
56
32
22
45
24
21
24
24
56
32
23
45
26
21
24
24
56
32
23
46
25
21
24
24
56
30
20
45
23
21
24
24
57
30
20
45
23
21
24
24
55
30
22
45
23
21
24
23
56
30
22
44
23
21
24
24
56
30
23
44
22
21
25
25
57
30
24
44
22
23
25
25
58
29
24
44
22
23
26
25
58
29
24
44
22
23
26
26
58
29
24
44
22
22
25
26
60
27
24
44
22
22
26
25
58
28
24
44
22
21
26
25
56
28
24
44
22
21
26
25
55
28
24
42
22
21
26
25
54
28
24
42
22
21
26
25
55
28
24
40
22
21
26
25
53
31
25
36
23
21
26
25
53
30
25
35
22
21
26
25
52
30
24
35
21
21
26
25
52
31
24
35
21
22
25
25
52
31
24
35
21
22
25
25
51
31
24
35
22
20
25
25
51
32
24
35
22
21
25
25
51
32
24
35
22
21
25
26
50
32
25
35
22
21
26
27
52
32
25
36
22
20
26
28
52
32
25
36
22
21
26
28
52
31
25
36
22
21
25
28
52
31
25
35
22
21
25
28
53
31
25
36
22
20
25
29
53
30
25
35
22
20
25
28
52
30
25
34
21
20
24
28
52
30
25
34
21
20
24
28
53
30
24
35
20
20
24
28
52
32
24
35
20
20
24
28
52
32
24
35
20
20
24
28
52
32
24
34
20
20
24
27
52
32
24
35
20
20
23
26
54
31
25
35
20
20
23
26
57
31
25
35
20
19
22
27
57
31
25
35
20
19
21
27
57
30
24
35
20
19
20
25
58
30
24
33
20
19
19
26
55
30
24
34
20
19
19
26
55
30
24
34
20
19
19
27
55
30
25
33
20
19
19
26
55
31
25
36
20
19
19
26
55
31
25
35
20
19
20
26
55
30
25
35
19
19
19
26
55
30
24
36
17
18
19
26
55
30
25
36
17
18
19
26
55
30
25
36
17
18
19
26
55
30
25
36
17
18
19
27
54
30
23
37
17
18
19
27
54
30
23
37
17
19
19
27
54
30
22
38
17
18
19
26
52
30
21
38
17
17
19
26
51
30
21
38
17
17
18
26
53
30
21
40
17
17
18
26
53
31
21
40
17
17
18
26
52
31
21
40
17
17
18
25
52
30
21
40
17
16
18
25
52
30
21
40
17
16
19
26
52
29
21
40
17
16
19
25
52
30
22
40
17
16
19
26
53
30
22
40
16
16
19
26
53
27
21
40
14
16
19
26
53
27
20
40
14
17
19
26
53
28
21
40
14
20
20
26
55
27
21
41
14
19
20
26
55
27
21
42
14
19
20
25
56
28
21
44
15
19
20
26
57
28
21
44
15
19
20
26
57
28
21
44
15
18
20
25
57
28
21
43
15
18
19
25
56
28
21
44
15
18
18
23
55
27
21
44
15
18
18
23
55
27
21
43
14
18
18
23
56
27
21
43
13
18
19
23
55
27
21
42
13
18
19
21
54
27
21
41
13
18
20
21
54
27
21
41
13
18
20
22
54
27
21
41
13
18
20
22
54
27
21
41
13
18
20
22
54
25
21
41
14
17
20
22
54
25
20
41
14
17
19
22
55
25
20
41
13
17
19
23
55
25
20
40
12
17
19
23
54
25
20
40
12
18
18
22
51
25
19
40
12
17
18
21
51
24
19
40
12
17
18
21
51
24
19
40
12
17
18
21
49
24
19
40
12
17
18
21
49
24
18
39
12
17
18
21
50
24
18
39
12
17
18
19
50
24
18
39
12
17
17
19
49
23
18
37
12
17
16
19
49
23
18
37
12
17
16
18
49
23
18
37
12
17
15
18
49
23
18
36
12
17
15
18
48
23
17
34
12
17
15
18
48
22
16
34
12
17
15
18
48
22
16
34
12
16
15
17
47
22
16
32
11
16
14
16
47
22
16
32
11
16
14
16
47
22
16
31
11
16
13
16
47
22
16
31
11
15
13
15
46
21
16
31
11
15
13
15
44
21
16
29
11
15
13
15
43
20
16
28
11
15
13
15
42
20
16
28
11
15
12
15
42
20
16
28
11
15
12
15
41
19
15
28
11
15
12
15
41
19
15
28
11
15
12
15
41
19
14
28
11
15
12
14
40
19
14
26
11
15
12
14
40
18
14
26
10
15
12
14
39
18
15
26
10
14
12
14
39
17
14
26
10
9
10
14
36
17
14
24
10
9
10
13
36
16
14
22
9
9
10
13
34
13
14
18
7
9
10
11
32
12
14
18
7
7
9
11
31
12
14
18
7
7
9
11
31
12
14
18
7
7
9
10
30
11
14
15
7
7
9
10
29
12
14
14
7
7
10
10
29
12
15
14
6
7
9
10
27
11
15
13
6
7
8
10
25
11
15
13
6
7
8
10
24
10
15
13
6
7
7
9
23
10
15
13
6
7
6
8
22
8
16
12
6
8
7
7
21
10
18
12
5
8
6
7
21
12
22
14
6
8
6
7
20
12
22
13
6
8
7
6
18
12
22
13
6
8
7
6
17
12
22
13
6
8
7
6
12
12
22
13
6
9
7
5
12
12
23
13
6
9
7
5
11
12
24
13
6
9
7
5
11
12
25
13
6
10
8
5
11
13
26
13
6
10
8
5
11
13
28
13
6
10
8
6
9
12
30
13
6
10
9
6
9
12
32
13
7
11
9
6
8
12
34
14
7
12
9
6
9
12
34
14
7
12
9
6
9
12
36
14
7
12
9
6
9
12
36
14
7
12
9
6
9
13
37
14
8
12
9
6
9
13
38
14
8
12
9
6
9
13
38
14
8
12
9
6
8
13
39
14
8
13
9
6
7
13
41
14
8
13
10
6
7
13
42
14
8
13
10
6
7
14
42
15
8
13
10
6
7
14
44
15
8
13
10
6
7
14
44
14
8
13
10
6
7
14
45
15
8
14
10
6
7
14
47
15
8
14
10
6
7
14
48
15
8
14
10
6
7
14
48
15
8
14
10
7
7
14
49
15
8
14
10
7
7
14
49
15
8
14
10
7
7
14
50
15
8
14
10
7
7
14
50
15
8
14
10
7
7
14
50
15
8
14
10
7
7
14
50
15
8
14
10
7
7
14
51
15
8
14
10
7
7
14
51
15
8
14
10
7
7
14
51
15
8
14
10
7
7
14
51
15
8
14
10
7
7
14
51
15
8
14
10
7
7
14
51
15
8
14
10
7
7
14
52
15
9
14
10
7
7
14
53
16
9
14
10
7
7
14
53
16
9
14
10
7
7
14
53
16
9
14
10
7
7
14
53
16
9
14
9
7
7
14
53
16
9
14
10
7
7
14
53
16
9
14
10
7
7
14
53
16
9
13
9
7
7
13
52
16
9
13
10
7
7
11
50
14
8
13
10
7
7
11
50
14
8
13
9
7
7
11
50
13
8
13
9
7
7
11
50
13
8
13
9
6
6
10
50
14
8
13
9
6
6
10
50
14
8
13
9
6
6
10
50
14
8
13
8
6
6
11
50
14
8
12
8
6
6
12
52
14
8
12
8
6
6
12
50
14
8
12
8
5
6
12
49
13
7
12
7
5
6
12
48
13
6
11
7
5
6
12
47
12
6
10
7
5
5
11
47
12
6
10
7
5
5
11
46
12
6
10
7
5
5
11
45
12
6
10
7
5
5
11
44
11
6
10
7
5
5
11
44
12
6
10
7
5
5
11
44
12
6
10
7
5
5
11
43
11
5
10
7
5
5
11
41
12
5
10
6
5
5
10
41
12
5
10
6
5
4
10
41
12
5
10
6
4
4
10
39
12
5
10
6
4
4
10
39
12
5
9
6
4
4
10
38
12
5
9
5
4
4
9
35
12
5
8
5
4
4
10
34
12
5
8
5
4
4
10
34
12
5
8
5
3
4
10
34
12
5
8
5
2
4
10
34
12
5
7
5
2
4
10
33
12
5
7
5
2
4
10
33
12
5
7
5
2
4
10
33
12
5
7
5
2
4
10
32
12
5
7
4
2
4
10
31
11
5
7
4
2
4
10
31
11
5
7
4
2
4
10
31
11
5
7
4
2
4
9
31
12
5
7
4
2
3
9
31
11
5
7
4
2
4
9
30
11
5
6
4
2
4
9
29
11
4
6
4
2
4
9
27
11
4
6
4
2
4
9
27
11
4
6
4
2
4
9
27
11
4
6
4
2
4
9
27
11
4
6
4
2
4
9
27
11
4
6
4
2
4
9
26
11
4
6
3
1
4
9
26
11
4
6
3
1
4
9
26
11
4
6
3
1
4
9
26
11
4
5
3
1
5
9
26
11
4
5
3
1
5
9
26
11
4
5
3
1
5
9
26
11
4
5
3
1
5
9
25
11
4
5
3
1
5
9
25
11
4
5
3
1
5
9
25
11
4
5
3
1
6
8
22
10
4
5
3
1
6
6
19
10
4
5
3
1
6
6
19
10
4
5
3
2
6
6
19
10
4
5
3
2
6
6
17
10
4
5
3
2
6
6
17
10
4
5
3
2
7
6
17
10
4
4
3
2
7
6
17
10
4
4
3
2
7
6
17
10
4
4
3
2
7
6
17
10
4
3
2
2
8
6
17
10
4
3
2
2
8
6
16
10
4
3
2
2
9
5
16
9
4
3
2
2
9
5
16
9
4
2
2
2
9
5
16
9
4
2
2
2
9
5
15
9
4
2
3
2
10
5
15
9
4
2
3
2
10
5
15
9
4
2
3
2
10
5
14
9
4
2
3
2
11
5
14
9
4
2
4
2
16
5
14
9
4
3
4
3
16
4
13
9
4
3
4
3
18
5
12
9
4
3
4
4
18
5
10
9
4
3
4
4
18
5
10
9
4
3
4
4
23
5
10
9
4
3
4
4
23
5
10
9
4
3
4
4
24
5
10
13
5
3
4
6
25
6
10
14
6
4
5
9
25
8
15
15
6
4
5
9
26
8
16
15
7
4
5
11
30
9
16
16
8
4
5
11
32
9
18
17
8
4
7
13
32
9
18
17
8
4
10
13
32
9
18
17
8
5
10
13
33
9
18
17
8
5
10
13
34
9
18
18
8
5
10
14
34
10
18
18
8
6
11
14
35
12
19
18
9
6
11
15
36
13
19
18
10
6
11
15
38
13
20
19
10
6
11
15
40
13
20
21
10
7
11
15
42
14
20
21
10
7
11
16
43
16
20
21
10
7
12
17
44
17
20
21
10
7
12
17
44
18
20
21
10
7
12
17
45
18
21
23
10
7
12
17
46
18
21
23
10
7
12
17
49
18
21
24
10
8
12
18
49
19
21
24
10
8
12
18
50
19
21
24
11
8
12
18
50
19
21
24
11
8
12
18
50
20
22
25
11
8
12
18
50
20
22
25
11
8
12
18
50
21
22
26
11
8
12
18
51
21
22
28
12
8
12
18
51
21
22
31
14
9
12
18
53
22
22
31
14
11
13
19
53
22
22
33
15
11
13
19
54
22
23
33
15
11
13
20
54
23
23
34
15
11
13
21
55
23
24
35
16
11
13
21
56
25
25
36
16
11
13
21
56
25
25
37
16
12
13
22
56
27
25
37
16
12
14
22
56
27
25
38
16
12
14
22
58
28
25
38
16
12
14
22
58
28
25
38
17
12
14
22
58
28
26
38
17
12
14
23
60
29
26
38
17
12
14
24
60
29
26
38
17
12
14
24
61
29
26
38
17
12
14
24
62
29
26
38
17
13
14
24
61
29
26
39
17
13
14
24
63
29
26
39
17
13
15
25
62
30
27
39
17
13
15
25
62
31
28
39
17
13
15
26
62
31
28
38
17
13
15
26
62
31
28
42
17
12
15
25
62
31
25
42
17
12
15
25
62
31
25
42
16
12
15
25
60
31
24
42
16
12
15
24
60
32
23
42
16
13
15
24
60
33
23
42
16
13
14
24
60
33
23
42
16
13
14
25
60
33
24
42
16
13
14
25
60
34
24
42
17
13
14
25
61
34
25
43
19
13
14
25
62
33
25
43
18
13
14
25
62
34
25
43
18
13
14
25
62
34
25
43
18
13
14
26
61
34
25
42
18
13
15
26
60
34
25
42
18
13
14
25
59
33
26
42
19
13
14
25
59
32
26
42
19
13
15
25
59
32
26
42
19
13
15
25
59
32
25
41
19
13
15
26
57
32
26
42
19
13
15
26
56
32
26
42
20
13
15
26
56
32
27
42
21
14
15
27
55
32
27
42
21
13
15
27
55
32
27
42
20
13
15
27
55
31
27
42
20
13
15
28
55
31
26
42
21
13
15
28
58
31
26
41
21
13
15
28
57
31
26
40
20
13
15
28
58
31
26
38
19
13
15
28
59
31
26
38
18
12
15
28
59
32
26
36
18
12
15
28
58
32
25
36
18
12
15
27
58
32
26
35
18
11
15
27
58
32
24
35
18
11
15
26
57
31
24
34
18
11
15
26
57
31
24
33
18
11
15
26
57
29
25
33
17
11
15
26
58
29
25
32
17
11
15
26
56
28
25
33
17
10
15
26
56
28
25
33
17
10
15
26
56
29
24
33
17
10
14
25
54
29
25
33
17
10
14
24
53
29
25
33
17
10
14
24
51
30
25
33
17
10
14
24
51
29
24
33
17
10
14
24
51
29
24
33
17
10
14
24
49
29
24
33
17
10
13
24
49
28
24
33
17
10
13
25
49
27
23
33
17
10
13
23
48
27
22
33
17
10
14
23
49
27
22
27
17
10
13
23
49
27
22
27
17
10
13
23
49
27
22
26
17
10
13
23
49
26
22
28
17
10
13
23
48
25
23
27
17
9
12
22
48
25
23
27
17
9
12
22
48
25
24
27
17
8
11
22
48
25
23
26
17
8
11
22
47
24
23
27
16
8
11
22
46
24
22
26
14
8
11
22
44
23
22
26
14
8
12
21
44
22
22
26
14
7
12
21
44
22
22
26
14
7
12
21
44
22
21
26
14
7
11
22
45
22
21
25
14
8
11
21
47
22
20
26
13
8
11
22
47
21
20
25
13
7
11
22
48
22
20
25
13
8
11
22
51
22
19
25
13
8
11
21
52
22
18
24
13
8
11
21
52
22
18
24
11
8
11
20
52
22
17
24
10
7
11
19
52
22
17
25
10
7
11
19
53
22
17
25
10
7
11
19
53
22
17
24
11
7
11
18
53
22
18
25
10
7
11
18
49
22
18
25
10
7
11
18
49
21
17
24
10
7
11
18
49
21
18
24
10
7
10
18
45
20
17
24
10
7
10
18
45
19
17
24
10
7
10
18
45
19
18
24
10
7
11
18
46
19
17
23
10
7
11
18
46
19
17
23
9
7
11
18
47
19
17
23
9
7
12
18
47
19
18
24
10
7
12
18
47
19
18
25
10
7
12
18
48
19
17
25
10
7
11
18
49
20
17
23
10
7
11
18
49
19
18
24
10
7
11
18
50
19
18
24
10
7
12
18
50
18
17
24
10
7
12
18
50
17
17
24
10
7
11
18
50
17
17
24
10
7
11
19
50
17
17
24
10
7
11
19
50
17
17
23
11
7
11
20
49
17
17
23
10
7
11
19
49
17
17
24
10
7
11
18
49
17
16
24
10
7
11
19
49
17
16
24
11
7
11
19
49
17
17
24
11
7
11
19
49
17
17
25
10
7
11
19
50
17
17
25
10
7
11
19
50
17
17
24
10
7
11
19
50
17
16
24
10
7
12
19
50
16
15
24
10
7
12
19
50
16
15
24
10
7
12
19
49
16
15
24
10
8
12
19
49
16
14
23
10
8
12
19
49
15
14
22
9
7
12
19
48
16
14
22
9
7
11
19
49
15
14
22
9
7
11
18
49
15
14
22
9
7
11
18
51
15
14
22
9
7
11
18
50
16
14
22
9
6
11
18
48
17
14
22
9
7
11
18
47
17
14
22
9
7
11
17
47
16
14
22
9
7
11
17
43
16
14
22
9
7
11
17
41
16
14
22
9
8
11
17
41
16
14
23
9
8
11
17
42
16
14
22
9
8
11
17
41
16
14
22
9
8
11
16
40
17
14
22
9
8
11
16
41
17
14
22
9
8
11
16
45
16
13
21
9
8
11
16
45
17
13
22
9
8
12
16
45
17
13
22
9
8
11
16
47
17
13
22
9
8
11
16
47
17
14
23
9
8
11
16
47
17
14
23
9
8
12
16
47
17
13
23
9
8
11
16
47
16
13
23
9
8
11
15
47
16
13
23
9
8
11
15
47
16
13
23
9
8
11
15
46
16
12
23
8
8
11
15
47
16
11
22
9
8
11
15
44
16
12
22
9
8
11
15
43
16
11
22
8
7
11
15
42
16
10
21
8
7
11
14
42
16
10
21
8
7
11
14
43
16
10
21
8
7
11
14
44
17
10
22
8
8
11
14
45
17
10
21
8
8
11
13
45
16
10
21
8
7
11
12
46
16
10
21
8
8
11
14
46
17
10
21
8
8
11
14
46
17
10
20
8
8
11
14
45
17
10
20
9
8
11
13
45
17
10
20
8
8
11
13
45
17
9
20
9
8
11
12
46
17
9
19
9
8
11
12
44
17
9
19
9
8
11
12
44
17
9
18
8
8
11
12
45
16
9
18
8
8
11
12
45
16
9
18
8
8
11
12
45
16
9
18
8
8
11
12
45
17
9
18
8
8
11
12
46
17
9
18
8
8
11
12
45
17
9
18
8
8
10
12
45
17
9
18
8
8
10
12
44
17
9
18
8
8
10
12
44
18
10
18
8
8
10
12
41
18
9
18
8
8
10
11
41
17
9
19
8
8
10
11
42
17
9
19
8
8
10
11
42
17
9
19
8
8
10
12
42
17
9
19
8
7
10
12
41
17
9
19
8
7
10
12
42
17
9
20
8
7
10
12
42
18
9
19
8
7
10
12
41
18
9
19
8
7
10
12
42
17
10
19
8
7
10
12
44
17
10
20
8
7
10
12
43
17
11
20
8
7
10
12
40
18
11
20
8
7
10
12
39
17
11
19
8
7
9
12
39
17
11
22
8
7
9
14
38
18
11
22
8
7
10
14
38
19
11
22
8
8
10
14
38
19
11
21
8
8
9
14
37
19
12
22
8
8
9
14
37
19
12
22
8
8
9
14
37
19
13
22
8
8
10
14
38
19
13
22
8
8
10
14
39
19
13
22
8
8
10
15
38
21
13
22
8
8
10
15
38
21
13
22
8
8
10
15
38
20
13
22
8
8
10
15
39
20
13
22
8
8
10
15
39
20
13
22
8
8
10
15
39
20
13
22
8
8
10
15
40
20
13
22
8
9
12
16
39
21
13
22
8
9
12
17
39
21
13
22
8
9
12
17
39
21
13
23
8
9
12
15
39
21
13
22
8
9
12
16
39
21
13
22
7
9
12
16
39
21
13
22
7
9
12
16
39
21
13
22
7
9
12
16
41
22
14
22
7
9
12
16
41
22
14
22
7
9
12
16
41
22
14
22
7
9
12
16
41
22
14
22
7
9
12
17
40
22
14
22
7
9
12
19
40
22
14
22
7
9
13
19
40
22
13
22
7
9
12
19
40
22
13
22
7
9
12
19
39
21
14
22
7
9
12
19
39
21
14
22
7
9
12
19
39
21
14
22
7
9
12
20
39
21
13
22
7
9
12
20
39
21
13
22
7
9
12
20
39
21
13
22
7
9
12
20
39
21
13
21
7
9
12
20
39
21
13
21
7
9
12
19
39
21
13
21
7
9
12
19
39
21
13
21
7
9
12
19
39
21
13
20
7
9
12
19
38
21
13
20
7
8
12
19
38
20
13
19
7
8
11
19
38
20
13
19
6
8
11
19
37
20
12
19
6
8
11
19
35
20
12
18
6
8
11
19
35
19
11
18
6
8
11
18
35
19
11
18
6
8
11
18
35
19
11
18
5
8
11
18
34
19
11
15
5
8
11
17
33
17
11
14
5
8
11
17
33
17
11
13
4
7
11
17
33
17
11
13
4
7
10
17
33
17
9
12
4
7
10
17
33
17
9
11
4
7
10
17
33
16
9
11
4
7
10
17
31
16
9
11
4
7
9
17
29
16
9
11
4
7
9
16
29
13
8
10
4
7
9
16
29
13
8
10
3
7
9
16
29
13
8
10
3
7
9
16
28
13
8
10
3
7
9
16
28
13
8
10
3
7
9
16
26
13
8
8
3
7
9
15
22
13
9
7
3
6
6
15
21
10
8
6
3
5
5
14
21
10
8
6
3
5
5
14
21
10
9
6
3
5
5
14
20
10
9
6
3
5
4
13
20
10
9
6
3
5
4
13
20
9
9
5
3
5
4
13
19
9
13
5
3
5
4
13
12
8
13
5
3
7
4
13
11
8
13
5
3
7
5
13
11
7
13
5
3
7
5
13
11
8
14
5
3
8
5
11
10
8
14
5
3
8
6
8
10
8
15
6
3
8
6
8
9
8
16
5
3
8
6
7
9
8
16
6
3
8
7
7
9
9
17
6
3
9
7
7
9
9
17
6
4
9
7
7
9
9
18
7
4
9
7
6
7
9
18
7
4
9
7
6
7
9
19
7
4
9
8
5
6
9
21
7
4
10
8
5
6
9
21
8
5
10
8
5
6
9
21
8
5
10
8
5
5
9
21
8
5
10
8
5
5
10
22
9
5
10
8
5
5
10
22
9
5
11
9
5
5
10
23
11
5
11
9
5
5
10
24
11
5
11
9
5
5
11
23
11
6
11
9
5
6
11
25
11
6
11
9
5
6
11
25
11
6
11
9
4
6
11
26
12
6
13
9
5
6
12
27
12
6
13
10
6
6
12
27
12
6
13
10
6
6
12
27
12
6
13
10
6
6
12
28
12
6
13
10
6
6
12
28
12
6
13
10
6
6
13
32
13
6
13
10
6
6
13
32
13
6
13
10
6
6
13
32
13
6
13
10
6
6
13
32
13
6
13
10
6
6
13
32
13
6
13
10
6
6
13
34
15
6
13
10
6
6
14
36
17
6
13
10
6
7
14
36
17
7
13
10
6
7
14
37
17
7
13
10
6
7
14
37
17
7
13
10
6
7
14
37
17
7
13
10
6
7
15
37
17
7
13
10
6
7
15
38
17
7
13
10
5
7
15
38
17
7
13
11
5
7
15
38
17
7
14
11
5
7
15
37
17
7
14
11
5
7
15
38
18
7
14
11
5
7
15
38
18
7
13
11
5
7
15
38
18
7
13
11
5
7
15
37
18
7
13
11
5
7
15
37
18
7
13
11
5
7
15
37
18
7
13
11
5
7
15
37
18
7
13
11
5
7
15
36
17
7
12
10
5
7
15
37
18
7
12
10
5
7
15
37
18
7
12
10
5
7
14
36
18
7
12
10
5
7
14
36
18
7
12
9
5
7
14
36
18
7
12
9
4
7
14
36
18
7
11
9
4
7
14
36
18
7
11
9
4
7
14
36
18
7
11
9
4
7
13
35
18
7
11
8
4
7
13
35
17
6
10
8
4
7
13
36
17
6
10
8
4
7
13
36
17
6
10
8
4
7
13
37
17
6
10
8
4
7
12
37
17
6
9
8
4
7
12
37
17
6
9
7
4
7
12
36
16
6
9
7
4
6
12
36
16
6
9
7
4
6
11
36
16
5
8
7
4
6
11
35
15
5
8
7
4
6
11
35
15
5
8
7
4
5
11
34
15
5
6
6
3
5
10
33
15
6
6
6
2
5
10
33
15
6
6
6
2
5
10
34
15
6
6
6
2
5
10
33
15
5
6
6
2
5
10
33
15
6
6
6
2
5
9
30
14
5
5
6
2
5
9
30
14
5
5
6
2
5
9
30
14
5
5
6
2
5
9
30
14
5
5
6
2
5
8
30
14
5
5
6
2
5
8
28
12
5
5
5
2
5
7
26
10
5
5
5
2
4
6
25
10
5
5
5
2
3
6
24
9
4
5
5
2
3
6
24
9
4
5
5
2
3
6
24
9
4
5
5
2
3
5
23
9
4
4
4
2
3
5
23
10
4
4
4
1
3
5
23
10
4
4
4
1
3
5
23
10
4
3
3
1
3
5
23
9
4
3
3
1
3
5
22
9
4
3
3
1
3
5
22
9
4
3
3
1
3
5
22
9
4
3
3
1
3
5
22
9
4
3
3
1
3
5
22
9
4
3
3
1
5
5
22
9
4
2
3
1
5
4
22
9
4
2
3
1
5
4
21
10
4
2
3
1
5
4
21
10
4
2
3
1
5
4
21
9
4
2
3
1
6
4
20
9
4
2
3
1
6
4
20
9
4
2
3
2
6
4
20
9
4
2
3
2
6
4
20
9
4
2
3
2
6
4
20
9
4
2
3
2
6
4
19
9
4
2
3
2
6
4
19
9
3
2
3
2
7
4
19
8
3
2
3
2
7
4
17
8
3
2
3
2
7
4
15
8
3
2
3
2
7
4
14
8
3
2
3
2
7
3
13
8
4
2
3
2
8
4
13
8
3
2
3
2
9
4
12
8
3
2
3
2
10
4
13
8
3
2
3
3
10
4
13
8
3
2
2
3
12
4
12
8
3
2
2
3
12
4
12
8
3
2
2
3
13
4
12
9
3
2
2
3
13
4
12
9
3
2
2
3
13
4
11
9
3
2
2
4
14
4
11
10
3
2
2
4
14
4
11
10
3
2
2
4
14
4
10
10
3
2
2
4
17
4
9
10
4
3
2
4
18
4
9
10
4
3
2
4
20
4
9
10
4
3
2
4
22
4
9
11
4
3
3
4
22
4
9
14
5
3
3
5
22
5
11
14
5
3
4
5
25
6
12
15
5
3
4
5
25
7
12
15
5
3
4
6
25
7
12
17
5
3
4
7
28
7
12
18
9
4
4
8
30
7
12
21
11
5
4
9
34
10
12
21
11
5
4
10
34
12
14
21
11
5
5
10
36
12
15
21
11
5
5
10
37
12
15
22
12
5
5
10
38
12
15
23
12
5
5
10
39
13
15
24
12
5
5
11
41
14
16
26
12
5
5
12
41
14
17
26
13
6
7
12
41
15
17
26
13
6
7
13
41
16
17
27
14
6
7
13
44
17
20
28
16
6
7
13
48
17
20
28
16
6
7
15
51
20
21
29
16
7
7
15
51
21
21
29
16
8
7
15
54
24
21
29
16
8
7
16
56
27
21
29
16
8
7
17
59
28
21
29
16
8
7
17
60
31
21
29
17
9
7
18
61
33
21
29
17
9
7
19
62
34
21
33
17
9
8
19
63
35
21
35
17
9
8
20
64
39
22
35
18
9
8
20
66
39
22
36
18
11
9
20
68
39
23
36
18
11
9
21
70
39
24
36
18
12
9
23
72
39
24
38
19
12
9
23
73
39
24
37
19
12
9
23
73
39
24
38
19
13
10
24
75
40
24
38
19
13
10
26
77
40
25
38
19
14
10
26
77
40
25
38
19
14
10
26
77
40
25
38
19
14
10
26
77
40
25
38
19
14
11
26
77
40
27
39
20
15
11
27
78
40
27
39
20
15
11
26
78
40
27
40
20
16
12
26
79
41
27
40
20
17
13
27
79
42
27
40
20
17
13
26
79
42
27
40
20
17
13
27
79
42
27
40
20
17
13
27
79
42
27
40
20
18
13
27
79
42
27
40
20
18
14
27
79
42
28
42
21
18
14
27
80
42
28
43
21
18
14
27
81
42
28
43
21
18
14
27
80
42
27
43
21
18
14
27
80
43
27
43
21
18
13
27
80
43
27
46
21
19
13
27
80
43
27
46
20
19
13
27
79
44
28
45
19
19
13
26
78
43
28
45
19
19
14
26
78
43
26
45
19
19
14
26
77
44
26
45
19
20
14
26
77
44
26
45
19
20
15
26
77
44
26
45
19
20
15
26
76
44
26
44
18
20
16
26
75
44
25
44
18
20
16
26
76
44
26
44
18
20
15
27
76
45
26
44
18
20
15
27
76
45
26
44
18
20
16
27
75
44
23
43
16
20
16
26
73
44
23
43
17
20
16
26
71
43
23
43
17
20
16
26
71
43
23
43
17
20
17
26
69
42
23
43
17
19
17
25
67
40
23
45
18
20
17
25
65
40
23
46
18
20
17
25
64
37
24
46
18
20
17
24
62
36
24
47
18
20
17
25
62
35
24
44
18
20
17
25
63
33
24
43
18
20
17
24
62
29
24
43
17
20
17
24
61
29
24
43
18
20
18
24
59
29
24
43
18
19
18
25
58
29
23
43
17
19
18
23
56
29
23
42
17
19
18
23
56
29
23
42
17
19
18
23
55
29
23
43
17
19
18
23
53
29
23
43
17
19
18
20
51
28
23
44
17
18
18
20
51
29
22
44
18
18
18
20
51
33
22
44
18
18
18
20
51
33
22
45
18
18
18
20
53
33
21
44
18
17
18
20
52
35
20
44
18
17
18
20
52
35
20
44
18
17
18
21
50
34
20
44
18
16
18
21
53
33
20
44
18
16
18
21
53
33
20
44
18
16
19
21
54
33
20
44
18
15
19
20
55
33
20
44
18
15
19
20
55
33
20
44
18
15
19
20
53
33
19
43
17
15
19
20
52
35
19
42
17
15
19
20
51
34
18
42
17
15
19
20
51
35
18
42
17
15
20
21
51
33
18
43
17
15
20
21
50
34
18
40
17
14
20
21
50
33
18
39
17
14
20
21
50
33
18
39
17
14
20
21
50
33
18
39
17
14
20
21
50
33
18
39
17
13
20
21
50
31
18
39
17
13
20
21
50
31
19
39
17
13
19
21
51
31
19
39
17
12
19
21
51
31
18
39
17
12
19
21
51
31
18
38
17
12
19
21
50
32
18
41
18
13
19
21
50
30
18
41
18
13
19
21
50
30
17
41
18
13
19
21
49
30
18
40
18
13
19
21
49
30
18
41
17
13
19
21
49
30
18
41
17
13
19
21
50
30
18
41
17
12
18
21
50
29
18
41
17
12
18
20
50
31
19
40
15
12
18
21
50
31
19
39
15
12
18
21
50
31
18
38
15
13
18
20
50
31
17
39
16
13
18
19
49
31
17
39
16
14
18
19
47
31
17
39
16
15
19
19
47
31
17
40
16
15
19
19
47
31
17
39
16
14
18
19
47
31
16
39
16
14
18
18
46
31
16
38
16
14
18
18
44
32
17
39
16
14
18
18
44
32
17
39
16
14
18
18
44
32
17
38
16
14
18
19
43
32
16
38
16
14
18
19
42
32
16
38
16
14
18
19
42
31
16
37
15
14
18
19
42
28
16
38
15
14
18
19
41
28
16
37
14
14
17
18
39
28
16
38
14
14
17
18
39
27
16
38
14
13
17
19
39
27
16
38
14
14
17
19
40
27
16
37
14
14
16
19
36
27
16
37
14
14
17
19
36
27
15
37
14
15
18
19
34
28
15
37
14
17
20
19
33
29
15
37
14
17
20
19
32
29
16
37
14
17
20
19
33
28
16
37
14
17
19
19
33
27
17
36
14
17
19
20
33
27
17
37
14
17
19
20
33
27
18
37
14
17
19
19
34
27
18
36
14
17
19
19
34
27
17
35
14
17
19
19
34
27
17
36
13
17
19
19
34
27
17
39
14
17
19
20
33
27
17
39
14
17
19
20
33
27
17
39
14
17
19
20
32
28
17
39
14
17
19
20
32
28
17
39
14
17
20
20
31
28
17
39
14
17
20
20
31
28
17
39
14
17
19
20
31
27
17
40
14
17
19
20
31
27
17
40
13
17
19
20
31
27
17
41
14
17
19
19
31
27
17
40
13
17
19
20
31
27
16
40
13
16
19
20
31
27
16
40
13
16
19
20
31
27
16
40
13
16
19
20
29
27
16
40
13
17
19
20
29
27
16
40
13
17
19
20
32
25
14
41
13
17
19
20
34
26
14
41
14
18
19
20
36
26
14
41
14
17
19
20
36
26
14
39
13
17
19
21
35
25
14
39
14
17
19
20
35
25
14
39
14
15
18
20
35
25
14
39
14
15
18
20
35
26
14
39
14
15
18
20
35
26
14
39
14
15
19
20
35
26
14
39
14
15
18
20
35
25
14
39
13
15
18
20
36
25
14
38
13
15
18
19
36
26
14
38
13
15
18
19
36
26
14
37
13
15
18
19
36
26
14
37
13
15
18
20
36
26
14
37
13
15
18
20
38
26
14
37
13
15
18
21
40
26
14
37
13
14
18
21
40
25
14
37
13
14
18
21
40
24
14
37
13
15
18
20
40
24
14
37
13
15
18
19
43
24
14
37
13
15
18
19
43
26
15
37
13
14
17
19
43
26
15
37
13
13
16
20
43
25
15
37
13
11
13
20
43
25
15
38
13
11
13
20
43
24
15
38
13
11
13
19
43
25
14
37
13
11
13
19
43
25
14
37
13
11
13
19
43
24
13
36
12
11
13
19
45
24
13
36
12
11
13
19
45
25
13
36
12
11
13
18
44
24
13
36
12
11
13
18
45
24
13
36
12
11
13
18
44
24
13
32
11
11
13
18
44
25
13
33
11
10
12
18
46
25
13
32
11
10
12
19
46
25
13
32
11
10
12
19
46
25
13
32
11
10
12
19
46
25
13
33
11
10
12
18
46
26
13
32
11
10
11
19
46
26
13
31
11
10
12
19
46
26
13
28
11
10
12
19
46
26
13
28
11
10
11
20
46
26
13
27
11
10
11
19
47
26
14
27
12
10
11
19
49
25
14
27
12
10
11
19
49
25
14
26
11
10
11
19
49
25
14
26
11
10
11
19
50
25
14
26
11
8
11
20
48
25
14
25
11
9
11
20
46
25
14
24
11
8
11
21
45
26
14
24
11
9
11
21
46
26
14
24
10
9
11
21
49
26
14
24
9
8
11
21
49
27
14
25
9
9
11
21
49
27
13
25
10
9
11
21
49
27
13
25
10
9
11
21
49
26
13
25
10
9
10
21
48
26
13
25
10
9
10
21
49
26
13
25
10
9
10
21
48
26
13
25
10
9
10
21
49
26
13
25
10
9
10
21
49
25
13
25
10
8
10
21
49
25
13
25
10
8
10
21
49
25
13
25
10
8
10
20
48
25
13
25
10
8
10
20
46
25
13
23
10
8
10
20
46
25
13
24
10
8
10
20
46
25
13
24
10
8
10
20
46
25
13
23
10
8
10
20
43
25
12
23
10
7
10
19
43
22
12
24
10
7
10
20
42
22
12
23
10
7
10
20
42
22
12
23
10
7
10
20
42
22
12
22
10
8
10
20
42
23
12
21
9
8
10
20
42
23
12
20
9
8
10
20
42
22
12
20
9
7
9
20
41
23
12
20
9
7
9
20
39
23
12
20
9
7
9
20
39
22
11
20
9
7
9
20
39
22
11
19
9
7
9
20
39
22
12
20
9
7
9
19
39
21
11
20
9
7
9
19
39
20
11
20
9
7
8
19
36
20
11
20
9
7
8
18
36
20
11
19
9
7
8
18
37
20
11
19
9
7
8
17
36
20
11
18
9
7
8
17
36
19
11
18
8
7
8
17
36
19
11
17
8
7
8
16
36
19
10
16
8
6
8
16
36
18
10
16
8
6
8
15
36
18
10
16
7
6
8
15
34
18
10
16
7
6
8
14
31
18
9
15
7
6
8
14
31
18
9
15
7
6
7
13
31
18
9
15
7
6
7
13
30
18
9
15
6
6
7
13
29
17
9
15
6
5
7
13
29
16
8
14
6
5
7
10
29
15
8
14
6
5
7
10
28
14
8
14
6
5
7
9
22
13
8
14
6
5
6
7
22
13
8
13
5
4
6
7
22
12
8
12
4
4
6
7
21
11
8
12
4
4
6
7
21
11
8
12
4
4
5
6
20
11
8
12
4
4
5
6
19
11
8
12
4
4
6
6
18
11
7
12
4
4
6
6
16
11
7
11
4
5
6
6
14
11
7
11
4
5
6
6
14
11
7
11
4
4
6
6
14
11
6
10
4
4
6
6
14
11
7
10
4
4
6
6
13
10
7
10
4
4
6
5
13
10
6
8
3
4
6
5
13
10
7
8
3
4
6
6
13
10
10
8
3
5
6
6
12
9
10
8
3
5
6
6
11
9
11
8
3
5
6
5
11
9
10
8
3
5
5
5
11
9
10
8
3
4
5
5
11
9
11
8
3
4
5
5
10
8
11
7
3
4
5
5
10
6
10
7
3
4
6
5
9
6
10
7
3
6
6
5
10
6
11
7
3
10
6
4
10
6
11
7
3
10
6
4
10
5
11
7
3
10
6
4
9
5
11
7
3
10
6
4
9
5
11
6
3
11
6
4
8
5
11
6
3
11
6
5
6
5
12
6
3
11
6
4
6
5
12
6
3
11
6
4
6
4
12
6
3
11
6
4
5
4
14
6
3
11
6
5
6
4
14
6
3
11
6
5
6
4
14
6
3
12
7
5
6
4
14
6
3
12
7
6
6
4
14
6
3
12
7
6
6
4
15
6
3
12
7
6
5
4
16
7
3
12
7
6
5
4
16
7
3
12
7
6
5
5
16
7
4
13
8
6
5
5
16
8
4
13
8
6
5
6
17
8
4
13
8
6
5
6
18
8
4
13
8
6
5
7
20
9
4
13
8
6
5
7
24
9
4
13
8
7
5
8
28
10
4
13
8
7
5
8
29
10
5
13
9
7
5
10
29
10
5
13
9
7
5
10
33
11
5
13
9
7
5
10
37
14
5
13
9
7
5
10
37
15
5
14
9
7
5
10
38
15
5
14
9
7
5
11
39
15
5
14
9
7
5
11
39
15
5
14
9
7
6
11
40
16
6
14
9
7
6
11
40
16
6
14
9
7
6
11
40
16
6
14
9
7
6
11
41
16
6
14
9
7
6
11
41
16
6
14
9
7
6
11
41
17
6
14
9
7
6
11
41
17
6
14
9
7
6
11
41
17
6
14
9
7
6
12
41
17
6
14
9
7
6
12
40
17
7
14
9
7
6
12
41
17
7
14
9
7
6
12
42
18
7
14
10
7
6
12
42
18
6
14
10
7
6
12
42
18
6
14
10
7
6
12
42
18
6
14
10
7
6
12
42
18
6
14
10
7
6
13
42
18
6
14
10
7
6
13
42
18
7
13
9
7
6
13
42
18
6
10
9
7
6
13
42
18
7
10
10
7
6
13
42
18
7
10
10
7
6
13
42
18
7
10
9
7
6
13
42
18
7
10
9
7
6
13
42
18
6
10
9
6
6
13
42
18
7
9
9
6
6
13
42
18
7
10
9
6
6
13
42
18
7
10
9
6
5
13
43
18
7
9
9
6
5
13
43
18
7
9
9
6
5
13
43
18
7
9
8
5
5
13
43
18
8
9
8
5
5
13
43
18
8
9
8
5
5
13
43
18
8
9
8
5
5
13
43
18
8
9
8
4
5
13
43
18
8
9
8
4
5
12
43
18
8
8
8
4
5
12
43
18
8
8
8
4
5
12
43
18
8
7
8
4
5
12
42
17
8
7
7
4
5
11
41
17
8
7
7
4
5
11
39
17
8
7
7
4
5
10
36
17
7
7
7
4
4
10
36
17
7
7
6
3
4
9
36
16
7
7
6
3
4
9
32
16
7
7
6
3
4
8
28
13
7
7
6
3
4
8
27
12
7
6
6
3
4
8
26
12
7
6
6
3
4
8
25
12
7
6
6
3
4
8
25
12
7
6
6
3
4
7
23
11
7
6
6
3
4
7
23
11
6
6
6
3
4
7
23
11
6
6
6
3
4
7
23
11
6
6
6
3
4
7
23
11
6
6
6
3
4
7
22
11
6
5
5
3
4
7
22
11
6
5
5
3
4
7
22
11
6
5
5
3
4
6
22
11
6
5
5
2
6
5
22
11
6
4
4
2
7
5
21
11
6
4
4
2
7
5
18
10
6
4
4
2
8
5
18
10
6
4
4
2
9
5
17
10
6
4
4
2
10
5
17
10
6
4
4
2
10
4
17
10
6
4
3
2
10
4
17
10
6
4
3
2
10
4
18
10
6
4
3
2
10
4
18
10
6
4
3
2
10
4
18
11
6
4
3
2
10
4
18
11
6
4
3
2
10
4
18
11
6
4
3
2
10
4
18
11
6
4
3
2
10
4
18
11
6
4
3
2
10
4
17
11
6
4
3
2
10
4
17
10
6
3
3
2
11
4
16
10
6
3
3
2
11
4
13
10
6
3
3
2
12
4
12
10
6
3
3
2
12
4
12
10
5
3
3
2
13
4
11
10
4
3
3
3
13
4
11
10
4
3
3
3
13
4
11
10
4
3
3
3
15
4
11
10
4
3
3
3
15
4
11
9
4
3
3
3
15
4
11
9
4
3
3
3
15
4
10
9
4
3
3
3
15
4
10
9
4
2
3
3
15
5
10
9
4
2
3
3
15
5
11
9
4
2
3
3
15
5
11
10
4
2
3
3
17
5
12
10
4
2
3
3
20
5
12
10
4
3
3
3
20
5
12
10
4
2
3
3
23
5
12
10
4
2
3
4
23
5
11
10
4
3
3
4
23
6
11
10
4
3
3
4
25
5
11
10
4
2
3
4
26
7
11
10
4
3
3
4
27
6
11
10
4
3
3
4
29
7
11
10
4
3
3
4
30
7
11
11
4
3
3
5
30
7
13
10
4
3
3
5
30
8
13
14
4
3
3
5
31
8
13
15
4
3
3
5
32
8
14
16
4
3
3
5
34
8
15
19
5
3
3
5
34
8
16
21
6
3
4
5
34
10
16
21
6
3
4
5
35
10
16
21
6
3
4
5
35
10
16
21
6
3
4
5
36
10
16
21
7
3
4
6
36
11
16
21
6
3
4
7
36
12
17
21
7
3
4
7
36
12
17
21
7
3
4
8
36
12
17
22
7
4
4
8
36
12
17
23
7
4
4
8
38
12
16
23
7
4
4
8
40
12
17
23
7
4
5
9
41
12
17
23
7
4
5
9
41
13
17
23
7
5
5
10
41
13
17
23
8
5
6
10
42
13
17
23
9
5
7
10
43
16
17
24
9
6
7
10
43
18
18
24
9
6
7
10
46
18
18
24
9
6
7
11
50
19
18
24
9
6
7
13
52
20
18
25
9
6
7
14
54
21
18
26
9
6
8
14
54
21
19
26
9
6
8
14
55
21
19
26
10
6
8
15
55
24
19
26
10
7
8
15
55
24
19
26
10
7
9
15
56
24
19
26
10
8
9
15
56
24
19
26
10
8
9
16
59
24
19
26
10
8
10
17
59
24
19
26
10
8
10
17
59
24
19
26
10
8
10
17
60
24
19
27
11
8
10
17
60
24
19
28
11
8
10
17
60
25
19
28
11
8
11
17
60
25
19
28
11
8
11
17
60
25
19
29
11
8
11
17
60
25
19
28
11
8
11
18
60
26
20
29
11
8
11
18
60
27
20
29
11
8
11
18
60
27
20
29
11
8
11
18
60
27
20
29
11
8
11
18
59
27
20
29
11
8
11
18
59
27
20
29
11
8
11
18
58
27
20
30
11
8
11
19
58
27
20
29
11
8
11
19
59
27
19
30
11
9
11
19
59
27
19
29
11
9
11
19
59
27
19
28
11
9
11
19
58
27
18
27
11
9
11
19
57
27
18
26
11
8
11
19
57
27
18
25
11
9
11
19
58
27
17
24
11
8
11
19
57
27
17
24
11
8
11
19
57
27
17
24
11
8
11
19
56
27
17
24
11
8
11
19
56
26
17
24
11
8
11
19
57
26
17
24
11
8
11
19
57
26
17
25
11
8
11
19
57
26
17
24
10
8
11
19
57
26
17
24
11
8
11
19
57
26
17
24
11
8
11
19
56
26
17
24
11
8
11
19
55
26
16
24
11
8
11
19
55
27
16
24
11
8
11
18
56
27
16
24
10
8
10
18
55
27
16
24
10
8
10
18
55
26
16
24
10
8
10
18
55
26
16
24
10
8
10
18
53
26
16
24
10
7
10
18
50
25
16
25
10
8
10
17
47
25
16
25
10
8
10
16
45
24
15
24
10
8
9
15
46
24
15
24
10
8
10
16
45
24
15
24
9
7
10
15
45
22
15
24
9
6
10
15
45
22
15
24
9
6
8
16
44
22
15
24
9
6
8
15
43
22
14
24
9
6
9
15
40
22
14
24
10
7
9
14
40
22
15
25
10
7
9
14
40
22
15
25
10
7
8
14
38
22
14
24
10
7
8
14
39
22
14
23
10
7
8
14
39
21
14
23
10
7
7
14
39
21
14
23
10
7
7
15
39
22
13
23
10
7
7
15
39
21
13
23
10
7
8
15
39
21
12
22
10
7
8
15
39
19
13
22
10
7
8
15
39
19
13
22
10
7
9
15
38
19
13
23
10
7
9
15
38
21
12
22
10
7
9
15
38
21
12
22
10
7
9
15
38
22
13
22
10
7
9
14
39
22
13
22
10
7
9
14
38
22
12
22
10
7
9
14
37
22
11
22
11
7
9
14
37
23
11
23
11
7
9
13
37
23
12
23
11
7
9
13
38
23
12
23
11
7
9
13
40
23
11
23
10
7
9
13
39
23
11
23
10
7
8
13
40
23
11
24
10
7
8
14
40
23
11
24
10
7
9
14
40
23
12
24
10
7
9
14
40
23
12
24
10
8
10
14
40
22
12
25
10
8
10
13
39
22
12
25
10
8
10
13
39
22
12
25
10
8
10
13
39
22
12
25
10
8
10
13
38
22
12
25
10
8
10
13
38
22
12
25
11
8
10
13
38
22
12
25
10
8
10
13
38
21
12
26
11
8
11
13
37
21
12
26
11
8
11
13
38
21
12
26
11
8
11
13
38
21
12
26
11
8
11
12
38
19
11
25
11
8
11
13
37
19
11
26
11
8
11
12
36
19
11
24
11
8
11
13
36
19
11
26
11
8
11
13
36
19
11
26
11
8
11
13
35
19
11
26
11
8
11
13
38
19
11
27
11
9
11
13
38
18
12
27
12
9
11
13
39
18
12
27
11
9
11
13
39
18
12
27
11
9
11
13
39
19
12
28
11
9
10
13
39
19
12
27
11
8
10
13
40
19
12
27
11
8
10
13
40
19
12
27
11
8
10
13
40
19
12
28
11
8
10
14
42
19
12
27
11
8
10
15
45
19
12
27
10
8
10
14
44
19
12
27
10
8
10
14
42
19
12
27
10
8
10
13
42
19
12
27
10
8
10
13
43
19
12
27
10
8
9
13
42
19
11
27
11
8
10
13
42
20
11
27
10
8
9
13
42
21
11
27
10
8
9
13
43
20
11
27
10
8
9
13
44
19
11
27
10
8
9
13
44
18
11
27
10
8
9
13
43
18
11
27
10
8
9
13
43
18
12
26
10
8
9
13
43
18
12
26
9
8
9
13
43
18
12
27
9
8
9
13
43
18
12
26
9
8
9
13
43
19
12
26
9
8
9
13
41
19
12
26
9
8
10
13
41
18
11
26
9
8
10
13
41
18
11
26
9
8
10
13
41
18
11
26
9
8
9
13
41
18
11
25
9
8
9
13
40
18
11
26
10
7
9
13
41
18
10
26
11
7
9
13
41
18
10
25
11
7
9
13
41
18
10
25
11
7
9
14
41
18
10
24
11
7
9
14
41
18
10
24
10
7
8
14
41
18
10
24
10
7
8
15
41
18
10
24
10
7
8
15
41
18
11
24
10
7
8
15
40
18
11
24
10
7
8
15
39
17
11
25
9
7
8
15
40
18
11
25
9
7
8
15
40
18
11
25
9
7
8
15
40
18
11
25
10
7
8
15
40
18
11
25
10
6
8
15
40
18
12
23
10
7
8
16
40
19
12
23
9
6
8
16
40
19
12
23
10
6
8
16
36
19
12
22
9
6
7
15
36
19
11
22
9
6
7
15
35
19
11
22
9
6
7
15
35
19
11
22
9
6
7
15
36
19
12
22
9
6
7
15
37
21
12
22
9
6
7
15
37
22
12
22
10
6
7
15
36
22
12
22
10
6
7
15
36
22
12
22
9
6
7
14
33
22
12
22
9
6
7
13
30
22
11
22
10
6
7
13
30
21
11
22
10
6
7
13
30
21
11
22
10
6
7
13
31
21
11
22
10
6
8
13
30
21
11
22
10
6
8
13
31
22
11
23
9
6
8
13
32
21
11
23
10
6
8
13
32
20
11
23
10
6
8
13
31
20
11
23
10
6
8
13
31
20
11
23
10
6
8
13
31
20
11
23
10
6
8
14
31
20
11
25
10
6
8
13
32
20
11
25
10
6
8
13
31
22
11
24
10
6
7
13
31
22
11
24
10
6
7
13
31
22
11
23
10
6
7
13
32
22
11
24
10
6
7
13
32
22
11
23
10
6
7
13
32
22
11
23
10
6
7
13
32
22
12
23
10
6
7
13
32
22
12
22
10
6
7
13
32
22
12
23
10
6
7
13
32
22
12
22
9
6
7
13
31
22
12
22
8
6
7
14
31
23
12
22
8
6
7
14
31
23
13
22
8
6
7
13
31
23
12
21
8
6
7
13
31
22
12
21
8
5
7
13
32
22
12
21
8
5
7
12
31
22
12
21
8
6
7
12
31
22
12
21
8
6
7
12
32
22
12
21
8
6
7
12
32
22
12
20
8
6
7
12
32
22
12
19
8
6
7
13
32
22
12
19
8
5
7
13
32
22
12
19
7
6
7
13
33
22
12
19
7
6
7
13
33
22
12
19
7
5
7
13
34
21
12
19
7
6
7
12
34
22
12
19
7
5
7
12
34
22
12
19
7
6
7
12
34
22
12
19
7
6
7
13
34
22
12
19
7
6
8
13
34
23
12
19
7
7
8
13
33
23
11
19
7
7
8
13
31
21
11
20
7
7
8
13
32
20
11
20
7
7
8
13
32
20
11
21
7
7
8
13
32
20
11
20
7
7
8
13
33
20
11
20
7
7
8
13
33
20
11
19
7
7
8
13
32
20
11
19
7
7
8
13
33
20
11
19
8
7
8
13
33
20
11
19
8
7
8
13
33
20
11
20
8
7
8
13
34
20
11
20
8
7
8
13
33
20
11
19
8
7
8
13
32
19
11
19
8
7
8
13
32
19
11
19
7
7
8
13
32
19
11
19
7
7
8
13
32
19
12
19
7
7
8
12
32
19
12
16
7
7
8
12
31
19
11
16
7
7
8
12
31
16
11
16
7
7
8
12
31
16
11
16
7
7
8
12
30
16
11
16
7
7
8
12
30
15
11
16
7
7
8
12
30
15
11
16
7
7
8
12
29
15
11
16
7
7
8
12
29
15
10
16
7
7
8
12
28
15
10
16
7
6
8
11
28
15
10
16
7
6
8
11
28
15
10
16
7
6
7
11
28
14
10
15
7
7
7
10
28
14
10
15
7
7
7
10
28
14
9
15
7
7
7
10
28
14
9
15
7
7
7
10
27
14
9
15
7
7
7
10
27
14
9
15
6
7
7
10
27
14
9
14
6
7
7
10
27
14
8
14
6
7
7
10
26
14
8
14
6
7
7
10
26
14
8
14
6
7
7
9
25
14
8
14
6
7
7
9
25
13
8
14
6
6
7
8
25
13
7
14
6
6
7
8
24
13
7
13
6
7
7
8
24
13
7
13
6
8
7
8
22
13
7
13
6
8
7
7
22
12
7
13
6
8
7
7
21
11
8
13
6
8
7
7
21
11
8
12
6
8
7
6
21
10
8
12
6
8
6
6
21
9
9
12
6
7
6
5
21
9
9
12
6
7
6
5
21
9
9
10
6
8
6
5
20
8
10
9
5
7
6
5
20
8
10
8
5
8
6
5
19
7
11
8
5
8
6
5
19
7
11
8
5
8
6
5
18
7
15
8
5
10
8
5
18
7
15
8
5
10
8
5
17
7
15
8
3
10
8
5
16
6
16
7
3
10
8
5
14
6
16
5
3
11
9
5
9
6
17
6
3
11
9
4
9
6
17
7
3
11
9
4
9
7
18
8
3
11
9
5
9
7
20
9
3
11
9
5
7
6
19
9
4
11
9
5
6
6
19
9
4
12
10
5
6
6
19
9
4
13
10
5
6
6
19
9
4
13
10
5
6
6
19
9
4
13
10
5
6
7
19
9
4
13
10
5
6
8
23
11
5
14
10
5
6
8
23
11
5
14
10
5
6
8
23
11
5
14
10
5
6
8
23
11
5
14
10
5
5
8
23
12
5
14
10
5
5
8
24
12
5
14
11
5
5
8
27
12
5
14
11
5
6
8
30
13
5
14
12
6
6
8
30
13
5
14
12
6
5
9
30
14
5
14
12
6
5
9
30
14
5
14
12
6
5
9
30
14
5
14
12
6
5
9
31
15
5
14
12
6
5
9
33
16
6
15
13
6
5
9
33
17
6
15
13
6
5
9
35
17
6
15
13
6
5
9
35
17
6
15
13
6
5
9
36
17
6
15
13
6
5
9
36
17
6
15
13
6
5
9
36
17
6
15
13
6
5
9
37
18
6
15
13
6
5
10
37
18
6
15
13
6
6
11
38
18
7
14
13
6
6
11
39
19
7
14
13
6
6
11
40
19
7
15
13
6
6
11
40
19
7
15
13
6
6
11
40
19
7
14
13
6
6
11
40
19
7
14
13
6
6
11
41
20
7
14
13
6
6
11
41
20
7
14
13
6
6
12
42
20
7
14
13
6
6
12
41
20
7
14
13
6
6
12
41
20
7
14
13
6
6
12
41
20
7
14
13
5
6
12
41
20
7
14
13
6
6
12
40
20
7
13
11
5
6
12
40
20
7
13
11
5
6
12
40
20
7
13
12
5
6
12
40
20
7
13
12
5
6
12
41
20
7
13
11
5
6
12
41
20
7
13
11
5
6
12
40
20
7
13
11
5
6
12
40
20
7
13
11
5
6
12
40
20
7
13
11
5
6
11
40
20
7
13
11
5
6
12
40
20
7
12
10
5
6
12
40
20
7
10
10
4
6
11
40
20
7
10
10
4
6
11
40
20
7
10
10
4
6
11
40
20
7
10
10
4
5
10
38
19
6
10
10
4
5
10
38
19
7
10
10
4
5
11
38
19
7
10
10
4
5
10
39
19
7
10
10
4
5
11
39
20
7
10
10
4
5
12
39
20
7
10
10
4
5
12
37
20
7
10
9
4
5
12
35
20
7
9
8
3
5
11
34
19
7
9
8
3
5
11
34
19
7
9
8
3
5
11
35
19
7
9
8
3
5
11
35
19
7
9
8
3
5
11
34
18
7
9
8
3
5
11
32
17
7
8
7
2
5
11
32
17
7
8
7
2
5
11
30
16
7
8
7
2
5
11
30
16
7
8
7
2
5
11
29
16
7
8
7
2
5
11
29
16
7
8
7
2
5
11
29
16
7
8
7
2
5
11
28
16
7
8
7
2
4
10
28
16
6
7
7
2
4
9
27
15
6
7
6
2
4
9
26
15
6
7
6
2
4
8
23
15
6
7
6
2
4
8
23
15
6
6
6
2
4
8
23
15
6
6
6
2
4
8
23
14
5
6
6
2
4
8
22
13
5
6
6
2
4
8
22
13
6
6
6
2
5
8
21
13
6
6
6
2
5
8
20
13
6
6
6
2
4
8
20
13
6
6
6
1
5
8
20
13
6
6
6
1
5
8
20
13
6
6
6
1
5
8
20
13
6
5
6
1
5
7
19
13
6
5
5
1
5
7
19
13
6
4
4
1
5
7
19
13
6
4
4
1
5
7
18
13
6
4
4
1
5
7
17
13
6
4
4
1
5
7
17
13
6
4
3
1
5
7
16
12
5
4
3
1
5
7
16
12
6
3
3
1
5
7
16
13
6
4
3
1
5
7
15
13
6
4
3
1
6
6
15
12
6
4
3
1
6
7
15
12
6
4
3
1
6
7
15
12
6
4
3
1
6
7
15
12
6
4
3
1
6
6
15
12
6
4
3
1
6
6
15
13
6
3
3
1
7
6
15
13
6
3
3
1
7
6
15
12
6
3
3
1
9
6
15
12
6
3
3
2
10
3
13
11
6
3
3
1
10
3
13
11
6
3
3
1
10
3
14
11
5
3
2
1
10
3
14
10
5
3
2
1
11
3
13
11
5
3
2
1
11
3
13
10
5
3
2
1
11
3
13
11
5
2
2
1
11
3
13
11
5
2
2
1
11
3
13
11
5
2
2
2
11
3
13
11
6
2
2
2
11
4
13
12
6
2
2
2
11
4
13
12
6
2
2
2
11
4
13
14
7
3
2
2
12
5
13
14
7
3
2
2
12
5
13
14
7
3
2
3
13
5
13
14
7
3
2
3
15
5
13
14
7
3
2
3
15
5
13
15
7
3
2
3
16
5
13
15
7
3
3
3
19
5
13
15
7
3
3
3
26
7
13
15
7
3
3
4
26
8
13
16
7
3
3
5
26
8
13
16
7
3
3
5
26
8
13
16
7
3
3
5
26
11
13
16
7
3
3
5
29
13
14
16
8
3
3
5
30
14
14
16
8
4
3
5
32
14
14
16
8
4
3
5
34
14
14
16
8
4
3
5
33
15
14
17
8
4
3
6
35
15
15
17
8
4
3
6
35
15
15
18
8
4
3
6
38
15
16
21
9
4
3
7
38
17
16
21
9
4
3
7
38
17
16
22
9
4
3
7
41
19
16
22
9
4
4
7
41
19
16
22
9
4
4
7
42
20
16
23
9
4
4
7
44
20
16
23
9
4
5
8
45
20
16
23
9
5
5
8
46
21
16
24
9
5
5
9
46
22
16
24
9
6
5
9
48
22
16
24
9
6
5
9
50
24
17
23
9
6
6
9
51
26
16
24
9
7
8
9
51
26
16
24
10
7
8
9
51
26
16
24
10
7
8
10
52
27
16
24
10
7
9
10
54
27
16
24
10
7
10
11
56
27
16
25
10
7
10
11
56
27
16
25
10
11
11
11
57
28
18
26
10
16
14
12
57
28
18
26
11
16
14
13
59
28
18
27
11
16
14
15
60
28
18
28
11
16
14
15
62
28
19
28
11
17
15
16
62
28
19
28
11
17
15
16
63
30
19
28
11
17
15
16
63
30
19
30
11
17
15
16
63
30
19
30
11
17
15
16
63
30
19
30
12
17
15
16
66
30
19
30
12
17
15
16
66
30
19
30
11
17
15
16
67
30
19
30
11
17
15
16
68
30
19
30
11
17
15
16
68
30
19
30
11
17
15
16
68
30
19
29
11
17
15
16
68
30
20
29
11
17
15
17
70
31
20
30
12
17
15
17
70
31
21
31
12
17
15
18
68
31
20
31
12
17
15
18
68
31
20
31
12
17
15
18
68
31
21
31
12
17
15
18
68
31
21
31
12
17
15
18
68
30
21
31
12
17
16
18
67
29
21
31
12
17
16
18
68
29
21
31
12
17
16
19
68
29
22
31
12
17
17
19
67
29
22
32
12
18
18
20
67
29
22
32
12
18
18
20
67
29
21
35
13
18
18
21
67
30
21
34
13
18
18
22
65
30
21
33
12
18
18
23
65
29
21
33
12
19
18
22
65
29
21
33
12
19
18
23
64
29
21
33
12
19
18
23
64
29
21
33
12
19
18
23
63
28
21
32
12
19
18
23
62
28
22
32
12
19
18
23
61
29
22
32
12
19
18
23
64
29
22
32
12
19
18
23
64
28
22
32
12
18
18
23
63
28
22
32
12
18
18
24
63
27
22
32
12
18
18
24
62
25
22
32
12
18
17
24
63
25
22
32
11
18
17
24
63
25
22
32
11
18
17
24
63
25
21
31
11
18
16
24
61
25
21
31
12
18
16
23
60
26
22
31
12
18
16
23
60
26
22
31
12
16
15
23
61
25
20
31
13
11
13
23
61
25
20
30
12
11
13
23
59
26
20
30
12
11
13
21
58
26
19
30
12
11
12
21
57
26
19
30
12
10
12
21
58
26
19
30
12
10
12
21
58
24
19
29
12
11
12
21
58
24
19
27
12
11
12
21
59
24
19
27
12
11
12
21
58
24
19
28
12
11
12
21
57
24
19
28
11
11
12
21
56
24
18
27
11
11
13
21
55
24
18
27
11
11
13
21
55
24
18
27
11
11
13
21
54
24
18
27
11
11
12
21
54
24
19
27
11
11
12
21
54
24
18
27
11
11
12
21
51
23
17
26
11
11
12
20
51
22
17
27
11
11
12
20
51
22
17
27
11
11
12
20
51
22
17
27
11
11
12
19
51
22
17
27
11
11
12
19
52
23
17
27
11
11
12
19
52
23
17
27
11
10
12
19
52
23
16
27
11
10
13
19
50
23
15
26
10
10
13
19
50
23
15
26
10
10
12
18
50
23
15
25
10
9
11
17
49
23
14
25
10
8
11
17
50
22
15
22
9
9
11
17
50
21
15
22
10
9
11
14
51
21
15
20
10
9
11
14
51
21
15
20
10
9
11
14
50
22
14
20
10
9
11
13
51
21
14
20
10
8
11
13
52
21
15
20
10
8
11
14
51
21
15
20
10
8
11
14
52
21
15
20
10
8
11
14
52
21
15
19
10
8
11
14
49
21
15
20
10
9
11
14
49
20
14
20
10
9
11
14
48
20
14
20
11
9
11
12
48
20
15
20
11
9
12
12
47
20
15
21
11
9
12
11
47
20
15
22
11
10
12
12
48
20
15
22
11
10
12
11
47
19
16
22
11
10
12
12
46
18
16
22
11
10
12
12
46
19
15
21
10
10
12
12
46
19
15
21
10
10
12
12
46
19
16
25
10
10
12
12
46
20
16
26
10
10
12
12
45
20
16
27
10
10
12
12
45
21
16
26
10
10
12
12
45
21
17
26
10
10
12
13
44
21
17
26
10
10
12
13
43
21
17
27
10
10
12
13
42
21
17
27
10
9
12
13
42
21
17
27
10
9
13
13
42
21
17
26
10
10
13
13
40
21
17
26
10
10
13
13
40
22
17
27
10
10
13
13
40
22
17
28
10
10
13
13
40
22
17
28
10
10
13
13
40
22
17
28
9
10
13
13
40
22
17
28
9
10
13
13
40
22
17
29
9
10
14
13
40
22
17
28
9
10
14
13
40
22
17
27
9
9
14
13
40
24
18
28
9
9
14
13
42
24
17
29
9
9
14
13
42
24
17
29
10
9
14
13
41
24
17
29
10
9
14
13
40
24
17
29
10
9
13
13
42
24
18
30
10
10
13
12
42
24
18
30
10
10
12
14
42
24
18
29
10
10
12
15
45
24
18
30
10
10
12
14
45
24
18
30
10
9
13
15
44
24
18
30
10
9
13
15
45
24
18
30
10
9
13
15
44
25
18
30
10
9
13
15
44
25
18
30
10
10
13
15
44
24
19
31
11
10
13
15
43
24
19
34
11
10
13
15
42
24
19
34
11
9
13
15
42
24
19
34
11
9
12
14
42
23
17
34
11
9
13
14
42
23
17
34
12
9
12
14
42
23
18
34
12
9
12
14
42
25
18
34
12
9
13
15
42
25
18
34
12
9
13
15
41
25
18
34
12
9
12
15
43
25
18
34
12
9
12
15
41
25
18
33
12
8
12
15
40
25
18
33
12
8
12
15
42
25
17
33
12
8
12
15
42
25
17
33
12
8
13
15
42
25
17
33
12
8
13
15
41
25
17
33
12
8
13
15
40
24
17
31
12
8
13
14
40
24
16
31
13
8
13
14
40
23
16
31
13
8
13
14
40
23
16
32
13
8
13
14
40
23
16
32
13
8
13
14
41
23
17
32
13
8
13
14
41
23
17
32
13
8
13
14
41
23
17
32
13
8
13
14
41
23
17
32
13
8
12
14
42
23
17
32
13
7
13
15
41
23
17
32
13
7
13
15
41
22
17
31
13
7
13
15
41
22
17
30
14
8
13
15
41
22
17
30
13
8
13
15
42
22
17
30
14
8
13
15
42
23
17
31
14
8
13
15
42
22
17
31
14
8
12
15
42
23
17
31
14
8
12
15
42
23
17
31
14
8
12
15
41
21
16
31
15
8
12
15
39
21
16
31
15
8
12
15
39
22
16
31
14
8
12
15
39
22
16
31
14
8
12
15
40
21
16
31
15
8
12
15
39
21
16
30
14
7
11
15
38
21
16
30
14
7
12
14
38
21
16
31
14
7
11
13
35
21
16
30
14
7
11
13
35
21
16
30
14
8
11
13
37
22
15
30
14
8
11
13
37
22
15
30
14
8
11
13
37
21
15
29
14
8
11
14
38
21
15
30
14
8
11
14
38
21
14
28
13
7
12
14
38
21
14
25
12
8
11
15
38
21
14
25
13
8
12
15
38
21
14
25
13
8
12
15
39
22
14
25
12
7
12
15
38
22
14
24
12
7
12
15
38
22
12
24
12
7
12
15
39
20
12
24
12
7
11
15
40
20
12
24
12
7
11
15
40
20
12
24
12
7
11
15
39
20
12
24
12
7
11
15
39
20
12
24
12
7
11
15
39
20
12
24
12
7
11
15
37
20
12
24
12
8
11
15
38
20
12
24
12
8
11
15
38
20
12
24
12
8
11
15
38
20
12
24
12
7
11
14
37
20
12
23
11
7
11
14
37
20
12
22
10
7
11
14
37
20
12
21
10
7
11
14
37
19
12
21
10
7
11
14
37
19
12
20
10
7
11
14
36
19
11
19
10
7
10
14
35
19
11
19
10
8
10
14
35
19
11
19
10
8
10
14
35
19
11
19
10
8
10
14
34
19
10
19
10
8
9
12
34
19
11
19
10
8
10
12
34
18
11
19
10
8
10
12
34
18
11
19
9
8
9
12
33
18
11
19
9
8
9
12
33
18
11
18
9
8
9
12
33
18
11
17
9
8
9
12
33
19
11
17
9
7
9
12
33
18
11
17
9
7
9
12
33
18
11
17
8
7
9
12
33
18
11
14
7
7
10
12
34
17
10
14
7
7
10
12
34
17
11
13
7
7
10
12
33
17
10
13
7
8
10
12
32
17
10
13
7
8
10
12
32
16
10
13
7
8
10
12
31
16
10
13
7
8
10
11
31
16
10
12
7
8
10
11
31
16
10
12
7
8
10
11
31
16
10
12
6
8
10
11
29
15
10
12
6
8
10
11
28
14
10
12
6
8
10
11
27
14
10
12
6
8
9
10
26
14
9
12
6
7
9
10
25
14
9
12
6
8
8
9
25
14
9
12
6
7
8
8
25
14
9
11
6
7
8
8
24
14
9
11
6
7
8
8
23
13
9
11
5
7
8
7
23
13
9
11
5
7
8
6
22
12
9
10
5
7
8
6
21
12
9
10
5
7
8
6
19
12
9
10
5
7
7
6
18
11
8
10
5
7
7
6
18
11
8
9
5
7
7
6
18
11
8
9
4
7
7
6
18
11
8
9
4
7
7
5
17
11
8
9
4
7
7
4
13
10
8
9
4
6
7
4
13
10
8
9
4
6
6
4
13
10
7
9
4
6
6
4
13
9
8
9
4
6
6
4
13
9
8
8
4
6
6
4
13
9
8
8
4
6
6
3
13
8
8
7
3
6
6
3
13
8
9
7
3
6
6
3
12
8
8
7
3
6
6
3
12
8
8
6
3
6
6
3
12
7
9
6
3
6
6
3
12
7
9
6
3
6
6
3
12
7
9
6
3
6
6
3
12
7
9
6
3
6
6
3
12
7
8
6
3
6
6
3
12
7
8
6
3
6
6
3
12
6
8
4
3
6
7
3
12
6
10
4
2
7
7
3
11
5
10
5
3
7
8
3
11
5
10
5
3
7
9
3
10
6
10
5
3
7
9
3
10
7
10
5
3
7
9
3
8
8
10
5
3
7
9
3
5
8
13
5
3
7
9
3
5
8
13
6
3
7
9
3
5
8
15
6
3
7
8
3
5
8
15
5
3
6
9
3
5
8
15
5
3
6
8
3
5
8
16
5
3
7
9
3
5
8
18
6
4
7
8
3
5
8
19
6
4
10
13
3
5
8
20
6
4
16
16
3
5
8
21
8
4
16
16
3
5
8
21
8
4
16
16
3
5
9
22
8
5
17
16
3
5
9
22
9
5
18
17
3
5
9
22
9
5
18
17
3
5
9
23
9
5
18
17
4
5
9
29
9
5
18
17
4
5
9
30
9
5
18
18
4
5
9
31
9
5
18
18
4
5
9
31
9
5
18
18
4
5
9
31
9
5
18
18
4
5
10
31
9
5
18
18
4
5
11
31
10
5
18
18
4
5
11
31
10
6
18
18
4
5
11
31
10
6
18
18
4
5
12
32
12
6
18
18
4
5
12
32
12
6
18
18
4
5
14
33
13
6
18
18
4
5
14
35
14
6
18
18
4
5
14
35
15
6
18
18
4
5
14
37
16
6
18
18
4
6
14
37
16
6
18
18
4
5
14
37
16
6
18
18
4
5
14
37
16
6
18
18
4
6
14
38
16
6
18
18
4
6
14
38
16
6
18
18
5
6
14
38
16
6
18
18
5
6
14
38
16
6
18
18
5
6
14
38
16
6
18
18
4
6
15
38
16
6
18
18
4
6
15
38
16
6
18
18
4
6
16
42
17
7
18
18
4
6
16
42
18
7
18
18
4
6
16
42
18
7
18
18
4
6
16
43
18
7
18
18
4
6
16
42
18
7
18
18
4
6
16
43
18
7
18
17
4
6
16
44
18
7
18
17
4
6
15
44
18
7
18
17
4
5
15
44
18
7
18
17
4
5
14
44
18
7
18
17
4
5
14
44
18
7
18
17
4
5
14
44
18
7
18
17
4
5
14
43
18
7
18
17
4
5
14
43
18
7
18
17
4
5
14
43
18
7
18
17
4
5
14
43
18
7
18
17
4
5
14
43
18
7
18
17
4
5
14
42
17
6
16
13
4
5
14
42
17
6
10
10
4
5
14
41
17
6
10
10
4
5
14
41
17
6
10
9
3
5
14
41
17
6
10
9
3
5
14
41
16
6
7
7
3
5
13
41
16
6
7
6
3
5
13
40
16
6
7
6
3
5
13
36
16
6
7
6
3
5
13
35
16
6
7
6
3
5
13
35
16
6
8
6
3
5
13
35
16
6
8
6
3
4
13
35
16
6
8
5
3
4
13
35
16
6
8
5
3
4
12
35
16
5
8
5
3
4
12
35
16
5
8
5
3
4
12
35
16
5
8
4
3
4
11
35
15
4
8
4
3
4
10
34
14
4
8
4
3
4
8
33
13
4
7
4
3
4
8
32
13
4
7
4
3
4
8
31
12
4
7
4
3
3
7
29
10
4
7
3
3
3
7
29
10
4
7
3
3
3
7
29
10
4
7
3
2
3
7
29
10
4
7
3
2
3
7
29
10
4
7
3
2
3
7
29
10
4
7
3
1
3
7
28
10
4
7
3
1
3
7
28
10
4
7
3
1
3
7
28
10
4
7
3
1
3
7
27
10
4
7
3
1
3
7
27
10
4
7
3
1
2
4
22
7
3
6
3
1
2
4
22
6
3
6
3
1
2
4
21
6
3
6
3
1
2
4
20
6
3
7
3
1
2
4
20
6
3
7
3
1
2
4
19
6
3
7
3
1
2
4
17
6
3
7
3
1
2
4
16
5
3
7
3
1
2
4
16
5
3
7
3
1
2
3
15
5
3
7
3
1
1
3
16
5
3
6
3
1
2
3
15
5
3
6
3
1
2
3
16
5
3
6
3
1
1
3
15
5
3
6
3
1
1
3
15
5
3
6
3
1
1
3
13
5
3
6
3
1
1
3
13
5
3
6
3
1
1
3
13
5
3
6
3
1
1
3
13
5
3
6
3
1
1
3
13
5
3
6
3
1
2
3
14
5
3
6
3
1
2
3
14
5
3
6
3
1
2
3
14
5
3
6
3
1
2
3
14
5
3
6
3
1
2
3
14
5
3
6
3
2
2
3
14
5
3
6
4
2
2
3
15
5
3
6
4
2
2
3
15
5
3
5
4
2
2
3
15
5
3
5
4
2
2
3
15
5
3
4
4
2
2
3
15
5
3
4
4
2
2
3
15
5
3
4
4
2
2
3
14
5
3
4
4
2
2
4
13
5
3
4
4
2
2
4
13
5
3
4
4
2
2
4
15
5
3
4
4
2
2
4
15
5
3
4
4
2
2
4
15
5
3
4
4
2
2
4
16
5
3
4
4
2
2
4
16
5
3
4
4
2
2
4
16
5
3
4
4
2
2
4
16
5
3
4
4
2
2
4
16
5
3
4
4
2
2
4
16
5
3
4
4
2
2
4
17
5
3
4
4
2
2
4
17
5
3
4
4
2
2
4
16
5
3
4
4
2
2
4
16
5
3
4
4
2
2
4
16
5
3
4
4
2
2
4
16
5
3
4
5
2
2
4
16
5
3
4
5
2
2
4
16
5
3
4
5
2
2
4
16
6
3
4
5
2
2
4
16
6
3
4
5
2
2
4
16
6
3
4
5
2
2
4
16
6
3
4
5
2
2
4
17
6
3
3
5
2
2
4
17
6
3
3
5
2
2
4
18
6
3
3
5
2
2
4
18
6
3
3
5
2
2
4
18
6
3
3
5
2
2
4
18
6
3
3
5
2
2
4
18
6
3
3
4
2
2
4
18
6
3
3
5
2
2
4
17
5
3
3
4
2
2
4
17
5
3
3
4
2
2
4
18
5
3
3
4
2
2
4
18
5
3
3
4
2
2
4
18
5
3
3
4
2
2
4
18
5
3
3
5
2
2
4
17
5
3
3
5
2
2
4
17
5
3
3
5
2
2
4
18
5
3
3
5
2
2
4
17
5
2
3
5
2
2
4
17
5
3
3
5
1
2
4
17
5
2
3
4
1
2
4
17
5
2
3
4
1
2
4
17
5
2
3
4
1
2
4
17
5
2
3
4
1
2
4
17
5
2
3
4
1
2
4
17
5
2
3
3
1
2
4
17
5
2
3
3
1
1
4
17
5
3
3
3
1
1
3
17
4
2
3
3
1
1
3
17
4
2
3
3
1
1
3
16
4
2
3
3
1
1
3
15
4
2
3
3
1
1
3
15
4
2
3
3
1