0
3
-43
-4
-3
-6
2
1
-3
-14
21
5
0
10
1
-1
-2
3
7
1
-3
-11
-2
-6
-1
-5
3
2
1
6
-5
-3
0
3
-8
0
3
-2
4
1
3
3
1
5
3
9
1
0
-1
0
3
-2
-5
-8
-1
2
0
-2
-19
-6
-4
-6
-5
-3
0
3
19
7
6
11
5
1
-2
3
-12
-6
-2
1
0
-1
-2
-5
6
4
0
-11
-2
-2
-3
2
-18
-9
-4
3
-5
-3
0
8
19
0
2
4
2
3
1
-2
-28
-10
-2
-6
2
0
-10
-30
-1
3
2
0
-4
-2
-3
-5
-9
-1
-5
-8
-1
-1
-1
-6
-11
-3
-1
-11
6
1
3
20
56
6
3
13
-9
-7
-1
4
-25
-3
0
-5
0
1
-2
-13
-6
-1
-3
3
0
2
-3
-2
4
1
-6
1
-4
-5
2
-2
-14
-2
2
-4
0
0
1
2
10
1
4
8
3
-2
-4
-1
-38
-8
-3
-4
-1
-3
-3
-7
2
-3
-7
-7
3
8
-1
-6
-28
-6
-6
-12
-14
-5
2
4
4
6
5
11
2
-2
0
0
14
3
6
5
2
-1
1
6
-7
0
1
0
3
1
0
2
14
3
-1
0
2
0
-1
-3
-14
-7
-5
-5
-4
1
0
0
5
-2
-1
-4
-1
1
0
-1
-8
-2
-2
1
-1
-3
-2
-5
3
0
-5
-5
1
-1
3
14
15
11
2
-2
-3
0
-2
2
-11
1
4
4
1
1
-2
-2
13
1
0
-3
-6
-3
-2
2
8
-3
-3
-3
3
2
2
1
19
2
-2
-4
0
1
0
-1
-15
-6
-6
-6
-3
-1
-2
6
0
-3
-5
6
-1
-1
-3
-14
-25
3
7
-1
1
-3
2
3
29
-1
3
-2
-2
-1
-4
-11
-13
-6
-2
-1
-2
-3
2
-2
7
-2
1
-5
-2
0
3
14
-3
2
-3
-1
3
1
-3
-5
-10
-11
-9
2
1
0
-1
3
15
9
0
0
-7
-1
0
2
3
3
5
-2
-2
0
-1
-8
-3
1
-4
-1
0
-1
0
1
-3
1
6
3
1
-1
0
1
-1
-8
-5
-6
-1
1
-3
-14
-24
-8
-5
2
-1
-3
-2
-4
3
0
2
-2
-1
0
2
7
5
4
2
6
1
0
-2
0
14
0
-1
-1
0
-2
-1
-1
-6
1
2
-1
-1
-1
0
-2
-4
-1
-1
0
0
-1
0
-2
-19
-4
-3
-1
-1
-2
-3
-1
11
2
-1
1
-1
-1
0
-1
-8
-1
0
-3
-1
-1
1
5
21
0
-2
0
-1
-2
0
-2
-1
4
0
1
0
0
2
1
-16
-4
2
4
1
-2
0
1
27
3
0
-2
-2
-1
-2
2
6
-2
-1
-3
-1
-1
-2
-3
-8
-5
-1
0
0
-1
-1
-1
-17
-4
-2
-2
-1
0
1
-1
-5
0
-1
1
1
-1
1
2
5
1
-1
2
-1
-1
2
4
32
3
5
0
2
-2
-2
-3
-43
-1
-2
-3
-1
-1
-3
5
9
-2
-5
-6
-2
1
-1
-9
-10
1
-1
4
-2
-1
-1
-4
-2
-4
-1
-2
0
1
3
1
4
3
1
-3
0
-3
0
1
1
0
1
1
-1
-3
-1
1
-10
-2
-3
-6
-2
-2
-1
-2
-3
-1
0
0
3
3
-2
4
17
0
1
-8
-9
-15
-3
-19
-11
2
-6
5
4
7
-3
3
-2
-2
3
11
3
-11
-7
0
-5
-3
-2
7
8
-6
7
18
70
5
-2
-8
-14
0
-6
-18
-71
-8
-3
-3
-1
-6
-3
-1
-24
-4
-1
0
3
-4
5
21
31
7
-3
-1
4
22
-2
-16
1
-3
-6
-25
-1
0
-1
18
39
7
6
19
1
-13
7
4
-9
1
1
5
8
20
-12
-54
29
11
9
-4
0
-25
-2
20
-24
-9
-9
2
-2
-2
1
8
-3
-11
-7
-18
10
5
13
-32
-32
-1
-10
-1
33
26
-2
81
39
12
6
9
-22
-3
19
-65
27
9
3
-13
-5
-20
34
81
95
46
34
34
16
78
6
-5
-21
-44
-22
-3
-26
-121
1
7
57
10
-11
-30
16
109
-3
63
60
24
35
49
10
-17
-25
-83
-87
-81
-41
-61
-102
-104
-22
28
127
55
-22
-98
5
127
5
-31
-98
0
18
35
74
-34
20
65
62
-3
-14
42
-37
-56
0
-65
19
-5
34
30
11
92
-18
42
24
1
21
85
83
-35
-80
-119
-60
-2
-63
-116
-128
-38
4
-36
-25
11
30
40
43
1
76
111
91
19
-35
-5
59
-45
-99
-31
-128
-22
-4
39
-68
-87
-6
23
18
-6
-4
-25
4
-34
47
127
80
26
5
-3
40
105
-56
-128
-26
-56
-13
-23
-66
-119
95
7
66
-5
17
2
6
31
78
127
-21
13
30
48
50
-20
-116
-128
-81
-42
-67
-73
-79
-11
30
92
-96
12
44
58
43
52
66
118
127
46
-17
-59
-31
-57
-20
-109
-73
-51
15
25
-13
-33
-67
-92
-63
-26
-10
-20
5
-22
-24
78
108
61
-37
-23
8
54
28
-57
-97
-4
14
15
-5
28
51
92
78
-35
25
19
21
62
-41
47
43
34
-13
0
22
-37
-8
-35
-37
39
8
-11
-4
-6
5
-2
90
-39
5
4
-5
76
-22
-34
-39
16
2
12
4
-37
46
47
40
-29
28
16
39
-8
-39
-45
-11
-28
-45
-17
-28
-3
-21
-15
28
36
7
-5
-8
42
21
-20
6
-29
-6
6
23
45
27
123
113
31
-9
-27
-22
-1
10
-35
-10
5
21
47
74
21
-22
11
17
-36
-10
-29
-96
-84
-30
-81
-69
10
-2
17
28
-25
40
42
-13
-15
8
-5
1
33
-31
-5
4
-21
-5
33
29
-26
26
76
-75
-15
16
-37
-10
7
-49
-77
83
34
-21
-15
-27
25
43
42
-3
32
16
12
18
20
7
49
-5
-4
-9
-17
-13
7
11
-11
-85
-6
5
27
58
88
8
7
-2
6
-10
-17
-81
-65
35
-16
-51
-38
20
14
8
1
-44
29
77
55
-7
-11
-31
-23
-21
-5
-110
-23
-11
0
28
-35
36
74
95
5
-3
-5
9
12
-27
-108
-108
-4
1
14
7
27
33
31
2
-23
16
-14
-34
-33
-1
-2
74
43
-9
-5
19
36
-25
13
-59
-22
5
13
3
37
-11
31
50
18
-12
-3
10
-82
11
-9
-24
5
19
18
50
21
-47
-86
6
-6
-18
-27
-73
-54
25
39
-27
-2
-7
8
32
37
-21
-19
-62
-25
0
-5
-15
2
30
1
40
-13
3
-18
-12
13
1
-47
-37
-43
-3
34
67
-36
4
-12
70
40
2
22
-1
7
14
33
-14
-1
6
-3
-40
25
-20
-13
-69
-45
-19
-39
-9
24
23
34
109
51
14
15
6
-23
-42
31
-5
5
2
-13
-7
-30
2
-63
-53
-43
-25
11
56
37
3
-56
105
11
-8
-7
-78
-19
-9
-1
-88
-35
8
1
7
2
-7
40
89
33
1
-6
12
18
-10
-8
-21
-1
2
19
-27
-66
-2
-27
-39
-7
0
-23
-2
0
-5
-9
-83
-24
-8
0
-10
6
58
78
62
12
-9
0
4
2
-10
-54
-114
-18
3
1
-5
13
29
66
57
29
4
2
14
23
-38
-73
-48
-16
-1
1
3
19
26
92
-69
-31
1
38
61
30
-14
-21
-25
-3
-16
-81
-97
19
12
-8
55
18
9
11
35
-10
-7
73
6
19
-6
-1
-10
0
17
-24
-42
-24
12
10
26
12
-29
-58
23
11
-16
7
26
-11
-23
-18
0
-4
16
7
-5
0
15
-8
-75
-27
0
-4
-1
-15
-27
13
42
30
-12
-4
-10
2
29
60
73
9
0
4
12
22
-28
-35
-64
-4
9
-22
-48
-20
9
49
94
40
25
32
25
-14
-35
-128
-85
-68
-34
-35
-51
-10
9
-17
86
28
11
13
45
13
-15
25
-109
-2
-18
-9
-36
-8
-14
8
127
27
3
1
6
-77
48
-64
-113
-32
5
9
-28
-7
-20
85
120
27
-5
-10
-5
-8
28
-21
-49
-15
14
28
25
28
-23
-23
0
-6
-15
-35
-26
2
31
22
58
25
-4
1
23
-4
-28
-69
-43
-19
12
14
29
23
24
28
63
50
7
4
4
-5
8
107
9
-5
-2
7
16
29
-53
-52
-19
20
12
17
4
-24
10
-23
-70
-49
-3
-44
-62
-5
25
118
105
12
-11
4
68
0
0
-128
-39
8
2
5
-37
-1
-17
53
64
-3
-16
-9
10
-35
-21
-21
-15
14
9
27
-8
-13
21
-34
-56
-42
-5
-17
-2
10
5
-17
27
-6
0
-19
-14
16
-8
91
86
46
11
-4
-7
4
21
8
27
-2
-1
38
49
63
-36
-10
0
-18
-7
-24
-16
14
-1
-27
-93
-20
-5
8
13
10
-7
43
87
-2
8
-4
-16
1
4
57
28
30
3
-3
10
-44
-20
-36
-15
-32
-16
8
-20
-30
17
117
118
24
6
-1
1
19
-40
-121
-52
-16
10
-3
-6
-17
4
-3
-19
-11
-15
-10
-10
-35
6
0
20
27
9
30
54
11
36
41
8
-5
4
-22
-64
-10
19
-14
-81
-32
-2
35
43
-24
0
51
70
34
-2
-44
-25
32
5
-47
-60
-31
-4
8
-14
-7
1
15
21
15
-11
2
39
21
20
-19
5
-14
12
8
-10
-9
2
12
10
4
-5
-8
-17
-30
-39
-39
-64
6
-10
-3
17
26
8
38
99
16
14
19
26
-5
0
-53
-108
-3
0
-24
-44
7
45
-14
-2
-13
-8
7
24
16
12
32
56
32
8
6
8
-3
3
1
-47
10
-1
44
47
15
-34
-100
-50
-52
-13
-58
-57
-19
-26
36
21
14
7
13
71
11
26
28
25
2
8
-18
-69
2
-24
-100
-100
-4
-10
21
34
20
24
96
44
4
-2
-47
-55
-25
-14
4
25
3
3
26
39
8
-35
-80
69
17
-16
-18
-34
-71
-25
-32
-11
-14
-1
1
17
-1
-21
20
-66
0
-16
2
-14
-7
6
-19
57
2
13
22
27
16
30
92
31
-9
7
-18
-41
16
-12
-45
28
1
-1
-6
-4
-7
-17
-36
-90
-34
-11
-13
29
-14
3
49
92
38
-4
1
-45
-11
26
-13
-46
-13
-3
2
24
38
-29
-26
-53
-42
-17
-17
-53
-21
34
15
57
20
6
2
29
12
-17
-99
20
19
17
12
-10
-13
34
96
-16
-8
4
12
31
-4
4
-17
51
20
-8
-28
-9
70
-14
29
-40
-19
-2
21
18
-25
-23
-65
-77
-45
-24
-15
-63
-11
3
22
-29
-5
-3
-1
35
1
0
12
43
24
18
-6
-6
6
5
43
121
35
-2
16
34
43
-6
-25
-20
2
5
-13
-34
-19
-16
-29
-115
-54
-7
23
26
-5
-18
-73
69
-13
-17
8
3
-10
38
62
5
9
0
-36
-9
28
23
42
-11
7
0
29
-7
-19
-16
-22
-15
-10
2
-31
-28
5
20
26
2
5
6
3
25
-29
-26
20
-3
8
3
9
-4
0
1
-23
4
-14
1
6
26
22
-4
-9
-11
24
8
13
34
0
-27
8
-87
-34
-15
-29
-82
-48
-10
-6
-5
1
-4
28
44
23
-18
123
50
18
0
-29
-30
5
-7
-86
-17
-5
17
46
41
15
19
33
76
18
4
-24
12
-16
-16
-13
-55
-22
-8
-9
-35
-1
21
17
21
10
7
17
-2
4
-8
-19
-63
-12
-14
-40
-15
-9
1
33
34
13
9
24
-2
25
9
4
-42
12
4
3
-2
-8
2
-6
-32
-20
-2
-2
35
-1
-20
-29
122
24
5
5
8
5
6
30
-37
2
-12
-1
11
4
9
32
41
4
-1
-3
-9
20
9
-76
-97
-42
-6
0
-10
3
15
88
127
41
8
3
-2
4
20
-82
-70
-30
-3
-5
-25
-29
-24
17
15
15
9
8
9
-8
-42
-6
-20
10
-2
42
81
18
-10
5
65
5
-14
-76
-116
-18
14
-16
-69
-16
6
9
24
23
10
-39
-4
-9
-2
0
22
-4
3
-11
41
3
5
0
-21
-14
-10
48
-26
20
-5
12
9
-3
-15
127
9
14
1
-5
-9
19
-17
-111
20
7
-2
14
26
-7
11
17
-6
-20
4
-23
-30
16
11
-5
7
-8
-7
16
-6
1
17
59
-6
-16
-6
-10
-9
-8
15
12
56
14
6
13
19
8
16
0
-20
-2
-6
-29
-24
-2
2
-102
-81
-29
11
18
41
-12
3
42
98
47
-9
-9
-33
-13
-3
-51
-8
-13
-5
-17
-17
11
-11
3
-56
-12
-9
4
1
-4
0
22
31
2
9
0
2
-12
6
-37
-40
-6
2
21
66
-1
10
28
64
-15
6
3
-30
-10
-7
-40
-12
-2
-10
-19
-21
-11
19
12
-58
6
7
19
29
1
-35
-56
16
-15
-14
-6
-14
14
-6
26
24
20
-1
-4
8
-4
-5
0
-38
-9
-3
-12
-14
-11
12
37
32
-2
5
6
-12
3
-1
-23
-57
4
1
-3
30
28
-1
-25
-15
1
1
7
-18
-54
-25
55
-8
-10
-4
-7
6
3
11
-40
22
14
2
58
82
10
6
13
-55
-27
-11
-83
-102
25
16
87
107
14
2
8
24
34
12
-63
-103
-16
-1
9
39
-8
-37
-7
7
2
-11
-26
-52
-2
1
14
70
17
19
47
67
8
6
-27
-48
-8
2
-6
-25
-30
11
75
35
17
-10
-26
-26
1
3
41
-32
-15
-2
13
33
51
1
-60
-49
-20
2
8
-19
-53
-16
59
56
22
-2
-21
-28
-15
-25
-115
38
1
1
15
46
23
-23
33
-3
-19
-20
-27
-75
-24
-5
28
-62
-13
4
10
-7
-19
5
-56
15
14
6
15
17
7
20
17
22
4
5
-16
-37
4
12
41
-5
2
-9
38
71
1
-19
-39
-26
-15
-5
-56
-65
-7
8
20
-48
-17
0
-4
-17
-1
21
26
19
3
-4
16
29
5
-50
-66
-13
5
2
-15
-22
-13
0
8
64
27
6
19
21
2
-9
-10
-67
-45
-8
10
28
0
20
-14
88
23
7
1
11
-4
12
81
30
22
5
-8
-46
-14
-3
-42
-25
-4
-9
2
-10
-9
-11
13
30
-4
-5
-12
15
38
11
-23
-67
-15
-5
28
29
-6
-9
-51
-15
-15
-5
-47
-58
-41
43
78
35
13
5
7
27
13
-12
-63
36
27
6
32
13
8
-5
44
-17
-16
-7
-43
-59
-45
4
-14
-28
11
-4
3
19
28
-19
-101
-55
-24
-3
15
14
-25
18
48
-2
-4
-6
-10
-9
-11
-10
10
31
-3
12
8
11
24
26
4
-15
-20
-12
-7
13
23
-18
-50
-35
-4
4
7
3
10
-7
-12
39
25
-6
-3
20
-9
-17
36
-23
4
-7
-13
-26
6
9
22
-3
-17
0
2
-17
-12
9
22
80
13
8
8
13
9
-22
-82
-53
-5
9
-3
-21
-17
-5
19
-8
1
-1
5
3
-37
10
60
-28
-22
-12
-8
-12
2
11
5
12
16
-6
-31
-14
49
-11
21
-51
-6
1
2
-13
-57
-7
-3
13
-16
-2
11
35
-2
-3
-82
-98
-11
7
-1
-44
-13
-21
31
115
18
-11
9
26
-15
22
94
7
-2
-3
-15
-20
36
-21
-108
-56
2
4
4
12
11
-19
-3
-31
-8
3
4
32
-6
18
15
91
-2
-6
0
-7
7
5
-32
-40
-12
5
21
14
2
2
106
49
12
-5
-40
-36
-5
-35
-108
-28
10
-2
7
44
17
8
-20
-104
-23
-7
7
21
-2
5
-3
-21
-12
-3
15
-7
30
4
2
44
8
1
-11
-20
-17
-4
-16
44
9
3
-5
-4
-8
-3
101
9
8
13
13
39
4
16
-32
40
11
-1
-2
9
3
8
20
-100
-25
-7
-3
-16
-1
-20
-51
29
17
-5
-9
-11
-6
13
17
52
25
3
10
-8
-5
-15
-53
-24
-9
0
-4
28
-14
-1
11
-20
-21
-5
6
-39
8
25
101
90
8
5
-11
23
2
-9
-75
-39
-16
2
29
13
-39
3
72
16
5
-13
-59
-76
5
2
-1
23
3
-5
17
36
-26
5
44
-2
0
-5
1
-6
13
-8
-35
21
15
10
-7
12
5
-13
69
2
-16
-7
1
13
-8
-28
-97
-35
-3
2
14
-11
15
7
10
-15
-20
-1
6
29
19
-6
15
46
22
1
-11
-39
-27
14
-85
-46
-11
1
3
-2
-7
15
42
64
22
-2
-2
25
9
12
-34
-37
-29
-3
14
-29
-45
-22
-32
3
8
-4
-21
9
39
2
2
-11
-11
-3
-9
-46
-17
16
-7
-61
-8
0
-10
4
24
4
30
10
-8
0
-4
-16
2
7
30
-11
4
-6
5
-9
3
14
-16
-9
17
2
14
44
18
-3
-90
-10
4
0
-29
-41
-16
20
29
48
6
8
25
46
27
-20
-5
-19
-3
-1
-26
-70
-34
9
1
-23
-11
-8
11
14
19
-29
48
-54
11
7
12
15
13
-9
-72
1
8
1
5
21
22
-14
35
28
2
0
-2
-2
-18
8
18
-8
-11
-3
6
16
19
18
22
8
-2
9
4
12
10
12
46
127
42
12
4
33
-2
-6
-62
-125
-53
-17
-15
-48
1
-22
26
25
11
-6
17
9
-5
-2
1
77
14
3
-23
-15
-3
-11
5
77
4
3
2
-12
-16
29
-6
-90
-24
8
18
26
14
-12
2
109
41
1
-14
-3
1
0
-35
-80
-27
-8
27
27
-9
6
31
-17
10
-2
-18
-31
8
31
37
-12
10
16
16
29
-1
-71
-52
-67
-42
-16
-14
11
-5
10
47
55
14
-5
-9
9
2
2
-50
-47
-17
-5
5
40
1
3
15
-58
-12
-1
-29
-105
-24
23
-32
-2
5
8
16
51
0
-33
-34
39
5
-4
4
-1
5
-15
20
-114
-27
-12
-16
-22
-29
3
19
51
12
9
36
79
12
18
33
9
4
4
-22
-61
4
-4
-48
6
12
2
9
3
-5
2
30
83
5
-2
-16
-34
-3
3
17
-12
-15
-11
-7
6
7
-6
-22
-24
7
-2
-11
-24
22
12
33
14
-5
-1
8
3
-17
-15
-52
-12
10
6
17
19
0
2
-4
42
16
-3
-9
26
5
0
20
-32
-28
-1
-10
-35
-10
-7
10
36
15
2
8
0
6
-2
0
-59
3
-4
4
8
-5
-9
-11
42
9
-5
-5
-15
1
9
19
26
18
10
9
16
-5
1
-3
-26
-26
-1
5
6
6
3
0
16
-11
-5
-10
-28
-8
-4
-12
-11
4
-1
-12
21
3
-10
12
22
31
6
18
10
-1
7
3
2
0
-1
-4
-17
0
-13
-7
-10
-20
-4
-11
-4
-1
-3
-2
10
-2
-12
-2
2
-1
4
-2
-17
-8
1
0
6
-7
0
10
15
2
1
-6
-17
-1
3
-8
-9
-2
-3
0
-5
0
-3
-5
-14
3
0
8
7
-3
-18
17
6
-15
-6
-11
-10
-9
9
-2
2
3
-2
1
5
7
-4
-4
-17
-7
-5
-1
-3
-1
3
-1
15
-4
-3
5
-3
0
7
-5
-1
2
3
-4
5
-3
3
4
1
-17
-3
-9
-2
0
-6
-15
-23
4
-3
-11
-11
-3
-5
5
13
26
9
6
3
0
7
1
5
5
9
25
38
3
-6
0
-11
-21
-10
-9
-52
-5
3
2
8
-21
-2
-4
-5
-6
1
-6
-7
0
-3
-8
0
1
1
2
2
-4
-4
-8
1
-1
2
-2
-5
-6
-2
1
9
0
-2
0
7
-1
-13
-10
1
-1
0
-5
-11
-19
3
7
2
-2
-2
0
10
38
22
4
-3
5
-2
3
-13
-2
2
1
6
0
0
3
5
-22
0
-2
-8
2
-11
-2
11
5
-15
-1
7
-5
9
-1
33
1
-2
-6
-13
-10
-5
-11
-44
39
26
7
10
3
-6
7
7
34
3
-1
0
4
-1
-3
1
-4
1
8
0
2
0
-6
-5
-13
-9
-13
-9
-2
-2
7
23
-8
-13
-3
3
-6
2
-4
-27
-1
2
3
1
-2
-1
3
-4
-12
-1
-3
-1
-1
-3
-11
-10
-11
-10
-7
-7
-5
2
2
2
-23
-8
-2
7
0
1
-1
-2
-4
-6
4
-2
-3
-4
-2
5
27
21
5
0
3
-3
0
-10
31
8
-3
-1
1
1
3
6
23
3
4
1
2
6
2
9
22
8
3
3
4
-3
6
10
-22
-13
-5
-5
-2
0
-17
-17
-19
-7
-4
-4
-2
0
0
8
14
3
0
2
-1
-3
-5
0
-9
-6
-5
-3
-4
-1
3
-4
8
6
3
4
0
2
5
10
-15
-10
-5
-4
-3
0
0
-16
-17
-2
-1
0
1
-6
0
10
-15
0
2
-1
-2
0
-1
-8
9
-1
1
-1
1
0
0
16
-3
-5
-3
-2
-1
9
-16
-10
-15
-7
-3
2
0
3
29
6
27
10
4
2
3
-13
-27
-21
1
4
2
0
6
-5
14
-12
-4
-4
-5
-7
-7
-4
11
3
1
-3
-1
-1
-3
-1
-7
-9
-9
0
0
0
-1
8
6
25
-1
-6
-3
-1
0
-4
-12
-20
-12
-2
4
1
1
22
-15
2
-9
-6
-3
-2
-3
-15
12
12
18
3
2
2
2
-6
0
1
6
-2
-4
-3
-4
1
-1
3
2
1
5
2
1
2
2
5
-4
-3
-2
-1
-2
6
-5
-2
-5
-4
-2
-2
-1
-9
-10
-4
-5
3
-5
-1
-6
-8
1
3
-14
-5
-2
-4
-2
-8
-2
-2
7
1
0
0
3
2
-10
-4
12
5
1
1
-1
0
6
13
-27
-8
-3
-2
-4
3
-1
-11
2
-6
-5
-3
0
-12
3
3
4
-1
0
0
-2
-1
-6
8
0
0
0
-2
-2
8
-2
-15
-10
-3
1
1
1
-6
-19
-13
5
3
0
1
-1
1
11
15
-22
-5
-1
-1
-1
-2
-6
13
16
3
-1
-1
-1
5
9
-9
1
-1
1
0
-2
2
8
12
-2
1
-2
-1
2
-6
3
6
1
-7
-3
1
2
0
-17
-33
-11
-6
-5
-4
-3
-1
5
18
-10
1
4
2
0
0
7
-15
-11
-2
-4
-2
0
-4
-15
-5
11
5
1
1
-2
-1
0
-2
-5
1
-3
-1
-1
5
-3
-2
-1
-2
5
17
2
-4
-1
-10
-3
2
-8
-47
-7
-2
3
8
4
1
-1
1
-1
-1
-1
-34
0
-4
-4
-3
-1
-3
-3
13
-3
-7
7
40
2
3
0
28
0
1
2
-17
0
-2
-5
-32
2
4
-2
-5
-1
-14
-2
16
6
0
0
1
-2
-2
5
-6
-4
-1
-8
-14
-2
2
-14
-7
-1
-2
3
26
1
-13
7
10
0
-2
1
-1
1
13
8
2
1
2
-3
0
1
0
9
7
4
3
1
-3
0
-6
-5
4
1
0
-1
4
-2
7
-12
-12
-14
-5
-3
-6
-3
1
4
37
-5
0
0
3
1
-5
-1
-15
3
-2
-6
-20
-2
2
8
9
0
-7
-3
5
2
-4
-1
-1
0
-1
-2
1
-2
-5
-11
-8
-7
-1
2
2
-1
1
2
2
9
0
0
-9
0
3
-2
9
-10
-4
-2
7
0
1
2
-13
-4
-1
0
5
-3
-4
4
20
8
3
2
-5
1
-2
-8
-18
-12
-3
-5
-11
-2
4
2
6
6
0
5
28
4
0
-2
-12
4
1
-5
-46
-4
1
-5
-7
-7
-2
3
11
-3
1
3
36
4
-4
-8
-18
-2
-2
2
-6
-5
-6
6
7
-1
-2
0
0
8
8
2
14
2
-2
7
-8
-2
-2
0
-4
-1
3
-14
-3
-3
2
0
6
3
3
-3
-15
6
5
2
0
-2
-10
-1
-3
-3
-9
-3
0
-2
-4
-9
-17
-9
-6
-4
-5
-2
1
2
-6
2
3
1
6
2
4
1
-11
-3
2
2
-8
0
3
-1
11
4
1
1
5
2
4
-2
-10
-3
-2
3
21
1
-5
1
13
0
-1
-7
-52
-5
1
-3
-21
4
4
-1
2
-1
0
-4
6
2
0
3
6
3
0
2
4
3
-4
-2
2
-1
2
1
-3
-7
-5
1
9
-1
-3
6
8
-1
3
-1
-6
-1
0
0
0
8
4
0
6
-2
-1
-15
-31
-5
0
-2
-5
-1
-4
-1
-9
0
0
-2
4
-1
-3
1
-2
2
-4
-5
-6
-1
-1
7
13
-1
-2
3
9
0
0
-3
9
-3
-2
-3
-11
1
0
-5
-20
-5
-5
-2
4
-1
-4
12
12
2
-1
0
1
-2
-2
-11
-3
-2
4
2
-2
0
-3
-5
6
-4
-4
-4
-9
-2
1
-1
-10
-7
-1
1
7
0
0
-6
3
0
1
-2
1
-1
-6
1
4
3
-4
-5
-2
-1
-1
-2
-11
-2
0
-1
-3
0
-3
-1
-13
-1
-2
0
3
-1
0
-6
-5
-3
0
2
-1
0
6
1
8
-5
-3
-3
-2
-2
0
3
3
12
11
6
3
0
-4
14
1
9
2
-4
0
0
-2
-20
-4
-3
-2
-2
-6
0
8
0
-8
-12
-9
-6
4
2
-2
-2
-10
-6
-11
-6
-3
-3
2
6
35
0
6
5
3
-3
-1
2
-26
0
3
1
-2
2
-1
-1
14
6
1
1
-2
-2
0
0
-7
-3
1
0
-3
0
0
-7
0
0
-6
-1
2
0
6
4
-2
-3
-5
-7
-2
-1
1
8
-7
-1
1
-1
-1
1
-1
11
10
0
-1
-1
0
-7
2
-14
-1
-4
-4
3
1
2
-4
-8
-7
-3
1
0
0
-2
-2
-2
-20
-1
0
0
-2
0
-2
1
10
1
-2
2
-2
0
1
16
9
0
2
-5
2
0
-1
-4
20
9
-2
2
-1
-1
-7
-12
-25
-11
-3
0
0
-1
-3
-2
-1
1
0
-4
-5
2
-2
-2
10
-3
-4
-5
-2
-2
0
8
13
2
-4
-1
1
0
3
12
5
1
-1
0
0
-2
1
-7
7
2
1
-8
-2
0
1
8
-16
-1
-1
8
0
-1
-2
-9
11
-2
4
-1
0
-3
-2
3
1
4
-3
0
-1
-1
-1
-2
-45
-15
-6
-4
1
1
-4
-8
5
4
2
1
-1
-1
-2
5
-11
-8
-3
-2
-1
1
-1
-9
-3
-1
4
9
2
-1
3
5
20
5
2
2
-1
0
-2
-3
-20
-2
-2
-4
0
0
-1
3
0
0
-2
-4
-4
-5
-3
-5
5
-2
-2
-4
0
1
1
-7
-9
0
-6
0
1
0
2
10
17
0
3
-2
-2
0
-1
0
-4
-5
-2
-3
-1
0
1
2
10
-2
-2
-5
-3
-2
2
-11
20
6
-1
-9
0
0
-3
-8
-30
-2
2
10
0
-2
-3
1
19
-1
-3
-15
-2
-1
2
15
-6
-7
-3
8
-2
0
-2
-11
-35
-11
-1
3
-1
1
-2
-1
12
-1
-3
-6
-3
-3
4
-4
2
1
3
3
2
-1
0
-12
5
7
0
-3
-1
-5
-6
7
-11
-12
-7
-11
-1
2
2
-5
-44
1
3
7
-1
-3
-4
3
23
-6
-2
3
-1
0
-5
11
17
4
-1
-7
-5
-6
-3
-5
-18
5
0
-13
5
20
-10
-10
3
-5
1
20
-1
-21
9
7
29
-2
2
-1
-3
6
1
-11
-72
-13
-1
1
7
6
-3
-8
46
8
3
-4
-3
-14
-4
-4
-8
-4
-10
-17
36
6
-3
-6
4
10
6
20
-23
0
7
16
46
-8
-8
-24
-27
-13
0
-4
-24
-2
-3
-17
-38
5
7
18
67
14
-3
4
11
31
-10
-32
-100
-13
3
20
51
-18
5
18
73
14
5
-1
-42
1
-1
-5
-61
-16
-1
44
34
-20
-12
-45
9
-1
-12
-41
-19
91
1
10
67
-8
-8
-17
32
-88
2
2
-32
0
5
19
3
34
-2
12
9
-6
-7
-31
9
2
-22
-2
56
-4
-13
-74
-83
-51
14
26
-42
8
14
33
7
106
-13
-28
3
-8
-13
-40
21
-69
6
18
5
2
14
93
29
-16
24
-74
-128
-61
-24
53
103
100
-18
-30
85
32
8
-34
9
-18
0
-52
16
-39
-16
-62
-73
5
-9
59
28
13
4
48
54
22
-66
-99
-78
-26
-22
-44
20
-74
25
57
77
9
-2
22
-41
107
-4
114
47
83
22
47
94
-11
5
-107
-64
-52
2
-50
-118
-31
-28
105
114
33
-26
-24
55
19
44
54
-128
-41
20
77
104
21
-32
-20
-5
-10
-27
-97
-128
-84
34
-65
15
-27
41
92
127
-13
33
-10
37
50
32
2
21
53
34
35
-40
38
-8
-15
17
34
88
-61
-2
-59
-24
14
29
127
-68
113
74
55
-22
-63
1
-1
0
-98
0
1
28
24
-108
-88
2
48
104
22
-25
-50
1
15
31
11
-128
-35
20
39
18
78
14
11
127
65
12
-44
72
117
17
4
-56
-15
-27
14
-65
-47
-10
58
105
-12
22
-5
-13
-35
-92
-108
-31
17
4
25
11
-33
58
14
-76
1
37
15
-2
32
-61
59
127
116
6
9
58
-38
-43
-128
-46
-84
-16
-53
-98
-64
-46
-14
20
-20
3
33
-3
-70
26
-15
23
-15
-13
-7
-13
-71
6
-82
-85
-16
-7
-3
-13
-6
22
72
-35
-53
-17
8
-11
-11
32
116
-28
16
6
11
36
37
-36
-2
87
36
-19
-61
-46
-26
47
7
33
-46
30
110
69
-2
-4
-115
5
44
5
-36
-43
-43
53
127
-55
-7
8
45
29
22
-47
-96
-91
-33
-24
-68
-63
46
24
113
19
-29
20
22
-57
-54
-21
-106
-128
-26
-10
3
74
23
-35
-61
127
71
23
18
-3
-3
13
49
21
3
-2
24
-23
-32
12
-35
39
6
4
-36
58
19
-35
68
-30
-30
-35
-28
-102
-72
2
-77
60
-36
-11
-3
7
-47
-5
-9
59
22
-9
11
51
94
16
26
-83
-39
4
-13
-6
54
15
44
127
10
19
14
-38
-16
-37
-41
-128
-34
-21
-40
-12
-33
-41
63
116
84
15
72
81
33
30
40
-42
-10
-5
-62
-94
-79
5
61
20
-21
2
-3
19
4
6
-109
123
38
26
1
67
107
15
29
-73
-33
-22
15
-35
-105
-25
-46
62
23
3
29
10
-9
-40
-2
-9
18
-6
-14
12
41
63
33
-2
-26
-4
-40
15
-1
0
-36
-17
-35
12
50
-46
-9
-7
-8
-43
-46
-9
-25
49
38
7
-9
42
51
20
11
-45
0
-26
77
96
20
-31
-5
-9
-21
32
65
58
19
2
-30
3
-4
-8
-59
-128
-81
-6
24
-9
-48
11
-27
-20
13
-5
73
127
36
-33
45
22
6
7
-71
-94
-36
-16
-16
60
25
-10
-20
-37
-78
-52
-46
4
14
-10
-25
-44
5
16
79
78
17
5
26
71
-2
5
-8
-66
-58
-6
-20
-70
36
8
-44
-128
-43
-6
17
76
34
20
16
127
70
17
-5
7
-29
-4
-15
-76
-28
-12
-16
-12
-3
-35
-98
-13
7
-12
11
8
-46
43
43
23
-39
24
-2
-23
14
-21
57
77
59
-2
14
55
32
-17
-94
-87
-47
-27
-48
-109
-4
13
83
-7
23
11
33
39
-21
40
51
34
-13
-7
-6
33
13
60
70
57
44
19
-22
-62
12
-41
-42
-69
-32
-2
38
47
35
-9
-21
85
29
-3
-6
-5
-20
-42
-67
-71
-19
-17
-40
-67
12
47
36
2
-6
10
32
18
-5
9
19
72
-10
-5
5
25
35
-3
-20
9
62
13
-1
17
-18
-21
-13
-41
-79
-10
3
-19
-26
-9
-4
-39
33
-1
-2
-5
1
7
63
-117
24
8
2
-2
4
48
26
50
-20
8
3
-12
-5
-2
-24
-15
-51
-35
-20
-11
-39
-2
57
46
46
-12
-15
13
19
-16
-89
-21
34
-5
-17
-55
-28
13
65
-3
27
15
35
42
48
-19
-56
49
6
21
8
3
-16
44
122
17
-67
-4
-25
-54
-14
5
-4
-40
2
-10
-14
-11
-9
-3
52
17
23
-8
18
28
35
-6
-49
70
27
9
-2
-5
26
-1
-11
-97
-39
-9
6
12
5
25
-90
127
-13
4
-1
-5
-43
-34
-30
-55
-16
-10
-25
27
55
-18
61
-52
40
-2
10
-8
-9
-8
55
47
0
10
26
1
23
13
8
80
8
-3
-30
13
-9
-4
-29
-33
4
9
15
-50
-26
27
-7
-27
-16
-1
-6
5
0
-14
-18
52
18
-14
7
40
20
-1
2
-21
14
5
5
29
-7
3
-17
98
19
13
0
-6
-3
-23
-70
-97
-32
-19
13
20
23
18
21
-100
-88
-7
-66
-85
13
-27
69
92
60
0
24
53
-70
18
-40
-43
-20
-6
-8
-19
15
-12
11
-8
-3
-3
2
7
-63
13
-108
37
-11
-6
17
7
-14
-1
-49
17
-46
-11
-15
-27
4
-1
2
-46
-6
10
15
65
4
29
79
44
14
-1
-18
-72
9
-45
31
-4
34
5
18
33
4
10
-91
28
19
20
-4
21
35
-3
16
-113
4
-14
-11
-22
-15
60
46
27
-12
-10
26
34
-22
-15
-3
-58
-20
-12
-34
-25
-15
7
-23
-35
-5
15
21
34
1
3
23
69
-24
-6
1
-27
-40
14
5
-18
23
11
-12
-24
14
-10
-76
75
27
9
29
40
-15
14
52
-79
-14
-13
-23
-49
-7
-27
-45
-22
-12
7
54
62
-7
-35
19
101
45
-17
-84
-76
-36
6
76
-73
-14
13
29
29
32
1
-33
23
31
-5
-5
35
33
-11
-4
-9
-21
-11
-31
-60
-46
16
-35
-5
-12
20
55
75
36
-25
-75
37
3
-11
-36
-62
-34
-14
108
64
27
-1
-26
-33
-37
-13
50
-31
-26
-1
57
100
9
3
12
-31
-10
1
-34
-74
56
-25
-41
-36
-4
-4
9
12
0
-13
9
73
18
0
26
14
-34
27
-9
-43
-28
-3
-29
-58
17
-36
-40
95
42
4
-2
35
-35
52
102
-20
14
4
-5
-20
-2
-65
-71
-71
-28
-4
7
-40
19
-8
72
-21
-13
-7
-14
21
-21
-6
-29
26
-8
1
34
21
-10
13
42
41
26
-10
-31
3
47
27
56
-25
-63
13
19
25
-28
-12
-50
60
70
0
-6
-19
-2
0
-76
-120
-19
-5
8
23
77
-2
-19
84
8
-9
-9
-4
-54
-4
-36
-53
-29
-6
-11
-11
37
10
58
38
-28
-10
5
-26
-32
-8
7
108
31
5
-32
-15
14
-28
-97
-118
-24
13
48
56
-31
-9
-51
41
10
-26
-51
-91
-24
18
-70
-9
-21
4
5
31
21
10
42
31
30
-12
21
59
-19
6
18
23
-24
4
-32
-54
58
-4
35
-6
-9
4
17
-20
-3
-15
-6
34
-24
-3
-15
5
-13
7
17
-36
2
12
20
31
-33
-13
-22
-60
-17
-11
3
21
19
33
-27
34
54
9
1
1
20
8
-33
1
-15
-5
-7
6
28
33
31
-52
-53
-13
-18
-53
3
-22
-29
98
36
15
8
-1
-35
20
41
-13
1
5
25
37
-8
-27
-22
-86
-15
-10
-23
-6
28
-17
-61
37
5
4
3
9
-8
19
34
100
17
-7
-23
-26
27
-26
35
-11
3
-1
4
24
-33
30
14
3
35
10
11
10
-3
3
13
-51
-27
-6
-15
-25
-3
-1
25
14
-12
2
31
42
32
-4
-19
-82
2
-2
24
27
10
6
-44
-50
-17
-10
-56
-27
-13
-2
-24
30
31
8
-1
-43
14
-19
-17
-15
-38
-19
3
22
-11
-5
39
17
-4
11
2
12
-5
10
12
38
15
-3
16
8
21
4
50
83
22
3
-27
-25
-1
-1
-17
-79
-11
-4
-4
-24
-2
10
32
-6
-23
-5
-19
-25
39
-9
-40
-28
4
7
23
10
7
-2
61
72
18
-1
-1
22
-23
-8
-47
-102
-11
1
13
27
-6
2
-18
52
18
-1
-24
-28
-8
3
81
24
2
9
18
-17
12
-31
-91
-128
-19
-11
0
-13
-52
13
21
98
27
3
-23
-4
31
26
-1
-22
-25
-10
-8
-14
22
32
24
-33
0
-2
25
21
-17
-25
-19
85
37
10
-18
-14
15
-4
-103
-24
-1
-6
12
28
-5
-1
9
-57
-19
14
-11
-44
11
4
101
107
26
-2
10
35
-11
-14
-67
-64
-56
-22
7
59
75
9
75
74
33
2
-24
-74
-47
10
-9
79
22
1
15
41
33
14
-14
21
-6
-4
-19
-11
-44
-69
-35
-28
-28
-6
6
-3
4
-45
68
-67
-1
8
11
-18
-7
-26
-96
-61
-20
-2
20
43
-1
2
55
92
23
6
-24
-47
15
16
44
25
32
8
9
42
16
20
0
-63
-37
-13
26
33
-22
-8
9
4
13
-1
-34
-83
5
-18
-119
-102
-48
-9
13
54
4
13
74
53
-19
-10
-13
-23
-26
5
6
-7
-12
-1
-2
-27
5
16
31
57
20
10
32
17
-21
-56
-53
-33
30
3
-41
-28
-18
19
39
-53
-10
4
31
23
0
8
31
15
-18
-13
-37
-11
-2
-5
-16
-59
26
6
25
86
39
16
-3
64
-3
5
-26
-100
-1
-25
7
-40
13
-7
7
96
-12
-28
-34
-20
8
13
16
-16
1
3
26
-40
-24
-9
-8
-75
-16
6
-92
42
1
6
0
34
21
51
-21
-28
0
16
6
-8
50
-13
68
22
9
3
-4
8
6
-58
-1
-29
-9
-5
11
34
-34
-43
-77
29
4
-12
-5
0
-25
26
45
22
4
-2
-16
-78
-10
11
-50
16
6
8
44
101
26
11
-14
-101
-13
-7
-56
-75
-56
11
78
8
12
14
1
2
-10
-7
-80
38
0
-2
14
17
-19
-8
-33
-15
5
-7
-11
-14
-37
12
72
87
12
6
35
119
64
13
-11
-51
-11
-11
-33
-83
8
-15
-74
-72
-11
-4
-8
43
-46
12
21
93
-21
-9
7
21
17
41
32
-75
4
4
4
40
22
-41
-37
-27
-15
-15
7
-26
-2
25
108
92
18
21
-23
-43
7
-6
-120
-13
19
0
-9
-23
2
10
76
82
18
-10
18
26
2
39
12
-39
-44
-9
-8
-18
8
-35
9
-1
8
3
22
29
24
3
59
-62
20
14
-19
-41
-52
-37
-113
45
6
9
8
-12
36
28
91
60
23
-7
5
7
-9
-9
0
-88
-5
-2
-4
-14
-30
26
-1
125
-20
-6
33
70
5
-46
104
-57
10
6
-39
-74
-33
-11
-22
78
23
3
14
45
-3
-29
-6
32
-16
-3
-15
-29
-15
-28
25
-47
23
4
13
28
33
10
-29
62
-14
-9
-20
-34
-52
17
21
-50
-4
12
51
80
33
19
114
25
-3
-1
-11
-23
0
-13
-77
-37
-14
-10
-17
-16
-15
22
30
21
-19
-9
-9
-11
20
6
-49
-16
22
16
15
22
-16
-1
-46
18
-14
-21
-11
-42
-36
5
-13
-20
-33
-9
8
30
0
-34
-26
44
30
5
-56
-90
15
-2
23
-36
3
-1
23
46
0
18
-6
-48
-13
5
10
25
17
6
-10
23
-8
-1
-4
21
20
12
-16
-21
-11
-10
3
-8
-29
22
-2
-25
-7
3
-4
-25
-8
9
-12
-29
-5
-5
3
19
14
-20
26
39
-10
0
-20
-61
6
5
-48
-64
-12
-3
20
53
0
6
45
46
23
8
-1
-7
10
7
-64
3
18
-1
0
5
2
-6
42
-13
-9
1
-6
-18
-12
10
-30
11
15
10
11
36
7
-18
29
18
-31
-16
-11
-25
-3
-13
-16
-25
17
12
8
-9
-12
10
13
-3
24
-1
30
19
11
-3
-6
9
3
-5
-44
-43
-12
-29
-28
58
5
-10
-12
16
-5
3
22
-44
-35
-7
6
-2
2
16
-14
-23
16
6
-3
35
5
3
-8
10
-20
-5
13
-24
-7
-6
-21
-48
-3
0
-7
-1
0
2
7
17
-2
-10
-10
-6
5
4
5
21
-7
-12
-33
-26
-8
-3
-8
-25
-14
8
37
38
-3
-4
7
-21
4
8
-3
3
0
-11
0
41
13
11
-10
-19
0
5
-1
-24
15
-1
7
-6
-1
5
11
11
-16
-4
14
37
3
-9
-16
-14
-19
-3
4
-32
-3
11
8
-5
12
-1
1
6
2
-5
-7
-1
-13
-2
-21
-16
-3
3
0
8
21
-7
-15
7
-1
-2
6
-23
-3
8
31
17
2
-3
-10
32
0
-2
-12
-9
-5
-13
0
-25
-28
-4
-6
-7
-4
-10
3
25
23
-4
3
7
-2
2
-5
-12
-8
-12
-12
4
0
3
10
9
12
9
4
-7
-4
5
2
8
3
-5
4
-3
4
-1
-4
-31
-28
-8
-2
3
-1
-2
17
-3
4
-7
-9
-5
0
-1
-25
7
-8
-8
-2
-3
-2
7
-12
-6
13
14
7
-1
2
2
14
5
-13
-6
-11
0
-3
-2
-8
7
-1
2
10
6
0
-2
4
0
-1
3
-2
2
-1
-1
2
4
3
6
8
-2
-1
0
-6
2
-7
1
3
4
-2
-6
-11
-5
18
3
-3
-1
-1
0
9
-7
-5
-6
-10
6
1
-2
-1
-4
12
1
-2
-21
-1
3
-1
1
-10
0
14
18
-1
3
-3
22
-12
-2
-12
-23
-4
2
5
11
9
4
5
14
3
5
3
-21
1
0
-19
-19
0
-2
-11
-11
-4
-6
-18
11
-3
1
-6
-30
-9
5
25
-4
0
-3
1
4
8
-2
0
-6
0
-28
1
19
-1
3
4
11
1
2
10
28
12
6
-8
-5
-1
2
-6
-29
-19
-10
-11
9
-3
9
0
-14
-3
-4
-2
-7
-1
-11
-26
2
14
3
6
5
2
2
21
17
9
-4
-3
-7
2
-1
4
7
12
2
-3
4
3
11
4
30
-11
1
11
-2
-1
3
-9
3
-4
-5
-8
0
-1
-5
-14
-8
2
1
6
-4
0
-4
-5
12
4
-1
-7
0
-2
-4
3
-9
-4
2
5
-2
1
5
-1
-29
-11
-1
-14
0
-1
-3
-15
31
6
3
21
1
-5
-3
5
-20
-10
-5
-2
1
0
-7
-1
16
-1
-7
-23
75
4
1
7
-16
1
6
21
-90
-6
12
-9
-21
-6
-1
-7
5
-3
0
-4
8
0
3
-4
23
2
-9
-8
-10
9
0
-4
-17
0
4
11
4
-8
-7
2
24
0
5
-5
-5
-7
-4
-11
-8
-2
-16
11
15
11
5
8
-5
-1
-13
-5
-29
-2
5
1
-5
-3
9
1
4
-11
-3
-1
19
4
-8
-3
-10
-7
-2
4
-15
0
5
-2
25
0
-4
-7
11
-4
-7
7
-7
-5
-7
1
-28
-5
9
4
-4
-3
-1
-4
5
-3
1
-4
0
-2
1
-6
4
-1
-7
-3
-5
1
-3
0
3
-1
1
-1
11
1
-1
1
-11
0
1
1
-6
0
-2
8
7
-3
-2
-6
-17
3
-1
-2
8
3
9
5
38
1
4
-1
-5
0
2
-1
-82
-4
4
-10
-16
-2
-5
-9
-14
-16
-14
9
45
-2
0
10
46
13
5
-1
-38
-2
-3
-26
-71
-10
-2
-3
-6
-2
0
20
53
8
3
12
0
-1
6
2
-8
4
-2
-16
24
6
-15
-1
2
0
1
1
-6
-5
6
9
1
0
-2
1
-6
-1
4
-10
-11
-17
-5
-6
6
-2
0
-9
6
5
6
0
-2
0
2
-2
-4
3
2
5
4
1
-23
14
12
4
-1
-5
0
0
-6
9
14
6
-3
0
-10
-3
1
12
-2
6
1
0
9
0
0
-11
-21
-15
-2
4
5
1
2
-3
-2
-2
-1
-5
-12
-4
3
-12
-12
-2
0
4
1
-2
-4
-2
31
10
2
-11
-12
-3
-4
6
4
1
-9
-3
1
-1
7
-4
-20
-3
-4
4
10
1
0
1
25
1
5
1
-2
1
1
1
4
-8
-4
-11
-40
-9
-1
-1
-19
-2
-2
16
9
0
-1
-9
0
2
0
18
23
-1
-13
-20
4
-2
-2
-8
-14
-4
2
-2
2
1
-3
-11
1
1
4
13
5
-1
-1
-5
-2
0
-1
-2
-9
-1
-1
3
2
-1
2
-5
-8
3
1
6
3
-1
-4
-2
8
-6
-1
2
-1
-1
0
3
-14
6
-2
-8
0
-1
4
-4
14
2
1
-4
-1
-2
1
6
24
5
-3
3
-2
1
-10
-6
-9
0
-2
1
-3
0
1
-12
2
-2
-1
2
11
3
3
-4
-8
1
1
-14
-17
-2
-18
13
-14
-6
-2
5
11
-2
1
15
22
8
5
1
-8
0
0
-15
-4
-5
1
-7
7
-1
-2
-7
-7
-6
-6
-10
-33
-4
3
-13
-12
-1
-2
-4
-13
-1
0
-8
-5
-11
-3
3
15
0
-5
12
-14
4
1
-3
10
-1
-1
10
10
1
-2
-3
-6
1
2
-15
-11
-13
-7
4
14
0
-3
-7
2
11
4
1
0
0
3
-6
-50
-10
-4
-5
2
-1
-4
-1
35
1
-1
3
-2
-2
5
10
-15
-8
-3
-17
-27
-1
1
-7
-1
-2
0
-3
3
-1
-1
-1
19
3
-2
-5
-10
-1
1
-1
-18
-1
2
-3
18
1
3
-5
-2
1
-1
33
54
1
1
18
38
11
2
-7
-56
1
-2
-26
33
9
-1
-10
5
-3
-7
18
-37
-7
-1
5
14
0
2
3
1
-9
-3
-16
-17
-3
0
-6
-14
-4
-6
6
33
0
8
4
12
8
7
14
3
3
-1
1
15
3
1
10
10
0
10
-18
-10
-11
-4
-12
-27
-2
-18
5
-46
2
4
-1
5
-8
-13
-12
12
2
-3
-8
-14
-2
5
-8
-2
-8
-5
-9
-3
0
2
10
9
8
-1
9
11
3
5
2
2
-9
1
2
-1
-1
2
-1
-16
-2
5
0
3
-4
0
2
51
10
1
15
6
1
-3
4
-20
2
-7
-29
-32
-5
-2
-14
7
-3
-4
-11
-21
2
-1
31
-13
-9
-5
15
37
2
10
-6
-4
2
7
-1
-21
3
-2
-8
16
2
4
8
15
0
5
-9
2
-2
-2
-2
-4
-2
5
-7
1
-3
2
8
5
-2
6
13
8
-4
-7
-4
8
1
-8
5
-13
6
5
-10
-13
1
-5
-9
-10
-5
-9
14
20
-3
3
22
18
0
3
-27
-22
0
-15
-23
-12
-3
-3
8
7
-2
0
-15
-18
-4
-1
4
-1
0
4
10
26
10
3
2
0
-1
-4
-28
-26
-1
-4
-2
7
0
-3
3
-34
-14
-9
-18
-33
-7
5
33
43
12
9
13
17
2
2
-12
4
-2
-4
-3
5
4
-2
21
6
-4
-7
3
-12
-3
-1
-7
-5
6
6
-5
7
2
-2
-26
-20
-11
-3
10
7
0
4
26
-1
1
-3
-5
-6
0
-3
-1
11
9
4
1
-8
0
2
-9
-7
-5
-5
-3
3
1
-8
5
0
-5
-4
-11
-10
-7
-3
-17
7
-3
4
5
6
0
0
12
-6
2
0
0
-4
-2
-2
3
-5
-2
-4
-15
2
1
0
-4
9
2
0
9
-11
-2
0
5
-8
-6
-3
-2
1
1
-2
-30
9
8
-2
-8
-8
-2
-15
33
-4
-2
3
7
0
0
4
2
-4
-1
-5
-11
2
2
-2
-7
-6
-5
-6
22
7
0
1
3
-6
-5
6
8
27
4
5
-6
8
-2
0
-12
-51
-8
0
1
4
6
3
0
7
2
-6
-9
-36
-14
-4
-9
-6
-4
0
1
-1
-4
-9
-6
-6
-2
-1
-11
-4
7
3
4
16
1
0
10
-4
4
1
-2
-1
1
3
-4
14
2
0
-4
-1
-2
2
4
2
-4
-4
1
-3
-1
5
-9
-6
3
3
-1
6
-1
-6
-2
4
-3
-2
0
-7
-1
-3
6
4
1
1
0
4
0
-2
4
-4
-13
-4
-5
-10
-2
0
1
17
15
0
6
5
0
-1
-3
11
0
-4
-4
3
-1
0
4
-2
-1
1
-2
-2
-1
-3
-3
-9
-9
-9
-2
-9
-2
3
-7
4
3
6
1
4
-1
0
12
-3
-8
1
3
2
0
-4
-15
0
10
4
-5
0
-3
-2
-1
8
-1
4
-1
-9
-1
-2
-3
-14
-9
-8
-3
5
0
1
-4
6
-3
-3
4
0
-1
2
9
12
-1
-3
-4
-5
-2
0
-2
-32
3
1
-2
-2
1
-2
-1
-2
-3
-1
-1
1
-1
-1
1
-3
-1
1
-1
0
-2
3
-3
5
-4
1
-6
-2
1
-3
-2
2
6
2
4
1
0
1
-2
-5
-10
-4
-2
1
1
-3
-3
0
-4
-8
-13
-5
-1
7
1
2
6
6
7
5
2
-4
1
-21
3
1
0
-3
-4
-5
10
-5
-4
-2
1
3
-1
12
-31
1
-8
-8
-6
-3
-2
1
8
-5
-5
-3
-5
-1
-1
1
-12
7
0
2
0
-1
-1
-1
-3
-9
-6
-4
-2
1
-2
0
6
2
6
3
1
-2
0
-5
-2
-4
2
-4
0
0
-2
-1
-5
17
-1
0
1
0
-1
-1
-11
-12
2
-5
-4
-1
-2
-5
8
5
7
5
11
2
2
0
-3
-3
-7
0
-6
-3
1
-6
31
11
0
-2
-3
-1
-6
1
-39
-23
-11
-1
6
0
0
-2
7
24
6
1
-8
2
0
-5
7
-7
4
6
19
3
-1
3
2
-20
-12
-3
-4
-3
0
4
13
11
2
2
-5
-1
1
-13
-2
16
1
-1
-2
-3
-4
3
5
9
3
-4
-5
-5
0
4
-18
10
7
1
0
1
-1
-1
11
-11
-8
0
-2
-1
0
1
-44
-34
-6
-2
-2
5
5
-4
35
-56
-5
-2
-1
-2
-3
-16
-6
41
6
-1
3
1
-5
3
18
27
5
-4
-6
1
1
0
-16
-15
-11
1
6
-7
-9
-1
-12
-21
-3
-3
1
11
6
9
1
-4
1
1
-22
0
29
-4
-6
2
7
10
24
7
-29
-10
35
21
2
-3
6
-7
-29
-10
-35
24
8
3
-8
3
18
-2
17
60
5
-4
-6
-9
-29
6
21
-19
5
-3
-9
66
23
-7
2
-68
-30
-9
15
-52
-7
-36
-89
36
-2
3
-39
-71
30
5
38
-12
-3
-6
-6
0
-43
-29
-7
50
-8
0
45
-1
-28
5
-45
-57
-12
-25
-47
0
-5
35
30
21
28
9
4
7
51
-28
-8
6
3
4
-3
-30
1
31
59
-19
1
24
12
21
83
-47
-1
-53
-20
9
46
49
-105
18
44
107
-15
-29
-48
17
56
-22
-34
37
26
-19
77
77
-61
26
100
124
-8
-5
-49
-120
-46
-15
-50
73
36
5
-88
-74
7
-27
20
-18
-60
-15
-61
-30
-111
4
1
-94
-36
3
-46
62
92
-34
-57
88
37
9
101
94
-8
-57
-56
-23
-30
-47
-40
-73
-53
31
112
35
23
21
-33
15
-118
14
-38
88
46
-22
20
99
44
-20
-66
-128
-76
-16
-68
-43
21
73
64
44
59
37
63
123
127
-38
-31
-83
-39
5
24
-19
-60
-3
-10
33
50
0
1
-26
86
35
-77
-115
-41
-23
-28
52
-106
39
-27
60
-9
0
30
-107
-75
0
36
-128
-18
6
-3
25
55
-47
73
0
27
31
40
-11
18
-2
104
105
50
0
-48
-23
1
-39
-46
-128
-31
-19
-24
65
-13
50
32
127
0
6
54
-25
33
3
-24
-88
-12
11
-36
-62
-40
-14
49
-84
5
-16
4
24
21
-35
44
60
30
14
22
25
-46
30
-47
-94
12
3
47
13
14
-30
-39
90
-40
-24
-63
-89
-73
-1
-27
-71
-20
-7
5
0
46
98
79
56
18
31
13
-3
-3
-29
-128
51
13
-5
33
73
-68
54
-4
-113
-109
-2
-9
-89
31
-53
-66
-12
49
-22
-13
8
-8
-19
13
-36
2
2
-7
-25
73
37
119
36
49
22
37
53
81
8
-97
39
-32
-12
6
6
-107
62
85
46
51
25
33
92
34
-4
-18
17
-44
-13
-70
-78
-9
-7
-2
-31
8
-27
-12
34
18
7
104
58
8
22
14
58
31
10
-9
41
-37
-24
-10
-18
33
-18
-34
-5
27
-1
18
34
5
-26
47
84
13
9
11
-44
-53
-10
42
-74
-19
-5
-19
-16
45
-1
-47
108
48
24
23
75
17
40
-37
-45
-68
-18
-36
-56
9
-31
70
69
28
7
18
-107
-36
20
-7
-41
-42
-15
9
80
-2
-7
-30
-12
-12
8
3
-46
-55
3
13
-83
50
16
18
46
19
28
-3
-100
-21
-9
-35
43
87
-9
47
59
52
9
13
-56
-95
5
-79
-52
-57
9
5
-43
2
10
32
57
1
1
14
38
-18
2
-76
-16
8
-24
-12
18
32
25
17
-4
24
3
-26
-1
21
0
109
8
-8
-10
5
31
-9
-17
-84
43
32
20
34
-43
16
11
100
-3
-22
7
-8
-6
-3
-22
-86
-28
-77
-28
-17
11
1
-3
-7
39
8
-13
13
-11
-47
-46
56
-61
-21
-11
-51
3
19
21
-128
24
46
22
46
36
-9
-11
3
-59
30
16
22
-39
40
6
-9
11
-13
-4
-19
-4
17
12
62
-18
-51
-29
-4
18
-17
-23
-104
31
-13
4
-6
0
-2
27
-8
9
8
-2
-3
33
31
-45
3
26
23
12
5
-42
37
-16
-32
-55
14
-17
-6
18
-94
9
89
39
-10
7
7
5
-48
42
-8
-46
-6
10
28
76
43
-19
-17
12
24
9
-33
-128
-11
21
7
-50
-31
-3
-1
12
23
-25
-29
3
-9
-18
13
28
19
19
15
11
45
28
7
40
-26
16
-19
9
10
1
3
-59
0
-27
-14
12
-34
-11
-20
41
48
31
-43
-47
-11
-16
-16
-41
-66
-7
65
40
20
4
-2
-25
-4
-9
-80
15
21
18
28
104
-14
-14
62
-16
-34
-8
-15
-98
47
26
21
-5
5
-5
-6
28
23
-21
-58
16
26
-1
-11
-21
-13
-4
31
-2
-9
-9
-17
-8
-53
49
31
102
32
23
43
67
8
-23
-24
-78
-40
-11
55
47
-18
18
93
59
-1
-8
-85
-104
-2
6
-26
-31
-18
-10
1
-7
7
-14
-16
-65
-6
16
25
63
8
-27
2
107
15
-5
-33
-74
-35
-10
1
-66
-8
-5
44
57
8
-11
-49
-36
3
1
-33
-71
-4
-37
-47
-36
-10
-18
-31
-7
-24
-20
-52
-46
-45
-8
22
64
104
4
17
81
3
9
14
28
-55
-15
-8
-100
-17
4
-27
-110
-23
5
34
56
42
-2
21
45
16
49
-7
37
-4
-3
-15
3
-26
-32
-66
-108
-55
-19
-24
16
-1
28
25
90
23
13
29
32
60
-10
-12
55
30
11
-14
-86
-7
8
-73
-49
-13
-9
-6
-4
-50
-26
15
-6
32
2
7
-39
-9
25
127
-16
-46
2
9
50
-3
11
-65
27
-14
0
8
-4
-3
-38
71
-10
52
5
-14
34
5
-24
-18
-50
-20
-4
10
-57
-21
-12
50
51
28
-5
-7
18
-17
11
2
49
4
11
28
34
2
-23
20
-27
3
0
-63
-40
35
-4
-6
-23
6
5
26
51
34
15
-15
-16
-22
-2
8
-10
-11
-7
35
89
35
-3
-28
-25
-17
7
17
-32
-53
-3
20
12
-4
9
-22
-15
10
-12
-3
7
46
-9
65
-8
10
-8
0
7
14
55
-113
38
-3
6
0
29
14
-13
9
88
55
23
21
-54
-40
12
-23
-24
-32
-12
-23
27
-2
-5
-58
-11
-31
-19
18
38
-26
-15
37
-90
-2
-3
15
0
-28
1
-20
-37
-19
0
-36
-9
3
33
72
59
21
0
48
68
10
24
-22
31
41
6
-74
-84
3
11
24
34
-8
-4
33
37
13
-18
-49
-69
-18
3
17
2
-10
-12
21
38
3
4
-18
-20
-29
17
-57
-125
-54
-15
-4
-4
22
-11
98
123
28
-7
-39
-26
-8
-12
-35
47
14
2
32
33
36
9
-70
-22
-27
-10
-23
-74
-9
-15
-8
-50
-17
-4
15
39
-16
-2
-25
12
25
14
17
43
3
26
13
-51
14
16
-22
-82
39
-4
65
27
-26
-20
-32
-2
-29
1
-13
85
19
7
31
45
26
-51
107
-55
-8
-1
-7
-31
-15
-42
-65
55
2
-13
2
20
-10
-31
-104
-26
26
31
28
4
38
11
20
-78
-35
-19
-13
-1
-61
43
9
54
-7
-9
-24
-23
15
16
36
-23
23
13
14
22
-15
-18
-49
-41
3
1
-13
-25
-27
-22
39
73
-14
-4
-5
21
5
-5
-64
18
-6
-15
1
4
11
17
77
-7
-15
-14
-17
-32
-14
41
1
-3
39
25
34
36
23
-20
54
-52
-2
7
22
-9
2
20
-54
-10
-28
-2
-42
-35
-20
-15
-33
-33
-3
-11
1
33
7
10
67
65
-13
-13
-8
-29
-52
-9
-55
-25
29
2
11
-37
29
-11
19
-6
8
11
-4
-35
-19
-6
34
79
21
2
7
29
-21
7
17
60
-11
-13
-27
-6
2
52
-2
-7
-27
12
22
28
-2
-59
-90
21
11
-5
10
22
19
14
-72
-78
-5
2
6
-12
19
-21
88
9
16
-2
0
46
12
31
10
30
-15
0
-21
-59
-2
-11
29
-61
-16
7
42
34
14
8
35
-8
7
1
-46
6
-8
46
6
34
21
6
30
22
-6
-26
-10
45
-7
-4
-26
19
-3
12
2
-36
4
-9
26
52
28
-23
94
6
-2
1
-5
-47
-47
7
-62
-86
-20
-2
5
-13
21
-21
-9
41
11
7
13
46
-38
30
62
19
-11
-9
-17
-45
7
-4
-96
-15
-40
-8
5
-13
6
14
-12
1
38
16
-4
-9
10
-52
62
-17
-32
-11
10
-5
-7
-16
-18
41
15
-10
1
13
13
19
36
61
11
-5
-24
-8
-10
13
14
-1
-24
19
39
-9
75
-29
-117
-26
26
2
-15
1
-65
21
-15
-128
-46
-9
-28
-47
-1
-23
-12
69
28
-22
0
19
-1
-26
-21
-31
-28
-6
-1
4
-2
21
75
85
64
12
17
83
82
19
29
-16
-11
9
6
-11
-38
7
-40
-37
-20
-2
2
4
14
-9
48
-26
-15
-14
-35
-29
-39
18
-3
-40
16
7
33
29
7
-49
-74
9
6
-3
-1
22
-41
-58
31
54
4
12
-15
-62
-18
42
63
83
19
-2
39
80
58
18
8
43
6
-11
-27
6
-8
4
75
50
17
7
-27
-63
-15
35
-75
-128
-62
-24
-6
54
13
-30
-65
16
14
13
3
4
-10
-32
-42
48
7
-6
-12
-18
-19
24
47
-23
18
1
57
59
19
38
33
18
22
7
-26
-24
36
-13
-11
19
-21
-10
-36
-43
-55
24
62
105
19
17
34
-3
36
-31
-7
-26
-35
-20
-27
-10
-26
-24
-71
-22
6
3
11
-21
6
-10
-2
52
8
4
44
19
12
-13
33
-33
-26
-22
-42
-2
-41
18
41
57
46
20
-15
-41
-10
-28
-48
-53
-49
-1
8
86
43
-30
-36
36
2
-21
-32
-109
-80
-8
-65
-43
4
-14
-16
-16
25
16
34
-30
-26
5
22
57
41
-5
75
70
23
11
20
-9
-47
0
47
-26
-11
-11
-23
11
-6
13
-17
29
-10
0
0
6
53
-18
-34
-30
-4
0
-6
-5
-64
19
21
20
29
13
59
49
-6
-7
50
-69
-72
-4
-50
-72
-4
0
-4
29
73
1
27
57
-8
35
7
-43
-17
-11
-30
-26
67
-6
47
26
-18
-11
-28
-39
-3
-42
-21
29
46
18
40
52
7
24
-29
-33
-58
-6
-12
-24
9
0
65
27
44
15
9
37
-3
-8
59
-47
-27
-25
-13
-10
4
13
43
49
14
14
51
52
34
-20
-21
6
25
11
-41
-25
-36
-34
-44
48
-40
-12
-7
-65
-22
32
59
-72
-29
-12
-27
-24
-2
-8
-74
31
-15
-10
11
22
-14
-26
77
86
51
20
5
26
3
29
34
81
18
9
19
22
16
23
-72
-17
3
6
9
23
14
-5
-55
8
9
-12
-44
-57
6
7
25
-58
-16
-11
14
29
10
14
-49
-21
27
7
-9
-32
-8
35
13
26
25
25
44
56
38
-32
3
-69
-12
-14
-15
-59
-53
8
51
-32
-39
2
-4
0
-27
-52
-113
-90
-53
-13
6
77
8
21
-7
116
33
0
-22
-116
4
-28
12
-35
-1
-3
15
61
12
23
19
6
10
15
11
-9
-48
16
17
68
23
-9
-17
-36
33
-8
37
-128
-42
-8
-18
-7
-22
-12
-56
59
19
5
-1
-5
-15
-3
75
63
-3
5
9
-10
62
35
30
-6
8
7
36
86
-25
-23
18
9
22
-6
-18
-36
-15
54
-54
-40
10
1
-7
-42
1
-33
-18
-114
-48
-23
8
27
18
16
-25
-60
-20
8
15
4
32
-47
4
100
3
-5
-28
-44
-41
26
69
-11
-2
-17
-19
11
-20
10
-71
0
30
14
15
35
-30
-34
75
40
7
10
12
6
-49
4
31
13
-35
-4
-12
-49
-14
-10
-19
-41
-19
-10
15
8
18
-3
-76
30
-26
-7
-14
-10
65
-16
20
6
31
2
17
19
-60
-3
-42
-86
11
19
1
11
3
67
42
77
7
-6
-6
24
-3
-10
-7
-54
-24
-17
-25
-81
-6
-12
-20
-85
-9
-2
16
24
25
5
39
114
21
-1
-7
10
6
-34
13
-45
-12
3
-19
10
-30
23
44
-8
17
6
-11
-63
-22
-2
-49
6
-12
-2
14
81
58
0
43
73
37
7
35
-35
-51
-15
-57
-74
-30
-10
18
67
16
3
35
87
4
-22
-59
-49
-18
-12
-59
-106
-24
9
38
10
-51
5
16
64
14
-8
-57
-46
2
3
101
72
29
18
13
27
17
24
-83
-52
-25
-3
-3
-38
9
38
127
73
16
-18
-18
-23
8
-72
-108
-28
-37
0
27
59
5
58
-33
0
6
13
10
4
18
-33
11
-33
37
-1
4
-19
-19
22
-19
11
-7
-4
-35
-60
19
4
23
-24
8
5
10
62
9
-15
-20
-72
-32
-13
3
23
-16
-1
-28
30
-43
-2
-4
-32
0
-3
9
-15
21
-5
-22
-52
-20
20
-62
-49
1
-7
25
43
20
-15
-29
-1
-14
4
3
-4
6
44
127
84
19
1
8
16
-26
-40
-14
-31
-27
-5
-16
-30
13
11
11
17
-6
-5
-10
26
4
-2
67
49
66
15
51
53
27
-33
-50
-92
-49
-19
-59
-50
-19
1
58
47
21
6
-7
23
25
-27
-35
28
-2
0
-2
-45
-24
21
-6
-40
-29
-8
-6
-11
5
-7
-23
19
11
14
39
59
-10
-21
30
13
6
0
-4
-32
10
14
-11
-41
1
0
0
24
5
-22
8
-17
-7
3
16
-15
4
3
-58
-67
-20
-12
-28
-7
-4
7
-9
36
11
10
-10
-22
-17
0
56
43
18
3
17
14
25
-14
-55
-22
21
2
-10
-5
-8
3
35
-39
-14
-8
31
22
19
7
-8
64
-21
-5
-13
25
5
-6
-42
14
6
-4
-30
-68
-2
0
7
-9
-13
4
-14
-27
-11
8
11
36
29
17
34
41
4
-1
11
-34
-15
3
-4
6
5
-2
-43
-45
9
5
12
12
-1
1
6
50
11
-13
-35
-31
-10
-5
28
14
-2
-13
2
5
11
-3
-69
-61
-24
-3
26
10
4
-15
-23
-41
-10
0
-5
36
-4
7
24
58
30
9
0
-35
-4
2
7
6
-6
4
5
19
7
17
35
36
-15
-10
-23
6
-2
-4
8
-62
-6
0
38
9
-9
26
-1
7
-4
-6
-11
-7
-1
-3
-19
7
1
10
4
2
3
-9
-40
-62
4
8
8
15
-4
17
80
58
1
-16
-18
32
15
-21
-29
-2
7
0
4
-79
-12
-15
-52
-11
12
4
2
14
0
-9
37
-13
12
-4
-2
-7
2
5
-20
42
-15
-1
3
15
-1
-1
21
-43
-10
2
-6
17
3
-2
-4
22
6
-6
-8
3
-2
10
-13
-1
1
3
16
-1
-3
6
38
9
9
4
-7
-15
-1
-13
8
-7
-13
-10
-5
38
0
-9
-21
-5
1
4
-8
-47
0
5
-4
47
21
3
6
1
-1
0
9
-41
-30
-2
17
-3
-5
-4
0
9
12
-2
3
3
-2
-3
7
-10
1
7
-12
17
3
1
-8
27
3
-2
5
7
0
-2
-1
-15
-7
-3
-14
-10
-3
-4
-7
-13
-6
-7
-3
2
1
-1
13
1
2
-5
7
5
-2
-8
-16
9
3
-2
-16
-1
-4
1
2
2
6
1
0
-2
4
-6
20
42
-27
-2
-4
-3
-4
-6
-10
-87
7
0
4
6
-3
-4
-22
1
-7
-4
-10
-10
-3
0
8
30
0
1
-6
-3
-2
-2
-4
-45
-9
0
-1
-2
1
13
-5
30
-18
-9
-6
4
0
0
-5
42
26
1
6
-4
0
4
5
-45
-7
3
3
-1
-3
-4
11
-4
10
5
-10
-1
-1
4
1
15
-1
6
9
7
2
-4
-14
-51
-15
-2
2
-1
2
-3
-1
25
6
-6
-2
-5
-2
4
-6
-11
-12
-3
-16
-4
-2
-7
5
27
6
0
7
5
-2
-1
9
23
-2
1
10
-5
0
-8
2
-52
-4
-2
-4
1
-2
-1
-6
15
14
2
-7
-4
0
-3
-1
-12
1
2
-4
1
1
-3
-3
11
-3
-7
-11
-4
-3
3
0
20
9
-2
2
0
-3
-2
-5
-14
-18
-3
-4
-2
-2
-10
10
-2
12
5
4
1
-2
1
-22
-20
-12
-5
-2
-4
-1
-1
14
48
16
-2
-9
-3
-1
0
20
16
9
2
9
3
0
-5
-9
-48
-17
-7
-2
-2
-1
-2
1
11
-10
-4
-3
-10
-2
-1
-6
6
8
4
-2
0
1
-5
-15
-19
9
-2
-7
-5
-2
-3
21
26
-8
-2
11
10
0
1
-8
-10
-3
-4
1
33
0
-1
-3
-5
-16
-3
-8
-42
-3
5
1
15
12
6
6
7
1
-16
11
-5
4
-1
-3
1
1
-7
-12
-23
-3
-3
0
-5
-1
2
-5
-11
-13
-1
5
15
0
6
2
67
8
-5
-5
-1
-1
8
-4
-46
1
1
5
-1
2
0
9
17
-1
-5
-7
-8
0
-8
5
17
4
7
16
10
-2
-8
-6
-46
-2
-2
0
-8
-1
5
-7
31
-23
-7
-6
-4
-3
-3
-3
3
4
6
-3
7
3
3
1
-15
1
-4
0
0
2
5
4
13
0
-3
-5
-7
-1
-2
-12
8
7
-1
1
11
0
2
20
-6
-4
-3
-13
-28
-6
-6
-34
-33
-10
-7
-2
0
-5
-1
9
2
8
5
10
2
0
4
-8
14
-6
-2
-5
4
3
4
6
-10
4
-3
8
59
4
0
4
27
28
14
-14
-78
-7
-2
16
-22
-10
-3
6
7
-1
-7
-17
-30
1
4
5
-7
-2
-2
1
-2
-5
-4
-15
-13
-5
-1
10
27
-1
-3
6
28
1
-2
-13
-13
1
1
-10
-13
-2
1
24
49
10
-2
3
1
0
15
-23
-13
4
-3
7
-7
2
-1
5
-28
-4
-1
-3
14
3
-10
-4
15
-6
-2
-4
-16
-4
12
1
-3
0
-1
-1
14
1
3
6
19
4
5
5
7
2
8
-7
2
5
-5
-12
-23
0
-8
-8
-4
-6
-2
7
10
-1
2
2
-12
4
4
8
2
1
-9
-6
-23
-7
-7
-5
-13
-4
-3
-4
-12
-11
-3
-7
14
0
-3
7
-1
1
-12
-5
3
-1
-1
-2
2
1
3
-21
16
-1
3
3
43
3
8
20
-59
-6
-8
9
-36
-14
-2
-2
24
-1
1
-10
0
-2
2
-6
-7
0
-2
9
6
4
-10
-5
-6
-2
-4
7
-1
-5
0
-3
19
3
1
-10
13
16
4
7
1
-3
0
-2
-6
-4
-3
-1
0
2
-4
-3
-34
2
-2
3
-5
-2
-3
-1
-5
-8
-4
-6
0
0
-1
-6
7
-6
0
4
1
-1
3
6
16
-11
-1
3
28
3
4
-20
-2
-2
2
-2
-38
-7
-8
17
7
5
-3
-4
4
3
-3
-8
-43
-15
-9
0
2
0
3
12
12
12
2
-2
-1
2
-11
-41
7
-9
-1
0
2
-5
5
2
5
5
1
2
10
-1
-2
0
17
2
1
-18
-10
0
0
6
-69
-14
-5
11
3
-2
-7
-1
2
1
-2
-2
-8
1
1
-12
-15
0
1
-7
-4
0
-1
1
22
-1
-1
10
28
3
4
-11
12
-1
-1
-17
-31
-2
-1
35
-4
-4
-3
0
-17
-3
0
2
8
8
9
22
28
1
8
12
4
-3
-2
-16
-26
0
-6
-12
15
3
-8
-4
12
-3
0
0
-4
-6
0
1
3
1
-8
-11
2
-4
-7
-12
-13
-3
9
7
-2
13
4
14
13
0
-1
-1
7
-5
4
5
0
2
0
-2
18
9
2
-8
-1
-1
8
6
-19
-7
1
2
0
-2
-12
-9
-5
7
1
4
2
-4
-23
17
-2
6
1
-4
-6
-1
-1
9
1
-6
-9
-5
2
-1
-1
-7
13
-3
-1
-10
-7
1
-3
-1
1
-4
-2
5
-1
-3
8
-3
-6
6
5
14
65
4
-3
1
7
-2
3
-15
-85
-11
-6
-14
-45
-6
-3
-5
9
1
1
3
25
-5
-1
3
21
1
2
4
17
-1
-7
-9
-26
-4
5
-11
-8
-2
-1
5
15
1
3
12
7
4
-3
-4
-13
-4
2
0
-1
-3
2
14
13
-2
4
7
-3
0
3
-14
-16
0
-1
-7
11
11
0
4
15
3
-2
8
-16
-7
-3
-7
-18
-2
-2
-8
-20
-7
-3
6
13
1
2
-3
3
-4
-5
-4
-9
-3
-2
1
21
4
0
-1
2
-3
-10
-32
1
1
8
15
9
-2
-2
13
-15
-8
-6
-8
-11
-1
4
-1
8
16
8
4
-8
-1
3
7
-20
-8
-7
-5
10
2
19
-12
17
1
-8
-22
0
-1
3
5
20
-2
4
18
7
0
-3
-4
-19
-4
3
14
-24
-4
-4
2
-9
3
-2
10
33
6
-6
-6
-4
-7
-1
-7
-11
-3
4
-8
6
6
2
-13
-11
2
3
-2
0
-8
-3
-2
11
1
2
8
-4
-6
2
1
11
1
-6
-22
3
4
-1
0
-6
-3
3
33
-9
5
-2
-5
-6
-2
-4
-7
-4
0
-1
5
14
1
-6
-17
-28
-12
-1
-4
0
-2
-7
7
-1
4
-2
-14
-19
-3
3
-3
18
-8
-1
9
2
0
-12
-20
-1
-4
-5
-7
-6
-5
4
10
10
3
-1
-3
6
-1
-3
2
1
3
3
-1
10
1
-1
-11
-10
5
4
15
0
-2
1
13
28
-5
-3
-9
-6
-2
-1
-11
-9
-2
-1
-6
0
-2
1
9
-1
-3
-1
10
4
-3
-1
-3
-2
-3
-4
-10
-8
-2
3
-3
-12
-10
-6
-5
-2
-1
5
-6
11
8
6
3
0
-1
-2
8
-2
5
-1
4
2
3
13
-19
-2
-3
2
-7
-2
-4
-15
-5
-45
-2
-7
-3
-3
1
-1
7
-5
-12
-8
-7
-4
-1
0
4
-12
-7
-6
1
2
1
1
-8
7
2
-5
-16
-2
0
4
-5
7
-5
0
2
-1
-3
0
11
-5
14
16
16
4
-2
3
1
10
2
3
9
17
1
-8
18
-5
-4
-3
-10
-27
-1
2
7
1
-1
-7
-9
-7
-1
-2
14
4
-6
-8
-2
-11
-2
0
-22
8
2
3
8
13
-3
-4
-9
-19
1
1
3
16
0
-1
-4
10
-3
2
-10
-18
-3
2
-4
21
1
-4
2
3
0
-3
8
-35
-3
-4
-9
-9
-1
-5
2
5
-5
-3
5
5
0
-2
-8
9
9
4
3
4
-2
-3
-3
-12
-1
-2
-3
0
0
-1
14
23
-4
-1
-1
-6
-1
-1
-8
-38
0
-1
-7
1
-1
-5
-7
-27
-8
-3
15
4
2
-1
-3
1
-1
-5
-11
-5
-1
0
5
17
3
4
7
0
0
0
-3
-2
-3
3
5
-2
-1
2
-5
7
-1
7
5
4
0
-4
0
-2
3
-3
-3
1
0
-4
1
-7
-3
-5
-5
-5
-1
-2
5
8
2
-3
-2
-2
-1
5
-8
-1
-3
-3
-6
0
-2
-3
-17
6
0
3
6
2
0
-13
44
-31
-3
-6
-2
-3
-1
0
4
2
-8
-5
-8
-6
-2
-1
8
36
9
6
1
4
1
1
-2
-4
-3
-5
-3
-1
-1
2
-19
10
5
-1
-2
-5
-1
-5
-15
5
3
-3
-5
-1
-1
-1
22
11
-4
3
7
4
1
1
-2
-23
-7
-1
-6
-4
-2
-5
-2
-14
-1
-1
13
0
-1
-2
-2
12
-2
-6
-11
-3
-1
3
-13
20
3
-2
-5
2
-1
-10
-7
-12
1
5
8
2
0
7
8
16
3
0
-4
0
2
-3
2
16
-1
0
3
-2
-1
-2
-17
-79
-10
-3
-1
1
-1
-1
5
33
2
-5
-6
0
0
-4
-11
-5
-3
-1
-6
-4
-4
0
15
24
8
3
-3
1
1
7
5
14
1
-3
6
0
1
-3
-22
11
3
-1
0
1
-2
5
23
-26
-9
-3
-10
0
-1
1
-6
18
-1
1
3
-3
-2
-5
-7
12
2
-2
-7
-2
-2
4
11
-13
-2
-3
-12
-1
1
1
2
30
5
-1
-2
0
1
0
-21
-54
-6
0
6
-3
-7
-5
-26
-35
-8
0
-4
4
3
-4
12
-3
2
-2
3
-2
-1
7
3
10
3
6
0
-3
0
-5
-5
4
-3
-6
-7
-3
-2
-16
35
11
5
2
-5
4
6
-10
-23
-21
-4
-12
2
-5
-1
5
-4
-7
-8
6
7
1
-2
-1
1
11
7
2
-2
0
-1
7
-28
-6
-2
-6
-1
-3
-7
3
24
-5
-11
1
0
6
7
-5
0
-3
2
-6
-5
-4
0
-6
5
2
3
1
9
0
-7
1
-2
-6
0
-8
-9
-2
14
-4
1
-16
-9
-1
4
-1
-9
5
-34
11
9
6
-5
4
-4
5
24
5
-11
-2
2
-1
9
-7
4
-7
0
-1
6
-3
-13
2
-18
-15
-1
5
2
-2
2
-2
6
-4
-3
-1
2
0
-4
3
-5
14
8
-2
-8
3
13
4
24
8
5
3
3
-3
-15
3
10
11
-6
-4
-1
0
-4
-5
-21
-24
-10
-6
-4
-5
0
2
-3
-18
-1
0
-3
-1
-6
7
-22
18
1
-1
5
6
12
-3
22
8
6
3
-5
-9
-6
2
19
-6
3
1
-5
1
6
-10
2
-17
-8
-5
6
9
-4
13
-11
-12
-2
2
-4
-15
5
-10
-26
-8
-9
-4
-11
-5
-10
-5
-22
28
6
-6
-8
-5
6
-9
15
-17
2
-4
-1
-1
-7
6
32
14
-10
-5
-8
-5
-8
11
-29
6
12
18
27
22
20
-6
29
-102
-24
-11
-11
-21
-16
-2
-57
-4
-4
-8
-11
6
33
-21
43
10
5
0
-2
-6
-13
-32
-47
23
-2
0
7
9
-21
23
2
71
18
15
22
15
23
-5
-12
-21
17
5
0
-7
-19
18
-6
-52
-9
8
14
41
65
2
-6
43
7
-5
-27
-63
-98
-18
-57
-102
-76
2
13
-1
71
-14
83
105
7
-39
-23
-14
-99
-4
78
93
60
2
4
-2
43
17
-82
-102
-33
19
23
28
83
42
34
124
61
22
21
40
-106
-17
-65
-73
-46
-13
-36
-53
61
24
77
3
-31
6
90
96
-17
46
-10
63
-23
-8
-61
-61
-42
25
-67
72
-2
5
8
9
17
-69
-17
-71
-22
-25
-6
24
-72
-29
-115
-62
-5
-34
-56
-57
-45
21
127
-28
20
15
36
-10
29
65
-60
67
-27
5
1
36
84
-35
114
-39
11
7
-22
-1
-88
-12
34
-17
29
9
36
37
48
4
45
83
-30
-28
-32
-69
-106
-76
63
-128
0
2
-42
-86
-82
20
-6
13
78
28
34
99
97
5
95
88
22
-6
-44
-107
36
21
-7
-80
-21
6
42
92
50
9
67
120
27
-5
4
-10
-17
44
-34
-56
41
17
8
22
110
51
5
34
-110
-48
-29
-33
-113
-52
-65
121
93
17
13
26
22
-45
-56
-128
50
2
-13
-29
-11
25
19
-58
8
13
15
4
66
79
-29
-6
-7
16
4
27
81
-10
-5
93
9
-6
-1
21
45
8
91
-86
-69
-21
-20
-40
-59
37
-38
0
-36
-4
-12
-6
71
-108
-96
-13
11
-3
-10
-30
-78
46
47
8
4
-3
-47
33
79
-25
-100
-26
-23
18
88
56
14
67
119
127
40
-1
11
-14
30
-74
-108
-7
-1
-8
-40
-44
-82
30
10
-117
-38
-16
-21
-57
-32
65
104
22
49
2
4
97
58
-13
66
86
-1
41
15
-103
-4
15
-19
6
-11
6
33
102
24
-75
-24
-49
40
-34
-15
-18
18
3
59
100
54
3
-26
-14
16
-16
-121
-59
-55
-17
7
8
-102
23
121
58
67
17
-3
8
47
-7
43
26
-27
11
10
6
11
31
8
11
-54
-32
-16
-17
17
-4
60
95
47
13
18
-3
-43
-29
-113
-110
-61
-5
-23
-47
16
-1
99
-19
-4
-7
35
104
-20
-32
38
-3
7
-8
-47
-79
-34
-73
8
48
-10
0
-24
-17
-120
-4
-96
-128
-10
-12
28
6
-74
-48
74
83
29
4
-23
-73
-6
2
-7
-35
27
16
6
33
105
24
0
-12
-24
-2
0
-21
-34
59
40
68
-84
-13
-1
58
31
-53
-68
-120
52
25
38
28
36
-47
82
91
47
1
2
-20
-50
-20
-32
-67
-30
1
-6
11
15
9
30
87
59
12
1
10
18
38
-37
27
3
-10
-20
-45
31
-12
-66
-105
-58
-10
35
32
-8
37
-5
78
4
8
-13
-3
44
-39
-3
-80
-37
7
14
-36
14
-8
47
62
-21
-34
13
89
-23
1
-57
-63
14
6
-79
-103
-67
-6
-47
36
-51
-9
26
86
-43
0
-28
65
58
4
27
22
77
8
19
4
-19
7
-33
49
-26
-54
-76
30
-12
5
27
26
8
18
-21
-64
-10
-4
17
-12
5
-15
101
-73
-13
-9
-33
-38
-40
-30
-128
-25
-28
-5
24
-15
5
12
-1
26
39
16
29
54
40
3
37
-2
-21
-24
-44
-105
-31
15
52
-94
-22
10
-3
2
-47
-24
-24
17
25
-9
7
5
-14
52
74
49
17
-4
-23
-3
14
-21
-58
-20
-12
-11
0
22
55
1
23
-14
23
2
-8
-6
-47
109
12
-81
-45
1
-17
-66
36
-42
-75
49
-29
5
8
33
-7
-18
11
-57
3
-17
1
-2
3
12
30
69
57
5
-21
33
72
26
104
-45
-3
15
38
20
-43
-40
-74
-12
-7
2
8
-51
-41
-9
86
-47
-15
3
0
47
47
19
-43
51
-4
7
3
-1
-4
-2
105
-3
-20
1
-4
-19
-7
4
-83
78
5
-20
-16
4
10
9
70
46
6
-1
2
-13
7
-26
-9
-39
-25
-20
-20
1
-45
50
77
52
70
15
-1
-18
-7
-46
-37
-54
-34
-3
9
32
-29
17
-12
86
24
8
-24
-26
0
10
-13
-75
-33
-22
11
13
32
-29
9
-64
-21
22
9
-16
-18
9
39
74
14
-1
30
45
0
12
15
91
35
9
-6
33
24
21
7
-70
23
11
-8
-31
49
-47
-47
66
23
13
13
29
-42
37
127
-33
-11
-25
-24
-61
1
-31
-127
-74
2
10
34
20
-14
21
-46
127
26
8
-32
9
56
7
-65
-125
-74
-8
7
43
-5
24
15
97
13
-13
-15
-13
94
-13
51
41
21
5
14
-20
-76
32
15
85
-10
-3
7
2
2
11
-108
-75
8
-4
-5
-14
7
-7
-54
-23
-36
-8
-31
-11
-6
38
-6
-97
-19
1
42
87
61
-3
25
94
41
13
8
-46
-69
13
81
59
-21
-14
-31
-36
1
10
-33
-20
25
-3
24
27
12
-15
-40
-50
-20
-9
-14
-24
10
12
70
-1
28
0
0
16
-11
-28
-51
61
17
18
62
90
-8
42
-1
-125
-38
20
-51
-88
24
-31
-25
48
5
-24
-25
0
6
-19
10
-31
2
1
43
61
-11
-8
-27
7
-22
-32
-70
-99
37
22
127
-58
9
-3
29
49
25
-16
-117
-44
-37
10
-9
-14
-52
1
-16
59
18
0
-4
-41
-50
-27
25
2
11
-2
20
62
50
31
21
5
-12
12
-5
-63
-50
6
-5
-68
-52
-24
-28
-45
1
-8
12
-59
-42
-2
26
76
35
21
84
90
80
8
-30
-57
34
2
50
39
36
-7
0
15
-26
-3
3
59
-7
8
69
87
-20
-66
-97
-95
-69
-17
-96
-122
-38
-7
-31
55
-14
-6
-5
-3
-29
3
98
74
-13
7
29
14
-41
-3
-47
-43
12
-15
-7
-18
13
40
50
54
23
20
22
62
27
-30
-21
-69
-14
-7
-7
-75
-55
-7
-87
9
-4
-9
5
19
-6
2
91
51
25
26
11
-3
-43
-59
37
-50
-24
-15
-4
-10
27
12
88
109
34
1
54
120
-7
-28
-50
-68
-28
-6
-71
-57
8
27
22
5
36
15
-10
-2
64
1
-40
-5
12
-1
21
78
12
10
7
26
-19
-9
-22
-62
1
-39
33
81
17
16
46
42
15
-3
-32
-93
-13
-3
-11
2
-19
-2
72
127
39
-2
-5
-22
-13
18
-40
-99
-24
-3
-6
-19
-2
1
-121
-110
-7
-6
-16
-9
-32
16
113
47
15
-4
-15
11
0
2
-46
-55
-10
16
36
-29
-2
6
-19
48
3
-2
-34
16
18
11
111
42
-13
-18
-4
-11
-9
-31
-43
-52
-4
3
5
-7
-17
39
-40
-42
-23
-17
4
-22
-7
36
94
51
15
8
-15
-15
56
-50
-98
35
26
13
11
8
-58
-1
20
42
-25
-24
-15
50
9
25
-60
-78
-68
-4
-28
-73
-40
-54
-102
1
9
-14
-18
-34
-5
-3
118
11
-24
-9
21
13
18
7
46
37
37
-2
0
5
-8
11
63
-28
19
7
-10
25
36
14
63
-5
-22
10
46
63
-14
-6
-53
-36
6
4
-3
-41
-9
-20
-88
-105
-29
-7
-34
-81
-18
-10
8
93
12
1
30
90
20
-6
30
48
-24
-1
-40
-54
1
6
6
3
30
-11
30
73
19
16
34
15
-11
-6
-33
-60
45
-40
40
-35
0
4
5
12
-7
1
-8
41
11
16
19
36
12
0
-9
52
7
7
2
-2
-2
39
19
10
11
8
19
51
32
-42
-40
-125
7
-10
-11
-19
6
-16
-115
-20
-49
-11
4
-29
-31
61
127
94
26
6
-7
-18
12
-19
-118
-76
-28
5
13
23
7
-9
66
124
47
1
2
-8
-29
-1
14
-2
22
1
-14
-8
26
-1
-41
-46
-43
-8
-8
0
-62
-17
-2
-38
-3
4
-4
18
10
19
51
32
9
3
-12
-56
-11
11
-59
-51
-6
7
35
48
-18
-22
16
55
28
-7
-13
-28
35
4
-6
10
26
6
33
5
2
-5
12
19
-14
1
-30
-36
-13
-2
-20
-99
0
-1
33
58
33
5
-54
-83
-24
3
-22
-7
-18
1
32
81
15
-13
-2
-29
-21
-7
-92
-36
-9
-5
0
-2
-19
26
99
59
44
5
0
-9
-3
6
13
-81
-14
4
49
87
19
24
-29
27
0
1
-41
-48
52
-20
24
1
11
-10
-1
-2
-18
-6
7
-79
-60
-12
-46
-58
-11
-21
-32
69
30
8
22
29
-2
-11
67
-105
-21
3
34
57
23
-10
52
54
-8
-3
-27
-31
-22
-3
-72
-65
27
8
25
59
-1
-15
62
51
-3
-1
-34
-49
-2
3
19
106
27
8
-5
-43
0
5
-73
-22
-24
-5
2
-4
-6
-36
-37
-111
-12
-16
-1
28
16
7
5
-48
-7
3
21
23
-23
8
20
91
23
3
-39
-23
-1
25
33
41
14
13
-7
-49
-5
0
-71
9
-30
-10
-7
9
7
3
-33
-5
3
-10
-10
12
3
32
121
0
13
12
19
7
-7
-1
-43
6
-10
0
21
57
31
-39
-73
39
7
-8
-28
-30
-22
4
30
-66
-26
-8
-7
-32
-1
-20
-77
5
-2
-8
62
80
-14
31
66
-2
17
12
-1
48
-8
-10
21
-7
-11
-6
-76
-111
-22
15
-49
42
18
8
-5
-23
21
3
118
48
-26
-13
6
-13
-22
-20
-48
-72
-16
5
14
14
-3
-22
51
12
12
6
28
54
-18
13
-9
-25
-12
-21
-29
67
53
26
40
-32
23
14
-4
-85
-11
-19
-94
25
12
-5
-15
-10
36
39
126
-10
16
11
63
51
-4
-38
-7
-65
-17
3
-27
2
-14
-7
-46
-71
-24
-11
-10
-16
-6
2
12
100
26
-11
5
37
21
9
41
-17
26
1
3
-67
0
-6
-48
-82
-18
-2
14
28
38
-11
16
8
22
3
-13
-26
-27
26
69
-29
-31
-1
6
6
-20
-1
-3
27
-10
0
-12
2
-5
3
-18
101
13
6
22
-57
31
-1
-95
-30
-6
-9
-33
35
-1
-23
15
-8
3
8
-16
-25
3
31
23
41
-28
-14
14
60
-14
15
59
28
22
-1
6
-38
-6
-42
-57
29
-1
3
-24
-30
-2
8
46
-96
18
7
22
31
-26
-6
-69
31
-24
0
-7
-27
20
-12
-16
50
-24
0
18
70
3
-19
22
-86
2
-20
-17
-24
-32
-10
0
-39
26
14
6
24
27
-14
-14
21
19
1
7
-1
-6
-11
-4
-25
-27
-4
-15
10
-8
20
3
-8
-9
11
22
35
6
7
-89
-49
-59
-17
-3
-29
-13
45
112
26
43
12
25
70
31
-103
-123
-6
19
-8
-39
-60
-26
33
126
82
19
-2
-32
-44
42
-15
41
-4
-4
3
10
30
-42
-12
37
-74
-44
-6
32
0
-2
71
54
92
11
4
-34
-32
4
6
11
-18
-27
1
10
-1
12
-16
36
14
51
5
7
14
25
-11
-21
-20
-27
5
-5
-54
-30
-12
96
42
11
-22
-13
-15
-15
5
32
-105
1
1
17
70
21
6
-27
107
-3
-1
21
-24
11
28
53
-43
-7
-5
-43
-30
-2
14
-121
-45
-12
9
27
54
15
-29
-13
72
3
-2
-25
-36
-20
-1
-13
-100
-10
2
16
-8
-5
-71
-42
109
35
-9
-30
-2
-15
15
20
-108
23
18
45
39
41
-1
-39
-38
-41
2
18
64
-19
21
53
-3
18
0
37
102
22
0
-57
-6
-23
-2
-82
-110
-20
8
43
-54
0
-7
17
79
-14
-10
47
-71
-15
11
30
44
30
3
40
76
8
-16
-87
-127
-28
-32
-85
-94
-47
-21
32
63
-20
-7
48
78
44
13
23
11
-34
-16
-105
58
5
-3
-4
-11
-3
-29
74
1
-24
6
18
73
11
6
-49
7
20
14
62
15
-13
-7
-16
-74
-25
-19
-59
-43
3
-9
42
101
14
4
11
-4
-10
43
-65
-48
-18
-5
-32
-53
19
7
37
30
29
1
-24
-6
-1
15
17
-36
-8
10
59
78
0
19
50
118
6
-12
-41
-88
28
-23
-52
-46
-38
-18
-12
10
-41
20
8
71
23
4
13
9
10
37
3
67
-3
-5
7
-19
-18
-61
-1
-35
-26
3
12
54
-18
6
30
63
15
19
2
-50
13
-13
-72
-87
14
-6
3
37
21
-25
-22
46
2
1
-38
-115
-15
31
58
9
11
-8
38
57
-11
-57
-49
31
-14
-8
-54
-27
9
11
5
1
-10
-1
-5
-62
-3
-8
1
48
23
8
1
39
6
8
-15
-113
-40
-13
9
0
-12
7
-48
-5
18
-3
-7
-2
4
23
66
51
8
0
-5
9
6
5
3
-16
-6
11
29
51
1
-3
-70
46
3
-2
-26
-103
-22
18
32
1
4
-3
19
39
6
10
25
10
-10
5
14
18
12
0
-9
-25
-15
-16
-9
-9
-2
7
23
-16
11
11
-7
16
-3
7
-8
-14
-8
-4
16
21
8
-3
17
5
-1
-4
-19
-29
-1
1
-25
-20
-27
-5
-20
-30
-3
7
8
6
7
-2
12
28
1
12
15
14
7
-5
-11
-34
-6
-21
-28
-17
4
9
6
18
-3
8
2
4
4
-10
-9
-10
-1
2
-43
3
-17
-12
-17
1
-1
-15
29
18
18
13
23
10
0
2
15
-10
-17
-3
1
11
4
-4
-1
-25
-3
1
2
2
2
2
-17
20
11
-3
-12
-17
-5
9
-4
-2
-18
-8
0
-5
-2
9
3
3
0
-3
-12
4
0
-11
1
15
17
13
26
4
-3
10
-6
-24
-1
3
-2
0
0
-1
-12
-8
-8
-6
1
6
1
-1
1
-9
4
-2
-4
-5
1
5
14
-3
-8
-4
-7
-7
-2
-1
-19
4
11
1
-3
5
1
0
-9
-7
-47
-4
1
-9
-3
9
11
0
17
-3
-1
14
2
-4
3
-20
13
4
-3
-12
0
-3
-26
0
1
1
4
-3
1
2
-26
14
13
1
2
5
3
7
45
-11
-5
3
0
2
-1
-5
-13
-20
-21
-13
-6
-10
0
0
-4
-2
11
1
0
6
2
5
4
-8
-8
-4
1
1
2
0
-28
13
11
7
4
1
-5
2
4
-1
-10
-4
-6
-9
-2
0
-3
7
10
1
0
5
2
2
4
-4
-4
-2
3
-4
-1
-1
-3
5
8
5
5
1
0
-5
9
-13
5
0
-26
-1
1
-13
-12
5
-23
-3
21
0
-5
5
6
4
18
2
0
-2
0
-5
4
-2
-7
-3
3
2
-2
8
11
8
-5
-8
-4
-3
2
1
-8
-33
2
3
-6
1
-1
-6
-2
-13
-4
-3
1
-3
1
-2
-3
15
-8
-4
-4
1
-1
1
10
2
-4
-1
2
-4
-1
4
-5
-11
6
-2
-8
-4
-3
0
2
32
-3
4
4
0
-2
0
-7
-30
-5
-4
-7
-2
-1
-1
-8
-2
-9
-7
-1
-3
-4
1
15
34
21
1
-27
-4
-3
-1
-3
-18
4
7
22
5
-1
-4
3
0
-4
-4
13
-2
-1
-5
-9
-12
1
1
-3
-5
-2
0
-7
11
0
1
15
54
2
0
3
-18
0
1
-21
-65
-5
3
2
10
-6
-1
-1
6
0
4
-5
31
4
-4
2
-1
-3
-3
1
-53
1
-1
-1
-3
3
-1
-5
-5
5
4
0
20
1
0
1
-16
-7
1
2
2
-1
-2
-7
24
7
0
-3
-7
-1
0
4
29
12
-1
3
-3
-2
1
4
-8
-20
-9
-1
8
0
-4
-10
-6
21
6
-4
-6
0
-1
0
1
-15
3
2
6
-1
8
-1
1
3
0
0
-9
-1
-22
26
7
5
2
6
7
-1
-4
6
20
-13
-13
-11
-4
0
-5
-12
-29
0
-1
-7
-3
-2
4
2
-5
-4
0
4
-7
0
7
-9
19
0
3
0
4
-1
0
3
-6
5
-3
6
9
2
-7
5
1
-5
0
2
-2
-2
-2
-11
-6
-1
4
-1
-10
-1
9
-1
7
1
-10
-11
5
2
-2
7
14
-4
1
0
-3
-2
6
3
0
4
1
0
-4
0
1
10
6
-10
-5
-11
-7
-1
3
-12
-2
17
5
9
10
1
1
2
-5
-2
-2
4
4
-1
-2
-6
-5
5
6
3
-10
-4
-2
-17
32
-7
-3
-6
-16
-4
2
22
-21
-9
-3
-5
1
1
1
1
-27
2
3
-9
0
0
0
-4
9
5
-1
-2
15
-1
-6
3
-21
-4
-6
-2
-27
-1
-2
-12
23
0
0
-3
2
-2
0
-6
-15
-11
-4
-9
-6
-1
0
2
-20
-6
-8
-6
5
0
3
4
6
5
15
18
38
1
6
-16
9
-8
-5
-8
-40
-3
-16
12
3
-2
-1
-2
2
-4
-9
4
-8
13
2
3
-4
1
1
-13
-12
-7
-6
-7
4
0
9
13
12
9
4
1
15
0
5
-11
2
-4
-1
6
3
4
-3
-7
-20
-10
-8
-11
-27
-8
-4
11
4
-1
3
4
12
4
-8
-16
-29
5
0
2
2
0
5
2
15
-5
-7
-11
-22
-2
1
1
12
-4
-4
-2
16
2
3
0
1
-5
0
1
-9
-3
0
-3
-10
10
9
10
18
-2
-4
10
23
-4
-7
-17
-22
0
-1
-14
-11
6
2
3
-3
-3
-4
-6
-15
-8
-7
-6
0
0
-1
17
0
-4
-4
0
13
1
8
-2
15
11
2
17
16
-1
1
-2
3
-7
9
-10
-24
-2
2
19
15
1
-1
7
26
1
-7
-12
-21
-1
-2
-8
-43
-5
-4
-4
3
-12
-4
-11
-17
-9
-1
-2
-2
8
-1
2
9
4
-2
-16
2
2
1
-4
-5
1
-1
-1
-9
1
-5
-7
29
5
-15
4
-11
-4
-2
10
4
-3
0
10
6
-7
1
6
0
0
-2
-3
9
13
-3
-1
-2
-3
-11
-11
-39
-3
6
-4
-7
-1
5
-6
-7
-1
-1
-3
2
2
2
3
-21
-9
-3
5
7
0
-1
6
22
3
-1
-1
-9
-1
0
-7
19
-7
-8
-3
-1
-3
-7
-5
1
7
1
9
11
-6
6
15
4
3
0
10
24
3
1
-9
-14
-18
0
-23
-21
-3
-11
-12
2
-1
-4
-1
-52
-5
-1
8
-1
9
0
-1
18
4
-9
-17
-19
-6
-5
7
-6
-1
4
5
11
3
-1
4
13
1
6
7
9
-1
3
0
19
-1
10
-11
3
-2
0
2
-4
-2
2
9
-37
-14
-4
-6
1
0
3
9
14
9
8
5
0
0
-1
-12
-3
-13
-2
-3
3
-2
-4
-1
11
20
0
-3
-3
0
1
-6
28
3
-5
-8
-2
-1
-6
-7
-6
-5
-4
-4
-14
-6
4
7
-20
-3
-2
3
19
2
1
-4
17
3
1
-7
-8
1
1
3
-17
-7
4
-1
6
1
-4
7
29
8
-5
9
-7
-1
-7
-10
-18
-8
-5
-18
-35
-7
5
10
-23
-7
-4
1
17
2
-4
-1
17
8
2
-5
-8
-2
9
-6
-20
-10
-5
5
20
2
-4
4
36
24
8
9
20
4
13
-33
-41
-10
3
-4
-17
-3
0
2
11
0
-6
3
4
-3
0
-10
-16
-4
1
0
-6
-2
-6
15
19
-2
-5
-1
2
-7
-7
-9
-21
-12
-5
-7
-16
-3
3
-2
9
5
1
-1
-3
1
-4
-10
-16
-1
-2
2
-4
-1
5
2
12
2
3
0
1
1
-4
20
26
1
4
8
17
0
-3
-18
1
-4
-3
-8
4
-2
-4
-15
-27
0
4
24
14
-4
-1
31
31
-4
-7
-32
-43
-2
-3
-11
-33
1
-6
-15
-8
0
-1
2
-5
2
3
2
0
-1
-2
4
6
-1
-2
-6
0
-1
-1
-44
-9
-1
-2
22
39
4
-3
31
13
2
1
5
12
-2
4
10
7
-4
0
-11
-44
-3
-2
2
0
-13
-1
-8
3
-1
-2
0
-23
3
-5
2
-4
0
-5
-16
6
4
0
-3
3
1
0
-5
3
0
-2
5
11
0
4
10
7
5
0
-7
-16
-1
-8
-5
-12
-1
8
2
6
-3
3
7
11
4
4
3
-4
-2
-1
-1
29
-8
-5
4
13
-2
-9
-21
-56
-2
-2
-11
-23
-1
5
9
3
-9
-10
0
11
1
1
0
8
7
6
3
-12
1
1
6
10
6
2
0
-3
1
16
-14
1
-5
-5
-2
0
0
3
17
18
1
1
4
8
0
2
-2
-14
-4
7
11
3
-2
-4
-13
-54
-14
-8
-5
-3
0
-1
5
37
4
-1
-4
-5
-1
-3
-10
-24
-6
-4
-1
0
0
6
5
38
0
-5
-6
-1
0
0
-1
-10
7
3
1
-2
-2
-6
7
-11
2
4
2
6
1
-1
-1
5
-1
1
3
-5
-1
-4
-11
-3
-5
-2
-4
-3
-3
-2
18
13
5
1
3
2
0
-7
-5
-22
-6
-3
-10
-6
-1
6
18
11
3
2
9
3
2
-3
-8
-5
-4
-3
-4
0
-1
0
-1
-10
-1
-2
1
2
-1
-1
6
34
7
1
-1
-1
-1
-5
-21
-35
-14
-5
-8
-4
-3
-1
-25
-21
-3
-6
-13
4
1
-2
11
3
0
5
19
0
-4
-2
14
21
5
1
4
-1
3
-7
-20
-20
-6
-4
2
3
0
13
14
48
14
3
5
6
1
-8
-10
-69
-5
-2
-6
16
21
-2
-6
34
-3
-1
-6
-49
-34
-8
-17
23
3
-2
9
-3
-26
-1
13
-75
-13
-8
6
16
8
6
19
74
8
2
-1
32
-2
27
-13
-6
11
4
-2
-7
34
0
62
20
13
4
5
13
4
4
1
7
3
0
-20
-31
61
-17
-36
-70
-45
-16
8
-26
-66
-28
-43
-45
-30
-9
-21
-25
-49
1
-8
6
10
-5
-16
-7
-44
-2
37
21
23
12
27
47
32
25
-1
10
11
-6
0
-13
65
-47
-3
11
-17
-10
-3
34
-31
28
52
24
26
28
11
25
42
9
-35
45
8
2
-36
-63
-102
25
-73
-47
-33
15
19
-14
61
-10
54
85
3
-15
13
23
-11
53
21
-60
23
-15
-19
10
40
-34
-55
28
-21
-5
6
114
69
41
-55
84
3
3
18
-107
-81
6
66
-18
3
4
-52
-7
113
64
105
72
2
14
86
86
-90
-80
-78
-94
-68
-30
-77
-99
-39
-51
-68
122
47
-7
-10
60
-27
50
26
-51
3
20
0
-8
32
-25
13
57
60
-2
-65
29
108
95
89
51
30
17
77
-5
-27
-74
-59
-51
-55
5
-3
-14
-18
46
-80
53
-14
-42
13
74
40
32
17
-27
-46
12
-40
-128
-24
0
66
-56
16
-15
-1
54
-8
14
102
41
-1
10
14
-72
-6
5
126
127
50
19
8
46
30
-20
-86
-73
-76
-10
21
29
60
57
56
-13
-3
10
8
2
-16
-25
73
23
54
-11
-25
4
-57
-58
-96
-33
-109
-22
-6
-40
-82
-55
-113
-8
26
-20
14
-18
-77
-2
64
53
37
22
1
15
77
8
127
-128
-1
-19
-68
66
68
-96
-101
28
64
51
68
-13
-23
45
82
-68
-91
16
17
45
6
-24
-39
107
76
-48
-31
-16
90
29
88
44
-14
6
54
1
-61
80
111
-2
-8
15
48
80
3
-56
-55
-36
-1
-8
-46
-116
-2
-3
-14
-20
-14
2
30
20
21
55
25
64
16
15
-2
16
83
35
-54
43
5
-5
-11
-1
-1
-50
10
103
-46
-25
14
17
-41
-40
-46
32
74
-5
-39
-33
-38
-13
49
38
60
35
11
22
51
89
-24
-47
-27
-6
-3
-10
14
-17
-19
94
35
-11
-19
-9
-12
10
114
33
-40
-2
12
-29
-31
15
-78
-56
-66
4
-1
49
59
-76
-93
-109
-7
-17
-37
-50
-69
-15
61
-106
18
-18
-3
29
47
13
20
-54
-45
41
58
-11
-63
-27
-30
41
16
-24
-29
-11
-57
23
76
48
-4
12
27
37
4
4
-44
48
-4
6
-47
-72
12
-29
-37
63
15
-27
-8
92
-37
27
62
-105
-2
9
34
44
63
21
-49
112
3
-15
-23
-22
-34
-12
9
-22
30
13
48
76
-6
35
30
-23
-38
20
11
-47
-27
-15
-69
35
20
-6
-33
-20
36
-22
102
-60
-29
-17
4
-2
57
-23
-58
62
57
10
28
-11
-51
-11
-3
-61
8
18
26
-37
-47
-45
-39
45
-7
-17
-59
-88
-126
16
72
36
47
29
12
65
35
70
-101
-42
-91
-40
-45
-49
39
-16
-25
31
-23
-3
-13
15
-78
-9
-14
56
17
-3
22
14
-24
5
78
-61
19
2
-3
-42
-8
-16
5
13
25
-1
-18
28
47
-7
-9
24
-15
-1
12
3
46
64
62
-128
-31
5
45
92
92
-87
-92
-25
-20
-27
-112
-128
-103
23
80
81
4
9
35
56
-11
4
-73
-75
-31
1
-6
26
16
-26
86
96
98
20
6
24
17
-46
-87
-81
-52
-33
35
19
40
13
12
16
27
13
-14
-72
4
-3
-22
-82
-30
12
17
7
-22
43
71
127
-4
-20
-48
-55
-35
-54
-80
-102
4
-9
13
39
-12
-3
-1
-28
-16
7
-14
-19
-20
24
81
29
21
12
10
-5
75
35
-39
23
-9
3
13
2
-29
-29
-29
80
-10
-14
-4
11
-37
-62
-57
81
1
-18
-33
-19
-50
-4
2
-29
-41
-9
-12
-14
20
-35
-55
28
-16
7
39
52
-22
58
39
22
41
6
-27
-31
46
5
97
-128
-19
2
31
13
18
-11
-94
86
23
-3
-34
-7
-45
4
-42
-110
-50
-13
-3
0
9
-41
-29
-30
44
13
32
49
36
28
88
-31
14
4
-9
17
72
-19
-32
-15
14
2
14
41
-40
4
63
74
-5
-4
-5
-39
-34
20
-50
-8
14
9
3
14
11
50
59
30
1
9
8
38
-18
-31
-1
-21
-21
-25
-26
-28
57
-23
-81
28
6
-7
14
36
23
44
16
20
57
28
45
54
-16
-23
5
13
-19
8
-28
-92
-13
21
-21
65
-39
-19
-10
55
24
-68
52
-108
-3
4
19
-21
-28
6
27
31
-4
6
-64
-90
-15
25
14
29
-13
-19
27
74
3
-5
-35
-37
11
20
33
26
31
-3
26
86
16
-39
-84
-62
-57
41
96
-71
-34
8
81
58
28
6
-32
54
54
21
-34
-60
-30
-29
38
32
24
-15
-8
-14
18
33
-61
-52
-9
8
11
51
19
-60
-44
-27
-18
-2
-2
27
-7
15
1
-7
-23
0
-7
-19
0
29
102
90
20
-12
-9
-42
-15
10
-58
-56
12
7
2
-9
-38
14
127
65
0
-11
-40
-31
-12
-13
-86
-128
-27
-3
45
57
22
-28
51
2
33
7
-4
19
13
19
29
-55
-44
-9
-14
-49
3
-1
-40
8
-12
12
39
30
0
-9
37
76
39
-6
-28
-12
-7
25
-60
-61
0
1
-5
-4
39
-57
-91
78
-2
5
-3
29
-79
20
86
-112
-19
-15
-1
-14
7
-7
27
55
-13
-4
38
66
-7
26
-56
-58
-48
-6
-38
-61
-8
-21
-40
-58
16
2
21
-1
25
47
109
118
48
15
-10
-4
18
-4
-45
-54
-40
-16
-11
43
32
25
2
82
5
2
20
39
-34
4
40
26
-27
-5
-36
-113
6
-16
-113
-55
-16
-17
-17
-21
-13
5
-11
33
25
8
11
-15
8
-45
-55
73
22
6
23
65
-18
-19
63
-77
-1
11
2
6
18
2
-6
-40
6
-6
-21
-21
40
-23
-75
-68
-20
8
17
11
-22
20
14
13
2
5
38
26
29
-16
-78
12
-5
-13
-51
-43
25
64
64
-9
-28
-8
-18
-38
-57
-20
35
-63
-6
-6
3
-32
-41
-10
-23
-98
-27
4
0
42
-6
0
108
93
41
-4
26
14
11
-3
-46
-40
-20
-16
-32
-46
16
21
-19
30
9
2
2
8
-1
-1
-54
-39
-13
-15
-20
-3
36
38
16
-59
-13
0
36
47
-20
5
23
66
13
13
-7
20
49
-18
32
-25
5
-3
-2
7
-4
16
49
-15
-8
3
13
8
-12
-12
-68
62
-18
0
-25
-31
13
11
-11
-71
18
-12
21
60
9
-14
-27
14
25
2
-46
-82
-6
15
60
-27
8
0
8
-22
-19
-8
-56
-11
-32
3
1
37
27
-8
21
-6
16
1
25
38
-22
19
21
-4
-2
-14
-12
-37
30
-11
-52
56
20
0
0
2
-12
5
124
3
41
20
6
17
27
10
64
106
9
30
24
-6
-39
-66
-16
-68
-46
-28
4
9
-3
-4
127
-5
-11
-9
-52
-74
16
6
15
-6
0
-8
14
26
-9
10
-19
-40
-14
1
-7
-2
17
20
45
59
31
22
16
25
-14
-36
-44
10
20
6
13
6
-10
16
-58
-22
-44
-10
-13
-12
-7
-25
-36
121
34
-4
0
-25
-25
4
44
-33
-6
1
6
36
-20
-5
-92
-60
-42
-15
-27
-17
-1
18
37
-7
17
3
4
-2
21
-42
-86
23
-15
-8
-3
-13
-17
48
52
17
4
3
-3
-4
17
2
85
36
38
16
0
-9
-27
-63
-100
0
13
5
38
33
-6
-4
18
-47
-32
2
6
25
-5
26
-12
94
-19
9
-32
-52
-11
17
59
-26
38
-15
2
-7
16
-17
-75
-71
-43
-16
2
7
12
-43
15
-68
9
-10
-22
-23
-6
22
45
42
20
8
24
51
29
22
31
38
-4
3
25
26
-14
-7
20
-1
4
3
-36
-75
-16
11
-22
-58
1
6
3
31
-6
-35
-29
89
3
-6
4
-13
-25
-20
-30
-47
-29
-17
-11
-14
-9
23
57
-87
23
7
-11
49
0
7
-30
37
-15
-2
-4
-60
10
7
3
9
6
2
7
20
11
-4
-7
30
-6
5
-26
-20
-30
62
119
115
32
21
57
61
35
-16
-38
-29
-19
-13
-17
8
45
-12
-28
-89
7
-8
29
84
19
-20
-34
17
-46
-20
-65
-91
-32
18
-55
-102
-21
-9
-16
15
13
-13
12
48
14
5
3
-19
-16
45
-22
-9
17
10
22
13
36
2
44
-2
0
-8
14
14
-38
-40
-74
25
1
13
-12
-8
-6
7
45
9
7
3
22
30
-40
-72
-89
-21
-9
-7
-43
-73
-21
25
51
-44
14
13
33
33
44
-22
-53
43
11
-10
-7
-8
-30
0
85
89
16
-1
-13
-39
-12
-2
-70
-77
-28
-4
9
44
27
1
-25
98
21
5
-10
-3
-4
-37
49
-95
-28
-12
-6
-34
-17
-12
-128
19
-5
8
4
4
39
-24
5
-27
6
4
-2
12
-7
-1
15
-11
-15
-1
0
-14
14
14
25
49
5
-4
39
53
-2
14
45
58
15
-7
-23
-21
-7
-5
7
-55
-25
-9
-39
-48
-15
23
-37
23
-13
14
23
52
15
5
25
-51
21
0
31
50
42
-18
-21
-52
-21
-4
-17
-90
-60
16
-1
40
23
0
0
0
7
19
10
-40
-35
-20
-8
-1
0
-35
0
86
20
0
-17
-10
-16
0
-3
9
13
17
28
73
7
38
68
-9
-3
2
1
-23
-12
-3
-51
-28
-2
-1
-10
-24
7
30
59
2
-15
-13
-13
-36
-6
-4
-75
-62
-4
-8
-2
26
20
-18
-36
-2
0
-12
20
38
-10
-14
66
27
25
9
-2
-28
-7
28
-1
-32
-44
3
-15
-9
-1
-22
12
55
23
11
22
-10
-1
0
4
-5
-5
6
-22
-19
-38
-17
-39
24
8
-19
27
71
-15
2
-2
13
15
-10
-52
-84
7
32
93
-9
-29
-5
16
59
-18
-42
26
-53
7
14
18
-5
23
15
-39
24
18
9
-3
-17
7
14
12
70
6
2
10
15
-22
13
25
-40
-10
-11
-6
16
8
15
61
4
-19
-2
18
6
-12
-7
-48
-31
16
12
-6
-30
-6
-10
8
70
-1
-12
-45
-47
15
-6
-11
-32
-21
-15
-9
-29
-37
-1
-69
54
19
1
35
90
-3
4
10
-28
-10
7
-11
-73
16
12
9
17
-6
6
-10
18
-33
-6
22
42
13
-7
0
1
17
-16
-55
3
2
-8
-26
-38
-11
22
68
8
4
5
13
44
7
-31
-97
-89
-19
4
35
67
-6
6
127
118
33
-1
-49
-104
-8
18
-43
-101
-21
-2
9
32
15
-20
6
21
10
7
16
36
-14
-4
-7
-33
-18
-6
-9
16
27
2
7
-19
-2
18
19
-11
11
-3
67
18
11
-5
-18
-10
-14
9
-6
-33
-11
-15
0
15
14
14
17
5
-16
7
-16
-9
-20
4
7
0
33
11
28
90
11
-5
-19
69
2
-11
-42
-82
-30
-32
63
-33
-57
-18
10
30
-2
24
-47
23
48
0
9
-20
5
-3
50
-27
13
20
9
60
0
-18
-24
31
6
9
-10
-48
14
-11
-27
-60
-13
-4
-5
4
-10
-5
16
-6
-4
-17
2
-21
0
1
-113
-96
-37
-13
-15
-7
17
-8
80
25
15
-1
13
61
13
10
-19
10
19
8
12
-54
-24
13
25
30
-1
7
-29
-25
18
0
-69
-24
-31
-16
44
118
13
13
46
-22
-7
3
-5
-94
-33
-13
-38
-19
-1
-7
-49
-27
12
7
75
19
4
2
13
10
0
-3
-70
-4
-42
-17
-21
-35
-7
-3
46
15
8
9
14
52
4
-32
-88
37
1
-9
-10
1
-4
-15
-29
-52
9
1
17
12
-5
10
29
25
29
15
-8
-28
14
16
-45
-6
-22
-11
-4
8
4
13
68
-1
14
14
11
6
-1
-10
3
44
-11
1
10
8
1
3
-23
-55
-24
-5
-9
-17
-6
-12
-25
-24
5
-14
0
12
9
3
29
39
28
0
-1
20
14
-3
26
-29
-1
1
-18
-53
-20
16
-16
18
-12
-1
15
38
10
36
83
2
8
6
-35
-66
-20
-22
-32
5
-16
-3
16
22
-4
-25
-61
-71
-14
-7
16
23
1
13
38
28
27
9
3
-17
-5
-14
-36
30
15
3
10
27
10
17
16
-1
19
10
-18
-12
12
6
-9
-13
4
-6
6
4
-3
-11
-18
-17
-7
-13
-20
-33
-1
-2
-41
28
-5
0
19
35
3
12
38
-11
0
8
-8
-15
-6
-14
-15
18
7
1
14
6
0
-12
-16
-13
-4
3
-15
11
9
4
22
10
-5
-9
2
-57
-2
1
-25
-5
-25
-4
17
30
-2
22
42
18
24
14
-7
5
0
-73
21
1
0
1
15
-10
-13
-17
-63
-3
-5
-3
-10
47
9
-1
5
-9
1
-8
-20
-30
0
-6
2
5
-11
-8
15
6
-1
17
1
19
9
2
-6
8
-2
2
5
7
-1
5
15
-8
2
-8
1
-26
-9
-1
-2
-7
0
7
-8
22
0
-2
-4
3
4
7
3
-4
14
11
-6
1
0
3
-10
-17
-8
-7
-7
6
4
10
-1
8
11
-7
2
-7
-2
3
3
0
-9
7
10
14
2
8
2
-8
-16
-13
-17
-27
-5
-11
0
-5
10
5
9
8
3
-3
4
18
-5
-3
-3
-1
-2
0
0
-10
-5
-7
-3
5
0
5
-8
-4
-19
0
-3
-11
-7
-2
9
25
-3
-7
-7
2
-1
2
-7
7
20
-2
5
9
2
-7
3
-11
-10
-3
-4
-4
2
9
7
5
-11
-4
-7
-8
-1
3
1
-8
16
9
6
11
0
0
-6
-13
-12
-4
-7
-7
0
-1
-1
16
-4
-4
3
1
-1
-3
-1
-3
11
1
7
-3
-2
-3
-9
-14
-4
4
-8
2
-2
-3
-1
5
-8
-1
8
-3
-3
2
-2
-12
5
-1
-12
-1
1
-2
-3
-2
-5
-10
-8
-1
1
4
2
1
-3
-3
20
0
0
5
0
9
6
3
-5
-1
-4
-4
-3
-17
-16
-4
-2
2
0
0
1
4
2
-2
-7
-8
-1
3
3
-2
7
-1
-9
3
3
1
2
9
5
5
6
1
-2
0
-6
8
1
-4
0
14
-2
-3
4
-13
7
-3
0
-11
0
13
-16
-12
-17
-2
-8
-10
1
-11
11
-12
2
2
2
4
1
5
-6
5
-1
-2
-9
-2
-1
8
-5
11
-5
2
-2
5
-2
5
7
-7
-7
-7
8
8
-1
2
-12
10
-1
-3
4
6
0
3
12
-10
6
3
-4
-17
0
-5
-10
-35
-12
-4
-2
1
-1
-3
0
-4
-9
-1
-9
-1
-2
0
-22
-5
7
1
-7
-3
0
4
38
12
5
4
7
6
0
6
6
19
3
1
0
-1
1
-9
-5
-20
-10
-4
-2
-2
-3
0
8
9
3
4
-2
-1
-2
-2
-33
-18
16
10
11
4
-1
1
13
12
-3
-1
1
-6
2
-8
-6
13
9
0
-8
1
0
3
-18
4
-12
-5
9
-3
-4
-6
1
0
-1
-4
0
-4
-1
-6
-13
9
-1
-3
3
10
-2
-1
18
23
5
2
-2
-17
-3
10
-11
-17
-4
0
-12
-3
0
-3
12
8
-7
-5
-10
-5
-2
-4
-15
-10
5
-5
6
8
1
6
-5
29
4
4
0
10
-4
-1
10
-31
3
9
10
17
0
-10
4
-9
-12
2
1
-41
-3
-4
1
0
7
-5
-15
-10
0
-6
9
-11
-5
-6
1
-9
-5
-5
-9
0
-2
-5
-5
11
0
2
-2
5
9
3
-3
19
2
3
11
20
5
6
8
-2
0
-9
-11
-22
-6
4
-3
5
-2
1
29
-13
-8
-6
-4
-8
0
-3
-30
-16
-9
-6
-1
5
1
-4
-9
-10
-1
-5
-5
7
-2
15
9
-1
4
-2
14
17
5
-21
-3
23
0
-2
-37
-47
-3
4
36
-6
-8
3
29
38
2
2
-12
5
2
4
-11
-24
-4
2
1
-1
-3
1
2
-31
-3
2
3
11
1
-6
8
7
2
-2
-27
-31
-5
-8
-14
2
-2
-16
0
3
-5
0
13
13
0
2
8
5
9
8
22
19
-4
-2
16
-8
-2
0
-21
-10
-3
1
-20
25
0
-1
-14
-18
-3
7
6
7
0
-5
6
9
-2
-5
-15
-25
-9
0
-3
-2
2
-2
-14
-1
4
-1
5
6
2
13
18
1
-6
2
12
40
2
-12
-18
-3
6
1
-21
-40
-3
-3
14
32
6
-4
-16
-43
-5
0
3
-37
-8
-4
18
17
-1
-3
-22
-19
-6
-2
-2
-9
1
4
-4
3
-1
-1
-8
11
4
8
22
1
1
-1
-4
30
-2
-4
-9
-5
-6
-1
4
-40
-8
-1
-7
0
-4
-3
-14
0
-3
-22
28
9
9
3
19
25
2
-7
-8
-1
-8
-6
-16
-16
0
-1
-9
6
2
0
-11
6
-3
6
15
-2
12
4
11
7
0
7
-3
35
-6
3
2
-13
0
-8
-19
-31
-8
-1
0
-5
1
2
4
7
4
-2
5
12
0
-6
37
17
7
-1
-11
-8
1
6
-25
-37
-15
-2
2
4
-1
4
18
17
-1
1
14
31
-3
3
-7
29
3
-8
-15
-15
3
-10
-8
-21
-5
-7
-12
-14
-4
10
15
-9
-2
2
3
8
-2
2
-2
12
2
-3
-8
1
4
-17
-13
0
2
8
8
8
-7
1
9
12
10
-2
13
46
1
3
0
-3
-13
6
14
-43
1
-2
-18
-15
-4
-2
-9
-6
-4
5
6
8
11
-3
1
12
0
-6
-1
2
-3
-1
-9
-13
-1
4
-28
-21
-4
-6
6
30
-3
-1
6
-2
-1
-3
-7
-12
1
6
-10
-9
-7
-2
-7
0
2
0
-11
-25
-5
5
25
-4
3
0
-8
-3
-4
-8
-33
-9
-8
-7
5
34
9
-2
-5
-16
-1
-3
-1
-17
-9
-4
-3
3
0
5
12
3
-3
-3
0
-7
0
-10
5
-5
4
0
11
9
-2
-4
4
-8
-6
1
-2
8
-3
8
5
27
12
9
13
11
0
-2
-11
1
-8
-2
-2
-23
-4
-12
-13
-61
-25
-14
-13
-12
-2
-4
2
21
7
-13
-8
7
5
3
-9
-10
5
8
4
1
0
3
8
34
10
13
9
-7
-1
7
18
21
7
3
-5
0
-2
6
-19
-35
-14
-1
8
11
0
0
7
-11
-5
-2
10
13
-2
-3
-8
7
-2
-9
-36
-38
-5
1
8
-9
-1
0
12
1
-1
-1
-11
-1
1
1
4
6
-1
-2
2
-13
-1
-3
-1
-1
0
-4
-5
14
11
3
-14
-10
0
0
-2
-1
-4
-5
3
5
0
1
1
-8
1
7
5
-2
-1
-3
-7
-9
-6
-3
0
-5
-1
-1
-11
0
-4
-5
3
5
-1
2
13
24
9
-1
-9
-4
0
-3
-18
-16
-6
-4
-5
1
0
-1
4
5
-4
1
9
-6
-1
-3
-16
-5
2
0
1
2
-2
3
22
-7
2
1
-7
1
-2
-1
-7
2
-2
-1
-11
5
-1
-6
3
37
8
0
7
0
4
1
9
-33
-5
-1
17
3
-5
16
-12
7
1
6
8
8
22
-5
17
63
7
0
-5
-12
-28
-22
30
-58
-15
-6
-10
-5
11
-2
-3
-8
-18
-13
23
24
45
32
-12
23
5
2
-42
-54
-22
-22
-36
-5
-18
-6
10
-23
-35
12
52
-40
-2
-15
-39
-54
12
2
-73
46
-4
7
6
-8
-97
28
50
38
34
20
38
79
94
-15
-66
-71
-22
-2
-26
-31
-45
-43
76
88
-22
-27
20
1
-30
-28
30
-92
-7
7
28
85
-37
18
86
48
42
2
-50
-106
13
-33
-54
-97
-62
-9
28
91
-37
40
-6
99
62
11
-55
22
16
-35
82
31
-17
12
37
8
-18
52
111
127
62
19
88
44
63
-24
-18
-90
-69
-23
-45
-63
-44
33
-27
-27
18
10
8
72
19
46
24
88
8
1
-88
-88
53
-20
-48
36
-55
-28
1
28
-59
-10
111
30
64
24
51
-8
55
-23
-84
-45
-2
-7
-16
-12
33
-59
-75
-86
-52
-22
-27
4
7
-7
32
53
57
37
85
103
13
42
-71
-40
-33
3
-59
-50
-24
0
107
127
4
-24
10
-34
-69
-6
31
-96
-14
-21
3
56
72
-26
2
-7
-67
-10
-37
-97
-83
-15
-41
34
99
15
27
30
124
55
115
-75
3
59
67
81
61
48
-27
-102
-27
-20
-51
-54
-22
-88
-128
34
46
10
-10
9
-6
48
127
-18
23
-4
-24
-1
-12
-42
-73
13
-68
-15
29
-58
24
-40
-27
109
27
30
5
6
-7
-45
-63
-104
-49
-57
16
103
-98
-3
-3
97
16
-13
-24
-65
-49
-11
0
-34
-10
-12
-53
-124
-56
87
86
127
-16
14
36
30
3
-18
-81
-114
-9
9
-25
-19
57
1
38
112
28
-9
33
96
103
9
-109
-59
-72
-28
-20
-20
-92
-28
90
127
2
-1
6
-19
7
27
48
-128
26
31
-13
-42
-2
15
57
57
53
14
-7
28
13
-2
-24
-26
14
12
51
85
51
46
26
67
48
17
7
-58
-12
-17
-58
-69
-110
-26
-67
-15
-15
-24
-110
-81
-70
-30
-6
-13
-63
-39
-13
-24
8
13
28
23
31
-51
-58
42
73
-28
-7
27
-94
11
-13
-63
-20
2
-12
-87
85
51
53
31
22
29
24
22
-53
-2
10
71
17
-7
-16
-58
10
-34
-104
-128
-59
-23
0
41
33
10
-47
127
89
-1
-3
33
-2
-4
-14
21
11
2
-4
-8
102
47
-18
20
-16
13
16
13
-32
30
79
106
23
27
28
36
13
16
113
4
-23
-33
-24
-52
5
-70
-101
-85
-17
-6
-1
-15
-63
37
127
22
41
33
28
16
-15
25
-22
110
37
0
-23
-29
-3
-4
31
80
8
3
3
7
-19
25
-38
-53
-93
-41
6
33
-7
-47
-8
67
18
-16
-15
34
21
-16
-17
10
-5
-7
-17
-33
-57
15
6
27
22
15
42
52
-53
-12
-31
-41
-19
26
-5
-94
6
34
2
-12
-20
-17
-16
42
-81
79
69
46
7
11
-14
-70
31
-112
-95
-79
-46
-31
-12
30
-11
5
65
22
38
5
-3
-4
22
24
10
-37
7
6
3
31
47
-16
-67
-15
-27
-3
27
43
-21
62
95
53
13
6
-41
-81
1
3
-64
6
-5
12
18
37
25
-46
42
32
33
-5
-10
-29
-27
25
-21
-54
-15
-9
2
5
47
45
36
90
40
11
44
110
32
-18
8
12
-26
-4
-33
-49
-47
-29
74
-67
-1
7
-9
18
11
-65
-51
6
-17
-19
-22
-31
3
-23
-57
-71
-40
-7
0
10
-43
47
127
127
49
16
44
34
20
30
80
-70
-8
5
-21
-46
12
-64
-78
-87
-20
-14
-6
20
6
29
105
8
15
8
0
-25
2
-27
-55
-59
-21
-7
3
24
-37
-20
-128
80
8
3
21
12
34
8
-21
-113
-23
15
-4
12
24
-8
-17
92
9
-20
-23
4
-8
13
125
33
34
13
-7
-21
1
-19
-86
-55
-8
-3
0
3
36
34
93
68
35
-2
-9
-7
-25
-13
-94
-128
-64
4
16
33
1
-11
58
126
0
-15
10
23
18
-12
-77
0
-12
-3
-17
9
-31
14
33
-46
24
-8
-13
-29
15
45
40
-54
1
5
2
-8
-37
1
-47
98
30
0
12
16
-5
8
-13
-77
-29
-3
-2
-44
36
-57
-101
-78
-34
-4
34
97
-14
-16
71
90
38
-13
-67
-122
-24
11
12
-128
-23
-4
-12
-1
-8
-17
16
29
-21
-2
7
83
35
3
0
11
16
2
15
-38
-31
18
78
27
9
7
29
15
15
5
-45
-51
-16
5
-11
5
5
0
53
126
45
3
-15
-21
-23
2
-4
-121
-35
-8
32
35
49
5
-60
-5
-29
-8
-4
17
7
-8
59
63
0
5
-12
-23
-12
20
-21
27
41
-11
-14
-40
-26
-34
-11
22
-3
-9
-36
-39
7
14
47
31
17
13
24
11
-30
4
-74
-33
-20
10
20
83
42
-14
-16
-49
-47
-20
-29
-87
-42
31
107
127
33
5
15
12
7
36
-3
-128
-44
-2
7
27
49
5
-8
118
48
-12
-39
-62
-50
-23
-4
-17
3
3
35
36
-34
23
37
-5
-9
10
-8
-38
25
13
-13
94
-3
-5
-7
24
15
35
-49
-15
-15
4
8
-9
-8
-18
-4
38
23
2
-10
4
-4
57
97
35
17
20
19
21
-62
-51
-83
-16
-3
-19
-29
-57
5
33
45
-9
-26
-18
-20
-64
-5
-26
120
1
-3
-12
13
14
-22
-9
-47
-6
22
26
9
62
51
3
11
53
12
18
2
-46
-28
-2
7
-50
-26
-23
3
-18
-24
27
-3
86
18
2
-12
2
16
-28
-92
-82
-55
-27
-18
-9
-14
-46
65
46
37
7
13
3
4
-15
127
72
35
6
19
15
7
12
-35
-110
-68
-5
-12
-12
-16
-25
38
48
33
-4
-1
26
-5
8
-125
-89
-26
1
13
9
5
-32
-58
42
-30
7
-21
-13
-12
16
52
-50
34
0
7
45
27
2
-19
83
11
-5
-23
-18
-29
-4
46
-51
-31
-2
39
42
1
-11
17
57
12
-2
-31
2
-10
-8
-69
0
3
8
16
3
18
-1
48
20
-10
-1
3
-7
29
-4
-18
-36
-5
2
28
60
12
31
34
-32
-3
0
-14
-5
36
5
66
122
37
-2
5
34
-3
-11
40
-53
-25
-1
-51
-74
-22
-74
-19
-63
23
-4
-3
-23
-42
3
-17
36
15
11
43
62
42
4
-20
-33
-39
-8
-33
-6
35
-22
-41
-31
2
-1
-2
-3
-31
25
-10
37
-28
14
9
-26
17
-2
-4
31
35
-1
13
43
-11
-10
-89
-99
-34
-8
1
-26
-10
19
17
104
37
-3
-2
-7
16
14
-14
-41
-20
-18
-16
5
4
2
-14
28
30
11
29
8
-30
43
86
-9
-23
6
-1
0
40
-21
-81
10
-13
-8
-11
-31
-43
12
6
70
33
12
-26
37
-17
12
-44
-91
-37
-19
-23
-64
-22
-13
-6
47
19
3
16
2
-61
23
56
-49
9
-1
2
-6
17
23
0
63
23
4
14
61
39
14
83
-31
20
20
42
-3
-15
-20
-98
-13
-53
-14
-60
-88
-13
11
45
-95
-20
-4
5
30
18
16
76
62
22
-7
5
-2
-10
-40
-81
-35
-10
-5
-24
-34
26
46
60
54
42
14
25
2
-18
-9
15
9
0
8
19
32
0
24
-29
51
-11
3
-17
-56
-3
1
-60
-128
8
9
53
87
31
-40
29
37
4
-15
-23
21
-22
-12
-99
-4
-19
-22
-47
-92
-14
4
73
15
9
1
-12
-71
-7
0
-21
47
-10
-10
1
14
28
18
-24
-28
4
9
23
30
-27
-17
33
39
24
16
18
-11
52
-3
36
-36
-7
1
-24
-10
-26
-22
-26
0
-21
4
7
33
-18
25
48
7
35
5
-6
-53
-9
-8
12
-96
-11
-11
6
16
7
-3
-73
39
-5
-9
9
36
9
18
84
13
8
-7
-26
-30
27
-5
-126
-15
-21
-6
39
20
3
24
40
23
-16
4
-39
-24
8
-34
-49
-69
-7
6
0
3
-14
-12
-90
-104
0
-9
-2
54
0
24
114
74
28
5
14
-18
25
-22
-114
67
6
-11
-30
-77
-32
10
38
-66
-25
-9
4
15
20
-12
112
35
-7
-5
-7
-10
-15
23
-103
-25
15
11
2
22
35
31
-26
56
7
22
41
76
-29
-5
-48
20
-2
1
21
14
15
-19
-36
-6
-14
-11
-49
-105
-6
5
91
50
6
3
-5
34
12
-61
6
-33
3
-10
-30
-56
-11
-25
-13
43
7
-10
25
13
-7
4
-44
-80
-20
-2
20
36
-2
10
-6
9
-25
8
-17
7
28
9
-18
50
-10
1
-9
-40
-2
-9
75
-1
14
7
3
20
-3
-33
-50
-18
17
-5
-13
-31
-17
-5
-42
-10
3
-6
-1
20
11
1
71
-27
-22
-10
40
70
-3
18
41
89
17
9
-10
-39
-28
23
14
-52
-28
6
0
30
22
19
-33
97
49
6
23
28
48
17
3
-64
-17
-17
-38
-7
0
7
-47
-15
-58
-19
-38
-100
-37
-7
3
-5
25
-1
3
23
60
-38
-47
-44
-4
-1
23
22
-36
14
71
18
-12
-2
2
33
23
-17
-30
-27
29
10
16
35
-6
7
-67
16
-8
8
-27
-90
-24
-33
24
32
-28
-17
-16
31
-13
11
24
-28
23
8
23
-17
3
-2
27
23
14
-2
1
24
15
9
57
21
2
13
17
83
10
-9
22
-103
-33
-13
-35
-69
5
-8
14
50
24
-3
11
10
-23
-8
-19
-34
-3
-9
-12
-6
7
6
51
24
2
12
45
39
4
62
-43
79
-11
3
-40
-67
-26
-20
-65
27
11
7
16
72
31
-29
-41
-97
-37
-10
1
-10
-13
-12
27
83
23
-17
-23
-12
-14
-15
29
-35
-3
-3
16
22
-13
31
45
42
7
8
17
6
24
20
22
46
21
13
4
27
-4
7
-41
-48
-29
-3
-41
-64
2
-42
-33
60
0
4
54
61
-27
-15
-12
-127
-21
-18
-62
-57
-12
19
64
42
-5
2
15
25
0
-19
-3
-48
33
1
12
36
-1
-15
-14
-5
7
0
-7
-38
31
11
8
-9
-24
-9
12
13
-22
-42
25
38
17
19
9
31
22
-3
24
32
9
13
4
-22
-14
-8
-7
-45
-4
-11
1
57
2
12
-83
-7
10
7
-10
-61
-14
6
17
-16
-23
-16
-21
-64
43
-5
-42
2
-6
-5
8
41
-15
-7
-35
14
-18
0
17
42
-20
4
52
79
19
12
-8
-35
23
-4
-21
-66
-17
-21
-35
4
-68
0
-12
111
21
11
41
-1
-7
-12
-90
-101
-15
-3
-38
-4
-5
37
15
19
0
-4
14
28
18
-1
8
-5
37
13
5
-9
6
31
77
7
-18
-20
-19
-43
-12
-19
-88
-115
-59
10
21
4
-3
11
69
93
21
5
-2
-9
-24
-37
-38
-57
25
-9
-9
43
59
2
82
-1
-4
0
31
-30
-12
4
48
43
-16
-9
-37
-19
41
-43
18
-29
-4
9
-7
0
-35
14
-101
-36
-4
2
12
23
41
2
-20
-4
6
-4
10
22
-32
18
52
-43
-12
-9
-27
-16
35
23
-50
30
20
8
37
31
10
3
60
-2
-25
5
6
5
-13
-18
8
33
19
-5
-17
24
35
17
111
6
29
6
6
-50
-15
17
-93
-47
-54
-25
-17
34
9
-1
-41
58
28
14
21
-7
-13
22
88
4
-5
15
56
104
24
-46
-94
-1
-8
-14
-91
-106
-46
-9
-12
-57
-3
-7
57
56
-5
53
37
88
5
-12
-19
7
12
-49
-79
-18
-35
-4
-38
-53
-49
-3
83
-40
33
4
36
17
-8
-19
-3
4
-2
8
-2
-34
-38
1
3
30
-24
-9
-12
19
-24
-1
-70
-67
-15
-10
-21
-16
-4
4
28
92
31
7
38
40
-3
-42
17
-38
-12
3
-19
-73
1
3
-20
-2
10
8
20
39
13
5
16
3
-5
-10
-45
-59
-8
23
36
34
6
1
18
16
-6
-40
-72
-7
-6
-7
-3
36
2
-5
44
-25
19
3
12
-17
-3
9
-37
23
-4
8
2
-3
11
-15
-33
-33
-20
-7
-8
-8
-9
18
52
-7
1
17
15
33
14
-11
-11
-38
-8
-16
-18
-48
-12
8
-10
16
-16
-8
-13
12
8
5
25
15
5
0
13
0
-9
0
-19
-40
-20
-7
-3
3
6
1
-20
-1
-14
-2
-6
-14
-6
4
34
-2
6
-13
-5
2
1
0
-20
17
2
7
2
5
-2
15
19
24
7
11
4
6
9
-19
-7
-29
14
7
-6
-12
-5
0
16
21
-2
-4
2
7
0
-5
-11
-8
-1
-7
-1
-11
-4
4
-2
-1
7
-5
-3
11
6
8
16
15
-16
-5
0
-8
-4
-6
-21
-27
-11
6
2
-3
1
0
8
-14
-2
-7
-7
-1
-2
1
4
0
17
2
-3
6
2
-7
-9
1
-2
1
1
-1
-3
3
4
5
6
-1
-17
-3
1
-4
-6
-16
-7
3
23
-6
-3
-1
10
30
11
-4
3
7
2
3
3
-12
-14
-10
-12
-16
-5
-1
-12
-6
-7
-5
-2
2
1
3
6
3
2
3
-7
-1
-3
2
-3
6
7
-2
1
2
-1
1
-1
-7
-1
2
1
-2
-1
-3
-2
-6
-38
0
6
2
0
3
-2
12
27
1
-2
0
0
-1
4
-2
9
-1
-4
-3
1
3
0
-11
-17
-6
-7
-2
1
3
-5
1
23
7
7
1
-1
-1
6
16
-17
-6
-6
-4
-2
-2
1
5
-9
-11
-5
5
2
2
3
2
9
2
0
-3
1
1
-1
8
0
-4
-6
-2
-2
11
-1
-23
-16
9
8
0
1
-9
-3
2
10
4
8
4
-3
1
-2
1
-3
-1
-1
-1
1
-4
4
40
9
-1
1
-2
0
-3
1
-36
4
-6
-8
-4
-1
1
-7
13
-9
-6
-6
0
1
1
2
-13
2
-1
-1
-4
1
-2
-2
-1
8
8
7
3
-1
-4
6
8
-4
-3
-8
-3
-3
2
0
2
-8
-2
0
0
-3
2
0
-24
-21
-1
-2
-1
-3
-2
0
7
40
10
4
1
1
-6
-6
4
-4
-3
-1
0
3
5
9
-19
12
1
1
1
1
-1
-7
17
-10
-6
-6
-3
-5
16
-23
-5
-19
-3
-1
0
-3
-6
1
-11
15
2
-2
-2
0
-1
-2
7
-1
-3
-2
-1
2
2
0
15
5
1
-1
0
0
-2
1
-10
-1
1
0
-2
1
-8
-6
-6
-5
-1
-3
1
-5
4
4
8
-3
-1
0
-1
0
-3
6
-11
7
2
1
0
-4
-9
-16
-22
-6
-9
-3
-2
0
-7
0
18
-1
3
-23
-2
-1
-3
6
-9
-3
3
19
4
-2
-2
-4
5
3
2
-3
-3
-2
4
0
7
1
1
3
-1
0
-5
10
-8
-4
-7
-9
-4
0
-3
-11
-30
-3
0
-3
1
1
1
-1
0
-1
-2
1
-2
0
-5
11
7
-1
3
6
2
1
6
0
4
1
-2
-4
-3
-3
-10
-13
-8
12
5
-1
2
-3
-1
10
13
1
-4
3
12
2
-5
4
4
2
-4
-16
-39
-5
11
-5
12
-20
-4
5
2
0
-13
-9
10
-2
-6
-4
-6
-2
-4
-19
-39
7
7
0
9
0
-7
5
-5
-8
-2
-2
7
1
3
-12
-8
4
0
3
-5
-2
8
12
19
1
-4
-4
1
0
5
-4
16
-5
-5
-1
4
0
-7
-8
-35
-6
3
4
19
-7
-1
7
19
13
6
11
-31
0
0
-4
-6
-5
-3
-27
-21
-3
-2
5
-18
1
0
1
0
-1
-3
2
-11
-3
-1
-3
2
-1
-3
-4
7
-8
-3
7
26
1
0
7
-5
6
-2
4
5
0
-2
-8
15
-3
-2
-8
-14
-2
0
-6
18
3
-1
5
11
0
-3
7
32
5
1
-2
6
0
4
-5
-33
-8
-2
-12
-28
-1
-1
11
7
1
-1
-9
7
1
-3
-10
-13
-1
0
25
-3
2
4
16
23
0
3
-1
-6
-3
0
9
-7
2
2
0
14
3
-7
-10
-1
-8
-5
-16
-36
-6
-21
21
9
0
-11
-10
-2
-2
-8
5
-11
24
16
1
2
0
4
-1
-3
-8
-8
11
28
0
-2
0
-8
16
18
5
8
-1
9
-3
7
-4
-3
-5
-9
0
1
-2
-14
-12
-6
-4
0
-1
-4
-5
0
-5
-4
4
-5
-2
0
-1
8
-3
-10
1
0
-1
5
-10
5
-5
0
-2
-7
-6
0
-1
-46
0
7
12
21
2
0
-10
22
4
5
-3
-8
0
0
-7
11
-4
-6
-2
-9
0
3
2
16
7
0
9
39
5
2
9
-16
-9
-7
-9
-34
-3
-4
5
-11
-8
7
8
0
0
-3
-14
-10
4
3
-7
-9
-2
-1
6
15
0
-6
-8
-4
-1
-5
-22
-7
-4
-6
2
17
3
6
6
-13
1
1
4
11
0
1
6
9
10
3
6
11
1
7
-16
-23
-18
-1
-4
-1
-2
2
11
-13
-5
-6
-7
-16
-2
-5
-7
14
-1
1
2
-2
-2
-3
4
-1
-2
-6
2
0
-1
1
-2
-10
2
6
1
-6
-1
-2
0
8
2
1
-4
2
-1
0
-8
4
7
0
-6
-4
-3
8
-15
-11
-12
-10
-2
8
-1
-2
9
14
8
1
-7
-9
0
2
-4
12
-4
3
5
-2
-1
-4
-2
-5
0
-5
-7
-5
-2
2
-1
-2
-2
-5
9
4
3
1
10
0
4
-3
-9
-5
-2
0
8
1
-2
-2
-9
1
-1
3
-25
-12
-4
6
8
10
-2
-1
16
4
-2
-1
-5
-20
1
-2
11
4
-1
-2
1
-2
3
-6
-13
13
3
-4
-3
-7
-1
-3
3
-10
-4
-8
-11
2
-1
3
-7
-19
0
-5
10
42
1
-2
4
-3
-2
3
-20
-53
-4
4
-2
11
-4
3
8
-5
-3
-4
-4
14
1
0
4
4
2
-1
4
-24
-5
6
7
-1
-1
0
-3
0
6
1
3
24
2
0
-7
-2
-2
-3
-4
7
2
1
4
1
-3
-2
-3
-15
-3
17
7
14
-4
-4
-12
-5
-3
-8
-32
-29
-5
-3
4
4
-2
8
21
10
1
-2
-4
-5
-1
-7
-1
-2
4
0
4
2
0
-2
8
3
-1
-5
-3
-7
-1
0
0
3
0
4
-2
-1
1
-6
-14
-8
1
-3
1
1
-2
4
4
-7
-4
-4
-9
2
0
-3
8
33
2
-1
2
5
-2
-7
-11
-47
-2
5
11
-13
0
-7
-13
-5
5
2
1
7
2
1
5
-1
-8
-4
0
-1
-1
-3
-8
-2
7
5
-10
-10
1
3
8
18
-2
-7
2
14
-1
2
0
-5
2
-7
-2
2
-3
-1
-3
-10
-3
0
0
-5
0
14
-13
12
-3
8
12
1
-1
-10
11
20
3
-2
-5
-1
-4
-9
-5
-47
-12
-6
-6
-5
1
-5
-3
33
6
-5
-4
-5
-1
-3
11
-13
-9
-8
-4
-4
1
4
1
28
3
4
6
1
-3
-1
-7
4
5
1
-2
-1
-1
3
3
-21
-5
0
-1
2
-1
-9
-3
9
6
10
8
-2
-2
4
1
-10
-9
-9
-9
-1
0
-4
4
10
-2
-5
-1
4
1
0
2
1
2
-2
-2
-2
0
-10
-7
-11
-2
-9
-11
-5
-1
2
0
5
-4
3
-9
-1
0
4
-14
-2
11
14
22
8
0
-7
21
3
-3
-3
-1
-1
0
-7
-17
3
-4
-4
-4
-8
-4
-3
-2
5
-2
-9
-4
1
0
2
1
17
4
1
-7
-2
-1
4
-2
-51
0
3
8
-1
0
-4
7
-3
-1
-1
0
-1
0
1
1
5
2
2
0
0
3
0
-1
6
0
-3
-1
-2
-1
0
-5
12
-5
-2
-2
-2
-5
-3
-1
-3
0
-1
0
0
0
2
1
-9
-2
-2
-1
-1
0
0
-10
3
0
5
0
1
1
1
12
6
-2
-1
-4
-3
-3
-3
-6
-6
4
-2
-8
-3
-2
-6
-5
1
2
-1
8
-1
-2
3
18
-20
-10
-4
-7
-2
2
-6
-20
10
1
-1
-9
0
-2
5
10
3
0
1
7
-6
-1
1
-4
6
4
1
5
4
0
-1
7
1
-8
-5
-5
-1
-2
-2
-20
-22
-6
1
3
-1
-4
6
22
7
1
-1
-9
1
6
3
0
-10
-1
-2
-4
-1
-7
-10
15
4
7
3
13
4
4
11
27
14
7
1
2
2
0
-11
-34
-18
-3
-2
-3
-6
-3
1
-31
5
-8
-6
4
0
1
-5
9
-9
-3
-1
-6
-4
-8
3
-29
-8
-2
1
3
5
16
-4
16
-17
6
6
2
2
-14
-4
0
3
2
0
-4
-5
-8
12
26
32
0
-6
-9
0
8
-6
-18
-18
-4
1
4
2
13
8
2
37
16
-4
4
-6
16
-2
104
19
1
7
-4
2
-18
-12
-108
-36
-9
-6
-6
-5
-11
-13
16
-22
-11
-7
-10
-9
-4
15
26
-10
5
1
12
39
35
3
-20
-10
-8
0
-6
-62
2
19
38
3
5
1
4
5
-33
-4
-46
-2
-11
-6
-6
14
30
-16
-16
29
2
-4
21
19
-30
-15
30
3
12
4
-8
-11
28
13
77
34
4
5
-9
-18
10
-29
-90
-39
-3
-8
-28
-23
-34
19
107
23
5
4
-9
7
-29
-14
-40
-16
3
0
21
10
70
-2
-28
63
-10
-5
-5
-23
-68
-4
88
-7
-20
-8
4
-10
-38
-6
-28
35
2
8
-12
4
42
2
-32
-56
-13
-8
-4
1
-46
-28
-1
-29
-11
-6
3
4
-12
13
-67
87
50
16
47
86
92
28
78
95
23
11
5
-92
-114
-33
-74
-65
-47
-12
-65
21
101
-45
-39
-23
-12
-25
22
39
-24
22
114
-4
6
16
-13
-52
48
16
-38
43
16
9
26
22
41
39
36
106
12
17
81
7
-3
-30
-57
-107
-74
-3
-99
-67
-32
18
68
76
22
-24
54
67
16
-46
-50
41
41
-20
-77
-71
83
62
115
-50
-34
-22
15
8
-128
71
37
87
-18
46
55
25
53
21
57
126
7
-24
-89
-51
-95
-29
-16
-59
-45
-45
51
89
53
53
-27
95
55
34
-42
47
3
80
99
33
14
-8
22
-52
-11
-83
-112
-82
-24
32
68
2
28
-16
-85
-71
17
-12
-37
-72
-93
-48
45
46
-42
-3
41
58
44
68
85
127
-16
-7
-75
-2
-13
-1
-46
-123
-11
-10
38
-7
69
-33
-72
43
-25
20
27
36
-46
-47
98
2
10
-30
-36
-105
-101
-78
-56
-26
84
22
9
40
39
118
127
15
50
31
-2
25
-10
20
-1
76
26
20
23
37
27
2
90
106
7
-10
17
8
60
14
-29
-58
-2
-34
-39
-34
127
-38
-55
-36
-22
-12
-48
-13
-102
51
83
26
2
37
52
-18
-33
18
45
63
-23
-9
-30
49
21
-16
-16
-91
-8
-14
55
14
8
2
-34
112
41
3
-59
-23
10
-26
78
-3
-5
-6
-26
-8
1
-62
-112
66
20
9
38
17
-67
-40
55
0
-35
-22
-7
-44
-31
-16
-16
-20
-87
21
13
-10
-52
9
-31
-2
55
-7
-36
7
36
35
30
-26
65
12
-12
-4
10
-14
-62
106
19
35
45
46
-31
-34
-37
-61
-70
-35
-16
-53
-35
-4
8
-65
-45
-5
-20
-12
82
8
-48
2
3
-18
-47
-1
-77
12
63
102
52
-2
50
20
-18
20
122
-12
-29
-1
-11
9
37
-2
-74
-23
-22
-9
-8
16
32
-33
-114
-128
-68
-3
44
46
-35
-41
-35
109
8
-8
-97
-86
-35
-5
22
30
68
-2
16
39
36
46
127
-28
26
20
11
1
-21
-28
-128
-66
-37
-14
-18
-31
-80
-2
26
-72
-40
-8
19
78
22
29
78
-13
57
18
12
3
27
-32
-106
83
-32
-12
-3
7
40
40
3
-111
-72
-15
-9
-34
73
-47
63
66
78
-11
-32
-5
-50
-44
-86
-36
50
18
23
36
-26
-4
-33
47
-26
-30
-9
-12
-60
3
-35
58
14
43
32
14
33
27
9
-71
-22
-3
-51
-11
-43
36
-30
38
-28
-21
91
-14
5
-6
33
-13
10
39
83
15
-46
-24
-48
-38
4
-11
6
15
9
29
-14
-17
-29
11
30
39
43
-29
-34
-48
-21
-8
-101
-69
-75
47
30
74
13
-12
-23
14
6
-40
1
-2
41
0
-14
-41
1
7
6
22
35
11
20
60
62
3
-10
16
-20
-6
5
6
3
36
42
-98
-68
-9
-6
-16
-18
16
48
-19
27
28
8
36
52
15
-24
-38
4
-7
-8
20
17
-7
2
127
45
-8
10
-22
-25
-43
71
-106
0
12
17
13
70
-1
48
59
-15
-21
-43
-12
-58
15
-18
40
11
13
40
1
-24
39
99
-89
-19
-5
0
8
40
-19
-93
-56
-36
-3
-9
64
37
-1
58
123
55
8
-1
-36
1
-23
48
-106
-38
-13
-3
-39
-25
-22
-19
42
4
4
49
20
4
-22
-43
-68
19
-13
-41
-42
-19
38
-22
-30
-35
-4
-32
-25
44
3
-77
-50
-9
4
21
39
66
6
16
91
5
4
-39
-40
-70
-3
53
-27
6
9
18
18
-5
12
-18
98
27
-19
-16
-31
18
46
-21
10
32
7
0
11
46
-32
62
-76
-53
-4
30
74
1
-4
-114
-11
-56
-14
-45
-80
-38
28
61
-15
79
19
26
30
5
-31
-51
-5
1
10
15
-9
16
-11
-70
69
22
-11
-27
56
27
1
27
38
4
-3
16
-47
-84
3
-12
-68
-35
-5
-15
-11
19
-22
22
-102
-53
-5
12
5
19
35
29
99
31
20
-17
2
31
-20
-4
-32
-13
-1
-15
35
-1
-50
-60
78
16
-3
16
-20
-18
-1
-9
-48
-19
-1
-1
13
-94
29
-11
-24
-26
-16
-21
11
4
-21
31
92
54
-4
16
0
12
-26
-52
-74
-31
13
-27
-29
27
-21
-50
-62
-9
-8
19
-6
-11
-9
38
63
34
22
15
-29
-33
53
-79
-101
-47
-1
4
37
10
-21
-31
17
-15
-26
-47
-72
-35
-7
11
98
50
6
12
26
9
-14
-18
-113
-50
-13
-21
-6
-5
-33
13
-29
-14
-20
-15
-29
-54
0
88
55
0
14
-14
39
-8
-14
-62
-39
-9
-7
8
-41
-57
44
101
97
20
-3
-1
-14
21
40
11
28
23
14
14
32
29
-15
-9
-107
-20
-6
28
56
8
14
23
28
-34
-27
-58
-62
-14
37
10
-44
14
22
34
31
30
-51
33
86
43
8
-2
73
-3
42
38
-37
14
5
-15
-86
25
0
-46
-2
-2
-1
14
35
6
-15
-1
-14
-17
-19
-13
19
11
12
-17
-10
-22
-8
33
-11
13
18
30
54
46
-2
-51
13
-3
-20
47
19
-10
15
37
1
28
6
-57
-55
-12
4
-2
-23
-46
-42
-39
-13
-8
4
9
15
-7
2
-6
-46
-11
-20
22
36
45
-13
-64
81
1
-10
-32
-55
-21
13
48
-29
23
15
42
43
2
24
46
127
45
21
-40
-37
17
-14
-17
-80
-35
-17
20
-6
-7
-13
35
-45
27
-8
-44
31
-15
-2
-47
95
15
4
-3
-35
18
10
37
-45
-33
-4
-19
1
-29
44
76
127
17
15
54
69
23
-25
-58
-81
-59
-19
-38
-64
6
-35
-16
16
29
-16
-10
-9
-36
-12
-75
52
10
9
7
10
-17
-32
-46
-14
14
14
10
21
-49
43
58
42
18
6
39
30
49
-46
-116
-123
-47
-13
-16
25
19
30
122
110
23
-9
-26
-44
-3
-11
10
-110
-46
-2
26
20
-6
-27
-83
4
22
-12
-18
2
-21
-56
-54
-21
9
3
-6
7
0
20
-11
5
-16
-12
-12
-53
-21
36
-2
24
-16
11
19
29
53
3
40
92
8
11
-2
-3
-15
8
29
1
3
-11
-25
-44
4
-16
-3
-58
-7
-9
9
29
-5
-13
-106
11
1
-10
-24
3
22
20
77
-43
-34
-2
19
18
-15
-23
-18
47
5
2
13
-23
-16
8
6
-110
-8
-10
-6
11
27
-43
6
39
6
4
0
17
-28
20
41
-27
12
18
13
29
50
3
-1
84
10
-12
-9
-87
-56
-1
-13
17
13
-2
-24
23
4
-22
-75
-30
-53
-20
-1
0
0
6
17
63
23
15
30
81
-15
9
13
-94
-35
4
-27
-94
16
11
-36
109
29
0
23
29
7
4
73
-55
30
4
-9
-19
4
11
37
49
15
-2
-23
-17
3
53
-42
-33
-29
0
14
38
24
-39
70
2
-12
0
28
34
-10
15
-83
48
-10
-4
-28
-66
-34
14
24
-52
9
1
0
5
-5
42
55
14
-10
0
10
58
106
-38
-117
26
-13
-13
-26
-63
-88
-26
-21
-7
13
-17
-1
18
-10
-15
-36
50
-4
3
33
-11
11
21
45
27
35
4
-49
17
30
7
53
20
-1
25
30
25
12
39
59
44
1
19
14
-3
11
3
-33
-18
-6
-6
-15
-27
-14
-31
-81
-118
-38
-11
24
38
-30
1
10
11
34
-5
-21
-20
20
-11
48
-17
10
-13
-2
39
-7
-7
56
-34
5
15
1
-77
-30
-22
-13
59
-21
1
5
17
-3
-2
-87
-69
-19
-4
-7
5
-17
-14
17
27
47
13
36
-24
-43
16
15
-68
-62
-7
-6
44
11
-7
40
112
65
13
-3
-23
-12
-5
-47
-63
-14
-17
16
17
35
21
18
-18
6
0
-32
-7
20
4
17
23
2
-4
21
20
-26
-27
-59
-37
-7
-1
-24
-50
0
23
127
4
-3
6
-1
-21
34
1
-25
-28
-18
8
16
-3
11
-26
-60
67
16
-5
-14
-5
-13
-34
-73
-128
-39
-14
22
56
-8
11
70
124
14
11
-17
-42
7
-6
15
14
8
-7
12
-6
-36
0
-97
-22
-2
2
-29
-15
-3
7
-33
14
13
1
29
67
9
7
15
-48
-16
-9
-42
-25
32
0
-20
-10
-29
16
29
38
-15
10
102
50
26
17
37
16
11
-6
9
-25
0
-11
-37
-68
-25
-35
-51
-49
6
8
29
22
13
25
72
34
-12
-17
-24
0
12
-23
-60
-31
-4
-5
-27
-9
11
17
94
17
-1
-19
7
14
7
-12
19
-1
-6
-7
-14
4
-30
24
-19
74
16
17
9
2
49
-18
41
-29
-3
-4
15
4
-6
-31
10
-9
-18
2
-22
50
-14
14
-54
-22
-1
-15
-33
-70
9
20
55
25
14
2
12
64
35
4
61
-24
1
7
7
2
-24
6
-30
125
62
29
20
-23
8
-3
67
-24
22
8
23
69
24
-84
-48
21
13
-15
24
26
-40
-11
-9
-19
-41
-16
-72
-116
31
5
-56
39
21
-2
33
95
-17
-8
11
-25
-34
0
-39
-73
-16
20
-41
-3
-14
4
-3
9
12
-3
27
46
41
-22
-9
-6
0
37
47
-57
-21
14
1
24
0
12
-60
25
10
0
50
55
22
-1
37
-66
-16
-5
-39
-91
-65
-20
14
60
37
25
19
44
8
6
77
-6
-37
-21
-17
-37
1
7
-43
-33
-1
3
37
81
9
-17
-34
5
-17
-10
-25
-77
18
42
-47
-3
11
7
7
5
-1
0
-10
26
12
9
5
-26
-14
28
122
18
-21
-12
-28
-10
-26
-22
7
-61
16
5
12
21
-10
-4
-23
59
-10
-6
-1
48
24
28
56
-45
-12
7
1
-36
10
-50
-98
-101
-24
-9
-5
-20
-21
-2
-49
75
20
-8
2
42
6
32
12
-46
-15
-6
1
-9
74
-29
-72
24
2
9
-6
-4
-53
15
43
58
9
2
19
-7
-1
30
45
16
3
2
14
70
-12
-41
39
-5
-6
-5
-48
-72
-43
5
-34
-48
-21
-9
27
30
13
6
-11
9
-11
6
-33
-58
1
3
-34
-14
16
9
1
0
40
19
10
7
-7
-1
22
71
2
-11
24
75
20
-16
-40
-64
-16
2
43
-10
9
6
12
26
-7
-22
-51
11
4
-3
-1
-31
-16
-1
-39
-12
-4
14
5
3
-20
-20
4
-51
-25
-4
-5
-34
19
6
-44
23
31
-5
-6
39
61
27
103
3
6
-6
-13
-44
-76
16
-97
-4
-22
-6
19
19
-4
-13
38
-22
-16
-1
4
14
-13
-34
41
58
11
-4
-12
-29
-14
-6
25
-11
3
-2
-3
-8
25
-4
-44
5
2
-3
-15
-2
-20
15
-12
-7
-2
5
2
-13
4
-2
-62
-34
-11
-2
-1
3
5
18
50
-20
-2
2
34
2
5
-58
-65
-41
-21
-15
-35
-2
-25
19
-28
-10
9
6
-2
41
16
-12
-49
36
2
9
12
-39
-21
22
49
-16
-38
-8
-18
5
5
8
-12
-50
19
0
50
33
22
-6
7
27
20
1
-30
-35
-1
18
40
0
5
3
20
50
-12
-7
-73
-6
-27
-11
-8
-16
18
2
53
47
16
14
-1
-2
2
-18
-12
-31
3
-3
1
31
-20
13
-1
-31
-26
-13
-1
-37
-4
1
-32
21
-14
1
-12
-10
6
16
20
12
16
-11
-30
-29
-1
-6
13
10
-4
5
38
46
15
-3
-32
2
-7
5
-14
-13
-5
-3
-1
-8
4
-4
-18
9
3
9
-2
-7
-1
3
26
8
-5
-2
9
38
23
2
-11
-12
3
9
2
-36
-9
1
11
23
-5
-1
13
5
-10
1
1
-24
4
-33
14
7
1
-7
-8
20
-1
-8
-15
14
2
-8
-34
-64
-9
-1
15
-2
-6
12
47
20
-3
-4
-22
-14
3
-3
-2
13
4
4
-15
-7
-10
-3
9
-20
-4
1
10
16
-6
1
1
35
2
-1
-3
-5
2
-1
-23
-35
-1
-6
2
-24
7
4
-3
-6
2
18
-7
-39
-9
-12
-18
-12
-3
11
-11
-16
-10
-2
12
20
5
-4
-3
23
20
3
8
27
5
9
17
3
-5
-1
-1
-8
-1
-6
29
10
26
18
6
8
2
10
4
10
-19
-8
3
-3
7
9
-25
-23
2
1
-1
-2
-2
-6
-11
13
8
-7
-15
-4
1
2
22
-4
-21
-9
1
-6
-4
-2
0
-2
9
1
6
-11
-2
-3
8
-2
-3
-6
-18
-7
-1
-12
-12
9
3
4
5
10
-3
1
-7
-10
-11
-6
2
-5
0
-27
18
9
-10
-6
-3
-12
-5
3
1
-9
-7
-5
-13
4
-2
2
-14
13
-5
0
3
7
4
-12
6
-49
-7
2
9
-2
-2
-6
-3
1
13
4
-8
-9
0
-5
7
8
3
0
13
4
-1
-4
5
6
9
9
4
1
5
7
-8
3
-21
-9
-11
-7
-1
8
-13
0
-2
-3
-4
0
-4
-4
12
4
5
-2
4
3
-2
-1
-15
-37
-8
2
2
1
-1
2
-7
37
1
4
-7
-2
-1
6
-2
-17
6
-4
-20
-4
1
-3
1
9
-6
-3
11
19
0
1
3
1
0
0
-11
-43
-5
-10
-1
27
14
6
8
5
-3
2
3
-58
-6
-1
-3
-7
1
1
-5
19
0
-1
-14
4
3
-5
-6
6
-8
-7
2
14
-1
4
-3
-18
4
-3
-4
-6
1
1
3
26
-9
0
9
0
-2
0
6
-4
9
1
-8
-5
-2
-2
-19
-2
3
2
8
9
1
7
12
9
11
7
-1
-4
0
3
7
5
-2
-1
6
5
0
1
0
-5
-12
-4
-1
-3
0
-2
-6
-12
-10
-2
-2
1
1
1
-6
12
8
0
0
3
0
-3
-10
-17
-1
-1
4
-3
-1
3
-4
-20
-16
-7
-8
-6
-1
0
0
11
4
-1
-1
3
0
4
-1
3
2
-2
2
-1
0
1
-4
4
-4
-4
3
0
-2
3
6
17
7
4
-10
-6
-2
1
-1
-23
-4
2
10
11
1
6
-2
29
-8
-2
3
0
-1
-19
19
-16
-2
-3
-2
-3
1
-5
14
9
7
-5
-4
-7
2
0
-18
-7
5
9
11
7
0
-5
-1
-4
-7
0
1
-1
-4
6
-12
16
9
7
2
2
-1
2
-3
-12
-2
1
-1
2
-2
-10
14
6
8
-6
-4
-1
-1
-7
1
13
1
-3
-3
13
-1
3
-10
-10
-11
-4
-4
-12
-2
-5
-6
-37
-3
-4
10
-15
-4
2
-10
9
1
-1
-2
5
-2
5
-11
-10
1
-3
-1
1
2
-5
6
40
1
-3
-13
-11
-7
1
-16
3
6
5
9
7
0
4
15
-32
-11
-6
-6
-6
-2
7
11
6
8
4
3
18
4
0
-22
-8
-1
-6
1
-16
0
4
14
0
-2
6
-8
-5
1
1
4
-11
-5
0
0
2
-1
-13
7
-7
0
-4
-10
-5
-2
7
6
8
1
-2
4
2
1
-2
-16
35
5
1
7
10
0
11
-3
-31
-6
2
-2
1
3
-6
-10
-20
-6
-7
-23
-32
-2
-1
12
21
4
4
18
39
1
-8
-10
1
0
1
1
-24
-3
10
2
18
-3
-8
-29
-8
-1
4
-10
-4
0
4
7
-4
-5
0
2
-11
-3
5
18
5
3
0
2
-13
-2
-1
-1
6
1
-4
5
-7
6
-5
4
8
-6
-1
-2
28
-2
-5
-10
-28
-2
7
-15
-6
0
6
-4
28
4
5
11
-11
-13
-7
-4
6
-2
-13
9
62
3
7
4
-17
1
-5
-27
-57
-6
-7
1
13
1
-8
4
-7
-1
-6
-5
-13
-5
1
-6
21
8
1
-5
-5
0
-13
-5
-25
-7
-4
-5
-2
-5
5
14
23
-7
1
16
18
0
-13
-7
-5
1
11
18
1
2
-8
-11
1
-13
-8
-10
0
-3
1
16
-5
-1
-9
-24
-35
-3
2
20
-2
2
-1
-1
10
5
5
4
5
-1
-5
-11
-20
-2
3
-1
-12
-1
2
15
38
3
0
-4
15
6
7
10
18
2
-1
-16
-6
-4
-1
-8
-24
-5
-2
-4
4
-7
-7
-15
2
-3
-3
7
5
9
-3
23
16
6
0
-4
-5
-4
3
-14
-32
-4
-5
0
1
-2
-3
-17
-17
-4
6
-1
5
5
1
-2
7
0
-10
9
0
-5
-2
-15
9
-3
-9
-51
35
0
0
31
2
-4
4
14
-57
-7
0
22
28
1
4
24
47
12
3
-9
-29
-2
-3
-4
-31
-9
-11
-17
-26
-2
-3
6
8
7
1
7
36
8
-1
-17
-6
-19
2
-5
-19
-2
4
-6
-21
1
-2
-3
1
-1
11
8
18
13
7
-8
-5
0
-2
-23
0
-6
3
13
18
1
-2
10
6
12
2
9
6
2
1
-10
-37
-15
-10
-11
-11
-1
1
-10
-6
-6
-4
-12
-11
-3
-1
3
-13
-1
-3
-8
3
-1
3
1
23
0
-4
2
2
-1
3
-5
-3
2
0
-2
15
0
1
-4
-9
7
10
46
39
0
9
22
18
4
3
-45
-76
-1
-11
-20
17
-2
-7
-7
-33
-8
-4
12
5
1
-4
-2
-1
0
1
-6
3
-8
-13
-11
2
-1
2
16
-12
-1
9
21
40
2
6
4
20
8
6
2
8
1
-8
-33
-6
6
6
1
-5
-1
-2
27
7
-7
0
-8
-5
-4
7
9
3
7
-4
1
4
2
-2
5
10
-10
-4
4
1
-1
-5
-32
-23
-9
-3
10
5
0
-15
-5
26
10
3
-11
-14
0
1
-6
-10
0
-4
-9
-3
-1
3
0
-2
-1
-4
-8
9
1
2
9
-3
-6
-4
0
-5
-4
1
3
-5
-3
6
-9
-17
-4
-4
-8
-7
0
-1
4
5
-1
-3
4
4
2
0
6
8
2
0
5
-12
-6
-8
-9
-4
-1
3
-13
-5
-1
-1
0
-7
0
1
3
-13
3
3
5
4
-1
2
-7
-1
6
5
-2
4
2
2
17
-1
1
2
0
-4
-2
-3
-2
-10
-14
-9
-5
-4
-1
-4
-2
-3
-2
-6
4
8
0
-2
-8
-18
1
2
3
0
-1
1
9
21
3
4
0
-1
0
4
0
5
7
-1
1
-1
0
-2
2
4
-2
2
2
0
-2
-5
-11
-49
-8
1
-6
-4
1
3
-8
10
2
0
8
1
3
7
20
11
4
2
1
6
-8
-3
18
0
-17
-13
-11
-12
-4
-2
-34
24
-1
4
19
19
14
11
3
-12
16
2
8
-12
-11
10
26
16
-7
-7
-5
36
74
-15
21
22
28
12
38
2
-88
24
-5
-90
-45
-11
-42
-20
30
-27
-21
114
52
12
20
20
-43
12
-31
-77
-26
-16
-18
-39
92
-19
-101
-44
-52
-8
-17
1
-71
21
38
-102
-19
-3
32
15
-11
-85
2
87
26
-36
-62
1
-15
3
-2
-107
32
29
18
-33
-89
-6
26
52
22
15
51
91
127
49
60
-53
3
10
-12
-22
18
43
33
-97
-59
8
-3
25
-54
-19
39
127
15
-21
-46
-26
-78
42
52
75
-5
-17
-23
-72
-18
-5
-80
-15
4
-3
19
-7
-50
-31
-36
50
8
1
4
9
60
13
39
-92
-74
-7
-2
-44
-40
73
-65
-26
-12
19
15
45
-9
-65
85
127
39
-52
-41
0
-3
57
-88
-23
3
28
26
0
58
41
5
99
40
-5
-13
26
-9
-66
-52
-77
-55
-7
7
11
-14
10
22
127
-6
43
22
-5
-2
28
110
-85
-6
-27
-36
-31
26
-33
33
-21
1
0
25
-3
64
-2
12
-7
7
7
-2
11
115
8
74
0
12
-2
-10
3
-40
-43
7
11
-32
-28
30
62
-11
72
-25
69
8
40
11
-28
5
-5
49
80
52
-25
-24
-39
-8
19
-91
-75
-121
-12
-6
20
33
20
127
96
74
16
-14
-31
-73
-94
-107
-128
-59
-53
-16
-27
36
87
85
88
36
12
-12
0
41
-39
-63
127
73
38
24
16
-16
27
35
-17
-72
13
51
28
-14
-63
-43
-85
45
-14
-58
-46
-43
-34
-43
-83
-24
-9
-21
1
-8
50
10
-40
36
6
41
99
75
-9
-15
0
-47
8
-26
-26
36
4
-28
32
-78
-3
22
28
-1
27
72
93
108
-25
-15
-17
2
-18
-103
71
47
19
-17
23
31
70
27
-66
-15
10
-4
-64
-48
-51
54
127
74
26
24
27
-9
-19
-123
-128
-65
-17
1
11
68
74
123
92
6
7
-25
10
27
-83
-117
-20
37
4
20
-44
-69
38
94
-13
2
-9
34
23
-32
-8
27
-58
2
29
-9
-4
-61
1
67
-10
16
13
3
-50
-38
-10
-93
-86
-3
-38
-49
-28
25
22
-10
-48
-36
9
35
75
24
-34
-5
8
-43
-4
-1
6
30
-18
97
43
67
-25
-3
-9
-66
-53
-74
-79
-44
4
-16
10
17
56
94
127
96
25
2
-28
17
-45
-48
12
-39
-15
-11
-10
-110
18
-113
-84
-52
-11
-5
-17
58
43
2
127
7
3
9
5
-30
-87
-41
-118
-8
-25
-13
-8
-29
9
58
77
-21
12
16
37
49
-68
21
-116
-2
-25
-52
19
-3
5
85
28
17
-3
31
-28
55
43
-86
53
-16
10
-30
57
-18
-1
-34
-66
-21
-2
20
38
15
8
50
52
8
3
6
-15
-28
61
88
72
-20
-4
12
58
61
-7
2
-47
-4
-7
-16
-27
20
-45
-59
-8
59
9
-6
-57
-7
-15
-43
-58
-23
-2
44
25
-6
27
107
49
4
-21
-50
-42
-2
1
48
40
66
27
15
-35
-23
24
-5
17
21
1
-2
14
-2
-15
-45
-38
-52
-1
40
21
-14
4
32
-43
-33
2
-15
-28
75
-21
25
5
-7
-17
-52
9
-1
3
52
-17
43
4
41
47
11
-31
-1
56
10
7
-12
-112
-101
12
6
-35
-42
-5
-9
15
13
21
-109
8
-29
-2
32
19
-20
44
101
45
-6
-8
-22
-18
-17
-14
-57
-54
12
-4
-14
1
37
-8
33
56
33
22
29
53
-53
6
32
-31
37
8
19
19
53
-28
-99
-78
-53
-4
-27
-89
-37
-17
-32
8
-24
-34
-13
-18
0
-15
-51
-70
35
3
-7
-7
-23
-9
87
100
8
11
25
48
33
-27
88
20
5
21
19
36
70
44
75
-11
2
-11
-52
-77
-65
-35
-90
25
34
13
30
92
21
18
-17
-47
-47
-13
-7
-80
-19
6
68
81
29
4
10
2
-29
-1
-30
-47
-22
-8
10
32
60
27
116
4
1
-7
-15
-7
-51
-25
-91
3
7
11
20
-3
-8
21
-74
-23
-37
-24
-32
-72
-7
-28
-75
16
26
15
10
64
12
21
-41
14
25
20
54
8
71
55
74
-22
-27
-4
-45
-12
0
-31
10
-99
-18
-35
-21
-19
-47
13
34
88
-3
13
-15
9
42
-29
-33
-34
-35
-14
24
18
-32
-24
19
-18
16
-3
3
12
-13
17
-16
81
61
25
36
55
0
-18
-7
-79
-30
-5
-41
-28
1
-23
-58
-25
-14
-14
-1
-49
-28
0
82
-46
-27
-10
-42
-41
8
-1
-92
36
27
0
-9
12
-18
22
78
36
5
-2
49
31
41
3
32
16
-15
14
-18
4
0
4
-47
-79
-19
-4
26
29
8
-2
-8
-52
-7
-9
-6
9
21
10
-63
104
18
-1
-11
-21
-30
-17
15
27
0
-12
-29
-40
1
21
89
37
2
1
19
47
26
12
-39
-88
-34
-14
-32
-16
-8
23
115
79
34
30
60
52
9
-7
-91
-87
-8
-13
16
25
32
12
-44
-15
-10
8
-46
-34
32
19
46
12
-1
8
-5
-13
-49
-26
-85
25
-3
-30
-3
-42
-43
-25
-75
-65
-13
-6
14
26
47
27
91
19
12
4
-7
12
-17
5
4
-6
-74
-13
8
16
15
17
31
27
0
20
13
34
40
-22
84
40
49
29
11
9
-48
-78
-128
-62
-32
-25
-36
-58
-40
-12
4
47
16
-2
19
59
-7
-27
31
-47
-18
-20
-17
-3
-12
29
34
96
-1
-11
-30
-15
-1
36
21
56
-1
3
21
20
-14
-23
69
-41
-2
15
38
-24
-48
-1
-83
-44
-11
-6
-34
4
-5
27
-8
-87
-24
2
-10
-68
-6
-44
34
127
45
-6
5
23
-24
0
2
-94
-48
-13
-23
-18
53
13
-1
33
25
13
25
25
-20
3
-10
-16
14
0
-17
21
42
9
-12
12
-30
-8
8
-17
4
-10
-10
-14
-19
-2
8
-13
-25
19
86
-20
-7
5
-1
-18
41
5
-69
73
17
-10
-12
47
15
-12
-6
-75
-4
-1
11
-4
-18
-21
-53
-84
-11
-6
-39
-32
15
8
19
42
-19
-21
-14
-24
-35
-8
50
-13
-5
7
1
4
8
0
-92
4
20
16
26
53
19
26
68
119
36
12
3
-2
4
-42
-87
-128
-23
-21
2
5
14
26
16
19
-28
-5
1
-17
-19
-8
7
34
-19
1
3
11
-1
8
24
18
39
10
-8
6
-6
-36
-38
2
12
-3
-10
-31
3
-2
-42
8
22
-6
5
21
-21
9
88
-45
-39
-6
12
35
-6
-19
-73
127
29
-2
-27
-77
2
-7
-38
-42
-8
2
14
57
-5
25
59
-59
-21
-6
-2
-36
9
28
-35
23
-11
-7
-12
-14
-14
-26
-8
-32
11
5
16
49
12
17
45
18
15
15
-5
-26
0
-41
-89
-21
-25
-11
-14
-11
-19
-8
-48
-30
-13
-11
9
8
-18
9
10
95
13
-10
7
54
10
-25
95
-21
11
25
1
-54
19
-13
-48
13
-1
-5
-2
0
3
5
-11
-41
18
3
-8
-4
17
-26
-35
-30
-22
-10
-6
22
-3
24
58
30
8
9
45
-15
-9
-12
-33
42
-2
-12
-47
-32
-13
-1
26
19
2
6
7
8
13
-2
-50
-51
-4
1
-12
12
-6
24
14
39
12
-5
46
86
84
-13
87
-96
12
21
-3
-51
-88
1
-117
48
-20
-16
-11
0
-9
-11
61
-32
-28
-4
2
4
-14
23
-87
-13
4
6
-4
11
59
-9
39
36
29
-1
6
0
-31
-14
87
71
46
17
11
-8
6
19
-49
16
-29
-3
1
2
8
6
46
-40
-41
-16
-37
-62
-56
-4
21
-38
12
-9
1
26
33
-46
22
-32
17
8
10
-8
-7
-16
-8
23
-1
-11
-11
-27
-5
16
50
-29
-7
0
-11
23
-9
-1
-70
28
-9
8
-6
-32
-4
1
24
-23
-16
-10
31
53
3
-2
-8
-36
8
-6
-47
-52
-46
-32
-61
-28
-17
-14
-10
1
-28
23
-6
27
7
7
15
57
34
12
-20
27
21
16
21
-54
-19
13
61
91
12
11
44
46
14
-30
-101
-73
-44
0
-42
-50
-29
2
106
53
2
-13
12
27
15
-15
-45
4
13
-5
-32
4
14
19
64
24
13
0
-4
-42
0
35
-3
37
19
5
23
42
-12
5
13
-13
4
13
-3
-84
-18
-18
-65
-25
-27
-8
-9
26
20
40
92
19
6
6
1
28
4
-33
-62
-24
11
-16
-2
-10
-20
15
-47
-54
-15
2
5
37
6
19
13
-15
-7
-12
-13
-21
12
10
-19
-12
-10
-3
23
-1
47
-5
66
35
-4
-2
-29
-4
-24
11
10
11
17
17
17
-2
9
8
10
90
17
0
-18
-16
0
24
-52
-107
-9
9
32
23
47
-16
15
49
-8
-18
-7
-2
-17
-1
49
-2
1
-8
-12
24
13
-41
-47
-75
-6
4
-5
-15
-29
42
94
33
14
-2
11
3
2
43
-60
16
22
16
-8
6
-13
-12
38
31
-32
-13
-26
-42
8
-8
-29
-42
5
-2
22
12
17
-7
0
-18
-14
-7
10
52
-66
13
127
31
10
10
-24
-44
-13
-19
-62
-10
-11
4
6
24
23
11
-28
70
4
-14
-32
-64
-36
-2
26
-34
9
1
20
27
20
8
16
18
12
0
4
8
3
-30
-15
25
-2
12
9
3
4
4
-40
-25
-16
-15
-7
17
22
-9
25
57
43
3
-28
-52
8
-23
2
-18
-6
3
22
22
-8
21
54
68
14
-4
10
26
9
23
43
2
-15
8
12
16
-1
-33
40
-1
14
12
-4
-18
-7
-15
-23
48
20
-3
-33
-19
22
8
13
-107
1
-3
62
95
-24
11
18
53
10
-12
-39
-71
36
-52
-128
-94
-14
2
-22
-46
-88
5
68
86
20
8
5
-7
-7
-33
-3
-103
-35
-20
-36
-56
5
21
33
43
9
4
21
86
11
17
33
51
-11
-9
15
20
12
-11
-80
18
27
14
20
2
33
23
16
10
-15
-10
8
55
-9
-20
-51
18
-16
-11
-59
-106
-12
-10
-11
-68
-32
-5
-1
34
23
16
-43
2
11
-3
2
-9
-5
18
-56
24
12
6
-1
-22
-1
16
76
70
2
4
24
22
-9
18
-48
-51
-18
-10
-6
9
-12
8
19
-19
22
11
77
99
0
14
2
77
-3
-11
-93
-94
8
3
5
-127
-4
14
32
58
-33
2
36
113
12
-7
-9
-22
20
-12
-30
-63
-25
-2
22
15
-6
-8
27
55
-1
-5
-7
-12
-34
21
-13
-14
-2
7
5
7
7
-1
32
31
7
3
-5
-10
8
-2
38
-85
-11
1
4
12
26
-44
-16
22
7
8
34
44
-9
5
-30
52
20
8
-32
-78
9
-10
59
-88
7
2
-8
-26
11
0
-71
1
-32
-21
-6
40
-18
0
33
2
-5
-8
-22
-36
15
8
4
20
-6
6
30
23
-46
6
62
60
22
-4
-32
-1
14
-16
-47
-31
-28
0
22
-14
-1
7
-6
-61
1
7
14
34
16
-30
35
41
-10
-14
22
57
1
-8
-5
45
-16
-1
-24
-41
2
13
0
-55
6
9
-41
-21
-15
-27
2
22
38
6
35
85
17
-22
110
92
23
-3
-29
-1
12
0
-128
-99
-46
-17
16
38
-8
23
96
11
2
-9
-7
-20
7
-3
-49
-7
-50
-7
0
-51
-2
5
-10
-43
44
16
16
30
-7
14
23
64
10
10
5
-3
26
-15
27
12
-1
0
-4
-21
-22
4
6
-50
-15
-13
-9
11
0
2
-5
27
-5
-8
21
59
-5
-20
-68
-73
-10
-6
-48
-111
-23
23
79
42
19
3
-2
19
-5
-27
-46
-14
-2
1
19
24
3
6
13
-35
-42
-1
-6
1
15
-3
-8
78
34
13
19
0
-24
-11
31
-48
-12
-1
12
19
22
3
19
44
7
-5
-45
-61
-21
-3
-32
-83
-33
-9
-1
-30
-2
16
25
37
14
10
16
61
18
-3
-46
1
-1
-11
-27
-52
-1
-9
-21
3
-5
-2
2
9
3
2
-16
8
7
-1
7
-2
-16
1
16
-40
-2
3
0
13
6
-29
-18
31
-5
-11
-6
-7
-6
14
12
17
5
10
14
11
1
1
-45
-38
13
-3
-14
-16
8
-1
1
-9
5
5
11
28
-7
-1
-3
25
-18
-4
-6
-28
5
6
3
1
15
-2
-4
-4
-12
-13
-14
-28
-23
0
7
2
2
3
10
19
-2
-8
-1
6
-7
-4
-28
-31
8
-1
-9
1
0
7
-9
14
-12
6
10
9
-4
8
33
28
35
7
-11
-10
4
-7
-16
-13
-24
-11
-1
5
0
-11
-9
22
4
-1
-5
-4
-2
10
16
-25
-3
-2
5
0
2
4
-5
-18
8
10
2
1
3
-9
8
21
5
5
7
-5
-5
-3
-7
-2
-12
-8
-4
0
0
6
-12
7
11
0
-5
1
-4
-2
14
-19
-21
-14
-7
-4
-1
-4
-9
11
1
-6
7
4
-5
5
11
-8
-12
0
-6
0
2
0
-11
9
18
7
4
4
0
0
7
-6
5
2
-5
-3
3
1
-4
-12
-10
0
2
0
-4
-3
-5
10
5
-6
-7
-1
-3
1
-4
1
-8
-5
-2
-4
-1
-1
1
-24
-5
8
2
-1
1
1
0
11
-3
0
3
1
-3
1
-4
4
-11
2
5
0
-3
2
0
2
8
-4
-1
3
-1
-2
4
-8
-9
-5
-6
-5
-2
-2
-1
0
-33
-6
1
1
-1
-7
1
3
18
-1
-5
-3
-1
-2
-4
-6
7
7
3
0
0
-3
3
2
8
-2
-2
-1
1
0
0
0
-4
-3
-2
-3
0
1
0
-3
-4
-4
-9
-5
-3
2
-1
15
2
0
-1
2
-2
1
-2
-13
-11
-10
-9
3
1
-3
-6
-20
10
-2
1
0
0
-1
2
-1
0
11
12
-17
-1
-13
2
32
7
0
0
3
-1
0
0
-25
-18
-3
-3
-5
0
-4
-15
-8
7
-1
0
13
-3
-6
1
5
14
-2
-4
15
0
11
1
-13
-7
3
3
-18
-3
1
8
45
2
1
5
4
0
-6
7
-2
9
-4
-2
-9
0
11
-4
-47
-18
-7
-4
-2
4
-18
18
18
12
9
0
8
1
-1
-3
-36
-7
-1
-2
-1
-1
4
-4
4
-4
-3
-1
-6
-3
1
2
39
-9
-5
-3
-1
-3
9
2
-32
5
1
0
5
1
-5
-11
12
1
1
1
-4
-1
-5
16
13
5
3
0
-3
-2
1
-20
2
-2
-1
-4
1
0
0
-8
-17
-11
-6
7
44
1
-3
-7
13
3
-1
-21
-90
-13
-2
7
1
5
-3
-4
5
-2
-4
-4
-13
-4
-1
-20
-4
1
4
1
6
3
7
18
11
-1
-1
-2
-12
0
3
22
42
6
4
-8
2
-3
-1
-9
-14
2
0
0
-16
7
5
0
-13
-2
-1
-1
22
-1
-4
3
1
-1
-3
-12
-5
-5
-9
-21
-9
-3
7
32
15
1
0
3
0
-2
-7
7
-17
-14
0
1
14
0
10
-6
2
13
2
-4
-18
0
13
-14
19
-1
2
7
11
2
-1
-9
-5
9
4
1
8
1
1
10
-1
-6
-6
0
2
1
0
2
-7
-13
-9
-6
-14
-1
1
-5
-20
-5
-4
-3
7
0
1
-2
22
5
4
-10
-11
0
0
1
12
0
-10
-12
-11
-2
-3
-23
-42
-4
5
17
30
-3
-3
23
6
6
2
0
-8
-1
2
0
11
5
1
-1
15
2
-1
-4
-2
0
4
26
-1
1
-1
-4
-1
1
-5
-17
-16
-1
-4
2
-13
-7
2
2
6
-3
-2
-22
5
4
4
12
14
-1
-4
13
-12
3
-6
-5
-5
-4
5
13
8
-14
-13
-19
-18
1
-1
8
-12
-8
-4
-1
-3
-1
1
-10
-4
5
1
4
29
3
-1
-13
-9
1
8
2
-33
-1
-1
-6
4
-2
-2
1
-10
-4
-8
-8
1
-9
-5
-5
7
-3
-2
0
-2
-1
0
1
-10
-3
-2
-8
10
-3
-2
3
20
1
-5
7
7
13
4
-4
-9
-2
7
-2
5
13
8
8
30
2
-4
2
4
-5
1
-13
-63
-9
4
0
-4
-1
0
-3
5
0
-4
1
-30
-7
-5
-3
-5
-4
-11
1
30
-1
-9
2
13
2
0
-1
-23
-2
5
15
26
0
2
12
16
2
1
-22
-31
1
-14
-49
-4
2
-2
-5
2
-2
5
35
3
-2
1
9
6
2
0
-13
-23
-18
-8
-2
-10
-9
-10
-9
-17
-7
-7
-1
7
-2
5
5
1
0
-2
2
5
2
-4
-14
-7
1
3
-3
-8
-2
3
0
17
12
-1
-5
-2
2
6
10
-1
-2
3
14
35
-1
1
5
-7
-5
7
-8
-29
-1
-3
-3
16
3
0
-5
-15
-3
7
31
-25
-6
-1
16
58
8
-8
-27
24
-3
-11
-39
-80
-9
1
7
2
4
-6
7
26
4
6
2
-8
-5
2
-2
-4
0
7
-12
5
-1
-2
2
-2
-1
3
-1
1
1
0
14
40
5
1
11
9
2
12
16
-8
-1
6
-7
12
-4
-3
-3
-10
-3
-5
-17
-37
-4
-3
15
3
0
0
-3
11
2
-3
-30
-15
-1
-7
-2
-41
-16
-17
-9
-10
-3
5
0
-5
14
10
3
7
4
-3
2
29
-3
-1
-5
-9
0
2
11
-9
4
3
15
25
2
-20
11
12
1
-1
-10
0
2
-2
2
-9
-6
-4
3
-18
-1
-4
-27
-13
-1
1
-13
-15
-4
-3
12
14
1
-2
12
12
-2
5
-1
6
-1
-6
-1
5
-1
-3
3
-10
6
0
0
12
1
-6
3
4
-1
-1
-9
-15
-1
2
-17
-7
-13
0
10
5
-3
7
3
32
8
5
1
8
0
1
-7
-26
-7
0
-4
0
-3
-9
10
4
-2
-7
-6
-22
-3
1
6
-23
-12
-2
2
8
4
-2
-14
-10
5
3
-4
-15
-5
-8
0
21
1
-8
4
7
-1
4
4
3
5
4
-4
15
2
-1
-2
15
7
3
-3
-26
-8
3
-9
-13
-8
-6
9
11
0
11
12
-7
-4
0
-19
-22
-1
-28
8
-33
-4
-6
-1
7
-2
-1
11
20
8
5
2
5
3
2
-13
3
7
2
1
0
0
-2
-1
-6
-1
-3
2
5
-2
8
-5
2
-2
0
-4
-7
1
2
-7
2
-5
1
2
7
0
0
20
-5
2
-3
-1
-5
-4
-11
-9
-3
-4
-7
-2
5
0
4
4
9
3
4
6
-8
1
-3
-6
-4
4
-1
4
6
0
5
4
11
-1
6
-1
6
2
-4
-4
3
-10
-4
-23
-28
-6
7
-2
3
2
1
21
46
1
0
9
10
-4
3
-2
-62
-4
-6
-12
25
-2
-11
-8
8
-2
-4
-1
-14
2
0
5
9
3
0
-5
5
0
-2
-8
-3
-2
-7
-17
-5
6
2
10
26
5
4
22
-4
0
6
0
-8
-5
-4
-17
-3
-9
-4
2
-1
-2
3
1
16
-1
-2
-2
-6
-2
0
-11
-33
0
-5
-3
12
0
0
-5
4
-4
0
-6
-13
0
-10
-8
-1
-1
-4
-2
7
-3
2
-3
-4
6
4
7
-6
-1
5
13
4
0
1
-1
5
-1
-2
-7
-14
-9
0
-2
-2
0
7
15
9
2
-2
3
5
0
-4
-6
12
-1
-6
-9
-12
-2
-3
-3
0
3
-4
-3
1
-3
-2
7
-12
-9
0
3
6
1
-1
-5
10
5
4
-1
3
0
1
-1
3
0
2
-1
-12
-1
0
4
-22
0
-2
-3
6
-1
-3
-14
2
4
-2
-3
0
0
4
8
6
-9
-4
-5
-3
0
2
6
-22
1
1
-3
-7
-2
0
-2
13
-3
2
4
6
0
0
0
-11
-1
-4
-5
-6
-1
-2
-16
8
3
-2
4
0
0
-1
8
-10
1
-3
-6
-1
-2
0
0
1
-1
2
-3
3
1
0
1
2
-2
-5
0
-2
-2
-1
2
1
8
0
-11
2
0
2
-3
13
-6
-6
3
-4
-2
-1
1
-6
-1
3
7
4
-2
-2
-8
6
0
-1
-6
-4
-2
1
4
-17
-6
-5
6
2
0
-5
-7
7
-1
0
-6
-4
-2
-4
-2
-5
-2
2
-1
2
-3
6
3
-5
3
3
2
1
1
0
12
15
1
3
3
0
-1
1
2
-4
1
-4
-12
-7
-1
2
-26
13
-3
-3
5
2
2
-7
-3
-42
-14
-6
-10
-1
-4
1
14
-24
4
8
12
0
0
3
10
14
-2
-6
0
-2
-5
2
11
27
7
-2
-8
-1
0
-4
-17
11
-3
-7
-7
7
7
3
3
-31
-5
-2
5
-10
-6
-1
-5
46
-1
9
6
5
7
10
-8
-83
-14
-5
-17
-20
-15
4
16
58
4
2
21
13
-6
2
5
20
-1
4
-6
1
-9
-18
-68
-97
-11
-9
-9
-8
-15
-7
29
52
-2
-6
-6
16
15
-17
-26
43
15
5
9
53
-13
21
11
-20
-17
7
-9
-91
-33
-16
-22
-23
-24
-11
-40
10
-55
-8
-7
-99
-23
-6
-18
-26
-13
-4
7
92
37
5
40
87
82
2
40
24
39
6
21
32
13
27
-102
-110
-16
0
5
67
100
-21
90
26
-59
-13
-15
-97
-94
1
52
94
13
-23
-34
9
-71
76
-118
-106
-34
-2
16
39
-9
7
127
100
22
41
16
-47
36
-45
-83
73
-24
-13
-3
4
-26
-16
-3
-18
27
-18
-22
-51
80
-20
-72
-38
-27
-10
-28
20
-44
-16
52
0
3
-7
37
29
-103
-1
-101
85
39
-12
-13
2
36
43
93
-94
-33
-5
-46
-55
9
-35
-94
51
-11
-12
29
-2
45
18
68
84
48
46
24
-13
-30
-79
-25
-86
-6
14
22
36
11
23
49
70
37
8
13
-11
49
34
4
-56
-42
4
-11
34
-57
39
-2
28
-39
-42
-30
-37
-1
-8
21
125
90
-10
11
44
61
-61
-31
-17
12
13
-6
-23
-59
-77
39
31
-33
3
15
9
80
9
-16
127
16
11
6
-2
-55
38
112
3
22
-8
47
65
63
1
-97
-52
-35
-4
-62
-60
-45
-5
-9
2
21
4
25
72
43
-3
-41
-48
-17
-10
-44
-73
43
73
13
-59
-9
22
8
41
-8
-2
10
-53
-24
-10
16
-26
-46
5
8
20
23
10
11
0
-30
-12
-10
42
32
-1
-5
-7
49
13
40
38
15
-14
-14
-14
-12
28
35
-86
-27
9
13
-12
13
-1
-77
-15
12
15
-6
6
25
-35
-3
-45
0
-19
8
37
45
21
35
93
2
10
-11
-63
-116
33
12
-21
-9
15
11
58
15
-55
-37
97
39
-18
8
-8
1
12
47
-128
-42
-25
-48
-48
20
2
37
94
24
27
71
79
-49
-24
-45
-12
-32
1
-3
-82
-1
31
73
60
19
4
-5
-2
-29
-2
-41
89
12
-11
-32
-44
40
-30
0
-116
-33
-17
-47
-3
59
-21
34
-7
7
13
27
41
-23
-39
0
53
18
2
10
21
-24
21
-13
-78
-34
-8
21
33
-1
-4
-8
31
-2
-4
-18
-38
23
5
-32
-14
3
2
10
47
22
-1
-37
-101
-1
0
-10
-23
71
13
99
74
21
-11
-3
2
-54
-11
-54
-22
-60
-1
-6
-5
-12
22
-10
64
46
11
16
33
2
5
-14
-42
2
6
-11
-49
18
0
27
86
-6
8
12
8
-10
7
8
-128
33
5
27
2
8
4
-59
42
0
-10
-6
40
46
-19
26
20
-35
-9
-48
-106
-79
-21
-18
-3
7
2
30
49
-7
9
-95
-16
-43
-10
-24
-12
-9
21
65
-53
8
9
23
35
62
32
-29
29
26
6
10
12
-6
-24
-44
60
20
11
-15
-9
-9
12
62
-46
-22
-19
-3
-3
-7
32
-60
5
-15
-6
-16
-33
-28
32
122
-61
-30
-8
2
33
8
-34
-1
3
-1
2
2
-13
-2
-11
-59
-47
-13
-1
-12
0
27
-22
-25
79
26
-5
-14
-26
-31
18
65
-30
8
3
28
77
-23
23
53
33
22
4
-24
-63
45
-1
-46
-70
14
5
-26
-11
-18
-32
45
7
-18
-8
-16
-10
-24
-11
-21
74
3
-24
-6
36
4
5
12
-32
11
13
30
-1
-27
1
-47
35
-14
-4
3
-8
16
-12
11
-22
-24
-2
-12
-33
-43
-34
-11
4
18
-2
1
15
24
-7
10
8
17
11
21
33
-22
19
65
65
31
12
-17
-22
21
-55
-42
-83
-46
-18
16
29
-5
21
115
95
5
-16
-13
-41
2
0
-128
-128
-50
-14
-13
-9
-53
-3
39
18
22
14
28
18
-10
13
-68
22
6
10
-2
49
36
-22
63
-16
18
5
-12
-73
-34
-49
-83
-109
-26
-14
-31
-33
-36
34
126
112
16
5
37
42
70
-20
-44
29
-10
-2
-12
-52
-37
-3
-77
-107
-15
-7
-19
7
17
45
78
101
35
9
12
50
18
7
68
-54
-11
6
10
-22
-34
-41
-73
-29
-50
-14
1
-6
-10
0
100
86
-3
-5
-24
6
-70
-26
-59
-90
0
-7
-20
-74
3
20
-15
83
-13
-1
-6
9
5
60
76
30
50
21
49
49
23
4
-41
10
-9
8
-39
-41
6
-6
-19
1
4
-4
11
8
28
-51
-74
16
-4
-19
-22
-6
-32
26
57
-22
11
-10
-10
-40
44
-16
7
9
14
7
33
37
4
9
36
68
-12
-1
20
40
3
10
-93
-110
-7
3
-33
-2
22
11
52
-14
-10
5
28
31
-31
9
34
86
-12
18
-11
-55
-21
-30
-65
-33
-27
-8
17
20
2
-9
48
42
8
-14
-22
-28
-9
18
50
67
37
2
13
37
21
34
3
-99
-12
-13
5
17
32
-12
33
9
-17
6
-38
-72
-48
-1
10
9
40
18
8
20
52
-3
-26
37
1
-6
2
-11
-21
-3
23
49
-12
25
56
80
15
-29
-75
-38
4
-21
-25
-9
-5
-14
15
-8
-1
-5
3
40
50
-29
-20
-85
-19
-21
-27
-56
-43
22
0
25
-2
-13
2
-6
-7
4
-4
29
34
16
11
53
48
26
45
-17
-14
14
49
61
-2
-6
-66
1
-18
14
-49
-104
-27
-39
46
-54
18
-15
-5
56
-34
12
90
-9
-36
-19
-34
-85
-9
-26
-128
-29
0
-5
27
-14
-42
21
127
-48
18
9
28
60
49
-57
-124
-22
-18
1
2
-9
7
4
33
16
14
20
19
27
30
8
-56
-57
-28
-7
-22
-32
5
6
54
5
22
-9
17
61
-23
-22
-50
39
-5
-12
-54
-128
-2
5
-34
-68
-15
-10
8
43
-15
5
-8
18
-18
9
2
2
-7
23
-11
47
37
20
6
21
30
18
3
18
31
14
19
30
47
-4
-50
-12
-6
2
49
35
-5
47
5
-32
-1
-18
-43
1
62
-45
-71
-77
-33
-19
-28
-51
-63
8
62
37
-3
2
17
-1
-2
-10
-38
-41
20
11
-11
-24
8
-1
60
34
4
-3
13
43
-25
15
7
6
-1
2
1
-30
18
6
-77
46
-15
-3
13
7
-39
48
127
-11
4
-3
-23
21
31
-28
-34
52
-5
-16
6
6
-43
25
37
-24
-15
-8
-20
-39
30
-11
-77
-92
-21
0
8
13
-17
45
79
125
17
6
31
45
24
-44
-118
-102
-3
-2
-30
-31
6
-38
-44
84
14
3
-12
-6
-16
35
54
6
-1
-19
15
92
44
-12
25
33
29
13
-12
-70
-28
6
-49
-1
-12
7
-11
-14
-12
-54
26
21
4
-1
19
48
1
1
111
-109
6
-11
-10
9
11
-18
-117
6
-31
-12
-17
12
31
-21
11
79
32
15
24
-16
-11
16
-4
5
-6
9
11
34
3
30
-13
-34
-24
-3
-22
-57
-2
26
-2
8
-9
-9
12
22
0
-24
-25
-88
17
-6
-16
-45
-21
-3
-42
-29
-39
-10
3
15
-6
7
12
73
53
6
-12
-15
12
-14
-56
-10
19
18
9
38
-4
23
49
28
-5
11
12
-2
-19
41
10
-56
-2
-6
25
48
16
-31
-21
-98
-21
-17
-33
-80
-29
-11
3
26
-12
-7
-19
23
11
1
-59
48
-22
-7
-13
-5
52
29
18
43
10
8
17
46
-9
-5
-31
-47
-6
6
-21
-39
-11
-16
40
38
20
-14
11
4
-12
5
7
15
-16
2
20
16
7
-12
37
-9
12
9
-20
-67
19
1
0
-39
-31
-9
-5
35
-5
0
-41
-62
-8
-7
-7
-3
-14
-1
111
15
-15
-5
2
-17
-29
-48
-43
2
-6
3
5
5
10
3
61
106
44
16
20
37
-11
-20
-29
-95
-35
-9
14
-13
10
8
33
40
4
-12
-24
23
-1
1
1
25
20
4
2
-49
-30
15
22
42
8
-5
-36
-17
30
14
36
-9
-25
-13
21
51
20
5
-56
-101
2
22
24
18
-13
8
75
39
21
10
-2
-32
26
-33
-86
73
21
3
-10
-56
-54
1
29
-26
-10
-9
6
24
19
-17
99
47
4
-6
0
-18
-60
0
-99
-110
-27
-20
-35
42
-9
13
51
82
-1
8
2
-45
27
-26
10
-10
12
17
22
11
-15
31
63
23
20
8
0
30
44
1
-20
42
-35
-20
-31
-37
-33
1
-49
-36
3
-3
6
49
-5
0
-34
31
16
18
20
7
-20
-1
-35
-40
-2
4
-11
-17
2
58
45
11
7
-9
9
79
35
-25
-107
20
-10
-14
-3
-60
5
31
49
71
12
6
-20
-15
-18
-51
-47
-77
-40
-16
-3
-36
-45
-14
17
-9
-14
-4
12
-13
3
21
65
-36
-6
14
-6
22
-1
-2
-61
35
-2
-10
7
-38
-11
18
17
89
34
-4
-34
-18
14
-19
-58
-101
-44
6
66
61
-6
28
58
72
45
15
-53
-51
47
-16
-40
-4
6
2
-27
-30
-32
12
33
1
-19
-15
20
27
26
-26
-50
49
4
-1
0
-21
-11
30
52
-2
-14
-10
35
65
9
-3
-68
-71
-29
-3
-8
19
-10
-14
72
66
38
3
-4
60
-7
17
32
60
6
-3
-40
-103
-42
35
-102
-13
-16
-2
22
46
27
-4
127
-43
0
7
-18
7
-19
-8
-59
3
16
-4
32
14
14
0
25
-79
-8
-6
-17
58
23
-24
-19
33
19
9
-18
-65
-7
6
27
24
-8
-3
24
28
11
0
-27
-26
-6
3
-13
-48
3
-8
23
13
30
6
-18
-11
-21
0
5
16
-5
-5
62
69
17
12
69
52
-11
2
-32
8
52
-9
-54
-55
-9
-2
-22
-52
-37
-18
-87
16
9
-13
-18
-70
-59
-13
61
-37
-4
4
27
47
-4
6
-9
-29
-6
0
13
41
23
34
24
72
-4
0
-29
-39
12
6
50
5
9
13
23
8
36
-40
-79
-51
-31
-14
-13
6
-28
-1
28
-22
-10
-11
-4
8
-12
-40
-25
42
12
-2
-12
-23
7
9
76
-17
-23
0
32
47
29
17
16
7
22
6
-30
-10
23
-29
-66
-11
1
-1
-9
-25
-11
17
29
-103
-21
0
35
4
-1
-16
-23
32
-3
-2
-41
-75
-22
-4
16
12
-4
-7
18
59
18
36
113
65
15
-3
-8
-71
-28
-45
-87
-55
12
10
3
73
-22
-16
-44
41
-18
-17
4
48
28
-14
14
-28
-6
3
-15
-92
-39
32
-19
-16
-1
-5
8
23
6
14
72
25
11
5
11
21
15
-11
-87
-52
2
0
-9
-23
-11
-9
75
26
-2
-5
1
67
25
7
-62
-30
-14
-2
14
-46
-13
19
-26
43
-3
-9
-36
-32
-9
-26
66
-4
-32
10
-2
22
10
11
30
-33
32
-2
29
-7
-14
-24
-7
-19
2
-8
-61
-50
-20
9
-35
63
20
4
48
71
27
34
25
-40
-2
20
10
5
40
-5
-11
59
-11
-19
-20
-40
-41
-22
-9
7
-9
0
14
37
12
46
39
28
11
4
-2
-11
14
-15
-85
-1
22
3
-1
-9
-9
18
32
-49
-14
3
-4
8
15
5
-46
1
16
-1
27
60
6
-10
60
-18
-23
-8
-36
-71
-20
9
-3
49
15
-6
-5
-25
-6
-8
-33
-65
-12
-2
-16
45
4
1
-16
23
-5
-2
12
-11
-5
-1
-7
-49
-15
-5
10
10
0
9
39
48
32
8
8
14
-8
-25
-49
-57
-32
0
-5
-14
-5
-4
13
27
12
4
-3
-4
-1
-1
13
-3
2
-2
1
9
1
-4
-7
4
17
-2
-5
-11
1
3
-5
-8
-20
3
-3
0
-1
-1
0
0
-5
3
-1
-6
0
-5
2
-4
16
0
7
-5
-3
4
7
10
-21
-13
-10
9
-3
-1
-27
-37
-9
-1
7
-11
0
0
17
13
8
3
0
4
0
-10
-9
-3
-6
-2
-3
-6
-5
4
19
0
1
-5
3
0
-2
1
-2
5
-3
-2
-2
-4
0
-5
-7
24
7
4
0
-4
-1
0
5
-9
-3
-1
0
4
-3
0
-1
-22
-4
-3
1
2
1
0
1
35
-2
-2
12
47
1
-2
-1
4
6
-5
-22
-76
-7
-5
-3
5
0
1
3
2
3
1
12
2
5
-2
-2
1
-1
-1
-9
-10
4
2
3
-6
-1
1
5
7
8
0
6
23
3
3
2
-11
-12
4
-2
0
-1
-1
-3
-11
2
7
-2
-11
-1
0
3
41
12
3
2
-3
0
-2
-12
-35
-10
-7
-2
14
0
-3
-2
-13
-17
-10
-3
-17
-5
2
0
7
11
6
3
15
-2
0
-2
5
11
10
5
-12
0
-3
5
3
-1
1
0
8
-2
-4
-2
-4
-5
-3
-2
4
-2
2
4
3
-11
-11
-15
-8
-2
-1
-2
-2
5
5
9
-7
0
-1
-1
-6
-1
-2
-2
3
0
3
2
3
-1
-2
-4
3
-3
1
-2
2
-7
-6
-5
-2
0
-1
-1
-5
0
-3
-5
-15
-2
1
-5
-11
3
0
0
13
2
-6
1
-1
1
6
4
0
-1
1
-2
0
9
3
9
23
1
-7
3
-7
5
-2
-9
-31
-2
0
0
4
-4
-3
1
5
-1
4
-5
-7
-5
-1
0
5
-1
4
0
9
-19
-4
1
-7
-1
-6
-2
0
-1
0
0
13
-2
-1
-1
2
-6
-3
1
2
-2
-1
-3
8
11
1
2
1
1
-2
4
-31
-10
-3
-11
-16
-3
3
0
10
-3
-3
-2
0
1
2
-2
-11
-1
1
-2
-4
-3
-1
3
38
1
-5
-1
6
-1
0
-7
-18
-5
0
4
-1
-2
4
3
-5
-3
0
-6
-3
1
4
-1
11
-8
0
0
2
0
-1
4
-15
3
3
7
8
1
-7
3
26
8
-3
-11
-10
-1
0
1
-7
-2
-6
8
15
0
-1
9
0
-1
4
-1
-14
1
0
-6
-6
2
0
2
31
2
0
7
24
-2
-1
-2
-33
-2
-3
-10
-54
-2
1
10
11
-2
-2
-12
31
0
1
-3
21
-3
1
0
-2
2
-4
-5
-30
0
-4
2
13
-2
-2
-2
16
2
1
-6
5
-4
-3
-10
1
1
-1
4
-55
1
8
27
9
-1
1
1
16
-11
-4
-14
-9
0
15
-23
8
6
-2
2
6
0
-7
19
11
-7
-6
-2
-17
-2
0
-1
10
1
-1
-5
7
3
-4
-7
-19
-3
1
0
-6
-1
10
-2
-38
-3
-2
7
-1
-1
1
-12
27
-1
1
-5
-5
-4
-2
6
-6
-2
-2
-2
11
1
-5
-5
6
4
-3
9
11
2
-14
4
-9
-6
-6
-34
-71
-13
1
5
-3
-1
-4
-3
10
1
2
-8
23
-1
-5
-8
-11
-1
4
-1
-25
-9
4
7
16
-2
-7
-5
0
1
1
18
42
1
0
2
2
6
-1
-10
-41
-3
-8
1
4
8
2
4
6
1
2
2
-16
-5
-6
-7
-12
1
-8
6
25
7
5
5
8
0
7
7
-36
-10
6
1
6
-2
-8
-6
16
6
-6
-4
-4
-3
-2
-3
-5
-8
-5
-3
-12
0
-5
-2
-18
8
5
-8
-13
0
-4
-9
16
-8
-6
3
11
-1
0
3
-7
2
0
-2
-3
-1
0
5
-4
1
-2
-2
1
-3
9
0
21
-3
2
14
43
3
-8
2
5
2
0
1
-31
-1
-4
-8
-32
-9
-8
-29
-19
-3
-1
0
19
-1
-2
-3
-5
-2
-13
1
-18
-5
-3
5
10
-1
0
-13
5
6
0
10
35
4
5
3
2
-4
-2
3
-4
-2
7
11
1
-6
-7
-18
-20
-2
0
-7
-9
4
8
7
8
-5
-2
2
13
18
5
11
35
2
-5
0
8
-12
-5
-11
-62
-6
2
-2
-20
-3
1
3
16
2
1
-4
-7
-5
-7
4
-6
0
1
6
9
-4
-3
-13
-16
-4
4
1
4
9
0
1
16
0
-2
-5
4
-3
-2
7
5
-3
2
7
23
2
2
2
3
1
2
-2
-28
3
7
-4
-3
1
-11
-12
-2
-2
-1
6
14
-6
-5
-2
14
4
-5
-4
-21
-2
-3
-1
-9
-9
-7
-5
-7
0
5
-1
12
2
0
-6
4
1
5
3
0
-2
-1
5
5
1
-2
-5
-5
7
2
20
27
1
7
11
23
4
-4
-24
-20
-1
-6
-22
-33
-15
0
7
-5
-6
-10
-5
-2
-11
-9
-12
5
-1
-3
-3
4
-2
-1
0
-6
1
2
-1
-8
2
2
3
4
1
-9
4
13
3
-2
0
-6
-6
8
11
11
6
1
3
5
2
3
-1
-13
-3
0
-11
4
-3
-1
-11
-15
-5
-1
23
29
-1
-4
-10
39
4
-6
-24
-76
-8
-2
14
-33
-5
-3
-1
6
4
-2
1
12
3
6
-4
-13
0
3
1
-18
-3
-2
-1
9
2
1
-1
-3
-4
-2
3
17
-1
3
-4
10
6
1
10
29
2
-1
8
15
0
5
-13
-38
-3
-2
-16
-51
-13
-4
-5
-17
0
-5
-7
-16
-9
-6
0
8
-2
-3
2
22
7
0
-20
-23
-4
4
16
2
0
-3
8
23
2
-2
1
12
4
5
3
-2
2
-3
-10
-4
3
2
2
4
0
3
1
-11
0
3
12
8
-1
-3
-11
-16
5
4
-2
1
-2
-1
16
5
-1
-8
-14
-18
-1
0
3
-12
-6
-7
-7
10
-1
-1
-12
2
0
0
20
8
-2
1
-1
1
-3
1
-12
-9
-1
-8
-4
19
-1
3
18
28
-3
2
8
-22
-6
1
-11
-43
-3
-4
-8
3
3
-2
-4
-2
-1
-3
-3
-12
-4
-6
3
-3
-2
1
0
-1
0
-5
-4
11
-2
2
3
5
6
3
0
14
1
1
4
18
0
5
6
-7
-1
-2
-2
-20
-3
-2
1
2
-3
0
-8
5
-4
-3
-8
-8
-1
2
5
-13
-7
-3
2
8
1
-2
0
-7
-3
-6
-9
-12
0
-1
-5
4
0
3
1
10
-3
0
3
22
5
-2
-2
-9
-3
0
-4
-17
-5
-2
3
4
2
-1
-7
-11
-2
-1
1
7
1
-1
-2
7
0
-1
-2
-4
-3
-1
4
-3
2
3
1
-9
-3
1
4
16
1
-2
-2
9
0
-1
-5
-7
-1
2
0
-2
0
-2
0
-1
-2
-1
2
0
1
1
8
10
3
1
-1
-9
-2
0
-9
-5
3
-7
-3
7
0
-4
2
-15
-6
-4
-5
-3
-2
-3
-2
-4
0
-1
1
-4
-1
-3
-6
-5
-8
-1
-1
-1
1
1
0
-8
1
4
1
4
2
3
3
1
1
2
-1
-4
-1
-1
-5
7
-2
-6
-4
0
-1
-2
-5
-22
-8
-3
2
0
-4
-2
6
14
6
3
-1
1
0
0
3
1
3
-1
1
-3
0
0
4
1
-2
-6
-3
0
-2
-1
-9
10
1
2
-3
-5
-1
-1
-3
-5
1
2
2
0
-1
-2
7
0
0
0
0
3
-2
1
1
18
4
-2
-2
-2
-2
-2
-4
-21
-6
-3
-3
-5
0
-4
-5
-19
-5
-2
1
2
-1
2
4
6
1
1
-4
0
1
-3
-3
2
0
1
1
-1
-2
0
-2
5
4
-4
-5
-2
-2
-1
8
17
2
0
-1
1
0
0
-3
6
0
2
1
-3
-2
-1
-5
-14
-1
2
-1
0
0
-3
0
1
3
-1
1
-1
-1
0
0
-4
-4
-3
-1
-1
0
-2
0
9
-6
-4
2
1
-3
-3
-6
4
-1
1
0
0
0
0
7
-4
1
0
-2
-1
-1
3
6
10
-1
-3
-1
-1
-1
0
-8
-5
2
4
0
-1
-1
-5
3
-4
-4
-2
1
-2
-1
0
-4
-13
0
1
2
-1
-1
1
-5
14
-3
-4
-4
-2
0
-2
10
-7
-5
-5
-5
0
-1
0
-4
4
-1
-1
-1
0
0
4
3
-4
2
2
-1
-1
1
-1
0
-9
-6
0
1
-1
-2
0
-10
31
-1
-1
-2
-2
0
-3
-1
-29
-1
-5
-2
-2
2
-1
-1
17
4
-1
-1
-1
1
-1
-4
-40
-2
-1
0
0
-1
-3
6
-7
-1
5
0
0
-2
-3
-17
19
-3
1
-1
-1
-3
-3
2
-12
-4
-4
-3
-2
-2
-3
-2
0
-4
-3
1
0
-4
1
2
-7
1
-2
0
-1
0
16
-15
3
-2
-2
-2
-1
-2
-5
11
27
8
2
-1
0
0
1
27
-10
-1
0
-2
4
5
0
-20
3
-4
-6
-3
-5
-10
-3
-1
-24
4
2
0
-3
-3
-12
3
2
13
3
2
33
51
-13
-6
93
3
1
-22
-26
-25
15
71
-25
4
3
35
19
30
4
12
25
-7
-1
12
-16
-12
-12
-51
-27
0
7
1
-13
-28
-13
98
23
15
-4
-7
77
98
-16
0
-83
-49
-7
-18
-85
-83
-25
-39
55
17
2
12
41
73
4
-28
80
32
12
20
-11
14
29
-29
-91
-33
-22
-28
-36
47
-16
-53
38
25
22
-3
37
-10
2
41
-61
-26
-6
25
17
-67
94
-34
101
58
26
2
55
80
-26
8
-106
-29
2
29
106
-99
27
70
118
0
-8
29
-98
88
-5
105
70
69
28
-24
-9
-49
3
-85
-102
-92
-38
-43
-46
60
-51
68
87
96
45
9
65
53
18
-65
-113
0
-15
7
14
40
-32
2
-77
-65
-61
1
78
-35
18
127
78
73
36
-5
-120
-70
-30
-100
-97
-99
0
4
11
-12
85
10
11
31
40
14
61
-17
-27
37
27
70
30
-5
-30
60
-63
-36
-120
-16
-17
6
45
-20
4
-10
83
-10
3
23
-39
-54
-57
-55
16
-27
-29
-31
-12
-28
44
10
-37
-30
-31
-25
-46
-29
-24
-38
-56
-42
-13
6
89
31
-1
-17
-11
10
-1
7
-107
-80
35
115
36
20
17
-23
-22
12
-26
-78
-39
1
12
26
51
77
-42
-5
84
-20
-19
-20
-31
-88
23
-89
-57
-31
-34
-12
-22
-35
-4
107
67
35
16
-17
16
-2
14
3
-42
10
18
23
24
38
-14
-31
-7
-4
-10
-35
-34
14
25
10
54
16
-2
8
6
-36
-26
49
5
-13
-12
8
44
-30
29
-13
7
-49
-5
-20
-59
-19
-8
-37
32
-20
-17
4
12
21
-5
35
28
10
-18
-29
-33
28
-16
-41
-2
16
-6
13
47
74
-1
14
18
26
24
-6
-18
-30
5
32
54
3
-15
-14
-47
-75
47
21
20
-17
1
1
17
38
-27
-67
-74
-12
-3
15
53
22
2
33
50
1
13
63
102
32
2
-26
-14
16
4
-45
-97
-21
-35
75
-6
23
9
-14
11
-7
-3
-80
-34
-39
-25
-21
-30
-15
53
43
104
-3
-7
6
26
11
-21
-45
-73
38
9
29
43
18
-5
24
-10
38
11
9
-31
-20
-8
-60
6
24
6
-17
-4
66
1
-40
32
-4
-10
-14
-27
-36
-2
-12
-78
-32
6
25
44
-15
20
-38
44
-19
6
12
33
-9
8
-23
56
2
-14
-30
-60
-54
1
1
45
3
3
-12
-42
-22
16
127
35
3
-3
22
92
90
-15
-79
-95
-39
-19
-8
-50
-2
-7
-10
-4
-27
7
-9
-36
-45
26
51
69
11
-1
-14
56
18
-29
2
54
-14
-1
23
-21
-23
27
21
-29
37
6
22
12
19
-11
58
7
22
7
10
32
-9
-50
-46
-128
-30
-7
-48
-121
-48
51
24
2
14
-1
24
80
44
32
-24
45
-25
-16
-37
-26
-3
-17
4
-13
11
-6
18
-11
-40
16
33
-32
-11
0
-19
-12
-16
-61
-76
75
6
-7
7
-11
-44
-19
2
22
2
3
12
26
29
16
17
12
-10
1
-23
-31
-26
4
-40
-40
2
5
83
93
68
-6
71
46
20
-6
-97
-115
-57
-20
-14
22
-10
2
14
39
-7
-3
21
-37
-14
-8
-24
-38
19
10
-2
-26
5
8
77
102
3
-19
15
1
-15
-14
-53
-90
-61
46
-32
25
15
6
31
86
66
5
39
52
-2
2
-45
-44
-23
-26
-14
7
0
-9
-50
-128
-38
-17
-19
-52
-19
3
38
59
-21
-35
89
38
32
6
24
17
16
-2
-92
46
25
18
38
65
17
-8
62
43
15
-5
-17
-50
-7
48
-18
-29
-9
-5
-13
21
23
3
17
72
30
7
-6
-46
-10
1
-14
-79
-35
8
24
34
-4
-63
-47
20
5
-1
-21
10
3
29
78
-17
-9
-3
12
2
18
3
-27
43
38
15
51
49
17
-8
50
48
-3
-24
-77
-95
2
10
-69
-40
-24
-6
-9
53
-21
0
50
13
8
14
11
-46
-15
14
81
76
-2
-7
-15
5
-10
-36
-128
-83
-24
-5
56
50
14
-23
27
-50
-23
-17
-34
87
17
20
32
29
9
15
-13
-72
-31
21
-90
-13
-36
1
3
-8
12
-3
32
68
74
3
5
35
-24
49
69
27
3
-10
-32
-59
9
10
-64
-5
-7
12
92
127
55
-10
-47
-9
-18
1
-79
-128
-39
1
5
-59
-27
-27
-12
22
6
-17
-72
-1
16
5
10
-1
3
11
33
12
-11
1
-18
-10
5
10
38
-12
17
4
23
10
52
18
11
-24
-26
-3
-14
79
-3
4
-4
-28
-1
-7
-18
-46
17
24
-17
-1
-33
-14
43
54
-33
-53
19
-64
4
-6
37
3
-7
-7
30
50
13
0
-93
-108
18
18
-6
49
-6
10
24
17
32
8
27
-76
-5
-9
-30
16
12
7
14
-39
-20
-10
-9
-5
-23
26
-3
-24
-19
11
37
56
13
62
-8
67
-3
0
3
-31
1
-4
-45
-9
4
-5
-13
-16
28
5
60
-29
49
11
-1
18
26
-26
-84
41
4
3
36
-4
11
46
82
93
8
1
-32
-43
-38
-5
-13
-85
-43
-12
-10
12
-5
4
-18
2
18
1
-22
-27
23
28
10
-34
-22
14
101
118
7
-53
-71
1
-6
-26
-30
-40
-13
-17
22
21
-2
-5
-80
-96
-1
-18
20
8
-8
-8
-7
26
-2
49
86
32
56
16
32
13
0
-32
-67
2
-11
20
10
24
-2
-67
-104
-54
16
2
32
45
1
29
84
-15
-38
-12
-38
-60
-12
-16
-28
-36
-30
-30
-26
-23
-5
-6
22
1
46
6
11
6
-14
9
33
-9
6
19
21
17
23
24
-40
-35
-16
-10
19
80
-12
-48
22
19
-1
-9
-48
-123
-39
-9
-31
-73
-33
0
-6
12
38
27
60
101
38
12
92
93
17
-7
-92
-39
-21
-17
-109
-104
-34
-2
65
20
6
-7
23
15
-10
10
57
-17
-16
-6
4
-6
-34
-8
-73
-4
6
17
-1
-23
-14
5
-52
-6
-4
10
36
53
10
25
24
-4
-1
2
-14
3
-15
-11
8
62
28
-6
-14
-39
54
25
33
-52
-29
-7
10
15
-12
-20
-74
-47
9
6
14
65
-22
-28
12
-60
-4
6
-25
-97
-1
-4
50
9
9
11
30
48
-9
9
-61
-32
-14
-21
-31
12
0
-2
10
67
5
-6
-37
-32
-15
18
7
95
11
-3
16
54
5
-12
-67
-48
-15
-2
21
20
-12
14
88
-25
-9
6
-18
-28
-6
0
-28
42
9
13
38
46
-2
14
-5
-96
-21
-1
-7
-15
15
7
14
64
1
2
33
52
4
-6
28
-52
-6
-9
-7
-14
-1
-21
-59
-34
12
-10
-49
-114
-24
-7
-29
127
3
5
2
31
19
1
-22
-24
-5
-12
-5
28
25
-28
20
30
7
22
10
4
-23
6
103
22
16
-1
55
39
8
-49
-113
-118
-6
7
-31
-27
-9
-6
15
30
0
4
-14
-21
-18
16
67
-15
-4
-9
19
17
26
10
8
108
-12
7
-4
0
40
8
-4
6
15
-1
24
31
-40
10
-99
-39
-32
-2
13
5
-28
-19
18
75
27
-13
-75
-71
-14
-19
-20
-50
-31
-13
-21
1
17
24
59
-89
-24
5
43
58
5
-16
-1
58
12
-3
-2
-10
21
18
-3
15
36
11
18
6
-7
-7
-37
-83
-16
2
15
26
-14
-8
4
71
10
2
-29
-22
34
2
11
-97
-13
0
1
-1
-8
-35
-39
26
-14
-4
7
21
-50
25
22
72
19
3
2
5
54
-20
-24
46
-7
-1
-22
-92
-85
20
62
-115
-16
-18
-28
-27
15
-27
-34
28
-4
4
13
85
17
-14
2
-14
15
6
23
-21
-6
7
3
29
0
0
6
27
-1
-16
18
112
37
6
4
-4
-37
16
-16
-35
-14
-8
-16
-31
-1
-12
28
-99
-36
-9
17
50
-1
-6
-35
79
37
7
36
-2
32
-4
18
-61
-20
-1
-74
-59
-18
17
45
25
-12
-11
8
12
52
-7
42
54
12
11
-21
-89
-65
-7
28
46
20
8
18
102
50
12
-57
-113
-39
-14
-20
-45
-32
-18
-46
109
6
-7
9
22
-2
18
2
31
5
-11
-10
-13
4
-1
-21
-93
-1
-2
39
46
-1
33
127
83
12
11
-4
16
28
-20
-107
-3
-16
-11
-43
-59
-9
-9
37
-60
-28
-6
19
39
-17
13
9
-12
17
4
-19
-69
-2
-11
42
11
7
11
76
62
24
46
23
-29
-13
-14
-41
-37
-14
-10
-24
-12
7
1
-5
18
8
-27
-10
-25
-4
-3
-7
4
-11
5
-45
12
1
-3
24
32
29
-8
37
14
-32
-6
-14
-21
-15
-18
-38
-22
0
-11
-10
8
-20
18
37
12
11
8
34
60
44
-28
13
-3
14
-2
-48
-96
-51
8
-8
-42
-5
14
47
57
10
12
-25
121
3
7
-5
15
34
-35
0
-109
-32
-25
28
63
-3
25
-91
10
-14
-10
-51
-60
-4
-12
8
21
28
17
3
-8
13
21
117
-6
-11
-7
0
-17
0
1
-76
47
19
7
8
45
7
-15
-5
0
-13
-16
-9
-62
-26
21
71
-52
2
0
-26
-39
13
29
-12
23
23
13
27
78
41
-2
-30
-7
-13
-8
-39
-74
-29
-9
22
40
15
3
23
58
-3
-5
-27
-24
-17
-16
0
-33
-11
-29
31
60
9
-3
-36
16
-19
22
-30
-31
-10
1
23
-34
-4
0
19
4
8
17
39
60
15
3
-10
-3
28
10
4
77
11
-3
-38
-7
-3
4
9
-111
-18
15
50
91
-1
-13
-72
-33
0
12
-2
-38
-13
-8
6
12
-19
-11
17
-44
-17
-10
13
5
9
9
-77
-15
9
4
13
32
3
-20
11
-47
-29
0
-6
-22
-9
7
13
24
16
5
6
24
11
-11
32
52
14
8
0
-54
-5
-22
-23
-19
-6
-11
-9
7
4
30
-2
44
9
2
27
10
8
23
13
-21
-8
5
-21
-1
-3
-25
-7
6
16
0
20
-3
-29
-13
-8
-52
-19
-9
-20
-19
-10
12
38
43
10
3
14
33
17
-23
-10
-26
-14
-7
-26
-4
-17
14
-21
22
22
3
24
14
2
6
16
-1
-34
-10
-27
-37
-5
-12
-5
-5
-8
-8
-8
7
-6
1
-1
20
19
13
24
22
7
-5
-31
-17
-3
-3
-24
-20
7
-7
7
27
6
7
24
8
-5
0
27
-28
-44
-13
-30
-26
-12
-4
-1
25
21
-2
10
9
6
-3
-35
-22
23
4
23
95
10
-6
-4
-14
-10
-4
-27
-95
-11
17
-1
5
6
4
10
42
-2
-23
-2
7
-9
1
-8
25
6
11
28
-42
-19
-2
-14
2
-3
11
12
42
10
1
29
28
19
-3
15
-29
-12
-2
-6
-26
-18
-14
-47
1
-9
-14
-9
-22
-1
0
-16
40
6
5
-9
-15
-1
5
21
-43
1
9
6
8
2
-2
-27
25
2
-3
-14
-19
4
-1
-1
-35
-3
3
11
18
7
5
9
24
23
2
-7
-28
-2
1
0
-10
-4
-5
7
26
-1
-7
-5
-2
0
1
2
2
0
1
-4
