-0.5057766011524384
0.018649264256138942
0.5707272509733525
-0.5057766011524384
0.018649264256138942
0.5707272509733525
-0.5056720068791893
0.018158323919464665
0.5709760414775373
-0.5056720068791893
0.018158323919464665
0.5709760414775373
-0.5056720068791893
0.018158323919464665
0.5709760414775373
-0.5056720068791893
0.018158323919464665
0.5709760414775373
-0.50564300711035
0.018148696012396742
0.5709430201623453
-0.50564300711035
0.018148696012396742
0.5709430201623453
-0.50564300711035
0.018148696012396742
0.5709430201623453
-0.50564300711035
0.018148696012396742
0.5709430201623453
-0.5055295140633053
0.018115680834402487
0.5709526468966597
-0.5055295140633053
0.018115680834402487
0.5709526468966597
-0.5055295140633053
0.018115680834402487
0.5709526468966597
-0.5055295140633053
0.018115680834402487
0.5709526468966597
-0.5055295140633053
0.018115680834402487
0.5709526468966597
-0.5055295140633053
0.018115680834402487
0.5709526468966597
-0.5055295140633053
0.018115680834402487
0.5709526468966597
-0.5055295140633053
0.018115680834402487
0.5709526468966597
-0.5055625371807406
0.01800220583187037
0.5709816413921701
-0.5055625371807406
0.01800220583187037
0.5709816413921701
-0.5055625371807406
0.01800220583187037
0.5709816413921701
-0.5055625371807406
0.01800220583187037
0.5709816413921701
-0.5054586577334693
0.017940198484456653
0.570877761944899
-0.5054586577334693
0.017940198484456653
0.570877761944899
-0.5054586577334693
0.017940198484456653
0.570877761944899
-0.5054586577334693
0.017940198484456653
0.570877761944899
-0.5054586577334693
0.017940198484456653
0.570877761944899
-0.5054586577334693
0.017940198484456653
0.570877761944899
-0.5054586577334693
0.017940198484456653
0.570877761944899
-0.5054586577334693
0.017940198484456653
0.570877761944899
-0.5054586577334693
0.017940198484456653
0.570877761944899
-0.5054586577334693
0.017940198484456653
0.570877761944899
-0.5054586577334693
0.017940198484456653
0.570877761944899
-0.5054586577334693
0.017940198484456653
0.570877761944899
-0.5053451573206955
0.017907181632954797
0.5708873732468686
-0.5053451573206955
0.017907181632954797
0.5708873732468686
-0.5053451573206955
0.017907181632954797
0.5708873732468686
-0.5053451573206955
0.017907181632954797
0.5708873732468686
-0.5053451573206955
0.017907181632954797
0.5708873732468686
-0.5053451573206955
0.017907181632954797
0.5708873732468686
-0.5053451573206955
0.017907181632954797
0.5708873732468686
-0.5053451573206955
0.017907181632954797
0.5708873732468686
-0.5053781819869079
0.017793698840065104
0.5709163622174442
-0.5053781819869079
0.017793698840065104
0.5709163622174442
-0.5053781819869079
0.017793698840065104
0.5709163622174442
-0.5053781819869079
0.017793698840065104
0.5709163622174442
-0.5052646806488541
0.017760676882260015
0.5709259645277015
-0.5052646806488541
0.017760676882260015
0.5709259645277015
-0.5052646806488541
0.017760676882260015
0.5709259645277015
-0.5052646806488541
0.017760676882260015
0.5709259645277015
-0.5052646806488541
0.017760676882260015
0.5709259645277015
-0.5052646806488541
0.017760676882260015
0.5709259645277015
-0.5052646806488541
0.017760676882260015
0.5709259645277015
-0.5052646806488541
0.017760676882260015
0.5709259645277015
-0.5052356969514978
0.01775107884380268
0.5708929380628561
-0.5052356969514978
0.01775107884380268
0.5708929380628561
-0.5052356969514978
0.01775107884380268
0.5708929380628561
-0.5052356969514978
0.01775107884380268
0.5708929380628561
-0.5052356969514978
0.01775107884380268
0.5708929380628561
-0.5052356969514978
0.01775107884380268
0.5708929380628561
-0.5052356969514978
0.01775107884380268
0.5708929380628561
-0.5052356969514978
0.01775107884380268
0.5708929380628561
-0.505169781962385
0.018074561745923444
0.5712085062434439
-0.505169781962385
0.018074561745923444
0.5712085062434439
-0.505169781962385
0.018074561745923444
0.5712085062434439
-0.505169781962385
0.018074561745923444
0.5712085062434439
-0.5051271785602867
0.018313516787189434
0.5716665620138071
-0.5051271785602867
0.018313516787189434
0.5716665620138071
-0.5051271785602867
0.018313516787189434
0.5716665620138071
-0.5051271785602867
0.018313516787189434
0.5716665620138071
-0.5047485709237122
0.01885563475395865
0.5721706146578055
-0.5047485709237122
0.01885563475395865
0.5721706146578055
-0.5047485709237122
0.01885563475395865
0.5721706146578055
-0.5047485709237122
0.01885563475395865
0.5721706146578055
-0.5044169602297482
0.019657625662366823
0.5726073875307468
-0.5044169602297482
0.019657625662366823
0.5726073875307468
-0.5044169602297482
0.019657625662366823
0.5726073875307468
-0.5044169602297482
0.019657625662366823
0.5726073875307468
-0.5041555978584473
0.020634926898292546
0.5731193044227791
-0.5041555978584473
0.020634926898292546
0.5731193044227791
-0.5041555978584473
0.020634926898292546
0.5731193044227791
-0.5041555978584473
0.020634926898292546
0.5731193044227791
-0.5034574517127693
0.02182602227428452
0.5739438451231244
-0.5034574517127693
0.02182602227428452
0.5739438451231244
-0.5034574517127693
0.02182602227428452
0.5739438451231244
-0.5034574517127693
0.02182602227428452
0.5739438451231244
-0.5026304581815553
0.023135431694982878
0.5748970815116781
-0.5026304581815553
0.023135431694982878
0.5748970815116781
-0.5026304581815553
0.023135431694982878
0.5748970815116781
-0.5026304581815553
0.023135431694982878
0.5748970815116781
-0.5023896779199031
0.024552881116315216
0.5755744835964935
-0.5023896779199031
0.024552881116315216
0.5755744835964935
-0.5023896779199031
0.024552881116315216
0.5755744835964935
-0.5023896779199031
0.024552881116315216
0.5755744835964935
-0.502093928169427
0.025546660591030026
0.5756856432335777
-0.502093928169427
0.025546660591030026
0.5756856432335777
-0.502093928169427
0.025546660591030026
0.5756856432335777
-0.502093928169427
0.025546660591030026
0.5756856432335777
-0.5007650326005257
0.026413735878251462
0.5750113153796289
-0.5007650326005257
0.026413735878251462
0.5750113153796289
-0.5007650326005257
0.026413735878251462
0.5750113153796289
-0.5007650326005257
0.026413735878251462
0.5750113153796289
-0.4990200196058034
0.027649586826005546
0.5741781788560032
-0.4990200196058034
0.027649586826005546
0.5741781788560032
-0.4990200196058034
0.027649586826005546
0.5741781788560032
-0.4990200196058034
0.027649586826005546
0.5741781788560032
-0.49664441962687744
0.028920091871137036
0.5737105063923014
-0.49664441962687744
0.028920091871137036
0.5737105063923014
-0.49664441962687744
0.028920091871137036
0.5737105063923014
-0.49664441962687744
0.028920091871137036
0.5737105063923014
-0.495381043784417
0.029657925641476214
0.573471180674038
-0.495381043784417
0.029657925641476214
0.573471180674038
-0.495381043784417
0.029657925641476214
0.573471180674038
-0.495381043784417
0.029657925641476214
0.573471180674038
-0.4948923247922198
0.029945900344948498
0.5736113397756168
-0.4948923247922198
0.029945900344948498
0.5736113397756168
-0.4948923247922198
0.029945900344948498
0.5736113397756168
-0.4948923247922198
0.029945900344948498
0.5736113397756168
-0.49410343561188896
0.030087386642162386
0.5740707177153995
-0.49410343561188896
0.030087386642162386
0.5740707177153995
-0.49410343561188896
0.030087386642162386
0.5740707177153995
-0.49410343561188896
0.030087386642162386
0.5740707177153995
-0.49292083056751645
0.029773064243913516
0.5747356284043081
-0.49292083056751645
0.029773064243913516
0.5747356284043081
-0.49292083056751645
0.029773064243913516
0.5747356284043081
-0.49292083056751645
0.029773064243913516
0.5747356284043081
-0.49111555047967786
0.029029774801860652
0.5759994499719421
-0.49111555047967786
0.029029774801860652
0.5759994499719421
-0.49111555047967786
0.029029774801860652
0.5759994499719421
-0.49111555047967786
0.029029774801860652
0.5759994499719421
-0.4893811578055173
0.028026889754662707
0.5776866005427872
-0.4893811578055173
0.028026889754662707
0.5776866005427872
-0.4893811578055173
0.028026889754662707
0.5776866005427872
-0.4893811578055173
0.028026889754662707
0.5776866005427872
-0.4869547092038503
0.02694136441320157
0.5799195958542734
-0.4869547092038503
0.02694136441320157
0.5799195958542734
-0.4869547092038503
0.02694136441320157
0.5799195958542734
-0.4869547092038503
0.02694136441320157
0.5799195958542734
-0.4851831081458477
0.02533397807928614
0.5819077758006999
-0.4851831081458477
0.02533397807928614
0.5819077758006999
-0.4851831081458477
0.02533397807928614
0.5819077758006999
-0.4851831081458477
0.02533397807928614
0.5819077758006999
-0.48329210609730056
0.023129854451578946
0.5832459015715376
-0.48329210609730056
0.023129854451578946
0.5832459015715376
-0.48329210609730056
0.023129854451578946
0.5832459015715376
-0.48329210609730056
0.023129854451578946
0.5832459015715376
-0.4815612236881507
0.02081597529117923
0.5844841051331603
-0.4815612236881507
0.02081597529117923
0.5844841051331603
-0.4815612236881507
0.02081597529117923
0.5844841051331603
-0.4815612236881507
0.02081597529117923
0.5844841051331603
-0.4807174805995131
0.018643052792645855
0.5857476035884629
-0.4807174805995131
0.018643052792645855
0.5857476035884629
-0.4807174805995131
0.018643052792645855
0.5857476035884629
-0.4807174805995131
0.018643052792645855
0.5857476035884629
-0.4808045084472249
0.016379628276339576
0.5865787074140243
-0.4808045084472249
0.016379628276339576
0.5865787074140243
-0.4808045084472249
0.016379628276339576
0.5865787074140243
-0.4808045084472249
0.016379628276339576
0.5865787074140243
-0.4812431883454234
0.014282972225646227
0.5876435562111251
-0.4812431883454234
0.014282972225646227
0.5876435562111251
-0.4812431883454234
0.014282972225646227
0.5876435562111251
-0.4812431883454234
0.014282972225646227
0.5876435562111251
-0.48183154326478866
0.012015391613743147
0.5883530996305613
-0.48183154326478866
0.012015391613743147
0.5883530996305613
-0.48183154326478866
0.012015391613743147
0.5883530996305613
-0.48183154326478866
0.012015391613743147
0.5883530996305613
-0.48174157628225694
0.009852995762273479
0.5887646133977605
-0.48174157628225694
0.009852995762273479
0.5887646133977605
-0.48174157628225694
0.009852995762273479
0.5887646133977605
-0.48174157628225694
0.009852995762273479
0.5887646133977605
-0.48131926120663615
0.007775554103065385
0.5888427194182826
-0.48131926120663615
0.007775554103065385
0.5888427194182826
-0.48131926120663615
0.007775554103065385
0.5888427194182826
-0.48131926120663615
0.007775554103065385
0.5888427194182826
-0.4814393764903073
0.005647470435783842
0.5886065220755683
-0.4814393764903073
0.005647470435783842
0.5886065220755683
-0.4814393764903073
0.005647470435783842
0.5886065220755683
-0.4814393764903073
0.005647470435783842
0.5886065220755683
-0.4821176859029119
0.003718635445215326
0.5884407774812017
-0.4821176859029119
0.003718635445215326
0.5884407774812017
-0.4821176859029119
0.003718635445215326
0.5884407774812017
-0.4821176859029119
0.003718635445215326
0.5884407774812017
-0.4822750247266117
0.0022819831655818976
0.588276129787299
-0.4822750247266117
0.0022819831655818976
0.588276129787299
-0.4822750247266117
0.0022819831655818976
0.588276129787299
-0.4822750247266117
0.0022819831655818976
0.588276129787299
-0.4821813217688062
0.001264789776160047
0.5880086868816298
-0.4821813217688062
0.001264789776160047
0.5880086868816298
-0.4821813217688062
0.001264789776160047
0.5880086868816298
-0.4821813217688062
0.001264789776160047
0.5880086868816298
-0.48190321334079395
3.4612041323056603E-4
0.5878008372615595
-0.48190321334079395
3.4612041323056603E-4
0.5878008372615595
-0.48190321334079395
3.4612041323056603E-4
0.5878008372615595
-0.48190321334079395
3.4612041323056603E-4
0.5878008372615595
-0.4817830671842086
-5.854632434555903E-4
0.5873917548352884
-0.4817830671842086
-5.854632434555903E-4
0.5873917548352884
-0.4817830671842086
-5.854632434555903E-4
0.5873917548352884
-0.4817830671842086
-5.854632434555903E-4
0.5873917548352884
-0.4817711718001806
-0.0016687100041854427
0.5867065287508608
-0.4817711718001806
-0.0016687100041854427
0.5867065287508608
-0.4817711718001806
-0.0016687100041854427
0.5867065287508608
-0.4817711718001806
-0.0016687100041854427
0.5867065287508608
-0.48157411000121886
-0.002961780292932425
0.5859522995399837
-0.48157411000121886
-0.002961780292932425
0.5859522995399837
-0.48157411000121886
-0.002961780292932425
0.5859522995399837
-0.48157411000121886
-0.002961780292932425
0.5859522995399837
-0.4815599058989713
-0.004353695946582466
0.5851383823729247
-0.4815599058989713
-0.004353695946582466
0.5851383823729247
-0.4815599058989713
-0.004353695946582466
0.5851383823729247
-0.4815599058989713
-0.004353695946582466
0.5851383823729247
-0.4820788780940391
-0.005771741839839783
0.5846093161557858
-0.4820788780940391
-0.005771741839839783
0.5846093161557858
-0.4820788780940391
-0.005771741839839783
0.5846093161557858
-0.4820788780940391
-0.005771741839839783
0.5846093161557858
-0.48259710536770933
-0.0071900636665115985
0.5840809804392202
-0.48259710536770933
-0.0071900636665115985
0.5840809804392202
-0.48259710536770933
-0.0071900636665115985
0.5840809804392202
-0.48259710536770933
-0.0071900636665115985
0.5840809804392202
-0.48325437239355107
-0.008659797949171794
0.5836870563504085
-0.48325437239355107
-0.008659797949171794
0.5836870563504085
-0.48325437239355107
-0.008659797949171794
0.5836870563504085
-0.48325437239355107
-0.008659797949171794
0.5836870563504085
-0.48369660536876175
-0.010133944685237577
0.5835709419512688
-0.48369660536876175
-0.010133944685237577
0.5835709419512688
-0.48369660536876175
-0.010133944685237577
0.5835709419512688
-0.48369660536876175
-0.010133944685237577
0.5835709419512688
-0.48390401453833
-0.011648469069355615
0.5835844430632038
-0.48390401453833
-0.011648469069355615
0.5835844430632038
-0.48390401453833
-0.011648469069355615
0.5835844430632038
-0.48390401453833
-0.011648469069355615
0.5835844430632038
-0.4839903335228906
-0.013169101055638595
0.5837193838562635
-0.4839903335228906
-0.013169101055638595
0.5837193838562635
-0.4839903335228906
-0.013169101055638595
0.5837193838562635
-0.4839903335228906
-0.013169101055638595
0.5837193838562635
-0.483885652571947
-0.01456173300630741
0.5840263566768552
-0.483885652571947
-0.01456173300630741
0.5840263566768552
-0.483885652571947
-0.01456173300630741
0.5840263566768552
-0.483885652571947
-0.01456173300630741
0.5840263566768552
-0.4837409630259677
-0.01571989714583609
0.5843109736682065
-0.4837409630259677
-0.01571989714583609
0.5843109736682065
-0.4837409630259677
-0.01571989714583609
0.5843109736682065
-0.4837409630259677
-0.01571989714583609
0.5843109736682065
-0.48371002555028564
-0.01684374882135831
0.5845879688516998
-0.48371002555028564
-0.01684374882135831
0.5845879688516998
-0.48371002555028564
-0.01684374882135831
0.5845879688516998
-0.48371002555028564
-0.01684374882135831
0.5845879688516998
-0.48368680622884624
-0.01799590659045688
0.58475151241973
-0.48368680622884624
-0.01799590659045688
0.58475151241973
-0.48368680622884624
-0.01799590659045688
0.58475151241973
-0.48368680622884624
-0.01799590659045688
0.58475151241973
-0.4834911709824265
-0.0193871609329139
0.5852131850079069
-0.4834911709824265
-0.0193871609329139
0.5852131850079069
-0.4834911709824265
-0.0193871609329139
0.5852131850079069
-0.4834911709824265
-0.0193871609329139
0.5852131850079069
-0.48299307447105777
-0.02059243112010831
0.5857458875470551
-0.48299307447105777
-0.02059243112010831
0.5857458875470551
-0.48299307447105777
-0.02059243112010831
0.5857458875470551
-0.48299307447105777
-0.02059243112010831
0.5857458875470551
-0.4825976508140009
-0.02142427229981265
0.5860307657315698
-0.4825976508140009
-0.02142427229981265
0.5860307657315698
-0.4825976508140009
-0.02142427229981265
0.5860307657315698
-0.4825976508140009
-0.02142427229981265
0.5860307657315698
-0.48234417885964187
-0.02221444594088847
0.586342708029298
-0.48234417885964187
-0.02221444594088847
0.586342708029298
-0.48234417885964187
-0.02221444594088847
0.586342708029298
-0.48234417885964187
-0.02221444594088847
0.586342708029298
-0.48184546617263324
-0.022706305359307042
0.5865421356189603
-0.48184546617263324
-0.022706305359307042
0.5865421356189603
-0.48184546617263324
-0.022706305359307042
0.5865421356189603
-0.48184546617263324
-0.022706305359307042
0.5865421356189603
-0.48184546617263324
-0.022706305359307042
0.5865421356189603
-0.48184546617263324
-0.022706305359307042
0.5865421356189603
-0.48184546617263324
-0.022706305359307042
0.5865421356189603
-0.48184546617263324
-0.022706305359307042
0.5865421356189603
-0.4817320602342608
-0.022740888530108735
0.5865492662133391
-0.4817320602342608
-0.022740888530108735
0.5865492662133391
-0.4817320602342608
-0.022740888530108735
0.5865492662133391
-0.4817320602342608
-0.022740888530108735
0.5865492662133391
-0.48176665470879526
-0.022854265585994134
0.5865775381475584
-0.48176665470879526
-0.022854265585994134
0.5865775381475584
-0.48176665470879526
-0.022854265585994134
0.5865775381475584
-0.48176665470879526
-0.022854265585994134
0.5865775381475584
-0.48176665470879526
-0.022854265585994134
0.5865775381475584
-0.48176665470879526
-0.022854265585994134
0.5865775381475584
-0.48176665470879526
-0.022854265585994134
0.5865775381475584
-0.48176665470879526
-0.022854265585994134
0.5865775381475584
-0.48103424245184173
-0.023507219863128318
0.5864159785842983
-0.48103424245184173
-0.023507219863128318
0.5864159785842983
-0.48103424245184173
-0.023507219863128318
0.5864159785842983
-0.48103424245184173
-0.023507219863128318
0.5864159785842983
-0.4809208234434998
-0.023541810126686345
0.5864230480760647
-0.4809208234434998
-0.023541810126686345
0.5864230480760647
-0.4809208234434998
-0.023541810126686345
0.5864230480760647
-0.4809208234434998
-0.023541810126686345
0.5864230480760647
-0.4809208234434998
-0.023541810126686345
0.5864230480760647
-0.4809208234434998
-0.023541810126686345
0.5864230480760647
-0.4809208234434998
-0.023541810126686345
0.5864230480760647
-0.4809208234434998
-0.023541810126686345
0.5864230480760647
-0.48084200546068806
-0.023689793023807727
0.586458349187901
-0.48084200546068806
-0.023689793023807727
0.586458349187901
-0.48084200546068806
-0.023689793023807727
0.586458349187901
-0.48084200546068806
-0.023689793023807727
0.586458349187901
-0.48084200546068806
-0.023689793023807727
0.586458349187901
-0.48084200546068806
-0.023689793023807727
0.586458349187901
-0.48084200546068806
-0.023689793023807727
0.586458349187901
-0.48084200546068806
-0.023689793023807727
0.586458349187901
-0.48084200546068806
-0.023689793023807727
0.586458349187901
-0.48084200546068806
-0.023689793023807727
0.586458349187901
-0.48084200546068806
-0.023689793023807727
0.586458349187901
-0.48084200546068806
-0.023689793023807727
0.586458349187901
-0.4810149092202137
-0.024376736681707336
0.5861113042868471
-0.4810149092202137
-0.024376736681707336
0.5861113042868471
-0.4810149092202137
-0.024376736681707336
0.5861113042868471
-0.4810149092202137
-0.024376736681707336
0.5861113042868471
-0.4808127032058746
-0.02505405209765027
0.5857570301960349
-0.4808127032058746
-0.02505405209765027
0.5857570301960349
-0.4808127032058746
-0.02505405209765027
0.5857570301960349
-0.4808127032058746
-0.02505405209765027
0.5857570301960349
-0.4806165524485669
-0.025851661500335913
0.5853962781355333
-0.4806165524485669
-0.025851661500335913
0.5853962781355333
-0.4806165524485669
-0.025851661500335913
0.5853962781355333
-0.4806165524485669
-0.025851661500335913
0.5853962781355333
-0.48037868479832146
-0.026507495848191388
0.5851205573514081
-0.48037868479832146
-0.026507495848191388
0.5851205573514081
-0.48037868479832146
-0.026507495848191388
0.5851205573514081
-0.48037868479832146
-0.026507495848191388
0.5851205573514081
-0.4802823609034383
-0.027121831651894503
0.58487243451236
-0.4802823609034383
-0.027121831651894503
0.58487243451236
-0.4802823609034383
-0.027121831651894503
0.58487243451236
-0.4802823609034383
-0.027121831651894503
0.58487243451236
-0.4802930519964426
-0.027581395769976102
0.5846237322289438
-0.4802930519964426
-0.027581395769976102
0.5846237322289438
-0.4802930519964426
-0.027581395769976102
0.5846237322289438
-0.4802930519964426
-0.027581395769976102
0.5846237322289438
-0.4801618811590807
-0.028082315798969627
0.5843472245813909
-0.4801618811590807
-0.028082315798969627
0.5843472245813909
-0.4801618811590807
-0.028082315798969627
0.5843472245813909
-0.4801618811590807
-0.028082315798969627
0.5843472245813909
-0.47986101238213097
-0.028539308474989877
0.5839010879608603
-0.47986101238213097
-0.028539308474989877
0.5839010879608603
-0.47986101238213097
-0.028539308474989877
0.5839010879608603
-0.47986101238213097
-0.028539308474989877
0.5839010879608603
-0.4800455829765928
-0.029282803366828255
0.5833271694480703
-0.4800455829765928
-0.029282803366828255
0.5833271694480703
-0.4800455829765928
-0.029282803366828255
0.5833271694480703
-0.4800455829765928
-0.029282803366828255
0.5833271694480703
-0.4805852215461034
-0.0298597025001868
0.5829948710086604
-0.4805852215461034
-0.0298597025001868
0.5829948710086604
-0.4805852215461034
-0.0298597025001868
0.5829948710086604
-0.4805852215461034
-0.0298597025001868
0.5829948710086604
-0.4812660102317047
-0.030487345193409992
0.5827981064909422
-0.4812660102317047
-0.030487345193409992
0.5827981064909422
-0.4812660102317047
-0.030487345193409992
0.5827981064909422
-0.4812660102317047
-0.030487345193409992
0.5827981064909422
-0.4815651803833385
-0.031076690115549893
0.5827066048095038
-0.4815651803833385
-0.031076690115549893
0.5827066048095038
-0.4815651803833385
-0.031076690115549893
0.5827066048095038
-0.4815651803833385
-0.031076690115549893
0.5827066048095038
-0.481451719679169
-0.03111117166733698
0.5827132020916946
-0.481451719679169
-0.03111117166733698
0.5827132020916946
-0.481451719679169
-0.03111117166733698
0.5827132020916946
-0.481451719679169
-0.03111117166733698
0.5827132020916946
-0.481451719679169
-0.03111117166733698
0.5827132020916946
-0.481451719679169
-0.03111117166733698
0.5827132020916946
-0.481451719679169
-0.03111117166733698
0.5827132020916946
-0.481451719679169
-0.03111117166733698
0.5827132020916946
-0.48148622026937815
-0.031224577899754004
0.5827416192412879
-0.48148622026937815
-0.031224577899754004
0.5827416192412879
-0.48148622026937815
-0.031224577899754004
0.5827416192412879
-0.48148622026937815
-0.031224577899754004
0.5827416192412879
-0.48149280873001243
-0.03125298391118491
0.5826281569036081
-0.48149280873001243
-0.03125298391118491
0.5826281569036081
-0.48149280873001243
-0.03125298391118491
0.5826281569036081
-0.48149280873001243
-0.03125298391118491
0.5826281569036081
-0.4814138428853293
-0.03140087514068234
0.582663159146899
-0.4814138428853293
-0.03140087514068234
0.582663159146899
-0.4814138428853293
-0.03140087514068234
0.582663159146899
-0.4814138428853293
-0.03140087514068234
0.582663159146899
-0.48172632405254145
-0.031212446413794545
0.5825015154581243
-0.48172632405254145
-0.031212446413794545
0.5825015154581243
-0.48172632405254145
-0.031212446413794545
0.5825015154581243
-0.48172632405254145
-0.031212446413794545
0.5825015154581243
-0.48172632405254145
-0.031212446413794545
0.5825015154581243
-0.48172632405254145
-0.031212446413794545
0.5825015154581243
-0.48172632405254145
-0.031212446413794545
0.5825015154581243
-0.48172632405254145
-0.031212446413794545
0.5825015154581243
-0.48172632405254145
-0.031212446413794545
0.5825015154581243
-0.48172632405254145
-0.031212446413794545
0.5825015154581243
-0.48172632405254145
-0.031212446413794545
0.5825015154581243
-0.48172632405254145
-0.031212446413794545
0.5825015154581243
-0.48172632405254145
-0.031212446413794545
0.5825015154581243
-0.48172632405254145
-0.031212446413794545
0.5825015154581243
-0.48172632405254145
-0.031212446413794545
0.5825015154581243
-0.48172632405254145
-0.031212446413794545
0.5825015154581243
-0.48172632405254145
-0.031212446413794545
0.5825015154581243
-0.48172632405254145
-0.031212446413794545
0.5825015154581243
-0.48172632405254145
-0.031212446413794545
0.5825015154581243
-0.48172632405254145
-0.031212446413794545
0.5825015154581243
-0.48172632405254145
-0.031212446413794545
0.5825015154581243
-0.48172632405254145
-0.031212446413794545
0.5825015154581243
-0.48172632405254145
-0.031212446413794545
0.5825015154581243
-0.48172632405254145
-0.031212446413794545
0.5825015154581243
-0.4817608132650488
-0.03132585201645039
0.5825299507098297
-0.4817608132650488
-0.03132585201645039
0.5825299507098297
-0.4817608132650488
-0.03132585201645039
0.5825299507098297
-0.4817608132650488
-0.03132585201645039
0.5825299507098297
-0.4815803948835806
-0.031013276650553406
0.582968025911856
-0.4815803948835806
-0.031013276650553406
0.582968025911856
-0.4815803948835806
-0.031013276650553406
0.582968025911856
-0.4815803948835806
-0.031013276650553406
0.582968025911856
-0.4815889773824733
-0.0309214509161869
0.5833429110124095
-0.4815889773824733
-0.0309214509161869
0.5833429110124095
-0.4815889773824733
-0.0309214509161869
0.5833429110124095
-0.4815889773824733
-0.0309214509161869
0.5833429110124095
-0.4815889773824733
-0.0309214509161869
0.5833429110124095
-0.4815889773824733
-0.0309214509161869
0.5833429110124095
-0.4815889773824733
-0.0309214509161869
0.5833429110124095
-0.4815889773824733
-0.0309214509161869
0.5833429110124095
-0.4815889773824733
-0.0309214509161869
0.5833429110124095
-0.4815889773824733
-0.0309214509161869
0.5833429110124095
-0.4815889773824733
-0.0309214509161869
0.5833429110124095
-0.4815889773824733
-0.0309214509161869
0.5833429110124095
-0.48147552440251973
-0.030955967367164296
0.5833495267355455
-0.48147552440251973
-0.030955967367164296
0.5833495267355455
-0.48147552440251973
-0.030955967367164296
0.5833495267355455
-0.48147552440251973
-0.030955967367164296
0.5833495267355455
-0.4814471132728023
-0.03096257719066616
0.5833149947574233
-0.4814471132728023
-0.03096257719066616
0.5833149947574233
-0.4814471132728023
-0.03096257719066616
0.5833149947574233
-0.4814471132728023
-0.03096257719066616
0.5833149947574233
-0.4814816448835086
-0.031075970769745054
0.5833434062545566
-0.4814816448835086
-0.031075970769745054
0.5833434062545566
-0.4814816448835086
-0.031075970769745054
0.5833434062545566
-0.4814816448835086
-0.031075970769745054
0.5833434062545566
-0.4814816448835086
-0.031075970769745054
0.5833434062545566
-0.4814816448835086
-0.031075970769745054
0.5833434062545566
-0.4814816448835086
-0.031075970769745054
0.5833434062545566
-0.4814816448835086
-0.031075970769745054
0.5833434062545566
-0.48140273243316756
-0.031223882372491702
0.5833784208291259
-0.48140273243316756
-0.031223882372491702
0.5833784208291259
-0.48140273243316756
-0.031223882372491702
0.5833784208291259
-0.48140273243316756
-0.031223882372491702
0.5833784208291259
-0.48140273243316756
-0.031223882372491702
0.5833784208291259
-0.48140273243316756
-0.031223882372491702
0.5833784208291259
-0.48140273243316756
-0.031223882372491702
0.5833784208291259
-0.48140273243316756
-0.031223882372491702
0.5833784208291259
-0.48132382344232877
-0.03137179927975293
0.583413424489677
-0.48132382344232877
-0.03137179927975293
0.583413424489677
-0.48132382344232877
-0.03137179927975293
0.583413424489677
-0.48132382344232877
-0.03137179927975293
0.583413424489677
-0.4813304102383808
-0.03140019606144911
0.5832999728036361
-0.4813304102383808
-0.03140019606144911
0.5832999728036361
-0.4813304102383808
-0.03140019606144911
0.5832999728036361
-0.4813304102383808
-0.03140019606144911
0.5832999728036361
-0.4812696853314468
-0.03200782581106875
0.5835686352535265
-0.4812696853314468
-0.03200782581106875
0.5835686352535265
-0.4812696853314468
-0.03200782581106875
0.5835686352535265
-0.4812696853314468
-0.03200782581106875
0.5835686352535265
-0.4811562366556502
-0.03204236994714588
0.5835751869323245
-0.4811562366556502
-0.03204236994714588
0.5835751869323245
-0.4811562366556502
-0.03204236994714588
0.5835751869323245
-0.4811562366556502
-0.03204236994714588
0.5835751869323245
-0.48118106674303346
-0.03253047790246562
0.5836953917676433
-0.48118106674303346
-0.03253047790246562
0.5836953917676433
-0.48118106674303346
-0.03253047790246562
0.5836953917676433
-0.48118106674303346
-0.03253047790246562
0.5836953917676433
-0.48112710508251727
-0.03316653074766672
0.5838505334642203
-0.48112710508251727
-0.03316653074766672
0.5838505334642203
-0.48112710508251727
-0.03316653074766672
0.5838505334642203
-0.48112710508251727
-0.03316653074766672
0.5838505334642203
-0.48114891583425784
-0.03405777145645547
0.5839490871697134
-0.48114891583425784
-0.03405777145645547
0.5839490871697134
-0.48114891583425784
-0.03405777145645547
0.5839490871697134
-0.48114891583425784
-0.03405777145645547
0.5839490871697134
-0.48114891583425784
-0.03405777145645547
0.5839490871697134
-0.48114891583425784
-0.03405777145645547
0.5839490871697134
-0.48114891583425784
-0.03405777145645547
0.5839490871697134
-0.48114891583425784
-0.03405777145645547
0.5839490871697134
-0.48082722762087693
-0.034621269387146436
0.5842019939901586
-0.48082722762087693
-0.034621269387146436
0.5842019939901586
-0.48082722762087693
-0.034621269387146436
0.5842019939901586
-0.48082722762087693
-0.034621269387146436
0.5842019939901586
-0.48051189709488423
-0.03530460367530709
0.5844485006464394
-0.48051189709488423
-0.03530460367530709
0.5844485006464394
-0.48051189709488423
-0.03530460367530709
0.5844485006464394
-0.48051189709488423
-0.03530460367530709
0.5844485006464394
-0.4799572829472024
-0.03590920664419589
0.5848271388246423
-0.4799572829472024
-0.03590920664419589
0.5848271388246423
-0.4799572829472024
-0.03590920664419589
0.5848271388246423
-0.4799572829472024
-0.03590920664419589
0.5848271388246423
-0.4794815739613029
-0.03636598090595465
0.5851707871837059
-0.4794815739613029
-0.03636598090595465
0.5851707871837059
-0.4794815739613029
-0.03636598090595465
0.5851707871837059
-0.4794815739613029
-0.03636598090595465
0.5851707871837059
-0.4793397465325593
-0.03640697199326511
0.5851423608394095
-0.4793397465325593
-0.03640697199326511
0.5851423608394095
-0.4793397465325593
-0.03640697199326511
0.5851423608394095
-0.4793397465325593
-0.03640697199326511
0.5851423608394095
-0.4793397465325593
-0.03640697199326511
0.5851423608394095
-0.4793397465325593
-0.03640697199326511
0.5851423608394095
-0.4793397465325593
-0.03640697199326511
0.5851423608394095
-0.4793397465325593
-0.03640697199326511
0.5851423608394095
-0.4793397465325593
-0.03640697199326511
0.5851423608394095
-0.4793397465325593
-0.03640697199326511
0.5851423608394095
-0.4793397465325593
-0.03640697199326511
0.5851423608394095
-0.4793397465325593
-0.03640697199326511
0.5851423608394095
-0.4793397465325593
-0.03640697199326511
0.5851423608394095
-0.4793397465325593
-0.03640697199326511
0.5851423608394095
-0.4793397465325593
-0.03640697199326511
0.5851423608394095
-0.4793397465325593
-0.03640697199326511
0.5851423608394095
-0.4789960885333462
-0.03607957049946839
0.5852967416859768
-0.4789960885333462
-0.03607957049946839
0.5852967416859768
-0.4789960885333462
-0.03607957049946839
0.5852967416859768
-0.4789960885333462
-0.03607957049946839
0.5852967416859768
-0.4788098166083125
-0.035456056466340403
0.5853819083457354
-0.4788098166083125
-0.035456056466340403
0.5853819083457354
-0.4788098166083125
-0.035456056466340403
0.5853819083457354
-0.4788098166083125
-0.035456056466340403
0.5853819083457354
-0.4785100507605542
-0.03486726623464699
0.5854735606652067
-0.4785100507605542
-0.03486726623464699
0.5854735606652067
-0.4785100507605542
-0.03486726623464699
0.5854735606652067
-0.4785100507605542
-0.03486726623464699
0.5854735606652067
-0.4780238209381111
-0.03365505357069149
0.5856509610221357
-0.4780238209381111
-0.03365505357069149
0.5856509610221357
-0.4780238209381111
-0.03365505357069149
0.5856509610221357
-0.4780238209381111
-0.03365505357069149
0.5856509610221357
-0.4771846732552784
-0.03220675808215785
0.5856091921797558
-0.4771846732552784
-0.03220675808215785
0.5856091921797558
-0.4771846732552784
-0.03220675808215785
0.5856091921797558
-0.4771846732552784
-0.03220675808215785
0.5856091921797558
-0.4753910174746857
-0.03067380881791548
0.585460981276676
-0.4753910174746857
-0.03067380881791548
0.585460981276676
-0.4753910174746857
-0.03067380881791548
0.585460981276676
-0.4753910174746857
-0.03067380881791548
0.585460981276676
-0.4740044602686629
-0.029574535821136623
0.5852216865707017
-0.4740044602686629
-0.029574535821136623
0.5852216865707017
-0.4740044602686629
-0.029574535821136623
0.5852216865707017
-0.4740044602686629
-0.029574535821136623
0.5852216865707017
-0.47208017554181764
-0.028540807209475043
0.584799734980398
-0.47208017554181764
-0.028540807209475043
0.584799734980398
-0.47208017554181764
-0.028540807209475043
0.584799734980398
-0.47208017554181764
-0.028540807209475043
0.584799734980398
-0.47134882135069966
-0.027029681980579586
0.5848713361020036
-0.47134882135069966
-0.027029681980579586
0.5848713361020036
-0.47134882135069966
-0.027029681980579586
0.5848713361020036
-0.47134882135069966
-0.027029681980579586
0.5848713361020036
-0.47186108961423395
-0.02564141989659308
0.5850978156948359
-0.47186108961423395
-0.02564141989659308
0.5850978156948359
-0.47186108961423395
-0.02564141989659308
0.5850978156948359
-0.47186108961423395
-0.02564141989659308
0.5850978156948359
-0.47207377706408954
-0.024498039447857084
0.585258341037535
-0.47207377706408954
-0.024498039447857084
0.585258341037535
-0.47207377706408954
-0.024498039447857084
0.585258341037535
-0.47207377706408954
-0.024498039447857084
0.585258341037535
-0.47164216057104974
-0.023575741494921407
0.5852358681822335
-0.47164216057104974
-0.023575741494921407
0.5852358681822335
-0.47164216057104974
-0.023575741494921407
0.5852358681822335
-0.47164216057104974
-0.023575741494921407
0.5852358681822335
-0.471682746117036
-0.022790783793390685
0.5852039088064488
-0.471682746117036
-0.022790783793390685
0.5852039088064488
-0.471682746117036
-0.022790783793390685
0.5852039088064488
-0.471682746117036
-0.022790783793390685
0.5852039088064488
-0.47167418772521125
-0.021601411805461705
0.5863490562213952
-0.47167418772521125
-0.021601411805461705
0.5863490562213952
-0.47167418772521125
-0.021601411805461705
0.5863490562213952
-0.47167418772521125
-0.021601411805461705
0.5863490562213952
-0.47235779459677496
-0.020780312891610846
0.5867123507223729
-0.47235779459677496
-0.020780312891610846
0.5867123507223729
-0.47235779459677496
-0.020780312891610846
0.5867123507223729
-0.47235779459677496
-0.020780312891610846
0.5867123507223729
-0.4739762753014035
-0.020221515232799702
0.585945331033722
-0.4739762753014035
-0.020221515232799702
0.585945331033722
-0.4739762753014035
-0.020221515232799702
0.585945331033722
-0.4739762753014035
-0.020221515232799702
0.585945331033722
-0.47504089823028856
-0.020077716962979678
0.5851998965357859
-0.47504089823028856
-0.020077716962979678
0.5851998965357859
-0.47504089823028856
-0.020077716962979678
0.5851998965357859
-0.47504089823028856
-0.020077716962979678
0.5851998965357859
-0.4750918993501363
-0.02032204953193966
0.5863302355228143
-0.4750918993501363
-0.02032204953193966
0.5863302355228143
-0.4750918993501363
-0.02032204953193966
0.5863302355228143
-0.4750918993501363
-0.02032204953193966
0.5863302355228143
-0.4747510368129611
-0.020996768526768197
0.5877650876013197
-0.4747510368129611
-0.020996768526768197
0.5877650876013197
-0.4747510368129611
-0.020996768526768197
0.5877650876013197
-0.4747510368129611
-0.020996768526768197
0.5877650876013197
-0.4755243859011841
-0.021814410117626307
0.5877673059967701
-0.4755243859011841
-0.021814410117626307
0.5877673059967701
-0.4755243859011841
-0.021814410117626307
0.5877673059967701
-0.4755243859011841
-0.021814410117626307
0.5877673059967701
-0.476814706905847
-0.02283768978987168
0.5868275215213019
-0.476814706905847
-0.02283768978987168
0.5868275215213019
-0.476814706905847
-0.02283768978987168
0.5868275215213019
-0.476814706905847
-0.02283768978987168
0.5868275215213019
-0.4780505810731399
-0.024259973729407906
0.5870203550219136
-0.4780505810731399
-0.024259973729407906
0.5870203550219136
-0.4780505810731399
-0.024259973729407906
0.5870203550219136
-0.4780505810731399
-0.024259973729407906
0.5870203550219136
-0.4807137222023496
-0.02599470793844102
0.5874190228953979
-0.4807137222023496
-0.02599470793844102
0.5874190228953979
-0.4807137222023496
-0.02599470793844102
0.5874190228953979
-0.4807137222023496
-0.02599470793844102
0.5874190228953979
-0.48364055211346574
-0.027489862567979466
0.5873699439886363
-0.48364055211346574
-0.027489862567979466
0.5873699439886363
-0.48364055211346574
-0.027489862567979466
0.5873699439886363
-0.48364055211346574
-0.027489862567979466
0.5873699439886363
-0.4860122745291676
-0.029428554540415288
0.5867521433349141
-0.4860122745291676
-0.029428554540415288
0.5867521433349141
-0.4860122745291676
-0.029428554540415288
0.5867521433349141
-0.4860122745291676
-0.029428554540415288
0.5867521433349141
-0.4862222028645927
-0.03170899826835284
0.5857669213864771
-0.4862222028645927
-0.03170899826835284
0.5857669213864771
-0.4862222028645927
-0.03170899826835284
0.5857669213864771
-0.4862222028645927
-0.03170899826835284
0.5857669213864771
-0.48585289062977793
-0.03370215218258642
0.5850622183606876
-0.48585289062977793
-0.03370215218258642
0.5850622183606876
-0.48585289062977793
-0.03370215218258642
0.5850622183606876
-0.48585289062977793
-0.03370215218258642
0.5850622183606876
-0.4873950766779271
-0.035742509168539306
0.5850657817501915
-0.4873950766779271
-0.035742509168539306
0.5850657817501915
-0.4873950766779271
-0.035742509168539306
0.5850657817501915
-0.4873950766779271
-0.035742509168539306
0.5850657817501915
-0.4897762583011247
-0.037750354922395875
0.5857916781418353
-0.4897762583011247
-0.037750354922395875
0.5857916781418353
-0.4897762583011247
-0.037750354922395875
0.5857916781418353
-0.4897762583011247
-0.037750354922395875
0.5857916781418353
-0.4913523787114709
-0.03966108368467236
0.5863249744238352
-0.4913523787114709
-0.03966108368467236
0.5863249744238352
-0.4913523787114709
-0.03966108368467236
0.5863249744238352
-0.4913523787114709
-0.03966108368467236
0.5863249744238352
-0.4907613372977592
-0.041199868278265064
0.5861437748310928
-0.4907613372977592
-0.041199868278265064
0.5861437748310928
-0.4907613372977592
-0.041199868278265064
0.5861437748310928
-0.4907613372977592
-0.041199868278265064
0.5861437748310928
-0.4897688717688812
-0.04233255416145123
0.5859360109265579
-0.4897688717688812
-0.04233255416145123
0.5859360109265579
-0.4897688717688812
-0.04233255416145123
0.5859360109265579
-0.4897688717688812
-0.04233255416145123
0.5859360109265579
-0.4899874340307236
-0.04347309502905856
0.5858641524359796
-0.4899874340307236
-0.04347309502905856
0.5858641524359796
-0.4899874340307236
-0.04347309502905856
0.5858641524359796
-0.4899874340307236
-0.04347309502905856
0.5858641524359796
-0.49126052815671495
-0.04432351881316212
0.5856597219789429
-0.49126052815671495
-0.04432351881316212
0.5856597219789429
-0.49126052815671495
-0.04432351881316212
0.5856597219789429
-0.49126052815671495
-0.04432351881316212
0.5856597219789429
-0.4919759388542676
-0.04497392623429533
0.5853927024954915
-0.4919759388542676
-0.04497392623429533
0.5853927024954915
-0.4919759388542676
-0.04497392623429533
0.5853927024954915
-0.4919759388542676
-0.04497392623429533
0.5853927024954915
-0.49180186536807474
-0.04533424059791251
0.5852019049927766
-0.49180186536807474
-0.04533424059791251
0.5852019049927766
-0.49180186536807474
-0.04533424059791251
0.5852019049927766
-0.49180186536807474
-0.04533424059791251
0.5852019049927766
-0.4916593635254882
-0.04537502343122151
0.5851730861924234
-0.4916593635254882
-0.04537502343122151
0.5851730861924234
-0.4916593635254882
-0.04537502343122151
0.5851730861924234
-0.4916593635254882
-0.04537502343122151
0.5851730861924234
-0.4916593635254882
-0.04537502343122151
0.5851730861924234
-0.4916593635254882
-0.04537502343122151
0.5851730861924234
-0.4916593635254882
-0.04537502343122151
0.5851730861924234
-0.4916593635254882
-0.04537502343122151
0.5851730861924234
-0.4918194294608693
-0.045511817025205285
0.5849698224930496
-0.4918194294608693
-0.045511817025205285
0.5849698224930496
-0.4918194294608693
-0.045511817025205285
0.5849698224930496
-0.4918194294608693
-0.045511817025205285
0.5849698224930496
-0.4918194294608693
-0.045511817025205285
0.5849698224930496
-0.4918194294608693
-0.045511817025205285
0.5849698224930496
-0.4918194294608693
-0.045511817025205285
0.5849698224930496
-0.4918194294608693
-0.045511817025205285
0.5849698224930496
-0.4918194294608693
-0.045511817025205285
0.5849698224930496
-0.4918194294608693
-0.045511817025205285
0.5849698224930496
-0.4918194294608693
-0.045511817025205285
0.5849698224930496
-0.4918194294608693
-0.045511817025205285
0.5849698224930496
-0.4918194294608693
-0.045511817025205285
0.5849698224930496
-0.4918194294608693
-0.045511817025205285
0.5849698224930496
-0.4918194294608693
-0.045511817025205285
0.5849698224930496
-0.4918194294608693
-0.045511817025205285
0.5849698224930496
-0.4918194294608693
-0.045511817025205285
0.5849698224930496
-0.4918194294608693
-0.045511817025205285
0.5849698224930496
-0.4918194294608693
-0.045511817025205285
0.5849698224930496
-0.4918194294608693
-0.045511817025205285
0.5849698224930496
-0.4918194294608693
-0.045511817025205285
0.5849698224930496
-0.4918194294608693
-0.045511817025205285
0.5849698224930496
-0.4918194294608693
-0.045511817025205285
0.5849698224930496
-0.4918194294608693
-0.045511817025205285
0.5849698224930496
-0.49197633050951584
-0.045215994298176694
0.5848993095725136
-0.49197633050951584
-0.045215994298176694
0.5848993095725136
-0.49197633050951584
-0.045215994298176694
0.5848993095725136
-0.49197633050951584
-0.045215994298176694
0.5848993095725136
-0.49260114335760835
-0.04503013344786389
0.5849388027635716
-0.49260114335760835
-0.04503013344786389
0.5849388027635716
-0.49260114335760835
-0.04503013344786389
0.5849388027635716
-0.49260114335760835
-0.04503013344786389
0.5849388027635716
-0.4926856358208367
-0.04491149702140549
0.5847902232429464
-0.4926856358208367
-0.04491149702140549
0.5847902232429464
-0.4926856358208367
-0.04491149702140549
0.5847902232429464
-0.4926856358208367
-0.04491149702140549
0.5847902232429464
-0.49208687765526765
-0.04465865057452295
0.5849182891384715
-0.49208687765526765
-0.04465865057452295
0.5849182891384715
-0.49208687765526765
-0.04465865057452295
0.5849182891384715
-0.49208687765526765
-0.04465865057452295
0.5849182891384715
-0.4914593716901476
-0.044321920638670576
0.584904021995715
-0.4914593716901476
-0.044321920638670576
0.584904021995715
-0.4914593716901476
-0.044321920638670576
0.584904021995715
-0.4914593716901476
-0.044321920638670576
0.584904021995715
-0.4914593716901476
-0.044321920638670576
0.584904021995715
-0.4914593716901476
-0.044321920638670576
0.584904021995715
-0.4914593716901476
-0.044321920638670576
0.584904021995715
-0.4914593716901476
-0.044321920638670576
0.584904021995715
-0.4913461021653306
-0.04435667846362465
0.5849100727492528
-0.4913461021653306
-0.04435667846362465
0.5849100727492528
-0.4913461021653306
-0.04435667846362465
0.5849100727492528
-0.4913461021653306
-0.04435667846362465
0.5849100727492528
-0.4910666049333346
-0.04422554926171492
0.585232788842851
-0.4910666049333346
-0.04422554926171492
0.585232788842851
-0.4910666049333346
-0.04422554926171492
0.585232788842851
-0.4910666049333346
-0.04422554926171492
0.585232788842851
-0.4906738107277561
-0.044129307529123786
0.5855615899999205
-0.4906738107277561
-0.044129307529123786
0.5855615899999205
-0.4906738107277561
-0.044129307529123786
0.5855615899999205
-0.4906738107277561
-0.044129307529123786
0.5855615899999205
-0.4900601713453212
-0.04422202784636764
0.5858968209916215
-0.4900601713453212
-0.04422202784636764
0.5858968209916215
-0.4900601713453212
-0.04422202784636764
0.5858968209916215
-0.4900601713453212
-0.04422202784636764
0.5858968209916215
-0.4894468712581928
-0.044224817992033795
0.5861244755107674
-0.4894468712581928
-0.044224817992033795
0.5861244755107674
-0.4894468712581928
-0.044224817992033795
0.5861244755107674
-0.4894468712581928
-0.044224817992033795
0.5861244755107674
-0.488804464760531
-0.044233774661798994
0.5863172678132611
-0.488804464760531
-0.044233774661798994
0.5863172678132611
-0.488804464760531
-0.044233774661798994
0.5863172678132611
-0.488804464760531
-0.044233774661798994
0.5863172678132611
-0.48881049506741436
-0.04426280243731608
0.5862039860829253
-0.48881049506741436
-0.04426280243731608
0.5862039860829253
-0.48881049506741436
-0.04426280243731608
0.5862039860829253
-0.48881049506741436
-0.04426280243731608
0.5862039860829253
-0.488732084930952
-0.04441081532472385
0.5862390665083824
-0.488732084930952
-0.04441081532472385
0.5862390665083824
-0.488732084930952
-0.04441081532472385
0.5862390665083824
-0.488732084930952
-0.04441081532472385
0.5862390665083824
-0.48789459258697143
-0.04417041460087307
0.5866063708439723
-0.48789459258697143
-0.04417041460087307
0.5866063708439723
-0.48789459258697143
-0.04417041460087307
0.5866063708439723
-0.48789459258697143
-0.04417041460087307
0.5866063708439723
-0.4872233312623862
-0.04409542686921923
0.5866569041219
-0.4872233312623862
-0.04409542686921923
0.5866569041219
-0.4872233312623862
-0.04409542686921923
0.5866569041219
-0.4872233312623862
-0.04409542686921923
0.5866569041219
-0.48725823208667823
-0.04420861322314656
0.5866858684662282
-0.48725823208667823
-0.04420861322314656
0.5866858684662282
-0.48725823208667823
-0.04420861322314656
0.5866858684662282
-0.48725823208667823
-0.04420861322314656
0.5866858684662282
-0.48725823208667823
-0.04420861322314656
0.5866858684662282
-0.48725823208667823
-0.04420861322314656
0.5866858684662282
-0.48725823208667823
-0.04420861322314656
0.5866858684662282
-0.48725823208667823
-0.04420861322314656
0.5866858684662282
-0.48725823208667823
-0.04420861322314656
0.5866858684662282
-0.48725823208667823
-0.04420861322314656
0.5866858684662282
-0.48725823208667823
-0.04420861322314656
0.5866858684662282
-0.48725823208667823
-0.04420861322314656
0.5866858684662282
-0.4872931359829057
-0.044321797319920905
0.5867148365907162
-0.4872931359829057
-0.044321797319920905
0.5867148365907162
-0.4872931359829057
-0.044321797319920905
0.5867148365907162
-0.4872931359829057
-0.044321797319920905
0.5867148365907162
-0.4872931359829057
-0.044321797319920905
0.5867148365907162
-0.4872931359829057
-0.044321797319920905
0.5867148365907162
-0.4872931359829057
-0.044321797319920905
0.5867148365907162
-0.4872931359829057
-0.044321797319920905
0.5867148365907162
-0.48717984021826627
-0.04435666929136251
0.5867208409402542
-0.48717984021826627
-0.04435666929136251
0.5867208409402542
-0.48717984021826627
-0.04435666929136251
0.5867208409402542
-0.48717984021826627
-0.04435666929136251
0.5867208409402542
-0.48697960784519684
-0.04491405510675625
0.5868546550974945
-0.48697960784519684
-0.04491405510675625
0.5868546550974945
-0.48697960784519684
-0.04491405510675625
0.5868546550974945
-0.48697960784519684
-0.04491405510675625
0.5868546550974945
-0.4872300846519635
-0.045735258702028325
0.5869442025946128
-0.4872300846519635
-0.045735258702028325
0.5869442025946128
-0.4872300846519635
-0.045735258702028325
0.5869442025946128
-0.4872300846519635
-0.045735258702028325
0.5869442025946128
-0.48759980563299515
-0.04655048026240757
0.5869147833117213
-0.48759980563299515
-0.04655048026240757
0.5869147833117213
-0.48759980563299515
-0.04655048026240757
0.5869147833117213
-0.48759980563299515
-0.04655048026240757
0.5869147833117213
-0.48759469486432366
-0.047357287439307276
0.5868741490890362
-0.48759469486432366
-0.047357287439307276
0.5868741490890362
-0.48759469486432366
-0.047357287439307276
0.5868741490890362
-0.48759469486432366
-0.047357287439307276
0.5868741490890362
-0.4872555961295506
-0.04838787922385777
0.586844943279102
-0.4872555961295506
-0.04838787922385777
0.586844943279102
-0.4872555961295506
-0.04838787922385777
0.586844943279102
-0.4872555961295506
-0.04838787922385777
0.586844943279102
-0.4866351437563041
-0.04969167101241972
0.5871171708140248
-0.4866351437563041
-0.04969167101241972
0.5871171708140248
-0.4866351437563041
-0.04969167101241972
0.5871171708140248
-0.4866351437563041
-0.04969167101241972
0.5871171708140248
-0.48596620772725035
-0.051227971678269583
0.5875655545943208
-0.48596620772725035
-0.051227971678269583
0.5875655545943208
-0.48596620772725035
-0.051227971678269583
0.5875655545943208
-0.48596620772725035
-0.051227971678269583
0.5875655545943208
-0.4857550644077132
-0.05281659660547298
0.5883512584821782
-0.4857550644077132
-0.05281659660547298
0.5883512584821782
-0.4857550644077132
-0.05281659660547298
0.5883512584821782
-0.4857550644077132
-0.05281659660547298
0.5883512584821782
-0.48495699402603365
-0.05446530432533911
0.5896170238313734
-0.48495699402603365
-0.05446530432533911
0.5896170238313734
-0.48495699402603365
-0.05446530432533911
0.5896170238313734
-0.48495699402603365
-0.05446530432533911
0.5896170238313734
-0.48353853243822514
-0.05589861632865759
0.5908586767608173
-0.48353853243822514
-0.05589861632865759
0.5908586767608173
-0.48353853243822514
-0.05589861632865759
0.5908586767608173
-0.48353853243822514
-0.05589861632865759
0.5908586767608173
-0.48185814835420726
-0.05769467070369983
0.5920585245034514
-0.48185814835420726
-0.05769467070369983
0.5920585245034514
-0.48185814835420726
-0.05769467070369983
0.5920585245034514
-0.48185814835420726
-0.05769467070369983
0.5920585245034514
-0.47992786051766834
-0.06000100419628941
0.5930951374947382
-0.47992786051766834
-0.06000100419628941
0.5930951374947382
-0.47992786051766834
-0.06000100419628941
0.5930951374947382
-0.47992786051766834
-0.06000100419628941
0.5930951374947382
-0.47777651827766854
-0.0628126222526816
0.5940018113911414
-0.47777651827766854
-0.0628126222526816
0.5940018113911414
-0.47777651827766854
-0.0628126222526816
0.5940018113911414
-0.47777651827766854
-0.0628126222526816
0.5940018113911414
-0.47588482414975763
-0.06563958073856153
0.5950352556791747
-0.47588482414975763
-0.06563958073856153
0.5950352556791747
-0.47588482414975763
-0.06563958073856153
0.5950352556791747
-0.47588482414975763
-0.06563958073856153
0.5950352556791747
-0.47462687661648434
-0.06839817819428456
0.5961052847627729
-0.47462687661648434
-0.06839817819428456
0.5961052847627729
-0.47462687661648434
-0.06839817819428456
0.5961052847627729
-0.47462687661648434
-0.06839817819428456
0.5961052847627729
-0.47418528244946345
-0.07118873792614769
0.5971615276210618
-0.47418528244946345
-0.07118873792614769
0.5971615276210618
-0.47418528244946345
-0.07118873792614769
0.5971615276210618
-0.47418528244946345
-0.07118873792614769
0.5971615276210618
-0.4734148459361178
-0.07380133998482681
0.598245117822558
-0.4734148459361178
-0.07380133998482681
0.598245117822558
-0.4734148459361178
-0.07380133998482681
0.598245117822558
-0.4734148459361178
-0.07380133998482681
0.598245117822558
-0.47231206023397265
-0.076147788180036
0.5992489931408045
-0.47231206023397265
-0.076147788180036
0.5992489931408045
-0.47231206023397265
-0.076147788180036
0.5992489931408045
-0.47231206023397265
-0.076147788180036
0.5992489931408045
-0.4711919931920955
-0.07774931882104429
0.6000343166652957
-0.4711919931920955
-0.07774931882104429
0.6000343166652957
-0.4711919931920955
-0.07774931882104429
0.6000343166652957
-0.4711919931920955
-0.07774931882104429
0.6000343166652957
-0.471011097961127
-0.0792908645779115
0.5998799066069601
-0.471011097961127
-0.0792908645779115
0.5998799066069601
-0.471011097961127
-0.0792908645779115
0.5998799066069601
-0.471011097961127
-0.0792908645779115
0.5998799066069601
-0.47179789032373715
-0.0805643164123515
0.5996535577200632
-0.47179789032373715
-0.0805643164123515
0.5996535577200632
-0.47179789032373715
-0.0805643164123515
0.5996535577200632
-0.47179789032373715
-0.0805643164123515
0.5996535577200632
-0.4720223008653916
-0.08170304631426892
0.5995762162373226
-0.4720223008653916
-0.08170304631426892
0.5995762162373226
-0.4720223008653916
-0.08170304631426892
0.5995762162373226
-0.4720223008653916
-0.08170304631426892
0.5995762162373226
-0.4712031585634865
-0.08245151614461625
0.5996489277495799
-0.4712031585634865
-0.08245151614461625
0.5996489277495799
-0.4712031585634865
-0.08245151614461625
0.5996489277495799
-0.4712031585634865
-0.08245151614461625
0.5996489277495799
-0.4706431888041126
-0.08315260504456815
0.5996365709553886
-0.4706431888041126
-0.08315260504456815
0.5996365709553886
-0.4706431888041126
-0.08315260504456815
0.5996365709553886
-0.4706431888041126
-0.08315260504456815
0.5996365709553886
-0.47004687146963015
-0.0837407372473924
0.5995951153214655
-0.47004687146963015
-0.0837407372473924
0.5995951153214655
-0.47004687146963015
-0.0837407372473924
0.5995951153214655
-0.47004687146963015
-0.0837407372473924
0.5995951153214655
-0.47004687146963015
-0.0837407372473924
0.5995951153214655
-0.47004687146963015
-0.0837407372473924
0.5995951153214655
-0.47004687146963015
-0.0837407372473924
0.5995951153214655
-0.47004687146963015
-0.0837407372473924
0.5995951153214655
-0.47004687146963015
-0.0837407372473924
0.5995951153214655
-0.47004687146963015
-0.0837407372473924
0.5995951153214655
-0.47004687146963015
-0.0837407372473924
0.5995951153214655
-0.47004687146963015
-0.0837407372473924
0.5995951153214655
-0.46996980137367855
-0.08388987077246209
0.5996274646226808
-0.46996980137367855
-0.08388987077246209
0.5996274646226808
-0.46996980137367855
-0.08388987077246209
0.5996274646226808
-0.46996980137367855
-0.08388987077246209
0.5996274646226808
-0.46977730445207083
-0.08393467864637401
0.5990763621131462
-0.46977730445207083
-0.08393467864637401
0.5990763621131462
-0.46977730445207083
-0.08393467864637401
0.5990763621131462
-0.46977730445207083
-0.08393467864637401
0.5990763621131462
-0.4695689650429037
-0.08420928443171118
0.5987358833535834
-0.4695689650429037
-0.08420928443171118
0.5987358833535834
-0.4695689650429037
-0.08420928443171118
0.5987358833535834
-0.4695689650429037
-0.08420928443171118
0.5987358833535834
-0.4695689650429037
-0.08420928443171118
0.5987358833535834
-0.4695689650429037
-0.08420928443171118
0.5987358833535834
-0.4695689650429037
-0.08420928443171118
0.5987358833535834
-0.4695689650429037
-0.08420928443171118
0.5987358833535834
-0.4694555768206482
-0.08424540810932298
0.5987394865556971
-0.4694555768206482
-0.08424540810932298
0.5987394865556971
-0.4694555768206482
-0.08424540810932298
0.5987394865556971
-0.4694555768206482
-0.08424540810932298
0.5987394865556971
-0.46960521807227756
-0.0843222680459822
0.5987645705634457
-0.46960521807227756
-0.0843222680459822
0.5987645705634457
-0.46960521807227756
-0.0843222680459822
0.5987645705634457
-0.46960521807227756
-0.0843222680459822
0.5987645705634457
-0.46970316865076606
-0.08480776767878236
0.5982474666621834
-0.46970316865076606
-0.08480776767878236
0.5982474666621834
-0.46970316865076606
-0.08480776767878236
0.5982474666621834
-0.46970316865076606
-0.08480776767878236
0.5982474666621834
-0.46972015438967013
-0.08541378655716983
0.597876036045193
-0.46972015438967013
-0.08541378655716983
0.597876036045193
-0.46972015438967013
-0.08541378655716983
0.597876036045193
-0.46972015438967013
-0.08541378655716983
0.597876036045193
-0.4698503250125237
-0.08598373263147774
0.5975011087642595
-0.4698503250125237
-0.08598373263147774
0.5975011087642595
-0.4698503250125237
-0.08598373263147774
0.5975011087642595
-0.4698503250125237
-0.08598373263147774
0.5975011087642595
-0.4702577027406141
-0.08641735763070886
0.5974185499520652
-0.4702577027406141
-0.08641735763070886
0.5974185499520652
-0.4702577027406141
-0.08641735763070886
0.5974185499520652
-0.4702577027406141
-0.08641735763070886
0.5974185499520652
-0.47022893425113127
-0.0864208174703836
0.5973823403748484
-0.47022893425113127
-0.0864208174703836
0.5973823403748484
-0.47022893425113127
-0.0864208174703836
0.5973823403748484
-0.47022893425113127
-0.0864208174703836
0.5973823403748484
-0.47022893425113127
-0.0864208174703836
0.5973823403748484
-0.47022893425113127
-0.0864208174703836
0.5973823403748484
-0.47022893425113127
-0.0864208174703836
0.5973823403748484
-0.47022893425113127
-0.0864208174703836
0.5973823403748484
-0.47022893425113127
-0.0864208174703836
0.5973823403748484
-0.47022893425113127
-0.0864208174703836
0.5973823403748484
-0.47022893425113127
-0.0864208174703836
0.5973823403748484
-0.47022893425113127
-0.0864208174703836
0.5973823403748484
-0.47011552822346214
-0.08645689057785509
0.5973858104534253
-0.47011552822346214
-0.08645689057785509
0.5973858104534253
-0.47011552822346214
-0.08645689057785509
0.5973858104534253
-0.47011552822346214
-0.08645689057785509
0.5973858104534253
-0.4701517388007027
-0.08656987332037121
0.5974145740106591
-0.4701517388007027
-0.08656987332037121
0.5974145740106591
-0.4701517388007027
-0.08656987332037121
0.5974145740106591
-0.4701517388007027
-0.08656987332037121
0.5974145740106591
-0.470155199940275
-0.08659853183765408
0.5973011658458958
-0.470155199940275
-0.08659853183765408
0.5973011658458958
-0.470155199940275
-0.08659853183765408
0.5973011658458958
-0.470155199940275
-0.08659853183765408
0.5973011658458958
-0.4704142607497016
-0.08655161082693597
0.5972170333400073
-0.4704142607497016
-0.08655161082693597
0.5972170333400073
-0.4704142607497016
-0.08655161082693597
0.5972170333400073
-0.4704142607497016
-0.08655161082693597
0.5972170333400073
-0.4705638751286678
-0.08662852914194602
0.5972423551299761
-0.4705638751286678
-0.08662852914194602
0.5972423551299761
-0.4705638751286678
-0.08662852914194602
0.5972423551299761
-0.4705638751286678
-0.08662852914194602
0.5972423551299761
-0.4705638751286678
-0.08662852914194602
0.5972423551299761
-0.4705638751286678
-0.08662852914194602
0.5972423551299761
-0.4705638751286678
-0.08662852914194602
0.5972423551299761
-0.4705638751286678
-0.08662852914194602
0.5972423551299761
-0.470535085022256
-0.08663197995399566
0.5972061528809642
-0.470535085022256
-0.08663197995399566
0.5972061528809642
-0.470535085022256
-0.08663197995399566
0.5972061528809642
-0.470535085022256
-0.08663197995399566
0.5972061528809642
-0.47042168012759233
-0.08666804510000715
0.5972096139621169
-0.47042168012759233
-0.08666804510000715
0.5972096139621169
-0.47042168012759233
-0.08666804510000715
0.5972096139621169
-0.47042168012759233
-0.08666804510000715
0.5972096139621169
-0.4701353818850071
-0.0870916396491629
0.5969010640877429
-0.4701353818850071
-0.0870916396491629
0.5969010640877429
-0.4701353818850071
-0.0870916396491629
0.5969010640877429
-0.4701353818850071
-0.0870916396491629
0.5969010640877429
-0.47002393183437347
-0.0875600643550492
0.5967673702039388
-0.47002393183437347
-0.0875600643550492
0.5967673702039388
-0.47002393183437347
-0.0875600643550492
0.5967673702039388
-0.47002393183437347
-0.0875600643550492
0.5967673702039388
-0.4699951530305981
-0.08756344570777151
0.5967311785214252
-0.4699951530305981
-0.08756344570777151
0.5967311785214252
-0.4699951530305981
-0.08756344570777151
0.5967311785214252
-0.4699951530305981
-0.08756344570777151
0.5967311785214252
-0.47002393183437347
-0.0875600643550492
0.5967673702039388
-0.47002393183437347
-0.0875600643550492
0.5967673702039388
-0.47002393183437347
-0.0875600643550492
0.5967673702039388
-0.47002393183437347
-0.0875600643550492
0.5967673702039388
-0.47002393183437347
-0.0875600643550492
0.5967673702039388
-0.47002393183437347
-0.0875600643550492
0.5967673702039388
-0.47002393183437347
-0.0875600643550492
0.5967673702039388
-0.47002393183437347
-0.0875600643550492
0.5967673702039388
-0.46969252140981593
-0.08738090669035796
0.5967938642607306
-0.46969252140981593
-0.08738090669035796
0.5967938642607306
-0.46969252140981593
-0.08738090669035796
0.5967938642607306
-0.46969252140981593
-0.08738090669035796
0.5967938642607306
-0.46969252140981593
-0.08738090669035796
0.5967938642607306
-0.46969252140981593
-0.08738090669035796
0.5967938642607306
-0.46969252140981593
-0.08738090669035796
0.5967938642607306
-0.46969252140981593
-0.08738090669035796
0.5967938642607306
-0.46969252140981593
-0.08738090669035796
0.5967938642607306
-0.46969252140981593
-0.08738090669035796
0.5967938642607306
-0.46969252140981593
-0.08738090669035796
0.5967938642607306
-0.46969252140981593
-0.08738090669035796
0.5967938642607306
-0.46969252140981593
-0.08738090669035796
0.5967938642607306
-0.46969252140981593
-0.08738090669035796
0.5967938642607306
-0.46969252140981593
-0.08738090669035796
0.5967938642607306
-0.46969252140981593
-0.08738090669035796
0.5967938642607306
-0.4697287146007798
-0.08749390209001774
0.596822623316802
-0.4697287146007798
-0.08749390209001774
0.596822623316802
-0.4697287146007798
-0.08749390209001774
0.596822623316802
-0.4697287146007798
-0.08749390209001774
0.596822623316802
-0.4694608207978017
-0.08782807668965377
0.5968902856094495
-0.4694608207978017
-0.08782807668965377
0.5968902856094495
-0.4694608207978017
-0.08782807668965377
0.5968902856094495
-0.4694608207978017
-0.08782807668965377
0.5968902856094495
-0.4686689402760336
-0.08773601536421434
0.5971571372037252
-0.4686689402760336
-0.08773601536421434
0.5971571372037252
-0.4686689402760336
-0.08773601536421434
0.5971571372037252
-0.4686689402760336
-0.08773601536421434
0.5971571372037252
-0.46836287377675645
-0.08752500703935352
0.5973333680142012
-0.46836287377675645
-0.08752500703935352
0.5973333680142012
-0.46836287377675645
-0.08752500703935352
0.5973333680142012
-0.46836287377675645
-0.08752500703935352
0.5973333680142012
-0.4685569116260471
-0.08736841330109926
0.5971844804190463
-0.4685569116260471
-0.08736841330109926
0.5971844804190463
-0.4685569116260471
-0.08736841330109926
0.5971844804190463
-0.4685569116260471
-0.08736841330109926
0.5971844804190463
-0.4691308723470143
-0.08724526397733648
0.5969406489825786
-0.4691308723470143
-0.08724526397733648
0.5969406489825786
-0.4691308723470143
-0.08724526397733648
0.5969406489825786
-0.4691308723470143
-0.08724526397733648
0.5969406489825786
-0.46940411649583247
-0.08737202639738588
0.596622287856169
-0.46940411649583247
-0.08737202639738588
0.596622287856169
-0.46940411649583247
-0.08737202639738588
0.596622287856169
-0.46940411649583247
-0.08737202639738588
0.596622287856169
-0.46940411649583247
-0.08737202639738588
0.596622287856169
-0.46940411649583247
-0.08737202639738588
0.596622287856169
-0.46940411649583247
-0.08737202639738588
0.596622287856169
-0.46940411649583247
-0.08737202639738588
0.596622287856169
-0.46953513881574815
-0.08753827639417137
0.5962711643065752
-0.46953513881574815
-0.08753827639417137
0.5962711643065752
-0.46953513881574815
-0.08753827639417137
0.5962711643065752
-0.46953513881574815
-0.08753827639417137
0.5962711643065752
-0.46953513881574815
-0.08753827639417137
0.5962711643065752
-0.46953513881574815
-0.08753827639417137
0.5962711643065752
-0.46953513881574815
-0.08753827639417137
0.5962711643065752
-0.46953513881574815
-0.08753827639417137
0.5962711643065752
-0.4695385173429509
-0.08756691807989792
0.5961577244480067
-0.4695385173429509
-0.08756691807989792
0.5961577244480067
-0.4695385173429509
-0.08756691807989792
0.5961577244480067
-0.4695385173429509
-0.08756691807989792
0.5961577244480067
-0.4695385173429509
-0.08756691807989792
0.5961577244480067
-0.4695385173429509
-0.08756691807989792
0.5961577244480067
-0.4695385173429509
-0.08756691807989792
0.5961577244480067
-0.4695385173429509
-0.08756691807989792
0.5961577244480067
-0.4695746770874953
-0.08767992401525712
0.5961864789751468
-0.4695746770874953
-0.08767992401525712
0.5961864789751468
-0.4695746770874953
-0.08767992401525712
0.5961864789751468
-0.4695746770874953
-0.08767992401525712
0.5961864789751468
-0.4695746770874953
-0.08767992401525712
0.5961864789751468
-0.4695746770874953
-0.08767992401525712
0.5961864789751468
-0.4695746770874953
-0.08767992401525712
0.5961864789751468
-0.4695746770874953
-0.08767992401525712
0.5961864789751468
-0.4694612350789706
-0.0877159470702268
0.5961898485569664
-0.4694612350789706
-0.0877159470702268
0.5961898485569664
-0.4694612350789706
-0.0877159470702268
0.5961898485569664
-0.4694612350789706
-0.0877159470702268
0.5961898485569664
-0.46938236558065133
-0.08826867388731094
0.5961981232147184
-0.46938236558065133
-0.08826867388731094
0.5961981232147184
-0.46938236558065133
-0.08826867388731094
0.5961981232147184
-0.46938236558065133
-0.08826867388731094
0.5961981232147184
-0.469222931258878
-0.0889418178455579
0.5963518687780763
-0.469222931258878
-0.0889418178455579
0.5963518687780763
-0.469222931258878
-0.0889418178455579
0.5963518687780763
-0.469222931258878
-0.0889418178455579
0.5963518687780763
-0.46894688051329836
-0.0896224166129278
0.5966222265219157
-0.46894688051329836
-0.0896224166129278
0.5966222265219157
-0.46894688051329836
-0.0896224166129278
0.5966222265219157
-0.46894688051329836
-0.0896224166129278
0.5966222265219157
-0.46907313894371894
-0.09027591026923136
0.5970612124896477
-0.46907313894371894
-0.09027591026923136
0.5970612124896477
-0.46907313894371894
-0.09027591026923136
0.5970612124896477
-0.46907313894371894
-0.09027591026923136
0.5970612124896477
-0.4689077417653833
-0.09089183317804975
0.5974416222802861
-0.4689077417653833
-0.09089183317804975
0.5974416222802861
-0.4689077417653833
-0.09089183317804975
0.5974416222802861
-0.4689077417653833
-0.09089183317804975
0.5974416222802861
-0.4683296337379609
-0.09139034235728162
0.5977738778218407
-0.4683296337379609
-0.09139034235728162
0.5977738778218407
-0.4683296337379609
-0.09139034235728162
0.5977738778218407
-0.4683296337379609
-0.09139034235728162
0.5977738778218407
-0.4678650898098412
-0.091852876572107
0.5981027447770572
-0.4678650898098412
-0.091852876572107
0.5981027447770572
-0.4678650898098412
-0.091852876572107
0.5981027447770572
-0.4678650898098412
-0.091852876572107
0.5981027447770572
-0.4678831969374073
-0.0921676237091584
0.5984553436350514
-0.4678831969374073
-0.0921676237091584
0.5984553436350514
-0.4678831969374073
-0.0921676237091584
0.5984553436350514
-0.4678831969374073
-0.0921676237091584
0.5984553436350514
-0.4678831969374073
-0.0921676237091584
0.5984553436350514
-0.4678831969374073
-0.0921676237091584
0.5984553436350514
-0.4678831969374073
-0.0921676237091584
0.5984553436350514
-0.4678831969374073
-0.0921676237091584
0.5984553436350514
-0.4677410117417622
-0.09220693740851993
0.5984220943806124
-0.4677410117417622
-0.09220693740851993
0.5984220943806124
-0.4677410117417622
-0.09220693740851993
0.5984220943806124
-0.4677410117417622
-0.09220693740851993
0.5984220943806124
-0.4677773772971394
-0.09231989674096265
0.598450833700805
-0.4677773772971394
-0.09231989674096265
0.598450833700805
-0.4677773772971394
-0.09231989674096265
0.598450833700805
-0.4677773772971394
-0.09231989674096265
0.598450833700805
-0.4677773772971394
-0.09231989674096265
0.598450833700805
-0.4677773772971394
-0.09231989674096265
0.598450833700805
-0.4677773772971394
-0.09231989674096265
0.598450833700805
-0.4677773772971394
-0.09231989674096265
0.598450833700805
-0.46781374599993913
-0.09243285350023142
0.5984795770571987
-0.46781374599993913
-0.09243285350023142
0.5984795770571987
-0.46781374599993913
-0.09243285350023142
0.5984795770571987
-0.46781374599993913
-0.09243285350023142
0.5984795770571987
-0.46781684702484744
-0.09246147682213215
0.5983661353064945
-0.46781684702484744
-0.09246147682213215
0.5983661353064945
-0.46781684702484744
-0.09246147682213215
0.5983661353064945
-0.46781684702484744
-0.09246147682213215
0.5983661353064945
-0.46781684702484744
-0.09246147682213215
0.5983661353064945
-0.46781684702484744
-0.09246147682213215
0.5983661353064945
-0.46781684702484744
-0.09246147682213215
0.5983661353064945
-0.46781684702484744
-0.09246147682213215
0.5983661353064945
-0.4677034016817914
-0.09249768703522927
0.5983692327390508
-0.4677034016817914
-0.09249768703522927
0.5983692327390508
-0.4677034016817914
-0.09249768703522927
0.5983692327390508
-0.4677034016817914
-0.09249768703522927
0.5983692327390508
-0.4677015290656911
-0.09206536465743645
0.5985068010048965
-0.4677015290656911
-0.09206536465743645
0.5985068010048965
-0.4677015290656911
-0.09206536465743645
0.5985068010048965
-0.4677015290656911
-0.09206536465743645
0.5985068010048965
-0.46744704269786275
-0.09127458542921935
0.5983057767780429
-0.46744704269786275
-0.09127458542921935
0.5983057767780429
-0.46744704269786275
-0.09127458542921935
0.5983057767780429
-0.46744704269786275
-0.09127458542921935
0.5983057767780429
-0.46719843471494965
-0.09016761193215837
0.5982349846813735
-0.46719843471494965
-0.09016761193215837
0.5982349846813735
-0.46719843471494965
-0.09016761193215837
0.5982349846813735
-0.46719843471494965
-0.09016761193215837
0.5982349846813735
-0.4667958132073968
-0.08889611492315153
0.598033352974399
-0.4667958132073968
-0.08889611492315153
0.598033352974399
-0.4667958132073968
-0.08889611492315153
0.598033352974399
-0.4667958132073968
-0.08889611492315153
0.598033352974399
-0.46686165309495736
-0.08765324595297368
0.5975842719463857
-0.46686165309495736
-0.08765324595297368
0.5975842719463857
-0.46686165309495736
-0.08765324595297368
0.5975842719463857
-0.46686165309495736
-0.08765324595297368
0.5975842719463857
-0.46707008637151
-0.08637100211659574
0.5971679682065514
-0.46707008637151
-0.08637100211659574
0.5971679682065514
-0.46707008637151
-0.08637100211659574
0.5971679682065514
-0.46707008637151
-0.08637100211659574
0.5971679682065514
-0.467056230478789
-0.08524890618828745
0.5968642553040941
-0.467056230478789
-0.08524890618828745
0.5968642553040941
-0.467056230478789
-0.08524890618828745
0.5968642553040941
-0.467056230478789
-0.08524890618828745
0.5968642553040941
-0.4662215024270671
-0.08397881263551106
0.596573565610894
-0.4662215024270671
-0.08397881263551106
0.596573565610894
-0.4662215024270671
-0.08397881263551106
0.596573565610894
-0.4662215024270671
-0.08397881263551106
0.596573565610894
-0.466263332742515
-0.08241758317584774
0.5964805696272516
-0.466263332742515
-0.08241758317584774
0.5964805696272516
-0.466263332742515
-0.08241758317584774
0.5964805696272516
-0.466263332742515
-0.08241758317584774
0.5964805696272516
-0.4659058814331901
-0.08053953533894602
0.596464447910094
-0.4659058814331901
-0.08053953533894602
0.596464447910094
-0.4659058814331901
-0.08053953533894602
0.596464447910094
-0.4659058814331901
-0.08053953533894602
0.596464447910094
-0.465143697782359
-0.07859971423696603
0.5961768122578042
-0.465143697782359
-0.07859971423696603
0.5961768122578042
-0.465143697782359
-0.07859971423696603
0.5961768122578042
-0.465143697782359
-0.07859971423696603
0.5961768122578042
-0.46486654956072204
-0.07700452928813556
0.5959920726463069
-0.46486654956072204
-0.07700452928813556
0.5959920726463069
-0.46486654956072204
-0.07700452928813556
0.5959920726463069
-0.46486654956072204
-0.07700452928813556
0.5959920726463069
-0.46468991031063567
-0.07563176025907446
0.5959002556975322
-0.46468991031063567
-0.07563176025907446
0.5959002556975322
-0.46468991031063567
-0.07563176025907446
0.5959002556975322
-0.46468991031063567
-0.07563176025907446
0.5959002556975322
-0.4648780289872292
-0.07411924527880594
0.5959459753150874
-0.4648780289872292
-0.07411924527880594
0.5959459753150874
-0.4648780289872292
-0.07411924527880594
0.5959459753150874
-0.4648780289872292
-0.07411924527880594
0.5959459753150874
-0.46474160800906866
-0.07288771929547773
0.5957691330684713
-0.46474160800906866
-0.07288771929547773
0.5957691330684713
-0.46474160800906866
-0.07288771929547773
0.5957691330684713
-0.46474160800906866
-0.07288771929547773
0.5957691330684713
-0.464585601917308
-0.07171648466403813
0.5953296142594238
-0.464585601917308
-0.07171648466403813
0.5953296142594238
-0.464585601917308
-0.07171648466403813
0.5953296142594238
-0.464585601917308
-0.07171648466403813
0.5953296142594238
-0.46434823619916915
-0.07066608052527536
0.5950361811426526
-0.46434823619916915
-0.07066608052527536
0.5950361811426526
-0.46434823619916915
-0.07066608052527536
0.5950361811426526
-0.46434823619916915
-0.07066608052527536
0.5950361811426526
-0.4643549712278168
-0.06962524889346042
0.5955834043630898
-0.4643549712278168
-0.06962524889346042
0.5955834043630898
-0.4643549712278168
-0.06962524889346042
0.5955834043630898
-0.4643549712278168
-0.06962524889346042
0.5955834043630898
-0.46446441795399823
-0.06889592972726538
0.5963283911144908
-0.46446441795399823
-0.06889592972726538
0.5963283911144908
-0.46446441795399823
-0.06889592972726538
0.5963283911144908
-0.46446441795399823
-0.06889592972726538
0.5963283911144908
-0.46434366732039334
-0.06847224153848339
0.5965844866130849
-0.46434366732039334
-0.06847224153848339
0.5965844866130849
-0.46434366732039334
-0.06847224153848339
0.5965844866130849
-0.46434366732039334
-0.06847224153848339
0.5965844866130849
-0.46465692233145345
-0.06830771067373298
0.5963163309421898
-0.46465692233145345
-0.06830771067373298
0.5963163309421898
-0.46500002275266294
-0.06796614259945215
0.5968006075941377
-0.46500002275266294
-0.06796614259945215
0.5968006075941377
-0.46500002275266294
-0.06796614259945215
0.5968006075941377
-0.46500002275266294
-0.06796614259945215
0.5968006075941377
-0.46610234486000784
-0.06742932547662817
0.5976982645080776
-0.46610234486000784
-0.06742932547662817
0.5976982645080776
-0.46610234486000784
-0.06742932547662817
0.5976982645080776
-0.46610234486000784
-0.06742932547662817
0.5976982645080776
-0.46759851837429345
-0.06723950792105679
0.5988484989257533
-0.46759851837429345
-0.06723950792105679
0.5988484989257533
-0.46759851837429345
-0.06723950792105679
0.5988484989257533
-0.46759851837429345
-0.06723950792105679
0.5988484989257533
-0.4683039621445616
-0.06715965557375597
0.5994437803218196
-0.4683039621445616
-0.06715965557375597
0.5994437803218196
-0.4683039621445616
-0.06715965557375597
0.5994437803218196
-0.4683039621445616
-0.06715965557375597
0.5994437803218196
-0.46845789660620196
-0.0672650344568969
0.5993541609579748
-0.46845789660620196
-0.0672650344568969
0.5993541609579748
-0.46845789660620196
-0.0672650344568969
0.5993541609579748
-0.46845789660620196
-0.0672650344568969
0.5993541609579748
-0.47027122139809285
-0.06818203428606624
0.5987484829855974
-0.47027122139809285
-0.06818203428606624
0.5987484829855974
-0.47027122139809285
-0.06818203428606624
0.5987484829855974
-0.47027122139809285
-0.06818203428606624
0.5987484829855974
-0.4720347202055487
-0.06890172596743244
0.5984558419840541
-0.4720347202055487
-0.06890172596743244
0.5984558419840541
-0.4720347202055487
-0.06890172596743244
0.5984558419840541
-0.4720347202055487
-0.06890172596743244
0.5984558419840541
-0.47454046331660527
-0.06965352519663348
0.5987890771262583
-0.47454046331660527
-0.06965352519663348
0.5987890771262583
-0.47454046331660527
-0.06965352519663348
0.5987890771262583
-0.47454046331660527
-0.06965352519663348
0.5987890771262583
-0.4764310679844651
-0.07105434333885552
0.5988259051530676
-0.4764310679844651
-0.07105434333885552
0.5988259051530676
-0.4764310679844651
-0.07105434333885552
0.5988259051530676
-0.4764310679844651
-0.07105434333885552
0.5988259051530676
-0.4775573879933108
-0.07262440306557902
0.5985643838139022
-0.4775573879933108
-0.07262440306557902
0.5985643838139022
-0.4775573879933108
-0.07262440306557902
0.5985643838139022
-0.4775573879933108
-0.07262440306557902
0.5985643838139022
-0.47849256298599596
-0.07464576156391303
0.5977329359888524
-0.47849256298599596
-0.07464576156391303
0.5977329359888524
-0.47849256298599596
-0.07464576156391303
0.5977329359888524
-0.47849256298599596
-0.07464576156391303
0.5977329359888524
-0.4786011201529524
-0.07649067579169341
0.597031657736448
-0.4786011201529524
-0.07649067579169341
0.597031657736448
-0.4786011201529524
-0.07649067579169341
0.597031657736448
-0.4786011201529524
-0.07649067579169341
0.597031657736448
-0.47873048665679313
-0.07786986581989114
0.5966149804382079
-0.47873048665679313
-0.07786986581989114
0.5966149804382079
-0.47873048665679313
-0.07786986581989114
0.5966149804382079
-0.47873048665679313
-0.07786986581989114
0.5966149804382079
-0.47985863359675396
-0.0794705623057155
0.5962456409456064
-0.47985863359675396
-0.0794705623057155
0.5962456409456064
-0.47985863359675396
-0.0794705623057155
0.5962456409456064
-0.47985863359675396
-0.0794705623057155
0.5962456409456064
-0.4810465913060279
-0.08120995817069637
0.5962763997104833
-0.4810465913060279
-0.08120995817069637
0.5962763997104833
-0.4810465913060279
-0.08120995817069637
0.5962763997104833
-0.4810465913060279
-0.08120995817069637
0.5962763997104833
-0.48124495568979136
-0.0829233220937661
0.596621174502798
-0.48124495568979136
-0.0829233220937661
0.596621174502798
-0.48124495568979136
-0.0829233220937661
0.596621174502798
-0.48124495568979136
-0.0829233220937661
0.596621174502798
-0.4815184640874757
-0.0843507489832931
0.5963454549738639
-0.4815184640874757
-0.0843507489832931
0.5963454549738639
-0.4815184640874757
-0.0843507489832931
0.5963454549738639
-0.4815184640874757
-0.0843507489832931
0.5963454549738639
-0.48184007312916327
-0.0855751171653568
0.5957810677686872
-0.48184007312916327
-0.0855751171653568
0.5957810677686872
-0.48184007312916327
-0.0855751171653568
0.5957810677686872
-0.48184007312916327
-0.0855751171653568
0.5957810677686872
-0.4820477488737467
-0.08683560215154928
0.5952206483482196
-0.4820477488737467
-0.08683560215154928
0.5952206483482196
-0.4820477488737467
-0.08683560215154928
0.5952206483482196
-0.4820477488737467
-0.08683560215154928
0.5952206483482196
-0.48339170032779055
-0.08781623796646135
0.594992506925548
-0.48339170032779055
-0.08781623796646135
0.594992506925548
-0.48339170032779055
-0.08781623796646135
0.594992506925548
-0.48339170032779055
-0.08781623796646135
0.594992506925548
-0.48404973168039517
-0.08860737173349495
0.5952544170560502
-0.48404973168039517
-0.08860737173349495
0.5952544170560502
-0.48404973168039517
-0.08860737173349495
0.5952544170560502
-0.48404973168039517
-0.08860737173349495
0.5952544170560502
-0.48418628644599976
-0.08934611493358981
0.5953584714627167
-0.48418628644599976
-0.08934611493358981
0.5953584714627167
-0.48418628644599976
-0.08934611493358981
0.5953584714627167
-0.48418628644599976
-0.08934611493358981
0.5953584714627167
-0.48375677948486656
-0.0898110657199391
0.5950197327581158
-0.48375677948486656
-0.0898110657199391
0.5950197327581158
-0.48375677948486656
-0.0898110657199391
0.5950197327581158
-0.48375677948486656
-0.0898110657199391
0.5950197327581158
-0.48425835512373755
-0.09030196386602252
0.5945614638722675
-0.48425835512373755
-0.09030196386602252
0.5945614638722675
-0.48425835512373755
-0.09030196386602252
0.5945614638722675
-0.48425835512373755
-0.09030196386602252
0.5945614638722675
-0.48546210705610326
-0.09051496208360361
0.5943452755825035
-0.48546210705610326
-0.09051496208360361
0.5943452755825035
-0.48546210705610326
-0.09051496208360361
0.5943452755825035
-0.48546210705610326
-0.09051496208360361
0.5943452755825035
-0.4862488522640592
-0.09098465315552483
0.5941730013486393
-0.4862488522640592
-0.09098465315552483
0.5941730013486393
-0.4862488522640592
-0.09098465315552483
0.5941730013486393
-0.4862488522640592
-0.09098465315552483
0.5941730013486393
-0.4860173494129516
-0.09143077415860237
0.5942726289505307
-0.4860173494129516
-0.09143077415860237
0.5942726289505307
-0.4860173494129516
-0.09143077415860237
0.5942726289505307
-0.4860173494129516
-0.09143077415860237
0.5942726289505307
-0.4851684631749597
-0.09171872732280634
0.5941110749281509
-0.4851684631749597
-0.09171872732280634
0.5941110749281509
-0.4851684631749597
-0.09171872732280634
0.5941110749281509
-0.4851684631749597
-0.09171872732280634
0.5941110749281509
-0.4851684631749597
-0.09171872732280634
0.5941110749281509
-0.4851684631749597
-0.09171872732280634
0.5941110749281509
-0.4851684631749597
-0.09171872732280634
0.5941110749281509
-0.4851684631749597
-0.09171872732280634
0.5941110749281509
-0.48532459044730764
-0.09185479897017908
0.59391087827346
-0.48532459044730764
-0.09185479897017908
0.59391087827346
-0.48532459044730764
-0.09185479897017908
0.59391087827346
-0.48532459044730764
-0.09185479897017908
0.59391087827346
-0.4858400766622711
-0.09179087597818598
0.5940763944563288
-0.4858400766622711
-0.09179087597818598
0.5940763944563288
-0.4858400766622711
-0.09179087597818598
0.5940763944563288
-0.4858400766622711
-0.09179087597818598
0.5940763944563288
-0.4858400766622711
-0.09179087597818598
0.5940763944563288
-0.4858400766622711
-0.09179087597818598
0.5940763944563288
-0.4858400766622711
-0.09179087597818598
0.5940763944563288
-0.4858400766622711
-0.09179087597818598
0.5940763944563288
-0.4858400766622711
-0.09179087597818598
0.5940763944563288
-0.4858400766622711
-0.09179087597818598
0.5940763944563288
-0.4858400766622711
-0.09179087597818598
0.5940763944563288
-0.4858400766622711
-0.09179087597818598
0.5940763944563288
-0.4858400766622711
-0.09179087597818598
0.5940763944563288
-0.4858400766622711
-0.09179087597818598
0.5940763944563288
-0.4858400766622711
-0.09179087597818598
0.5940763944563288
-0.4858400766622711
-0.09179087597818598
0.5940763944563288
-0.4858400766622711
-0.09179087597818598
0.5940763944563288
-0.4858400766622711
-0.09179087597818598
0.5940763944563288
-0.4858400766622711
-0.09179087597818598
0.5940763944563288
-0.4858400766622711
-0.09179087597818598
0.5940763944563288
-0.4857268184907669
-0.09182680662981343
0.5940797937004545
-0.4857268184907669
-0.09182680662981343
0.5940797937004545
-0.4857268184907669
-0.09182680662981343
0.5940797937004545
-0.4857268184907669
-0.09182680662981343
0.5940797937004545
-0.4856135570715659
-0.09186273861491479
0.5940831889588807
-0.4856135570715659
-0.09186273861491479
0.5940831889588807
-0.4856135570715659
-0.09186273861491479
0.5940831889588807
-0.4856135570715659
-0.09186273861491479
0.5940831889588807
-0.4857679193914116
-0.09156531121752688
0.5940168776103861
-0.4857679193914116
-0.09156531121752688
0.5940168776103861
-0.4857679193914116
-0.09156531121752688
0.5940168776103861
-0.4857679193914116
-0.09156531121752688
0.5940168776103861
-0.4859222933899099
-0.09126790156404052
0.593950523651541
-0.4859222933899099
-0.09126790156404052
0.593950523651541
-0.4859222933899099
-0.09126790156404052
0.593950523651541
-0.4859222933899099
-0.09126790156404052
0.593950523651541
-0.4859222933899099
-0.09126790156404052
0.593950523651541
-0.4859222933899099
-0.09126790156404052
0.593950523651541
-0.4859222933899099
-0.09126790156404052
0.593950523651541
-0.4859222933899099
-0.09126790156404052
0.593950523651541
-0.4854772159466911
-0.09112387216220605
0.5939785222915738
-0.4854772159466911
-0.09112387216220605
0.5939785222915738
-0.4854772159466911
-0.09112387216220605
0.5939785222915738
-0.4854772159466911
-0.09112387216220605
0.5939785222915738
-0.4853639550828135
-0.09115978841071397
0.593981951297515
-0.4853639550828135
-0.09115978841071397
0.593981951297515
-0.4853639550828135
-0.09115978841071397
0.593981951297515
-0.4853639550828135
-0.09115978841071397
0.593981951297515
-0.48555785012412017
-0.09100477702241665
0.5938320980436456
-0.48555785012412017
-0.09100477702241665
0.5938320980436456
-0.48555785012412017
-0.09100477702241665
0.5938320980436456
-0.48555785012412017
-0.09100477702241665
0.5938320980436456
-0.48559390692526966
-0.09111756847152655
0.5938618313129953
-0.48559390692526966
-0.09111756847152655
0.5938618313129953
-0.48559390692526966
-0.09111756847152655
0.5938618313129953
-0.48559390692526966
-0.09111756847152655
0.5938618313129953
-0.48559390692526966
-0.09111756847152655
0.5938618313129953
-0.48559390692526966
-0.09111756847152655
0.5938618313129953
-0.48559390692526966
-0.09111756847152655
0.5938618313129953
-0.48559390692526966
-0.09111756847152655
0.5938618313129953
-0.48555785012412017
-0.09100477702241665
0.5938320980436456
-0.48555785012412017
-0.09100477702241665
0.5938320980436456
-0.48555785012412017
-0.09100477702241665
0.5938320980436456
-0.48555785012412017
-0.09100477702241665
0.5938320980436456
-0.485631717210259
-0.0916638740758936
0.5937576899102474
-0.485631717210259
-0.0916638740758936
0.5937576899102474
-0.485631717210259
-0.0916638740758936
0.5937576899102474
-0.485631717210259
-0.0916638740758936
0.5937576899102474
-0.4851060731561627
-0.09247630673621594
0.593777292371769
-0.4851060731561627
-0.09247630673621594
0.593777292371769
-0.4851060731561627
-0.09247630673621594
0.593777292371769
-0.4851060731561627
-0.09247630673621594
0.593777292371769
-0.4844114217334791
-0.09297749287440865
0.5942295842644292
-0.4844114217334791
-0.09297749287440865
0.5942295842644292
-0.4844114217334791
-0.09297749287440865
0.5942295842644292
-0.4844114217334791
-0.09297749287440865
0.5942295842644292
-0.4839025258405615
-0.09366859995904663
0.5947376585500743
-0.4839025258405615
-0.09366859995904663
0.5947376585500743
-0.4839025258405615
-0.09366859995904663
0.5947376585500743
-0.4839025258405615
-0.09366859995904663
0.5947376585500743
-0.4833939554513584
-0.094359956273465
0.595245406717545
-0.4833939554513584
-0.094359956273465
0.595245406717545
-0.4833939554513584
-0.094359956273465
0.595245406717545
-0.4833939554513584
-0.094359956273465
0.595245406717545
-0.4829219484379757
-0.09516433181892682
0.5957824872537818
-0.4829219484379757
-0.09516433181892682
0.5957824872537818
-0.4829219484379757
-0.09516433181892682
0.5957824872537818
-0.4829219484379757
-0.09516433181892682
0.5957824872537818
-0.4824503516612414
-0.0959689380973087
0.596319213429753
-0.4824503516612414
-0.0959689380973087
0.596319213429753
-0.4824503516612414
-0.0959689380973087
0.596319213429753
-0.4824503516612414
-0.0959689380973087
0.596319213429753
-0.48171627042444404
-0.09673333545484745
0.5968321335806486
-0.48171627042444404
-0.09673333545484745
0.5968321335806486
-0.48171627042444404
-0.09673333545484745
0.5968321335806486
-0.48171627042444404
-0.09673333545484745
0.5968321335806486
-0.48131931692742186
-0.09736007852214863
0.5974486979916138
-0.48131931692742186
-0.09736007852214863
0.5974486979916138
-0.48131931692742186
-0.09736007852214863
0.5974486979916138
-0.48131931692742186
-0.09736007852214863
0.5974486979916138
-0.48076926378720497
-0.09782422375613403
0.5979319729646349
-0.48076926378720497
-0.09782422375613403
0.5979319729646349
-0.48076926378720497
-0.09782422375613403
0.5979319729646349
-0.48076926378720497
-0.09782422375613403
0.5979319729646349
-0.4805866434366979
-0.09820429310195515
0.5987754966937688
-0.4805866434366979
-0.09820429310195515
0.5987754966937688
-0.4805866434366979
-0.09820429310195515
0.5987754966937688
-0.4805866434366979
-0.09820429310195515
0.5987754966937688
-0.48024160604308197
-0.09833356100518206
0.5998258321224746
-0.48024160604308197
-0.09833356100518206
0.5998258321224746
-0.48024160604308197
-0.09833356100518206
0.5998258321224746
-0.48024160604308197
-0.09833356100518206
0.5998258321224746
-0.4808282886328641
-0.09894727993978046
0.6009589240162724
-0.4808282886328641
-0.09894727993978046
0.6009589240162724
-0.4808282886328641
-0.09894727993978046
0.6009589240162724
-0.4808282886328641
-0.09894727993978046
0.6009589240162724
-0.48019324636558924
-0.10028129691197239
0.6017712464596973
-0.48019324636558924
-0.10028129691197239
0.6017712464596973
-0.48019324636558924
-0.10028129691197239
0.6017712464596973
-0.48019324636558924
-0.10028129691197239
0.6017712464596973
-0.4791025129311722
-0.10170963151660804
0.6021119334475232
-0.4791025129311722
-0.10170963151660804
0.6021119334475232
-0.4791025129311722
-0.10170963151660804
0.6021119334475232
-0.4791025129311722
-0.10170963151660804
0.6021119334475232
-0.478355998282415
-0.10267744474435679
0.6029470547546517
-0.478355998282415
-0.10267744474435679
0.6029470547546517
-0.478355998282415
-0.10267744474435679
0.6029470547546517
-0.478355998282415
-0.10267744474435679
0.6029470547546517
-0.4772595924075457
-0.1040424724444857
0.604220738540558
-0.4772595924075457
-0.1040424724444857
0.604220738540558
-0.4772595924075457
-0.1040424724444857
0.604220738540558
-0.4772595924075457
-0.1040424724444857
0.604220738540558
-0.4758066289589008
-0.1053142453280252
0.6062937263758074
-0.4758066289589008
-0.1053142453280252
0.6062937263758074
-0.4758066289589008
-0.1053142453280252
0.6062937263758074
-0.4758066289589008
-0.1053142453280252
0.6062937263758074
-0.47554629639287105
-0.10696556634499998
0.6081500665624688
-0.47554629639287105
-0.10696556634499998
0.6081500665624688
-0.47554629639287105
-0.10696556634499998
0.6081500665624688
-0.47554629639287105
-0.10696556634499998
0.6081500665624688
-0.4757654603549912
-0.10916417207445188
0.6092873285841159
-0.4757654603549912
-0.10916417207445188
0.6092873285841159
-0.4757654603549912
-0.10916417207445188
0.6092873285841159
-0.4757654603549912
-0.10916417207445188
0.6092873285841159
-0.47585923099760324
-0.1116050619132963
0.6100430498655828
-0.47585923099760324
-0.1116050619132963
0.6100430498655828
-0.47585923099760324
-0.1116050619132963
0.6100430498655828
-0.47585923099760324
-0.1116050619132963
0.6100430498655828
-0.4753514593510706
-0.11411912428692292
0.6107805345038632
-0.4753514593510706
-0.11411912428692292
0.6107805345038632
-0.4753514593510706
-0.11411912428692292
0.6107805345038632
-0.4753514593510706
-0.11411912428692292
0.6107805345038632
-0.47470253876905233
-0.1166730177193801
0.6114815415833041
-0.47470253876905233
-0.1166730177193801
0.6114815415833041
-0.47470253876905233
-0.1166730177193801
0.6114815415833041
-0.47470253876905233
-0.1166730177193801
0.6114815415833041
-0.474561282800995
-0.11936049903772077
0.6126791590715742
-0.474561282800995
-0.11936049903772077
0.6126791590715742
-0.474561282800995
-0.11936049903772077
0.6126791590715742
-0.474561282800995
-0.11936049903772077
0.6126791590715742
-0.4741195777122086
-0.12186878417144414
0.6139341247786017
-0.4741195777122086
-0.12186878417144414
0.6139341247786017
-0.4741195777122086
-0.12186878417144414
0.6139341247786017
-0.4741195777122086
-0.12186878417144414
0.6139341247786017
-0.4737546139730603
-0.12419830422419392
0.6152702458923187
-0.4737546139730603
-0.12419830422419392
0.6152702458923187
-0.4737546139730603
-0.12419830422419392
0.6152702458923187
-0.4737546139730603
-0.12419830422419392
0.6152702458923187
-0.47373535220750956
-0.12647429815739977
0.6163748678107637
-0.47373535220750956
-0.12647429815739977
0.6163748678107637
-0.47373535220750956
-0.12647429815739977
0.6163748678107637
-0.47373535220750956
-0.12647429815739977
0.6163748678107637
-0.47387178263699925
-0.1285093743575352
0.6171908856344182
-0.47387178263699925
-0.1285093743575352
0.6171908856344182
-0.47387178263699925
-0.1285093743575352
0.6171908856344182
-0.47387178263699925
-0.1285093743575352
0.6171908856344182
-0.4734524171507424
-0.13050192939965574
0.6178017529885506
-0.4734524171507424
-0.13050192939965574
0.6178017529885506
-0.4734524171507424
-0.13050192939965574
0.6178017529885506
-0.4734524171507424
-0.13050192939965574
0.6178017529885506
-0.47273474270328475
-0.13199632874838407
0.6185953609121772
-0.47273474270328475
-0.13199632874838407
0.6185953609121772
-0.47273474270328475
-0.13199632874838407
0.6185953609121772
-0.47273474270328475
-0.13199632874838407
0.6185953609121772
-0.472349357039109
-0.13326413758612632
0.6193929447661171
-0.472349357039109
-0.13326413758612632
0.6193929447661171
-0.472349357039109
-0.13326413758612632
0.6193929447661171
-0.472349357039109
-0.13326413758612632
0.6193929447661171
-0.47196435171556433
-0.13418727139599054
0.6199863953920319
-0.47196435171556433
-0.13418727139599054
0.6199863953920319
-0.47196435171556433
-0.13418727139599054
0.6199863953920319
-0.47196435171556433
-0.13418727139599054
0.6199863953920319
-0.4714350281525078
-0.13477519152636402
0.6204518433654858
-0.4714350281525078
-0.13477519152636402
0.6204518433654858
-0.4714350281525078
-0.13477519152636402
0.6204518433654858
-0.4714350281525078
-0.13477519152636402
0.6204518433654858
-0.4709435004828973
-0.1351304806707306
0.6207431869910959
-0.4709435004828973
-0.1351304806707306
0.6207431869910959
-0.4709435004828973
-0.1351304806707306
0.6207431869910959
-0.4709435004828973
-0.1351304806707306
0.6207431869910959
-0.4709435004828973
-0.1351304806707306
0.6207431869910959
-0.4709435004828973
-0.1351304806707306
0.6207431869910959
-0.4709435004828973
-0.1351304806707306
0.6207431869910959
-0.4709435004828973
-0.1351304806707306
0.6207431869910959
-0.4708005143185414
-0.1351695240226108
0.6207058919287631
-0.4708005143185414
-0.1351695240226108
0.6207058919287631
-0.4708005143185414
-0.1351695240226108
0.6207058919287631
-0.4708005143185414
-0.1351695240226108
0.6207058919287631
-0.4708005143185414
-0.1351695240226108
0.6207058919287631
-0.4708005143185414
-0.1351695240226108
0.6207058919287631
-0.4708005143185414
-0.1351695240226108
0.6207058919287631
-0.4708005143185414
-0.1351695240226108
0.6207058919287631
-0.4708005143185414
-0.1351695240226108
0.6207058919287631
-0.4708005143185414
-0.1351695240226108
0.6207058919287631
-0.4708005143185414
-0.1351695240226108
0.6207058919287631
-0.4708005143185414
-0.1351695240226108
0.6207058919287631
-0.47083990743678444
-0.1353112036610031
0.6206224458166013
-0.47083990743678444
-0.1353112036610031
0.6206224458166013
-0.47083990743678444
-0.1353112036610031
0.6206224458166013
-0.47083990743678444
-0.1353112036610031
0.6206224458166013
-0.47072668856837535
-0.13534919912169768
0.6206234861131007
-0.47072668856837535
-0.13534919912169768
0.6206234861131007
-0.47072668856837535
-0.13534919912169768
0.6206234861131007
-0.47072668856837535
-0.13534919912169768
0.6206234861131007
-0.47072668856837535
-0.13534919912169768
0.6206234861131007
-0.47072668856837535
-0.13534919912169768
0.6206234861131007
-0.47072668856837535
-0.13534919912169768
0.6206234861131007
-0.47072668856837535
-0.13534919912169768
0.6206234861131007
-0.47072668856837535
-0.13534919912169768
0.6206234861131007
-0.47072668856837535
-0.13534919912169768
0.6206234861131007
-0.47072668856837535
-0.13534919912169768
0.6206234861131007
-0.47072668856837535
-0.13534919912169768
0.6206234861131007
-0.47072668856837535
-0.13534919912169768
0.6206234861131007
-0.47072668856837535
-0.13534919912169768
0.6206234861131007
-0.47072668856837535
-0.13534919912169768
0.6206234861131007
-0.47072668856837535
-0.13534919912169768
0.6206234861131007
-0.4709953522241499
-0.13581894252215698
0.6205151367494921
-0.4709953522241499
-0.13581894252215698
0.6205151367494921
-0.4709953522241499
-0.13581894252215698
0.6205151367494921
-0.4709953522241499
-0.13581894252215698
0.6205151367494921
-0.4711517389259548
-0.13635623538903993
0.6202946729927836
-0.4711517389259548
-0.13635623538903993
0.6202946729927836
-0.4711517389259548
-0.13635623538903993
0.6202946729927836
-0.4711517389259548
-0.13635623538903993
0.6202946729927836
-0.471343610919485
-0.13660169089192054
0.6201268779134722
-0.471343610919485
-0.13660169089192054
0.6201268779134722
-0.471343610919485
-0.13660169089192054
0.6201268779134722
-0.471343610919485
-0.13660169089192054
0.6201268779134722
-0.47199110294655566
-0.13709933709169378
0.6199326100489292
-0.47199110294655566
-0.13709933709169378
0.6199326100489292
-0.47199110294655566
-0.13709933709169378
0.6199326100489292
-0.47199110294655566
-0.13709933709169378
0.6199326100489292
-0.47237464300726784
-0.13759048274794228
0.6195973895723834
-0.47237464300726784
-0.13759048274794228
0.6195973895723834
-0.47237464300726784
-0.13759048274794228
0.6195973895723834
-0.47237464300726784
-0.13759048274794228
0.6195973895723834
-0.4726822406755305
-0.1382022243243356
0.6194064016866427
-0.4726822406755305
-0.1382022243243356
0.6194064016866427
-0.4726822406755305
-0.1382022243243356
0.6194064016866427
-0.4726822406755305
-0.1382022243243356
0.6194064016866427
-0.472650867154879
-0.13895756548202318
0.6191049077908589
-0.472650867154879
-0.13895756548202318
0.6191049077908589
-0.472650867154879
-0.13895756548202318
0.6191049077908589
-0.472650867154879
-0.13895756548202318
0.6191049077908589
-0.4728141909220723
-0.13957850482621906
0.6189899089047206
-0.4728141909220723
-0.13957850482621906
0.6189899089047206
-0.4728141909220723
-0.13957850482621906
0.6189899089047206
-0.4728141909220723
-0.13957850482621906
0.6189899089047206
-0.47311411806269593
-0.14042212389507713
0.6190116991555781
-0.47311411806269593
-0.14042212389507713
0.6190116991555781
-0.47311411806269593
-0.14042212389507713
0.6190116991555781
-0.47311411806269593
-0.14042212389507713
0.6190116991555781
-0.47342243236491904
-0.1413786358284357
0.6190254359040969
-0.47342243236491904
-0.1413786358284357
0.6190254359040969
-0.47342243236491904
-0.1413786358284357
0.6190254359040969
-0.47342243236491904
-0.1413786358284357
0.6190254359040969
-0.4736482796540205
-0.14240218895035753
0.6189652613856604
-0.4736482796540205
-0.14240218895035753
0.6189652613856604
-0.4736482796540205
-0.14240218895035753
0.6189652613856604
-0.4736482796540205
-0.14240218895035753
0.6189652613856604
-0.47380499573208545
-0.14328455495351883
0.6189500659988337
-0.47380499573208545
-0.14328455495351883
0.6189500659988337
-0.47380499573208545
-0.14328455495351883
0.6189500659988337
-0.47380499573208545
-0.14328455495351883
0.6189500659988337
-0.4736577785339595
-0.1439889024001269
0.6189891695015932
-0.4736577785339595
-0.1439889024001269
0.6189891695015932
-0.4736577785339595
-0.1439889024001269
0.6189891695015932
-0.4736577785339595
-0.1439889024001269
0.6189891695015932
-0.4734716082546897
-0.1445513619397635
0.6191113315282408
-0.4734716082546897
-0.1445513619397635
0.6191113315282408
-0.4734716082546897
-0.1445513619397635
0.6191113315282408
-0.4734716082546897
-0.1445513619397635
0.6191113315282408
-0.4734736193434695
-0.14492568101274775
0.6192022409636853
-0.4734736193434695
-0.14492568101274775
0.6192022409636853
-0.4734736193434695
-0.14492568101274775
0.6192022409636853
-0.4734736193434695
-0.14492568101274775
0.6192022409636853
-0.4736273923691963
-0.14537403080539749
0.6193227938480942
-0.4736273923691963
-0.14537403080539749
0.6193227938480942
-0.4736273923691963
-0.14537403080539749
0.6193227938480942
-0.4736273923691963
-0.14537403080539749
0.6193227938480942
-0.473477260703951
-0.1456444639941068
0.6194973483637211
-0.473477260703951
-0.1456444639941068
0.6194973483637211
-0.473477260703951
-0.1456444639941068
0.6194973483637211
-0.473477260703951
-0.1456444639941068
0.6194973483637211
-0.47332551875253703
-0.14557044053915455
0.6194676955235315
-0.47332551875253703
-0.14557044053915455
0.6194676955235315
-0.47332551875253703
-0.14557044053915455
0.6194676955235315
-0.47332551875253703
-0.14557044053915455
0.6194676955235315
-0.47332551875253703
-0.14557044053915455
0.6194676955235315
-0.47332551875253703
-0.14557044053915455
0.6194676955235315
-0.47332551875253703
-0.14557044053915455
0.6194676955235315
-0.47332551875253703
-0.14557044053915455
0.6194676955235315
-0.47332551875253703
-0.14557044053915455
0.6194676955235315
-0.47332551875253703
-0.14557044053915455
0.6194676955235315
-0.47332551875253703
-0.14557044053915455
0.6194676955235315
-0.47332551875253703
-0.14557044053915455
0.6194676955235315
-0.47317067461410856
-0.14506248664222637
0.6195737555706015
-0.47317067461410856
-0.14506248664222637
0.6195737555706015
-0.47317067461410856
-0.14506248664222637
0.6195737555706015
-0.47317067461410856
-0.14506248664222637
0.6195737555706015
-0.4732428763534926
-0.14450823345798505
0.6195655256949979
-0.4732428763534926
-0.14450823345798505
0.6195655256949979
-0.4732428763534926
-0.14450823345798505
0.6195655256949979
-0.4732428763534926
-0.14450823345798505
0.6195655256949979
-0.47330673546801355
-0.14384131499118352
0.6195655964567932
-0.47330673546801355
-0.14384131499118352
0.6195655964567932
-0.47330673546801355
-0.14384131499118352
0.6195655964567932
-0.47330673546801355
-0.14384131499118352
0.6195655964567932
-0.47333988242747305
-0.14314516300866695
0.6196404614395383
-0.47333988242747305
-0.14314516300866695
0.6196404614395383
-0.47333988242747305
-0.14314516300866695
0.6196404614395383
-0.47333988242747305
-0.14314516300866695
0.6196404614395383
-0.4734862230281631
-0.142411000847888
0.6197146210592758
-0.4734862230281631
-0.142411000847888
0.6197146210592758
-0.4734862230281631
-0.142411000847888
0.6197146210592758
-0.4734862230281631
-0.142411000847888
0.6197146210592758
-0.47317951209058856
-0.14182897705930694
0.6197915056980778
-0.47317951209058856
-0.14182897705930694
0.6197915056980778
-0.47317951209058856
-0.14182897705930694
0.6197915056980778
-0.47317951209058856
-0.14182897705930694
0.6197915056980778
-0.4731760840534971
-0.14139513125466538
0.6199271587457724
-0.4731760840534971
-0.14139513125466538
0.6199271587457724
-0.4731760840534971
-0.14139513125466538
0.6199271587457724
-0.4731760840534971
-0.14139513125466538
0.6199271587457724
-0.47309852239134803
-0.1411411745446688
0.6199803379853365
-0.47309852239134803
-0.1411411745446688
0.6199803379853365
-0.47309852239134803
-0.1411411745446688
0.6199803379853365
-0.47309852239134803
-0.1411411745446688
0.6199803379853365
-0.4730209499503263
-0.14088722213309093
0.6200335351572678
-0.4730209499503263
-0.14088722213309093
0.6200335351572678
-0.4730209499503263
-0.14088722213309093
0.6200335351572678
-0.4730209499503263
-0.14088722213309093
0.6200335351572678
-0.47301819516462795
-0.14048312803313
0.6200559681055335
-0.47301819516462795
-0.14048312803313
0.6200559681055335
-0.47301819516462795
-0.14048312803313
0.6200559681055335
-0.47301819516462795
-0.14048312803313
0.6200559681055335
-0.47331110304087687
-0.14014403197023598
0.620031966606314
-0.47331110304087687
-0.14014403197023598
0.620031966606314
-0.47331110304087687
-0.14014403197023598
0.620031966606314
-0.47331110304087687
-0.14014403197023598
0.620031966606314
-0.47331110304087687
-0.14014403197023598
0.620031966606314
-0.47331110304087687
-0.14014403197023598
0.620031966606314
-0.47331110304087687
-0.14014403197023598
0.620031966606314
-0.47331110304087687
-0.14014403197023598
0.620031966606314
-0.47331110304087687
-0.14014403197023598
0.620031966606314
-0.47331110304087687
-0.14014403197023598
0.620031966606314
-0.47331110304087687
-0.14014403197023598
0.620031966606314
-0.47331110304087687
-0.14014403197023598
0.620031966606314
-0.4731978698490845
-0.1401820541098163
0.6200327696132819
-0.4731978698490845
-0.1401820541098163
0.6200327696132819
-0.4731978698490845
-0.1401820541098163
0.6200327696132819
-0.4731978698490845
-0.1401820541098163
0.6200327696132819
-0.47316785949107404
-0.14018284648352558
0.619994372446746
-0.47316785949107404
-0.14018284648352558
0.619994372446746
-0.47316785949107404
-0.14018284648352558
0.619994372446746
-0.47316785949107404
-0.14018284648352558
0.619994372446746
-0.47316785949107404
-0.14018284648352558
0.619994372446746
-0.47316785949107404
-0.14018284648352558
0.619994372446746
-0.47316785949107404
-0.14018284648352558
0.619994372446746
-0.47316785949107404
-0.14018284648352558
0.619994372446746
-0.47316785949107404
-0.14018284648352558
0.619994372446746
-0.47316785949107404
-0.14018284648352558
0.619994372446746
-0.47316785949107404
-0.14018284648352558
0.619994372446746
-0.47316785949107404
-0.14018284648352558
0.619994372446746
-0.47305462815547816
-0.14022086536423714
0.6199951698870071
-0.47305462815547816
-0.14022086536423714
0.6199951698870071
-0.47305462815547816
-0.14022086536423714
0.6199951698870071
-0.47305462815547816
-0.14022086536423714
0.6199951698870071
-0.47305462815547816
-0.14022086536423714
0.6199951698870071
-0.47305462815547816
-0.14022086536423714
0.6199951698870071
-0.47305462815547816
-0.14022086536423714
0.6199951698870071
-0.47305462815547816
-0.14022086536423714
0.6199951698870071
-0.47305462815547816
-0.14022086536423714
0.6199951698870071
-0.47305462815547816
-0.14022086536423714
0.6199951698870071
-0.47305462815547816
-0.14022086536423714
0.6199951698870071
-0.47305462815547816
-0.14022086536423714
0.6199951698870071
-0.47305462815547816
-0.14022086536423714
0.6199951698870071
-0.47305462815547816
-0.14022086536423714
0.6199951698870071
-0.47305462815547816
-0.14022086536423714
0.6199951698870071
-0.47305462815547816
-0.14022086536423714
0.6199951698870071
-0.4729797926252472
-0.14037100815456935
0.6200259633920937
-0.4729797926252472
-0.14037100815456935
0.6200259633920937
-0.4729797926252472
-0.14037100815456935
0.6200259633920937
-0.4729797926252472
-0.14037100815456935
0.6200259633920937
-0.4729797926252472
-0.14037100815456935
0.6200259633920937
-0.4729797926252472
-0.14037100815456935
0.6200259633920937
-0.4729797926252472
-0.14037100815456935
0.6200259633920937
-0.4729797926252472
-0.14037100815456935
0.6200259633920937
-0.4729797926252472
-0.14037100815456935
0.6200259633920937
-0.4729797926252472
-0.14037100815456935
0.6200259633920937
-0.4729797926252472
-0.14037100815456935
0.6200259633920937
-0.4729797926252472
-0.14037100815456935
0.6200259633920937
-0.4729797926252472
-0.14037100815456935
0.6200259633920937
-0.4729797926252472
-0.14037100815456935
0.6200259633920937
-0.4729797926252472
-0.14037100815456935
0.6200259633920937
-0.4729797926252472
-0.14037100815456935
0.6200259633920937
-0.4729797926252472
-0.14037100815456935
0.6200259633920937
-0.4729797926252472
-0.14037100815456935
0.6200259633920937
-0.4729797926252472
-0.14037100815456935
0.6200259633920937
-0.4729797926252472
-0.14037100815456935
0.6200259633920937
-0.47286655579721915
-0.1404090318176286
0.6200267469597636
-0.47286655579721915
-0.1404090318176286
0.6200267469597636
-0.47286655579721915
-0.1404090318176286
0.6200267469597636
-0.47286655579721915
-0.1404090318176286
0.6200267469597636
-0.47286655579721915
-0.1404090318176286
0.6200267469597636
-0.47286655579721915
-0.1404090318176286
0.6200267469597636
-0.47286655579721915
-0.1404090318176286
0.6200267469597636
-0.47286655579721915
-0.1404090318176286
0.6200267469597636
-0.4730566010718296
-0.1405952449054865
0.6200859771442133
-0.4730566010718296
-0.1405952449054865
0.6200859771442133
-0.4730566010718296
-0.1405952449054865
0.6200859771442133
-0.4730566010718296
-0.1405952449054865
0.6200859771442133
-0.4730566010718296
-0.1405952449054865
0.6200859771442133
-0.4730566010718296
-0.1405952449054865
0.6200859771442133
-0.4730566010718296
-0.1405952449054865
0.6200859771442133
-0.4730566010718296
-0.1405952449054865
0.6200859771442133
-0.4730566010718296
-0.1405952449054865
0.6200859771442133
-0.4730566010718296
-0.1405952449054865
0.6200859771442133
-0.4730566010718296
-0.1405952449054865
0.6200859771442133
-0.4730566010718296
-0.1405952449054865
0.6200859771442133
-0.4730566010718296
-0.1405952449054865
0.6200859771442133
-0.4730566010718296
-0.1405952449054865
0.6200859771442133
-0.4730566010718296
-0.1405952449054865
0.6200859771442133
-0.4730566010718296
-0.1405952449054865
0.6200859771442133
-0.4730566010718296
-0.1405952449054865
0.6200859771442133
-0.4730566010718296
-0.1405952449054865
0.6200859771442133
-0.4730566010718296
-0.1405952449054865
0.6200859771442133
-0.4730566010718296
-0.1405952449054865
0.6200859771442133
-0.4730566010718296
-0.1405952449054865
0.6200859771442133
-0.4730566010718296
-0.1405952449054865
0.6200859771442133
-0.4730566010718296
-0.1405952449054865
0.6200859771442133
-0.4730566010718296
-0.1405952449054865
0.6200859771442133
-0.4730566010718296
-0.1405952449054865
0.6200859771442133
-0.4730566010718296
-0.1405952449054865
0.6200859771442133
-0.4730566010718296
-0.1405952449054865
0.6200859771442133
-0.4730566010718296
-0.1405952449054865
0.6200859771442133
-0.4730566010718296
-0.1405952449054865
0.6200859771442133
-0.4730566010718296
-0.1405952449054865
0.6200859771442133
-0.4730566010718296
-0.1405952449054865
0.6200859771442133
-0.4730566010718296
-0.1405952449054865
0.6200859771442133
-0.4730566010718296
-0.1405952449054865
0.6200859771442133
-0.4730566010718296
-0.1405952449054865
0.6200859771442133
-0.4730566010718296
-0.1405952449054865
0.6200859771442133
-0.4730566010718296
-0.1405952449054865
0.6200859771442133
-0.4730538311937254
-0.14019115694563583
0.6201084007440947
-0.4730538311937254
-0.14019115694563583
0.6201084007440947
-0.4730538311937254
-0.14019115694563583
0.6201084007440947
-0.4730538311937254
-0.14019115694563583
0.6201084007440947
-0.47289943101223814
-0.13971296948667955
0.6201016580057657
-0.47289943101223814
-0.13971296948667955
0.6201016580057657
-0.47289943101223814
-0.13971296948667955
0.6201016580057657
-0.47289943101223814
-0.13971296948667955
0.6201016580057657
-0.47274588497394704
-0.139264441336546
0.6199817578956127
-0.47274588497394704
-0.139264441336546
0.6199817578956127
-0.47274588497394704
-0.139264441336546
0.6199817578956127
-0.47274588497394704
-0.139264441336546
0.6199817578956127
-0.4728572301458913
-0.13885201579616913
0.61989015057405
-0.4728572301458913
-0.13885201579616913
0.61989015057405
-0.4728572301458913
-0.13885201579616913
0.61989015057405
-0.4728572301458913
-0.13885201579616913
0.61989015057405
-0.47271219437799117
-0.13851645238558177
0.619761923391032
-0.47271219437799117
-0.13851645238558177
0.619761923391032
-0.47271219437799117
-0.13851645238558177
0.619761923391032
-0.47271219437799117
-0.13851645238558177
0.619761923391032
-0.4727505140694171
-0.13831349534577467
0.6194746750805294
-0.4727505140694171
-0.13831349534577467
0.6194746750805294
-0.4727505140694171
-0.13831349534577467
0.6194746750805294
-0.4727505140694171
-0.13831349534577467
0.6194746750805294
-0.472797263745633
-0.13822358351154598
0.6191790357178595
-0.472797263745633
-0.13822358351154598
0.6191790357178595
-0.472797263745633
-0.13822358351154598
0.6191790357178595
-0.472797263745633
-0.13822358351154598
0.6191790357178595
-0.4728066405363631
-0.13805118537298816
0.6187402232907347
-0.4728066405363631
-0.13805118537298816
0.6187402232907347
-0.4728066405363631
-0.13805118537298816
0.6187402232907347
-0.4728066405363631
-0.13805118537298816
0.6187402232907347
-0.472587793873465
-0.13789529629340802
0.6185297204485797
-0.472587793873465
-0.13789529629340802
0.6185297204485797
-0.472587793873465
-0.13789529629340802
0.6185297204485797
-0.472587793873465
-0.13789529629340802
0.6185297204485797
-0.4723707806119729
-0.13779862420211178
0.6180927413221808
-0.4723707806119729
-0.13779862420211178
0.6180927413221808
-0.4723707806119729
-0.13779862420211178
0.6180927413221808
-0.4723707806119729
-0.13779862420211178
0.6180927413221808
-0.472266185990057
-0.1376343723144065
0.6177681520573556
-0.472266185990057
-0.1376343723144065
0.6177681520573556
-0.472266185990057
-0.1376343723144065
0.6177681520573556
-0.472266185990057
-0.1376343723144065
0.6177681520573556
-0.4721607500830805
-0.13744047606253712
0.6175568652893357
-0.4721607500830805
-0.13744047606253712
0.6175568652893357
-0.4721607500830805
-0.13744047606253712
0.6175568652893357
-0.4721607500830805
-0.13744047606253712
0.6175568652893357
-0.47167513620921053
-0.13684378213349382
0.6173412441135363
-0.47167513620921053
-0.13684378213349382
0.6173412441135363
-0.47167513620921053
-0.13684378213349382
0.6173412441135363
-0.47167513620921053
-0.13684378213349382
0.6173412441135363
-0.4712247186917862
-0.13592560328615244
0.6172919169673552
-0.4712247186917862
-0.13592560328615244
0.6172919169673552
-0.4712247186917862
-0.13592560328615244
0.6172919169673552
-0.4712247186917862
-0.13592560328615244
0.6172919169673552
-0.47058585414656773
-0.1348502002191488
0.6170712250890937
-0.47058585414656773
-0.1348502002191488
0.6170712250890937
-0.47058585414656773
-0.1348502002191488
0.6170712250890937
-0.47058585414656773
-0.1348502002191488
0.6170712250890937
-0.4700680921943443
-0.1331303683471276
0.6165481854922787
-0.4700680921943443
-0.1331303683471276
0.6165481854922787
-0.4700680921943443
-0.1331303683471276
0.6165481854922787
-0.4700680921943443
-0.1331303683471276
0.6165481854922787
-0.4702258669926211
-0.13150409044307737
0.6158909957733342
-0.4702258669926211
-0.13150409044307737
0.6158909957733342
-0.4702258669926211
-0.13150409044307737
0.6158909957733342
-0.4702258669926211
-0.13150409044307737
0.6158909957733342
-0.4702043671258379
-0.13017906674621854
0.615257501688766
-0.4702043671258379
-0.13017906674621854
0.615257501688766
-0.4702043671258379
-0.13017906674621854
0.615257501688766
-0.4702043671258379
-0.13017906674621854
0.615257501688766
-0.46946472130214034
-0.12893793318853888
0.6147157201272032
-0.46946472130214034
-0.12893793318853888
0.6147157201272032
-0.46946472130214034
-0.12893793318853888
0.6147157201272032
-0.46946472130214034
-0.12893793318853888
0.6147157201272032
-0.4680623956517494
-0.12777427832899108
0.6140764119763737
-0.4680623956517494
-0.12777427832899108
0.6140764119763737
-0.4680623956517494
-0.12777427832899108
0.6140764119763737
-0.4680623956517494
-0.12777427832899108
0.6140764119763737
-0.4676280035890883
-0.1263363455687662
0.6133901361875722
-0.4676280035890883
-0.1263363455687662
0.6133901361875722
-0.4676280035890883
-0.1263363455687662
0.6133901361875722
-0.4676280035890883
-0.1263363455687662
0.6133901361875722
-0.4682341571115841
-0.12479150846194847
0.6129404326652066
-0.4682341571115841
-0.12479150846194847
0.6129404326652066
-0.4682341571115841
-0.12479150846194847
0.6129404326652066
-0.4682341571115841
-0.12479150846194847
0.6129404326652066
-0.4688408836341577
-0.12324696830786114
0.6124898798673488
-0.4688408836341577
-0.12324696830786114
0.6124898798673488
-0.4688408836341577
-0.12324696830786114
0.6124898798673488
-0.4688408836341577
-0.12324696830786114
0.6124898798673488
-0.46933487413341446
-0.12174007381519744
0.6120401397952552
-0.46933487413341446
-0.12174007381519744
0.6120401397952552
-0.46933487413341446
-0.12174007381519744
0.6120401397952552
-0.46933487413341446
-0.12174007381519744
0.6120401397952552
-0.46881667999102766
-0.12027939525776184
0.6116206245055531
-0.46881667999102766
-0.12027939525776184
0.6116206245055531
-0.46881667999102766
-0.12027939525776184
0.6116206245055531
-0.46881667999102766
-0.12027939525776184
0.6116206245055531
-0.4692468920756881
-0.11869105630417447
0.6109901219280259
-0.4692468920756881
-0.11869105630417447
0.6109901219280259
-0.4692468920756881
-0.11869105630417447
0.6109901219280259
-0.4692468920756881
-0.11869105630417447
0.6109901219280259
-0.46960502815821925
-0.11690713706248064
0.6101871202740379
-0.46960502815821925
-0.11690713706248064
0.6101871202740379
-0.46960502815821925
-0.11690713706248064
0.6101871202740379
-0.46960502815821925
-0.11690713706248064
0.6101871202740379
-0.470507477236859
-0.11577487585597102
0.6098863368898476
-0.470507477236859
-0.11577487585597102
0.6098863368898476
-0.470507477236859
-0.11577487585597102
0.6098863368898476
-0.470507477236859
-0.11577487585597102
0.6098863368898476
-0.470658665984008
-0.11429286053257416
0.6097800054029758
-0.470658665984008
-0.11429286053257416
0.6097800054029758
-0.470658665984008
-0.11429286053257416
0.6097800054029758
-0.470658665984008
-0.11429286053257416
0.6097800054029758
-0.47141440157293324
-0.112739869850779
0.6092468211909254
-0.47141440157293324
-0.112739869850779
0.6092468211909254
-0.47141440157293324
-0.112739869850779
0.6092468211909254
-0.47141440157293324
-0.112739869850779
0.6092468211909254
-0.47284104345986183
-0.11163205970113298
0.6080645785933683
-0.47284104345986183
-0.11163205970113298
0.6080645785933683
-0.47284104345986183
-0.11163205970113298
0.6080645785933683
-0.47284104345986183
-0.11163205970113298
0.6080645785933683
-0.47264916308827043
-0.11139065753584373
0.6070795899817321
-0.47264916308827043
-0.11139065753584373
0.6070795899817321
-0.47264916308827043
-0.11139065753584373
0.6070795899817321
-0.47264916308827043
-0.11139065753584373
0.6070795899817321
-0.47155008485974886
-0.11184627885544034
0.6065347695423721
-0.47155008485974886
-0.11184627885544034
0.6065347695423721
-0.47155008485974886
-0.11184627885544034
0.6065347695423721
-0.47155008485974886
-0.11184627885544034
0.6065347695423721
-0.4719874498018281
-0.11268375466545899
0.6057627672657174
-0.4719874498018281
-0.11268375466545899
0.6057627672657174
-0.4719874498018281
-0.11268375466545899
0.6057627672657174
-0.4719874498018281
-0.11268375466545899
0.6057627672657174
-0.47370465315046506
-0.11357678001220674
0.6047555399176199
-0.47370465315046506
-0.11357678001220674
0.6047555399176199
-0.47370465315046506
-0.11357678001220674
0.6047555399176199
-0.47370465315046506
-0.11357678001220674
0.6047555399176199
-0.47523363207564856
-0.11428305187235381
0.603692685286422
-0.47523363207564856
-0.11428305187235381
0.603692685286422
-0.47523363207564856
-0.11428305187235381
0.603692685286422
-0.47523363207564856
-0.11428305187235381
0.603692685286422
-0.4761148102115775
-0.11526495934306533
0.6028994139260413
-0.4761148102115775
-0.11526495934306533
0.6028994139260413
-0.4761148102115775
-0.11526495934306533
0.6028994139260413
-0.4761148102115775
-0.11526495934306533
0.6028994139260413
-0.4766220892795543
-0.11589666233546227
0.6023247642386279
-0.4766220892795543
-0.11589666233546227
0.6023247642386279
-0.4766220892795543
-0.11589666233546227
0.6023247642386279
-0.4766220892795543
-0.11589666233546227
0.6023247642386279
-0.47682645027353515
-0.11634728545200398
0.6018082159676765
-0.47682645027353515
-0.11634728545200398
0.6018082159676765
-0.47682645027353515
-0.11634728545200398
0.6018082159676765
-0.47682645027353515
-0.11634728545200398
0.6018082159676765
-0.4768407694858085
-0.1169839513047956
0.6013253292053552
-0.4768407694858085
-0.1169839513047956
0.6013253292053552
-0.4768407694858085
-0.1169839513047956
0.6013253292053552
-0.4768407694858085
-0.1169839513047956
0.6013253292053552
-0.4771086939582505
-0.11791992077231347
0.600966769228719
-0.4771086939582505
-0.11791992077231347
0.600966769228719
-0.4771086939582505
-0.11791992077231347
0.600966769228719
-0.4771086939582505
-0.11791992077231347
0.600966769228719
-0.4779450904970855
-0.1187023787859894
0.6004859381412258
-0.4779450904970855
-0.1187023787859894
0.6004859381412258
-0.4779450904970855
-0.1187023787859894
0.6004859381412258
-0.4779450904970855
-0.1187023787859894
0.6004859381412258
-0.4785050993152766
-0.11924250480146184
0.6003265863498959
-0.4785050993152766
-0.11924250480146184
0.6003265863498959
-0.4785050993152766
-0.11924250480146184
0.6003265863498959
-0.4785050993152766
-0.11924250480146184
0.6003265863498959
-0.47903693728630586
-0.11981422984140083
0.6000172259258192
-0.47903693728630586
-0.11981422984140083
0.6000172259258192
-0.47903693728630586
-0.11981422984140083
0.6000172259258192
-0.47903693728630586
-0.11981422984140083
0.6000172259258192
-0.4795668760682294
-0.1203563538042378
0.5998215394719397
-0.4795668760682294
-0.1203563538042378
0.5998215394719397
-0.4795668760682294
-0.1203563538042378
0.5998215394719397
-0.4795668760682294
-0.1203563538042378
0.5998215394719397
-0.4801997304973918
-0.12068806602030582
0.5998580462405574
-0.4801997304973918
-0.12068806602030582
0.5998580462405574
-0.4801997304973918
-0.12068806602030582
0.5998580462405574
-0.4801997304973918
-0.12068806602030582
0.5998580462405574
-0.4804538632246447
-0.12098732956721843
0.5999832888188169
-0.4804538632246447
-0.12098732956721843
0.5999832888188169
-0.4804538632246447
-0.12098732956721843
0.5999832888188169
-0.4804538632246447
-0.12098732956721843
0.5999832888188169
-0.4804538632246447
-0.12098732956721843
0.5999832888188169
-0.4804538632246447
-0.12098732956721843
0.5999832888188169
-0.4804538632246447
-0.12098732956721843
0.5999832888188169
-0.4804538632246447
-0.12098732956721843
0.5999832888188169
-0.4806427983757334
-0.1212055772646525
0.5999282732575085
-0.4806427983757334
-0.1212055772646525
0.5999282732575085
-0.4806427983757334
-0.1212055772646525
0.5999282732575085
-0.4806427983757334
-0.1212055772646525
0.5999282732575085
-0.48097515572938615
-0.12138547847362867
0.5999085056129894
-0.48097515572938615
-0.12138547847362867
0.5999085056129894
-0.48097515572938615
-0.12138547847362867
0.5999085056129894
-0.48097515572938615
-0.12138547847362867
0.5999085056129894
-0.4816072391895803
-0.1212831517299715
0.6000802407362229
-0.4816072391895803
