-0.3320589178240272
-0.10884237621324576
0.6717525860067833
-0.3320589178240272
-0.10884237621324576
0.6717525860067833
-0.32693784181258323
-0.10931170786175884
0.6759666648641622
-0.32693784181258323
-0.10931170786175884
0.6759666648641622
-0.32693784181258323
-0.10931170786175884
0.6759666648641622
-0.32693784181258323
-0.10931170786175884
0.6759666648641622
-0.31812608864242753
-0.1094030748461805
0.6799790101506706
-0.31812608864242753
-0.1094030748461805
0.6799790101506706
-0.31055989667539796
-0.11045646119809308
0.6827217903267656
-0.31055989667539796
-0.11045646119809308
0.6827217903267656
-0.31055989667539796
-0.11045646119809308
0.6827217903267656
-0.31055989667539796
-0.11045646119809308
0.6827217903267656
-0.30348090982369
-0.1115346466173526
0.6861908775001395
-0.30348090982369
-0.1115346466173526
0.6861908775001395
-0.30348090982369
-0.1115346466173526
0.6861908775001395
-0.30348090982369
-0.1115346466173526
0.6861908775001395
-0.29825009056451146
-0.11347763526670052
0.6893429308914603
-0.29825009056451146
-0.11347763526670052
0.6893429308914603
-0.29825009056451146
-0.11347763526670052
0.6893429308914603
-0.29825009056451146
-0.11347763526670052
0.6893429308914603
-0.29451244817231087
-0.11518056807835285
0.6925003003988665
-0.29451244817231087
-0.11518056807835285
0.6925003003988665
-0.29451244817231087
-0.11518056807835285
0.6925003003988665
-0.29451244817231087
-0.11518056807835285
0.6925003003988665
-0.29410325505817
-0.11725938812903493
0.6948968256758539
-0.29410325505817
-0.11725938812903493
0.6948968256758539
-0.29410325505817
-0.11725938812903493
0.6948968256758539
-0.29410325505817
-0.11725938812903493
0.6948968256758539
-0.29322279628190207
-0.11977224164112397
0.6962722547016402
-0.29322279628190207
-0.11977224164112397
0.6962722547016402
-0.29322279628190207
-0.11977224164112397
0.6962722547016402
-0.29322279628190207
-0.11977224164112397
0.6962722547016402
-0.2920758016300001
-0.12244572431132392
0.6971040043881116
-0.2920758016300001
-0.12244572431132392
0.6971040043881116
-0.2920758016300001
-0.12244572431132392
0.6971040043881116
-0.2920758016300001
-0.12244572431132392
0.6971040043881116
-0.29086591594669714
-0.12487613169284173
0.6980506327190242
-0.29086591594669714
-0.12487613169284173
0.6980506327190242
-0.29086591594669714
-0.12487613169284173
0.6980506327190242
-0.29086591594669714
-0.12487613169284173
0.6980506327190242
-0.2884770213143498
-0.12689158756033836
0.6992818731337851
-0.2884770213143498
-0.12689158756033836
0.6992818731337851
-0.2884770213143498
-0.12689158756033836
0.6992818731337851
-0.2884770213143498
-0.12689158756033836
0.6992818731337851
-0.28581245215072254
-0.12808321569068667
0.7006450594204783
-0.28581245215072254
-0.12808321569068667
0.7006450594204783
-0.28581245215072254
-0.12808321569068667
0.7006450594204783
-0.28581245215072254
-0.12808321569068667
0.7006450594204783
-0.2845439397430523
-0.1284813344946994
0.7020992568851261
-0.2845439397430523
-0.1284813344946994
0.7020992568851261
-0.2845439397430523
-0.1284813344946994
0.7020992568851261
-0.2845439397430523
-0.1284813344946994
0.7020992568851261
-0.2838243894296178
-0.1283626372365565
0.7030490702177208
-0.2838243894296178
-0.1283626372365565
0.7030490702177208
-0.2838243894296178
-0.1283626372365565
0.7030490702177208
-0.2838243894296178
-0.1283626372365565
0.7030490702177208
-0.28368321455114276
-0.12848795044736788
0.7036062853328751
-0.28368321455114276
-0.12848795044736788
0.7036062853328751
-0.28368321455114276
-0.12848795044736788
0.7036062853328751
-0.28368321455114276
-0.12848795044736788
0.7036062853328751
-0.2833305689299772
-0.12924624221588457
0.7038081015522671
-0.2833305689299772
-0.12924624221588457
0.7038081015522671
-0.2833305689299772
-0.12924624221588457
0.7038081015522671
-0.2833305689299772
-0.12924624221588457
0.7038081015522671
-0.28400117162453936
-0.13052237771135175
0.7043513723001646
-0.28400117162453936
-0.13052237771135175
0.7043513723001646
-0.28400117162453936
-0.13052237771135175
0.7043513723001646
-0.28400117162453936
-0.13052237771135175
0.7043513723001646
-0.28544745734857374
-0.13226250300726444
0.7043164469692696
-0.28544745734857374
-0.13226250300726444
0.7043164469692696
-0.28544745734857374
-0.13226250300726444
0.7043164469692696
-0.28544745734857374
-0.13226250300726444
0.7043164469692696
-0.2852124430268388
-0.1340080746424857
0.7046686865515961
-0.2852124430268388
-0.1340080746424857
0.7046686865515961
-0.2852124430268388
-0.1340080746424857
0.7046686865515961
-0.2852124430268388
-0.1340080746424857
0.7046686865515961
-0.28513341126548736
-0.13550152102952176
0.7046873104632452
-0.28513341126548736
-0.13550152102952176
0.7046873104632452
-0.28513341126548736
-0.13550152102952176
0.7046873104632452
-0.28513341126548736
-0.13550152102952176
0.7046873104632452
-0.28505725556048495
-0.13605522970298553
0.7046039235392887
-0.28505725556048495
-0.13605522970298553
0.7046039235392887
-0.28505725556048495
-0.13605522970298553
0.7046039235392887
-0.28505725556048495
-0.13605522970298553
0.7046039235392887
-0.28536273236024345
-0.1364652017314322
0.7047258411569197
-0.28536273236024345
-0.1364652017314322
0.7047258411569197
-0.28536273236024345
-0.1364652017314322
0.7047258411569197
-0.28536273236024345
-0.1364652017314322
0.7047258411569197
-0.28610784375264375
-0.13632338248715906
0.7047988073972482
-0.28610784375264375
-0.13632338248715906
0.7047988073972482
-0.28610784375264375
-0.13632338248715906
0.7047988073972482
-0.28610784375264375
-0.13632338248715906
0.7047988073972482
-0.28649054833936793
-0.13632710760954414
0.7047095850121846
-0.28649054833936793
-0.13632710760954414
0.7047095850121846
-0.28649054833936793
-0.13632710760954414
0.7047095850121846
-0.28649054833936793
-0.13632710760954414
0.7047095850121846
-0.28649054833936793
-0.13632710760954414
0.7047095850121846
-0.28649054833936793
-0.13632710760954414
0.7047095850121846
-0.28649054833936793
-0.13632710760954414
0.7047095850121846
-0.28649054833936793
-0.13632710760954414
0.7047095850121846
-0.28705596805133743
-0.13615192193436523
0.7044906814545571
-0.28705596805133743
-0.13615192193436523
0.7044906814545571
-0.28705596805133743
-0.13615192193436523
0.7044906814545571
-0.28705596805133743
-0.13615192193436523
0.7044906814545571
-0.2883178206169357
-0.13612081907069287
0.7042246332979857
-0.2883178206169357
-0.13612081907069287
0.7042246332979857
-0.2883178206169357
-0.13612081907069287
0.7042246332979857
-0.2883178206169357
-0.13612081907069287
0.7042246332979857
-0.28882633646910066
-0.13650145343265396
0.7039662441222296
-0.28882633646910066
-0.13650145343265396
0.7039662441222296
-0.28882633646910066
-0.13650145343265396
0.7039662441222296
-0.28882633646910066
-0.13650145343265396
0.7039662441222296
-0.28935945191752066
-0.13682594371285603
0.7040924188075224
-0.28935945191752066
-0.13682594371285603
0.7040924188075224
-0.28935945191752066
-0.13682594371285603
0.7040924188075224
-0.28935945191752066
-0.13682594371285603
0.7040924188075224
-0.28985418242171873
-0.1368066203662163
0.7038912410729821
-0.28985418242171873
-0.1368066203662163
0.7038912410729821
-0.28985418242171873
-0.1368066203662163
0.7038912410729821
-0.28985418242171873
-0.1368066203662163
0.7038912410729821
-0.29087466577439275
-0.1364613960673996
0.7036788647249206
-0.29087466577439275
-0.1364613960673996
0.7036788647249206
-0.29087466577439275
-0.1364613960673996
0.7036788647249206
-0.29087466577439275
-0.1364613960673996
0.7036788647249206
-0.2918286812073513
-0.13589260862839142
0.7034699268253441
-0.2918286812073513
-0.13589260862839142
0.7034699268253441
-0.2918286812073513
-0.13589260862839142
0.7034699268253441
-0.2918286812073513
-0.13589260862839142
0.7034699268253441
-0.29259078568074337
-0.13504379464433258
0.7037882438877942
-0.29259078568074337
-0.13504379464433258
0.7037882438877942
-0.29259078568074337
-0.13504379464433258
0.7037882438877942
-0.29259078568074337
-0.13504379464433258
0.7037882438877942
-0.29343710853145927
-0.1344396564296421
0.7040315119008129
-0.29343710853145927
-0.1344396564296421
0.7040315119008129
-0.29343710853145927
-0.1344396564296421
0.7040315119008129
-0.29343710853145927
-0.1344396564296421
0.7040315119008129
-0.2945507306051287
-0.13390178035719677
0.7040694557486548
-0.2945507306051287
-0.13390178035719677
0.7040694557486548
-0.2945507306051287
-0.13390178035719677
0.7040694557486548
-0.2945507306051287
-0.13390178035719677
0.7040694557486548
-0.2960835887521602
-0.13373053302689608
0.7042318293996634
-0.2960835887521602
-0.13373053302689608
0.7042318293996634
-0.2960835887521602
-0.13373053302689608
0.7042318293996634
-0.2960835887521602
-0.13373053302689608
0.7042318293996634
-0.2973678573639822
-0.13366277595465198
0.7042345226532554
-0.2973678573639822
-0.13366277595465198
0.7042345226532554
-0.2973678573639822
-0.13366277595465198
0.7042345226532554
-0.2973678573639822
-0.13366277595465198
0.7042345226532554
-0.2976200335520023
-0.13334892775050497
0.7039714581348726
-0.2976200335520023
-0.13334892775050497
0.7039714581348726
-0.2976200335520023
-0.13334892775050497
0.7039714581348726
-0.2976200335520023
-0.13334892775050497
0.7039714581348726
-0.2967460381365573
-0.1331528985684524
0.7038408883541445
-0.2967460381365573
-0.1331528985684524
0.7038408883541445
-0.2967460381365573
-0.1331528985684524
0.7038408883541445
-0.2967460381365573
-0.1331528985684524
0.7038408883541445
-0.29632579439139217
-0.13387441938056202
0.7035293382066732
-0.29632579439139217
-0.13387441938056202
0.7035293382066732
-0.29632579439139217
-0.13387441938056202
0.7035293382066732
-0.29632579439139217
-0.13387441938056202
0.7035293382066732
-0.29671019006394517
-0.1349277594588924
0.7034807136165225
-0.29671019006394517
-0.1349277594588924
0.7034807136165225
-0.29671019006394517
-0.1349277594588924
0.7034807136165225
-0.29671019006394517
-0.1349277594588924
0.7034807136165225
-0.2976754573498843
-0.136187962791437
0.7032709689511613
-0.2976754573498843
-0.136187962791437
0.7032709689511613
-0.2976754573498843
-0.136187962791437
0.7032709689511613
-0.2976754573498843
-0.136187962791437
0.7032709689511613
-0.2980290173811327
-0.13754883172551902
0.70303455286701
-0.2980290173811327
-0.13754883172551902
0.70303455286701
-0.2980290173811327
-0.13754883172551902
0.70303455286701
-0.2980290173811327
-0.13754883172551902
0.70303455286701
-0.29825319830716646
-0.1385719208658124
0.7027383829688574
-0.29825319830716646
-0.1385719208658124
0.7027383829688574
-0.29825319830716646
-0.1385719208658124
0.7027383829688574
-0.29825319830716646
-0.1385719208658124
0.7027383829688574
-0.29832961618792947
-0.13923568436901365
0.7024528349733722
-0.29832961618792947
-0.13923568436901365
0.7024528349733722
-0.29832961618792947
-0.13923568436901365
0.7024528349733722
-0.29832961618792947
-0.13923568436901365
0.7024528349733722
-0.29832961618792947
-0.13923568436901365
0.7024528349733722
-0.29832961618792947
-0.13923568436901365
0.7024528349733722
-0.29832961618792947
-0.13923568436901365
0.7024528349733722
-0.29832961618792947
-0.13923568436901365
0.7024528349733722
-0.29832961618792947
-0.13923568436901365
0.7024528349733722
-0.29832961618792947
-0.13923568436901365
0.7024528349733722
-0.29832961618792947
-0.13923568436901365
0.7024528349733722
-0.29832961618792947
-0.13923568436901365
0.7024528349733722
-0.2982158823739525
-0.13927829898445399
0.7024511582251286
-0.2982158823739525
-0.13927829898445399
0.7024511582251286
-0.2982158823739525
-0.13927829898445399
0.7024511582251286
-0.2982158823739525
-0.13927829898445399
0.7024511582251286
-0.2982158823739525
-0.13927829898445399
0.7024511582251286
-0.2982158823739525
-0.13927829898445399
0.7024511582251286
-0.2982158823739525
-0.13927829898445399
0.7024511582251286
-0.2982158823739525
-0.13927829898445399
0.7024511582251286
-0.298172852031891
-0.1391656641297195
0.7024310911514016
-0.298172852031891
-0.1391656641297195
0.7024310911514016
-0.298172852031891
-0.1391656641297195
0.7024310911514016
-0.298172852031891
-0.1391656641297195
0.7024310911514016
-0.297399648800385
-0.13957491538897648
0.7023962492475677
-0.297399648800385
-0.13957491538897648
0.7023962492475677
-0.297399648800385
-0.13957491538897648
0.7023962492475677
-0.297399648800385
-0.13957491538897648
0.7023962492475677
-0.2970583998493499
-0.13970275563836035
0.7023910839230618
-0.2970583998493499
-0.13970275563836035
0.7023910839230618
-0.2970583998493499
-0.13970275563836035
0.7023910839230618
-0.2970583998493499
-0.13970275563836035
0.7023910839230618
-0.2970583998493499
-0.13970275563836035
0.7023910839230618
-0.2970583998493499
-0.13970275563836035
0.7023910839230618
-0.2970583998493499
-0.13970275563836035
0.7023910839230618
-0.2970583998493499
-0.13970275563836035
0.7023910839230618
-0.2970583998493499
-0.13970275563836035
0.7023910839230618
-0.2970583998493499
-0.13970275563836035
0.7023910839230618
-0.2970583998493499
-0.13970275563836035
0.7023910839230618
-0.2970583998493499
-0.13970275563836035
0.7023910839230618
-0.2970583998493499
-0.13970275563836035
0.7023910839230618
-0.2970583998493499
-0.13970275563836035
0.7023910839230618
-0.2970583998493499
-0.13970275563836035
0.7023910839230618
-0.2970583998493499
-0.13970275563836035
0.7023910839230618
-0.2970583998493499
-0.13970275563836035
0.7023910839230618
-0.2970583998493499
-0.13970275563836035
0.7023910839230618
-0.2970583998493499
-0.13970275563836035
0.7023910839230618
-0.2970583998493499
-0.13970275563836035
0.7023910839230618
-0.2970583998493499
-0.13970275563836035
0.7023910839230618
-0.2970583998493499
-0.13970275563836035
0.7023910839230618
-0.2970583998493499
-0.13970275563836035
0.7023910839230618
-0.2970583998493499
-0.13970275563836035
0.7023910839230618
-0.2970583998493499
-0.13970275563836035
0.7023910839230618
-0.2970583998493499
-0.13970275563836035
0.7023910839230618
-0.2970583998493499
-0.13970275563836035
0.7023910839230618
-0.2970583998493499
-0.13970275563836035
0.7023910839230618
-0.2970583998493499
-0.13970275563836035
0.7023910839230618
-0.2970583998493499
-0.13970275563836035
0.7023910839230618
-0.2970583998493499
-0.13970275563836035
0.7023910839230618
-0.2970583998493499
-0.13970275563836035
0.7023910839230618
-0.2978210603622927
-0.13992206023131185
0.7026366529147726
-0.2978210603622927
-0.13992206023131185
0.7026366529147726
-0.2978210603622927
-0.13992206023131185
0.7026366529147726
-0.2978210603622927
-0.13992206023131185
0.7026366529147726
-0.2987193081115696
-0.1400802982079134
0.7030408926348549
-0.2987193081115696
-0.1400802982079134
0.7030408926348549
-0.2987193081115696
-0.1400802982079134
0.7030408926348549
-0.2987193081115696
-0.1400802982079134
0.7030408926348549
-0.2984269154931853
-0.14011213815023657
0.7036905525862408
-0.2984269154931853
-0.14011213815023657
0.7036905525862408
-0.2984269154931853
-0.14011213815023657
0.7036905525862408
-0.2984269154931853
-0.14011213815023657
0.7036905525862408
-0.2985636526500787
-0.14022123944454942
0.7044992792179765
-0.2985636526500787
-0.14022123944454942
0.7044992792179765
-0.2985636526500787
-0.14022123944454942
0.7044992792179765
-0.2985636526500787
-0.14022123944454942
0.7044992792179765
-0.29872605464796353
-0.14008224845377668
0.7051557714542789
-0.29872605464796353
-0.14008224845377668
0.7051557714542789
-0.29872605464796353
-0.14008224845377668
0.7051557714542789
-0.29872605464796353
-0.14008224845377668
0.7051557714542789
-0.2986392368435066
-0.1400470245700099
0.705651990588703
-0.2986392368435066
-0.1400470245700099
0.705651990588703
-0.2986392368435066
-0.1400470245700099
0.705651990588703
-0.2986392368435066
-0.1400470245700099
0.705651990588703
-0.29852556827144733
-0.14008982514187346
0.7056503059807893
-0.29852556827144733
-0.14008982514187346
0.7056503059807893
-0.29852556827144733
-0.14008982514187346
0.7056503059807893
-0.29852556827144733
-0.14008982514187346
0.7056503059807893
-0.2988594838381557
-0.14023099616220205
0.7057371487027225
-0.2988594838381557
-0.14023099616220205
0.7057371487027225
-0.2988594838381557
-0.14023099616220205
0.7057371487027225
-0.2988594838381557
-0.14023099616220205
0.7057371487027225
-0.2991028578654947
-0.14052583174940814
0.705799266135636
-0.2991028578654947
-0.14052583174940814
0.705799266135636
-0.2991028578654947
-0.14052583174940814
0.705799266135636
-0.2991028578654947
-0.14052583174940814
0.705799266135636
-0.29898919208091096
-0.14056864467403096
0.7057975654795025
-0.29898919208091096
-0.14056864467403096
0.7057975654795025
-0.29898919208091096
-0.14056864467403096
0.7057975654795025
-0.29898919208091096
-0.14056864467403096
0.7057975654795025
-0.2988755239327102
-0.14061145801013392
0.7057958598741401
-0.2988755239327102
-0.14061145801013392
0.7057958598741401
-0.2988755239327102
-0.14061145801013392
0.7057958598741401
-0.2988755239327102
-0.14061145801013392
0.7057958598741401
-0.2988755239327102
-0.14061145801013392
0.7057958598741401
-0.2988755239327102
-0.14061145801013392
0.7057958598741401
-0.2988755239327102
-0.14061145801013392
0.7057958598741401
-0.2988755239327102
-0.14061145801013392
0.7057958598741401
-0.29876185342123485
-0.14065427175685258
0.7057941493192795
-0.29876185342123485
-0.14065427175685258
0.7057941493192795
-0.29876185342123485
-0.14065427175685258
0.7057941493192795
-0.29876185342123485
-0.14065427175685258
0.7057941493192795
-0.2986280513520653
-0.14069538457554998
0.7057491946353007
-0.2986280513520653
-0.14069538457554998
0.7057491946353007
-0.2986280513520653
-0.14069538457554998
0.7057491946353007
-0.2986280513520653
-0.14069538457554998
0.7057491946353007
-0.29904504057450637
-0.1411015505428551
0.7056491204210772
-0.29904504057450637
-0.1411015505428551
0.7056491204210772
-0.29904504057450637
-0.1411015505428551
0.7056491204210772
-0.29904504057450637
-0.1411015505428551
0.7056491204210772
-0.2989112071964852
-0.14114263803836258
0.7056041465249819
-0.2989112071964852
-0.14114263803836258
0.7056041465249819
-0.2989112071964852
-0.14114263803836258
0.7056041465249819
-0.2989112071964852
-0.14114263803836258
0.7056041465249819
-0.2989112071964852
-0.14114263803836258
0.7056041465249819
-0.2989112071964852
-0.14114263803836258
0.7056041465249819
-0.2989112071964852
-0.14114263803836258
0.7056041465249819
-0.2989112071964852
-0.14114263803836258
0.7056041465249819
-0.2986981253151196
-0.14162863989694738
0.7055456617313082
-0.2986981253151196
-0.14162863989694738
0.7055456617313082
-0.2986981253151196
-0.14162863989694738
0.7055456617313082
-0.2986981253151196
-0.14162863989694738
0.7055456617313082
-0.2987413651285792
-0.14174118400087055
0.705565818239385
-0.2987413651285792
-0.14174118400087055
0.705565818239385
-0.2987413651285792
-0.14174118400087055
0.705565818239385
-0.2987413651285792
-0.14174118400087055
0.705565818239385
-0.29866137481391336
-0.1423350617317022
0.7052585741266993
-0.29866137481391336
-0.1423350617317022
0.7052585741266993
-0.29866137481391336
-0.1423350617317022
0.7052585741266993
-0.29866137481391336
-0.1423350617317022
0.7052585741266993
-0.2987601640894348
-0.1429805208004597
0.7051302314530488
-0.2987601640894348
-0.1429805208004597
0.7051302314530488
-0.2987601640894348
-0.1429805208004597
0.7051302314530488
-0.2987601640894348
-0.1429805208004597
0.7051302314530488
-0.2987884039656085
-0.14378133899113396
0.7050202523479642
-0.2987884039656085
-0.14378133899113396
0.7050202523479642
-0.2987884039656085
-0.14378133899113396
0.7050202523479642
-0.2987884039656085
-0.14378133899113396
0.7050202523479642
-0.2984068571634309
-0.14484588980625246
0.7050363955942422
-0.2984068571634309
-0.14484588980625246
0.7050363955942422
-0.2984068571634309
-0.14484588980625246
0.7050363955942422
-0.2984068571634309
-0.14484588980625246
0.7050363955942422
-0.2979597473183545
-0.14581591666444518
0.7048749132068836
-0.2979597473183545
-0.14581591666444518
0.7048749132068836
-0.2979597473183545
-0.14581591666444518
0.7048749132068836
-0.2979597473183545
-0.14581591666444518
0.7048749132068836
-0.2976052320483229
-0.14661258852511747
0.7048518857862226
-0.2976052320483229
-0.14661258852511747
0.7048518857862226
-0.2976052320483229
-0.14661258852511747
0.7048518857862226
-0.2976052320483229
-0.14661258852511747
0.7048518857862226
-0.2973644134027937
-0.14736647619962304
0.7048307113015816
-0.2973644134027937
-0.14736647619962304
0.7048307113015816
-0.2973644134027937
-0.14736647619962304
0.7048307113015816
-0.2973644134027937
-0.14736647619962304
0.7048307113015816
-0.2978447068474902
-0.14822601727580675
0.7050380407852167
-0.2978447068474902
-0.14822601727580675
0.7050380407852167
-0.2978447068474902
-0.14822601727580675
0.7050380407852167
-0.2978447068474902
-0.14822601727580675
0.7050380407852167
-0.29625496169339444
-0.14872343810333516
0.7045178779980085
-0.29625496169339444
-0.14872343810333516
0.7045178779980085
-0.29625496169339444
-0.14872343810333516
0.7045178779980085
-0.29625496169339444
-0.14872343810333516
0.7045178779980085
-0.2934095854636185
-0.14857847019630172
0.7032151697187559
-0.2934095854636185
-0.14857847019630172
0.7032151697187559
-0.2934095854636185
-0.14857847019630172
0.7032151697187559
-0.2934095854636185
-0.14857847019630172
0.7032151697187559
-0.29273035296384986
-0.14685891714019583
0.7008702598516091
-0.29273035296384986
-0.14685891714019583
0.7008702598516091
-0.29273035296384986
-0.14685891714019583
0.7008702598516091
-0.29273035296384986
-0.14685891714019583
0.7008702598516091
-0.2974035491229279
-0.1429677958371992
0.6995856181783298
-0.2974035491229279
-0.1429677958371992
0.6995856181783298
-0.2974035491229279
-0.1429677958371992
0.6995856181783298
-0.2974035491229279
-0.1429677958371992
0.6995856181783298
-0.3050506446857418
-0.13984270466025392
0.6976438644898193
-0.3050506446857418
-0.13984270466025392
0.6976438644898193
-0.3050506446857418
-0.13984270466025392
0.6976438644898193
-0.3050506446857418
-0.13984270466025392
0.6976438644898193
-0.31163854890940634
-0.13861181862163532
0.6932356493126316
-0.31163854890940634
-0.13861181862163532
0.6932356493126316
-0.31163854890940634
-0.13861181862163532
0.6932356493126316
-0.31163854890940634
-0.13861181862163532
0.6932356493126316
-0.3158009166544957
-0.13892187635109068
0.6879093351216318
-0.3158009166544957
-0.13892187635109068
0.6879093351216318
-0.3158009166544957
-0.13892187635109068
0.6879093351216318
-0.3158009166544957
-0.13892187635109068
0.6879093351216318
-0.31986926638766827
-0.13947098617523965
0.684220687632753
-0.31986926638766827
-0.13947098617523965
0.684220687632753
-0.31986926638766827
-0.13947098617523965
0.684220687632753
-0.31986926638766827
-0.13947098617523965
0.684220687632753
-0.32349309268387133
-0.13925988195729586
0.6824123121104755
-0.32349309268387133
-0.13925988195729586
0.6824123121104755
-0.32349309268387133
-0.13925988195729586
0.6824123121104755
-0.32349309268387133
-0.13925988195729586
0.6824123121104755
-0.3268298477100927
-0.13820901667296423
0.6817362505531587
-0.3268298477100927
-0.13820901667296423
0.6817362505531587
-0.3268298477100927
-0.13820901667296423
0.6817362505531587
-0.3268298477100927
-0.13820901667296423
0.6817362505531587
-0.33169413907757844
-0.1357572213610583
0.6816358214234692
-0.33169413907757844
-0.1357572213610583
0.6816358214234692
-0.33169413907757844
-0.1357572213610583
0.6816358214234692
-0.33169413907757844
-0.1357572213610583
0.6816358214234692
-0.334999216214518
-0.1335059756508978
0.6810951923078108
-0.334999216214518
-0.1335059756508978
0.6810951923078108
-0.334999216214518
-0.1335059756508978
0.6810951923078108
-0.334999216214518
-0.1335059756508978
0.6810951923078108
-0.3370008749029809
-0.13044062652636404
0.6809841044381101
-0.3370008749029809
-0.13044062652636404
0.6809841044381101
-0.3370008749029809
-0.13044062652636404
0.6809841044381101
-0.3370008749029809
-0.13044062652636404
0.6809841044381101
-0.3392346368641461
-0.12720153682894358
0.6798727506344822
-0.3392346368641461
-0.12720153682894358
0.6798727506344822
-0.3392346368641461
-0.12720153682894358
0.6798727506344822
-0.3392346368641461
-0.12720153682894358
0.6798727506344822
-0.34229987689198343
-0.12405609541737454
0.6788633617004446
-0.34229987689198343
-0.12405609541737454
0.6788633617004446
-0.34229987689198343
-0.12405609541737454
0.6788633617004446
-0.34229987689198343
-0.12405609541737454
0.6788633617004446
-0.3442392283519039
-0.12099180367801914
0.678100357772662
-0.3442392283519039
-0.12099180367801914
0.678100357772662
-0.3442392283519039
-0.12099180367801914
0.678100357772662
-0.3442392283519039
-0.12099180367801914
0.678100357772662
-0.34609875171539517
-0.11830502889950746
0.6776676828434556
-0.34609875171539517
-0.11830502889950746
0.6776676828434556
-0.34609875171539517
-0.11830502889950746
0.6776676828434556
-0.34609875171539517
-0.11830502889950746
0.6776676828434556
-0.35029647646589435
-0.1167643903949449
0.6757699414575593
-0.35029647646589435
-0.1167643903949449
0.6757699414575593
-0.35029647646589435
-0.1167643903949449
0.6757699414575593
-0.35029647646589435
-0.1167643903949449
0.6757699414575593
-0.3563799442966795
-0.11569900557326078
0.6727683132648962
-0.3563799442966795
-0.11569900557326078
0.6727683132648962
-0.3563799442966795
-0.11569900557326078
0.6727683132648962
-0.3563799442966795
-0.11569900557326078
0.6727683132648962
-0.35962416829053456
-0.11622808611947971
0.669956570486174
-0.35962416829053456
-0.11622808611947971
0.669956570486174
-0.35962416829053456
-0.11622808611947971
0.669956570486174
-0.35962416829053456
-0.11622808611947971
0.669956570486174
-0.36161574563418164
-0.11780983415818998
0.6675377233884996
-0.36161574563418164
-0.11780983415818998
0.6675377233884996
-0.36161574563418164
-0.11780983415818998
0.6675377233884996
-0.36161574563418164
-0.11780983415818998
0.6675377233884996
-0.36259282471700477
-0.12000985455186167
0.6649358877600935
-0.36259282471700477
-0.12000985455186167
0.6649358877600935
-0.36259282471700477
-0.12000985455186167
0.6649358877600935
-0.36259282471700477
-0.12000985455186167
0.6649358877600935
-0.3641858465464625
-0.12296428372342477
0.6629854174316104
-0.3641858465464625
-0.12296428372342477
0.6629854174316104
-0.3641858465464625
-0.12296428372342477
0.6629854174316104
-0.3641858465464625
-0.12296428372342477
0.6629854174316104
-0.36725002257457834
-0.1267352092872317
0.6611286266697666
-0.36725002257457834
-0.1267352092872317
0.6611286266697666
-0.36725002257457834
-0.1267352092872317
0.6611286266697666
-0.36725002257457834
-0.1267352092872317
0.6611286266697666
-0.36990960692394215
-0.13101637262938143
0.6587204687429952
-0.36990960692394215
-0.13101637262938143
0.6587204687429952
-0.36990960692394215
-0.13101637262938143
0.6587204687429952
-0.36990960692394215
-0.13101637262938143
0.6587204687429952
-0.37213260413897714
-0.13639498753608664
0.6552788351710683
-0.37213260413897714
-0.13639498753608664
0.6552788351710683
-0.37213260413897714
-0.13639498753608664
0.6552788351710683
-0.37213260413897714
-0.13639498753608664
0.6552788351710683
-0.3728138418235586
-0.1426994086915527
0.6517137990674622
-0.3728138418235586
-0.1426994086915527
0.6517137990674622
-0.3728138418235586
-0.1426994086915527
0.6517137990674622
-0.3728138418235586
-0.1426994086915527
0.6517137990674622
-0.3738613633479361
-0.14963078450062156
0.6492812562564302
-0.3738613633479361
-0.14963078450062156
0.6492812562564302
-0.3738613633479361
-0.14963078450062156
0.6492812562564302
-0.3738613633479361
-0.14963078450062156
0.6492812562564302
-0.37763898938258683
-0.1572442536313763
0.6470023617303009
-0.37763898938258683
-0.1572442536313763
0.6470023617303009
-0.37763898938258683
-0.1572442536313763
0.6470023617303009
-0.37763898938258683
-0.1572442536313763
0.6470023617303009
-0.3820274434981976
-0.16481382750117488
0.6455006262823767
-0.3820274434981976
-0.16481382750117488
0.6455006262823767
-0.3820274434981976
-0.16481382750117488
0.6455006262823767
-0.3820274434981976
-0.16481382750117488
0.6455006262823767
-0.3847544197802546
-0.17253779698602903
0.643955290414205
-0.3847544197802546
-0.17253779698602903
0.643955290414205
-0.3847544197802546
-0.17253779698602903
0.643955290414205
-0.3847544197802546
-0.17253779698602903
0.643955290414205
-0.3850362427372432
-0.18034106489825072
0.6417905789866627
-0.3850362427372432
-0.18034106489825072
0.6417905789866627
-0.3850362427372432
-0.18034106489825072
0.6417905789866627
-0.3850362427372432
-0.18034106489825072
0.6417905789866627
-0.3843144766399166
-0.18815905745432543
0.6398892206374516
-0.3843144766399166
-0.18815905745432543
0.6398892206374516
-0.3843144766399166
-0.18815905745432543
0.6398892206374516
-0.3843144766399166
-0.18815905745432543
0.6398892206374516
-0.3848765232085323
-0.19483003101308252
0.6394210763811011
-0.3848765232085323
-0.19483003101308252
0.6394210763811011
-0.3848765232085323
-0.19483003101308252
0.6394210763811011
-0.3848765232085323
-0.19483003101308252
0.6394210763811011
-0.3863920954344569
-0.2008941023304256
0.6390557140261948
-0.3863920954344569
-0.2008941023304256
0.6390557140261948
-0.3863920954344569
-0.2008941023304256
0.6390557140261948
-0.3863920954344569
-0.2008941023304256
0.6390557140261948
-0.3880357903735223
-0.20654190433866626
0.6378767436314712
-0.3880357903735223
-0.20654190433866626
0.6378767436314712
-0.3880357903735223
-0.20654190433866626
0.6378767436314712
-0.3880357903735223
-0.20654190433866626
0.6378767436314712
-0.3885362248503732
-0.21105803077334911
0.6369157992764907
-0.3885362248503732
-0.21105803077334911
0.6369157992764907
-0.3885362248503732
-0.21105803077334911
0.6369157992764907
-0.3885362248503732
-0.21105803077334911
0.6369157992764907
-0.38896788635927854
-0.21508489878571677
0.6366057769224158
-0.38896788635927854
-0.21508489878571677
0.6366057769224158
-0.38896788635927854
-0.21508489878571677
0.6366057769224158
-0.38896788635927854
-0.21508489878571677
0.6366057769224158
-0.38932226722956165
-0.21821515376135348
0.636192822948102
-0.38932226722956165
-0.21821515376135348
0.636192822948102
-0.38932226722956165
-0.21821515376135348
0.636192822948102
-0.38932226722956165
-0.21821515376135348
0.636192822948102
-0.3900705800470502
-0.22037449606405765
0.6353928573051935
-0.3900705800470502
-0.22037449606405765
0.6353928573051935
-0.3900705800470502
-0.22037449606405765
0.6353928573051935
-0.3900705800470502
-0.22037449606405765
0.6353928573051935
-0.39055737074674074
-0.22180271013977962
0.6346205726400889
-0.39055737074674074
-0.22180271013977962
0.6346205726400889
-0.39055737074674074
-0.22180271013977962
0.6346205726400889
-0.39055737074674074
-0.22180271013977962
0.6346205726400889
-0.39122638057561265
-0.22231681702746986
0.6343584054980274
-0.39122638057561265
-0.22231681702746986
0.6343584054980274
-0.39122638057561265
-0.22231681702746986
0.6343584054980274
-0.39122638057561265
-0.22231681702746986
0.6343584054980274
-0.3920145072129961
-0.2223620108408687
0.6342557082616633
-0.3920145072129961
-0.2223620108408687
0.6342557082616633
-0.3920145072129961
-0.2223620108408687
0.6342557082616633
-0.3920145072129961
-0.2223620108408687
0.6342557082616633
-0.39266426462942766
-0.22201210770433397
0.6342606506279952
-0.39266426462942766
-0.22201210770433397
0.6342606506279952
-0.39266426462942766
-0.22201210770433397
0.6342606506279952
-0.39266426462942766
-0.22201210770433397
0.6342606506279952
-0.3930364997597421
-0.22125293533006934
0.6341508250322061
-0.3930364997597421
-0.22125293533006934
0.6341508250322061
-0.3930364997597421
-0.22125293533006934
0.6341508250322061
-0.3930364997597421
-0.22125293533006934
0.6341508250322061
-0.3930269263054012
-0.22007075559837921
0.6341511658643353
-0.3930269263054012
-0.22007075559837921
0.6341511658643353
-0.3930269263054012
-0.22007075559837921
0.6341511658643353
-0.3930269263054012
-0.22007075559837921
0.6341511658643353
-0.3928448909852166
-0.21875763620614036
0.6343085847001817
-0.3928448909852166
-0.21875763620614036
0.6343085847001817
-0.3928448909852166
-0.21875763620614036
0.6343085847001817
-0.3928448909852166
-0.21875763620614036
0.6343085847001817
-0.39291155690445356
-0.21723658358333675
0.6346451814175998
-0.39291155690445356
-0.21723658358333675
0.6346451814175998
-0.39291155690445356
-0.21723658358333675
0.6346451814175998
-0.39291155690445356
-0.21723658358333675
0.6346451814175998
-0.3924181016481852
-0.21577825630030478
0.6347385556268298
-0.3924181016481852
-0.21577825630030478
0.6347385556268298
-0.3924181016481852
-0.21577825630030478
0.6347385556268298
-0.3924181016481852
-0.21577825630030478
0.6347385556268298
-0.3918515068755627
-0.21428502984031159
0.6352130328283819
-0.3918515068755627
-0.21428502984031159
0.6352130328283819
-0.3918515068755627
-0.21428502984031159
0.6352130328283819
-0.3918515068755627
-0.21428502984031159
0.6352130328283819
-0.3915855683799132
-0.21299026831934736
0.6355220670259587
-0.3915855683799132
-0.21299026831934736
0.6355220670259587
-0.3915855683799132
-0.21299026831934736
0.6355220670259587
-0.3915855683799132
-0.21299026831934736
0.6355220670259587
-0.39135317299374583
-0.21143134335711433
0.6357821640346913
-0.39135317299374583
-0.21143134335711433
0.6357821640346913
-0.39135317299374583
-0.21143134335711433
0.6357821640346913
-0.39135317299374583
-0.21143134335711433
0.6357821640346913
-0.3909428220268801
-0.20976884676602467
0.6360853709292644
-0.3909428220268801
-0.20976884676602467
0.6360853709292644
-0.3909428220268801
-0.20976884676602467
0.6360853709292644
-0.3909428220268801
-0.20976884676602467
0.6360853709292644
-0.3905949028959325
-0.2080629707310374
0.6366997396691787
-0.3905949028959325
-0.2080629707310374
0.6366997396691787
-0.3905949028959325
-0.2080629707310374
0.6366997396691787
-0.3905949028959325
-0.2080629707310374
0.6366997396691787
-0.38995359026775545
-0.20629355171331232
0.6373531895353377
-0.38995359026775545
-0.20629355171331232
0.6373531895353377
-0.38995359026775545
-0.20629355171331232
0.6373531895353377
-0.38995359026775545
-0.20629355171331232
0.6373531895353377
-0.38972282667720937
-0.20452223481750514
0.6380877263960079
-0.38972282667720937
-0.20452223481750514
0.6380877263960079
-0.38972282667720937
-0.20452223481750514
0.6380877263960079
-0.38972282667720937
-0.20452223481750514
0.6380877263960079
-0.3896769352123096
-0.20280174993939445
0.639008535640584
-0.3896769352123096
-0.20280174993939445
0.639008535640584
-0.3896769352123096
-0.20280174993939445
0.639008535640584
-0.3896769352123096
-0.20280174993939445
0.639008535640584
-0.3900864336049243
-0.20073557697329059
0.6403033730502671
-0.3900864336049243
-0.20073557697329059
0.6403033730502671
-0.3900864336049243
-0.20073557697329059
0.6403033730502671
-0.3900864336049243
-0.20073557697329059
0.6403033730502671
-0.3906043156346419
-0.19822615679531874
0.6416393057567176
-0.3906043156346419
-0.19822615679531874
0.6416393057567176
-0.3906043156346419
-0.19822615679531874
0.6416393057567176
-0.3906043156346419
-0.19822615679531874
0.6416393057567176
-0.39123302365401946
-0.19567626438233426
0.6429769237529692
-0.39123302365401946
-0.19567626438233426
0.6429769237529692
-0.39123302365401946
-0.19567626438233426
0.6429769237529692
-0.39123302365401946
-0.19567626438233426
0.6429769237529692
-0.3913256624111912
-0.19343470640932622
0.6435299696763588
-0.3913256624111912
-0.19343470640932622
0.6435299696763588
-0.3913256624111912
-0.19343470640932622
0.6435299696763588
-0.3913256624111912
-0.19343470640932622
0.6435299696763588
-0.39149837932584974
-0.19141503218189226
0.6433447064605988
-0.39149837932584974
-0.19141503218189226
0.6433447064605988
-0.39149837932584974
-0.19141503218189226
0.6433447064605988
-0.39149837932584974
-0.19141503218189226
0.6433447064605988
-0.3910871195714479
-0.18881744968459274
0.6438956059322684
-0.3910871195714479
-0.18881744968459274
0.6438956059322684
-0.3910871195714479
-0.18881744968459274
0.6438956059322684
-0.3910871195714479
-0.18881744968459274
0.6438956059322684
-0.39156729558526243
-0.18716136798353675
0.6448789086785112
-0.39156729558526243
-0.18716136798353675
0.6448789086785112
-0.39156729558526243
-0.18716136798353675
0.6448789086785112
-0.39156729558526243
-0.18716136798353675
0.6448789086785112
-0.3867196586434957
-0.18481846936326335
0.6467293556402416
-0.3867196586434957
-0.18481846936326335
0.6467293556402416
-0.3867196586434957
-0.18481846936326335
0.6467293556402416
-0.3867196586434957
-0.18481846936326335
0.6467293556402416
-0.37935197024290873
-0.18251474603954437
0.6492340337254762
-0.37935197024290873
-0.18251474603954437
0.6492340337254762
-0.37935197024290873
-0.18251474603954437
0.6492340337254762
-0.37935197024290873
-0.18251474603954437
0.6492340337254762
-0.37162955212591864
-0.18001121729377156
0.6506541950177989
-0.37162955212591864
-0.18001121729377156
0.6506541950177989
-0.37162955212591864
-0.18001121729377156
0.6506541950177989
-0.37162955212591864
-0.18001121729377156
0.6506541950177989
-0.36453851240011254
-0.1767999213557949
0.6528059611197853
-0.36453851240011254
-0.1767999213557949
0.6528059611197853
-0.36453851240011254
-0.1767999213557949
0.6528059611197853
-0.36453851240011254
-0.1767999213557949
0.6528059611197853
-0.36155578505618646
-0.17455737987260775
0.6547671758568245
-0.36155578505618646
-0.17455737987260775
0.6547671758568245
-0.36155578505618646
-0.17455737987260775
0.6547671758568245
-0.36155578505618646
-0.17455737987260775
0.6547671758568245
-0.3602055203231031
-0.1717666352739251
0.6585487722407646
-0.3602055203231031
-0.1717666352739251
0.6585487722407646
-0.3602055203231031
-0.1717666352739251
0.6585487722407646
-0.3602055203231031
-0.1717666352739251
0.6585487722407646
-0.35704585210107964
-0.17071164810774547
0.6636315431292504
-0.35704585210107964
-0.17071164810774547
0.6636315431292504
-0.35704585210107964
-0.17071164810774547
0.6636315431292504
-0.35704585210107964
-0.17071164810774547
0.6636315431292504
-0.34944201636112693
-0.16950399698425847
0.6673947656645252
-0.34944201636112693
-0.16950399698425847
0.6673947656645252
-0.34944201636112693
-0.16950399698425847
0.6673947656645252
-0.34944201636112693
-0.16950399698425847
0.6673947656645252
-0.3419106577919316
-0.16625159567478812
0.6687692264638184
-0.3419106577919316
-0.16625159567478812
0.6687692264638184
-0.3419106577919316
-0.16625159567478812
0.6687692264638184
-0.3419106577919316
-0.16625159567478812
0.6687692264638184
-0.3318041635828919
-0.16268993921655123
0.6721355950489594
-0.3318041635828919
-0.16268993921655123
0.6721355950489594
-0.3318041635828919
-0.16268993921655123
0.6721355950489594
-0.3318041635828919
-0.16268993921655123
0.6721355950489594
-0.324029412311278
-0.16216345992900413
0.6788129833365069
-0.324029412311278
-0.16216345992900413
0.6788129833365069
-0.324029412311278
-0.16216345992900413
0.6788129833365069
-0.324029412311278
-0.16216345992900413
0.6788129833365069
-0.3185613998692431
-0.1632554428642381
0.6846882079987366
-0.3185613998692431
-0.1632554428642381
0.6846882079987366
-0.3185613998692431
-0.1632554428642381
0.6846882079987366
-0.3185613998692431
-0.1632554428642381
0.6846882079987366
-0.30960770815354105
-0.16329323581849078
0.6889899227437204
-0.30960770815354105
-0.16329323581849078
0.6889899227437204
-0.30960770815354105
-0.16329323581849078
0.6889899227437204
-0.30960770815354105
-0.16329323581849078
0.6889899227437204
-0.3015292050956583
-0.1633599617962713
0.693012194021664
-0.3015292050956583
-0.1633599617962713
0.693012194021664
-0.3015292050956583
-0.1633599617962713
0.693012194021664
-0.3015292050956583
-0.1633599617962713
0.693012194021664
-0.29489152961770376
-0.1637159675842801
0.6972745148244889
-0.29489152961770376
-0.1637159675842801
0.6972745148244889
-0.29489152961770376
-0.1637159675842801
0.6972745148244889
-0.29489152961770376
-0.1637159675842801
0.6972745148244889
-0.2898032369216747
-0.1647260546586834
0.7005478652535678
-0.2898032369216747
-0.1647260546586834
0.7005478652535678
-0.2898032369216747
-0.1647260546586834
0.7005478652535678
-0.2898032369216747
-0.1647260546586834
0.7005478652535678
-0.28759755845838336
-0.16583173210798297
0.7024385764839202
-0.28759755845838336
-0.16583173210798297
0.7024385764839202
-0.28759755845838336
-0.16583173210798297
0.7024385764839202
-0.28759755845838336
-0.16583173210798297
0.7024385764839202
-0.2863882663410372
-0.1672160008636438
0.7032783015521503
-0.2863882663410372
-0.1672160008636438
0.7032783015521503
-0.2863882663410372
-0.1672160008636438
0.7032783015521503
-0.2863882663410372
-0.1672160008636438
0.7032783015521503
-0.28544961259305385
-0.1688750602934636
0.70332140174989
-0.28544961259305385
-0.1688750602934636
0.70332140174989
-0.28544961259305385
-0.1688750602934636
0.70332140174989
-0.28544961259305385
-0.1688750602934636
0.70332140174989
-0.28282255690821584
-0.16975869658961273
0.703763358328512
-0.28282255690821584
-0.16975869658961273
0.703763358328512
-0.28282255690821584
-0.16975869658961273
0.703763358328512
-0.28282255690821584
-0.16975869658961273
0.703763358328512
-0.2813373571948422
-0.17008994689629373
0.7044228362010467
-0.2813373571948422
-0.17008994689629373
0.7044228362010467
-0.2813373571948422
-0.17008994689629373
0.7044228362010467
-0.2813373571948422
-0.17008994689629373
0.7044228362010467
-0.2812255354428989
-0.16953007208283533
0.7051156580738184
-0.2812255354428989
-0.16953007208283533
0.7051156580738184
-0.2812255354428989
-0.16953007208283533
0.7051156580738184
-0.2812255354428989
-0.16953007208283533
0.7051156580738184
-0.28088126920140816
-0.16896766026598387
0.7051976502882779
-0.28088126920140816
-0.16896766026598387
0.7051976502882779
-0.28088126920140816
-0.16896766026598387
0.7051976502882779
-0.28088126920140816
-0.16896766026598387
0.7051976502882779
-0.28024497175248436
-0.1680175980615927
0.7050830262569704
-0.28024497175248436
-0.1680175980615927
0.7050830262569704
-0.28024497175248436
-0.1680175980615927
0.7050830262569704
-0.28024497175248436
-0.1680175980615927
0.7050830262569704
-0.2788336589421109
-0.16770976210643854
0.7052267582727068
-0.2788336589421109
-0.16770976210643854
0.7052267582727068
-0.2788336589421109
-0.16770976210643854
0.7052267582727068
-0.2788336589421109
-0.16770976210643854
0.7052267582727068
-0.2786865046926199
-0.16722448897827846
0.7054201069450388
-0.2786865046926199
-0.16722448897827846
0.7054201069450388
-0.2786865046926199
-0.16722448897827846
0.7054201069450388
-0.2786865046926199
-0.16722448897827846
0.7054201069450388
-0.2768260960527816
-0.1668170214650904
0.7054709492012384
-0.2768260960527816
-0.1668170214650904
0.7054709492012384
-0.2768260960527816
-0.1668170214650904
0.7054709492012384
-0.2768260960527816
-0.1668170214650904
0.7054709492012384
-0.27611560148508724
-0.16627488133445875
0.7055676404057345
-0.27611560148508724
-0.16627488133445875
0.7055676404057345
-0.27611560148508724
-0.16627488133445875
0.7055676404057345
-0.27611560148508724
-0.16627488133445875
0.7055676404057345
-0.2764814979889533
-0.1658971484626681
0.7054292716423786
-0.2764814979889533
-0.1658971484626681
0.7054292716423786
-0.2764814979889533
-0.1658971484626681
0.7054292716423786
-0.2764814979889533
-0.1658971484626681
0.7054292716423786
-0.2765250274524277
-0.1660097378769401
0.7054487333305899
-0.2765250274524277
-0.1660097378769401
0.7054487333305899
-0.2765250274524277
-0.1660097378769401
0.7054487333305899
-0.2765250274524277
-0.1660097378769401
0.7054487333305899
-0.27621544938871473
-0.16689992936484338
0.7055470573122433
-0.27621544938871473
-0.16689992936484338
0.7055470573122433
-0.27621544938871473
-0.16689992936484338
0.7055470573122433
-0.27621544938871473
-0.16689992936484338
0.7055470573122433
-0.2764384696200694
-0.16766777974158922
0.7050495362448662
-0.2764384696200694
-0.16766777974158922
0.7050495362448662
-0.2764384696200694
-0.16766777974158922
0.7050495362448662
-0.2764384696200694
-0.16766777974158922
0.7050495362448662
-0.2781922390363663
-0.1680799184514634
0.7052239757621643
-0.2781922390363663
-0.1680799184514634
0.7052239757621643
-0.2781922390363663
-0.1680799184514634
0.7052239757621643
-0.2781922390363663
-0.1680799184514634
0.7052239757621643
-0.2786977728441036
-0.1686924317558885
0.7052786668567476
-0.2786977728441036
-0.1686924317558885
0.7052786668567476
-0.2786977728441036
-0.1686924317558885
0.7052786668567476
-0.2786977728441036
-0.1686924317558885
0.7052786668567476
-0.2783715749681156
-0.1689687904343253
0.7050150365764584
-0.2783715749681156
-0.1689687904343253
0.7050150365764584
-0.2783715749681156
-0.1689687904343253
0.7050150365764584
-0.2783715749681156
-0.1689687904343253
0.7050150365764584
-0.2790595351298293
-0.169984995816972
0.7043606655575979
-0.2790595351298293
-0.169984995816972
0.7043606655575979
-0.2790595351298293
-0.169984995816972
0.7043606655575979
-0.2790595351298293
-0.169984995816972
0.7043606655575979
-0.2790694309786085
-0.17121997586737323
0.7039118453243519
-0.2790694309786085
-0.17121997586737323
0.7039118453243519
-0.2790694309786085
-0.17121997586737323
0.7039118453243519
-0.2790694309786085
-0.17121997586737323
0.7039118453243519
-0.27884198132989757
-0.17212123515201513
0.703628197298132
-0.27884198132989757
-0.17212123515201513
0.703628197298132
-0.27884198132989757
-0.17212123515201513
0.703628197298132
-0.27884198132989757
-0.17212123515201513
0.703628197298132
-0.2793467662411293
-0.17250124409687753
0.7033764742870946
-0.2793467662411293
-0.17250124409687753
0.7033764742870946
-0.2793467662411293
-0.17250124409687753
0.7033764742870946
-0.2793467662411293
-0.17250124409687753
0.7033764742870946
-0.2804227392572918
-0.17266714045504183
0.7031449420729886
-0.2804227392572918
-0.17266714045504183
0.7031449420729886
-0.2804227392572918
-0.17266714045504183
0.7031449420729886
-0.2804227392572918
-0.17266714045504183
0.7031449420729886
-0.2810376952233853
-0.1730242145770253
0.7027833872801004
-0.2810376952233853
-0.1730242145770253
0.7027833872801004
-0.2810376952233853
-0.1730242145770253
0.7027833872801004
-0.2810376952233853
-0.1730242145770253
0.7027833872801004
-0.281111903856682
-0.17261657532046978
0.7025740068439984
-0.281111903856682
-0.17261657532046978
0.7025740068439984
-0.281111903856682
-0.17261657532046978
0.7025740068439984
-0.281111903856682
-0.17261657532046978
0.7025740068439984
-0.28230932312433565
-0.17211160115306334
0.7021406120848277
-0.28230932312433565
-0.17211160115306334
0.7021406120848277
-0.28230932312433565
-0.17211160115306334
0.7021406120848277
-0.28230932312433565
-0.17211160115306334
0.7021406120848277
-0.28320760066274725
-0.171847986332315
0.7017149475611856
-0.28320760066274725
-0.171847986332315
0.7017149475611856
-0.28320760066274725
-0.171847986332315
0.7017149475611856
-0.28320760066274725
-0.171847986332315
0.7017149475611856
-0.2839720634583794
-0.17185590649823138
0.7015498077676594
-0.2839720634583794
-0.17185590649823138
0.7015498077676594
-0.2839720634583794
-0.17185590649823138
0.7015498077676594
-0.2839720634583794
-0.17185590649823138
0.7015498077676594
-0.2844685187146655
-0.17181715490975227
0.7014711145811949
-0.2844685187146655
-0.17181715490975227
0.7014711145811949
-0.2844685187146655
-0.17181715490975227
0.7014711145811949
-0.2844685187146655
-0.17181715490975227
0.7014711145811949
-0.28472441211873994
-0.17146378816727403
0.7014425853543459
-0.28472441211873994
-0.17146378816727403
0.7014425853543459
-0.28472441211873994
-0.17146378816727403
0.7014425853543459
-0.28472441211873994
-0.17146378816727403
0.7014425853543459
-0.2846925586339986
-0.17070295724831253
0.7013299678589141
-0.2846925586339986
-0.17070295724831253
0.7013299678589141
-0.2846925586339986
-0.17070295724831253
0.7013299678589141
-0.2846925586339986
-0.17070295724831253
0.7013299678589141
-0.28477085574226113
-0.17027605956798442
0.7012340846616433
-0.28477085574226113
-0.17027605956798442
0.7012340846616433
-0.28477085574226113
-0.17027605956798442
0.7012340846616433
-0.28477085574226113
-0.17027605956798442
0.7012340846616433
-0.28425017932790814
-0.16951443430529922
0.7014291672669033
-0.28425017932790814
-0.16951443430529922
0.7014291672669033
-0.28425017932790814
-0.16951443430529922
0.7014291672669033
-0.28425017932790814
-0.16951443430529922
0.7014291672669033
-0.28380394404773357
-0.1685779261978614
0.7017225912692634
-0.28380394404773357
-0.1685779261978614
0.7017225912692634
-0.28380394404773357
-0.1685779261978614
0.7017225912692634
-0.28380394404773357
-0.1685779261978614
0.7017225912692634
-0.28388637204857325
-0.1677742234870238
0.7016140450139975
-0.28388637204857325
-0.1677742234870238
0.7016140450139975
-0.28388637204857325
-0.1677742234870238
0.7016140450139975
-0.28388637204857325
-0.1677742234870238
0.7016140450139975
-0.28413861039674154
-0.1674404884894735
0.7014709174428878
-0.28413861039674154
-0.1674404884894735
0.7014709174428878
-0.28413861039674154
-0.1674404884894735
0.7014709174428878
-0.28413861039674154
-0.1674404884894735
0.7014709174428878
-0.28422924568172003
-0.16741384053301217
0.7013170234631523
-0.28422924568172003
-0.16741384053301217
0.7013170234631523
-0.28422924568172003
-0.16741384053301217
0.7013170234631523
-0.28422924568172003
-0.16741384053301217
0.7013170234631523
-0.2839887012788207
-0.16709915518381613
0.7013678364867671
-0.2839887012788207
-0.16709915518381613
0.7013678364867671
-0.2839887012788207
-0.16709915518381613
0.7013678364867671
-0.2839887012788207
-0.16709915518381613
0.7013678364867671
-0.2840320271382131
-0.16721174482518683
0.7013877469708281
-0.2840320271382131
-0.16721174482518683
0.7013877469708281
-0.2840320271382131
-0.16721174482518683
0.7013877469708281
-0.2840320271382131
-0.16721174482518683
0.7013877469708281
-0.28395754992260336
-0.16738669088206756
0.7012898569687496
-0.28395754992260336
-0.16738669088206756
0.7012898569687496
-0.28395754992260336
-0.16738669088206756
0.7012898569687496
-0.28395754992260336
-0.16738669088206756
0.7012898569687496
-0.28426894595561153
-0.16754608041959937
0.7012227702264426
-0.28426894595561153
-0.16754608041959937
0.7012227702264426
-0.28426894595561153
-0.16754608041959937
0.7012227702264426
-0.28426894595561153
-0.16754608041959937
0.7012227702264426
-0.28418294818301226
-0.1681372320539751
0.7009093297722788
-0.28418294818301226
-0.1681372320539751
0.7009093297722788
-0.28418294818301226
-0.1681372320539751
0.7009093297722788
-0.28418294818301226
-0.1681372320539751
0.7009093297722788
-0.2834388246455869
-0.1689488744237868
0.7008452459568266
-0.2834388246455869
-0.1689488744237868
0.7008452459568266
-0.2834388246455869
-0.1689488744237868
0.7008452459568266
-0.2834388246455869
-0.1689488744237868
0.7008452459568266
-0.28396680124878115
-0.1696712353054927
0.700878120352327
-0.28396680124878115
-0.1696712353054927
0.700878120352327
-0.28396680124878115
-0.1696712353054927
0.700878120352327
-0.28396680124878115
-0.1696712353054927
0.700878120352327
-0.28432973170210823
-0.17059525686928037
0.7009671409270237
-0.28432973170210823
-0.17059525686928037
0.7009671409270237
-0.28432973170210823
-0.17059525686928037
0.7009671409270237
-0.28432973170210823
-0.17059525686928037
0.7009671409270237
-0.2840857418145012
-0.17134870453468465
0.7009376376525739
-0.2840857418145012
-0.17134870453468465
0.7009376376525739
-0.2840857418145012
-0.17134870453468465
0.7009376376525739
-0.2840857418145012
-0.17134870453468465
0.7009376376525739
-0.28415302418107585
-0.17226155940146246
0.7008415634473553
-0.28415302418107585
-0.17226155940146246
0.7008415634473553
-0.28415302418107585
-0.17226155940146246
0.7008415634473553
-0.28415302418107585
-0.17226155940146246
0.7008415634473553
-0.28440537824176004
-0.17297641433996117
0.7007333785462455
-0.28440537824176004
-0.17297641433996117
0.7007333785462455
-0.28440537824176004
-0.17297641433996117
0.7007333785462455
-0.28440537824176004
-0.17297641433996117
0.7007333785462455
-0.2842561714472861
-0.17355872050201346
0.7008451545724542
-0.2842561714472861
-0.17355872050201346
0.7008451545724542
-0.2842561714472861
-0.17355872050201346
0.7008451545724542
-0.2842561714472861
-0.17355872050201346
0.7008451545724542
-0.2842445938668331
-0.1742069393303395
0.700937568672192
-0.2842445938668331
-0.1742069393303395
0.700937568672192
-0.2842445938668331
-0.1742069393303395
0.700937568672192
-0.2842445938668331
-0.1742069393303395
0.700937568672192
-0.28438344741082094
-0.17519672284919657
0.7011337412225553
-0.28438344741082094
-0.17519672284919657
0.7011337412225553
-0.28438344741082094
-0.17519672284919657
0.7011337412225553
-0.28438344741082094
-0.17519672284919657
0.7011337412225553
-0.28381247873806825
-0.1764588787121451
0.7011474959362505
-0.28381247873806825
-0.1764588787121451
0.7011474959362505
-0.28381247873806825
-0.1764588787121451
0.7011474959362505
-0.28381247873806825
-0.1764588787121451
0.7011474959362505
-0.28358857876989263
-0.17757291293310434
0.7012875467821678
-0.28358857876989263
-0.17757291293310434
0.7012875467821678
-0.28358857876989263
-0.17757291293310434
0.7012875467821678
-0.28358857876989263
-0.17757291293310434
0.7012875467821678
-0.28399576657677783
-0.17860949352967995
0.701398129038846
-0.28399576657677783
-0.17860949352967995
0.701398129038846
-0.28399576657677783
-0.17860949352967995
0.701398129038846
-0.28399576657677783
-0.17860949352967995
0.701398129038846
-0.2843434600705063
-0.1791532757055249
0.7014325850078795
-0.2843434600705063
-0.1791532757055249
0.7014325850078795
-0.2843434600705063
-0.1791532757055249
0.7014325850078795
-0.2843434600705063
-0.1791532757055249
0.7014325850078795
-0.28447396717618756
-0.17949074576080465
0.7014932546520933
-0.28447396717618756
-0.17949074576080465
0.7014932546520933
-0.28447396717618756
-0.17949074576080465
0.7014932546520933
-0.28447396717618756
-0.17949074576080465
0.7014932546520933
-0.28435964329701696
-0.17953355296570792
0.7014889341069837
-0.28435964329701696
-0.17953355296570792
0.7014889341069837
-0.28435964329701696
-0.17953355296570792
0.7014889341069837
-0.28435964329701696
-0.17953355296570792
0.7014889341069837
-0.28435964329701696
-0.17953355296570792
0.7014889341069837
-0.28435964329701696
-0.17953355296570792
0.7014889341069837
-0.28435964329701696
-0.17953355296570792
0.7014889341069837
-0.28435964329701696
-0.17953355296570792
0.7014889341069837
-0.28435964329701696
-0.17953355296570792
0.7014889341069837
-0.28435964329701696
-0.17953355296570792
0.7014889341069837
-0.28435964329701696
-0.17953355296570792
0.7014889341069837
-0.28435964329701696
-0.17953355296570792
0.7014889341069837
-0.28435964329701696
-0.17953355296570792
0.7014889341069837
-0.28435964329701696
-0.17953355296570792
0.7014889341069837
-0.28435964329701696
-0.17953355296570792
0.7014889341069837
-0.28435964329701696
-0.17953355296570792
0.7014889341069837
-0.28477498271913065
-0.1794820099177762
0.7017942701950362
-0.28477498271913065
-0.1794820099177762
0.7017942701950362
-0.28477498271913065
-0.1794820099177762
0.7017942701950362
-0.28477498271913065
-0.1794820099177762
0.7017942701950362
-0.28532487060171186
-0.1793917199446555
0.7021474087610888
-0.28532487060171186
-0.1793917199446555
0.7021474087610888
-0.28532487060171186
-0.1793917199446555
0.7021474087610888
-0.28532487060171186
-0.1793917199446555
0.7021474087610888
-0.28532487060171186
-0.1793917199446555
0.7021474087610888
-0.28532487060171186
-0.1793917199446555
0.7021474087610888
-0.28532487060171186
-0.1793917199446555
0.7021474087610888
-0.28532487060171186
-0.1793917199446555
0.7021474087610888
-0.28527352780899795
-0.17885910303150332
0.7022991890606408
-0.28527352780899795
-0.17885910303150332
0.7022991890606408
-0.28527352780899795
-0.17885910303150332
0.7022991890606408
-0.28527352780899795
-0.17885910303150332
0.7022991890606408
-0.2856314688760294
-0.1780625672187427
0.7023332933243224
-0.2856314688760294
-0.1780625672187427
0.7023332933243224
-0.2856314688760294
-0.1780625672187427
0.7023332933243224
-0.2856314688760294
-0.1780625672187427
0.7023332933243224
-0.28645441144682005
-0.17669848849905107
0.702484686768015
-0.28645441144682005
-0.17669848849905107
0.702484686768015
-0.28645441144682005
-0.17669848849905107
0.702484686768015
-0.28645441144682005
-0.17669848849905107
0.702484686768015
-0.288516940758982
-0.17448264018648688
0.7026215235604817
-0.288516940758982
-0.17448264018648688
0.7026215235604817
-0.288516940758982
-0.17448264018648688
0.7026215235604817
-0.288516940758982
-0.17448264018648688
0.7026215235604817
-0.2929790515848687
-0.17275019767903527
0.7016356486744477
-0.2929790515848687
-0.17275019767903527
0.7016356486744477
-0.2929790515848687
-0.17275019767903527
0.7016356486744477
-0.2929790515848687
-0.17275019767903527
0.7016356486744477
-0.2984261652239071
-0.17193535269440008
0.6977741942615172
-0.2984261652239071
-0.17193535269440008
0.6977741942615172
-0.2984261652239071
-0.17193535269440008
0.6977741942615172
-0.2984261652239071
-0.17193535269440008
0.6977741942615172
-0.30327362926379375
-0.17141648689395794
0.6924888019996932
-0.30327362926379375
-0.17141648689395794
0.6924888019996932
-0.30327362926379375
-0.17141648689395794
0.6924888019996932
-0.30327362926379375
-0.17141648689395794
0.6924888019996932
-0.3067919753274986
-0.1706328131901217
0.6878598166689796
-0.3067919753274986
-0.1706328131901217
0.6878598166689796
-0.3067919753274986
-0.1706328131901217
0.6878598166689796
-0.3067919753274986
-0.1706328131901217
0.6878598166689796
-0.30801746189355245
-0.17060616688279448
0.6845924557357526
-0.30801746189355245
-0.17060616688279448
0.6845924557357526
-0.30801746189355245
-0.17060616688279448
0.6845924557357526
-0.30801746189355245
-0.17060616688279448
0.6845924557357526
-0.3121052988714455
-0.1706337748109366
0.6837440783193234
-0.3121052988714455
-0.1706337748109366
0.6837440783193234
-0.3121052988714455
-0.1706337748109366
0.6837440783193234
-0.3121052988714455
-0.1706337748109366
0.6837440783193234
-0.31532622601223975
-0.17039724384683483
0.683089271795068
-0.31532622601223975
-0.17039724384683483
0.683089271795068
-0.31532622601223975
-0.17039724384683483
0.683089271795068
-0.31532622601223975
-0.17039724384683483
0.683089271795068
-0.3198573564823756
-0.16929924076357508
0.6836650083454753
-0.3198573564823756
-0.16929924076357508
0.6836650083454753
-0.3198573564823756
-0.16929924076357508
0.6836650083454753
-0.3198573564823756
-0.16929924076357508
0.6836650083454753
-0.3238599388203855
-0.16829421878576614
0.6839307088823665
-0.3238599388203855
-0.16829421878576614
0.6839307088823665
-0.3238599388203855
-0.16829421878576614
0.6839307088823665
-0.3238599388203855
-0.16829421878576614
0.6839307088823665
-0.3261781159034367
-0.1668366314400059
0.6838124725986974
-0.3261781159034367
-0.1668366314400059
0.6838124725986974
-0.3261781159034367
-0.1668366314400059
0.6838124725986974
-0.3261781159034367
-0.1668366314400059
0.6838124725986974
-0.3325007104210592
-0.16524652228170159
0.6844071850057647
-0.3325007104210592
-0.16524652228170159
0.6844071850057647
-0.3325007104210592
-0.16524652228170159
0.6844071850057647
-0.3325007104210592
-0.16524652228170159
0.6844071850057647
-0.33867885130959224
-0.16460548180460663
0.6833367462087074
-0.33867885130959224
-0.16460548180460663
0.6833367462087074
-0.33867885130959224
-0.16460548180460663
0.6833367462087074
-0.33867885130959224
-0.16460548180460663
0.6833367462087074
-0.34650463667714665
-0.16461775942885173
0.6820847173161005
-0.34650463667714665
-0.16461775942885173
0.6820847173161005
-0.34650463667714665
-0.16461775942885173
0.6820847173161005
-0.34650463667714665
-0.16461775942885173
0.6820847173161005
-0.3490913438981083
-0.1651828244030309
0.6812669816843835
-0.3490913438981083
-0.1651828244030309
0.6812669816843835
-0.3490913438981083
-0.1651828244030309
0.6812669816843835
-0.3490913438981083
-0.1651828244030309
0.6812669816843835
-0.35035488924217734
-0.16669619793642376
0.6797973288251635
-0.35035488924217734
-0.16669619793642376
0.6797973288251635
-0.35035488924217734
-0.16669619793642376
0.6797973288251635
-0.35035488924217734
-0.16669619793642376
0.6797973288251635
-0.35115672546824783
-0.16770691347680572
0.6782774156829668
-0.35115672546824783
-0.16770691347680572
0.6782774156829668
-0.35115672546824783
-0.16770691347680572
0.6782774156829668
-0.35115672546824783
-0.16770691347680572
0.6782774156829668
-0.35280689090298856
-0.1698587906628601
0.6769979328669518
-0.35280689090298856
-0.1698587906628601
0.6769979328669518
-0.35280689090298856
-0.1698587906628601
0.6769979328669518
-0.35280689090298856
-0.1698587906628601
0.6769979328669518
-0.354146564414473
-0.17329593617495115
0.6758073860469944
-0.354146564414473
-0.17329593617495115
0.6758073860469944
-0.354146564414473
-0.17329593617495115
0.6758073860469944
-0.354146564414473
-0.17329593617495115
0.6758073860469944
-0.3557892629837271
-0.1769240107437942
0.6744468998634645
-0.3557892629837271
-0.1769240107437942
0.6744468998634645
-0.3557892629837271
-0.1769240107437942
0.6744468998634645
-0.3557892629837271
-0.1769240107437942
0.6744468998634645
-0.3573386336677484
-0.18157296861398273
0.673544300996775
-0.3573386336677484
-0.18157296861398273
0.673544300996775
-0.3573386336677484
-0.18157296861398273
0.673544300996775
-0.3573386336677484
-0.18157296861398273
0.673544300996775
-0.35763575701511613
-0.18662996678243124
0.6728385719783513
-0.35763575701511613
-0.18662996678243124
0.6728385719783513
-0.35763575701511613
-0.18662996678243124
0.6728385719783513
-0.35763575701511613
-0.18662996678243124
0.6728385719783513
-0.35800627662390117
-0.19196017422120126
0.671954420008817
-0.35800627662390117
-0.19196017422120126
0.671954420008817
-0.35800627662390117
-0.19196017422120126
0.671954420008817
-0.35800627662390117
-0.19196017422120126
0.671954420008817
-0.35843659356302515
-0.1981433240828601
0.6704454104904527
-0.35843659356302515
-0.1981433240828601
0.6704454104904527
-0.35843659356302515
-0.1981433240828601
0.6704454104904527
-0.35843659356302515
-0.1981433240828601
0.6704454104904527
-0.359873794200173
-0.20451941663471138
0.6690391833489676
-0.359873794200173
-0.20451941663471138
0.6690391833489676
-0.359873794200173
-0.20451941663471138
0.6690391833489676
-0.359873794200173
-0.20451941663471138
0.6690391833489676
-0.36222025814084563
-0.21144593249042754
0.6672489240030239
-0.36222025814084563
-0.21144593249042754
0.6672489240030239
-0.36222025814084563
-0.21144593249042754
0.6672489240030239
-0.36222025814084563
-0.21144593249042754
0.6672489240030239
-0.36378989472077844
-0.21837464385612154
0.6655042505649694
-0.36378989472077844
-0.21837464385612154
0.6655042505649694
-0.36378989472077844
-0.21837464385612154
0.6655042505649694
-0.36378989472077844
-0.21837464385612154
0.6655042505649694
-0.3662301607776953
-0.22499076386102704
0.6649160507825543
-0.3662301607776953
-0.22499076386102704
0.6649160507825543
-0.3662301607776953
-0.22499076386102704
0.6649160507825543
-0.3662301607776953
-0.22499076386102704
0.6649160507825543
-0.3678899916918371
-0.23032983089150091
0.6655936422854339
-0.3678899916918371
-0.23032983089150091
0.6655936422854339
-0.3678899916918371
-0.23032983089150091
0.6655936422854339
-0.3678899916918371
-0.23032983089150091
0.6655936422854339
-0.3676132513147734
-0.2342948225147935
0.6655127712383018
-0.3676132513147734
-0.2342948225147935
0.6655127712383018
-0.3676132513147734
-0.2342948225147935
0.6655127712383018
-0.3676132513147734
-0.2342948225147935
0.6655127712383018
-0.36649951633675065
-0.23687696833119112
0.664991018045336
-0.36649951633675065
-0.23687696833119112
0.664991018045336
-0.36649951633675065
-0.23687696833119112
0.664991018045336
-0.36649951633675065
-0.23687696833119112
0.664991018045336
-0.36598605320389316
-0.23874108024133056
0.664249038889825
-0.36598605320389316
-0.23874108024133056
0.664249038889825
-0.36598605320389316
-0.23874108024133056
0.664249038889825
-0.36598605320389316
-0.23874108024133056
0.664249038889825
-0.3667176968124673
-0.23988817421471045
0.6638411143562911
-0.3667176968124673
-0.23988817421471045
0.6638411143562911
-0.3667176968124673
-0.23988817421471045
0.6638411143562911
-0.3667176968124673
-0.23988817421471045
0.6638411143562911
-0.36777567987510795
-0.24022156303523623
0.6638738410254855
-0.36777567987510795
-0.24022156303523623
0.6638738410254855
-0.36777567987510795
-0.24022156303523623
0.6638738410254855
-0.36777567987510795
-0.24022156303523623
0.6638738410254855
-0.36874500612331024
-0.24049352340560964
0.6643606289679532
-0.36874500612331024
-0.24049352340560964
0.6643606289679532
-0.36874500612331024
-0.24049352340560964
0.6643606289679532
-0.36874500612331024
-0.24049352340560964
0.6643606289679532
-0.3689717647175052
-0.24068197804900548
0.6644627356459272
-0.3689717647175052
-0.24068197804900548
0.6644627356459272
-0.3689717647175052
-0.24068197804900548
0.6644627356459272
-0.3689717647175052
-0.24068197804900548
0.6644627356459272
-0.36843309374830374
-0.24008155746411416
0.6642057091807905
-0.36843309374830374
-0.24008155746411416
0.6642057091807905
-0.36843309374830374
-0.24008155746411416
0.6642057091807905
-0.36843309374830374
-0.24008155746411416
0.6642057091807905
-0.36820775148704693
-0.23905725959089566
0.6635507613737404
-0.36820775148704693
-0.23905725959089566
0.6635507613737404
-0.36820775148704693
-0.23905725959089566
0.6635507613737404
-0.36820775148704693
-0.23905725959089566
0.6635507613737404
-0.3685675421402122
-0.23804621739426485
0.6632472286370124
-0.3685675421402122
-0.23804621739426485
0.6632472286370124
-0.3685675421402122
-0.23804621739426485
0.6632472286370124
-0.3685675421402122
-0.23804621739426485
0.6632472286370124
-0.36915687362070204
-0.23704123002512753
0.6634061497868395
-0.36915687362070204
-0.23704123002512753
0.6634061497868395
-0.36915687362070204
-0.23704123002512753
0.6634061497868395
-0.36915687362070204
-0.23704123002512753
0.6634061497868395
-0.3703296975273399
-0.23562104626859293
0.6640716535086998
-0.3703296975273399
-0.23562104626859293
0.6640716535086998
-0.3703296975273399
-0.23562104626859293
0.6640716535086998
-0.3703296975273399
-0.23562104626859293
0.6640716535086998
-0.37096255153251456
-0.23411636908107006
0.6647727521934824
-0.37096255153251456
-0.23411636908107006
0.6647727521934824
-0.37096255153251456
-0.23411636908107006
0.6647727521934824
-0.37096255153251456
-0.23411636908107006
0.6647727521934824
-0.370146998540081
-0.23204621107474083
0.6651948706307
-0.370146998540081
-0.23204621107474083
0.6651948706307
-0.370146998540081
-0.23204621107474083
0.6651948706307
-0.370146998540081
-0.23204621107474083
0.6651948706307
-0.3693495203273841
-0.22915192602737233
0.6658598788798896
-0.3693495203273841
-0.22915192602737233
0.6658598788798896
-0.3693495203273841
-0.22915192602737233
0.6658598788798896
-0.3693495203273841
-0.22915192602737233
0.6658598788798896
-0.36942872414564765
-0.22587736689836835
0.6671104154060105
-0.36942872414564765
-0.22587736689836835
0.6671104154060105
-0.36942872414564765
-0.22587736689836835
0.6671104154060105
-0.36942872414564765
-0.22587736689836835
0.6671104154060105
-0.3694792618101317
-0.2226595846813041
0.6688815755522989
-0.3694792618101317
-0.2226595846813041
0.6688815755522989
-0.3694792618101317
-0.2226595846813041
0.6688815755522989
-0.3694792618101317
-0.2226595846813041
0.6688815755522989
-0.36878957641033044
-0.21990796009863106
0.6691944434621627
-0.36878957641033044
-0.21990796009863106
0.6691944434621627
-0.36878957641033044
-0.21990796009863106
0.6691944434621627
-0.36878957641033044
-0.21990796009863106
0.6691944434621627
-0.36983782954043465
-0.21732436513819017
0.6700101270531034
-0.36983782954043465
-0.21732436513819017
0.6700101270531034
-0.36983782954043465
-0.21732436513819017
0.6700101270531034
-0.36983782954043465
-0.21732436513819017
0.6700101270531034
-0.3709689061119242
-0.21490193835753876
0.6703105603765006
-0.3709689061119242
-0.21490193835753876
0.6703105603765006
-0.3709689061119242
-0.21490193835753876
0.6703105603765006
-0.3709689061119242
-0.21490193835753876
0.6703105603765006
-0.36937832788983943
-0.21174588210227024
0.671673717930032
-0.36937832788983943
-0.21174588210227024
0.671673717930032
-0.36937832788983943
-0.21174588210227024
0.671673717930032
-0.36937832788983943
-0.21174588210227024
0.671673717930032
-0.3651518788701909
-0.20836169735000318
0.6725963216188299
-0.3651518788701909
-0.20836169735000318
0.6725963216188299
-0.3651518788701909
-0.20836169735000318
0.6725963216188299
-0.3651518788701909
-0.20836169735000318
0.6725963216188299
-0.3579694358780404
-0.2057729580979847
0.673838952849238
-0.3579694358780404
-0.2057729580979847
0.673838952849238
-0.3579694358780404
-0.2057729580979847
0.673838952849238
-0.3579694358780404
-0.2057729580979847
0.673838952849238
-0.35179201623860823
-0.20449522292457098
0.6758322447050058
-0.35179201623860823
-0.20449522292457098
0.6758322447050058
-0.35179201623860823
-0.20449522292457098
0.6758322447050058
-0.35179201623860823
-0.20449522292457098
0.6758322447050058
-0.34687825563339153
-0.20205840651490692
0.6793732709002158
-0.34687825563339153
-0.20205840651490692
0.6793732709002158
-0.34687825563339153
-0.20205840651490692
0.6793732709002158
-0.34687825563339153
-0.20205840651490692
0.6793732709002158
-0.3445641616885521
-0.20016099337801968
0.6815148397262782
-0.3445641616885521
-0.20016099337801968
0.6815148397262782
-0.3445641616885521
-0.20016099337801968
0.6815148397262782
-0.3445641616885521
-0.20016099337801968
0.6815148397262782
-0.3450096776927223
-0.19918656949563532
0.6825310568443239
-0.3450096776927223
-0.19918656949563532
0.6825310568443239
-0.3450096776927223
-0.19918656949563532
0.6825310568443239
-0.3450096776927223
-0.19918656949563532
0.6825310568443239
-0.3456140632143882
-0.19942685504130955
0.6832266475522917
-0.3456140632143882
-0.19942685504130955
0.6832266475522917
-0.3456140632143882
-0.19942685504130955
0.6832266475522917
-0.3456140632143882
-0.19942685504130955
0.6832266475522917
-0.3413261655473849
-0.19977673497888854
0.6844182425331614
-0.3413261655473849
-0.19977673497888854
0.6844182425331614
-0.3413261655473849
-0.19977673497888854
0.6844182425331614
-0.3413261655473849
-0.19977673497888854
0.6844182425331614
-0.33729590344466615
-0.19920589143901454
0.6851220324505877
-0.33729590344466615
-0.19920589143901454
0.6851220324505877
-0.33729590344466615
-0.19920589143901454
0.6851220324505877
-0.33729590344466615
-0.19920589143901454
0.6851220324505877
-0.333302555775138
-0.19857329592762366
0.6862142933071047
-0.333302555775138
-0.19857329592762366
0.6862142933071047
-0.333302555775138
-0.19857329592762366
0.6862142933071047
-0.333302555775138
-0.19857329592762366
0.6862142933071047
-0.3310534478294311
-0.19881297342315718
0.6881065926493549
-0.3310534478294311
-0.19881297342315718
0.6881065926493549
-0.3310534478294311
-0.19881297342315718
0.6881065926493549
-0.3310534478294311
-0.19881297342315718
0.6881065926493549
-0.32690230122400304
-0.2003695991834957
0.6922226984354145
-0.32690230122400304
-0.2003695991834957
0.6922226984354145
-0.32690230122400304
-0.2003695991834957
0.6922226984354145
-0.32690230122400304
-0.2003695991834957
0.6922226984354145
-0.31799160035168833
-0.20270503454862537
0.6950910250411861
-0.31799160035168833
-0.20270503454862537
0.6950910250411861
-0.31799160035168833
-0.20270503454862537
0.6950910250411861
-0.31799160035168833
-0.20270503454862537
0.6950910250411861
-0.30909843069556314
-0.20414713407911148
0.6977558724904405
-0.30909843069556314
-0.20414713407911148
0.6977558724904405
-0.30909843069556314
-0.20414713407911148
0.6977558724904405
-0.30909843069556314
-0.20414713407911148
0.6977558724904405
-0.3052032639850801
-0.20671894761052137
0.7010410245260394
-0.3052032639850801
-0.20671894761052137
0.7010410245260394
-0.3052032639850801
-0.20671894761052137
0.7010410245260394
-0.3052032639850801
-0.20671894761052137
0.7010410245260394
-0.30134376490200027
-0.20821881949253152
0.7045468035302547
-0.30134376490200027
-0.20821881949253152
0.7045468035302547
-0.30134376490200027
-0.20821881949253152
0.7045468035302547
-0.30134376490200027
-0.20821881949253152
0.7045468035302547
-0.2977594352604842
-0.2096969427970497
0.7074041390712926
-0.2977594352604842
-0.2096969427970497
0.7074041390712926
-0.2977594352604842
-0.2096969427970497
0.7074041390712926
-0.2977594352604842
-0.2096969427970497
0.7074041390712926
-0.2937178699430748
-0.21129754239513301
0.7095562618268414
-0.2937178699430748
-0.21129754239513301
0.7095562618268414
-0.2937178699430748
-0.21129754239513301
0.7095562618268414
-0.2937178699430748
-0.21129754239513301
0.7095562618268414
-0.2907558373500805
-0.2135105415553407
0.7112077645190065
-0.2907558373500805
-0.2135105415553407
0.7112077645190065
-0.2907558373500805
-0.2135105415553407
0.7112077645190065
-0.2907558373500805
-0.2135105415553407
0.7112077645190065
-0.28928067495018644
-0.21480819399460455
0.7128064489473023
-0.28928067495018644
-0.21480819399460455
0.7128064489473023
-0.28928067495018644
-0.21480819399460455
0.7128064489473023
-0.28928067495018644
-0.21480819399460455
0.7128064489473023
-0.2874967665969944
-0.21586664844282755
0.7139002243491613
-0.2874967665969944
-0.21586664844282755
0.7139002243491613
-0.2874967665969944
-0.21586664844282755
0.7139002243491613
-0.2874967665969944
-0.21586664844282755
0.7139002243491613
-0.2859671599989271
-0.21738676571903395
0.7146952846941887
-0.2859671599989271
-0.21738676571903395
0.7146952846941887
-0.2859671599989271
-0.21738676571903395
0.7146952846941887
-0.2859671599989271
-0.21738676571903395
0.7146952846941887
-0.2834590328683159
-0.21857910885122536
0.7158398739557439
-0.2834590328683159
-0.21857910885122536
0.7158398739557439
-0.2834590328683159
-0.21857910885122536
0.7158398739557439
-0.2834590328683159
-0.21857910885122536
0.7158398739557439
-0.28046922691788334
-0.21887591142987012
0.7169910419998473
-0.28046922691788334
-0.21887591142987012
0.7169910419998473
-0.28046922691788334
-0.21887591142987012
0.7169910419998473
-0.28046922691788334
-0.21887591142987012
0.7169910419998473
-0.27986017362317867
-0.2187757086423025
0.7175341110701158
-0.27986017362317867
-0.2187757086423025
0.7175341110701158
-0.27986017362317867
-0.2187757086423025
0.7175341110701158
-0.27986017362317867
-0.2187757086423025
0.7175341110701158
-0.2799051757931402
-0.21888755676950278
0.7175550931245906
-0.2799051757931402
-0.21888755676950278
0.7175550931245906
-0.2799051757931402
-0.21888755676950278
0.7175550931245906
-0.2799051757931402
-0.21888755676950278
0.7175550931245906
-0.2790639684043437
-0.21862195290798145
0.7178901247886812
-0.2790639684043437
-0.21862195290798145
0.7178901247886812
-0.278448261547887
-0.21854278953471604
0.7183187395024182
-0.278448261547887
-0.21854278953471604
0.7183187395024182
-0.278448261547887
-0.21854278953471604
0.7183187395024182
-0.278448261547887
-0.21854278953471604
0.7183187395024182
-0.2783018036907279
-0.21843412748970567
0.7185204136265093
-0.2783018036907279
-0.21843412748970567
0.7185204136265093
-0.2783018036907279
-0.21843412748970567
0.7185204136265093
-0.2783018036907279
-0.21843412748970567
0.7185204136265093
-0.2786344445395029
-0.21815595270099905
0.7187933782027002
-0.2786344445395029
-0.21815595270099905
0.7187933782027002
-0.2786344445395029
-0.21815595270099905
0.7187933782027002
-0.2786344445395029
-0.21815595270099905
0.7187933782027002
-0.27964769624932717
-0.21763409490584634
0.7189907382820296
-0.27964769624932717
-0.21763409490584634
0.7189907382820296
-0.27964769624932717
-0.21763409490584634
0.7189907382820296
-0.27964769624932717
-0.21763409490584634
0.7189907382820296
-0.2799207646351058
-0.21684388540182903
0.719300513764446
-0.2799207646351058
-0.21684388540182903
0.719300513764446
-0.2799207646351058
-0.21684388540182903
0.719300513764446
-0.2799207646351058
-0.21684388540182903
0.719300513764446
-0.2795535040389442
-0.2157148764341017
0.7197992437312558
-0.2795535040389442
-0.2157148764341017
0.7197992437312558
-0.2795535040389442
-0.2157148764341017
0.7197992437312558
-0.2795535040389442
-0.2157148764341017
0.7197992437312558
-0.2803648069438529
-0.21436564306720995
0.7198548256421623
-0.2803648069438529
-0.21436564306720995
0.7198548256421623
-0.2803648069438529
-0.21436564306720995
0.7198548256421623
-0.2803648069438529
-0.21436564306720995
0.7198548256421623
-0.28132619259481884
-0.2132246967507136
0.7196383562679467
-0.28132619259481884
-0.2132246967507136
0.7196383562679467
-0.28132619259481884
-0.2132246967507136
0.7196383562679467
-0.28132619259481884
-0.2132246967507136
0.7196383562679467
-0.28185082646309956
-0.2122660363648668
0.7194414136274284
-0.28185082646309956
-0.2122660363648668
0.7194414136274284
-0.28185082646309956
-0.2122660363648668
0.7194414136274284
-0.28185082646309956
-0.2122660363648668
0.7194414136274284
-0.28185082646309956
-0.2122660363648668
0.7194414136274284
-0.28185082646309956
-0.2122660363648668
0.7194414136274284
-0.28185082646309956
-0.2122660363648668
0.7194414136274284
-0.28185082646309956
-0.2122660363648668
0.7194414136274284
-0.2810472335557669
-0.212320758513591
0.7192033721640015
-0.2810472335557669
-0.212320758513591
0.7192033721640015
-0.2810472335557669
-0.212320758513591
0.7192033721640015
-0.2810472335557669
-0.212320758513591
0.7192033721640015
-0.28130623806629784
-0.21213223534049555
0.7188126045756624
-0.28130623806629784
-0.21213223534049555
0.7188126045756624
-0.28130623806629784
-0.21213223534049555
0.7188126045756624
-0.28130623806629784
-0.21213223534049555
0.7188126045756624
-0.28119180325442933
-0.2121762023634813
0.7188064716357848
-0.28119180325442933
-0.2121762023634813
0.7188064716357848
-0.28119180325442933
-0.2121762023634813
0.7188064716357848
-0.28119180325442933
-0.2121762023634813
0.7188064716357848
-0.28117091159966534
-0.2121702042568281
0.7187614987639944
-0.28117091159966534
-0.2121702042568281
0.7187614987639944
-0.28117091159966534
-0.2121702042568281
0.7187614987639944
-0.28117091159966534
-0.2121702042568281
0.7187614987639944
-0.2810866548426795
-0.21211358923638968
0.7183523452933781
-0.2810866548426795
-0.21211358923638968
0.7183523452933781
-0.2810866548426795
-0.21211358923638968
0.7183523452933781
-0.2810866548426795
-0.21211358923638968
0.7183523452933781
-0.2816281659801249
-0.21218201317716875
0.7183042443835347
-0.2816281659801249
-0.21218201317716875
0.7183042443835347
-0.2816281659801249
-0.21218201317716875
0.7183042443835347
-0.2816281659801249
-0.21218201317716875
0.7183042443835347
-0.2816281659801249
-0.21218201317716875
0.7183042443835347
-0.2816281659801249
-0.21218201317716875
0.7183042443835347
-0.2816281659801249
-0.21218201317716875
0.7183042443835347
-0.2816281659801249
-0.21218201317716875
0.7183042443835347
-0.2816220336763166
-0.2122024594250267
0.7181898060937605
-0.2816220336763166
-0.2122024594250267
0.7181898060937605
-0.2816220336763166
-0.2122024594250267
0.7181898060937605
-0.2816220336763166
-0.2122024594250267
0.7181898060937605
-0.2822743777622361
-0.21250066275142934
0.7182286030140768
-0.2822743777622361
-0.21250066275142934
0.7182286030140768
-0.2822743777622361
-0.21250066275142934
0.7182286030140768
-0.2822743777622361
-0.21250066275142934
0.7182286030140768
-0.2831837157835815
-0.21216968101853112
0.7181631038686211
-0.2831837157835815
-0.21216968101853112
0.7181631038686211
-0.2831837157835815
-0.21216968101853112
0.7181631038686211
-0.2831837157835815
-0.21216968101853112
0.7181631038686211
-0.28409555603763925
-0.21209175721870185
0.7182926939383893
-0.28409555603763925
-0.21209175721870185
0.7182926939383893
-0.28409555603763925
-0.21209175721870185
0.7182926939383893
-0.28409555603763925
-0.21209175721870185
0.7182926939383893
-0.2845353390531259
-0.21178944508073363
0.7184552124892495
-0.2845353390531259
-0.21178944508073363
0.7184552124892495
-0.2845353390531259
-0.21178944508073363
0.7184552124892495
-0.2845353390531259
-0.21178944508073363
0.7184552124892495
-0.2852038352868386
-0.21139912300795838
0.7186296044286736
-0.2852038352868386
-0.21139912300795838
0.7186296044286736
-0.2852038352868386
-0.21139912300795838
0.7186296044286736
-0.2852038352868386
-0.21139912300795838
0.7186296044286736
-0.2850894503061567
-0.21144308646447954
0.7186236006726858
-0.2850894503061567
-0.21144308646447954
0.7186236006726858
-0.2850894503061567
-0.21144308646447954
0.7186236006726858
-0.2850894503061567
-0.21144308646447954
0.7186236006726858
-0.28497506264223976
-0.21148704976185526
0.7186175916466273
-0.28497506264223976
-0.21148704976185526
0.7186175916466273
-0.28497506264223976
-0.21148704976185526
0.7186175916466273
-0.28497506264223976
-0.21148704976185526
0.7186175916466273
-0.2850200290296071
-0.21159888869194846
0.7186386855228601
-0.2850200290296071
-0.21159888869194846
0.7186386855228601
-0.2850200290296071
-0.21159888869194846
0.7186386855228601
-0.2850200290296071
-0.21159888869194846
0.7186386855228601
-0.285005380858499
-0.21138723763406664
0.7182143797926147
-0.285005380858499
-0.21138723763406664
0.7182143797926147
-0.285005380858499
-0.21138723763406664
0.7182143797926147
-0.285005380858499
-0.21138723763406664
0.7182143797926147
-0.28564080321838564
-0.21103239687805375
0.7181148386243538
-0.28564080321838564
-0.21103239687805375
0.7181148386243538
-0.28564080321838564
-0.21103239687805375
0.7181148386243538
-0.28564080321838564
-0.21103239687805375
0.7181148386243538
-0.2862516779202702
-0.2109452417975336
0.7180514186415077
-0.2862516779202702
-0.2109452417975336
0.7180514186415077
-0.2862516779202702
-0.2109452417975336
0.7180514186415077
-0.2862516779202702
-0.2109452417975336
0.7180514186415077
-0.2865439378537847
-0.21072229886893096
0.7179337306085457
-0.2865439378537847
-0.21072229886893096
0.7179337306085457
-0.2865439378537847
-0.21072229886893096
0.7179337306085457
-0.2865439378537847
-0.21072229886893096
0.7179337306085457
-0.287079397285463
-0.21081171594873893
0.7177710751848594
-0.287079397285463
-0.21081171594873893
0.7177710751848594
-0.287079397285463
-0.21081171594873893
0.7177710751848594
-0.287079397285463
-0.21081171594873893
0.7177710751848594
-0.2872691588072874
-0.21078028166258606
0.7173949066056766
-0.2872691588072874
-0.21078028166258606
0.7173949066056766
-0.2872691588072874
-0.21078028166258606
0.7173949066056766
-0.2872691588072874
-0.21078028166258606
0.7173949066056766
-0.2873198965335391
-0.2110603775623284
0.7170492798192608
-0.2873198965335391
-0.2110603775623284
0.7170492798192608
-0.2873198965335391
-0.2110603775623284
0.7170492798192608
-0.2873198965335391
-0.2110603775623284
0.7170492798192608
-0.2873424199430301
-0.21188147663143536
0.7168214513021641
-0.2873424199430301
-0.21188147663143536
0.7168214513021641
-0.2873424199430301
-0.21188147663143536
0.7168214513021641
-0.2873424199430301
-0.21188147663143536
0.7168214513021641
-0.287100519436464
-0.21238424990615784
0.7165933795564645
-0.287100519436464
-0.21238424990615784
0.7165933795564645
-0.287100519436464
-0.21238424990615784
0.7165933795564645
-0.287100519436464
-0.21238424990615784
0.7165933795564645
-0.28714738491812436
-0.21293779121818726
0.7163289799661581
-0.28714738491812436
-0.21293779121818726
0.7163289799661581
-0.28714738491812436
-0.21293779121818726
0.7163289799661581
-0.28714738491812436
-0.21293779121818726
0.7163289799661581
-0.2874404959802865
-0.21353037944465517
0.7159387327301323
-0.2874404959802865
-0.21353037944465517
0.7159387327301323
-0.2874404959802865
-0.21353037944465517
0.7159387327301323
-0.2874404959802865
-0.21353037944465517
0.7159387327301323
-0.2884183450063349
-0.21457557142829714
0.7153813020167679
-0.2884183450063349
-0.21457557142829714
0.7153813020167679
-0.2884183450063349
-0.21457557142829714
0.7153813020167679
-0.2884183450063349
-0.21457557142829714
0.7153813020167679
-0.2919609654077607
-0.21502903402714835
0.7142018105811239
-0.2919609654077607
-0.21502903402714835
0.7142018105811239
-0.2919609654077607
-0.21502903402714835
0.7142018105811239
-0.2919609654077607
-0.21502903402714835
0.7142018105811239
-0.29797261925520135
-0.21436285884367454
0.7114807872669355
-0.29797261925520135
-0.21436285884367454
0.7114807872669355
-0.29797261925520135
-0.21436285884367454
0.7114807872669355
-0.29797261925520135
-0.21436285884367454
0.7114807872669355
-0.3037231759827295
-0.21351868648801045
0.7067343211599251
-0.3037231759827295
-0.21351868648801045
0.7067343211599251
-0.3037231759827295
-0.21351868648801045
0.7067343211599251
-0.3037231759827295
-0.21351868648801045
0.7067343211599251
-0.306970462899273
-0.21407187654037335
0.7011745814310171
-0.306970462899273
-0.21407187654037335
0.7011745814310171
-0.306970462899273
-0.21407187654037335
0.7011745814310171
-0.306970462899273
-0.21407187654037335
0.7011745814310171
-0.30849316552638667
-0.21559868355532147
0.6972656390165712
-0.30849316552638667
-0.21559868355532147
0.6972656390165712
-0.30849316552638667
-0.21559868355532147
0.6972656390165712
-0.30849316552638667
-0.21559868355532147
0.6972656390165712
-0.30807933897635204
-0.2180265175541981
0.6947738642062532
-0.30807933897635204
-0.2180265175541981
0.6947738642062532
-0.30807933897635204
-0.2180265175541981
0.6947738642062532
-0.30807933897635204
-0.2180265175541981
0.6947738642062532
-0.3101509186797947
-0.220907987396065
0.693580741713493
-0.3101509186797947
-0.220907987396065
0.693580741713493
-0.3101509186797947
-0.220907987396065
0.693580741713493
-0.3101509186797947
-0.220907987396065
0.693580741713493
-0.3179238181623428
-0.2227960419118744
0.6941911313439781
-0.3179238181623428
-0.2227960419118744
0.6941911313439781
-0.3179238181623428
-0.2227960419118744
0.6941911313439781
-0.3179238181623428
-0.2227960419118744
0.6941911313439781
-0.3279162596056853
-0.22409907415935904
0.6944273983927882
-0.3279162596056853
-0.22409907415935904
0.6944273983927882
-0.3279162596056853
-0.22409907415935904
0.6944273983927882
-0.3279162596056853
-0.22409907415935904
0.6944273983927882
-0.3320431067045139
-0.2248748447935572
0.6929545745240928
-0.3320431067045139
-0.2248748447935572
0.6929545745240928
-0.3320431067045139
-0.2248748447935572
0.6929545745240928
-0.3320431067045139
-0.2248748447935572
0.6929545745240928
-0.33628566810624133
-0.2251649729915406
0.6917676833539464
-0.33628566810624133
-0.2251649729915406
0.6917676833539464
-0.33628566810624133
-0.2251649729915406
0.6917676833539464
-0.33628566810624133
-0.2251649729915406
0.6917676833539464
-0.3427158752133634
-0.22636180430326297
0.6913125906016457
-0.3427158752133634
-0.22636180430326297
0.6913125906016457
-0.3427158752133634
-0.22636180430326297
0.6913125906016457
-0.3427158752133634
-0.22636180430326297
0.6913125906016457
-0.34980193428143086
-0.2275955595741007
0.6908302391187247
-0.34980193428143086
-0.2275955595741007
0.6908302391187247
-0.34980193428143086
-0.2275955595741007
0.6908302391187247
-0.34980193428143086
-0.2275955595741007
0.6908302391187247
-0.35715029829912703
-0.22867663565044055
0.6890965021840642
-0.35715029829912703
-0.22867663565044055
0.6890965021840642
-0.35715029829912703
-0.22867663565044055
0.6890965021840642
-0.35715029829912703
-0.22867663565044055
0.6890965021840642
-0.3591714316548989
-0.23057586671140434
0.6868434983048364
-0.3591714316548989
-0.23057586671140434
0.6868434983048364
-0.3591714316548989
-0.23057586671140434
0.6868434983048364
-0.3591714316548989
-0.23057586671140434
0.6868434983048364
-0.35897158679224517
-0.23340452650878646
0.6842594575682371
-0.35897158679224517
-0.23340452650878646
0.6842594575682371
-0.35897158679224517
-0.23340452650878646
0.6842594575682371
-0.35897158679224517
-0.23340452650878646
0.6842594575682371
-0.36031498780085497
-0.23636840793887112
0.6818873717865055
-0.36031498780085497
-0.23636840793887112
0.6818873717865055
-0.36031498780085497
-0.23636840793887112
0.6818873717865055
-0.36031498780085497
-0.23636840793887112
0.6818873717865055
-0.36159559351549037
-0.23925734253739822
0.6801285904254905
-0.36159559351549037
-0.23925734253739822
0.6801285904254905
-0.36159559351549037
-0.23925734253739822
0.6801285904254905
-0.36159559351549037
-0.23925734253739822
0.6801285904254905
-0.3637920209062269
-0.24225713635117885
0.6774004174257249
-0.3637920209062269
-0.24225713635117885
0.6774004174257249
-0.3637920209062269
-0.24225713635117885
0.6774004174257249
-0.3637920209062269
-0.24225713635117885
0.6774004174257249
-0.3663081997267102
-0.24718326296318224
0.6754334726504835
-0.3663081997267102
-0.24718326296318224
0.6754334726504835
-0.3663081997267102
-0.24718326296318224
0.6754334726504835
-0.3663081997267102
-0.24718326296318224
0.6754334726504835
-0.36825109344404505
-0.25331560616204307
0.6737489153999295
-0.36825109344404505
-0.25331560616204307
0.6737489153999295
-0.36825109344404505
-0.25331560616204307
0.6737489153999295
-0.36825109344404505
-0.25331560616204307
0.6737489153999295
-0.3684506208354154
-0.25839313029801586
0.6724737623125463
-0.3684506208354154
-0.25839313029801586
0.6724737623125463
-0.3684506208354154
-0.25839313029801586
0.6724737623125463
-0.3684506208354154
-0.25839313029801586
0.6724737623125463
-0.36673116889544544
-0.2636344739610337
0.6705750400275244
-0.36673116889544544
-0.2636344739610337
0.6705750400275244
-0.36673116889544544
-0.2636344739610337
0.6705750400275244
-0.36673116889544544
-0.2636344739610337
0.6705750400275244
-0.365523275224808
-0.2688505450723357
0.6686523149419052
-0.365523275224808
-0.2688505450723357
0.6686523149419052
-0.365523275224808
-0.2688505450723357
0.6686523149419052
-0.365523275224808
-0.2688505450723357
0.6686523149419052
-0.3672450568437682
-0.273737525532821
0.666952811995666
-0.3672450568437682
-0.273737525532821
0.666952811995666
-0.3672450568437682
-0.273737525532821
0.666952811995666
-0.3672450568437682
-0.273737525532821
0.666952811995666
-0.3711422194850158
-0.2782664425952395
0.6668477760420475
-0.3711422194850158
-0.2782664425952395
0.6668477760420475
-0.3711422194850158
-0.2782664425952395
0.6668477760420475
-0.3711422194850158
-0.2782664425952395
0.6668477760420475
-0.3725330943112543
-0.28168818544349805
0.6668638701800524
-0.3725330943112543
-0.28168818544349805
0.6668638701800524
-0.3725330943112543
-0.28168818544349805
0.6668638701800524
-0.3725330943112543
-0.28168818544349805
0.6668638701800524
-0.371342071541254
-0.2842436880041736
0.6667002729706555
-0.371342071541254
-0.2842436880041736
0.6667002729706555
-0.371342071541254
-0.2842436880041736
0.6667002729706555
-0.371342071541254
-0.2842436880041736
0.6667002729706555
-0.36913983871103784
-0.28692264939239975
0.6659339400994064
-0.36913983871103784
-0.28692264939239975
0.6659339400994064
-0.36913983871103784
-0.28692264939239975
0.6659339400994064
-0.36913983871103784
-0.28692264939239975
0.6659339400994064
-0.3701521531657669
-0.28815826861058175
0.6654020425171162
-0.3701521531657669
-0.28815826861058175
0.6654020425171162
-0.3701521531657669
-0.28815826861058175
0.6654020425171162
-0.3701521531657669
-0.28815826861058175
0.6654020425171162
-0.3725058589402406
-0.2886526273778694
0.6650882080731352
-0.3725058589402406
-0.2886526273778694
0.6650882080731352
-0.3725058589402406
-0.2886526273778694
0.6650882080731352
-0.3725058589402406
-0.2886526273778694
0.6650882080731352
-0.3732318902936323
-0.28896846360606193
0.6648991951584557
-0.3732318902936323
-0.28896846360606193
0.6648991951584557
-0.3732318902936323
-0.28896846360606193
0.6648991951584557
-0.3732318902936323
-0.28896846360606193
0.6648991951584557
-0.372232701608819
-0.2891828117278854
0.6647522673017618
-0.372232701608819
-0.2891828117278854
0.6647522673017618
-0.372232701608819
-0.2891828117278854
0.6647522673017618
-0.372232701608819
-0.2891828117278854
0.6647522673017618
-0.3717039663118363
-0.28917476564372935
0.6641170052461389
-0.3717039663118363
-0.28917476564372935
0.6641170052461389
-0.3717039663118363
-0.28917476564372935
0.6641170052461389
-0.3717039663118363
-0.28917476564372935
0.6641170052461389
-0.37255990528567484
-0.2888097526610271
0.6638166664273202
-0.37255990528567484
-0.2888097526610271
0.6638166664273202
-0.37255990528567484
-0.2888097526610271
0.6638166664273202
-0.37255990528567484
-0.2888097526610271
0.6638166664273202
-0.37267056873992116
-0.28836595486701183
0.6638676510390128
-0.37267056873992116
-0.28836595486701183
0.6638676510390128
-0.37267056873992116
-0.28836595486701183
0.6638676510390128
-0.37267056873992116
-0.28836595486701183
0.6638676510390128
-0.37267056873992116
-0.28836595486701183
0.6638676510390128
-0.37267056873992116
-0.28836595486701183
0.6638676510390128
-0.37267056873992116
-0.28836595486701183
0.6638676510390128
-0.37267056873992116
-0.28836595486701183
0.6638676510390128
-0.3717106781111276
-0.2880157888838807
0.6637007135312997
-0.3717106781111276
-0.2880157888838807
0.6637007135312997
-0.3717106781111276
-0.2880157888838807
0.6637007135312997
-0.3717106781111276
-0.2880157888838807
0.6637007135312997
-0.37137822125330383
-0.28722840309389513
0.6634623120912578
-0.37137822125330383
-0.28722840309389513
0.6634623120912578
-0.37137822125330383
-0.28722840309389513
0.6634623120912578
-0.37137822125330383
-0.28722840309389513
0.6634623120912578
-0.3719382056316046
-0.2862424231284179
0.6634765327331933
-0.3719382056316046
-0.2862424231284179
0.6634765327331933
-0.3719382056316046
-0.2862424231284179
0.6634765327331933
-0.3719382056316046
-0.2862424231284179
0.6634765327331933
-0.3727933728945853
-0.2853479163271967
0.6641056130512788
-0.3727933728945853
-0.2853479163271967
0.6641056130512788
-0.3727933728945853
-0.2853479163271967
0.6641056130512788
-0.3727933728945853
-0.2853479163271967
0.6641056130512788
-0.37226492280122525
-0.28481030559711534
0.6644024221124673
-0.37226492280122525
-0.28481030559711534
0.6644024221124673
-0.37226492280122525
-0.28481030559711534
0.6644024221124673
-0.37226492280122525
-0.28481030559711534
0.6644024221124673
-0.37174552245570935
-0.2842461801864664
0.66481535199731
-0.37174552245570935
-0.2842461801864664
0.66481535199731
-0.37174552245570935
-0.2842461801864664
0.66481535199731
-0.37174552245570935
-0.2842461801864664
0.66481535199731
-0.3712064104769841
-0.2836182292670616
0.6646594791441442
-0.3712064104769841
-0.2836182292670616
0.6646594791441442
-0.3712064104769841
-0.2836182292670616
0.6646594791441442
-0.3712064104769841
-0.2836182292670616
0.6646594791441442
-0.3717643271156213
-0.2829048786122006
0.664762440676127
-0.3717643271156213
-0.2829048786122006
0.664762440676127
-0.3717643271156213
-0.2829048786122006
0.664762440676127
-0.3717643271156213
-0.2829048786122006
0.664762440676127
-0.3722242884593124
-0.2821798915267276
0.6650875916429302
-0.3722242884593124
-0.2821798915267276
0.6650875916429302
-0.3722242884593124
-0.2821798915267276
0.6650875916429302
-0.3722242884593124
-0.2821798915267276
0.6650875916429302
-0.3718467777920416
-0.2814657776048467
0.6652161836059733
-0.3718467777920416
-0.2814657776048467
0.6652161836059733
-0.3718467777920416
-0.2814657776048467
0.6652161836059733
-0.3718467777920416
-0.2814657776048467
0.6652161836059733
-0.37107276628623537
-0.2803637451155917
0.665332384800226
-0.37107276628623537
-0.2803637451155917
0.665332384800226
-0.37107276628623537
-0.2803637451155917
0.665332384800226
-0.37107276628623537
-0.2803637451155917
0.665332384800226
-0.37121475867091824
-0.2792269687825512
0.6654942205775725
-0.37121475867091824
-0.2792269687825512
0.6654942205775725
-0.37121475867091824
-0.2792269687825512
0.6654942205775725
-0.37121475867091824
-0.2792269687825512
0.6654942205775725
-0.3718018729434231
-0.2779761666720279
0.665459418643625
-0.3718018729434231
-0.2779761666720279
0.665459418643625
-0.3718018729434231
-0.2779761666720279
0.665459418643625
-0.3718018729434231
-0.2779761666720279
0.665459418643625
-0.37206038881339365
-0.2765248826591456
0.6655393189317061
-0.37206038881339365
-0.2765248826591456
0.6655393189317061
-0.37206038881339365
-0.2765248826591456
0.6655393189317061
-0.37206038881339365
-0.2765248826591456
0.6655393189317061
-0.37262944561850414
-0.2751995879877749
0.6661595626666779
-0.37262944561850414
-0.2751995879877749
0.6661595626666779
-0.37262944561850414
-0.2751995879877749
0.6661595626666779
-0.37262944561850414
-0.2751995879877749
0.6661595626666779
-0.3734805152083422
-0.27387492298664734
0.6669389006057891
-0.3734805152083422
-0.27387492298664734
0.6669389006057891
-0.3734805152083422
-0.27387492298664734
0.6669389006057891
-0.3734805152083422
-0.27387492298664734
0.6669389006057891
-0.3737112328122656
-0.27210282861470597
0.6674669454664304
-0.3737112328122656
-0.27210282861470597
0.6674669454664304
-0.3737112328122656
-0.27210282861470597
0.6674669454664304
-0.3737112328122656
-0.27210282861470597
0.6674669454664304
-0.37421975588189216
-0.2700170992445385
0.6678916913933195
-0.37421975588189216
-0.2700170992445385
0.6678916913933195
-0.37421975588189216
-0.2700170992445385
0.6678916913933195
-0.37421975588189216
-0.2700170992445385
0.6678916913933195
-0.37441301160352586
-0.2679504708730766
0.6687526478754594
-0.37441301160352586
-0.2679504708730766
0.6687526478754594
-0.37441301160352586
-0.2679504708730766
0.6687526478754594
-0.37441301160352586
-0.2679504708730766
0.6687526478754594
-0.37571223049589436
-0.2658974441371917
0.6698450627190244
-0.37571223049589436
-0.2658974441371917
0.6698450627190244
-0.37571223049589436
-0.2658974441371917
0.6698450627190244
-0.37571223049589436
-0.2658974441371917
0.6698450627190244
-0.37793544257784345
-0.2643378816341106
0.6700453523959399
-0.37793544257784345
-0.2643378816341106
0.6700453523959399
-0.37793544257784345
-0.2643378816341106
0.6700453523959399
-0.37793544257784345
-0.2643378816341106
0.6700453523959399
-0.3800995052029218
-0.262562724772176
0.670984637819539
-0.3800995052029218
-0.262562724772176
0.670984637819539
-0.3800995052029218
-0.262562724772176
0.670984637819539
-0.3800995052029218
-0.262562724772176
0.670984637819539
-0.3786160621960806
-0.2602085161959891
0.6712012897400322
-0.3786160621960806
-0.2602085161959891
0.6712012897400322
-0.3786160621960806
-0.2602085161959891
0.6712012897400322
-0.3786160621960806
-0.2602085161959891
0.6712012897400322
-0.37744822469902634
-0.2578371680225659
0.6724911558871269
-0.37744822469902634
-0.2578371680225659
0.6724911558871269
-0.37744822469902634
-0.2578371680225659
0.6724911558871269
-0.37744822469902634
-0.2578371680225659
0.6724911558871269
-0.3765066238405571
-0.25592650731546757
0.6739791867602675
-0.3765066238405571
-0.25592650731546757
0.6739791867602675
-0.3765066238405571
-0.25592650731546757
0.6739791867602675
-0.3765066238405571
-0.25592650731546757
0.6739791867602675
-0.37521337052043907
-0.25405545153047304
0.6749950402300939
-0.37521337052043907
-0.25405545153047304
0.6749950402300939
-0.37521337052043907
-0.25405545153047304
0.6749950402300939
-0.37521337052043907
-0.25405545153047304
0.6749950402300939
-0.37271028127456474
-0.2522798456933831
0.676348532892509
-0.37271028127456474
-0.2522798456933831
0.676348532892509
-0.37271028127456474
-0.2522798456933831
0.676348532892509
-0.37271028127456474
-0.2522798456933831
0.676348532892509
-0.3676974312667694
-0.24968719416028173
0.6779406489274805
-0.3676974312667694
-0.24968719416028173
0.6779406489274805
-0.3676974312667694
-0.24968719416028173
0.6779406489274805
-0.3676974312667694
-0.24968719416028173
0.6779406489274805
-0.3642369278512547
-0.24751180553045152
0.6798578911773631
-0.3642369278512547
-0.24751180553045152
0.6798578911773631
-0.3642369278512547
-0.24751180553045152
0.6798578911773631
-0.3642369278512547
-0.24751180553045152
0.6798578911773631
-0.3618057818967705
-0.24678753673764128
0.680283326151516
-0.3618057818967705
-0.24678753673764128
0.680283326151516
-0.3618057818967705
-0.24678753673764128
0.680283326151516
-0.3618057818967705
-0.24678753673764128
0.680283326151516
-0.3591860801198043
-0.24496978521343188
0.6804456979450376
-0.3591860801198043
-0.24496978521343188
0.6804456979450376
-0.3591860801198043
-0.24496978521343188
0.6804456979450376
-0.3591860801198043
-0.24496978521343188
0.6804456979450376
-0.35587278352668367
-0.24220146126104491
0.6823673476137879
-0.35587278352668367
-0.24220146126104491
0.6823673476137879
-0.35587278352668367
-0.24220146126104491
0.6823673476137879
-0.35587278352668367
-0.24220146126104491
0.6823673476137879
-0.3533229351987385
-0.24084113227097464
0.6848825404532064
-0.3533229351987385
-0.24084113227097464
0.6848825404532064
-0.3533229351987385
-0.24084113227097464
0.6848825404532064
-0.3533229351987385
-0.24084113227097464
0.6848825404532064
-0.34934785568359616
-0.23997294620995055
0.6864818964892038
-0.34934785568359616
-0.23997294620995055
0.6864818964892038
-0.34934785568359616
-0.23997294620995055
0.6864818964892038
-0.34934785568359616
-0.23997294620995055
0.6864818964892038
-0.34632514909713286
-0.23926304744592716
0.6873219309310774
-0.34632514909713286
-0.23926304744592716
0.6873219309310774
-0.34632514909713286
-0.23926304744592716
0.6873219309310774
-0.34632514909713286
-0.23926304744592716
0.6873219309310774
-0.3463519727811688
-0.23917368633909508
0.6890457512287897
-0.3463519727811688
-0.23917368633909508
0.6890457512287897
-0.3463519727811688
-0.23917368633909508
0.6890457512287897
-0.3463519727811688
-0.23917368633909508
0.6890457512287897
-0.34591526415481283
-0.23899700991801812
0.6914064944296501
-0.34591526415481283
-0.23899700991801812
0.6914064944296501
-0.34591526415481283
-0.23899700991801812
0.6914064944296501
-0.34591526415481283
-0.23899700991801812
0.6914064944296501
-0.3430736600416889
-0.23864319761680866
0.692411698656588
-0.3430736600416889
-0.23864319761680866
0.692411698656588
-0.3430736600416889
-0.23864319761680866
0.692411698656588
-0.3430736600416889
-0.23864319761680866
0.692411698656588
-0.34015113174150996
-0.23795007025149795
0.6930322192633901
-0.34015113174150996
-0.23795007025149795
0.6930322192633901
-0.34015113174150996
-0.23795007025149795
0.6930322192633901
-0.34015113174150996
-0.23795007025149795
0.6930322192633901
-0.33555724925977304
-0.2381665124847905
0.6933295195738428
-0.33555724925977304
-0.2381665124847905
0.6933295195738428
-0.33555724925977304
-0.2381665124847905
0.6933295195738428
-0.33555724925977304
-0.2381665124847905
0.6933295195738428
-0.330475468536125
-0.23821707347453053
0.6950337288734526
-0.330475468536125
-0.23821707347453053
0.6950337288734526
-0.330475468536125
-0.23821707347453053
0.6950337288734526
-0.330475468536125
-0.23821707347453053
0.6950337288734526
-0.3231158888698077
-0.23961219907283135
0.6979778315609739
-0.3231158888698077
-0.23961219907283135
0.6979778315609739
-0.3231158888698077
-0.23961219907283135
0.6979778315609739
-0.3231158888698077
-0.23961219907283135
0.6979778315609739
-0.31600867993994697
-0.24080037930014206
0.7020876479759306
-0.31600867993994697
-0.24080037930014206
0.7020876479759306
-0.31600867993994697
-0.24080037930014206
0.7020876479759306
-0.31600867993994697
-0.24080037930014206
0.7020876479759306
-0.30721838790152034
-0.241661124882474
0.7063533065471272
-0.30721838790152034
-0.241661124882474
0.7063533065471272
-0.30721838790152034
-0.241661124882474
0.7063533065471272
-0.30721838790152034
-0.241661124882474
0.7063533065471272
-0.3022631704211052
-0.24250141039929982
0.7085335913812005
-0.3022631704211052
-0.24250141039929982
0.7085335913812005
-0.3022631704211052
-0.24250141039929982
0.7085335913812005
-0.3022631704211052
-0.24250141039929982
0.7085335913812005
-0.29803778790678176
-0.243022170969084
0.7102814468699312
-0.29803778790678176
-0.243022170969084
0.7102814468699312
-0.29803778790678176
-0.243022170969084
0.7102814468699312
-0.29803778790678176
-0.243022170969084
0.7102814468699312
-0.2923146117232241
-0.24345614858312048
0.7127640846712369
-0.2923146117232241
-0.24345614858312048
0.7127640846712369
-0.2923146117232241
-0.24345614858312048
0.7127640846712369
-0.2923146117232241
-0.24345614858312048
0.7127640846712369
-0.28783539618483756
-0.24434899866936471
0.7145280757842704
-0.28783539618483756
-0.24434899866936471
0.7145280757842704
-0.28783539618483756
-0.24434899866936471
0.7145280757842704
-0.28783539618483756
-0.24434899866936471
0.7145280757842704
-0.28385482428537884
-0.24503882342872285
0.7165960878668121
-0.28385482428537884
-0.24503882342872285
0.7165960878668121
-0.28385482428537884
-0.24503882342872285
0.7165960878668121
-0.28385482428537884
-0.24503882342872285
0.7165960878668121
-0.28206914027849994
-0.2458479907710468
0.7189202175835455
-0.28206914027849994
-0.2458479907710468
0.7189202175835455
-0.28206914027849994
-0.2458479907710468
0.7189202175835455
-0.28206914027849994
-0.2458479907710468
0.7189202175835455
-0.28056118107519096
-0.24637170022755367
0.7204513031565623
-0.28056118107519096
-0.24637170022755367
0.7204513031565623
-0.28056118107519096
-0.24637170022755367
0.7204513031565623
-0.28056118107519096
-0.24637170022755367
0.7204513031565623
-0.2795439744799414
-0.24639447557729405
0.7213453495996092
-0.2795439744799414
-0.24639447557729405
0.7213453495996092
-0.2795439744799414
-0.24639447557729405
0.7213453495996092
-0.2795439744799414
-0.24639447557729405
0.7213453495996092
-0.27841120186570023
-0.24662892831655034
0.7218621970167741
-0.27841120186570023
-0.24662892831655034
0.7218621970167741
-0.27841120186570023
-0.24662892831655034
0.7218621970167741
-0.27841120186570023
-0.24662892831655034
0.7218621970167741
-0.27671433328116446
-0.24662323822945517
0.7227410617591443
-0.27671433328116446
-0.24662323822945517
0.7227410617591443
-0.27671433328116446
-0.24662323822945517
0.7227410617591443
-0.27671433328116446
-0.24662323822945517
0.7227410617591443
-0.27575373022043564
-0.24598381283174459
0.7232309219905155
-0.27575373022043564
-0.24598381283174459
0.7232309219905155
-0.27575373022043564
-0.24598381283174459
0.7232309219905155
-0.27575373022043564
-0.24598381283174459
0.7232309219905155
-0.2749527608519702
-0.24504101132364112
0.72374068250829
-0.2749527608519702
-0.24504101132364112
0.72374068250829
-0.2749527608519702
-0.24504101132364112
0.72374068250829
-0.2749527608519702
-0.24504101132364112
0.72374068250829
-0.273718215548907
-0.2441044269809508
0.7241138387908321
-0.273718215548907
-0.2441044269809508
0.7241138387908321
-0.273718215548907
-0.2441044269809508
0.7241138387908321
-0.273718215548907
-0.2441044269809508
0.7241138387908321
-0.2737709652860273
-0.24365855067838735
0.7246093175037083
-0.2737709652860273
-0.24365855067838735
0.7246093175037083
-0.2737709652860273
-0.24365855067838735
0.7246093175037083
-0.2737709652860273
-0.24365855067838735
0.7246093175037083
-0.2739251735864864
-0.24313962049739465
0.7251819410445537
-0.2739251735864864
-0.24313962049739465
0.7251819410445537
-0.2739251735864864
-0.24313962049739465
0.7251819410445537
-0.2739251735864864
-0.24313962049739465
0.7251819410445537
-0.2732844283993513
-0.24259604253018371
0.7249843034637582
-0.2732844283993513
-0.24259604253018371
0.7249843034637582
-0.2732844283993513
-0.24259604253018371
0.7249843034637582
-0.2732844283993513
-0.24259604253018371
0.7249843034637582
-0.2726832826610628
-0.24174365248066296
0.7249824804429137
-0.2726832826610628
-0.24174365248066296
0.7249824804429137
-0.2726832826610628
-0.24174365248066296
0.7249824804429137
-0.2726832826610628
-0.24174365248066296
0.7249824804429137
-0.273312287020342
-0.24096581238803602
0.7250685446954473
-0.273312287020342
-0.24096581238803602
0.7250685446954473
-0.273312287020342
-0.24096581238803602
0.7250685446954473
-0.273312287020342
-0.24096581238803602
0.7250685446954473
-0.2732075785568913
-0.2399022859647476
0.725374295016583
-0.2732075785568913
-0.2399022859647476
0.725374295016583
-0.2732075785568913
-0.2399022859647476
0.725374295016583
-0.2732075785568913
-0.2399022859647476
0.725374295016583
-0.27223961668915136
-0.23880427552668151
0.725294277241438
-0.27223961668915136
-0.23880427552668151
0.725294277241438
-0.27223961668915136
-0.23880427552668151
0.725294277241438
-0.27223961668915136
-0.23880427552668151
0.725294277241438
-0.27138915862455626
-0.23738650496219377
0.7251432674475397
-0.27138915862455626
-0.23738650496219377
0.7251432674475397
-0.27138915862455626
-0.23738650496219377
0.7251432674475397
-0.27138915862455626
-0.23738650496219377
0.7251432674475397
-0.27183123577742707
-0.23607301796884725
0.7245805773732907
-0.27183123577742707
-0.23607301796884725
0.7245805773732907
-0.27183123577742707
-0.23607301796884725
0.7245805773732907
-0.27183123577742707
-0.23607301796884725
0.7245805773732907
-0.27231015466321357
-0.2347264012977029
0.7242926351282151
-0.27231015466321357
-0.2347264012977029
0.7242926351282151
-0.27231015466321357
-0.2347264012977029
0.7242926351282151
-0.27231015466321357
-0.2347264012977029
0.7242926351282151
-0.2715152380955777
-0.23319298533458355
0.7239007581656796
-0.2715152380955777
-0.23319298533458355
0.7239007581656796
-0.2715152380955777
-0.23319298533458355
0.7239007581656796
-0.2715152380955777
-0.23319298533458355
0.7239007581656796
-0.2711588882858975
-0.2306624420707736
0.7237743270138856
-0.2711588882858975
-0.2306624420707736
0.7237743270138856
-0.2711588882858975
-0.2306624420707736
0.7237743270138856
-0.2711588882858975
-0.2306624420707736
0.7237743270138856
-0.2702958908313988
-0.22803224169614894
0.723967954504962
-0.2702958908313988
-0.22803224169614894
0.723967954504962
-0.2702958908313988
-0.22803224169614894
0.723967954504962
-0.2702958908313988
-0.22803224169614894
0.723967954504962
-0.27025341200591524
-0.22565669914134756
0.7237849426504288
-0.27025341200591524
-0.22565669914134756
0.7237849426504288
-0.27025341200591524
-0.22565669914134756
0.7237849426504288
-0.27025341200591524
-0.22565669914134756
0.7237849426504288
-0.2699513064272926
-0.2236576199818271
0.723507616431696
-0.2699513064272926
-0.2236576199818271
0.723507616431696
-0.2699513064272926
-0.2236576199818271
0.723507616431696
-0.2699513064272926
-0.2236576199818271
0.723507616431696
-0.26968832888193695
-0.22179027514871974
0.7231369233275015
-0.26968832888193695
-0.22179027514871974
0.7231369233275015
-0.26968832888193695
-0.22179027514871974
0.7231369233275015
-0.26968832888193695
-0.22179027514871974
0.7231369233275015
-0.26973799937207077
-0.22016754672815186
0.7232693835818544
-0.26973799937207077
-0.22016754672815186
0.7232693835818544
-0.26973799937207077
-0.22016754672815186
0.7232693835818544
-0.26973799937207077
-0.22016754672815186
0.7232693835818544
-0.26990617418178586
-0.2191281249863037
0.7236116677794302
-0.26990617418178586
-0.2191281249863037
0.7236116677794302
-0.26990617418178586
-0.2191281249863037
0.7236116677794302
-0.26990617418178586
-0.2191281249863037
0.7236116677794302
-0.27042803770285184
-0.21772802714288228
0.7237104569918891
-0.27042803770285184
-0.21772802714288228
0.7237104569918891
-0.27042803770285184
-0.21772802714288228
0.7237104569918891
-0.27042803770285184
-0.21772802714288228
0.7237104569918891
-0.27100568811243564
-0.21621173270109462
0.7235656136108568
-0.27100568811243564
-0.21621173270109462
0.7235656136108568
-0.27100568811243564
-0.21621173270109462
0.7235656136108568
-0.27100568811243564
-0.21621173270109462
0.7235656136108568
-0.2713753745411215
-0.21572224381286503
0.7229885241962944
-0.2713753745411215
-0.21572224381286503
0.7229885241962944
-0.2713753745411215
-0.21572224381286503
0.7229885241962944
-0.2713753745411215
-0.21572224381286503
0.7229885241962944
-0.2709666331806033
-0.21517801185091223
0.7233766267191174
-0.2709666331806033
-0.21517801185091223
0.7233766267191174
-0.2709666331806033
-0.21517801185091223
0.7233766267191174
-0.2709666331806033
-0.21517801185091223
0.7233766267191174
-0.2710515134581479
-0.21433446614851773
0.7235026493724823
-0.2710515134581479
-0.21433446614851773
0.7235026493724823
-0.2710515134581479
-0.21433446614851773
0.7235026493724823
-0.2710515134581479
-0.21433446614851773
0.7235026493724823
-0.27158191463022613
-0.21316859125558565
0.7239078274617197
-0.27158191463022613
-0.21316859125558565
0.7239078274617197
-0.27158191463022613
-0.21316859125558565
0.7239078274617197
-0.27158191463022613
-0.21316859125558565
0.7239078274617197
-0.27131407040917216
-0.2122233610896236
0.7237060106332065
-0.27131407040917216
-0.2122233610896236
0.7237060106332065
-0.27131407040917216
-0.2122233610896236
0.7237060106332065
-0.27131407040917216
-0.2122233610896236
0.7237060106332065
-0.2721450056458692
-0.21181146412572466
0.7233474933179171
-0.2721450056458692
-0.21181146412572466
0.7233474933179171
-0.2721450056458692
-0.21181146412572466
0.7233474933179171
-0.2721450056458692
-0.21181146412572466
0.7233474933179171
-0.27152257449738515
-0.2114121883510786
0.7229076981019246
-0.27152257449738515
-0.2114121883510786
0.7229076981019246
-0.27152257449738515
-0.2114121883510786
0.7229076981019246
-0.27152257449738515
-0.2114121883510786
0.7229076981019246
-0.270677784860782
-0.21108109303835784
0.7225701111293429
-0.270677784860782
-0.21108109303835784
0.7225701111293429
-0.270677784860782
-0.21108109303835784
0.7225701111293429
-0.270677784860782
-0.21108109303835784
0.7225701111293429
-0.2700309451292961
-0.21057549219868651
0.7221558200517023
-0.2700309451292961
-0.21057549219868651
0.7221558200517023
-0.2700309451292961
-0.21057549219868651
0.7221558200517023
-0.2700309451292961
-0.21057549219868651
0.7221558200517023
-0.26933595902340346
-0.21023602998571783
0.7227755346020506
-0.26933595902340346
-0.21023602998571783
0.7227755346020506
-0.26933595902340346
-0.21023602998571783
0.7227755346020506
-0.26933595902340346
-0.21023602998571783
0.7227755346020506
-0.268632414299245
-0.20984683987570524
0.7226046687359364
-0.268632414299245
-0.20984683987570524
0.7226046687359364
-0.268632414299245
-0.20984683987570524
0.7226046687359364
-0.268632414299245
-0.20984683987570524
0.7226046687359364
-0.2686621200158536
-0.20840246042012067
0.722209846937967
-0.2686621200158536
-0.20840246042012067
0.722209846937967
-0.2686621200158536
-0.20840246042012067
0.722209846937967
-0.2686621200158536
-0.20840246042012067
0.722209846937967
-0.2689083661577179
-0.2067247204290153
0.7220810392498074
-0.2689083661577179
-0.2067247204290153
0.7220810392498074
-0.2689083661577179
-0.2067247204290153
0.7220810392498074
-0.2689083661577179
-0.2067247204290153
0.7220810392498074
-0.2678704832309691
-0.20554542205163528
0.721726653754588
-0.2678704832309691
-0.20554542205163528
0.721726653754588
-0.2678704832309691
-0.20554542205163528
0.721726653754588
-0.2678704832309691
-0.20554542205163528
0.721726653754588
-0.2676630867693565
-0.20485670822526536
0.7212941428984755
-0.2676630867693565
-0.20485670822526536
0.7212941428984755
-0.2676630867693565
-0.20485670822526536
0.7212941428984755
-0.2676630867693565
-0.20485670822526536
0.7212941428984755
-0.26700388237704803
-0.20395018204196194
0.72094366277606
-0.26700388237704803
-0.20395018204196194
0.72094366277606
-0.26700388237704803
-0.20395018204196194
0.72094366277606
-0.26700388237704803
-0.20395018204196194
0.72094366277606
-0.2667263228460931
-0.20323324231133155
0.7210083559547982
-0.2667263228460931
-0.20323324231133155
0.7210083559547982
-0.2667263228460931
-0.20323324231133155
0.7210083559547982
-0.2667263228460931
-0.20323324231133155
0.7210083559547982
-0.26634670516414927
-0.20240163392794766
0.7214805377528127
-0.26634670516414927
-0.20240163392794766
0.7214805377528127
-0.26634670516414927
-0.20240163392794766
0.7214805377528127
-0.26634670516414927
-0.20240163392794766
0.7214805377528127
-0.26619047246679883
-0.20143087815404606
0.7211746096250028
-0.26619047246679883
-0.20143087815404606
0.7211746096250028
-0.26619047246679883
-0.20143087815404606
0.7211746096250028
-0.26619047246679883
-0.20143087815404606
0.7211746096250028
-0.26649905050310163
-0.20019429907283895
0.7203307155587844
-0.26649905050310163
-0.20019429907283895
0.7203307155587844
-0.26649905050310163
-0.20019429907283895
0.7203307155587844
-0.26649905050310163
-0.20019429907283895
0.7203307155587844
-0.2659247373602781
-0.19927611788836627
0.7197147001664473
-0.2659247373602781
-0.19927611788836627
0.7197147001664473
-0.2659247373602781
-0.19927611788836627
0.7197147001664473
-0.2659247373602781
-0.19927611788836627
0.7197147001664473
-0.2651921380782133
-0.1986639655591209
0.7190824775477901
-0.2651921380782133
-0.1986639655591209
0.7190824775477901
-0.2651921380782133
-0.1986639655591209
0.7190824775477901
-0.2651921380782133
-0.1986639655591209
0.7190824775477901
-0.26457506394704994
-0.19851659209136238
0.7188417066897419
-0.26457506394704994
-0.19851659209136238
0.7188417066897419
-0.26457506394704994
-0.19851659209136238
0.7188417066897419
-0.26457506394704994
-0.19851659209136238
0.7188417066897419
-0.2636703182760881
-0.1976904743925977
0.7184390723847014
-0.2636703182760881
-0.1976904743925977
0.7184390723847014
-0.2636703182760881
-0.1976904743925977
0.7184390723847014
-0.2636703182760881
-0.1976904743925977
0.7184390723847014
-0.26192925573787523
-0.196582714791553
0.7184976733877584
-0.26192925573787523
-0.196582714791553
0.7184976733877584
-0.26192925573787523
-0.196582714791553
0.7184976733877584
-0.26192925573787523
-0.196582714791553
0.7184976733877584
-0.2604059778124443
-0.19568020054947774
0.7185326630603509
-0.2604059778124443
-0.19568020054947774
0.7185326630603509
-0.2604059778124443
-0.19568020054947774
0.7185326630603509
-0.2604059778124443
-0.19568020054947774
0.7185326630603509
-0.26031130743697883
-0.19521982490157705
0.7181877077101173
-0.26031130743697883
-0.19521982490157705
0.7181877077101173
-0.26031130743697883
-0.19521982490157705
0.7181877077101173
-0.26031130743697883
-0.19521982490157705
0.7181877077101173
-0.26019448662035494
-0.1952099846498514
0.7173927348311648
-0.26019448662035494
-0.1952099846498514
0.7173927348311648
-0.26019448662035494
-0.1952099846498514
0.7173927348311648
-0.26019448662035494
-0.1952099846498514
0.7173927348311648
-0.2589412073229821
-0.19617510007396827
0.7161798437105099
-0.2589412073229821
-0.19617510007396827
0.7161798437105099
-0.2589412073229821
-0.19617510007396827
0.7161798437105099
-0.2589412073229821
-0.19617510007396827
0.7161798437105099
-0.25657350555850167
-0.1980992923921733
0.7147041414076416
-0.25657350555850167
-0.1980992923921733
0.7147041414076416
-0.25657350555850167
-0.1980992923921733
0.7147041414076416
-0.25657350555850167
-0.1980992923921733
0.7147041414076416
-0.25813321137871664
-0.19939085898072798
0.7147652484069178
-0.25813321137871664
-0.19939085898072798
0.7147652484069178
-0.25813321137871664
-0.19939085898072798
0.7147652484069178
-0.25813321137871664
-0.19939085898072798
0.7147652484069178
-0.26262814111194965
-0.20038315278356397
0.7150560708050903
-0.26262814111194965
-0.20038315278356397
0.7150560708050903
-0.26262814111194965
-0.20038315278356397
0.7150560708050903
-0.26262814111194965
-0.20038315278356397
0.7150560708050903
-0.2706394468984037
-0.20200811573006272
0.7082552523583323
-0.2706394468984037
-0.20200811573006272
0.7082552523583323
-0.2706394468984037
-0.20200811573006272
0.7082552523583323
-0.2706394468984037
-0.20200811573006272
0.7082552523583323
-0.2821773303451149
-0.20325308736473738
0.6989590249195667
-0.2821773303451149
-0.20325308736473738
0.6989590249195667
-0.2821773303451149
-0.20325308736473738
0.6989590249195667
-0.2821773303451149
-0.20325308736473738
0.6989590249195667
-0.2936946231380741
-0.20504766038057023
0.6952720350518793
-0.2936946231380741
-0.20504766038057023
0.6952720350518793
-0.2936946231380741
-0.20504766038057023
0.6952720350518793
-0.2936946231380741
-0.20504766038057023
0.6952720350518793
-0.3011652401506154
-0.20890469647352286
0.6943877668951667
-0.3011652401506154
-0.20890469647352286
0.6943877668951667
-0.3011652401506154
-0.20890469647352286
0.6943877668951667
-0.3011652401506154
-0.20890469647352286
0.6943877668951667
-0.3057601786448454
-0.21192816748571766
0.6946544346863808
-0.3057601786448454
-0.21192816748571766
0.6946544346863808
-0.3057601786448454
-0.21192816748571766
0.6946544346863808
-0.3057601786448454
-0.21192816748571766
0.6946544346863808
-0.3133052961070704
-0.21249518903712528
0.6969143541923125
-0.3133052961070704
-0.21249518903712528
0.6969143541923125
-0.3133052961070704
-0.21249518903712528
0.6969143541923125
-0.3133052961070704
-0.21249518903712528
0.6969143541923125
-0.32034548729299755
-0.21280327137067687
0.698256800711026
-0.32034548729299755
-0.21280327137067687
0.698256800711026
