-2
-2
0
2
0
-1
-1
-1
0
1
-1
0
-1
0
-1
-1
0
1
0
0
-2
0
-1
0
-1
1
-2
-1
1
-2
-1
-2
-1
-3
-2
4
-1
-2
-1
-1
-1
0
1
-8
-1
1
0
0
-1
-3
-3
5
7
0
1
-1
-1
0
2
-3
-2
-1
-1
1
0
0
1
4
0
-1
0
-1
-2
-3
-6
-7
-3
-2
0
-2
-1
0
-1
-2
-2
-2
0
0
-3
-3
-4
2
0
0
0
-1
1
-1
2
-4
-3
-1
-1
-2
-2
0
0
3
-2
-2
-2
-1
-1
0
-7
-4
-3
-2
-1
-1
0
-3
-3
4
-1
-2
0
-2
-2
-2
-4
-6
1
-1
-3
1
-1
0
0
4
-1
0
1
-1
-2
-3
-1
-5
0
-1
-1
-1
-1
-1
4
-2
-4
0
-2
-1
1
2
-7
2
4
1
0
2
-1
-6
-6
-2
0
-2
0
-1
0
1
9
4
1
-1
0
0
-1
-3
1
-5
-5
-3
-3
-2
-1
2
7
1
-6
0
-1
-1
-2
1
-4
-2
5
1
0
1
-1
-5
-15
1
-1
-2
-2
-2
-2
0
2
-2
-1
-1
2
0
0
0
1
0
1
-1
0
0
2
-1
3
5
-3
-2
0
2
-1
-1
4
1
-2
-2
-1
-2
0
2
-1
-3
0
0
-2
-3
-2
-2
-13
-2
-2
-1
-2
-1
0
0
2
-2
-2
2
0
-1
2
6
5
3
2
1
1
1
-3
-7
-23
-6
1
-1
-1
0
-3
-3
0
-2
1
0
1
-1
0
-1
1
1
-4
-3
-3
-2
-1
3
-1
-5
-3
-2
-3
-1
3
-5
6
1
0
0
0
-1
1
-4
-5
-1
-1
-2
-1
1
-5
3
0
0
2
-1
0
-2
-2
-3
0
-1
-2
-1
-2
-1
-1
2
3
3
3
2
0
-1
-3
-5
0
-4
-3
-3
-1
-1
1
3
2
2
-1
0
-2
-1
-3
0
-4
-4
-3
-2
-1
-3
0
6
-1
-2
-1
-1
-2
1
0
-6
2
-1
-2
0
-1
-1
-3
4
-2
-1
-2
0
-2
1
-20
-11
-3
3
1
-1
1
-4
2
-1
5
1
-1
0
-1
-1
-1
10
2
-1
-1
-2
-2
-2
0
2
-3
-4
-3
0
-1
-2
5
12
0
3
-3
0
-3
0
-3
3
-3
-6
-2
-1
0
0
0
2
3
1
0
0
-3
0
0
-2
-1
0
1
-2
0
-1
7
0
-2
-1
-1
0
0
0
-7
-6
1
0
-2
-2
1
-1
-2
-3
-4
1
-1
-2
0
0
-1
0
-1
-2
0
0
-2
-1
2
-2
-1
-1
0
-1
-1
-1
0
-2
-3
-4
-2
-1
1
0
-3
0
-2
1
2
3
2
2
3
1
0
3
2
1
1
-1
12
-2
2
-3
-3
-2
1
2
-32
-13
5
-2
0
-2
-2
-5
-10
0
-9
2
-2
-2
-2
-1
13
2
-1
-8
-4
-4
-3
0
7
6
-12
-1
1
3
0
3
0
6
-13
2
1
1
3
6
2
-26
4
-10
-6
-7
-4
-5
-31
-5
3
0
-1
1
-1
-3
38
27
8
12
3
1
0
4
6
-6
2
1
1
-1
-7
-10
66
24
3
-5
-5
-1
-2
5
-97
51
-4
-6
-8
-6
0
-3
-9
-82
-5
-18
-2
-3
-5
-3
-21
16
-5
-24
-17
-15
-11
-12
-83
-2
8
-11
11
2
-13
-26
106
-82
-6
28
-12
18
7
18
-74
48
-3
-29
-1
-5
-2
-13
31
71
0
15
46
22
18
20
-30
-13
-7
-31
-33
-39
-23
-28
54
84
-5
8
-37
-18
-7
27
-36
56
8
2
21
38
12
-21
48
-39
-4
-7
14
19
-7
10
-14
33
3
13
34
-14
28
13
25
18
-3
25
15
-30
-3
12
10
25
-3
-13
-36
9
-13
-9
-15
96
-7
11
-10
-31
-7
-4
36
19
-13
18
-75
55
-10
0
-18
-100
11
6
67
-29
-9
-11
-19
4
0
4
72
13
-1
-5
-3
24
10
24
-23
24
15
5
7
-5
9
36
35
-28
18
22
-8
33
-9
-22
-45
17
22
13
38
3
6
12
-4
-19
-3
18
4
-21
9
-29
-32
-34
-26
-42
27
51
-2
-36
-60
-1
-12
5
-48
29
4
14
35
4
-15
-20
-24
66
3
30
16
15
12
-1
0
66
-14
-34
-28
9
6
12
-5
11
-1
22
14
-19
9
-3
56
4
0
-26
47
36
6
-13
-4
-3
-9
-1
-11
-13
-3
-15
-17
-116
14
21
-19
-5
-4
10
4
-36
-1
-26
-14
-11
-7
-11
-10
-57
8
-7
-3
-13
-7
-7
-48
-71
-4
9
-63
12
0
9
17
-48
3
19
83
53
27
9
0
-58
-6
14
16
-23
-16
-1
29
7
-1
6
0
-27
-16
7
0
-54
10
-17
-44
9
-15
8
-105
-34
-4
-2
-36
-67
0
-71
-3
-69
-13
9
58
96
16
31
65
32
6
31
7
3
4
-20
-46
-74
-13
-16
-89
-72
-3
19
44
20
3
20
108
-1
-8
5
40
28
-6
-18
-26
50
2
7
-59
-14
-17
-33
7
11
-17
-13
-7
15
1
28
41
-17
31
24
16
-36
-6
-39
-119
-24
-19
-9
-15
44
1
9
30
-27
-6
-2
13
11
-1
16
-13
-28
-1
2
19
-28
-16
-76
-99
-15
-4
-8
33
-23
-18
43
109
56
2
13
60
37
11
58
86
28
15
-16
-44
57
7
-31
-54
-3
16
28
-12
-52
16
-4
24
4
-32
-45
15
16
1
-24
-24
-33
3
31
2
-5
10
-8
-120
-26
-22
-11
7
19
-5
19
70
45
12
-3
80
49
-1
28
11
13
2
7
-11
-47
5
-33
26
3
4
7
-14
31
4
-4
5
-6
2
6
-3
-30
-6
-37
-70
-41
-6
-22
21
30
-11
39
15
36
0
-2
35
8
-8
35
30
19
-2
17
-3
-42
6
-40
-4
-23
-5
-10
-47
-22
1
10
34
0
-1
7
82
12
-7
-59
-87
-18
-7
23
44
79
7
53
28
47
10
-10
-79
-69
5
12
59
-25
-3
-18
-20
-7
-3
-2
-19
1
-3
1
40
39
11
8
56
1
0
-8
-64
-82
1
-12
-115
-59
-5
19
21
6
-17
-24
4
25
-5
0
-24
-18
-4
31
-27
6
9
0
-1
19
-3
-39
-2
5
-6
-1
-18
-22
1
-39
28
-26
-15
-39
55
-11
-4
-15
-8
-18
-1
32
-28
-35
-9
8
-62
24
4
-27
-2
78
11
54
125
59
17
-1
-33
51
8
6
-56
8
-1
24
-20
-79
4
24
-25
-33
-15
-17
68
-25
-7
-72
-90
-40
-7
28
-3
43
-1
22
7
-18
-8
-3
-51
16
-2
-29
-24
7
-2
-35
23
47
-4
27
46
-8
8
14
-31
-34
-5
0
4
27
-3
-3
-61
-123
-10
9
-20
0
15
0
48
52
-3
-6
60
9
-12
-2
-41
68
5
5
-36
-13
12
-1
-20
96
-15
10
45
19
5
3
10
-88
7
-58
-1
-54
-37
-11
-48
-3
2
-2
-78
18
8
-8
-8
58
-11
-11
53
17
2
-1
-82
-40
7
15
-57
6
7
-14
45
13
-6
38
117
33
13
4
-10
49
5
5
-15
-36
1
21
69
52
-2
-46
-100
-51
-14
-2
-21
69
-6
20
58
47
12
11
-39
-44
-1
2
14
-7
-11
-20
-42
-51
5
-2
3
-5
-8
-4
-34
64
6
-39
-4
-3
14
-2
13
-17
3
20
-26
-18
-8
-5
-64
-76
-21
-18
-8
6
-9
-22
2
10
-4
27
62
55
19
17
-19
-37
-10
-13
-22
-19
-6
-6
100
95
-17
-27
-92
-19
7
11
-36
9
19
-51
29
-2
-4
-8
12
-24
-10
44
32
-11
-10
-8
-11
-12
-3
30
-17
30
9
0
28
20
10
-8
8
-52
-6
-3
67
59
-9
-14
-63
-14
8
28
18
-82
-10
-31
-66
-27
-23
-11
-2
104
-7
59
73
72
15
7
-21
-97
11
-28
50
19
8
-8
-42
-32
-3
-48
43
35
19
10
56
21
26
47
25
-19
-4
2
-22
-50
-3
-2
-18
-14
-15
-7
-76
15
-10
8
-21
-35
-19
0
10
81
-16
30
-66
-19
17
5
51
19
-12
-42
20
28
10
18
12
91
8
36
19
5
0
-4
-67
-109
4
-8
16
4
-9
-21
64
78
-11
-7
-93
-76
0
18
-51
74
-12
-3
-53
49
-3
-12
39
-58
3
-10
99
83
9
6
-10
-16
12
24
47
3
0
-8
-5
70
15
46
-41
-39
5
5
35
-86
4
-15
-52
-51
0
-12
-36
-66
-4
-49
-69
-11
-1
14
60
61
-15
-53
57
54
-16
-15
-19
-56
3
54
45
2
3
-7
99
127
-4
-12
-35
-21
6
28
-66
-128
9
-6
-3
-20
1
-26
18
20
-5
12
-25
-41
-8
9
-33
-21
7
13
33
56
-10
-15
60
76
8
-17
14
-26
0
2
24
55
-7
-21
-20
5
6
11
34
-17
11
37
83
30
6
-2
3
31
1
-2
0
3
8
9
-60
-81
-8
-9
-20
-30
-27
-22
52
38
4
-20
-70
-46
-2
-8
-21
28
7
-28
0
15
1
3
32
75
-11
24
5
15
6
5
-12
-71
-2
26
79
29
5
-9
33
-19
2
9
-11
-30
-2
11
28
-10
0
-47
-55
2
6
-1
-28
-14
12
19
5
0
-28
0
-7
37
-11
-25
-20
-3
13
2
-33
-26
0
14
13
-18
-7
-3
-4
-76
6
25
51
29
0
-8
1
45
7
-8
-51
-21
6
3
-41
-75
-21
-22
1
-3
0
-15
47
69
-1
15
-6
36
-11
21
-14
-56
1
3
66
0
14
-7
27
-80
6
-23
-25
-24
-13
9
-57
34
1
49
-1
9
13
-3
-45
-35
-3
-30
-21
-20
-17
-55
-24
24
1
-9
-39
-41
-20
0
73
57
-18
-44
-26
4
1
18
-15
-19
2
24
9
38
0
-35
38
67
7
-11
81
24
16
20
-1
-58
3
45
-3
-1
-4
12
-25
-69
-5
-17
11
-8
1
-22
30
51
7
-30
-71
-38
1
31
-22
-6
-9
14
-12
8
-8
-8
50
57
2
-4
44
39
3
-4
-48
55
0
41
24
-6
9
3
-3
-70
-3
-28
-74
-39
-9
3
-19
13
-9
4
68
28
2
1
8
-9
3
12
-65
-30
-19
-7
-1
2
5
8
53
30
12
-5
-11
32
1
8
35
-11
-6
-6
9
-32
-6
-22
-93
-16
4
9
19
33
-10
-25
24
8
11
23
-2
-9
7
2
-5
0
-18
-22
28
13
-1
8
-44
15
0
11
14
-24
1
23
76
1
12
2
15
-18
-7
-2
17
8
0
19
-10
1
5
-16
-59
-11
-7
-20
8
-3
-3
-28
14
-10
3
-2
3
-3
-4
27
21
7
-1
0
5
65
13
3
-47
-19
-8
-7
4
5
-11
-9
43
5
15
14
5
9
10
28
27
29
-17
11
-28
-28
3
-31
-62
-17
-6
-23
-12
-1
-10
-15
-79
-27
6
3
28
29
1
14
48
-13
-9
-16
-51
-9
-4
1
95
59
9
-5
-2
-44
0
16
-9
-4
8
29
21
1
11
-14
-18
-15
-9
-18
-1
5
10
-11
-46
-37
-7
10
13
-24
-18
-17
-40
2
3
1
-28
0
-4
-18
21
-10
-9
2
14
26
-1
55
51
33
9
9
-37
-38
-5
-13
-26
3
0
1
17
-8
4
-2
57
-5
0
-19
-15
9
7
-4
-87
-14
-10
-11
16
36
-9
-1
31
-6
15
11
-6
-13
-3
-13
40
38
-8
-15
10
56
9
7
-14
-15
4
19
-25
-44
-6
-4
-47
-4
-13
-12
-6
8
-8
-11
-31
-13
8
-11
14
-18
-2
3
42
18
2
14
-10
18
4
-28
-51
-26
0
-12
30
-12
8
57
112
36
7
4
54
8
0
-3
-14
2
-15
6
7
-12
1
0
-44
-55
-8
3
-9
-15
-5
-16
-2
32
2
4
10
31
-2
-22
-17
19
4
1
35
-3
-4
15
33
19
9
10
-14
-24
2
22
29
-4
-1
-4
31
30
0
0
-50
-32
-12
-1
6
-11
0
-19
1
-29
-12
-1
-34
6
-1
12
-5
2
8
-14
42
12
-12
-16
-22
5
-2
9
-90
-53
2
21
43
9
-3
-12
47
32
-5
-25
-34
0
10
-1
-18
3
7
-9
-20
-13
-6
4
14
32
-9
24
37
23
4
2
-17
-18
-1
4
34
19
3
2
9
-11
7
-13
-40
-39
-8
-2
6
29
-6
12
-13
6
0
12
-68
-50
-4
-12
-2
6
-2
-10
34
21
4
-8
-4
-15
-6
10
-43
27
-7
16
23
40
5
12
5
19
8
-21
-34
-27
-2
-10
-13
-7
-2
19
2
3
-3
8
15
-47
-7
-30
-11
9
3
-12
-2
-7
3
6
28
4
6
-12
-15
0
2
22
33
-12
-12
-5
8
-5
-1
6
-16
17
-6
5
-2
24
-2
-13
1
-10
9
0
12
-6
-6
5
-13
0
7
3
-46
-28
0
-24
-3
-15
-20
-19
20
-8
3
-7
-48
-12
16
0
5
25
-7
18
8
-17
-10
22
-30
-8
-5
1
38
33
-4
1
2
5
-4
-28
14
0
-1
-21
2
25
6
-4
5
12
7
12
3
-59
3
7
-32
4
5
-8
16
-4
1
27
15
-30
0
1
1
3
-4
-12
-42
-7
-14
2
-20
10
-9
-2
47
10
0
12
43
-3
14
20
42
19
12
-16
-2
15
4
20
-25
-27
-3
5
-23
2
-8
-16
-9
9
9
2
-25
-48
-10
-46
-44
-15
-22
-16
-46
-5
-6
-3
-19
-43
10
-2
-7
-13
-1
13
2
25
-1
6
18
52
1
5
49
35
15
20
-34
-22
4
12
-8
-16
-9
-23
17
22
5
15
9
-4
-5
10
26
-4
-3
-57
2
5
0
-3
10
58
1
32
6
-2
4
-4
4
-68
3
-10
-9
1
4
13
25
37
-5
-6
-30
-5
-6
-10
-5
-16
-7
-8
-4
-5
-5
-7
1
-13
-2
0
22
10
-5
7
-18
24
9
19
1
-1
8
-5
0
-14
-2
6
3
5
-4
-4
20
56
1
-26
-12
-8
4
15
-7
-30
-3
3
-18
-15
-14
-11
52
66
-3
-25
9
8
15
2
-67
-91
2
6
6
17
2
0
-22
-7
-12
21
-4
-26
1
-1
46
3
4
-4
8
5
4
6
8
33
9
-2
18
30
-16
-20
26
127
0
6
2
2
15
19
90
-69
-13
26
6
10
3
8
-54
-128
10
-15
-24
-34
-19
-37
-14
-99
-9
-13
-26
-12
1
-3
-35
14
0
4
13
9
-11
-9
-9
65
-5
4
19
-9
-3
8
-5
24
-2
-5
-55
0
14
-5
8
5
-4
18
80
17
-12
-4
8
41
8
1
3
5
-1
-5
-50
38
3
28
-11
-15
-2
-10
22
56
-9
-5
1
15
7
20
-7
46
6
-39
-51
-23
6
6
-38
-128
-6
-48
-28
-3
6
-24
-16
-21
-2
6
18
-8
-2
5
-16
-61
4
11
36
25
-10
-5
68
72
5
5
-2
-7
9
20
9
33
1
27
-2
-8
-10
-10
-16
9
3
-27
-15
18
19
15
-33
-78
9
-8
-10
-38
-14
-69
-35
-7
-11
9
-7
20
5
21
12
34
3
25
26
21
5
5
-34
-77
-6
-50
-25
-16
-14
-18
17
46
-17
10
-16
-15
7
38
7
15
5
-2
-6
-23
-10
-12
-20
5
-4
2
4
11
-9
1
-18
61
-4
47
52
28
3
-15
-38
4
4
-17
-15
7
8
-3
33
73
-5
3
-6
-10
-11
-3
26
1
-3
-14
9
16
14
29
78
56
7
-26
-34
-52
2
8
-18
-52
-2
13
16
40
-22
-12
-13
43
-4
21
6
11
15
-6
-5
-43
1
5
-13
-34
-11
-7
-40
28
3
18
-5
7
-1
1
-19
17
-16
-56
-62
-33
8
-18
-23
-66
-6
12
58
11
-12
-17
80
76
1
-13
19
15
13
18
-103
-61
17
0
31
29
-17
-11
37
-4
-7
11
17
-9
6
32
21
66
12
-2
-79
-16
-1
6
-85
-23
-22
9
0
19
2
3
1
16
-6
-6
21
-12
-1
-6
-25
35
19
25
39
6
-2
-9
42
45
-6
10
-18
-15
2
1
2
-22
1
2
-35
-33
-21
-15
33
-34
11
-18
8
25
-1
-7
4
6
10
35
31
17
24
28
76
78
-43
-16
24
-9
4
14
-67
-64
-2
-26
-51
-6
-24
-29
8
-17
-26
-37
-12
-2
-1
1
-34
-10
21
6
29
-22
-15
-13
5
-40
16
12
-66
12
6
0
43
33
-33
-6
67
21
14
4
20
-25
10
28
7
18
19
14
16
33
-10
-3
28
-4
-5
0
-70
-65
5
-27
-39
-31
-5
-35
29
-11
4
-4
8
-27
-6
5
-74
-6
16
26
-19
15
-2
-21
-8
-17
-13
-10
7
23
3
-4
24
-32
5
28
47
32
4
15
6
48
12
-13
-17
-9
11
-9
31
19
0
18
-3
-24
-6
16
10
11
-5
-14
-46
-17
-14
12
-14
-46
-2
-4
38
-4
-10
-24
-16
-40
-11
-6
-14
12
6
6
102
45
-2
-32
-6
-2
-7
-7
66
11
-8
-17
-12
-12
7
-7
-22
-19
-10
2
25
10
-2
5
8
13
-4
11
22
7
-3
20
15
-60
-4
5
-38
-28
1
-9
-39
-39
7
-13
1
6
-11
-13
-25
4
10
-12
3
-5
2
5
68
36
23
9
-18
2
2
-2
-35
-44
-3
-20
-20
-38
-15
-32
32
75
-9
4
9
51
16
43
5
-54
-4
3
18
-1
6
12
-5
-28
29
-12
-14
-5
-14
10
-24
35
-26
5
1
10
5
-11
-9
-76
4
2
-33
-40
-3
11
-77
-1
-9
17
40
29
5
-16
15
13
-8
23
-1
-16
-7
21
-17
17
1
-47
-92
-18
-16
11
53
50
13
12
82
33
6
-27
-53
-52
-2
20
29
27
-4
14
21
-49
12
5
14
-9
-5
-6
72
30
-3
-14
3
-13
-4
19
-15
-11
-27
-18
-78
-36
20
-49
49
45
20
-8
-9
3
-5
-3
-11
-9
-16
-17
6
1
2
11
-51
-24
0
8
20
8
0
12
-19
17
17
0
42
18
-18
-64
-6
0
-11
1
-33
-22
3
8
-41
8
0
-6
-20
6
3
-52
24
29
8
16
46
12
-4
35
11
39
-9
57
2
-6
6
63
24
-11
-6
-44
-20
0
-25
-69
-52
-20
0
-45
-19
-8
0
29
7
-56
-1
20
-8
-8
-10
-29
18
-19
12
-2
17
5
-17
11
19
-24
-11
3
-26
-13
-14
15
19
53
-16
8
4
5
3
9
2
14
25
22
53
39
7
-30
18
-2
-16
-15
-23
-21
14
27
38
42
8
5
-16
-4
-23
7
-28
-21
2
-6
16
-10
-15
-27
-14
-1
2
13
-3
0
9
6
14
24
9
-13
-30
-1
10
10
-28
4
-1
20
-4
-13
28
-11
83
61
6
-17
30
4
-21
15
15
8
-16
2
-16
-5
18
-18
-75
6
5
-14
-27
-4
-8
13
-9
-33
-24
13
48
0
6
-4
-25
-1
-13
23
-23
-3
3
-8
-13
-8
-10
-20
-15
-14
-12
32
62
0
13
-25
-3
26
13
14
-11
-60
-21
-3
-16
2
6
28
13
-50
-11
29
37
14
-5
2
-5
-9
8
-12
26
0
-9
4
-5
-10
-17
1
-6
-14
-13
1
34
-6
15
-11
-18
-2
1
-7
-42
8
-3
-25
-39
-24
2
-11
-33
38
-8
40
1
12
-11
21
45
77
-3
-15
-1
-11
-3
11
-4
-49
14
-30
5
-1
-9
-7
3
10
4
24
-17
11
9
13
-5
-16
9
3
7
-27
13
-32
8
62
-30
28
-19
-4
16
30
-71
-44
4
11
31
57
-18
-50
26
38
-15
-13
31
-15
-2
4
-47
-2
11
5
6
14
15
-5
34
-38
16
3
-33
-22
-7
-15
13
39
0
-6
-16
-38
-18
-3
14
-13
16
24
21
41
2
-5
-21
58
0
-12
-8
-1
-6
16
-16
-53
3
-5
8
-19
-7
-28
22
91
1
7
-23
-3
35
31
-86
-16
-22
7
19
1
-13
-41
34
15
-5
-36
-13
-8
-11
26
-119
14
11
18
19
21
-6
-57
76
72
7
-27
-23
-10
-5
4
26
-11
13
23
14
-4
17
13
-2
99
1
-20
-37
6
-6
6
-85
-128
-18
-13
11
-19
-27
-8
40
30
12
24
46
29
28
24
21
54
-10
-19
-12
-3
-10
-14
-42
-78
10
26
11
12
25
21
92
10
10
-36
-24
-12
-36
-16
-27
25
-13
-13
-22
-38
-24
-15
70
-16
35
11
3
33
17
0
1
9
-14
6
4
-7
-6
-26
13
-30
5
17
5
8
23
16
-43
-17
-1
-16
-11
-17
-8
14
-6
-39
21
-1
5
5
-8
-13
51
-42
-10
5
-9
-3
8
-18
33
-31
-32
11
36
21
12
13
12
22
-3
-36
-17
-15
-29
-10
-30
-30
5
4
-12
-9
15
-1
13
-40
3
9
16
11
10
0
1
8
5
15
16
-1
-25
5
-41
-11
4
47
-5
-9
-11
-33
72
50
19
-44
-30
-11
23
51
-11
-70
-26
6
8
-2
-15
-17
-13
16
0
-24
-15
-8
-8
-41
-48
-6
26
85
25
17
47
24
8
92
-37
-11
-6
-7
-20
4
-16
-94
12
-54
-26
-14
-11
-57
1
-6
-5
34
27
15
10
54
43
-72
-1
-20
-15
-18
-32
-33
-26
38
-13
22
9
3
6
-7
41
87
6
32
4
10
19
25
-66
31
18
-45
-18
-6
-12
-16
-22
18
-17
-8
-5
6
30
28
-82
-40
-6
-4
-1
-6
-13
-18
17
72
2
-36
-5
5
-9
12
56
43
3
8
3
-3
-8
-19
-9
-34
26
-26
-5
2
28
24
-3
27
-14
-31
-7
-22
-28
14
-20
-83
-3
-22
-13
5
-4
-36
33
-68
25
31
18
3
-2
-11
22
-82
18
-14
5
10
-2
14
18
-38
-39
-9
-10
-9
2
-24
-28
46
15
15
-7
-15
-3
12
-12
58
-30
-28
-12
-2
37
9
49
76
-21
44
0
20
-7
-16
-36
3
39
-29
2
-6
-4
3
42
84
-24
4
13
-2
-11
1
-4
18
-8
-14
-9
5
3
-35
-1
35
-7
-28
7
-8
-16
10
-74
10
29
37
12
8
40
91
80
44
-11
-4
-21
-21
-8
-60
39
23
0
-34
1
26
2
36
-16
22
-45
-13
-29
-39
4
-30
58
-60
6
3
-14
-17
-43
-18
-15
0
24
14
59
58
-4
7
-82
-10
-21
68
3
3
18
-2
23
97
-16
45
10
3
30
56
9
-83
-26
-46
-31
-10
12
-19
-57
-2
-5
-30
-11
-30
-29
-22
-27
6
8
-4
12
4
-30
-1
-21
-32
12
36
2
-24
14
24
12
36
0
25
-21
33
-20
-64
18
-20
-23
-8
16
-4
15
16
-11
-25
-12
-27
15
-6
10
47
2
-26
21
-23
-16
10
-11
-23
29
23
21
15
19
3
12
-4
-38
-38
-27
26
12
15
-7
25
48
15
12
-28
-45
-29
12
4
15
-35
16
-36
-3
-9
-32
-30
-33
-5
10
28
16
-4
-17
-9
51
4
8
-37
-2
-2
-9
5
-108
-43
12
49
5
-5
-28
-17
8
-5
-12
-24
-10
12
23
-2
29
-15
-1
-8
-9
-2
-40
-2
-15
-53
15
26
6
9
42
24
51
-12
6
-15
-3
-3
4
16
-12
-38
40
0
-12
1
-21
-12
-20
-13
17
31
27
10
42
-6
-2
-47
23
19
-6
-24
9
15
-2
-44
-5
1
11
17
0
3
-4
-33
-7
-17
13
6
-33
7
1
-4
-16
-4
-18
-21
7
1
2
-13
-23
-14
-20
6
34
-10
20
-41
-17
-2
4
3
24
-1
-26
-35
-18
0
6
-2
-50
-1
1
-14
-6
-1
3
1
-7
6
9
0
16
-9
-10
-10
5
-2
2
3
4
-9
-4
-12
-8
-11
-9
-14
5
14
2
20
36
2
11
-4
5
-8
2
-9
-13
-1
-8
5
-1
3
-1
3
-31
-4
9
16
-9
7
-5
1
10
1
0
8
-6
8
2
-8
-2
-3
7
15
-12
6
2
6
15
3
-8
4
-33
-2
-5
-3
-17
0
7
-17
-12
3
-5
2
-12
0
3
13
-18
-4
4
7
-5
-5
-1
27
-22
-9
2
6
12
0
2
22
-7
6
-9
-14
-26
2
6
29
-5
-6
-6
6
29
-6
-3
34
-28
-12
7
-3
-9
-5
-2
29
-11
7
4
-2
15
-1
-3
40
-12
-1
-4
-5
45
-6
9
55
18
5
4
-1
21
3
-7
36
-9
-8
-4
-6
19
-4
2
40
-7
-3
0
2
25
5
3
36
29
4
-2
-1
2
0
0
14
16
-1
-4
5
-19
4
-4
14
12
3
1
3
-2
0
-1
11
2
-13
-3
-7
-3
2
-2
7
27
1
-2
0
-24
-6
7
24
-12
-1
4
-1
-9
5
-10
24
24
1
1
-3
-14
-6
-14
8
-6
7
3
2
-51
-10
15
18
-15
12
-2
0
64
4
-9
3
-36
-12
-2
-1
-45
-19
-7
-16
-62
-27
-3
-9
-5
11
1
-16
-1
4
0
-5
-5
-8
11
-35
-5
3
4
11
0
9
11
-7
34
30
4
4
-6
1
-18
-26
-57
15
2
8
28
12
-14
-15
57
0
-2
-4
6
-12
-11
-4
-42
-36
-8
-2
-42
-10
2
-15
-4
-19
-9
-8
7
1
18
24
53
38
13
4
-2
4
11
-5
-30
-10
1
-3
10
1
-1
29
13
23
12
8
0
4
-13
13
-66
12
4
-3
16
-1
11
-17
-37
-31
-15
-12
-18
-18
-2
-7
-76
-15
-6
-1
-6
5
2
5
41
6
-4
-3
-6
4
-7
-3
30
1
3
0
5
1
10
25
87
24
8
5
8
4
5
-12
33
-32
-6
-4
-1
4
-19
4
32
10
-6
-2
-20
-7
-4
5
28
-4
0
1
10
-2
3
8
30
-9
-1
0
3
-4
1
-13
-48
-11
-2
3
1
3
-5
-1
0
4
0
-1
-1
4
5
0
35
4
2
-2
-5
-2
-4
-17
-30
-9
-6
-1
0
-9
-5
8
2
7
4
3
8
3
3
-20
-10
-10
-3
-6
-6
0
3
-11
-8
-8
-1
1
0
-4
3
0
26
-1
3
2
0
5
-5
-5
25
17
-1
2
6
0
-2
-1
17
-2
1
3
-5
6
0
-9
15
-4
-6
-4
-7
-3
-15
-6
9
-5
-3
-1
3
-1
8
-1
19
-1
-1
-3
1
-1
1
-1
-11
-8
0
-1
-4
-5
0
6
-1
3
-1
-3
3
1
-4
-9
-17
-6
-3
-3
-4
1
-1
2
8
13
1
3
-1
0
-2
-7
-5
-3
0
0
3
-2
-3
0
-9
2
0
-5
-13
-2
2
1
-1
7
-1
1
10
-3
0
2
7
0
0
-2
-6
-1
-1
-10
-6
-9
-4
-5
-10
-5
-2
-6
-10
-9
-2
0
16
-1
1
3
2
5
3
-1
-3
-4
-1
-3
-3
-2
-2
1
4
1
-5
-5
-20
-9
-3
-1
-8
-5
0
-1
4
-2
-2
-1
-5
1
1
-1
-13
0
0
-1
6
-2
-2
-5
0
-4
-2
0
12
0
0
-2
-3
3
0
-1
-6
-4
-2
-4
4
-3
0
1
5
-1
1
0
17
-1
-4
-3
-8
-2
-1
-2
-7
-6
0
-1
-7
-2
1
-2
-4
1
-1
0
2
0
-2
-2
-18
-1
0
0
-2
2
-4
-9
17
-1
-3
1
0
2
1
4
1
5
3
0
-2
-1
0
1
-10
1
2
-1
-8
1
0
1
2
-6
2
1
10
-2
1
-3
-13
-4
2
3
0
1
1
2
5
-1
-3
0
0
1
0
2
8
2
1
-2
4
1
2
0
-14
0
0
-2
-3
-1
-2
-6
-12
-6
-2
-2
3
0
0
2
7
4
1
0
0
1
-1
-3
1
0
1
2
-6
0
-1
-1
6
3
-2
0
-4
0
-2
-8
-21
-6
-2
-2
-1
-4
1
1
1
0
0
0
-2
-1
0
0
-4
2
2
-1
-5
-1
-1
-3
9
-1
1
-2
3
-3
0
1
-6
0
0
-1
-3
0
-5
-6
-1
-2
-5
-4
-6
-3
-3
-5
5
0
-3
-1
5
0
-2
0
6
1
-4
0
-4
-1
-2
-6
-9
-4
-1
-2
1
0
0
-2
-3
-3
0
-2
-2
-2
-1
-2
8
2
-2
-1
4
-1
-1
-3
-6
1
-1
-2
-6
-2
-4
-4
-10
-5
-5
-3
0
0
0
-3
-1
1
-1
-2
2
-2
-2
-3
-14
-2
-3
-1
3
0
1
-2
0
0
3
0
-5
1
1
2
8
1
1
0
3
0
1
-2
-4
0
2
0
1
1
-3
2
6
-3
-2
-2
3
-2
-1
-8
2
-6
-3
-2
-3
-1
0
0
8
5
1
0
0
0
1
-1
5
0
-1
3
6
-1
0
1
4
0
-2
-2
-1
0
-1
0
-3
-3
0
-3
-3
-2
-2
-2
0
-1
-1
-1
-6
-1
0
2
6
1
0
0
-6
0
0
-5
-12
-4
-2
-1
4
-3
-1
-2
-4
-2
-3
-2
-1
-1
-1
-1
4
2
0
-3
-1
-3
-1
0
-2
1
-2
-2
-5
2
-1
1
-7
-2
-1
0
-1
0
-1
2
-7
-3
-2
-3
-2
-1
-2
-3
16
0
-2
0
-1
-1
-2
-4
0
-1
-1
-2
-4
-2
-1
-3
-8
-5
1
-2
-1
-2
-1
-1
3
2
-1
1
1
-1
1
-1
0
1
0
0
-1
-1
-1
0
-2
0
1
0
-1
-3
0
-3
3
-1
-1
-1
-2
0
0
3
-2
1
0
0
0
-1
-3
-6
-11
-3
-2
-1
-1
-1
-2
-1
-4
0
-1
-1
-1
-1
0
2
-3
0
0
0
-1
-1
-1
-2
5
0
-1
0
-1
-1
1
4
-1
5
2
1
-1
1
-1
-2
1
-2
-2
-2
0
-1
-2
-5
-4
-3
-3
0
-4
-2
1
1
-3
-1
-5
-2
-3
-1
0
4
8
-1
-2
-2
1
0
-1
-6
-31
-2
-3
-1
-1
0
-1
0
2
0
1
-3
-1
0
0
-3
2
-3
-3
-4
-3
-2
0
1
-2
0
-4
-3
1
0
-3
1
5
-5
0
-1
2
-1
0
-2
3
2
-10
-2
1
0
-3
-1
-7
2
14
8
-1
0
2
4
2
2
9
7
1
-1
-3
-4
6
-2
0
-3
-4
-1
-1
-2
1
-3
-3
-2
1
0
-3
-2
-1
0
-10
-7
-3
-1
-1
-2
-8
-6
-3
-2
-3
-2
1
2
9
-1
-2
-1
-1
-2
1
-2
-7
-1
-1
-1
1
0
0
-1
1
1
1
0
-3
1
0
-1
-3
0
4
1
-1
-5
-2
-3
2
1
-1
0
1
11
0
-1
5
-3
-1
-4
-2
-1
-2
-1
-6
-1
-1
1
1
1
-3
-5
-6
-2
-4
-2
-5
-3
1
1
2
-1
0
-1
6
-1
-2
1
4
2
3
-1
-2
0
-1
-3
-5
-2
-1
2
-1
-1
-1
2
7
-3
-2
-1
0
2
-1
0
0
2
-2
0
-2
-4
0
0
2
-2
1
0
-2
-2
0
-2
-16
2
-2
-3
-2
-3
-1
-6
13
1
-3
-1
1
1
-1
-1
-8
3
0
-2
-1
-5
-1
-3
-25
-4
1
-1
0
-3
0
-2
7
-2
1
-1
-2
0
-3
-1
-4
-3
-4
-1
1
0
1
-2
-1
-3
-3
-1
-3
-3
-1
1
10
0
-8
0
1
-3
1
1
0
-1
6
-2
-1
1
-1
-6
-11
-4
-2
-2
-1
0
-1
1
0
-3
-4
-3
-2
-4
-1
1
0
1
5
3
-2
0
-1
1
3
1
-2
-1
0
0
-1
-1
-2
-4
-3
-5
-1
-3
2
-1
2
1
-2
0
0
0
1
-2
3
5
3
-1
0
1
-1
0
1
-4
2
3
0
-2
-1
0
0
3
2
0
-1
1
-2
1
0
-4
-6
-2
-1
0
-1
-1
6
-2
-5
-1
0
-1
-1
-1
-6
-2
-1
-3
-1
-2
0
-1
-2
4
1
0
0
0
-2
0
5
-1
2
0
-1
-1
-2
-1
1
-2
-1
-1
-1
-1
1
0
0
-2
-3
0
-1
-2
-1
-3
-4
-2
-2
0
-2
-1
-1
4
-9
0
1
0
1
0
-1
-5
6
5
2
-1
0
2
0
-2
-16
-9
-4
-1
1
0
-2
-1
-5
2
-1
-2
1
1
0
7
15
3
2
-1
1
3
7
-12
-23
-1
-5
-2
1
-2
-10
16
7
-3
-1
-1
0
-4
27
-7
8
1
5
0
0
3
-30
-2
-2
-2
-2
-3
-4
-2
-6
-4
4
-2
1
1
-8
-2
24
5
-1
7
-8
-4
11
4
4
0
-2
-5
-6
-2
-5
-1
1
-4
-4
-5
3
1
-2
-7
-29
2
3
0
4
-1
0
-3
43
22
-2
3
6
2
-2
9
-63
-26
-8
2
0
0
7
11
-19
-13
-4
2
-8
-1
-5
-6
44
3
-4
-11
-2
-3
-9
-8
14
25
7
0
-4
2
3
-3
-32
17
3
-8
8
-5
-3
6
-34
-4
-11
18
-2
-4
-5
-1
70
-30
7
-38
-11
-7
-2
-8
-33
24
-5
-7
1
-4
-4
-14
46
-1
2
28
25
-1
3
2
57
40
5
-16
-15
1
-9
13
30
6
-1
23
44
52
18
8
-28
-36
-22
-25
-51
-21
-17
-30
6
70
-18
-10
-11
-12
9
35
74
22
-23
-17
-15
-29
-32
-24
-101
-14
9
17
94
33
-6
-13
-9
27
12
-17
-58
-1
-5
27
-99
-41
-14
9
-62
13
-3
-37
-51
-64
-67
-10
88
-54
25
31
50
6
-46
-28
-128
-38
1
12
21
59
-14
34
81
81
29
5
53
-64
23
13
82
11
13
-11
-101
4
44
-37
-124
-56
-34
-60
85
51
9
-10
15
101
55
73
-29
12
26
79
82
-97
-19
-20
38
32
81
5
-27
61
-22
13
-16
-48
127
-19
-22
-52
-5
-27
12
10
113
-80
-128
-112
-36
-21
-3
33
71
-27
36
103
14
20
2
-25
14
49
96
34
7
15
-16
73
-3
39
-62
18
16
-3
-26
52
3
-10
-102
-43
13
7
-13
25
-39
-41
-5
-31
7
-13
-20
44
-72
2
9
-57
-11
1
23
46
-66
7
-7
31
0
7
-28
-41
-79
33
-28
-62
-4
11
70
-98
-53
-5
81
58
-13
-26
-24
-106
-67
-37
-43
-57
-16
-28
3
-52
-73
-15
20
44
29
42
-68
-67
-36
69
36
-22
-14
-24
-49
-51
0
-58
-65
-36
-19
-31
83
-50
25
-20
-114
-65
-11
8
-26
-16
-8
57
29
47
16
-19
-27
-20
3
10
127
107
-5
-23
-12
-87
14
41
-119
-42
23
27
54
95
4
-52
-105
54
11
1
65
20
-7
8
48
-32
3
11
-2
28
-19
63
89
44
4
1
-16
70
-13
29
-63
-29
-21
0
-50
-32
-23
10
-79
-74
19
-10
22
-67
18
-48
-53
36
-19
25
-22
95
-23
0
53
10
6
-32
-33
-20
10
-18
-3
-48
-8
18
50
-73
59
-18
-33
8
-39
-12
34
45
26
29
42
29
45
18
-20
71
3
-74
-25
-33
-24
40
-68
-91
57
0
-92
4
-41
-35
16
70
-26
-9
89
0
-9
-2
-34
44
57
40
99
38
-24
-2
41
-67
99
-16
-32
15
50
-1
9
9
17
36
-74
-4
0
12
-66
54
65
-13
37
4
23
25
44
-74
46
-19
-16
-40
-26
-9
-40
-47
-13
-12
-51
-57
14
-12
63
44
-26
-24
-60
16
7
-2
-86
-98
-48
-4
59
16
-31
-57
-44
0
-71
-23
-16
-13
33
69
91
-19
-41
20
-70
-65
-13
-52
74
-19
-34
12
127
91
2
31
-13
2
-20
18
-63
17
17
-10
63
0
24
-48
-67
-46
-18
-16
-111
-43
7
-24
28
-22
-23
-29
1
84
-35
36
9
4
22
20
0
-30
-35
-4
80
37
-6
4
-12
17
-31
18
-54
-84
-4
-17
-11
-18
-29
4
-109
39
11
25
14
47
-30
10
41
-22
-2
22
-30
23
9
-31
-76
-40
-18
-42
-50
-40
-14
44
87
27
4
-28
62
33
-15
-24
-90
8
-8
9
-19
-93
-28
30
90
11
12
20
-4
127
10
3
57
48
38
22
-29
-68
29
35
24
-43
-24
-64
14
-12
9
-21
-5
-9
-20
-14
-62
11
25
-7
-27
15
10
13
122
83
11
-13
-71
-112
19
42
-29
-53
14
-54
48
125
-26
-71
-32
19
15
74
122
30
-12
8
13
-11
38
3
-77
-89
14
6
36
109
13
-52
-51
1
15
14
-11
22
-26
-17
-4
-1
-6
14
-7
1
-1
-16
62
28
-15
-17
-37
-31
9
0
43
9
-5
-36
-18
-10
-52
29
-47
-71
-4
19
31
0
-47
-55
-126
11
-19
9
-9
-12
-1
40
85
38
8
-12
-1
-22
-26
5
-45
-71
9
27
27
11
9
-67
-15
105
5
0
-2
118
6
39
54
17
19
19
-53
-111
26
34
39
-25
-28
2
21
89
43
-18
-47
-48
3
-31
30
-26
0
0
-102
-23
-32
11
1
19
5
-37
-22
-32
15
4
26
26
-3
1
51
76
12
38
57
12
1
1
34
47
-3
-20
-54
-13
28
41
34
6
8
5
27
27
36
21
9
-7
7
6
-23
-1
-17
-51
-62
-62
-8
-3
-57
-44
-8
-37
-64
-4
1
16
46
23
15
10
49
38
-3
-25
43
41
-18
43
42
7
10
41
9
-11
5
-20
-56
-32
-6
-21
10
101
-4
-30
-11
17
-16
-13
-78
-124
-1
13
43
-8
26
5
20
-72
10
-15
-89
-46
5
15
-6
40
-14
-5
-75
-33
6
-5
-60
26
-35
-22
49
69
10
18
23
-18
12
-2
127
49
-23
-54
-11
79
-9
44
82
42
5
12
59
-68
11
68
36
-40
14
34
53
40
-5
-5
-65
-47
2
4
-44
18
-13
-10
-99
-11
10
15
-35
-17
-49
-39
-34
-8
-1
-30
29
41
3
-45
-75
13
-14
-4
-51
-7
-1
14
28
-55
-32
-23
-12
-88
-14
32
68
42
1
30
-51
2
6
42
9
76
11
-13
-13
122
-3
-5
39
0
13
29
37
-32
0
-19
41
-6
-24
-44
14
8
-4
30
-48
-77
3
12
6
8
9
-19
-59
-48
3
32
36
-11
3
-71
-58
28
-20
-19
12
-29
8
48
89
54
-8
-17
-9
46
11
14
82
-13
-6
23
-18
34
11
-8
-116
-77
-6
-2
-77
-101
-4
32
58
41
-33
-67
84
34
14
-11
-53
59
36
52
-78
-87
16
13
40
29
15
-29
3
-34
31
0
60
4
1
26
10
70
7
4
-82
-61
2
13
-1
-36
26
-4
43
35
10
4
6
116
16
-5
-128
-22
-2
-21
-3
-106
14
-21
42
-1
-30
-1
19
45
8
-27
-4
-12
8
-7
-54
20
4
20
80
34
-4
0
32
-4
-3
-48
-72
-44
4
20
2
-33
-13
-18
-72
19
-1
-22
7
-3
-8
71
26
-38
-7
12
47
6
-10
-38
42
29
32
26
-26
-9
-6
41
-21
-49
-44
-28
-18
72
-10
15
84
60
2
-31
50
42
-1
6
5
53
31
13
-25
-70
-5
-8
-63
-46
8
22
-17
41
-9
8
31
-5
-20
-62
48
-47
-13
-43
-128
-64
11
34
-11
29
-20
-15
51
5
-25
-40
-32
43
-14
7
-86
-26
-8
7
34
71
-9
-44
59
86
-10
6
-37
8
5
88
106
53
-10
-6
-15
-49
1
-21
21
-39
28
10
55
41
-11
-39
-100
-75
-21
0
-90
-52
-29
2
-61
-7
7
4
96
4
-10
20
92
38
4
23
-5
86
5
33
63
31
20
41
-17
-100
12
-25
25
-36
-43
-52
13
13
2
12
-43
-29
3
2
2
31
-13
-27
-80
16
18
11
-44
-24
-11
-15
-68
-25
-24
-1
-19
14
-2
-31
-63
40
-8
-18
-2
-48
-14
42
127
-18
10
1
-12
-19
8
-6
-100
31
7
-21
2
-35
3
20
34
1
-5
16
37
41
4
-19
-118
-55
-34
7
-6
-19
-2
-17
121
84
11
10
47
18
2
-6
1
-53
1
-16
-37
-11
-1
-45
-128
-31
-20
-12
-31
-64
-6
-14
16
36
15
-28
42
13
-3
34
53
10
-13
1
-41
-12
5
30
29
38
56
17
8
-9
9
2
2
-5
-9
-15
0
-39
1
19
-4
-38
0
1
33
-18
-13
-111
-128
-68
-23
20
-33
-12
-12
32
99
20
-30
-28
29
20
-10
50
96
-9
-1
4
-24
-8
10
58
124
88
31
4
29
27
14
52
41
58
29
54
-10
4
5
-34
-74
-61
11
-38
3
0
-2
-27
-102
-49
-19
31
-16
-19
0
-24
-42
6
15
-41
-6
-18
-6
2
-32
-22
-46
-31
5
18
-6
-41
-55
-14
-5
-1
-24
-67
-9
-2
90
91
19
23
25
108
9
-11
25
-23
-1
12
-7
-53
-34
-29
-57
-63
12
6
-13
-24
-14
-5
-90
4
-14
-11
13
13
-20
12
75
39
-2
-12
7
2
21
33
71
18
-17
21
28
34
34
1
-91
-28
49
11
14
-5
-28
23
79
-2
4
31
-22
-31
21
-9
-22
-6
-6
-39
37
-35
-15
-9
2
13
16
18
-80
-15
9
-2
1
-4
-20
-38
-33
7
-4
6
-18
-10
22
61
49
74
6
-2
-17
2
-61
-71
11
26
-12
-20
-22
-72
0
47
37
7
-16
-69
-49
77
-11
-40
-1
47
12
61
100
52
-29
-52
-27
-89
12
7
-92
-6
49
-1
-5
11
-8
17
-36
-39
19
29
21
27
12
-21
-80
-5
-11
-33
-26
-18
-2
-35
95
23
1
6
66
65
-4
57
32
9
8
21
-31
-39
3
-46
-47
-51
-79
-69
30
40
-5
-12
-62
-21
68
56
-14
-5
1
8
33
-4
-39
-36
6
15
2
-17
-3
-22
24
18
-3
37
4
-4
-24
38
36
15
-27
-12
1
83
127
40
-56
-12
21
28
-4
-28
-17
-47
-14
35
-52
10
1
8
-55
-11
64
-1
38
-43
6
36
-10
-37
-16
-19
25
9
4
-52
-37
11
-39
-4
85
-2
10
9
47
36
-34
-28
-34
-21
-1
3
76
49
1
-11
2
4
4
12
10
-4
85
63
-20
0
-2
4
-71
-92
-89
-48
7
41
-3
-3
-28
20
72
34
20
-10
-6
-14
72
44
-22
-2
2
-20
6
68
95
37
34
-22
5
-11
14
-21
-23
-53
44
-5
-27
-16
-1
-45
-93
-48
-65
-33
-7
-24
-16
-18
-65
-9
13
5
-17
-2
-23
-38
36
26
-13
57
-16
-19
1
50
45
8
-22
-34
5
6
6
5
-72
-55
24
-4
-1
9
5
27
53
44
-20
-19
-26
7
2
-8
47
96
24
4
4
-1
14
-2
31
9
15
29
-10
-8
10
-7
-103
-65
-35
-66
22
37
-4
45
-121
-77
-41
72
2
2
-26
-59
70
29
-10
0
-4
-30
-11
20
44
66
69
8
-20
-29
-1
20
113
22
15
-8
-12
-3
-9
-79
-128
-43
0
6
-24
-65
-6
93
38
-72
-40
-57
3
4
-1
-25
-23
5
20
9
-2
-45
-2
63
96
98
-13
10
0
-37
9
20
1
-45
-21
-16
17
2
2
-15
-84
-9
11
-5
-19
46
-11
31
69
45
4
22
76
85
-5
-32
-82
-43
41
59
-16
-51
18
-73
-51
11
-29
-61
-20
89
-12
-26
-9
-17
7
-33
75
72
-1
-3
-1
-30
-34
37
-43
-17
7
-19
8
-20
19
-32
-24
55
-4
1
-13
33
27
-43
15
-50
-11
-26
-70
-9
7
28
-16
-20
1
73
112
30
31
-36
38
27
3
-78
-63
-8
29
75
23
-52
-1
-14
55
-75
-12
34
-10
96
-3
116
58
96
-11
-11
84
-38
8
-63
94
4
-23
-13
-38
27
13
-6
-81
-31
-49
-20
8
-46
-15
-78
-8
-15
48
3
-56
-55
4
5
-51
-16
-38
-34
8
30
-5
69
62
-33
17
25
29
-4
-13
-20
-94
10
15
19
-39
-1
-6
-4
30
-9
-24
1
-17
78
1
-18
45
52
-6
-20
-43
-88
13
-5
-18
-24
29
-17
13
-5
1
-8
-40
-8
3
-13
-25
39
-7
53
69
80
54
47
59
-43
23
-22
-6
-18
24
26
-90
44
0
-15
-91
-66
-52
-59
-18
-55
-15
-66
-57
-40
-32
-4
102
2
-20
57
31
-28
6
81
44
6
1
-58
34
3
-44
-53
-24
5
1
88
99
110
16
17
-19
-31
4
42
101
-4
19
0
-21
51
12
-30
-102
-23
-19
-6
-36
-32
-12
-43
-33
-79
7
13
110
105
9
29
21
13
-19
23
-62
47
-11
17
78
28
-28
-8
-29
-48
3
-36
-38
-60
-35
-21
0
0
4
-19
-128
-41
-19
-5
-59
-29
-35
1
17
50
39
-8
-7
-51
9
-21
-33
24
7
7
-89
-20
3
15
95
40
19
-5
-53
-16
4
31
-50
-50
-58
-23
-118
-36
0
-2
73
51
45
15
99
68
14
38
-31
-20
-33
21
47
-9
-21
-46
-103
-75
3
29
-34
16
-17
-13
103
102
16
-22
50
0
3
50
12
-83
-2
19
-80
-9
0
43
-24
-1
-11
-37
55
114
9
-4
87
61
8
32
-20
-50
15
13
-36
-59
-1
-31
52
-93
-12
-128
-128
-55
-34
1
-9
43
-21
19
-67
9
31
12
-54
43
-13
59
36
-10
-4
-27
-20
-14
-6
-20
25
58
17
41
-25
7
5
-1
-72
22
-38
-15
63
29
1
27
79
-53
7
-32
-51
51
14
9
10
22
24
0
75
-62
3
-84
-60
-108
7
63
-25
-47
3
-66
-9
5
-18
-60
-26
-45
-15
63
118
111
-43
3
63
23
25
17
49
5
32
28
35
93
14
51
-51
-58
12
-13
-35
-4
-11
-47
-57
35
20
42
-30
68
-4
3
71
-3
7
1
-6
-121
-3
2
14
23
-49
-21
18
-34
-2
-42
-68
-35
-8
-21
39
32
2
-37
-128
-71
3
25
4
0
0
-37
21
28
-42
-4
47
59
-10
-3
-100
18
35
3
28
23
3
21
106
60
-13
-29
18
66
-2
87
126
55
63
70
78
-64
16
-16
-9
-49
-32
-3
26
-71
22
-82
-92
-60
-52
-43
-3
28
-19
-32
-114
-27
21
-17
42
63
-23
5
107
50
7
-10
17
-2
12
65
74
31
58
73
-61
-73
-8
5
-89
-32
-44
-57
-44
-9
16
44
127
78
-25
-57
96
85
-7
-52
-128
-116
-2
51
-29
31
0
-7
27
28
2
-49
-7
32
8
-36
127
88
5
1
-82
21
10
76
-74
-27
10
10
-19
36
2
10
-101
-91
-23
-16
16
0
-15
-6
1
4
16
3
28
25
-4
-21
26
57
58
19
15
-64
-16
7
-20
-12
-4
36
6
38
15
-51
-19
4
-52
-45
2
-37
-7
6
-36
-80
-15
-50
20
75
-6
17
-5
18
-17
-10
-22
-18
-1
-23
-54
51
37
-23
17
-69
3
79
101
63
30
53
26
101
15
-78
-105
-88
-20
-26
-73
30
-15
-14
-22
16
18
1
127
6
5
80
121
42
-26
43
-49
-44
18
32
-117
-1
-8
-2
-39
13
5
-5
-15
-33
-2
38
72
-7
-21
-10
-117
-66
9
-8
-41
-57
1
8
47
47
8
-9
-82
38
-10
-2
71
44
18
-16
-1
-60
14
11
-75
-24
-14
-3
-12
38
-6
-38
-112
-51
-30
20
8
52
-11
-40
-20
-25
-19
7
46
36
3
27
92
91
64
-20
29
-48
4
-24
13
-25
-62
-44
-22
-19
-3
23
-30
-31
-6
12
93
55
-12
3
-54
-19
15
11
-20
-55
11
-78
-9
-47
-12
7
-89
-22
-5
35
60
86
-20
-30
69
69
-5
-27
-27
9
16
-3
-20
-71
-5
91
127
39
-42
-10
-38
61
-3
29
3
-3
26
2
22
-51
14
-52
-94
-17
45
32
-8
30
8
24
-15
33
-6
18
-44
10
1
-67
-41
-101
-6
-20
67
33
-17
38
5
6
-26
8
-90
-70
-12
-70
18
36
45
-16
-23
-16
0
69
-14
-9
-5
-13
18
-1
-22
-79
-104
-11
-7
-2
-4
25
2
-13
72
-2
14
-16
33
55
-26
96
25
14
16
40
-32
-35
-16
-63
-80
-62
-20
-44
-9
62
-3
18
38
48
10
43
-13
-16
10
-10
44
-3
-20
-26
12
85
16
83
90
11
11
-22
-66
-6
14
47
-13
-29
22
29
-54
-63
12
-71
-23
-41
-19
-16
24
25
2
-30
-17
18
-18
0
-12
-65
9
-11
30
7
34
37
16
-103
-3
102
21
18
-22
-24
-41
62
15
-47
-78
-44
-2
-11
-4
-9
2
0
-4
7
-37
-43
11
-9
-16
-103
-115
-20
94
48
62
51
22
15
127
66
-67
20
18
-7
12
83
-104
22
40
-30
-6
-50
-2
25
-18
3
-18
-22
29
102
-4
45
-26
-14
-1
19
-24
-73
-2
-15
-55
-26
-7
4
50
58
-3
-98
3
-43
-35
34
-22
9
-1
-6
57
49
40
16
-11
-9
-1
35
18
23
-20
-26
4
8
4
-59
-20
-18
8
-25
0
-18
-9
38
-46
-19
-9
30
-25
-60
-12
-86
-108
-42
-8
-61
25
41
2
-15
74
43
-28
7
-6
-32
-2
78
110
21
15
4
34
-7
6
4
-70
-74
2
-20
-14
-15
-16
-35
-6
27
5
15
21
101
8
38
76
83
1
-11
-76
-74
2
-14
15
-5
28
-16
51
112
15
77
62
16
3
42
-17
-19
0
46
-99
-83
-8
19
-19
4
-16
-38
-128
-34
-53
-58
-36
8
-6
-63
81
20
39
10
8
-9
4
38
45
-3
-33
-24
-6
68
-2
-73
-98
-24
0
17
-52
-126
-5
34
83
32
14
20
81
125
-2
25
-60
-3
-10
2
-66
-91
-21
-74
-43
-14
-6
-18
65
-9
1
43
69
-1
-12
4
-6
38
0
-37
-4
-65
-4
19
56
44
-4
93
-57
-17
-10
-3
-75
-28
-6
-77
127
124
40
7
-54
-40
7
67
-54
2
-17
-29
-81
3
6
-25
62
-51
14
17
76
-27
5
1
-53
-45
14
24
-3
46
-8
-78
-17
63
-9
-1
43
-7
-5
63
42
-38
-4
33
-20
64
-1
-38
87
6
4
2
2
-67
13
28
-27
10
-22
-29
50
47
1
12
-49
-12
19
12
30
30
-12
-102
-51
-56
-33
-5
69
-3
-7
7
-45
-42
8
-23
-103
-13
3
29
105
110
30
52
56
42
-2
17
-59
5
11
-33
7
0
0
-18
-32
4
45
18
11
-47
2
-55
-128
-119
-16
4
12
-4
-17
-18
91
82
-24
-3
-22
23
19
127
67
-7
-1
6
-27
25
-4
-42
-68
-75
-11
18
20
52
2
-7
-116
31
-7
-13
54
77
-5
0
70
5
11
-19
-56
2
-5
-33
-17
-37
-16
-2
-12
-42
-8
35
-9
16
11
11
-55
-38
-1
-46
-128
-43
-35
-11
3
28
2
-23
72
63
-11
-39
-18
-22
-5
88
127
12
11
29
53
48
14
-4
-65
-15
41
21
-81
-118
8
-5
-42
3
-10
-15
49
38
-6
-111
-128
-122
34
12
8
15
-15
-26
54
69
-14
-48
-48
-124
5
101
9
66
-26
-1
121
75
4
-21
68
70
12
15
-68
-41
1
-47
-45
-50
-3
-8
67
111
4
20
-70
-88
4
15
25
27
-9
-62
-28
-48
-31
1
-53
-9
-9
107
118
52
-14
-17
-74
-60
-4
-24
-124
-18
25
4
62
7
5
11
127
125
28
30
-58
-84
16
13
-29
-49
-41
-41
29
44
-9
-50
-120
-75
1
10
43
125
-2
-11
112
42
-43
10
-78
-26
-4
58
41
-9
72
24
47
30
-3
-38
-58
-73
-28
5
-9
21
5
-34
115
106
-41
-61
-92
-20
4
37
-67
-89
12
-27
31
-65
0
-31
1
88
25
18
-90
-31
4
121
127
65
43
-6
60
-109
2
-1
-128
-85
0
56
-3
13
0
-76
-90
-79
-48
-55
43
19
-23
-95
-85
-56
-24
17
-27
127
16
39
84
42
-24
-25
-27
-3
-13
-7
109
76
45
26
86
11
9
74
5
26
-23
17
-46
1
-5
-114
-128
-111
-15
-34
-29
69
-3
-36
90
51
55
3
47
-67
-4
85
8
60
17
45
-42
-47
12
29
89
-96
-35
-43
-85
-31
-4
-6
-13
85
31
5
112
22
1
-21
-2
-11
-70
-10
-28
-37
9
7
-81
-80
25
-26
4
-55
-7
-57
-56
20
-13
27
-26
-63
-6
-16
-47
-17
-23
-58
105
11
-9
-16
76
24
43
34
-33
28
10
34
3
-23
-28
17
110
124
-1
20
-65
18
40
-27
-58
-68
12
59
109
5
-33
-13
-13
-10
-5
-25
-48
43
21
-5
39
71
-1
-42
37
-15
0
15
-29
27
4
-13
-96
-45
9
22
93
67
-6
-5
1
-16
-20
2
20
-37
-6
-41
-126
-128
-66
-3
25
1
-20
-81
1
52
32
-44
-27
23
-4
78
127
125
45
30
-61
-93
17
34
-101
-110
-35
-37
-42
-128
7
12
34
31
44
5
-23
-97
-1
76
-3
-31
7
8
-1
-88
2
-37
6
-21
-26
-13
-2
85
-9
-8
19
-13
0
4
-45
121
-18
-3
-125
-39
-37
-7
-22
127
-12
-51
-128
1
11
-5
37
112
-17
63
127
81
-2
-17
37
124
15
10
47
-3
8
7
-55
49
3
-13
-97
-34
-29
0
-38
82
2
-2
37
7
23
-1
-20
23
-2
-7
34
-40
-18
27
42
74
-17
0
-19
-42
35
24
-10
-28
-3
-13
-76
28
-14
-21
22
23
-3
-40
50
39
-4
-18
41
40
8
58
50
19
-32
40
-47
-110
4
19
-86
-34
21
-8
28
-34
2
-6
88
53
-48
32
-9
-71
6
26
-128
-69
33
-18
39
-6
4
-37
46
49
-2
-14
44
-113
-7
25
90
21
11
22
-19
-12
2
5
-6
-35
25
6
102
94
2
-6
-14
-40
-61
-16
-128
-113
-20
-92
-128
-29
12
14
-7
82
-6
-10
66
50
-4
-3
47
-70
20
75
66
9
9
-28
-47
28
-3
47
92
58
-13
9
40
32
20
6
-75
-40
28
-25
17
-49
-8
-57
-128
-58
-21
27
-44
-25
-11
-21
95
59
30
-27
-2
3
-1
18
73
6
-19
23
4
-43
13
26
-8
32
29
17
-24
-39
-3
22
16
4
-21
-11
57
-52
1
4
-50
-22
23
-1
23
56
-21
-95
-106
-42
-16
47
-34
-113
7
-53
-23
-1
-45
-78
-76
0
14
48
19
24
-3
-10
85
107
-7
-8
-81
63
14
44
15
-2
-2
66
127
47
43
-17
-21
35
-14
19
-59
-13
-9
28
40
24
-5
53
-95
-73
-11
26
44
103
9
-42
-108
-51
34
-12
22
-78
-12
-113
24
-17
-78
-24
98
15
-11
105
127
100
57
7
-22
-128
35
29
18
16
-24
-55
-12
33
-3
3
-84
-19
-6
37
-9
18
-1
14
8
-16
13
-41
-20
-63
-13
-77
-102
-94
-38
71
21
60
-26
-76
-66
-57
3
9
-110
-128
2
52
121
99
20
-27
85
63
16
84
61
75
60
67
-67
-89
45
-26
-41
-61
-8
-59
11
48
-6
-45
-112
-60
5
29
-26
83
-19
-114
-128
-57
-41
-14
-20
12
-30
38
-32
4
-4
-31
-39
127
-28
23
67
-16
21
12
-13
43
16
-60
20
70
1
-6
12
62
2
89
80
-34
23
36
-7
-108
0
-103
-113
62
-46
-54
12
53
-9
74
87
-6
22
15
81
77
18
78
94
21
-10
-15
-57
-19
-4
9
-35
-41
29
28
-100
-84
32
-2
-117
-78
-44
4
26
-31
-19
-106
-128
-24
-2
-59
2
27
-13
48
127
116
-40
74
37
41
15
53
-9
5
111
-16
-45
10
6
-48
-87
-127
-61
-21
26
-2
-10
-88
-128
-53
-12
3
9
112
-17
28
-3
47
-8
-1
0
33
-12
-22
127
38
-37
-24
-15
65
8
15
36
47
28
23
-25
-1
7
74
97
19
4
6
26
-41
18
8
-55
-21
13
11
-45
-65
-3
-44
-122
-82
-58
-33
24
-22
-14
-10
82
15
39
2
-18
-12
-7
5
86
63
-30
-2
-6
-43
15
31
51
1
35
-23
2
-68
-1
-19
-64
-11
-50
-1
-4
-46
4
8
-49
31
85
19
17
-30
-3
18
74
-21
-41
37
-28
-83
4
-95
-117
-3
25
9
29
-54
-12
-24
125
15
2
-64
4
-58
3
89
72
42
3
14
13
13
16
34
-14
19
11
20
25
12
-14
-33
-36
-27
3
-8
-13
3
-11
25
-15
-15
-28
25
-9
13
-3
-29
-118
-64
-29
-2
-2
7
-10
-22
4
15
14
-20
-13
21
-11
-21
-35
-67
6
13
5
25
-6
-2
8
61
-16
0
-16
28
6
38
101
23
-19
6
17
43
12
-11
-56
-38
-4
-9
4
-39
-1
-23
-72
-21
-10
-17
-17
-31
-8
-14
-1
0
11
40
13
-14
-13
24
84
28
14
-15
27
-1
13
36
37
56
21
34
-39
-17
-1
-6
-20
-13
-20
-1
-2
-12
8
14
1
-10
-5
3
13
16
4
-35
-103
-32
-18
2
-1
23
-7
-5
-6
45
-4
-12
1
2
-3
41
78
81
14
-13
8
40
-12
-28
11
60
-10
13
3
31
-13
3
-1
7
-12
-9
2
20
-9
-2
-35
0
-1
21
-15
-8
1
-4
14
-3
38
-27
5
-2
-1
-16
-21
11
-5
-2
-14
0
4
0
1
3
-5
-21
-12
5
-7
-20
-59
-28
10
19
-3
15
-5
11
42
31
22
-20
-1
-5
18
3
45
5
14
-3
10
-28
11
4
-5
-34
-20
-12
-5
-38
8
-12
-35
-28
7
-10
3
-9
-2
-15
-27
-29
-64
47
8
-14
0
-3
-21
-4
82
-30
6
-13
6
9
22
14
23
-1
12
-21
-2
-20
26
7
-77
8
-21
-44
10
24
45
29
86
-36
5
-42
8
8
-14
13
-59
35
-3
-104
5
-16
-31
-18
78
6
2
-47
3
-12
-24
28
14
-5
-5
12
-5
10
23
15
-30
8
7
1
4
1
7
9
-12
17
-12
33
-13
-9
-21
10
-40
-11
6
24
-2
-1
-9
-11
11
-26
9
41
-1
-7
0
-6
-21
2
-21
47
-7
7
3
-28
-20
-20
26
47
-11
-9
-9
-34
3
42
-25
37
-9
-6
4
-41
24
-22
0
33
-9
2
9
-46
-18
1
-24
15
6
-3
3
-54
30
1
4
18
18
7
6
-46
-50
-10
-14
20
-3
6
-1
-45
-10
-9
21
8
-11
-28
-52
-50
47
17
-23
-2
-23
-4
3
-18
-32
-28
21
17
-4
10
61
7
24
33
-12
11
8
11
0
-19
4
24
1
-4
20
-6
-7
-7
-15
-64
13
0
-30
-7
-18
-12
7
13
37
14
-15
3
-12
-11
38
7
-21
0
-36
-8
8
13
-2
-23
-2
-5
-24
7
15
0
-33
16
0
2
0
1
0
0
-3
-18
-9
5
25
10
-15
-5
2
8
-8
-3
-4
-14
-5
4
13
-13
9
0
35
-14
-4
-1
-3
15
-16
1
114
-14
-15
-7
-12
-10
-7
0
112
6
11
4
-6
-9
-18
0
40
-21
-8
8
-8
-4
4
2
43
19
11
13
-6
16
28
-2
-38
19
19
3
-6
-22
-15
0
-86
-18
-32
-13
-50
17
18
1
-25
-4
-4
-13
30
-36
-9
-1
-56
-20
-15
-3
13
-18
21
-3
-40
-13
-13
22
14
43
-3
2
-29
19
29
10
2
-10
-4
1
-7
24
69
14
-20
-20
11
-2
-38
13
-75
-42
-30
7
-12
2
-79
0
-2
-5
37
-1
-14
49
-37
15
67
77
-3
-8
16
38
-21
-7
20
5
16
22
-2
49
-8
-10
-33
-26
-13
-7
-13
41
-16
-9
1
-5
-11
-8
-5
32
12
-7
-37
-18
-3
-12
28
19
-13
1
13
29
9
16
-19
7
21
5
29
12
18
4
2
10
18
1
-32
-14
-21
-18
-7
-3
-13
-11
-9
-7
3
-1
3
4
21
12
-21
-5
-5
17
0
-12
-25
-3
0
12
-3
-13
10
-9
-4
4
20
11
5
0
-22
-19
0
-3
5
-3
-27
-8
-7
-20
-27
-15
-42
-16
16
8
-13
-3
-17
-4
22
16
-1
-5
17
-3
8
13
31
14
2
0
-1
-9
2
-1
-22
-15
1
-1
-10
-11
0
-7
-26
-3
-11
12
9
-8
-1
5
26
16
0
0
14
-4
6
-3
8
3
7
4
7
-3
-13
-9
-19
-6
-17
0
-7
-10
14
4
-22
-4
29
11
2
-7
-3
1
24
18
-2
-4
-7
-13
11
-6
-4
-9
0
3
1
-7
11
-4
-16
-5
10
-3
-2
-3
34
14
26
21
-16
-13
-2
-11
34
1
1
-6
2
21
9
-6
35
-3
-9
-11
-10
-12
-6
-10
22
-6
-22
-1
11
-1
7
-2
16
3
13
6
-6
-2
-4
-6
8
-3
4
7
0
5
0
-3
4
-7
6
-3
0
-1
-5
-4
11
-1
-6
-9
0
-1
2
0
16
3
-22
-10
-9
-2
-3
-2
-5
3
6
3
-2
-6
-9
-11
-7
-4
7
0
-2
3
1
-5
4
-8
-25
-1
4
-10
-1
-5
-8
-2
12
3
-3
-1
-7
-6
3
-4
5
8
-3
-4
-2
3
2
11
13
2
3
4
0
-8
-12
-4
3
1
-4
-4
0
-5
-7
3
-13
-9
-5
-2
-7
1
-3
-1
-10
-4
1
-4
-2
0
1
-1
-4
4
-1
2
-2
-5
-10
-7
4
-2
1
0
0
-2
-3
4
-9
-4
-6
-2
1
-5
-1
0
11
0
-3
-2
0
-2
3
3
4
8
2
2
-10
-2
2
1
13
-1
9
15
21
1
1
0
-12
0
-3
-19
3
-4
-15
-2
-2
1
0
18
-1
-11
-25
-9
-6
1
-2
-3
3
2
6
0
1
0
0
4
-7
-9
-20
-8
-9
-2
-1
-1
-2
0
1
-2
-2
-5
-1
-10
-4
-4
8
3
0
6
0
0
2
1
-12
2
8
5
1
-1
7
9
-3
1
-4
-1
2
5
-6
-7
-10
0
3
1
-2
-7
-1
4
7
4
2
-3
0
4
-6
-4
-8
0
-12
-8
3
-8
7
-2
-5
-7
12
6
-5
8
3
4
4
1
-8
-7
0
2
-2
2
-1
2
2
5
-4
1
3
0
7
3
5
4
6
-14
-3
-4
0
3
-5
-1
1
4
-3
-3
4
1
0
-2
-4
0
-3
-3
-1
-3
-8
-5
-8
-3
2
-2
-7
0
3
3
-3
-1
-6
0
1
1
0
-2
-1
-2
-1
-2
-2
-4
-5
-2
-2
-3
-3
-3
2
2
9
3
3
0
5
0
-10
-4
-3
-1
-2
4
-14
-2
3
-2
-6
-5
-3
-5
17
0
8
3
-3
-2
0
4
-4
-6
-14
-5
1
1
0
-3
-3
-2
2
0
-2
5
-1
0
0
0
8
1
5
-3
2
2
-5
-1
1
-1
4
1
-2
-5
-3
-3
-5
0
-14
-5
-2
1
5
-4
-10
-6
5
-4
-3
0
3
0
-1
0
-9
1
-2
-3
-6
0
0
-1
2
-2
0
-3
2
1
-1
0
2
1
-1
-2
-4
2
11
5
-4
-2
-2
-3
4
-3
-9
-2
-3
-4
-8
4
-3
-4
-3
-3
-3
-1
9
0
-3
-1
5
-1
-2
1
1
-2
0
0
0
0
4
0
0
-1
-2
-1
-2
0
0
0
2
1
-1
0
3
0
3
2
1
1
0
-1
-2
1
-5
-2
-7
-6
-2
-4
-20
-4
-3
-4
-4
2
-6
-7
-2
-5
-3
-3
-1
-4
-4
-3
0
-2
-3
-2
-1
-4
3
3
8
-2
2
3
5
0
-2
-2
3
2
8
-2
-2
0
-2
0
-5
3
-10
-4
1
2
-7
-5
-7
-2
3
3
-4
-6
4
-1
4
-1
1
0
0
0
-5
-4
-4
-4
0
-2
-3
1
-4
-2
-2
-4
-2
-1
1
-3
-1
-2
2
-4
-8
-5
-3
-2
-3
-1
-4
0
-7
-2
-2
-2
0
1
10
1
11
3
1
3
0
-1
10
4
7
4
2
1
0
-2
-21
-1
1
2
-2
-1
-3
-4
0
-1
0
-2
1
-1
1
-1
4
-3
-12
-3
-1
-1
-1
4
3
0
2
-1
-2
-1
3
1
7
2
3
0
0
2
-4
1
-11
-3
-7
-4
-1
2
1
3
7
4
-3
0
1
-2
-6
-10
-6
-8
3
-2
-2
-2
-1
0
2
-1
-5
2
-1
-1
0
-1
-7
2
11
1
3
-2
0
-1
1
0
2
2
0
0
-1
1
-5
-1
-3
2
0
-2
0
1
2
-3
-7
-4
0
-1
0
-3
1
-2
-7
-2
-2
2
7
-2
-1
-4
-3
-2
-2
-3
-2
-3
-7
-3
-3
0
-2
1
-2
-2
-5
-4
-3
1
-2
0
1
3
4
4
0
0
0
-1
-1
-1
-4
0
-1
-2
-1
1
1
0
0
2
6
2
0
0
0
1
3
-1
4
0
-1
-1
-1
-1
-2
-2
-4
-2
0
1
-2
-1
-1
-3
-5
-1
-3
-1
0
2
2
-2
-6
-3
-1
-2
-3
1
-5
-3
0
-1
-3
0
-1
2
3
1
2
0
-2
0
-4
-6
4
-3
-1
-1
-2
-2
-2
0
-17
0
3
0
1
1
1
-3
-5
-1
3
2
-1
1
-1
-1
14
-1
-6
-1
3
-2
-3
-2
2
-1
-2
-2
1
0
-1
0
3
1
-1
-1
-1
-2
1
0
-1
-1
-8
-2
-1
-1
1
0
-2
1
7
1
-3
0
0
4
-2
2
4
0
0
0
-2
-2
3
-1
-3
-2
-2
-2
0
3
3
6
-2
-1
-2
0
-2
-6
-23
-6
-2
1
0
-3
-3
-5
-1
-2
0
-2
-2
0
-2
-6
-23
-6
-2
1
0
-3
-3
-5
-1
-2
0
-2
-2
0
-3
-4
0
-1
0
-2
1
-1
1
-1
4
-3
-12
-3
-1
-1
-1
4
3
0
2
-1
-2
-1
3
1
7
2
3
0
0
2
-2
-2
3
-1
-3
-2
-2
-2
0
3
3
6
-2
-1
-2
0
-2
-6
-23
-6
-2
1
0
-3
-3
-5
-1
-2
0
-2
-2
0
1
-2
-1
-3
-1
-1
0
0
0
-1
2
-1
1
-2
1
-3
-1
-1
2
1
0
0
-1
0
1
0
1
0
0
0
-1
0
-2
0
-12
-3
-8
-1
-2
-3
-5
-5
2
-5
-10
-8
2
-3
3
-2
0
1
10
1
-6
-4
-4
-4
-6
-4
3
2
-2
1
0
-2
6
3
1
-3
-2
-3
-3
-1
-3
-1
-4
-5
0
1
-2
-2
-1
-6
-12
-5
-2
-1
-2
-1
-2
1
-3
-2
-3
-1
-1
0
1
-1
1
0
-2
-1
0
-2
2
-3
-1
-1
-3
-2
-3
-1
-2
-1
-3
-2
1
-1
-1
-3
-5
0
-4
-4
-1
-2
-1
1
1
1
-10
1
-1
1
-1
-1
-2
3
16
4
-1
0
1
2
3
3
4
3
1
1
-2
1
-3
-1
-6
-4
0
-3
1
-3
4
-1
-2
-3
0
1
-2
0
0
-2
-7
-2
-3
0
-2
-1
-13
-2
-3
0
-1
-3
-2
0
1
-2
0
-2
-3
-1
0
1
2
-1
4
-3
-2
0
-1
-3
-6
-1
0
1
-1
-2
-3
-3
4
-3
-3
-1
-1
0
0
-1
-3
0
-7
-1
0
0
1
1
5
0
2
1
0
-1
-1
-2
-4
-1
1
-3
0
-1
-2
-1
2
0
-6
-5
-1
-1
0
0
1
-1
3
2
0
0
0
-1
1
1
1
1
0
1
1
-3
0
-1
-2
-3
-1
-2
-2
-7
2
-2
-5
-2
0
0
-1
0
0
-2
4
0
-2
-2
-2
-2
-6
-3
-5
-2
0
-3
-1
0
5
-1
2
0
-3
-1
0
0
-1
0
-3
-3
-1
0
-1
-1
-2
1
0
0
-1
-2
-2
-1
-4
-4
-1
-2
-1
1
-1
-1
2
5
-1
1
-1
0
-1
-1
-1
-3
-1
-2
-2
0
0
0
0
0
-2
-2
-1
0
1
2
0
0
-3
0
-2
0
-1
5
0
-3
-4
-2
0
-1
5
-1
-3
0
2
0
0
0
-7
-3
4
0
0
0
0
-1
1
-3
-13
-3
-5
-4
0
-2
1
3
-2
-2
-3
0
0
-1
2
-3
-5
-7
1
0
-2
-1
-2
1
0
2
0
-1
0
0
1
-2
3
1
5
0
0
0
-1
2
2
0
1
0
-1
0
-2
4
1
1
-2
-2
0
0
2
-8
-8
-6
-3
0
-2
-1
-1
3
2
1
0
0
0
-2
-2
-6
-10
-2
-1
0
0
-1
-1
2
2
-2
0
0
-1
-1
0
1
-4
-3
-3
-3
0
-3
-1
0
4
1
0
2
-1
0
1
-3
5
1
1
1
1
-1
-3
-3
-2
-2
-3
-2
0
0
0
1
0
2
0
-2
0
-1
1
1
-2
-3
-1
-3
0
-3
1
0
-1
2
1
0
-1
0
-3
-1
-1
-2
-1
1
-1
0
1
3
0
4
-2
0
0
2
-3
0
-3
-4
-2
-2
1
2
0
2
-1
10
1
1
1
14
7
5
2
-6
2
2
10
11
4
-7
-10
-9
-2
-1
-3
-15
-7
3
6
-3
1
-2
-3
-6
0
3
-3
-4
-2
-3
-9
-13
-12
-9
-3
3
-5
-1
-6
18
11
2
-3
2
1
4
25
15
-9
-2
-2
11
-1
0
-1
-37
9
9
0
-6
-3
-4
-14
6
8
-11
1
5
0
-2
-4
15
-27
-3
-11
-17
-2
-1
-6
-13
2
-18
8
0
-4
-2
-6
-36
-27
14
2
-2
-3
-1
0
-3
18
24
2
2
6
4
2
1
11
5
2
5
1
0
2
27
1
-42
-23
-15
-22
-3
2
37
-37
-2
-8
-10
-9
-17
-18
-69
-14
-5
-2
0
15
14
-7
1
-17
-9
10
15
12
19
26
56
21
48
7
-4
-4
-10
-3
9
43
-29
-11
-14
-12
2
-24
-27
44
78
7
8
-9
-11
0
-85
-80
-56
-1
3
6
-20
-12
-5
30
-49
-11
-8
-12
20
12
37
22
-19
-1
4
1
-30
19
32
-1
-6
-6
-2
-2
25
-10
-4
-3
46
6
10
25
-12
-20
-26
62
63
14
-10
-41
-16
20
36
-20
-53
-13
-9
25
1
-19
-10
9
-9
7
1
-46
-38
15
20
44
9
-14
6
26
60
-9
3
-13
-30
12
23
21
-15
2
-1
7
-17
7
-22
-43
-12
9
-4
-27
6
1
10
12
48
10
24
-45
-25
6
8
8
-25
-12
-3
-56
61
7
-1
16
-11
-19
-39
-5
127
13
-23
-50
-7
-17
-3
-4
-57
-24
4
71
-74
4
0
20
-9
-2
-26
-83
59
5
-21
-3
0
-6
38
58
66
9
9
-102
-12
-1
37
40
-4
30
82
70
80
38
-3
-82
-39
-9
-72
35
31
3
-14
5
-13
-4
31
-52
-9
-12
45
-3
-27
-7
-35
27
28
-6
-39
68
55
12
42
-41
-33
-1
-19
-78
-32
-14
-54
39
33
-12
-5
74
4
9
4
6
24
15
12
25
-7
-9
-16
3
59
-11
53
-35
14
18
63
-85
-111
5
37
54
53
17
20
-5
-11
7
-21
-62
-40
-41
-34
20
-14
-13
-57
-43
-36
61
71
50
-15
-6
13
52
27
-9
-68
-48
-102
3
-5
-1
-4
9
35
-60
101
-13
-39
-53
-5
-11
11
-11
74
-9
-15
42
10
-2
-3
23
121
15
26
-14
-27
-13
3
23
127
-16
-35
-22
15
-42
-31
55
99
9
42
13
-27
-5
2
-14
89
-22
-53
-14
-2
-12
-5
-52
-75
5
49
-3
42
1
9
19
-14
-4
37
69
1
25
-8
56
-46
23
-42
1
18
-18
3
-28
-105
9
-1
-41
-32
-5
-35
37
-56
-22
-30
-67
-10
27
13
20
-38
17
43
61
18
-2
-1
-47
-85
10
-31
-14
-40
10
5
35
-81
-31
-31
-3
21
-30
-23
-69
-110
-26
3
35
-18
7
-13
-31
-36
-35
-66
-90
-42
0
40
31
-43
3
36
-18
9
19
-8
-7
-94
18
85
96
65
29
39
21
-57
31
-80
-23
-77
-39
-77
-23
-57
-5
5
-72
24
3
17
-31
-58
20
11
111
36
-8
-29
-18
-83
-12
56
-84
-34
-7
13
98
77
-13
-62
-5
-21
20
-19
-13
-13
12
-28
-49
5
6
35
-50
-31
-8
52
76
8
30
-37
30
78
9
8
21
-11
0
39
6
12
9
10
-16
-7
-4
-26
8
67
-1
-2
-37
-39
-13
37
6
-46
1
-32
-101
-25
-15
-88
12
-24
-3
-20
91
-21
-21
-7
-15
-5
0
-11
-114
-41
6
13
4
90
-5
33
119
102
0
-16
-78
-67
-1
18
70
14
-5
-1
27
-1
16
-24
-111
-9
23
15
-7
10
18
-37
19
-4
-42
-45
-29
-12
-35
-13
-114
-50
40
48
49
6
3
65
80
48
-41
-32
-37
8
12
13
39
36
6
-34
9
7
18
7
-45
0
17
52
0
23
-3
-15
-93
-69
-54
-45
14
2
-44
-36
-47
-15
17
17
50
31
-3
9
-2
45
-2
-6
40
22
-24
11
-37
-43
-5
4
51
-8
18
22
127
105
1
23
26
-9
-8
-13
-128
-64
44
57
15
-1
29
-22
-15
20
-28
-37
-57
-87
-10
-1
-55
-4
-20
29
-9
34
-22
-17
-40
-53
16
-38
51
7
16
-7
37
20
-23
-21
0
32
-11
5
12
0
2
13
-79
-15
-5
-3
80
25
21
-35
-9
-18
3
-29
-56
-45
-50
1
-1
26
-11
44
-18
30
19
-14
-68
19
13
-42
74
36
19
-16
-19
-75
-28
76
1
37
-7
33
45
-36
1
-45
-36
-42
13
-12
34
101
0
-4
-47
-47
-31
9
-18
-90
-10
-21
-126
-8
-27
3
14
91
5
37
127
73
26
48
-15
35
30
10
77
-2
18
-7
13
20
11
-45
-125
-54
9
17
-2
36
-5
-4
20
6
-45
22
29
28
-14
-25
15
-8
69
66
43
-13
7
-23
-96
-54
-36
-30
-18
7
-9
60
127
114
23
22
-35
-43
3
19
10
-13
9
-7
63
-57
15
6
-44
-19
-19
-25
-38
5
-3
-23
-52
11
9
13
-46
-64
-5
-10
-17
-46
5
10
69
35
-43
-18
4
38
-4
87
-28
-47
31
23
73
47
-28
-116
-30
-15
4
13
52
-26
11
0
4
31
-24
-16
-127
-26
-11
74
-26
35
2
14
40
-82
33
-35
21
-17
1
7
56
63
-30
-14
5
51
-17
-17
45
74
-4
24
-39
-113
11
-5
42
5
31
-18
21
45
10
48
14
-35
19
30
-10
38
6
-19
-79
-55
-12
-42
32
30
6
30
-11
-5
-5
6
49
26
-14
-57
-75
14
-17
8
1
-42
-23
-16
-5
-3
-8
-62
-34
44
7
40
97
43
-24
-18
28
-73
1
17
-23
14
30
14
-39
63
6
-17
-28
-113
7
16
22
18
-1
-31
-128
33
-1
-29
-47
-97
-11
3
0
56
16
30
-9
-19
-4
44
108
20
-13
6
-23
6
19
-13
-80
-27
-3
-7
13
-5
-12
-19
-5
-95
-32
-11
15
80
-15
22
32
60
41
-16
-5
-102
21
52
9
13
27
-24
-13
34
0
-18
0
45
-6
26
7
7
14
41
57
-28
-13
21
36
18
2
-22
-116
-88
-15
1
-19
-21
-8
-44
-8
50
-11
10
14
-7
-1
2
-7
-7
14
-66
-53
-19
-9
-11
-89
-11
-23
-44
2
27
-10
-39
-10
-11
-24
17
-6
30
-12
6
39
-2
17
9
2
-18
-5
-8
45
20
0
-15
-24
11
4
-8
-23
33
-13
-28
14
-41
-4
20
10
-17
15
66
7
31
6
-16
-45
-75
-4
-26
7
22
-24
2
18
29
-33
-19
-22
-41
6
-9
76
55
28
-39
17
-8
0
20
-63
-55
60
62
-36
46
-4
-44
-56
26
-64
-32
10
-6
23
47
125
4
-19
19
12
53
10
22
2
-3
3
27
-7
-16
4
4
-38
-7
2
-22
-8
10
-34
11
9
15
17
48
27
34
-11
-31
-33
-17
-11
-15
-11
-66
4
28
-50
5
26
94
-18
5
43
-59
21
-15
-25
-33
30
54
-8
-4
11
-5
-4
74
-35
-105
-7
9
-9
-21
-19
-32
25
34
9
-8
-6
-6
16
21
-36
0
-17
1
-3
2
-2
-28
25
34
12
-1
5
11
-1
-17
14
0
6
19
13
15
13
48
-28
48
-14
1
-13
-15
-35
-48
49
27
3
-17
-8
4
-1
10
-32
-39
4
5
4
5
5
-4
36
38
-3
20
10
6
-25
0
-37
-79
-9
-18
18
0
11
17
18
55
-20
-13
-28
5
-19
-30
32
2
16
28
46
16
-32
-40
-15
26
-24
-29
-6
12
-2
-8
30
36
-2
-13
4
5
-12
-4
-41
15
-6
-7
4
14
-47
21
-20
-48
-11
19
25
16
45
-14
-38
32
17
32
-5
8
37
14
37
88
2
-6
-16
15
-6
-17
-4
-44
-6
-8
-33
-5
29
60
12
53
3
18
17
0
-29
-27
-18
-12
20
-12
3
-3
-4
-3
-1
-73
1
-3
-34
9
20
45
-6
-11
-3
23
86
13
11
-13
-5
-20
6
-6
-50
10
-6
13
-18
-5
8
-2
54
30
42
-5
10
-18
3
-6
7
-28
-16
13
-26
-8
0
-7
-42
-25
-10
-55
-4
-50
-5
-7
-23
-26
-7
-23
8
-5
-5
-24
-30
-28
9
-26
-26
-27
13
31
-3
-5
-19
9
10
83
11
-6
38
15
24
14
39
14
2
0
15
-22
15
46
-26
-35
17
19
-36
-26
-40
-11
33
14
-10
-2
25
-17
-36
7
23
58
-12
1
24
9
29
69
-65
-4
10
7
10
-14
33
-52
3
-30
-18
-22
15
16
12
6
12
13
-7
6
-45
-44
-7
8
11
18
3
1
-63
-11
13
-13
7
29
-14
-35
42
24
1
65
6
-7
19
41
1
-46
-25
-65
-33
-31
-14
-13
6
39
37
0
16
-13
-13
9
-4
1
-6
-28
-7
-21
-7
-1
-81
-26
10
-17
10
43
-8
-53
42
25
-4
14
13
8
16
67
58
28
17
-20
8
-26
5
-14
28
-20
23
-1
-55
-92
5
1
23
-26
-44
3
-42
3
-11
-11
-87
-23
21
34
14
50
6
-15
-36
-10
-2
-23
-22
-25
-13
-3
-8
27
-14
-21
9
44
-9
34
69
18
15
8
34
33
3
-4
16
-7
-28
-8
-31
-52
-2
-40
-7
-14
-37
-7
1
-17
13
10
-29
-25
6
36
2
-3
-11
-15
-86
1
-15
13
50
51
-14
8
50
8
57
-24
0
-34
12
-1
66
27
6
21
-8
-51
-29
-15
-24
-11
-53
33
12
-35
24
7
-73
-81
9
-60
-21
14
-7
15
-14
68
7
11
28
-14
-13
9
87
24
24
29
-35
-4
20
2
9
14
-43
-31
16
60
1
-2
29
10
3
17
24
-38
-10
-5
-82
-56
-9
-20
-26
-16
2
-32
-12
1
25
13
-37
-60
-6
19
6
-36
-28
14
12
16
-6
-23
-55
10
4
-12
13
5
-5
41
60
46
-16
25
32
58
6
19
55
9
7
-35
12
25
-2
12
-6
-15
6
14
1
1
2
-43
-3
11
7
-10
6
-29
-9
0
-1
-7
-27
-24
-27
73
6
9
-34
-18
34
1
10
2
9
-2
11
-5
-24
-52
3
10
-4
-25
-98
-50
14
21
0
-18
-14
-22
37
53
-13
41
-22
12
-2
6
57
0
4
-29
9
-11
7
35
5
-7
40
-25
-1
46
-6
12
44
21
19
29
-33
-46
13
9
-72
26
-10
4
-3
-44
-3
-17
4
28
-11
10
17
22
2
-8
-2
-25
15
14
-15
42
3
7
12
4
-24
56
6
-71
27
-47
-38
-61
1
-29
-23
-50
-42
-29
-111
-38
-18
-5
30
29
-17
0
-82
25
6
3
30
-11
-5
22
125
55
-29
-47
32
58
6
54
98
4
20
60
-76
-26
24
-17
-57
-5
-22
-46
56
40
11
-9
34
1
1
22
-25
-18
-4
7
-14
9
-15
-13
-11
-27
-20
-20
-22
-13
43
31
14
-4
12
1
-78
-43
-33
-40
31
7
-18
-22
4
23
0
13
-54
-89
-14
-26
-28
-23
-28
-122
-24
5
0
1
-45
-54
-31
-27
24
64
14
26
73
33
38
-1
17
72
7
-27
28
115
-11
3
35
-22
16
69
118
-11
54
31
-9
-14
-17
-8
-57
-44
8
40
29
23
-7
-30
-128
-55
-16
1
-66
-35
6
6
111
-9
-15
-57
31
-11
-9
5
6
-16
-12
39
24
55
7
10
-87
-16
-8
-21
22
-6
-16
-18
97
63
-1
41
1
-40
3
-1
-3
3
37
13
-2
-23
-9
-12
-61
-45
-21
1
-18
5
14
-12
0
46
0
-44
12
24
-3
-14
37
7
-23
0
22
-27
2
60
74
-21
-4
46
-15
20
12
7
-10
16
51
-57
-16
19
-5
16
-12
-6
-22
22
-1
-8
-5
-12
-90
-30
5
34
17
0
-12
-47
-74
1
0
-42
29
36
0
-10
57
1
-45
65
-14
-26
-3
64
88
-17
11
-39
41
-2
-1
-12
-53
21
1
-4
-53
14
2
-13
70
10
-23
-41
-49
-18
-3
-20
-82
-16
42
46
-23
-9
3
4
30
24
-9
-8
-5
7
-10
-18
-63
-36
-29
-27
-1
-16
-6
-3
25
3
5
27
-30
24
17
37
2
43
18
-28
36
5
-4
18
69
-57
9
44
-10
2
8
-54
-113
-27
-8
-16
-72
-8
-5
10
14
-5
16
-28
25
24
-9
11
106
38
6
17
-15
-47
-5
15
-24
1
-34
31
1
3
2
26
40
8
-34
-20
-10
-9
1
-25
-58
-16
36
45
49
6
7
0
16
-8
6
-27
-25
-25
-24
-19
-46
19
10
-13
-7
-22
-6
33
49
7
9
58
12
-4
2
-7
-37
-15
-23
-51
12
17
-2
-20
-115
-36
12
34
42
2
-4
-58
44
65
25
3
-63
26
10
99
127
26
-20
1
14
-6
15
24
-42
-41
-3
21
35
23
6
-25
-46
27
-35
-9
-22
23
-6
-17
-60
-42
43
13
0
7
-26
-57
-50
-4
6
-17
-20
-32
-5
16
-31
-24
-9
46
52
67
1
-13
43
27
-14
-29
-74
-86
12
-13
-44
-27
-9
-39
41
115
3
7
26
41
37
23
107
6
-12
0
-51
-19
56
91
-105
-113
23
14
100
37
-67
-95
84
85
-5
-14
50
29
-41
0
77
54
18
36
65
-33
68
7
27
9
-10
-20
-103
-61
-1
-24
-44
-49
-8
24
-46
30
16
40
-19
70
9
-12
-3
-32
-23
-49
-66
-105
-9
-64
-98
-29
-1
-9
61
116
2
25
106
52
-25
25
-54
-13
-11
36
-20
-12
9
-49
35
89
11
-51
47
18
2
21
22
-49
3
3
-82
-45
-9
-28
-19
32
-5
13
-38
6
-29
-33
29
39
-16
-20
77
1
9
39
84
-20
-3
23
3
24
5
49
-14
-18
5
24
25
18
-19
-57
8
69
22
9
-43
-13
-12
-5
10
-8
-18
-16
-29
-11
21
33
-76
-56
1
-11
51
28
60
-43
11
0
11
31
-7
-51
-61
34
-27
6
-7
-46
-95
22
-5
-63
15
-3
-32
-34
33
-19
-27
5
18
53
11
-2
-60
10
14
4
9
-20
-6
59
127
79
33
11
-26
-17
13
1
-69
-18
-9
11
43
-37
-10
-28
-8
20
42
95
-45
-15
17
46
-32
-55
-33
-61
17
84
-3
-42
-13
18
-14
28
-37
-124
-13
-25
-13
-14
-1
-13
-2
92
2
-12
-64
-59
-14
-4
9
-24
-8
8
-18
15
-12
-7
10
19
-2
-10
-39
41
14
-9
2
13
8
15
127
25
22
10
-12
47
5
72
-17
15
60
25
7
-90
-2
-19
88
-15
-51
0
-33
31
6
2
-84
-44
-3
-27
26
58
-15
-52
1
2
11
65
-24
-27
14
2
112
38
-51
-105
84
127
-9
41
-100
-31
31
107
-38
-105
-13
-65
-44
-10
-17
-3
-10
-7
0
38
99
24
-3
12
-15
25
12
-11
-74
-13
-19
-5
41
14
-21
-10
-38
-17
29
41
39
-7
0
11
57
22
-1
-27
-118
-68
-12
2
-12
-36
-4
-50
30
-30
0
-37
-76
3
-23
40
25
-30
7
-5
-8
26
-19
-7
-2
75
9
16
90
-29
17
-2
-20
-20
7
42
0
26
-28
-2
5
-62
15
-6
-44
-19
30
-35
-4
76
-5
-56
-35
-18
3
77
-46
-94
-18
20
82
20
12
-78
4
71
10
-1
29
-7
-2
-6
38
-4
-8
-19
-118
-13
11
42
-43
49
16
22
94
55
-5
-23
10
46
18
-6
12
-5
3
42
47
-62
5
12
-93
-55
-11
6
-66
-54
-18
1
58
18
-8
-21
16
70
-7
-1
63
53
51
1
-17
-71
-4
46
-7
-10
20
72
49
94
-3
-47
-90
10
-19
-19
-46
-30
-1
-104
25
-34
-41
-34
-18
-13
-15
26
-1
17
-1
-30
41
76
-7
44
53
6
28
43
-14
-44
6
13
43
-3
-19
-21
26
76
12
30
-10
59
19
-14
-82
-120
-2
14
62
-26
-19
-15
-11
18
8
-32
-121
-28
-19
34
6
-44
-2
-19
-61
-5
9
-31
9
40
-4
9
90
32
25
-28
-63
3
-8
17
-41
-37
-44
9
-33
-10
-14
-42
-70
-37
14
15
-7
-8
-12
-40
-24
32
8
-52
34
48
-7
38
75
49
-5
18
23
-26
1
25
57
3
33
37
4
8
-2
-10
-49
-35
-26
-33
-53
-23
-4
-5
56
-13
-5
-2
27
9
1
20
-32
-2
-18
-30
-71
-45
-5
-33
19
-20
14
-34
98
70
8
-28
-28
1
-6
-6
-44
-109
3
-72
-115
-47
-35
-53
-28
43
-14
106
69
59
13
11
122
79
21
46
53
67
19
-5
-101
-98
-9
-34
-75
-35
-15
-65
36
126
-7
-49
-83
-42
30
67
-31
-43
21
-5
-14
-47
-50
-56
30
38
-26
1
-1
-20
11
34
39
105
3
2
-32
74
12
-80
-19
-34
-9
26
83
3
-23
2
-8
-9
15
19
51
-25
2
22
12
-20
-7
-48
-1
11
16
-16
13
-45
-12
37
55
17
7
15
-30
71
-9
10
-16
3
-2
21
22
27
10
-55
-128
-67
19
25
-20
-9
12
55
37
0
-47
-38
-15
-94
14
-46
35
28
17
32
5
14
-19
33
98
38
9
-13
55
0
-4
19
-81
-66
9
38
-3
0
-6
-58
-30
38
26
9
-29
46
17
57
127
19
-14
-32
13
-43
17
29
-70
-40
16
33
-7
27
-7
-9
-45
7
-13
11
32
31
-4
-40
19
24
-9
-29
55
20
-5
18
77
-23
-6
56
11
-13
17
-15
-26
2
14
-6
24
29
-25
-28
-17
-46
-14
-22
-64
-18
21
48
25
63
-8
-14
-18
-36
-1
10
-34
22
-1
42
6
-58
1
-5
-4
-9
10
23
-12
-20
8
-38
-125
-81
-8
6
6
21
-18
-63
-124
8
-16
-3
12
-4
-24
-23
98
35
0
-13
10
56
10
10
83
1
-24
-5
5
14
2
24
-51
-6
17
2
-64
-10
-2
-24
-103
-27
-14
-22
-22
-29
-5
31
20
28
19
16
37
63
10
47
1
41
37
-2
25
5
3
-3
56
26
-10
13
-34
-38
0
-7
-96
-86
-21
1
59
24
4
-34
-117
-9
-9
6
-52
-52
-11
10
47
32
-18
3
-64
32
-8
-4
19
-1
31
1
15
-51
-6
-4
-19
-39
23
-29
-94
-90
-5
-14
-44
6
-39
-23
77
44
-9
22
65
15
-5
-9
-11
-30
10
-11
102
48
5
-28
26
64
9
-9
23
-12
1
9
-20
32
-5
26
-35
-42
27
15
-50
-14
-11
-50
-106
3
-22
-17
20
-5
-1
43
108
44
-25
-21
35
72
-3
-7
-20
-29
42
65
-75
-47
21
46
-53
-17
3
1
-37
-66
-21
-53
-31
-15
-31
-53
-19
-31
0
7
39
42
19
19
2
-4
20
12
32
-6
-8
-12
66
96
-27
-16
-45
-20
25
27
7
44
15
15
-5
-21
33
1
-41
-7
-29
-41
-29
-3
-29
-16
38
-22
8
39
34
-23
-42
-23
20
-8
-13
-67
-100
-39
2
15
5
26
-9
13
16
0
-6
-10
26
-13
-2
24
50
56
41
41
-8
-9
3
44
53
27
32
12
23
-31
20
8
127
-14
-45
-51
6
-22
16
21
-19
0
23
26
18
6
3
-23
-39
-41
-9
1
1
-33
-16
-1
-60
-1
-10
12
-38
-32
1
-25
-55
-21
-33
-13
-7
-18
-3
-8
-35
7
2
-8
-6
-33
-5
29
5
2
30
16
21
18
-12
-10
20
15
-10
-5
85
44
6
0
2
-2
-2
14
45
-15
-1
18
41
30
-11
48
-66
-18
11
-6
-20
-7
-2
-45
-11
-21
-2
-14
4
-6
-22
0
-1
34
-2
1
12
9
9
-17
17
20
0
9
-9
-12
12
16
26
45
-2
-22
-47
-11
-9
17
-1
-8
1
-13
27
10
-16
-9
-9
25
2
9
13
-10
-5
10
-14
53
-11
0
-7
30
18
-22
43
4
3
-11
57
-12
-12
-9
-15
-13
8
-8
-37
20
-11
-10
4
36
1
9
24
12
20
11
-10
24
0
19
48
-8
5
7
5
21
1
-6
-42
-16
-45
4
0
13
12
-4
-38
-9
24
-1
-38
15
5
-3
-3
7
-26
-7
65
30
12
3
21
24
26
7
-31
24
13
5
-25
-9
26
-4
12
-64
7
-8
-19
8
-58
-11
45
2
0
-9
28
39
42
4
-11
-3
6
-7
5
3
-33
-10
-2
16
-5
4
3
10
-3
11
-12
3
1
6
-3
4
2
2
17
20
-16
-14
-1
34
-1
-2
-23
-20
-7
4
2
46
-8
0
8
-19
-3
-8
-3
82
3
6
-7
4
-7
12
0
81
32
0
-18
-52
3
6
-10
97
-17
-15
-6
-67
7
10
15
118
-12
7
-6
-128
-13
-12
-11
114
-37
-7
11
-77
2
4
3
62
2
1
-8
-87
0
-1
-7
6
-9
-4
-14
-109
0
-4
4
14
15
-1
27
-106
4
2
3
-19
-4
4
2
-128
-6
-1
0
-27
-9
-1
-20
-41
1
-3
-2
-56
56
-6
-9
49
-4
4
-1
-91
56
-4
0
81
-2
-2
-10
-88
54
2
-1
111
-9
-3
5
-101
-42
-3
-5
76
-26
-7
-6
-76
8
-3
2
71
-1
-3
-2
-82
-24
-5
-5
72
10
2
-2
-84
-10
4
-6
71
5
9
1
-78
12
2
1
45
-20
-10
-5
-56
-42
-4
-1
29
3
-1
0
-61
-15
-4
4
29
-20
-5
-3
-43
-16
-2
-6
35
-3
-4
-3
-36
0
0
6
8
2
2
-3
-16
13
-1
-4
6
-13
-6
2
-27
-31
0
7
8
17
5
-1
-13
20
-6
1
14
8
3
1
-5
27
15
-9
1
12
4
3
4
-9
-21
1
-2
-25
-8
-2
-8
7
11
-1
6
-36
-4
0
-7
-24
0
-6
7
-2
-1
-1
-1
0
-5
5
-2
0
2
-2
-2
-6
3
-8
-1
8
8
5
3
-8
-6
10
-1
-2
7
0
4
-8
-3
0
4
-26
-7
-1
5
13
-2
-2
-3
15
1
-4
4
-18
6
-8
-2
2
-3
-7
-6
-5
-11
1
0
-8
-5
-1
7
22
7
-2
3
4
1
-2
3
-2
-6
3
0
-12
1
1
5
0
-1
-11
-3
7
3
5
13
22
-10
15
0
34
6
2
2
-1
19
28
2
-20
6
1
7
16
16
-36
-3
-17
-27
-3
3
-12
-17
-3
-2
-17
-9
-9
0
8
-4
-25
-1
-31
-19
-8
4
-6
-18
-15
1
5
2
2
3
6
23
47
-2
9
8
-1
3
4
10
-3
-2
42
14
7
7
-34
-3
-2
8
-7
-11
-2
1
24
-4
7
48
24
12
1
2
-9
-8
5
50
-1
5
1
4
3
2
-11
36
-17
-17
-5
1
6
-1
-2
23
17
0
-3
-2
-20
-1
-17
30
18
4
1
4
8
1
-13
16
13
4
0
4
-8
-2
10
12
-5
0
0
4
0
6
-13
10
5
2
-3
-3
8
-15
15
0
1
-7
-3
2
-3
11
-13
-14
-19
1
-2
1
-9
3
5
0
-16
1
2
6
2
2
13
1
-1
-1
1
1
-4
13
-36
-19
-25
-19
-7
-2
-14
-22
-5
-10
-10
8
-1
5
7
-1
-1
-16
-27
-6
-3
0
1
2
3
2
6
1
2
2
-3
0
-4
0
3
7
1
3
-8
-7
-5
-3
20
-2
0
2
7
5
-2
-9
26
8
-2
2
-3
-3
-6
-4
6
-4
-3
1
-2
1
15
-10
-10
-7
-2
3
6
-3
-17
-8
-1
-1
1
4
5
-2
7
-2
19
5
1
1
-2
6
-5
-6
3
1
1
2
-4
-6
0
-9
-3
-6
-3
2
-3
-3
3
-4
11
1
-2
1
-13
-5
8
-5
0
0
4
1
12
6
-2
-4
19
1
0
-1
-7
2
-2
-4
-23
0
0
1
1
-14
0
-8
-23
-4
-6
-1
-2
9
-2
-6
1
-2
0
4
1
-4
0
-10
-15
-1
-3
1
-1
-3
8
-2
8
2
1
-2
0
1
3
-3
5
2
0
1
-8
-1
-1
-4
-7
0
0
-1
10
1
7
1
-3
3
-1
1
0
4
-14
-4
-1
0
-1
-2
-7
-7
-2
-7
-12
-7
-2
1
3
1
-2
-5
4
-2
-3
-3
-7
-2
0
0
-3
1
0
3
3
-1
2
-5
3
-1
-1
-1
0
-1
2
-5
6
1
2
-2
0
-2
1
-1
3
1
-2
2
-2
-1
-2
-4
5
0
-1
0
3
-1
-2
-4
7
-1
0
1
-7
-3
3
-12
-11
-3
-2
-1
6
4
2
1
-4
1
-1
1
-3
-1
0
-1
15
2
-1
0
-5
-1
-5
-11
-12
-11
-5
2
-3
-2
3
0
11
0
-2
1
9
0
1
-4
-21
-1
0
-5
-3
-1
-2
-4
-2
2
1
1
-1
0
1
-2
1
2
-1
1
-1
-2
0
-1
0
-3
-4
0
0
-1
-2
-3
2
0
-2
-1
-5
-2
-2
-5
-11
-2
-1
0
0
-1
8
-1
2
0
-1
-1
5
3
4
0
4
-1
0
-1
-9
-5
-8
-2
5
-3
-4
-2
0
-3
-2
-3
-12
-1
0
-1
-2
-4
0
-1
-1
0
1
2
-2
1
1
2
8
4
3
2
0
0
-2
-1
-2
-3
-1
1
0
0
-1
0
1
0
-3
1
-7
0
-4
-5
-4
-2
-2
-2
4
-4
0
2
3
1
4
0
4
2
1
2
17
4
3
2
-3
-1
-1
-7
-26
-6
-2
-1
-3
1
0
-2
-4
-3
-3
-2
-5
2
-1
-4
2
-1
-5
0
-3
-3
0
-1
-8
-1
-3
-3
-1
-1
-1
-3
-1
3
2
1
5
-2
-2
-1
4
3
4
0
0
-2
1
-1
-2
-3
0
1
1
0
-1
-4
-5
0
-2
0
-4
1
-1
0
0
-6
-5
-1
-2
-1
-2
-2
3
-3
-3
1
-1
-2
-2
-2
-3
-2
-3
-3
-1
-3
2
-1
-1
-3
0
1
-3
1
-1
-1
4
-2
-1
-2
-2
-3
-1
1
2
2
2
3
-1
-1
0
0
-6
0
-1
-2
-7
0
-2
-6
-3
-1
-4
-2
5
-2
-2
0
-1
-4
-6
-1
-1
-2
-2
0
-1
1
-2
0
-2
-2
0
-1
3
3
7
1
2
1
1
3
1
3
5
1
0
1
1
0
1
0
3
-1
-1
-1
1
0
9
-2
-6
-3
-2
-1
-1
-3
-4
-7
-7
-1
-2
1
-2
-5
-13
-7
-3
-1
-5
-2
1
2
8
3
-6
-1
2
0
-1
-3
-2
-4
-2
-1
0
-1
0
-1
0
0
0
-2
1
1
0
-2
4
0
2
-2
-3
-1
-1
-1
-5
1
3
-1
-1
0
0
1
1
4
-1
0
-1
-1
-1
-2
-2
-2
-3
0
-2
-2
0
0
1
-2
-4
-2
0
-1
-1
-1
-5
1
5
0
-1
1
-1
-3
1
0
-1
-1
-1
-2
-1
-1
4
0
0
-2
-1
-2
-1
0
0
-2
-3
0
-1
-1
-2
-1
-2
-3
-2
-2
-2
-2
-2
-3
-2
-2
-1
0
4
0
-1
2
0
-1
-1
-1
-2
-2
-3
-2
-2
1
1
-3
-2
-1
-2
-3
-1
-1
0
-1
0
0
-1
2
-3
-3
-1
-1
-2
0
1
-4
0
1
-2
-1
-1
0
-2
4
-1
2
2
0
0
-1
5
-3
-2
-4
-2
-1
-1
-2
-10
-9
1
1
0
-1
-4
-2
-1
4
2
-4
-4
-1
-1
-1
11
3
2
-3
3
0
-3
1
-5
-8
-5
-3
2
3
0
-1
13
6
-4
2
-1
-3
0
0
-12
-6
-1
4
-4
-3
0
-4
-2
0
-3
-5
1
-1
-1
0
9
9
1
-1
-3
-4
-4
-2
-15
-12
-4
-6
0
1
-1
-1
37
6
-1
5
0
0
2
3
-53
-10
4
-5
-5
-2
-1
-8
-10
2
0
0
0
-2
0
0
-20
-4
-6
10
2
-2
-4
1
19
4
-5
2
-1
0
3
5
-9
-8
-1
-14
-1
0
-6
-7
24
-1
-6
9
-1
0
-1
-2
2
-6
2
4
1
0
2
3
-68
-1
-3
-14
-7
-1
-4
-10
-8
15
0
9
7
-1
-2
2
32
-2
-3
-16
-10
0
-8
-2
-23
13
-2
-2
-2
-6
1
4
-37
-65
1
10
-7
-10
10
5
-19
9
-3
-5
-5
-6
-4
-12
-19
7
-14
-5
-7
-4
-15
-30
87
3
13
-7
-16
4
17
34
29
20
11
-21
41
-13
-29
-19
17
6
3
6
-108
3
2
-16
-82
21
-8
12
113
-60
1
25
-6
-16
-2
-9
-44
29
1
-9
7
6
3
-12
-17
24
-10
-4
-7
-9
-5
17
42
-9
12
10
-49
17
-2
44
-29
58
21
4
-36
-51
8
-15
69
25
-16
-10
-54
-29
-5
7
4
-59
15
-4
17
2
3
17
17
-46
8
28
34
68
8
-67
-96
25
-26
-65
20
73
-15
5
-42
-111
-6
-1
71
93
-15
-3
-44
126
21
32
-36
84
-5
33
66
-51
-38
-3
-25
10
17
42
127
61
7
-14
-12
40
14
-52
-94
-33
7
-27
14
72
3
-14
44
-104
6
-11
66
63
7
3
-75
72
29
45
43
22
8
20
82
36
11
28
13
7
-9
-4
51
30
-14
-11
-104
-28
11
-23
-104
-42
18
-1
-2
-80
-8
-22
-39
-13
-3
-12
95
-77
1
-3
-88
-56
-38
-1
-40
-80
-8
19
39
9
6
-19
76
-92
-22
-28
18
49
-10
19
83
-62
6
19
120
-14
-4
15
-11
-73
9
-32
-128
-91
7
-13
-67
2
-2
93
117
72
14
1
105
-26
0
18
25
-37
-12
3
-79
1
11
-40
107
87
-35
-31
-34
-2
13
0
14
-1
37
32
11
37
9
8
-87
-36
-1
8
2
42
-1
-17
-59
-47
-25
-23
27
33
-8
-32
-95
-49
-7
-1
28
19
-20
36
-68
34
-3
3
-47
-25
-28
-43
18
31
10
-11
44
-17
13
40
126
71
-36
2
13
-33
-2
24
-95
-43
52
20
-47
-56
-6
-37
70
-31
-28
-17
5
-51
-1
2
-24
5
-3
7
0
8
5
37
5
54
22
-22
-45
-37
0
-39
35
0
-3
18
19
-11
3
2
-53
-19
-18
-17
19
13
0
20
-37
-52
8
18
-60
-15
-14
-1
7
-8
7
-9
42
41
3
-33
-64
-3
-23
1
24
37
-10
-27
-112
6
34
26
10
-15
5
21
122
88
-27
-4
-54
-23
6
32
79
4
24
1
16
-4
5
12
-82
-43
4
-10
-26
3
6
-16
81
-13
5
19
76
29
7
-33
-126
-77
-8
46
-65
-13
-37
32
37
77
-13
-74
-17
-40
-12
6
117
67
7
-6
-5
-4
-1
-1
-82
-22
3
12
23
-18
5
-46
-69
-1
-10
1
27
38
-2
-21
-115
-45
12
23
-29
-29
-19
-12
-7
-85
4
-2
-42
1
-21
25
-20
83
22
-19
-26
14
-1
-9
112
24
-52
-59
-62
-20
3
8
-86
-13
-6
26
40
29
14
39
92
60
13
-36
32
41
15
26
75
-38
14
19
-6
-73
7
4
-27
9
-8
-7
-11
-5
-13
-38
-115
-53
-15
17
-2
6
-1
40
28
-16
-17
-16
5
23
-20
-26
62
49
-10
26
32
41
2
-30
-81
-86
-6
-30
-46
16
-7
27
111
75
12
15
-44
-88
13
-2
-28
-21
17
-18
37
-5
-1
4
11
0
-4
28
-24
8
13
9
-18
31
-11
-42
20
34
-6
-47
-50
-66
0
-10
20
34
2
14
-7
20
-13
16
-20
-16
1
10
26
-22
-10
-7
-9
-8
-9
38
-41
16
12
22
11
95
10
-8
45
21
38
18
-14
-17
6
-29
-11
7
-40
-5
-30
-3
-2
-22
-24
-23
-11
0
83
13
-10
56
-45
0
36
83
3
15
18
-29
3
10
-50
-11
-40
-18
0
-22
84
-10
8
5
17
-12
-3
21
-118
0
16
31
-25
-15
4
-39
54
-9
-12
-69
18
-44
3
49
49
-28
18
44
-13
19
-8
-56
-36
66
-13
11
-72
-34
-3
46
21
-28
14
-42
-28
1
-6
-33
-82
-88
-10
35
8
-104
-2
-51
-3
87
-19
-42
42
45
-2
116
77
1
15
8
-46
5
7
-69
-1
18
1
-3
17
58
-7
-17
8
4
35
40
34
3
11
-33
-57
-68
-34
-50
-57
-29
-22
25
-128
-26
6
-9
127
102
-2
1
117
54
-12
2
-6
-43
8
14
71
8
-16
12
-31
17
9
0
-82
-105
13
15
11
-2
-17
-10
-84
80
-10
1
-15
-32
-4
40
82
33
17
-24
21
-47
11
-61
6
46
-7
-23
8
2
3
28
-67
-29
-15
1
-8
19
-10
-71
-128
-122
21
-5
-30
-21
-9
51
38
46
-23
-3
-11
9
3
52
33
102
-5
-17
2
-3
2
-36
50
40
54
32
32
29
18
29
32
-59
20
12
-40
-73
11
-73
-100
-79
-61
-53
-52
20
-19
7
32
-4
10
48
54
6
-7
-60
-113
-57
-2
-11
14
-5
-7
53
109
73
-4
11
-42
31
-10
55
84
60
23
14
-16
-76
8
-13
-12
-42
-11
-26
54
57
-14
-48
-104
-9
14
51
36
37
2
-25
-5
-43
-41
-40
-3
-25
-13
-91
-99
-108
-17
3
15
20
-26
39
79
86
33
-6
-12
25
25
63
127
-36
-10
-9
-31
-39
10
-6
-91
-67
38
-27
46
10
4
-29
-58
-19
-35
36
-20
42
6
38
48
41
10
-26
-17
-53
-4
101
41
73
19
14
-3
46
8
8
-42
-10
-8
32
-10
-26
7
-6
-126
-79
15
-29
43
25
-16
-128
-128
-103
-24
-68
-4
-48
-29
18
80
86
-26
-28
29
35
5
19
100
115
3
7
15
-55
-1
12
-75
-38
40
18
-17
-33
0
44
4
-52
0
7
-10
3
-3
-53
-118
-74
-25
5
-4
6
-19
-102
-128
-109
-14
-32
-2
36
-10
72
127
127
22
-1
2
1
29
50
49
15
7
30
-50
-28
7
48
-97
-85
-14
45
-12
53
0
11
-49
-45
24
17
-9
-83
0
-114
-124
15
-17
-24
-8
44
-6
95
77
5
-3
-15
30
25
-2
80
121
116
0
21
-26
-54
10
-32
-24
-24
-1
-2
-12
41
14
8
16
-32
0
27
-5
-8
-7
-77
-58
-15
7
-4
51
56
6
-33
-39
-1
30
35
26
-29
-4
55
-21
41
-36
-63
9
-9
-4
-20
99
-1
-28
-13
-15
9
-4
-49
-63
-32
8
35
-35
-14
1
16
25
-9
7
-12
73
20
-8
-38
-42
13
4
-7
-4
22
4
3
-58
-38
-6
-3
-16
29
-12
-23
-18
-14
14
-1
0
-16
9
29
103
19
-18
-43
-61
-63
6
0
127
113
18
10
42
63
15
61
41
23
6
15
-26
-51
-7
-91
-81
-39
-29
-25
23
24
-7
-22
-128
-84
-19
-6
-52
-110
-7
-62
-107
-106
-11
28
-8
31
-12
77
80
85
-18
-54
-14
39
2
78
81
68
14
36
6
21
11
5
105
62
-1
-21
2
46
13
82
1
-30
22
36
34
33
-15
-55
-128
-66
-3
17
8
-48
-5
-14
-15
-42
-6
-45
-6
-32
-17
-38
-54
17
19
2
42
35
1
-27
91
-20
-38
10
31
26
-5
25
-91
-12
24
75
-41
86
0
-24
-68
26
10
-42
-39
-84
9
49
92
36
-8
-28
37
26
-7
-14
48
52
23
38
-45
-83
20
-17
-4
-81
-27
-15
34
32
2
9
-16
-8
-23
27
-15
19
-13
-81
-128
-27
-7
-27
-11
7
-4
65
31
7
-2
16
28
31
2
-10
42
53
15
12
15
24
4
-16
-18
-48
5
12
-29
3
1
-15
-124
-12
-6
-67
22
47
-7
27
86
98
11
-12
20
1
9
27
57
-4
3
-20
-9
-45
5
27
-64
-5
-3
32
23
20
12
-9
-59
-40
39
-8
9
-40
-35
-67
-128
-46
-35
-7
-4
41
-15
-38
25
-18
7
-44
-35
-91
-18
29
27
7
-19
11
7
22
-4
0
112
106
18
8
-3
-2
25
82
115
27
17
6
-15
2
11
16
-95
-56
1
8
18
11
-17
-7
-22
-52
-1
12
4
33
-2
-10
-83
-37
-16
18
-67
-107
-26
-59
-42
-23
-10
-23
-13
0
-4
-11
48
58
-3
-13
37
32
9
39
-33
-11
27
2
-11
-51
18
31
118
43
-14
13
32
67
2
-16
13
-26
-17
9
-69
44
6
-12
-116
-54
-11
-9
92
-23
14
-31
67
39
6
3
-85
-84
4
-15
-100
-12
0
-19
-6
16
20
49
97
80
-12
0
-10
-52
11
4
42
19
39
52
-40
48
18
-9
-105
-34
-26
-45
52
78
-5
-15
-73
-80
-9
46
-17
61
-8
-51
29
27
15
-8
21
-31
1
15
34
15
-17
-4
-3
-3
-3
10
34
5
2
-3
14
-2
-17
-12
-25
-19
7
7
4
5
-3
-5
-85
-25
3
21
-38
-15
-12
-60
-87
-23
-14
-43
-5
-39
10
13
112
51
5
9
10
19
3
33
76
26
5
-7
-7
-19
2
16
-51
18
8
-9
15
25
-3
40
98
17
-13
40
-49
-35
-10
-8
-89
-54
-1
-28
67
85
0
-44
-26
-27
-25
16
-22
-61
4
-2
-87
-17
-1
-21
19
-16
-17
-4
48
41
-21
-2
-19
-1
-10
25
40
5
3
7
-1
14
2
29
28
-1
17
8
26
29
8
-16
-22
-44
29
-14
-29
-52
-9
-40
-128
-49
45
-9
48
43
-1
-12
33
38
-40
14
-13
-84
-23
-1
115
94
0
-6
-8
-4
28
46
46
33
5
-19
8
9
-7
30
9
-21
-10
-2
33
56
-14
-18
-73
-18
-14
13
-39
-14
3
-19
-94
-73
-14
1
11
-14
-5
-24
-17
-2
-23
-6
25
47
3
7
41
18
12
-21
-2
-25
12
-5
-16
-7
-6
3
-18
-30
-10
-9
-79
-53
-49
-17
-6
5
-12
7
55
62
39
15
15
-12
13
18
61
18
1
-7
-30
-35
4
-15
-33
-28
34
-4
88
-22
1
-12
-29
-12
1
33
-68
-60
-6
-7
19
-14
-10
-20
6
-36
6
8
-20
-9
-8
4
-19
-32
9
34
124
53
-3
-12
-17
23
-11
33
22
5
-4
-1
37
13
2
-62
-125
-45
-13
1
-38
17
4
1
12
-25
-13
-16
4
15
9
20
-7
2
2
5
-16
-34
-15
-9
-1
36
7
-8
4
6
-6
33
48
5
-24
22
1
5
-11
-14
-29
5
-23
20
-27
9
-4
-45
-42
-19
31
-15
-38
-51
-10
24
29
2
35
-17
14
-3
-11
-1
31
12
-39
-9
-63
-18
-12
-3
-81
-14
26
-12
64
35
-16
-1
-3
-1
-7
40
15
73
11
15
41
9
-4
-12
-15
6
-9
10
75
12
8
17
18
25
22
1
-56
-21
16
-25
16
14
-31
-7
-11
7
-50
4
-11
38
27
-2
70
6
22
-16
21
43
-1
3
-57
-38
-3
2
6
-6
-23
7
-5
6
47
24
-66
-24
-4
16
-25
5
-19
-2
44
-8
-2
-26
12
-13
-23
-73
10
81
17
11
38
14
16
14
14
0
-6
-13
15
7
3
14
-28
16
-15
6
-25
-9
5
-20
-24
43
-5
23
3
7
11
56
27
10
13
-4
-33
-4
12
-16
40
34
0
-25
0
-1
-22
-12
21
-8
10
-14
7
11
29
20
-8
-14
19
-5
-11
-7
-27
1
-54
-46
6
-22
-49
-6
5
11
-11
9
11
28
59
19
-35
-17
39
-19
19
-13
27
11
9
5
21
5
13
29
-40
6
31
18
-33
-65
-2
-35
0
-43
-34
-59
3
-61
-14
-25
-46
-35
7
-3
-10
-11
-16
-11
-5
71
14
44
70
13
1
33
84
19
36
79
-32
-16
-14
-33
-32
-31
-24
-13
-31
-65
15
-26
-42
-6
-20
-5
31
23
-6
55
97
-29
9
51
-34
13
9
-22
-25
20
-16
-47
-2
44
-21
8
-30
-30
2
31
79
51
2
25
22
13
-6
63
-28
39
-3
-39
-62
-10
3
-95
-80
71
-24
20
46
7
-28
-48
89
30
10
-1
-4
23
18
42
-24
17
0
-52
8
-23
1
-8
3
-28
-8
59
-34
-39
-10
43
-37
-26
-8
-27
-14
-17
-17
-28
15
45
-34
-55
-53
-46
-2
-11
-49
89
-20
63
41
91
31
40
21
107
5
34
125
48
-33
-81
62
-18
21
-38
-64
-30
12
8
-99
-27
7
63
-19
-17
-6
42
59
40
8
-27
40
-7
9
3
30
53
-3
-52
-67
-37
-34
27
-85
-17
-19
-7
-38
-18
21
-6
0
-88
7
-12
23
-4
-25
-66
19
9
-24
22
-4
6
-7
-12
-12
7
-20
27
56
44
32
39
21
-43
2
-70
-89
-73
16
13
69
106
-24
43
-43
58
24
51
-49
-128
14
26
117
21
-44
-110
27
74
4
-45
-35
-25
38
28
-56
-98
-2
5
-15
16
-26
-11
-5
73
25
19
-10
-31
-2
-21
-39
-100
-15
-34
-82
0
15
69
38
39
18
3
-101
-43
-10
-28
9
-69
6
2
65
15
-29
-2
-47
-60
19
-14
74
61
-11
-43
27
75
14
18
-85
-8
-2
25
-26
-103
32
17
116
13
9
-27
40
56
-6
56
-25
-12
35
58
-24
-58
14
-18
1
10
-17
8
116
92
14
-2
-28
-28
-23
42
-42
-70
2
1
-50
-12
12
-18
-15
80
2
20
71
63
9
26
-28
-95
-3
1
58
27
35
-52
20
69
-2
-34
-79
-69
-10
31
58
99
3
1
14
21
10
31
-66
-87
10
20
-34
1
-30
50
-1
41
0
-45
53
43
-17
24
-16
-14
-11
15
67
-52
13
-31
3
-28
9
-9
-102
20
14
-13
5
49
-10
8
90
20
52
-32
-36
-85
-4
74
-54
11
15
27
-52
-58
11
-24
1
4
-22
-24
-12
48
-11
-7
124
-10
-26
4
4
17
-10
-19
-93
-40
-32
-26
42
127
1
-11
-83
-44
13
17
-81
-88
-28
8
-8
-23
-10
-45
27
-53
-6
5
-2
15
19
6
-6
92
-10
-62
5
50
36
-24
-63
21
-4
18
-1
7
10
-48
43
86
-4
-19
16
-38
-57
20
-15
-50
-16
2
-102
-58
-91
13
39
111
3
6
127
31
72
4
27
-8
10
-3
-76
-39
83
32
-6
9
4
39
18
106
-3
-44
-4
-24
-8
-36
17
7
17
-31
-17
-47
-4
24
11
-8
-68
82
-56
-53
-16
-8
-5
-43
-34
28
0
-6
7
-27
17
26
-3
62
-20
21
16
9
-24
-35
-13
-43
29
34
-11
-2
-103
-29
-36
-20
73
76
-16
-60
-38
9
50
47
1
69
5
70
90
52
17
-10
-15
-71
-13
-9
-33
15
8
-6
30
-50
14
-10
63
19
34
75
99
103
-8
25
-21
-63
-63
-86
-65
-98
3
-7
73
40
10
-35
44
-23
11
22
-78
-28
3
-7
6
-68
4
-55
-8
-7
-51
-10
75
33
-5
-19
13
25
28
23
-16
113
4
-8
-24
-31
58
26
-62
11
-4
19
28
2
-10
-33
5
-79
2
-21
-128
-54
24
-42
29
-44
-12
-17
60
36
-40
13
12
36
6
20
7
12
-6
-37
-3
76
-6
-23
-56
1
-5
40
64
4
-9
46
98
19
9
68
-29
21
26
1
105
8
-44
-69
-29
-121
10
-10
-45
-18
52
-6
47
98
-12
-6
-52
5
-6
47
-47
-51
-12
34
60
17
11
-35
-7
34
3
35
-10
30
6
40
50
69
13
25
-88
-18
-25
14
-34
-88
-7
-74
-37
-50
-29
-37
-2
40
-12
-32
-111
-55
3
-7
-14
-6
-14
-12
-64
24
-7
20
-6
-7
-23
-18
87
7
-4
-14
0
-84
16
31
-32
51
32
-15
-30
94
-4
32
127
19
10
-30
86
67
17
23
-17
-64
14
76
-2
23
18
-55
-128
-36
-50
-82
-63
80
-22
12
127
58
53
46
-10
19
16
7
40
64
-30
10
1
48
6
12
68
-8
-1
28
64
87
-7
16
-48
-44
31
20
-33
21
8
-42
-62
15
-10
6
-55
-45
-9
-6
23
-30
-33
-43
44
-2
4
-19
34
2
11
-2
33
85
-10
-42
18
2
-5
15
-5
27
1
39
-8
-37
-48
-22
36
38
-17
-39
-128
-17
30
5
-52
-66
-22
13
16
-14
-21
-44
-27
-70
-15
8
66
27
-4
56
116
50
0
-7
-37
1
12
-32
-58
-79
27
22
35
31
-40
6
65
16
-8
18
90
18
-29
-17
-19
55
22
37
-22
-25
67
-18
29
-87
-8
-8
-35
-48
-22
64
51
127
17
-44
48
45
-34
-44
-58
-16
-16
11
-91
11
36
26
24
21
21
-28
-30
-18
0
6
-42
65
-15
78
127
52
9
12
60
32
28
30
-107
-35
-2
-37
-51
-25
4
-3
-58
-43
-23
14
37
78
-74
-67
-107
-5
8
29
-58
-90
27
-38
-31
-81
-31
-119
7
51
-4
0
-57
31
-48
63
-35
-48
30
4
109
84
57
-92
-3
-7
-31
51
-22
-16
-21
23
-57
-59
-13
-74
-36
-4
36
59
-52
0
-27
-4
18
-67
39
-47
63
61
-16
-11
-128
-49
-86
-42
-73
-128
21
44
127
119
52
23
127
127
37
60
127
75
-39
-2
-82
-106
31
10
-1
-35
20
23
-98
24
49
-3
-116
-89
28
9
105
108
-18
-71
-83
-48
-20
35
-48
-71
13
-25
-25
26
-21
-84
25
54
-26
36
83
31
17
48
-22
64
-20
-13
7
45
-20
-22
-13
35
-4
30
-86
-49
-4
41
-15
22
-35
-6
-9
16
12
16
39
32
-11
-9
10
-6
-2
-14
-27
-19
-26
7
51
23
51
22
32
27
-7
43
61
-18
-14
-3
31
-30
-21
-65
-128
-104
-66
45
0
15
-21
-41
-121
29
-9
-56
19
-20
-24
22
99
69
38
54
-16
-118
33
41
108
64
4
-52
-11
26
28
43
104
-10
28
20
39
29
20
6
-51
-105
-35
63
7
-46
12
-47
-128
-23
-78
-36
-51
27
-16
-45
-1
38
21
-8
69
100
6
35
35
10
8
22
-5
-66
6
40
37
25
-7
-10
4
-1
-1
-15
95
42
24
21
-66
-36
13
0
-86
-16
3
2
72
53
-1
-14
9
2
-6
-21
52
72
-14
-25
0
-22
53
33
18
27
-8
49
-9
-49
-38
1
24
-10
-19
-60
-40
37
-3
-51
-86
-98
-20
3
-3
-5
-10
-30
37
-14
-13
-12
-95
-6
12
25
-66
-89
10
-16
77
1
-30
-35
22
71
8
83
0
-44
-40
32
15
98
3
3
80
92
105
49
8
-109
-17
-9
10
8
6
47
33
54
18
11
-1
-20
-33
-54
-26
-34
18
-35
-58
-34
-11
13
25
27
-12
25
-62
-17
19
66
-25
-51
26
18
116
33
-5
-97
58
58
-19
-21
-65
-2
-1
53
-71
-30
-6
-58
35
-27
-44
-41
4
-20
37
-4
-78
-2
25
-37
43
85
-23
68
58
-8
10
3
-19
-13
-12
-47
-99
40
-17
21
-15
-80
-4
32
127
21
25
25
38
21
20
-58
19
14
-4
-75
-64
-66
-29
-36
-69
-25
12
-12
1
15
20
40
68
-31
0
8
36
48
-4
8
-117
-24
12
55
-56
29
3
20
73
11
-22
-43
-58
-4
47
7
-37
-16
-19
-62
89
55
-39
-23
4
52
1
-17
-80
-56
65
-7
-6
-4
-36
-37
33
32
-76
-7
1
-22
22
49
-37
-74
-18
-42
11
-21
-86
-52
-28
-8
2
33
-52
-17
123
39
41
6
-2
15
57
25
-28
-39
-6
-13
30
29
54
-8
-32
-6
34
51
-7
-14
-61
-21
6
18
42
-35
27
-21
-49
15
-10
5
-1
11
51
-7
60
28
16
-22
-78
-92
-49
-2
27
1
13
34
-4
34
2
-8
-70
-23
-12
4
-8
-20
29
54
113
21
8
9
5
-20
-3
-24
-18
6
-7
-17
-13
-33
60
4
-59
-46
-35
-3
12
7
40
12
-39
13
10
1
-17
-42
-53
-36
-16
-8
-2
5
7
-42
-34
8
34
-11
24
44
-38
-41
14
3
-39
14
-9
-42
76
2
12
38
33
0
-4
9
-54
-73
45
-59
-46
5
4
-6
16
43
-64
25
96
4
1
18
-43
-101
-100
3
15
24
9
23
-22
-10
-23
11
27
51
37
0
-59
-34
-23
9
-35
-54
-19
-11
16
38
-2
-20
-96
-31
15
-2
-27
-20
62
29
-14
1
20
-12
14
49
26
3
82
29
-16
21
-4
-4
36
0
14
3
-12
-4
-17
-23
-36
-7
-54
-21
-32
-30
53
26
-1
-21
-18
-11
3
39
-68
-18
-9
-31
-16
-1
28
-9
-14
5
1
33
29
2
20
-19
11
21
-8
23
-7
-9
-6
27
-19
-14
22
-8
37
55
-11
-21
14
-19
-42
-12
-3
-10
1
5
-51
18
-43
-38
-3
-15
-43
-2
-6
-47
51
-5
-6
13
4
-17
5
4
-28
-4
-44
-32
0
19
-6
-5
-21
-5
-14
8
22
33
22
-11
-6
2
10
9
5
-77
15
-33
-3
-2
9
-7
-22
2
-11
13
-2
-7
-28
-4
1
-16
32
15
-19
-3
10
20
-1
7
22
-30
-12
3
-10
-1
17
32
-1
-5
-15
8
6
25
-22
-22
14
16
-7
7
19
22
10
5
-16
32
5
-2
10
0
-10
-6
7
5
-11
19
-20
-11
-8
16
-3
28
8
-1
11
14
37
-6
3
-26
-23
-14
10
9
-39
8
3
-16
3
17
28
13
-2
-4
12
9
-11
-1
-11
4
-17
14
0
26
10
-1
-24
13
23
-17
-6
61
-9
10
1
-17
-4
19
16
57
14
-7
-5
-10
-16
-17
18
36
6
1
12
-5
11
-7
7
31
0
-2
2
-19
-32
11
-9
18
3
-9
-7
-22
21
2
-4
-4
5
-2
-11
-22
-6
-4
-2
-10
-16
4
11
-20
21
23
14
-33
-10
-8
6
-14
20
-1
0
-28
-20
-2
-20
-21
29
0
12
-10
-9
2
-4
-12
11
-1
7
19
-7
3
17
-8
4
-11
-3
5
-6
-1
-2
-5
-6
-11
7
5
-12
-1
-12
-9
-12
14
11
14
-18
-2
-4
-3
0
2
-4
14
0
-13
10
-1
-12
2
7
-3
43
11
-5
-2
-1
4
-2
10
50
3
-1
-2
-2
-10
15
7
44
9
10
-1
-21
6
-17
5
38
-1
2
-3
-1
-26
-8
-4
27
3
-8
-2
1
11
-8
5
13
-2
-5
-8
10
-11
-18
2
22
-4
-4
5
5
19
3
0
32
2
-1
-3
-8
-3
25
0
-5
-1
0
1
1
7
11
2
46
10
2
-2
-2
14
-21
-1
-15
-12
-4
0
-13
-22
-11
3
-17
5
0
0
-4
-19
-3
0
14
3
3
0
-7
2
5
0
-13
-3
-5
0
3
12
-13
-1
-7
-13
-5
-1
-1
-19
13
2
7
3
2
-2
1
31
-18
-2
-25
-20
-5
2
1
-20
59
-2
30
19
5
4
1
41
-35
1
-60
-16
0
-1
-1
-18
0
1
-21
-2
3
0
0
-25
-17
-3
-31
6
-6
-2
4
2
-22
13
-14
-16
-5
1
-1
-14
9
38
-1
7
-3
0
0
-4
-3
46
-19
8
0
1
2
-5
16
47
-1
-6
12
6
6
20
-30
25
-26
4
6
0
-8
-28
22
24
41
16
4
1
6
26
15
-2
-54
-19
-10
-2
0
-7
-17
17
25
1
-7
-2
3
-2
-44
18
-21
-1
0
3
-5
-22
-2
-26
17
-6
-8
-9
-5
-1
-4
1
46
7
5
1
6
13
8
-12
5
-5
0
1
-8
-11
-3
18
40
17
-3
0
-6
1
-6
-14
-20
-14
-7
1
-1
-7
-4
-7
21
3
3
0
1
12
5
-9
-17
-5
-3
1
1
-12
4
1
22
6
1
-2
0
-11
14
3
-24
-4
-3
2
-1
9
-4
-11
-33
-4
5
2
-1
6
5
1
1
2
7
4
3
18
-4
-17
-42
-7
-4
-1
-4
-9
-7
-7
0
0
1
-1
2
-17
-6
-13
-31
-16
-7
-2
-5
10
14
-5
-35
-3
-3
-1
2
11
21
0
20
-6
0
0
0
7
-61
-28
-19
-4
-2
-2
-3
-4
-5
2
41
13
0
-1
-1
-4
2
-7
-18
-9
-3
-2
-3
-17
4
-4
-15
-2
0
3
1
12
20
12
32
10
7
3
5
3
8
-15
-16
-2
-9
-5
-8
-10
-10
-3
-3
-1
-3
0
1
1
-10
-6
18
0
-2
1
-2
11
11
-2
-6
1
2
1
2
-1
6
-2
21
1
3
0
1
-2
-5
2
8
6
-1
0
0
-5
-22
-21
-19
-8
-4
-1
1
-1
16
1
-9
0
-1
1
-1
2
12
-11
-17
-6
-2
-3
0
12
-6
-6
17
9
3
1
-1
-8
-3
-3
-28
-12
0
0
0
-1
17
-9
-9
4
-5
0
-6
-5
-4
8
31
9
8
3
2
-3
0
-3
-15
-4
-5
-2
-3
-4
-15
-13
-30
-1
-4
-6
-6
-8
6
10
15
1
2
-1
1
1
-8
0
-6
-10
-3
0
-1
0
8
-2
20
4
6
2
0
1
22
3
-14
5
3
-1
-3
-4
-12
-4
-6
-1
-2
0
1
-5
17
2
7
5
-1
-2
-1
-11
-3
-6
-18
-9
-8
-3
-2
18
5
-4
10
-2
0
-2
-2
-3
-1
3
6
-1
0
0
0
1
-6
0
-4
-2
0
-1
0
-3
-11
-3
-14
-5
0
0
1
-8
4
-1
23
3
-1
1
0
0
5
-5
-11
3
1
-2
-3
7
-6
-4
18
1
-3
-1
0
2
6
-1
9
7
-4
-1
-2
-1
-1
-2
10
-5
2
1
0
0
1
-7
2
-8
5
1
1
0
8
9
26
10
2
1
0
0
1
-13
-5
-8
-5
-6
-4
-6
5
-8
10
-2
-7
-2
-2
-10
1
-5
18
-2
-5
-2
-1
1
-9
1
-3
-1
-1
-1
-2
-1
3
-2
7
2
1
1
-1
0
4
0
-1
1
1
-1
1
-1
1
6
15
1
4
1
1
-1
2
-8
-38
-5
-3
-2
-2
5
-5
-3
2
-1
-3
1
2
1
-13
-6
-9
-4
-1
-1
-1
0
14
1
-8
2
0
-1
-1
2
-1
0
-7
-3
1
-1
-1
0
-4
0
-9
-1
-1
-2
-2
-7
5
0
-14
-2
-1
-1
-1
3
-10
-6
-2
-5
-4
0
-3
-13
-5
-5
6
-6
-1
0
-7
0
-16
-4
-2
-2
-2
-1
-3
2
4
5
17
6
0
1
0
0
0
-1
8
1
0
-1
-1
-1
-1
-2
6
0
0
-2
2
1
-3
3
17
7
1
-1
0
-1
-3
2
9
2
-3
-3
-2
-1
-1
-9
-25
-8
-4
-3
-1
4
-14
-9
-8
-7
-3
1
-2
-10
0
1
-3
0
1
1
3
2
-2
-7
-3
0
0
-1
2
-1
3
4
4
3
2
-1
0
2
1
1
2
0
0
0
0
3
2
-1
-2
-3
1
-2
-1
-5
-1
-2
-8
-4
-4
-1
-1
-5
-2
0
-1
0
-1
-2
-1
3
0
2
3
4
0
-1
1
2
0
-1
-15
-1
1
-2
-1
-2
-11
-14
-21
-9
-9
-4
-6
-10
-5
-7
-3
-4
-6
0
0
2
2
2
-5
-2
4
1
0
5
3
-1
2
4
6
-1
-1
2
0
1
16
2
1
0
0
1
-2
2
8
2
-3
0
0
1
-2
-3
-1
-1
-6
-2
0
1
1
-2
1
-5
-4
-1
-1
-3
1
-1
-3
1
0
0
-2
0
-2
-1
3
1
0
-1
-1
1
-1
0
-1
-1
-1
-2
0
-3
2
-2
-3
-2
-4
-1
-1
0
0
3
-2
0
0
0
1
0
-2
2
11
0
2
1
0
0
-2
1
12
1
0
0
-1
0
1
-4
-16
-6
1
-3
-2
-4
-1
-3
5
-3
-4
-1
-2
2
-5
4
9
1
0
1
-3
-1
0
-6
-36
-8
0
-2
1
-4
1
0
16
5
0
0
0
1
0
8
9
3
3
1
1
-5
3
-14
-75
-15
-7
-4
-5
8
-5
-1
-2
-2
-3
0
-1
0
-3
-3
-4
-3
-5
-1
-2
-1
0
0
-5
-2
1
1
0
-2
0
4
12
3
5
0
1
-3
0
-1
-4
2
1
0
-1
2
-2
-4
-12
-2
-1
-1
-1
-1
-2
-1
-6
-1
-5
-1
-2
1
2
1
6
0
0
0
0
-3
-1
-1
-4
-2
-3
-1
-1
-2
-2
-1
11
2
1
-1
1
-2
1
-1
-4
0
1
0
0
-1
0
0
7
3
2
-1
0
-2
1
-1
1
0
0
0
-2
-2
0
0
0
-1
-2
-1
0
-3
-1
-3
-6
-3
-1
-1
-1
0
0
2
7
3
0
0
0
-2
-2
0
12
2
-1
-2
-1
0
-2
-3
-10
-4
-2
-1
-2
-1
1
0
3
1
0
-2
0
0
-2
3
12
1
-1
0
0
-2
-1
-2
-8
2
0
1
0
0
0
-1
15
-3
0
-1
-2
-1
-1
-3
-4
0
-2
0
-2
-1
-1
0
-2
-1
-1
0
-2
-2
1
3
9
3
0
-2
-4
-4
-2
-4
-19
-6
-4
-1
-2
0
1
0
-7
-1
-1
-3
-2
-1
-1
3
8
0
-2
-2
-2
-1
-4
-8
-13
-10
-4
-4
-2
-2
-2
2
9
2
0
0
-2
-1
-1
-4
-12
-2
-3
-1
-4
-2
-2
-3
-1
2
0
-2
-3
-2
0
-1
-1
2
-1
-2
0
-1
-2
-3
-6
0
-1
-3
-2
-1
-1
-3
-6
-5
0
-1
-1
-1
-1
-3
0
-1
-2
-1
-1
-2
-1
0
6
0
0
0
0
0
0
-2
1
-1
-3
-2
-2
-1
-2
-1
6
0
-1
-2
-2
-2
-1
0
-6
-2
-1
-1
0
1
-3
-3
15
-5
-1
-1
-1
-2
0
0
5
0
-2
1
1
0
-1
2
-5
2
0
0
1
-1
-1
-4
-2
3
-2
0
-2
0
-3
-4
-11
-5
-4
-1
-2
-1
0
4
-2
3
1
-1
1
1
0
1
2
-16
-8
-4
-2
-1
-1
5
6
8
6
-1
0
-1
-1
-7
-6
1
-1
0
-1
-1
-1
0
-3
5
0
-1
-1
-1
0
0
5
4
1
-2
-1
0
-1
-2
-3
-1
-4
-2
-3
-1
0
0
0
-4
2
2
3
2
0
0
2
0
-3
-1
-1
-2
2
-2
-1
3
-1
2
-1
-2
-5
3
-2
-5
0
-3
1
-1
-6
-2
-4
-3
-1
-2
-2
-1
9
1
1
-10
-3
0
1
3
-15
-1
1
5
7
3
3
0
8
1
0
-7
-1
2
7
17
-5
5
-1
5
1
1
7
2
6
27
10
-6
-4
-5
-10
-16
-12
-34
0
6
4
-1
-6
-6
6
13
1
15
7
2
7
10
-18
19
-2
-29
-3
-2
-9
-15
0
-38
3
-4
-12
-4
-5
-16
-74
7
-1
-7
6
8
-3
4
28
50
0
-4
-1
-5
10
15
72
12
-11
4
4
2
-5
68
-4
-26
-31
-4
-3
-10
-24
-64
37
49
26
-14
-12
-8
-4
6
40
-33
-50
-13
1
9
1
1
0
70
3
18
13
2
-2
-8
1
20
29
1
6
4
32
32
-39
-47
-53
-5
-9
-9
-4
-22
21
39
-2
12
5
1
-13
7
7
-37
4
-3
5
-3
15
-4
-25
7
-6
18
-44
-16
-8
-1
38
41
3
-13
31
21
32
44
-86
-2
19
43
17
-12
-3
-27
-58
-85
14
-37
-28
0
-2
-44
21
49
-20
-11
16
7
8
23
23
53
-4
11
-54
-19
-2
6
-41
49
-19
2
23
4
-21
-7
27
62
-10
-13
11
1
-7
11
28
47
8
6
-19
1
4
6
-28
62
-18
17
1
0
-14
-49
27
87
-1
-11
13
-5
27
29
-33
57
0
0
-41
-6
-25
-61
14
90
-11
-3
35
10
9
58
53
125
-5
4
-24
4
-13
46
11
111
19
32
9
-21
-26
-57
-1
25
-10
-18
16
18
24
21
4
-48
9
16
3
15
-3
10
1
-100
22
-4
0
-20
13
5
-31
-128
7
-17
-18
9
41
96
46
-72
27
22
-24
-50
-20
-44
6
-94
38
-24
-5
14
-39
-17
-2
-106
8
17
51
20
6
17
35
-78
26
-52
-30
-10
-37
31
-7
-66
6
3
21
-6
11
11
6
-68
-10
-32
-85
-21
-8
-18
23
-36
8
24
19
18
-23
-61
9
-91
-17
31
73
41
2
11
-31
-50
-12
-17
-2
14
7
3
-5
-85
-10
14
25
-17
8
19
5
-29
13
-48
-5
-21
-9
36
-5
-44
-3
-32
-86
-18
2
-122
24
5
-8
49
10
15
-17
63
-50
8
-5
-37
65
-2
-11
-92
-38
-32
-3
-10
-25
-19
19
-4
57
51
7
18
-7
38
11
67
-3
17
16
39
18
-7
21
-36
3
30
-36
-56
-29
-16
-15
55
37
-4
3
-65
-7
-3
-4
-8
-7
5
-10
-10
-46
-10
7
-6
-45
-10
-14
8
30
-19
-32
0
-48
43
-2
0
-65
-2
12
6
-14
-14
-12
14
64
25
8
-12
-21
-17
11
11
36
46
-12
35
20
-34
5
4
-6
19
14
-61
-79
0
19
31
60
3
-9
-32
52
14
5
23
-52
-28
-6
17
-1
-24
-5
-8
-32
-32
9
-12
6
10
-4
13
27
11
22
81
-11
-20
-6
17
-21
-20
-27
-35
-64
-32
-5
31
-35
-5
9
-20
-66
2
-13
-14
29
7
4
18
38
-18
11
-38
-17
-13
-4
-16
-54
-32
-19
-17
-13
-1
14
26
85
38
-6
16
12
10
-1
26
-7
8
4
15
13
-1
14
0
27
-8
1
-13
-33
-8
-41
-48
-70
26
-9
36
17
10
42
-34
24
-32
8
-9
3
-7
-40
17
-55
26
10
-2
-16
-15
-16
-21
1
-38
-9
-26
-20
-8
-7
4
80
13
5
5
-11
-18
-3
23
41
19
-19
23
12
42
1
11
37
28
7
-42
-3
-19
-19
-39
-53
49
-12
8
-6
-10
23
19
54
24
1
14
32
33
1
50
2
7
-5
11
6
-29
18
25
20
-27
18
-4
14
12
-21
-12
-22
28
-2
-8
18
15
6
-66
26
1
3
8
-29
-23
-6
-4
-66
-15
-6
-9
-31
-5
5
-13
-10
-7
-34
-55
5
-14
-1
50
-32
-13
-3
35
-43
-2
-20
33
8
-30
6
-30
90
44
17
-45
-5
20
6
-22
10
-12
-16
-24
-20
-21
-12
17
-30
3
4
-19
-2
23
-9
-20
-29
-34
21
38
-53
50
-13
13
-33
-8
-32
-28
-5
2
3
16
14
42
6
-34
-24
-27
-3
40
73
19
16
-14
88
7
4
-6
50
28
17
25
70
-30
15
41
9
-5
20
10
-3
-11
4
-70
-50
-37
16
46
-31
-25
-1
-4
-67
-60
-36
-62
46
23
-26
11
-50
9
12
39
82
-42
3
2
92
27
0
52
-76
21
24
-11
-42
8
-19
-89
78
11
6
65
20
5
48
87
-27
-1
11
1
96
30
-16
-42
-45
29
-6
4
-63
-50
-1
8
101
57
-8
-9
-9
-6
-10
25
-19
-6
1
-26
23
11
9
20
-63
-3
-4
15
-44
-3
-2
10
30
11
-1
-12
-5
24
6
-1
-63
-20
1
12
15
-27
36
-27
9
18
-2
-19
-63
4
-40
-35
9
1
-13
-25
13
-38
9
67
14
-18
24
-6
-46
30
-55
-37
38
-8
-15
25
-3
-20
10
31
-29
-14
-12
-1
44
-33
14
34
-36
19
12
28
47
59
19
-14
20
34
9
-34
42
52
28
-25
-47
-62
17
8
18
-26
-14
15
-35
9
-3
13
-99
-66
-22
-11
-53
4
-3
-13
50
-10
-34
-22
-10
33
-20
14
12
-49
20
55
5
23
8
-72
-4
63
-15
-20
-1
-21
-13
20
9
-20
-36
-3
37
1
-2
28
-96
-3
31
-6
-2
-15
-1
-13
113
53
-4
7
-34
-11
-22
33
-26
-50
17
20
70
7
-6
-29
-83
-77
-40
-29
44
-1
4
-20
-12
80
-22
-22
-41
-9
-5
40
71
56
29
-3
66
-51
7
14
61
-25
35
17
-10
-35
5
18
-1
39
17
79
59
-6
24
-21
-100
-61
-26
-47
-61
-36
-6
-38
-25
-22
-28
-37
17
4
-12
17
-22
28
1
17
1
49
12
-20
51
13
12
-10
-7
40
-8
24
71
34
-9
-48
-43
-7
5
-17
-49
-66
18
26
-20
60
-8
23
-77
-29
-23
-1
0
-28
-13
-24
16
49
14
-36
-33
18
-5
-1
95
30
2
36
36
-9
-2
56
28
-21
2
12
-76
9
-2
6
23
8
-2
4
9
19
14
-26
-105
-60
-24
-85
24
35
-18
-64
-117
-28
-2
16
33
-24
-27
36
-27
8
20
20
-68
-22
31
25
104
83
-25
-45
69
5
4
15
73
56
55
19
5
-3
10
-9
21
-31
8
21
22
36
8
-9
-53
-58
-41
29
24
13
-8
-34
-104
-22
-1
-50
20
-4
-10
19
39
26
-1
-35
-56
-40
-4
-9
36
-3
-9
-48
-6
-37
-6
-6
-44
-23
0
61
15
-9
-1
9
10
22
-22
-43
-18
-7
-7
-46
-81
-46
-43
39
14
-42
-8
12
7
-20
40
-16
16
39
14
19
90
71
-20
-20
-55
-37
-5
3
-58
-21
18
77
18
30
11
-29
38
32
-14
-42
-38
7
-4
16
16
-18
29
24
8
26
2
8
-20
-33
-15
0
29
2
0
-19
4
-11
5
28
-52
25
-1
4
-96
-3
-9
-30
35
3
-8
8
82
17
13
24
-26
-13
7
8
14
12
31
-5
6
3
-17
0
-10
-2
-13
-57
-9
-52
5
6
-29
-32
-10
-5
17
-10
-5
-43
-12
11
8
10
-28
-21
-12
-32
-43
-7
5
12
37
51
1
14
48
37
8
-13
-23
-35
2
51
127
44
20
31
-20
2
1
-9
19
24
-4
-59
10
-10
6
16
-47
-24
32
72
-4
-2
7
-10
-42
-48
-36
28
-2
2
-5
-7
-58
-22
11
-28
-3
8
-4
-4
-28
-7
9
36
-30
-16
-4
18
4
24
-11
-51
13
-18
-8
2
-5
-10
2
23
-6
7
1
2
62
13
17
3
-1
-13
15
4
-41
-3
-14
32
14
16
-9
-17
-37
-3
-58
-25
4
-2
0
14
96
20
28
-17
-13
25
6
19
28
0
1
31
15
-29
3
-23
-126
-52
33
10
7
-32
-4
-49
-59
-55
-39
-54
-17
30
-7
33
92
107
4
14
16
13
8
66
87
70
39
22
14
-1
18
17
-80
-32
-43
-48
-41
-2
10
7
-80
-43
42
20
-5
3
-11
-49
-102
-55
25
30
44
25
-4
-35
8
12
-6
-31
-38
3
12
43
97
15
-84
-7
0
1
-11
-34
12
-4
-8
-19
-17
-12
1
0
-17
-24
0
41
-2
32
-10
-41
-79
-12
-5
-5
27
-6
-4
21
3
3
19
4
-45
-35
-2
-33
77
40
2
-29
-17
-22
8
-18
-20
-10
-17
-30
27
-15
-9
23
-79
-47
8
38
6
-33
-20
-34
52
46
-17
-17
41
53
3
12
101
59
36
-5
-2
-6
14
55
89
8
8
1
26
-14
5
5
-80
-62
-32
-2
-79
-35
-8
-13
-66
-44
51
21
78
3
-4
-8
8
29
-38
4
-7
-2
6
-38
-22
7
15
-27
2
26
-11
-14
52
-18
-24
22
-37
7
1
-24
-106
-37
27
-79
6
6
-8
40
66
42
4
5
67
36
-9
-36
-62
12
-37
3
-44
-8
8
32
127
60
25
-1
56
38
7
-3
72
-27
-16
48
5
12
2
13
-128
-33
21
14
30
3
3
-29
32
20
-16
4
-42
12
-6
-12
-43
-16
-9
-16
7
8
-10
-24
-75
-32
-1
24
4
1
1
-11
-18
19
-11
0
-33
-33
-14
2
55
7
16
-19
40
-12
-2
-8
-102
33
1
-1
-20
2
3
64
127
66
-25
-18
46
48
18
37
71
16
81
37
-48
-70
9
2
-74
-31
-45
-50
-3
2
-3
-38
-77
-69
19
14
-41
4
-8
-3
2
-38
-61
-11
-9
25
-16
-115
-128
-38
30
-4
54
76
-5
110
127
111
32
24
-23
-32
2
48
78
22
6
-12
7
-52
4
29
-86
-9
-8
47
-18
-50
10
-24
-15
-35
-19
-28
6
-5
-8
-69
-128
-99
-13
-17
10
28
-16
-50
-107
-51
-18
-9
12
42
-6
82
127
127
33
56
-12
5
14
35
93
23
-23
-51
-12
-4
9
-30
-99
-50
16
-17
9
13
-6
8
80
-28
11
12
29
34
-4
2
-128
5
4
3
-30
-58
-10
15
96
26
-19
-7
15
10
8
-4
-6
-34
25
15
-13
-36
0
-4
13
66
8
-15
3
-26
4
-2
-30
-33
-3
8
17
8
2
48
1
-25
17
6
-14
-28
-4
-24
-2
-37
-9
6
2
6
-7
-104
-93
-27
-9
1
13
4
-14
64
103
97
1
-14
-16
-19
2
20
46
31
8
9
-5
-10
11
29
-50
-65
-20
1
-16
-7
9
-12
-15
16
-8
11
4
-4
-4
-49
-6
-57
-23
-14
-2
21
-10
-43
-128
-50
-1
-4
21
32
-21
26
31
63
-25
30
-16
-11
3
47
97
49
5
-28
-16
-28
5
-37
-35
-65
8
-34
-4
-24
-3
-17
-82
4
-6
14
10
-9
-8
-5
36
9
-28
16
-28
-38
8
17
10
4
34
-18
18
-1
6
2
31
-20
4
20
20
-16
-9
0
-103
-42
-47
13
-74
-17
-5
-14
41
77
1
-42
13
-53
0
6
109
44
18
-8
-13
-55
8
9
8
-51
-21
-2
9
-37
-2
-41
-121
-28
3
8
2
-32
-5
3
-5
-46
22
-20
10
22
1
12
-24
32
-48
12
-26
30
-5
-19
-18
11
4
13
4
63
2
36
53
17
6
-32
31
24
2
7
50
9
2
30
-10
13
7
16
64
-3
-4
1
18
21
-5
-45
-117
-14
-16
6
-17
4
-1
-2
8
2
51
13
20
42
4
6
79
9
-13
0
-48
24
-8
7
-34
-24
10
1
1
-31
2
-6
23
19
-10
-10
-1
10
-6
-2
11
3
4
4
-25
-8
-1
-22
-74
-19
27
-18
12
-15
-9
-33
-43
-45
-25
2
-9
38
-12
1
-91
-1
-22
-1
0
24
-4
31
118
49
28
-4
32
19
15
63
57
46
15
19
52
54
4
-23
-100
-32
-30
12
-12
31
8
-30
48
-6
-14
1
0
21
-4
22
-56
-40
-9
19
-3
29
-6
-5
26
16
19
-38
-13
11
0
3
5
15
31
-6
10
10
-5
-19
-47
-2
31
7
-21
-8
3
4
58
6
-34
9
-4
2
-10
-13
-80
-45
-25
19
-23
-20
-7
-22
106
53
1
-15
38
7
8
27
26
8
37
9
-17
-31
-1
-43
-64
-44
-23
-1
8
16
1
-9
-96
-38
-4
-9
11
-17
-13
-40
-90
-29
-11
-16
-9
16
-3
63
127
86
51
-4
26
-6
1
-24
-67
9
-54
-30
-56
-36
9
4
-21
-47
14
6
1
14
6
24
54
55
16
24
-27
-20
2
-13
13
-18
-10
-15
21
20
-9
0
5
-27
-16
11
1
-21
-8
-28
-29
13
14
20
-21
9
-1
31
-68
-16
-1
-12
-8
-40
-3
-3
96
16
17
2
-11
-2
2
20
-37
14
2
-10
5
0
-9
-30
10
6
-52
-4
8
-9
6
35
3
-4
16
4
27
33
5
25
3
24
2
19
-21
-29
-5
-35
56
-12
-13
0
-20
-43
-2
-40
-71
-23
13
7
16
-1
-8
-1
-36
-21
6
-6
14
11
-5
33
-9
3
-26
-28
-10
-37
8
38
34
-3
5
-23
15
0
-6
-32
-21
14
-10
0
-53
0
2
-46
-64
-47
-4
-5
-13
-7
-17
-21
-22
-4
-21
18
11
30
9
72
127
107
49
18
8
24
16
37
22
-30
6
-23
18
-18
-5
12
-53
-47
-34
4
16
12
2
-36
56
64
21
-7
-24
-4
-1
-5
-37
-48
-5
-12
-11
4
0
15
44
16
23
13
27
-23
5
-27
-78
-29
-44
-18
-20
-4
-14
-19
-80
-67
-24
9
44
2
-8
-9
-53
27
4
-23
5
-16
1
28
127
45
-4
-21
-8
10
9
25
64
2
12
6
-1
-10
1
-69
-96
-56
-5
-5
57
42
-5
10
-18
27
-2
42
-68
-42
-10
37
56
12
16
10
-4
6
-1
28
82
28
29
6
-27
-28
9
14
-39
-13
-1
0
8
-12
3
-67
-65
-52
-15
-36
20
21
-8
-4
-11
-13
-10
23
30
-2
-5
-4
-60
-1
8
-6
-54
-4
-4
10
79
27
-1
7
-45
8
-5
-7
-50
-39
-12
23
38
22
10
-3
67
52
38
-41
-35
-17
2
-20
-27
8
8
19
1
8
-1
22
9
-7
-4
-7
20
-13
1
55
83
-24
11
31
98
-22
13
-16
0
17
-34
-11
29
29
-5
-2
-67
-30
-2
21
-3
6
0
-10
-108
13
4
-57
-23
14
-11
-45
121
29
-19
9
-14
-7
-1
45
26
10
-10
32
-12
-33
10
21
35
11
14
-34
9
-16
1
-16
-77
-43
-5
3
-6
-3
-7
-28
-65
-39
-14
-19
2
0
-20
-20
-46
7
10
20
39
40
-3
6
6
34
-13
6
6
-4
1
13
115
8
22
-39
4
25
15
15
18
7
5
-11
-1
13
-2
-19
-123
-45
-19
6
-18
23
-7
27
102
19
49
33
14
-12
13
-67
-36
7
-25
-18
-1
-5
5
22
87
25
6
-7
-23
9
0
59
29
4
-13
12
-2
-48
-4
-38
-69
-15
-33
-8
44
16
-20
19
-68
17
17
14
-26
-29
0
-7
60
44
18
-8
-23
-7
7
-3
-12
-7
33
-3
-17
-7
0
20
61
-9
-66
-4
7
8
2
11
-60
-44
50
11
-19
-34
-12
-40
-72
25
-35
8
-5
-2
-5
-32
-12
-30
-38
-42
8
-23
-6
1
76
-2
73
3
19
17
4
-3
-52
-14
-47
21
3
0
-4
19
-5
51
15
8
17
24
-1
17
97
16
5
-5
15
10
10
-27
-22
1
-25
14
-39
-5
-1
21
-11
-35
0
-18
-1
17
-2
-17
-108
-60
22
-2
3
4
-7
-53
0
30
-19
-1
-4
-6
-4
46
84
12
19
40
1
1
9
6
18
10
-24
35
-1
-23
2
12
21
7
31
22
-9
19
1
-17
-127
-34
-51
-36
-10
-44
-2
-10
67
26
92
3
-3
11
8
37
90
16
-29
-17
-7
13
5
-8
-100
-25
0
-2
6
-45
-9
-22
26
-43
1
30
20
23
-1
1
-107
21
-11
-31
37
4
-6
-42
81
23
11
-7
-13
-42
14
64
95
11
-12
-7
-4
-15
-4
11
-29
-37
-14
16
-8
-3
-10
-56
-118
-55
-1
-40
-4
-6
1
-23
94
89
26
-4
-67
-12
-3
65
51
1
-11
12
62
22
13
4
-81
-4
12
0
-13
-7
4
-61
3
-31
-54
-23
31
23
-1
17
-73
-27
39
25
9
10
-13
-57
-75
-24
-7
-12
-6
9
-4
69
127
122
23
20
-11
19
7
-9
17
24
-19
-23
13
-14
5
20
-13
-55
-12
7
-2
26
4
-29
-88
-52
-28
-29
-24
-10
-18
-76
-128
-44
-19
-27
62
29
-7
58
97
63
14
18
1
-29
3
35
102
29
22
17
23
-19
6
40
10
-35
0
14
19
8
-1
-22
-47
-24
31
22
-10
9
-2
-34
66
47
-11
-22
-39
-2
-2
57
-34
-18
-4
1
13
-1
-3
2
46
22
-3
-2
2
-27
3
8
29
-10
-20
-13
-13
1
-2
3
-67
-21
-14
18
-16
11
-9
-39
-128
-33
1
7
50
12
-7
-58
-3
8
-7
-23
-45
-27
1
2
115
85
9
16
20
2
14
24
1
-14
-28
-12
-10
-8
5
10
65
-7
-15
-2
38
15
2
28
-38
-15
-5
26
-13
16
9
-14
-19
-22
48
13
9
-42
-2
19
-31
-8
-5
14
21
-21
-6
-21
-27
-6
-29
5
2
7
5
-42
-13
-1
-9
3
14
-22
0
16
4
-37
-4
-3
-20
18
-6
-33
-11
41
-2
18
1
16
7
36
32
4
-5
-13
-12
-3
-3
9
31
4
5
-3
-6
-9
0
11
14
-23
-4
8
-15
23
-3
7
-106
-52
5
-13
33
5
-6
-3
97
53
-10
12
28
8
1
23
22
17
24
-6
-20
20
7
-14
-40
-14
-12
-30
-5
7
0
1
-15
-30
-6
21
-31
26
-17
-39
-113
-27
-14
-28
34
32
-1
-30
66
30
-5
-39
4
-5
-1
24
23
14
57
21
-7
-9
2
14
27
4
-35
-8
-26
2
1
-1
-16
-13
2
15
-8
0
-9
-6
-73
-12
8
-18
28
2
-5
-8
13
9
-27
32
-17
7
-5
-37
72
7
10
-25
8
-17
5
-7
-46
-23
-4
0
-18
-7
-8
2
-18
-18
3
33
3
25
-1
-40
6
3
-6
-16
22
44
2
79
46
16
6
8
-21
-27
2
-1
28
7
-1
-28
36
2
10
-12
-18
-12
-9
37
-46
-11
-9
22
-23
9
8
-30
22
-6
-9
-13
-18
-3
23
25
10
5
-1
-38
-16
4
-15
8
-36
-17
2
27
-38
-12
3
-8
-13
-19
-9
-14
-11
25
-55
-12
-9
-30
-9
-13
-15
22
42
36
9
-19
12
50
80
5
13
-3
-13
-50
-5
-13
-22
-22
12
-15
34
4
-1
-28
7
27
-10
0
-51
-2
2
4
24
-11
-16
-26
-29
-53
-7
22
8
5
9
-10
29
27
7
-20
1
7
-29
-5
-5
-16
2
11
-24
-27
23
-2
-4
5
2
11
2
-7
0
7
17
28
-9
-38
-6
-5
-10
-17
-24
21
-3
-3
-37
-20
-7
8
-14
-5
-6
-16
-62
-27
16
-1
32
5
-1
4
75
12
7
25
15
26
8
25
27
-10
-35
6
-18
-11
-2
2
-36
15
48
-4
-34
8
3
46
33
-16
-70
-63
-55
-28
0
-51
16
10
5
-1
2
-8
0
-1
-30
-21
11
16
-16
-4
-3
7
-30
-38
-10
11
11
6
-5
-19
11
38
33
12
8
-17
-4
43
27
-1
-23
-18
-25
5
2
-14
-3
13
9
17
-3
-23
1
-10
16
1
-4
-6
28
-14
0
3
-11
-23
0
24
-5
-25
7
-9
-33
-7
-20
-37
1
-2
-4
-12
-28
5
-9
2
18
14
-3
9
17
17
26
-9
-26
-12
2
14
37
1
-5
22
24
6
2
16
-27
3
19
-27
-14
-17
-5
-21
-22
-12
15
8
-9
0
-3
-18
26
15
-21
-10
4
-6
-2
9
16
4
8
10
5
-4
7
12
-29
-11
-8
4
-2
-17
-12
-23
-21
-3
8
-6
-26
-20
-1
7
41
20
5
3
40
7
3
4
-8
-6
1
8
11
9
-3
-8
-27
-7
-18
-2
-21
-19
5
-31
6
3
-6
-3
-6
-9
2
37
40
18
11
-9
3
2
1
2
-1
5
2
-16
1
-18
-2
-2
-27
0
-4
19
0
-2
-6
-9
-21
13
0
6
-10
-14
0
13
21
21
-6
-8
-21
-4
5
-1
6
22
-1
-27
-1
6
-2
0
-5
-1
-15
-2
-2
6
-13
-2
-8
-9
25
-3
5
-3
-3
-5
-7
-14
-16
5
2
0
3
5
-2
-17
4
7
-1
-4
-11
-14
-3
-11
7
0
6
-4
7
9
-7
-24
2
-8
2
2
0
3
19
-8
-20
-9
-9
-1
-3
-3
0
-15
0
-2
-5
-1
1
0
-11
-13
12
-2
10
5
2
2
-2
-5
-8
-1
-8
-2
-4
-12
0
-10
9
8
6
-10
3
-2
-5
-9
-5
-1
-2
-45
5
-17
-5
-12
-15
-7
-2
-48
-2
23
8
1
-4
-11
2
-40
-2
-14
-5
-2
0
2
-10
-79
-2
2
-5
-10
-9
5
-1
-89
1
-1
-1
0
2
-18
6
-42
-2
-4
5
5
12
5
-9
-33
15
2
5
2
-8
-5
5
32
-17
2
-6
1
8
9
1
43
-4
4
-5
-4
-7
8
-4
39
-1
-5
-6
3
13
-3
3
58
2
-14
-4
-1
-4
-3
3
51
3
0
4
-3
-4
2
2
54
-4
-3
-17
-9
2
1
2
48
3
10
28
17
-8
2
4
36
-3
-1
2
-11
27
7
-11
27
3
-11
-11
9
-32
-9
-11
27
-5
6
9
0
25
0
8
25
-4
0
-22
-13
-22
3
-16
10
3
0
20
7
-17
-19
0
11
-7
1
11
8
16
-2
-2
15
-11
-14
-9
-4
1
-2
3
6
-1
11
-2
-1
3
10
6
2
-7
0
-6
-2
-3
6
-4
5
-2
-4
-12
-9
4
-7
2
5
2
-5
0
9
-2
11
1
1
5
-3
2
-2
2
-14
7
0
7
-6
-10
-3
-4
-14
-16
3
-6
12
-3
-6
0
14
2
1
17
1
5
10
-5
-4
-4
1
-1
-14
-8
-3
-4
-4
24
1
7
7
-2
-14
-4
5
-22
-1
-13
-5
12
32
-1
-11
10
1
11
6
-2
-11
-3
14
8
1
1
5
9
1
-11
1
1
-1
3
6
12
6
7
-9
10
-1
-19
-7
-3
-11
9
23
-18
1
-15
-10
-10
-3
-20
-6
-1
1
0
-5
-13
3
0
-3
20
-1
-5
-2
-10
-2
0
26
-25
-1
-33
3
4
-6
0
-33
-1
1
-14
4
4
7
10
-1
-12
-1
-23
-13
-4
-8
-1
3
-27
-1
-11
3
-1
6
-3
-21
-19
0
14
-5
1
-4
-14
-9
24
0
-7
9
-6
-2
6
7
-2
-1
2
5
6
0
0
-15
10
-1
9
-6
-1
2
-7
-4
12
0
35
-1
-1
-3
10
19
-14
0
48
3
0
7
-4
-7
-6
-1
9
-1
8
-1
-2
12
46
26
6
3
-5
6
-2
30
-23
35
16
-9
-6
-6
1
-35
-12
45
23
0
5
-6
3
-15
-15
36
-1
1
-21
2
1
-5
5
40
-12
0
5
-2
-4
5
5
30
-1
-5
14
-2
10
3
-7
17
-13
8
-2
4
-10
9
-10
7
-19
0
3
2
8
-15
28
11
-6
10
-5
-2
3
-2
25
-17
-70
-16
-13
-1
-7
10
-4
1
-4
-6
9
1
4
-12
8
-4
-24
-2
-2
-4
-2
4
-29
-14
13
-7
-6
2
-1
6
26
-5
36
12
5
2
12
-4
-14
-14
-14
1
-1
-6
-4
-5
-1
-12
0
-1
0
-1
-12
-2
-22
-10
2
-8
0
0
0
6
-2
-7
18
6
-1
-3
-1
12
7
-14
-13
-6
-4
-1
4
-4
9
-2
14
2
5
2
3
-6
-24
-11
1
-2
-3
0
-2
8
-5
-17
-11
5
-4
-2
-5
-2
8
-16
5
-5
-4
0
-2
10
12
-2
17
4
6
-1
-20
1
-21
-10
-17
-2
-3
4
17
-17
-9
0
-3
-5
-3
-1
6
9
37
3
-6
0
2
-1
-1
5
-1
1
11
0
1
1
-1
-3
-18
-2
-2
-5
-3
0
-8
-3
31
2
24
7
-2
1
2
5
-43
-9
-20
-7
-1
-2
-4
-20
0
-4
-1
-8
0
0
4
1
-3
-5
0
2
1
-2
-7
-1
8
-1
1
-3
-1
0
4
-1
-1
-2
11
9
-1
-2
-5
-1
5
0
0
1
0
3
6
6
-8
-4
-4
-9
-1
1
1
-5
13
-7
-5
-10
4
0
-3
-14
-5
-3
3
6
-1
-3
-3
19
1
-2
4
11
-3
-2
4
3
-5
-10
-7
-12
0
0
0
-9
1
1
11
4
-4
0
-3
3
2
-4
0
-2
3
0
5
-2
-17
-8
-8
4
-4
-2
0
3
40
3
-8
0
-1
-2
-2
0
-30
-5
-9
-2
0
4
1
-7
4
-2
16
6
0
0
-1
1
-1
-7
-5
-4
-2
-3
0
4
-6
-3
-2
-2
-1
0
-2
-9
6
-2
-7
-1
-3
-4
-3
6
5
4
9
9
2
0
0
1
-4
-9
-10
-7
-3
-2
2
-5
-6
-8
-8
-2
-3
-1
-4
5
-5
-1
13
4
-1
-2
0
0
12
-1
-4
-3
1
1
-3
-2
-4
-4
0
-5
0
-1
3
-5
27
-6
-1
8
-3
-4
-4
5
-33
-6
3
7
-1
-2
-1
7
-4
-1
-29
-3
0
-2
-3
-21
3
1
6
-2
3
0
1
1
-9
-5
12
8
-6
-2
-1
-4
4
-4
-11
-7
1
-1
-2
0
1
0
1
3
0
-1
2
-1
1
-2
11
0
-3
-1
-2
0
-15
2
-7
-5
2
-1
0
-7
17
-1
22
3
-3
-2
-1
4
-12
-7
-9
-9
-3
-2
-1
-1
1
-1
-6
-5
-1
0
-1
3
-2
0
5
-1
-1
-1
-1
-3
6
-3
-9
-2
2
3
-3
0
3
0
-6
-2
3
0
-1
2
-4
1
8
5
-2
0
1
1
-7
0
7
1
-3
-1
0
-6
-2
-2
-4
-3
-2
-4
-1
-9
4
-1
-9
-5
-1
1
-2
6
3
-3
-17
-5
0
0
-1
-6
-8
1
-8
-6
1
-2
-3
-2
4
1
6
4
2
-1
0
-1
-1
-4
0
0
-4
-2
-2
-3
0
2
-12
-9
-3
-1
-2
-5
-4
0
6
-1
2
0
-1
3
4
2
7
-2
-3
-3
1
4
-1
-3
-8
0
1
0
0
-1
3
2
8
0
3
0
0
-3
-5
-5
-12
-5
-1
0
-1
-4
-4
2
-5
6
-3
-3
-5
0
-13
-5
12
0
-5
1
3
3
14
0
6
-1
1
0
1
-3
2
0
-17
-1
-1
1
0
2
-4
-4
2
-6
2
-1
-1
1
9
2
-5
-4
-3
-3
-2
1
-7
-3
4
4
0
-2
0
2
1
-1
8
1
1
-1
1
-4
4
2
-6
-2
-2
-1
-1
1
-5
-2
-5
-3
0
-1
-3
-3
0
0
2
3
3
2
2
3
-2
-2
5
-5
-3
-1
1
-2
-6
-1
-17
-1
0
-1
-3
3
2
-1
10
-1
1
-1
-1
2
-6
-8
-4
-5
-3
-6
-1
1
-6
-8
-25
-2
-1
2
2
-2
1
-2
2
-2
-1
1
-3
-2
-2
1
1
0
-2
-2
-2
-2
-1
-1
-8
2
2
-1
-5
0
-2
-5
3
-4
-6
0
9
1
1
-2
1
-2
0
-2
-2
-4
0
-4
-8
1
4
-3
-5
-5
-2
3
10
0
-1
2
4
-1
0
-1
1
2
0
-2
-4
-1
-2
-1
-2
-3
0
3
-1
-2
0
3
-1
6
-3
-2
-2
3
-2
-8
-7
-8
-3
-3
-5
-2
-1
-2
4
3
-4
-2
1
0
1
4
1
-4
-7
-4
2
-1
1
-4
-3
-4
3
7
1
1
-1
-2
3
0
9
0
4
1
-1
0
0
0
1
3
-4
-3
-3
-8
2
1
3
1
-3
-1
0
-1
-9
-6
-9
-7
-2
-1
0
-1
6
-1
-9
-6
-3
-1
0
0
-16
-3
-3
-4
-7
1
-1
2
3
1
-1
-1
-3
-2
-3
-4
1
1
2
4
0
-3
0
2
-6
2
1
3
3
1
-1
1
2
-3
4
-1
-1
-1
1
-2
-1
0
0
-3
-5
-1
0
-2
-2
6
0
-4
-2
-1
-3
3
2
10
-2
-1
-3
-1
-2
4
7
-5
1
-1
0
0
-1
-7
-6
-13
-5
0
0
-3
-1
0
5
3
3
-2
1
0
1
3
-7
7
-2
1
-3
1
-2
-4
1
7
8
1
-2
1
1
-1
0
5
0
3
5
0
1
1
-2
-8
0
-3
1
0
-3
-2
0
-5
-6
-3
-3
-2
1
1
0
-1
-1
0
-2
-1
-1
1
-1
2
4
0
3
-1
-2
-1
0
-1
-3
0
-3
-2
-1
0
-2
-1
-3
-3
3
-1
-1
-4
-2
-5
-3
-1
0
-4
-1
0
-3
0
2
1
-5
-1
0
1
5
-2
-4
-2
-1
1
-2
-6
0
-2
-1
-1
-1
-1
-4
-2
-7
-7
0
-3
-2
-1
-2
-1
-3
3
-2
-1
0
-1
3
-3
-3
4
3
2
0
0
-4
-4
0
-2
0
-1
-4
0
4
-1
4
-6
0
0
1
1
-2
-3
-4
-1
-5
-4
-3
0
0
1
2
-3
-1
1
2
0
1
1
1
2
3
-2
-2
0
1
3
8
5
-1
1
2
0
-3
-2
-13
-3
-2
-2
-3
-1
-1
2
5
-2
0
-2
2
0
0
-3
-4
-3
-2
1
0
-2
0
4
1
1
-2
-1
-1
-1
-1
-7
2
-4
-2
-3
-1
-2
-5
-4
0
0
-1
0
-1
-2
1
-1
-4
-7
-3
-2
3
-3
-1
9
5
-2
0
-1
-1
1
0
-6
3
4
0
-1
1
-1
-3
-5
-7
-5
-4
-2
-3
-2
0
2
5
1
7
2
1
0
-3
-3
-1
-1
-1
-4
-4
-2
3
2
0
3
-3
-1
1
0
-2
3
-1
-8
-1
0
-2
0
1
-6
-5
1
-4
-1
-2
-2
4
-2
-3
2
-2
-1
0
-1
-9
-1
-2
0
0
1
1
-1
5
-1
2
-2
1
-1
1
-1
4
2
-1
-3
-2
-1
-3
-2
1
-6
-2
1
2
0
0
-1
-7
-3
2
1
-1
-4
-2
-3
-4
2
-2
2
1
1
2
1
1
7
-2
-2
-1
2
2
2
3
1
2
1
-2
-3
-6
-1
2
5
0
-1
-1
0
1
0
-1
0
-19
1
-2
0
-2
0
1
-2
-10
-2
0
-2
-2
0
-7
0
3
3
-4
-1
0
2
-5
-4
0
-2
0
1
1
-2
7
2
5
4
3
-3
2
4
-1
1
3
2
0
0
2
0
-12
1
-4
-6
-1
-2
-5
-3
-13
-6
3
-4
1
-2
-5
-6
1
-1
2
1
-2
1
2
1
15
12
2
4
-1
-3
-1
1
-7
2
-7
-2
2
0
1
2
2
-4
4
-11
-2
2
0
-1
-7
-13
-14
-5
-6
-3
-8
-8
-15
-11
0
-4
-1
1
2
3
-16
-4
-2
3
-2
-3
-2
2
29
27
1
7
4
2
4
-4
-37
-26
2
1
1
0
-2
6
23
10
3
-2
-3
-3
-1
-8
-12
-5
0
-10
-14
-7
-4
1
-37
-24
-2
1
3
-2
-3
-1
5
-17
-10
-12
-7
-1
-7
-7
-15
12
-10
-4
8
2
-4
6
11
-7
0
6
5
-15
11
7
54
28
1
-13
-45
-5
-1
6
-7
-5
13
3
9
-1
-5
-32
5
4
-26
2
30
22
11
26
51
8
1
5
20
10
-9
-9
-60
-13
0
-4
18
-5
-8
-20
57
-4
6
-2
-29
-12
10
25
-25
15
6
5
-35
-14
-3
-9
15
13
-3
2
17
12
-3
-9
-15
-7
-5
-3
21
8
10
14
-9
-20
4
15
4
4
2
-4
-12
-3
4
-10
11
-10
-9
-38
16
14
-6
8
-25
-5
2
29
32
18
-3
-15
-7
-1
-3
-5
-11
39
-1
-18
-4
-6
-22
-26
28
18
3
17
-8
1
5
44
-32
-5
1
-20
-13
-2
-5
-44
19
9
-5
-10
0
0
-13
-4
-33
-6
-2
-23
-11
-7
4
-31
-47
58
5
27
-6
3
0
-8
-17
35
-3
-24
10
4
4
27
12
61
1
42
1
0
-1
4
19
65
-6
-8
-5
-4
2
28
2
59
-2
-41
-10
-6
-9
-28
-35
54
-1
2
-9
-2
10
-4
-13
9
3
-24
-1
-2
12
14
-41
60
2
-3
-9
-4
-7
12
-12
-4
11
45
9
5
-4
-7
70
-35
-1
9
13
0
-3
0
35
-61
4
-7
-4
1
5
-28
-3
-47
-2
8
4
9
6
12
-13
-40
4
-11
-4
4
8
22
-17
-89
8
60
5
1
-7
-32
-1
-47
-16
-43
4
-6
-16
24
59
8
-6
-15
-11
1
14
22
-8
-89
11
-4
-18
-17
18
16
50
89
1
1
-18
3
-31
-25
-41
-94
-23
-24
25
8
13
-16
-36
3
20
23
22
2
-10
-5
45
23
-18
0
-5
-9
0
12
-49
37
11
7
45
23
56
31
7
85
-3
27
-22
-1
-27
3
27
-73
-7
2
1
-7
12
45
-17
-92
6
-21
-22
-12
-39
-74
-6
-52
0
-18
-19
-28
-4
32
15
-50
11
13
-26
15
-17
-20
-8
-23
-11
40
21
0
3
-18
38
-18
-2
-48
17
6
21
9
47
14
-29
-10
-64
-37
-46
-2
-51
-7
2
33
47
6
15
-28
20
124
2
-30
-19
18
-6
-12
-20
80
7
40
20
12
22
9
-23
-84
-5
-23
23
10
1
-10
38
91
-5
26
-28
0
-13
41
-13
-64
-19
-29
15
5
38
-14
2
11
10
5
2
-9
12
-6
11
0
-16
20
-49
-20
-10
24
-30
-18
8
3
41
-25
-38
-37
-11
-69
1
-32
-34
-8
-25
1
19
-30
-17
21
-9
6
12
25
-15
-43
9
-12
33
25
12
-48
27
-24
-6
11
2
4
28
15
2
-66
20
22
20
3
-1
-19
1
19
5
-4
-21
-33
-37
11
0
-23
-1
12
-8
17
8
13
-22
36
2
-13
-8
1
19
10
-21
-68
-6
15
18
32
6
10
15
27
0
-12
-24
-25
-7
-1
-65
-34
-3
57
99
32
28
18
-17
8
15
14
-60
-44
-23
-24
30
73
3
-32
-10
3
-9
3
-11
-83
-3
1
10
29
-9
8
-8
-2
-3
-61
35
-4
-15
-13
42
75
-1
5
-30
2
30
30
-81
-33
-4
17
-6
-18
-24
-13
48
98
-3
-40
-8
-13
14
-2
-1
-75
-3
-9
-65
-1
10
-20
32
1
10
-3
84
45
14
28
53
53
-7
10
21
27
32
3
-82
-100
-7
-39
-36
-16
-39
-33
-9
79
2
29
-7
-37
-30
-17
-10
-19
3
-20
-23
-5
1
37
93
69
-8
-17
-36
-9
8
13
-24
-4
-3
12
62
2
0
-9
0
47
5
49
-6
0
-8
12
-13
3
-4
-5
-78
-50
-3
-13
31
34
-15
-33
40
-32
-1
27
-7
-4
3
-4
23
38
-17
-15
18
42
5
1
13
23
41
8
25
12
-4
-1
47
-39
-4
-26
-59
-28
8
25
-87
-23
-51
-19
7
70
-6
15
48
-9
23
6
28
59
0
-23
8
-9
9
24
17
49
2
-6
-42
-2
6
6
-11
12
-2
10
-39
-72
28
-24
6
-30
-9
3
1
-15
6
28
10
20
-10
-26
-30
42
10
-11
-40
-83
2
24
81
31
-3
5
-27
-80
10
44
4
-17
-40
-10
-1
3
-2
5
-19
14
20
26
11
27
4
-26
43
9
6
-12
-41
-23
-6
-26
-76
-7
-22
-20
5
62
-7
7
24
52
1
17
25
-7
6
63
62
22
11
-7
14
-26
-4
-42
-100
-53
-18
14
-1
-33
-9
-24
4
94
14
4
-20
-4
0
34
119
33
34
5
-7
18
0
-19
-64
-44
-49
5
-40
-65
11
20
31
7
-1
-11
0
37
-9
-50
-78
-56
-7
-1
8
-62
-4
7
16
-8
-5
-45
3
-16
-3
-41
8
59
58
34
1
51
6
5
15
-7
-23
-30
4
-6
5
42
16
-8
14
22
-33
82
-2
-36
-60
-8
5
8
-17
-111
-6
-10
-18
-26
-36
-34
16
16
-3
-22
-21
-24
-11
-15
-17
20
-3
20
6
50
26
9
26
32
3
25
55
18
-6
30
8
11
8
14
-24
-13
-32
-50
-27
3
3
26
37
23
-4
-4
4
-5
-2
-2
10
-30
-8
5
-16
-40
2
-21
-18
34
5
-41
0
11
0
-10
-36
-5
2
17
29
9
-4
21
41
25
1
7
-25
-37
2
1
21
3
-14
-24
-19
-23
-4
-16
-25
-4
-11
13
27
82
-2
-13
-42
-22
5
14
22
24
-11
5
-47
-35
-9
-14
-1
-2
-4
6
37
28
-3
-23
14
20
-1
-48
2
16
4
47
-43
-48
7
41
120
48
-19
-60
21
32
4
5
5
-20
10
38
23
36
6
6
-54
13
-2
-1
10
41
-4
7
13
-8
-16
7
10
2
-12
-23
-90
11
-17
-10
6
43
-4
-49
-61
6
57
20
-15
-45
-5
-4
81
-1
-5
3
-1
-17
10
43
56
1
3
12
8
62
0
5
16
2
-2
-6
3
-70
5
-20
-22
-40
-34
-24
-3
7
2
-64
-128
-77
4
54
-29
-3
-11
45
77
24
32
-36
-29
-73
12
10
117
54
12
-27
24
41
6
17
15
-13
-5
16
-47
-87
1
-6
-22
-39
11
-26
35
20
0
-8
-80
-26
-21
13
-80
0
-12
-16
-5
-17
1
-14
-15
-29
6
14
-20
25
7
-18
15
37
-3
-6
78
25
17
14
-7
27
12
4
-15
-49
-23
-17
-3
2
-12
6
-127
-52
7
36
20
81
-13
-61
90
58
-13
-15
-13
-93
-6
35
30
17
4
-29
22
41
5
2
22
-7
21
27
92
59
2
-1
-75
-51
-4
11
-44
-116
-7
-50
-128
-27
-43
-41
21
62
-9
12
102
27
-8
-19
19
38
-2
34
85
63
34
32
60
35
16
30
-46
-27
39
12
76
-37
-4
-6
-27
18
-24
39
-23
52
2
20
41
-1
-31
-38
-46
-38
2
-72
-117
-91
-23
-65
-11
27
-10
-27
19
49
-4
-2
18
2
1
43
96
46
26
6
40
98
6
35
21
-17
16
44
-39
-28
0
-3
-60
-25
-28
9
-31
-65
-10
-28
-75
-53
-19
7
2
99
1
-16
-36
23
21
-6
-79
-103
-6
5
41
10
-6
4
57
60
8
10
3
5
-1
-52
-40
-29
1
-12
9
-5
-21
22
46
89
-1
26
-30
-26
24
17
35
84
-3
13
79
34
-4
1
-42
-99
-11
-13
-55
-7
-15
-9
-23
-11
11
-46
97
-15
-38
-14
-46
-35
-1
0
-65
-48
10
-22
125
18
-10
22
4
5
13
23
34
67
-2
70
108
113
-1
-8
59
100
4
-6
85
27
10
29
-128
-128
3
-35
-75
-52
-17
-25
-13
-48
-3
-52
-123
-76
0
-13
21
-23
-6
-37
-17
10
4
2
37
59
-3
55
-10
7
23
22
-7
-5
-2
41
127
58
-10
17
6
0
19
-6
-35
30
13
-15
-20
27
-4
-63
14
-15
-6
-4
34
60
4
36
-7
-10
29
9
-24
-37
-7
-9
-32
-30
-56
-16
-10
-44
0
-11
-50
-18
6
6
57
66
-6
-33
-90
-30
9
-8
-16
-73
-5
2
-71
-18
-2
-4
79
119
2
16
127
104
-1
49
0
-79
11
-25
54
-36
-11
-54
80
75
10
-2
-101
24
-3
52
29
28
-2
10
107
32
37
-30
1
-10
2
20
9
-38
-11
9
-45
23
1
1
-24
-3
-4
27
-31
-7
-3
5
-47
-59
-14
-10
-97
-107
1
-45
-114
-29
-30
-30
-10
26
-10
-29
-16
28
24
-26
69
121
-5
38
79
59
-4
25
-90
-36
0
29
54
6
24
-1
70
5
5
10
14
18
-36
-9
33
1
8
-18
-53
-54
10
0
-41
-74
-6
-49
-127
-58
-48
-19
-48
-73
-16
13
17
56
39
34
8
-53
1
6
82
35
-18
-71
-15
56
16
46
45
-13
31
47
-46
67
1
-4
-16
0
-43
-24
6
-126
2
-12
-33
-40
19
-1
-4
95
-12
-12
-35
9
43
58
-54
-126
2
-10
-3
3
-21
-18
42
45
2
7
23
28
46
9
1
-72
5
-7
13
-11
-26
14
-31
-120
-1
2
-22
-5
-22
-19
89
-128
-13
14
-1
0
10
13
-36
-115
9
-8
-16
2
38
16
65
21
2
-18
-30
-17
-33
-38
-80
96
-8
-27
-19
-5
6
13
9
103
-4
21
37
-22
-25
-24
59
98
-22
-34
-36
31
27
45
16
121
5
49
127
53
21
-12
95
74
-2
33
53
-10
-18
-2
-7
72
-6
-4
-34
-29
-10
-10
-118
63
0
-15
-63
-36
-24
1
-7
55
-12
-11
-50
-13
17
-1
-16
41
-11
-6
23
31
2
-10
3
27
0
-16
-19
-2
-1
26
-10
34
0
34
23
22
17
-25
66
21
4
-25
7
8
-34
16
-1
6
1
28
2
-2
46
39
-24
16
0
-10
-32
15
15
15
-13
4
4
-21
3
-6
-50
4
-60
8
0
28
23
-9
20
1
21
2
8
-13
11
2
-18
-44
-45
1
7
11
26
-18
7
17
69
5
-9
-39
-98
-80
-24
-22
-44
2
-6
-4
44
63
-7
-11
28
3
-13
-24
67
10
7
40
-2
0
5
25
37
4
-4
-38
42
-1
6
55
127
46
28
8
23
5
0
-8
-66
-62
2
11
3
-3
-13
0
-41
-5
-5
22
-7
0
1
-3
-37
-17
-23
-13
30
0
-13
-17
-46
-31
-14
17
-20
1
7
-1
-5
-12
-8
-30
-50
0
-10
-8
-54
-8
7
-8
-12
-1
-20
-34
-26
13
25
26
73
2
9
64
101
47
3
4
-25
1
-2
-1
11
-27
0
-9
21
-3
13
-3
-73
-17
-16
19
-36
1
-6
1
19
1
-10
-14
-25
-1
2
-1
29
32
-1
-38
20
0
-8
30
69
9
16
24
-42
-1
23
7
15
-21
7
-1
-78
-1
0
-36
-126
-43
-26
-37
-44
0
-14
-14
54
34
-2
-1
59
0
-4
-24
-6
-24
2
8
-18
0
5
-7
-35
20
-2
20
85
-1
13
20
85
33
22
7
-58
-1
0
18
-43
-20
-4
-22
-53
1
4
7
12
-14
-8
1
57
-1
1
1
16
16
14
23
9
-1
-9
-9
-15
8
-4
2
0
-1
6
-28
-74
-29
3
-15
0
0
-3
-7
-39
-30
-58
-22
-23
-1
-13
23
54
10
38
-13
-16
-1
4
21
85
57
24
0
38
-1
6
8
-26
-22
-2
17
-26
-1
-1
-8
-73
-3
3
-1
89
-1
-4
-29
13
-19
-37
-8
-26
-1
1
-12
-40
-10
-13
-4
-27
-1
-8
25
16
4
22
-6
48
-1
-5
-8
13
1
-26
14
35
-1
1
16
16
21
7
-4
20
-1
2
36
99
8
16
2
4
-1
3
-13
-7
36
-18
12
17
-1
-1
-13
-92
-21
17
-7
-11
-1
6
-18
9
-14
8
-13
-5
-1
-14
-29
-37
-19
1
30
10
-1
3
6
-34
3
5
-31
0
-1
4
-10
49
18
7
3
-55
-1
-7
10
-10
-13
-10
-27
29
-1
-1
-18
-46
-15
-16
-1
-50
-1
-8
6
-9
-30
2
2
51
-1
1
-5
37
57
4
24
-23
-1
-2
27
-45
8
-1
16
4
-2
-1
-5
37
-24
7
-5
-41
-1
4
-37
-18
-21
-6
7
19
-1
6
26
18
20
3
-30
-128
-1
-16
1
70
6
-7
-27
120
-1
5
28
2
15
6
4
-8
-1
-6
-19
-23
-13
-3
28
-109
-1
0
0
-6
11
19
-34
10
-1
-3
-7
-12
-5
3
29
-39
-1
-7
9
-31
-23
-2
-68
-42
-1
-10
-14
-21
-12
-38
-4
72
22
-2
7
-1
-7
-1
29
-14
110
2
6
-34
-7
3
-22
-28
-77
-3
-20
5
-3
-9
2
127
-94
20
11
40
-2
-2
2
-90
-90
-4
3
0
18
-5
23
84
-59
11
-1
86
41
-23
-72
-10
25
4
-10
-39
-49
38
3
-29
17
-4
9
-45
22
-5
5
25
8
0
11
30
35
23
28
13
5
-5
-23
7
-30
-26
-50
-2
24
0
3
-33
3
0
36
-15
10
-5
26
59
-16
-1
0
-40
25
-1
-8
-40
-26
-13
7
70
-6
-3
9
-77
-21
33
6
12
-3
-6
-41
-13
-3
-19
-12
7
14
8
33
58
52
61
8
32
12
1
42
3
-15
-36
5
4
-20
-1
-28
52
49
-34
0
-39
-2
0
53
53
-12
42
8
63
15
8
-37
-30
4
-46
21
1
4
-1
-56
-15
-23
-6
-52
-7
-17
-4
-64
-17
-31
28
-6
26
8
-3
38
-53
13
-26
16
-6
9
1
-55
23
-7
28
-33
40
-4
-10
27
-71
-31
-19
51
-15
-8
0
9
7
17
46
-11
-38
5
0
5
83
17
-84
71
47
1
-12
-16
-77
-37
74
-54
0
-2
2
-18
21
36
-71
-18
-93
-3
4
16
-16
11
63
25
26
2
2
-14
24
-14
47
32
-21
0
2
20
-5
-11
-56
-36
-20
3
-10
71
90
26
2
28
57
-3
0
-35
35
5
-23
8
-60
-2
-3
-48
-51
12
-5
-85
33
2
-8
-1
-28
-24
-3
28
14
2
1
-8
-30
-11
32
-1
-8
-5
-3
20
-12
-5
-62
-31
17
-1
-1
10
4
1
15
1
-48
3
-11
11
-49
-36
-7
3
35
0
5
-31
-13
23
-17
-9
43
-5
0
66
78
64
33
59
30
2
3
-33
-35
-35
-6
-62
-44
2
7
47
57
34
4
31
-5
-2
6
10
16
-40
49
0
-30
-2
7
11
-85
-23
-43
10
16
0
-2
-48
10
26
-9
26
-29
-1
-13
33
34
3
-14
-4
-60
-1
4
-6
-24
-28
9
-36
4
-2
-4
-3
-57
-30
-9
33
70
-1
-4
38
-27
-10
16
-20
-11
-1
1
-29
0
18
-13
9
-63
0
-14
-37
-4
-7
17
-25
-23
-2
3
46
28
10
-2
11
-4
-1
4
-53
35
32
-12
12
31
0
7
39
51
6
12
0
48
0
5
47
-12
-30
7
-21
-36
-2
-22
-22
-54
-57
-15
34
12
-2
-8
-65
-51
-1
-5
-45
47
0
-4
43
89
62
9
35
17
-1
11
7
60
40
3
-13
-20
-2
12
54
-5
-32
-21
-28
15
-1
2
-28
-62
-30
36
11
19
0
-8
-79
-128
-40
-51
-36
-63
-1
-18
-22
18
6
-2
-1
42
-1
4
-28
41
6
-4
60
-26
-1
-5
83
127
60
1
-38
-38
-1
14
23
44
10
39
-14
14
-1
-10
-53
-47
-40
7
20
30
109
-11
-2
-91
-37
-9
3
-10
124
-22
-85
-33
-21
-16
22
-29
127
0
92
-15
-14
-21
-14
-16
118
12
1
108
54
13
-14
88
-111
1
-72
20
-1
1
18
-48
-125
20
40
-84
8
-20
1
37
-128
10
-32
2
-18
19
40
125
83
-9
9
-11
-6
-11
-14
-33
118
-4
12
17
12
-5
-38
-18
127
-14
-9
-14
-15
11
10
-15
89
-12
3
-2
11
49
-57
45
-91
9
5
9
-5
-60
50
-63
-118
12
38
-9
-1
13
-24
52
-128
-1
13
-32
-19
-3
9
-2
-128
-16
-126
-51
-21
-51
1
-33
-128
-1
-10
32
26
51
16
-98
-121
10
24
59
-1
12
-23
72
-124
6
-2
-48
28
-19
2
65
-96
9
67
89
-1
41
49
-78
-88
2
-16
13
-9
-25
-42
19
-69
1
9
-8
-8
-34
8
-38
-53
5
21
-10
-16
22
-30
1
-40
-8
-44
-48
0
-29
26
83
-49
9
-22
-74
-7
-37
-9
-50
-20
-8
21
15
7
41
7
-31
-16
10
49
49
10
-24
-1
37
-14
0
-10
-3
20
47
32
-6
-20
-10
24
11
-17
27
16
55
-3
-6
-31
-49
-5
6
46
31
-3
0
-23
27
6
-25
-2
-55
-8
-4
-6
23
16
-26
-97
-17
-7
11
58
-36
-3
-4
-16
-5
0
-17
-7
37
8
5
-30
8
-7
6
30
1
9
26
72
-48
-3
5
-7
40
1
-41
-9
-5
-4
-20
-13
-48
-10
2
16
5
-1
28
18
-18
20
22
-16
45
-4
-12
-46
22
1
-8
1
-10
-1
-4
5
-7
0
-94
29
-47
-3
9
1
4
7
74
-72
-33
-2
-9
-28
-9
6
23
14
-67
-1
3
19
-12
2
-25
-18
58
-1
2
-24
-2
-5
-4
23
14
-5
0
-1
10
19
3
27
48
-1
2
-26
8
5
16
14
54
-1
-3
74
35
-25
-28
-28
26
-1
-6
-35
-23
5
45
-2
-23
-4
-2
27
-3
-13
-3
25
-43
0
-6
-37
-29
-5
18
-56
-49
0
-7
-3
-21
-11
-17
70
25
-2
3
25
15
-16
-4
7
-70
-2
-8
31
3
-4
-7
-7
50
0
-7
-17
-31
-14
-20
-3
30
-2
-4
-4
34
10
-19
-4
-53
-1
-1
-10
6
-9
54
-9
-79
-1
-3
-13
-43
-17
-55
-31
68
-1
10
-14
56
21
-39
0
-17
-1
-16
6
10
4
51
36
-16
-1
-3
-3
-58
-9
-28
-61
30
-1
-1
-21
-16
-17
16
28
-21
-1
-3
41
70
13
9
12
3
-1
13
31
6
-1
31
-35
-16
-1
-5
-31
-5
-11
-26
30
22
-2
-5
-21
-43
-18
24
-9
47
-1
-3
24
-40
-33
-54
3
-58
-1
-1
-60
25
-10
-10
-31
-3
-1
-9
52
-24
29
57
42
98
-1
14
-27
50
11
8
-38
-83
-15
-10
6
-5
-7
3
3
-18
-42
0
-14
-22
-21
-49
-32
25
-47
4
46
25
24
-9
31
-5
-23
10
33
7
5
58
-2
-8
-22
-24
-55
6
0
21
2
16
-6
4
49
2
-5
-36
-24
-11
-11
1
-22
-11
-9
-8
-13
16
15
0
27
14
22
-6
20
16
-35
-15
-8
-42
-10
-5
59
-10
24
9
5
9
-23
1
-69
29
-22
2
-17
-27
-18
-33
-56
55
35
-10
2
77
60
4
31
8
10
20
22
44
13
2
-45
43
-25
-21
7
-14
9
40
90
-26
3
3
35
4
-34
-16
-15
-3
20
-9
-100
-57
-42
-26
-23
4
-4
-1
26
-69
4
17
30
55
10
2
-3
78
50
59
14
-43
13
16
10
15
-12
26
-64
-61
-39
-10
39
-10
-27
-44
52
83
27
19
21
-44
-7
-19
-2
-53
-92
-25
22
12
2
-36
1
56
38
-2
71
8
24
30
30
22
37
4
3
6
-2
-11
13
-55
-43
6
-1
-24
-16
-2
-12
-46
26
-1
-26
-58
-20
-11
5
24
57
-4
-30
49
-7
-11
4
-43
-57
-14
-17
48
31
20
15
-18
-73
4
5
-6
6
-20
-28
-80
-8
14
21
7
-10
8
-15
2
44
-12
-46
-10
-15
-9
-1
18
-29
13
-13
-32
1
11
2
8
76
0
-36
24
3
-12
-14
-15
-9
11
-38
-19
23
41
15
-32
-26
-8
3
-6
-6
-20
14
9
47
4
28
10
-18
-16
6
15
-24
-17
-42
-12
-9
-10
-21
-29
-13
3
-2
-6
7
-3
-18
40
22
-2
-4
14
6
50
18
-26
-20
-2
-35
-32
-16
-54
-17
-3
1
0
25
32
4
12
-7
30
-9
-2
-4
-12
-27
-26
11
30
15
0
7
-26
4
34
-21
-37
-39
-3
7
18
-1
47
0
34
72
1
20
-16
-4
-32
-2
16
55
-9
-11
36
12
2
-7
-5
-84
4
25
30
32
35
7
20
37
1
-32
-10
-11
-33
-11
-8
-33
-5
-1
5
-11
-12
24
32
20
12
-22
-13
-1
19
-12
-63
-80
3
-52
-23
-2
-24
-13
10
19
-6
-25
-28
4
6
6
-8
7
-2
-17
22
1
14
-17
0
16
1
10
23
14
-8
-9
27
27
0
-26
-1
-3
-77
43
-3
-2
8
15
-11
14
80
3
-11
-18
0
-11
-13
-5
-14
-40
-11
-15
-3
21
-20
2
22
0
3
8
-1
3
35
5
-14
-16
-6
-22
0
7
14
-2
-8
-15
14
13
-6
9
-11
6
-5
20
9
1
-1
-9
-15
4
36
8
-14
-26
-6
4
-30
-1
-16
-14
0
-8
6
23
7
0
3
16
11
-31
-9
-41
31
15
-16
-1
0
-1
2
4
-13
-3
-22
-8
-12
-14
-2
6
-10
-5
34
6
15
-3
-5
10
-7
-6
-39
-22
-9
-4
3
22
-7
6
29
12
-14
-13
9
3
4
-13
-16
-10
7
-20
-8
4
-6
9
5
16
-7
-49
-2
7
3
-1
2
-6
-14
-53
-1
15
12
2
21
2
20
-73
-6
-2
-1
1
-6
0
-20
-28
21
-2
-2
10
-18
-8
1
-29
-8
-7
-4
5
-9
1
-7
-49
6
-9
-1
12
1
8
1
-8
10
-2
-3
17
10
5
8
-4
19
0
-4
8
6
-8
20
4
-16
-12
3
17
-1
-4
-10
28
-18
-8
-2
13
-8
6
-5
-1
8
2
-7
-3
-18
-6
-21
-50
-9
-16
6
-4
0
-2
2
-37
21
2
15
3
-7
-2
7
-3
-3
10
-5
-8
-11
3
-17
-47
-17
-21
-10
12
18
-3
0
-3
6
3
-1
15
11
24
17
-93
-14
-1
-1
18
-3
-9
-6
-4
-48
-9
-3
14
-1
-6
33
51
2
14
-2
17
-30
16
5
75
-18
-8
-8
19
2
-7
2
91
34
-3
-2
13
15
0
-15
80
-5
18
5
14
12
-4
15
64
-92
-30
-9
-21
-9
28
-23
57
-10
11
3
-29
2
-23
-5
58
-89
-13
-5
-37
-13
-3
14
35
14
16
6
-39
4
3
-29
39
-14
31
11
-29
17
-10
14
21
-33
-3
2
-32
-8
4
-24
22
1
-34
-15
-36
-14
-8
-8
18
48
-25
-6
-20
5
13
-28
12
127
-29
-15
-22
-10
-14
6
4
127
17
2
-17
2
8
-2
7
119
34
8
-4
9
13
10
8
127
22
12
-15
7
-1
6
4
45
-8
-3
-1
-9
-1
-19
-3
37
4
-15
-4
17
-18
34
8
13
10
20
-12
-4
-27
-10
2
-86
5
-8
-6
-13
8
2
0
-74
0
7
0
8
12
0
0
-117
-18
-13
-1
-4
2
-32
2
-70
2
-8
-1
0
6
35
0
-15
24
9
-5
1
2
-10
-1
-80
-1
2
-4
7
-20
-10
-1
-106
-20
-3
-2
-7
10
20
2
-38
7
-3
2
-3
7
3
29
-61
-20
-2
3
4
-11
-9
53
-25
21
3
4
1
1
-4
38
-32
-15
-1
0
-3
-14
5
85
-10
11
0
3
-5
8
-21
19
-54
-9
-6
4
3
-10
33
47
42
25
8
5
1
12
-13
28
-53
-16
2
1
-3
-7
8
15
-4
-16
-5
1
-4
-9
-13
15
18
10
0
2
0
7
8
1
-63
-2
-1
-1
-2
10
6
-12
-41
3
6
0
1
10
-5
-20
-93
-7
-4
-2
-3
-7
-6
1
-41
-24
-3
0
5
-3
-7
-33
13
-14
0
-1
-6
-9
13
-9
54
6
2
-1
3
12
-26
-13
58
10
1
5
-1
1
-3
-4
5
3
-3
0
-5
-6
-1
-12
13
-7
-2
2
5
-1
0
-7
37
-4
1
3
-1
6
-4
-7
67
2
-1
2
2
6
16
-3
39
0
0
3
-2
2
-21
-6
56
3
-2
2
-1
-11
3
-9
17
9
0
1
-2
-13
21
-4
-4
1
-1
-1
1
40
-18
-28
14
-8
-3
0
0
-17
8
-15
3
4
-1
-1
0
11
2
12
32
18
3
1
-1
0
-19
-29
0
-24
-9
-4
-6
-9
2
-2
26
4
0
2
2
-4
0
-5
-12
-4
3
0
-2
2
-9
-12
11
13
2
-1
3
-11
7
2
21
5
1
1
0
7
-6
-22
-16
-23
-4
1
-1
1
-7
-6
14
4
0
2
-4
-1
4
-1
3
-9
-2
-2
-2
1
-5
-2
14
2
-2
-1
-4
-14
11
-7
-1
5
1
1
1
2
-8
-13
10
-2
0
0
-2
-4
4
0
27
5
-2
-1
1
7
-8
8
-8
-7
-3
0
-2
-9
-1
-5
6
4
-1
1
1
2
5
-5
5
-4
-3
-3
-4
-12
-4
2
-2
-1
-1
-1
-1
-1
3
-25
-4
-2
0
0
0
-3
-7
-2
-54
-12
-3
-3
0
-3
7
9
12
10
-2
0
0
-3
4
-12
-7
-8
-2
-2
-2
3
-4
-13
-9
0
1
2
1
-2
-3
5
10
8
-1
1
-1
-1
1
-10
-2
-1
1
-2
1
1
0
-3
2
-2
0
-3
-2
-4
-9
15
-8
-2
-1
2
0
5
0
-8
-9
-7
-4
-3
-3
-8
0
-2
-3
-2
-3
0
-1
-3
4
-13
-8
-3
-1
2
-1
1
-3
0
-4
-1
-2
0
0
-7
-1
8
20
5
4
2
-3
3
-5
-10
-1
-1
0
0
-1
1
4
0
-1
-1
-3
-2
-2
-3
-3
-7
-20
-2
-1
0
-2
-4
-1
-3
3
3
-1
-1
-3
-2
-8
-1
-14
-4
-5
-2
2
-2
9
-5
1
-1
-6
-2
-1
-2
3
3
1
3
4
1
2
-1
3
2
2
5
8
2
-1
-1
-1
1
-2
3
4
-1
-2
0
-3
-1
-7
-6
-2
0
-1
1
6
1
13
5
-4
-2
-2
0
-13
-9
5
-5
-4
-3
-3
-4
-4
-1
0
0
0
-1
-1
-2
2
2
-4
3
3
-1
1
4
-8
-11
-23
-5
-3
-2
-3
-3
6
3
3
5
1
1
3
1
4
0
-9
-4
-2
-2
0
-2
-4
-3
7
-2
-2
-2
-2
0
-1
8
2
1
0
1
1
-3
-2
-2
-3
-2
-1
-1
-1
-2
-4
1
-2
-3
-4
1
-4
-1
7
-4
-25
-1
0
0
1
1
-2
-4
7
-2
0
-3
0
-4
2
2
0
1
-2
-2
-2
-1
4
-3
-3
-2
0
0
-1
-3
-6
-4
1
1
-1
0
-2
0
1
-7
-8
-7
-2
-2
-1
-2
2
5
6
2
-3
-3
-1
-1
-1
3
-7
0
1
1
-1
0
-4
-6
7
-6
-3
-3
-4
-1
0
-3
16
-1
-3
-2
3
2
-2
-3
-18
-6
-1
1
-2
0
-2
-7
-14
0
1
-1
-1
0
-1
3
1
-2
0
-2
-1
-1
2
0
0
1
0
-1
-2
-3
-1
-4
10
1
-2
0
-2
-2
0
-2
2
0
-4
-1
0
-1
-2
-1
-5
-2
1
-1
-2
1
-2
-2
-2
0
1
-1
-1
0
0
1
-1
0
1
0
1
1
0
-2
-6
-2
-2
-1
-1
-1
0
-3
5
-3
-3
-2
-1
1
0
-1
-4
0
-1
0
-1
1
0
0
-2
-2
-1
-2
0
-1
1
1
2
4
-3
-1
0
3
-2
-7
2
3
5
3
0
-9
1
0
-5
-7
-4
1
2
1
0
4
8
0
1
0
-3
-1
-1
-12
-17
-7
-3
-5
-3
-2
-1
2
0
5
-6
-2
0
3
-2
-1
-9
-6
3
-1
0
-4
1
-5
3
3
1
0
1
-2
2
4
7
1
0
0
1
1
-1
1
-4
1
-2
-2
-2
1
0
-2
-2
-2
-3
-1
-1
-2
-1
-1
-1
-3
-2
-2
-1
2
-2
0
3
0
2
-6
-3
-2
0
-3
-20
-1
1
5
0
0
-1
0
5
3
4
5
2
-2
-1
-2
-11
0
-1
1
-1
0
1
2
7
-1
-1
-3
-1
1
-1
-4
0
-5
-7
-6
-1
-1
0
1
1
-1
5
0
-3
-2
0
-3
-3
7
-9
1
-1
0
-1
1
0
-6
9
1
1
0
1
2
9
2
2
0
0
2
-1
-5
-5
-1
-7
-1
-3
-3
0
4
0
-2
0
-2
0
-3
-1
-3
-10
0
-4
-1
-1
-1
-1
1
3
-2
0
-1
-1
0
0
4
-4
4
-1
-3
-2
-1
-1
-6
3
-4
-2
-2
1
-1
2
2
2
7
1
2
0
-1
0
-1
-4
-13
-2
-1
-2
-1
-1
-2
0
5
0
-1
1
-1
-4
3
2
-2
-2
-2
0
-2
3
-5
-3
-2
1
0
1
-1
3
10
4
12
3
0
-1
-1
0
-8
-5
-17
-4
0
-1
2
-1
-8
-4
-9
-1
-4
-4
-5
-5
-11
0
2
-9
-2
-3
-4
-4
1
1
-5
3
-2
-2
-2
-1
5
3
10
-2
2
1
1
13
10
-2
1
2
-1
1
3
7
14
4
4
-1
0
2
4
-19
2
2
0
-3
0
-1
1
-2
-9
-1
-5
-3
-4
-4
-6
-15
-23
-1
-6
-2
-2
-3
-3
12
-10
-4
-3
-8
-1
-4
-3
0
3
0
6
-3
-6
1
5
-8
16
-1
2
3
6
2
-3
-11
1
-7
5
7
4
6
15
4
25
2
6
1
-4
-2
-12
-1
-35
1
-19
-14
-6
4
-13
-22
-17
-2
-1
7
1
-11
-8
-22
21
9
6
17
1
-5
-8
19
-7
-9
-3
2
9
6
14
-46
24
-10
4
-2
3
14
15
21
-10
6
15
-8
-6
7
16
-13
5
5
-19
-12
-5
-19
-29
-26
-3
8
-21
-4
-5
-9
-11
0
-14
4
12
-2
2
-14
-17
-21
21
-5
2
14
2
7
27
-4
41
-5
2
-15
0
10
25
-62
-90
-2
-6
12
-18
0
-45
79
11
-4
-7
-27
-9
7
16
-95
-55
-6
-17
31
10
-1
-27
46
-9
0
13
-14
9
2
21
32
59
2
-5
-9
-3
1
6
22
-8
1
10
62
53
3
-6
-26
-37
0
-1
-42
-43
-11
-11
17
33
0
-10
-50
-6
7
36
12
2
-2
1
62
-12
-2
-14
-2
16
-1
9
-3
4
-8
1
34
61
-1
2
6
14
1
-5
-18
5
-5
-1
-15
-17
-10
-11
-8
5
1
-3
-36
7
4
24
-12
48
-1
1
15
-12
2
12
18
58
0
-1
-2
5
-7
-11
3
38
1
13
-12
-20
5
-15
3
127
-2
-9
11
16
3
-3
18
31
2
-10
20
4
0
-2
-12
34
0
-12
-23
-7
-3
-15
-7
0
-2
35
35
12
5
9
3
18
3
-11
-31
0
-1
-2
-5
-29
0
0
-10
-23
-6
-15
-47
-36
-3
13
-5
-2
7
35
7
-59
0
-6
37
17
-15
-52
6
-65
2
2
-6
9
3
5
-28
-89
1
-14
-33
-31
-15
-12
64
-22
2
-15
-12
3
8
13
-6
-70
-4
-19
29
37
9
5
15
2
2
10
-22
-35
-18
7
-20
-95
-5
-2
6
33
5
-17
-46
3
3
21
38
-13
-4
-22
46
-51
6
-12
-30
-18
-1
6
20
41
4
-2
-21
3
-6
6
-12
17
0
-10
9
1
-3
4
19
45
-2
-17
-28
-26
8
24
22
-11
-8
-3
21
37
7
11
-38
52
5
11
-16
-7
-14
-41
-46
-30
-4
12
55
17
-4
-6
9
17
0
26
3
0
5
10
36
72
4
-34
-2
2
-4
-13
-32
18
-2
9
6
-22
2
16
9
23
2
8
-100
-13
-5
-9
25
25
-3
-19
37
9
-7
13
26
35
-4
-4
37
-7
-8
-45
-13
-87
5
6
-22
2
-2
-7
47
61
-3
-14
18
12
6
8
-60
-11
-3
-14
-59
-33
-1
5
-28
27
-3
24
-11
-10
-6
6
39
91
-4
30
94
67
-6
-12
28
-15
-3
-18
-24
-44
19
34
81
-63
-2
-37
-94
-35
-9
0
10
26
2
26
95
56
-11
3
-56
-95
-1
25
61
-20
3
-24
17
69
5
9
1
44
2
5
7
59
9
9
16
-7
3
-8
-23
-11
-6
-55
-128
-74
2
29
18
-22
-14
-1
-76
1
-13
11
-10
57
-3
39
6
-6
-11
-8
16
-26
13
18
113
72
8
-10
-12
-8
-7
4
55
14
12
12
-10
-95
-2
-26
-49
-37
-2
12
16
2
2
-35
-82
-65
9
4
-67
-30
-5
4
-46
-28
-32
-47
-11
-107
-13
-3
48
37
-1
-26
8
-22
-4
-8
60
79
21
18
17
57
6
12
26
-18
19
7
4
-85
-3
-13
-39
-21
-21
-15
-10
17
4
17
-12
-64
-5
14
11
-13
-11
-14
19
-60
4
6
-6
39
-5
-31
-71
40
-15
-41
82
52
-7
32
92
64
28
23
-94
4
8
22
44
40
-8
-22
96
8
9
4
-48
-18
4
31
3
-43
7
1
-38
-65
-28
14
24
21
-14
-28
-30
15
13
-1
-35
-74
0
-8
-42
2
1
-23
-3
51
-4
2
26
1
6
21
-3
5
-1
5
11
-29
-3
14
-30
-114
1
22
-10
26
-10
-7
47
79
-5
-14
44
6
3
28
-44
-97
1
3
-77
-18
-12
-35
34
10
-9
-27
46
6
1
-3
-42
-41
1
3
39
19
-16
-30
41
78
-4
13
-24
-14
11
23
-43
-61
8
-7
4
20
-3
1
26
26
-1
-1
-12
-1
8
9
-19
48
4
9
-14
-43
-8
6
38
-46
-7
-24
-45
5
9
-3
-43
63
5
5
13
15
-5
-25
-4
10
-5
33
99
52
-9
15
23
-30
4
-26
20
5
7
6
-19
21
5
-20
-123
-59
-7
-2
47
-4
-4
10
30
13
8
17
-19
-41
-5
0
41
11
-17
-36
32
109
2
-5
-40
-16
6
32
-34
-40
1
2
-27
-3
-10
-1
-13
22
-6
-6
45
22
-1
-2
-72
-76
3
55
18
3
-6
27
15
-58
1
-36
-39
-14
20
-33
80
108
4
-15
7
-4
4
-17
-93
-62
-4
-4
-9
-20
1
-12
43
41
-1
-1
-49
5
-3
1
-25
34
-4
11
50
26
-2
12
11
16
-9
8
46
7
-8
23
95
71
4
16
-27
-38
18
-15
-90
-37
-8
-30
-11
33
-9
-12
79
6
-6
10
3
-5
-8
6
-16
31
9
18
26
5
11
9
-24
23
6
-21
-19
-1
-9
-16
37
-57
-6
5
-26
-23
1
-2
64
102
-10
0
0
15
7
37
0
-28
3
3
-3
-16
-11
-5
-16
-55
-2
-9
-36
1
1
-4
-102
-76
-10
-10
33
10
-2
-52
59
80
8
19
38
6
-2
7
-34
32
0
13
-12
-10
2
-20
69
39
-3
-24
-15
4
-10
22
-52
83
2
-20
17
5
2
-4
-42
-3
-1
20
-21
-14
-4
-14
15
38
-8
-4
-17
-10
12
42
-61
-47
4
-13
-26
0
-8
-59
76
-2
2
-21
9
18
-13
12
-45
-13
4
48
35
-3
-2
10
23
-81
0
-28
-14
-18
2
5
38
127
-7
-32
34
32
14
35
-3
-89
2
15
27
-1
9
-4
15
62
6
13
-14
7
-18
5
14
-60
-2
17
12
16
13
-1
17
-15
4
-6
-33
-32
12
21
22
68
1
4
-38
-29
7
32
-47
-104
-10
-28
-20
2
-25
-43
-20
62
-2
-6
21
14
9
-3
-1
-20
-3
1
27
-5
-11
19
52
-27
8
-6
-66
-28
6
3
-52
0
-16
0
17
20
6
18
-20
-73
9
-34
-14
-11
-21
-11
23
-84
0
6
-2
15
8
-11
-44
116
5
17
25
-2
-19
26
20
-75
-4
-12
-19
7
21
-23
-24
26
14
11
33
25
13
-14
27
29
-5
39
71
-1
24
31
81
83
14
8
-22
-12
-38
5
-8
3
-10
-45
-81
-70
-14
-23
-13
-9
-2
4
12
21
-23
-36
-2
72
-15
-4
-37
-3
0
18
2
7
-1
29
67
52
43
9
-50
39
-2
19
36
14
25
6
28
15
12
-3
-1
2
-9
14
-57
-43
6
4
-42
-33
-27
-43
5
-66
-15
-49
-112
-49
3
-18
15
-29
-8
-41
18
45
1
20
27
18
-11
23
86
11
6
16
-5
-48
0
8
-34
-35
-21
-15
0
10
3
0
54
57
23
5
-21
-23
12
-11
-80
-60
0
6
47
124
4
28
-25
1
-16
-39
-21
-29
-20
-48
15
6
-12
41
-2
30
-7
8
-12
-17
-11
-51
-20
-7
1
20
48
-15
-4
12
14
-32
-4
-30
-120
-31
-11
5
23
67
7
-28
37
67
22
29
-27
-55
-6
42
57
19
23
6
40
125
12
-10
-11
0
-18
7
-70
-105
-3
-19
16
-29
46
-5
-14
15
11
1
-65
-35
-41
-111
7
38
-7
-22
-48
2
-11
23
53
69
2
43
107
37
11
-36
-20
-68
2
18
3
-16
-25
6
-9
54
-9
-6
-18
5
18
25
46
-12
2
-37
-69
-1
-18
-12
1
-47
-7
-13
25
-14
-10
-19
-3
4
-9
23
-52
42
21
61
-49
-30
0
5
115
-10
-22
-54
24
56
-6
35
4
3
23
79
-46
-33
1
-43
-87
-10
-41
-37
12
83
3
8
74
-39
-2
8
5
-17
2
27
-119
-24
13
70
-44
-53
-1
16
107
83
3
-95
42
-4
-6
11
20
-8
-24
65
-8
-22
-10
-3
-2
-24
26
46
64
51
0
10
14
0
-52
23
-39
-20
8
-14
-59
-61
42
-34
28
3
1
-25
-106
38
11
-7
13
-6
-15
-21
39
32
-8
-24
-24
8
-1
42
97
10
0
-13
-1
-33
5
-25
43
-29
-16
9
-46
-48
-4
16
-95
-70
-2
-52
-1
-8
-1
-30
-33
34
-22
-31
1
45
3
33
96
10
11
-5
16
52
-3
3
-48
9
-8
7
30
50
12
17
87
51
24
64
-32
-37
2
4
37
-32
-2
-27
20
33
-9
0
-46
-15
5
38
35
-28
-3
-14
-17
-34
-2
35
-30
-116
2
-11
-28
-30
-7
1
-4
19
-6
4
-47
44
38
6
46
54
-2
-20
-14
8
-16
4
-4
-12
6
4
11
-15
2
-17
-3
40
-12
8
-11
14
-31
3
29
2
7
17
65
26
19
17
-58
-45
-5
0
-85
-22
41
17
9
-4
4
-30
81
16
-30
2
-14
-38
-2
7
-23
-25
13
-5
20
47
-3
-8
-69
4
-35
-58
31
-22
0
3
77
45
28
8
20
-15
-1
-14
-60
-48
-15
13
-14
-12
6
11
28
14
-11
-32
-22
33
-9
-12
-26
-27
2
3
44
-63
1
15
1
27
21
19
0
38
-3
42
127
68
-2
-23
29
87
11
21
3
-31
14
-4
2
-77
8
-47
-70
-27
-25
29
-4
17
-10
-36
-67
-20
6
-26
-18
54
2
0
-17
-15
-39
-25
29
-35
-5
-9
35
2
10
-2
0
71
5
14
-18
21
-24
-18
-21
1
1
8
86
-43
-62
8
-23
12
-10
3
-128
-29
52
23
24
82
-6
-29
12
24
13
50
-23
-119
2
17
57
21
9
-45
18
30
2
7
90
52
21
-8
-68
-18
-1
2
-11
-24
-7
12
-13
-43
7
-9
10
-2
-23
-5
-7
-10
1
14
-14
-14
26
-25
13
34
1
18
-17
-12
-24
-7
10
-17
4
-4
11
15
7
27
-20
-7
-3
-7
-29
-35
-1
-22
24
60
-14
-23
-98
-20
-16
52
9
75
-2
-7
-37
24
11
-20
-22
-95
3
37
118
50
-9
-8
-32
-48
-4
15
55
6
-11
-1
21
5
7
10
13
-27
21
79
0
-11
9
5
-28
-6
16
-24
2
3
1
-39
-80
-31
8
-13
19
29
-8
-27
-33
-9
38
26
-34
-6
-13
17
19
40
-86
-32
17
-4
5
-12
0
-9
54
6
-5
2
0
32
13
-18
0
31
3
8
-2
-82
-1
-27
-13
-39
9
30
-7
-19
-83
22
7
21
-13
-15
-6
-35
66
44
32
13
65
71
5
104
107
26
-33
-32
-15
51
10
9
0
-1
26
-5
-67
-45
5
24
0
-26
-20
-15
3
29
3
-5
-124
-45
-9
-9
-24
-58
-10
-50
-81
-26
22
-43
23
60
-14
24
105
86
-6
22
18
19
3
12
41
-12
22
-20
-8
3
2
-52
-19
-9
-39
-4
36
71
-7
-4
-42
-40
-8
38
-38
-100
10
29
-50
5
1
-43
-3
41
6
24
14
-11
26
-26
-8
-72
-2
29
18
4
-11
-7
1
-3
-11
-80
-57
2
-14
34
73
93
-11
37
49
55
3
52
-46
-92
2
23
92
-9
8
-24
-31
13
2
-42
-26
-3
-34
15
3
81
15
39
25
-3
13
-16
-67
-108
-8
-12
-68
-24
-23
-19
36
113
-14
-62
-22
-20
11
8
-12
-70
-1
17
-29
-4
-22
-18
30
43
-6
-30
-5
-13
8
53
5
70
-13
14
-73
-18
42
-19
-18
-29
10
-29
43
22
24
-14
17
25
-8
36
-46
-22
-45
49
-9
35
-1
-9
74
60
10
-96
22
-41
12
40
52
-8
-11
18
-23
-64
6
8
-6
7
-64
11
-5
-30
2
32
39
7
41
-15
33
-22
3
-67
-82
-37
1
40
-24
-3
-5
18
13
-12
-26
-4
21
12
-6
-14
10
12
7
12
1
9
1
49
0
-30
36
10
-17
-21
-11
-47
-24
41
-5
16
-11
-27
1
6
13
0
18
-41
19
40
-8
-21
-58
-41
-27
33
28
69
1
-16
-18
12
-17
-17
-11
22
-7
26
38
-9
-36
9
-70
-109
14
6
46
55
26
-23
61
59
2
47
42
-19
46
28
-5
39
-9
-36
-79
-22
-11
30
-14
-63
-4
24
48
55
8
-29
9
40
7
-22
22
8
-15
-3
-21
-101
0
28
-41
-45
-14
-9
-20
-11
-3
-33
8
36
28
12
-6
-1
6
-30
-34
-39
-26
20
43
17
-11
24
-80
-12
13
8
-16
-14
3
-6
44
8
27
-27
-19
-64
-10
-14
19
3
-40
-23
-20
-13
1
17
87
19
-4
0
24
55
5
10
-37
-21
25
10
24
64
-4
-23
-64
7
-20
12
-15
-7
-3
22
57
12
-27
-20
-25
-63
3
12
-12
-17
49
-4
8
16
0
-38
-67
-47
-24
20
-6
14
-6
-2
-12
35
-7
-39
2
23
2
27
75
6
21
-11
-33
-94
-1
8
-43
-21
-21
-29
11
-6
-7
3
-41
18
-3
1
-40
14
-5
-30
77
8
12
26
25
44
11
15
-101
7
29
-18
-18
48
-3
35
62
-1
26
56
33
-75
-5
-9
5
-7
-50
33
-34
-76
9
-54
13
26
-2
-42
4
13
-4
40
66
2
-5
-6
7
-33
2
15
-81
-25
20
45
34
127
2
1
-9
-10
25
22
-1
-11
-11
-7
16
-5
-30
6
-26
-44
9
-30
-7
-16
-3
1
3
45
-7
15
-36
-3
3
-11
-49
24
-3
-4
62
13
6
4
48
94
5
15
-54
-26
-2
10
9
-17
-7
-24
-68
-9
-23
-45
-2
-10
-9
6
77
26
14
-16
7
-37
3
31
57
59
0
-62
4
-13
6
-7
17
-27
12
60
38
16
4
-64
-106
-52
-9
-10
28
49
3
23
13
23
27
11
-18
55
-3
8
98
-26
-37
-45
-53
-89
1
9
4
55
2
-11
0
28
-7
-27
-50
-80
3
-11
-2
31
-1
-2
2
6
-42
-29
23
36
-2
12
9
0
9
31
40
56
-1
-6
24
30
17
24
-10
29
-5
-8
29
24
18
3
-30
-49
6
-10
-105
-43
-38
-30
23
34
-5
-76
3
-22
8
34
-27
-38
0
106
59
7
-3
-33
34
85
4
15
55
44
4
26
-43
-77
-8
-16
-34
-17
-28
-25
-35
-7
-3
-19
-79
-20
-3
-17
61
86
-8
-52
-90
-26
23
-12
-76
-110
-4
2
-4
-15
-15
-15
29
72
-4
-2
-23
-4
3
-23
-40
-55
-11
-34
74
38
-10
-9
-4
-14
10
75
54
42
0
7
13
-5
6
-3
44
32
20
24
0
-4
-3
25
-3
-21
8
33
9
4
3
-43
-117
-41
6
-5
12
-26
-9
8
-8
-21
-12
-21
22
5
0
16
23
4
-2
14
3
12
-2
-126
-35
3
-5
15
16
11
0
73
56
22
9
-30
-10
-14
4
16
22
-7
-8
-11
-19
21
-1
49
-8
1
-4
13
-2
28
2
7
-12
-5
0
-18
-6
9
0
-21
-54
-7
3
27
-5
26
-5
-52
-62
-25
4
-23
1
-18
-3
0
23
11
-3
12
50
36
-1
11
37
34
9
-10
-79
-15
6
14
26
0
-5
8
2
-47
3
-6
29
-5
9
18
-14
-47
-3
-39
-48
-28
-10
-15
26
-10
-3
1
-68
-6
-19
-14
21
-15
-6
-43
12
23
4
17
-14
-3
-9
4
80
28
-9
-8
16
4
12
62
29
-7
11
12
-11
12
4
2
-28
2
-12
14
10
-40
-4
-32
20
-3
46
-16
3
87
1
36
-41
-9
4
29
13
-26
2
-39
9
1
-30
-31
-28
-51
3
42
-4
-14
-4
7
20
17
-6
-15
-56
-19
3
13
-14
-62
-3
-21
5
-5
-15
-23
20
24
-10
6
-37
-15
0
28
-33
-84
-9
-14
-46
24
8
-20
-58
-38
-1
0
26
16
-30
-11
14
23
4
2
52
-16
12
-24
-40
-31
0
8
50
31
6
27
-12
46
9
60
6
-16
22
-25
75
24
-3
-61
-17
5
-6
40
-40
-60
-2
30
-19
3
-10
-5
15
31
-5
-69
-69
6
4
-12
11
18
-5
32
101
3
-1
28
-6
28
10
29
-29
-14
-26
-34
34
70
-1
-24
-14
-29
-1
8
3
-52
0
18
4
25
18
8
-2
31
-6
-43
-66
-9
4
6
30
-22
-9
-16
15
-2
-9
-28
24
12
8
58
81
36
-18
5
-11
-21
-6
11
-21
-15
18
-2
11
25
0
-35
-5
-16
-15
-8
-14
-26
-3
34
-68
-10
9
10
6
1
-2
-75
-27
-11
-13
3
20
66
4
48
34
38
8
-26
-38
-79
12
42
106
-14
26
-13
2
7
-6
20
-42
14
8
3
-3
38
-6
-1
-9
7
5
15
-4
-19
6
10
-8
-10
-4
13
51
45
-3
-22
-34
-13
0
-1
-59
-1
-3
26
90
13
-13
51
-43
-30
0
-20
-58
-31
-14
-27
9
28
-9
-18
-50
-11
-19
-26
-19
8
-3
-13
-19
3
-21
-17
27
28
-2
-34
-26
-26
15
21
2
39
-1
-24
21
5
-6
-5
-18
-6
-2
-9
-19
-6
35
7
-17
14
3
-23
109
69
-1
28
8
5
15
86
52
13
-9
-20
-2
-51
4
-8
-23
-22
22
-15
-19
-3
-1
-26
-66
-65
-14
-15
18
-6
-6
-19
-41
32
20
29
16
14
-6
-2
29
-9
14
4
-4
4
0
9
-42
-11
-24
