-1.1793504980120928
0.08439055813920429
-2.876644264112813
-1.1793504980120928
0.08439055813920429
-2.876644264112813
-1.178237304734733
0.08359121603330383
-2.876907626227071
-1.178237304734733
0.08359121603330383
-2.876907626227071
-1.178237304734733
0.08359121603330383
-2.876907626227071
-1.178237304734733
0.08359121603330383
-2.876907626227071
-1.1778231782007427
0.08278147668087359
-2.876701464593266
-1.1778231782007427
0.08278147668087359
-2.876701464593266
-1.1778231782007427
0.08278147668087359
-2.876701464593266
-1.1778231782007427
0.08278147668087359
-2.876701464593266
-1.1779433315189276
0.08229009761219121
-2.8763566573408665
-1.1779433315189276
0.08229009761219121
-2.8763566573408665
-1.1779433315189276
0.08229009761219121
-2.8763566573408665
-1.1779433315189276
0.08229009761219121
-2.8763566573408665
-1.1784794487961383
0.08147458490772541
-2.875941099027543
-1.1784794487961383
0.08147458490772541
-2.875941099027543
-1.1784794487961383
0.08147458490772541
-2.875941099027543
-1.1784794487961383
0.08147458490772541
-2.875941099027543
-1.1780039561694544
0.08045420230012598
-2.8760259398746113
-1.1780039561694544
0.08045420230012598
-2.8760259398746113
-1.1780039561694544
0.08045420230012598
-2.8760259398746113
-1.1780039561694544
0.08045420230012598
-2.8760259398746113
-1.1773967470774709
0.07948767066759083
-2.8755597402883373
-1.1773967470774709
0.07948767066759083
-2.8755597402883373
-1.1773967470774709
0.07948767066759083
-2.8755597402883373
-1.1773967470774709
0.07948767066759083
-2.8755597402883373
-1.1772708153177653
0.07817565594988819
-2.8748441730356618
-1.1772708153177653
0.07817565594988819
-2.8748441730356618
-1.1772708153177653
0.07817565594988819
-2.8748441730356618
-1.1772708153177653
0.07817565594988819
-2.8748441730356618
-1.1769319996257066
0.07720900826397831
-2.8742260414867498
-1.1769319996257066
0.07720900826397831
-2.8742260414867498
-1.1769319996257066
0.07720900826397831
-2.8742260414867498
-1.1769319996257066
0.07720900826397831
-2.8742260414867498
-1.1764576469284596
0.07649958370857356
-2.8736276996951666
-1.1764576469284596
0.07649958370857356
-2.8736276996951666
-1.1764576469284596
0.07649958370857356
-2.8736276996951666
-1.1764576469284596
0.07649958370857356
-2.8736276996951666
-1.1759837374188593
0.07578986397846497
-2.873029717403025
-1.1759837374188593
0.07578986397846497
-2.873029717403025
-1.1759837374188593
0.07578986397846497
-2.873029717403025
-1.1759837374188593
0.07578986397846497
-2.873029717403025
-1.1752170899815415
0.07521223756464328
-2.8723829111458627
-1.1752170899815415
0.07521223756464328
-2.8723829111458627
-1.1752170899815415
0.07521223756464328
-2.8723829111458627
-1.1752170899815415
0.07521223756464328
-2.8723829111458627
-1.1749857109334922
0.0746355032065071
-2.8714299210115577
-1.1749857109334922
0.0746355032065071
-2.8714299210115577
-1.1749857109334922
0.0746355032065071
-2.8714299210115577
-1.1749857109334922
0.0746355032065071
-2.8714299210115577
-1.1750039809769623
0.07406352694030414
-2.8707366447032605
-1.1750039809769623
0.07406352694030414
-2.8707366447032605
-1.1750039809769623
0.07406352694030414
-2.8707366447032605
-1.1750039809769623
0.07406352694030414
-2.8707366447032605
-1.1746217967000847
0.07346487571942298
-2.8702193648266223
-1.1746217967000847
0.07346487571942298
-2.8702193648266223
-1.1746217967000847
0.07346487571942298
-2.8702193648266223
-1.1746217967000847
0.07346487571942298
-2.8702193648266223
-1.1735112311550115
0.07297291086268509
-2.869805341711242
-1.1735112311550115
0.07297291086268509
-2.869805341711242
-1.1735112311550115
0.07297291086268509
-2.869805341711242
-1.1735112311550115
0.07297291086268509
-2.869805341711242
-1.1731334383809244
0.0727531293797343
-2.868938940734423
-1.1731334383809244
0.0727531293797343
-2.868938940734423
-1.1731334383809244
0.0727531293797343
-2.868938940734423
-1.1731334383809244
0.0727531293797343
-2.868938940734423
-1.1724588660468478
0.07228539690290259
-2.868373597781741
-1.1724588660468478
0.07228539690290259
-2.868373597781741
-1.1724588660468478
0.07228539690290259
-2.868373597781741
-1.1724588660468478
0.07228539690290259
-2.868373597781741
-1.1716948161792944
0.07170479561381436
-2.8677292570768698
-1.1716948161792944
0.07170479561381436
-2.8677292570768698
-1.1716948161792944
0.07170479561381436
-2.8677292570768698
-1.1716948161792944
0.07170479561381436
-2.8677292570768698
-1.1710440146970371
0.0710341746406604
-2.8670317485627677
-1.1710440146970371
0.0710341746406604
-2.8670317485627677
-1.1710440146970371
0.0710341746406604
-2.8670317485627677
-1.1710440146970371
0.0710341746406604
-2.8670317485627677
-1.1700594777094193
0.07004713563238014
-2.866276420768322
-1.1700594777094193
0.07004713563238014
-2.866276420768322
-1.1700594777094193
0.07004713563238014
-2.866276420768322
-1.1700594777094193
0.07004713563238014
-2.866276420768322
-1.1677336718741942
0.0698617237149865
-2.8655488131850086
-1.1677336718741942
0.0698617237149865
-2.8655488131850086
-1.1677336718741942
0.0698617237149865
-2.8655488131850086
-1.1677336718741942
0.0698617237149865
-2.8655488131850086
-1.165575712220594
0.06969914005060485
-2.8648227141509843
-1.165575712220594
0.06969914005060485
-2.8648227141509843
-1.165575712220594
0.06969914005060485
-2.8648227141509843
-1.165575712220594
0.06969914005060485
-2.8648227141509843
-1.1640861861122307
0.06986537922197833
-2.863988714295872
-1.1640861861122307
0.06986537922197833
-2.863988714295872
-1.1640861861122307
0.06986537922197833
-2.863988714295872
-1.1640861861122307
0.06986537922197833
-2.863988714295872
-1.1627001639492667
0.06981020435870935
-2.8632797248194137
-1.1627001639492667
0.06981020435870935
-2.8632797248194137
-1.1627001639492667
0.06981020435870935
-2.8632797248194137
-1.1627001639492667
0.06981020435870935
-2.8632797248194137
-1.1614815879570228
0.07008177460119275
-2.862794335831953
-1.1614815879570228
0.07008177460119275
-2.862794335831953
-1.1614815879570228
0.07008177460119275
-2.862794335831953
-1.1614815879570228
0.07008177460119275
-2.862794335831953
-1.1605850191493738
0.07046794733091068
-2.8622090131564466
-1.1605850191493738
0.07046794733091068
-2.8622090131564466
-1.1605850191493738
0.07046794733091068
-2.8622090131564466
-1.1605850191493738
0.07046794733091068
-2.8622090131564466
-1.1589099082469334
0.07132810721613668
-2.8618218092107135
-1.1589099082469334
0.07132810721613668
-2.8618218092107135
-1.1589099082469334
0.07132810721613668
-2.8618218092107135
-1.1589099082469334
0.07132810721613668
-2.8618218092107135
-1.1580526334366938
0.07216049085855174
-2.8612422304134704
-1.1580526334366938
0.07216049085855174
-2.8612422304134704
-1.1580526334366938
0.07216049085855174
-2.8612422304134704
-1.1580526334366938
0.07216049085855174
-2.8612422304134704
-1.1585455039554093
0.07335751898298813
-2.8606603296673927
-1.1585455039554093
0.07335751898298813
-2.8606603296673927
-1.1585455039554093
0.07335751898298813
-2.8606603296673927
-1.1585455039554093
0.07335751898298813
-2.8606603296673927
-1.1587247917431251
0.07494837470607542
-2.858736599158011
-1.1587247917431251
0.07494837470607542
-2.858736599158011
-1.1587247917431251
0.07494837470607542
-2.858736599158011
-1.1587247917431251
0.07494837470607542
-2.858736599158011
-1.160500761995465
0.07441163963440882
-2.857542431285566
-1.160500761995465
0.07441163963440882
-2.857542431285566
-1.160500761995465
0.07441163963440882
-2.857542431285566
-1.160500761995465
0.07441163963440882
-2.857542431285566
-1.1613179024534153
0.07476706802516542
-2.8560896728694853
-1.1613179024534153
0.07476706802516542
-2.8560896728694853
-1.1613179024534153
0.07476706802516542
-2.8560896728694853
-1.1613179024534153
0.07476706802516542
-2.8560896728694853
-1.1625793429337479
0.07354352502383482
-2.8549185025231516
-1.1625793429337479
0.07354352502383482
-2.8549185025231516
-1.1625793429337479
0.07354352502383482
-2.8549185025231516
-1.1625793429337479
0.07354352502383482
-2.8549185025231516
-1.1640737676056947
0.0728974187376349
-2.850267741245694
-1.1640737676056947
0.0728974187376349
-2.850267741245694
-1.1640737676056947
0.0728974187376349
-2.850267741245694
-1.1640737676056947
0.0728974187376349
-2.850267741245694
-1.1677135580707265
0.070801970864043
-2.843912756738249
-1.1677135580707265
0.070801970864043
-2.843912756738249
-1.1677135580707265
0.070801970864043
-2.843912756738249
-1.1677135580707265
0.070801970864043
-2.843912756738249
-1.166171294130091
0.07002630795814774
-2.834888384253758
-1.166171294130091
0.07002630795814774
-2.834888384253758
-1.166171294130091
0.07002630795814774
-2.834888384253758
-1.166171294130091
0.07002630795814774
-2.834888384253758
-1.1486164509244163
0.0689064631773313
-2.823490618516418
-1.1486164509244163
0.0689064631773313
-2.823490618516418
-1.1486164509244163
0.0689064631773313
-2.823490618516418
-1.1486164509244163
0.0689064631773313
-2.823490618516418
-1.1204145580263312
0.06101710946655428
-2.819597872105937
-1.1204145580263312
0.06101710946655428
-2.819597872105937
-1.1204145580263312
0.06101710946655428
-2.819597872105937
-1.1204145580263312
0.06101710946655428
-2.819597872105937
-1.1159499921538047
0.04956548935698498
-2.8189523045266407
-1.1159499921538047
0.04956548935698498
-2.8189523045266407
-1.1159499921538047
0.04956548935698498
-2.8189523045266407
-1.1159499921538047
0.04956548935698498
-2.8189523045266407
-1.1319798642704832
0.03763638602839879
-2.8148542571258965
-1.1319798642704832
0.03763638602839879
-2.8148542571258965
-1.1319798642704832
0.03763638602839879
-2.8148542571258965
-1.1319798642704832
0.03763638602839879
-2.8148542571258965
-1.1607771676338634
0.02167289048440693
-2.807339476734459
-1.1607771676338634
0.02167289048440693
-2.807339476734459
-1.1607771676338634
0.02167289048440693
-2.807339476734459
-1.1607771676338634
0.02167289048440693
-2.807339476734459
-1.1748549982932626
0.006157615080468774
-2.8046906437811034
-1.1748549982932626
0.006157615080468774
-2.8046906437811034
-1.1748549982932626
0.006157615080468774
-2.8046906437811034
-1.1748549982932626
0.006157615080468774
-2.8046906437811034
-1.18009957709515
-0.004360473357350031
-2.8097279120012164
-1.18009957709515
-0.004360473357350031
-2.8097279120012164
-1.18009957709515
-0.004360473357350031
-2.8097279120012164
-1.18009957709515
-0.004360473357350031
-2.8097279120012164
-1.1881252535575566
-0.010790591874839769
-2.8128217971248515
-1.1881252535575566
-0.010790591874839769
-2.8128217971248515
-1.1881252535575566
-0.010790591874839769
-2.8128217971248515
-1.1881252535575566
-0.010790591874839769
-2.8128217971248515
-1.2052565651331553
-0.01844230680343931
-2.809422339015036
-1.2052565651331553
-0.01844230680343931
-2.809422339015036
-1.2052565651331553
-0.01844230680343931
-2.809422339015036
-1.2052565651331553
-0.01844230680343931
-2.809422339015036
-1.208477753399435
-0.025106879445192302
-2.8089112549184136
-1.208477753399435
-0.025106879445192302
-2.8089112549184136
-1.208477753399435
-0.025106879445192302
-2.8089112549184136
-1.208477753399435
-0.025106879445192302
-2.8089112549184136
-1.2025883152932675
-0.0279959345302868
-2.810244003260201
-1.2025883152932675
-0.0279959345302868
-2.810244003260201
-1.2025883152932675
-0.0279959345302868
-2.810244003260201
-1.2025883152932675
-0.0279959345302868
-2.810244003260201
-1.2052009920607474
-0.029861055580517933
-2.8102636530945477
-1.2052009920607474
-0.029861055580517933
-2.8102636530945477
-1.2052009920607474
-0.029861055580517933
-2.8102636530945477
-1.2052009920607474
-0.029861055580517933
-2.8102636530945477
-1.2103045025418615
-0.03125121598676586
-2.808638117313215
-1.2103045025418615
-0.03125121598676586
-2.808638117313215
-1.2103045025418615
-0.03125121598676586
-2.808638117313215
-1.2103045025418615
-0.03125121598676586
-2.808638117313215
-1.2107285674173007
-0.03343122679617892
-2.807513421726283
-1.2107285674173007
-0.03343122679617892
-2.807513421726283
-1.2107285674173007
-0.03343122679617892
-2.807513421726283
-1.2107285674173007
-0.03343122679617892
-2.807513421726283
-1.2113813058370877
-0.038416756779472365
-2.8083216603559324
-1.2113813058370877
-0.038416756779472365
-2.8083216603559324
-1.2113813058370877
-0.038416756779472365
-2.8083216603559324
-1.2113813058370877
-0.038416756779472365
-2.8083216603559324
-1.2165653203098605
-0.042806269733810076
-2.8105661469407255
-1.2165653203098605
-0.042806269733810076
-2.8105661469407255
-1.2165653203098605
-0.042806269733810076
-2.8105661469407255
-1.2165653203098605
-0.042806269733810076
-2.8105661469407255
-1.221910887564884
-0.0448665720857738
-2.8123144293183726
-1.221910887564884
-0.0448665720857738
-2.8123144293183726
-1.221910887564884
-0.0448665720857738
-2.8123144293183726
-1.221910887564884
-0.0448665720857738
-2.8123144293183726
-1.2292645556307815
-0.04573470071284735
-2.814905533384183
-1.2292645556307815
-0.04573470071284735
-2.814905533384183
-1.2292645556307815
-0.04573470071284735
-2.814905533384183
-1.2292645556307815
-0.04573470071284735
-2.814905533384183
-1.2360891805753575
-0.044971114471170054
-2.816777671889415
-1.2360891805753575
-0.044971114471170054
-2.816777671889415
-1.2360891805753575
-0.044971114471170054
-2.816777671889415
-1.2360891805753575
-0.044971114471170054
-2.816777671889415
-1.2421245117994704
-0.04438041032103101
-2.818483492565365
-1.2421245117994704
-0.04438041032103101
-2.818483492565365
-1.2421245117994704
-0.04438041032103101
-2.818483492565365
-1.2421245117994704
-0.04438041032103101
-2.818483492565365
-1.2453241946509799
-0.04433064945999969
-2.8203585514791087
-1.2453241946509799
-0.04433064945999969
-2.8203585514791087
-1.2453241946509799
-0.04433064945999969
-2.8203585514791087
-1.2453241946509799
-0.04433064945999969
-2.8203585514791087
-1.2455411487519883
-0.04412472034578506
-2.8213699109597896
-1.2455411487519883
-0.04412472034578506
-2.8213699109597896
-1.2455411487519883
-0.04412472034578506
-2.8213699109597896
-1.2455411487519883
-0.04412472034578506
-2.8213699109597896
-1.2492023600700992
-0.044251665627573634
-2.8212347806507467
-1.2492023600700992
-0.044251665627573634
-2.8212347806507467
-1.2492023600700992
-0.044251665627573634
-2.8212347806507467
-1.2492023600700992
-0.044251665627573634
-2.8212347806507467
-1.2517477675767241
-0.043465619336481
-2.8213085460335225
-1.2517477675767241
-0.043465619336481
-2.8213085460335225
-1.2517477675767241
-0.043465619336481
-2.8213085460335225
-1.2517477675767241
-0.043465619336481
-2.8213085460335225
-1.2522871532819597
-0.04247313358242846
-2.820878214794949
-1.2522871532819597
-0.04247313358242846
-2.820878214794949
-1.2522871532819597
-0.04247313358242846
-2.820878214794949
-1.2522871532819597
-0.04247313358242846
-2.820878214794949
-1.2528764892101072
-0.041727882557762094
-2.8199694431104096
-1.2528764892101072
-0.041727882557762094
-2.8199694431104096
-1.2528764892101072
-0.041727882557762094
-2.8199694431104096
-1.2528764892101072
-0.041727882557762094
-2.8199694431104096
-1.2544439834265178
-0.040983418254674844
-2.8196874621212182
-1.2544439834265178
-0.040983418254674844
-2.8196874621212182
-1.2544439834265178
-0.040983418254674844
-2.8196874621212182
-1.2544439834265178
-0.040983418254674844
-2.8196874621212182
-1.2555230114907745
-0.03890968219941888
-2.819363610221933
-1.2555230114907745
-0.03890968219941888
-2.819363610221933
-1.2555230114907745
-0.03890968219941888
-2.819363610221933
-1.2555230114907745
-0.03890968219941888
-2.819363610221933
-1.256537622979012
-0.036871396297534484
-2.818890728164815
-1.256537622979012
-0.036871396297534484
-2.818890728164815
-1.256537622979012
-0.036871396297534484
-2.818890728164815
-1.256537622979012
-0.036871396297534484
-2.818890728164815
-1.2557521661450692
-0.03594808089024435
-2.818284803702837
-1.2557521661450692
-0.03594808089024435
-2.818284803702837
-1.2557521661450692
-0.03594808089024435
-2.818284803702837
-1.2557521661450692
-0.03594808089024435
-2.818284803702837
-1.2573938948748387
-0.03517320295801575
-2.817557165739576
-1.2573938948748387
-0.03517320295801575
-2.817557165739576
-1.2573938948748387
-0.03517320295801575
-2.817557165739576
-1.2573938948748387
-0.03517320295801575
-2.817557165739576
-1.255627631908275
-0.03524504622249463
-2.817284379121862
-1.255627631908275
-0.03524504622249463
-2.817284379121862
-1.255627631908275
-0.03524504622249463
-2.817284379121862
-1.255627631908275
-0.03524504622249463
-2.817284379121862
-1.253449345727144
-0.03546800500004125
-2.816511487134715
-1.253449345727144
-0.03546800500004125
-2.816511487134715
-1.253449345727144
-0.03546800500004125
-2.816511487134715
-1.253449345727144
-0.03546800500004125
-2.816511487134715
-1.2515844390640507
-0.034939173149963344
-2.8162301833682335
-1.2515844390640507
-0.034939173149963344
-2.8162301833682335
-1.2515844390640507
-0.034939173149963344
-2.8162301833682335
-1.2515844390640507
-0.034939173149963344
-2.8162301833682335
-1.2514533710880733
-0.0340803860466001
-2.8156629742326826
-1.2514533710880733
-0.0340803860466001
-2.8156629742326826
-1.2514533710880733
-0.0340803860466001
-2.8156629742326826
-1.2514533710880733
-0.0340803860466001
-2.8156629742326826
-1.2515669532398865
-0.03157278978567824
-2.815170959491414
-1.2515669532398865
-0.03157278978567824
-2.815170959491414
-1.2515669532398865
-0.03157278978567824
-2.815170959491414
-1.2515669532398865
-0.03157278978567824
-2.815170959491414
-1.2508951755614948
-0.029076746244404088
-2.814333441651043
-1.2508951755614948
-0.029076746244404088
-2.814333441651043
-1.2508951755614948
-0.029076746244404088
-2.814333441651043
-1.2508951755614948
-0.029076746244404088
-2.814333441651043
-1.2496641429519428
-0.027007330529901185
-2.8141601755713403
-1.2496641429519428
-0.027007330529901185
-2.8141601755713403
-1.2496641429519428
-0.027007330529901185
-2.8141601755713403
-1.2496641429519428
-0.027007330529901185
-2.8141601755713403
-1.2478969699508404
-0.02600329884398778
-2.8134458013531445
-1.2478969699508404
-0.02600329884398778
-2.8134458013531445
-1.2478969699508404
-0.02600329884398778
-2.8134458013531445
-1.2478969699508404
-0.02600329884398778
-2.8134458013531445
-1.246743820088767
-0.025590393306275067
-2.812818224912214
-1.246743820088767
-0.025590393306275067
-2.812818224912214
-1.246743820088767
-0.025590393306275067
-2.812818224912214
-1.246743820088767
-0.025590393306275067
-2.812818224912214
-1.2468769677745652
-0.025307939717548644
-2.8122527797772756
-1.2468769677745652
-0.025307939717548644
-2.8122527797772756
-1.2468769677745652
-0.025307939717548644
-2.8122527797772756
-1.2468769677745652
-0.025307939717548644
-2.8122527797772756
-1.246789769851722
-0.025395575769294923
-2.812339977700119
-1.246789769851722
-0.025395575769294923
-2.812339977700119
-1.246789769851722
-0.025395575769294923
-2.812339977700119
-1.246789769851722
-0.025395575769294923
-2.812339977700119
-1.2461913235217565
-0.025538731520179807
-2.8126154991841594
-1.2461913235217565
-0.025538731520179807
-2.8126154991841594
-1.2461913235217565
-0.025538731520179807
-2.8126154991841594
-1.2461913235217565
-0.025538731520179807
-2.8126154991841594
-1.2478396150415547
-0.0251627302918264
-2.812691383767344
-1.2478396150415547
-0.0251627302918264
-2.812691383767344
-1.2478396150415547
-0.0251627302918264
-2.812691383767344
-1.2478396150415547
-0.0251627302918264
-2.812691383767344
-1.2486270544570461
-0.02513298429868468
-2.8126046298068994
-1.2486270544570461
-0.02513298429868468
-2.8126046298068994
-1.2486270544570461
-0.02513298429868468
-2.8126046298068994
-1.2486270544570461
-0.02513298429868468
-2.8126046298068994
-1.2464252623965861
-0.026937932575812274
-2.812496361721674
-1.2464252623965861
-0.026937932575812274
-2.812496361721674
-1.2464252623965861
-0.026937932575812274
-2.812496361721674
-1.2464252623965861
-0.026937932575812274
-2.812496361721674
-1.2454810014646522
-0.028201270565815825
-2.811724319751497
-1.2454810014646522
-0.028201270565815825
-2.811724319751497
-1.2454810014646522
-0.028201270565815825
-2.811724319751497
-1.2454810014646522
-0.028201270565815825
-2.811724319751497
-1.2470536732773703
-0.027522080113398906
-2.811548051563513
-1.2470536732773703
-0.027522080113398906
-2.811548051563513
-1.2470536732773703
-0.027522080113398906
-2.811548051563513
-1.2470536732773703
-0.027522080113398906
-2.811548051563513
-1.2483308177808499
-0.026160502481049085
-2.812042109704536
-1.2483308177808499
-0.026160502481049085
-2.812042109704536
-1.2483308177808499
-0.026160502481049085
-2.812042109704536
-1.2483308177808499
-0.026160502481049085
-2.812042109704536
-1.2487676772535174
-0.024937285063156005
-2.812571025552953
-1.2487676772535174
-0.024937285063156005
-2.812571025552953
-1.2487676772535174
-0.024937285063156005
-2.812571025552953
-1.2487676772535174
-0.024937285063156005
-2.812571025552953
-1.2500629399759247
-0.024693770548761703
-2.8127310066678897
-1.2500629399759247
-0.024693770548761703
-2.8127310066678897
-1.2500629399759247
-0.024693770548761703
-2.8127310066678897
-1.2500629399759247
-0.024693770548761703
-2.8127310066678897
-1.248739160862141
-0.02421038438871477
-2.8132440019437306
-1.248739160862141
-0.02421038438871477
-2.8132440019437306
-1.248739160862141
-0.02421038438871477
-2.8132440019437306
-1.248739160862141
-0.02421038438871477
-2.8132440019437306
-1.2497517946952104
-0.023914302253183067
-2.8134711338587777
-1.2497517946952104
-0.023914302253183067
-2.8134711338587777
-1.2497517946952104
-0.023914302253183067
-2.8134711338587777
-1.2497517946952104
-0.023914302253183067
-2.8134711338587777
-1.2528317401320042
-0.023693280879978053
-2.813843922039741
-1.2528317401320042
-0.023693280879978053
-2.813843922039741
-1.2528317401320042
-0.023693280879978053
-2.813843922039741
-1.2528317401320042
-0.023693280879978053
-2.813843922039741
-1.25590105109095
-0.023402481163941835
-2.8141200260020462
-1.25590105109095
-0.023402481163941835
-2.8141200260020462
-1.25590105109095
-0.023402481163941835
-2.8141200260020462
-1.25590105109095
-0.023402481163941835
-2.8141200260020462
-1.25878204694817
-0.02317247198484566
-2.814207497342774
-1.25878204694817
-0.02317247198484566
-2.814207497342774
-1.25878204694817
-0.02317247198484566
-2.814207497342774
-1.25878204694817
-0.02317247198484566
-2.814207497342774
-1.259451143555244
-0.023017503206014218
-2.813916668727227
-1.259451143555244
-0.023017503206014218
-2.813916668727227
-1.259451143555244
-0.023017503206014218
-2.813916668727227
-1.259451143555244
-0.023017503206014218
-2.813916668727227
-1.2623235094917926
-0.022696541619570573
-2.8134741027525187
-1.2623235094917926
-0.022696541619570573
-2.8134741027525187
-1.2623235094917926
-0.022696541619570573
-2.8134741027525187
-1.2623235094917926
-0.022696541619570573
-2.8134741027525187
-1.2640045434730687
-0.021607430069001444
-2.812984823099236
-1.2640045434730687
-0.021607430069001444
-2.812984823099236
-1.2640045434730687
-0.021607430069001444
-2.812984823099236
-1.2640045434730687
-0.021607430069001444
-2.812984823099236
-1.263437241458412
-0.020883379654105284
-2.8131229503964517
-1.263437241458412
-0.020883379654105284
-2.8131229503964517
-1.263437241458412
-0.020883379654105284
-2.8131229503964517
-1.263437241458412
-0.020883379654105284
-2.8131229503964517
-1.2642099611808137
-0.02018273005853813
-2.813379852633534
-1.2642099611808137
-0.02018273005853813
-2.813379852633534
-1.2642099611808137
-0.02018273005853813
-2.813379852633534
-1.2642099611808137
-0.02018273005853813
-2.813379852633534
-1.265499487144679
-0.01991542428051589
-2.813713175152147
-1.265499487144679
-0.01991542428051589
-2.813713175152147
-1.265499487144679
-0.01991542428051589
-2.813713175152147
-1.265499487144679
-0.01991542428051589
-2.813713175152147
-1.265499487144679
-0.01991542428051589
-2.813713175152147
-1.265499487144679
-0.01991542428051589
-2.813713175152147
-1.265499487144679
-0.01991542428051589
-2.813713175152147
-1.265499487144679
-0.01991542428051589
-2.813713175152147
-1.2678921560661172
-0.01986487989885274
-2.8137529888525066
-1.2678921560661172
-0.01986487989885274
-2.8137529888525066
-1.2678921560661172
-0.01986487989885274
-2.8137529888525066
-1.2678921560661172
-0.01986487989885274
-2.8137529888525066
-1.2699717853723538
-0.020187137280961095
-2.8139960663712102
-1.2699717853723538
-0.020187137280961095
-2.8139960663712102
-1.2699717853723538
-0.020187137280961095
-2.8139960663712102
-1.2699717853723538
-0.020187137280961095
-2.8139960663712102
-1.2733268656265668
-0.020020199949474085
-2.814912276441995
-1.2733268656265668
-0.020020199949474085
-2.814912276441995
-1.2733268656265668
-0.020020199949474085
-2.814912276441995
-1.2733268656265668
-0.020020199949474085
-2.814912276441995
-1.277472259209285
-0.01925506154049967
-2.8160189406454244
-1.277472259209285
-0.01925506154049967
-2.8160189406454244
-1.277472259209285
-0.01925506154049967
-2.8160189406454244
-1.277472259209285
-0.01925506154049967
-2.8160189406454244
-1.280707957850553
-0.017903898388595685
-2.8167501718153103
-1.280707957850553
-0.017903898388595685
-2.8167501718153103
-1.280707957850553
-0.017903898388595685
-2.8167501718153103
-1.280707957850553
-0.017903898388595685
-2.8167501718153103
-1.2810430106144977
-0.017253756152117623
-2.817182874490277
-1.2810430106144977
-0.017253756152117623
-2.817182874490277
-1.2810430106144977
-0.017253756152117623
-2.817182874490277
-1.2810430106144977
-0.017253756152117623
-2.817182874490277
-1.2792811553651693
-0.016647591785377214
-2.8178699418763156
-1.2792811553651693
-0.016647591785377214
-2.8178699418763156
-1.2792811553651693
-0.016647591785377214
-2.8178699418763156
-1.2792811553651693
-0.016647591785377214
-2.8178699418763156
-1.2787353033730446
-0.014852553662834908
-2.8186578053430655
-1.2787353033730446
-0.014852553662834908
-2.8186578053430655
-1.2787353033730446
-0.014852553662834908
-2.8186578053430655
-1.2787353033730446
-0.014852553662834908
-2.8186578053430655
-1.2793567301688364
-0.014151905689025551
-2.8197259141397106
-1.2793567301688364
-0.014151905689025551
-2.8197259141397106
-1.2793567301688364
-0.014151905689025551
-2.8197259141397106
-1.2793567301688364
-0.014151905689025551
-2.8197259141397106
-1.2791442799230839
-0.01440448631565677
-2.8206396294747393
-1.2791442799230839
-0.01440448631565677
-2.8206396294747393
-1.2791442799230839
-0.01440448631565677
-2.8206396294747393
-1.2791442799230839
-0.01440448631565677
-2.8206396294747393
-1.279832412069602
-0.015328298852910269
-2.8214007197343935
-1.279832412069602
-0.015328298852910269
-2.8214007197343935
-1.279832412069602
-0.015328298852910269
-2.8214007197343935
-1.279832412069602
-0.015328298852910269
-2.8214007197343935
-1.2829392911175002
-0.01640515212544414
-2.8226635652743446
-1.2829392911175002
-0.01640515212544414
-2.8226635652743446
-1.2829392911175002
-0.01640515212544414
-2.8226635652743446
-1.2829392911175002
-0.01640515212544414
-2.8226635652743446
-1.2834999580367847
-0.017647112249717538
-2.823813496058786
-1.2834999580367847
-0.017647112249717538
-2.823813496058786
-1.2834999580367847
-0.017647112249717538
-2.823813496058786
-1.2834999580367847
-0.017647112249717538
-2.823813496058786
-1.284788600843687
-0.019071916299298355
-2.8241209731737933
-1.284788600843687
-0.019071916299298355
-2.8241209731737933
-1.284788600843687
-0.019071916299298355
-2.8241209731737933
-1.284788600843687
-0.019071916299298355
-2.8241209731737933
-1.28824621597289
-0.020174010160652112
-2.824857837972353
-1.28824621597289
-0.020174010160652112
-2.824857837972353
-1.28824621597289
-0.020174010160652112
-2.824857837972353
-1.28824621597289
-0.020174010160652112
-2.824857837972353
-1.2918983369627903
-0.020209114843213645
-2.8260687220287504
-1.2918983369627903
-0.020209114843213645
-2.8260687220287504
-1.2918983369627903
-0.020209114843213645
-2.8260687220287504
-1.2918983369627903
-0.020209114843213645
-2.8260687220287504
-1.2951453586702368
-0.01952143363585598
-2.826625071634344
-1.2951453586702368
-0.01952143363585598
-2.826625071634344
-1.2951453586702368
-0.01952143363585598
-2.826625071634344
-1.2951453586702368
-0.01952143363585598
-2.826625071634344
-1.2988946344115122
-0.01808698412264649
-2.82691813262288
-1.2988946344115122
-0.01808698412264649
-2.82691813262288
-1.2988946344115122
-0.01808698412264649
-2.82691813262288
-1.2988946344115122
-0.01808698412264649
-2.82691813262288
-1.300318084168763
-0.017593218235375453
-2.827567287023263
-1.300318084168763
-0.017593218235375453
-2.827567287023263
-1.300318084168763
-0.017593218235375453
-2.827567287023263
-1.300318084168763
-0.017593218235375453
-2.827567287023263
-1.301018936182568
-0.01803241852791296
-2.8286940871207173
-1.301018936182568
-0.01803241852791296
-2.8286940871207173
-1.301018936182568
-0.01803241852791296
-2.8286940871207173
-1.301018936182568
-0.01803241852791296
-2.8286940871207173
-1.3009091047333792
-0.018942261821278176
-2.829262468723161
-1.3009091047333792
-0.018942261821278176
-2.829262468723161
-1.3009091047333792
-0.018942261821278176
-2.829262468723161
-1.3009091047333792
-0.018942261821278176
-2.829262468723161
-1.3008878065449314
-0.01990952302236548
-2.8293079869682307
-1.3008878065449314
-0.01990952302236548
-2.8293079869682307
-1.3008878065449314
-0.01990952302236548
-2.8293079869682307
-1.3008878065449314
-0.01990952302236548
-2.8293079869682307
-1.3027174337295193
-0.020884973386268883
-2.8297200456892138
-1.3027174337295193
-0.020884973386268883
-2.8297200456892138
-1.3027174337295193
-0.020884973386268883
-2.8297200456892138
-1.3027174337295193
-0.020884973386268883
-2.8297200456892138
-1.3051347555214723
-0.021576226660815694
-2.830900724933944
-1.3051347555214723
-0.021576226660815694
-2.830900724933944
-1.3051347555214723
-0.021576226660815694
-2.830900724933944
-1.3051347555214723
-0.021576226660815694
-2.830900724933944
-1.308365825926208
-0.02191899010029997
-2.831766077192868
-1.308365825926208
-0.02191899010029997
-2.831766077192868
-1.308365825926208
-0.02191899010029997
-2.831766077192868
-1.308365825926208
-0.02191899010029997
-2.831766077192868
-1.3139935391293223
-0.021793227919641316
-2.8326824048121244
-1.3139935391293223
-0.021793227919641316
-2.8326824048121244
-1.3139935391293223
-0.021793227919641316
-2.8326824048121244
-1.3139935391293223
-0.021793227919641316
-2.8326824048121244
-1.3175682113485196
-0.02211188808824533
-2.833366180740392
-1.3175682113485196
-0.02211188808824533
-2.833366180740392
-1.3175682113485196
-0.02211188808824533
-2.833366180740392
-1.3175682113485196
-0.02211188808824533
-2.833366180740392
-1.3204342643673033
-0.022346684982291937
-2.8342179618174335
-1.3204342643673033
-0.022346684982291937
-2.8342179618174335
-1.3204342643673033
-0.022346684982291937
-2.8342179618174335
-1.3204342643673033
-0.022346684982291937
-2.8342179618174335
-1.3228091225193057
-0.022259180049682383
-2.834762945162022
-1.3228091225193057
-0.022259180049682383
-2.834762945162022
-1.3228091225193057
-0.022259180049682383
-2.834762945162022
-1.3228091225193057
-0.022259180049682383
-2.834762945162022
-1.3241573348386384
-0.022407806269627146
-2.8354079433310937
-1.3241573348386384
-0.022407806269627146
-2.8354079433310937
-1.3241573348386384
-0.022407806269627146
-2.8354079433310937
-1.3241573348386384
-0.022407806269627146
-2.8354079433310937
-1.3238083759142973
-0.022451002828108066
-2.8361908191294933
-1.3238083759142973
-0.022451002828108066
-2.8361908191294933
-1.3238083759142973
-0.022451002828108066
-2.8361908191294933
-1.3238083759142973
-0.022451002828108066
-2.8361908191294933
-1.3235831696246942
-0.023254337493292088
-2.836379160371336
-1.3235831696246942
-0.023254337493292088
-2.836379160371336
-1.3235831696246942
-0.023254337493292088
-2.836379160371336
-1.3235831696246942
-0.023254337493292088
-2.836379160371336
-1.3235986773740853
-0.02334937796835873
-2.8363048309241035
-1.3235986773740853
-0.02334937796835873
-2.8363048309241035
-1.3235986773740853
-0.02334937796835873
-2.8363048309241035
-1.3235986773740853
-0.02334937796835873
-2.8363048309241035
-1.324376433452175
-0.023284342448084933
-2.8365587638586742
-1.324376433452175
-0.023284342448084933
-2.8365587638586742
-1.324376433452175
-0.023284342448084933
-2.8365587638586742
-1.324376433452175
-0.023284342448084933
-2.8365587638586742
-1.3257059676448515
-0.022667306410415887
-2.8370360493530895
-1.3257059676448515
-0.022667306410415887
-2.8370360493530895
-1.3257059676448515
-0.022667306410415887
-2.8370360493530895
-1.3257059676448515
-0.022667306410415887
-2.8370360493530895
-1.3259550457531777
-0.022564496426691855
-2.8375495240106123
-1.3259550457531777
-0.022564496426691855
-2.8375495240106123
-1.3259550457531777
-0.022564496426691855
-2.8375495240106123
-1.3259550457531777
-0.022564496426691855
-2.8375495240106123
-1.327092490220956
-0.0224773397794969
-2.8382532373457234
-1.327092490220956
-0.0224773397794969
-2.8382532373457234
-1.327092490220956
-0.0224773397794969
-2.8382532373457234
-1.327092490220956
-0.0224773397794969
-2.8382532373457234
-1.3288925672205547
-0.022193708558436925
-2.8390114779816282
-1.3288925672205547
-0.022193708558436925
-2.8390114779816282
-1.3288925672205547
-0.022193708558436925
-2.8390114779816282
-1.3288925672205547
-0.022193708558436925
-2.8390114779816282
-1.329374806644859
-0.022998521219838523
-2.8397317366710446
-1.329374806644859
-0.022998521219838523
-2.8397317366710446
-1.329374806644859
-0.022998521219838523
-2.8397317366710446
-1.329374806644859
-0.022998521219838523
-2.8397317366710446
-1.3278953297999365
-0.023700920879218993
-2.8401521831200283
-1.3278953297999365
-0.023700920879218993
-2.8401521831200283
-1.3278953297999365
-0.023700920879218993
-2.8401521831200283
-1.3278953297999365
-0.023700920879218993
-2.8401521831200283
-1.3298375544931265
-0.022551481607486473
-2.840644017352121
-1.3298375544931265
-0.022551481607486473
-2.840644017352121
-1.3298375544931265
-0.022551481607486473
-2.840644017352121
-1.3298375544931265
-0.022551481607486473
-2.840644017352121
-1.3306860131916292
-0.020442879391543864
-2.8417348188316613
-1.3306860131916292
-0.020442879391543864
-2.8417348188316613
-1.3306860131916292
-0.020442879391543864
-2.8417348188316613
-1.3306860131916292
-0.020442879391543864
-2.8417348188316613
-1.3279905731137025
-0.018870674317855635
-2.842834280342445
-1.3279905731137025
-0.018870674317855635
-2.842834280342445
-1.3279905731137025
-0.018870674317855635
-2.842834280342445
-1.3279905731137025
-0.018870674317855635
-2.842834280342445
-1.3246750388722488
-0.018427984311640933
-2.8440620880819165
-1.3246750388722488
-0.018427984311640933
-2.8440620880819165
-1.3246750388722488
-0.018427984311640933
-2.8440620880819165
-1.3246750388722488
-0.018427984311640933
-2.8440620880819165
-1.3228114417768668
-0.017612316304803727
-2.8450960076804237
-1.3228114417768668
-0.017612316304803727
-2.8450960076804237
-1.3228114417768668
-0.017612316304803727
-2.8450960076804237
-1.3228114417768668
-0.017612316304803727
-2.8450960076804237
-1.319896085110232
-0.015696185643191606
-2.8463171349290652
-1.319896085110232
-0.015696185643191606
-2.8463171349290652
-1.319896085110232
-0.015696185643191606
-2.8463171349290652
-1.319896085110232
-0.015696185643191606
-2.8463171349290652
-1.3171736605453188
-0.011399473889626196
-2.8473399954000365
-1.3171736605453188
-0.011399473889626196
-2.8473399954000365
-1.3171736605453188
-0.011399473889626196
-2.8473399954000365
-1.3171736605453188
-0.011399473889626196
-2.8473399954000365
-1.3150713708733293
-0.00554170106220438
-2.8474341988626937
-1.3150713708733293
-0.00554170106220438
-2.8474341988626937
-1.3150713708733293
-0.00554170106220438
-2.8474341988626937
-1.3150713708733293
-0.00554170106220438
-2.8474341988626937
-1.3112176252743
-8.608201572926455E-4
-2.847902305717903
-1.3112176252743
-8.608201572926455E-4
-2.847902305717903
-1.3112176252743
-8.608201572926455E-4
-2.847902305717903
-1.3112176252743
-8.608201572926455E-4
-2.847902305717903
-1.3061010433700324
0.0035310155829429432
-2.8488928236964903
-1.3061010433700324
0.0035310155829429432
-2.8488928236964903
-1.3061010433700324
0.0035310155829429432
-2.8488928236964903
-1.3061010433700324
0.0035310155829429432
-2.8488928236964903
-1.3006380780636595
0.008161544776328956
-2.851318164399844
-1.3006380780636595
0.008161544776328956
-2.851318164399844
-1.3006380780636595
0.008161544776328956
-2.851318164399844
-1.3006380780636595
0.008161544776328956
-2.851318164399844
-1.2901518677407806
0.013505907236175008
-2.8538320073072407
-1.2901518677407806
0.013505907236175008
-2.8538320073072407
-1.2901518677407806
0.013505907236175008
-2.8538320073072407
-1.2901518677407806
0.013505907236175008
-2.8538320073072407
-1.2746796131426292
0.020354258825855443
-2.856157316698166
-1.2746796131426292
0.020354258825855443
-2.856157316698166
-1.2746796131426292
0.020354258825855443
-2.856157316698166
-1.2746796131426292
0.020354258825855443
-2.856157316698166
-1.2639738786033927
0.028127346282493363
-2.8597986961541806
-1.2639738786033927
0.028127346282493363
-2.8597986961541806
-1.2639738786033927
0.028127346282493363
-2.8597986961541806
-1.2639738786033927
0.028127346282493363
-2.8597986961541806
-1.2577553378358042
0.037353582673558226
-2.863386031155481
-1.2577553378358042
0.037353582673558226
-2.863386031155481
-1.2577553378358042
0.037353582673558226
-2.863386031155481
-1.2577553378358042
0.037353582673558226
-2.863386031155481
-1.2498716306342292
0.04717420400289552
-2.8663906686000566
-1.2498716306342292
0.04717420400289552
-2.8663906686000566
-1.2498716306342292
0.04717420400289552
-2.8663906686000566
-1.2498716306342292
0.04717420400289552
-2.8663906686000566
-1.23800487258415
0.05657017493683897
-2.8692717182069605
-1.23800487258415
0.05657017493683897
-2.8692717182069605
-1.23800487258415
0.05657017493683897
-2.8692717182069605
-1.23800487258415
0.05657017493683897
-2.8692717182069605
-1.2264776255454157
0.06685222800245524
-2.87258853027192
-1.2264776255454157
0.06685222800245524
-2.87258853027192
-1.2264776255454157
0.06685222800245524
-2.87258853027192
-1.2264776255454157
0.06685222800245524
-2.87258853027192
-1.221942135816345
0.07718122377922441
-2.8773497588683092
-1.221942135816345
0.07718122377922441
-2.8773497588683092
-1.221942135816345
0.07718122377922441
-2.8773497588683092
-1.221942135816345
0.07718122377922441
-2.8773497588683092
-1.2249053069274636
0.08679624897337476
-2.8822581367870677
-1.2249053069274636
0.08679624897337476
-2.8822581367870677
-1.2249053069274636
0.08679624897337476
-2.8822581367870677
-1.2249053069274636
0.08679624897337476
-2.8822581367870677
-1.2315574661788227
0.09440385851069144
-2.8863809616417964
-1.2315574661788227
0.09440385851069144
-2.8863809616417964
-1.2315574661788227
0.09440385851069144
-2.8863809616417964
-1.2315574661788227
0.09440385851069144
-2.8863809616417964
-1.2346048530698677
0.10024998542073069
-2.8906871733601505
-1.2346048530698677
0.10024998542073069
-2.8906871733601505
-1.2346048530698677
0.10024998542073069
-2.8906871733601505
-1.2346048530698677
0.10024998542073069
-2.8906871733601505
-1.2358868314159266
0.10488043898387828
-2.893763313391878
-1.2358868314159266
0.10488043898387828
-2.893763313391878
-1.2358868314159266
0.10488043898387828
-2.893763313391878
-1.2358868314159266
0.10488043898387828
-2.893763313391878
-1.2350621866011817
0.10855270431826053
-2.8951749361099193
-1.2350621866011817
0.10855270431826053
-2.8951749361099193
-1.2350621866011817
0.10855270431826053
-2.8951749361099193
-1.2350621866011817
0.10855270431826053
-2.8951749361099193
-1.2335039602432056
0.1105634452041486
-2.8955857572252763
-1.2335039602432056
0.1105634452041486
-2.8955857572252763
-1.2335039602432056
0.1105634452041486
-2.8955857572252763
-1.2335039602432056
0.1105634452041486
-2.8955857572252763
-1.2316461863390318
0.11161277535054066
-2.8951629142193216
-1.2316461863390318
0.11161277535054066
-2.8951629142193216
-1.2316461863390318
0.11161277535054066
-2.8951629142193216
-1.2316461863390318
0.11161277535054066
-2.8951629142193216
-1.2307946751183858
0.1119895215932076
-2.894864847785655
-1.2307946751183858
0.1119895215932076
-2.894864847785655
-1.2307946751183858
0.1119895215932076
-2.894864847785655
-1.2307946751183858
0.1119895215932076
-2.894864847785655
-1.2298520839253138
0.11082851688217533
-2.89438097044624
-1.2298520839253138
0.11082851688217533
-2.89438097044624
-1.2298520839253138
0.11082851688217533
-2.89438097044624
-1.2298520839253138
0.11082851688217533
-2.89438097044624
-1.2284413787907802
0.10845109179404344
-2.8938111092522694
-1.2284413787907802
0.10845109179404344
-2.8938111092522694
-1.2284413787907802
0.10845109179404344
-2.8938111092522694
-1.2284413787907802
0.10845109179404344
-2.8938111092522694
-1.2267845715571832
0.10535419360496293
-2.893356365650807
-1.2267845715571832
0.10535419360496293
-2.893356365650807
-1.2267845715571832
0.10535419360496293
-2.893356365650807
-1.2267845715571832
0.10535419360496293
-2.893356365650807
-1.2260327621947837
0.10170757471593896
-2.893254923512964
-1.2260327621947837
0.10170757471593896
-2.893254923512964
-1.2260327621947837
0.10170757471593896
-2.893254923512964
-1.2260327621947837
0.10170757471593896
-2.893254923512964
-1.2249932666329433
0.09787010725482631
-2.893785084738044
-1.2249932666329433
0.09787010725482631
-2.893785084738044
-1.2249932666329433
0.09787010725482631
-2.893785084738044
-1.2249932666329433
0.09787010725482631
-2.893785084738044
-1.2239521210947135
0.09403322579659591
-2.894319051727997
-1.2239521210947135
0.09403322579659591
-2.894319051727997
-1.2239521210947135
0.09403322579659591
-2.894319051727997
-1.2239521210947135
0.09403322579659591
-2.894319051727997
-1.2250833887441859
0.09023976264351896
-2.8946322618302887
-1.2250833887441859
0.09023976264351896
-2.8946322618302887
-1.2250833887441859
0.09023976264351896
-2.8946322618302887
-1.2250833887441859
0.09023976264351896
-2.8946322618302887
-1.2259764253556389
0.08660084520187253
-2.8955233677911623
-1.2259764253556389
0.08660084520187253
-2.8955233677911623
-1.2259764253556389
0.08660084520187253
-2.8955233677911623
-1.2259764253556389
0.08660084520187253
-2.8955233677911623
-1.2264808568264711
0.08390200378288326
-2.896481812854857
-1.2264808568264711
0.08390200378288326
-2.896481812854857
-1.2264808568264711
0.08390200378288326
-2.896481812854857
-1.2264808568264711
0.08390200378288326
-2.896481812854857
-1.226944823927804
0.08189838273518832
-2.896870530842852
-1.226944823927804
0.08189838273518832
-2.896870530842852
-1.226944823927804
0.08189838273518832
-2.896870530842852
-1.226944823927804
0.08189838273518832
-2.896870530842852
-1.2264570342731944
0.08039328706099716
-2.8971991823152146
-1.2264570342731944
0.08039328706099716
-2.8971991823152146
-1.2264570342731944
0.08039328706099716
-2.8971991823152146
-1.2264570342731944
0.08039328706099716
-2.8971991823152146
-1.2267103178330159
0.07922290086707502
-2.897423436071798
-1.2267103178330159
0.07922290086707502
-2.897423436071798
-1.2267103178330159
0.07922290086707502
-2.897423436071798
-1.2267103178330159
0.07922290086707502
-2.897423436071798
-1.22727876167164
0.07777664095626029
-2.8978922286897775
-1.22727876167164
0.07777664095626029
-2.8978922286897775
-1.22727876167164
0.07777664095626029
-2.8978922286897775
-1.22727876167164
0.07777664095626029
-2.8978922286897775
-1.227221861958831
0.07694208378918523
-2.898209132608022
-1.227221861958831
0.07694208378918523
-2.898209132608022
-1.227221861958831
0.07694208378918523
-2.898209132608022
-1.227221861958831
0.07694208378918523
-2.898209132608022
-1.2273811591868014
0.07638569395458018
-2.897973790242034
-1.2273811591868014
0.07638569395458018
-2.897973790242034
-1.2273811591868014
0.07638569395458018
-2.897973790242034
-1.2273811591868014
0.07638569395458018
-2.897973790242034
-1.227728740926629
0.07489948401405455
-2.897809884598476
-1.227728740926629
0.07489948401405455
-2.897809884598476
-1.227728740926629
0.07489948401405455
-2.897809884598476
-1.227728740926629
0.07489948401405455
-2.897809884598476
-1.2271180980582361
0.07287627900241053
-2.8977896014754894
-1.2271180980582361
0.07287627900241053
-2.8977896014754894
-1.2271180980582361
0.07287627900241053
-2.8977896014754894
-1.2271180980582361
0.07287627900241053
-2.8977896014754894
-1.2268867870463944
0.07052942748822051
-2.897666561120245
-1.2268867870463944
0.07052942748822051
-2.897666561120245
-1.2268867870463944
0.07052942748822051
-2.897666561120245
-1.2268867870463944
0.07052942748822051
-2.897666561120245
-1.2273036245618067
0.06789025197422277
-2.897453643349161
-1.2273036245618067
0.06789025197422277
-2.897453643349161
-1.2273036245618067
0.06789025197422277
-2.897453643349161
-1.2273036245618067
0.06789025197422277
-2.897453643349161
-1.227132630022993
0.06565455514276468
-2.897390603990984
-1.227132630022993
0.06565455514276468
-2.897390603990984
-1.227132630022993
0.06565455514276468
-2.897390603990984
-1.227132630022993
0.06565455514276468
-2.897390603990984
-1.2283209232057308
0.0644827178563915
-2.896957624157887
-1.2283209232057308
0.0644827178563915
-2.896957624157887
-1.2283209232057308
0.0644827178563915
-2.896957624157887
-1.2283209232057308
0.0644827178563915
-2.896957624157887
-1.2291677968667694
0.06391465338729847
-2.896658852386118
-1.2291677968667694
0.06391465338729847
-2.896658852386118
-1.2291677968667694
0.06391465338729847
-2.896658852386118
-1.2291677968667694
0.06391465338729847
-2.896658852386118
-1.2288857925456713
0.0639226279343133
-2.89637684806502
-1.2288857925456713
0.0639226279343133
-2.89637684806502
-1.2288857925456713
0.0639226279343133
-2.89637684806502
-1.2288857925456713
0.0639226279343133
-2.89637684806502
-1.2288857925456713
0.0639226279343133
-2.89637684806502
-1.2288857925456713
0.0639226279343133
-2.89637684806502
-1.2288857925456713
0.0639226279343133
-2.89637684806502
-1.2288857925456713
0.0639226279343133
-2.89637684806502
-1.2293773321295962
0.06399773749014138
-2.8959448935619663
-1.2293773321295962
0.06399773749014138
-2.8959448935619663
-1.2293773321295962
0.06399773749014138
-2.8959448935619663
-1.2293773321295962
0.06399773749014138
-2.8959448935619663
-1.2302484422160185
0.06404536003826065
-2.8956378230025797
-1.2302484422160185
0.06404536003826065
-2.8956378230025797
-1.2302484422160185
0.06404536003826065
-2.8956378230025797
-1.2302484422160185
0.06404536003826065
-2.8956378230025797
-1.2304816135255874
0.06398995561513185
-2.8951226330575324
-1.2304816135255874
0.06398995561513185
-2.8951226330575324
-1.2304816135255874
0.06398995561513185
-2.8951226330575324
-1.2304816135255874
0.06398995561513185
-2.8951226330575324
-1.2304945512788126
0.0636729906782766
-2.8943074124844483
-1.2304945512788126
0.0636729906782766
-2.8943074124844483
-1.2304945512788126
0.0636729906782766
-2.8943074124844483
-1.2304945512788126
0.0636729906782766
-2.8943074124844483
-1.2297704771795486
0.06278367049376857
-2.893709800047885
-1.2297704771795486
0.06278367049376857
-2.893709800047885
-1.2297704771795486
0.06278367049376857
-2.893709800047885
-1.2297704771795486
0.06278367049376857
-2.893709800047885
-1.228921498970679
0.06228870750798508
-2.8929639742719444
-1.228921498970679
0.06228870750798508
-2.8929639742719444
-1.228921498970679
0.06228870750798508
-2.8929639742719444
-1.228921498970679
0.06228870750798508
-2.8929639742719444
-1.229642052295567
0.0617619321306258
-2.8919467965912165
-1.229642052295567
0.0617619321306258
-2.8919467965912165
-1.229642052295567
0.0617619321306258
-2.8919467965912165
-1.229642052295567
0.0617619321306258
-2.8919467965912165
-1.2298593781144513
0.06122883487721971
-2.891262570104961
-1.2298593781144513
0.06122883487721971
-2.891262570104961
-1.2298593781144513
0.06122883487721971
-2.891262570104961
-1.2298593781144513
0.06122883487721971
-2.891262570104961
-1.2286676503234242
0.06100922869504859
-2.8902534567069456
-1.2286676503234242
0.06100922869504859
-2.8902534567069456
-1.2286676503234242
0.06100922869504859
-2.8902534567069456
-1.2286676503234242
0.06100922869504859
-2.8902534567069456
-1.2284011341509422
0.06069857424124594
-2.889157297655634
-1.2284011341509422
0.06069857424124594
-2.889157297655634
-1.2284011341509422
0.06069857424124594
-2.889157297655634
-1.2284011341509422
0.06069857424124594
-2.889157297655634
-1.227019055164507
0.06016548187607599
-2.88855535250377
-1.227019055164507
0.06016548187607599
-2.88855535250377
-1.227019055164507
0.06016548187607599
-2.88855535250377
-1.227019055164507
0.06016548187607599
-2.88855535250377
-1.2260044420377456
0.06013239018903296
-2.8875407393770085
-1.2260044420377456
0.06013239018903296
-2.8875407393770085
-1.2260044420377456
0.06013239018903296
-2.8875407393770085
-1.2260044420377456
0.06013239018903296
-2.8875407393770085
-1.2260221894973025
0.06033124705203542
-2.8866259480956478
-1.2260221894973025
0.06033124705203542
-2.8866259480956478
-1.2260221894973025
0.06033124705203542
-2.8866259480956478
-1.2260221894973025
0.06033124705203542
-2.8866259480956478
-1.2256160091519344
0.06043515737644832
-2.8859647907571375
-1.2256160091519344
0.06043515737644832
-2.8859647907571375
-1.2256160091519344
0.06043515737644832
-2.8859647907571375
-1.2256160091519344
0.06043515737644832
-2.8859647907571375
-1.2238528918367526
0.06103490635073006
-2.885598511141487
-1.2238528918367526
0.06103490635073006
-2.885598511141487
-1.2238528918367526
0.06103490635073006
-2.885598511141487
-1.2238528918367526
0.06103490635073006
-2.885598511141487
-1.2229000324194472
0.06201493722087638
-2.885276955095313
-1.2229000324194472
0.06201493722087638
-2.885276955095313
-1.2229000324194472
0.06201493722087638
-2.885276955095313
-1.2229000324194472
0.06201493722087638
-2.885276955095313
-1.223283742141644
0.06305468567137834
-2.8853676102510977
-1.223283742141644
0.06305468567137834
-2.8853676102510977
-1.223283742141644
0.06305468567137834
-2.8853676102510977
-1.223283742141644
0.06305468567137834
-2.8853676102510977
-1.22709384184005
0.06368518090815393
-2.885293644414739
-1.22709384184005
0.06368518090815393
-2.885293644414739
-1.22709384184005
0.06368518090815393
-2.885293644414739
-1.22709384184005
0.06368518090815393
-2.885293644414739
-1.2293664813733547
0.061085963841360134
-2.8849898731408525
-1.2293664813733547
0.061085963841360134
-2.8849898731408525
-1.2293664813733547
0.061085963841360134
-2.8849898731408525
-1.2293664813733547
0.061085963841360134
-2.8849898731408525
-1.2324913846011547
0.05630439261948495
-2.8815801871966644
-1.2324913846011547
0.05630439261948495
-2.8815801871966644
-1.2324913846011547
0.05630439261948495
-2.8815801871966644
-1.2324913846011547
0.05630439261948495
-2.8815801871966644
-1.2387096783605127
0.05023030369949999
-2.8763949264263022
-1.2387096783605127
0.05023030369949999
-2.8763949264263022
-1.2387096783605127
0.05023030369949999
-2.8763949264263022
-1.2387096783605127
0.05023030369949999
-2.8763949264263022
-1.2398554902044472
0.047715298988184926
-2.8725572904462204
-1.2398554902044472
0.047715298988184926
-2.8725572904462204
-1.2398554902044472
0.047715298988184926
-2.8725572904462204
-1.2398554902044472
0.047715298988184926
-2.8725572904462204
-1.2325532542839555
0.04713834658160671
-2.8658634986201177
-1.2325532542839555
0.04713834658160671
-2.8658634986201177
-1.2325532542839555
0.04713834658160671
-2.8658634986201177
-1.2325532542839555
0.04713834658160671
-2.8658634986201177
-1.2168183546506388
0.04832691040366817
-2.8589527265643833
-1.2168183546506388
0.04832691040366817
-2.8589527265643833
-1.2168183546506388
0.04832691040366817
-2.8589527265643833
-1.2168183546506388
0.04832691040366817
-2.8589527265643833
-1.1949999215119667
0.045508948118268736
-2.8519280044764153
-1.1949999215119667
0.045508948118268736
-2.8519280044764153
-1.1949999215119667
0.045508948118268736
-2.8519280044764153
-1.1949999215119667
0.045508948118268736
-2.8519280044764153
-1.1846963220724787
0.035889221429372904
-2.847883466207554
-1.1846963220724787
0.035889221429372904
-2.847883466207554
-1.1846963220724787
0.035889221429372904
-2.847883466207554
-1.1846963220724787
0.035889221429372904
-2.847883466207554
-1.1938289446831376
0.02174388746878658
-2.846964840245267
-1.1938289446831376
0.02174388746878658
-2.846964840245267
-1.1938289446831376
0.02174388746878658
-2.846964840245267
-1.1938289446831376
0.02174388746878658
-2.846964840245267
-1.2118418963474058
0.009681331319835897
-2.846129412418943
-1.2118418963474058
0.009681331319835897
-2.846129412418943
-1.2118418963474058
0.009681331319835897
-2.846129412418943
-1.2118418963474058
0.009681331319835897
-2.846129412418943
-1.2394462660323549
0.002182966125799646
-2.8493890244492084
-1.2394462660323549
0.002182966125799646
-2.8493890244492084
-1.2394462660323549
0.002182966125799646
-2.8493890244492084
-1.2394462660323549
0.002182966125799646
-2.8493890244492084
-1.2562146009748858
-0.004080115128844322
-2.854515464791578
-1.2562146009748858
-0.004080115128844322
-2.854515464791578
-1.2562146009748858
-0.004080115128844322
-2.854515464791578
-1.2562146009748858
-0.004080115128844322
-2.854515464791578
-1.2630298417708192
-0.013255389725882485
-2.85667983383134
-1.2630298417708192
-0.013255389725882485
-2.85667983383134
-1.2630298417708192
-0.013255389725882485
-2.85667983383134
-1.2630298417708192
-0.013255389725882485
-2.85667983383134
-1.2760220859589988
-0.024690566890991122
-2.856083270875285
-1.2760220859589988
-0.024690566890991122
-2.856083270875285
-1.2760220859589988
-0.024690566890991122
-2.856083270875285
-1.2760220859589988
-0.024690566890991122
-2.856083270875285
-1.2863652334196847
-0.03541611842614389
-2.854964434939457
-1.2863652334196847
-0.03541611842614389
-2.854964434939457
-1.2863652334196847
-0.03541611842614389
-2.854964434939457
-1.2863652334196847
-0.03541611842614389
-2.854964434939457
-1.305632394400575
-0.042668392359595325
-2.8533155023094157
-1.305632394400575
-0.042668392359595325
-2.8533155023094157
-1.305632394400575
-0.042668392359595325
-2.8533155023094157
-1.305632394400575
-0.042668392359595325
-2.8533155023094157
-1.3323506795344509
-0.045596726150623594
-2.8538419286136882
-1.3323506795344509
-0.045596726150623594
-2.8538419286136882
-1.3323506795344509
-0.045596726150623594
-2.8538419286136882
-1.3323506795344509
-0.045596726150623594
-2.8538419286136882
-1.354847717127695
-0.044570493003522414
-2.856133719517156
-1.354847717127695
-0.044570493003522414
-2.856133719517156
-1.354847717127695
-0.044570493003522414
-2.856133719517156
-1.354847717127695
-0.044570493003522414
-2.856133719517156
-1.3631759409706974
-0.04395632086124558
-2.8570633381791257
-1.3631759409706974
-0.04395632086124558
-2.8570633381791257
-1.3631759409706974
-0.04395632086124558
-2.8570633381791257
-1.3631759409706974
-0.04395632086124558
-2.8570633381791257
-1.3673372655656062
-0.043059718370165076
-2.858169164758818
-1.3673372655656062
-0.043059718370165076
-2.858169164758818
-1.3673372655656062
-0.043059718370165076
-2.858169164758818
-1.3673372655656062
-0.043059718370165076
-2.858169164758818
-1.3677536632044835
-0.04231124431503267
-2.8588816901486664
-1.3677536632044835
-0.04231124431503267
-2.8588816901486664
-1.3677536632044835
-0.04231124431503267
-2.8588816901486664
-1.3677536632044835
-0.04231124431503267
-2.8588816901486664
-1.3619968080666107
-0.0425533866540066
-2.85947118833996
-1.3619968080666107
-0.0425533866540066
-2.85947118833996
-1.3619968080666107
-0.0425533866540066
-2.85947118833996
-1.3619968080666107
-0.0425533866540066
-2.85947118833996
-1.3596865159431426
-0.042382099853987984
-2.860079457351617
-1.3596865159431426
-0.042382099853987984
-2.860079457351617
-1.3596865159431426
-0.042382099853987984
-2.860079457351617
-1.3596865159431426
-0.042382099853987984
-2.860079457351617
-1.3658978373564288
-0.04170226651199192
-2.861374634364389
-1.3658978373564288
-0.04170226651199192
-2.861374634364389
-1.3658978373564288
-0.04170226651199192
-2.861374634364389
-1.3658978373564288
-0.04170226651199192
-2.861374634364389
-1.3698733152986193
-0.040733846448831414
-2.8635372043268656
-1.3698733152986193
-0.040733846448831414
-2.8635372043268656
-1.3698733152986193
-0.040733846448831414
-2.8635372043268656
-1.3698733152986193
-0.040733846448831414
-2.8635372043268656
-1.3727771199330692
-0.04030719228395935
-2.865398038229966
-1.3727771199330692
-0.04030719228395935
-2.865398038229966
-1.3727771199330692
-0.04030719228395935
-2.865398038229966
-1.3727771199330692
-0.04030719228395935
-2.865398038229966
-1.3753364933127334
-0.04051236329541021
-2.8675983165095476
-1.3753364933127334
-0.04051236329541021
-2.8675983165095476
-1.3753364933127334
-0.04051236329541021
-2.8675983165095476
-1.3753364933127334
-0.04051236329541021
-2.8675983165095476
-1.374657233194096
-0.04141752932456127
-2.8699711133530763
-1.374657233194096
-0.04141752932456127
-2.8699711133530763
-1.374657233194096
-0.04141752932456127
-2.8699711133530763
-1.374657233194096
-0.04141752932456127
-2.8699711133530763
-1.377163547877542
-0.04127397348030594
-2.872307903018147
-1.377163547877542
-0.04127397348030594
-2.872307903018147
-1.377163547877542
-0.04127397348030594
-2.872307903018147
-1.377163547877542
-0.04127397348030594
-2.872307903018147
-1.383112278691149
-0.04072653882185095
-2.874042811814457
-1.383112278691149
-0.04072653882185095
-2.874042811814457
-1.383112278691149
-0.04072653882185095
-2.874042811814457
-1.383112278691149
-0.04072653882185095
-2.874042811814457
-1.3828405702047142
-0.04075089284260456
-2.8759760807796675
-1.3828405702047142
-0.04075089284260456
-2.8759760807796675
-1.3828405702047142
-0.04075089284260456
-2.8759760807796675
-1.3828405702047142
-0.04075089284260456
-2.8759760807796675
-1.380759575294577
-0.04168229735645415
-2.8773851326898447
-1.380759575294577
-0.04168229735645415
-2.8773851326898447
-1.380759575294577
-0.04168229735645415
-2.8773851326898447
-1.380759575294577
-0.04168229735645415
-2.8773851326898447
-1.3818810474953729
-0.04297482405161077
-2.8787220485416207
-1.3818810474953729
-0.04297482405161077
-2.8787220485416207
-1.3818810474953729
-0.04297482405161077
-2.8787220485416207
-1.3818810474953729
-0.04297482405161077
-2.8787220485416207
-1.380780185200321
-0.043926138738880335
-2.8785556648036223
-1.380780185200321
-0.043926138738880335
-2.8785556648036223
-1.380780185200321
-0.043926138738880335
-2.8785556648036223
-1.380780185200321
-0.043926138738880335
-2.8785556648036223
-1.377499048915991
-0.045589736367373755
-2.8785716134468142
-1.377499048915991
-0.045589736367373755
-2.8785716134468142
-1.377499048915991
-0.045589736367373755
-2.8785716134468142
-1.377499048915991
-0.045589736367373755
-2.8785716134468142
-1.3786302713899241
-0.04690494347114362
-2.8787699374937095
-1.3786302713899241
-0.04690494347114362
-2.8787699374937095
-1.3786302713899241
-0.04690494347114362
-2.8787699374937095
-1.3786302713899241
-0.04690494347114362
-2.8787699374937095
-1.3771933769594427
-0.04808429898741496
-2.8794112732051023
-1.3771933769594427
-0.04808429898741496
-2.8794112732051023
-1.3771933769594427
-0.04808429898741496
-2.8794112732051023
-1.3771933769594427
-0.04808429898741496
-2.8794112732051023
-1.3782797779863762
-0.04905927048027593
-2.8795766140291743
-1.3782797779863762
-0.04905927048027593
-2.8795766140291743
-1.3782797779863762
-0.04905927048027593
-2.8795766140291743
-1.3782797779863762
-0.04905927048027593
-2.8795766140291743
-1.3801039091277734
-0.049607094976313625
-2.879520971564404
-1.3801039091277734
-0.049607094976313625
-2.879520971564404
-1.3801039091277734
-0.049607094976313625
-2.879520971564404
-1.3801039091277734
-0.049607094976313625
-2.879520971564404
-1.3834858399098393
-0.050614587348789375
-2.8788779962701634
-1.3834858399098393
-0.050614587348789375
-2.8788779962701634
-1.3834858399098393
-0.050614587348789375
-2.8788779962701634
-1.3834858399098393
-0.050614587348789375
-2.8788779962701634
-1.383855014795374
-0.05134321866079213
-2.878065880899347
-1.383855014795374
-0.05134321866079213
-2.878065880899347
-1.383855014795374
-0.05134321866079213
-2.878065880899347
-1.383855014795374
-0.05134321866079213
-2.878065880899347
-1.380095807432989
-0.05200603056429909
-2.877383447360086
-1.380095807432989
-0.05200603056429909
-2.877383447360086
-1.380095807432989
-0.05200603056429909
-2.877383447360086
-1.380095807432989
-0.05200603056429909
-2.877383447360086
-1.3787144891507843
-0.05271747578789824
-2.8765078025213677
-1.3787144891507843
-0.05271747578789824
-2.8765078025213677
-1.3787144891507843
-0.05271747578789824
-2.8765078025213677
-1.3787144891507843
-0.05271747578789824
-2.8765078025213677
-1.3845323588483072
-0.05306191480500411
-2.876541237770525
-1.3845323588483072
-0.05306191480500411
-2.876541237770525
-1.3845323588483072
-0.05306191480500411
-2.876541237770525
-1.3845323588483072
-0.05306191480500411
-2.876541237770525
-1.3888110358400734
-0.0529954451439324
-2.8766508414589347
-1.3888110358400734
-0.0529954451439324
-2.8766508414589347
-1.3888110358400734
-0.0529954451439324
-2.8766508414589347
-1.3888110358400734
-0.0529954451439324
-2.8766508414589347
-1.392190031757013
-0.05273587626988921
-2.8764004590225825
-1.392190031757013
-0.05273587626988921
-2.8764004590225825
-1.392190031757013
-0.05273587626988921
-2.8764004590225825
-1.392190031757013
-0.05273587626988921
-2.8764004590225825
-1.3920929934634727
-0.05328414986944487
-2.8762803845792972
-1.3920929934634727
-0.05328414986944487
-2.8762803845792972
-1.3920929934634727
-0.05328414986944487
-2.8762803845792972
-1.3920929934634727
-0.05328414986944487
-2.8762803845792972
-1.400070709780255
-0.052452557493959856
-2.8734654212183233
-1.400070709780255
-0.052452557493959856
-2.8734654212183233
-1.400070709780255
-0.052452557493959856
-2.8734654212183233
-1.400070709780255
-0.052452557493959856
-2.8734654212183233
-1.3900751481841775
-0.0648250996459034
-2.8736440258067906
-1.3900751481841775
-0.0648250996459034
-2.8736440258067906
-1.3900751481841775
-0.0648250996459034
-2.8736440258067906
-1.3900751481841775
-0.0648250996459034
-2.8736440258067906
-1.3934217717133732
-0.061660636896266136
-2.8735697906056528
-1.3934217717133732
-0.061660636896266136
-2.8735697906056528
-1.3934217717133732
-0.061660636896266136
-2.8735697906056528
-1.3934217717133732
-0.061660636896266136
-2.8735697906056528
-1.4136561673550847
-0.049901840915477474
-2.8722864274362996
-1.4136561673550847
-0.049901840915477474
-2.8722864274362996
-1.4136561673550847
-0.049901840915477474
-2.8722864274362996
-1.4136561673550847
-0.049901840915477474
-2.8722864274362996
-1.4010112869094102
-0.06344771280728718
-2.8732136293585606
-1.4010112869094102
-0.06344771280728718
-2.8732136293585606
-1.4010112869094102
-0.06344771280728718
-2.8732136293585606
-1.4010112869094102
-0.06344771280728718
-2.8732136293585606
-1.4047815443220788
-0.06097039748795778
-2.873632718893156
-1.4047815443220788
-0.06097039748795778
-2.873632718893156
-1.4047815443220788
-0.06097039748795778
-2.873632718893156
-1.4047815443220788
-0.06097039748795778
-2.873632718893156
-1.421102930983617
-0.048652249527005725
-2.8718309461376825
-1.421102930983617
-0.048652249527005725
-2.8718309461376825
-1.421102930983617
-0.048652249527005725
-2.8718309461376825
-1.421102930983617
-0.048652249527005725
-2.8718309461376825
-1.4263165782540175
-0.04051172886420256
-2.8706702989504778
-1.4263165782540175
-0.04051172886420256
-2.8706702989504778
-1.4263165782540175
-0.04051172886420256
-2.8706702989504778
-1.4263165782540175
-0.04051172886420256
-2.8706702989504778
-1.4299693221619751
-0.03923192539449839
-2.8717532201486202
-1.4299693221619751
-0.03923192539449839
-2.8717532201486202
-1.4299693221619751
-0.03923192539449839
-2.8717532201486202
-1.4299693221619751
-0.03923192539449839
-2.8717532201486202
-1.4286707866048614
-0.039983265136449765
-2.8722610698470845
-1.4286707866048614
-0.039983265136449765
-2.8722610698470845
-1.4286707866048614
-0.039983265136449765
-2.8722610698470845
-1.4286707866048614
-0.039983265136449765
-2.8722610698470845
-1.4252826799859402
-0.04080393886964291
-2.8721704967281596
-1.4252826799859402
-0.04080393886964291
-2.8721704967281596
-1.4252826799859402
-0.04080393886964291
-2.8721704967281596
-1.4252826799859402
-0.04080393886964291
-2.8721704967281596
-1.4255711119522734
-0.041523198772016136
-2.8713593359318126
-1.4255711119522734
-0.041523198772016136
-2.8713593359318126
-1.4255711119522734
-0.041523198772016136
-2.8713593359318126
-1.4255711119522734
-0.041523198772016136
-2.8713593359318126
-1.4245593138860078
-0.04250381753386769
-2.8717835647040806
-1.4245593138860078
-0.04250381753386769
-2.8717835647040806
-1.4245593138860078
-0.04250381753386769
-2.8717835647040806
-1.4245593138860078
-0.04250381753386769
-2.8717835647040806
-1.4215987529792924
-0.04325338065530587
-2.871867548807268
-1.4215987529792924
-0.04325338065530587
-2.871867548807268
-1.4215987529792924
-0.04325338065530587
-2.871867548807268
-1.4215987529792924
-0.04325338065530587
-2.871867548807268
-1.4323766514086242
-0.03891733921968341
-2.871535988553751
-1.4323766514086242
-0.03891733921968341
-2.871535988553751
-1.4323766514086242
-0.03891733921968341
-2.871535988553751
-1.4323766514086242
-0.03891733921968341
-2.871535988553751
-1.443150407370127
-0.024877192482306305
-2.871437673796059
-1.443150407370127
-0.024877192482306305
-2.871437673796059
-1.443150407370127
-0.024877192482306305
-2.871437673796059
-1.443150407370127
-0.024877192482306305
-2.871437673796059
-1.4433385090447857
-0.03592050651606904
-2.8703674646607222
-1.4433385090447857
-0.03592050651606904
-2.8703674646607222
-1.4433385090447857
-0.03592050651606904
-2.8703674646607222
-1.4433385090447857
-0.03592050651606904
-2.8703674646607222
-1.443807750444955
-0.034882896567166415
-2.8705618910616613
-1.443807750444955
-0.034882896567166415
-2.8705618910616613
-1.443807750444955
-0.034882896567166415
-2.8705618910616613
-1.443807750444955
-0.034882896567166415
-2.8705618910616613
-1.4419632242016969
-0.034844912432871036
-2.871008481952705
-1.4419632242016969
-0.034844912432871036
-2.871008481952705
-1.4419632242016969
-0.034844912432871036
-2.871008481952705
-1.4419632242016969
-0.034844912432871036
-2.871008481952705
-1.443247141854376
-0.03469302909025984
-2.8719543145854702
-1.443247141854376
-0.03469302909025984
-2.8719543145854702
-1.443247141854376
-0.03469302909025984
-2.8719543145854702
-1.443247141854376
-0.03469302909025984
-2.8719543145854702
-1.4434406401701219
-0.03426250612592808
-2.872792282981197
-1.4434406401701219
-0.03426250612592808
-2.872792282981197
-1.4434406401701219
-0.03426250612592808
-2.872792282981197
-1.4434406401701219
-0.03426250612592808
-2.872792282981197
-1.441903572507175
-0.03452734084310801
-2.873264398385566
-1.441903572507175
-0.03452734084310801
-2.873264398385566
-1.441903572507175
-0.03452734084310801
-2.873264398385566
-1.441903572507175
-0.03452734084310801
-2.873264398385566
-1.440838014666283
-0.03445086841841873
-2.8739636692845236
-1.440838014666283
-0.03445086841841873
-2.8739636692845236
-1.440838014666283
-0.03445086841841873
-2.8739636692845236
-1.440838014666283
-0.03445086841841873
-2.8739636692845236
-1.4413846742065415
-0.03536277096710808
-2.8748822268864873
-1.4413846742065415
-0.03536277096710808
-2.8748822268864873
-1.4413846742065415
-0.03536277096710808
-2.8748822268864873
-1.4413846742065415
-0.03536277096710808
-2.8748822268864873
-1.4401978226877443
-0.03566016280892881
-2.8754371668461842
-1.4401978226877443
-0.03566016280892881
-2.8754371668461842
-1.4401978226877443
-0.03566016280892881
-2.8754371668461842
-1.4401978226877443
-0.03566016280892881
-2.8754371668461842
-1.44002696969685
-0.03568281713571936
-2.8754417103629035
-1.44002696969685
-0.03568281713571936
-2.8754417103629035
-1.44002696969685
-0.03568281713571936
-2.8754417103629035
-1.44002696969685
-0.03568281713571936
-2.8754417103629035
-1.4393449712064785
-0.03644374141924792
-2.8758585572113806
-1.4393449712064785
-0.03644374141924792
-2.8758585572113806
-1.4393449712064785
-0.03644374141924792
-2.8758585572113806
-1.4393449712064785
-0.03644374141924792
-2.8758585572113806
-1.4388590657834897
-0.03680959982343281
-2.8765775681654153
-1.4388590657834897
-0.03680959982343281
-2.8765775681654153
-1.4388590657834897
-0.03680959982343281
-2.8765775681654153
-1.4388590657834897
-0.03680959982343281
-2.8765775681654153
-1.4391250898681418
-0.03684257446875586
-2.8768435922500677
-1.4391250898681418
-0.03684257446875586
-2.8768435922500677
-1.4391250898681418
-0.03684257446875586
-2.8768435922500677
-1.4391250898681418
-0.03684257446875586
-2.8768435922500677
-1.4389542280867764
-0.036865098365063964
-2.876848241252786
-1.4389542280867764
-0.036865098365063964
-2.876848241252786
-1.4389542280867764
-0.036865098365063964
-2.876848241252786
-1.4389542280867764
-0.036865098365063964
-2.876848241252786
-1.4369197094443638
-0.0373795716118588
-2.8771546287005583
-1.4369197094443638
-0.0373795716118588
-2.8771546287005583
-1.4369197094443638
-0.0373795716118588
-2.8771546287005583
-1.4369197094443638
-0.0373795716118588
-2.8771546287005583
-1.436429635342519
-0.03761777326157146
-2.8771798633671826
-1.436429635342519
-0.03761777326157146
-2.8771798633671826
-1.436429635342519
-0.03761777326157146
-2.8771798633671826
-1.436429635342519
-0.03761777326157146
-2.8771798633671826
-1.4367479050492575
-0.03809864947058379
-2.8771946245779474
-1.4367479050492575
-0.03809864947058379
-2.8771946245779474
-1.4367479050492575
-0.03809864947058379
-2.8771946245779474
-1.4367479050492575
-0.03809864947058379
-2.8771946245779474
-1.4380626410768849
-0.03877931365912543
-2.87740925708164
-1.4380626410768849
-0.03877931365912543
-2.87740925708164
-1.4380626410768849
-0.03877931365912543
-2.87740925708164
-1.4380626410768849
-0.03877931365912543
-2.87740925708164
-1.4362669277464317
-0.03908632358911177
-2.8777106967609125
-1.4362669277464317
-0.03908632358911177
-2.8777106967609125
-1.4362669277464317
-0.03908632358911177
-2.8777106967609125
-1.4362669277464317
-0.03908632358911177
-2.8777106967609125
-1.4338410518274365
-0.039873806963353374
-2.8773490218881808
-1.4338410518274365
-0.039873806963353374
-2.8773490218881808
-1.4338410518274365
-0.039873806963353374
-2.8773490218881808
-1.4338410518274365
-0.039873806963353374
-2.8773490218881808
-1.432117477764678
-0.040703773868893366
-2.8775154708267228
-1.432117477764678
-0.040703773868893366
-2.8775154708267228
-1.432117477764678
-0.040703773868893366
-2.8775154708267228
-1.432117477764678
-0.040703773868893366
-2.8775154708267228
-1.4327182928826416
-0.041376387271465954
-2.8779785816035366
-1.4327182928826416
-0.041376387271465954
-2.8779785816035366
-1.4327182928826416
-0.041376387271465954
-2.8779785816035366
-1.4327182928826416
-0.041376387271465954
-2.8779785816035366
-1.432389826375615
-0.04218098665035891
-2.878310023291188
-1.432389826375615
-0.04218098665035891
-2.878310023291188
-1.432389826375615
-0.04218098665035891
-2.878310023291188
-1.432389826375615
-0.04218098665035891
-2.878310023291188
-1.4320909671183901
-0.04262404242191694
-2.8787760381611185
-1.4320909671183901
-0.04262404242191694
-2.8787760381611185
-1.4320909671183901
-0.04262404242191694
-2.8787760381611185
-1.4320909671183901
-0.04262404242191694
-2.8787760381611185
-1.4310808091671596
-0.042973837053218125
-2.87942264907656
-1.4310808091671596
-0.042973837053218125
-2.87942264907656
-1.4310808091671596
-0.042973837053218125
-2.87942264907656
-1.4310808091671596
-0.042973837053218125
-2.87942264907656
-1.4304979114018255
-0.04389341938534477
-2.8798430389873895
-1.4304979114018255
-0.04389341938534477
-2.8798430389873895
-1.4304979114018255
-0.04389341938534477
-2.8798430389873895
-1.4304979114018255
-0.04389341938534477
-2.8798430389873895
-1.428505265266049
-0.04474517578822702
-2.8801822716224694
-1.428505265266049
-0.04474517578822702
-2.8801822716224694
-1.428505265266049
-0.04474517578822702
-2.8801822716224694
-1.428505265266049
-0.04474517578822702
-2.8801822716224694
-1.4276738959300654
-0.0457621951236611
-2.8808859371889466
-1.4276738959300654
-0.0457621951236611
-2.8808859371889466
-1.4276738959300654
-0.0457621951236611
-2.8808859371889466
-1.4276738959300654
-0.0457621951236611
-2.8808859371889466
-1.4287162672561464
-0.046524554842000215
-2.8816998798276523
-1.4287162672561464
-0.046524554842000215
-2.8816998798276523
-1.4287162672561464
-0.046524554842000215
-2.8816998798276523
-1.4287162672561464
-0.046524554842000215
-2.8816998798276523
-1.4290166139446718
-0.04694295138881778
-2.8825920518442025
-1.4290166139446718
-0.04694295138881778
-2.8825920518442025
-1.4290166139446718
-0.04694295138881778
-2.8825920518442025
-1.4290166139446718
-0.04694295138881778
-2.8825920518442025
-1.4288456750984266
-0.04696489817895666
-2.882597646173001
-1.4288456750984266
-0.04696489817895666
-2.882597646173001
-1.4288456750984266
-0.04696489817895666
-2.882597646173001
-1.4288456750984266
-0.04696489817895666
-2.882597646173001
-1.4280038081644582
-0.047930437384555345
-2.8828469307709303
-1.4280038081644582
-0.047930437384555345
-2.8828469307709303
-1.4280038081644582
-0.047930437384555345
-2.8828469307709303
-1.4280038081644582
-0.047930437384555345
-2.8828469307709303
-1.4275571317936884
-0.047867725854711156
-2.8832936071417006
-1.4275571317936884
-0.047867725854711156
-2.8832936071417006
-1.4275571317936884
-0.047867725854711156
-2.8832936071417006
-1.4275571317936884
-0.047867725854711156
-2.8832936071417006
-1.4289683686578736
-0.045920699118860396
-2.88349841218297
-1.4289683686578736
-0.045920699118860396
-2.88349841218297
-1.4289683686578736
-0.045920699118860396
-2.88349841218297
-1.4289683686578736
-0.045920699118860396
-2.88349841218297
-1.4322678673929299
-0.043076063618427266
-2.8830757634199746
-1.4322678673929299
-0.043076063618427266
-2.8830757634199746
-1.4322678673929299
-0.043076063618427266
-2.8830757634199746
-1.4322678673929299
-0.043076063618427266
-2.8830757634199746
-1.4367345891536016
-0.039740247624005035
-2.882457028975993
-1.4367345891536016
-0.039740247624005035
-2.882457028975993
-1.4367345891536016
-0.039740247624005035
-2.882457028975993
-1.4367345891536016
-0.039740247624005035
-2.882457028975993
-1.4384879162625879
-0.03707973441371935
-2.8822682914760986
-1.4384879162625879
-0.03707973441371935
-2.8822682914760986
-1.4384879162625879
-0.03707973441371935
-2.8822682914760986
-1.4384879162625879
-0.03707973441371935
-2.8822682914760986
-1.4367527037605037
-0.03311284013730723
-2.8823773918560676
-1.4367527037605037
-0.03311284013730723
-2.8823773918560676
-1.4367527037605037
-0.03311284013730723
-2.8823773918560676
-1.4367527037605037
-0.03311284013730723
-2.8823773918560676
-1.427884410227423
-0.02799158650899421
-2.8824338338980975
-1.427884410227423
-0.02799158650899421
-2.8824338338980975
-1.427884410227423
-0.02799158650899421
-2.8824338338980975
-1.427884410227423
-0.02799158650899421
-2.8824338338980975
-1.4142475475999494
-0.02239717827663744
-2.8819883262096364
-1.4142475475999494
-0.02239717827663744
-2.8819883262096364
-1.4142475475999494
-0.02239717827663744
-2.8819883262096364
-1.4142475475999494
-0.02239717827663744
-2.8819883262096364
-1.3930712783497121
-0.0174675716236223
-2.881292978003274
-1.3930712783497121
-0.0174675716236223
-2.881292978003274
-1.3930712783497121
-0.0174675716236223
-2.881292978003274
-1.3930712783497121
-0.0174675716236223
-2.881292978003274
-1.372758341863498
-0.012589304660055206
-2.8816095079570507
-1.372758341863498
-0.012589304660055206
-2.8816095079570507
-1.372758341863498
-0.012589304660055206
-2.8816095079570507
-1.372758341863498
-0.012589304660055206
-2.8816095079570507
-1.3600944551618912
-0.0059274207728505675
-2.8833569758786197
-1.3600944551618912
-0.0059274207728505675
-2.8833569758786197
-1.3600944551618912
-0.0059274207728505675
-2.8833569758786197
-1.3600944551618912
-0.0059274207728505675
-2.8833569758786197
-1.3518324706200058
0.002051088851472018
-2.886065385391503
-1.3518324706200058
0.002051088851472018
-2.886065385391503
-1.3518324706200058
0.002051088851472018
-2.886065385391503
-1.3518324706200058
0.002051088851472018
-2.886065385391503
-1.349870503979606
0.010253846171461717
-2.8888907536061534
-1.349870503979606
0.010253846171461717
-2.8888907536061534
-1.349870503979606
0.010253846171461717
-2.8888907536061534
-1.349870503979606
0.010253846171461717
-2.8888907536061534
-1.3530767697910493
0.01655150156739293
-2.892366156172728
-1.3530767697910493
0.01655150156739293
-2.892366156172728
-1.3530767697910493
0.01655150156739293
-2.892366156172728
-1.3530767697910493
0.01655150156739293
-2.892366156172728
-1.35809398645124
0.020745453023913098
-2.897193048582402
-1.35809398645124
0.020745453023913098
-2.897193048582402
-1.35809398645124
0.020745453023913098
-2.897193048582402
-1.35809398645124
0.020745453023913098
-2.897193048582402
-1.3601342492446304
0.02425042368149257
-2.901591159173297
-1.3601342492446304
0.02425042368149257
-2.901591159173297
-1.3601342492446304
0.02425042368149257
-2.901591159173297
-1.3601342492446304
0.02425042368149257
-2.901591159173297
-1.358610232398768
0.02710728843791033
-2.9038542868889903
-1.358610232398768
0.02710728843791033
-2.9038542868889903
-1.358610232398768
0.02710728843791033
-2.9038542868889903
-1.358610232398768
0.02710728843791033
-2.9038542868889903
-1.354389600804858
0.02982259904901753
-2.9052818552457977
-1.354389600804858
0.02982259904901753
-2.9052818552457977
-1.354389600804858
0.02982259904901753
-2.9052818552457977
-1.354389600804858
0.02982259904901753
-2.9052818552457977
-1.3505547997946339
0.03272607033152263
-2.9055525933964343
-1.3505547997946339
0.03272607033152263
-2.9055525933964343
-1.3505547997946339
0.03272607033152263
-2.9055525933964343
-1.3505547997946339
0.03272607033152263
-2.9055525933964343
-1.3483930923102285
0.03448723247723066
-2.904762104224812
-1.3483930923102285
0.03448723247723066
-2.904762104224812
-1.3483930923102285
0.03448723247723066
-2.904762104224812
-1.3483930923102285
0.03448723247723066
-2.904762104224812
-1.3464800127690872
0.03550811318622026
-2.9033652906832224
-1.3464800127690872
0.03550811318622026
-2.9033652906832224
-1.3464800127690872
0.03550811318622026
-2.9033652906832224
-1.3464800127690872
0.03550811318622026
-2.9033652906832224
-1.3425103069583808
0.03539585059737099
-2.901854920248406
-1.3425103069583808
0.03539585059737099
-2.901854920248406
-1.3425103069583808
0.03539585059737099
-2.901854920248406
-1.3425103069583808
0.03539585059737099
-2.901854920248406
-1.335756373141091
0.03515407021828169
-2.9006139713140335
-1.335756373141091
0.03515407021828169
-2.9006139713140335
-1.335756373141091
0.03515407021828169
-2.9006139713140335
-1.335756373141091
0.03515407021828169
-2.9006139713140335
-1.3281508395262536
0.034012561251833134
-2.899371596517232
-1.3281508395262536
0.034012561251833134
-2.899371596517232
-1.3281508395262536
0.034012561251833134
-2.899371596517232
-1.3281508395262536
0.034012561251833134
-2.899371596517232
-1.3225560979048177
0.032913013762368395
-2.8980235275062274
-1.3225560979048177
0.032913013762368395
-2.8980235275062274
-1.3225560979048177
0.032913013762368395
-2.8980235275062274
-1.3225560979048177
0.032913013762368395
-2.8980235275062274
-1.318749140434832
0.031596260159472415
-2.8974492207556084
-1.318749140434832
0.031596260159472415
-2.8974492207556084
-1.318749140434832
0.031596260159472415
-2.8974492207556084
-1.318749140434832
0.031596260159472415
-2.8974492207556084
-1.316293747834718
0.030355024292170598
-2.897634194625679
-1.316293747834718
0.030355024292170598
-2.897634194625679
-1.316293747834718
0.030355024292170598
-2.897634194625679
-1.316293747834718
0.030355024292170598
-2.897634194625679
-1.3148789301809272
0.029115628078779023
-2.8981830709335967
-1.3148789301809272
0.029115628078779023
-2.8981830709335967
-1.3148789301809272
0.029115628078779023
-2.8981830709335967
-1.3148789301809272
0.029115628078779023
-2.8981830709335967
-1.3126023077470397
0.02791253121559168
-2.8991490219668368
-1.3126023077470397
0.02791253121559168
-2.8991490219668368
-1.3126023077470397
0.02791253121559168
-2.8991490219668368
-1.3126023077470397
0.02791253121559168
-2.8991490219668368
-1.3107188550067648
0.027103878856339515
-2.900082061742606
-1.3107188550067648
0.027103878856339515
-2.900082061742606
-1.3107188550067648
0.027103878856339515
-2.900082061742606
-1.3107188550067648
0.027103878856339515
-2.900082061742606
-1.309887666883411
0.026964842082801654
-2.901126211928397
-1.309887666883411
0.026964842082801654
-2.901126211928397
-1.309887666883411
0.026964842082801654
-2.901126211928397
-1.309887666883411
0.026964842082801654
-2.901126211928397
-1.3090465605302015
0.026877649919547622
-2.9019042609113415
-1.3090465605302015
0.026877649919547622
-2.9019042609113415
-1.3090465605302015
0.026877649919547622
-2.9019042609113415
-1.3090465605302015
0.026877649919547622
-2.9019042609113415
-1.3079928551951678
0.026894417247725743
-2.902299471368004
-1.3079928551951678
0.026894417247725743
-2.902299471368004
-1.3079928551951678
0.026894417247725743
-2.902299471368004
-1.3079928551951678
0.026894417247725743
-2.902299471368004
-1.3063882780587759
0.02716636563053688
-2.9024803046099485
-1.3063882780587759
0.02716636563053688
-2.9024803046099485
-1.3063882780587759
0.02716636563053688
-2.9024803046099485
-1.3063882780587759
0.02716636563053688
-2.9024803046099485
-1.3044657880188208
0.027820413528974835
-2.9025083855483813
-1.3044657880188208
0.027820413528974835
-2.9025083855483813
-1.3044657880188208
0.027820413528974835
-2.9025083855483813
-1.3044657880188208
0.027820413528974835
-2.9025083855483813
-1.3023842664279686
0.028334063260416917
-2.9022923533372245
-1.3023842664279686
0.028334063260416917
-2.9022923533372245
-1.3023842664279686
0.028334063260416917
-2.9022923533372245
-1.3023842664279686
0.028334063260416917
-2.9022923533372245
-1.3008333362132145
0.028716407974786917
-2.9019277961487586
-1.3008333362132145
0.028716407974786917
-2.9019277961487586
-1.3008333362132145
0.028716407974786917
-2.9019277961487586
-1.3008333362132145
0.028716407974786917
-2.9019277961487586
-1.2990051534031526
0.029163442745203286
-2.901625872515144
-1.2990051534031526
0.029163442745203286
-2.901625872515144
-1.2990051534031526
0.029163442745203286
-2.901625872515144
-1.2990051534031526
0.029163442745203286
-2.901625872515144
-1.2968924053158188
0.029894599005169182
-2.901116778841592
-1.2968924053158188
0.029894599005169182
-2.901116778841592
-1.2968924053158188
0.029894599005169182
-2.901116778841592
-1.2968924053158188
0.029894599005169182
-2.901116778841592
-1.2953199615792017
0.03044473349736001
-2.9007260917078765
-1.2953199615792017
0.03044473349736001
-2.9007260917078765
-1.2953199615792017
0.03044473349736001
-2.9007260917078765
-1.2953199615792017
0.03044473349736001
-2.9007260917078765
-1.2945231701555566
0.031088598081771272
-2.900343972546607
-1.2945231701555566
0.031088598081771272
-2.900343972546607
-1.2945231701555566
0.031088598081771272
-2.900343972546607
-1.2945231701555566
0.031088598081771272
-2.900343972546607
-1.2927176412164618
0.03210156901099616
-2.899709879710164
-1.2927176412164618
0.03210156901099616
-2.899709879710164
-1.2927176412164618
0.03210156901099616
-2.899709879710164
-1.2927176412164618
0.03210156901099616
-2.899709879710164
-1.290676385761622
0.0328393848008045
-2.899184858082648
-1.290676385761622
0.0328393848008045
-2.899184858082648
-1.290676385761622
0.0328393848008045
-2.899184858082648
-1.290676385761622
0.0328393848008045
-2.899184858082648
-1.289230187085555
0.03374705453389355
-2.8987412156812518
-1.289230187085555
0.03374705453389355
-2.8987412156812518
-1.289230187085555
0.03374705453389355
-2.8987412156812518
-1.289230187085555
0.03374705453389355
-2.8987412156812518
-1.288262289779592
0.03436783829328768
-2.89835579542506
-1.288262289779592
0.03436783829328768
-2.89835579542506
-1.288262289779592
0.03436783829328768
-2.89835579542506
-1.288262289779592
0.03436783829328768
-2.89835579542506
-1.2880471146395691
0.0343937401810645
-2.897461789599383
-1.2880471146395691
0.0343937401810645
-2.897461789599383
-1.2880471146395691
0.0343937401810645
-2.897461789599383
-1.2880471146395691
0.0343937401810645
-2.897461789599383
-1.2880035085431063
0.03384894015833602
-2.896749005664041
-1.2880035085431063
0.03384894015833602
-2.896749005664041
-1.2880035085431063
0.03384894015833602
-2.896749005664041
-1.2880035085431063
0.03384894015833602
-2.896749005664041
-1.2880037163569513
0.03379994875098527
-2.8964097039999914
-1.2880037163569513
0.03379994875098527
-2.8964097039999914
-1.2880037163569513
0.03379994875098527
-2.8964097039999914
-1.2880037163569513
0.03379994875098527
-2.8964097039999914
-1.288267764596727
0.03356440281791982
-2.8957447607139506
-1.288267764596727
0.03356440281791982
-2.8957447607139506
-1.288267764596727
0.03356440281791982
-2.8957447607139506
-1.288267764596727
0.03356440281791982
-2.8957447607139506
-1.2888094630236018
0.03326423160450575
-2.895017605411897
-1.2888094630236018
0.03326423160450575
-2.895017605411897
-1.2888094630236018
0.03326423160450575
-2.895017605411897
-1.2888094630236018
0.03326423160450575
-2.895017605411897
-1.2893941152271335
0.03264972449593714
-2.894508711372136
-1.2893941152271335
0.03264972449593714
-2.894508711372136
-1.2893941152271335
0.03264972449593714
-2.894508711372136
-1.2893941152271335
0.03264972449593714
-2.894508711372136
-1.289044488078198
0.03184460158175801
-2.894087244320645
-1.289044488078198
0.03184460158175801
-2.894087244320645
-1.289044488078198
0.03184460158175801
-2.894087244320645
-1.289044488078198
0.03184460158175801
-2.894087244320645
-1.2897267611809418
0.031241339594405046
-2.8935884645722925
-1.2897267611809418
0.031241339594405046
-2.8935884645722925
-1.2897267611809418
0.031241339594405046
-2.8935884645722925
-1.2897267611809418
0.031241339594405046
-2.8935884645722925
-1.2911309366503776
0.03038551876072318
-2.8931361941278166
-1.2911309366503776
0.03038551876072318
-2.8931361941278166
-1.2911309366503776
0.03038551876072318
-2.8931361941278166
-1.2911309366503776
0.03038551876072318
-2.8931361941278166
-1.2921189885260185
0.030297779443932013
-2.8909794708578236
-1.2921189885260185
0.030297779443932013
-2.8909794708578236
-1.2921189885260185
0.030297779443932013
-2.8909794708578236
-1.2921189885260185
0.030297779443932013
-2.8909794708578236
-1.2911358152673262
0.022234659448165682
-2.8882284408510985
-1.2911358152673262
0.022234659448165682
-2.8882284408510985
-1.2911358152673262
0.022234659448165682
-2.8882284408510985
-1.2911358152673262
0.022234659448165682
-2.8882284408510985
-1.2931387915443422
0.01135612093295385
-2.8840202800027224
-1.2931387915443422
0.01135612093295385
-2.8840202800027224
-1.2931387915443422
0.01135612093295385
-2.8840202800027224
-1.2931387915443422
0.01135612093295385
-2.8840202800027224
-1.2987768376158075
0.0065233877853922255
-2.8799839114212027
-1.2987768376158075
0.0065233877853922255
-2.8799839114212027
-1.2987768376158075
0.0065233877853922255
-2.8799839114212027
-1.2987768376158075
0.0065233877853922255
-2.8799839114212027
-1.3059000466008883
0.0030837844183833254
-2.874197128779509
-1.3059000466008883
0.0030837844183833254
-2.874197128779509
-1.3059000466008883
0.0030837844183833254
-2.874197128779509
-1.3059000466008883
0.0030837844183833254
-2.874197128779509
-1.3088159931844319
-0.003218811653336556
-2.8667304681186563
-1.3088159931844319
-0.003218811653336556
-2.8667304681186563
-1.3088159931844319
-0.003218811653336556
-2.8667304681186563
-1.3088159931844319
-0.003218811653336556
-2.8667304681186563
-1.3088059204668523
-0.01584520287117945
-2.8596768677994375
-1.3088059204668523
-0.01584520287117945
-2.8596768677994375
-1.3088059204668523
-0.01584520287117945
-2.8596768677994375
-1.3088059204668523
-0.01584520287117945
-2.8596768677994375
-1.3021324040826208
-0.03370593140103282
-2.849307436286452
-1.3021324040826208
-0.03370593140103282
-2.849307436286452
-1.3021324040826208
-0.03370593140103282
-2.849307436286452
-1.3021324040826208
-0.03370593140103282
-2.849307436286452
-1.282223423349075
-0.05369059202423708
-2.8416622857178497
-1.282223423349075
-0.05369059202423708
-2.8416622857178497
-1.282223423349075
-0.05369059202423708
-2.8416622857178497
-1.282223423349075
-0.05369059202423708
-2.8416622857178497
-1.2618711960765907
-0.06985622585713937
-2.842064688246266
-1.2618711960765907
-0.06985622585713937
-2.842064688246266
-1.2618711960765907
-0.06985622585713937
-2.842064688246266
-1.2618711960765907
-0.06985622585713937
-2.842064688246266
-1.2551714021829259
-0.07629667004606697
-2.843660024210868
-1.2551714021829259
-0.07629667004606697
-2.843660024210868
-1.2551714021829259
-0.07629667004606697
-2.843660024210868
-1.2551714021829259
-0.07629667004606697
-2.843660024210868
-1.2660475932312245
-0.071350693966502
-2.843561616112223
-1.2660475932312245
-0.071350693966502
-2.843561616112223
-1.2660475932312245
-0.071350693966502
-2.843561616112223
-1.2660475932312245
-0.071350693966502
-2.843561616112223
-1.2831574225674314
-0.060700465315748874
-2.8433558167626183
-1.2831574225674314
-0.060700465315748874
-2.8433558167626183
-1.2831574225674314
-0.060700465315748874
-2.8433558167626183
-1.2831574225674314
-0.060700465315748874
-2.8433558167626183
-1.296287178629425
-0.051050486383374886
-2.8467926771048226
-1.296287178629425
-0.051050486383374886
-2.8467926771048226
-1.296287178629425
-0.051050486383374886
-2.8467926771048226
-1.296287178629425
-0.051050486383374886
-2.8467926771048226
-1.3010630929343598
-0.04957173573903026
-2.8522035978367213
-1.3010630929343598
-0.04957173573903026
-2.8522035978367213
-1.3010630929343598
-0.04957173573903026
-2.8522035978367213
-1.3010630929343598
-0.04957173573903026
-2.8522035978367213
-1.313499702997502
-0.04498571880514173
-2.858238584629855
-1.313499702997502
-0.04498571880514173
-2.858238584629855
-1.313499702997502
-0.04498571880514173
-2.858238584629855
-1.313499702997502
-0.04498571880514173
-2.858238584629855
-1.3312504848878481
-0.041203209530845386
-2.8608764167322382
-1.3312504848878481
-0.041203209530845386
-2.8608764167322382
-1.3312504848878481
-0.041203209530845386
-2.8608764167322382
-1.3312504848878481
-0.041203209530845386
-2.8608764167322382
-1.3426950240470172
-0.03892968020247562
-2.864003478887724
-1.3426950240470172
-0.03892968020247562
-2.864003478887724
-1.3426950240470172
-0.03892968020247562
-2.864003478887724
-1.3426950240470172
-0.03892968020247562
-2.864003478887724
-1.347762720833521
-0.04011477844591302
-2.8672791976509853
-1.347762720833521
-0.04011477844591302
-2.8672791976509853
-1.347762720833521
-0.04011477844591302
-2.8672791976509853
-1.347762720833521
-0.04011477844591302
-2.8672791976509853
-1.3520637828536375
-0.040887850727067084
-2.8682953331590886
-1.3520637828536375
-0.040887850727067084
-2.8682953331590886
-1.3520637828536375
-0.040887850727067084
-2.8682953331590886
-1.3520637828536375
-0.040887850727067084
-2.8682953331590886
-1.3588959309688464
-0.04013979454290033
-2.868010631533408
-1.3588959309688464
-0.04013979454290033
-2.868010631533408
-1.3588959309688464
-0.04013979454290033
-2.868010631533408
-1.3588959309688464
-0.04013979454290033
-2.868010631533408
-1.364170323726816
-0.037091655979047795
-2.869156932171756
-1.364170323726816
-0.037091655979047795
-2.869156932171756
-1.364170323726816
-0.037091655979047795
-2.869156932171756
-1.364170323726816
-0.037091655979047795
-2.869156932171756
-1.3670414833845235
-0.03501092564930557
-2.8701653886316336
-1.3670414833845235
-0.03501092564930557
-2.8701653886316336
-1.3670414833845235
-0.03501092564930557
-2.8701653886316336
-1.3670414833845235
-0.03501092564930557
-2.8701653886316336
-1.3722477834277735
-0.03394110915550558
-2.871019023890975
-1.3722477834277735
-0.03394110915550558
-2.871019023890975
-1.3722477834277735
-0.03394110915550558
-2.871019023890975
-1.3722477834277735
-0.03394110915550558
-2.871019023890975
-1.3775906697380782
-0.03270390938150536
-2.871663719935078
-1.3775906697380782
-0.03270390938150536
-2.871663719935078
-1.3775906697380782
-0.03270390938150536
-2.871663719935078
-1.3775906697380782
-0.03270390938150536
-2.871663719935078
-1.3824108628318053
-0.03015314916971123
-2.8721988875074493
-1.3824108628318053
-0.03015314916971123
-2.8721988875074493
-1.3824108628318053
-0.03015314916971123
-2.8721988875074493
-1.3824108628318053
-0.03015314916971123
-2.8721988875074493
-1.3863232290151226
-0.027327858788636777
-2.87421695377562
-1.3863232290151226
-0.027327858788636777
-2.87421695377562
-1.3863232290151226
-0.027327858788636777
-2.87421695377562
-1.3863232290151226
-0.027327858788636777
-2.87421695377562
-1.3863836371621543
-0.026542276430541814
-2.8759707934761702
-1.3863836371621543
-0.026542276430541814
-2.8759707934761702
-1.3863836371621543
-0.026542276430541814
-2.8759707934761702
-1.3863836371621543
-0.026542276430541814
-2.8759707934761702
-1.3903373461009494
-0.025349657178638987
-2.877437214504459
-1.3903373461009494
-0.025349657178638987
-2.877437214504459
-1.3903373461009494
-0.025349657178638987
-2.877437214504459
-1.3903373461009494
-0.025349657178638987
-2.877437214504459
-1.3961310008984684
-0.022171702127280018
-2.879873875267719
-1.3961310008984684
-0.022171702127280018
-2.879873875267719
-1.3961310008984684
-0.022171702127280018
-2.879873875267719
-1.3961310008984684
-0.022171702127280018
-2.879873875267719
-1.3982444623417924
-0.017566350198559896
-2.8823659572919986
-1.3982444623417924
-0.017566350198559896
-2.8823659572919986
-1.3982444623417924
-0.017566350198559896
-2.8823659572919986
-1.3982444623417924
-0.017566350198559896
-2.8823659572919986
-1.39787040501005
-0.015321368530661036
-2.8846138665909
-1.39787040501005
-0.015321368530661036
-2.8846138665909
-1.39787040501005
-0.015321368530661036
-2.8846138665909
-1.39787040501005
-0.015321368530661036
-2.8846138665909
-1.398271396776494
-0.01497451040980532
-2.8859889364467737
-1.398271396776494
-0.01497451040980532
-2.8859889364467737
-1.398271396776494
-0.01497451040980532
-2.8859889364467737
-1.398271396776494
-0.01497451040980532
-2.8859889364467737
-1.3964405886675566
-0.014299631054062751
-2.887404635036075
-1.3964405886675566
-0.014299631054062751
-2.887404635036075
-1.3964405886675566
-0.014299631054062751
-2.887404635036075
-1.3964405886675566
-0.014299631054062751
-2.887404635036075
-1.397460936808505
-0.012630056100819026
-2.889015090120694
-1.397460936808505
-0.012630056100819026
-2.889015090120694
-1.397460936808505
-0.012630056100819026
-2.889015090120694
-1.397460936808505
-0.012630056100819026
-2.889015090120694
-1.4011811702853474
-0.010949095950317594
-2.889848571026867
-1.4011811702853474
-0.010949095950317594
-2.889848571026867
-1.4011811702853474
-0.010949095950317594
-2.889848571026867
-1.4011811702853474
-0.010949095950317594
-2.889848571026867
-1.4024305292830204
-0.009771244397987029
-2.890537536741057
-1.4024305292830204
-0.009771244397987029
-2.890537536741057
-1.4024305292830204
-0.009771244397987029
-2.890537536741057
-1.4024305292830204
-0.009771244397987029
-2.890537536741057
-1.4051863011530257
-0.008671459038312264
-2.891174493672906
-1.4051863011530257
-0.008671459038312264
-2.891174493672906
-1.4051863011530257
-0.008671459038312264
-2.891174493672906
-1.4051863011530257
-0.008671459038312264
-2.891174493672906
-1.4052608594533242
-0.007824045718742938
-2.8928441781231626
-1.4052608594533242
-0.007824045718742938
-2.8928441781231626
-1.4052608594533242
-0.007824045718742938
-2.8928441781231626
-1.4052608594533242
-0.007824045718742938
-2.8928441781231626
-1.4074181773906054
-0.007591044029649381
-2.89345044583837
-1.4074181773906054
-0.007591044029649381
-2.89345044583837
-1.4074181773906054
-0.007591044029649381
-2.89345044583837
-1.4074181773906054
-0.007591044029649381
-2.89345044583837
-1.4093813343304347
-0.007196052717103443
-2.894216586345971
-1.4093813343304347
-0.007196052717103443
-2.894216586345971
-1.4093813343304347
-0.007196052717103443
-2.894216586345971
-1.4093813343304347
-0.007196052717103443
-2.894216586345971
-1.4109555712350792
-0.0072116668005303315
-2.894835055449918
-1.4109555712350792
-0.0072116668005303315
-2.894835055449918
-1.4109555712350792
-0.0072116668005303315
-2.894835055449918
-1.4109555712350792
-0.0072116668005303315
-2.894835055449918
-1.4116524852052934
-0.007149302734360802
-2.8956222770870506
-1.4116524852052934
-0.007149302734360802
-2.8956222770870506
-1.4116524852052934
-0.007149302734360802
-2.8956222770870506
-1.4116524852052934
-0.007149302734360802
-2.8956222770870506
-1.4137783898732574
-0.007324230653743581
-2.896702063135238
-1.4137783898732574
-0.007324230653743581
-2.896702063135238
-1.4137783898732574
-0.007324230653743581
-2.896702063135238
-1.4137783898732574
-0.007324230653743581
-2.896702063135238
-1.4192603753220325
-0.0072236519096484245
-2.897156788213975
-1.4192603753220325
-0.0072236519096484245
-2.897156788213975
-1.4192603753220325
-0.0072236519096484245
-2.897156788213975
-1.4192603753220325
-0.0072236519096484245
-2.897156788213975
-1.4248236568645805
-0.00717570749598648
-2.895608018805384
-1.4248236568645805
-0.00717570749598648
-2.895608018805384
-1.4248236568645805
-0.00717570749598648
-2.895608018805384
-1.4248236568645805
-0.00717570749598648
-2.895608018805384
-1.4283414200045232
-0.008160411251701428
-2.894044508546801
-1.4283414200045232
-0.008160411251701428
-2.894044508546801
-1.4283414200045232
-0.008160411251701428
-2.894044508546801
-1.4283414200045232
-0.008160411251701428
-2.894044508546801
-1.4352634539253195
-0.009175210314053774
-2.8933551573339606
-1.4352634539253195
-0.009175210314053774
-2.8933551573339606
-1.4352634539253195
-0.009175210314053774
-2.8933551573339606
-1.4352634539253195
-0.009175210314053774
-2.8933551573339606
-1.4423287589793392
-0.008534864213389223
-2.89229441446013
-1.4423287589793392
-0.008534864213389223
-2.89229441446013
-1.4423287589793392
-0.008534864213389223
-2.89229441446013
-1.4423287589793392
-0.008534864213389223
-2.89229441446013
-1.4473035607840452
-0.007970899460955583
-2.88992135091448
-1.4473035607840452
-0.007970899460955583
-2.88992135091448
-1.4473035607840452
-0.007970899460955583
-2.88992135091448
-1.4473035607840452
-0.007970899460955583
-2.88992135091448
-1.4491945979789314
-0.008472608636887839
-2.8877887077598725
-1.4491945979789314
-0.008472608636887839
-2.8877887077598725
-1.4491945979789314
-0.008472608636887839
-2.8877887077598725
-1.4491945979789314
-0.008472608636887839
-2.8877887077598725
-1.4511859259029378
-0.009098061750449351
-2.887646137560247
-1.4511859259029378
-0.009098061750449351
-2.887646137560247
-1.4511859259029378
-0.009098061750449351
-2.887646137560247
-1.4511859259029378
-0.009098061750449351
-2.887646137560247
-1.45379137291252
-0.008305241455442544
-2.8880495638275088
-1.45379137291252
-0.008305241455442544
-2.8880495638275088
-1.45379137291252
-0.008305241455442544
-2.8880495638275088
-1.45379137291252
-0.008305241455442544
-2.8880495638275088
-1.4528591712237013
-0.007094972717821853
-2.888421792958659
-1.4528591712237013
-0.007094972717821853
-2.888421792958659
-1.4528591712237013
-0.007094972717821853
-2.888421792958659
-1.4528591712237013
-0.007094972717821853
-2.888421792958659
-1.4528564086444131
-0.0064212604908883385
-2.888028001579768
-1.4528564086444131
-0.0064212604908883385
-2.888028001579768
-1.4528564086444131
-0.0064212604908883385
-2.888028001579768
-1.4528564086444131
-0.0064212604908883385
-2.888028001579768
-1.4525114747515782
-0.005791109286532996
-2.887637759656238
-1.4525114747515782
-0.005791109286532996
-2.887637759656238
-1.4525114747515782
-0.005791109286532996
-2.887637759656238
-1.4525114747515782
-0.005791109286532996
-2.887637759656238
-1.454229161648306
-0.004846079299398876
-2.888125093231308
-1.454229161648306
-0.004846079299398876
-2.888125093231308
-1.454229161648306
-0.004846079299398876
-2.888125093231308
-1.454229161648306
-0.004846079299398876
-2.888125093231308
-1.4530949744808357
-0.0034884271075735418
-2.8884657765183293
-1.4530949744808357
-0.0034884271075735418
-2.8884657765183293
-1.4530949744808357
-0.0034884271075735418
-2.8884657765183293
-1.4530949744808357
-0.0034884271075735418
-2.8884657765183293
-1.449747362558585
-0.0024824919036930083
-2.8890860046959563
-1.449747362558585
-0.0024824919036930083
-2.8890860046959563
-1.449747362558585
-0.0024824919036930083
-2.8890860046959563
-1.449747362558585
-0.0024824919036930083
-2.8890860046959563
-1.4513952017689422
-0.0024262900977901434
-2.8894346203810226
-1.4513952017689422
-0.0024262900977901434
-2.8894346203810226
-1.4513952017689422
-0.0024262900977901434
-2.8894346203810226
-1.4513952017689422
-0.0024262900977901434
-2.8894346203810226
-1.4527083103714502
-0.0023922721176100406
-2.890149869850333
-1.4527083103714502
-0.0023922721176100406
-2.890149869850333
-1.4527083103714502
-0.0023922721176100406
-2.890149869850333
-1.4527083103714502
-0.0023922721176100406
-2.890149869850333
-1.4515960826269239
-0.0018471292697745778
-2.891405506329996
-1.4515960826269239
-0.0018471292697745778
-2.891405506329996
-1.4515960826269239
-0.0018471292697745778
-2.891405506329996
-1.4515960826269239
-0.0018471292697745778
-2.891405506329996
-1.4519345679110722
-9.660094855241327E-4
-2.892328830502212
-1.4519345679110722
-9.660094855241327E-4
-2.892328830502212
-1.4519345679110722
-9.660094855241327E-4
-2.892328830502212
-1.4519345679110722
-9.660094855241327E-4
-2.892328830502212
-1.4508139320482072
-0.0010751220151425686
-2.892839983987
-1.4508139320482072
-0.0010751220151425686
-2.892839983987
-1.4508139320482072
-0.0010751220151425686
-2.892839983987
-1.4508139320482072
-0.0010751220151425686
-2.892839983987
-1.44935321705099
-0.0018994921540603634
-2.8937489778566468
-1.44935321705099
-0.0018994921540603634
-2.8937489778566468
-1.44935321705099
-0.0018994921540603634
-2.8937489778566468
-1.44935321705099
-0.0018994921540603634
-2.8937489778566468
-1.4506382341108612
-0.0023817045231442715
-2.8946562511762584
-1.4506382341108612
-0.0023817045231442715
-2.8946562511762584
-1.4506382341108612
-0.0023817045231442715
-2.8946562511762584
-1.4506382341108612
-0.0023817045231442715
-2.8946562511762584
-1.4518327667652593
-0.0021310175976704477
-2.894918632534451
-1.4518327667652593
-0.0021310175976704477
-2.894918632534451
-1.4518327667652593
-0.0021310175976704477
-2.894918632534451
-1.4518327667652593
-0.0021310175976704477
-2.894918632534451
-1.4525509573274085
-0.001582138143398809
-2.8953250649913502
-1.4525509573274085
-0.001582138143398809
-2.8953250649913502
-1.4525509573274085
-0.001582138143398809
-2.8953250649913502
-1.4525509573274085
-0.001582138143398809
-2.8953250649913502
-1.452976254616771
-0.0015500733501988212
-2.894968957899508
-1.452976254616771
-0.0015500733501988212
-2.894968957899508
-1.452976254616771
-0.0015500733501988212
-2.894968957899508
-1.452976254616771
-0.0015500733501988212
-2.894968957899508
-1.4513464392054904
-0.001752063215866625
-2.8949716637371727
-1.4513464392054904
-0.001752063215866625
-2.8949716637371727
-1.4513464392054904
-0.001752063215866625
-2.8949716637371727
-1.4513464392054904
-0.001752063215866625
-2.8949716637371727
-1.4527657120470687
-0.0019131207235674917
-2.8951728288123384
-1.4527657120470687
-0.0019131207235674917
-2.8951728288123384
-1.4527657120470687
-0.0019131207235674917
-2.8951728288123384
-1.4527657120470687
-0.0019131207235674917
-2.8951728288123384
-1.4519824592529325
-0.0026023057097094016
-2.895472004884803
-1.4519824592529325
-0.0026023057097094016
-2.895472004884803
-1.4519824592529325
-0.0026023057097094016
-2.895472004884803
-1.4519824592529325
-0.0026023057097094016
-2.895472004884803
-1.450682978700298
-0.004070479168620074
-2.895465545106252
-1.450682978700298
-0.004070479168620074
-2.895465545106252
-1.450682978700298
-0.004070479168620074
-2.895465545106252
-1.450682978700298
-0.004070479168620074
-2.895465545106252
-1.4534452313045136
-0.005271170022684644
-2.895894923531381
-1.4534452313045136
-0.005271170022684644
-2.895894923531381
-1.4534452313045136
-0.005271170022684644
-2.895894923531381
-1.4534452313045136
-0.005271170022684644
-2.895894923531381
-1.452995379100491
-0.005847543536614604
-2.895930101513414
-1.452995379100491
-0.005847543536614604
-2.895930101513414
-1.452995379100491
-0.005847543536614604
-2.895930101513414
-1.452995379100491
-0.005847543536614604
-2.895930101513414
-1.4513803180291922
-0.006915308953827523
-2.8959774516688475
-1.4513803180291922
-0.006915308953827523
-2.8959774516688475
-1.4513803180291922
-0.006915308953827523
-2.8959774516688475
-1.4513803180291922
-0.006915308953827523
-2.8959774516688475
-1.4524544324178108
-0.00783474293437918
-2.895867174007108
-1.4524544324178108
-0.00783474293437918
-2.895867174007108
-1.4524544324178108
-0.00783474293437918
-2.895867174007108
-1.4524544324178108
-0.00783474293437918
-2.895867174007108
-1.4543854896799107
-0.008689666986202094
-2.896520709108292
-1.4543854896799107
-0.008689666986202094
-2.896520709108292
-1.4543854896799107
-0.008689666986202094
-2.896520709108292
-1.4543854896799107
-0.008689666986202094
-2.896520709108292
-1.4555449711408897
-0.008169093321419692
-2.897021671622409
-1.4555449711408897
-0.008169093321419692
-2.897021671622409
-1.4555449711408897
-0.008169093321419692
-2.897021671622409
-1.4555449711408897
-0.008169093321419692
-2.897021671622409
-1.4554312351628869
-0.008642207482428253
-2.8966203982748127
-1.4554312351628869
-0.008642207482428253
-2.8966203982748127
-1.4554312351628869
-0.008642207482428253
-2.8966203982748127
-1.4554312351628869
-0.008642207482428253
-2.8966203982748127
-1.4546768945078898
-0.009582834407436234
-2.8970215906585453
-1.4546768945078898
-0.009582834407436234
-2.8970215906585453
-1.4546768945078898
-0.009582834407436234
-2.8970215906585453
-1.4546768945078898
-0.009582834407436234
-2.8970215906585453
-1.4553351712276188
-0.009982450731090237
-2.8977386003968926
-1.4553351712276188
-0.009982450731090237
-2.8977386003968926
-1.4553351712276188
-0.009982450731090237
-2.8977386003968926
-1.4553351712276188
-0.009982450731090237
-2.8977386003968926
-1.4556638008084344
-0.009840455332028422
-2.897986226689263
-1.4556638008084344
-0.009840455332028422
-2.897986226689263
-1.4556638008084344
-0.009840455332028422
-2.897986226689263
-1.4556638008084344
-0.009840455332028422
-2.897986226689263
-1.4538001912438538
-0.010956872055682191
-2.897706994800201
-1.4538001912438538
-0.010956872055682191
-2.897706994800201
-1.4538001912438538
-0.010956872055682191
-2.897706994800201
-1.4538001912438538
-0.010956872055682191
-2.897706994800201
-1.453976717185114
-0.012405965985599617
-2.897876585250648
-1.453976717185114
-0.012405965985599617
-2.897876585250648
-1.453976717185114
-0.012405965985599617
-2.897876585250648
-1.453976717185114
-0.012405965985599617
-2.897876585250648
-1.455579662212309
-0.013415067366685247
-2.898106985218157
-1.455579662212309
-0.013415067366685247
-2.898106985218157
-1.455579662212309
-0.013415067366685247
-2.898106985218157
-1.455579662212309
-0.013415067366685247
-2.898106985218157
-1.4558688965802187
-0.01362465830778106
-2.8983850793715127
-1.4558688965802187
-0.01362465830778106
-2.8983850793715127
-1.4558688965802187
-0.01362465830778106
-2.8983850793715127
-1.4558688965802187
-0.01362465830778106
-2.8983850793715127
-1.4546084632656449
-0.014024036163281977
-2.8986638702335235
-1.4546084632656449
-0.014024036163281977
-2.8986638702335235
-1.4546084632656449
-0.014024036163281977
-2.8986638702335235
-1.4546084632656449
-0.014024036163281977
-2.8986638702335235
-1.4539632576941717
-0.014439569777610066
-2.8988643632897304
-1.4539632576941717
-0.014439569777610066
-2.8988643632897304
-1.4539632576941717
-0.014439569777610066
-2.8988643632897304
-1.4539632576941717
-0.014439569777610066
-2.8988643632897304
-1.4539632576941717
-0.014439569777610066
-2.8988643632897304
-1.4539632576941717
-0.014439569777610066
-2.8988643632897304
-1.4539632576941717
-0.014439569777610066
-2.8988643632897304
-1.4539632576941717
-0.014439569777610066
-2.8988643632897304
-1.4531376232029198
-0.0141116377277589
-2.8987546953143233
-1.4531376232029198
-0.0141116377277589
-2.8987546953143233
-1.4531376232029198
-0.0141116377277589
-2.8987546953143233
-1.4531376232029198
-0.0141116377277589
-2.8987546953143233
-1.4541135569499004
-0.014247700225880072
-2.8988520672085687
-1.4541135569499004
-0.014247700225880072
-2.8988520672085687
-1.4541135569499004
-0.014247700225880072
-2.8988520672085687
-1.4541135569499004
-0.014247700225880072
-2.8988520672085687
-1.4529085757633668
-0.015089158996556428
-2.898899835179507
-1.4529085757633668
-0.015089158996556428
-2.898899835179507
-1.4529085757633668
-0.015089158996556428
-2.898899835179507
-1.4529085757633668
-0.015089158996556428
-2.898899835179507
-1.4526196355783074
-0.015563378637794268
-2.898844248590803
-1.4526196355783074
-0.015563378637794268
-2.898844248590803
-1.4526196355783074
-0.015563378637794268
-2.898844248590803
-1.4526196355783074
-0.015563378637794268
-2.898844248590803
-1.4548278976203683
-0.015099967120518934
-2.8991644127582075
-1.4548278976203683
-0.015099967120518934
-2.8991644127582075
-1.4548278976203683
-0.015099967120518934
-2.8991644127582075
-1.4548278976203683
-0.015099967120518934
-2.8991644127582075
-1.4545180593056461
-0.014677667847107844
-2.8995817902377947
-1.4545180593056461
-0.014677667847107844
-2.8995817902377947
-1.4545180593056461
-0.014677667847107844
-2.8995817902377947
-1.4545180593056461
-0.014677667847107844
-2.8995817902377947
-1.4531300713487978
-0.01544889435038921
-2.8997127963203044
-1.4531300713487978
-0.01544889435038921
-2.8997127963203044
-1.4531300713487978
-0.01544889435038921
-2.8997127963203044
-1.4531300713487978
-0.01544889435038921
-2.8997127963203044
-1.4528331917446868
-0.015893160965170194
-2.9001704974772027
-1.4528331917446868
-0.015893160965170194
-2.9001704974772027
-1.4528331917446868
-0.015893160965170194
-2.9001704974772027
-1.4528331917446868
-0.015893160965170194
-2.9001704974772027
-1.4532788165618726
-0.01598158021646881
-2.900697602948495
-1.4532788165618726
-0.01598158021646881
-2.900697602948495
-1.4532788165618726
-0.01598158021646881
-2.900697602948495
-1.4532788165618726
-0.01598158021646881
-2.900697602948495
-1.4529402161152207
-0.016809321130114536
-2.900652884494998
-1.4529402161152207
-0.016809321130114536
-2.900652884494998
-1.4529402161152207
-0.016809321130114536
-2.900652884494998
-1.4529402161152207
-0.016809321130114536
-2.900652884494998
-1.4517746565688567
-0.018675099199829463
-2.9009455702676266
-1.4517746565688567
-0.018675099199829463
-2.9009455702676266
-1.4517746565688567
-0.018675099199829463
-2.9009455702676266
-1.4517746565688567
-0.018675099199829463
-2.9009455702676266
-1.4510785040322183
-0.02085277345964457
-2.900900499841883
-1.4510785040322183
-0.02085277345964457
-2.900900499841883
-1.4510785040322183
-0.02085277345964457
-2.900900499841883
-1.4510785040322183
-0.02085277345964457
-2.900900499841883
-1.4486812596326266
-0.024077317326508054
-2.899964915496506
-1.4486812596326266
-0.024077317326508054
-2.899964915496506
-1.4486812596326266
-0.024077317326508054
-2.899964915496506
-1.4486812596326266
-0.024077317326508054
-2.899964915496506
-1.4461729534513026
-0.027768019772385962
-2.8988099331502886
-1.4461729534513026
-0.027768019772385962
-2.8988099331502886
-1.4461729534513026
-0.027768019772385962
-2.8988099331502886
-1.4461729534513026
-0.027768019772385962
-2.8988099331502886
-1.4425945645189322
-0.031976582832913325
-2.897167208404939
-1.4425945645189322
-0.031976582832913325
-2.897167208404939
-1.4425945645189322
-0.031976582832913325
-2.897167208404939
-1.4425945645189322
-0.031976582832913325
-2.897167208404939
-1.443382419726373
-0.0353949872047731
-2.89537691186899
-1.443382419726373
-0.0353949872047731
-2.89537691186899
-1.443382419726373
-0.0353949872047731
-2.89537691186899
-1.443382419726373
-0.0353949872047731
-2.89537691186899
-1.445694399738183
-0.03634469165600007
-2.8937537905480197
-1.445694399738183
-0.03634469165600007
-2.8937537905480197
-1.445694399738183
-0.03634469165600007
-2.8937537905480197
-1.445694399738183
-0.03634469165600007
-2.8937537905480197
-1.4455994332581537
-0.0368751098935623
-2.892479839434087
-1.4455994332581537
-0.0368751098935623
-2.892479839434087
-1.4455994332581537
-0.0368751098935623
-2.892479839434087
-1.4455994332581537
-0.0368751098935623
-2.892479839434087
-1.4432835044842365
-0.03774429653578625
-2.890367456458239
-1.4432835044842365
-0.03774429653578625
-2.890367456458239
-1.4432835044842365
-0.03774429653578625
-2.890367456458239
-1.4432835044842365
-0.03774429653578625
-2.890367456458239
-1.4405853386641303
-0.038293601881697024
-2.888608424843449
-1.4405853386641303
-0.038293601881697024
-2.888608424843449
-1.4405853386641303
-0.038293601881697024
-2.888608424843449
-1.4405853386641303
-0.038293601881697024
-2.888608424843449
-1.4365217645276755
-0.03837804385072579
-2.886126254870386
-1.4365217645276755
-0.03837804385072579
-2.886126254870386
-1.4365217645276755
-0.03837804385072579
-2.886126254870386
-1.4365217645276755
-0.03837804385072579
-2.886126254870386
-1.4333618988986692
-0.03742562129832598
-2.88443540334922
-1.4333618988986692
-0.03742562129832598
-2.88443540334922
-1.4333618988986692
-0.03742562129832598
-2.88443540334922
-1.4333618988986692
-0.03742562129832598
-2.88443540334922
-1.4260773952168582
-0.03566663531103869
-2.883336470027381
-1.4260773952168582
-0.03566663531103869
-2.883336470027381
-1.4260773952168582
-0.03566663531103869
-2.883336470027381
-1.4260773952168582
-0.03566663531103869
-2.883336470027381
-1.4200194505456274
-0.03200604302042355
-2.883381014892448
-1.4200194505456274
-0.03200604302042355
-2.883381014892448
-1.4200194505456274
-0.03200604302042355
-2.883381014892448
-1.4200194505456274
-0.03200604302042355
-2.883381014892448
-1.4104554338604798
-0.027571806539340032
-2.883529235262338
-1.4104554338604798
-0.027571806539340032
-2.883529235262338
-1.4104554338604798
-0.027571806539340032
-2.883529235262338
-1.4104554338604798
-0.027571806539340032
-2.883529235262338
-1.40366162923287
-0.0243345515894971
-2.882758281877302
-1.40366162923287
-0.0243345515894971
-2.882758281877302
-1.40366162923287
-0.0243345515894971
-2.882758281877302
-1.40366162923287
-0.0243345515894971
-2.882758281877302
-1.39240557041593
-0.019682874610765053
-2.8838507841606384
-1.39240557041593
-0.019682874610765053
-2.8838507841606384
-1.39240557041593
-0.019682874610765053
-2.8838507841606384
-1.39240557041593
-0.019682874610765053
-2.8838507841606384
-1.3793028668488825
-0.013633690937065242
-2.885426092765323
-1.3793028668488825
-0.013633690937065242
-2.885426092765323
-1.3793028668488825
-0.013633690937065242
-2.885426092765323
-1.3793028668488825
-0.013633690937065242
-2.885426092765323
-1.3704442504658418
-0.006336213760195399
-2.889366033555219
-1.3704442504658418
-0.006336213760195399
-2.889366033555219
-1.3704442504658418
-0.006336213760195399
-2.889366033555219
-1.3704442504658418
-0.006336213760195399
-2.889366033555219
-1.3654849301811143
0.0029344831360084336
-2.89378582123016
-1.3654849301811143
0.0029344831360084336
-2.89378582123016
-1.3654849301811143
0.0029344831360084336
-2.89378582123016
-1.3654849301811143
0.0029344831360084336
-2.89378582123016
-1.3699187597430271
0.011865135911510087
-2.9006397746065495
-1.3699187597430271
0.011865135911510087
-2.9006397746065495
-1.3699187597430271
0.011865135911510087
-2.9006397746065495
-1.3699187597430271
0.011865135911510087
-2.9006397746065495
-1.3760135669741314
0.02157404999892584
-2.9058145257576675
-1.3760135669741314
0.02157404999892584
-2.9058145257576675
-1.3760135669741314
0.02157404999892584
-2.9058145257576675
-1.3760135669741314
0.02157404999892584
-2.9058145257576675
-1.3821547488197483
0.029238297230266053
-2.911939039337729
-1.3821547488197483
0.029238297230266053
-2.911939039337729
-1.3821547488197483
0.029238297230266053
-2.911939039337729
-1.3821547488197483
0.029238297230266053
-2.911939039337729
-1.3831499210732914
0.03796525256973361
-2.915393335530865
-1.3831499210732914
0.03796525256973361
-2.915393335530865
-1.3831499210732914
0.03796525256973361
-2.915393335530865
-1.3831499210732914
0.03796525256973361
-2.915393335530865
-1.3820312638065746
0.04396230345833628
-2.918356986492194
-1.3820312638065746
0.04396230345833628
-2.918356986492194
-1.3820312638065746
0.04396230345833628
-2.918356986492194
-1.3820312638065746
0.04396230345833628
-2.918356986492194
-1.3747297877515205
0.04984005391076827
-2.920673777360643
-1.3747297877515205
0.04984005391076827
-2.920673777360643
-1.3747297877515205
0.04984005391076827
-2.920673777360643
-1.3747297877515205
0.04984005391076827
-2.920673777360643
-1.3755315146856326
0.053902337316583844
-2.9193376785021483
-1.3755315146856326
0.053902337316583844
-2.9193376785021483
-1.3755315146856326
0.053902337316583844
-2.9193376785021483
-1.3755315146856326
0.053902337316583844
-2.9193376785021483
-1.3757274619895563
0.05906353105702494
-2.917333679746823
-1.3757274619895563
0.05906353105702494
-2.917333679746823
-1.3757274619895563
0.05906353105702494
-2.917333679746823
-1.3757274619895563
0.05906353105702494
-2.917333679746823
-1.3744103816144275
0.062355450224690516
-2.9158106094257086
-1.3744103816144275
0.062355450224690516
-2.9158106094257086
-1.3744103816144275
0.062355450224690516
-2.9158106094257086
-1.3744103816144275
0.062355450224690516
-2.9158106094257086
-1.366139889052317
0.06373476553201364
-2.9160129751814017
-1.366139889052317
0.06373476553201364
-2.9160129751814017
-1.366139889052317
0.06373476553201364
-2.9160129751814017
-1.366139889052317
0.06373476553201364
-2.9160129751814017
-1.3590136980179368
0.06450956098224872
-2.915001677981382
-1.3590136980179368
0.06450956098224872
-2.915001677981382
-1.3590136980179368
0.06450956098224872
-2.915001677981382
-1.3590136980179368
0.06450956098224872
-2.915001677981382
-1.3568829410366599
0.06431446889720764
-2.913706353731339
-1.3568829410366599
0.06431446889720764
-2.913706353731339
-1.3568829410366599
0.06431446889720764
-2.913706353731339
-1.3568829410366599
0.06431446889720764
-2.913706353731339
-1.3551785604496307
0.06381365651541607
-2.913254329008007
-1.3551785604496307
0.06381365651541607
-2.913254329008007
-1.3551785604496307
0.06381365651541607
-2.913254329008007
-1.3551785604496307
0.06381365651541607
-2.913254329008007
-1.3536140927621911
0.06283197578548189
-2.913023119013126
-1.3536140927621911
0.06283197578548189
-2.913023119013126
-1.3536140927621911
0.06283197578548189
-2.913023119013126
-1.3536140927621911
0.06283197578548189
-2.913023119013126
-1.3515076752712918
0.06074417299146413
-2.912917547349419
-1.3515076752712918
0.06074417299146413
-2.912917547349419
-1.3515076752712918
0.06074417299146413
-2.912917547349419
-1.3515076752712918
0.06074417299146413
-2.912917547349419
-1.3477891380123617
0.0582630113666536
-2.913215449183644
-1.3477891380123617
0.0582630113666536
-2.913215449183644
-1.3477891380123617
0.0582630113666536
-2.913215449183644
-1.3477891380123617
0.0582630113666536
-2.913215449183644
-1.3449293108780156
0.05576822889313381
-2.9132893806345423
-1.3449293108780156
0.05576822889313381
-2.9132893806345423
-1.3449293108780156
0.05576822889313381
-2.9132893806345423
-1.3449293108780156
0.05576822889313381
-2.9132893806345423
-1.3456841368276773
0.0528983122076589
-2.9126949791840553
-1.3456841368276773
0.0528983122076589
-2.9126949791840553
-1.3456841368276773
0.0528983122076589
-2.9126949791840553
-1.3456841368276773
0.0528983122076589
-2.9126949791840553
-1.3464165314373253
0.05125323940328409
-2.9129193934297506
-1.3464165314373253
0.05125323940328409
-2.9129193934297506
-1.3464165314373253
0.05125323940328409
-2.9129193934297506
-1.3464165314373253
0.05125323940328409
-2.9129193934297506
-1.3463182073917694
0.04918903256307353
-2.9133223506386505
-1.3463182073917694
0.04918903256307353
-2.9133223506386505
-1.3463182073917694
0.04918903256307353
-2.9133223506386505
-1.3463182073917694
0.04918903256307353
-2.9133223506386505
-1.3457202975494338
