-1.012063257687197
0.07135400847575153
-3.1266862210358157
-1.012063257687197
0.07135400847575153
-3.1266862210358157
-1.012063257687197
0.07135400847575153
-3.1266862210358157
-1.012063257687197
0.07135400847575153
-3.1266862210358157
-1.0128701302367455
0.07153628164312471
-3.126394846805269
-1.0128701302367455
0.07153628164312471
-3.126394846805269
-1.0128701302367455
0.07153628164312471
-3.126394846805269
-1.0128701302367455
0.07153628164312471
-3.126394846805269
-1.0137388799331235
0.07193640162001602
-3.12622361533298
-1.0137388799331235
0.07193640162001602
-3.12622361533298
-1.0137388799331235
0.07193640162001602
-3.12622361533298
-1.0137388799331235
0.07193640162001602
-3.12622361533298
-1.0141550681883622
0.07250963109235403
-3.125716284088507
-1.0141550681883622
0.07250963109235403
-3.125716284088507
-1.0141550681883622
0.07250963109235403
-3.125716284088507
-1.0141550681883622
0.07250963109235403
-3.125716284088507
-1.0144046738183656
0.07307998634473309
-3.1252034742061983
-1.0144046738183656
0.07307998634473309
-3.1252034742061983
-1.0144046738183656
0.07307998634473309
-3.1252034742061983
-1.0144046738183656
0.07307998634473309
-3.1252034742061983
-1.014650828407006
0.07381631255300025
-3.1246432704059437
-1.014650828407006
0.07381631255300025
-3.1246432704059437
-1.014650828407006
0.07381631255300025
-3.1246432704059437
-1.014650828407006
0.07381631255300025
-3.1246432704059437
-1.0142450865644983
0.07427762909213688
-3.1240463470262845
-1.0142450865644983
0.07427762909213688
-3.1240463470262845
-1.0142450865644983
0.07427762909213688
-3.1240463470262845
-1.0142450865644983
0.07427762909213688
-3.1240463470262845
-1.0136109045368547
0.07451760070955506
-3.1233234834944037
-1.0136109045368547
0.07451760070955506
-3.1233234834944037
-1.0136109045368547
0.07451760070955506
-3.1233234834944037
-1.0136109045368547
0.07451760070955506
-3.1233234834944037
-1.0139171569993513
0.07450012879400555
-3.1226221847745417
-1.0139171569993513
0.07450012879400555
-3.1226221847745417
-1.0139171569993513
0.07450012879400555
-3.1226221847745417
-1.0139171569993513
0.07450012879400555
-3.1226221847745417
-1.0141743794231082
0.0744665694104149
-3.122192913778904
-1.0141743794231082
0.0744665694104149
-3.122192913778904
-1.0141743794231082
0.0744665694104149
-3.122192913778904
-1.0141743794231082
0.0744665694104149
-3.122192913778904
-1.0139863383654135
0.07437998166711084
-3.121581329485943
-1.0139863383654135
0.07437998166711084
-3.121581329485943
-1.0139863383654135
0.07437998166711084
-3.121581329485943
-1.0139863383654135
0.07437998166711084
-3.121581329485943
-1.0139863383654135
0.07437998166711084
-3.121581329485943
-1.0139863383654135
0.07437998166711084
-3.121581329485943
-1.0139863383654135
0.07437998166711084
-3.121581329485943
-1.0139863383654135
0.07437998166711084
-3.121581329485943
-1.0133374358185057
0.07431738308989481
-3.12166315949111
-1.0133374358185057
0.07431738308989481
-3.12166315949111
-1.0133374358185057
0.07431738308989481
-3.12166315949111
-1.0133374358185057
0.07431738308989481
-3.12166315949111
-1.0111273692678573
0.07420147945370521
-3.1225066991366974
-1.0111273692678573
0.07420147945370521
-3.1225066991366974
-1.0111273692678573
0.07420147945370521
-3.1225066991366974
-1.0111273692678573
0.07420147945370521
-3.1225066991366974
-1.0066734467273832
0.074659417008098
-3.123455106929011
-1.0066734467273832
0.074659417008098
-3.123455106929011
-1.0066734467273832
0.074659417008098
-3.123455106929011
-1.0066734467273832
0.074659417008098
-3.123455106929011
-1.0015939173893253
0.07525431990354772
-3.1251475910470075
-1.0015939173893253
0.07525431990354772
-3.1251475910470075
-1.0015939173893253
0.07525431990354772
-3.1251475910470075
-1.0015939173893253
0.07525431990354772
-3.1251475910470075
-0.9966643105816121
0.07620112606526559
-3.1264716170651043
-0.9966643105816121
0.07620112606526559
-3.1264716170651043
-0.9966643105816121
0.07620112606526559
-3.1264716170651043
-0.9966643105816121
0.07620112606526559
-3.1264716170651043
-0.9905529735552269
0.07765666468548611
-3.12705166506198
-0.9905529735552269
0.07765666468548611
-3.12705166506198
-0.9905529735552269
0.07765666468548611
-3.12705166506198
-0.9905529735552269
0.07765666468548611
-3.12705166506198
-0.9861289209401193
0.07789002535895286
-3.127160718080208
-0.9861289209401193
0.07789002535895286
-3.127160718080208
-0.9861289209401193
0.07789002535895286
-3.127160718080208
-0.9861289209401193
0.07789002535895286
-3.127160718080208
-0.9778193132237649
0.076478343358077
-3.1283337961459625
-0.9778193132237649
0.076478343358077
-3.1283337961459625
-0.9778193132237649
0.076478343358077
-3.1283337961459625
-0.9778193132237649
0.076478343358077
-3.1283337961459625
-0.97274173855934
0.07380871627023096
-3.131031263022412
-0.97274173855934
0.07380871627023096
-3.131031263022412
-0.97274173855934
0.07380871627023096
-3.131031263022412
-0.97274173855934
0.07380871627023096
-3.131031263022412
-0.9718445777090778
0.07157254495739482
-3.133134117484618
-0.9718445777090778
0.07157254495739482
-3.133134117484618
-0.9718445777090778
0.07157254495739482
-3.133134117484618
-0.9718445777090778
0.07157254495739482
-3.133134117484618
-0.974899826975918
0.0698635408664529
-3.1344048817582184
-0.974899826975918
0.0698635408664529
-3.1344048817582184
-0.974899826975918
0.0698635408664529
-3.1344048817582184
-0.974899826975918
0.0698635408664529
-3.1344048817582184
-0.9763129071142738
0.06880039348936672
-3.135684905273276
-0.9763129071142738
0.06880039348936672
-3.135684905273276
-0.9763129071142738
0.06880039348936672
-3.135684905273276
-0.9763129071142738
0.06880039348936672
-3.135684905273276
-0.9753287901904423
0.06591852300033466
-3.1371667567755295
-0.9753287901904423
0.06591852300033466
-3.1371667567755295
-0.9753287901904423
0.06591852300033466
-3.1371667567755295
-0.9753287901904423
0.06591852300033466
-3.1371667567755295
-0.9706677758837162
0.061475455430068576
-3.1399218151101724
-0.9706677758837162
0.061475455430068576
-3.1399218151101724
-0.9706677758837162
0.061475455430068576
-3.1399218151101724
-0.9706677758837162
0.061475455430068576
-3.1399218151101724
-0.9630024266520224
0.05835098812526191
3.140168104409387
-0.9630024266520224
0.05835098812526191
3.140168104409387
-0.9630024266520224
0.05835098812526191
3.140168104409387
-0.9630024266520224
0.05835098812526191
3.140168104409387
-0.9594069080993125
0.05768943157958831
3.139792129650558
-0.9594069080993125
0.05768943157958831
3.139792129650558
-0.9594069080993125
0.05768943157958831
3.139792129650558
-0.9594069080993125
0.05768943157958831
3.139792129650558
-0.9593931501352909
0.05807925353031088
3.1402778530141044
-0.9593931501352909
0.05807925353031088
3.1402778530141044
-0.9593931501352909
0.05807925353031088
3.1402778530141044
-0.9593931501352909
0.05807925353031088
3.1402778530141044
-0.9577412654067663
0.05857876344387326
3.1407552046770904
-0.9577412654067663
0.05857876344387326
3.1407552046770904
-0.9577412654067663
0.05857876344387326
3.1407552046770904
-0.9577412654067663
0.05857876344387326
3.1407552046770904
-0.9533254896456722
0.05862797793441281
3.1404470151619392
-0.9533254896456722
0.05862797793441281
3.1404470151619392
-0.9533254896456722
0.05862797793441281
3.1404470151619392
-0.9533254896456722
0.05862797793441281
3.1404470151619392
-0.9516986814215824
0.05867873041015295
3.1400571612746586
-0.9516986814215824
0.05867873041015295
3.1400571612746586
-0.9516986814215824
0.05867873041015295
3.1400571612746586
-0.9516986814215824
0.05867873041015295
3.1400571612746586
-0.9548691373197998
0.058403809707711404
3.1399678711286456
-0.9548691373197998
0.058403809707711404
3.1399678711286456
-0.9548691373197998
0.058403809707711404
3.1399678711286456
-0.9548691373197998
0.058403809707711404
3.1399678711286456
-0.9586822815404255
0.05709550886015461
3.1402593508814602
-0.9586822815404255
0.05709550886015461
3.1402593508814602
-0.9586822815404255
0.05709550886015461
3.1402593508814602
-0.9586822815404255
0.05709550886015461
3.1402593508814602
-0.9560651074465841
0.055018635619142685
3.1400363080590914
-0.9560651074465841
0.055018635619142685
3.1400363080590914
-0.9560651074465841
0.055018635619142685
3.1400363080590914
-0.9560651074465841
0.055018635619142685
3.1400363080590914
-0.9511060441593039
0.053048890488026294
3.139540917815446
-0.9511060441593039
0.053048890488026294
3.139540917815446
-0.9497917520199707
0.05124497689967092
3.1395416029502488
-0.9497917520199707
0.05124497689967092
3.1395416029502488
-0.9497917520199707
0.05124497689967092
3.1395416029502488
-0.9497917520199707
0.05124497689967092
3.1395416029502488
-0.9508917497548238
0.04954739786105315
3.1391511773317484
-0.9508917497548238
0.04954739786105315
3.1391511773317484
-0.9508917497548238
0.04954739786105315
3.1391511773317484
-0.9508917497548238
0.04954739786105315
3.1391511773317484
-0.9522691929603635
0.04844709718158242
3.1385846850743095
-0.9522691929603635
0.04844709718158242
3.1385846850743095
-0.9522691929603635
0.04844709718158242
3.1385846850743095
-0.9522691929603635
0.04844709718158242
3.1385846850743095
-0.9530956482223605
0.04729469851656038
3.138197260997912
-0.9530956482223605
0.04729469851656038
3.138197260997912
-0.9530956482223605
0.04729469851656038
3.138197260997912
-0.9530956482223605
0.04729469851656038
3.138197260997912
-0.953812188735911
0.04630790474222606
3.1378656547520563
-0.953812188735911
0.04630790474222606
3.1378656547520563
-0.953812188735911
0.04630790474222606
3.1378656547520563
-0.953812188735911
0.04630790474222606
3.1378656547520563
-0.9556636088076347
0.04482871358083437
3.1378985436248197
-0.9556636088076347
0.04482871358083437
3.1378985436248197
-0.9556636088076347
0.04482871358083437
3.1378985436248197
-0.9556636088076347
0.04482871358083437
3.1378985436248197
-0.955398609169539
0.04362181237943431
3.1374299743665306
-0.955398609169539
0.04362181237943431
3.1374299743665306
-0.955398609169539
0.04362181237943431
3.1374299743665306
-0.955398609169539
0.04362181237943431
3.1374299743665306
-0.956225478956526
0.042849509696844715
3.136986240076732
-0.956225478956526
0.042849509696844715
3.136986240076732
-0.956225478956526
0.042849509696844715
3.136986240076732
-0.956225478956526
0.042849509696844715
3.136986240076732
-0.957593897238022
0.042187748716152614
3.136748506594237
-0.957593897238022
0.042187748716152614
3.136748506594237
-0.957593897238022
0.042187748716152614
3.136748506594237
-0.957593897238022
0.042187748716152614
3.136748506594237
-0.959133319814128
0.04179483362870704
3.1362306728808553
-0.959133319814128
0.04179483362870704
3.1362306728808553
-0.959133319814128
0.04179483362870704
3.1362306728808553
-0.959133319814128
0.04179483362870704
3.1362306728808553
-0.961327373691791
0.04183532173663993
3.1357472331083978
-0.961327373691791
0.04183532173663993
3.1357472331083978
-0.961327373691791
0.04183532173663993
3.1357472331083978
-0.961327373691791
0.04183532173663993
3.1357472331083978
-0.9621565087239231
0.041714900118987513
3.1352404911650673
-0.9621565087239231
0.041714900118987513
3.1352404911650673
-0.9621565087239231
0.041714900118987513
3.1352404911650673
-0.9621565087239231
0.041714900118987513
3.1352404911650673
-0.9622632641128304
0.04160520002439273
3.135294944700274
-0.9622632641128304
0.04160520002439273
3.135294944700274
-0.9622632641128304
0.04160520002439273
3.135294944700274
-0.9622632641128304
0.04160520002439273
3.135294944700274
-0.9621642579075403
0.04165364476321706
3.134859127793309
-0.9621642579075403
0.04165364476321706
3.134859127793309
-0.9621642579075403
0.04165364476321706
3.134859127793309
-0.9621642579075403
0.04165364476321706
3.134859127793309
-0.9634354502697567
0.04202117701048925
3.1342251058931723
-0.9634354502697567
0.04202117701048925
3.1342251058931723
-0.9634354502697567
0.04202117701048925
3.1342251058931723
-0.9634354502697567
0.04202117701048925
3.1342251058931723
-0.963169228128337
0.04229021625103481
3.1339528167895243
-0.963169228128337
0.04229021625103481
3.1339528167895243
-0.963169228128337
0.04229021625103481
3.1339528167895243
-0.963169228128337
0.04229021625103481
3.1339528167895243
-0.9634546233931491
0.04271669884556294
3.1334475626245717
-0.9634546233931491
0.04271669884556294
3.1334475626245717
-0.9634546233931491
0.04271669884556294
3.1334475626245717
-0.9634546233931491
0.04271669884556294
3.1334475626245717
-0.9644454170302058
0.04314594485758617
3.1331997605482775
-0.9644454170302058
0.04314594485758617
3.1331997605482775
-0.9644454170302058
0.04314594485758617
3.1331997605482775
-0.9644454170302058
0.04314594485758617
3.1331997605482775
-0.9639000423951634
0.04358600262173362
3.1332580856124985
-0.9639000423951634
0.04358600262173362
3.1332580856124985
-0.9639000423951634
0.04358600262173362
3.1332580856124985
-0.9639000423951634
0.04358600262173362
3.1332580856124985
-0.9629291215856237
0.044619226243184505
3.132878762973799
-0.9629291215856237
0.044619226243184505
3.132878762973799
-0.9629291215856237
0.044619226243184505
3.132878762973799
-0.9629291215856237
0.044619226243184505
3.132878762973799
-0.9635340939300248
0.045329178201613404
3.1329065694732243
-0.9635340939300248
0.045329178201613404
3.1329065694732243
-0.9635340939300248
0.045329178201613404
3.1329065694732243
-0.9635340939300248
0.045329178201613404
3.1329065694732243
-0.9643600698784981
0.045922463528253805
3.1327129952699875
-0.9643600698784981
0.045922463528253805
3.1327129952699875
-0.9643600698784981
0.045922463528253805
3.1327129952699875
-0.9643600698784981
0.045922463528253805
3.1327129952699875
-0.9651709295805255
0.04598031239296622
3.133075569762234
-0.9651709295805255
0.04598031239296622
3.133075569762234
-0.9651709295805255
0.04598031239296622
3.133075569762234
-0.9651709295805255
0.04598031239296622
3.133075569762234
-0.9668498848584773
0.04593437349378705
3.133747464463027
-0.9668498848584773
0.04593437349378705
3.133747464463027
-0.9668498848584773
0.04593437349378705
3.133747464463027
-0.9668498848584773
0.04593437349378705
3.133747464463027
-0.9680306429939591
0.04567177826556626
3.134545109608114
-0.9680306429939591
0.04567177826556626
3.134545109608114
-0.9680306429939591
0.04567177826556626
3.134545109608114
-0.9680306429939591
0.04567177826556626
3.134545109608114
-0.9700742245162565
0.044710659814271914
3.135829639493994
-0.9700742245162565
0.044710659814271914
3.135829639493994
-0.9700742245162565
0.044710659814271914
3.135829639493994
-0.9700742245162565
0.044710659814271914
3.135829639493994
-0.9732866938802216
0.04356335460826917
3.1385696837162236
-0.9732866938802216
0.04356335460826917
3.1385696837162236
-0.9732866938802216
0.04356335460826917
3.1385696837162236
-0.9732866938802216
0.04356335460826917
3.1385696837162236
-0.9796887751008567
0.042038266626094764
-3.1400724601005203
-0.9796887751008567
0.042038266626094764
-3.1400724601005203
-0.9796887751008567
0.042038266626094764
-3.1400724601005203
-0.9796887751008567
0.042038266626094764
-3.1400724601005203
-0.9880594630238163
0.0412593826931837
-3.1301185216935914
-0.9880594630238163
0.0412593826931837
-3.1301185216935914
-0.9880594630238163
0.0412593826931837
-3.1301185216935914
-0.9880594630238163
0.0412593826931837
-3.1301185216935914
-0.995775272138295
0.042759001139062655
-3.1181434972691497
-0.995775272138295
0.042759001139062655
-3.1181434972691497
-0.995775272138295
0.042759001139062655
-3.1181434972691497
-0.995775272138295
0.042759001139062655
-3.1181434972691497
-1.000531468013757
0.04622600409700403
-3.1102266134200405
-1.000531468013757
0.04622600409700403
-3.1102266134200405
-1.000531468013757
0.04622600409700403
-3.1102266134200405
-1.000531468013757
0.04622600409700403
-3.1102266134200405
-1.0013031079297499
0.050056589079767844
-3.106066331143282
-1.0013031079297499
0.050056589079767844
-3.106066331143282
-1.0013031079297499
0.050056589079767844
-3.106066331143282
-1.0013031079297499
0.050056589079767844
-3.106066331143282
-1.0032036376353635
0.053042051214204265
-3.1032727378959892
-1.0032036376353635
0.053042051214204265
-3.1032727378959892
-1.0032036376353635
0.053042051214204265
-3.1032727378959892
-1.0032036376353635
0.053042051214204265
-3.1032727378959892
-1.0044228779949373
0.05527553946874505
-3.10131165138872
-1.0044228779949373
0.05527553946874505
-3.10131165138872
-1.0044228779949373
0.05527553946874505
-3.10131165138872
-1.0044228779949373
0.05527553946874505
-3.10131165138872
-1.0010123605874255
0.0569525033222076
-3.099806232288498
-1.0010123605874255
0.0569525033222076
-3.099806232288498
-1.0010123605874255
0.0569525033222076
-3.099806232288498
-1.0010123605874255
0.0569525033222076
-3.099806232288498
-0.9952037677194924
0.0575448191997847
-3.0996084736330913
-0.9952037677194924
0.0575448191997847
-3.0996084736330913
-0.9952037677194924
0.0575448191997847
-3.0996084736330913
-0.9952037677194924
0.0575448191997847
-3.0996084736330913
-0.991974706317546
0.05849072003797988
-3.100205217087058
-0.991974706317546
0.05849072003797988
-3.100205217087058
-0.991974706317546
0.05849072003797988
-3.100205217087058
-0.991974706317546
0.05849072003797988
-3.100205217087058
-0.9924273824234846
0.05902010237643819
-3.1010540266198223
-0.9924273824234846
0.05902010237643819
-3.1010540266198223
-0.9924273824234846
0.05902010237643819
-3.1010540266198223
-0.9924273824234846
0.05902010237643819
-3.1010540266198223
-0.9939690939975139
0.059520514879973965
-3.1017707360922016
-0.9939690939975139
0.059520514879973965
-3.1017707360922016
-0.9939690939975139
0.059520514879973965
-3.1017707360922016
-0.9939690939975139
0.059520514879973965
-3.1017707360922016
-0.9950879114858977
0.06042083424528693
-3.103255150969391
-0.9950879114858977
0.06042083424528693
-3.103255150969391
-0.9950879114858977
0.06042083424528693
-3.103255150969391
-0.9950879114858977
0.06042083424528693
-3.103255150969391
-0.9947117885637371
0.060611580886277196
-3.1054367394106777
-0.9947117885637371
0.060611580886277196
-3.1054367394106777
-0.9947117885637371
0.060611580886277196
-3.1054367394106777
-0.9947117885637371
0.060611580886277196
-3.1054367394106777
-0.9936453233589673
0.06049967471094748
-3.108134504608286
-0.9936453233589673
0.06049967471094748
-3.108134504608286
-0.9936453233589673
0.06049967471094748
-3.108134504608286
-0.9936453233589673
0.06049967471094748
-3.108134504608286
-0.9935426696056755
0.06037506299003634
-3.1101497649879972
-0.9935426696056755
0.06037506299003634
-3.1101497649879972
-0.9935426696056755
0.06037506299003634
-3.1101497649879972
-0.9935426696056755
0.06037506299003634
-3.1101497649879972
-0.9934908707220111
0.0610146326758735
-3.112299419089362
-0.9934908707220111
0.0610146326758735
-3.112299419089362
-0.9934908707220111
0.0610146326758735
-3.112299419089362
-0.9934908707220111
0.0610146326758735
-3.112299419089362
-0.9937710807560218
0.06153712533335454
-3.1146765297011365
-0.9937710807560218
0.06153712533335454
-3.1146765297011365
-0.9937710807560218
0.06153712533335454
-3.1146765297011365
-0.9937710807560218
0.06153712533335454
-3.1146765297011365
-0.9945607691049781
0.06168058712404008
-3.117273066794269
-0.9945607691049781
0.06168058712404008
-3.117273066794269
-0.9945607691049781
0.06168058712404008
-3.117273066794269
-0.9945607691049781
0.06168058712404008
-3.117273066794269
-0.994461782660919
0.06209174721509924
-3.1195795241229947
-0.994461782660919
0.06209174721509924
-3.1195795241229947
-0.994461782660919
0.06209174721509924
-3.1195795241229947
-0.994461782660919
0.06209174721509924
-3.1195795241229947
-0.9951032244138333
0.06308780850751873
-3.121107417100699
-0.9951032244138333
0.06308780850751873
-3.121107417100699
-0.9951032244138333
0.06308780850751873
-3.121107417100699
-0.9951032244138333
0.06308780850751873
-3.121107417100699
-0.9970593300328606
0.06365227101588661
-3.1227190537697433
-0.9970593300328606
0.06365227101588661
-3.1227190537697433
-0.9970593300328606
0.06365227101588661
-3.1227190537697433
-0.9970593300328606
0.06365227101588661
-3.1227190537697433
-0.9971632262279881
0.06479731219186369
-3.124455456634468
-0.9971632262279881
0.06479731219186369
-3.124455456634468
-0.9971632262279881
0.06479731219186369
-3.124455456634468
-0.9971632262279881
0.06479731219186369
-3.124455456634468
-0.9974676041905075
0.06568643497175132
-3.1256442656559007
-0.9974676041905075
0.06568643497175132
-3.1256442656559007
-0.9974676041905075
0.06568643497175132
-3.1256442656559007
-0.9974676041905075
0.06568643497175132
-3.1256442656559007
-0.9992073824101745
0.06619811970321096
-3.127085314626282
-0.9992073824101745
0.06619811970321096
-3.127085314626282
-0.9992073824101745
0.06619811970321096
-3.127085314626282
-0.9992073824101745
0.06619811970321096
-3.127085314626282
-0.9996256145374696
0.06626650778677382
-3.128249866211771
-0.9996256145374696
0.06626650778677382
-3.128249866211771
-0.9996256145374696
0.06626650778677382
-3.128249866211771
-0.9996256145374696
0.06626650778677382
-3.128249866211771
-1.0003468942205826
0.06664198625353131
-3.128615049159203
-1.0003468942205826
0.06664198625353131
-3.128615049159203
-1.0003468942205826
0.06664198625353131
-3.128615049159203
-1.0003468942205826
0.06664198625353131
-3.128615049159203
-1.000634436231229
0.06706171094960557
-3.129131971355629
-1.000634436231229
0.06706171094960557
-3.129131971355629
-1.000634436231229
0.06706171094960557
-3.129131971355629
-1.000634436231229
0.06706171094960557
-3.129131971355629
-0.9996686042152813
0.0671424063445494
-3.129704072111221
-0.9996686042152813
0.0671424063445494
-3.129704072111221
-0.9996686042152813
0.0671424063445494
-3.129704072111221
-0.9996686042152813
0.0671424063445494
-3.129704072111221
-0.9999654333958076
0.06679290225065192
-3.1303572016591623
-0.9999654333958076
0.06679290225065192
-3.1303572016591623
-0.9999654333958076
0.06679290225065192
-3.1303572016591623
-0.9999654333958076
0.06679290225065192
-3.1303572016591623
-1.000587755368268
0.0670519405347068
-3.1309333690509105
-1.000587755368268
0.0670519405347068
-3.1309333690509105
-1.000587755368268
0.0670519405347068
-3.1309333690509105
-1.000587755368268
0.0670519405347068
-3.1309333690509105
-1.0012595646238867
0.06665305045262185
-3.1314334318745685
-1.0012595646238867
0.06665305045262185
-3.1314334318745685
-1.0012595646238867
0.06665305045262185
-3.1314334318745685
-1.0012595646238867
0.06665305045262185
-3.1314334318745685
-1.0007348221853773
0.06619282028928962
-3.132000222339571
-1.0007348221853773
0.06619282028928962
-3.132000222339571
-1.0007348221853773
0.06619282028928962
-3.132000222339571
-1.0007348221853773
0.06619282028928962
-3.132000222339571
-0.9988971490964589
0.06539205797688784
-3.132622068451608
-0.9988971490964589
0.06539205797688784
-3.132622068451608
-0.9988971490964589
0.06539205797688784
-3.132622068451608
-0.9988971490964589
0.06539205797688784
-3.132622068451608
-0.9982082142277962
0.06476500609152348
-3.1332333750511894
-0.9982082142277962
0.06476500609152348
-3.1332333750511894
-0.9982082142277962
0.06476500609152348
-3.1332333750511894
-0.9982082142277962
0.06476500609152348
-3.1332333750511894
-0.9988666836255736
0.06378181256345296
-3.1332744387458793
-0.9988666836255736
0.06378181256345296
-3.1332744387458793
-0.9988666836255736
0.06378181256345296
-3.1332744387458793
-0.9988666836255736
0.06378181256345296
-3.1332744387458793
-0.9987798857911057
0.06267323390063702
-3.1337782199153903
-0.9987798857911057
0.06267323390063702
-3.1337782199153903
-0.9987798857911057
0.06267323390063702
-3.1337782199153903
-0.9987798857911057
0.06267323390063702
-3.1337782199153903
-0.997493375360836
0.061379720417941146
-3.1345675705009093
-0.997493375360836
0.061379720417941146
-3.1345675705009093
-0.997493375360836
0.061379720417941146
-3.1345675705009093
-0.997493375360836
0.061379720417941146
-3.1345675705009093
-0.9959878557508142
0.06014842453470398
-3.1352442551062913
-0.9959878557508142
0.06014842453470398
-3.1352442551062913
-0.9959878557508142
0.06014842453470398
-3.1352442551062913
-0.9959878557508142
0.06014842453470398
-3.1352442551062913
-0.9942184384374657
0.059668365113721165
-3.1363226646795295
-0.9942184384374657
0.059668365113721165
-3.1363226646795295
-0.9942184384374657
0.059668365113721165
-3.1363226646795295
-0.9942184384374657
0.059668365113721165
-3.1363226646795295
-0.9914429796053803
0.05980833919549565
-3.136736423600655
-0.9914429796053803
0.05980833919549565
-3.136736423600655
-0.9914429796053803
0.05980833919549565
-3.136736423600655
-0.9914429796053803
0.05980833919549565
-3.136736423600655
-0.9911923971354025
0.061209575717160396
-3.1356804623455483
-0.9911923971354025
0.061209575717160396
-3.1356804623455483
-0.9911923971354025
0.061209575717160396
-3.1356804623455483
-0.9911923971354025
0.061209575717160396
-3.1356804623455483
-0.9934867690203326
0.062418663719525945
-3.1340419349545345
-0.9934867690203326
0.062418663719525945
-3.1340419349545345
-0.9934867690203326
0.062418663719525945
-3.1340419349545345
-0.9934867690203326
0.062418663719525945
-3.1340419349545345
-0.9944523648911429
0.0639118533380742
-3.1336302274499697
-0.9944523648911429
0.0639118533380742
-3.1336302274499697
-0.9944523648911429
0.0639118533380742
-3.1336302274499697
-0.9944523648911429
0.0639118533380742
-3.1336302274499697
-0.9950388430444368
0.06589310221017994
-3.133333093141518
-0.9950388430444368
0.06589310221017994
-3.133333093141518
-0.9950388430444368
0.06589310221017994
-3.133333093141518
-0.9950388430444368
0.06589310221017994
-3.133333093141518
-0.9978380179595726
0.06835203664165915
-3.1322540758052977
-0.9978380179595726
0.06835203664165915
-3.1322540758052977
-0.9978380179595726
0.06835203664165915
-3.1322540758052977
-0.9978380179595726
0.06835203664165915
-3.1322540758052977
-1.0009083792746067
0.07081510773947756
-3.1311914799648064
-1.0009083792746067
0.07081510773947756
-3.1311914799648064
-1.0009083792746067
0.07081510773947756
-3.1311914799648064
-1.0009083792746067
0.07081510773947756
-3.1311914799648064
-1.0020256031346964
0.07259643523715274
-3.1305317674229225
-1.0020256031346964
0.07259643523715274
-3.1305317674229225
-1.0020256031346964
0.07259643523715274
-3.1305317674229225
-1.0020256031346964
0.07259643523715274
-3.1305317674229225
-1.0019087893514496
0.07439906515828203
-3.1305398492362273
-1.0019087893514496
0.07439906515828203
-3.1305398492362273
-1.0019087893514496
0.07439906515828203
-3.1305398492362273
-1.0019087893514496
0.07439906515828203
-3.1305398492362273
-1.0019569034209428
0.0764770124494797
-3.1305639351160823
-1.0019569034209428
0.0764770124494797
-3.1305639351160823
-1.0019569034209428
0.0764770124494797
-3.1305639351160823
-1.0019569034209428
0.0764770124494797
-3.1305639351160823
-1.0032216571046875
0.07783669730502926
-3.1309370826288725
-1.0032216571046875
0.07783669730502926
-3.1309370826288725
-1.0032216571046875
0.07783669730502926
-3.1309370826288725
-1.0032216571046875
0.07783669730502926
-3.1309370826288725
-1.00331242906136
0.07911441136723904
-3.13191799507399
-1.00331242906136
0.07911441136723904
-3.13191799507399
-1.00331242906136
0.07911441136723904
-3.13191799507399
-1.00331242906136
0.07911441136723904
-3.13191799507399
-1.0020828598223315
0.07989526600267735
-3.132718957281285
-1.0020828598223315
0.07989526600267735
-3.132718957281285
-1.0020828598223315
0.07989526600267735
-3.132718957281285
-1.0020828598223315
0.07989526600267735
-3.132718957281285
-1.0025448046067764
0.08053038893986599
-3.1333624862928375
-1.0025448046067764
0.08053038893986599
-3.1333624862928375
-1.0025448046067764
0.08053038893986599
-3.1333624862928375
-1.0025448046067764
0.08053038893986599
-3.1333624862928375
-1.0024166534323966
0.08136317153375595
-3.1343730857345555
-1.0024166534323966
0.08136317153375595
-3.1343730857345555
-1.0024166534323966
0.08136317153375595
-3.1343730857345555
-1.0024166534323966
0.08136317153375595
-3.1343730857345555
-1.0021982506076514
0.08185681266823791
-3.135749546031272
-1.0021982506076514
0.08185681266823791
-3.135749546031272
-1.0021982506076514
0.08185681266823791
-3.135749546031272
-1.0021982506076514
0.08185681266823791
-3.135749546031272
-1.002521113452704
0.08175770284209605
-3.136961872756974
-1.002521113452704
0.08175770284209605
-3.136961872756974
-1.002521113452704
0.08175770284209605
-3.136961872756974
-1.002521113452704
0.08175770284209605
-3.136961872756974
-1.0021896349560357
0.08166031666307902
-3.1381472910153447
-1.0021896349560357
0.08166031666307902
-3.1381472910153447
-1.0021896349560357
0.08166031666307902
-3.1381472910153447
-1.0021896349560357
0.08166031666307902
-3.1381472910153447
-1.0020547708306864
0.0812480161296585
-3.1388919455531257
-1.0020547708306864
0.0812480161296585
-3.1388919455531257
-1.0020547708306864
0.0812480161296585
-3.1388919455531257
-1.0020547708306864
0.0812480161296585
-3.1388919455531257
-1.0028905357369708
0.08090641472694719
-3.1392957450709984
-1.0028905357369708
0.08090641472694719
-3.1392957450709984
-1.0028905357369708
0.08090641472694719
-3.1392957450709984
-1.0028905357369708
0.08090641472694719
-3.1392957450709984
-1.003301971973042
0.08049354144689727
-3.140062264689694
-1.003301971973042
0.08049354144689727
-3.140062264689694
-1.003301971973042
0.08049354144689727
-3.140062264689694
-1.003301971973042
0.08049354144689727
-3.140062264689694
-1.0031946804481524
0.0804958212232566
-3.1400578991435575
-1.0031946804481524
0.0804958212232566
-3.1400578991435575
-1.0031946804481524
0.0804958212232566
-3.1400578991435575
-1.0031946804481524
0.0804958212232566
-3.1400578991435575
-1.0031903114896277
0.08055446418369823
-3.1399506042062795
-1.0031903114896277
0.08055446418369823
-3.1399506042062795
-1.0031903114896277
0.08055446418369823
-3.1399506042062795
-1.0031903114896277
0.08055446418369823
-3.1399506042062795
-1.0031663444615604
0.08128578669239728
-3.1393760210640567
-1.0031663444615604
0.08128578669239728
-3.1393760210640567
-1.0031663444615604
0.08128578669239728
-3.1393760210640567
-1.0031663444615604
0.08128578669239728
-3.1393760210640567
-1.0050009015157892
0.08197526377204574
-3.1387116428584414
-1.0050009015157892
0.08197526377204574
-3.1387116428584414
-1.0050009015157892
0.08197526377204574
-3.1387116428584414
-1.0050009015157892
0.08197526377204574
-3.1387116428584414
-1.0076533456264187
0.08228675678132201
-3.1380123902483654
-1.0076533456264187
0.08228675678132201
-3.1380123902483654
-1.0076533456264187
0.08228675678132201
-3.1380123902483654
-1.0076533456264187
0.08228675678132201
-3.1380123902483654
-1.00957633475774
0.08080647342701235
-3.1382493807897385
-1.00957633475774
0.08080647342701235
-3.1382493807897385
-1.00957633475774
0.08080647342701235
-3.1382493807897385
-1.00957633475774
0.08080647342701235
-3.1382493807897385
-1.008287890575073
0.07929738825285686
-3.138902012611991
-1.008287890575073
0.07929738825285686
-3.138902012611991
-1.008287890575073
0.07929738825285686
-3.138902012611991
-1.008287890575073
0.07929738825285686
-3.138902012611991
-1.0092127121188705
0.07837067486683405
-3.138846207652468
-1.0092127121188705
0.07837067486683405
-3.138846207652468
-1.0092127121188705
0.07837067486683405
-3.138846207652468
-1.0092127121188705
0.07837067486683405
-3.138846207652468
-1.0114457350020045
0.07800658119091344
-3.1385901464812025
-1.0114457350020045
0.07800658119091344
-3.1385901464812025
-1.0114457350020045
0.07800658119091344
-3.1385901464812025
-1.0114457350020045
0.07800658119091344
-3.1385901464812025
-1.0089669750973622
0.07785129581962304
-3.1395261080678267
-1.0089669750973622
0.07785129581962304
-3.1395261080678267
-1.0089669750973622
0.07785129581962304
-3.1395261080678267
-1.0089669750973622
0.07785129581962304
-3.1395261080678267
-1.0066328212818356
0.07744936569647197
-3.139911306018959
-1.0066328212818356
0.07744936569647197
-3.139911306018959
-1.0066328212818356
0.07744936569647197
-3.139911306018959
-1.0066328212818356
0.07744936569647197
-3.139911306018959
-1.0075576512917457
0.0770672397819885
-3.1398772840687883
-1.0075576512917457
0.0770672397819885
-3.1398772840687883
-1.0075576512917457
0.0770672397819885
-3.1398772840687883
-1.0075576512917457
0.0770672397819885
-3.1398772840687883
-1.0070395279486668
0.07611056026274986
-3.140584497865084
-1.0070395279486668
0.07611056026274986
-3.140584497865084
-1.0070395279486668
0.07611056026274986
-3.140584497865084
-1.0070395279486668
0.07611056026274986
-3.140584497865084
-1.0052264470910135
0.07479720128172425
3.141299468730573
-1.0052264470910135
0.07479720128172425
3.141299468730573
-1.0052264470910135
0.07479720128172425
3.141299468730573
-1.0052264470910135
0.07479720128172425
3.141299468730573
-1.004284532561951
0.07344011648000946
3.1401296516571144
-1.004284532561951
0.07344011648000946
3.1401296516571144
-1.004284532561951
0.07344011648000946
3.1401296516571144
-1.004284532561951
0.07344011648000946
3.1401296516571144
-1.0029184344314626
0.07239387314045866
3.1385248302446604
-1.0029184344314626
0.07239387314045866
3.1385248302446604
-1.0029184344314626
0.07239387314045866
3.1385248302446604
-1.0029184344314626
0.07239387314045866
3.1385248302446604
-1.0005759916079735
0.07117590267513448
3.1366320406478834
-1.0005759916079735
0.07117590267513448
3.1366320406478834
-1.0005759916079735
0.07117590267513448
3.1366320406478834
-1.0005759916079735
0.07117590267513448
3.1366320406478834
-0.9975946537751155
0.07071720427790722
3.1343496453257607
-0.9975946537751155
0.07071720427790722
3.1343496453257607
-0.9975946537751155
0.07071720427790722
3.1343496453257607
-0.9975946537751155
0.07071720427790722
3.1343496453257607
-0.9946269127012569
0.07107392586636622
3.131764896863776
-0.9946269127012569
0.07107392586636622
3.131764896863776
-0.9946269127012569
0.07107392586636622
3.131764896863776
-0.9946269127012569
0.07107392586636622
3.131764896863776
-0.9914670360512378
0.07307072163859739
3.128861858681083
-0.9914670360512378
0.07307072163859739
3.128861858681083
-0.9914670360512378
0.07307072163859739
3.128861858681083
-0.9914670360512378
0.07307072163859739
3.128861858681083
-0.9883368217394115
0.07670015613071857
3.127170502357741
-0.9883368217394115
0.07670015613071857
3.127170502357741
-0.9883368217394115
0.07670015613071857
3.127170502357741
-0.9883368217394115
0.07670015613071857
3.127170502357741
-0.9857132838621036
0.08222883696068249
3.126944827889427
-0.9857132838621036
0.08222883696068249
3.126944827889427
-0.9857132838621036
0.08222883696068249
3.126944827889427
-0.9857132838621036
0.08222883696068249
3.126944827889427
-0.9842903034424861
0.08839142743060271
3.1281383576435196
-0.9842903034424861
0.08839142743060271
3.1281383576435196
-0.9842903034424861
0.08839142743060271
3.1281383576435196
-0.9842903034424861
0.08839142743060271
3.1281383576435196
-0.9832152151305552
0.09496250443413944
3.1300773306089065
-0.9832152151305552
0.09496250443413944
3.1300773306089065
-0.9832152151305552
0.09496250443413944
3.1300773306089065
-0.9832152151305552
0.09496250443413944
3.1300773306089065
-0.9825535940627648
0.1007009948753893
3.132026929827508
-0.9825535940627648
0.1007009948753893
3.132026929827508
-0.9825535940627648
0.1007009948753893
3.132026929827508
-0.9825535940627648
0.1007009948753893
3.132026929827508
-0.9823220122436087
0.10512588401679933
3.1338297861643465
-0.9823220122436087
0.10512588401679933
3.1338297861643465
-0.9823220122436087
0.10512588401679933
3.1338297861643465
-0.9823220122436087
0.10512588401679933
3.1338297861643465
-0.9821810181352636
0.10878706039948244
3.135759588250042
-0.9821810181352636
0.10878706039948244
3.135759588250042
-0.9821810181352636
0.10878706039948244
3.135759588250042
-0.9821810181352636
0.10878706039948244
3.135759588250042
-0.9829971387084341
0.11169537204175202
3.1380402121794297
-0.9829971387084341
0.11169537204175202
3.1380402121794297
-0.9829971387084341
0.11169537204175202
3.1380402121794297
-0.9829971387084341
0.11169537204175202
3.1380402121794297
-0.9862875413137449
0.11350230902969646
3.1399359988362354
-0.9862875413137449
0.11350230902969646
3.1399359988362354
-0.9862875413137449
0.11350230902969646
3.1399359988362354
-0.9862875413137449
0.11350230902969646
3.1399359988362354
-0.9889863244496214
0.11459193115233426
3.1415541964171836
-0.9889863244496214
0.11459193115233426
3.1415541964171836
-0.9889863244496214
0.11459193115233426
3.1415541964171836
-0.9889863244496214
0.11459193115233426
3.1415541964171836
-0.9874439809275058
0.11519397007682447
-3.141451420184214
-0.9874439809275058
0.11519397007682447
-3.141451420184214
-0.9874439809275058
0.11519397007682447
-3.141451420184214
-0.9874439809275058
0.11519397007682447
-3.141451420184214
-0.9853539375968267
0.11426961567956932
-3.1412492681570336
-0.9853539375968267
0.11426961567956932
-3.1412492681570336
-0.9853539375968267
0.11426961567956932
-3.1412492681570336
-0.9853539375968267
0.11426961567956932
-3.1412492681570336
-0.9882561260571737
0.1123799888107509
3.1408429689173287
-0.9882561260571737
0.1123799888107509
3.1408429689173287
-0.9882561260571737
0.1123799888107509
3.1408429689173287
-0.9882561260571737
0.1123799888107509
3.1408429689173287
-0.9924109742622926
0.11113112891920483
3.140868796640538
-0.9924109742622926
0.11113112891920483
3.140868796640538
-0.9924109742622926
0.11113112891920483
3.140868796640538
-0.9924109742622926
0.11113112891920483
3.140868796640538
-1.0020814912808031
0.11124532829089036
-3.1411080510859626
-1.0020814912808031
0.11124532829089036
-3.1411080510859626
-1.0020814912808031
0.11124532829089036
-3.1411080510859626
-1.0020814912808031
0.11124532829089036
-3.1411080510859626
-1.0131414390449702
0.11162320526620069
-3.1392774965315255
-1.0131414390449702
0.11162320526620069
-3.1392774965315255
-1.0131414390449702
0.11162320526620069
-3.1392774965315255
-1.0131414390449702
0.11162320526620069
-3.1392774965315255
-1.0209933968022251
0.11206566367454508
-3.13869631850061
-1.0209933968022251
0.11206566367454508
-3.13869631850061
-1.0209933968022251
0.11206566367454508
-3.13869631850061
-1.0209933968022251
0.11206566367454508
-3.13869631850061
-1.024003119342163
0.11219761990449284
-3.139637633191172
-1.024003119342163
0.11219761990449284
-3.139637633191172
-1.024003119342163
0.11219761990449284
-3.139637633191172
-1.024003119342163
0.11219761990449284
-3.139637633191172
-1.0253514558416226
0.11190597799015167
-3.1412317764986444
-1.0253514558416226
0.11190597799015167
-3.1412317764986444
-1.0253514558416226
0.11190597799015167
-3.1412317764986444
-1.0253514558416226
0.11190597799015167
-3.1412317764986444
-1.0263735256438684
0.11171347785448683
3.141303687861434
-1.0263735256438684
0.11171347785448683
3.141303687861434
-1.0263735256438684
0.11171347785448683
3.141303687861434
-1.0263735256438684
0.11171347785448683
3.141303687861434
-1.028399974231031
0.1118715814530535
-3.1409629165756243
-1.028399974231031
0.1118715814530535
-3.1409629165756243
-1.028399974231031
0.1118715814530535
-3.1409629165756243
-1.028399974231031
0.1118715814530535
-3.1409629165756243
-1.029619316034287
0.1117471420258607
-3.1402583408548748
-1.029619316034287
0.1117471420258607
-3.1402583408548748
-1.029619316034287
0.1117471420258607
-3.1402583408548748
-1.029619316034287
0.1117471420258607
-3.1402583408548748
-1.0293202607569856
0.11144334129294618
-3.1397880328298817
-1.0293202607569856
0.11144334129294618
-3.1397880328298817
-1.0293202607569856
0.11144334129294618
-3.1397880328298817
-1.0293202607569856
0.11144334129294618
-3.1397880328298817
-1.027712730780258
0.11057442317016321
-3.139490725622351
-1.027712730780258
0.11057442317016321
-3.139490725622351
-1.027712730780258
0.11057442317016321
-3.139490725622351
-1.027712730780258
0.11057442317016321
-3.139490725622351
-1.0265398024033257
0.10922280914329326
-3.1390850431834068
-1.0265398024033257
0.10922280914329326
-3.1390850431834068
-1.0265398024033257
0.10922280914329326
-3.1390850431834068
-1.0265398024033257
0.10922280914329326
-3.1390850431834068
-1.026894728573074
0.10782543837864364
-3.138596954379138
-1.026894728573074
0.10782543837864364
-3.138596954379138
-1.026894728573074
0.10782543837864364
-3.138596954379138
-1.026894728573074
0.10782543837864364
-3.138596954379138
-1.0289386070680167
0.1064462372200463
-3.1379253336931754
-1.0289386070680167
0.1064462372200463
-3.1379253336931754
-1.0289386070680167
0.1064462372200463
-3.1379253336931754
-1.0289386070680167
0.1064462372200463
-3.1379253336931754
-1.0295253759816947
0.10486376557914412
-3.137766765824529
-1.0295253759816947
0.10486376557914412
-3.137766765824529
-1.0295253759816947
0.10486376557914412
-3.137766765824529
-1.0295253759816947
0.10486376557914412
-3.137766765824529
-1.0280089025293846
0.10369945309925654
-3.138011522197644
-1.0280089025293846
0.10369945309925654
-3.138011522197644
-1.0280089025293846
0.10369945309925654
-3.138011522197644
-1.0280089025293846
0.10369945309925654
-3.138011522197644
-1.0258707585481364
0.10281600734564122
-3.137966772375026
-1.0258707585481364
0.10281600734564122
-3.137966772375026
-1.0258707585481364
0.10281600734564122
-3.137966772375026
-1.0258707585481364
0.10281600734564122
-3.137966772375026
-1.0259434849123472
0.1023552504364215
-3.1372912277527796
-1.0259434849123472
0.1023552504364215
-3.1372912277527796
-1.0259434849123472
0.1023552504364215
-3.1372912277527796
-1.0259434849123472
0.1023552504364215
-3.1372912277527796
-1.0267797616113277
0.10202259617485365
-3.1364413691263917
-1.0267797616113277
0.10202259617485365
-3.1364413691263917
-1.0267797616113277
0.10202259617485365
-3.1364413691263917
-1.0267797616113277
0.10202259617485365
-3.1364413691263917
-1.0268865176491562
0.1020198125144034
-3.136446974085107
-1.0268865176491562
0.1020198125144034
-3.136446974085107
-1.0268865176491562
0.1020198125144034
-3.136446974085107
-1.0268865176491562
0.1020198125144034
-3.136446974085107
-1.0256304648535834
0.10168487769043955
-3.1364759008267535
-1.0256304648535834
0.10168487769043955
-3.1364759008267535
-1.0256304648535834
0.10168487769043955
-3.1364759008267535
-1.0256304648535834
0.10168487769043955
-3.1364759008267535
-1.023649009785913
0.10146652318107612
-3.136255384171451
-1.023649009785913
0.10146652318107612
-3.136255384171451
-1.023649009785913
0.10146652318107612
-3.136255384171451
-1.023649009785913
0.10146652318107612
-3.136255384171451
-1.021930180852578
0.10136704249723816
-3.1358354194498173
-1.021930180852578
0.10136704249723816
-3.1358354194498173
-1.021930180852578
0.10136704249723816
-3.1358354194498173
-1.021930180852578
0.10136704249723816
-3.1358354194498173
-1.021371731498943
0.1012136144914482
-3.135580903202008
-1.021371731498943
0.1012136144914482
-3.135580903202008
-1.021371731498943
0.1012136144914482
-3.135580903202008
-1.021371731498943
0.1012136144914482
-3.135580903202008
-1.0212049424137095
0.10121074614781948
-3.135572596508383
-1.0212049424137095
0.10121074614781948
-3.135572596508383
-1.0212049424137095
0.10121074614781948
-3.135572596508383
-1.0212049424137095
0.10121074614781948
-3.135572596508383
-1.0215244205327227
0.10150158945704349
-3.135328359678916
-1.0215244205327227
0.10150158945704349
-3.135328359678916
-1.0215244205327227
0.10150158945704349
-3.135328359678916
-1.0215244205327227
0.10150158945704349
-3.135328359678916
-1.0215244205327227
0.10150158945704349
-3.135328359678916
-1.0215244205327227
0.10150158945704349
-3.135328359678916
-1.0215244205327227
0.10150158945704349
-3.135328359678916
-1.0215244205327227
0.10150158945704349
-3.135328359678916
-1.020541889428475
0.10171085258416569
-3.1353978761416577
-1.020541889428475
0.10171085258416569
-3.1353978761416577
-1.020541889428475
0.10171085258416569
-3.1353978761416577
-1.020541889428475
0.10171085258416569
-3.1353978761416577
-1.019014620501179
0.1020262228329079
-3.1354989414096592
-1.019014620501179
0.1020262228329079
-3.1354989414096592
-1.019014620501179
0.1020262228329079
-3.1354989414096592
-1.019014620501179
0.1020262228329079
-3.1354989414096592
-1.0178572160773884
0.10191333969101948
-3.135380469899294
-1.0178572160773884
0.10191333969101948
-3.135380469899294
-1.0178572160773884
0.10191333969101948
-3.135380469899294
-1.0178572160773884
0.10191333969101948
-3.135380469899294
-1.0170222504949404
0.1016525246964043
-3.1350524782239177
-1.0170222504949404
0.1016525246964043
-3.1350524782239177
-1.0170222504949404
0.1016525246964043
-3.1350524782239177
-1.0170222504949404
0.1016525246964043
-3.1350524782239177
-1.0157581950496042
0.10126959173962638
-3.1349166448329564
-1.0157581950496042
0.10126959173962638
-3.1349166448329564
-1.0157581950496042
0.10126959173962638
-3.1349166448329564
-1.0157581950496042
0.10126959173962638
-3.1349166448329564
-1.0145844753791045
0.10106147892792201
-3.1344655642434796
-1.0145844753791045
0.10106147892792201
-3.1344655642434796
-1.0145844753791045
0.10106147892792201
-3.1344655642434796
-1.0145844753791045
0.10106147892792201
-3.1344655642434796
-1.0128690791880999
0.10079284876903846
-3.134094206192765
-1.0128690791880999
0.10079284876903846
-3.134094206192765
-1.0128690791880999
0.10079284876903846
-3.134094206192765
-1.0128690791880999
0.10079284876903846
-3.134094206192765
-1.0115859718483193
0.10047951701559732
-3.1335787904796963
-1.0115859718483193
0.10047951701559732
-3.1335787904796963
-1.0115859718483193
0.10047951701559732
-3.1335787904796963
-1.0115859718483193
0.10047951701559732
-3.1335787904796963
-1.0112933437838394
0.10027705171998649
-3.133172571980003
-1.0112933437838394
0.10027705171998649
-3.133172571980003
-1.0112933437838394
0.10027705171998649
-3.133172571980003
-1.0112933437838394
0.10027705171998649
-3.133172571980003
-1.0106564814178596
0.1001862138337387
-3.1325357096140234
-1.0106564814178596
0.1001862138337387
-3.1325357096140234
-1.0106564814178596
0.1001862138337387
-3.1325357096140234
-1.0106564814178596
0.1001862138337387
-3.1325357096140234
-1.0098060089290266
0.09982747618571901
-3.131876413199578
-1.0098060089290266
0.09982747618571901
-3.131876413199578
-1.0098060089290266
0.09982747618571901
-3.131876413199578
-1.0098060089290266
0.09982747618571901
-3.131876413199578
-1.0095080499689844
0.0996833290559873
-3.1313632295259297
-1.0095080499689844
0.0996833290559873
-3.1313632295259297
-1.0095080499689844
0.0996833290559873
-3.1313632295259297
-1.0095080499689844
0.0996833290559873
-3.1313632295259297
-1.0089501140883437
0.09952706444200751
-3.13111013915678
-1.0089501140883437
0.09952706444200751
-3.13111013915678
-1.0089501140883437
0.09952706444200751
-3.13111013915678
-1.0089501140883437
0.09952706444200751
-3.13111013915678
-1.0082201024040156
0.09942624638516646
-3.130741817730935
-1.0082201024040156
0.09942624638516646
-3.130741817730935
-1.0082201024040156
0.09942624638516646
-3.130741817730935
-1.0082201024040156
0.09942624638516646
-3.130741817730935
-1.0072084091603104
0.09927618509424153
-3.1301934938485387
-1.0072084091603104
0.09927618509424153
-3.1301934938485387
-1.0072084091603104
0.09927618509424153
-3.1301934938485387
-1.0072084091603104
0.09927618509424153
-3.1301934938485387
-1.006747691319664
0.098962165913197
-3.1297208917562327
-1.006747691319664
0.098962165913197
-3.1297208917562327
-1.006747691319664
0.098962165913197
-3.1297208917562327
-1.006747691319664
0.098962165913197
-3.1297208917562327
-1.0065789451001996
0.09820038031509128
-3.1295732732188997
-1.0065789451001996
0.09820038031509128
-3.1295732732188997
-1.0065789451001996
0.09820038031509128
-3.1295732732188997
-1.0065789451001996
0.09820038031509128
-3.1295732732188997
-1.0058718530438902
0.09721200007341729
-3.129554658845985
-1.0058718530438902
0.09721200007341729
-3.129554658845985
-1.0058718530438902
0.09721200007341729
-3.129554658845985
-1.0058718530438902
0.09721200007341729
-3.129554658845985
-1.0046207653590358
0.09605576230772271
-3.1295586993386646
-1.0046207653590358
0.09605576230772271
-3.1295586993386646
-1.0046207653590358
0.09605576230772271
-3.1295586993386646
-1.0046207653590358
0.09605576230772271
-3.1295586993386646
-1.0037365920244896
0.09518125938830158
-3.129319411583946
-1.0037365920244896
0.09518125938830158
-3.129319411583946
-1.0037365920244896
0.09518125938830158
-3.129319411583946
-1.0037365920244896
0.09518125938830158
-3.129319411583946
-1.0041094333065343
0.09410092943500924
-3.1290225787489554
-1.0041094333065343
0.09410092943500924
-3.1290225787489554
-1.0041094333065343
0.09410092943500924
-3.1290225787489554
-1.0041094333065343
0.09410092943500924
-3.1290225787489554
-1.0041184995204904
0.09322493111157149
-3.1290986454745573
-1.0041184995204904
0.09322493111157149
-3.1290986454745573
-1.0041184995204904
0.09322493111157149
-3.1290986454745573
-1.0041184995204904
0.09322493111157149
-3.1290986454745573
-1.0031370580588725
0.09250752761326983
-3.129080649257002
-1.0031370580588725
0.09250752761326983
-3.129080649257002
-1.0031370580588725
0.09250752761326983
-3.129080649257002
-1.0031370580588725
0.09250752761326983
-3.129080649257002
-1.0012507604645462
0.09180108682899439
-3.1284761934698597
-1.0012507604645462
0.09180108682899439
-3.1284761934698597
-1.0012507604645462
0.09180108682899439
-3.1284761934698597
-1.0012507604645462
0.09180108682899439
-3.1284761934698597
-1.000240288643988
0.09050952878895503
-3.127726768220595
-1.000240288643988
0.09050952878895503
-3.127726768220595
-1.000240288643988
0.09050952878895503
-3.127726768220595
-1.000240288643988
0.09050952878895503
-3.127726768220595
-0.9980251788658348
0.08949061813482499
-3.128192604243301
-0.9980251788658348
0.08949061813482499
-3.128192604243301
-0.9980251788658348
0.08949061813482499
-3.128192604243301
-0.9980251788658348
0.08949061813482499
-3.128192604243301
-0.9952316741609313
0.08828117914174691
-3.129230805855517
-0.9952316741609313
0.08828117914174691
-3.129230805855517
-0.9952316741609313
0.08828117914174691
-3.129230805855517
-0.9952316741609313
0.08828117914174691
-3.129230805855517
-0.9901498787709659
0.08722400498975613
-3.13039545535778
-0.9901498787709659
0.08722400498975613
-3.13039545535778
-0.9901498787709659
0.08722400498975613
-3.13039545535778
-0.9901498787709659
0.08722400498975613
-3.13039545535778
-0.9864081408758503
0.08701151773892551
-3.1311015000150775
-0.9864081408758503
0.08701151773892551
-3.1311015000150775
-0.9864081408758503
0.08701151773892551
-3.1311015000150775
-0.9864081408758503
0.08701151773892551
-3.1311015000150775
-0.9838266289797338
0.0865879551144039
-3.132015991465127
-0.9838266289797338
0.0865879551144039
-3.132015991465127
-0.9838266289797338
0.0865879551144039
-3.132015991465127
-0.9838266289797338
0.0865879551144039
-3.132015991465127
-0.9802900810725428
0.08657732801913787
-3.13366685914521
-0.9802900810725428
0.08657732801913787
-3.13366685914521
-0.9802900810725428
0.08657732801913787
-3.13366685914521
-0.9802900810725428
0.08657732801913787
-3.13366685914521
-0.9763224933458589
0.08607454949006925
-3.135451031024449
-0.9763224933458589
0.08607454949006925
-3.135451031024449
-0.9763224933458589
0.08607454949006925
-3.135451031024449
-0.9763224933458589
0.08607454949006925
-3.135451031024449
-0.9727041409055204
0.08535593551523113
-3.137683868088078
-0.9727041409055204
0.08535593551523113
-3.137683868088078
-0.9727041409055204
0.08535593551523113
-3.137683868088078
-0.9727041409055204
0.08535593551523113
-3.137683868088078
-0.9680341089271058
0.08349659135819067
-3.1396877089726534
-0.9680341089271058
0.08349659135819067
-3.1396877089726534
-0.9680341089271058
0.08349659135819067
-3.1396877089726534
-0.9680341089271058
0.08349659135819067
-3.1396877089726534
-0.9583201619367087
0.08130207661378484
3.1404945911195874
-0.9583201619367087
0.08130207661378484
3.1404945911195874
-0.9583201619367087
0.08130207661378484
3.1404945911195874
-0.9583201619367087
0.08130207661378484
3.1404945911195874
-0.9516885293277522
0.07983641029456141
3.1368482753068743
-0.9516885293277522
0.07983641029456141
3.1368482753068743
-0.9516885293277522
0.07983641029456141
3.1368482753068743
-0.9516885293277522
0.07983641029456141
3.1368482753068743
-0.9478134066613275
0.07701022459961714
3.1322792715543346
-0.9478134066613275
0.07701022459961714
3.1322792715543346
-0.9478134066613275
0.07701022459961714
3.1322792715543346
-0.9478134066613275
0.07701022459961714
3.1322792715543346
-0.9514813698818471
0.07340295627560177
3.1286304972770584
-0.9514813698818471
0.07340295627560177
3.1286304972770584
-0.9514813698818471
0.07340295627560177
3.1286304972770584
-0.9514813698818471
0.07340295627560177
3.1286304972770584
-0.9536809928380697
0.06859870381800977
3.1256638855788843
-0.9536809928380697
0.06859870381800977
3.1256638855788843
-0.9536809928380697
0.06859870381800977
3.1256638855788843
-0.9536809928380697
0.06859870381800977
3.1256638855788843
-0.9469160874719236
0.06205798413462905
3.121865835081069
-0.9469160874719236
0.06205798413462905
3.121865835081069
-0.9469160874719236
0.06205798413462905
3.121865835081069
-0.9469160874719236
0.06205798413462905
3.121865835081069
-0.9381417605526938
0.055999550407235185
3.117039690124463
-0.9381417605526938
0.055999550407235185
3.117039690124463
-0.9381417605526938
0.055999550407235185
3.117039690124463
-0.9381417605526938
0.055999550407235185
3.117039690124463
-0.9331496684144988
0.05168810353263605
3.115828298720037
-0.9331496684144988
0.05168810353263605
3.115828298720037
-0.9331496684144988
0.05168810353263605
3.115828298720037
-0.9331496684144988
0.05168810353263605
3.115828298720037
-0.9323141206800686
0.04918803393323169
3.1173871309971073
-0.9323141206800686
0.04918803393323169
3.1173871309971073
-0.9323141206800686
0.04918803393323169
3.1173871309971073
-0.9323141206800686
0.04918803393323169
3.1173871309971073
-0.9372807709198242
0.04678579476209859
3.1185880491774287
-0.9372807709198242
0.04678579476209859
3.1185880491774287
-0.9372807709198242
0.04678579476209859
3.1185880491774287
-0.9372807709198242
0.04678579476209859
3.1185880491774287
-0.94268633731824
0.04531756134923794
3.1202747555627623
-0.94268633731824
0.04531756134923794
3.1202747555627623
-0.94268633731824
0.04531756134923794
3.1202747555627623
-0.94268633731824
0.04531756134923794
3.1202747555627623
-0.946962614166859
0.043284441780310164
3.123528677711698
-0.946962614166859
0.043284441780310164
3.123528677711698
-0.946962614166859
0.043284441780310164
3.123528677711698
-0.946962614166859
0.043284441780310164
3.123528677711698
-0.9518947142267258
0.04175564738659345
3.127208884314464
-0.9518947142267258
0.04175564738659345
3.127208884314464
-0.9518947142267258
0.04175564738659345
3.127208884314464
-0.9518947142267258
0.04175564738659345
3.127208884314464
-0.9537375127985771
0.04052561999541409
3.1301353606913467
-0.9537375127985771
0.04052561999541409
3.1301353606913467
-0.9537375127985771
0.04052561999541409
3.1301353606913467
-0.9537375127985771
0.04052561999541409
3.1301353606913467
-0.9537107948465379
0.03988599926128736
3.1312910810708483
-0.9537107948465379
0.03988599926128736
3.1312910810708483
-0.9537107948465379
0.03988599926128736
3.1312910810708483
-0.9537107948465379
0.03988599926128736
3.1312910810708483
-0.9547576921645684
0.039200053318360704
3.133409271644217
-0.9547576921645684
0.039200053318360704
3.133409271644217
-0.9547576921645684
0.039200053318360704
3.133409271644217
-0.9547576921645684
0.039200053318360704
3.133409271644217
-0.9566215550576348
0.038024036047959106
3.1356288634230296
-0.9566215550576348
0.038024036047959106
3.1356288634230296
-0.9566215550576348
0.038024036047959106
3.1356288634230296
-0.9566215550576348
0.038024036047959106
3.1356288634230296
-0.9579607636918067
0.03716568877484459
3.1368725255809564
-0.9579607636918067
0.03716568877484459
3.1368725255809564
-0.9579607636918067
0.03716568877484459
3.1368725255809564
-0.9579607636918067
0.03716568877484459
3.1368725255809564
-0.9566000596498735
0.03629043272682295
3.1365283990334065
-0.9566000596498735
0.03629043272682295
3.1365283990334065
-0.9566000596498735
0.03629043272682295
3.1365283990334065
-0.9566000596498735
0.03629043272682295
3.1365283990334065
-0.9569764069168184
0.03585501698075501
3.1367465790515263
-0.9569764069168184
0.03585501698075501
3.1367465790515263
-0.9569764069168184
0.03585501698075501
3.1367465790515263
-0.9569764069168184
0.03585501698075501
3.1367465790515263
-0.9586012971043243
0.03597173369165865
3.1374800924976673
-0.9586012971043243
0.03597173369165865
3.1374800924976673
-0.9586012971043243
0.03597173369165865
3.1374800924976673
-0.9586012971043243
0.03597173369165865
3.1374800924976673
-0.9580558506210022
0.03668332159589269
3.1375335631723726
-0.9580558506210022
0.03668332159589269
3.1375335631723726
-0.9580558506210022
0.03668332159589269
3.1375335631723726
-0.9580558506210022
0.03668332159589269
3.1375335631723726
-0.9561514120419226
0.03750239093106288
3.1372836537329727
-0.9561514120419226
0.03750239093106288
3.1372836537329727
-0.9561514120419226
0.03750239093106288
3.1372836537329727
-0.9561514120419226
0.03750239093106288
3.1372836537329727
-0.9550742430905182
0.03853283751453503
3.136634270404259
-0.9550742430905182
0.03853283751453503
3.136634270404259
-0.9550742430905182
0.03853283751453503
3.136634270404259
-0.9550742430905182
0.03853283751453503
3.136634270404259
-0.9547044904053936
0.03967502695875408
3.1361887577160212
-0.9547044904053936
0.03967502695875408
3.1361887577160212
-0.9547044904053936
0.03967502695875408
3.1361887577160212
-0.9547044904053936
0.03967502695875408
3.1361887577160212
-0.9544445896956916
0.04108883111549063
3.1357378569333174
-0.9544445896956916
0.04108883111549063
3.1357378569333174
-0.9544445896956916
0.04108883111549063
3.1357378569333174
-0.9544445896956916
0.04108883111549063
3.1357378569333174
-0.9548988590425432
0.04228086237165772
3.1351112218640926
-0.9548988590425432
0.04228086237165772
3.1351112218640926
-0.9548988590425432
0.04228086237165772
3.1351112218640926
-0.9548988590425432
0.04228086237165772
3.1351112218640926
-0.9531240752644393
0.043034471155881986
3.13393782500964
-0.9531240752644393
0.043034471155881986
3.13393782500964
-0.9531240752644393
0.043034471155881986
3.13393782500964
-0.9531240752644393
0.043034471155881986
3.13393782500964
-0.9509714478584861
0.043408481474367454
3.132559954477535
-0.9509714478584861
0.043408481474367454
3.132559954477535
-0.9509714478584861
0.043408481474367454
3.132559954477535
-0.9509714478584861
0.043408481474367454
3.132559954477535
-0.9514250797590444
0.04421954399777665
3.1319940031678755
-0.9514250797590444
0.04421954399777665
3.1319940031678755
-0.9514250797590444
0.04421954399777665
3.1319940031678755
-0.9514250797590444
0.04421954399777665
3.1319940031678755
-0.954316707249585
0.044318119311035784
3.1321469065628302
-0.954316707249585
0.044318119311035784
3.1321469065628302
-0.954316707249585
0.044318119311035784
3.1321469065628302
-0.954316707249585
0.044318119311035784
3.1321469065628302
-0.9548743438094685
0.044636739899347515
3.1316932744976165
-0.9548743438094685
0.044636739899347515
3.1316932744976165
-0.9548743438094685
0.044636739899347515
3.1316932744976165
-0.9548743438094685
0.044636739899347515
3.1316932744976165
-0.9527287932342824
0.04533730534029119
3.1301485981700887
-0.9527287932342824
0.04533730534029119
3.1301485981700887
-0.9527287932342824
0.04533730534029119
3.1301485981700887
-0.9527287932342824
0.04533730534029119
3.1301485981700887
-0.9524776746191137
0.045874246348965864
3.129328396650916
-0.9524776746191137
0.045874246348965864
3.129328396650916
-0.9524776746191137
0.045874246348965864
3.129328396650916
-0.9524776746191137
0.045874246348965864
3.129328396650916
-0.9528800937688762
0.04596838981269086
3.1284445653933144
-0.9528800937688762
0.04596838981269086
3.1284445653933144
-0.9528800937688762
0.04596838981269086
3.1284445653933144
-0.9528800937688762
0.04596838981269086
3.1284445653933144
-0.9518619931294161
0.04662539899390708
3.1278585055276094
-0.9518619931294161
0.04662539899390708
3.1278585055276094
-0.9518619931294161
0.04662539899390708
3.1278585055276094
-0.9518619931294161
0.04662539899390708
3.1278585055276094
-0.9519786285672536
0.0473859577574533
3.127737536430253
-0.9519786285672536
0.0473859577574533
3.127737536430253
-0.9519786285672536
0.0473859577574533
3.127737536430253
-0.9519786285672536
0.0473859577574533
3.127737536430253
-0.9518785074336139
0.04765748661454272
3.127463159830092
-0.9518785074336139
0.04765748661454272
3.127463159830092
-0.9518785074336139
0.04765748661454272
3.127463159830092
-0.9518785074336139
0.04765748661454272
3.127463159830092
-0.9503588069963801
0.04804555855684475
3.127167628694854
-0.9503588069963801
0.04804555855684475
3.127167628694854
-0.9503588069963801
0.04804555855684475
3.127167628694854
-0.9503588069963801
0.04804555855684475
3.127167628694854
-0.9491660472847523
0.04848998138582403
3.1269726122554524
-0.9491660472847523
0.04848998138582403
3.1269726122554524
-0.9491660472847523
0.04848998138582403
3.1269726122554524
-0.9491660472847523
0.04848998138582403
3.1269726122554524
-0.9497031860825348
0.0490377535466761
3.1274995377979184
-0.9497031860825348
0.0490377535466761
3.1274995377979184
-0.9497031860825348
0.0490377535466761
3.1274995377979184
-0.9497031860825348
0.0490377535466761
3.1274995377979184
-0.9508761434259485
0.0486034744474854
3.128513817372134
-0.9508761434259485
0.0486034744474854
3.128513817372134
-0.9508761434259485
0.0486034744474854
3.128513817372134
-0.9508761434259485
0.0486034744474854
3.128513817372134
-0.9504661565886684
0.048347368742744604
3.129618612150781
-0.9504661565886684
0.048347368742744604
3.129618612150781
-0.9504661565886684
0.048347368742744604
3.129618612150781
-0.9504661565886684
0.048347368742744604
3.129618612150781
-0.9505043705579892
0.047723228385667074
3.132410311767067
-0.9505043705579892
0.047723228385667074
3.132410311767067
-0.9505043705579892
0.047723228385667074
3.132410311767067
-0.9505043705579892
0.047723228385667074
3.132410311767067
-0.9538152028656859
0.04652474380256834
3.1377534842466606
-0.9538152028656859
0.04652474380256834
3.1377534842466606
-0.9538152028656859
0.04652474380256834
3.1377534842466606
-0.9538152028656859
0.04652474380256834
3.1377534842466606
-0.9587076643199693
0.04496520441908205
-3.1397869829501825
-0.9587076643199693
0.04496520441908205
-3.1397869829501825
-0.9587076643199693
0.04496520441908205
-3.1397869829501825
-0.9587076643199693
0.04496520441908205
-3.1397869829501825
-0.9613578392507045
0.043883831244514886
-3.1361146691393893
-0.9613578392507045
0.043883831244514886
-3.1361146691393893
-0.9613578392507045
0.043883831244514886
-3.1361146691393893
-0.9613578392507045
0.043883831244514886
-3.1361146691393893
-0.9620186550503661
0.0428378095520445
-3.13365332949353
-0.9620186550503661
0.0428378095520445
-3.13365332949353
-0.9620186550503661
0.0428378095520445
-3.13365332949353
-0.9620186550503661
0.0428378095520445
-3.13365332949353
-0.9622454001830694
0.04200648652968133
-3.131295394974935
-0.9622454001830694
0.04200648652968133
-3.131295394974935
-0.9622454001830694
0.04200648652968133
-3.131295394974935
-0.9622454001830694
0.04200648652968133
-3.131295394974935
-0.9630300607774954
0.040844758828356406
-3.129325154526598
-0.9630300607774954
0.040844758828356406
-3.129325154526598
-0.9630300607774954
0.040844758828356406
-3.129325154526598
-0.9630300607774954
0.040844758828356406
-3.129325154526598
-0.9639321772963061
0.04011184348932251
-3.1278560948284735
-0.9639321772963061
0.04011184348932251
-3.1278560948284735
-0.9639321772963061
0.04011184348932251
-3.1278560948284735
-0.9639321772963061
0.04011184348932251
-3.1278560948284735
-0.9654434493398087
0.03938164182264477
-3.1266706938277777
-0.9654434493398087
0.03938164182264477
-3.1266706938277777
-0.9654434493398087
0.03938164182264477
-3.1266706938277777
-0.9654434493398087
0.03938164182264477
-3.1266706938277777
-0.9658666572233032
0.03891245123036965
-3.1257411814647353
-0.9658666572233032
0.03891245123036965
-3.1257411814647353
-0.9658666572233032
0.03891245123036965
-3.1257411814647353
-0.9658666572233032
0.03891245123036965
-3.1257411814647353
-0.9655771436771445
0.0387097289212417
-3.1248033021730284
-0.9655771436771445
0.0387097289212417
-3.1248033021730284
-0.9655771436771445
0.0387097289212417
-3.1248033021730284
-0.9655771436771445
0.0387097289212417
-3.1248033021730284
-0.9658343465264904
0.0388356537525489
-3.1240461832024695
-0.9658343465264904
0.0388356537525489
-3.1240461832024695
-0.9658343465264904
0.0388356537525489
-3.1240461832024695
-0.9658343465264904
0.0388356537525489
-3.1240461832024695
-0.9671889917051606
0.03896594077351874
-3.123583622021697
-0.9671889917051606
0.03896594077351874
-3.123583622021697
-0.9671889917051606
0.03896594077351874
-3.123583622021697
-0.9671889917051606
0.03896594077351874
-3.123583622021697
-0.9679056721159279
0.03918370017298126
-3.123983775176727
-0.9679056721159279
0.03918370017298126
-3.123983775176727
-0.9679056721159279
0.03918370017298126
-3.123983775176727
-0.9679056721159279
0.03918370017298126
-3.123983775176727
-0.9680741274771919
0.039669547318379725
-3.1243787696094247
-0.9680741274771919
0.039669547318379725
-3.1243787696094247
-0.9680741274771919
0.039669547318379725
-3.1243787696094247
-0.9680741274771919
0.039669547318379725
-3.1243787696094247
-0.9695461175246797
0.04038528543893967
-3.124642045673439
-0.9695461175246797
0.04038528543893967
-3.124642045673439
-0.9695461175246797
0.04038528543893967
-3.124642045673439
-0.9695461175246797
0.04038528543893967
-3.124642045673439
-0.970802124800503
0.041101104646341376
-3.124900965896872
-0.970802124800503
0.041101104646341376
-3.124900965896872
-0.970802124800503
0.041101104646341376
-3.124900965896872
-0.970802124800503
0.041101104646341376
-3.124900965896872
-0.9712443376180335
0.041588434000852895
-3.125302590863674
-0.9712443376180335
0.041588434000852895
-3.125302590863674
-0.9712443376180335
0.041588434000852895
-3.125302590863674
-0.9712443376180335
0.041588434000852895
-3.125302590863674
-0.9702787609040392
0.04199413246646981
-3.1263293346151797
-0.9702787609040392
0.04199413246646981
-3.1263293346151797
-0.9702787609040392
0.04199413246646981
-3.1263293346151797
-0.9702787609040392
0.04199413246646981
-3.1263293346151797
-0.9692131452932454
0.042122739255469936
-3.127620359554047
-0.9692131452932454
0.042122739255469936
-3.127620359554047
-0.9692131452932454
0.042122739255469936
-3.127620359554047
-0.9692131452932454
0.042122739255469936
-3.127620359554047
-0.9692335493970966
0.042753661653509675
-3.1287809144148895
-0.9692335493970966
0.042753661653509675
-3.1287809144148895
-0.9692335493970966
0.042753661653509675
-3.1287809144148895
-0.9692335493970966
0.042753661653509675
-3.1287809144148895
-0.9703285531393222
0.043299953808115944
-3.1290891675997754
-0.9703285531393222
0.043299953808115944
-3.1290891675997754
-0.9703285531393222
0.043299953808115944
-3.1290891675997754
-0.9703285531393222
0.043299953808115944
-3.1290891675997754
-0.9689780540376752
0.04382074006744035
-3.1298899843626957
-0.9689780540376752
0.04382074006744035
-3.1298899843626957
-0.9689780540376752
0.04382074006744035
-3.1298899843626957
-0.9689780540376752
0.04382074006744035
-3.1298899843626957
-0.9673736187690469
0.043944068308892796
-3.131441104974912
-0.9673736187690469
0.043944068308892796
-3.131441104974912
-0.9673736187690469
0.043944068308892796
-3.131441104974912
-0.9673736187690469
0.043944068308892796
-3.131441104974912
-0.966415789881129
0.044241286768362066
-3.1326822765448465
-0.966415789881129
0.044241286768362066
-3.1326822765448465
-0.966415789881129
0.044241286768362066
-3.1326822765448465
-0.966415789881129
0.044241286768362066
-3.1326822765448465
-0.9671351764796968
0.044944977245474846
-3.133203494937528
-0.9671351764796968
0.044944977245474846
-3.133203494937528
-0.9671351764796968
0.044944977245474846
-3.133203494937528
-0.9671351764796968
0.044944977245474846
-3.133203494937528
-0.9678603943454458
0.045153906924212575
-3.1338791907470966
-0.9678603943454458
0.045153906924212575
-3.1338791907470966
-0.9678603943454458
0.045153906924212575
-3.1338791907470966
-0.9678603943454458
0.045153906924212575
-3.1338791907470966
-0.9673407655487963
0.04534638326711666
-3.135072884196125
-0.9673407655487963
0.04534638326711666
-3.135072884196125
-0.9673407655487963
0.04534638326711666
-3.135072884196125
-0.9673407655487963
0.04534638326711666
-3.135072884196125
-0.9662173632383336
0.04542758516957699
-3.1361962865065873
-0.9662173632383336
0.04542758516957699
-3.1361962865065873
-0.9662173632383336
0.04542758516957699
-3.1361962865065873
-0.9662173632383336
0.04542758516957699
-3.1361962865065873
-0.9661101759487554
0.04553666005535262
-3.136250413176012
-0.9661101759487554
0.04553666005535262
-3.136250413176012
-0.9661101759487554
0.04553666005535262
-3.136250413176012
-0.9661101759487554
0.04553666005535262
-3.136250413176012
-0.9662183636068116
0.04553565776930457
-3.136253028287971
-0.9662183636068116
0.04553565776930457
-3.136253028287971
-0.9662183636068116
0.04553565776930457
-3.136253028287971
-0.9662183636068116
0.04553565776930457
-3.136253028287971
-0.9656824867317894
0.045961569825703194
-3.136740531234345
-0.9656824867317894
0.045961569825703194
-3.136740531234345
-0.9656824867317894
0.045961569825703194
-3.136740531234345
-0.9656824867317894
0.045961569825703194
-3.136740531234345
-0.9661268195030955
0.045958408094325345
-3.137023610065499
-0.9661268195030955
0.045958408094325345
-3.137023610065499
-0.9661268195030955
0.045958408094325345
-3.137023610065499
-0.9661268195030955
0.045958408094325345
-3.137023610065499
-0.9665176547783801
0.046276701296054705
-3.1374759082411203
-0.9665176547783801
0.046276701296054705
-3.1374759082411203
-0.9665176547783801
0.046276701296054705
-3.1374759082411203
-0.9665176547783801
0.046276701296054705
-3.1374759082411203
-0.96597294905612
0.04611107403514128
-3.1375147070914835
-0.96597294905612
0.04611107403514128
-3.1375147070914835
-0.96597294905612
0.04611107403514128
-3.1375147070914835
-0.96597294905612
0.04611107403514128
-3.1375147070914835
-0.9655446002871445
0.04550161717370248
-3.137875590508727
-0.9655446002871445
0.04550161717370248
-3.137875590508727
-0.9655446002871445
0.04550161717370248
-3.137875590508727
-0.9655446002871445
0.04550161717370248
-3.137875590508727
-0.9650031564610991
0.044733831916033265
-3.138012620361632
-0.9650031564610991
0.044733831916033265
-3.138012620361632
-0.9650031564610991
0.044733831916033265
-3.138012620361632
-0.9650031564610991
0.044733831916033265
-3.138012620361632
-0.9641892160013033
0.044346712837556666
-3.138205712993328
-0.9641892160013033
0.044346712837556666
-3.138205712993328
-0.9641892160013033
0.044346712837556666
-3.138205712993328
-0.9641892160013033
0.044346712837556666
-3.138205712993328
-0.9640307291117227
0.04406745507606135
-3.1384702382254757
-0.9640307291117227
0.04406745507606135
-3.1384702382254757
-0.9640307291117227
0.04406745507606135
-3.1384702382254757
-0.9640307291117227
0.04406745507606135
-3.1384702382254757
-0.9632201820768613
0.04373224471488973
-3.1388286278448847
-0.9632201820768613
0.04373224471488973
-3.1388286278448847
-0.9632201820768613
0.04373224471488973
-3.1388286278448847
-0.9632201820768613
0.04373224471488973
-3.1388286278448847
-0.9631130085074497
0.043841495047989065
-3.1388827573181937
-0.9631130085074497
0.043841495047989065
-3.1388827573181937
-0.9631130085074497
0.043841495047989065
-3.1388827573181937
-0.9631130085074497
0.043841495047989065
-3.1388827573181937
-0.9632201820768613
0.04373224471488973
-3.1388286278448847
-0.9632201820768613
0.04373224471488973
-3.1388286278448847
-0.9632201820768613
0.04373224471488973
-3.1388286278448847
-0.9632201820768613
0.04373224471488973
-3.1388286278448847
-0.9631130085074497
0.043841495047989065
-3.1388827573181937
-0.9631130085074497
0.043841495047989065
-3.1388827573181937
-0.9631130085074497
0.043841495047989065
-3.1388827573181937
-0.9631130085074497
0.043841495047989065
-3.1388827573181937
-0.9631130085074497
0.043841495047989065
-3.1388827573181937
-0.9631130085074497
0.043841495047989065
-3.1388827573181937
-0.9631130085074497
0.043841495047989065
-3.1388827573181937
-0.9631130085074497
0.043841495047989065
-3.1388827573181937
-0.9625810263953447
0.04404771193153869
-3.139530090746859
-0.9625810263953447
0.04404771193153869
-3.139530090746859
-0.9625810263953447
0.04404771193153869
-3.139530090746859
-0.9625810263953447
0.04404771193153869
-3.139530090746859
-0.9616111520624987
0.04452576744821142
-3.1401723480299726
-0.9616111520624987
0.04452576744821142
-3.1401723480299726
-0.9616111520624987
0.04452576744821142
-3.1401723480299726
-0.9616111520624987
0.04452576744821142
-3.1401723480299726
-0.9609736312604992
0.04467762207988287
-3.1409252355005557
-0.9609736312604992
0.04467762207988287
-3.1409252355005557
-0.9609736312604992
0.04467762207988287
-3.1409252355005557
-0.9609736312604992
0.04467762207988287
-3.1409252355005557
-0.9608211307126544
0.044940111248984595
-3.1414723884158806
-0.9608211307126544
0.044940111248984595
-3.1414723884158806
-0.9608211307126544
0.044940111248984595
-3.1414723884158806
-0.9608211307126544
0.044940111248984595
-3.1414723884158806
-0.9607203444771651
0.045317893015343926
3.1413812100104384
-0.9607203444771651
0.045317893015343926
3.1413812100104384
-0.9607203444771651
0.045317893015343926
3.1413812100104384
-0.9607203444771651
0.045317893015343926
3.1413812100104384
-0.9610060607501927
0.045581408647990394
3.1408241539493145
-0.9610060607501927
0.045581408647990394
3.1408241539493145
-0.9610060607501927
0.045581408647990394
3.1408241539493145
-0.9610060607501927
0.045581408647990394
3.1408241539493145
-0.9599387653471736
0.04583726127057165
3.139752041393377
-0.9599387653471736
0.04583726127057165
3.139752041393377
-0.9599387653471736
0.04583726127057165
3.139752041393377
-0.9599387653471736
0.04583726127057165
3.139752041393377
-0.959250827387683
0.046148622416482335
3.1387798517277967
-0.959250827387683
0.046148622416482335
3.1387798517277967
-0.959250827387683
0.046148622416482335
3.1387798517277967
-0.959250827387683
0.046148622416482335
3.1387798517277967
-0.9595416174627984
0.046736925996404985
3.138053693045234
-0.9595416174627984
0.046736925996404985
3.138053693045234
-0.9595416174627984
0.046736925996404985
3.138053693045234
-0.9595416174627984
0.046736925996404985
3.138053693045234
-0.9598303900524559
0.04738135473160267
3.1374357214792656
-0.9598303900524559
0.04738135473160267
3.1374357214792656
-0.9598303900524559
0.04738135473160267
3.1374357214792656
-0.9598303900524559
0.04738135473160267
3.1374357214792656
-0.9589235205197494
0.047917621553571876
3.136629437659947
-0.9589235205197494
0.047917621553571876
3.136629437659947
-0.9589235205197494
0.047917621553571876
3.136629437659947
-0.9589235205197494
0.047917621553571876
3.136629437659947
-0.9578588780708835
0.04844967160267333
3.1355545569512775
-0.9578588780708835
0.04844967160267333
3.1355545569512775
-0.9578588780708835
0.04844967160267333
3.1355545569512775
-0.9578588780708835
0.04844967160267333
3.1355545569512775
-0.9571739351778886
0.0490362387472756
3.13457952505382
-0.9571739351778886
0.0490362387472756
3.13457952505382
-0.9571739351778886
0.0490362387472756
3.13457952505382
-0.9571739351778886
0.0490362387472756
3.13457952505382
-0.9572512927502143
0.049901108206396955
3.133854334929323
-0.9572512927502143
0.049901108206396955
3.133854334929323
-0.9572512927502143
0.049901108206396955
3.133854334929323
-0.9572512927502143
0.049901108206396955
3.133854334929323
-0.9561840327288008
0.050985180389116064
3.13304609187383
-0.9561840327288008
0.050985180389116064
3.13304609187383
-0.9561840327288008
0.050985180389116064
3.13304609187383
-0.9561840327288008
0.050985180389116064
3.13304609187383
-0.9548380174760177
0.05251254816687431
3.132567843439634
-0.9548380174760177
0.05251254816687431
3.132567843439634
-0.9548380174760177
0.05251254816687431
3.132567843439634
-0.9548380174760177
0.05251254816687431
3.132567843439634
-0.953109599306662
0.05497440090222692
3.132308139329941
-0.953109599306662
0.05497440090222692
3.132308139329941
-0.953109599306662
0.05497440090222692
3.132308139329941
-0.953109599306662
0.05497440090222692
3.132308139329941
-0.9513548083925732
0.05810409249299719
3.1330831160554835
-0.9513548083925732
0.05810409249299719
3.1330831160554835
-0.9513548083925732
0.05810409249299719
3.1330831160554835
-0.9513548083925732
0.05810409249299719
3.1330831160554835
-0.9503816326389134
0.06157028849645597
3.1350374154847285
-0.9503816326389134
0.06157028849645597
3.1350374154847285
-0.9503816326389134
0.06157028849645597
3.1350374154847285
-0.9503816326389134
0.06157028849645597
3.1350374154847285
-0.9503514972154378
0.06460917118663168
3.1380071738058084
-0.9503514972154378
0.06460917118663168
3.1380071738058084
-0.9503514972154378
0.06460917118663168
3.1380071738058084
-0.9503514972154378
0.06460917118663168
3.1380071738058084
-0.9488420965009949
0.06770362771104137
3.140862945724534
-0.9488420965009949
0.06770362771104137
3.140862945724534
-0.9488420965009949
0.06770362771104137
3.140862945724534
-0.9488420965009949
0.06770362771104137
3.140862945724534
-0.9457648976709461
0.07050673696778881
-3.140222865830211
-0.9457648976709461
0.07050673696778881
-3.140222865830211
-0.9457648976709461
0.07050673696778881
-3.140222865830211
-0.9457648976709461
0.07050673696778881
-3.140222865830211
-0.9419412133803223
0.07270121070781682
-3.138738239035021
-0.9419412133803223
0.07270121070781682
-3.138738239035021
-0.9419412133803223
0.07270121070781682
-3.138738239035021
-0.9419412133803223
0.07270121070781682
-3.138738239035021
-0.9392642086093745
0.07444950203144647
-3.137340374575659
-0.9392642086093745
0.07444950203144647
-3.137340374575659
-0.9392642086093745
0.07444950203144647
-3.137340374575659
-0.9392642086093745
0.07444950203144647
-3.137340374575659
-0.9393472002464657
0.07511911156372447
-3.1352168303635297
-0.9393472002464657
0.07511911156372447
-3.1352168303635297
-0.9393472002464657
0.07511911156372447
-3.1352168303635297
-0.9393472002464657
0.07511911156372447
-3.1352168303635297
-0.945578723753137
0.0760951300267359
-3.132509446411884
-0.945578723753137
0.0760951300267359
-3.132509446411884
-0.945578723753137
0.0760951300267359
-3.132509446411884
-0.945578723753137
0.0760951300267359
-3.132509446411884
-0.9509890460407219
0.07520990572738889
-3.1310113445062684
-0.9509890460407219
0.07520990572738889
-3.1310113445062684
-0.9509890460407219
0.07520990572738889
-3.1310113445062684
-0.9509890460407219
0.07520990572738889
-3.1310113445062684
-0.9565455293009361
0.07634331954896773
-3.1306894091994457
-0.9565455293009361
0.07634331954896773
-3.1306894091994457
-0.9565455293009361
0.07634331954896773
-3.1306894091994457
-0.9565455293009361
0.07634331954896773
-3.1306894091994457
-0.9689719344224306
0.07791120701046807
-3.1272608702237137
-0.9689719344224306
0.07791120701046807
-3.1272608702237137
-0.9689719344224306
0.07791120701046807
-3.1272608702237137
-0.9689719344224306
0.07791120701046807
-3.1272608702237137
-0.9886651689502141
0.07862338596169968
-3.1236187181824495
-0.9886651689502141
0.07862338596169968
-3.1236187181824495
-0.9886651689502141
0.07862338596169968
-3.1236187181824495
-0.9886651689502141
0.07862338596169968
-3.1236187181824495
-0.9946045568512972
0.07826469530719521
-3.1230735427274228
-0.9946045568512972
0.07826469530719521
-3.1230735427274228
-0.9946045568512972
0.07826469530719521
-3.1230735427274228
-0.9946045568512972
0.07826469530719521
-3.1230735427274228
-0.9913304548145155
0.07780205578786427
-3.124516630115331
-0.9913304548145155
0.07780205578786427
-3.124516630115331
-0.9913304548145155
0.07780205578786427
-3.124516630115331
-0.9913304548145155
0.07780205578786427
-3.124516630115331
-0.9849785688975023
0.07597815212852499
-3.1267882755694725
-0.9849785688975023
0.07597815212852499
-3.1267882755694725
-0.9849785688975023
0.07597815212852499
-3.1267882755694725
-0.9849785688975023
0.07597815212852499
-3.1267882755694725
-0.9840068409161764
0.07503674119130926
-3.126943636829318
-0.9840068409161764
0.07503674119130926
-3.126943636829318
-0.9840068409161764
0.07503674119130926
-3.126943636829318
-0.9840068409161764
0.07503674119130926
-3.126943636829318
-0.9889457233707823
0.07434476015795517
-3.125904543136127
-0.9889457233707823
0.07434476015795517
-3.125904543136127
-0.9889457233707823
0.07434476015795517
-3.125904543136127
-0.9889457233707823
0.07434476015795517
-3.125904543136127
-0.9924176079133172
0.07353414652653423
-3.1265533987382867
-0.9924176079133172
0.07353414652653423
-3.1265533987382867
-0.9924176079133172
0.07353414652653423
-3.1265533987382867
-0.9924176079133172
0.07353414652653423
-3.1265533987382867
-0.9937968778529674
0.07250141387603434
-3.1267337529695522
-0.9937968778529674
0.07250141387603434
-3.1267337529695522
-0.9937968778529674
0.07250141387603434
-3.1267337529695522
-0.9937968778529674
0.07250141387603434
-3.1267337529695522
-0.9906114304876051
0.07086316292749205
-3.127551272556717
-0.9906114304876051
0.07086316292749205
-3.127551272556717
-0.9906114304876051
0.07086316292749205
-3.127551272556717
-0.9906114304876051
0.07086316292749205
-3.127551272556717
-0.990770925357712
0.06913370678616808
-3.1287046779331664
-0.990770925357712
0.06913370678616808
-3.1287046779331664
-0.990770925357712
0.06913370678616808
-3.1287046779331664
-0.990770925357712
0.06913370678616808
-3.1287046779331664
-0.9929659481077345
0.06750946134543298
-3.1287272481799264
-0.9929659481077345
0.06750946134543298
-3.1287272481799264
-0.9929659481077345
0.06750946134543298
-3.1287272481799264
-0.9929659481077345
0.06750946134543298
-3.1287272481799264
-0.9942307804984839
0.06604748238236785
-3.1286659405577653
-0.9942307804984839
0.06604748238236785
-3.1286659405577653
-0.9942307804984839
0.06604748238236785
-3.1286659405577653
-0.9942307804984839
0.06604748238236785
-3.1286659405577653
-0.9951768123084864
0.06451277001557154
-3.1289733729904348
-0.9951768123084864
0.06451277001557154
-3.1289733729904348
-0.9951768123084864
0.06451277001557154
-3.1289733729904348
-0.9951768123084864
0.06451277001557154
-3.1289733729904348
-0.9943704312870927
0.06330149499535012
-3.129125240726757
-0.9943704312870927
0.06330149499535012
-3.129125240726757
-0.9926388908296362
0.06190444411174762
-3.129572682355902
-0.9926388908296362
0.06190444411174762
-3.129572682355902
-0.9926388908296362
0.06190444411174762
-3.129572682355902
-0.9926388908296362
0.06190444411174762
-3.129572682355902
-0.9933516934455942
0.0607698216765698
-3.1293929336564354
-0.9933516934455942
0.0607698216765698
-3.1293929336564354
-0.9933516934455942
0.0607698216765698
-3.1293929336564354
-0.9933516934455942
0.0607698216765698
-3.1293929336564354
-0.9941574334118677
0.060246770510245934
-3.128853492571341
-0.9941574334118677
0.060246770510245934
-3.128853492571341
-0.9941574334118677
0.060246770510245934
-3.128853492571341
-0.9941574334118677
0.060246770510245934
-3.128853492571341
-0.9955076796497174
0.059512792652191365
-3.128213423650935
-0.9955076796497174
0.059512792652191365
-3.128213423650935
-0.9955076796497174
0.059512792652191365
-3.128213423650935
-0.9955076796497174
0.059512792652191365
-3.128213423650935
-0.9951282314318802
0.05875243119632499
-3.128066581897554
-0.9951282314318802
0.05875243119632499
-3.128066581897554
-0.9951282314318802
0.05875243119632499
-3.128066581897554
-0.9951282314318802
0.05875243119632499
-3.128066581897554
-0.9935461617355462
0.058242220495248055
-3.1281683162063088
-0.9935461617355462
0.058242220495248055
-3.1281683162063088
-0.9935461617355462
0.058242220495248055
-3.1281683162063088
-0.9935461617355462
0.058242220495248055
-3.1281683162063088
-0.9921889975001571
0.05784554703991381
-3.128334420765708
-0.9921889975001571
0.05784554703991381
-3.128334420765708
-0.9921889975001571
0.05784554703991381
-3.128334420765708
-0.9921889975001571
0.05784554703991381
-3.128334420765708
-0.9927254322739663
0.05764291334839104
-3.127960828478911
-0.9927254322739663
0.05764291334839104
-3.127960828478911
-0.9927254322739663
0.05764291334839104
-3.127960828478911
-0.9927254322739663
0.05764291334839104
-3.127960828478911
-0.994081334557811
0.0574454263042432
-3.1276108684219204
-0.994081334557811
0.0574454263042432
-3.1276108684219204
-0.994081334557811
0.0574454263042432
-3.1276108684219204
-0.994081334557811
0.0574454263042432
-3.1276108684219204
-0.9929817860559224
0.057555030118098184
-3.1273642818627896
-0.9929817860559224
0.057555030118098184
-3.1273642818627896
-0.9929817860559224
0.057555030118098184
-3.1273642818627896
-0.9929817860559224
0.057555030118098184
-3.1273642818627896
-0.9913358603209957
0.05766092297631111
-3.1271016831533736
-0.9913358603209957
0.05766092297631111
-3.1271016831533736
-0.9913358603209957
0.05766092297631111
-3.1271016831533736
-0.9913358603209957
0.05766092297631111
-3.1271016831533736
-0.9912777551068943
0.057657407315720166
-3.127100785892523
-0.9912777551068943
0.057657407315720166
-3.127100785892523
-0.9912777551068943
0.057657407315720166
-3.127100785892523
-0.9912777551068943
0.057657407315720166
-3.127100785892523
-0.992253990167047
0.057566674695578475
-3.1267977321875584
-0.992253990167047
0.057566674695578475
-3.1267977321875584
-0.992253990167047
0.057566674695578475
-3.1267977321875584
-0.992253990167047
0.057566674695578475
-3.1267977321875584
-0.992253990167047
0.057566674695578475
-3.1267977321875584
-0.992253990167047
0.057566674695578475
-3.1267977321875584
-0.992253990167047
0.057566674695578475
-3.1267977321875584
-0.992253990167047
0.057566674695578475
-3.1267977321875584
-0.9905780876086006
0.05720474013406935
-3.127394516610615
-0.9905780876086006
0.05720474013406935
-3.127394516610615
-0.9905780876086006
0.05720474013406935
-3.127394516610615
-0.9905780876086006
0.05720474013406935
-3.127394516610615
-0.9896597360072361
0.05681200530473843
-3.1275740723203516
-0.9896597360072361
0.05681200530473843
-3.1275740723203516
-0.9896597360072361
0.05681200530473843
-3.1275740723203516
-0.9896597360072361
0.05681200530473843
-3.1275740723203516
-0.9899423398645391
0.05653247443767838
-3.1278465365471155
-0.9899423398645391
0.05653247443767838
-3.1278465365471155
-0.9899423398645391
0.05653247443767838
-3.1278465365471155
-0.9899423398645391
0.05653247443767838
-3.1278465365471155
-0.9917457577528779
0.055950052304782616
-3.127714443459652
-0.9917457577528779
0.055950052304782616
-3.127714443459652
-0.9917457577528779
0.055950052304782616
-3.127714443459652
-0.9917457577528779
0.055950052304782616
-3.127714443459652
-0.9928356467414446
0.055634715623554244
-3.1275707081416195
-0.9928356467414446
0.055634715623554244
-3.1275707081416195
-0.9928356467414446
0.055634715623554244
-3.1275707081416195
-0.9928356467414446
0.055634715623554244
-3.1275707081416195
-0.9922986933763097
0.05534986701518696
-3.1278196830113076
-0.9922986933763097
0.05534986701518696
-3.1278196830113076
-0.9922986933763097
0.05534986701518696
-3.1278196830113076
-0.9922986933763097
0.05534986701518696
-3.1278196830113076
-0.9910566971030981
0.05543087847591517
-3.1283893024562532
-0.9910566971030981
0.05543087847591517
-3.1283893024562532
-0.9910566971030981
0.05543087847591517
-3.1283893024562532
-0.9910566971030981
0.05543087847591517
-3.1283893024562532
-0.9908910913809251
0.055428419114598886
-3.128385037513376
-0.9908910913809251
0.055428419114598886
-3.128385037513376
-0.9908910913809251
0.055428419114598886
-3.128385037513376
-0.9908910913809251
0.055428419114598886
-3.128385037513376
-0.9931214275564203
0.05529664479109882
-3.127950008673357
-0.9931214275564203
0.05529664479109882
-3.127950008673357
-0.9931214275564203
0.05529664479109882
-3.127950008673357
-0.9931214275564203
0.05529664479109882
-3.127950008673357
-0.9947524669714164
0.05531542786310977
-3.1277226000502734
-0.9947524669714164
0.05531542786310977
-3.1277226000502734
-0.9947524669714164
0.05531542786310977
-3.1277226000502734
-0.9947524669714164
0.05531542786310977
-3.1277226000502734
-0.9934977479115312
0.05524822793375718
-3.127795329722962
-0.9934977479115312
0.05524822793375718
-3.127795329722962
-0.9934977479115312
0.05524822793375718
-3.127795329722962
-0.9934977479115312
0.05524822793375718
-3.127795329722962
-0.9917044153327221
0.05516912860795889
-3.1281260613261113
-0.9917044153327221
0.05516912860795889
-3.1281260613261113
-0.9917044153327221
0.05516912860795889
-3.1281260613261113
-0.9917044153327221
0.05516912860795889
-3.1281260613261113
-0.9917044153327221
0.05516912860795889
-3.1281260613261113
-0.9917044153327221
0.05516912860795889
-3.1281260613261113
-0.9917044153327221
0.05516912860795889
-3.1281260613261113
-0.9917044153327221
0.05516912860795889
-3.1281260613261113
-0.9927315132609936
0.055090161931725064
-3.1275495378328118
-0.9927315132609936
0.055090161931725064
-3.1275495378328118
-0.9927315132609936
0.055090161931725064
-3.1275495378328118
-0.9927315132609936
0.055090161931725064
-3.1275495378328118
-0.9929886382856924
0.05500234404303034
-3.1269526883046477
-0.9929886382856924
0.05500234404303034
-3.1269526883046477
-0.9929886382856924
0.05500234404303034
-3.1269526883046477
-0.9929886382856924
0.05500234404303034
-3.1269526883046477
-0.9919994385929919
0.05494523884224702
-3.1267601294706058
-0.9919994385929919
0.05494523884224702
-3.1267601294706058
-0.9919994385929919
0.05494523884224702
-3.1267601294706058
-0.9919994385929919
0.05494523884224702
-3.1267601294706058
-0.9911229745766531
0.054556453767033164
-3.126669869681263
-0.9911229745766531
0.054556453767033164
-3.126669869681263
-0.9911229745766531
0.054556453767033164
-3.126669869681263
-0.9911229745766531
0.054556453767033164
-3.126669869681263
-0.9916612494222043
0.05397405740014429
-3.1262287165620983
-0.9916612494222043
0.05397405740014429
-3.1262287165620983
-0.9916612494222043
0.05397405740014429
-3.1262287165620983
-0.9916612494222043
0.05397405740014429
-3.1262287165620983
-0.9920903623777906
0.05366531404927096
-3.1257927296428605
-0.9920903623777906
0.05366531404927096
-3.1257927296428605
-0.9920903623777906
0.05366531404927096
-3.1257927296428605
-0.9920903623777906
0.05366531404927096
-3.1257927296428605
-0.9922384961646267
0.05325623894702531
-3.1250179879385396
-0.9922384961646267
0.05325623894702531
-3.1250179879385396
-0.9922384961646267
0.05325623894702531
-3.1250179879385396
-0.9922384961646267
0.05325623894702531
-3.1250179879385396
-0.9926058464537311
0.05289528072876249
-3.1244154748252044
-0.9926058464537311
0.05289528072876249
-3.1244154748252044
-0.9926058464537311
0.05289528072876249
-3.1244154748252044
-0.9926058464537311
0.05289528072876249
-3.1244154748252044
-0.9925973530817837
0.05268949839707177
-3.124026065934224
-0.9925973530817837
0.05268949839707177
-3.124026065934224
-0.9925973530817837
0.05268949839707177
-3.124026065934224
-0.9925973530817837
0.05268949839707177
-3.124026065934224
-0.9925973530817837
0.05268949839707177
-3.124026065934224
-0.9925973530817837
0.05268949839707177
-3.124026065934224
-0.9925973530817837
0.05268949839707177
-3.124026065934224
-0.9925973530817837
0.05268949839707177
-3.124026065934224
-0.9927081523487025
0.05263082611167831
-3.1241368652011428
-0.9927081523487025
0.05263082611167831
-3.1241368652011428
-0.9927081523487025
0.05263082611167831
-3.1241368652011428
-0.9927081523487025
0.05263082611167831
-3.1241368652011428
-0.9928731862453352
0.05252625819131171
-3.1240826208065173
-0.9928731862453352
0.05252625819131171
-3.1240826208065173
-0.9928731862453352
0.05252625819131171
-3.1240826208065173
-0.9928731862453352
0.05252625819131171
-3.1240826208065173
-0.9948130614811568
0.05239744415609928
-3.1251673865896854
-0.9948130614811568
0.05239744415609928
-3.1251673865896854
-0.9948130614811568
0.05239744415609928
-3.1251673865896854
-0.9948130614811568
0.05239744415609928
-3.1251673865896854
-0.9925196223949467
0.05335674363463869
-3.1253565975899416
-0.9925196223949467
0.05335674363463869
-3.1253565975899416
-0.9925196223949467
0.05335674363463869
-3.1253565975899416
-0.9925196223949467
0.05335674363463869
-3.1253565975899416
-0.98983949104899
0.05414253526298671
-3.125584250994097
-0.98983949104899
0.05414253526298671
-3.125584250994097
-0.98983949104899
0.05414253526298671
-3.125584250994097
-0.98983949104899
0.05414253526298671
-3.125584250994097
-0.9876736847422415
0.05524286379036913
-3.1265422293931238
-0.9876736847422415
0.05524286379036913
-3.1265422293931238
-0.9876736847422415
0.05524286379036913
-3.1265422293931238
-0.9876736847422415
0.05524286379036913
-3.1265422293931238
-0.9823030609178491
0.05619052797432503
-3.128169374857402
-0.9823030609178491
0.05619052797432503
-3.128169374857402
-0.9823030609178491
0.05619052797432503
-3.128169374857402
-0.9823030609178491
0.05619052797432503
-3.128169374857402
-0.9775040499380133
0.056748807846823436
-3.130562528730167
-0.9775040499380133
0.056748807846823436
-3.130562528730167
-0.9775040499380133
0.056748807846823436
-3.130562528730167
-0.9775040499380133
0.056748807846823436
-3.130562528730167
-0.9771457357808913
0.05471780648242252
-3.1330694737388662
-0.9771457357808913
0.05471780648242252
-3.1330694737388662
-0.9771457357808913
0.05471780648242252
-3.1330694737388662
-0.9771457357808913
0.05471780648242252
-3.1330694737388662
-0.9703050874960285
0.05579675942235938
-3.134708539473657
-0.9703050874960285
0.05579675942235938
-3.134708539473657
-0.9703050874960285
0.05579675942235938
-3.134708539473657
-0.9703050874960285
0.05579675942235938
-3.134708539473657
-0.9602985061579001
0.057476000444908755
-3.136423924164145
-0.9602985061579001
0.057476000444908755
-3.136423924164145
-0.9602985061579001
0.057476000444908755
-3.136423924164145
-0.9602985061579001
0.057476000444908755
-3.136423924164145
-0.9477590517874317
0.05722659775192634
-3.1410314575263785
-0.9477590517874317
0.05722659775192634
-3.1410314575263785
-0.9477590517874317
0.05722659775192634
-3.1410314575263785
-0.9477590517874317
0.05722659775192634
-3.1410314575263785
-0.9355358117398819
0.05276992407586911
3.135586636347139
-0.9355358117398819
0.05276992407586911
3.135586636347139
-0.9355358117398819
0.05276992407586911
3.135586636347139
-0.9355358117398819
0.05276992407586911
3.135586636347139
-0.931667470785547
0.04507134722427459
3.1293167811657763
-0.931667470785547
0.04507134722427459
3.1293167811657763
-0.931667470785547
0.04507134722427459
3.1293167811657763
-0.931667470785547
0.04507134722427459
3.1293167811657763
-0.9342072685584178
0.03969269459967355
3.126221503673307
-0.9342072685584178
0.03969269459967355
3.126221503673307
-0.9342072685584178
0.03969269459967355
3.126221503673307
-0.9342072685584178
0.03969269459967355
3.126221503673307
-0.9297061383631453
0.03743065343223326
3.1236386989712464
-0.9297061383631453
0.03743065343223326
3.1236386989712464
-0.9297061383631453
0.03743065343223326
3.1236386989712464
-0.9297061383631453
0.03743065343223326
3.1236386989712464
-0.9182714326610396
0.03514492360015683
3.120675824785334
-0.9182714326610396
0.03514492360015683
3.120675824785334
-0.9182714326610396
0.03514492360015683
3.120675824785334
-0.9182714326610396
0.03514492360015683
3.120675824785334
-0.91324970729021
0.032699130693510346
3.118999237554805
-0.91324970729021
0.032699130693510346
3.118999237554805
-0.91324970729021
0.032699130693510346
3.118999237554805
-0.91324970729021
0.032699130693510346
3.118999237554805
-0.9187922135830733
0.030614938306663585
3.1192279360066983
-0.9187922135830733
0.030614938306663585
3.1192279360066983
-0.9187922135830733
0.030614938306663585
3.1192279360066983
-0.9187922135830733
0.030614938306663585
3.1192279360066983
-0.9236882823446096
0.028486538947046794
3.1188215764416727
-0.9236882823446096
0.028486538947046794
3.1188215764416727
-0.9236882823446096
0.028486538947046794
3.1188215764416727
-0.9236882823446096
0.028486538947046794
3.1188215764416727
-0.9243303281625216
0.02673233179677102
3.1183191178311276
-0.9243303281625216
0.02673233179677102
3.1183191178311276
-0.9243303281625216
0.02673233179677102
3.1183191178311276
-0.9243303281625216
0.02673233179677102
3.1183191178311276
-0.9211448409252635
0.02485875500490674
3.118083616849006
-0.9211448409252635
0.02485875500490674
3.118083616849006
-0.9211448409252635
0.02485875500490674
3.118083616849006
-0.9211448409252635
0.02485875500490674
3.118083616849006
-0.9201462558588149
0.023233089385027203
3.117817914462802
-0.9201462558588149
0.023233089385027203
3.117817914462802
-0.9201462558588149
0.023233089385027203
3.117817914462802
-0.9201462558588149
0.023233089385027203
3.117817914462802
-0.9224802372654922
0.022168553919347182
3.117896767425813
-0.9224802372654922
0.022168553919347182
3.117896767425813
-0.9224802372654922
0.022168553919347182
3.117896767425813
-0.9224802372654922
0.022168553919347182
3.117896767425813
-0.9255746577557489
0.02093004700545489
3.1181895860700672
-0.9255746577557489
0.02093004700545489
3.1181895860700672
-0.9255746577557489
0.02093004700545489
3.1181895860700672
-0.9255746577557489
0.02093004700545489
3.1181895860700672
-0.9284039214650961
0.019749758753884458
3.117779154501283
-0.9284039214650961
0.019749758753884458
3.117779154501283
-0.9284039214650961
0.019749758753884458
3.117779154501283
-0.9284039214650961
0.019749758753884458
3.117779154501283
-0.9304694245254528
0.019180190313395105
3.118031958700009
-0.9304694245254528
0.019180190313395105
3.118031958700009
-0.9304694245254528
0.019180190313395105
3.118031958700009
-0.9304694245254528
0.019180190313395105
3.118031958700009
-0.9327491371369228
0.0188278934586367
3.118994288403617
-0.9327491371369228
0.0188278934586367
3.118994288403617
-0.9327491371369228
0.0188278934586367
3.118994288403617
-0.9327491371369228
0.0188278934586367
3.118994288403617
-0.9332775120540006
0.017786647960051267
3.1196474950450117
-0.9332775120540006
0.017786647960051267
3.1196474950450117
-0.9332775120540006
0.017786647960051267
3.1196474950450117
-0.9332775120540006
0.017786647960051267
3.1196474950450117
-0.9338136666729382
0.017455518152384226
3.1203534662643424
-0.9338136666729382
0.017455518152384226
3.1203534662643424
-0.9338136666729382
0.017455518152384226
3.1203534662643424
-0.9338136666729382
0.017455518152384226
3.1203534662643424
-0.9345136662234501
0.017178533332431533
3.1211666459303338
-0.9345136662234501
0.017178533332431533
3.1211666459303338
-0.9345136662234501
0.017178533332431533
3.1211666459303338
-0.9345136662234501
0.017178533332431533
3.1211666459303338
-0.9349956541578457
0.017121851563575347
3.1221464324242265
-0.9349956541578457
0.017121851563575347
3.1221464324242265
-0.9349956541578457
0.017121851563575347
3.1221464324242265
-0.9349956541578457
0.017121851563575347
3.1221464324242265
-0.9351532966583683
0.017343004414702875
3.123126317630435
-0.9351532966583683
0.017343004414702875
3.123126317630435
-0.9351532966583683
0.017343004414702875
3.123126317630435
-0.9351532966583683
0.017343004414702875
3.123126317630435
-0.9367888689747218
0.0176033797541642
3.123656809068469
-0.9367888689747218
0.0176033797541642
3.123656809068469
-0.9367888689747218
0.0176033797541642
3.123656809068469
-0.9367888689747218
0.0176033797541642
3.123656809068469
-0.9377685098577255
0.017706786129690254
3.1241384928487363
-0.9377685098577255
0.017706786129690254
3.1241384928487363
-0.9377685098577255
0.017706786129690254
3.1241384928487363
-0.9377685098577255
0.017706786129690254
3.1241384928487363
-0.9373275601951387
0.017876951710511523
3.124742524916293
-0.9373275601951387
0.017876951710511523
3.124742524916293
-0.9373275601951387
0.017876951710511523
3.124742524916293
-0.9373275601951387
0.017876951710511523
3.124742524916293
-0.937486238530701
0.01842757073287524
3.1258297127166967
-0.937486238530701
0.01842757073287524
3.1258297127166967
-0.937486238530701
0.01842757073287524
3.1258297127166967
-0.937486238530701
0.01842757073287524
3.1258297127166967
-0.9374822054295864
0.01903282931775626
3.126754763291314
-0.9374822054295864
0.01903282931775626
3.126754763291314
-0.9374822054295864
0.01903282931775626
3.126754763291314
-0.9374822054295864
0.01903282931775626
3.126754763291314
-0.9382460465102501
0.019683823249692645
3.1272360547760516
-0.9382460465102501
0.019683823249692645
3.1272360547760516
-0.9382460465102501
0.019683823249692645
3.1272360547760516
-0.9382460465102501
0.019683823249692645
3.1272360547760516
-0.93803078580451
0.020342707150181816
3.127452235809231
-0.93803078580451
0.020342707150181816
3.127452235809231
-0.93803078580451
0.020342707150181816
3.127452235809231
-0.93803078580451
0.020342707150181816
3.127452235809231
-0.938301223358484
0.020944870981910692
3.1281013049408255
-0.938301223358484
0.020944870981910692
3.1281013049408255
-0.938301223358484
0.020944870981910692
3.1281013049408255
-0.938301223358484
0.020944870981910692
3.1281013049408255
-0.9388375267631281
0.02122046798135986
3.1291859939556144
-0.9388375267631281
0.02122046798135986
3.1291859939556144
-0.9388375267631281
0.02122046798135986
3.1291859939556144
-0.9388375267631281
0.02122046798135986
3.1291859939556144
-0.9377459887821796
0.021774617449355754
3.1294676555053362
-0.9377459887821796
0.021774617449355754
3.1294676555053362
-0.9377459887821796
0.021774617449355754
3.1294676555053362
-0.9377459887821796
0.021774617449355754
3.1294676555053362
-0.9367608150919787
0.021726232013500792
3.129642719907239
-0.9367608150919787
0.021726232013500792
3.129642719907239
-0.9367608150919787
0.021726232013500792
3.129642719907239
-0.9367608150919787
0.021726232013500792
3.129642719907239
-0.9373055557754072
0.02161404583147417
3.1296919572106825
-0.9373055557754072
0.02161404583147417
3.1296919572106825
-0.9373055557754072
0.02161404583147417
3.1296919572106825
-0.9373055557754072
0.02161404583147417
3.1296919572106825
-0.9379567371279761
0.021282899644262037
3.129850783454396
-0.9379567371279761
0.021282899644262037
3.129850783454396
-0.9379567371279761
0.021282899644262037
3.129850783454396
-0.9379567371279761
0.021282899644262037
3.129850783454396
-0.9377332479190754
0.020904968246971616
3.1301820713392194
-0.9377332479190754
0.020904968246971616
3.1301820713392194
-0.9377332479190754
0.020904968246971616
3.1301820713392194
-0.9377332479190754
0.020904968246971616
3.1301820713392194
-0.9369126796072361
0.02063674034093359
3.1301919388294306
-0.9369126796072361
0.02063674034093359
3.1301919388294306
-0.9369126796072361
0.02063674034093359
3.1301919388294306
-0.9369126796072361
0.02063674034093359
3.1301919388294306
-0.9371258241006594
0.0201987644990135
3.130410878935332
-0.9371258241006594
0.0201987644990135
3.130410878935332
-0.9371258241006594
0.0201987644990135
3.130410878935332
-0.9371258241006594
0.0201987644990135
3.130410878935332
-0.9383798954370145
0.02013855464115187
3.130562025826026
-0.9383798954370145
0.02013855464115187
3.130562025826026
-0.9383798954370145
0.02013855464115187
3.130562025826026
-0.9383798954370145
0.02013855464115187
3.130562025826026
-0.939470693283368
0.02002362896891834
3.1306063352177156
-0.939470693283368
0.02002362896891834
3.1306063352177156
-0.939470693283368
0.02002362896891834
3.1306063352177156
-0.939470693283368
0.02002362896891834
3.1306063352177156
-0.939470693283368
0.02002362896891834
3.1306063352177156
-0.939470693283368
0.02002362896891834
3.1306063352177156
-0.939470693283368
0.02002362896891834
3.1306063352177156
-0.939470693283368
0.02002362896891834
3.1306063352177156
-0.9398528899614238
0.02018506148818116
3.130656383787941
-0.9398528899614238
0.02018506148818116
3.130656383787941
-0.9398528899614238
0.02018506148818116
3.130656383787941
-0.9398528899614238
0.02018506148818116
3.130656383787941
-0.9398528899614238
0.02018506148818116
3.130656383787941
-0.9398528899614238
0.02018506148818116
3.130656383787941
-0.9398528899614238
0.02018506148818116
3.130656383787941
-0.9398528899614238
0.02018506148818116
3.130656383787941
-0.9398528899614238
0.02018506148818116
3.130656383787941
-0.9398528899614238
0.02018506148818116
3.130656383787941
-0.9398528899614238
0.02018506148818116
3.130656383787941
-0.9398528899614238
0.02018506148818116
3.130656383787941
-0.9411078186732644
0.020069866025572335
3.130698811994072
-0.9411078186732644
0.020069866025572335
3.130698811994072
-0.9411078186732644
0.020069866025572335
3.130698811994072
-0.9411078186732644
0.020069866025572335
3.130698811994072
-0.9412719936868178
0.020069508254068905
3.1306968732782514
-0.9412719936868178
0.020069508254068905
3.1306968732782514
-0.9412719936868178
0.020069508254068905
3.1306968732782514
-0.9412719936868178
0.020069508254068905
3.1306968732782514
-0.9405641566208813
0.020290489327792635
3.130593616173919
-0.9405641566208813
0.020290489327792635
3.130593616173919
-0.9405641566208813
0.020290489327792635
3.130593616173919
-0.9405641566208813
0.020290489327792635
3.130593616173919
-0.9406736852192065
0.02061757194506174
3.1306997982554097
-0.9406736852192065
0.02061757194506174
3.1306997982554097
-0.9406736852192065
0.02061757194506174
3.1306997982554097
-0.9406736852192065
0.02061757194506174
3.1306997982554097
-0.9416571420595741
0.020776859410039934
3.130742815615136
-0.9416571420595741
0.020776859410039934
3.130742815615136
-0.9416571420595741
0.020776859410039934
3.130742815615136
-0.9416571420595741
0.020776859410039934
3.130742815615136
-0.9409541008940314
0.021432944838291564
3.1304183756631203
-0.9409541008940314
0.021432944838291564
3.1304183756631203
-0.9409541008940314
0.021432944838291564
3.1304183756631203
-0.9409541008940314
0.021432944838291564
3.1304183756631203
-0.9406809084020907
0.02181804879520667
3.1306370956507275
-0.9406809084020907
0.02181804879520667
3.1306370956507275
-0.9406809084020907
0.02181804879520667
3.1306370956507275
-0.9406809084020907
0.02181804879520667
3.1306370956507275
-0.9412840617299137
0.022252974874445018
3.1306814781214087
-0.9412840617299137
0.022252974874445018
3.1306814781214087
-0.9412840617299137
0.022252974874445018
3.1306814781214087
-0.9412840617299137
0.022252974874445018
3.1306814781214087
-0.9415619471245563
0.022686579385968457
3.130456910599725
-0.9415619471245563
0.022686579385968457
3.130456910599725
-0.9415619471245563
0.022686579385968457
3.130456910599725
-0.9415619471245563
0.022686579385968457
3.130456910599725
-0.9419449060503196
0.02334042152117559
3.1306664516065967
-0.9419449060503196
0.02334042152117559
3.1306664516065967
-0.9419449060503196
0.02334042152117559
3.1306664516065967
-0.9419449060503196
0.02334042152117559
3.1306664516065967
-0.9421064198568014
0.023670511436026696
3.1310439968763992
-0.9421064198568014
0.023670511436026696
3.1310439968763992
-0.9421064198568014
0.023670511436026696
3.1310439968763992
-0.9421064198568014
0.023670511436026696
3.1310439968763992
-0.9418314149131015
0.02378274503970805
3.1312648186456054
-0.9418314149131015
0.02378274503970805
3.1312648186456054
-0.9418314149131015
0.02378274503970805
3.1312648186456054
-0.9418314149131015
0.02378274503970805
3.1312648186456054
-0.9409070452618077
0.023950520248073943
3.131056003966057
-0.9409070452618077
0.023950520248073943
3.131056003966057
-0.9409070452618077
0.023950520248073943
3.131056003966057
-0.9409070452618077
0.023950520248073943
3.131056003966057
-0.9399290644141134
0.024554512913438544
3.1309003970535527
-0.9399290644141134
0.024554512913438544
3.1309003970535527
-0.9399290644141134
0.024554512913438544
3.1309003970535527
-0.9399290644141134
0.024554512913438544
3.1309003970535527
-0.9412945258386778
0.024875378582156722
3.1309905761665338
-0.9412945258386778
0.024875378582156722
3.1309905761665338
-0.9412945258386778
0.024875378582156722
3.1309905761665338
-0.9412945258386778
0.024875378582156722
3.1309905761665338
-0.941404396488827
0.02481875320427581
3.1308807055163843
-0.941404396488827
0.02481875320427581
3.1308807055163843
-0.941404396488827
0.02481875320427581
3.1308807055163843
-0.941404396488827
0.02481875320427581
3.1308807055163843
-0.9405924099153011
0.02498365639389197
3.130398340228255
-0.9405924099153011
0.02498365639389197
3.130398340228255
-0.9405924099153011
0.02498365639389197
3.130398340228255
-0.9405924099153011
0.02498365639389197
3.130398340228255
-0.9405924099153011
0.02498365639389197
3.130398340228255
-0.9405924099153011
0.02498365639389197
3.130398340228255
-0.9405924099153011
0.02498365639389197
3.130398340228255
-0.9405924099153011
0.02498365639389197
3.130398340228255
-0.9406477465808747
0.024984706059335934
3.1303970397849925
-0.9406477465808747
0.024984706059335934
3.1303970397849925
-0.9406477465808747
0.024984706059335934
3.1303970397849925
-0.9406477465808747
0.024984706059335934
3.1303970397849925
-0.9397783947551378
0.025259495873137482
3.130133818337664
-0.9397783947551378
0.025259495873137482
3.130133818337664
-0.9397783947551378
0.025259495873137482
3.130133818337664
-0.9397783947551378
0.025259495873137482
3.130133818337664
-0.9397783947551378
0.025259495873137482
3.130133818337664
-0.9397783947551378
0.025259495873137482
3.130133818337664
-0.9397783947551378
0.025259495873137482
3.130133818337664
-0.9397783947551378
0.025259495873137482
3.130133818337664
-0.9404859286435904
0.025038449259836136
3.130235221847708
-0.9404859286435904
0.025038449259836136
3.130235221847708
-0.9404859286435904
0.025038449259836136
3.130235221847708
-0.9404859286435904
0.025038449259836136
3.130235221847708
-0.9411391884856561
0.024761077988882066
3.130229268546449
-0.9411391884856561
0.024761077988882066
3.130229268546449
-0.9411391884856561
0.024761077988882066
3.130229268546449
-0.9411391884856561
0.024761077988882066
3.130229268546449
-0.9411393350324119
0.024213339828188907
3.129960089678859
-0.9411393350324119
0.024213339828188907
3.129960089678859
-0.9411393350324119
0.024213339828188907
3.129960089678859
-0.9411393350324119
0.024213339828188907
3.129960089678859
-0.9403168063797694
0.02350821992115148
3.1299200465260215
-0.9403168063797694
0.02350821992115148
3.1299200465260215
-0.9403168063797694
0.02350821992115148
3.1299200465260215
-0.9403168063797694
0.02350821992115148
3.1299200465260215
-0.9416744797999969
0.02301166147621919
3.1302898142355047
-0.9416744797999969
0.02301166147621919
3.1302898142355047
-0.9416744797999969
0.02301166147621919
3.1302898142355047
-0.9416744797999969
0.02301166147621919
3.1302898142355047
-0.9429238467281462
0.022681010277000608
3.1307144815292847
-0.9429238467281462
0.022681010277000608
3.1307144815292847
-0.9429238467281462
0.022681010277000608
3.1307144815292847
-0.9429238467281462
0.022681010277000608
3.1307144815292847
-0.9429244723429336
0.022461379870718307
3.1305524045572715
-0.9429244723429336
0.022461379870718307
3.1305524045572715
-0.9429244723429336
0.022461379870718307
3.1305524045572715
-0.9429244723429336
0.022461379870718307
3.1305524045572715
-0.9428157014647438
0.022462602777805055
3.1305533201703075
-0.9428157014647438
0.022462602777805055
3.1305533201703075
-0.9428157014647438
0.022462602777805055
3.1305533201703075
-0.9428157014647438
0.022462602777805055
3.1305533201703075
-0.9441227443875198
0.02223661936525708
3.130650321599108
-0.9441227443875198
0.02223661936525708
3.130650321599108
-0.9441227443875198
0.02223661936525708
3.130650321599108
-0.9441227443875198
0.02223661936525708
3.130650321599108
-0.9441782696350713
0.022237524410807508
3.1306491093332482
-0.9441782696350713
0.022237524410807508
3.1306491093332482
-0.9441782696350713
0.022237524410807508
3.1306491093332482
-0.9441782696350713
0.022237524410807508
3.1306491093332482
-0.9436283297292158
0.02229829125158548
3.13103690761256
-0.9436283297292158
0.02229829125158548
3.13103690761256
-0.9436283297292158
0.02229829125158548
3.13103690761256
-0.9436283297292158
0.02229829125158548
3.13103690761256
-0.9426449184477289
0.02285091969160216
3.131316892382144
-0.9426449184477289
0.02285091969160216
3.131316892382144
-0.9426449184477289
0.02285091969160216
3.131316892382144
-0.9426449184477289
0.02285091969160216
3.131316892382144
-0.9426465680881739
0.023288023162260883
3.1313681136444513
-0.9426465680881739
0.023288023162260883
3.1313681136444513
-0.9426465680881739
0.023288023162260883
3.1313681136444513
-0.9426465680881739
0.023288023162260883
3.1313681136444513
-0.9434649796589636
0.023667630636904493
3.1315738963605666
-0.9434649796589636
0.023667630636904493
3.1315738963605666
-0.9434649796589636
0.023667630636904493
3.1315738963605666
-0.9434649796589636
0.023667630636904493
3.1315738963605666
-0.9441711571068585
0.023886702007435524
3.1320001999550846
-0.9441711571068585
0.023886702007435524
3.1320001999550846
-0.9441711571068585
0.023886702007435524
3.1320001999550846
-0.9441711571068585
0.023886702007435524
3.1320001999550846
-0.9440059953839135
0.02410656829300188
3.1321643794229943
-0.9440059953839135
0.02410656829300188
3.1321643794229943
-0.9440059953839135
0.02410656829300188
3.1321643794229943
-0.9440059953839135
0.02410656829300188
3.1321643794229943
-0.9429153019906117
0.024384740031137726
3.13217535445977
-0.9429153019906117
0.024384740031137726
3.13217535445977
-0.9429153019906117
0.024384740031137726
3.13217535445977
-0.9429153019906117
0.024384740031137726
3.13217535445977
-0.9435667426850859
0.02438316354513668
3.132440647928809
-0.9435667426850859
0.02438316354513668
3.132440647928809
-0.9435667426850859
0.02438316354513668
3.132440647928809
-0.9435667426850859
0.02438316354513668
3.132440647928809
-0.9444413645803631
0.02454462921080436
3.132482707762044
-0.9444413645803631
0.02454462921080436
3.132482707762044
-0.9444413645803631
0.02454462921080436
3.132482707762044
-0.9444413645803631
0.02454462921080436
3.132482707762044
-0.9444413645803631
0.02454462921080436
3.132482707762044
-0.9444413645803631
0.02454462921080436
3.132482707762044
-0.9444413645803631
0.02454462921080436
3.132482707762044
-0.9444413645803631
0.02454462921080436
3.132482707762044
-0.943026459526244
0.024601018266285135
3.132063360636543
-0.943026459526244
0.024601018266285135
3.132063360636543
-0.943026459526244
0.024601018266285135
3.132063360636543
-0.943026459526244
0.024601018266285135
3.132063360636543
-0.9404618343302531
0.02472292736023769
3.1320392566489312
-0.9404618343302531
0.02472292736023769
3.1320392566489312
-0.9404618343302531
0.02472292736023769
3.1320392566489312
-0.9404618343302531
0.02472292736023769
3.1320392566489312
-0.9401877404209626
0.02477954821615311
3.1321514718812384
-0.9401877404209626
0.02477954821615311
3.1321514718812384
-0.9401877404209626
0.02477954821615311
3.1321514718812384
-0.9401877404209626
0.02477954821615311
3.1321514718812384
-0.9403023999869654
0.02499417636206393
3.131766747903414
-0.9403023999869654
0.02499417636206393
3.131766747903414
-0.9403023999869654
0.02499417636206393
3.131766747903414
-0.9403023999869654
0.02499417636206393
3.131766747903414
-0.9404710449676336
0.024936913246112122
3.131382583414622
-0.9404710449676336
0.024936913246112122
3.131382583414622
-0.9404710449676336
0.024936913246112122
3.131382583414622
-0.9404710449676336
0.024936913246112122
3.131382583414622
-0.9402074679446852
0.024440658262263947
3.130406354514078
-0.9402074679446852
0.024440658262263947
3.130406354514078
-0.9402074679446852
0.024440658262263947
3.130406354514078
-0.9402074679446852
0.024440658262263947
3.130406354514078
-0.9398316249568376
0.02411181975371165
3.1297575467083227
-0.9398316249568376
0.02411181975371165
3.1297575467083227
-0.9398316249568376
0.02411181975371165
3.1297575467083227
-0.9398316249568376
0.02411181975371165
3.1297575467083227
-0.9400518965554593
0.02377923314517179
3.129375494850213
-0.9400518965554593
0.02377923314517179
3.129375494850213
-0.9400518965554593
0.02377923314517179
3.129375494850213
-0.9400518965554593
0.02377923314517179
3.129375494850213
-0.9394045074868457
0.023341894681188666
3.1285119926583143
-0.9394045074868457
0.023341894681188666
3.1285119926583143
-0.9394045074868457
0.023341894681188666
3.1285119926583143
-0.9394045074868457
0.023341894681188666
3.1285119926583143
-0.9378833606165958
0.02285481509495539
3.1275500033044996
-0.9378833606165958
0.02285481509495539
3.1275500033044996
-0.9378833606165958
0.02285481509495539
3.1275500033044996
-0.9378833606165958
0.02285481509495539
3.1275500033044996
-0.9357002294157161
0.022213127673631285
3.1270863139473475
-0.9357002294157161
0.022213127673631285
3.1270863139473475
-0.9357002294157161
0.022213127673631285
3.1270863139473475
-0.9357002294157161
0.022213127673631285
3.1270863139473475
-0.933076539042075
0.022013598477833775
3.1272256085210572
-0.933076539042075
0.022013598477833775
3.1272256085210572
-0.933076539042075
0.022013598477833775
3.1272256085210572
-0.933076539042075
0.022013598477833775
3.1272256085210572
-0.9332399110913067
0.021849092730148047
3.12716931603977
-0.9332399110913067
0.021849092730148047
3.12716931603977
-0.9332399110913067
0.021849092730148047
3.12716931603977
-0.9332399110913067
0.021849092730148047
3.12716931603977
-0.930247567829471
0.02132281059462158
3.125837972140706
-0.930247567829471
0.02132281059462158
3.125837972140706
-0.930247567829471
0.02132281059462158
3.125837972140706
-0.930247567829471
0.02132281059462158
3.125837972140706
-0.9282396823936147
0.021065617642996238
3.1244942371764273
-0.9282396823936147
0.021065617642996238
3.1244942371764273
-0.9282396823936147
0.021065617642996238
3.1244942371764273
-0.9282396823936147
0.021065617642996238
3.1244942371764273
-0.9286258201959257
0.020733766099826585
3.1238357598518656
-0.9286258201959257
0.020733766099826585
3.1238357598518656
-0.9286258201959257
0.020733766099826585
3.1238357598518656
-0.9286258201959257
0.020733766099826585
3.1238357598518656
-0.9302653201892873
0.02033632978153048
3.1233280324964965
-0.9302653201892873
0.02033632978153048
3.1233280324964965
-0.9302653201892873
0.02033632978153048
3.1233280324964965
-0.9302653201892873
0.02033632978153048
3.1233280324964965
-0.9300022560219446
0.020446732907026928
3.122457104836387
-0.9300022560219446
0.020446732907026928
3.122457104836387
-0.9300022560219446
0.020446732907026928
3.122457104836387
-0.9300022560219446
0.020446732907026928
3.122457104836387
-0.9287058544903494
0.021005609941177006
3.121650021022053
-0.9287058544903494
0.021005609941177006
3.121650021022053
-0.9287058544903494
0.021005609941177006
3.121650021022053
-0.9287058544903494
0.021005609941177006
3.121650021022053
-0.9281119049081081
0.021447013053227194
3.121438806607748
-0.9281119049081081
0.021447013053227194
3.121438806607748
-0.9281119049081081
0.021447013053227194
3.121438806607748
-0.9281119049081081
0.021447013053227194
3.121438806607748
-0.9263812812846784
0.022611624904215397
3.12102061672858
-0.9263812812846784
0.022611624904215397
3.12102061672858
-0.9263812812846784
0.022611624904215397
3.12102061672858
-0.9263812812846784
0.022611624904215397
3.12102061672858
-0.9230213155138541
0.02439490132826587
3.120461336303098
-0.9230213155138541
0.02439490132826587
3.120461336303098
-0.9230213155138541
0.02439490132826587
3.120461336303098
-0.9230213155138541
0.02439490132826587
3.120461336303098
-0.9202122913791837
0.026828446401136633
3.1201214859867803
-0.9202122913791837
0.026828446401136633
3.1201214859867803
-0.9202122913791837
0.026828446401136633
3.1201214859867803
-0.9202122913791837
0.026828446401136633
3.1201214859867803
-0.9185009490711107
0.02963343015448467
3.1197194312216046
-0.9185009490711107
0.02963343015448467
3.1197194312216046
-0.9185009490711107
0.02963343015448467
3.1197194312216046
-0.9185009490711107
0.02963343015448467
3.1197194312216046
-0.916358447614306
0.03244447716113867
3.1190568235255984
-0.916358447614306
0.03244447716113867
3.1190568235255984
-0.916358447614306
0.03244447716113867
3.1190568235255984
-0.916358447614306
0.03244447716113867
3.1190568235255984
-0.9163520080639402
0.03621587953665744
3.1186935176734796
-0.9163520080639402
0.03621587953665744
3.1186935176734796
-0.9163520080639402
0.03621587953665744
3.1186935176734796
-0.9163520080639402
0.03621587953665744
3.1186935176734796
-0.9147410143804466
0.0402132646375062
3.119621379252537
-0.9147410143804466
0.0402132646375062
3.119621379252537
-0.9147410143804466
0.0402132646375062
3.119621379252537
-0.9147410143804466
0.0402132646375062
3.119621379252537
-0.9104361579108093
0.04407113453434492
3.1211043400844476
-0.9104361579108093
0.04407113453434492
3.1211043400844476
