-0.2362239258345333
-0.13728276720819038
1.198642779135553
-0.2362239258345333
-0.13728276720819038
1.198642779135553
-0.2362239258345333
-0.13728276720819038
1.198642779135553
-0.2362239258345333
-0.13728276720819038
1.198642779135553
-0.2362239258345333
-0.13728276720819038
1.198642779135553
-0.2362239258345333
-0.13728276720819038
1.198642779135553
-0.2362239258345333
-0.13728276720819038
1.198642779135553
-0.2362239258345333
-0.13728276720819038
1.198642779135553
-0.2362239258345333
-0.13728276720819038
1.198642779135553
-0.2362239258345333
-0.13728276720819038
1.198642779135553
-0.23545695438220346
-0.13717999493022537
1.1989526429670616
-0.23545695438220346
-0.13717999493022537
1.1989526429670616
-0.23545695438220346
-0.13717999493022537
1.1989526429670616
-0.23545695438220346
-0.13717999493022537
1.1989526429670616
-0.23545695438220346
-0.13717999493022537
1.1989526429670616
-0.23545695438220346
-0.13717999493022537
1.1989526429670616
-0.23545695438220346
-0.13717999493022537
1.1989526429670616
-0.23545695438220346
-0.13717999493022537
1.1989526429670616
-0.23545695438220346
-0.13717999493022537
1.1989526429670616
-0.23545695438220346
-0.13717999493022537
1.1989526429670616
-0.23545695438220346
-0.13717999493022537
1.1989526429670616
-0.23545695438220346
-0.13717999493022537
1.1989526429670616
-0.23538725673738253
-0.13708070087172866
1.1989359931270305
-0.23538725673738253
-0.13708070087172866
1.1989359931270305
-0.23538725673738253
-0.13708070087172866
1.1989359931270305
-0.23538725673738253
-0.13708070087172866
1.1989359931270305
-0.23545695438220346
-0.13717999493022537
1.1989526429670616
-0.23545695438220346
-0.13717999493022537
1.1989526429670616
-0.23545695438220346
-0.13717999493022537
1.1989526429670616
-0.23545695438220346
-0.13717999493022537
1.1989526429670616
-0.23555718797769276
-0.1371109515773203
1.198951417063383
-0.23555718797769276
-0.1371109515773203
1.198951417063383
-0.23555718797769276
-0.1371109515773203
1.198951417063383
-0.23555718797769276
-0.1371109515773203
1.198951417063383
-0.2352413997390862
-0.13746873683774952
1.1991428725017992
-0.2352413997390862
-0.13746873683774952
1.1991428725017992
-0.2352413997390862
-0.13746873683774952
1.1991428725017992
-0.2352413997390862
-0.13746873683774952
1.1991428725017992
-0.2348404536583751
-0.13774496417810111
1.19914762448434
-0.2348404536583751
-0.13774496417810111
1.19914762448434
-0.2348404536583751
-0.13774496417810111
1.19914762448434
-0.2348404536583751
-0.13774496417810111
1.19914762448434
-0.23436861004282494
-0.13790543905547042
1.1992358787006676
-0.23436861004282494
-0.13790543905547042
1.1992358787006676
-0.23436861004282494
-0.13790543905547042
1.1992358787006676
-0.23436861004282494
-0.13790543905547042
1.1992358787006676
-0.23420734145266675
-0.13831120483823692
1.1992725478728898
-0.23420734145266675
-0.13831120483823692
1.1992725478728898
-0.23420734145266675
-0.13831120483823692
1.1992725478728898
-0.23420734145266675
-0.13831120483823692
1.1992725478728898
-0.234115819358648
-0.13881625342841286
1.1993257946955875
-0.234115819358648
-0.13881625342841286
1.1993257946955875
-0.234115819358648
-0.13881625342841286
1.1993257946955875
-0.234115819358648
-0.13881625342841286
1.1993257946955875
-0.2337148325499303
-0.1390925345589831
1.1993301233827616
-0.2337148325499303
-0.1390925345589831
1.1993301233827616
-0.2337148325499303
-0.1390925345589831
1.1993301233827616
-0.2337148325499303
-0.1390925345589831
1.1993301233827616
-0.2337148325499303
-0.1390925345589831
1.1993301233827616
-0.2337148325499303
-0.1390925345589831
1.1993301233827616
-0.2337148325499303
-0.1390925345589831
1.1993301233827616
-0.2337148325499303
-0.1390925345589831
1.1993301233827616
-0.23407039330149348
-0.13913538650169224
1.1995312603407944
-0.23407039330149348
-0.13913538650169224
1.1995312603407944
-0.23407039330149348
-0.13913538650169224
1.1995312603407944
-0.23407039330149348
-0.13913538650169224
1.1995312603407944
-0.23459595428585941
-0.13920833511916944
1.199747996077564
-0.23459595428585941
-0.13920833511916944
1.199747996077564
-0.23459595428585941
-0.13920833511916944
1.199747996077564
-0.23459595428585941
-0.13920833511916944
1.199747996077564
-0.23469618000827547
-0.13913924480083253
1.1997468960294255
-0.23469618000827547
-0.13913924480083253
1.1997468960294255
-0.23469618000827547
-0.13913924480083253
1.1997468960294255
-0.23469618000827547
-0.13913924480083253
1.1997468960294255
-0.2341096688320565
-0.1394030056920941
1.1995656556644108
-0.2341096688320565
-0.1394030056920941
1.1995656556644108
-0.2341096688320565
-0.1394030056920941
1.1995656556644108
-0.2341096688320565
-0.1394030056920941
1.1995656556644108
-0.23396514923085424
-0.13980775503259465
1.1996719309575157
-0.23396514923085424
-0.13980775503259465
1.1996719309575157
-0.23396514923085424
-0.13980775503259465
1.1996719309575157
-0.23396514923085424
-0.13980775503259465
1.1996719309575157
-0.2347306310312642
-0.14001006365753438
1.1999212187605888
-0.2347306310312642
-0.14001006365753438
1.1999212187605888
-0.2347306310312642
-0.14001006365753438
1.1999212187605888
-0.2347306310312642
-0.14001006365753438
1.1999212187605888
-0.23463932182197167
-0.1405151051157795
1.19997454193276
-0.23463932182197167
-0.1405151051157795
1.19997454193276
-0.23463932182197167
-0.1405151051157795
1.19997454193276
-0.23463932182197167
-0.1405151051157795
1.19997454193276
-0.23395141824066928
-0.1408314951050221
1.1998941079510637
-0.23395141824066928
-0.1408314951050221
1.1998941079510637
-0.23395141824066928
-0.1408314951050221
1.1998941079510637
-0.23395141824066928
-0.1408314951050221
1.1998941079510637
-0.23395141824066928
-0.1408314951050221
1.1998941079510637
-0.23395141824066928
-0.1408314951050221
1.1998941079510637
-0.23395141824066928
-0.1408314951050221
1.1998941079510637
-0.23395141824066928
-0.1408314951050221
1.1998941079510637
-0.23477891409317259
-0.1407135783642004
1.2000080221109044
-0.23477891409317259
-0.1407135783642004
1.2000080221109044
-0.23477891409317259
-0.1407135783642004
1.2000080221109044
-0.23477891409317259
-0.1407135783642004
1.2000080221109044
-0.23479566196372859
-0.14071255886369677
1.2000778233418319
-0.23479566196372859
-0.14071255886369677
1.2000778233418319
-0.23479566196372859
-0.14071255886369677
1.2000778233418319
-0.23479566196372859
-0.14071255886369677
1.2000778233418319
-0.23466501277677682
-0.1409500259313045
1.2000966172809966
-0.23466501277677682
-0.1409500259313045
1.2000966172809966
-0.23466501277677682
-0.1409500259313045
1.2000966172809966
-0.23466501277677682
-0.1409500259313045
1.2000966172809966
-0.23396812888100982
-0.14083051106769023
1.199963904998934
-0.23396812888100982
-0.14083051106769023
1.199963904998934
-0.23396812888100982
-0.14083051106769023
1.199963904998934
-0.23396812888100982
-0.14083051106769023
1.199963904998934
-0.23396812888100982
-0.14083051106769023
1.199963904998934
-0.23396812888100982
-0.14083051106769023
1.199963904998934
-0.23396812888100982
-0.14083051106769023
1.199963904998934
-0.23396812888100982
-0.14083051106769023
1.199963904998934
-0.23419328167468337
-0.1411106910554781
1.2001841127630617
-0.23419328167468337
-0.1411106910554781
1.2001841127630617
-0.23419328167468337
-0.1411106910554781
1.2001841127630617
-0.23419328167468337
-0.1411106910554781
1.2001841127630617
-0.23406263721346576
-0.1413481672651086
1.2002028102053108
-0.23406263721346576
-0.1413481672651086
1.2002028102053108
-0.23406263721346576
-0.1413481672651086
1.2002028102053108
-0.23406263721346576
-0.1413481672651086
1.2002028102053108
-0.2335053427871045
-0.14142712852479172
1.2001033955117983
-0.2335053427871045
-0.14142712852479172
1.2001033955117983
-0.2335053427871045
-0.14142712852479172
1.2001033955117983
-0.2335053427871045
-0.14142712852479172
1.2001033955117983
-0.2335053427871045
-0.14142712852479172
1.2001033955117983
-0.2335053427871045
-0.14142712852479172
1.2001033955117983
-0.2335053427871045
-0.14142712852479172
1.2001033955117983
-0.2335053427871045
-0.14142712852479172
1.2001033955117983
-0.2343082467343446
-0.14100744399961018
1.2004533833234285
-0.2343082467343446
-0.14100744399961018
1.2004533833234285
-0.2343082467343446
-0.14100744399961018
1.2004533833234285
-0.2343082467343446
-0.14100744399961018
1.2004533833234285
-0.23392773048008983
-0.14066312711450815
1.2004877297461842
-0.23392773048008983
-0.14066312711450815
1.2004877297461842
-0.23392773048008983
-0.14066312711450815
1.2004877297461842
-0.23392773048008983
-0.14066312711450815
1.2004877297461842
-0.23375769027557963
-0.1406330320770387
1.2004720354943155
-0.23375769027557963
-0.1406330320770387
1.2004720354943155
-0.23375769027557963
-0.1406330320770387
1.2004720354943155
-0.23375769027557963
-0.1406330320770387
1.2004720354943155
-0.23497128564294686
-0.14038906232572332
1.2007695066363855
-0.23497128564294686
-0.14038906232572332
1.2007695066363855
-0.23497128564294686
-0.14038906232572332
1.2007695066363855
-0.23497128564294686
-0.14038906232572332
1.2007695066363855
-0.23526635625759104
-0.14076824100630253
1.201006577594888
-0.23526635625759104
-0.14076824100630253
1.201006577594888
-0.23526635625759104
-0.14076824100630253
1.201006577594888
-0.23526635625759104
-0.14076824100630253
1.201006577594888
-0.23425422581823635
-0.14100734540725204
1.2010647388646007
-0.23425422581823635
-0.14100734540725204
1.2010647388646007
-0.23425422581823635
-0.14100734540725204
1.2010647388646007
-0.23425422581823635
-0.14100734540725204
1.2010647388646007
-0.23390753029933636
-0.1414007352820285
1.200915362962509
-0.23390753029933636
-0.1414007352820285
1.200915362962509
-0.23390753029933636
-0.1414007352820285
1.200915362962509
-0.23390753029933636
-0.1414007352820285
1.200915362962509
-0.23491530411245296
-0.14176496191301438
1.2009974403769184
-0.23491530411245296
-0.14176496191301438
1.2009974403769184
-0.23491530411245296
-0.14176496191301438
1.2009974403769184
-0.23491530411245296
-0.14176496191301438
1.2009974403769184
-0.2350853666988436
-0.14179499158242992
1.20101324620156
-0.2350853666988436
-0.14179499158242992
1.20101324620156
-0.2350853666988436
-0.14179499158242992
1.20101324620156
-0.2350853666988436
-0.14179499158242992
1.20101324620156
-0.2340728587961051
-0.14191740489079072
1.200612796376435
-0.2340728587961051
-0.14191740489079072
1.200612796376435
-0.2340728587961051
-0.14191740489079072
1.200612796376435
-0.2340728587961051
-0.14191740489079072
1.200612796376435
-0.2340728587961051
-0.14191740489079072
1.200612796376435
-0.2340728587961051
-0.14191740489079072
1.200612796376435
-0.2340728587961051
-0.14191740489079072
1.200612796376435
-0.2340728587961051
-0.14191740489079072
1.200612796376435
-0.2340728587961051
-0.14191740489079072
1.200612796376435
-0.2340728587961051
-0.14191740489079072
1.200612796376435
-0.2340728587961051
-0.14191740489079072
1.200612796376435
-0.2340728587961051
-0.14191740489079072
1.200612796376435
-0.23424292788512202
-0.14194747216748857
1.2006286062640485
-0.23424292788512202
-0.14194747216748857
1.2006286062640485
-0.23424292788512202
-0.14194747216748857
1.2006286062640485
-0.23424292788512202
-0.14194747216748857
1.2006286062640485
-0.23427233679559975
-0.14176252219376145
1.200711100703319
-0.23427233679559975
-0.14176252219376145
1.200711100703319
-0.23427233679559975
-0.14176252219376145
1.200711100703319
-0.23427233679559975
-0.14176252219376145
1.200711100703319
-0.23394681050304306
-0.14155155769672118
1.2004917615829056
-0.23394681050304306
-0.14155155769672118
1.2004917615829056
-0.23394681050304306
-0.14155155769672118
1.2004917615829056
-0.23394681050304306
-0.14155155769672118
1.2004917615829056
-0.23394681050304306
-0.14155155769672118
1.2004917615829056
-0.23394681050304306
-0.14155155769672118
1.2004917615829056
-0.23394681050304306
-0.14155155769672118
1.2004917615829056
-0.23394681050304306
-0.14155155769672118
1.2004917615829056
-0.23394681050304306
-0.14155155769672118
1.2004917615829056
-0.23394681050304306
-0.14155155769672118
1.2004917615829056
-0.23394681050304306
-0.14155155769672118
1.2004917615829056
-0.23394681050304306
-0.14155155769672118
1.2004917615829056
-0.23404703176758787
-0.14148242150889342
1.2004907963843507
-0.23404703176758787
-0.14148242150889342
1.2004907963843507
-0.23404703176758787
-0.14148242150889342
1.2004907963843507
-0.23404703176758787
-0.14148242150889342
1.2004907963843507
-0.23404703176758787
-0.14148242150889342
1.2004907963843507
-0.23404703176758787
-0.14148242150889342
1.2004907963843507
-0.23404703176758787
-0.14148242150889342
1.2004907963843507
-0.23404703176758787
-0.14148242150889342
1.2004907963843507
-0.23399295794123717
-0.14136567356130647
1.2006441176842557
-0.23399295794123717
-0.14136567356130647
1.2006441176842557
-0.23399295794123717
-0.14136567356130647
1.2006441176842557
-0.23399295794123717
-0.14136567356130647
1.2006441176842557
-0.2337226771302716
-0.14140474425671687
1.2006293283260379
-0.2337226771302716
-0.14140474425671687
1.2006293283260379
-0.2337226771302716
-0.14140474425671687
1.2006293283260379
-0.2337226771302716
-0.14140474425671687
1.2006293283260379
-0.2343093451551691
-0.1411406824756205
1.2008112167306573
-0.2343093451551691
-0.1411406824756205
1.2008112167306573
-0.2343093451551691
-0.1411406824756205
1.2008112167306573
-0.2343093451551691
-0.1411406824756205
1.2008112167306573
-0.23506597729215256
-0.14090655948037709
1.2010086670025468
-0.23506597729215256
-0.14090655948037709
1.2010086670025468
-0.23506597729215256
-0.14090655948037709
1.2010086670025468
-0.23506597729215256
-0.14090655948037709
1.2010086670025468
-0.23516616757851594
-0.14083739995065203
1.2010076257891171
-0.23516616757851594
-0.14083739995065203
1.2010076257891171
-0.23516616757851594
-0.14083739995065203
1.2010076257891171
-0.23516616757851594
-0.14083739995065203
1.2010076257891171
-0.23486573498299218
-0.14116142165942902
1.2014688095259678
-0.23486573498299218
-0.14116142165942902
1.2014688095259678
-0.23486573498299218
-0.14116142165942902
1.2014688095259678
-0.23486573498299218
-0.14116142165942902
1.2014688095259678
-0.23433898077251855
-0.14118906718828164
1.2018097617517638
-0.23433898077251855
-0.14118906718828164
1.2018097617517638
-0.23433898077251855
-0.14118906718828164
1.2018097617517638
-0.23433898077251855
-0.14118906718828164
1.2018097617517638
-0.23433898077251855
-0.14118906718828164
1.2018097617517638
-0.23433898077251855
-0.14118906718828164
1.2018097617517638
-0.23433898077251855
-0.14118906718828164
1.2018097617517638
-0.23433898077251855
-0.14118906718828164
1.2018097617517638
-0.23443914899651763
-0.1411198679813329
1.2018087535173854
-0.23443914899651763
-0.1411198679813329
1.2018087535173854
-0.23443914899651763
-0.1411198679813329
1.2018087535173854
-0.23443914899651763
-0.1411198679813329
1.2018087535173854
-0.23385290033655193
-0.14150098619222654
1.2020849480060234
-0.23385290033655193
-0.14150098619222654
1.2020849480060234
-0.23385290033655193
-0.14150098619222654
1.2020849480060234
-0.23385290033655193
-0.14150098619222654
1.2020849480060234
-0.23412049086777104
-0.14219834848777377
1.2025974803578312
-0.23412049086777104
-0.14219834848777377
1.2025974803578312
-0.23412049086777104
-0.14219834848777377
1.2025974803578312
-0.23412049086777104
-0.14219834848777377
1.2025974803578312
-0.23351771023990608
-0.14258066593837096
1.202803385368888
-0.23351771023990608
-0.14258066593837096
1.202803385368888
-0.23351771023990608
-0.14258066593837096
1.202803385368888
-0.23351771023990608
-0.14258066593837096
1.202803385368888
-0.23262020088749805
-0.14260049906010427
1.2026718938808347
-0.23262020088749805
-0.14260049906010427
1.2026718938808347
-0.23262020088749805
-0.14260049906010427
1.2026718938808347
-0.23262020088749805
-0.14260049906010427
1.2026718938808347
-0.2327218253034512
-0.14266481133560346
1.2030288548079668
-0.2327218253034512
-0.14266481133560346
1.2030288548079668
-0.2327218253034512
-0.14266481133560346
1.2030288548079668
-0.2327218253034512
-0.14266481133560346
1.2030288548079668
-0.2335313562611847
-0.1434002652704763
1.2040294144837205
-0.2335313562611847
-0.1434002652704763
1.2040294144837205
-0.2335313562611847
-0.1434002652704763
1.2040294144837205
-0.2335313562611847
-0.1434002652704763
1.2040294144837205
-0.2320240093134515
-0.14361839465243742
1.204866878477557
-0.2320240093134515
-0.14361839465243742
1.204866878477557
-0.2320240093134515
-0.14361839465243742
1.204866878477557
-0.2320240093134515
-0.14361839465243742
1.204866878477557
-0.22953221785209527
-0.14365905110962188
1.2049272482195021
-0.22953221785209527
-0.14365905110962188
1.2049272482195021
-0.22953221785209527
-0.14365905110962188
1.2049272482195021
-0.22953221785209527
-0.14365905110962188
1.2049272482195021
-0.2322646545500673
-0.14248865130605862
1.2057424549963933
-0.2322646545500673
-0.14248865130605862
1.2057424549963933
-0.2322646545500673
-0.14248865130605862
1.2057424549963933
-0.2322646545500673
-0.14248865130605862
1.2057424549963933
-0.23387885964798735
-0.14095496617513842
1.207695150118352
-0.23387885964798735
-0.14095496617513842
1.207695150118352
-0.23387885964798735
-0.14095496617513842
1.207695150118352
-0.23387885964798735
-0.14095496617513842
1.207695150118352
-0.23169691571229942
-0.14010194552103702
1.2090085590756887
-0.23169691571229942
-0.14010194552103702
1.2090085590756887
-0.23169691571229942
-0.14010194552103702
1.2090085590756887
-0.23169691571229942
-0.14010194552103702
1.2090085590756887
-0.2314779472085684
-0.13900023544182522
1.2096833537146785
-0.2314779472085684
-0.13900023544182522
1.2096833537146785
-0.2314779472085684
-0.13900023544182522
1.2096833537146785
-0.2314779472085684
-0.13900023544182522
1.2096833537146785
-0.23414844843885188
-0.1376896008227154
1.2107436969089833
-0.23414844843885188
-0.1376896008227154
1.2107436969089833
-0.23414844843885188
-0.1376896008227154
1.2107436969089833
-0.23414844843885188
-0.1376896008227154
1.2107436969089833
-0.23801293563591458
-0.136878373603579
1.212424547397864
-0.23801293563591458
-0.136878373603579
1.212424547397864
-0.23801293563591458
-0.136878373603579
1.212424547397864
-0.23801293563591458
-0.136878373603579
1.212424547397864
-0.24012057149232569
-0.13646059417063047
1.2145382153956226
-0.24012057149232569
-0.13646059417063047
1.2145382153956226
-0.24012057149232569
-0.13646059417063047
1.2145382153956226
-0.24012057149232569
-0.13646059417063047
1.2145382153956226
-0.2406235926362513
-0.13577978158462575
1.2170543859599183
-0.2406235926362513
-0.13577978158462575
1.2170543859599183
-0.2406235926362513
-0.13577978158462575
1.2170543859599183
-0.2406235926362513
-0.13577978158462575
1.2170543859599183
-0.24089961457749737
-0.13472187400456015
1.2187916345082614
-0.24089961457749737
-0.13472187400456015
1.2187916345082614
-0.24089961457749737
-0.13472187400456015
1.2187916345082614
-0.24089961457749737
-0.13472187400456015
1.2187916345082614
-0.2403149581455459
-0.13226607015922037
1.2204658258101686
-0.2403149581455459
-0.13226607015922037
1.2204658258101686
-0.2403149581455459
-0.13226607015922037
1.2204658258101686
-0.2403149581455459
-0.13226607015922037
1.2204658258101686
-0.23910438468595854
-0.13088811487851582
1.2218553399921623
-0.23910438468595854
-0.13088811487851582
1.2218553399921623
-0.23910438468595854
-0.13088811487851582
1.2218553399921623
-0.23910438468595854
-0.13088811487851582
1.2218553399921623
-0.23979983541468758
-0.13005838315328916
1.2224167051373098
-0.23979983541468758
-0.13005838315328916
1.2224167051373098
-0.23979983541468758
-0.13005838315328916
1.2224167051373098
-0.23979983541468758
-0.13005838315328916
1.2224167051373098
-0.24309849146193194
-0.1294164012139659
1.2224928244914464
-0.24309849146193194
-0.1294164012139659
1.2224928244914464
-0.24309849146193194
-0.1294164012139659
1.2224928244914464
-0.24309849146193194
-0.1294164012139659
1.2224928244914464
-0.2470799103364432
-0.1290346322886988
1.2228853499183716
-0.2470799103364432
-0.1290346322886988
1.2228853499183716
-0.2470799103364432
-0.1290346322886988
1.2228853499183716
-0.2470799103364432
-0.1290346322886988
1.2228853499183716
-0.247991032936888
-0.12911631969739193
1.2235396327488013
-0.247991032936888
-0.12911631969739193
1.2235396327488013
-0.247991032936888
-0.12911631969739193
1.2235396327488013
-0.247991032936888
-0.12911631969739193
1.2235396327488013
-0.2472339030243448
-0.1284001877690517
1.22387643102763
-0.2472339030243448
-0.1284001877690517
1.22387643102763
-0.2472339030243448
-0.1284001877690517
1.22387643102763
-0.2472339030243448
-0.1284001877690517
1.22387643102763
-0.2471346910396027
-0.12847042188778324
1.223878713428757
-0.2471346910396027
-0.12847042188778324
1.223878713428757
-0.2471346910396027
-0.12847042188778324
1.223878713428757
-0.2471346910396027
-0.12847042188778324
1.223878713428757
-0.24777382163876754
-0.12761716914177879
1.2231979901724528
-0.24777382163876754
-0.12761716914177879
1.2231979901724528
-0.24777382163876754
-0.12761716914177879
1.2231979901724528
-0.24777382163876754
-0.12761716914177879
1.2231979901724528
-0.2497954672907778
-0.12715190868841178
1.222864584308712
-0.2497954672907778
-0.12715190868841178
1.222864584308712
-0.2497954672907778
-0.12715190868841178
1.222864584308712
-0.2497954672907778
-0.12715190868841178
1.222864584308712
-0.2513756509889027
-0.12668401376781568
1.2226028839294802
-0.2513756509889027
-0.12668401376781568
1.2226028839294802
-0.2513756509889027
-0.12668401376781568
1.2226028839294802
-0.2513756509889027
-0.12668401376781568
1.2226028839294802
-0.2534094860659612
-0.12618334022672595
1.2225368077692047
-0.2534094860659612
-0.12618334022672595
1.2225368077692047
-0.2534094860659612
-0.12618334022672595
1.2225368077692047
-0.2534094860659612
-0.12618334022672595
1.2225368077692047
-0.255797327808966
-0.1250063135932204
1.2220620251877679
-0.255797327808966
-0.1250063135932204
1.2220620251877679
-0.255797327808966
-0.1250063135932204
1.2220620251877679
-0.255797327808966
-0.1250063135932204
1.2220620251877679
-0.25794274939198797
-0.12323118653078077
1.2217642919882459
-0.25794274939198797
-0.12323118653078077
1.2217642919882459
-0.25794274939198797
-0.12323118653078077
1.2217642919882459
-0.25794274939198797
-0.12323118653078077
1.2217642919882459
-0.25970579145639405
-0.12171686498436123
1.2216447561034325
-0.25970579145639405
-0.12171686498436123
1.2216447561034325
-0.25970579145639405
-0.12171686498436123
1.2216447561034325
-0.25970579145639405
-0.12171686498436123
1.2216447561034325
-0.26149093517428
-0.11999986562667053
1.2217003210250996
-0.26149093517428
-0.11999986562667053
1.2217003210250996
-0.26149093517428
-0.11999986562667053
1.2217003210250996
-0.26149093517428
-0.11999986562667053
1.2217003210250996
-0.2658152076424722
-0.11866857265781097
1.2217610211454681
-0.2658152076424722
-0.11866857265781097
1.2217610211454681
-0.2658152076424722
-0.11866857265781097
1.2217610211454681
-0.2658152076424722
-0.11866857265781097
1.2217610211454681
-0.26827195995705455
-0.11830330775196944
1.2218984304655982
-0.26827195995705455
-0.11830330775196944
1.2218984304655982
-0.26827195995705455
-0.11830330775196944
1.2218984304655982
-0.26827195995705455
-0.11830330775196944
1.2218984304655982
-0.26824040879630817
-0.11799813702421587
1.2221284308233789
-0.26824040879630817
-0.11799813702421587
1.2221284308233789
-0.26824040879630817
-0.11799813702421587
1.2221284308233789
-0.26824040879630817
-0.11799813702421587
1.2221284308233789
-0.267116652169113
-0.11786370803199092
1.2222459498047007
-0.267116652169113
-0.11786370803199092
1.2222459498047007
-0.267116652169113
-0.11786370803199092
1.2222459498047007
-0.267116652169113
-0.11786370803199092
1.2222459498047007
-0.2689200975593958
-0.1170724628009029
1.222043661355352
-0.2689200975593958
-0.1170724628009029
1.222043661355352
-0.2689200975593958
-0.1170724628009029
1.222043661355352
-0.2689200975593958
-0.1170724628009029
1.222043661355352
-0.27272926163467676
-0.11713266363376632
1.2221843806832662
-0.27272926163467676
-0.11713266363376632
1.2221843806832662
-0.27272926163467676
-0.11713266363376632
1.2221843806832662
-0.27272926163467676
-0.11713266363376632
1.2221843806832662
-0.2739034062807851
-0.11698752778583622
1.221656154778891
-0.2739034062807851
-0.11698752778583622
1.221656154778891
-0.2739034062807851
-0.11698752778583622
1.221656154778891
-0.2739034062807851
-0.11698752778583622
1.221656154778891
-0.2747790910493176
-0.11456473895234794
1.219967452512187
-0.2747790910493176
-0.11456473895234794
1.219967452512187
-0.2747790910493176
-0.11456473895234794
1.219967452512187
-0.2747790910493176
-0.11456473895234794
1.219967452512187
-0.2758658210619426
-0.11432683062439306
1.2193493637951673
-0.2758658210619426
-0.11432683062439306
1.2193493637951673
-0.2758658210619426
-0.11432683062439306
1.2193493637951673
-0.2758658210619426
-0.11432683062439306
1.2193493637951673
-0.2772031853219576
-0.11372033123072024
1.2191389757636355
-0.2772031853219576
-0.11372033123072024
1.2191389757636355
-0.2772031853219576
-0.11372033123072024
1.2191389757636355
-0.2772031853219576
-0.11372033123072024
1.2191389757636355
-0.2787758050634002
-0.11317403157083714
1.2182312871874308
-0.2787758050634002
-0.11317403157083714
1.2182312871874308
-0.2787758050634002
-0.11317403157083714
1.2182312871874308
-0.2787758050634002
-0.11317403157083714
1.2182312871874308
-0.2795220008248327
-0.11346228065669205
1.2178379589381532
-0.2795220008248327
-0.11346228065669205
1.2178379589381532
-0.2795220008248327
-0.11346228065669205
1.2178379589381532
-0.2795220008248327
-0.11346228065669205
1.2178379589381532
-0.2773344550742874
-0.11378206931212251
1.217718288309862
-0.2773344550742874
-0.11378206931212251
1.217718288309862
-0.2773344550742874
-0.11378206931212251
1.217718288309862
-0.2773344550742874
-0.11378206931212251
1.217718288309862
-0.2759412918025667
-0.11414248729629368
1.217719639536933
-0.2759412918025667
-0.11414248729629368
1.217719639536933
-0.2759412918025667
-0.11414248729629368
1.217719639536933
-0.2759412918025667
-0.11414248729629368
1.217719639536933
-0.2753990476839061
-0.1146638176017466
1.2176907525647085
-0.2753990476839061
-0.1146638176017466
1.2176907525647085
-0.2753990476839061
-0.1146638176017466
1.2176907525647085
-0.2753990476839061
-0.1146638176017466
1.2176907525647085
-0.2743297518174658
-0.11522833973529265
1.2179099918388916
-0.2743297518174658
-0.11522833973529265
1.2179099918388916
-0.2743297518174658
-0.11522833973529265
1.2179099918388916
-0.2743297518174658
-0.11522833973529265
1.2179099918388916
-0.272083997165047
-0.1148283759456467
1.2177870928953083
-0.272083997165047
-0.1148283759456467
1.2177870928953083
-0.272083997165047
-0.1148283759456467
1.2177870928953083
-0.272083997165047
-0.1148283759456467
1.2177870928953083
-0.2701948785271903
-0.1144818064504964
1.2177629921986812
-0.2701948785271903
-0.1144818064504964
1.2177629921986812
-0.2701948785271903
-0.1144818064504964
1.2177629921986812
-0.2701948785271903
-0.1144818064504964
1.2177629921986812
-0.26760534563472516
-0.11413326659116431
1.2180735386163972
-0.26760534563472516
-0.11413326659116431
1.2180735386163972
-0.26760534563472516
-0.11413326659116431
1.2180735386163972
-0.26760534563472516
-0.11413326659116431
1.2180735386163972
-0.26575260281667046
-0.11416353847001534
1.218548197627896
-0.26575260281667046
-0.11416353847001534
1.218548197627896
-0.26575260281667046
-0.11416353847001534
1.218548197627896
-0.26575260281667046
-0.11416353847001534
1.218548197627896
-0.2664064668765472
-0.11400757220049619
1.2186350817979292
-0.2664064668765472
-0.11400757220049619
1.2186350817979292
-0.2664064668765472
-0.11400757220049619
1.2186350817979292
-0.2664064668765472
-0.11400757220049619
1.2186350817979292
-0.26730526277101707
-0.11386935358735643
1.2182937255116935
-0.26730526277101707
-0.11386935358735643
1.2182937255116935
-0.26730526277101707
-0.11386935358735643
1.2182937255116935
-0.26730526277101707
-0.11386935358735643
1.2182937255116935
-0.26780253636910595
-0.11444978462369818
1.2179562661231917
-0.26780253636910595
-0.11444978462369818
1.2179562661231917
-0.26780253636910595
-0.11444978462369818
1.2179562661231917
-0.26780253636910595
-0.11444978462369818
1.2179562661231917
-0.2672826735504807
-0.11485810361319865
1.217536264622062
-0.2672826735504807
-0.11485810361319865
1.217536264622062
-0.2672826735504807
-0.11485810361319865
1.217536264622062
-0.2672826735504807
-0.11485810361319865
1.217536264622062
-0.2647796229966614
-0.11538979869723728
1.2173533045877627
-0.2647796229966614
-0.11538979869723728
1.2173533045877627
-0.2647796229966614
-0.11538979869723728
1.2173533045877627
-0.2647796229966614
-0.11538979869723728
1.2173533045877627
-0.26186912177084704
-0.11590954133392528
1.2173846258201815
-0.26186912177084704
-0.11590954133392528
1.2173846258201815
-0.26186912177084704
-0.11590954133392528
1.2173846258201815
-0.26186912177084704
-0.11590954133392528
1.2173846258201815
-0.2625750321296399
-0.11598358977611256
1.2177790212421065
-0.2625750321296399
-0.11598358977611256
1.2177790212421065
-0.2625750321296399
-0.11598358977611256
1.2177790212421065
-0.2625750321296399
-0.11598358977611256
1.2177790212421065
-0.26157383486575914
-0.11617520481536309
1.2182217089068554
-0.26157383486575914
-0.11617520481536309
1.2182217089068554
-0.26157383486575914
-0.11617520481536309
1.2182217089068554
-0.26157383486575914
-0.11617520481536309
1.2182217089068554
-0.2638887998770152
-0.11574477809955129
1.2186822203999839
-0.2638887998770152
-0.11574477809955129
1.2186822203999839
-0.2638887998770152
-0.11574477809955129
1.2186822203999839
-0.2638887998770152
-0.11574477809955129
1.2186822203999839
-0.26398799259054756
-0.11567487814361939
1.2186787573378912
-0.26398799259054756
-0.11567487814361939
1.2186787573378912
-0.26398799259054756
-0.11567487814361939
1.2186787573378912
-0.26398799259054756
-0.11567487814361939
1.2186787573378912
-0.26260966839604416
-0.11588797870175825
1.2184861834694658
-0.26260966839604416
-0.11588797870175825
1.2184861834694658
-0.26260966839604416
-0.11588797870175825
1.2184861834694658
-0.26260966839604416
-0.11588797870175825
1.2184861834694658
-0.2616568474928192
-0.1153246273114716
1.2187303885532306
-0.2616568474928192
-0.1153246273114716
1.2187303885532306
-0.2616568474928192
-0.1153246273114716
1.2187303885532306
-0.2616568474928192
-0.1153246273114716
1.2187303885532306
-0.2598306222095817
-0.11471571775703986
1.2193944507497
-0.2598306222095817
-0.11471571775703986
1.2193944507497
-0.2598306222095817
-0.11471571775703986
1.2193944507497
-0.2598306222095817
-0.11471571775703986
1.2193944507497
-0.2610156883347278
-0.11471554920506769
1.2203209986222714
-0.2610156883347278
-0.11471554920506769
1.2203209986222714
-0.2610156883347278
-0.11471554920506769
1.2203209986222714
-0.2610156883347278
-0.11471554920506769
1.2203209986222714
-0.26111484383101513
-0.11464556834199605
1.2203175714579402
-0.26111484383101513
-0.11464556834199605
1.2203175714579402
-0.26111484383101513
-0.11464556834199605
1.2203175714579402
-0.26111484383101513
-0.11464556834199605
1.2203175714579402
-0.2607693642711802
-0.11409877162197385
1.2206001217050448
-0.2607693642711802
-0.11409877162197385
1.2206001217050448
-0.2607693642711802
-0.11409877162197385
1.2206001217050448
-0.2607693642711802
-0.11409877162197385
1.2206001217050448
-0.259970310649534
-0.11371330213769881
1.2210492452614312
-0.259970310649534
-0.11371330213769881
1.2210492452614312
-0.259970310649534
-0.11371330213769881
1.2210492452614312
-0.259970310649534
-0.11371330213769881
1.2210492452614312
-0.2608353438047082
-0.1138522251500277
1.2211875403233445
-0.2608353438047082
-0.1138522251500277
1.2211875403233445
-0.2608353438047082
-0.1138522251500277
1.2211875403233445
-0.2608353438047082
-0.1138522251500277
1.2211875403233445
-0.2608353438047082
-0.1138522251500277
1.2211875403233445
-0.2608353438047082
-0.1138522251500277
1.2211875403233445
-0.2608353438047082
-0.1138522251500277
1.2211875403233445
-0.2608353438047082
-0.1138522251500277
1.2211875403233445
-0.26091449531135524
-0.11404111539694355
1.221833032606007
-0.26091449531135524
-0.11404111539694355
1.221833032606007
-0.26091449531135524
-0.11404111539694355
1.221833032606007
-0.26091449531135524
-0.11404111539694355
1.221833032606007
-0.2581998566150338
-0.1144103882246607
1.2219581232123615
-0.2581998566150338
-0.1144103882246607
1.2219581232123615
-0.2581998566150338
-0.1144103882246607
1.2219581232123615
-0.2581998566150338
-0.1144103882246607
1.2219581232123615
-0.2582941955769367
-0.1144517129853888
1.2224134730368776
-0.2582941955769367
-0.1144517129853888
1.2224134730368776
-0.2582941955769367
-0.1144517129853888
1.2224134730368776
-0.2582941955769367
-0.1144517129853888
1.2224134730368776
-0.2582941955769367
-0.1144517129853888
1.2224134730368776
-0.2582941955769367
-0.1144517129853888
1.2224134730368776
-0.2582941955769367
-0.1144517129853888
1.2224134730368776
-0.2582941955769367
-0.1144517129853888
1.2224134730368776
-0.2577564862421441
-0.11499082365657938
1.222280758564625
-0.2577564862421441
-0.11499082365657938
1.222280758564625
-0.2577564862421441
-0.11499082365657938
1.222280758564625
-0.2577564862421441
-0.11499082365657938
1.222280758564625
-0.25723232476809
-0.11550981166764038
1.222317424854813
-0.25723232476809
-0.11550981166764038
1.222317424854813
-0.25723232476809
-0.11550981166764038
1.222317424854813
-0.25723232476809
-0.11550981166764038
1.222317424854813
-0.2576136967448121
-0.11583354799340871
1.2223819134221852
-0.2576136967448121
-0.11583354799340871
1.2223819134221852
-0.2576136967448121
-0.11583354799340871
1.2223819134221852
-0.2576136967448121
-0.11583354799340871
1.2223819134221852
-0.25673643120174816
-0.11631586306810929
1.2222211823554308
-0.25673643120174816
-0.11631586306810929
1.2222211823554308
-0.25673643120174816
-0.11631586306810929
1.2222211823554308
-0.25673643120174816
-0.11631586306810929
1.2222211823554308
-0.25695099917164366
-0.11708364483837076
1.2220604184689188
-0.25695099917164366
-0.11708364483837076
1.2220604184689188
-0.25695099917164366
-0.11708364483837076
1.2220604184689188
-0.25695099917164366
-0.11708364483837076
1.2220604184689188
-0.25646560834680604
-0.11785278231718864
1.222232516987189
-0.25646560834680604
-0.11785278231718864
1.222232516987189
-0.25646560834680604
-0.11785278231718864
1.222232516987189
-0.25646560834680604
-0.11785278231718864
1.222232516987189
-0.2566519313671274
-0.1183335363106065
1.2222044296873982
-0.2566519313671274
-0.1183335363106065
1.2222044296873982
-0.2566519313671274
-0.1183335363106065
1.2222044296873982
-0.2566519313671274
-0.1183335363106065
1.2222044296873982
-0.25643974599882835
-0.11849367233119677
1.2220408947619994
-0.25643974599882835
-0.11849367233119677
1.2220408947619994
-0.25643974599882835
-0.11849367233119677
1.2220408947619994
-0.25643974599882835
-0.11849367233119677
1.2220408947619994
-0.25601763272014705
-0.11895944793649739
1.2219740816370401
-0.25601763272014705
-0.11895944793649739
1.2219740816370401
-0.25601763272014705
-0.11895944793649739
1.2219740816370401
-0.25601763272014705
-0.11895944793649739
1.2219740816370401
-0.2559184716835693
-0.11902953929755777
1.2219771287407477
-0.2559184716835693
-0.11902953929755777
1.2219771287407477
-0.2559184716835693
-0.11902953929755777
1.2219771287407477
-0.2559184716835693
-0.11902953929755777
1.2219771287407477
-0.25658655441740513
-0.11917983654735985
1.2217640456096515
-0.25658655441740513
-0.11917983654735985
1.2217640456096515
-0.25658655441740513
-0.11917983654735985
1.2217640456096515
-0.25658655441740513
-0.11917983654735985
1.2217640456096515
-0.256116278707344
-0.1193448092738134
1.2218583730184491
-0.256116278707344
-0.1193448092738134
1.2218583730184491
-0.256116278707344
-0.1193448092738134
1.2218583730184491
-0.256116278707344
-0.1193448092738134
1.2218583730184491
-0.2549354099011654
-0.1195480590946213
1.2220158470252598
-0.2549354099011654
-0.1195480590946213
1.2220158470252598
-0.2549354099011654
-0.1195480590946213
1.2220158470252598
-0.2549354099011654
-0.1195480590946213
1.2220158470252598
-0.2550060092680582
-0.11964651724493003
1.2220328079137726
-0.2550060092680582
-0.11964651724493003
1.2220328079137726
-0.2550060092680582
-0.11964651724493003
1.2220328079137726
-0.2550060092680582
-0.11964651724493003
1.2220328079137726
-0.25514965200730955
-0.11998921573719569
1.22232709280459
-0.25514965200730955
-0.11998921573719569
1.22232709280459
-0.25514965200730955
-0.11998921573719569
1.22232709280459
-0.25514965200730955
-0.11998921573719569
1.22232709280459
-0.2544756160762247
-0.11980562944709329
1.2227383468843873
-0.2544756160762247
-0.11980562944709329
1.2227383468843873
-0.2544756160762247
-0.11980562944709329
1.2227383468843873
-0.2544756160762247
-0.11980562944709329
1.2227383468843873
-0.25353558513474533
-0.11968097715866441
1.2230395326733654
-0.25353558513474533
-0.11968097715866441
1.2230395326733654
-0.25353558513474533
-0.11968097715866441
1.2230395326733654
-0.25353558513474533
-0.11968097715866441
1.2230395326733654
-0.2545396254943703
-0.11921779113845989
1.2238985847547943
-0.2545396254943703
-0.11921779113845989
1.2238985847547943
-0.2545396254943703
-0.11921779113845989
1.2238985847547943
-0.2545396254943703
-0.11921779113845989
1.2238985847547943
-0.2532852312442489
-0.1188519178552563
1.2242515494881947
-0.2532852312442489
-0.1188519178552563
1.2242515494881947
-0.2532852312442489
-0.1188519178552563
1.2242515494881947
-0.2532852312442489
-0.1188519178552563
1.2242515494881947
-0.2518296156123282
-0.11861028662208087
1.2247099571891198
-0.2518296156123282
-0.11861028662208087
1.2247099571891198
-0.2518296156123282
-0.11861028662208087
1.2247099571891198
-0.2518296156123282
-0.11861028662208087
1.2247099571891198
-0.2511407891987525
-0.11857735740853192
1.2253112967181796
-0.2511407891987525
-0.11857735740853192
1.2253112967181796
-0.2511407891987525
-0.11857735740853192
1.2253112967181796
-0.2511407891987525
-0.11857735740853192
1.2253112967181796
-0.2516637089005321
-0.1181869516016812
1.2256362249124
-0.2516637089005321
-0.1181869516016812
1.2256362249124
-0.2516637089005321
-0.1181869516016812
1.2256362249124
-0.2516637089005321
-0.1181869516016812
1.2256362249124
-0.2507970648906616
-0.11817900660291195
1.2258559568920369
-0.2507970648906616
-0.11817900660291195
1.2258559568920369
-0.2507970648906616
-0.11817900660291195
1.2258559568920369
-0.2507970648906616
-0.11817900660291195
1.2258559568920369
-0.2509241413552777
-0.11852489630595922
1.226078854319841
-0.2509241413552777
-0.11852489630595922
1.226078854319841
-0.2509241413552777
-0.11852489630595922
1.226078854319841
-0.2509241413552777
-0.11852489630595922
1.226078854319841
-0.2511082815171988
-0.11898861798364417
1.2261486866088476
-0.2511082815171988
-0.11898861798364417
1.2261486866088476
-0.2511082815171988
-0.11898861798364417
1.2261486866088476
-0.2511082815171988
-0.11898861798364417
1.2261486866088476
-0.25007228345676796
-0.11940806064558308
1.2262402365302139
-0.25007228345676796
-0.11940806064558308
1.2262402365302139
-0.25007228345676796
-0.11940806064558308
1.2262402365302139
-0.25007228345676796
-0.11940806064558308
1.2262402365302139
-0.24959901777329419
-0.11910274674506818
1.226547179570348
-0.24959901777329419
-0.11910274674506818
1.226547179570348
-0.24959901777329419
-0.11910274674506818
1.226547179570348
-0.24959901777329419
-0.11910274674506818
1.226547179570348
-0.24949651074957574
-0.11870145073390345
1.2267632552947756
-0.24949651074957574
-0.11870145073390345
1.2267632552947756
-0.24949651074957574
-0.11870145073390345
1.2267632552947756
-0.24949651074957574
-0.11870145073390345
1.2267632552947756
-0.24950668605699744
-0.11821044125470474
1.2271463357257013
-0.24950668605699744
-0.11821044125470474
1.2271463357257013
-0.24950668605699744
-0.11821044125470474
1.2271463357257013
-0.24950668605699744
-0.11821044125470474
1.2271463357257013
-0.2488698346011346
-0.11836552080241582
1.2271275260426053
-0.2488698346011346
-0.11836552080241582
1.2271275260426053
-0.2488698346011346
-0.11836552080241582
1.2271275260426053
-0.2488698346011346
-0.11836552080241582
1.2271275260426053
-0.24922046005723228
-0.11838561727368242
1.227423912085908
-0.24922046005723228
-0.11838561727368242
1.227423912085908
-0.24922046005723228
-0.11838561727368242
1.227423912085908
-0.24922046005723228
-0.11838561727368242
1.227423912085908
-0.24922046005723228
-0.11838561727368242
1.227423912085908
-0.24922046005723228
-0.11838561727368242
1.227423912085908
-0.24922046005723228
-0.11838561727368242
1.227423912085908
-0.24922046005723228
-0.11838561727368242
1.227423912085908
-0.24922046005723228
-0.11838561727368242
1.227423912085908
-0.24922046005723228
-0.11838561727368242
1.227423912085908
-0.24922046005723228
-0.11838561727368242
1.227423912085908
-0.24922046005723228
-0.11838561727368242
1.227423912085908
-0.2487679328063455
-0.11841938696749198
1.2272294278373943
-0.2487679328063455
-0.11841938696749198
1.2272294278373943
-0.2487679328063455
-0.11841938696749198
1.2272294278373943
-0.2487679328063455
-0.11841938696749198
1.2272294278373943
-0.2487679328063455
-0.11841938696749198
1.2272294278373943
-0.2487679328063455
-0.11841938696749198
1.2272294278373943
-0.2487679328063455
-0.11841938696749198
1.2272294278373943
-0.2487679328063455
-0.11841938696749198
1.2272294278373943
-0.24750215055830962
-0.11809225630232294
1.2273149296130574
-0.24750215055830962
-0.11809225630232294
1.2273149296130574
-0.24750215055830962
-0.11809225630232294
1.2273149296130574
-0.24750215055830962
-0.11809225630232294
1.2273149296130574
-0.2480818519692483
-0.11781951597082368
1.2274870818673196
-0.2480818519692483
-0.11781951597082368
1.2274870818673196
-0.2480818519692483
-0.11781951597082368
1.2274870818673196
-0.2480818519692483
-0.11781951597082368
1.2274870818673196
-0.24999723361769366
-0.11751682650565298
1.2277041115764633
-0.24999723361769366
-0.11751682650565298
1.2277041115764633
-0.24999723361769366
-0.11751682650565298
1.2277041115764633
-0.24999723361769366
-0.11751682650565298
1.2277041115764633
-0.24864781453272394
-0.11756602102672568
1.2274891923644857
-0.24864781453272394
-0.11756602102672568
1.2274891923644857
-0.24864781453272394
-0.11756602102672568
1.2274891923644857
-0.24864781453272394
-0.11756602102672568
1.2274891923644857
-0.24864781453272394
-0.11756602102672568
1.2274891923644857
-0.24864781453272394
-0.11756602102672568
1.2274891923644857
-0.24864781453272394
-0.11756602102672568
1.2274891923644857
-0.24864781453272394
-0.11756602102672568
1.2274891923644857
-0.24975650747430223
-0.11739056080017236
1.227673823761611
-0.24975650747430223
-0.11739056080017236
1.227673823761611
-0.24975650747430223
-0.11739056080017236
1.227673823761611
-0.24975650747430223
-0.11739056080017236
1.227673823761611
-0.25029720395172983
-0.11732223152165565
1.227596208895828
-0.25029720395172983
-0.11732223152165565
1.227596208895828
-0.25029720395172983
-0.11732223152165565
1.227596208895828
-0.25029720395172983
-0.11732223152165565
1.227596208895828
-0.24944288229269626
-0.11760459904688836
1.227611795155004
-0.24944288229269626
-0.11760459904688836
1.227611795155004
-0.24944288229269626
-0.11760459904688836
1.227611795155004
-0.24944288229269626
-0.11760459904688836
1.227611795155004
-0.24944288229269626
-0.11760459904688836
1.227611795155004
-0.24944288229269626
-0.11760459904688836
1.227611795155004
-0.24944288229269626
-0.11760459904688836
1.227611795155004
-0.24944288229269626
-0.11760459904688836
1.227611795155004
-0.249780857860385
-0.11733518754253086
1.2281125549871734
-0.249780857860385
-0.11733518754253086
1.2281125549871734
-0.249780857860385
-0.11733518754253086
1.2281125549871734
-0.249780857860385
-0.11733518754253086
1.2281125549871734
-0.2503924149905204
-0.1173650463644682
1.2280515647193488
-0.2503924149905204
-0.1173650463644682
1.2280515647193488
-0.2503924149905204
-0.1173650463644682
1.2280515647193488
-0.2503924149905204
-0.1173650463644682
1.2280515647193488
-0.24997883038974844
-0.11719439981226586
1.2281066165044172
-0.24997883038974844
-0.11719439981226586
1.2281066165044172
-0.24997883038974844
-0.11719439981226586
1.2281066165044172
-0.24997883038974844
-0.11719439981226586
1.2281066165044172
-0.2494632981249571
-0.11707769961592873
1.2282636878428042
-0.2494632981249571
-0.11707769961592873
1.2282636878428042
-0.2494632981249571
-0.11707769961592873
1.2282636878428042
-0.2494632981249571
-0.11707769961592873
1.2282636878428042
-0.24808794959590807
-0.11744246183525217
1.2283286879493684
-0.24808794959590807
-0.11744246183525217
1.2283286879493684
-0.24808794959590807
-0.11744246183525217
1.2283286879493684
-0.24808794959590807
-0.11744246183525217
1.2283286879493684
-0.24753392482223424
-0.11811555288211693
1.2284808528284428
-0.24753392482223424
-0.11811555288211693
1.2284808528284428
-0.24753392482223424
-0.11811555288211693
1.2284808528284428
-0.24753392482223424
-0.11811555288211693
1.2284808528284428
-0.24763221399509014
-0.11817536004410904
1.2288372064300017
-0.24763221399509014
-0.11817536004410904
1.2288372064300017
-0.24763221399509014
-0.11817536004410904
1.2288372064300017
-0.24763221399509014
-0.11817536004410904
1.2288372064300017
-0.24665106351896302
-0.1186974061601027
1.2288741175867615
-0.24665106351896302
-0.1186974061601027
1.2288741175867615
-0.24665106351896302
-0.1186974061601027
1.2288741175867615
-0.24665106351896302
-0.1186974061601027
1.2288741175867615
-0.245530795782749
-0.11903920428433563
1.228778574884145
-0.245530795782749
-0.11903920428433563
1.228778574884145
-0.245530795782749
-0.11903920428433563
1.228778574884145
-0.245530795782749
-0.11903920428433563
1.228778574884145
-0.2448482831862454
-0.11891141211618649
1.228822699702029
-0.2448482831862454
-0.11891141211618649
1.228822699702029
-0.2448482831862454
-0.11891141211618649
1.228822699702029
-0.2448482831862454
-0.11891141211618649
1.228822699702029
-0.24498839296649685
-0.1187839167377676
1.2293298448673289
-0.24498839296649685
-0.1187839167377676
1.2293298448673289
-0.24498839296649685
-0.1187839167377676
1.2293298448673289
-0.24498839296649685
-0.1187839167377676
1.2293298448673289
-0.24508738476923247
-0.11871344848866279
1.229327110908358
-0.24508738476923247
-0.11871344848866279
1.229327110908358
-0.24508738476923247
-0.11871344848866279
1.229327110908358
-0.24508738476923247
-0.11871344848866279
1.229327110908358
-0.24508738476923247
-0.11871344848866279
1.229327110908358
-0.24508738476923247
-0.11871344848866279
1.229327110908358
-0.24508738476923247
-0.11871344848866279
1.229327110908358
-0.24508738476923247
-0.11871344848866279
1.229327110908358
-0.24427508366161121
-0.11880880959127328
1.229492188271154
-0.24427508366161121
-0.11880880959127328
1.229492188271154
-0.24427508366161121
-0.11880880959127328
1.229492188271154
-0.24427508366161121
-0.11880880959127328
1.229492188271154
-0.24369150302139483
-0.11861080264032203
1.2295337842246175
-0.24369150302139483
-0.11861080264032203
1.2295337842246175
-0.24369150302139483
-0.11861080264032203
1.2295337842246175
-0.24369150302139483
-0.11861080264032203
1.2295337842246175
-0.24369150302139483
-0.11861080264032203
1.2295337842246175
-0.24369150302139483
-0.11861080264032203
1.2295337842246175
-0.24369150302139483
-0.11861080264032203
1.2295337842246175
-0.24369150302139483
-0.11861080264032203
1.2295337842246175
-0.24432839281900065
-0.11845500564548377
1.229552971670437
-0.24432839281900065
-0.11845500564548377
1.229552971670437
-0.24432839281900065
-0.11845500564548377
1.229552971670437
-0.24432839281900065
-0.11845500564548377
1.229552971670437
-0.24245128881934244
-0.11868623104871591
1.2299431543145731
-0.24245128881934244
-0.11868623104871591
1.2299431543145731
-0.24245128881934244
-0.11868623104871591
1.2299431543145731
-0.24245128881934244
-0.11868623104871591
1.2299431543145731
-0.24208331832516689
-0.118799438143258
1.2299347873541882
-0.24208331832516689
-0.118799438143258
1.2299347873541882
-0.24208331832516689
-0.118799438143258
1.2299347873541882
-0.24208331832516689
-0.118799438143258
1.2299347873541882
-0.24484984313373254
-0.11819531803971496
1.2302382219444987
-0.24484984313373254
-0.11819531803971496
1.2302382219444987
-0.24484984313373254
-0.11819531803971496
1.2302382219444987
-0.24484984313373254
-0.11819531803971496
1.2302382219444987
-0.24501980390681788
-0.11822307327086852
1.23025185892881
-0.24501980390681788
-0.11822307327086852
1.23025185892881
-0.24501980390681788
-0.11822307327086852
1.23025185892881
-0.24501980390681788
-0.11822307327086852
1.23025185892881
-0.24142345055034187
-0.1184710528735659
1.230158340020937
-0.24142345055034187
-0.1184710528735659
1.230158340020937
-0.24142345055034187
-0.1184710528735659
1.230158340020937
-0.24142345055034187
-0.1184710528735659
1.230158340020937
-0.24138374692736228
-0.11880605617608209
1.2302670709640688
-0.24138374692736228
-0.11880605617608209
1.2302670709640688
-0.24138374692736228
-0.11880605617608209
1.2302670709640688
-0.24138374692736228
-0.11880605617608209
1.2302670709640688
-0.24207678284887596
-0.11902957135084778
1.2308505772346248
-0.24207678284887596
-0.11902957135084778
1.2308505772346248
-0.24207678284887596
-0.11902957135084778
1.2308505772346248
-0.24207678284887596
-0.11902957135084778
1.2308505772346248
-0.24306996801223957
-0.11892612398760583
1.230968339034396
-0.24306996801223957
-0.11892612398760583
1.230968339034396
-0.24306996801223957
-0.11892612398760583
1.230968339034396
-0.24306996801223957
-0.11892612398760583
1.230968339034396
-0.24187727654853733
-0.11871600955645381
1.2309717516754746
-0.24187727654853733
-0.11871600955645381
1.2309717516754746
-0.24187727654853733
-0.11871600955645381
1.2309717516754746
-0.24187727654853733
-0.11871600955645381
1.2309717516754746
-0.24201675337997874
-0.11889636393444795
1.2311032555736723
-0.24201675337997874
-0.11889636393444795
1.2311032555736723
-0.24201675337997874
-0.11889636393444795
1.2311032555736723
-0.24201675337997874
-0.11889636393444795
1.2311032555736723
-0.2437198969408495
-0.11888188607879062
1.231516649921217
-0.2437198969408495
-0.11888188607879062
1.231516649921217
-0.2437198969408495
-0.11888188607879062
1.231516649921217
-0.2437198969408495
-0.11888188607879062
1.231516649921217
-0.2427836490960775
-0.11923384061002122
1.2316042678806536
-0.2427836490960775
-0.11923384061002122
1.2316042678806536
-0.2427836490960775
-0.11923384061002122
1.2316042678806536
-0.2427836490960775
-0.11923384061002122
1.2316042678806536
-0.24390530111465006
-0.11934534100556872
1.2315848488701877
-0.24390530111465006
-0.11934534100556872
1.2315848488701877
-0.24390530111465006
-0.11934534100556872
1.2315848488701877
-0.24390530111465006
-0.11934534100556872
1.2315848488701877
-0.24358499015885743
-0.11889597040647966
1.23256990605628
-0.24358499015885743
-0.11889597040647966
1.23256990605628
-0.24358499015885743
-0.11889597040647966
1.23256990605628
-0.24358499015885743
-0.11889597040647966
1.23256990605628
-0.24070188022617245
-0.1191217077389261
1.232312821901361
-0.24070188022617245
-0.1191217077389261
1.232312821901361
-0.24129937861016218
-0.11930011874355075
1.2324411354674218
-0.24129937861016218
-0.11930011874355075
1.2324411354674218
-0.24129937861016218
-0.11930011874355075
1.2324411354674218
-0.24129937861016218
-0.11930011874355075
1.2324411354674218
-0.24156832897809058
-0.11925707370497517
1.232452189986756
-0.24156832897809058
-0.11925707370497517
1.232452189986756
-0.24156832897809058
-0.11925707370497517
1.232452189986756
-0.24156832897809058
-0.11925707370497517
1.232452189986756
-0.2408304732945692
-0.11933682195769572
1.2321752405846886
-0.2408304732945692
-0.11933682195769572
1.2321752405846886
-0.2408304732945692
-0.11933682195769572
1.2321752405846886
-0.2408304732945692
-0.11933682195769572
1.2321752405846886
-0.2408304732945692
-0.11933682195769572
1.2321752405846886
-0.2408304732945692
-0.11933682195769572
1.2321752405846886
-0.2408304732945692
-0.11933682195769572
1.2321752405846886
-0.2408304732945692
-0.11933682195769572
1.2321752405846886
-0.2404514736884839
-0.11948519424175257
1.2318977378395377
-0.2404514736884839
-0.11948519424175257
1.2318977378395377
-0.2404514736884839
-0.11948519424175257
1.2318977378395377
-0.2404514736884839
-0.11948519424175257
1.2318977378395377
-0.24306764658005098
-0.11975781067789054
1.232028694649318
-0.24306764658005098
-0.11975781067789054
1.232028694649318
-0.24306764658005098
-0.11975781067789054
1.232028694649318
-0.24306764658005098
-0.11975781067789054
1.232028694649318
-0.24094060404196027
-0.12022375502346387
1.2316435533637613
-0.24094060404196027
-0.12022375502346387
1.2316435533637613
-0.24094060404196027
-0.12022375502346387
1.2316435533637613
-0.24094060404196027
-0.12022375502346387
1.2316435533637613
-0.2408532315669425
-0.12012803763643233
1.2315561808887434
-0.2408532315669425
-0.12012803763643233
1.2315561808887434
-0.2408532315669425
-0.12012803763643233
1.2315561808887434
-0.2408532315669425
-0.12012803763643233
1.2315561808887434
-0.2408532315669425
-0.12012803763643233
1.2315561808887434
-0.2408532315669425
-0.12012803763643233
1.2315561808887434
-0.2408532315669425
-0.12012803763643233
1.2315561808887434
-0.2408532315669425
-0.12012803763643233
1.2315561808887434
-0.24198660852000706
-0.11989742258778904
1.2321820802154553
-0.24198660852000706
-0.11989742258778904
1.2321820802154553
-0.24198660852000706
-0.11989742258778904
1.2321820802154553
-0.24198660852000706
-0.11989742258778904
1.2321820802154553
-0.24191548376747368
-0.1197992137915174
1.2321657686819067
-0.24191548376747368
-0.1197992137915174
1.2321657686819067
-0.24191548376747368
-0.1197992137915174
1.2321657686819067
-0.24191548376747368
-0.1197992137915174
1.2321657686819067
-0.2436333101880341
-0.11950299270015864
1.232031805984615
-0.2436333101880341
-0.11950299270015864
1.232031805984615
-0.2436333101880341
-0.11950299270015864
1.232031805984615
-0.2436333101880341
-0.11950299270015864
1.232031805984615
-0.24219853338161654
-0.11960616771915336
1.2319879228276167
-0.24219853338161654
-0.11960616771915336
1.2319879228276167
-0.24219853338161654
-0.11960616771915336
1.2319879228276167
-0.24219853338161654
-0.11960616771915336
1.2319879228276167
-0.2424852911141643
-0.12014642048833145
1.2323133484387656
-0.2424852911141643
-0.12014642048833145
1.2323133484387656
-0.2424852911141643
-0.12014642048833145
1.2323133484387656
-0.2424852911141643
-0.12014642048833145
1.2323133484387656
-0.24109805254126215
-0.1209875452527635
1.2320889972995364
-0.24109805254126215
-0.1209875452527635
1.2320889972995364
-0.24109805254126215
-0.1209875452527635
1.2320889972995364
-0.24109805254126215
-0.1209875452527635
1.2320889972995364
-0.24203852480802396
-0.12110610606828373
1.2317876403554688
-0.24203852480802396
-0.12110610606828373
1.2317876403554688
-0.24203852480802396
-0.12110610606828373
1.2317876403554688
-0.24203852480802396
-0.12110610606828373
1.2317876403554688
-0.2423380871803719
-0.12077931545784104
1.2313220647793737
-0.2423380871803719
-0.12077931545784104
1.2313220647793737
-0.2423380871803719
-0.12077931545784104
1.2313220647793737
-0.2423380871803719
-0.12077931545784104
1.2313220647793737
-0.24303042257669646
-0.12041641138907347
1.231663060784569
-0.24303042257669646
-0.12041641138907347
1.231663060784569
-0.24303042257669646
-0.12041641138907347
1.231663060784569
-0.24303042257669646
-0.12041641138907347
1.231663060784569
-0.24217796895083052
-0.1201307812757827
1.2313341291949897
-0.24217796895083052
-0.1201307812757827
1.2313341291949897
-0.24217796895083052
-0.1201307812757827
1.2313341291949897
-0.24217796895083052
-0.1201307812757827
1.2313341291949897
-0.2438955594724332
-0.11996622034031777
1.231559533639739
-0.2438955594724332
-0.11996622034031777
1.231559533639739
-0.2438955594724332
-0.11996622034031777
1.231559533639739
-0.2438955594724332
-0.11996622034031777
1.231559533639739
-0.24267656830526813
-0.1203799772650726
1.2314654569721728
-0.24267656830526813
-0.1203799772650726
1.2314654569721728
-0.24267656830526813
-0.1203799772650726
1.2314654569721728
-0.24267656830526813
-0.1203799772650726
1.2314654569721728
-0.24211074809151995
-0.12063466357486487
1.2314619488575849
-0.24211074809151995
-0.12063466357486487
1.2314619488575849
-0.24211074809151995
-0.12063466357486487
1.2314619488575849
-0.24211074809151995
-0.12063466357486487
1.2314619488575849
-0.24211074809151995
-0.12063466357486487
1.2314619488575849
-0.24211074809151995
-0.12063466357486487
1.2314619488575849
-0.24211074809151995
-0.12063466357486487
1.2314619488575849
-0.24211074809151995
-0.12063466357486487
1.2314619488575849
-0.24366987937632456
-0.12027618172804755
1.2315838650183732
-0.24366987937632456
-0.12027618172804755
1.2315838650183732
-0.24366987937632456
-0.12027618172804755
1.2315838650183732
-0.24366987937632456
-0.12027618172804755
1.2315838650183732
-0.2442768846565265
-0.11996460062223685
1.232097117124154
-0.2442768846565265
-0.11996460062223685
1.232097117124154
-0.2442768846565265
-0.11996460062223685
1.232097117124154
-0.2442768846565265
-0.11996460062223685
1.232097117124154
-0.24302580828943923
-0.12007657822903371
1.2322367228152633
-0.24302580828943923
-0.12007657822903371
1.2322367228152633
-0.24302580828943923
-0.12007657822903371
1.2322367228152633
-0.24302580828943923
-0.12007657822903371
1.2322367228152633
-0.24354968049714246
-0.12014040362914426
1.2324480353144978
-0.24354968049714246
-0.12014040362914426
1.2324480353144978
-0.24354968049714246
-0.12014040362914426
1.2324480353144978
-0.24354968049714246
-0.12014040362914426
1.2324480353144978
-0.24481179810830186
-0.11999298442134207
1.2325773443275803
-0.24481179810830186
-0.11999298442134207
1.2325773443275803
-0.24481179810830186
-0.11999298442134207
1.2325773443275803
-0.24481179810830186
-0.11999298442134207
1.2325773443275803
-0.24584642670109122
-0.11970062993846675
1.2328461968884519
-0.24584642670109122
-0.11970062993846675
1.2328461968884519
-0.24584642670109122
-0.11970062993846675
1.2328461968884519
-0.24584642670109122
-0.11970062993846675
1.2328461968884519
-0.24488078236707506
-0.11976712874921988
1.2330682636528718
-0.24488078236707506
-0.11976712874921988
1.2330682636528718
-0.24488078236707506
-0.11976712874921988
1.2330682636528718
-0.24488078236707506
-0.11976712874921988
1.2330682636528718
-0.2412628597776652
-0.12124560945737009
1.2330185957583728
-0.2412628597776652
-0.12124560945737009
1.2330185957583728
-0.2412628597776652
-0.12124560945737009
1.2330185957583728
-0.2412628597776652
-0.12124560945737009
1.2330185957583728
-0.24048619684590236
-0.12380905632682367
1.2326355158396465
-0.24048619684590236
-0.12380905632682367
1.2326355158396465
-0.24048619684590236
-0.12380905632682367
1.2326355158396465
-0.24048619684590236
-0.12380905632682367
1.2326355158396465
-0.24636856930292508
-0.12572296374911043
1.2327472140315776
-0.24636856930292508
-0.12572296374911043
1.2327472140315776
-0.24636856930292508
-0.12572296374911043
1.2327472140315776
-0.24636856930292508
-0.12572296374911043
1.2327472140315776
-0.25291214904323134
-0.1262705970684211
1.2327388338416607
-0.25291214904323134
-0.1262705970684211
1.2327388338416607
-0.25291214904323134
-0.1262705970684211
1.2327388338416607
-0.25291214904323134
-0.1262705970684211
1.2327388338416607
-0.25770079100010346
-0.12744875186977817
1.2329756926115236
-0.25770079100010346
-0.12744875186977817
1.2329756926115236
-0.25770079100010346
-0.12744875186977817
1.2329756926115236
-0.25770079100010346
-0.12744875186977817
1.2329756926115236
-0.2612175506082728
-0.1271130815182241
1.231046413235588
-0.2612175506082728
-0.1271130815182241
1.231046413235588
-0.2612175506082728
-0.1271130815182241
1.231046413235588
-0.2612175506082728
-0.1271130815182241
1.231046413235588
-0.2647923764345318
-0.1281410594794204
1.227147368721143
-0.2647923764345318
-0.1281410594794204
1.227147368721143
-0.2647923764345318
-0.1281410594794204
1.227147368721143
-0.2647923764345318
-0.1281410594794204
1.227147368721143
-0.2701198968687096
-0.12914075144989562
1.2251097630778371
-0.2701198968687096
-0.12914075144989562
1.2251097630778371
-0.2701198968687096
-0.12914075144989562
1.2251097630778371
-0.2701198968687096
-0.12914075144989562
1.2251097630778371
-0.27256120607822937
-0.13037957196369643
1.224557938719761
-0.27256120607822937
-0.13037957196369643
1.224557938719761
-0.27256120607822937
-0.13037957196369643
1.224557938719761
-0.27256120607822937
-0.13037957196369643
1.224557938719761
-0.2708709351061963
-0.13130289948370308
1.223986736477091
-0.2708709351061963
-0.13130289948370308
1.223986736477091
-0.2708709351061963
-0.13130289948370308
1.223986736477091
-0.2708709351061963
-0.13130289948370308
1.223986736477091
-0.2687680375657135
-0.13079695782487152
1.2224038721945252
-0.2687680375657135
-0.13079695782487152
1.2224038721945252
-0.2687680375657135
-0.13079695782487152
1.2224038721945252
-0.2687680375657135
-0.13079695782487152
1.2224038721945252
-0.26996297582101286
-0.1303384170071731
1.221600887746014
-0.26996297582101286
-0.1303384170071731
1.221600887746014
-0.26996297582101286
-0.1303384170071731
1.221600887746014
-0.26996297582101286
-0.1303384170071731
1.221600887746014
-0.27293196878088716
-0.12901911553507106
1.221654387794094
-0.27293196878088716
-0.12901911553507106
1.221654387794094
-0.27293196878088716
-0.12901911553507106
1.221654387794094
-0.27293196878088716
-0.12901911553507106
1.221654387794094
-0.2724758658437476
-0.1282319401658068
1.222234540574122
-0.2724758658437476
-0.1282319401658068
1.222234540574122
-0.2724758658437476
-0.1282319401658068
1.222234540574122
-0.2724758658437476
-0.1282319401658068
1.222234540574122
-0.2698682750807426
-0.1274360605172045
1.2225658090231226
-0.2698682750807426
-0.1274360605172045
1.2225658090231226
-0.2698682750807426
-0.1274360605172045
1.2225658090231226
-0.2698682750807426
-0.1274360605172045
1.2225658090231226
-0.2685593943772936
-0.1267119369374129
1.2222426486767977
-0.2685593943772936
-0.1267119369374129
1.2222426486767977
-0.2685593943772936
-0.1267119369374129
1.2222426486767977
-0.2685593943772936
-0.1267119369374129
1.2222426486767977
-0.2667513427829736
-0.12561036220871635
1.2214244856707535
-0.2667513427829736
-0.12561036220871635
1.2214244856707535
-0.2667513427829736
-0.12561036220871635
1.2214244856707535
-0.2667513427829736
-0.12561036220871635
1.2214244856707535
-0.2633376436618764
-0.12422902894294073
1.2211176774344008
-0.2633376436618764
-0.12422902894294073
1.2211176774344008
-0.2633376436618764
-0.12422902894294073
1.2211176774344008
-0.2633376436618764
-0.12422902894294073
1.2211176774344008
-0.2621897179547661
-0.12338962114082747
1.2224014422041583
-0.2621897179547661
-0.12338962114082747
1.2224014422041583
-0.2621897179547661
-0.12338962114082747
1.2224014422041583
-0.2621897179547661
-0.12338962114082747
1.2224014422041583
-0.2607921146960733
-0.12306357094257302
1.2235347464175095
-0.2607921146960733
-0.12306357094257302
1.2235347464175095
-0.2607921146960733
-0.12306357094257302
1.2235347464175095
-0.2607921146960733
-0.12306357094257302
1.2235347464175095
-0.2595380829754112
-0.12198441408038549
1.223276323525884
-0.2595380829754112
-0.12198441408038549
1.223276323525884
-0.2595380829754112
-0.12198441408038549
1.223276323525884
-0.2595380829754112
-0.12198441408038549
1.223276323525884
-0.2595388264060719
-0.12094507202206763
1.2231402397003486
-0.2595388264060719
-0.12094507202206763
1.2231402397003486
-0.2595388264060719
-0.12094507202206763
1.2231402397003486
-0.2595388264060719
-0.12094507202206763
1.2231402397003486
-0.2595895009329192
-0.12024637093117513
1.223769482813421
-0.2595895009329192
-0.12024637093117513
1.223769482813421
-0.2595895009329192
-0.12024637093117513
1.223769482813421
-0.2595895009329192
-0.12024637093117513
1.223769482813421
-0.2571766817976623
-0.11942598931098508
1.2245687176923226
-0.2571766817976623
-0.11942598931098508
1.2245687176923226
-0.2571766817976623
-0.11942598931098508
1.2245687176923226
-0.2571766817976623
-0.11942598931098508
1.2245687176923226
-0.25309793075692427
-0.11895594126009817
1.2245264073387232
-0.25309793075692427
-0.11895594126009817
1.2245264073387232
-0.25309793075692427
-0.11895594126009817
1.2245264073387232
-0.25309793075692427
-0.11895594126009817
1.2245264073387232
-0.24977384517645748
-0.11799866902012209
1.2238544224889423
-0.24977384517645748
-0.11799866902012209
1.2238544224889423
-0.24977384517645748
-0.11799866902012209
1.2238544224889423
-0.24977384517645748
-0.11799866902012209
1.2238544224889423
-0.2485365433811502
-0.1163140490663228
1.2235303707715723
-0.2485365433811502
-0.1163140490663228
1.2235303707715723
-0.2485365433811502
-0.1163140490663228
1.2235303707715723
-0.2485365433811502
-0.1163140490663228
1.2235303707715723
-0.24889102408113561
-0.11576626901617863
1.223482580544094
-0.24889102408113561
-0.11576626901617863
1.223482580544094
-0.24889102408113561
-0.11576626901617863
1.223482580544094
-0.24889102408113561
-0.11576626901617863
1.223482580544094
-0.25024155040027807
-0.11513479083947754
1.2234510257174382
-0.25024155040027807
-0.11513479083947754
1.2234510257174382
-0.25024155040027807
-0.11513479083947754
1.2234510257174382
-0.25024155040027807
-0.11513479083947754
1.2234510257174382
-0.2511707371018653
-0.1139729461103554
1.2241453908606208
-0.2511707371018653
-0.1139729461103554
1.2241453908606208
-0.2511707371018653
-0.1139729461103554
1.2241453908606208
-0.2511707371018653
-0.1139729461103554
1.2241453908606208
-0.2484675725576697
-0.11326995120647397
1.2244074402678862
-0.2484675725576697
-0.11326995120647397
1.2244074402678862
-0.2484675725576697
-0.11326995120647397
1.2244074402678862
-0.2484675725576697
-0.11326995120647397
1.2244074402678862
-0.24457045859163465
-0.11305348674079868
1.2233619937152345
-0.24457045859163465
-0.11305348674079868
1.2233619937152345
-0.24457045859163465
-0.11305348674079868
1.2233619937152345
-0.24457045859163465
-0.11305348674079868
1.2233619937152345
-0.24271384268766075
-0.11182635879651287
1.2227238403103107
-0.24271384268766075
-0.11182635879651287
1.2227238403103107
-0.24271384268766075
-0.11182635879651287
1.2227238403103107
-0.24271384268766075
-0.11182635879651287
1.2227238403103107
-0.24305210452864967
-0.10991673990491746
1.2229531242820515
-0.24305210452864967
-0.10991673990491746
1.2229531242820515
-0.24305210452864967
-0.10991673990491746
1.2229531242820515
-0.24305210452864967
-0.10991673990491746
1.2229531242820515
-0.24328878256480257
-0.10872692987751702
1.2242536867974647
-0.24328878256480257
-0.10872692987751702
1.2242536867974647
-0.24328878256480257
-0.10872692987751702
1.2242536867974647
-0.24328878256480257
-0.10872692987751702
1.2242536867974647
-0.24287644634316097
-0.10712422044300685
1.2251251306517499
-0.24287644634316097
-0.10712422044300685
1.2251251306517499
-0.24287644634316097
-0.10712422044300685
1.2251251306517499
-0.24287644634316097
-0.10712422044300685
1.2251251306517499
-0.23966990294735474
-0.10562110860289642
1.2247612024912387
-0.23966990294735474
-0.10562110860289642
1.2247612024912387
-0.23966990294735474
-0.10562110860289642
1.2247612024912387
-0.23966990294735474
-0.10562110860289642
1.2247612024912387
-0.23710563194299433
-0.10503534037448221
1.2243434064179848
-0.23710563194299433
-0.10503534037448221
1.2243434064179848
-0.23710563194299433
-0.10503534037448221
1.2243434064179848
-0.23710563194299433
-0.10503534037448221
1.2243434064179848
-0.23421085976437095
-0.10442594457066472
1.2249966043878882
-0.23421085976437095
-0.10442594457066472
1.2249966043878882
-0.23421085976437095
-0.10442594457066472
1.2249966043878882
-0.23421085976437095
-0.10442594457066472
1.2249966043878882
-0.23135285575168707
-0.10376426486171206
1.2261608281684722
-0.23135285575168707
-0.10376426486171206
1.2261608281684722
-0.23135285575168707
-0.10376426486171206
1.2261608281684722
-0.23135285575168707
-0.10376426486171206
1.2261608281684722
-0.2303780842545729
-0.10334406291431227
1.2267064319802048
-0.2303780842545729
-0.10334406291431227
1.2267064319802048
-0.2303780842545729
-0.10334406291431227
1.2267064319802048
-0.2303780842545729
-0.10334406291431227
1.2267064319802048
-0.23012410801519156
-0.10241119329377549
1.2274720874164848
-0.23012410801519156
-0.10241119329377549
1.2274720874164848
-0.23012410801519156
-0.10241119329377549
1.2274720874164848
-0.23012410801519156
-0.10241119329377549
1.2274720874164848
-0.22863501351900162
-0.10204046284575884
1.2283400952760841
-0.22863501351900162
-0.10204046284575884
1.2283400952760841
-0.22863501351900162
-0.10204046284575884
1.2283400952760841
-0.22863501351900162
-0.10204046284575884
1.2283400952760841
-0.22554310334284794
-0.10203469597840988
1.2288860608460919
-0.22554310334284794
-0.10203469597840988
1.2288860608460919
-0.22554310334284794
-0.10203469597840988
1.2288860608460919
-0.22554310334284794
-0.10203469597840988
1.2288860608460919
-0.22413864554196195
-0.10220210188416641
1.2298199731412032
-0.22413864554196195
-0.10220210188416641
1.2298199731412032
-0.22413864554196195
-0.10220210188416641
1.2298199731412032
-0.22413864554196195
-0.10220210188416641
1.2298199731412032
-0.22277419019108946
-0.10262372565614686
1.2308849829291666
-0.22277419019108946
-0.10262372565614686
1.2308849829291666
-0.22277419019108946
-0.10262372565614686
1.2308849829291666
-0.22277419019108946
-0.10262372565614686
1.2308849829291666
-0.2220432638616178
-0.1029521586790214
1.2314982695643344
-0.2220432638616178
-0.1029521586790214
1.2314982695643344
-0.2220432638616178
-0.1029521586790214
1.2314982695643344
-0.2220432638616178
-0.1029521586790214
1.2314982695643344
-0.221944235056531
-0.10302270405891342
1.2315009857190011
-0.221944235056531
-0.10302270405891342
1.2315009857190011
-0.221944235056531
-0.10302270405891342
1.2315009857190011
-0.221944235056531
-0.10302270405891342
1.2315009857190011
-0.221944235056531
-0.10302270405891342
1.2315009857190011
-0.221944235056531
-0.10302270405891342
1.2315009857190011
-0.221944235056531
-0.10302270405891342
1.2315009857190011
-0.221944235056531
-0.10302270405891342
1.2315009857190011
-0.22187059829666717
-0.10290957701555488
1.2315853095294158
-0.22187059829666717
-0.10290957701555488
1.2315853095294158
-0.22187059829666717
-0.10290957701555488
1.2315853095294158
-0.22187059829666717
-0.10290957701555488
1.2315853095294158
-0.22162837026417442
-0.10337147761769347
1.2317954705758127
-0.22162837026417442
-0.10337147761769347
1.2317954705758127
-0.22162837026417442
-0.10337147761769347
1.2317954705758127
-0.22162837026417442
-0.10337147761769347
1.2317954705758127
-0.2216150853789015
-0.10397712434195718
1.2318623402337496
-0.2216150853789015
-0.10397712434195718
1.2318623402337496
-0.2216150853789015
-0.10397712434195718
1.2318623402337496
-0.2216150853789015
-0.10397712434195718
1.2318623402337496
-0.22171410481303594
-0.10390655904548271
1.231859680540178
-0.22171410481303594
-0.10390655904548271
1.231859680540178
-0.22171410481303594
-0.10390655904548271
1.231859680540178
-0.22171410481303594
-0.10390655904548271
1.231859680540178
-0.22129790522041667
-0.10372298062570384
1.2320188941660604
-0.22129790522041667
-0.10372298062570384
1.2320188941660604
-0.22129790522041667
-0.10372298062570384
1.2320188941660604
-0.22129790522041667
-0.10372298062570384
1.2320188941660604
-0.21999322515106265
-0.10418925525659956
1.2321027522540084
-0.21999322515106265
-0.10418925525659956
1.2321027522540084
-0.21999322515106265
-0.10418925525659956
1.2321027522540084
-0.21999322515106265
-0.10418925525659956
1.2321027522540084
-0.21949809862186057
-0.10454215932806882
1.2321156140754501
-0.21949809862186057
-0.10454215932806882
1.2321156140754501
-0.21949809862186057
-0.10454215932806882
1.2321156140754501
-0.21949809862186057
-0.10454215932806882
1.2321156140754501
-0.21971101490553607
-0.10483761243318813
1.2321595653174908
-0.21971101490553607
-0.10483761243318813
1.2321595653174908
-0.21971101490553607
-0.10483761243318813
1.2321595653174908
-0.21971101490553607
-0.10483761243318813
1.2321595653174908
-0.220720215413969
-0.10518607977513197
1.232221580032059
-0.220720215413969
-0.10518607977513197
1.232221580032059
-0.220720215413969
-0.10518607977513197
1.232221580032059
-0.220720215413969
-0.10518607977513197
1.232221580032059
-0.22111791747492013
-0.10550680394221183
1.2323489581499798
-0.22111791747492013
-0.10550680394221183
1.2323489581499798
-0.22111791747492013
-0.10550680394221183
1.2323489581499798
-0.22111791747492013
-0.10550680394221183
1.2323489581499798
-0.22024003154979782
-0.1059756345835424
1.2322835332601985
-0.22024003154979782
-0.1059756345835424
1.2322835332601985
-0.22024003154979782
-0.1059756345835424
1.2322835332601985
-0.22024003154979782
-0.1059756345835424
1.2322835332601985
-0.22058006144998346
-0.10603137368215927
1.2323079774436194
-0.22058006144998346
-0.10603137368215927
1.2323079774436194
-0.22058006144998346
-0.10603137368215927
1.2323079774436194
-0.22058006144998346
-0.10603137368215927
1.2323079774436194
-0.2218961515162508
-0.10613595597705817
1.2326321174375927
-0.2218961515162508
-0.10613595597705817
1.2326321174375927
-0.2218961515162508
-0.10613595597705817
1.2326321174375927
-0.2218961515162508
-0.10613595597705817
1.2326321174375927
-0.221797154357258
-0.10620656564007103
1.232634678567081
-0.221797154357258
-0.10620656564007103
1.232634678567081
-0.221797154357258
-0.10620656564007103
1.232634678567081
-0.221797154357258
-0.10620656564007103
1.232634678567081
-0.221797154357258
-0.10620656564007103
1.232634678567081
-0.221797154357258
-0.10620656564007103
1.232634678567081
-0.221797154357258
-0.10620656564007103
1.232634678567081
-0.221797154357258
-0.10620656564007103
1.232634678567081
-0.2218750034614474
-0.10581917303942619
1.2330389268542674
-0.2218750034614474
-0.10581917303942619
1.2330389268542674
-0.2218750034614474
-0.10581917303942619
1.2330389268542674
-0.2218750034614474
-0.10581917303942619
1.2330389268542674
-0.2218750034614474
-0.10581917303942619
1.2330389268542674
-0.2218750034614474
-0.10581917303942619
1.2330389268542674
-0.2218750034614474
-0.10581917303942619
1.2330389268542674
-0.2218750034614474
-0.10581917303942619
1.2330389268542674
-0.22198878985699322
-0.10574596913666903
1.2331073687052727
-0.22198878985699322
-0.10574596913666903
1.2331073687052727
-0.22198878985699322
-0.10574596913666903
1.2331073687052727
-0.22198878985699322
-0.10574596913666903
1.2331073687052727
-0.22198878985699322
-0.10574596913666903
1.2331073687052727
-0.22198878985699322
-0.10574596913666903
1.2331073687052727
-0.22198878985699322
-0.10574596913666903
1.2331073687052727
-0.22198878985699322
-0.10574596913666903
1.2331073687052727
-0.22264752632112295
-0.10554018934227317
1.233562947099323
-0.22264752632112295
-0.10554018934227317
1.233562947099323
-0.22264752632112295
-0.10554018934227317
1.233562947099323
-0.22264752632112295
-0.10554018934227317
1.233562947099323
-0.22364532287289787
-0.10553849342140656
1.2343013547088064
-0.22364532287289787
-0.10553849342140656
1.2343013547088064
-0.22364532287289787
-0.10553849342140656
1.2343013547088064
-0.22364532287289787
-0.10553849342140656
1.2343013547088064
-0.22281431801975418
-0.10533577160303384
1.2347782534206344
-0.22281431801975418
-0.10533577160303384
1.2347782534206344
-0.22281431801975418
-0.10533577160303384
1.2347782534206344
-0.22281431801975418
-0.10533577160303384
1.2347782534206344
-0.2216310081859012
-0.10509548828004195
1.2350610074431176
-0.2216310081859012
-0.10509548828004195
1.2350610074431176
-0.2216310081859012
-0.10509548828004195
1.2350610074431176
-0.2216310081859012
-0.10509548828004195
1.2350610074431176
-0.22096730221458802
-0.10431809043794368
1.2354125395487838
-0.22096730221458802
-0.10431809043794368
1.2354125395487838
-0.22096730221458802
-0.10431809043794368
1.2354125395487838
-0.22096730221458802
-0.10431809043794368
1.2354125395487838
-0.22176312057146397
-0.10400376883575534
1.2362761136445755
-0.22176312057146397
-0.10400376883575534
1.2362761136445755
-0.22176312057146397
-0.10400376883575534
1.2362761136445755
-0.22176312057146397
-0.10400376883575534
1.2362761136445755
-0.22234628784842983
-0.10383310978305156
1.2370737377332381
-0.22234628784842983
-0.10383310978305156
1.2370737377332381
-0.22234628784842983
-0.10383310978305156
1.2370737377332381
-0.22234628784842983
-0.10383310978305156
1.2370737377332381
-0.2218400181918682
-0.10368940625352728
1.237504212538077
-0.2218400181918682
-0.10368940625352728
1.237504212538077
-0.2218400181918682
-0.10368940625352728
1.237504212538077
-0.2218400181918682
-0.10368940625352728
1.237504212538077
-0.2217687970957961
-0.10359112274979541
1.237489499018562
-0.2217687970957961
-0.10359112274979541
1.237489499018562
-0.2217687970957961
-0.10359112274979541
1.237489499018562
-0.2217687970957961
-0.10359112274979541
1.237489499018562
-0.2217687970957961
-0.10359112274979541
1.237489499018562
-0.2217687970957961
-0.10359112274979541
1.237489499018562
-0.2217687970957961
-0.10359112274979541
1.237489499018562
-0.2217687970957961
-0.10359112274979541
1.237489499018562
-0.22169757725941433
-0.10349283693220963
1.2374747924966112
-0.22169757725941433
-0.10349283693220963
1.2374747924966112
-0.22169757725941433
-0.10349283693220963
1.2374747924966112
-0.22169757725941433
-0.10349283693220963
1.2374747924966112
-0.22169757725941433
-0.10349283693220963
1.2374747924966112
-0.22169757725941433
-0.10349283693220963
1.2374747924966112
-0.22169757725941433
-0.10349283693220963
1.2374747924966112
-0.22169757725941433
-0.10349283693220963
1.2374747924966112
-0.222231649037639
-0.1035404152178233
1.23785081158158
-0.222231649037639
-0.1035404152178233
1.23785081158158
-0.222231649037639
-0.1035404152178233
1.23785081158158
-0.222231649037639
-0.1035404152178233
1.23785081158158
-0.22380352098440548
-0.1037639724687386
1.2382713948427573
-0.22380352098440548
-0.1037639724687386
1.2382713948427573
-0.22380352098440548
-0.1037639724687386
1.2382713948427573
-0.22380352098440548
-0.1037639724687386
1.2382713948427573
-0.2237237524118998
-0.10428608234645526
1.2382254207935337
-0.2237237524118998
-0.10428608234645526
1.2382254207935337
-0.2237237524118998
-0.10428608234645526
1.2382254207935337
-0.2237237524118998
-0.10428608234645526
1.2382254207935337
-0.22232241030291452
-0.1046781298130929
1.2380536801976922
-0.22232241030291452
-0.1046781298130929
1.2380536801976922
-0.22232241030291452
-0.1046781298130929
1.2380536801976922
-0.22232241030291452
-0.1046781298130929
1.2380536801976922
-0.2222081812686827
-0.10490076873070565
1.23824389138926
-0.2222081812686827
-0.10490076873070565
1.23824389138926
-0.2222081812686827
-0.10490076873070565
1.23824389138926
-0.2222081812686827
-0.10490076873070565
1.23824389138926
-0.22363248933893837
-0.104898071743833
1.238833417838511
-0.22363248933893837
-0.104898071743833
1.238833417838511
-0.22363248933893837
-0.104898071743833
1.238833417838511
-0.22363248933893837
-0.104898071743833
1.238833417838511
-0.22496075324565268
-0.1049803052714499
1.239326956270551
-0.22496075324565268
-0.1049803052714499
1.239326956270551
-0.22496075324565268
-0.1049803052714499
1.239326956270551
-0.22496075324565268
-0.1049803052714499
1.239326956270551
-0.22426247413555386
-0.10500804294563798
1.2395648914140622
-0.22426247413555386
-0.10500804294563798
1.2395648914140622
-0.22426247413555386
-0.10500804294563798
1.2395648914140622
-0.22426247413555386
-0.10500804294563798
1.2395648914140622
-0.22330290579157838
-0.1053993794602824
1.239315584099158
-0.22330290579157838
-0.1053993794602824
1.239315584099158
-0.22330290579157838
-0.1053993794602824
1.239315584099158
-0.22330290579157838
-0.1053993794602824
1.239315584099158
-0.2237731914343723
-0.10581671804379116
1.2394585636462576
-0.2237731914343723
-0.10581671804379116
1.2394585636462576
-0.2237731914343723
-0.10581671804379116
1.2394585636462576
-0.2237731914343723
-0.10581671804379116
1.2394585636462576
-0.22381982443864074
-0.10609884761006132
1.2393923023007978
-0.22381982443864074
-0.10609884761006132
1.2393923023007978
-0.22381982443864074
-0.10609884761006132
1.2393923023007978
-0.22381982443864074
-0.10609884761006132
1.2393923023007978
-0.22431761621841292
-0.10634702632867724
1.2395179448934432
-0.22431761621841292
-0.10634702632867724
1.2395179448934432
-0.22431761621841292
-0.10634702632867724
1.2395179448934432
-0.22431761621841292
-0.10634702632867724
1.2395179448934432
-0.22441635490668707
-0.10627607773765164
1.2395152496994706
-0.22441635490668707
-0.10627607773765164
1.2395152496994706
-0.22441635490668707
-0.10627607773765164
1.2395152496994706
-0.22441635490668707
-0.10627607773765164
1.2395152496994706
-0.22368810599533995
-0.1064582874185372
1.239869062185904
-0.22368810599533995
-0.1064582874185372
1.239869062185904
-0.22368810599533995
-0.1064582874185372
1.239869062185904
-0.22368810599533995
-0.1064582874185372
1.239869062185904
-0.22351800522886336
-0.10643108123499392
1.2398568235881846
-0.22351800522886336
-0.10643108123499392
1.2398568235881846
-0.22351800522886336
-0.10643108123499392
1.2398568235881846
-0.22351800522886336
-0.10643108123499392
1.2398568235881846
-0.22425022067256117
-0.10633571721657015
1.2402283736536241
-0.22425022067256117
-0.10633571721657015
1.2402283736536241
-0.22425022067256117
-0.10633571721657015
1.2402283736536241
-0.22425022067256117
-0.10633571721657015
1.2402283736536241
-0.22461489286149233
-0.10635494513522593
1.2405930458425554
-0.22461489286149233
-0.10635494513522593
1.2405930458425554
-0.22461489286149233
-0.10635494513522593
1.2405930458425554
-0.22461489286149233
-0.10635494513522593
1.2405930458425554
-0.22471358964628854
-0.10628394511597083
1.2405903324350578
-0.22471358964628854
-0.10628394511597083
1.2405903324350578
-0.22471358964628854
-0.10628394511597083
1.2405903324350578
-0.22471358964628854
-0.10628394511597083
1.2405903324350578
-0.22590626346824072
-0.10612102052673245
1.2414223027432283
-0.22590626346824072
-0.10612102052673245
1.2414223027432283
-0.22590626346824072
-0.10612102052673245
1.2414223027432283
-0.22590626346824072
-0.10612102052673245
1.2414223027432283
-0.2262776614672484
-0.10624080435608801
1.2424136809740922
-0.2262776614672484
-0.10624080435608801
1.2424136809740922
-0.2262776614672484
-0.10624080435608801
1.2424136809740922
-0.2262776614672484
-0.10624080435608801
1.2424136809740922
-0.22558900717763394
-0.10623692150099288
1.2429199968254019
-0.22558900717763394
-0.10623692150099288
1.2429199968254019
-0.22558900717763394
-0.10623692150099288
1.2429199968254019
-0.22558900717763394
-0.10623692150099288
1.2429199968254019
-0.226873394715337
-0.10604880274323668
1.2433816548880907
-0.226873394715337
-0.10604880274323668
1.2433816548880907
-0.226873394715337
-0.10604880274323668
1.2433816548880907
-0.226873394715337
-0.10604880274323668
1.2433816548880907
-0.2282209804840053
-0.10548888263207783
1.2440757371706739
-0.2282209804840053
-0.10548888263207783
1.2440757371706739
-0.2282209804840053
-0.10548888263207783
1.2440757371706739
-0.2282209804840053
-0.10548888263207783
1.2440757371706739
-0.22790221197048388
-0.10538448591041058
1.2444901341409984
-0.22790221197048388
-0.10538448591041058
1.2444901341409984
-0.22790221197048388
-0.10538448591041058
1.2444901341409984
-0.22790221197048388
-0.10538448591041058
1.2444901341409984
-0.2296280602726764
-0.10576451176014587
1.2452119922892602
-0.2296280602726764
-0.10576451176014587
1.2452119922892602
-0.2296280602726764
-0.10576451176014587
1.2452119922892602
-0.2296280602726764
-0.10576451176014587
1.2452119922892602
-0.2306381510988914
-0.10573636488525183
1.2461206371937796
-0.2306381510988914
-0.10573636488525183
1.2461206371937796
-0.2306381510988914
-0.10573636488525183
1.2461206371937796
-0.2306381510988914
-0.10573636488525183
1.2461206371937796
-0.2300392398875117
-0.10626676603360495
1.246693803857641
-0.2300392398875117
-0.10626676603360495
1.246693803857641
-0.2300392398875117
-0.10626676603360495
1.246693803857641
-0.2300392398875117
-0.10626676603360495
1.246693803857641
-0.23104956528398377
-0.10623769686144828
1.2476027370533347
-0.23104956528398377
-0.10623769686144828
1.2476027370533347
-0.23104956528398377
-0.10623769686144828
1.2476027370533347
-0.23104956528398377
-0.10623769686144828
1.2476027370533347
-0.2323447438395026
-0.10622843605804635
1.2494164638777288
-0.2323447438395026
-0.10622843605804635
1.2494164638777288
-0.2323447438395026
-0.10622843605804635
1.2494164638777288
-0.2323447438395026
-0.10622843605804635
1.2494164638777288
-0.23175982780405233
-0.10568137421838042
1.2502080945705631
-0.23175982780405233
-0.10568137421838042
1.2502080945705631
-0.23175982780405233
-0.10568137421838042
1.2502080945705631
-0.23175982780405233
-0.10568137421838042
1.2502080945705631
-0.2326058549987536
-0.1048704054611419
1.2507735745361104
-0.2326058549987536
-0.1048704054611419
1.2507735745361104
-0.2326058549987536
-0.1048704054611419
1.2507735745361104
-0.2326058549987536
-0.1048704054611419
1.2507735745361104
-0.23438027653435217
-0.10431815542026224
1.2512175329164816
-0.23438027653435217
-0.10431815542026224
1.2512175329164816
-0.23438027653435217
-0.10431815542026224
1.2512175329164816
-0.23438027653435217
-0.10431815542026224
1.2512175329164816
-0.2328082683119942
-0.10361893980891256
1.2511812961291078
-0.2328082683119942
-0.10361893980891256
1.2511812961291078
-0.2328082683119942
-0.10361893980891256
1.2511812961291078
-0.2328082683119942
-0.10361893980891256
1.2511812961291078
-0.23370372246156443
-0.10359278397010135
1.2511965509205036
-0.23370372246156443
-0.10359278397010135
1.2511965509205036
-0.23370372246156443
-0.10359278397010135
1.2511965509205036
-0.23370372246156443
-0.10359278397010135
1.2511965509205036
-0.235893037317569
-0.10320523589182341
1.251580190551162
-0.235893037317569
-0.10320523589182341
1.251580190551162
-0.235893037317569
-0.10320523589182341
1.251580190551162
-0.235893037317569
-0.10320523589182341
1.251580190551162
-0.23515174155394852
-0.10283693767619427
1.2514262728223895
-0.23515174155394852
-0.10283693767619427
1.2514262728223895
-0.23515174155394852
-0.10283693767619427
1.2514262728223895
-0.23515174155394852
-0.10283693767619427
1.2514262728223895
-0.23540671192961612
-0.10223876940155517
1.250925119850022
-0.23540671192961612
-0.10223876940155517
1.250925119850022
-0.23540671192961612
-0.10223876940155517
1.250925119850022
-0.23540671192961612
-0.10223876940155517
1.250925119850022
-0.2357791896857005
-0.10200537507819887
1.2504731826696016
-0.2357791896857005
-0.10200537507819887
1.2504731826696016
-0.2357791896857005
-0.10200537507819887
1.2504731826696016
-0.2357791896857005
-0.10200537507819887
1.2504731826696016
-0.23542617105652294
-0.1010377741875682
1.2485948906774273
-0.23542617105652294
-0.1010377741875682
1.2485948906774273
-0.23542617105652294
-0.1010377741875682
1.2485948906774273
-0.23542617105652294
-0.1010377741875682
1.2485948906774273
-0.2369886629197055
-0.10084064005780347
1.2466765678879057
-0.2369886629197055
-0.10084064005780347
1.2466765678879057
-0.2369886629197055
-0.10084064005780347
1.2466765678879057
-0.2369886629197055
-0.10084064005780347
1.2466765678879057
-0.2409706200563545
-0.10112570565781132
1.245596918211328
-0.2409706200563545
-0.10112570565781132
1.245596918211328
-0.2409706200563545
-0.10112570565781132
1.245596918211328
-0.2409706200563545
-0.10112570565781132
1.245596918211328
-0.24253512591773532
-0.10173315551834738
1.245006370409004
-0.24253512591773532
-0.10173315551834738
1.245006370409004
-0.24253512591773532
-0.10173315551834738
1.245006370409004
-0.24253512591773532
-0.10173315551834738
1.245006370409004
-0.24251744688841878
-0.10165634500856632
1.2442090408436548
-0.24251744688841878
-0.10165634500856632
1.2442090408436548
-0.24251744688841878
-0.10165634500856632
1.2442090408436548
-0.24251744688841878
-0.10165634500856632
1.2442090408436548
-0.24328260135908872
-0.10106125517833023
1.243015931723613
-0.24328260135908872
-0.10106125517833023
1.243015931723613
-0.24328260135908872
-0.10106125517833023
1.243015931723613
-0.24328260135908872
-0.10106125517833023
1.243015931723613
-0.24417402388647125
-0.10022708169700424
1.2417993244772125
-0.24417402388647125
-0.10022708169700424
1.2417993244772125
-0.24417402388647125
-0.10022708169700424
1.2417993244772125
-0.24417402388647125
-0.10022708169700424
1.2417993244772125
-0.24368504580570333
-0.09929578976171459
1.2408731230979688
-0.24368504580570333
-0.09929578976171459
1.2408731230979688
-0.24368504580570333
-0.09929578976171459
1.2408731230979688
-0.24368504580570333
-0.09929578976171459
1.2408731230979688
-0.24395006540962966
-0.10010179348252832
1.2397547870187025
-0.24395006540962966
-0.10010179348252832
1.2397547870187025
-0.24395006540962966
-0.10010179348252832
1.2397547870187025
-0.24395006540962966
-0.10010179348252832
1.2397547870187025
-0.24475192201358015
-0.100606737656712
1.2396564886015409
-0.24475192201358015
-0.100606737656712
1.2396564886015409
-0.24475192201358015
-0.100606737656712
1.2396564886015409
-0.24475192201358015
-0.100606737656712
1.2396564886015409
-0.2436936956811828
-0.1006319661466769
1.2394339328240835
-0.2436936956811828
-0.1006319661466769
1.2394339328240835
-0.2436936956811828
-0.1006319661466769
1.2394339328240835
-0.2436936956811828
-0.1006319661466769
1.2394339328240835
-0.24379226781680502
-0.10056107587121783
1.2394302650579512
-0.24379226781680502
-0.10056107587121783
1.2394302650579512
-0.24379226781680502
-0.10056107587121783
1.2394302650579512
-0.24379226781680502
-0.10056107587121783
1.2394302650579512
-0.2437496688584054
-0.10087975300143365
1.2396387942897364
-0.2437496688584054
-0.10087975300143365
1.2396387942897364
-0.2437496688584054
-0.10087975300143365
1.2396387942897364
-0.2437496688584054
-0.10087975300143365
1.2396387942897364
-0.24367474653638813
-0.10076608102123838
1.2397216692964608
-0.24367474653638813
-0.10076608102123838
1.2397216692964608
-0.24367474653638813
-0.10076608102123838
1.2397216692964608
-0.24367474653638813
-0.10076608102123838
1.2397216692964608
-0.24384457127298925
-0.10079323673919398
1.2397336967043202
-0.24384457127298925
-0.10079323673919398
1.2397336967043202
-0.24384457127298925
-0.10079323673919398
1.2397336967043202
-0.24384457127298925
-0.10079323673919398
1.2397336967043202
-0.24452639696719808
-0.09997194429529987
1.240182178413418
-0.24452639696719808
-0.09997194429529987
1.240182178413418
-0.24452639696719808
-0.09997194429529987
1.240182178413418
-0.24452639696719808
-0.09997194429529987
1.240182178413418
-0.24575172392637248
-0.09894819140097977
1.2401886087985026
-0.24575172392637248
-0.09894819140097977
1.2401886087985026
-0.24575172392637248
-0.09894819140097977
1.2401886087985026
-0.24575172392637248
-0.09894819140097977
1.2401886087985026
-0.247611946372805
-0.09776596458869563
1.2402056080985073
-0.247611946372805
-0.09776596458869563
1.2402056080985073
-0.247611946372805
-0.09776596458869563
1.2402056080985073
-0.247611946372805
-0.09776596458869563
1.2402056080985073
-0.2475317133495065
-0.09711799574263136
1.2396769520364237
-0.2475317133495065
-0.09711799574263136
1.2396769520364237
-0.2475317133495065
-0.09711799574263136
1.2396769520364237
-0.2475317133495065
-0.09711799574263136
1.2396769520364237
-0.24658435835899747
-0.096907478797184
1.2393615399063762
-0.24658435835899747
-0.096907478797184
1.2393615399063762
-0.24658435835899747
-0.096907478797184
1.2393615399063762
-0.24658435835899747
-0.096907478797184
1.2393615399063762
-0.2464827009218696
-0.09746898718719556
1.2389823996969638
-0.2464827009218696
-0.09746898718719556
1.2389823996969638
-0.2464827009218696
-0.09746898718719556
1.2389823996969638
-0.2464827009218696
-0.09746898718719556
1.2389823996969638
-0.24833333398075289
-0.09739943721078613
1.2385916581870773
-0.24833333398075289
-0.09739943721078613
1.2385916581870773
-0.24833333398075289
-0.09739943721078613
1.2385916581870773
-0.24833333398075289
-0.09739943721078613
1.2385916581870773
-0.2501519921279994
-0.09704380591598233
1.238334686550144
-0.2501519921279994
-0.09704380591598233
1.238334686550144
-0.2501519921279994
-0.09704380591598233
1.238334686550144
-0.2501519921279994
-0.09704380591598233
1.238334686550144
-0.24839545742324176
-0.09636267295350713
1.2378495225530055
-0.24839545742324176
-0.09636267295350713
1.2378495225530055
-0.24839545742324176
-0.09636267295350713
1.2378495225530055
-0.24839545742324176
-0.09636267295350713
1.2378495225530055
-0.2490705305323108
-0.09652319622797495
1.2375296486085707
-0.2490705305323108
-0.09652319622797495
1.2375296486085707
-0.2490705305323108
-0.09652319622797495
1.2375296486085707
-0.2490705305323108
-0.09652319622797495
1.2375296486085707
-0.24761814236907684
-0.09617880325742358
1.2375461195741109
-0.24761814236907684
-0.09617880325742358
1.2375461195741109
-0.24761814236907684
-0.09617880325742358
1.2375461195741109
-0.24761814236907684
-0.09617880325742358
1.2375461195741109
-0.2458623380925733
-0.09608179859182335
1.2373066716487875
-0.2458623380925733
-0.09608179859182335
1.2373066716487875
-0.2458623380925733
-0.09608179859182335
1.2373066716487875
-0.2458623380925733
-0.09608179859182335
1.2373066716487875
-0.2458227416613566
-0.09583025890179861
1.237172857758448
-0.2458227416613566
-0.09583025890179861
1.237172857758448
-0.2458227416613566
-0.09583025890179861
1.237172857758448
-0.2458227416613566
-0.09583025890179861
1.237172857758448
-0.24635119567918068
-0.09585786571831052
1.2376458482276436
-0.24635119567918068
-0.09585786571831052
1.2376458482276436
-0.24635119567918068
-0.09585786571831052
1.2376458482276436
-0.24635119567918068
-0.09585786571831052
1.2376458482276436
-0.24628009480702712
-0.09575971862164932
1.2376302109041186
-0.24628009480702712
-0.09575971862164932
1.2376302109041186
-0.24628009480702712
-0.09575971862164932
1.2376302109041186
-0.24628009480702712
-0.09575971862164932
1.2376302109041186
-0.24628009480702712
-0.09575971862164932
1.2376302109041186
-0.24628009480702712
-0.09575971862164932
1.2376302109041186
-0.24628009480702712
-0.09575971862164932
1.2376302109041186
-0.24628009480702712
-0.09575971862164932
1.2376302109041186
-0.24547542356644947
-0.09574437540515877
1.2373467983600794
-0.24547542356644947
-0.09574437540515877
1.2373467983600794
-0.24547542356644947
-0.09574437540515877
1.2373467983600794
-0.24547542356644947
-0.09574437540515877
1.2373467983600794
-0.24330865222528147
-0.09557416929870352
1.23779494590298
-0.24330865222528147
-0.09557416929870352
1.23779494590298
-0.24330865222528147
-0.09557416929870352
1.23779494590298
-0.24330865222528147
-0.09557416929870352
1.23779494590298
-0.24152913750718402
-0.0963280662341195
1.2384453659804522
-0.24152913750718402
-0.0963280662341195
1.2384453659804522
-0.24152913750718402
-0.0963280662341195
1.2384453659804522
-0.24152913750718402
-0.0963280662341195
1.2384453659804522
-0.24101967735258595
-0.09632718209806171
1.2391362209140124
-0.24101967735258595
-0.09632718209806171
1.2391362209140124
-0.24101967735258595
-0.09632718209806171
1.2391362209140124
-0.24101967735258595
-0.09632718209806171
1.2391362209140124
-0.2413940892337597
-0.09632437679220882
1.2396688052521243
-0.2413940892337597
-0.09632437679220882
1.2396688052521243
-0.2413940892337597
-0.09632437679220882
1.2396688052521243
-0.2413940892337597
-0.09632437679220882
1.2396688052521243
-0.2393542628246167
-0.0963575178352835
1.2400760653093132
-0.2393542628246167
-0.0963575178352835
1.2400760653093132
-0.2393542628246167
-0.0963575178352835
1.2400760653093132
-0.2393542628246167
-0.0963575178352835
1.2400760653093132
-0.237393232422979
-0.09651987698958409
1.2403012895309733
-0.237393232422979
-0.09651987698958409
1.2403012895309733
-0.237393232422979
-0.09651987698958409
1.2403012895309733
-0.237393232422979
-0.09651987698958409
1.2403012895309733
-0.23829753757740726
-0.09705060775879144
1.2408232670178596
-0.23829753757740726
-0.09705060775879144
1.2408232670178596
-0.23829753757740726
-0.09705060775879144
1.2408232670178596
-0.23829753757740726
-0.09705060775879144
1.2408232670178596
-0.23938758017791112
-0.09745786720790847
1.241168574617694
-0.23938758017791112
-0.09745786720790847
1.241168574617694
-0.23938758017791112
-0.09745786720790847
1.241168574617694
-0.23938758017791112
-0.09745786720790847
1.241168574617694
-0.23757678116400513
-0.09770114736647748
1.2409661429917445
-0.23757678116400513
-0.09770114736647748
1.2409661429917445
-0.23757678116400513
-0.09770114736647748
1.2409661429917445
-0.23757678116400513
-0.09770114736647748
1.2409661429917445
-0.23581978117714306
-0.09710224960288609
1.2412100640743744
-0.23581978117714306
-0.09710224960288609
1.2412100640743744
-0.23581978117714306
-0.09710224960288609
1.2412100640743744
-0.23581978117714306
-0.09710224960288609
1.2412100640743744
-0.23562669504209963
-0.09734230546627838
1.2418440745236072
-0.23562669504209963
-0.09734230546627838
1.2418440745236072
-0.23562669504209963
-0.09734230546627838
1.2418440745236072
-0.23562669504209963
-0.09734230546627838
1.2418440745236072
-0.23562669504209963
-0.09734230546627838
1.2418440745236072
-0.23562669504209963
-0.09734230546627838
1.2418440745236072
-0.23562669504209963
-0.09734230546627838
1.2418440745236072
-0.23562669504209963
-0.09734230546627838
1.2418440745236072
-0.2357965729724396
-0.09736936585916035
1.2418556776809468
-0.2357965729724396
-0.09736936585916035
1.2418556776809468
-0.2357965729724396
-0.09736936585916035
1.2418556776809468
-0.2357965729724396
-0.09736936585916035
1.2418556776809468
-0.234675186429019
-0.09726293635261853
1.2418882008270646
-0.234675186429019
-0.09726293635261853
1.2418882008270646
-0.234675186429019
-0.09726293635261853
1.2418882008270646
-0.234675186429019
-0.09726293635261853
1.2418882008270646
-0.23257688932316553
-0.0976861010490021
1.2419641747445302
-0.23257688932316553
-0.0976861010490021
1.2419641747445302
-0.23257688932316553
-0.0976861010490021
1.2419641747445302
-0.23257688932316553
-0.0976861010490021
1.2419641747445302
-0.23189520003560932
-0.09815003157822337
1.2422565257864377
-0.23189520003560932
-0.09815003157822337
1.2422565257864377
-0.23189520003560932
-0.09815003157822337
1.2422565257864377
-0.23189520003560932
-0.09815003157822337
1.2422565257864377
-0.23305162488895942
-0.098200984289284
1.242734121899816
-0.23305162488895942
-0.098200984289284
1.242734121899816
-0.23305162488895942
-0.098200984289284
1.242734121899816
-0.23305162488895942
-0.098200984289284
1.242734121899816
-0.2325826866888824
-0.09837220446677114
1.242831267814294
-0.2325826866888824
-0.09837220446677114
1.242831267814294
-0.2325826866888824
-0.09837220446677114
1.242831267814294
-0.2325826866888824
-0.09837220446677114
1.242831267814294
-0.23005709273790084
-0.09856266643197323
1.2420707827258592
-0.23005709273790084
-0.09856266643197323
1.2420707827258592
-0.23005709273790084
-0.09856266643197323
1.2420707827258592
-0.23005709273790084
-0.09856266643197323
1.2420707827258592
-0.2304391288559137
-0.09844435920788329
1.2421471695850874
-0.2304391288559137
-0.09844435920788329
1.2421471695850874
-0.2304391288559137
-0.09844435920788329
1.2421471695850874
-0.2304391288559137
-0.09844435920788329
1.2421471695850874
-0.22954503257506786
-0.0985518214201812
1.2428596884758116
-0.22954503257506786
-0.0985518214201812
1.2428596884758116
-0.22954503257506786
-0.0985518214201812
1.2428596884758116
-0.22954503257506786
-0.0985518214201812
1.2428596884758116
-0.2268854835114641
-0.09874661169343432
1.2433221583508658
-0.2268854835114641
-0.09874661169343432
1.2433221583508658
-0.2268854835114641
-0.09874661169343432
1.2433221583508658
-0.2268854835114641
-0.09874661169343432
1.2433221583508658
-0.22821587954979214
-0.09869188985438979
1.2434535415898706
-0.22821587954979214
-0.09869188985438979
1.2434535415898706
-0.22821587954979214
-0.09869188985438979
1.2434535415898706
-0.22821587954979214
-0.09869188985438979
1.2434535415898706
-0.22939827855614495
-0.09848864298410913
1.2431880198848557
-0.22939827855614495
-0.09848864298410913
1.2431880198848557
-0.22939827855614495
-0.09848864298410913
1.2431880198848557
-0.22939827855614495
-0.09848864298410913
1.2431880198848557
-0.2289569765347233
-0.0989930770153416
1.242780734934928
-0.2289569765347233
-0.0989930770153416
1.242780734934928
-0.2289569765347233
-0.0989930770153416
1.242780734934928
-0.2289569765347233
-0.0989930770153416
1.242780734934928
-0.22676932870845784
-0.09980925830895106
1.2423795570814433
-0.22676932870845784
-0.09980925830895106
1.2423795570814433
-0.22676932870845784
-0.09980925830895106
1.2423795570814433
-0.22676932870845784
-0.09980925830895106
1.2423795570814433
-0.22676932870845784
-0.09980925830895106
1.2423795570814433
-0.22676932870845784
-0.09980925830895106
1.2423795570814433
-0.22676932870845784
-0.09980925830895106
1.2423795570814433
-0.22676932870845784
-0.09980925830895106
1.2423795570814433
-0.22803644266910156
-0.1002742447141437
1.2425386586249054
-0.22803644266910156
-0.1002742447141437
1.2425386586249054
-0.22803644266910156
-0.1002742447141437
1.2425386586249054
-0.22803644266910156
-0.1002742447141437
1.2425386586249054
-0.2264937142438784
-0.10047358795058846
1.2423409249733963
-0.2264937142438784
-0.10047358795058846
1.2423409249733963
-0.2264937142438784
-0.10047358795058846
1.2423409249733963
-0.2264937142438784
-0.10047358795058846
1.2423409249733963
-0.22673515088178037
-0.10059872309442797
1.2423675039309656
-0.22673515088178037
-0.10059872309442797
1.2423675039309656
-0.22673515088178037
-0.10059872309442797
1.2423675039309656
-0.22673515088178037
-0.10059872309442797
1.2423675039309656
-0.22613482059377074
-0.10105762360057903
1.2421172405093417
-0.22613482059377074
-0.10105762360057903
1.2421172405093417
-0.22613482059377074
-0.10105762360057903
1.2421172405093417
-0.22613482059377074
-0.10105762360057903
1.2421172405093417
-0.2263320434706925
-0.10091551816606416
1.2421111515976409
-0.2263320434706925
-0.10091551816606416
1.2421111515976409
-0.2263320434706925
-0.10091551816606416
1.2421111515976409
-0.2263320434706925
-0.10091551816606416
1.2421111515976409
-0.2249657246287093
-0.10066962064806685
1.2422143026046975
-0.2249657246287093
-0.10066962064806685
1.2422143026046975
-0.2249657246287093
-0.10066962064806685
1.2422143026046975
-0.2249657246287093
-0.10066962064806685
1.2422143026046975
-0.2249657246287093
-0.10066962064806685
1.2422143026046975
-0.2249657246287093
-0.10066962064806685
1.2422143026046975
-0.2249657246287093
-0.10066962064806685
1.2422143026046975
-0.2249657246287093
-0.10066962064806685
1.2422143026046975
-0.22409780417230346
-0.10052263835325945
1.2421828680978821
-0.22409780417230346
-0.10052263835325945
1.2421828680978821
-0.22409780417230346
-0.10052263835325945
1.2421828680978821
-0.22409780417230346
-0.10052263835325945
1.2421828680978821
-0.22562576122617223
-0.1003266952897162
1.2423094592834163
-0.22562576122617223
-0.1003266952897162
1.2423094592834163
-0.22562576122617223
-0.1003266952897162
1.2423094592834163
-0.22562576122617223
-0.1003266952897162
1.2423094592834163
-0.2258377399374835
-0.10018152758727733
1.2423747486718066
-0.2258377399374835
-0.10018152758727733
1.2423747486718066
-0.2258377399374835
-0.10018152758727733
1.2423747486718066
-0.2258377399374835
-0.10018152758727733
1.2423747486718066
-0.22507678722061017
-0.10043240251731796
1.2421220884938324
-0.22507678722061017
-0.10043240251731796
1.2421220884938324
-0.22507678722061017
-0.10043240251731796
1.2421220884938324
-0.22507678722061017
-0.10043240251731796
1.2421220884938324
-0.2243781703158152
-0.10046101623037088
1.2423616191051807
-0.2243781703158152
-0.10046101623037088
1.2423616191051807
-0.2243781703158152
-0.10046101623037088
1.2423616191051807
-0.2243781703158152
-0.10046101623037088
1.2423616191051807
-0.2243781703158152
-0.10046101623037088
1.2423616191051807
-0.2243781703158152
-0.10046101623037088
1.2423616191051807
-0.2243781703158152
-0.10046101623037088
1.2423616191051807
-0.2243781703158152
-0.10046101623037088
1.2423616191051807
-0.22505292794408394
-0.10011506257445972
1.2425282146170729
-0.22505292794408394
-0.10011506257445972
1.2425282146170729
-0.22505292794408394
-0.10011506257445972
1.2425282146170729
-0.22505292794408394
-0.10011506257445972
1.2425282146170729
-0.225632081745499
-0.09985476406416806
1.2425990622464613
-0.225632081745499
-0.09985476406416806
1.2425990622464613
-0.225632081745499
-0.09985476406416806
1.2425990622464613
-0.225632081745499
-0.09985476406416806
1.2425990622464613
-0.22573067433931301
-0.09978369245536234
1.2425959763195806
-0.22573067433931301
-0.09978369245536234
1.2425959763195806
-0.22573067433931301
-0.09978369245536234
1.2425959763195806
-0.22573067433931301
-0.09978369245536234
1.2425959763195806
-0.22446837815391996
-0.09992119935937248
1.2425770638609688
-0.22446837815391996
-0.09992119935937248
1.2425770638609688
-0.22446837815391996
-0.09992119935937248
1.2425770638609688
-0.22446837815391996
-0.09992119935937248
1.2425770638609688
-0.22517869948804636
-0.09987482187730298
1.242507365436424
-0.22517869948804636
-0.09987482187730298
1.242507365436424
-0.22517869948804636
-0.09987482187730298
1.242507365436424
-0.22517869948804636
-0.09987482187730298
1.242507365436424
-0.22568804513721105
-0.10010428545151394
1.2428016902589545
-0.22568804513721105
-0.10010428545151394
1.2428016902589545
-0.22568804513721105
-0.10010428545151394
1.2428016902589545
-0.22568804513721105
-0.10010428545151394
1.2428016902589545
-0.22544350395643856
-0.0999644985428803
1.242873828937535
-0.22544350395643856
-0.0999644985428803
1.242873828937535
-0.22544350395643856
-0.0999644985428803
1.242873828937535
-0.22544350395643856
-0.0999644985428803
1.242873828937535
-0.22554208722951566
-0.0998934136648764
1.2428707531778933
-0.22554208722951566
-0.0998934136648764
1.2428707531778933
-0.22554208722951566
-0.0998934136648764
1.2428707531778933
-0.22554208722951566
-0.0998934136648764
1.2428707531778933
-0.2256406692681609
-0.09982232963120116
1.242867670420876
-0.2256406692681609
-0.09982232963120116
1.242867670420876
-0.2256406692681609
-0.09982232963120116
1.242867670420876
-0.2256406692681609
-0.09982232963120116
1.242867670420876
-0.22491869137181872
-0.0998865098311383
1.2427673735526519
-0.22491869137181872
-0.0998865098311383
1.2427673735526519
-0.22491869137181872
-0.0998865098311383
1.2427673735526519
-0.22491869137181872
-0.0998865098311383
1.2427673735526519
-0.22482010130247657
-0.09995758950469605
1.2427704265785746
-0.22482010130247657
-0.09995758950469605
1.2427704265785746
-0.22482010130247657
-0.09995758950469605
1.2427704265785746
-0.22482010130247657
-0.09995758950469605
1.2427704265785746
-0.22482010130247657
-0.09995758950469605
1.2427704265785746
-0.22482010130247657
-0.09995758950469605
1.2427704265785746
-0.22482010130247657
-0.09995758950469605
1.2427704265785746
-0.22482010130247657
-0.09995758950469605
1.2427704265785746
-0.2250578076641025
-0.10021648054137812
1.2431546809451874
-0.2250578076641025
-0.10021648054137812
1.2431546809451874
-0.2250578076641025
-0.10021648054137812
1.2431546809451874
-0.2250578076641025
-0.10021648054137812
1.2431546809451874
-0.22366110283573812
-0.10062680172198754
1.242887457770149
-0.22366110283573812
-0.10062680172198754
1.242887457770149
-0.22366110283573812
-0.10062680172198754
1.242887457770149
-0.22366110283573812
-0.10062680172198754
1.242887457770149
-0.22253581790931928
-0.10100727846588411
1.2425298464001497
-0.22253581790931928
-0.10100727846588411
1.2425298464001497
-0.22253581790931928
-0.10100727846588411
1.2425298464001497
-0.22253581790931928
-0.10100727846588411
1.2425298464001497
-0.2248809006483481
-0.10080981015078319
1.243112463294847
-0.2248809006483481
-0.10080981015078319
1.243112463294847
-0.2248809006483481
-0.10080981015078319
1.243112463294847
-0.2248809006483481
-0.10080981015078319
1.243112463294847
-0.22440034264626996
-0.1009991111699076
1.2430382479072466
-0.22440034264626996
-0.1009991111699076
1.2430382479072466
-0.22440034264626996
-0.1009991111699076
1.2430382479072466
-0.22440034264626996
-0.1009991111699076
1.2430382479072466
-0.22287886742626056
-0.10107594922948898
1.242454698205107
-0.22287886742626056
-0.10107594922948898
1.242454698205107
-0.22287886742626056
-0.10107594922948898
1.242454698205107
-0.22287886742626056
-0.10107594922948898
1.242454698205107
-0.2217548881700161
-0.10080671827559598
1.2423254769155918
-0.2217548881700161
-0.10080671827559598
1.2423254769155918
-0.2217548881700161
-0.10080671827559598
1.2423254769155918
-0.2217548881700161
-0.10080671827559598
1.2423254769155918
-0.22338073542756132
-0.10068843298432807
1.2427086620607168
-0.22338073542756132
-0.10068843298432807
1.2427086620607168
-0.22338073542756132
-0.10068843298432807
1.2427086620607168
-0.22338073542756132
-0.10068843298432807
1.2427086620607168
-0.22257179037531874
-0.10080603486029123
1.2427809636307168
-0.22257179037531874
-0.10080603486029123
1.2427809636307168
-0.22257179037531874
-0.10080603486029123
1.2427809636307168
-0.22257179037531874
-0.10080603486029123
1.2427809636307168
-0.22180168947350823
-0.10073707277229067
1.2430057444735927
-0.22180168947350823
-0.10073707277229067
1.2430057444735927
-0.22180168947350823
-0.10073707277229067
1.2430057444735927
-0.22180168947350823
-0.10073707277229067
1.2430057444735927
-0.2199719678822463
-0.10111773205509407
1.243084222222857
-0.2199719678822463
-0.10111773205509407
1.243084222222857
-0.2199719678822463
-0.10111773205509407
1.243084222222857
-0.2199719678822463
-0.10111773205509407
1.243084222222857
-0.2189629751414022
-0.10136343011852551
1.243260337551161
-0.2189629751414022
-0.10136343011852551
1.243260337551161
-0.2189629751414022
-0.10136343011852551
1.243260337551161
-0.2189629751414022
-0.10136343011852551
1.243260337551161
-0.21811789639313775
-0.10168212268704974
1.2430805473739541
-0.21811789639313775
-0.10168212268704974
1.2430805473739541
-0.21811789639313775
-0.10168212268704974
1.2430805473739541
-0.21811789639313775
-0.10168212268704974
1.2430805473739541
-0.21923545021667476
-0.10242218273955264
1.2429186610005647
-0.21923545021667476
-0.10242218273955264
1.2429186610005647
-0.21923545021667476
-0.10242218273955264
1.2429186610005647
-0.21923545021667476
-0.10242218273955264
1.2429186610005647
-0.2166650799115282
-0.10292918398999945
1.2423558257033243
-0.2166650799115282
-0.10292918398999945
1.2423558257033243
-0.2166650799115282
-0.10292918398999945
1.2423558257033243
-0.2166650799115282
-0.10292918398999945
1.2423558257033243
-0.21508542654099735
-0.10332754644519754
1.241902914647229
-0.21508542654099735
-0.10332754644519754
1.241902914647229
-0.21508542654099735
-0.10332754644519754
1.241902914647229
-0.21508542654099735
-0.10332754644519754
1.241902914647229
-0.2157974002559204
-0.10387011086164268
1.2420700576639543
-0.2157974002559204
-0.10387011086164268
1.2420700576639543
-0.2157974002559204
-0.10387011086164268
1.2420700576639543
-0.2157974002559204
-0.10387011086164268
1.2420700576639543
-0.21588836539343223
-0.10441928138533918
1.2420341192097972
-0.21588836539343223
-0.10441928138533918
1.2420341192097972
-0.21588836539343223
-0.10441928138533918
1.2420341192097972
-0.21588836539343223
-0.10441928138533918
1.2420341192097972
-0.21615723296851289
-0.1043752942559439
1.2420435486618653
-0.21615723296851289
-0.1043752942559439
1.2420435486618653
-0.21615723296851289
-0.1043752942559439
1.2420435486618653
-0.21615723296851289
-0.1043752942559439
1.2420435486618653
-0.2155219507516452
-0.1046100559149989
1.242850687929574
-0.2155219507516452
-0.1046100559149989
1.242850687929574
-0.2155219507516452
-0.1046100559149989
1.242850687929574
-0.2155219507516452
-0.1046100559149989
1.242850687929574
-0.2131276883981326
-0.10467304879730359
1.242588648292968
-0.2131276883981326
-0.10467304879730359
1.242588648292968
-0.2131276883981326
-0.10467304879730359
1.242588648292968
-0.2131276883981326
-0.10467304879730359
1.242588648292968
-0.21462617510373558
-0.10478238461654064
1.2430935876113098
-0.21462617510373558
-0.10478238461654064
1.2430935876113098
-0.21462617510373558
-0.10478238461654064
1.2430935876113098
-0.21462617510373558
-0.10478238461654064
1.2430935876113098
-0.21280870705687044
-0.10457151733879548
1.2430039304563614
-0.21280870705687044
-0.10457151733879548
1.2430039304563614
-0.21280870705687044
-0.10457151733879548
1.2430039304563614
-0.21280870705687044
-0.10457151733879548
1.2430039304563614
-0.2126303715351623
-0.10465217980349921
1.2435464935548552
-0.2126303715351623
-0.10465217980349921
1.2435464935548552
-0.2126303715351623
-0.10465217980349921
1.2435464935548552
-0.2126303715351623
-0.10465217980349921
1.2435464935548552
-0.20985084585718555
-0.10496977408253269
1.243562401883838
-0.20985084585718555
-0.10496977408253269
1.243562401883838
-0.20985084585718555
-0.10496977408253269
1.243562401883838
-0.20985084585718555
-0.10496977408253269
1.243562401883838
-0.21248394894912118
-0.10459205137331752
1.2438750327850228
-0.21248394894912118
-0.10459205137331752
1.2438750327850228
-0.21248394894912118
-0.10459205137331752
1.2438750327850228
-0.21248394894912118
-0.10459205137331752
1.2438750327850228
-0.2130046762147833
-0.10429393132035042
1.244928096039657
-0.2130046762147833
-0.10429393132035042
1.244928096039657
-0.2130046762147833
-0.10429393132035042
1.244928096039657
-0.2130046762147833
-0.10429393132035042
1.244928096039657
-0.20901095743021456
-0.10488283068595532
1.2445951123283487
-0.20901095743021456
-0.10488283068595532
1.2445951123283487
-0.20901095743021456
-0.10488283068595532
1.2445951123283487
-0.20901095743021456
-0.10488283068595532
1.2445951123283487
-0.21326775973766365
-0.10379623308275064
1.2450599534664113
-0.21326775973766365
-0.10379623308275064
1.2450599534664113
-0.21326775973766365
-0.10379623308275064
1.2450599534664113
-0.21326775973766365
-0.10379623308275064
1.2450599534664113
-0.21491604945775028
-0.10347957336467226
1.2456264962191157
-0.21491604945775028
-0.10347957336467226
1.2456264962191157
-0.21491604945775028
-0.10347957336467226
1.2456264962191157
-0.21491604945775028
-0.10347957336467226
1.2456264962191157
-0.21240858012549382
-0.1043449736402508
1.2458883804932341
-0.21240858012549382
-0.1043449736402508
1.2458883804932341
-0.21240858012549382
-0.1043449736402508
1.2458883804932341
-0.21240858012549382
-0.1043449736402508
1.2458883804932341
-0.21191248390071474
-0.10483756223350242
1.24625750073873
-0.21191248390071474
-0.10483756223350242
1.24625750073873
-0.21191248390071474
-0.10483756223350242
1.24625750073873
-0.21191248390071474
-0.10483756223350242
1.24625750073873
-0.21370446864754433
-0.1047162725080135
1.24685376489751
-0.21370446864754433
-0.1047162725080135
1.24685376489751
-0.21370446864754433
-0.1047162725080135
1.24685376489751
-0.21370446864754433
-0.1047162725080135
1.24685376489751
-0.21637624862247778
-0.10472198248784895
1.247652781737871
-0.21637624862247778
-0.10472198248784895
1.247652781737871
-0.21637624862247778
-0.10472198248784895
1.247652781737871
-0.21637624862247778
-0.10472198248784895
1.247652781737871
-0.2163787956245774
-0.10473637603585753
1.2475542829219095
-0.2163787956245774
-0.10473637603585753
1.2475542829219095
-0.2163787956245774
-0.10473637603585753
1.2475542829219095
-0.2163787956245774
-0.10473637603585753
1.2475542829219095
-0.21839631555177047
-0.10481476768998797
1.2475407291374634
-0.21839631555177047
-0.10481476768998797
1.2475407291374634
-0.21839631555177047
-0.10481476768998797
1.2475407291374634
-0.21839631555177047
-0.10481476768998797
1.2475407291374634
-0.21844794228362854
-0.10518549918212426
1.2481988771176216
-0.21844794228362854
-0.10518549918212426
1.2481988771176216
-0.21844794228362854
-0.10518549918212426
1.2481988771176216
-0.21844794228362854
-0.10518549918212426
1.2481988771176216
-0.21391794288621463
-0.10537267966818274
1.2483361051375148
-0.21391794288621463
-0.10537267966818274
1.2483361051375148
-0.2160450948800483
-0.10428824001550381
1.2486456960866898
-0.2160450948800483
-0.10428824001550381
1.2486456960866898
-0.2160450948800483
-0.10428824001550381
1.2486456960866898
-0.2160450948800483
-0.10428824001550381
1.2486456960866898
-0.2160450948800483
-0.10428824001550381
1.2486456960866898
-0.2160450948800483
-0.10428824001550381
1.2486456960866898
-0.2191437259741022
-0.10478914668702796
1.2488068735182518
-0.2191437259741022
-0.10478914668702796
1.2488068735182518
-0.2191437259741022
-0.10478914668702796
1.2488068735182518
-0.2191437259741022
-0.10478914668702796
1.2488068735182518
-0.220663920653977
-0.10534340187059536
1.2492632880617116
-0.220663920653977
-0.10534340187059536
1.2492632880617116
-0.220663920653977
-0.10534340187059536
1.2492632880617116
-0.220663920653977
-0.10534340187059536
1.2492632880617116
-0.22245551907839978
-0.10571751699412693
1.2493719612572725
-0.22245551907839978
-0.10571751699412693
1.2493719612572725
-0.22245551907839978
-0.10571751699412693
1.2493719612572725
-0.22245551907839978
-0.10571751699412693
1.2493719612572725
-0.226445955777074
-0.10753300895536971
1.2479327035028716
-0.226445955777074
-0.10753300895536971
1.2479327035028716
-0.226445955777074
-0.10753300895536971
1.2479327035028716
-0.226445955777074
-0.10753300895536971
1.2479327035028716
-0.2335296656569825
-0.10819522183237072
1.2465777930379867
-0.2335296656569825
-0.10819522183237072
1.2465777930379867
-0.2335296656569825
-0.10819522183237072
1.2465777930379867
-0.2335296656569825
-0.10819522183237072
1.2465777930379867
-0.23389185243404034
-0.10819625553244383
1.2470413811800072
-0.23389185243404034
-0.10819625553244383
1.2470413811800072
-0.23389185243404034
-0.10819625553244383
1.2470413811800072
-0.23389185243404034
-0.10819625553244383
1.2470413811800072
-0.2345333071680546
-0.10826616092392045
1.2480432823319982
-0.2345333071680546
-0.10826616092392045
1.2480432823319982
-0.2345333071680546
-0.10826616092392045
1.2480432823319982
-0.2345333071680546
-0.10826616092392045
1.2480432823319982
-0.2363905562211968
-0.10828369253680288
1.2482899841089232
-0.2363905562211968
-0.10828369253680288
1.2482899841089232
-0.2363905562211968
-0.10828369253680288
1.2482899841089232
-0.2363905562211968
-0.10828369253680288
1.2482899841089232
-0.23625305743458133
-0.10834376879569603
1.2469586462788207
-0.23625305743458133
-0.10834376879569603
1.2469586462788207
-0.23625305743458133
-0.10834376879569603
1.2469586462788207
-0.23625305743458133
-0.10834376879569603
1.2469586462788207
-0.2387326228679682
-0.10745166673746313
1.2455269736724037
-0.2387326228679682
-0.10745166673746313
1.2455269736724037
-0.2387326228679682
-0.10745166673746313
1.2455269736724037
-0.2387326228679682
-0.10745166673746313
1.2455269736724037
-0.2442137522216803
-0.10697474512418471
1.246194488381038
-0.2442137522216803
-0.10697474512418471
1.246194488381038
-0.2442137522216803
-0.10697474512418471
1.246194488381038
-0.2442137522216803
-0.10697474512418471
1.246194488381038
-0.24529767132961464
-0.10667725318161654
1.2478624480597447
-0.24529767132961464
-0.10667725318161654
1.2478624480597447
-0.24318860939582215
-0.10555965959065187
1.2482849812415768
-0.24318860939582215
-0.10555965959065187
1.2482849812415768
-0.24318860939582215
-0.10555965959065187
1.2482849812415768
-0.24318860939582215
-0.10555965959065187
1.2482849812415768
-0.24318860939582215
-0.10555965959065187
1.2482849812415768
-0.24318860939582215
-0.10555965959065187
1.2482849812415768
-0.24414145948540453
-0.10493559559246035
1.2475433717236777
-0.24414145948540453
-0.10493559559246035
1.2475433717236777
-0.24414145948540453
-0.10493559559246035
1.2475433717236777
-0.24414145948540453
-0.10493559559246035
1.2475433717236777
-0.24396291876139448
-0.10409741977910249
1.2463002404470478
-0.24396291876139448
-0.10409741977910249
1.2463002404470478
-0.24396291876139448
-0.10409741977910249
1.2463002404470478
-0.24396291876139448
-0.10409741977910249
1.2463002404470478
-0.24550322653083445
-0.10438379176067747
1.2461157259050388
