-0.4585418200929157
-0.09012104145047799
2.3213867193930073
-0.4585418200929157
-0.09012104145047799
2.3213867193930073
-0.45832683630355175
-0.0897399749440722
2.320892625586867
-0.45832683630355175
-0.0897399749440722
2.320892625586867
-0.45832683630355175
-0.0897399749440722
2.320892625586867
-0.45832683630355175
-0.0897399749440722
2.320892625586867
-0.45794839108437024
-0.08938273200109537
2.320562269699272
-0.45794839108437024
-0.08938273200109537
2.320562269699272
-0.45794839108437024
-0.08938273200109537
2.320562269699272
-0.45794839108437024
-0.08938273200109537
2.320562269699272
-0.4575481369018906
-0.0890491273335868
2.320631339227543
-0.4575481369018906
-0.0890491273335868
2.320631339227543
-0.4575481369018906
-0.0890491273335868
2.320631339227543
-0.4575481369018906
-0.0890491273335868
2.320631339227543
-0.45759458814970955
-0.08893973066453303
2.320607997283566
-0.45759458814970955
-0.08893973066453303
2.320607997283566
-0.45759458814970955
-0.08893973066453303
2.320607997283566
-0.45759458814970955
-0.08893973066453303
2.320607997283566
-0.45788172402392857
-0.08861085976979033
2.320264419560726
-0.45788172402392857
-0.08861085976979033
2.320264419560726
-0.45788172402392857
-0.08861085976979033
2.320264419560726
-0.45788172402392857
-0.08861085976979033
2.320264419560726
-0.45690154677791545
-0.08838046300657426
2.319987233530072
-0.45690154677791545
-0.08838046300657426
2.319987233530072
-0.45690154677791545
-0.08838046300657426
2.319987233530072
-0.45690154677791545
-0.08838046300657426
2.319987233530072
-0.45690154677791545
-0.08838046300657426
2.319987233530072
-0.45690154677791545
-0.08838046300657426
2.319987233530072
-0.45690154677791545
-0.08838046300657426
2.319987233530072
-0.45690154677791545
-0.08838046300657426
2.319987233530072
-0.45690154677791545
-0.08838046300657426
2.319987233530072
-0.45690154677791545
-0.08838046300657426
2.319987233530072
-0.45690154677791545
-0.08838046300657426
2.319987233530072
-0.45690154677791545
-0.08838046300657426
2.319987233530072
-0.45734819752044176
-0.08860480584149516
2.319894599513415
-0.45734819752044176
-0.08860480584149516
2.319894599513415
-0.45734819752044176
-0.08860480584149516
2.319894599513415
-0.45734819752044176
-0.08860480584149516
2.319894599513415
-0.45747393857794183
-0.08862787049571905
2.320020340570915
-0.45747393857794183
-0.08862787049571905
2.320020340570915
-0.45747393857794183
-0.08862787049571905
2.320020340570915
-0.45747393857794183
-0.08862787049571905
2.320020340570915
-0.45676297837844876
-0.08899692150243979
2.320009849768841
-0.45676297837844876
-0.08899692150243979
2.320009849768841
-0.45676297837844876
-0.08899692150243979
2.320009849768841
-0.45676297837844876
-0.08899692150243979
2.320009849768841
-0.45668686793144436
-0.08948078329976783
2.320118937951798
-0.45668686793144436
-0.08948078329976783
2.320118937951798
-0.45668686793144436
-0.08948078329976783
2.320118937951798
-0.45668686793144436
-0.08948078329976783
2.320118937951798
-0.45673334829880774
-0.0893713912386018
2.3200956578796164
-0.45673334829880774
-0.0893713912386018
2.3200956578796164
-0.45673334829880774
-0.0893713912386018
2.3200956578796164
-0.45673334829880774
-0.0893713912386018
2.3200956578796164
-0.45673334829880774
-0.0893713912386018
2.3200956578796164
-0.45673334829880774
-0.0893713912386018
2.3200956578796164
-0.45673334829880774
-0.0893713912386018
2.3200956578796164
-0.45673334829880774
-0.0893713912386018
2.3200956578796164
-0.45677983048160203
-0.08926200092847739
2.320072373073921
-0.45677983048160203
-0.08926200092847739
2.320072373073921
-0.45677983048160203
-0.08926200092847739
2.320072373073921
-0.45677983048160203
-0.08926200092847739
2.320072373073921
-0.45679578104541785
-0.08923880503147089
2.320182202117762
-0.45679578104541785
-0.08923880503147089
2.320182202117762
-0.45679578104541785
-0.08923880503147089
2.320182202117762
-0.45679578104541785
-0.08923880503147089
2.320182202117762
-0.45720459860096146
-0.08951012786748612
2.320379174813972
-0.45720459860096146
-0.08951012786748612
2.320379174813972
-0.45720459860096146
-0.08951012786748612
2.320379174813972
-0.45720459860096146
-0.08951012786748612
2.320379174813972
-0.4574891635371382
-0.08979804352979721
2.3208032619695382
-0.4574891635371382
-0.08979804352979721
2.3208032619695382
-0.4574891635371382
-0.08979804352979721
2.3208032619695382
-0.4574891635371382
-0.08979804352979721
2.3208032619695382
-0.4577969498066721
-0.08996050917863659
2.3212505442708715
-0.4577969498066721
-0.08996050917863659
2.3212505442708715
-0.4577969498066721
-0.08996050917863659
2.3212505442708715
-0.4577969498066721
-0.08996050917863659
2.3212505442708715
-0.4573379220241297
-0.09037600086343701
2.32149139818577
-0.4573379220241297
-0.09037600086343701
2.32149139818577
-0.4573379220241297
-0.09037600086343701
2.32149139818577
-0.4573379220241297
-0.09037600086343701
2.32149139818577
-0.45672868535017447
-0.09046442082241987
2.3216998936724185
-0.45672868535017447
-0.09046442082241987
2.3216998936724185
-0.45672868535017447
-0.09046442082241987
2.3216998936724185
-0.45672868535017447
-0.09046442082241987
2.3216998936724185
-0.45649715021487974
-0.09062202453241887
2.3222859916389496
-0.45649715021487974
-0.09062202453241887
2.3222859916389496
-0.45649715021487974
-0.09062202453241887
2.3222859916389496
-0.45649715021487974
-0.09062202453241887
2.3222859916389496
-0.45608621788254794
-0.09082718200284391
2.3229256445781576
-0.45608621788254794
-0.09082718200284391
2.3229256445781576
-0.45608621788254794
-0.09082718200284391
2.3229256445781576
-0.45608621788254794
-0.09082718200284391
2.3229256445781576
-0.4561401589454954
-0.09127292970348329
2.3239359657445333
-0.4561401589454954
-0.09127292970348329
2.3239359657445333
-0.4561401589454954
-0.09127292970348329
2.3239359657445333
-0.4561401589454954
-0.09127292970348329
2.3239359657445333
-0.4557631381452871
-0.09172046503374381
2.3247478668979435
-0.4557631381452871
-0.09172046503374381
2.3247478668979435
-0.4557631381452871
-0.09172046503374381
2.3247478668979435
-0.4557631381452871
-0.09172046503374381
2.3247478668979435
-0.4553154488421182
-0.09197374839344465
2.325676586007081
-0.4553154488421182
-0.09197374839344465
2.325676586007081
-0.4553154488421182
-0.09197374839344465
2.325676586007081
-0.4553154488421182
-0.09197374839344465
2.325676586007081
-0.4535992679101032
-0.09290809772000183
2.3270828443882774
-0.4535992679101032
-0.09290809772000183
2.3270828443882774
-0.4535992679101032
-0.09290809772000183
2.3270828443882774
-0.4535992679101032
-0.09290809772000183
2.3270828443882774
-0.45202159731345826
-0.09423555588477445
2.3287628047019786
-0.45202159731345826
-0.09423555588477445
2.3287628047019786
-0.45202159731345826
-0.09423555588477445
2.3287628047019786
-0.45202159731345826
-0.09423555588477445
2.3287628047019786
-0.4538390412970772
-0.09526848038317696
2.3300092755612924
-0.4538390412970772
-0.09526848038317696
2.3300092755612924
-0.4538390412970772
-0.09526848038317696
2.3300092755612924
-0.4538390412970772
-0.09526848038317696
2.3300092755612924
-0.45583137965619946
-0.09495584581187089
2.3309542565118635
-0.45583137965619946
-0.09495584581187089
2.3309542565118635
-0.45583137965619946
-0.09495584581187089
2.3309542565118635
-0.45583137965619946
-0.09495584581187089
2.3309542565118635
-0.4562666447438863
-0.09417268754198446
2.3315836623731934
-0.4562666447438863
-0.09417268754198446
2.3315836623731934
-0.4562666447438863
-0.09417268754198446
2.3315836623731934
-0.4562666447438863
-0.09417268754198446
2.3315836623731934
-0.4541924592043353
-0.0931866714197555
2.3319005532016774
-0.4541924592043353
-0.0931866714197555
2.3319005532016774
-0.4541924592043353
-0.0931866714197555
2.3319005532016774
-0.4541924592043353
-0.0931866714197555
2.3319005532016774
-0.4529689965154472
-0.09240563100200878
2.3328816321262424
-0.4529689965154472
-0.09240563100200878
2.3328816321262424
-0.4529689965154472
-0.09240563100200878
2.3328816321262424
-0.4529689965154472
-0.09240563100200878
2.3328816321262424
-0.45535713133216366
-0.09174398651975889
2.334272207952007
-0.45535713133216366
-0.09174398651975889
2.334272207952007
-0.45535713133216366
-0.09174398651975889
2.334272207952007
-0.45535713133216366
-0.09174398651975889
2.334272207952007
-0.45995431217723975
-0.09076565529734829
2.3353266820688483
-0.45995431217723975
-0.09076565529734829
2.3353266820688483
-0.45995431217723975
-0.09076565529734829
2.3353266820688483
-0.45995431217723975
-0.09076565529734829
2.3353266820688483
-0.46302837338789354
-0.0895593321296776
2.3362375012508174
-0.46302837338789354
-0.0895593321296776
2.3362375012508174
-0.46302837338789354
-0.0895593321296776
2.3362375012508174
-0.46302837338789354
-0.0895593321296776
2.3362375012508174
-0.4641275972599968
-0.08850852108219627
2.3363856249288317
-0.4641275972599968
-0.08850852108219627
2.3363856249288317
-0.4641275972599968
-0.08850852108219627
2.3363856249288317
-0.4641275972599968
-0.08850852108219627
2.3363856249288317
-0.46291474620012346
-0.08844423430838921
2.3366948577598565
-0.46291474620012346
-0.08844423430838921
2.3366948577598565
-0.46291474620012346
-0.08844423430838921
2.3366948577598565
-0.46291474620012346
-0.08844423430838921
2.3366948577598565
-0.46033589682404624
-0.08799089333544864
2.3372802708420863
-0.46033589682404624
-0.08799089333544864
2.3372802708420863
-0.46033589682404624
-0.08799089333544864
2.3372802708420863
-0.46033589682404624
-0.08799089333544864
2.3372802708420863
-0.45873888560558
-0.08776059977488657
2.338143686772135
-0.45873888560558
-0.08776059977488657
2.338143686772135
-0.45873888560558
-0.08776059977488657
2.338143686772135
-0.45873888560558
-0.08776059977488657
2.338143686772135
-0.45732355706470534
-0.08709243546279799
2.3389134300338865
-0.45732355706470534
-0.08709243546279799
2.3389134300338865
-0.45732355706470534
-0.08709243546279799
2.3389134300338865
-0.45732355706470534
-0.08709243546279799
2.3389134300338865
-0.45733604591570787
-0.08809838409219915
2.3387032812792166
-0.45733604591570787
-0.08809838409219915
2.3387032812792166
-0.45733604591570787
-0.08809838409219915
2.3387032812792166
-0.45733604591570787
-0.08809838409219915
2.3387032812792166
-0.456918007259144
-0.08847043352642431
2.338655567691437
-0.456918007259144
-0.08847043352642431
2.338655567691437
-0.456918007259144
-0.08847043352642431
2.338655567691437
-0.456918007259144
-0.08847043352642431
2.338655567691437
-0.4555259517023372
-0.08835651164191431
2.339440005405809
-0.4555259517023372
-0.08835651164191431
2.339440005405809
-0.4555259517023372
-0.08835651164191431
2.339440005405809
-0.4555259517023372
-0.08835651164191431
2.339440005405809
-0.4528739288803611
-0.08781556207059656
2.339722275089435
-0.4528739288803611
-0.08781556207059656
2.339722275089435
-0.4528739288803611
-0.08781556207059656
2.339722275089435
-0.4528739288803611
-0.08781556207059656
2.339722275089435
-0.45242236614158104
-0.08788585498683427
2.3402775154628888
-0.45242236614158104
-0.08788585498683427
2.3402775154628888
-0.45242236614158104
-0.08788585498683427
2.3402775154628888
-0.45242236614158104
-0.08788585498683427
2.3402775154628888
-0.4535526237659797
-0.08810420952572966
2.340280182840432
-0.4535526237659797
-0.08810420952572966
2.340280182840432
-0.4535526237659797
-0.08810420952572966
2.340280182840432
-0.4535526237659797
-0.08810420952572966
2.340280182840432
-0.4552200673100532
-0.0887129260226497
2.340183530844535
-0.4552200673100532
-0.0887129260226497
2.340183530844535
-0.4552200673100532
-0.0887129260226497
2.340183530844535
-0.4552200673100532
-0.0887129260226497
2.340183530844535
-0.45562330322492245
-0.08914365509761951
2.3396921846167884
-0.45562330322492245
-0.08914365509761951
2.3396921846167884
-0.45562330322492245
-0.08914365509761951
2.3396921846167884
-0.45562330322492245
-0.08914365509761951
2.3396921846167884
-0.4536445005616166
-0.08920137965322861
2.3398632100197236
-0.4536445005616166
-0.08920137965322861
2.3398632100197236
-0.4536445005616166
-0.08920137965322861
2.3398632100197236
-0.4536445005616166
-0.08920137965322861
2.3398632100197236
-0.4514759726909621
-0.08922307429341263
2.3398017004979335
-0.4514759726909621
-0.08922307429341263
2.3398017004979335
-0.4514759726909621
-0.08922307429341263
2.3398017004979335
-0.4514759726909621
-0.08922307429341263
2.3398017004979335
-0.45134248142557293
-0.08916228234493893
2.3398315450105227
-0.45134248142557293
-0.08916228234493893
2.3398315450105227
-0.45134248142557293
-0.08916228234493893
2.3398315450105227
-0.45134248142557293
-0.08916228234493893
2.3398315450105227
-0.4524504800408124
-0.08950631445308627
2.3398125958363174
-0.4524504800408124
-0.08950631445308627
2.3398125958363174
-0.4534742374118555
-0.08996781094398876
2.3397523683772965
-0.4534742374118555
-0.08996781094398876
2.3397523683772965
-0.4534742374118555
-0.08996781094398876
2.3397523683772965
-0.4534742374118555
-0.08996781094398876
2.3397523683772965
-0.45284582064608225
-0.08989772895281886
2.33947655127504
-0.45284582064608225
-0.08989772895281886
2.33947655127504
-0.45284582064608225
-0.08989772895281886
2.33947655127504
-0.45284582064608225
-0.08989772895281886
2.33947655127504
-0.4513295386058067
-0.08967389546953493
2.3388289000313307
-0.4513295386058067
-0.08967389546953493
2.3388289000313307
-0.4513295386058067
-0.08967389546953493
2.3388289000313307
-0.4513295386058067
-0.08967389546953493
2.3388289000313307
-0.45072290517132074
-0.08957789064561372
2.3381536470310373
-0.45072290517132074
-0.08957789064561372
2.3381536470310373
-0.45072290517132074
-0.08957789064561372
2.3381536470310373
-0.45072290517132074
-0.08957789064561372
2.3381536470310373
-0.4512620087322605
-0.08967835508524694
2.337592098711463
-0.4512620087322605
-0.08967835508524694
2.337592098711463
-0.4512620087322605
-0.08967835508524694
2.337592098711463
-0.4512620087322605
-0.08967835508524694
2.337592098711463
-0.45175548453714753
-0.08988896330617874
2.337053724907782
-0.45175548453714753
-0.08988896330617874
2.337053724907782
-0.45175548453714753
-0.08988896330617874
2.337053724907782
-0.45175548453714753
-0.08988896330617874
2.337053724907782
-0.4518336019062024
-0.09008079623165115
2.336426815204271
-0.4518336019062024
-0.09008079623165115
2.336426815204271
-0.4518336019062024
-0.09008079623165115
2.336426815204271
-0.4518336019062024
-0.09008079623165115
2.336426815204271
-0.4515244795839621
-0.08991933873833044
2.3359801979913097
-0.4515244795839621
-0.08991933873833044
2.3359801979913097
-0.4515244795839621
-0.08991933873833044
2.3359801979913097
-0.4515244795839621
-0.08991933873833044
2.3359801979913097
-0.4513105088415091
-0.09040461866948529
2.3358520569637977
-0.4513105088415091
-0.09040461866948529
2.3358520569637977
-0.4513105088415091
-0.09040461866948529
2.3358520569637977
-0.4513105088415091
-0.09040461866948529
2.3358520569637977
-0.45145447052723936
-0.09079247114935476
2.3356178285176536
-0.45145447052723936
-0.09079247114935476
2.3356178285176536
-0.45145447052723936
-0.09079247114935476
2.3356178285176536
-0.45145447052723936
-0.09079247114935476
2.3356178285176536
-0.45243898388490217
-0.09140458148391128
2.335425314671584
-0.45243898388490217
-0.09140458148391128
2.335425314671584
-0.45243898388490217
-0.09140458148391128
2.335425314671584
-0.45243898388490217
-0.09140458148391128
2.335425314671584
-0.45357622091924427
-0.09166444325068393
2.3352741345336
-0.45357622091924427
-0.09166444325068393
2.3352741345336
-0.45357622091924427
-0.09166444325068393
2.3352741345336
-0.45357622091924427
-0.09166444325068393
2.3352741345336
-0.4537054284238048
-0.09197492146569951
2.335352185123453
-0.4537054284238048
-0.09197492146569951
2.335352185123453
-0.4537054284238048
-0.09197492146569951
2.335352185123453
-0.4537054284238048
-0.09197492146569951
2.335352185123453
-0.45381530530141345
-0.09269906307477858
2.3353597982533953
-0.45381530530141345
-0.09269906307477858
2.3353597982533953
-0.45381530530141345
-0.09269906307477858
2.3353597982533953
-0.45381530530141345
-0.09269906307477858
2.3353597982533953
-0.45374858971932014
-0.09283361004198214
2.3357825586482472
-0.45374858971932014
-0.09283361004198214
2.3357825586482472
-0.45374858971932014
-0.09283361004198214
2.3357825586482472
-0.45374858971932014
-0.09283361004198214
2.3357825586482472
-0.45374858971932014
-0.09283361004198214
2.3357825586482472
-0.45374858971932014
-0.09283361004198214
2.3357825586482472
-0.45374858971932014
-0.09283361004198214
2.3357825586482472
-0.45374858971932014
-0.09283361004198214
2.3357825586482472
-0.4536046890858923
-0.09244541706140535
2.3360162078278126
-0.4536046890858923
-0.09244541706140535
2.3360162078278126
-0.4536046890858923
-0.09244541706140535
2.3360162078278126
-0.4536046890858923
-0.09244541706140535
2.3360162078278126
-0.4534923961939901
-0.09201113764574444
2.336470434416694
-0.4534923961939901
-0.09201113764574444
2.336470434416694
-0.4534923961939901
-0.09201113764574444
2.336470434416694
-0.4534923961939901
-0.09201113764574444
2.336470434416694
-0.4523601349429803
-0.09140210874880203
2.3369358195331107
-0.4523601349429803
-0.09140210874880203
2.3369358195331107
-0.4523601349429803
-0.09140210874880203
2.3369358195331107
-0.4523601349429803
-0.09140210874880203
2.3369358195331107
-0.45103296096818846
-0.0908654106544128
2.337344503922928
-0.45103296096818846
-0.0908654106544128
2.337344503922928
-0.45103296096818846
-0.0908654106544128
2.337344503922928
-0.45103296096818846
-0.0908654106544128
2.337344503922928
-0.4509226515606059
-0.09082003567854022
2.337328797884162
-0.4509226515606059
-0.09082003567854022
2.337328797884162
-0.4509226515606059
-0.09082003567854022
2.337328797884162
-0.4509226515606059
-0.09082003567854022
2.337328797884162
-0.4509226515606059
-0.09082003567854022
2.337328797884162
-0.4509226515606059
-0.09082003567854022
2.337328797884162
-0.4509226515606059
-0.09082003567854022
2.337328797884162
-0.4509226515606059
-0.09082003567854022
2.337328797884162
-0.4509226515606059
-0.09082003567854022
2.337328797884162
-0.4509226515606059
-0.09082003567854022
2.337328797884162
-0.4509226515606059
-0.09082003567854022
2.337328797884162
-0.4509226515606059
-0.09082003567854022
2.337328797884162
-0.45025339236542167
-0.09050917104814706
2.337390556928909
-0.45025339236542167
-0.09050917104814706
2.337390556928909
-0.45025339236542167
-0.09050917104814706
2.337390556928909
-0.45025339236542167
-0.09050917104814706
2.337390556928909
-0.45025339236542167
-0.09050917104814706
2.337390556928909
-0.45025339236542167
-0.09050917104814706
2.337390556928909
-0.45025339236542167
-0.09050917104814706
2.337390556928909
-0.45025339236542167
-0.09050917104814706
2.337390556928909
-0.45079317052657825
-0.09050955969716257
2.337251276665074
-0.45079317052657825
-0.09050955969716257
2.337251276665074
-0.45079317052657825
-0.09050955969716257
2.337251276665074
-0.45079317052657825
-0.09050955969716257
2.337251276665074
-0.45090347802776687
-0.09055494514054999
2.3372669635693235
-0.45090347802776687
-0.09055494514054999
2.3372669635693235
-0.45090347802776687
-0.09055494514054999
2.3372669635693235
-0.45090347802776687
-0.09055494514054999
2.3372669635693235
-0.45092655007747484
-0.09057057146811126
2.337221390555472
-0.45092655007747484
-0.09057057146811126
2.337221390555472
-0.45092655007747484
-0.09057057146811126
2.337221390555472
-0.45092655007747484
-0.09057057146811126
2.337221390555472
-0.4510368606512073
-0.09061595853513418
2.3372370849071022
-0.4510368606512073
-0.09061595853513418
2.3372370849071022
-0.4510368606512073
-0.09061595853513418
2.3372370849071022
-0.4510368606512073
-0.09061595853513418
2.3372370849071022
-0.4510368606512073
-0.09061595853513418
2.3372370849071022
-0.4510368606512073
-0.09061595853513418
2.3372370849071022
-0.4510368606512073
-0.09061595853513418
2.3372370849071022
-0.4510368606512073
-0.09061595853513418
2.3372370849071022
-0.4511471693945662
-0.09066134264319468
2.3372527839235806
-0.4511471693945662
-0.09066134264319468
2.3372527839235806
-0.4511471693945662
-0.09066134264319468
2.3372527839235806
-0.4511471693945662
-0.09066134264319468
2.3372527839235806
-0.4511471693945662
-0.09066134264319468
2.3372527839235806
-0.4511471693945662
-0.09066134264319468
2.3372527839235806
-0.4511471693945662
-0.09066134264319468
2.3372527839235806
-0.4511471693945662
-0.09066134264319468
2.3372527839235806
-0.450621684373659
-0.09127565034266043
2.3371390973198527
-0.450621684373659
-0.09127565034266043
2.3371390973198527
-0.450621684373659
-0.09127565034266043
2.3371390973198527
-0.450621684373659
-0.09127565034266043
2.3371390973198527
-0.4508232269931747
-0.0917799889128491
2.3370995479649546
-0.4508232269931747
-0.0917799889128491
2.3370995479649546
-0.4508232269931747
-0.0917799889128491
2.3370995479649546
-0.4508232269931747
-0.0917799889128491
2.3370995479649546
-0.4514857053326781
-0.09219350319642258
2.3371261366386515
-0.4514857053326781
-0.09219350319642258
2.3371261366386515
-0.4514857053326781
-0.09219350319642258
2.3371261366386515
-0.4514857053326781
-0.09219350319642258
2.3371261366386515
-0.45255447662251297
-0.09254641147226716
2.337043987400349
-0.45255447662251297
-0.09254641147226716
2.337043987400349
-0.45255447662251297
-0.09254641147226716
2.337043987400349
-0.45255447662251297
-0.09254641147226716
2.337043987400349
-0.4526106447622278
-0.09276342127447161
2.336816780090545
-0.4526106447622278
-0.09276342127447161
2.336816780090545
-0.4526106447622278
-0.09276342127447161
2.336816780090545
-0.4526106447622278
-0.09276342127447161
2.336816780090545
-0.4526106447622278
-0.09276342127447161
2.336816780090545
-0.4526106447622278
-0.09276342127447161
2.336816780090545
-0.4526106447622278
-0.09276342127447161
2.336816780090545
-0.4526106447622278
-0.09276342127447161
2.336816780090545
-0.45275602098650547
-0.09305078866487386
2.3370050522888333
-0.45275602098650547
-0.09305078866487386
2.3370050522888333
-0.45275602098650547
-0.09305078866487386
2.3370050522888333
-0.45275602098650547
-0.09305078866487386
2.3370050522888333
-0.4532449289163447
-0.09316304426526623
2.3373995253969393
-0.4532449289163447
-0.09316304426526623
2.3373995253969393
-0.4532449289163447
-0.09316304426526623
2.3373995253969393
-0.4532449289163447
-0.09316304426526623
2.3373995253969393
-0.4532432699450632
-0.0934529419044994
2.337861339303032
-0.4532432699450632
-0.0934529419044994
2.337861339303032
-0.4532432699450632
-0.0934529419044994
2.337861339303032
-0.4532432699450632
-0.0934529419044994
2.337861339303032
-0.45409002017420325
-0.09400460801917336
2.3382102349682454
-0.45409002017420325
-0.09400460801917336
2.3382102349682454
-0.45409002017420325
-0.09400460801917336
2.3382102349682454
-0.45409002017420325
-0.09400460801917336
2.3382102349682454
-0.454245819858134
-0.0939400181943376
2.338202995052216
-0.454245819858134
-0.0939400181943376
2.338202995052216
-0.454245819858134
-0.0939400181943376
2.338202995052216
-0.454245819858134
-0.0939400181943376
2.338202995052216
-0.4534097596433674
-0.09390434062451455
2.3385339564368706
-0.4534097596433674
-0.09390434062451455
2.3385339564368706
-0.4534097596433674
-0.09390434062451455
2.3385339564368706
-0.4534097596433674
-0.09390434062451455
2.3385339564368706
-0.4531227688112474
-0.09394864560894475
2.3389249214657353
-0.4531227688112474
-0.09394864560894475
2.3389249214657353
-0.4531227688112474
-0.09394864560894475
2.3389249214657353
-0.4531227688112474
-0.09394864560894475
2.3389249214657353
-0.4541638576113662
-0.09428636708038286
2.3393993905474257
-0.4541638576113662
-0.09428636708038286
2.3393993905474257
-0.4541638576113662
-0.09428636708038286
2.3393993905474257
-0.4541638576113662
-0.09428636708038286
2.3393993905474257
-0.4541638576113662
-0.09428636708038286
2.3393993905474257
-0.4541638576113662
-0.09428636708038286
2.3393993905474257
-0.4541638576113662
-0.09428636708038286
2.3393993905474257
-0.4541638576113662
-0.09428636708038286
2.3393993905474257
-0.45357793030431937
-0.09371759719913623
2.3395690080069054
-0.45357793030431937
-0.09371759719913623
2.3395690080069054
-0.45357793030431937
-0.09371759719913623
2.3395690080069054
-0.45357793030431937
-0.09371759719913623
2.3395690080069054
-0.4528938551199391
-0.09332987219184086
2.3399410130457534
-0.4528938551199391
-0.09332987219184086
2.3399410130457534
-0.4528938551199391
-0.09332987219184086
2.3399410130457534
-0.4528938551199391
-0.09332987219184086
2.3399410130457534
-0.45178918012341696
-0.09273649203512696
2.3398503694885266
-0.45178918012341696
-0.09273649203512696
2.3398503694885266
-0.45178918012341696
-0.09273649203512696
2.3398503694885266
-0.45178918012341696
-0.09273649203512696
2.3398503694885266
-0.4503443279511493
-0.09192756044662788
2.3395147970818138
-0.4503443279511493
-0.09192756044662788
2.3395147970818138
-0.4503443279511493
-0.09192756044662788
2.3395147970818138
-0.4503443279511493
-0.09192756044662788
2.3395147970818138
-0.45000324224755406
-0.0904959727647862
2.33922012702671
-0.45000324224755406
-0.0904959727647862
2.33922012702671
-0.45000324224755406
-0.0904959727647862
2.33922012702671
-0.45000324224755406
-0.0904959727647862
2.33922012702671
-0.4507166389369897
-0.08880149216495588
2.3390946800879484
-0.4507166389369897
-0.08880149216495588
2.3390946800879484
-0.4507166389369897
-0.08880149216495588
2.3390946800879484
-0.4507166389369897
-0.08880149216495588
2.3390946800879484
-0.45019288463398777
-0.08655210781153802
2.338489441952831
-0.45019288463398777
-0.08655210781153802
2.338489441952831
-0.45019288463398777
-0.08655210781153802
2.338489441952831
-0.45019288463398777
-0.08655210781153802
2.338489441952831
-0.44600613024373487
-0.08284645260453988
2.338467360616901
-0.44600613024373487
-0.08284645260453988
2.338467360616901
-0.44600613024373487
-0.08284645260453988
2.338467360616901
-0.44600613024373487
-0.08284645260453988
2.338467360616901
-0.4425462388626658
-0.07862335350354269
2.336302634873186
-0.4425462388626658
-0.07862335350354269
2.336302634873186
-0.4425462388626658
-0.07862335350354269
2.336302634873186
-0.4425462388626658
-0.07862335350354269
2.336302634873186
-0.43976970851810926
-0.07381786571883696
2.3343449190503613
-0.43976970851810926
-0.07381786571883696
2.3343449190503613
-0.43976970851810926
-0.07381786571883696
2.3343449190503613
-0.43976970851810926
-0.07381786571883696
2.3343449190503613
-0.44154124436022346
-0.06793913557091458
2.332089339482499
-0.44154124436022346
-0.06793913557091458
2.332089339482499
-0.44154124436022346
-0.06793913557091458
2.332089339482499
-0.44154124436022346
-0.06793913557091458
2.332089339482499
-0.44690661661826586
-0.06343148692340128
2.3317073796550036
-0.44690661661826586
-0.06343148692340128
2.3317073796550036
-0.44690661661826586
-0.06343148692340128
2.3317073796550036
-0.44690661661826586
-0.06343148692340128
2.3317073796550036
-0.4489013180522518
-0.059919608937097336
2.330146723704597
-0.4489013180522518
-0.059919608937097336
2.330146723704597
-0.4489013180522518
-0.059919608937097336
2.330146723704597
-0.4489013180522518
-0.059919608937097336
2.330146723704597
-0.4496367451131087
-0.055836199996477036
2.328675899058184
-0.4496367451131087
-0.055836199996477036
2.328675899058184
-0.4496367451131087
-0.055836199996477036
2.328675899058184
-0.4496367451131087
-0.055836199996477036
2.328675899058184
-0.44779653559276583
-0.05180115304770762
2.3268349330793834
-0.44779653559276583
-0.05180115304770762
2.3268349330793834
-0.44779653559276583
-0.05180115304770762
2.3268349330793834
-0.44779653559276583
-0.05180115304770762
2.3268349330793834
-0.44182823313422315
-0.04881661491923325
2.3249782793295224
-0.44182823313422315
-0.04881661491923325
2.3249782793295224
-0.44182823313422315
-0.04881661491923325
2.3249782793295224
-0.44182823313422315
-0.04881661491923325
2.3249782793295224
-0.4387760308583434
-0.04731299894564759
2.323354914268866
-0.4387760308583434
-0.04731299894564759
2.323354914268866
-0.4387760308583434
-0.04731299894564759
2.323354914268866
-0.4387760308583434
-0.04731299894564759
2.323354914268866
-0.437640503151634
-0.04677865808141488
2.322965075410354
-0.437640503151634
-0.04677865808141488
2.322965075410354
-0.437640503151634
-0.04677865808141488
2.322965075410354
-0.437640503151634
-0.04677865808141488
2.322965075410354
-0.4389135895015019
-0.047044075324048536
2.323018920031194
-0.4389135895015019
-0.047044075324048536
2.323018920031194
-0.4389135895015019
-0.047044075324048536
2.323018920031194
-0.4389135895015019
-0.047044075324048536
2.323018920031194
-0.4423106483699842
-0.047995958147730625
2.3230145538391116
-0.4423106483699842
-0.047995958147730625
2.3230145538391116
-0.4423106483699842
-0.047995958147730625
2.3230145538391116
-0.4423106483699842
-0.047995958147730625
2.3230145538391116
-0.44310332215356196
-0.049111412789031646
2.322626020771809
-0.44310332215356196
-0.049111412789031646
2.322626020771809
-0.44310332215356196
-0.049111412789031646
2.322626020771809
-0.44310332215356196
-0.049111412789031646
2.322626020771809
-0.4419001844267732
-0.05000553285205035
2.322388316333689
-0.4419001844267732
-0.05000553285205035
2.322388316333689
-0.4419001844267732
-0.05000553285205035
2.322388316333689
-0.4419001844267732
-0.05000553285205035
2.322388316333689
-0.44141220010584936
-0.0508946278685033
2.322295600378829
-0.44141220010584936
-0.0508946278685033
2.322295600378829
-0.44141220010584936
-0.0508946278685033
2.322295600378829
-0.44141220010584936
-0.0508946278685033
2.322295600378829
-0.4422014807750134
-0.051853253633763106
2.32259632208502
-0.4422014807750134
-0.051853253633763106
2.32259632208502
-0.4422014807750134
-0.051853253633763106
2.32259632208502
-0.4422014807750134
-0.051853253633763106
2.32259632208502
-0.4445308687927863
-0.05306118198135856
2.3229600064022753
-0.4445308687927863
-0.05306118198135856
2.3229600064022753
-0.4445308687927863
-0.05306118198135856
2.3229600064022753
-0.4445308687927863
-0.05306118198135856
2.3229600064022753
-0.44602642265771947
-0.05370923736402859
2.3229972392674396
-0.44602642265771947
-0.05370923736402859
2.3229972392674396
-0.44602642265771947
-0.05370923736402859
2.3229972392674396
-0.44602642265771947
-0.05370923736402859
2.3229972392674396
-0.4462488257155112
-0.05435910222265522
2.323545294396668
-0.4462488257155112
-0.05435910222265522
2.323545294396668
-0.4462488257155112
-0.05435910222265522
2.323545294396668
-0.4462488257155112
-0.05435910222265522
2.323545294396668
-0.44610819394470735
-0.055304731682960205
2.3238704986015377
-0.44610819394470735
-0.055304731682960205
2.3238704986015377
-0.44610819394470735
-0.055304731682960205
2.3238704986015377
-0.44610819394470735
-0.055304731682960205
2.3238704986015377
-0.4461950985434475
-0.056730613374416296
2.323752009506275
-0.4461950985434475
-0.056730613374416296
2.323752009506275
-0.4461950985434475
-0.056730613374416296
2.323752009506275
-0.4461950985434475
-0.056730613374416296
2.323752009506275
-0.44701886125316453
-0.05760179763821147
2.323924235664262
-0.44701886125316453
-0.05760179763821147
2.323924235664262
-0.44701886125316453
-0.05760179763821147
2.323924235664262
-0.44701886125316453
-0.05760179763821147
2.323924235664262
-0.44802479861085703
-0.058690873987148576
2.3246108833692025
-0.44802479861085703
-0.058690873987148576
2.3246108833692025
-0.44802479861085703
-0.058690873987148576
2.3246108833692025
-0.44802479861085703
-0.058690873987148576
2.3246108833692025
-0.448342900133513
-0.05973792341506384
2.3253685965395796
-0.448342900133513
-0.05973792341506384
2.3253685965395796
-0.448342900133513
-0.05973792341506384
2.3253685965395796
-0.448342900133513
-0.05973792341506384
2.3253685965395796
-0.44912163664005167
-0.060695476409971416
2.326185167837993
-0.44912163664005167
-0.060695476409971416
2.326185167837993
-0.44912163664005167
-0.060695476409971416
2.326185167837993
-0.44912163664005167
-0.060695476409971416
2.326185167837993
-0.4488751222273146
-0.061106865559974965
2.32688124975179
-0.4488751222273146
-0.061106865559974965
2.32688124975179
-0.4488751222273146
-0.061106865559974965
2.32688124975179
-0.4488751222273146
-0.061106865559974965
2.32688124975179
-0.4485056207256505
-0.061633301826732635
2.3273839622267873
-0.4485056207256505
-0.061633301826732635
2.3273839622267873
-0.4485056207256505
-0.061633301826732635
2.3273839622267873
-0.4485056207256505
-0.061633301826732635
2.3273839622267873
-0.4479719173189696
-0.061857511374943955
2.3277479095996747
-0.4479719173189696
-0.061857511374943955
2.3277479095996747
-0.4479719173189696
-0.061857511374943955
2.3277479095996747
-0.4479719173189696
-0.061857511374943955
2.3277479095996747
-0.44797407311166426
-0.06231511925584007
2.3286914857516248
-0.44797407311166426
-0.06231511925584007
2.3286914857516248
-0.44797407311166426
-0.06231511925584007
2.3286914857516248
-0.44797407311166426
-0.06231511925584007
2.3286914857516248
-0.4476479276223304
-0.06376990559330732
2.3305255226715875
-0.4476479276223304
-0.06376990559330732
2.3305255226715875
-0.4476479276223304
-0.06376990559330732
2.3305255226715875
-0.4476479276223304
-0.06376990559330732
2.3305255226715875
-0.44847633220908845
-0.0654627725775377
2.332302515046534
-0.44847633220908845
-0.0654627725775377
2.332302515046534
-0.44847633220908845
-0.0654627725775377
2.332302515046534
-0.44847633220908845
-0.0654627725775377
2.332302515046534
-0.451968821783735
-0.0667345925979257
2.3333185738889677
-0.451968821783735
-0.0667345925979257
2.3333185738889677
-0.451968821783735
-0.0667345925979257
2.3333185738889677
-0.451968821783735
-0.0667345925979257
2.3333185738889677
-0.4542195139901218
-0.06711853183568298
2.334075396267564
-0.4542195139901218
-0.06711853183568298
2.334075396267564
-0.4542195139901218
-0.06711853183568298
2.334075396267564
-0.4542195139901218
-0.06711853183568298
2.334075396267564
-0.4533125952584681
-0.06783230255240891
2.335097933680911
-0.4533125952584681
-0.06783230255240891
2.335097933680911
-0.4533125952584681
-0.06783230255240891
2.335097933680911
-0.4533125952584681
-0.06783230255240891
2.335097933680911
-0.4540081870318192
-0.06832541113412055
2.3359763747040265
-0.4540081870318192
-0.06832541113412055
2.3359763747040265
-0.4540081870318192
-0.06832541113412055
2.3359763747040265
-0.4540081870318192
-0.06832541113412055
2.3359763747040265
-0.4583547224237074
-0.0688212467878304
2.3371982736579264
-0.4583547224237074
-0.0688212467878304
2.3371982736579264
-0.4583547224237074
-0.0688212467878304
2.3371982736579264
-0.4583547224237074
-0.0688212467878304
2.3371982736579264
-0.46367522103438774
-0.06959567514709131
2.338425027157682
-0.46367522103438774
-0.06959567514709131
2.338425027157682
-0.46367522103438774
-0.06959567514709131
2.338425027157682
-0.46367522103438774
-0.06959567514709131
2.338425027157682
-0.4671609621946157
-0.07033432099306244
2.3392850791820066
-0.4671609621946157
-0.07033432099306244
2.3392850791820066
-0.4671609621946157
-0.07033432099306244
2.3392850791820066
-0.4671609621946157
-0.07033432099306244
2.3392850791820066
-0.46837738991895533
-0.07107642906062672
2.3389620118986176
-0.46837738991895533
-0.07107642906062672
2.3389620118986176
-0.46837738991895533
-0.07107642906062672
2.3389620118986176
-0.46837738991895533
-0.07107642906062672
2.3389620118986176
-0.465315070788678
-0.07170610469557878
2.339856969276096
-0.465315070788678
-0.07170610469557878
2.339856969276096
-0.465315070788678
-0.07170610469557878
2.339856969276096
-0.465315070788678
-0.07170610469557878
2.339856969276096
-0.4602924046692653
-0.07327974778625672
2.3395799261466235
-0.4602924046692653
-0.07327974778625672
2.3395799261466235
-0.4602924046692653
-0.07327974778625672
2.3395799261466235
-0.4602924046692653
-0.07327974778625672
2.3395799261466235
-0.4561485697553122
-0.07323469938076543
2.3407637365635807
-0.4561485697553122
-0.07323469938076543
2.3407637365635807
-0.4561485697553122
-0.07323469938076543
2.3407637365635807
-0.4561485697553122
-0.07323469938076543
2.3407637365635807
-0.4552567120835043
-0.07314812412543825
2.3423236107351753
-0.4552567120835043
-0.07314812412543825
2.3423236107351753
-0.4552567120835043
-0.07314812412543825
2.3423236107351753
-0.4552567120835043
-0.07314812412543825
2.3423236107351753
-0.45711430592880836
-0.0725514540481271
2.3430122317599826
-0.45711430592880836
-0.0725514540481271
2.3430122317599826
-0.45711430592880836
-0.0725514540481271
2.3430122317599826
-0.45711430592880836
-0.0725514540481271
2.3430122317599826
-0.45869019877253686
-0.07234810394145406
2.34327095934389
-0.45869019877253686
-0.07234810394145406
2.34327095934389
-0.45869019877253686
-0.07234810394145406
2.34327095934389
-0.45869019877253686
-0.07234810394145406
2.34327095934389
-0.45961917593228285
-0.07273952258667123
2.3432986411120393
-0.45961917593228285
-0.07273952258667123
2.3432986411120393
-0.45961917593228285
-0.07273952258667123
2.3432986411120393
-0.45961917593228285
-0.07273952258667123
2.3432986411120393
-0.4613114306653415
-0.07389972538487774
2.3432070603759962
-0.4613114306653415
-0.07389972538487774
2.3432070603759962
-0.4613114306653415
-0.07389972538487774
2.3432070603759962
-0.4613114306653415
-0.07389972538487774
2.3432070603759962
-0.46052231302927515
-0.07488709888269399
2.34278245837106
-0.46052231302927515
-0.07488709888269399
2.34278245837106
-0.46052231302927515
-0.07488709888269399
2.34278245837106
-0.46052231302927515
-0.07488709888269399
2.34278245837106
-0.4578355185079779
-0.07513787164641429
2.342588621055972
-0.4578355185079779
-0.07513787164641429
2.342588621055972
-0.4578355185079779
-0.07513787164641429
2.342588621055972
-0.4578355185079779
-0.07513787164641429
2.342588621055972
-0.4571320091614183
-0.07561591061297554
2.342161889105017
-0.4571320091614183
-0.07561591061297554
2.342161889105017
-0.4571320091614183
-0.07561591061297554
2.342161889105017
-0.4571320091614183
-0.07561591061297554
2.342161889105017
-0.4590787729882054
-0.0765314185068575
2.3418592256686788
-0.4590787729882054
-0.0765314185068575
2.3418592256686788
-0.4590787729882054
-0.0765314185068575
2.3418592256686788
-0.4590787729882054
-0.0765314185068575
2.3418592256686788
-0.4604267468385674
-0.07722929966804563
2.3419278233120115
-0.4604267468385674
-0.07722929966804563
2.3419278233120115
-0.4604267468385674
-0.07722929966804563
2.3419278233120115
-0.4604267468385674
-0.07722929966804563
2.3419278233120115
-0.45996875654828884
-0.07800040142333418
2.341859726120277
-0.45996875654828884
-0.07800040142333418
2.341859726120277
-0.45996875654828884
-0.07800040142333418
2.341859726120277
-0.45996875654828884
-0.07800040142333418
2.341859726120277
-0.45768088828579956
-0.07829088668505237
2.341637754766736
-0.45768088828579956
-0.07829088668505237
2.341637754766736
-0.45768088828579956
-0.07829088668505237
2.341637754766736
-0.45768088828579956
-0.07829088668505237
2.341637754766736
-0.4565380737025718
-0.07819761816811213
2.3411086272902244
-0.4565380737025718
-0.07819761816811213
2.3411086272902244
-0.4565380737025718
-0.07819761816811213
2.3411086272902244
-0.4565380737025718
-0.07819761816811213
2.3411086272902244
-0.45750825099820325
-0.0781527824142272
2.3408082241765946
-0.45750825099820325
-0.0781527824142272
2.3408082241765946
-0.45750825099820325
-0.0781527824142272
2.3408082241765946
-0.45750825099820325
-0.0781527824142272
2.3408082241765946
-0.458821986630983
-0.07803318542234285
2.3402894274927286
-0.458821986630983
-0.07803318542234285
2.3402894274927286
-0.458821986630983
-0.07803318542234285
2.3402894274927286
-0.458821986630983
-0.07803318542234285
2.3402894274927286
-0.4583520720749566
-0.07732208812674267
2.3395937962815734
-0.4583520720749566
-0.07732208812674267
2.3395937962815734
-0.4583520720749566
-0.07732208812674267
2.3395937962815734
-0.4583520720749566
-0.07732208812674267
2.3395937962815734
-0.45767552729883765
-0.07635630411096507
2.3390458745363647
-0.45767552729883765
-0.07635630411096507
2.3390458745363647
-0.45767552729883765
-0.07635630411096507
2.3390458745363647
-0.45767552729883765
-0.07635630411096507
2.3390458745363647
-0.458567371919771
-0.07564262834259851
2.3385348860373467
-0.458567371919771
-0.07564262834259851
2.3385348860373467
-0.458567371919771
-0.07564262834259851
2.3385348860373467
-0.458567371919771
-0.07564262834259851
2.3385348860373467
-0.4594445864514563
-0.07495318604914844
2.3379132195020578
-0.4594445864514563
-0.07495318604914844
2.3379132195020578
-0.4594445864514563
-0.07495318604914844
2.3379132195020578
-0.4594445864514563
-0.07495318604914844
2.3379132195020578
-0.4602675912150624
-0.07433514454717223
2.337470572851024
-0.4602675912150624
-0.07433514454717223
2.337470572851024
-0.4602675912150624
-0.07433514454717223
2.337470572851024
-0.4602675912150624
-0.07433514454717223
2.337470572851024
-0.46141706328219023
-0.07356529030804214
2.3371193709126654
-0.46141706328219023
-0.07356529030804214
2.3371193709126654
-0.46141706328219023
-0.07356529030804214
2.3371193709126654
-0.46141706328219023
-0.07356529030804214
2.3371193709126654
-0.46245010689878296
-0.07285087360723701
2.336840709242029
-0.46245010689878296
-0.07285087360723701
2.336840709242029
-0.46245010689878296
-0.07285087360723701
2.336840709242029
-0.46245010689878296
-0.07285087360723701
2.336840709242029
-0.4631401561231362
-0.07285180377342468
2.3364220772876356
-0.4631401561231362
-0.07285180377342468
2.3364220772876356
-0.4631401561231362
-0.07285180377342468
2.3364220772876356
-0.4631401561231362
-0.07285180377342468
2.3364220772876356
-0.4635854672222501
-0.07278422900475841
2.336373076851272
-0.4635854672222501
-0.07278422900475841
2.336373076851272
-0.4635854672222501
-0.07278422900475841
2.336373076851272
-0.4635854672222501
-0.07278422900475841
2.336373076851272
-0.46422344952812716
-0.07318225941954305
2.3364416341784606
-0.46422344952812716
-0.07318225941954305
2.3364416341784606
-0.46422344952812716
-0.07318225941954305
2.3364416341784606
-0.46422344952812716
-0.07318225941954305
2.3364416341784606
-0.46481288587684005
-0.07407928943760492
2.3365766515224413
-0.46481288587684005
-0.07407928943760492
2.3365766515224413
-0.46481288587684005
-0.07407928943760492
2.3365766515224413
-0.46481288587684005
-0.07407928943760492
2.3365766515224413
-0.4643009386166601
-0.07456769680882772
2.3370026828220842
-0.4643009386166601
-0.07456769680882772
2.3370026828220842
-0.4643009386166601
-0.07456769680882772
2.3370026828220842
-0.4643009386166601
-0.07456769680882772
2.3370026828220842
-0.4634718827181779
-0.07524779361645921
2.3371808896434767
-0.4634718827181779
-0.07524779361645921
2.3371808896434767
-0.4634718827181779
-0.07524779361645921
2.3371808896434767
-0.4634718827181779
-0.07524779361645921
2.3371808896434767
-0.4628539436030101
-0.07597996983020587
2.3375444419228355
-0.4628539436030101
-0.07597996983020587
2.3375444419228355
-0.4628539436030101
-0.07597996983020587
2.3375444419228355
-0.4628539436030101
-0.07597996983020587
2.3375444419228355
-0.46279245104860306
-0.07736828339154099
2.337869539362825
-0.46279245104860306
-0.07736828339154099
2.337869539362825
-0.46279245104860306
-0.07736828339154099
2.337869539362825
-0.46279245104860306
-0.07736828339154099
2.337869539362825
-0.4630173576995768
-0.07846418880723788
2.3382023542392827
-0.4630173576995768
-0.07846418880723788
2.3382023542392827
-0.4630173576995768
-0.07846418880723788
2.3382023542392827
-0.4630173576995768
-0.07846418880723788
2.3382023542392827
-0.4623936649243029
-0.07925967985383292
2.3382991421112975
-0.4623936649243029
-0.07925967985383292
2.3382991421112975
-0.4623936649243029
-0.07925967985383292
2.3382991421112975
-0.4623936649243029
-0.07925967985383292
2.3382991421112975
-0.4623227118412511
-0.08042239701100766
2.3384050682074444
-0.4623227118412511
-0.08042239701100766
2.3384050682074444
-0.4623227118412511
-0.08042239701100766
2.3384050682074444
-0.4623227118412511
-0.08042239701100766
2.3384050682074444
-0.4616356601022857
-0.08174135966423354
2.3384562712448655
-0.4616356601022857
-0.08174135966423354
2.3384562712448655
-0.4616356601022857
-0.08174135966423354
2.3384562712448655
-0.4616356601022857
-0.08174135966423354
2.3384562712448655
-0.46094371398906997
-0.08266981477675375
2.3389749763487977
-0.46094371398906997
-0.08266981477675375
2.3389749763487977
-0.46094371398906997
-0.08266981477675375
2.3389749763487977
-0.46094371398906997
-0.08266981477675375
2.3389749763487977
-0.46117241577030876
-0.08337609491496384
2.3392660683456126
-0.46117241577030876
-0.08337609491496384
2.3392660683456126
-0.46117241577030876
-0.08337609491496384
2.3392660683456126
-0.46117241577030876
-0.08337609491496384
2.3392660683456126
-0.4613975599132615
-0.08379376344734277
2.3396043286859394
-0.4613975599132615
-0.08379376344734277
2.3396043286859394
-0.4613975599132615
-0.08379376344734277
2.3396043286859394
-0.4613975599132615
-0.08379376344734277
2.3396043286859394
-0.46175184086270993
-0.08394503493511822
2.339605495221035
-0.46175184086270993
-0.08394503493511822
2.339605495221035
-0.46175184086270993
-0.08394503493511822
2.339605495221035
-0.46175184086270993
-0.08394503493511822
2.339605495221035
-0.46175184086270993
-0.08394503493511822
2.339605495221035
-0.46175184086270993
-0.08394503493511822
2.339605495221035
-0.46175184086270993
-0.08394503493511822
2.339605495221035
-0.46175184086270993
-0.08394503493511822
2.339605495221035
-0.46175184086270993
-0.08394503493511822
2.339605495221035
-0.46175184086270993
-0.08394503493511822
2.339605495221035
-0.46175184086270993
-0.08394503493511822
2.339605495221035
-0.46175184086270993
-0.08394503493511822
2.339605495221035
-0.4613245311298235
-0.08359953822681875
2.339720574394347
-0.4613245311298235
-0.08359953822681875
2.339720574394347
-0.4613245311298235
-0.08359953822681875
2.339720574394347
-0.4613245311298235
-0.08359953822681875
2.339720574394347
-0.46135396266888107
-0.08287349974754639
2.339946343499471
-0.46135396266888107
-0.08287349974754639
2.339946343499471
-0.46135396266888107
-0.08287349974754639
2.339946343499471
-0.46135396266888107
-0.08287349974754639
2.339946343499471
-0.4619877946721264
-0.08230311010718147
2.3400698396221546
-0.4619877946721264
-0.08230311010718147
2.3400698396221546
-0.4619877946721264
-0.08230311010718147
2.3400698396221546
-0.4619877946721264
-0.08230311010718147
2.3400698396221546
-0.46261072409596077
-0.08150710955841836
2.3399741384118125
-0.46261072409596077
-0.08150710955841836
2.3399741384118125
-0.46261072409596077
-0.08150710955841836
2.3399741384118125
-0.46261072409596077
-0.08150710955841836
2.3399741384118125
-0.4622479929412223
-0.0807404442989917
2.339712826354893
-0.4622479929412223
-0.0807404442989917
2.339712826354893
-0.4622479929412223
-0.0807404442989917
2.339712826354893
-0.4622479929412223
-0.0807404442989917
2.339712826354893
-0.4619740561234825
-0.08014406814268381
2.339445606283439
-0.4619740561234825
-0.08014406814268381
2.339445606283439
-0.4619740561234825
-0.08014406814268381
2.339445606283439
-0.4619740561234825
-0.08014406814268381
2.339445606283439
-0.46200037876486894
-0.07976950831012074
2.3393584908256897
-0.46200037876486894
-0.07976950831012074
2.3393584908256897
-0.46200037876486894
-0.07976950831012074
2.3393584908256897
-0.46200037876486894
-0.07976950831012074
2.3393584908256897
-0.46204585685431215
-0.07965976665416732
2.3393345534089396
-0.46204585685431215
-0.07965976665416732
2.3393345534089396
-0.46204585685431215
-0.07965976665416732
2.3393345534089396
-0.46204585685431215
-0.07965976665416732
2.3393345534089396
-0.4616725374274733
-0.07924367566665608
2.339270995145358
-0.4616725374274733
-0.07924367566665608
2.339270995145358
-0.4616725374274733
-0.07924367566665608
2.339270995145358
-0.4616725374274733
-0.07924367566665608
2.339270995145358
-0.4618281112654837
-0.07917928231424126
2.339262340882531
-0.4618281112654837
-0.07917928231424126
2.339262340882531
-0.4618281112654837
-0.07917928231424126
2.339262340882531
-0.4618281112654837
-0.07917928231424126
2.339262340882531
-0.4618281112654837
-0.07917928231424126
2.339262340882531
-0.4618281112654837
-0.07917928231424126
2.339262340882531
-0.4618281112654837
-0.07917928231424126
2.339262340882531
-0.4618281112654837
-0.07917928231424126
2.339262340882531
-0.46187360078990597
-0.07906954559769012
2.339238401407888
-0.46187360078990597
-0.07906954559769012
2.339238401407888
-0.46187360078990597
-0.07906954559769012
2.339238401407888
-0.46187360078990597
-0.07906954559769012
2.339238401407888
-0.46187360078990597
-0.07906954559769012
2.339238401407888
-0.46187360078990597
-0.07906954559769012
2.339238401407888
-0.46187360078990597
-0.07906954559769012
2.339238401407888
-0.46187360078990597
-0.07906954559769012
2.339238401407888
-0.4619343596120241
-0.07893593745800405
2.339324536584649
-0.4619343596120241
-0.07893593745800405
2.339324536584649
-0.4619343596120241
-0.07893593745800405
2.339324536584649
-0.4619343596120241
-0.07893593745800405
2.339324536584649
-0.462835107950328
-0.07902516787606488
2.339448134584919
-0.462835107950328
-0.07902516787606488
2.339448134584919
-0.462835107950328
-0.07902516787606488
2.339448134584919
-0.462835107950328
-0.07902516787606488
2.339448134584919
-0.46285910610230474
-0.07904041151864256
2.3394026604138127
-0.46285910610230474
-0.07904041151864256
2.3394026604138127
-0.46285910610230474
-0.07904041151864256
2.3394026604138127
-0.46285910610230474
-0.07904041151864256
2.3394026604138127
-0.4624659795340047
-0.07893586113769346
2.3396919024051783
-0.4624659795340047
-0.07893586113769346
2.3396919024051783
-0.4624659795340047
-0.07893586113769346
2.3396919024051783
-0.4624659795340047
-0.07893586113769346
2.3396919024051783
-0.46210730742142525
-0.07907235165403578
2.340154459094692
-0.46210730742142525
-0.07907235165403578
2.340154459094692
-0.46210730742142525
-0.07907235165403578
2.340154459094692
-0.46210730742142525
-0.07907235165403578
2.340154459094692
-0.4619303730724161
-0.07876993178390401
2.340521161460284
-0.4619303730724161
-0.07876993178390401
2.340521161460284
-0.4619303730724161
-0.07876993178390401
2.340521161460284
-0.4619303730724161
-0.07876993178390401
2.340521161460284
-0.4619303730724161
-0.07876993178390401
2.340521161460284
-0.4619303730724161
-0.07876993178390401
2.340521161460284
-0.4619303730724161
-0.07876993178390401
2.340521161460284
-0.4619303730724161
-0.07876993178390401
2.340521161460284
-0.46197579741747824
-0.07866016739428902
2.3404971974343027
-0.46197579741747824
-0.07866016739428902
2.3404971974343027
-0.46197579741747824
-0.07866016739428902
2.3404971974343027
-0.46197579741747824
-0.07866016739428902
2.3404971974343027
-0.46077911886260225
-0.0781848745887284
2.340881074536442
-0.46077911886260225
-0.0781848745887284
2.340881074536442
-0.46077911886260225
-0.0781848745887284
2.340881074536442
-0.46077911886260225
-0.0781848745887284
2.340881074536442
-0.4593598087996029
-0.0779707874843602
2.3409222473271303
-0.4593598087996029
-0.0779707874843602
2.3409222473271303
-0.4593598087996029
-0.0779707874843602
2.3409222473271303
-0.4593598087996029
-0.0779707874843602
2.3409222473271303
-0.45902286491666533
-0.07744482791782979
2.341345521693517
-0.45902286491666533
-0.07744482791782979
2.341345521693517
-0.45902286491666533
-0.07744482791782979
2.341345521693517
-0.45902286491666533
-0.07744482791782979
2.341345521693517
-0.460083940049957
-0.07615087482322677
2.3413156170055704
-0.460083940049957
-0.07615087482322677
2.3413156170055704
-0.460083940049957
-0.07615087482322677
2.3413156170055704
-0.460083940049957
-0.07615087482322677
2.3413156170055704
-0.4602455833772426
-0.07419165815625567
2.340747408174459
-0.4602455833772426
-0.07419165815625567
2.340747408174459
-0.4602455833772426
-0.07419165815625567
2.340747408174459
-0.4602455833772426
-0.07419165815625567
2.340747408174459
-0.4589854241415603
-0.07253308579170895
2.3392245470819373
-0.4589854241415603
-0.07253308579170895
2.3392245470819373
-0.4589854241415603
-0.07253308579170895
2.3392245470819373
-0.4589854241415603
-0.07253308579170895
2.3392245470819373
-0.4536985791560892
-0.06971410819904503
2.3380804750944737
-0.4536985791560892
-0.06971410819904503
2.3380804750944737
-0.4536985791560892
-0.06971410819904503
2.3380804750944737
-0.4536985791560892
-0.06971410819904503
2.3380804750944737
-0.44855846248134906
-0.06736650216287887
2.3375101032923724
-0.44855846248134906
-0.06736650216287887
2.3375101032923724
-0.44855846248134906
-0.06736650216287887
2.3375101032923724
-0.44855846248134906
-0.06736650216287887
2.3375101032923724
-0.4505832152543675
-0.0648147284739538
2.3376361046638
-0.4505832152543675
-0.0648147284739538
2.3376361046638
-0.4505832152543675
-0.0648147284739538
2.3376361046638
-0.4505832152543675
-0.0648147284739538
2.3376361046638
-0.4602401093571282
-0.061637763373502484
2.337672612726343
-0.4602401093571282
-0.061637763373502484
2.337672612726343
-0.4602401093571282
-0.061637763373502484
2.337672612726343
-0.4602401093571282
-0.061637763373502484
2.337672612726343
-0.46861165623626894
-0.05898224600087791
2.337698030475989
-0.46861165623626894
-0.05898224600087791
2.337698030475989
-0.46861165623626894
-0.05898224600087791
2.337698030475989
-0.46861165623626894
-0.05898224600087791
2.337698030475989
-0.46823930560337473
-0.056698304950986655
2.3369608447717
-0.46823930560337473
-0.056698304950986655
2.3369608447717
-0.46823930560337473
-0.056698304950986655
2.3369608447717
-0.46823930560337473
-0.056698304950986655
2.3369608447717
-0.4627450362030437
-0.05490600490395778
2.3346165862951445
-0.4627450362030437
-0.05490600490395778
2.3346165862951445
-0.4627450362030437
-0.05490600490395778
2.3346165862951445
-0.4627450362030437
-0.05490600490395778
2.3346165862951445
-0.45730720688404547
-0.05332042880141126
2.3337346797883867
-0.45730720688404547
-0.05332042880141126
2.3337346797883867
-0.45730720688404547
-0.05332042880141126
2.3337346797883867
-0.45730720688404547
-0.05332042880141126
2.3337346797883867
-0.4511046639679937
-0.05283072422754209
2.3336528266567615
-0.4511046639679937
-0.05283072422754209
2.3336528266567615
-0.4511046639679937
-0.05283072422754209
2.3336528266567615
-0.4511046639679937
-0.05283072422754209
2.3336528266567615
-0.4504720203702393
-0.052720145586861895
2.3335449320790644
-0.4504720203702393
-0.052720145586861895
2.3335449320790644
-0.4504720203702393
-0.052720145586861895
2.3335449320790644
-0.4504720203702393
-0.052720145586861895
2.3335449320790644
-0.45443345265204227
-0.05276494202920899
2.3331506390494425
-0.45443345265204227
-0.05276494202920899
2.3331506390494425
-0.45443345265204227
-0.05276494202920899
2.3331506390494425
-0.45443345265204227
-0.05276494202920899
2.3331506390494425
-0.4565518535219864
-0.052383081386620234
2.332870734650961
-0.4565518535219864
-0.052383081386620234
2.332870734650961
-0.4565518535219864
-0.052383081386620234
2.332870734650961
-0.4565518535219864
-0.052383081386620234
2.332870734650961
-0.45547639738865453
-0.051926479975375035
2.3333949428137823
-0.45547639738865453
-0.051926479975375035
2.3333949428137823
-0.45547639738865453
-0.051926479975375035
2.3333949428137823
-0.45547639738865453
-0.051926479975375035
2.3333949428137823
-0.45406420713320783
-0.05226176940434248
2.333978482800772
-0.45406420713320783
-0.05226176940434248
2.333978482800772
-0.45406420713320783
-0.05226176940434248
2.333978482800772
-0.45406420713320783
-0.05226176940434248
2.333978482800772
-0.4548066617710925
-0.052418060750540243
2.3341001278271434
-0.4548066617710925
-0.052418060750540243
2.3341001278271434
-0.4548066617710925
-0.052418060750540243
2.3341001278271434
-0.4548066617710925
-0.052418060750540243
2.3341001278271434
-0.45467936454715996
-0.05210674767955375
2.3340245468094696
-0.45467936454715996
-0.05210674767955375
2.3340245468094696
-0.45467936454715996
-0.05210674767955375
2.3340245468094696
-0.45467936454715996
-0.05210674767955375
2.3340245468094696
-0.45456960515386824
-0.0520606939094921
2.334010875425922
-0.45456960515386824
-0.0520606939094921
2.334010875425922
-0.45456960515386824
-0.0520606939094921
2.334010875425922
-0.45456960515386824
-0.0520606939094921
2.334010875425922
-0.45417723503691426
-0.052246087593407604
2.334257793606674
-0.45417723503691426
-0.052246087593407604
2.334257793606674
-0.45417723503691426
-0.052246087593407604
2.334257793606674
-0.45417723503691426
-0.052246087593407604
2.334257793606674
-0.4535926962619186
-0.05229148204686506
2.3346968656946068
-0.4535926962619186
-0.05229148204686506
2.3346968656946068
-0.4535926962619186
-0.05229148204686506
2.3346968656946068
-0.4535926962619186
-0.05229148204686506
2.3346968656946068
-0.45583421243530986
-0.05205735473476212
2.3351793946976196
-0.45583421243530986
-0.05205735473476212
2.3351793946976196
-0.45583421243530986
-0.05205735473476212
2.3351793946976196
-0.45583421243530986
-0.05205735473476212
2.3351793946976196
-0.4568277044694249
-0.05254600750438497
2.335500459572328
-0.4568277044694249
-0.05254600750438497
2.335500459572328
-0.4568277044694249
-0.05254600750438497
2.335500459572328
-0.4568277044694249
-0.05254600750438497
2.335500459572328
-0.45623033577645766
-0.05364460016771519
2.3355091138300894
-0.45623033577645766
-0.05364460016771519
2.3355091138300894
-0.45623033577645766
-0.05364460016771519
2.3355091138300894
-0.45623033577645766
-0.05364460016771519
2.3355091138300894
-0.4554628294719759
-0.05447977799915337
2.335730984271516
-0.4554628294719759
-0.05447977799915337
2.335730984271516
-0.4554628294719759
-0.05447977799915337
2.335730984271516
-0.4554628294719759
-0.05447977799915337
2.335730984271516
-0.45560476448897863
-0.05511805749868668
2.3356032604360446
-0.45560476448897863
-0.05511805749868668
2.3356032604360446
-0.45560476448897863
-0.05511805749868668
2.3356032604360446
-0.45560476448897863
-0.05511805749868668
2.3356032604360446
-0.45707257186764166
-0.05584192114282554
2.335779695636557
-0.45707257186764166
-0.05584192114282554
2.335779695636557
-0.45707257186764166
-0.05584192114282554
2.335779695636557
-0.45707257186764166
-0.05584192114282554
2.335779695636557
-0.45789100880037004
-0.05699556873704287
2.336417893145214
-0.45789100880037004
-0.05699556873704287
2.336417893145214
-0.45789100880037004
-0.05699556873704287
2.336417893145214
-0.45789100880037004
-0.05699556873704287
2.336417893145214
-0.45732009330578566
-0.05823516592012303
2.33701927427626
-0.45732009330578566
-0.05823516592012303
2.33701927427626
-0.45732009330578566
-0.05823516592012303
2.33701927427626
-0.45732009330578566
-0.05823516592012303
2.33701927427626
-0.45580440615434914
-0.06085272925546531
2.3391945581631517
-0.45580440615434914
-0.06085272925546531
2.3391945581631517
-0.45580440615434914
-0.06085272925546531
2.3391945581631517
-0.45580440615434914
-0.06085272925546531
2.3391945581631517
-0.45305158675266805
-0.06413904531758237
2.341462484714793
-0.45305158675266805
-0.06413904531758237
2.341462484714793
-0.45305158675266805
-0.06413904531758237
2.341462484714793
-0.45305158675266805
-0.06413904531758237
2.341462484714793
-0.45490247534556266
-0.06698519005936573
2.343055532811172
-0.45490247534556266
-0.06698519005936573
2.343055532811172
-0.45490247534556266
-0.06698519005936573
2.343055532811172
-0.45490247534556266
-0.06698519005936573
2.343055532811172
-0.4608594790015473
-0.06892048973433493
2.3444255225703006
-0.4608594790015473
-0.06892048973433493
2.3444255225703006
-0.4608594790015473
-0.06892048973433493
2.3444255225703006
-0.4608594790015473
-0.06892048973433493
2.3444255225703006
-0.4662715090224357
-0.07041950774775307
2.3460644481729043
-0.4662715090224357
-0.07041950774775307
2.3460644481729043
-0.4662715090224357
-0.07041950774775307
2.3460644481729043
-0.4662715090224357
-0.07041950774775307
2.3460644481729043
-0.4745066375005178
-0.07096764041106245
2.3481349055747684
-0.4745066375005178
-0.07096764041106245
2.3481349055747684
-0.4745066375005178
-0.07096764041106245
2.3481349055747684
-0.4745066375005178
-0.07096764041106245
2.3481349055747684
-0.47963172233737356
-0.0705956190444871
2.3496062887968083
-0.47963172233737356
-0.0705956190444871
2.3496062887968083
-0.47963172233737356
-0.0705956190444871
2.3496062887968083
-0.47963172233737356
-0.0705956190444871
2.3496062887968083
-0.48047553417422506
-0.06968466799233466
2.350834492877782
-0.48047553417422506
-0.06968466799233466
2.350834492877782
-0.48047553417422506
-0.06968466799233466
2.350834492877782
-0.48047553417422506
-0.06968466799233466
2.350834492877782
-0.47860497597953167
-0.06925828831991068
2.3509745054107234
-0.47860497597953167
-0.06925828831991068
2.3509745054107234
-0.47860497597953167
-0.06925828831991068
2.3509745054107234
-0.47860497597953167
-0.06925828831991068
2.3509745054107234
-0.475681064202646
-0.0699263013612007
2.3514905501199905
-0.475681064202646
-0.0699263013612007
2.3514905501199905
-0.475681064202646
-0.0699263013612007
2.3514905501199905
-0.475681064202646
-0.0699263013612007
2.3514905501199905
-0.4721068933788119
-0.07033150052701954
2.351405203149837
-0.4721068933788119
-0.07033150052701954
2.351405203149837
-0.4721068933788119
-0.07033150052701954
2.351405203149837
-0.4721068933788119
-0.07033150052701954
2.351405203149837
-0.4677514126401396
-0.06999461117868368
2.3513263528487967
-0.4677514126401396
-0.06999461117868368
2.3513263528487967
-0.4677514126401396
-0.06999461117868368
2.3513263528487967
-0.4677514126401396
-0.06999461117868368
2.3513263528487967
-0.4643461941401893
-0.06934438008739603
2.350880456811205
-0.4643461941401893
-0.06934438008739603
2.350880456811205
-0.4643461941401893
-0.06934438008739603
2.350880456811205
-0.4643461941401893
-0.06934438008739603
2.350880456811205
-0.4646366709481593
-0.06991472749943416
2.3512570383527978
-0.4646366709481593
-0.06991472749943416
2.3512570383527978
-0.4646366709481593
-0.06991472749943416
2.3512570383527978
-0.4646366709481593
-0.06991472749943416
2.3512570383527978
-0.46547645522669373
-0.0699463845089253
2.350916839067984
-0.46547645522669373
-0.0699463845089253
2.350916839067984
-0.46547645522669373
-0.0699463845089253
2.350916839067984
-0.46547645522669373
-0.0699463845089253
2.350916839067984
-0.46653126513602333
-0.06983573985749406
2.3520671440130294
-0.46653126513602333
-0.06983573985749406
2.3520671440130294
-0.46653126513602333
-0.06983573985749406
2.3520671440130294
-0.46653126513602333
-0.06983573985749406
2.3520671440130294
-0.46642105776269904
-0.0697910018313061
2.352052438297399
-0.46642105776269904
-0.0697910018313061
2.352052438297399
-0.46642105776269904
-0.0697910018313061
2.352052438297399
-0.46642105776269904
-0.0697910018313061
2.352052438297399
-0.4651851358619738
-0.06924724896845066
2.351580768079807
-0.4651851358619738
-0.06924724896845066
2.351580768079807
-0.4651851358619738
-0.06924724896845066
2.351580768079807
-0.4651851358619738
-0.06924724896845066
2.351580768079807
-0.4644509804046956
-0.06887640531355163
2.3502132440788546
-0.4644509804046956
-0.06887640531355163
2.3502132440788546
-0.4644509804046956
-0.06887640531355163
2.3502132440788546
-0.4644509804046956
-0.06887640531355163
2.3502132440788546
-0.46489198797469494
-0.06899782836420654
2.3488573483197586
-0.46489198797469494
-0.06899782836420654
2.3488573483197586
-0.46489198797469494
-0.06899782836420654
2.3488573483197586
-0.46489198797469494
-0.06899782836420654
2.3488573483197586
-0.4663022238912799
-0.06968596157180415
2.347968117664699
-0.4663022238912799
-0.06968596157180415
2.347968117664699
-0.4663022238912799
-0.06968596157180415
2.347968117664699
-0.4663022238912799
-0.06968596157180415
2.347968117664699
-0.4662314928545926
-0.07033642694963656
2.3473948314387147
-0.4662314928545926
-0.07033642694963656
2.3473948314387147
-0.4662314928545926
-0.07033642694963656
2.3473948314387147
-0.4662314928545926
-0.07033642694963656
2.3473948314387147
-0.4650214583575113
-0.07069585623434849
2.3466277121728574
-0.4650214583575113
-0.07069585623434849
2.3466277121728574
-0.4650214583575113
-0.07069585623434849
2.3466277121728574
-0.4650214583575113
-0.07069585623434849
2.3466277121728574
-0.4637956962265022
-0.07089171928751042
2.3453761295787174
-0.4637956962265022
-0.07089171928751042
2.3453761295787174
-0.4637956962265022
-0.07089171928751042
2.3453761295787174
-0.4637956962265022
-0.07089171928751042
2.3453761295787174
-0.4640397952804341
-0.07112493382833705
2.344319748694285
-0.4640397952804341
-0.07112493382833705
2.344319748694285
-0.4640397952804341
-0.07112493382833705
2.344319748694285
-0.4640397952804341
-0.07112493382833705
2.344319748694285
-0.46400421433075234
-0.07104976841510982
2.3434600703558384
-0.46400421433075234
-0.07104976841510982
2.3434600703558384
-0.46400421433075234
-0.07104976841510982
2.3434600703558384
-0.46400421433075234
-0.07104976841510982
2.3434600703558384
-0.46399518187366556
-0.07078682521733778
2.342886905210243
-0.46399518187366556
-0.07078682521733778
2.342886905210243
-0.46399518187366556
-0.07078682521733778
2.342886905210243
-0.46399518187366556
-0.07078682521733778
2.342886905210243
-0.4642715848002397
-0.07023048177781334
2.3423203865918323
-0.4642715848002397
-0.07023048177781334
2.3423203865918323
-0.4642715848002397
-0.07023048177781334
2.3423203865918323
-0.4642715848002397
-0.07023048177781334
2.3423203865918323
-0.4644096226157965
-0.06932517828734769
2.341830979580839
-0.4644096226157965
-0.06932517828734769
2.341830979580839
-0.4644096226157965
-0.06932517828734769
2.341830979580839
-0.4644096226157965
-0.06932517828734769
2.341830979580839
-0.4646126084226323
-0.06857500659426477
2.3413805309483697
-0.4646126084226323
-0.06857500659426477
2.3413805309483697
-0.4646126084226323
-0.06857500659426477
2.3413805309483697
-0.4646126084226323
-0.06857500659426477
2.3413805309483697
-0.4654047739352673
-0.06804219045739959
2.3410679511798502
-0.4654047739352673
-0.06804219045739959
2.3410679511798502
-0.4654047739352673
-0.06804219045739959
2.3410679511798502
-0.4654047739352673
-0.06804219045739959
2.3410679511798502
-0.46652264007032723
-0.06735663803929816
2.340845391010609
-0.46652264007032723
-0.06735663803929816
2.340845391010609
-0.46652264007032723
-0.06735663803929816
2.340845391010609
-0.46652264007032723
-0.06735663803929816
2.340845391010609
-0.46650156455797803
-0.06641366205281825
2.340785432196387
-0.46650156455797803
-0.06641366205281825
2.340785432196387
-0.46650156455797803
-0.06641366205281825
2.340785432196387
-0.46650156455797803
-0.06641366205281825
2.340785432196387
-0.4672177507849307
-0.06607620769786153
2.340630492809596
-0.4672177507849307
-0.06607620769786153
2.340630492809596
-0.4672177507849307
-0.06607620769786153
2.340630492809596
-0.4672177507849307
-0.06607620769786153
2.340630492809596
-0.4672177507849307
-0.06607620769786153
2.340630492809596
-0.4672177507849307
-0.06607620769786153
2.340630492809596
-0.4672177507849307
-0.06607620769786153
2.340630492809596
-0.4672177507849307
-0.06607620769786153
2.340630492809596
-0.4672632638584999
-0.06596654710256211
2.340605958519098
-0.4672632638584999
-0.06596654710256211
2.340605958519098
-0.4672632638584999
-0.06596654710256211
2.340605958519098
-0.4672632638584999
-0.06596654710256211
2.340605958519098
-0.4673826637138146
-0.06588476255170019
2.341151209579632
-0.4673826637138146
-0.06588476255170019
2.341151209579632
-0.4673826637138146
-0.06588476255170019
2.341151209579632
-0.4673826637138146
-0.06588476255170019
2.341151209579632
-0.46782078333404153
-0.06610239523859908
2.3415640979997687
-0.46782078333404153
-0.06610239523859908
2.3415640979997687
-0.46782078333404153
-0.06610239523859908
2.3415640979997687
-0.46782078333404153
-0.06610239523859908
2.3415640979997687
-0.4684979389711806
-0.06667517895898495
2.3420703590112923
-0.4684979389711806
-0.06667517895898495
2.3420703590112923
-0.4684979389711806
-0.06667517895898495
2.3420703590112923
-0.4684979389711806
-0.06667517895898495
2.3420703590112923
-0.4684119308379702
-0.06683079247339124
2.3423848116687442
-0.4684119308379702
-0.06683079247339124
2.3423848116687442
-0.4684119308379702
-0.06683079247339124
2.3423848116687442
-0.4684119308379702
-0.06683079247339124
2.3423848116687442
-0.4682400590725805
-0.06714210033728613
2.343013686427073
-0.4682400590725805
-0.06714210033728613
2.343013686427073
-0.4682400590725805
-0.06714210033728613
2.343013686427073
-0.4682400590725805
-0.06714210033728613
2.343013686427073
-0.46838883323255176
-0.06736373754176259
2.3434674986453956
-0.46838883323255176
-0.06736373754176259
2.3434674986453956
-0.46838883323255176
-0.06736373754176259
2.3434674986453956
-0.46838883323255176
-0.06736373754176259
2.3434674986453956
-0.4684323676771717
-0.06782927972150446
2.343860551260633
-0.4684323676771717
-0.06782927972150446
2.343860551260633
-0.4684323676771717
-0.06782927972150446
2.343860551260633
-0.4684323676771717
-0.06782927972150446
2.343860551260633
-0.4688259559986189
-0.0681558637542614
2.3442986739220775
-0.4688259559986189
-0.0681558637542614
2.3442986739220775
-0.4688259559986189
-0.0681558637542614
2.3442986739220775
-0.4688259559986189
-0.0681558637542614
2.3442986739220775
-0.4688259559986189
-0.0681558637542614
2.3442986739220775
-0.4688259559986189
-0.0681558637542614
2.3442986739220775
-0.4688259559986189
-0.0681558637542614
2.3442986739220775
-0.4688259559986189
-0.0681558637542614
2.3442986739220775
-0.4688259559986189
-0.0681558637542614
2.3442986739220775
-0.4688259559986189
-0.0681558637542614
2.3442986739220775
-0.4688259559986189
-0.0681558637542614
2.3442986739220775
-0.4688259559986189
-0.0681558637542614
2.3442986739220775
-0.46836631336064616
-0.06789670224618563
2.3445502022047604
-0.46836631336064616
-0.06789670224618563
2.3445502022047604
-0.46836631336064616
-0.06789670224618563
2.3445502022047604
-0.46836631336064616
-0.06789670224618563
2.3445502022047604
-0.4675814347608092
-0.06743853284334038
2.3450230227300963
-0.4675814347608092
-0.06743853284334038
2.3450230227300963
-0.4675814347608092
-0.06743853284334038
2.3450230227300963
-0.4675814347608092
-0.06743853284334038
2.3450230227300963
-0.46740156182206255
-0.06713571229617275
2.345389654051634
-0.46740156182206255
-0.06713571229617275
2.345389654051634
-0.46740156182206255
-0.06713571229617275
2.345389654051634
-0.46740156182206255
-0.06713571229617275
2.345389654051634
-0.46751157682530314
-0.0671808454562735
2.345404315590588
-0.46751157682530314
-0.0671808454562735
2.345404315590588
-0.46751157682530314
-0.0671808454562735
2.345404315590588
-0.46751157682530314
-0.0671808454562735
2.345404315590588
-0.46707105852510233
-0.06683404822473007
2.3460315062010775
-0.46707105852510233
-0.06683404822473007
2.3460315062010775
-0.46707105852510233
-0.06683404822473007
2.3460315062010775
-0.46707105852510233
-0.06683404822473007
2.3460315062010775
-0.4669314809850767
-0.0664851901644078
2.346108419968564
-0.4669314809850767
-0.0664851901644078
2.346108419968564
-0.4669314809850767
-0.0664851901644078
2.346108419968564
-0.4669314809850767
-0.0664851901644078
2.346108419968564
-0.4662820180634891
-0.06605116045490732
2.3461968353761655
-0.4662820180634891
-0.06605116045490732
2.3461968353761655
-0.4662820180634891
-0.06605116045490732
2.3461968353761655
-0.4662820180634891
-0.06605116045490732
2.3461968353761655
-0.46581736714309896
-0.06585617630907539
2.346183838366909
-0.46581736714309896
-0.06585617630907539
2.346183838366909
-0.46581736714309896
-0.06585617630907539
2.346183838366909
-0.46581736714309896
-0.06585617630907539
2.346183838366909
-0.46581736714309896
-0.06585617630907539
2.346183838366909
-0.46581736714309896
-0.06585617630907539
2.346183838366909
-0.46581736714309896
-0.06585617630907539
2.346183838366909
-0.46581736714309896
-0.06585617630907539
2.346183838366909
-0.46595190807525083
-0.065915810599205
2.34615316608408
-0.46595190807525083
-0.065915810599205
2.34615316608408
-0.46595190807525083
-0.065915810599205
2.34615316608408
-0.46595190807525083
-0.065915810599205
2.34615316608408
-0.46595190807525083
-0.065915810599205
2.34615316608408
-0.46595190807525083
-0.065915810599205
2.34615316608408
-0.46595190807525083
-0.065915810599205
2.34615316608408
-0.46595190807525083
-0.065915810599205
2.34615316608408
-0.4654872472054085
-0.06572080610748889
2.3461402326322878
-0.4654872472054085
-0.06572080610748889
2.3461402326322878
-0.4654872472054085
-0.06572080610748889
2.3461402326322878
-0.4654872472054085
-0.06572080610748889
2.3461402326322878
-0.4654872472054085
-0.06572080610748889
2.3461402326322878
-0.4654872472054085
-0.06572080610748889
2.3461402326322878
-0.4654872472054085
-0.06572080610748889
2.3461402326322878
-0.4654872472054085
-0.06572080610748889
2.3461402326322878
-0.4654872472054085
-0.06572080610748889
2.3461402326322878
-0.4654872472054085
-0.06572080610748889
2.3461402326322878
-0.4654872472054085
-0.06572080610748889
2.3461402326322878
-0.4654872472054085
-0.06572080610748889
2.3461402326322878
-0.46509248212858917
-0.0659698881803745
2.3461197636026387
-0.46509248212858917
-0.0659698881803745
2.3461197636026387
-0.46509248212858917
-0.0659698881803745
2.3461197636026387
-0.46509248212858917
-0.0659698881803745
2.3461197636026387
-0.4652025268760598
-0.0660150131975812
2.346134298830271
-0.4652025268760598
-0.0660150131975812
2.346134298830271
-0.4652025268760598
-0.0660150131975812
2.346134298830271
-0.4652025268760598
-0.0660150131975812
2.346134298830271
-0.4652477499961193
-0.06590521011613727
2.346109835303241
-0.4652477499961193
-0.06590521011613727
2.346109835303241
-0.4652477499961193
-0.06590521011613727
2.346109835303241
-0.4652477499961193
-0.06590521011613727
2.346109835303241
-0.4652477499961193
-0.06590521011613727
2.346109835303241
-0.4652477499961193
-0.06590521011613727
2.346109835303241
-0.4652477499961193
-0.06590521011613727
2.346109835303241
-0.4652477499961193
-0.06590521011613727
2.346109835303241
-0.4652622816781445
-0.06588079602354324
2.346219878638201
-0.4652622816781445
-0.06588079602354324
2.346219878638201
-0.4652622816781445
-0.06588079602354324
2.346219878638201
-0.4652622816781445
-0.06588079602354324
2.346219878638201
-0.4651070140284971
-0.06594548363137052
2.3462298116778335
-0.4651070140284971
-0.06594548363137052
2.3462298116778335
-0.4651070140284971
-0.06594548363137052
2.3462298116778335
-0.4651070140284971
-0.06594548363137052
2.3462298116778335
-0.4651070140284971
-0.06594548363137052
2.3462298116778335
-0.4651070140284971
-0.06594548363137052
2.3462298116778335
-0.4651070140284971
-0.06594548363137052
2.3462298116778335
-0.4651070140284971
-0.06594548363137052
2.3462298116778335
-0.46523203713536004
-0.06631866751503557
2.34604249427146
-0.46523203713536004
-0.06631866751503557
2.34604249427146
-0.46523203713536004
-0.06631866751503557
2.34604249427146
-0.46523203713536004
-0.06631866751503557
2.34604249427146
-0.4654022207873669
-0.0665820667377864
2.345830768147972
-0.4654022207873669
-0.0665820667377864
2.345830768147972
-0.4654022207873669
-0.0665820667377864
2.345830768147972
-0.4654022207873669
-0.0665820667377864
2.345830768147972
-0.46542667961579265
-0.0665966132156945
2.3457855342008247
-0.46542667961579265
-0.0665966132156945
2.3457855342008247
-0.46542667961579265
-0.0665966132156945
2.3457855342008247
-0.46542667961579265
-0.0665966132156945
2.3457855342008247
-0.465447453440107
-0.06647226994434229
2.3458063080251392
-0.465447453440107
-0.06647226994434229
2.3458063080251392
-0.465447453440107
-0.06647226994434229
2.3458063080251392
-0.465447453440107
-0.06647226994434229
2.3458063080251392
-0.46547191688975315
-0.06648681170071312
2.3457610720455855
-0.46547191688975315
-0.06648681170071312
2.3457610720455855
-0.46547191688975315
-0.06648681170071312
2.3457610720455855
-0.46547191688975315
-0.06648681170071312
2.3457610720455855
-0.46558195957179654
-0.06653194861967188
2.3457756496610362
-0.46558195957179654
-0.06653194861967188
2.3457756496610362
-0.46558195957179654
-0.06653194861967188
2.3457756496610362
-0.46558195957179654
-0.06653194861967188
2.3457756496610362
-0.465627196167745
-0.0664221513652164
2.345751178046027
-0.465627196167745
-0.0664221513652164
2.345751178046027
-0.465627196167745
-0.0664221513652164
2.345751178046027
-0.465627196167745
-0.0664221513652164
2.345751178046027
-0.46550223470020746
-0.06604890718238605
2.345938418933617
-0.46550223470020746
-0.06604890718238605
2.345938418933617
-0.46550223470020746
-0.06604890718238605
2.345938418933617
-0.46550223470020746
-0.06604890718238605
2.345938418933617
-0.46480756962118575
-0.06572468362000217
2.3460517414784827
-0.46480756962118575
-0.06572468362000217
2.3460517414784827
-0.46480756962118575
-0.06572468362000217
2.3460517414784827
-0.46480756962118575
-0.06572468362000217
2.3460517414784827
-0.4642078704046576
-0.06511771700389662
2.34638178531603
-0.4642078704046576
-0.06511771700389662
2.34638178531603
-0.4642078704046576
-0.06511771700389662
2.34638178531603
-0.4642078704046576
-0.06511771700389662
2.34638178531603
-0.46453734654603457
-0.06490071783032277
2.3467372008060043
-0.46453734654603457
-0.06490071783032277
2.3467372008060043
-0.46453734654603457
-0.06490071783032277
2.3467372008060043
-0.46453734654603457
-0.06490071783032277
2.3467372008060043
-0.46433610479401766
-0.06472289308985091
2.347083695958393
-0.46433610479401766
-0.06472289308985091
2.347083695958393
-0.46433610479401766
-0.06472289308985091
2.347083695958393
-0.46433610479401766
-0.06472289308985091
2.347083695958393
-0.4628559355519518
-0.06429517872366054
2.347360592282357
-0.4628559355519518
-0.06429517872366054
2.347360592282357
-0.4628559355519518
-0.06429517872366054
2.347360592282357
-0.4628559355519518
-0.06429517872366054
2.347360592282357
-0.46148579624631875
-0.06391297330725573
2.3476524311612934
-0.46148579624631875
-0.06391297330725573
2.3476524311612934
-0.46148579624631875
-0.06391297330725573
2.3476524311612934
-0.46148579624631875
-0.06391297330725573
2.3476524311612934
-0.4616920874285745
-0.06309874129873515
2.3474678332691195
-0.4616920874285745
-0.06309874129873515
2.3474678332691195
-0.4616920874285745
-0.06309874129873515
2.3474678332691195
-0.4616920874285745
-0.06309874129873515
2.3474678332691195
-0.46219831355978025
-0.06157674286132349
2.3473569004999453
-0.46219831355978025
-0.06157674286132349
2.3473569004999453
-0.46115098911029007
-0.05962376628919148
2.3463367612238426
-0.46115098911029007
-0.05962376628919148
2.3463367612238426
-0.46115098911029007
-0.05962376628919148
2.3463367612238426
-0.46115098911029007
-0.05962376628919148
2.3463367612238426
-0.46115098911029007
-0.05962376628919148
2.3463367612238426
-0.46115098911029007
-0.05962376628919148
2.3463367612238426
-0.45344235284236484
-0.05889370478356799
2.3458760502526115
-0.45344235284236484
-0.05889370478356799
2.3458760502526115
-0.45344235284236484
-0.05889370478356799
2.3458760502526115
-0.45344235284236484
-0.05889370478356799
2.3458760502526115
-0.4473351959795005
-0.05741178199040523
2.3445926004660196
-0.4473351959795005
-0.05741178199040523
2.3445926004660196
-0.4473351959795005
-0.05741178199040523
2.3445926004660196
-0.4473351959795005
-0.05741178199040523
2.3445926004660196
-0.45232335482050273
-0.05344294832876695
2.3456884478865554
-0.45232335482050273
-0.05344294832876695
2.3456884478865554
-0.45232335482050273
-0.05344294832876695
2.3456884478865554
-0.45232335482050273
-0.05344294832876695
2.3456884478865554
-0.46721421959319986
-0.049350848876442956
2.3478063128320277
-0.46721421959319986
-0.049350848876442956
2.3478063128320277
-0.46721421959319986
-0.049350848876442956
2.3478063128320277
-0.46721421959319986
-0.049350848876442956
2.3478063128320277
-0.47063863342436163
-0.04539048882479997
2.3477220319352545
-0.47063863342436163
-0.04539048882479997
2.3477220319352545
-0.47063863342436163
-0.04539048882479997
2.3477220319352545
-0.47063863342436163
-0.04539048882479997
2.3477220319352545
-0.47161561704815347
-0.0405652408839683
2.346932187798837
-0.47161561704815347
-0.0405652408839683
2.346932187798837
-0.47161561704815347
-0.0405652408839683
2.346932187798837
-0.47161561704815347
-0.0405652408839683
2.346932187798837
-0.4698692492917501
-0.03603747403302312
2.3446554464639098
-0.4698692492917501
-0.03603747403302312
2.3446554464639098
-0.4698692492917501
-0.03603747403302312
2.3446554464639098
-0.4698692492917501
-0.03603747403302312
2.3446554464639098
-0.46489682221683654
-0.033314415070466535
2.3410305399696676
-0.46489682221683654
-0.033314415070466535
2.3410305399696676
-0.46489682221683654
-0.033314415070466535
2.3410305399696676
-0.46489682221683654
-0.033314415070466535
2.3410305399696676
-0.45926134958210374
-0.03218418980510497
2.340814499943522
-0.45926134958210374
-0.03218418980510497
2.340814499943522
-0.45926134958210374
-0.03218418980510497
2.340814499943522
-0.45926134958210374
-0.03218418980510497
2.340814499943522
-0.4606478749501836
-0.03148063198895967
2.340574407630383
-0.4606478749501836
-0.03148063198895967
2.340574407630383
-0.4606478749501836
-0.03148063198895967
2.340574407630383
-0.4606478749501836
-0.03148063198895967
2.340574407630383
-0.4628741322951907
-0.03261843421457054
2.340912913036128
-0.4628741322951907
-0.03261843421457054
2.340912913036128
-0.46281759476401785
-0.033430417630659244
2.34082335234187
-0.46281759476401785
-0.033430417630659244
2.34082335234187
-0.46281759476401785
-0.033430417630659244
2.34082335234187
-0.46281759476401785
-0.033430417630659244
2.34082335234187
-0.46281759476401785
-0.033430417630659244
2.34082335234187
-0.46281759476401785
-0.033430417630659244
2.34082335234187
-0.4635958491418085
-0.032820957645233045
2.339639173497357
-0.4635958491418085
-0.032820957645233045
2.339639173497357
-0.4635958491418085
-0.032820957645233045
2.339639173497357
-0.4635958491418085
-0.032820957645233045
2.339639173497357
-0.46409253811530893
-0.03293300057576684
2.339509549058689
-0.46409253811530893
-0.03293300057576684
2.339509549058689
-0.46409253811530893
-0.03293300057576684
2.339509549058689
-0.46409253811530893
-0.03293300057576684
2.339509549058689
-0.4666425014565122
-0.03391899677845162
2.33993654720303
-0.4666425014565122
-0.03391899677845162
2.33993654720303
-0.4666425014565122
-0.03391899677845162
2.33993654720303
-0.4666425014565122
-0.03391899677845162
2.33993654720303
-0.46837350339052447
-0.03474757353170456
2.339572022671778
-0.46837350339052447
-0.03474757353170456
2.339572022671778
-0.46837350339052447
-0.03474757353170456
2.339572022671778
-0.46837350339052447
-0.03474757353170456
2.339572022671778
-0.4692386657562818
-0.03552981409930958
2.338439815662932
-0.4692386657562818
-0.03552981409930958
2.338439815662932
-0.46904939404065116
-0.035608122470258685
2.3372187872071803
-0.46904939404065116
-0.035608122470258685
2.3372187872071803
-0.46904939404065116
-0.035608122470258685
2.3372187872071803
-0.46904939404065116
-0.035608122470258685
2.3372187872071803
-0.46904939404065116
-0.035608122470258685
2.3372187872071803
-0.46904939404065116
-0.035608122470258685
2.3372187872071803
-0.4695786231659326
-0.03563691894366688
2.3369554123283085
-0.4695786231659326
-0.03563691894366688
2.3369554123283085
-0.4695786231659326
-0.03563691894366688
2.3369554123283085
-0.4695786231659326
-0.03563691894366688
2.3369554123283085
-0.47101395727981255
-0.03631459223011784
2.3377873732734296
-0.47101395727981255
-0.03631459223011784
2.3377873732734296
-0.47101395727981255
-0.03631459223011784
2.3377873732734296
-0.47101395727981255
-0.03631459223011784
2.3377873732734296
-0.4714205474496727
-0.037259911396982155
2.337972678010228
-0.4714205474496727
-0.037259911396982155
2.337972678010228
-0.4714205474496727
-0.037259911396982155
2.337972678010228
-0.4714205474496727
-0.037259911396982155
2.337972678010228
-0.4705983882186789
-0.03851877425154317
2.3380773430408093
-0.4705983882186789
-0.03851877425154317
2.3380773430408093
-0.4705983882186789
-0.03851877425154317
2.3380773430408093
-0.4705983882186789
-0.03851877425154317
2.3380773430408093
-0.46861986977040104
-0.039931401379548176
2.3382926150257672
-0.46861986977040104
-0.039931401379548176
2.3382926150257672
-0.46861986977040104
-0.039931401379548176
2.3382926150257672
-0.46861986977040104
-0.039931401379548176
2.3382926150257672
-0.46867381387938556
-0.04288311273113691
2.33911397604186
-0.46867381387938556
-0.04288311273113691
2.33911397604186
-0.46867381387938556
-0.04288311273113691
2.33911397604186
-0.46867381387938556
-0.04288311273113691
2.33911397604186
-0.4684530322634989
-0.04768172417179211
2.340765338630342
-0.4684530322634989
-0.04768172417179211
2.340765338630342
-0.4684530322634989
-0.04768172417179211
2.340765338630342
-0.4684530322634989
-0.04768172417179211
2.340765338630342
-0.4723872938734639
-0.05114474241974457
2.3418127338480668
-0.4723872938734639
-0.05114474241974457
2.3418127338480668
-0.4723872938734639
-0.05114474241974457
2.3418127338480668
-0.4723872938734639
-0.05114474241974457
2.3418127338480668
-0.4771179279124356
-0.05446013189093642
2.342597591661302
-0.4771179279124356
-0.05446013189093642
2.342597591661302
-0.4771179279124356
-0.05446013189093642
2.342597591661302
-0.4771179279124356
-0.05446013189093642
2.342597591661302
-0.4799639825196209
-0.05671749782498761
2.3428190305632945
-0.4799639825196209
-0.05671749782498761
2.3428190305632945
-0.4799639825196209
-0.05671749782498761
2.3428190305632945
-0.4799639825196209
-0.05671749782498761
2.3428190305632945
-0.4827902258499306
-0.05749222908628413
2.3429121989570536
-0.4827902258499306
-0.05749222908628413
2.3429121989570536
-0.4827902258499306
-0.05749222908628413
2.3429121989570536
-0.4827902258499306
-0.05749222908628413
2.3429121989570536
-0.48541994156455753
-0.05837443514688711
2.3433090207079315
-0.48541994156455753
-0.05837443514688711
2.3433090207079315
-0.48541994156455753
-0.05837443514688711
2.3433090207079315
-0.48541994156455753
-0.05837443514688711
2.3433090207079315
-0.48564322830444034
-0.05964877910011398
2.344028276142415
-0.48564322830444034
-0.05964877910011398
2.344028276142415
-0.48564322830444034
-0.05964877910011398
2.344028276142415
-0.48564322830444034
-0.05964877910011398
2.344028276142415
-0.4847507464213037
-0.06140321264947952
2.346284364759052
-0.4847507464213037
-0.06140321264947952
2.346284364759052
-0.4847507464213037
-0.06140321264947952
2.346284364759052
-0.4847507464213037
-0.06140321264947952
2.346284364759052
-0.48363165439604605
-0.06302962471987686
2.348664437762648
-0.48363165439604605
-0.06302962471987686
2.348664437762648
-0.48363165439604605
-0.06302962471987686
2.348664437762648
-0.48363165439604605
-0.06302962471987686
2.348664437762648
-0.4816367544715409
-0.06387847195541128
2.350523312535508
-0.4816367544715409
-0.06387847195541128
2.350523312535508
-0.4816367544715409
-0.06387847195541128
2.350523312535508
-0.4816367544715409
-0.06387847195541128
2.350523312535508
-0.47685600911714837
-0.06409389317445938
2.3513033108044685
-0.47685600911714837
-0.06409389317445938
2.3513033108044685
-0.47193438960268025
-0.06396443906520344
2.352158378236126
-0.47193438960268025
-0.06396443906520344
2.352158378236126
-0.47193438960268025
-0.06396443906520344
2.352158378236126
-0.47193438960268025
-0.06396443906520344
2.352158378236126
-0.47264340766141166
-0.06505726373499582
2.3533040997451264
-0.47264340766141166
-0.06505726373499582
2.3533040997451264
-0.47264340766141166
-0.06505726373499582
2.3533040997451264
-0.47264340766141166
-0.06505726373499582
2.3533040997451264
-0.47521295074568193
-0.06617848046324744
2.3547716460681625
-0.47521295074568193
-0.06617848046324744
2.3547716460681625
-0.47521295074568193
-0.06617848046324744
2.3547716460681625
-0.47521295074568193
-0.06617848046324744
2.3547716460681625
-0.47768905323656535
-0.06700731870726147
2.35560735252881
-0.47768905323656535
-0.06700731870726147
2.35560735252881
-0.47768905323656535
-0.06700731870726147
2.35560735252881
-0.47768905323656535
-0.06700731870726147
2.35560735252881
-0.47782048334793936
-0.06654222266054662
2.3565716428907746
-0.47782048334793936
-0.06654222266054662
2.3565716428907746
-0.47782048334793936
-0.06654222266054662
2.3565716428907746
-0.47782048334793936
-0.06654222266054662
2.3565716428907746
-0.476012637823971
-0.06588686156142468
2.3567095226990173
-0.476012637823971
-0.06588686156142468
2.3567095226990173
-0.476012637823971
-0.06588686156142468
2.3567095226990173
-0.476012637823971
-0.06588686156142468
2.3567095226990173
-0.4722567348729975
-0.06542424901843613
2.356578514197592
-0.4722567348729975
-0.06542424901843613
2.356578514197592
-0.4722567348729975
-0.06542424901843613
2.356578514197592
-0.4722567348729975
-0.06542424901843613
2.356578514197592
-0.47063794671224557
-0.06655609760247148
2.3558199063474246
-0.47063794671224557
-0.06655609760247148
2.3558199063474246
-0.47063794671224557
-0.06655609760247148
2.3558199063474246
-0.47063794671224557
-0.06655609760247148
2.3558199063474246
-0.4728149350683244
-0.06829228185048122
2.355278130883862
-0.4728149350683244
-0.06829228185048122
2.355278130883862
-0.4728149350683244
-0.06829228185048122
2.355278130883862
-0.4728149350683244
-0.06829228185048122
2.355278130883862
-0.4749195513835514
-0.06958588293563633
2.3547456134795492
-0.4749195513835514
-0.06958588293563633
2.3547456134795492
-0.4749195513835514
-0.06958588293563633
2.3547456134795492
-0.4749195513835514
-0.06958588293563633
2.3547456134795492
-0.4746106127087304
-0.06985037363246605
2.353725649451012
-0.4746106127087304
-0.06985037363246605
2.353725649451012
-0.4746106127087304
-0.06985037363246605
2.353725649451012
-0.4746106127087304
-0.06985037363246605
2.353725649451012
-0.47290989561548663
-0.06946988413617788
2.3529265921155393
-0.47290989561548663
-0.06946988413617788
2.3529265921155393
-0.47290989561548663
-0.06946988413617788
2.3529265921155393
-0.47290989561548663
-0.06946988413617788
2.3529265921155393
-0.4718941539034076
-0.06901757026594343
2.3524829128920537
-0.4718941539034076
-0.06901757026594343
2.3524829128920537
-0.4718941539034076
-0.06901757026594343
2.3524829128920537
-0.4718941539034076
-0.06901757026594343
2.3524829128920537
-0.472599297272885
-0.06899046309131641
2.3521724940674495
-0.472599297272885
-0.06899046309131641
2.3521724940674495
-0.472599297272885
-0.06899046309131641
2.3521724940674495
-0.472599297272885
-0.06899046309131641
2.3521724940674495
-0.4737492568148167
-0.06889280370516224
2.351811906556888
-0.4737492568148167
-0.06889280370516224
2.351811906556888
-0.4737492568148167
-0.06889280370516224
2.351811906556888
-0.4737492568148167
-0.06889280370516224
2.351811906556888
-0.47346377754058255
-0.06864881863985481
2.3517425683369453
-0.47346377754058255
-0.06864881863985481
2.3517425683369453
-0.47346377754058255
-0.06864881863985481
2.3517425683369453
-0.47346377754058255
-0.06864881863985481
2.3517425683369453
-0.47254285986784517
-0.06791202268489517
2.3515145524933305
-0.47254285986784517
-0.06791202268489517
2.3515145524933305
-0.47254285986784517
-0.06791202268489517
2.3515145524933305
-0.47254285986784517
-0.06791202268489517
2.3515145524933305
-0.47169753859838054
-0.06736909740329573
2.3511717771827683
-0.47169753859838054
-0.06736909740329573
2.3511717771827683
-0.47169753859838054
-0.06736909740329573
2.3511717771827683
-0.47169753859838054
-0.06736909740329573
2.3511717771827683
-0.4708670812541589
-0.06680114442215662
2.3509395669820763
-0.4708670812541589
-0.06680114442215662
2.3509395669820763
-0.4708670812541589
-0.06680114442215662
2.3509395669820763
-0.4708670812541589
-0.06680114442215662
2.3509395669820763
-0.4714467293694804
-0.06640097432938598
2.3508145332089443
-0.4714467293694804
-0.06640097432938598
2.3508145332089443
-0.4714467293694804
-0.06640097432938598
2.3508145332089443
-0.4714467293694804
-0.06640097432938598
2.3508145332089443
-0.47207133068367096
-0.06589105481823812
2.3506643980892363
-0.47207133068367096
-0.06589105481823812
2.3506643980892363
-0.47207133068367096
-0.06589105481823812
2.3506643980892363
-0.47207133068367096
-0.06589105481823812
2.3506643980892363
-0.47330040903138154
-0.06557021616555803
2.350762263889465
-0.47330040903138154
-0.06557021616555803
2.350762263889465
-0.47330040903138154
-0.06557021616555803
2.350762263889465
-0.47330040903138154
-0.06557021616555803
2.350762263889465
-0.4732453961360191
-0.06506622038058191
2.3505231492995686
-0.4732453961360191
-0.06506622038058191
2.3505231492995686
-0.4732453961360191
-0.06506622038058191
2.3505231492995686
-0.4732453961360191
-0.06506622038058191
2.3505231492995686
-0.47259479079060224
-0.06463334000183306
2.350610563471727
-0.47259479079060224
-0.06463334000183306
2.350610563471727
-0.47259479079060224
-0.06463334000183306
2.350610563471727
-0.47259479079060224
-0.06463334000183306
2.350610563471727
-0.47297463974283677
-0.06440814602302121
2.350519930946423
-0.47297463974283677
-0.06440814602302121
2.350519930946423
-0.47297463974283677
-0.06440814602302121
2.350519930946423
-0.47297463974283677
-0.06440814602302121
2.350519930946423
-0.473019585301277
-0.06429833939771212
2.350494971401594
-0.473019585301277
-0.06429833939771212
2.350494971401594
-0.473019585301277
-0.06429833939771212
2.350494971401594
-0.473019585301277
-0.06429833939771212
2.350494971401594
-0.47384395783889555
-0.06457691709528225
2.3507721660510152
-0.47384395783889555
-0.06457691709528225
2.3507721660510152
-0.47384395783889555
-0.06457691709528225
2.3507721660510152
-0.47384395783889555
-0.06457691709528225
2.3507721660510152
-0.4735581562071532
-0.06451807487350943
2.351077885609669
-0.4735581562071532
-0.06451807487350943
2.351077885609669
-0.4735581562071532
-0.06451807487350943
2.351077885609669
-0.4735581562071532
-0.06451807487350943
2.351077885609669
-0.47361764018534297
-0.06438332162965045
2.351162931388929
-0.47361764018534297
-0.06438332162965045
2.351162931388929
-0.47361764018534297
-0.06438332162965045
2.351162931388929
-0.47361764018534297
-0.06438332162965045
2.351162931388929
-0.47361764018534297
-0.06438332162965045
2.351162931388929
-0.47361764018534297
-0.06438332162965045
2.351162931388929
-0.47361764018534297
-0.06438332162965045
2.351162931388929
-0.47361764018534297
-0.06438332162965045
2.351162931388929
-0.4735910732571672
-0.06401497524933634
2.351518280573912
-0.4735910732571672
-0.06401497524933634
2.351518280573912
-0.4735910732571672
-0.06401497524933634
2.351518280573912
-0.4735910732571672
-0.06401497524933634
2.351518280573912
-0.47413433209196365
-0.06398439347259802
2.351991642766069
-0.47413433209196365
-0.06398439347259802
2.351991642766069
-0.47413433209196365
-0.06398439347259802
2.351991642766069
-0.47413433209196365
-0.06398439347259802
2.351991642766069
-0.4741791924325629
-0.06387457115645401
2.3519665997889656
-0.4741791924325629
-0.06387457115645401
2.3519665997889656
-0.4741791924325629
-0.06387457115645401
2.3519665997889656
-0.4741791924325629
-0.06387457115645401
2.3519665997889656
-0.47372199828366346
-0.06355207902285998
2.352483231216249
-0.47372199828366346
-0.06355207902285998
2.352483231216249
-0.47372199828366346
-0.06355207902285998
2.352483231216249
-0.47372199828366346
-0.06355207902285998
2.352483231216249
-0.47372199828366346
-0.06355207902285998
2.352483231216249
-0.47372199828366346
-0.06355207902285998
2.352483231216249
-0.47372199828366346
-0.06355207902285998
2.352483231216249
-0.47372199828366346
-0.06355207902285998
2.352483231216249
-0.4741134999587039
-0.06313308577985323
2.353187096413191
-0.4741134999587039
-0.06313308577985323
2.353187096413191
-0.4741134999587039
-0.06313308577985323
2.353187096413191
-0.4741134999587039
-0.06313308577985323
2.353187096413191
-0.47463142861169627
-0.06308743329501681
2.3537050250661835
-0.47463142861169627
-0.06308743329501681
2.3537050250661835
-0.47463142861169627
-0.06308743329501681
2.3537050250661835
-0.47463142861169627
-0.06308743329501681
2.3537050250661835
-0.4747949537855036
-0.06328178489453933
2.35426926929782
-0.4747949537855036
-0.06328178489453933
2.35426926929782
-0.4747949537855036
-0.06328178489453933
2.35426926929782
-0.4747949537855036
-0.06328178489453933
2.35426926929782
-0.4747949537855036
-0.06328178489453933
2.35426926929782
-0.4747949537855036
-0.06328178489453933
2.35426926929782
-0.4747949537855036
-0.06328178489453933
2.35426926929782
-0.4747949537855036
-0.06328178489453933
2.35426926929782
-0.47490503288753155
-0.06332642948638588
2.3542837722804935
-0.47490503288753155
-0.06332642948638588
2.3542837722804935
-0.47490503288753155
-0.06332642948638588
2.3542837722804935
-0.47490503288753155
-0.06332642948638588
2.3542837722804935
-0.47457866547966204
-0.06312792812818649
2.3545051839309536
-0.47457866547966204
-0.06312792812818649
2.3545051839309536
-0.47457866547966204
-0.06312792812818649
2.3545051839309536
-0.47457866547966204
-0.06312792812818649
2.3545051839309536
-0.4746233932723435
-0.06301805972663801
2.354480080020801
-0.4746233932723435
-0.06301805972663801
2.354480080020801
-0.4746233932723435
-0.06301805972663801
2.354480080020801
-0.4746233932723435
-0.06301805972663801
2.354480080020801
-0.4739790231354194
-0.06326455018686442
2.3545672370292405
-0.4739790231354194
-0.06326455018686442
2.3545672370292405
-0.4739790231354194
-0.06326455018686442
2.3545672370292405
-0.4739790231354194
-0.06326455018686442
2.3545672370292405
-0.47366497862527
-0.06364499502906716
2.3546976896001963
-0.47366497862527
-0.06364499502906716
2.3546976896001963
-0.47366497862527
-0.06364499502906716
2.3546976896001963
-0.47366497862527
-0.06364499502906716
2.3546976896001963
-0.4737655810267663
-0.06403890486166854
2.3549119264576217
-0.4737655810267663
-0.06403890486166854
2.3549119264576217
-0.4737655810267663
-0.06403890486166854
2.3549119264576217
-0.4737655810267663
-0.06403890486166854
2.3549119264576217
-0.4738756969986576
-0.06408351161073018
2.354926440669298
-0.4738756969986576
-0.06408351161073018
2.354926440669298
-0.4738756969986576
-0.06408351161073018
2.354926440669298
-0.4738756969986576
-0.06408351161073018
2.354926440669298
-0.47281058290788724
-0.06402738723317773
2.3549748678948745
-0.47281058290788724
-0.06402738723317773
2.3549748678948745
-0.47281058290788724
-0.06402738723317773
2.3549748678948745
-0.47281058290788724
-0.06402738723317773
2.3549748678948745
-0.47223494286073187
-0.06378985745255286
2.3549471937912094
-0.47223494286073187
-0.06378985745255286
2.3549471937912094
-0.47223494286073187
-0.06378985745255286
2.3549471937912094
-0.47223494286073187
-0.06378985745255286
2.3549471937912094
-0.47260379777526856
-0.06352444618555517
2.3550113212493553
-0.47260379777526856
-0.06352444618555517
2.3550113212493553
-0.47260379777526856
-0.06352444618555517
2.3550113212493553
-0.47260379777526856
-0.06352444618555517
2.3550113212493553
-0.47260379777526856
-0.06352444618555517
2.3550113212493553
-0.47260379777526856
-0.06352444618555517
2.3550113212493553
-0.47260379777526856
-0.06352444618555517
2.3550113212493553
-0.47260379777526856
-0.06352444618555517
2.3550113212493553
-0.47260379777526856
-0.06352444618555517
2.3550113212493553
-0.47260379777526856
-0.06352444618555517
2.3550113212493553
-0.47260379777526856
-0.06352444618555517
2.3550113212493553
-0.47260379777526856
-0.06352444618555517
2.3550113212493553
-0.47260379777526856
-0.06352444618555517
2.3550113212493553
-0.47260379777526856
-0.06352444618555517
2.3550113212493553
-0.47260379777526856
-0.06352444618555517
2.3550113212493553
-0.47260379777526856
-0.06352444618555517
2.3550113212493553
-0.47260379777526856
-0.06352444618555517
2.3550113212493553
-0.47260379777526856
-0.06352444618555517
2.3550113212493553
-0.47260379777526856
-0.06352444618555517
2.3550113212493553
-0.47260379777526856
-0.06352444618555517
2.3550113212493553
-0.4726485072163761
-0.06341454119271751
2.354986331169442
-0.4726485072163761
-0.06341454119271751
2.354986331169442
-0.4726485072163761
-0.06341454119271751
2.354986331169442
-0.4726485072163761
-0.06341454119271751
2.354986331169442
-0.47275863154317255
-0.06345916040241023
2.3550007846732157
-0.47275863154317255
-0.06345916040241023
2.3550007846732157
-0.47275863154317255
-0.06345916040241023
2.3550007846732157
-0.47275863154317255
-0.06345916040241023
2.3550007846732157
-0.4729999470758128
-0.06362718286766947
2.3547200430940833
-0.4729999470758128
-0.06362718286766947
2.3547200430940833
-0.4729999470758128
-0.06362718286766947
2.3547200430940833
-0.4729999470758128
-0.06362718286766947
2.3547200430940833
-0.4729759196863451
-0.06400150407731171
2.354809531116417
-0.4729759196863451
-0.06400150407731171
2.354809531116417
-0.4729759196863451
-0.06400150407731171
2.354809531116417
-0.4729759196863451
-0.06400150407731171
2.354809531116417
-0.47290722332581736
-0.06448572992868787
2.3549239975701597
-0.47290722332581736
-0.06448572992868787
2.3549239975701597
-0.47290722332581736
-0.06448572992868787
2.3549239975701597
-0.47290722332581736
-0.06448572992868787
2.3549239975701597
-0.47291751425353157
-0.06471072037124008
2.3551433121492296
-0.47291751425353157
-0.06471072037124008
2.3551433121492296
-0.47291751425353157
-0.06471072037124008
2.3551433121492296
-0.47291751425353157
-0.06471072037124008
2.3551433121492296
-0.4733228064664609
-0.06507350222941087
2.355427062522209
-0.4733228064664609
-0.06507350222941087
2.355427062522209
-0.4733228064664609
-0.06507350222941087
2.355427062522209
-0.4733228064664609
-0.06507350222941087
2.355427062522209
-0.4739618794343788
-0.06511148130903859
2.3558052892607666
-0.4739618794343788
-0.06511148130903859
2.3558052892607666
-0.4739618794343788
-0.06511148130903859
2.3558052892607666
-0.4739618794343788
-0.06511148130903859
2.3558052892607666
-0.4739618794343788
-0.06511148130903859
2.3558052892607666
-0.4739618794343788
-0.06511148130903859
2.3558052892607666
-0.4739618794343788
-0.06511148130903859
2.3558052892607666
-0.4739618794343788
-0.06511148130903859
2.3558052892607666
-0.47404471745339366
-0.0647876366082657
2.356174908341434
-0.47404471745339366
-0.0647876366082657
2.356174908341434
-0.47404471745339366
-0.0647876366082657
2.356174908341434
-0.47404471745339366
-0.0647876366082657
2.356174908341434
-0.4736003695141967
-0.06386691398646921
2.3563822911494356
-0.4736003695141967
-0.06386691398646921
2.3563822911494356
-0.4736003695141967
-0.06386691398646921
2.3563822911494356
-0.4736003695141967
-0.06386691398646921
2.3563822911494356
-0.4727650606229032
-0.06255880175559324
2.356416883761773
-0.4727650606229032
-0.06255880175559324
2.356416883761773
-0.4727650606229032
-0.06255880175559324
2.356416883761773
-0.4727650606229032
-0.06255880175559324
2.356416883761773
-0.47235071976503706
-0.06155323215583444
2.356490169096997
-0.47235071976503706
-0.06155323215583444
2.356490169096997
-0.47235071976503706
-0.06155323215583444
2.356490169096997
-0.47235071976503706
-0.06155323215583444
2.356490169096997
-0.4715053094469154
-0.061012354258655546
2.3561501355091043
-0.4715053094469154
-0.061012354258655546
2.3561501355091043
-0.4715053094469154
-0.061012354258655546
2.3561501355091043
-0.4715053094469154
-0.061012354258655546
2.3561501355091043
-0.4698122096307321
-0.06015153091347825
2.356200577923582
-0.4698122096307321
-0.06015153091347825
2.356200577923582
-0.4698122096307321
-0.06015153091347825
2.356200577923582
-0.4698122096307321
-0.06015153091347825
2.356200577923582
-0.46758490954902626
-0.05958270526084201
2.356354172467536
-0.46758490954902626
-0.05958270526084201
2.356354172467536
-0.46758490954902626
-0.05958270526084201
2.356354172467536
-0.46758490954902626
-0.05958270526084201
2.356354172467536
-0.4648944888007751
-0.05680153823423773
2.3564636441178806
-0.4648944888007751
-0.05680153823423773
2.3564636441178806
-0.4648944888007751
-0.05680153823423773
2.3564636441178806
-0.4648944888007751
-0.05680153823423773
2.3564636441178806
-0.4654463761027111
-0.05488072919164271
2.355860192122416
-0.4654463761027111
-0.05488072919164271
2.355860192122416
-0.4654463761027111
-0.05488072919164271
2.355860192122416
-0.4654463761027111
-0.05488072919164271
2.355860192122416
-0.46501189555442707
-0.05351353424331485
2.3546167742601285
-0.46501189555442707
-0.05351353424331485
2.3546167742601285
-0.46501189555442707
-0.05351353424331485
2.3546167742601285
-0.46501189555442707
-0.05351353424331485
2.3546167742601285
-0.46323235955071634
-0.05142811732428701
2.355109516554626
-0.46323235955071634
-0.05142811732428701
2.355109516554626
-0.46323235955071634
-0.05142811732428701
2.355109516554626
-0.46323235955071634
-0.05142811732428701
2.355109516554626
-0.464551261062005
-0.050308352810395765
2.354733945976411
-0.464551261062005
-0.050308352810395765
2.354733945976411
-0.464551261062005
-0.050308352810395765
2.354733945976411
-0.464551261062005
-0.050308352810395765
2.354733945976411
-0.4628729798335589
-0.048519643164504016
2.3541827901704
-0.4628729798335589
-0.048519643164504016
2.3541827901704
-0.4628729798335589
-0.048519643164504016
2.3541827901704
-0.4628729798335589
-0.048519643164504016
2.3541827901704
-0.4676120094296884
-0.045548502162105924
2.3545085400101406
-0.4676120094296884
-0.045548502162105924
2.3545085400101406
-0.4676120094296884
-0.045548502162105924
2.3545085400101406
-0.4676120094296884
-0.045548502162105924
2.3545085400101406
-0.47122917751722476
-0.043519612474410975
2.3551677619835196
-0.47122917751722476
-0.043519612474410975
2.3551677619835196
-0.47122917751722476
-0.043519612474410975
2.3551677619835196
-0.47122917751722476
-0.043519612474410975
2.3551677619835196
-0.47202244423249023
-0.04186128400176522
2.3555301588743953
-0.47202244423249023
-0.04186128400176522
2.3555301588743953
-0.47202244423249023
-0.04186128400176522
2.3555301588743953
-0.47202244423249023
-0.04186128400176522
2.3555301588743953
-0.46932226575644664
-0.04016391820365118
2.353955929007302
-0.46932226575644664
-0.04016391820365118
2.353955929007302
-0.46932226575644664
-0.04016391820365118
2.353955929007302
-0.46932226575644664
-0.04016391820365118
2.353955929007302
-0.46432567783151574
-0.03863544695792139
2.354419595681557
-0.46432567783151574
-0.03863544695792139
2.354419595681557
-0.46432567783151574
-0.03863544695792139
2.354419595681557
-0.46432567783151574
-0.03863544695792139
2.354419595681557
-0.4596833670990003
-0.0383741203343715
2.354190383774779
-0.4596833670990003
-0.0383741203343715
2.354190383774779
-0.4596833670990003
-0.0383741203343715
2.354190383774779
-0.4596833670990003
-0.0383741203343715
2.354190383774779
-0.45984415398457607
-0.039049174762179076
2.3539077184609782
-0.45984415398457607
-0.039049174762179076
2.3539077184609782
-0.45984415398457607
-0.039049174762179076
2.3539077184609782
-0.45984415398457607
-0.039049174762179076
2.3539077184609782
-0.46426144331956265
-0.03947295376509623
2.354220777422245
-0.46426144331956265
-0.03947295376509623
2.354220777422245
-0.46426144331956265
-0.03947295376509623
2.354220777422245
-0.46426144331956265
-0.03947295376509623
2.354220777422245
-0.4645469992174667
-0.03898711728988892
2.355018551997977
-0.4645469992174667
-0.03898711728988892
2.355018551997977
-0.4645469992174667
-0.03898711728988892
2.355018551997977
-0.4645469992174667
-0.03898711728988892
2.355018551997977
-0.4642439074685878
-0.039406811077292776
2.354995901448318
-0.4642439074685878
-0.039406811077292776
2.354995901448318
-0.4642439074685878
-0.039406811077292776
2.354995901448318
-0.4642439074685878
-0.039406811077292776
2.354995901448318
-0.46280462991133836
-0.03993021649954139
2.3548396588170686
-0.46280462991133836
-0.03993021649954139
2.3548396588170686
-0.46280462991133836
-0.03993021649954139
2.3548396588170686
-0.46280462991133836
-0.03993021649954139
2.3548396588170686
-0.4611770665010996
-0.04066600089364069
2.3545643540368384
-0.4611770665010996
-0.04066600089364069
2.3545643540368384
-0.4611770665010996
-0.04066600089364069
2.3545643540368384
-0.4611770665010996
-0.04066600089364069
2.3545643540368384
-0.46425220006836937
-0.04135692831852841
2.3531508260900953
-0.46425220006836937
-0.04135692831852841
2.3531508260900953
-0.46425220006836937
-0.04135692831852841
2.3531508260900953
-0.46425220006836937
-0.04135692831852841
2.3531508260900953
-0.47038510485769003
-0.04310564925923739
2.3543061019329405
-0.47038510485769003
-0.04310564925923739
2.3543061019329405
-0.47038510485769003
-0.04310564925923739
2.3543061019329405
-0.47038510485769003
-0.04310564925923739
2.3543061019329405
-0.4701186735161897
-0.04546534134033757
2.3558215314098474
-0.4701186735161897
-0.04546534134033757
2.3558215314098474
-0.4701186735161897
-0.04546534134033757
2.3558215314098474
-0.4701186735161897
-0.04546534134033757
2.3558215314098474
-0.4690185870234152
-0.04712614284017399
2.3560093427092195
-0.4690185870234152
-0.04712614284017399
2.3560093427092195
-0.4690185870234152
-0.04712614284017399
2.3560093427092195
-0.4690185870234152
-0.04712614284017399
2.3560093427092195
-0.47107264756078404
-0.04743211848697847
2.3560548656172298
-0.47107264756078404
-0.04743211848697847
2.3560548656172298
-0.47107264756078404
-0.04743211848697847
2.3560548656172298
-0.47107264756078404
-0.04743211848697847
2.3560548656172298
-0.4723898364829551
-0.04788077467003288
2.3559340288372344
-0.4723898364829551
-0.04788077467003288
2.3559340288372344
-0.4723898364829551
-0.04788077467003288
2.3559340288372344
-0.4723898364829551
-0.04788077467003288
2.3559340288372344
-0.4742307200755191
-0.04838706583200191
2.355908074207581
-0.4742307200755191
-0.04838706583200191
2.355908074207581
-0.4742307200755191
-0.04838706583200191
2.355908074207581
-0.4742307200755191
-0.04838706583200191
2.355908074207581
-0.47550493812834066
-0.04888125458255953
2.356078774199712
-0.47550493812834066
-0.04888125458255953
2.356078774199712
-0.47550493812834066
-0.04888125458255953
2.356078774199712
-0.47550493812834066
-0.04888125458255953
2.356078774199712
-0.47575034609651945
-0.048984420501814695
2.356061380334427
-0.47575034609651945
-0.048984420501814695
2.356061380334427
-0.47575034609651945
-0.048984420501814695
2.356061380334427
-0.47575034609651945
-0.048984420501814695
2.356061380334427
-0.4759642728769662
-0.04977713364168515
2.355978986541373
-0.4759642728769662
-0.04977713364168515
2.355978986541373
-0.4759642728769662
-0.04977713364168515
2.355978986541373
-0.4759642728769662
-0.04977713364168515
2.355978986541373
-0.474077089230515
-0.052872891453312684
2.357220017188828
-0.474077089230515
-0.052872891453312684
2.357220017188828
-0.474077089230515
-0.052872891453312684
2.357220017188828
-0.474077089230515
-0.052872891453312684
2.357220017188828
-0.473630658400842
-0.0561135643927794
2.3581547108533094
-0.473630658400842
-0.0561135643927794
2.3581547108533094
-0.473630658400842
-0.0561135643927794
2.3581547108533094
-0.473630658400842
-0.0561135643927794
2.3581547108533094
-0.47557724866449586
-0.05954044388254321
2.359080361374748
-0.47557724866449586
-0.05954044388254321
2.359080361374748
-0.47557724866449586
-0.05954044388254321
2.359080361374748
-0.47557724866449586
-0.05954044388254321
2.359080361374748
-0.477205628498094
-0.06164494326895799
2.360918264080458
-0.477205628498094
-0.06164494326895799
2.360918264080458
-0.477205628498094
-0.06164494326895799
2.360918264080458
-0.477205628498094
-0.06164494326895799
2.360918264080458
-0.47931867904462944
-0.0622132901014928
2.3621693396471906
-0.47931867904462944
-0.0622132901014928
2.3621693396471906
-0.47931867904462944
-0.0622132901014928
2.3621693396471906
-0.47931867904462944
-0.0622132901014928
2.3621693396471906
-0.4804051799739074
-0.06210966195209829
2.362759435753409
-0.4804051799739074
-0.06210966195209829
2.362759435753409
-0.4804051799739074
-0.06210966195209829
2.362759435753409
-0.4804051799739074
-0.06210966195209829
2.362759435753409
-0.4808847739823215
-0.06249300592365036
2.3636136758503095
-0.4808847739823215
-0.06249300592365036
2.3636136758503095
-0.4808847739823215
-0.06249300592365036
2.3636136758503095
-0.4808847739823215
-0.06249300592365036
2.3636136758503095
-0.4786387405251605
-0.06303249456254807
2.3652675468832185
-0.4786387405251605
-0.06303249456254807
2.3652675468832185
-0.4786387405251605
-0.06303249456254807
2.3652675468832185
-0.4786387405251605
-0.06303249456254807
2.3652675468832185
-0.47484690054176176
-0.06403421720939138
2.3673562353773194
-0.47484690054176176
-0.06403421720939138
2.3673562353773194
-0.47484690054176176
-0.06403421720939138
2.3673562353773194
-0.47484690054176176
-0.06403421720939138
2.3673562353773194
-0.4690157073700834
-0.06532993146136466
2.3692844993700017
-0.4690157073700834
-0.06532993146136466
2.3692844993700017
-0.4690157073700834
-0.06532993146136466
2.3692844993700017
-0.4690157073700834
-0.06532993146136466
2.3692844993700017
-0.463411653843998
-0.06577133882493048
2.3712405200361037
-0.463411653843998
-0.06577133882493048
2.3712405200361037
-0.463411653843998
-0.06577133882493048
2.3712405200361037
-0.463411653843998
-0.06577133882493048
2.3712405200361037
-0.4602165142363169
-0.06608057441423738
2.3728412083545374
-0.4602165142363169
-0.06608057441423738
2.3728412083545374
-0.4602165142363169
-0.06608057441423738
2.3728412083545374
-0.4602165142363169
-0.06608057441423738
2.3728412083545374
-0.46005938867096485
-0.06598356405184574
2.3735363449129263
-0.46005938867096485
-0.06598356405184574
2.3735363449129263
-0.46005938867096485
-0.06598356405184574
2.3735363449129263
-0.46005938867096485
-0.06598356405184574
2.3735363449129263
-0.46263404526661156
-0.06488201567946261
2.374082206270745
-0.46263404526661156
-0.06488201567946261
2.374082206270745
-0.46263404526661156
-0.06488201567946261
2.374082206270745
-0.46263404526661156
-0.06488201567946261
2.374082206270745
-0.46458508029358686
-0.06413647250744312
2.373781007281664
-0.46458508029358686
-0.06413647250744312
2.373781007281664
-0.46458508029358686
-0.06413647250744312
2.373781007281664
-0.46458508029358686
-0.06413647250744312
2.373781007281664
-0.4624946309392201
-0.06307028674668014
2.3729748134182413
-0.4624946309392201
-0.06307028674668014
2.3729748134182413
-0.4624946309392201
-0.06307028674668014
2.3729748134182413
-0.4624946309392201
-0.06307028674668014
2.3729748134182413
-0.4598717178813799
-0.06254971196234109
2.3723774849231583
-0.4598717178813799
-0.06254971196234109
2.3723774849231583
-0.4598717178813799
-0.06254971196234109
2.3723774849231583
-0.4598717178813799
-0.06254971196234109
2.3723774849231583
-0.4587853338407583
-0.06265250622225135
2.371786176777403
-0.4587853338407583
-0.06265250622225135
2.371786176777403
-0.4587853338407583
-0.06265250622225135
2.371786176777403
-0.4587853338407583
-0.06265250622225135
2.371786176777403
-0.45914365654860056
-0.06321188790035473
2.371205596099782
-0.45914365654860056
-0.06321188790035473
2.371205596099782
-0.45914365654860056
-0.06321188790035473
2.371205596099782
-0.45914365654860056
-0.06321188790035473
2.371205596099782
-0.4597405335101325
-0.06377220765693152
2.371029012881646
-0.4597405335101325
-0.06377220765693152
2.371029012881646
-0.4597405335101325
-0.06377220765693152
2.371029012881646
-0.4597405335101325
-0.06377220765693152
2.371029012881646
-0.4590326921094878
-0.06428446595012817
2.3704976700389557
-0.4590326921094878
-0.06428446595012817
2.3704976700389557
-0.4590326921094878
-0.06428446595012817
2.3704976700389557
-0.4590326921094878
-0.06428446595012817
2.3704976700389557
-0.4576597997996344
-0.06433232142554723
2.3702108512555307
-0.4576597997996344
-0.06433232142554723
2.3702108512555307
-0.4576597997996344
-0.06433232142554723
2.3702108512555307
-0.4576597997996344
-0.06433232142554723
2.3702108512555307
-0.45754169571080305
-0.06441313548553106
2.3696662954086003
-0.45754169571080305
-0.06441313548553106
2.3696662954086003
-0.45754169571080305
-0.06441313548553106
2.3696662954086003
-0.45754169571080305
-0.06441313548553106
2.3696662954086003
-0.45783862403831993
-0.06405355252688287
2.3694286222172543
-0.45783862403831993
-0.06405355252688287
2.3694286222172543
-0.45783862403831993
-0.06405355252688287
2.3694286222172543
-0.45783862403831993
-0.06405355252688287
2.3694286222172543
-0.4585798526191275
-0.06361900363277981
2.3691401375507684
-0.4585798526191275
-0.06361900363277981
2.3691401375507684
-0.4585798526191275
-0.06361900363277981
2.3691401375507684
-0.4585798526191275
-0.06361900363277981
2.3691401375507684
-0.45914897591379433
-0.06333793149789892
2.3684858624720238
-0.45914897591379433
-0.06333793149789892
2.3684858624720238
-0.45914897591379433
-0.06333793149789892
2.3684858624720238
-0.45914897591379433
-0.06333793149789892
2.3684858624720238
-0.45884105395081687
-0.06279336695627535
2.3680008730685898
-0.45884105395081687
-0.06279336695627535
2.3680008730685898
-0.45884105395081687
-0.06279336695627535
2.3680008730685898
-0.45884105395081687
-0.06279336695627535
2.3680008730685898
-0.45876495493988245
-0.06237496239480587
2.3673892501668394
-0.45876495493988245
-0.06237496239480587
2.3673892501668394
-0.45876495493988245
-0.06237496239480587
2.3673892501668394
-0.45876495493988245
-0.06237496239480587
2.3673892501668394
-0.4592940300959377
-0.062142214065785156
2.3670242462648154
-0.4592940300959377
-0.062142214065785156
2.3670242462648154
-0.4592940300959377
-0.062142214065785156
2.3670242462648154
-0.4592940300959377
-0.062142214065785156
2.3670242462648154
-0.4599869794341703
-0.061467334432269295
2.36707217235186
-0.4599869794341703
-0.061467334432269295
2.36707217235186
-0.4599869794341703
-0.061467334432269295
2.36707217235186
-0.4599869794341703
-0.061467334432269295
2.36707217235186
-0.460141666718694
-0.0614010847207205
2.367061657763545
-0.460141666718694
-0.0614010847207205
2.367061657763545
-0.460141666718694
-0.0614010847207205
2.367061657763545
-0.460141666718694
-0.0614010847207205
2.367061657763545
-0.4598076189373519
-0.0608799382652677
2.3669769591859104
-0.4598076189373519
-0.0608799382652677
2.3669769591859104
-0.4598076189373519
-0.0608799382652677
2.3669769591859104
-0.4598076189373519
-0.0608799382652677
2.3669769591859104
-0.4593189307569637
-0.060424996235622516
2.366903008993733
-0.4593189307569637
-0.060424996235622516
2.366903008993733
-0.4593189307569637
-0.060424996235622516
2.366903008993733
-0.4593189307569637
-0.060424996235622516
2.366903008993733
-0.46004233641689624
-0.06030396066978898
2.36696529822883
-0.46004233641689624
-0.06030396066978898
2.36696529822883
-0.46004233641689624
-0.06030396066978898
2.36696529822883
-0.46004233641689624
-0.06030396066978898
2.36696529822883
-0.46098673771853294
-0.0602710478679308
2.367055224938684
-0.46098673771853294
-0.0602710478679308
2.367055224938684
-0.46098673771853294
-0.0602710478679308
2.367055224938684
-0.46098673771853294
-0.0602710478679308
2.367055224938684
-0.46177072481451004
-0.06040393635819616
2.3672466773831364
-0.46177072481451004
-0.06040393635819616
2.3672466773831364
-0.46177072481451004
-0.06040393635819616
2.3672466773831364
-0.46177072481451004
-0.06040393635819616
2.3672466773831364
-0.46188123028977934
-0.0604480013075541
2.367260570424859
-0.46188123028977934
-0.0604480013075541
2.367260570424859
-0.46188123028977934
-0.0604480013075541
2.367260570424859
-0.46188123028977934
-0.0604480013075541
2.367260570424859
-0.46134921819503116
-0.060291524308627484
2.367583001364081
-0.46134921819503116
-0.060291524308627484
2.367583001364081
-0.46134921819503116
-0.060291524308627484
2.367583001364081
-0.46134921819503116
-0.060291524308627484
2.367583001364081
-0.4618217549256133
-0.060807526954182956
2.3679029573829413
-0.4618217549256133
-0.060807526954182956
2.3679029573829413
-0.4618217549256133
-0.060807526954182956
2.3679029573829413
-0.4618217549256133
-0.060807526954182956
2.3679029573829413
-0.46193102655160256
-0.06107622979121996
2.368645224850442
-0.46193102655160256
-0.06107622979121996
2.368645224850442
-0.46193102655160256
-0.06107622979121996
2.368645224850442
-0.46193102655160256
-0.06107622979121996
2.368645224850442
-0.4616392797819054
-0.06066988556223639
2.3692638428746617
-0.4616392797819054
-0.06066988556223639
2.3692638428746617
-0.4616392797819054
-0.06066988556223639
2.3692638428746617
-0.4616392797819054
-0.06066988556223639
2.3692638428746617
-0.4616392797819054
-0.06066988556223639
2.3692638428746617
-0.4616392797819054
-0.06066988556223639
