-0.36827106378495944
0.005046518728848585
1.766835044239325
-0.36827106378495944
0.005046518728848585
1.766835044239325
-0.36827106378495944
0.005046518728848585
1.766835044239325
-0.36827106378495944
0.005046518728848585
1.766835044239325
-0.3684609502879551
0.005017662840788935
1.7665864361924177
-0.3684609502879551
0.005017662840788935
1.7665864361924177
-0.3684609502879551
0.005017662840788935
1.7665864361924177
-0.3684609502879551
0.005017662840788935
1.7665864361924177
-0.36898160974611116
0.005084679713011744
1.766668579657027
-0.36898160974611116
0.005084679713011744
1.766668579657027
-0.36898160974611116
0.005084679713011744
1.766668579657027
-0.36898160974611116
0.005084679713011744
1.766668579657027
-0.36898160974611116
0.005084679713011744
1.766668579657027
-0.36898160974611116
0.005084679713011744
1.766668579657027
-0.36898160974611116
0.005084679713011744
1.766668579657027
-0.36898160974611116
0.005084679713011744
1.766668579657027
-0.3683542929115364
0.005076390732127121
1.7664797788159987
-0.3683542929115364
0.005076390732127121
1.7664797788159987
-0.3683542929115364
0.005076390732127121
1.7664797788159987
-0.3683542929115364
0.005076390732127121
1.7664797788159987
-0.3683542929115364
0.005076390732127121
1.7664797788159987
-0.3683542929115364
0.005076390732127121
1.7664797788159987
-0.3683542929115364
0.005076390732127121
1.7664797788159987
-0.3683542929115364
0.005076390732127121
1.7664797788159987
-0.36881623499553273
0.005036706083482649
1.7665032049064486
-0.36881623499553273
0.005036706083482649
1.7665032049064486
-0.36881623499553273
0.005036706083482649
1.7665032049064486
-0.36881623499553273
0.005036706083482649
1.7665032049064486
-0.36881623499553273
0.005036706083482649
1.7665032049064486
-0.36881623499553273
0.005036706083482649
1.7665032049064486
-0.36881623499553273
0.005036706083482649
1.7665032049064486
-0.36881623499553273
0.005036706083482649
1.7665032049064486
-0.36881623499553273
0.005036706083482649
1.7665032049064486
-0.36881623499553273
0.005036706083482649
1.7665032049064486
-0.36881623499553273
0.005036706083482649
1.7665032049064486
-0.36881623499553273
0.005036706083482649
1.7665032049064486
-0.3687400351613366
0.004944005454691485
1.7665206911270241
-0.3687400351613366
0.004944005454691485
1.7665206911270241
-0.3687400351613366
0.004944005454691485
1.7665206911270241
-0.3687400351613366
0.004944005454691485
1.7665206911270241
-0.36864733178633624
0.005020205378719367
1.7665067214661645
-0.36864733178633624
0.005020205378719367
1.7665067214661645
-0.36864733178633624
0.005020205378719367
1.7665067214661645
-0.36864733178633624
0.005020205378719367
1.7665067214661645
-0.36864733178633624
0.005020205378719367
1.7665067214661645
-0.36864733178633624
0.005020205378719367
1.7665067214661645
-0.36864733178633624
0.005020205378719367
1.7665067214661645
-0.36864733178633624
0.005020205378719367
1.7665067214661645
-0.36864733178633624
0.005020205378719367
1.7665067214661645
-0.36864733178633624
0.005020205378719367
1.7665067214661645
-0.36864733178633624
0.005020205378719367
1.7665067214661645
-0.36864733178633624
0.005020205378719367
1.7665067214661645
-0.36864733178633624
0.005020205378719367
1.7665067214661645
-0.36864733178633624
0.005020205378719367
1.7665067214661645
-0.36864733178633624
0.005020205378719367
1.7665067214661645
-0.36864733178633624
0.005020205378719367
1.7665067214661645
-0.36864733178633624
0.005020205378719367
1.7665067214661645
-0.36864733178633624
0.005020205378719367
1.7665067214661645
-0.36864733178633624
0.005020205378719367
1.7665067214661645
-0.36864733178633624
0.005020205378719367
1.7665067214661645
-0.3685371479992475
0.005110365836246056
1.766568960025037
-0.3685371479992475
0.005110365836246056
1.766568960025037
-0.3685371479992475
0.005110365836246056
1.766568960025037
-0.3685371479992475
0.005110365836246056
1.766568960025037
-0.36946262343913866
0.004689758456238476
1.7666623548761455
-0.36946262343913866
0.004689758456238476
1.7666623548761455
-0.36946262343913866
0.004689758456238476
1.7666623548761455
-0.36946262343913866
0.004689758456238476
1.7666623548761455
-0.3703119702178765
0.004176536264411952
1.7667736702874874
-0.3703119702178765
0.004176536264411952
1.7667736702874874
-0.3703119702178765
0.004176536264411952
1.7667736702874874
-0.3703119702178765
0.004176536264411952
1.7667736702874874
-0.3699932290146837
0.0037882093536166657
1.7667510175891457
-0.3699932290146837
0.0037882093536166657
1.7667510175891457
-0.3699932290146837
0.0037882093536166657
1.7667510175891457
-0.3699932290146837
0.0037882093536166657
1.7667510175891457
-0.3695056060449684
0.003383353279247584
1.7667316304189147
-0.3695056060449684
0.003383353279247584
1.7667316304189147
-0.3695056060449684
0.003383353279247584
1.7667316304189147
-0.3695056060449684
0.003383353279247584
1.7667316304189147
-0.36941289271559385
0.0034595230122412115
1.7667175614461879
-0.36941289271559385
0.0034595230122412115
1.7667175614461879
-0.36941289271559385
0.0034595230122412115
1.7667175614461879
-0.36941289271559385
0.0034595230122412115
1.7667175614461879
-0.36987399519113257
0.003265041359112589
1.7668491230917633
-0.36987399519113257
0.003265041359112589
1.7668491230917633
-0.36987399519113257
0.003265041359112589
1.7668491230917633
-0.36987399519113257
0.003265041359112589
1.7668491230917633
-0.37107870321229935
0.0027708868827570022
1.7668783059237887
-0.37107870321229935
0.0027708868827570022
1.7668783059237887
-0.37107870321229935
0.0027708868827570022
1.7668783059237887
-0.37107870321229935
0.0027708868827570022
1.7668783059237887
-0.3710025558251035
0.0026781741913564964
1.766895813514142
-0.3710025558251035
0.0026781741913564964
1.766895813514142
-0.3710025558251035
0.0026781741913564964
1.766895813514142
-0.3710025558251035
0.0026781741913564964
1.766895813514142
-0.37018527350209673
0.0026988450688291477
1.7669546095235893
-0.37018527350209673
0.0026988450688291477
1.7669546095235893
-0.37018527350209673
0.0026988450688291477
1.7669546095235893
-0.37018527350209673
0.0026988450688291477
1.7669546095235893
-0.37050831820999974
0.002336501937059769
1.7672140941301537
-0.37050831820999974
0.002336501937059769
1.7672140941301537
-0.37050831820999974
0.002336501937059769
1.7672140941301537
-0.37050831820999974
0.002336501937059769
1.7672140941301537
-0.37029571574927145
0.0017347297832045255
1.7674058188607742
-0.37029571574927145
0.0017347297832045255
1.7674058188607742
-0.37029571574927145
0.0017347297832045255
1.7674058188607742
-0.37029571574927145
0.0017347297832045255
1.7674058188607742
-0.3689630834298012
0.0010917849615655892
1.7675097265838207
-0.3689630834298012
0.0010917849615655892
1.7675097265838207
-0.3689630834298012
0.0010917849615655892
1.7675097265838207
-0.3689630834298012
0.0010917849615655892
1.7675097265838207
-0.3689630834298012
0.0010917849615655892
1.7675097265838207
-0.3689630834298012
0.0010917849615655892
1.7675097265838207
-0.3689630834298012
0.0010917849615655892
1.7675097265838207
-0.3689630834298012
0.0010917849615655892
1.7675097265838207
-0.3683032922459537
0.0015642241334144582
1.7680250957384442
-0.3683032922459537
0.0015642241334144582
1.7680250957384442
-0.3683032922459537
0.0015642241334144582
1.7680250957384442
-0.3683032922459537
0.0015642241334144582
1.7680250957384442
-0.3666462342639698
0.002003349590808841
1.7674649679414287
-0.3666462342639698
0.002003349590808841
1.7674649679414287
-0.3666462342639698
0.002003349590808841
1.7674649679414287
-0.3666462342639698
0.002003349590808841
1.7674649679414287
-0.3631361766082445
0.004487765852661687
1.7670393964943152
-0.3631361766082445
0.004487765852661687
1.7670393964943152
-0.3631361766082445
0.004487765852661687
1.7670393964943152
-0.3631361766082445
0.004487765852661687
1.7670393964943152
-0.3637392621622953
0.008104829559380588
1.7657700849101103
-0.3637392621622953
0.008104829559380588
1.7657700849101103
-0.3637392621622953
0.008104829559380588
1.7657700849101103
-0.3637392621622953
0.008104829559380588
1.7657700849101103
-0.3523497644797374
0.009978844209706586
1.7652777753729347
-0.3523497644797374
0.009978844209706586
1.7652777753729347
-0.3523497644797374
0.009978844209706586
1.7652777753729347
-0.3523497644797374
0.009978844209706586
1.7652777753729347
-0.33153512817201974
0.012310684682306741
1.7651741962318528
-0.33153512817201974
0.012310684682306741
1.7651741962318528
-0.33153512817201974
0.012310684682306741
1.7651741962318528
-0.33153512817201974
0.012310684682306741
1.7651741962318528
-0.32934817375099124
0.018728068018269255
1.7659416733590554
-0.32934817375099124
0.018728068018269255
1.7659416733590554
-0.32934817375099124
0.018728068018269255
1.7659416733590554
-0.32934817375099124
0.018728068018269255
1.7659416733590554
-0.352785327145867
0.025837718034233303
1.7689915657607602
-0.352785327145867
0.025837718034233303
1.7689915657607602
-0.352785327145867
0.025837718034233303
1.7689915657607602
-0.352785327145867
0.025837718034233303
1.7689915657607602
-0.37148202311060513
0.028551836719003288
1.768141666660196
-0.37148202311060513
0.028551836719003288
1.768141666660196
-0.37148202311060513
0.028551836719003288
1.768141666660196
-0.37148202311060513
0.028551836719003288
1.768141666660196
-0.3682025220581426
0.03241065309256997
1.768387923776679
-0.3682025220581426
0.03241065309256997
1.768387923776679
-0.3682025220581426
0.03241065309256997
1.768387923776679
-0.3682025220581426
0.03241065309256997
1.768387923776679
-0.3552163737818511
0.03435914748643118
1.7665138279860595
-0.3552163737818511
0.03435914748643118
1.7665138279860595
-0.3552163737818511
0.03435914748643118
1.7665138279860595
-0.3552163737818511
0.03435914748643118
1.7665138279860595
-0.34703509399790594
0.034177643166749906
1.7646917875135408
-0.34703509399790594
0.034177643166749906
1.7646917875135408
-0.34703509399790594
0.034177643166749906
1.7646917875135408
-0.34703509399790594
0.034177643166749906
1.7646917875135408
-0.35132195033967106
0.03460177410426354
1.7651518478078856
-0.35132195033967106
0.03460177410426354
1.7651518478078856
-0.35132195033967106
0.03460177410426354
1.7651518478078856
-0.35132195033967106
0.03460177410426354
1.7651518478078856
-0.35852975608460114
0.03480866825198016
1.7661735983437985
-0.35852975608460114
0.03480866825198016
1.7661735983437985
-0.35852975608460114
0.03480866825198016
1.7661735983437985
-0.35852975608460114
0.03480866825198016
1.7661735983437985
-0.35687161618119023
0.03463841194514586
1.765675157679532
-0.35687161618119023
0.03463841194514586
1.765675157679532
-0.35687161618119023
0.03463841194514586
1.765675157679532
-0.35687161618119023
0.03463841194514586
1.765675157679532
-0.3520859795195426
0.036812588776125414
1.7637939247534042
-0.3520859795195426
0.036812588776125414
1.7637939247534042
-0.3520859795195426
0.036812588776125414
1.7637939247534042
-0.3520859795195426
0.036812588776125414
1.7637939247534042
-0.35116216074781026
0.03723508009925485
1.7637190227372606
-0.35116216074781026
0.03723508009925485
1.7637190227372606
-0.35116216074781026
0.03723508009925485
1.7637190227372606
-0.35116216074781026
0.03723508009925485
1.7637190227372606
-0.3508310197280092
0.03698374387731693
1.7644678340837263
-0.3508310197280092
0.03698374387731693
1.7644678340837263
-0.3508310197280092
0.03698374387731693
1.7644678340837263
-0.3508310197280092
0.03698374387731693
1.7644678340837263
-0.35365730160423037
0.037026833108192686
1.7641097668235486
-0.35365730160423037
0.037026833108192686
1.7641097668235486
-0.35365730160423037
0.037026833108192686
1.7641097668235486
-0.35365730160423037
0.037026833108192686
1.7641097668235486
-0.3520994616137777
0.03664104498075001
1.7647926407486392
-0.3520994616137777
0.03664104498075001
1.7647926407486392
-0.3520994616137777
0.03664104498075001
1.7647926407486392
-0.3520994616137777
0.03664104498075001
1.7647926407486392
-0.349013746894258
0.036661265596239875
1.7641754410699062
-0.349013746894258
0.036661265596239875
1.7641754410699062
-0.349013746894258
0.036661265596239875
1.7641754410699062
-0.349013746894258
0.036661265596239875
1.7641754410699062
-0.35251321994305385
0.03695465183934976
1.7638564850457363
-0.35251321994305385
0.03695465183934976
1.7638564850457363
-0.35251321994305385
0.03695465183934976
1.7638564850457363
-0.35251321994305385
0.03695465183934976
1.7638564850457363
-0.3566849987073881
0.03572975825714686
1.7645128724447698
-0.3566849987073881
0.03572975825714686
1.7645128724447698
-0.3566849987073881
0.03572975825714686
1.7645128724447698
-0.3566849987073881
0.03572975825714686
1.7645128724447698
-0.35839030476378764
0.03523412745168676
1.7642395879671113
-0.35839030476378764
0.03523412745168676
1.7642395879671113
-0.35839030476378764
0.03523412745168676
1.7642395879671113
-0.35839030476378764
0.03523412745168676
1.7642395879671113
-0.35424087783963026
0.03441458627873025
1.7629781911761455
-0.35424087783963026
0.03441458627873025
1.7629781911761455
-0.35424087783963026
0.03441458627873025
1.7629781911761455
-0.35424087783963026
0.03441458627873025
1.7629781911761455
-0.3546561230330844
0.034883884075174156
1.7619353681043526
-0.3546561230330844
0.034883884075174156
1.7619353681043526
-0.3546561230330844
0.034883884075174156
1.7619353681043526
-0.3546561230330844
0.034883884075174156
1.7619353681043526
-0.3599390673934345
0.03390782951192854
1.7619296681348056
-0.3599390673934345
0.03390782951192854
1.7619296681348056
-0.3599390673934345
0.03390782951192854
1.7619296681348056
-0.3599390673934345
0.03390782951192854
1.7619296681348056
-0.3638581214163415
0.03252077896256693
1.7613906249659785
-0.3638581214163415
0.03252077896256693
1.7613906249659785
-0.3638581214163415
0.03252077896256693
1.7613906249659785
-0.3638581214163415
0.03252077896256693
1.7613906249659785
-0.3622161013614535
0.032261079930202934
1.7603832776284216
-0.3622161013614535
0.032261079930202934
1.7603832776284216
-0.3622161013614535
0.032261079930202934
1.7603832776284216
-0.3622161013614535
0.032261079930202934
1.7603832776284216
-0.3633952725602135
0.03180392529205886
1.7596700356773598
-0.3633952725602135
0.03180392529205886
1.7596700356773598
-0.3633952725602135
0.03180392529205886
1.7596700356773598
-0.3633952725602135
0.03180392529205886
1.7596700356773598
-0.3652339945160764
0.03090287590958218
1.7586001717763222
-0.3652339945160764
0.03090287590958218
1.7586001717763222
-0.3652339945160764
0.03090287590958218
1.7586001717763222
-0.3652339945160764
0.03090287590958218
1.7586001717763222
-0.3657536847043683
0.030963166153078515
1.7577069570338908
-0.3657536847043683
0.030963166153078515
1.7577069570338908
-0.3657536847043683
0.030963166153078515
1.7577069570338908
-0.3657536847043683
0.030963166153078515
1.7577069570338908
-0.36775277935133116
0.030298136114581632
1.7578324249599107
-0.36775277935133116
0.030298136114581632
1.7578324249599107
-0.36775277935133116
0.030298136114581632
1.7578324249599107
-0.36775277935133116
0.030298136114581632
1.7578324249599107
-0.36838605827303217
0.02914846983766576
1.7579577792734156
-0.36838605827303217
0.02914846983766576
1.7579577792734156
-0.36838605827303217
0.02914846983766576
1.7579577792734156
-0.36838605827303217
0.02914846983766576
1.7579577792734156
-0.369659888037363
0.02877314016837424
1.7581214938422427
-0.369659888037363
0.02877314016837424
1.7581214938422427
-0.369659888037363
0.02877314016837424
1.7581214938422427
-0.369659888037363
0.02877314016837424
1.7581214938422427
-0.3689918359083616
0.027555728404771457
1.7580880064981146
-0.3689918359083616
0.027555728404771457
1.7580880064981146
-0.3689918359083616
0.027555728404771457
1.7580880064981146
-0.3689918359083616
0.027555728404771457
1.7580880064981146
-0.36971991324893516
0.027154037606737114
1.7574534638414852
-0.36971991324893516
0.027154037606737114
1.7574534638414852
-0.36971991324893516
0.027154037606737114
1.7574534638414852
-0.36971991324893516
0.027154037606737114
1.7574534638414852
-0.3716931441536919
0.02672105755796185
1.757890491564801
-0.3716931441536919
0.02672105755796185
1.757890491564801
-0.3716931441536919
0.02672105755796185
1.757890491564801
-0.3716931441536919
0.02672105755796185
1.757890491564801
-0.37442052252707503
0.0259229158780604
1.7578796265897854
-0.37442052252707503
0.0259229158780604
1.7578796265897854
-0.37442052252707503
0.0259229158780604
1.7578796265897854
-0.37442052252707503
0.0259229158780604
1.7578796265897854
-0.37513068282618406
0.024865864370260886
1.757991712812777
-0.37513068282618406
0.024865864370260886
1.757991712812777
-0.37513068282618406
0.024865864370260886
1.757991712812777
-0.37513068282618406
0.024865864370260886
1.757991712812777
-0.37226875845228385
0.02452941503131721
1.7581372916557279
-0.37226875845228385
0.02452941503131721
1.7581372916557279
-0.37226875845228385
0.02452941503131721
1.7581372916557279
-0.37226875845228385
0.02452941503131721
1.7581372916557279
-0.372642358371263
0.02426487397326957
1.7574829164730286
-0.372642358371263
0.02426487397326957
1.7574829164730286
-0.372642358371263
0.02426487397326957
1.7574829164730286
-0.372642358371263
0.02426487397326957
1.7574829164730286
-0.3752335562396692
0.023788878954589594
1.757845056543861
-0.3752335562396692
0.023788878954589594
1.757845056543861
-0.3752335562396692
0.023788878954589594
1.757845056543861
-0.3752335562396692
0.023788878954589594
1.757845056543861
-0.3761184936155974
0.023921596308362776
1.7580965049252346
-0.3761184936155974
0.023921596308362776
1.7580965049252346
-0.3761184936155974
0.023921596308362776
1.7580965049252346
-0.3761184936155974
0.023921596308362776
1.7580965049252346
-0.3762277268599659
0.023561697171146152
1.757542995964873
-0.3762277268599659
0.023561697171146152
1.757542995964873
-0.3762277268599659
0.023561697171146152
1.757542995964873
-0.3762277268599659
0.023561697171146152
1.757542995964873
-0.37650922985236956
0.023299576827483022
1.7574145642905197
-0.37650922985236956
0.023299576827483022
1.7574145642905197
-0.37650922985236956
0.023299576827483022
1.7574145642905197
-0.37650922985236956
0.023299576827483022
1.7574145642905197
-0.37643249103677007
0.023207432929791154
1.7574330437618175
-0.37643249103677007
0.023207432929791154
1.7574330437618175
-0.37643249103677007
0.023207432929791154
1.7574330437618175
-0.37643249103677007
0.023207432929791154
1.7574330437618175
-0.37711969870093887
0.02347499700787834
1.7575654319206804
-0.37711969870093887
0.02347499700787834
1.7575654319206804
-0.37711969870093887
0.02347499700787834
1.7575654319206804
-0.37711969870093887
0.02347499700787834
1.7575654319206804
-0.3747962644600789
0.023743916729198046
1.7564428703814894
-0.3747962644600789
0.023743916729198046
1.7564428703814894
-0.3747962644600789
0.023743916729198046
1.7564428703814894
-0.3747962644600789
0.023743916729198046
1.7564428703814894
-0.376188144041156
0.024931554804302775
1.7559622582838161
-0.376188144041156
0.024931554804302775
1.7559622582838161
-0.376188144041156
0.024931554804302775
1.7559622582838161
-0.376188144041156
0.024931554804302775
1.7559622582838161
-0.37958860516609894
0.024451416608160425
1.7554563729952257
-0.37958860516609894
0.024451416608160425
1.7554563729952257
-0.37958860516609894
0.024451416608160425
1.7554563729952257
-0.37958860516609894
0.024451416608160425
1.7554563729952257
-0.3803697674972859
0.024454232633959763
1.7555417478059427
-0.3803697674972859
0.024454232633959763
1.7555417478059427
-0.3803697674972859
0.024454232633959763
1.7555417478059427
-0.3803697674972859
0.024454232633959763
1.7555417478059427
-0.37912146628467724
0.02459713404878167
1.7550677102254464
-0.37912146628467724
0.02459713404878167
1.7550677102254464
-0.37912146628467724
0.02459713404878167
1.7550677102254464
-0.37912146628467724
0.02459713404878167
1.7550677102254464
-0.3789339426208326
0.02459549121686296
1.7551496219720317
-0.3789339426208326
0.02459549121686296
1.7551496219720317
-0.3789339426208326
0.02459549121686296
1.7551496219720317
-0.3789339426208326
0.02459549121686296
1.7551496219720317
-0.3800986918132604
0.024652333301796846
1.7553320488531525
-0.3800986918132604
0.024652333301796846
1.7553320488531525
-0.3800986918132604
0.024652333301796846
1.7553320488531525
-0.3800986918132604
0.024652333301796846
1.7553320488531525
-0.3816288696378525
0.02518310299576222
1.7554974345154224
-0.3816288696378525
0.02518310299576222
1.7554974345154224
-0.3816288696378525
0.02518310299576222
1.7554974345154224
-0.3816288696378525
0.02518310299576222
1.7554974345154224
-0.3794533507590122
0.025783418968702506
1.7551064425087537
-0.3794533507590122
0.025783418968702506
1.7551064425087537
-0.3794533507590122
0.025783418968702506
1.7551064425087537
-0.3794533507590122
0.025783418968702506
1.7551064425087537
-0.3783452896956572
0.02721593242992996
1.7543845492320278
-0.3783452896956572
0.02721593242992996
1.7543845492320278
-0.3783452896956572
0.02721593242992996
1.7543845492320278
-0.3783452896956572
0.02721593242992996
1.7543845492320278
-0.38097965525100536
0.028477733621700398
1.754599632620131
-0.38097965525100536
0.028477733621700398
1.754599632620131
-0.38097965525100536
0.028477733621700398
1.754599632620131
-0.38097965525100536
0.028477733621700398
1.754599632620131
-0.3836562688870915
0.029350475973145655
1.7555075894344825
-0.3836562688870915
0.029350475973145655
1.7555075894344825
-0.3836562688870915
0.029350475973145655
1.7555075894344825
-0.3836562688870915
0.029350475973145655
1.7555075894344825
-0.38259118315233265
0.03013197811443373
1.755960040914601
-0.38259118315233265
0.03013197811443373
1.755960040914601
-0.38259118315233265
0.03013197811443373
1.755960040914601
-0.38259118315233265
0.03013197811443373
1.755960040914601
-0.3783206752716492
0.03151737527565752
1.756569331168991
-0.3783206752716492
0.03151737527565752
1.756569331168991
-0.3783206752716492
0.03151737527565752
1.756569331168991
-0.3783206752716492
0.03151737527565752
1.756569331168991
-0.37854791545237954
0.03284478412383675
1.756932099201575
-0.37854791545237954
0.03284478412383675
1.756932099201575
-0.37854791545237954
0.03284478412383675
1.756932099201575
-0.37854791545237954
0.03284478412383675
1.756932099201575
-0.384119979415662
0.033956756784113626
1.7580606714127383
-0.384119979415662
0.033956756784113626
1.7580606714127383
-0.384119979415662
0.033956756784113626
1.7580606714127383
-0.384119979415662
0.033956756784113626
1.7580606714127383
-0.38558132069948325
0.034261559179396314
1.7584386381111838
-0.38558132069948325
0.034261559179396314
1.7584386381111838
-0.38558132069948325
0.034261559179396314
1.7584386381111838
-0.38558132069948325
0.034261559179396314
1.7584386381111838
-0.38208573337099117
0.0350743909421663
1.7584673863317364
-0.38208573337099117
0.0350743909421663
1.7584673863317364
-0.38208573337099117
0.0350743909421663
1.7584673863317364
-0.38208573337099117
0.0350743909421663
1.7584673863317364
-0.3798948637848923
0.03557997480629804
1.758533785927178
-0.3798948637848923
0.03557997480629804
1.758533785927178
-0.3798948637848923
0.03557997480629804
1.758533785927178
-0.3798948637848923
0.03557997480629804
1.758533785927178
-0.38305184218756333
0.035944559617289984
1.7588232192757585
-0.38305184218756333
0.035944559617289984
1.7588232192757585
-0.38305184218756333
0.035944559617289984
1.7588232192757585
-0.38305184218756333
0.035944559617289984
1.7588232192757585
-0.38553474195618354
0.03580172611448858
1.7595564632605478
-0.38553474195618354
0.03580172611448858
1.7595564632605478
-0.38553474195618354
0.03580172611448858
1.7595564632605478
-0.38553474195618354
0.03580172611448858
1.7595564632605478
-0.38266912538930303
0.03521233268237487
1.758430043197618
-0.38266912538930303
0.03521233268237487
1.758430043197618
-0.38266912538930303
0.03521233268237487
1.758430043197618
-0.38266912538930303
0.03521233268237487
1.758430043197618
-0.38050650585430895
0.035744812694032874
1.7577118089045467
-0.38050650585430895
0.035744812694032874
1.7577118089045467
-0.38050650585430895
0.035744812694032874
1.7577118089045467
-0.38050650585430895
0.035744812694032874
1.7577118089045467
-0.38300366031607497
0.035346822547423135
1.7580477852298262
-0.38300366031607497
0.035346822547423135
1.7580477852298262
-0.38300366031607497
0.035346822547423135
1.7580477852298262
-0.38300366031607497
0.035346822547423135
1.7580477852298262
-0.38543850563199483
0.03496164504211988
1.7589258356466466
-0.38543850563199483
0.03496164504211988
1.7589258356466466
-0.38543850563199483
0.03496164504211988
1.7589258356466466
-0.38543850563199483
0.03496164504211988
1.7589258356466466
-0.38137183010626546
0.03503942512639503
1.7586450686072794
-0.38137183010626546
0.03503942512639503
1.7586450686072794
-0.38137183010626546
0.03503942512639503
1.7586450686072794
-0.38137183010626546
0.03503942512639503
1.7586450686072794
-0.379606195620074
0.036051438190175686
1.7579235531156285
-0.379606195620074
0.036051438190175686
1.7579235531156285
-0.379606195620074
0.036051438190175686
1.7579235531156285
-0.379606195620074
0.036051438190175686
1.7579235531156285
-0.3842027219597919
0.03598519088146757
1.7589070599231469
-0.3842027219597919
0.03598519088146757
1.7589070599231469
-0.3842027219597919
0.03598519088146757
1.7589070599231469
-0.3842027219597919
0.03598519088146757
1.7589070599231469
-0.38806081465246345
0.035257713654386555
1.7600182428657993
-0.38806081465246345
0.035257713654386555
1.7600182428657993
-0.38806081465246345
0.035257713654386555
1.7600182428657993
-0.38806081465246345
0.035257713654386555
1.7600182428657993
-0.38480351526222895
0.03518780532596921
1.7599436808065063
-0.38480351526222895
0.03518780532596921
1.7599436808065063
-0.38480351526222895
0.03518780532596921
1.7599436808065063
-0.38480351526222895
0.03518780532596921
1.7599436808065063
-0.38025594394565776
0.03557662369876683
1.759244807000075
-0.38025594394565776
0.03557662369876683
1.759244807000075
-0.38025594394565776
0.03557662369876683
1.759244807000075
-0.38025594394565776
0.03557662369876683
1.759244807000075
-0.3816186643748669
0.03599048595212193
1.7597779165355947
-0.3816186643748669
0.03599048595212193
1.7597779165355947
-0.3816186643748669
0.03599048595212193
1.7597779165355947
-0.3816186643748669
0.03599048595212193
1.7597779165355947
-0.38457708264349216
0.035828100150370454
1.7606194807893505
-0.38457708264349216
0.035828100150370454
1.7606194807893505
-0.38457708264349216
0.035828100150370454
1.7606194807893505
-0.38457708264349216
0.035828100150370454
1.7606194807893505
-0.3858194194886069
0.035534394444059786
1.7611962325295767
-0.3858194194886069
0.035534394444059786
1.7611962325295767
-0.3858194194886069
0.035534394444059786
1.7611962325295767
-0.3858194194886069
0.035534394444059786
1.7611962325295767
-0.38436204116929396
0.035123936087417644
1.7611894969112523
-0.38436204116929396
0.035123936087417644
1.7611894969112523
-0.38436204116929396
0.035123936087417644
1.7611894969112523
-0.38436204116929396
0.035123936087417644
1.7611894969112523
-0.3857702751913086
0.03418808315689572
1.7606637527006506
-0.3857702751913086
0.03418808315689572
1.7606637527006506
-0.3857702751913086
0.03418808315689572
1.7606637527006506
-0.3857702751913086
0.03418808315689572
1.7606637527006506
-0.39358280543428753
0.03290873021384549
1.7614611701349212
-0.39358280543428753
0.03290873021384549
1.7614611701349212
-0.39358280543428753
0.03290873021384549
1.7614611701349212
-0.39358280543428753
0.03290873021384549
1.7614611701349212
-0.39419553478133496
0.032256518708879356
1.76319249284608
-0.39419553478133496
0.032256518708879356
1.76319249284608
-0.39419553478133496
0.032256518708879356
1.76319249284608
-0.39419553478133496
0.032256518708879356
1.76319249284608
-0.39231582317435015
0.033453098512892465
1.7639233587569336
-0.39231582317435015
0.033453098512892465
1.7639233587569336
-0.39231582317435015
0.033453098512892465
1.7639233587569336
-0.39231582317435015
0.033453098512892465
1.7639233587569336
-0.39056158414232367
0.035051092128116614
1.763952820450376
-0.39056158414232367
0.035051092128116614
1.763952820450376
-0.39056158414232367
0.035051092128116614
1.763952820450376
-0.39056158414232367
0.035051092128116614
1.763952820450376
-0.39864594378982754
0.0330134624893168
1.7642966904862651
-0.39864594378982754
0.0330134624893168
1.7642966904862651
-0.39864594378982754
0.0330134624893168
1.7642966904862651
-0.39864594378982754
0.0330134624893168
1.7642966904862651
-0.40395187119580034
0.03206398606712125
1.7669780915255016
-0.40395187119580034
0.03206398606712125
1.7669780915255016
-0.40395187119580034
0.03206398606712125
1.7669780915255016
-0.40395187119580034
0.03206398606712125
1.7669780915255016
-0.39874491137554186
0.032883423617851563
1.7683874032607425
-0.39874491137554186
0.032883423617851563
1.7683874032607425
-0.39874491137554186
0.032883423617851563
1.7683874032607425
-0.39874491137554186
0.032883423617851563
1.7683874032607425
-0.3907204487790994
0.03623883080454297
1.768495828434361
-0.3907204487790994
0.03623883080454297
1.768495828434361
-0.3907204487790994
0.03623883080454297
1.768495828434361
-0.3907204487790994
0.03623883080454297
1.768495828434361
-0.3832358682939541
0.03780887267684889
1.7691593473490166
-0.3832358682939541
0.03780887267684889
1.7691593473490166
-0.3832358682939541
0.03780887267684889
1.7691593473490166
-0.3832358682939541
0.03780887267684889
1.7691593473490166
-0.3776407306985478
0.03898848109277923
1.7691101241449891
-0.3776407306985478
0.03898848109277923
1.7691101241449891
-0.3776407306985478
0.03898848109277923
1.7691101241449891
-0.3776407306985478
0.03898848109277923
1.7691101241449891
-0.3751075512972276
0.038544918990529205
1.769540979787782
-0.3751075512972276
0.038544918990529205
1.769540979787782
-0.3751075512972276
0.038544918990529205
1.769540979787782
-0.3751075512972276
0.038544918990529205
1.769540979787782
-0.379370712090289
0.03753449060783477
1.770711152301954
-0.379370712090289
0.03753449060783477
1.770711152301954
-0.379370712090289
0.03753449060783477
1.770711152301954
-0.379370712090289
0.03753449060783477
1.770711152301954
-0.3850467746441738
0.036432915672189516
1.7715460015079973
-0.3850467746441738
0.036432915672189516
1.7715460015079973
-0.3850467746441738
0.036432915672189516
1.7715460015079973
-0.3850467746441738
0.036432915672189516
1.7715460015079973
-0.3870174764578591
0.036205019232678215
1.7720365022035356
-0.3870174764578591
0.036205019232678215
1.7720365022035356
-0.3870174764578591
0.036205019232678215
1.7720365022035356
-0.3870174764578591
0.036205019232678215
1.7720365022035356
-0.3857417477085167
0.03665473180856298
1.7723042662242146
-0.3857417477085167
0.03665473180856298
1.7723042662242146
-0.3857417477085167
0.03665473180856298
1.7723042662242146
-0.3857417477085167
0.03665473180856298
1.7723042662242146
-0.38411229183250367
0.035992959291745154
1.7729521398294872
-0.38411229183250367
0.035992959291745154
1.7729521398294872
-0.38411229183250367
0.035992959291745154
1.7729521398294872
-0.38411229183250367
0.035992959291745154
1.7729521398294872
-0.3847112600254259
0.03450381476329897
1.7735993011308342
-0.3847112600254259
0.03450381476329897
1.7735993011308342
-0.3847112600254259
0.03450381476329897
1.7735993011308342
-0.3847112600254259
0.03450381476329897
1.7735993011308342
-0.38115287976523643
0.03566387672616172
1.775579089820911
-0.38115287976523643
0.03566387672616172
1.775579089820911
-0.38115287976523643
0.03566387672616172
1.775579089820911
-0.38115287976523643
0.03566387672616172
1.775579089820911
-0.37464348932993136
0.03536875361709779
1.7758001813658963
-0.37464348932993136
0.03536875361709779
1.7758001813658963
-0.37464348932993136
0.03536875361709779
1.7758001813658963
-0.37464348932993136
0.03536875361709779
1.7758001813658963
-0.37102537818879905
0.033565499807205454
1.7743653141907365
-0.37102537818879905
0.033565499807205454
1.7743653141907365
-0.37102537818879905
0.033565499807205454
1.7743653141907365
-0.37102537818879905
0.033565499807205454
1.7743653141907365
-0.36742217705685354
0.03323347296845827
1.7741448884246456
-0.36742217705685354
0.03323347296845827
1.7741448884246456
-0.36742217705685354
0.03323347296845827
1.7741448884246456
-0.36742217705685354
0.03323347296845827
1.7741448884246456
-0.36338372783716916
0.03321523329381943
1.7753846430245102
-0.36338372783716916
0.03321523329381943
1.7753846430245102
-0.36338372783716916
0.03321523329381943
1.7753846430245102
-0.36338372783716916
0.03321523329381943
1.7753846430245102
-0.3608256363756222
0.03307021821962273
1.7765432718487444
-0.3608256363756222
0.03307021821962273
1.7765432718487444
-0.3608256363756222
0.03307021821962273
1.7765432718487444
-0.3608256363756222
0.03307021821962273
1.7765432718487444
-0.36142245757242686
0.03338886378788056
1.776493390185125
-0.36142245757242686
0.03338886378788056
1.776493390185125
-0.36142245757242686
0.03338886378788056
1.776493390185125
-0.36142245757242686
0.03338886378788056
1.776493390185125
-0.36381430529000464
0.03325608214042834
1.7767847775297776
-0.36381430529000464
0.03325608214042834
1.7767847775297776
-0.36381430529000464
0.03325608214042834
1.7767847775297776
-0.36381430529000464
0.03325608214042834
1.7767847775297776
-0.36527234525450514
0.03284758098117668
1.7766011748809014
-0.36527234525450514
0.03284758098117668
1.7766011748809014
-0.36527234525450514
0.03284758098117668
1.7766011748809014
-0.36527234525450514
0.03284758098117668
1.7766011748809014
-0.3624466257343584
0.03270939212360853
1.7765222618036438
-0.3624466257343584
0.03270939212360853
1.7765222618036438
-0.3624466257343584
0.03270939212360853
1.7765222618036438
-0.3624466257343584
0.03270939212360853
1.7765222618036438
-0.359907720033391
0.032548715900867005
1.776635305187026
-0.359907720033391
0.032548715900867005
1.776635305187026
-0.359907720033391
0.032548715900867005
1.776635305187026
-0.359907720033391
0.032548715900867005
1.776635305187026
-0.35848737568789907
0.0317891415948823
1.7766817928553107
-0.35848737568789907
0.0317891415948823
1.7766817928553107
-0.35848737568789907
0.0317891415948823
1.7766817928553107
-0.35848737568789907
0.0317891415948823
1.7766817928553107
-0.35853251059658964
0.03131251594344795
1.776941917204244
-0.35853251059658964
0.03131251594344795
1.776941917204244
-0.35853251059658964
0.03131251594344795
1.776941917204244
-0.35853251059658964
0.03131251594344795
1.776941917204244
-0.3598557959680558
0.030551100414179126
1.7777941328585367
-0.3598557959680558
0.030551100414179126
1.7777941328585367
-0.3598557959680558
0.030551100414179126
1.7777941328585367
-0.3598557959680558
0.030551100414179126
1.7777941328585367
-0.3593363212510985
0.030481778727700713
1.7777183758645805
-0.3593363212510985
0.030481778727700713
1.7777183758645805
-0.3593363212510985
0.030481778727700713
1.7777183758645805
-0.3593363212510985
0.030481778727700713
1.7777183758645805
-0.3576504131242929
0.03060983329488929
1.777955548368816
-0.3576504131242929
0.03060983329488929
1.777955548368816
-0.3576504131242929
0.03060983329488929
1.777955548368816
-0.3576504131242929
0.03060983329488929
1.777955548368816
-0.3559466791171372
0.030828318923677125
1.777731496346583
-0.3559466791171372
0.030828318923677125
1.777731496346583
-0.3559466791171372
0.030828318923677125
1.777731496346583
-0.3559466791171372
0.030828318923677125
1.777731496346583
-0.35525164405804993
0.03069411738466902
1.7773992176052675
-0.35525164405804993
0.03069411738466902
1.7773992176052675
-0.35525164405804993
0.03069411738466902
1.7773992176052675
-0.35525164405804993
0.03069411738466902
1.7773992176052675
-0.35570572889193464
0.030453108504306603
1.7772609321452004
-0.35570572889193464
0.030453108504306603
1.7772609321452004
-0.35570572889193464
0.030453108504306603
1.7772609321452004
-0.35570572889193464
0.030453108504306603
1.7772609321452004
-0.35570572889193464
0.030453108504306603
1.7772609321452004
-0.35570572889193464
0.030453108504306603
1.7772609321452004
-0.35570572889193464
0.030453108504306603
1.7772609321452004
-0.35570572889193464
0.030453108504306603
1.7772609321452004
-0.3551862190225456
0.030384084009166635
1.7771850047630209
-0.3551862190225456
0.030384084009166635
1.7771850047630209
-0.3551862190225456
0.030384084009166635
1.7771850047630209
-0.3551862190225456
0.030384084009166635
1.7771850047630209
-0.3553361301516643
0.029770919478987235
1.7771183583203487
-0.3553361301516643
0.029770919478987235
1.7771183583203487
-0.3553361301516643
0.029770919478987235
1.7771183583203487
-0.3553361301516643
0.029770919478987235
1.7771183583203487
-0.3551070808838934
0.029413815737956116
1.7767406613846668
-0.3551070808838934
0.029413815737956116
1.7767406613846668
-0.3551070808838934
0.029413815737956116
1.7767406613846668
-0.3551070808838934
0.029413815737956116
1.7767406613846668
-0.35527618954910883
0.029430832222026023
1.7767350384126779
-0.35527618954910883
0.029430832222026023
1.7767350384126779
-0.35527618954910883
0.029430832222026023
1.7767350384126779
-0.35527618954910883
0.029430832222026023
1.7767350384126779
-0.35513554335566566
0.029105813536053786
1.7769699349107952
-0.35513554335566566
0.029105813536053786
1.7769699349107952
-0.35513554335566566
0.029105813536053786
1.7769699349107952
-0.35513554335566566
0.029105813536053786
1.7769699349107952
-0.3549356328614612
0.02859752863779346
1.7767152749256923
-0.3549356328614612
0.02859752863779346
1.7767152749256923
-0.3549356328614612
0.02859752863779346
1.7767152749256923
-0.3549356328614612
0.02859752863779346
1.7767152749256923
-0.3549356328614612
0.02859752863779346
1.7767152749256923
-0.3549356328614612
0.02859752863779346
1.7767152749256923
-0.3549356328614612
0.02859752863779346
1.7767152749256923
-0.3549356328614612
0.02859752863779346
1.7767152749256923
-0.3554880801916496
0.02825032876998614
1.7764206460809508
-0.3554880801916496
0.02825032876998614
1.7764206460809508
-0.3554880801916496
0.02825032876998614
1.7764206460809508
-0.3554880801916496
0.02825032876998614
1.7764206460809508
-0.35651331624110494
0.02772760959202879
1.7763438880848523
-0.35651331624110494
0.02772760959202879
1.7763438880848523
-0.35651331624110494
0.02772760959202879
1.7763438880848523
-0.35651331624110494
0.02772760959202879
1.7763438880848523
-0.357801500936986
0.027302379840547137
1.7761682960788618
-0.357801500936986
0.027302379840547137
1.7761682960788618
-0.357801500936986
0.027302379840547137
1.7761682960788618
-0.357801500936986
0.027302379840547137
1.7761682960788618
-0.3590656285973674
0.02699753276506421
1.775700731495698
-0.3590656285973674
0.02699753276506421
1.775700731495698
-0.3590656285973674
0.02699753276506421
1.775700731495698
-0.3590656285973674
0.02699753276506421
1.775700731495698
-0.35811760295409506
0.026705403541865458
1.775128578625263
-0.35811760295409506
0.026705403541865458
1.775128578625263
-0.35811760295409506
0.026705403541865458
1.775128578625263
-0.35811760295409506
0.026705403541865458
1.775128578625263
-0.35587619648157315
0.028734688012410345
1.77351833716382
-0.35587619648157315
0.028734688012410345
1.77351833716382
-0.35587619648157315
0.028734688012410345
1.77351833716382
-0.35587619648157315
0.028734688012410345
1.77351833716382
-0.35665358448915135
0.03154556672016058
1.7720494938241604
-0.35665358448915135
0.03154556672016058
1.7720494938241604
-0.35665358448915135
0.03154556672016058
1.7720494938241604
-0.35665358448915135
0.03154556672016058
1.7720494938241604
-0.3516326493412027
0.0341456238389444
1.7707847201643758
-0.3516326493412027
0.0341456238389444
1.7707847201643758
-0.3516326493412027
0.0341456238389444
1.7707847201643758
-0.3516326493412027
0.0341456238389444
1.7707847201643758
-0.35900294668074456
0.03999451880536734
1.7725664554862306
-0.35900294668074456
0.03999451880536734
1.7725664554862306
-0.35900294668074456
0.03999451880536734
1.7725664554862306
-0.35900294668074456
0.03999451880536734
1.7725664554862306
-0.3715190433294959
0.04380090727596383
1.7717520470359212
-0.3715190433294959
0.04380090727596383
1.7717520470359212
-0.3715190433294959
0.04380090727596383
1.7717520470359212
-0.3715190433294959
0.04380090727596383
1.7717520470359212
-0.37815520356386767
0.047528258489168446
1.7696175186626049
-0.37815520356386767
0.047528258489168446
1.7696175186626049
-0.37815520356386767
0.047528258489168446
1.7696175186626049
-0.37815520356386767
0.047528258489168446
1.7696175186626049
-0.37354359133176973
0.04686020960665372
1.7681749365242563
-0.37354359133176973
0.04686020960665372
1.7681749365242563
-0.37354359133176973
0.04686020960665372
1.7681749365242563
-0.37354359133176973
0.04686020960665372
1.7681749365242563
-0.3620339828261733
0.04523158529408405
1.7667532403843718
-0.3620339828261733
0.04523158529408405
1.7667532403843718
-0.3620339828261733
0.04523158529408405
1.7667532403843718
-0.3620339828261733
0.04523158529408405
1.7667532403843718
-0.3595897879664775
0.04318955692369602
1.7656351620817115
-0.3595897879664775
0.04318955692369602
1.7656351620817115
-0.3595897879664775
0.04318955692369602
1.7656351620817115
-0.3595897879664775
0.04318955692369602
1.7656351620817115
-0.3611657734284489
0.042360806009435516
1.766485349642209
-0.3611657734284489
0.042360806009435516
1.766485349642209
-0.3611657734284489
0.042360806009435516
1.766485349642209
-0.3611657734284489
0.042360806009435516
1.766485349642209
-0.36343256671801566
0.041932674193422344
1.7643580044398208
-0.36343256671801566
0.041932674193422344
1.7643580044398208
-0.36343256671801566
0.041932674193422344
1.7643580044398208
-0.36343256671801566
0.041932674193422344
1.7643580044398208
-0.36711202513335184
0.041318909337139734
1.76145711708263
-0.36711202513335184
0.041318909337139734
1.76145711708263
-0.36711202513335184
0.041318909337139734
1.76145711708263
-0.36711202513335184
0.041318909337139734
1.76145711708263
-0.36583553142557435
0.03979038513997599
1.7596184002819224
-0.36583553142557435
0.03979038513997599
1.7596184002819224
-0.36583553142557435
0.03979038513997599
1.7596184002819224
-0.36583553142557435
0.03979038513997599
1.7596184002819224
-0.36203177122095037
0.03916080760351898
1.757280313361406
-0.36203177122095037
0.03916080760351898
1.757280313361406
-0.36203177122095037
0.03916080760351898
1.757280313361406
-0.36203177122095037
0.03916080760351898
1.757280313361406
-0.36629576367584976
0.03872254505642576
1.7546086636066542
-0.36629576367584976
0.03872254505642576
1.7546086636066542
-0.36629576367584976
0.03872254505642576
1.7546086636066542
-0.36629576367584976
0.03872254505642576
1.7546086636066542
-0.36988725612728873
0.037039247942452724
1.753678024003954
-0.36988725612728873
0.037039247942452724
1.753678024003954
-0.36988725612728873
0.037039247942452724
1.753678024003954
-0.36988725612728873
0.037039247942452724
1.753678024003954
-0.3772784322457197
0.03430474890616477
1.7527752042096463
-0.3772784322457197
0.03430474890616477
1.7527752042096463
-0.3772784322457197
0.03430474890616477
1.7527752042096463
-0.3772784322457197
0.03430474890616477
1.7527752042096463
-0.3764726591508611
0.03131019856492571
1.7522772238632975
-0.3764726591508611
0.03131019856492571
1.7522772238632975
-0.3764726591508611
0.03131019856492571
1.7522772238632975
-0.3764726591508611
0.03131019856492571
1.7522772238632975
-0.37150168105965325
0.030685516761897524
1.7509774437148764
-0.37150168105965325
0.030685516761897524
1.7509774437148764
-0.37150168105965325
0.030685516761897524
1.7509774437148764
-0.37150168105965325
0.030685516761897524
1.7509774437148764
-0.3706754451359103
0.029873625562760443
1.7498859943611358
-0.3706754451359103
0.029873625562760443
1.7498859943611358
-0.3706754451359103
0.029873625562760443
1.7498859943611358
-0.3706754451359103
0.029873625562760443
1.7498859943611358
-0.3748957473747817
0.028128839885621006
1.7497872102579377
-0.3748957473747817
0.028128839885621006
1.7497872102579377
-0.3748957473747817
0.028128839885621006
1.7497872102579377
-0.3748957473747817
0.028128839885621006
1.7497872102579377
-0.37649779291919283
0.02720737711569791
1.7492717503847506
-0.37649779291919283
0.02720737711569791
1.7492717503847506
-0.37649779291919283
0.02720737711569791
1.7492717503847506
-0.37649779291919283
0.02720737711569791
1.7492717503847506
-0.37713072321035107
0.02563875296750481
1.74814601789629
-0.37713072321035107
0.02563875296750481
1.74814601789629
-0.37713072321035107
0.02563875296750481
1.74814601789629
-0.37713072321035107
0.02563875296750481
1.74814601789629
-0.3791347543646963
0.02605646845901681
1.747991684657636
-0.3791347543646963
0.02605646845901681
1.747991684657636
-0.3791347543646963
0.02605646845901681
1.747991684657636
-0.3791347543646963
0.02605646845901681
1.747991684657636
-0.38030242691463123
0.024765717075565522
1.7480653025844173
-0.38030242691463123
0.024765717075565522
1.7480653025844173
-0.38030242691463123
0.024765717075565522
1.7480653025844173
-0.38030242691463123
0.024765717075565522
1.7480653025844173
-0.37933553387218844
0.02368116199646501
1.747474205491397
-0.37933553387218844
0.02368116199646501
1.747474205491397
-0.37933553387218844
0.02368116199646501
1.747474205491397
-0.37933553387218844
0.02368116199646501
1.747474205491397
-0.3779196702361098
0.023772507370780793
1.7458668431558189
-0.3779196702361098
0.023772507370780793
1.7458668431558189
-0.3779196702361098
0.023772507370780793
1.7458668431558189
-0.3779196702361098
0.023772507370780793
1.7458668431558189
-0.38104806525967405
0.024183337142443445
1.7456212355480443
-0.38104806525967405
0.024183337142443445
1.7456212355480443
-0.38104806525967405
0.024183337142443445
1.7456212355480443
-0.38104806525967405
0.024183337142443445
1.7456212355480443
-0.3865600955338169
0.02289839735968904
1.745993681840692
-0.3865600955338169
0.02289839735968904
1.745993681840692
-0.3865600955338169
0.02289839735968904
1.745993681840692
-0.3865600955338169
0.02289839735968904
1.745993681840692
-0.3882903816827881
0.022131171159491255
1.7462352740783627
-0.3882903816827881
0.022131171159491255
1.7462352740783627
-0.3882903816827881
0.022131171159491255
1.7462352740783627
-0.3882903816827881
0.022131171159491255
1.7462352740783627
-0.38510500007803067
0.02227845719990448
1.7457499359330773
-0.38510500007803067
0.02227845719990448
1.7457499359330773
-0.38510500007803067
0.02227845719990448
1.7457499359330773
-0.38510500007803067
0.02227845719990448
1.7457499359330773
-0.3838474099926253
0.02249160016323828
1.7456118545615953
-0.3838474099926253
0.02249160016323828
1.7456118545615953
-0.3838474099926253
0.02249160016323828
1.7456118545615953
-0.3838474099926253
0.02249160016323828
1.7456118545615953
-0.3870807249446882
0.02192211621194085
1.7466247871532246
-0.3870807249446882
0.02192211621194085
1.7466247871532246
-0.3870807249446882
0.02192211621194085
1.7466247871532246
-0.3870807249446882
0.02192211621194085
1.7466247871532246
-0.3907139776999902
0.021902220821951878
1.7470967735193539
-0.3907139776999902
0.021902220821951878
1.7470967735193539
-0.3907139776999902
0.021902220821951878
1.7470967735193539
-0.3907139776999902
0.021902220821951878
1.7470967735193539
-0.38912836302557774
0.022730128278278094
1.7470951502376677
-0.38912836302557774
0.022730128278278094
1.7470951502376677
-0.38912836302557774
0.022730128278278094
1.7470951502376677
-0.38912836302557774
0.022730128278278094
1.7470951502376677
-0.3855918054954463
0.023608835533058883
1.7464559475154042
-0.3855918054954463
0.023608835533058883
1.7464559475154042
-0.3855918054954463
0.023608835533058883
1.7464559475154042
-0.3855918054954463
0.023608835533058883
1.7464559475154042
-0.388490965269249
0.024135592265761466
1.7473518517404731
-0.388490965269249
0.024135592265761466
1.7473518517404731
-0.388490965269249
0.024135592265761466
1.7473518517404731
-0.388490965269249
0.024135592265761466
1.7473518517404731
-0.3904470968501152
0.023796393871641966
1.7483025419936635
-0.3904470968501152
0.023796393871641966
1.7483025419936635
-0.3904470968501152
0.023796393871641966
1.7483025419936635
-0.3904470968501152
0.023796393871641966
1.7483025419936635
-0.389906235356874
0.024053779274169206
1.7489593636603116
-0.389906235356874
0.024053779274169206
1.7489593636603116
-0.389906235356874
0.024053779274169206
1.7489593636603116
-0.389906235356874
0.024053779274169206
1.7489593636603116
-0.38662773571450726
0.02517159990233578
1.7489880033195766
-0.38662773571450726
0.02517159990233578
1.7489880033195766
-0.38662773571450726
0.02517159990233578
1.7489880033195766
-0.38662773571450726
0.02517159990233578
1.7489880033195766
-0.3855367498370183
0.026553281632480528
1.7488916015524065
-0.3855367498370183
0.026553281632480528
1.7488916015524065
-0.3855367498370183
0.026553281632480528
1.7488916015524065
-0.3855367498370183
0.026553281632480528
1.7488916015524065
-0.3868513682285565
0.027806282925598794
1.7501573381595725
-0.3868513682285565
0.027806282925598794
1.7501573381595725
-0.3868513682285565
0.027806282925598794
1.7501573381595725
-0.3868513682285565
0.027806282925598794
1.7501573381595725
-0.3879315992363449
0.02851279272988872
1.7509908237958856
-0.3879315992363449
0.02851279272988872
1.7509908237958856
-0.3879315992363449
0.02851279272988872
1.7509908237958856
-0.3879315992363449
0.02851279272988872
1.7509908237958856
-0.38693931772003964
0.029868299783732326
1.751169654957292
-0.38693931772003964
0.029868299783732326
1.751169654957292
-0.38693931772003964
0.029868299783732326
1.751169654957292
-0.38693931772003964
0.029868299783732326
1.751169654957292
-0.3856408156030812
0.031533646363746115
1.7517239285580755
-0.3856408156030812
0.031533646363746115
1.7517239285580755
-0.3856408156030812
0.031533646363746115
1.7517239285580755
-0.3856408156030812
0.031533646363746115
1.7517239285580755
-0.3879012701477682
0.033063493119488876
1.752582551774513
-0.3879012701477682
0.033063493119488876
1.752582551774513
-0.3879012701477682
0.033063493119488876
1.752582551774513
-0.3879012701477682
0.033063493119488876
1.752582551774513
-0.389479304752416
0.034122831250118536
1.7540521680941226
-0.389479304752416
0.034122831250118536
1.7540521680941226
-0.389479304752416
0.034122831250118536
1.7540521680941226
-0.389479304752416
0.034122831250118536
1.7540521680941226
-0.38931721238851025
0.03502583234208153
1.7546736276126353
-0.38931721238851025
0.03502583234208153
1.7546736276126353
-0.38931721238851025
0.03502583234208153
1.7546736276126353
-0.38931721238851025
0.03502583234208153
1.7546736276126353
-0.38967622761962184
0.036928486242098754
1.7551841883623867
-0.38967622761962184
0.036928486242098754
1.7551841883623867
-0.38967622761962184
0.036928486242098754
1.7551841883623867
-0.38967622761962184
0.036928486242098754
1.7551841883623867
-0.3909894406462476
0.038052760171336894
1.7566427983059898
-0.3909894406462476
0.038052760171336894
1.7566427983059898
-0.3909894406462476
0.038052760171336894
1.7566427983059898
-0.3909894406462476
0.038052760171336894
1.7566427983059898
-0.39151159102574257
0.03922467554401344
1.7573891015654743
-0.39151159102574257
0.03922467554401344
1.7573891015654743
-0.39151159102574257
0.03922467554401344
1.7573891015654743
-0.39151159102574257
0.03922467554401344
1.7573891015654743
-0.3914253616780726
0.040117595234435074
1.7583610512951888
-0.3914253616780726
0.040117595234435074
1.7583610512951888
-0.3914253616780726
0.040117595234435074
1.7583610512951888
-0.3914253616780726
0.040117595234435074
1.7583610512951888
-0.392295915392463
0.04031939740067022
1.7589417536144165
-0.392295915392463
0.04031939740067022
1.7589417536144165
-0.392295915392463
0.04031939740067022
1.7589417536144165
-0.392295915392463
0.04031939740067022
1.7589417536144165
-0.3924735282258858
0.04028544622905505
1.759566586991906
-0.3924735282258858
0.04028544622905505
1.759566586991906
-0.3924735282258858
0.04028544622905505
1.759566586991906
-0.3924735282258858
0.04028544622905505
1.759566586991906
-0.3896587586916693
0.04010420573325023
1.759162935432467
-0.3896587586916693
0.04010420573325023
1.759162935432467
-0.3896587586916693
0.04010420573325023
1.759162935432467
-0.3896587586916693
0.04010420573325023
1.759162935432467
-0.3913685221913575
0.03973820801934779
1.7595847205034343
-0.3913685221913575
0.03973820801934779
1.7595847205034343
-0.3913685221913575
0.03973820801934779
1.7595847205034343
-0.3913685221913575
0.03973820801934779
1.7595847205034343
-0.39377897163978387
0.03836632065102132
1.7594928457891181
-0.39377897163978387
0.03836632065102132
1.7594928457891181
-0.39377897163978387
0.03836632065102132
1.7594928457891181
-0.39377897163978387
0.03836632065102132
1.7594928457891181
-0.3938908466789724
0.038276236027779936
1.7594296167439236
-0.3938908466789724
0.038276236027779936
1.7594296167439236
-0.3938908466789724
0.038276236027779936
1.7594296167439236
-0.3938908466789724
0.038276236027779936
1.7594296167439236
-0.39229318450304024
0.03819209984689144
1.7597940003847647
-0.39229318450304024
0.03819209984689144
1.7597940003847647
-0.39229318450304024
0.03819209984689144
1.7597940003847647
-0.39229318450304024
0.03819209984689144
1.7597940003847647
-0.39097486974213
0.038307133630306994
1.7588080733674067
-0.39097486974213
0.038307133630306994
1.7588080733674067
-0.39097486974213
0.038307133630306994
1.7588080733674067
-0.39097486974213
0.038307133630306994
1.7588080733674067
-0.39097486974213
0.038307133630306994
1.7588080733674067
-0.39097486974213
0.038307133630306994
1.7588080733674067
-0.39097486974213
0.038307133630306994
1.7588080733674067
-0.39097486974213
0.038307133630306994
1.7588080733674067
-0.3902725340233171
0.03812100946476366
1.7582200375365962
-0.3902725340233171
0.03812100946476366
1.7582200375365962
-0.3902725340233171
0.03812100946476366
1.7582200375365962
-0.3902725340233171
0.03812100946476366
1.7582200375365962
-0.3929684783237916
0.037848886621836164
1.7581931718707844
-0.3929684783237916
0.037848886621836164
1.7581931718707844
-0.3929684783237916
0.037848886621836164
1.7581931718707844
-0.3929684783237916
0.037848886621836164
1.7581931718707844
-0.39091135828036105
0.0369398244637055
1.758187127977829
-0.39091135828036105
0.0369398244637055
1.758187127977829
-0.39091135828036105
0.0369398244637055
1.758187127977829
-0.39091135828036105
0.0369398244637055
1.758187127977829
-0.3901148425763338
0.03701897948572249
1.7576441836894654
-0.3901148425763338
0.03701897948572249
1.7576441836894654
-0.3901148425763338
0.03701897948572249
1.7576441836894654
-0.3901148425763338
0.03701897948572249
1.7576441836894654
-0.3911343815469717
0.03639953414898722
1.7571427289566681
-0.3911343815469717
0.03639953414898722
1.7571427289566681
-0.3911343815469717
0.03639953414898722
1.7571427289566681
-0.3911343815469717
0.03639953414898722
1.7571427289566681
-0.39399879920213543
0.03614101076756053
1.757112069912919
-0.39399879920213543
0.03614101076756053
1.757112069912919
-0.39399879920213543
0.03614101076756053
1.757112069912919
-0.39399879920213543
0.03614101076756053
1.757112069912919
-0.3945631136209262
0.03476575397334075
1.7574725638523776
-0.3945631136209262
0.03476575397334075
1.7574725638523776
-0.3945631136209262
0.03476575397334075
1.7574725638523776
-0.3945631136209262
0.03476575397334075
1.7574725638523776
-0.3916264133305027
0.035086984430377076
1.7574108605539354
-0.3916264133305027
0.035086984430377076
1.7574108605539354
-0.3916264133305027
0.035086984430377076
1.7574108605539354
-0.3916264133305027
0.035086984430377076
1.7574108605539354
-0.39142285118036135
0.03525394971423614
1.757460552448012
-0.39142285118036135
0.03525394971423614
1.757460552448012
-0.39142285118036135
0.03525394971423614
1.757460552448012
-0.39142285118036135
0.03525394971423614
1.757460552448012
-0.3948867057528267
0.0350513287053464
1.7578561981805385
-0.3948867057528267
0.0350513287053464
1.7578561981805385
-0.3948867057528267
0.0350513287053464
1.7578561981805385
-0.3948867057528267
0.0350513287053464
1.7578561981805385
-0.39497865084577655
0.03497465669546737
1.7578698685207232
-0.39497865084577655
0.03497465669546737
1.7578698685207232
-0.39497865084577655
0.03497465669546737
1.7578698685207232
-0.39497865084577655
0.03497465669546737
1.7578698685207232
-0.39141063297615947
0.035320227730823606
1.757798006615071
-0.39141063297615947
0.035320227730823606
1.757798006615071
-0.39141063297615947
0.035320227730823606
1.757798006615071
-0.39141063297615947
0.035320227730823606
1.757798006615071
-0.3910535525182044
0.035303291836286124
1.757886980878429
-0.3910535525182044
0.035303291836286124
1.757886980878429
-0.3910535525182044
0.035303291836286124
1.757886980878429
-0.3910535525182044
0.035303291836286124
1.757886980878429
-0.3938826850685497
0.03550274765237461
1.758389182775601
-0.3938826850685497
0.03550274765237461
1.758389182775601
-0.3938826850685497
0.03550274765237461
1.758389182775601
-0.3938826850685497
0.03550274765237461
1.758389182775601
-0.3966692936567446
0.03583238612618819
1.7586733411024627
-0.3966692936567446
0.03583238612618819
1.7586733411024627
-0.3966692936567446
0.03583238612618819
1.7586733411024627
-0.3966692936567446
0.03583238612618819
1.7586733411024627
-0.3957439550042255
0.03635701887807869
1.7582177138808233
-0.3957439550042255
0.03635701887807869
1.7582177138808233
-0.3957439550042255
0.03635701887807869
1.7582177138808233
-0.3957439550042255
0.03635701887807869
1.7582177138808233
-0.39120326491457275
0.036712817742319506
1.7573506209616416
-0.39120326491457275
0.036712817742319506
1.7573506209616416
-0.39120326491457275
0.036712817742319506
1.7573506209616416
-0.39120326491457275
0.036712817742319506
1.7573506209616416
-0.3911890551658999
0.03696733551874579
1.7577469411466047
-0.3911890551658999
0.03696733551874579
1.7577469411466047
-0.3911890551658999
0.03696733551874579
1.7577469411466047
-0.3911890551658999
0.03696733551874579
1.7577469411466047
-0.39476380116763343
0.03650480044601211
1.7589867176192868
-0.39476380116763343
0.03650480044601211
1.7589867176192868
-0.39476380116763343
0.03650480044601211
1.7589867176192868
-0.39476380116763343
0.03650480044601211
1.7589867176192868
-0.39483416102604135
0.03569543153755722
1.7593225586474066
-0.39483416102604135
0.03569543153755722
1.7593225586474066
-0.39483416102604135
0.03569543153755722
1.7593225586474066
-0.39483416102604135
0.03569543153755722
1.7593225586474066
-0.39180807129656214
0.035988318196983074
1.7596193616802782
-0.39180807129656214
0.035988318196983074
1.7596193616802782
-0.39180807129656214
0.035988318196983074
1.7596193616802782
-0.39180807129656214
0.035988318196983074
1.7596193616802782
-0.39063651453878095
0.03623439709728792
1.7601008387108508
-0.39063651453878095
0.03623439709728792
1.7601008387108508
-0.39063651453878095
0.03623439709728792
1.7601008387108508
-0.39063651453878095
0.03623439709728792
1.7601008387108508
-0.39235126207761145
0.035853372309025036
1.7613261608214499
-0.39235126207761145
0.035853372309025036
1.7613261608214499
-0.39235126207761145
0.035853372309025036
1.7613261608214499
-0.39235126207761145
0.035853372309025036
1.7613261608214499
-0.39114217553455244
0.034529467843382365
1.7628197163989316
-0.39114217553455244
0.034529467843382365
1.7628197163989316
-0.39114217553455244
0.034529467843382365
1.7628197163989316
-0.39114217553455244
0.034529467843382365
1.7628197163989316
-0.3905347087468552
0.03426498575765267
1.7640124930099834
-0.3905347087468552
0.03426498575765267
1.7640124930099834
-0.3905347087468552
0.03426498575765267
1.7640124930099834
-0.3905347087468552
0.03426498575765267
1.7640124930099834
-0.3905251725600758
0.033653568588637744
1.7640548492967432
-0.3905251725600758
0.033653568588637744
1.7640548492967432
-0.3905251725600758
0.033653568588637744
1.7640548492967432
-0.3905251725600758
0.033653568588637744
1.7640548492967432
-0.3917483937840912
0.032904664733625084
1.7654432029990454
-0.3917483937840912
0.032904664733625084
1.7654432029990454
-0.3917483937840912
0.032904664733625084
1.7654432029990454
-0.3917483937840912
0.032904664733625084
1.7654432029990454
-0.38733278122624054
0.033576144919634315
1.7661738419993431
-0.38733278122624054
0.033576144919634315
1.7661738419993431
-0.38733278122624054
0.033576144919634315
1.7661738419993431
-0.38733278122624054
0.033576144919634315
1.7661738419993431
-0.38487230998502514
0.035439989173157396
1.7679357716910873
-0.38487230998502514
0.035439989173157396
1.7679357716910873
-0.38487230998502514
0.035439989173157396
1.7679357716910873
-0.38487230998502514
0.035439989173157396
1.7679357716910873
-0.38569800868018805
0.037132738583858245
1.7702687843141345
-0.38569800868018805
0.037132738583858245
1.7702687843141345
-0.38569800868018805
0.037132738583858245
1.7702687843141345
-0.38569800868018805
0.037132738583858245
1.7702687843141345
-0.38523893381230273
0.03623962506551696
1.768665897880211
-0.38523893381230273
0.03623962506551696
1.768665897880211
-0.38523893381230273
0.03623962506551696
1.768665897880211
-0.38523893381230273
0.03623962506551696
1.768665897880211
-0.38256231965548193
0.035652746864283706
1.7684260672186614
-0.38256231965548193
0.035652746864283706
1.7684260672186614
-0.38256231965548193
0.035652746864283706
1.7684260672186614
-0.38256231965548193
0.035652746864283706
1.7684260672186614
-0.37634172445581754
0.036085101173199775
1.7694001059631077
-0.37634172445581754
0.036085101173199775
1.7694001059631077
-0.37634172445581754
0.036085101173199775
1.7694001059631077
-0.37634172445581754
0.036085101173199775
1.7694001059631077
-0.36998888771517163
0.03695670299568369
1.770470704304989
-0.36998888771517163
0.03695670299568369
1.770470704304989
-0.36998888771517163
0.03695670299568369
1.770470704304989
-0.36998888771517163
0.03695670299568369
1.770470704304989
-0.36471140526422385
0.036705217785162975
1.7701601002000187
-0.36471140526422385
0.036705217785162975
1.7701601002000187
-0.36471140526422385
0.036705217785162975
1.7701601002000187
-0.36471140526422385
0.036705217785162975
1.7701601002000187
-0.364077004533703
0.03667364586663573
1.7689194966178265
-0.364077004533703
0.03667364586663573
1.7689194966178265
-0.364077004533703
0.03667364586663573
1.7689194966178265
-0.364077004533703
0.03667364586663573
1.7689194966178265
-0.3647013068265384
0.0368433393224138
1.7699601739003128
-0.3647013068265384
0.0368433393224138
1.7699601739003128
-0.3647013068265384
0.0368433393224138
1.7699601739003128
-0.3647013068265384
0.0368433393224138
1.7699601739003128
-0.3655908626877548
0.03577949274804483
1.7708566026253194
-0.3655908626877548
0.03577949274804483
1.7708566026253194
-0.3655908626877548
0.03577949274804483
1.7708566026253194
-0.3655908626877548
0.03577949274804483
1.7708566026253194
-0.3674293914170358
0.035004402050395275
1.771352214184901
-0.3674293914170358
0.035004402050395275
1.771352214184901
-0.3674293914170358
0.035004402050395275
1.771352214184901
-0.3674293914170358
0.035004402050395275
1.771352214184901
-0.3661040418592894
0.03406556323432301
1.7717848084388723
-0.3661040418592894
0.03406556323432301
1.7717848084388723
-0.3661040418592894
0.03406556323432301
1.7717848084388723
-0.3661040418592894
0.03406556323432301
1.7717848084388723
-0.36473216406446146
0.03189245256304964
1.771300416708663
-0.36473216406446146
0.03189245256304964
1.771300416708663
-0.36473216406446146
0.03189245256304964
1.771300416708663
-0.36473216406446146
0.03189245256304964
1.771300416708663
-0.3600531350603906
0.031050877346029147
1.7722348736049336
-0.3600531350603906
0.031050877346029147
1.7722348736049336
-0.3600531350603906
0.031050877346029147
1.7722348736049336
-0.3600531350603906
0.031050877346029147
1.7722348736049336
-0.35556581307853363
0.031008673627953127
1.7731142630722863
-0.35556581307853363
0.031008673627953127
1.7731142630722863
-0.35556581307853363
0.031008673627953127
1.7731142630722863
-0.35556581307853363
0.031008673627953127
1.7731142630722863
-0.3551814670719518
0.031216694445022224
1.7735101117043317
-0.3551814670719518
0.031216694445022224
1.7735101117043317
-0.3551814670719518
0.031216694445022224
1.7735101117043317
-0.3551814670719518
0.031216694445022224
1.7735101117043317
-0.35846149635402164
0.03118692667027078
1.7738846333903258
-0.35846149635402164
0.03118692667027078
1.7738846333903258
-0.35846149635402164
0.03118692667027078
1.7738846333903258
-0.35846149635402164
0.03118692667027078
1.7738846333903258
-0.36036742892842827
0.03064423293045076
1.774163910353407
-0.36036742892842827
0.03064423293045076
1.774163910353407
-0.36036742892842827
0.03064423293045076
1.774163910353407
-0.36036742892842827
0.03064423293045076
1.774163910353407
-0.36053296571419546
0.029784277083650217
1.7746671071845552
-0.36053296571419546
0.029784277083650217
1.7746671071845552
-0.36053296571419546
0.029784277083650217
1.7746671071845552
-0.36053296571419546
0.029784277083650217
1.7746671071845552
-0.3604635004934211
0.02966258758861895
1.7754848928672395
-0.3604635004934211
0.02966258758861895
1.7754848928672395
-0.3604635004934211
0.02966258758861895
1.7754848928672395
-0.3604635004934211
0.02966258758861895
1.7754848928672395
-0.3585214870417607
0.029821419840196196
1.7755455121024832
-0.3585214870417607
0.029821419840196196
1.7755455121024832
-0.3585214870417607
0.029821419840196196
1.7755455121024832
-0.3585214870417607
0.029821419840196196
1.7755455121024832
-0.3573222687218724
0.029371480517194123
1.7747360805399088
-0.3573222687218724
0.029371480517194123
1.7747360805399088
-0.3573222687218724
0.029371480517194123
1.7747360805399088
-0.3573222687218724
0.029371480517194123
1.7747360805399088
-0.35939517018525097
0.02975375911160074
1.774671828958993
-0.35939517018525097
0.02975375911160074
1.774671828958993
-0.35939517018525097
0.02975375911160074
1.774671828958993
-0.35939517018525097
0.02975375911160074
1.774671828958993
-0.36048348154033377
0.03037035859641765
1.775006542327622
-0.36048348154033377
0.03037035859641765
1.775006542327622
-0.36048348154033377
0.03037035859641765
1.775006542327622
-0.36048348154033377
0.03037035859641765
1.775006542327622
-0.36008246029590046
0.030825517018772366
1.7748335264861164
-0.36008246029590046
0.030825517018772366
1.7748335264861164
-0.36008246029590046
0.030825517018772366
1.7748335264861164
-0.36008246029590046
0.030825517018772366
1.7748335264861164
-0.36018115211963503
0.030718946611691004
1.7746768395949566
-0.36018115211963503
0.030718946611691004
1.7746768395949566
-0.36018115211963503
0.030718946611691004
1.7746768395949566
-0.36018115211963503
0.030718946611691004
1.7746768395949566
-0.36061884821162243
0.030725141882313522
1.7749397305784067
-0.36061884821162243
0.030725141882313522
1.7749397305784067
-0.36061884821162243
0.030725141882313522
1.7749397305784067
-0.36061884821162243
0.030725141882313522
1.7749397305784067
-0.36002856919729226
0.030455605751222414
1.7752507528533819
-0.36002856919729226
0.030455605751222414
1.7752507528533819
-0.36002856919729226
0.030455605751222414
1.7752507528533819
-0.36002856919729226
0.030455605751222414
1.7752507528533819
-0.35857954790178204
0.02992671575220083
1.7756035729625048
-0.35857954790178204
0.02992671575220083
1.7756035729625048
-0.35857954790178204
0.02992671575220083
1.7756035729625048
-0.35857954790178204
0.02992671575220083
1.7756035729625048
-0.3586961527036408
0.02973006497980487
1.7759083732943721
-0.3586961527036408
0.02973006497980487
1.7759083732943721
-0.3586961527036408
0.02973006497980487
1.7759083732943721
-0.3586961527036408
0.02973006497980487
1.7759083732943721
-0.3591463556167046
0.029754385195183485
1.7762644822366538
-0.3591463556167046
0.029754385195183485
1.7762644822366538
-0.3591463556167046
0.029754385195183485
1.7762644822366538
-0.3591463556167046
0.029754385195183485
1.7762644822366538
-0.3600322919903157
0.029549803598662702
1.7765590932308681
-0.3600322919903157
0.029549803598662702
1.7765590932308681
-0.3600322919903157
0.029549803598662702
1.7765590932308681
-0.3600322919903157
0.029549803598662702
1.7765590932308681
-0.36059258517287734
0.02940693754670402
1.7764205612394535
-0.36059258517287734
0.02940693754670402
1.7764205612394535
-0.36059258517287734
0.02940693754670402
1.7764205612394535
-0.36059258517287734
0.02940693754670402
1.7764205612394535
-0.36066861331655997
0.02949990664654423
1.776402452929357
-0.36066861331655997
0.02949990664654423
1.776402452929357
-0.36066861331655997
0.02949990664654423
1.776402452929357
-0.36066861331655997
0.02949990664654423
1.776402452929357
-0.36057560477412426
0.02957590326125412
1.776390015893819
-0.36057560477412426
0.02957590326125412
1.776390015893819
-0.36057560477412426
0.02957590326125412
1.776390015893819
-0.36057560477412426
0.02957590326125412
1.776390015893819
-0.36133214045239687
0.028986111397155616
1.7765827102734268
-0.36133214045239687
0.028986111397155616
1.7765827102734268
-0.36133214045239687
0.028986111397155616
1.7765827102734268
-0.36133214045239687
0.028986111397155616
1.7765827102734268
-0.36205792290473576
0.02790432106658018
1.7765173229266968
-0.36205792290473576
0.02790432106658018
1.7765173229266968
-0.36205792290473576
0.02790432106658018
1.7765173229266968
-0.36205792290473576
0.02790432106658018
1.7765173229266968
-0.36278846248756913
0.02686844997971192
1.7757459995879867
-0.36278846248756913
0.02686844997971192
1.7757459995879867
-0.36278846248756913
0.02686844997971192
1.7757459995879867
-0.36278846248756913
0.02686844997971192
1.7757459995879867
-0.362253086263523
0.026814762347888522
1.776714079463301
-0.362253086263523
0.026814762347888522
1.776714079463301
-0.362253086263523
0.026814762347888522
1.776714079463301
-0.362253086263523
0.026814762347888522
1.776714079463301
-0.36504309591683715
0.02721069349631858
1.776308558510629
-0.36504309591683715
0.02721069349631858
1.776308558510629
-0.36504309591683715
0.02721069349631858
1.776308558510629
-0.36504309591683715
0.02721069349631858
1.776308558510629
-0.3654793858611524
0.027333239394096872
1.7781406870656777
-0.3654793858611524
0.027333239394096872
1.7781406870656777
-0.3654793858611524
0.027333239394096872
1.7781406870656777
-0.3654793858611524
0.027333239394096872
1.7781406870656777
-0.36370897482945513
0.030894771639837063
1.7793341582571782
-0.36370897482945513
0.030894771639837063
1.7793341582571782
-0.36370897482945513
0.030894771639837063
1.7793341582571782
-0.36370897482945513
0.030894771639837063
1.7793341582571782
-0.3639406455036443
0.033008980550888085
1.7796582809767667
-0.3639406455036443
0.033008980550888085
1.7796582809767667
-0.3639406455036443
0.033008980550888085
1.7796582809767667
-0.3639406455036443
0.033008980550888085
1.7796582809767667
-0.3661727887767302
0.035230236869210126
1.7798668577672807
-0.3661727887767302
0.035230236869210126
1.7798668577672807
-0.3661727887767302
0.035230236869210126
1.7798668577672807
-0.3661727887767302
0.035230236869210126
1.7798668577672807
-0.36415190321338836
0.03699815470101841
1.7796370079509558
-0.36415190321338836
0.03699815470101841
1.7796370079509558
-0.36415190321338836
0.03699815470101841
1.7796370079509558
-0.36415190321338836
0.03699815470101841
1.7796370079509558
-0.3634028096319505
0.03835531848106751
1.779305188697137
-0.3634028096319505
0.03835531848106751
1.779305188697137
-0.3634028096319505
0.03835531848106751
1.779305188697137
-0.3634028096319505
0.03835531848106751
1.779305188697137
-0.3649030689848574
0.04078101525261606
1.7800873616506885
-0.3649030689848574
0.04078101525261606
1.7800873616506885
-0.3649030689848574
0.04078101525261606
1.7800873616506885
-0.3649030689848574
0.04078101525261606
1.7800873616506885
-0.37007715723928203
0.04310876833938138
1.7805485523471125
-0.37007715723928203
0.04310876833938138
1.7805485523471125
-0.37007715723928203
0.04310876833938138
1.7805485523471125
-0.37007715723928203
0.04310876833938138
1.7805485523471125
-0.3755911497748142
0.04432940344278516
1.781006868134219
-0.3755911497748142
0.04432940344278516
1.781006868134219
-0.3755911497748142
0.04432940344278516
1.781006868134219
-0.3755911497748142
0.04432940344278516
1.781006868134219
-0.3706730979286692
0.04487049634437632
1.7806509272570716
-0.3706730979286692
0.04487049634437632
1.7806509272570716
-0.3706730979286692
0.04487049634437632
1.7806509272570716
-0.3706730979286692
0.04487049634437632
1.7806509272570716
-0.36365334938474775
0.046239590803695045
1.779807789674568
-0.36365334938474775
0.046239590803695045
1.779807789674568
-0.36365334938474775
0.046239590803695045
1.779807789674568
-0.36365334938474775
0.046239590803695045
1.779807789674568
-0.3651206169701532
0.048280548370296356
1.779957490388754
-0.3651206169701532
0.048280548370296356
1.779957490388754
-0.3651206169701532
0.048280548370296356
1.779957490388754
-0.3651206169701532
0.048280548370296356
1.779957490388754
-0.3695037414195523
0.04943366831537814
1.7802518240438339
-0.3695037414195523
0.04943366831537814
1.7802518240438339
-0.3695037414195523
0.04943366831537814
1.7802518240438339
-0.3695037414195523
0.04943366831537814
1.7802518240438339
-0.37002711988533504
0.05048483944873052
1.779439977121579
-0.37002711988533504
0.05048483944873052
1.779439977121579
-0.37002711988533504
0.05048483944873052
1.779439977121579
-0.37002711988533504
0.05048483944873052
1.779439977121579
-0.3643480817091722
0.04997186468523175
1.778598665397084
-0.3643480817091722
0.04997186468523175
1.778598665397084
-0.3643480817091722
0.04997186468523175
1.778598665397084
-0.3643480817091722
0.04997186468523175
1.778598665397084
-0.3581696577738528
0.049146537196321116
1.7772823382196756
-0.3581696577738528
0.049146537196321116
1.7772823382196756
-0.3581696577738528
0.049146537196321116
1.7772823382196756
-0.3581696577738528
0.049146537196321116
1.7772823382196756
-0.35947398604822645
0.04853357825569436
1.776061438165313
-0.35947398604822645
0.04853357825569436
1.776061438165313
-0.35947398604822645
0.04853357825569436
1.776061438165313
-0.35947398604822645
0.04853357825569436
1.776061438165313
-0.360134518925966
0.04727800159001784
1.7746063670857182
-0.360134518925966
0.04727800159001784
1.7746063670857182
-0.360134518925966
0.04727800159001784
1.7746063670857182
-0.360134518925966
0.04727800159001784
1.7746063670857182
-0.35838521303248133
0.04542055022110166
1.7731849679600895
-0.35838521303248133
0.04542055022110166
1.7731849679600895
-0.35838521303248133
0.04542055022110166
1.7731849679600895
-0.35838521303248133
0.04542055022110166
1.7731849679600895
-0.357252790520799
0.0425400933322311
1.771582705405747
-0.357252790520799
0.0425400933322311
1.771582705405747
-0.357252790520799
0.0425400933322311
1.771582705405747
-0.357252790520799
0.0425400933322311
1.771582705405747
-0.3575544071303884
0.04032602449541802
1.7703875618871348
-0.3575544071303884
0.04032602449541802
1.7703875618871348
-0.3575544071303884
0.04032602449541802
1.7703875618871348
-0.3575544071303884
0.04032602449541802
1.7703875618871348
-0.3581253309637511
0.03897795332280456
1.7699216735317407
-0.3581253309637511
0.03897795332280456
1.7699216735317407
-0.3581253309637511
0.03897795332280456
1.7699216735317407
-0.3581253309637511
0.03897795332280456
1.7699216735317407
-0.359420329132221
0.03843933481849749
1.769138782673707
-0.359420329132221
0.03843933481849749
1.769138782673707
-0.359420329132221
0.03843933481849749
1.769138782673707
-0.359420329132221
0.03843933481849749
1.769138782673707
-0.3591440422345425
0.03768097902701677
1.7680421004879616
-0.3591440422345425
0.03768097902701677
1.7680421004879616
-0.3591440422345425
0.03768097902701677
1.7680421004879616
-0.3591440422345425
0.03768097902701677
1.7680421004879616
-0.3593944368618144
0.03586421185202601
1.7671275454306579
-0.3593944368618144
0.03586421185202601
1.7671275454306579
-0.3593944368618144
0.03586421185202601
1.7671275454306579
-0.3593944368618144
0.03586421185202601
1.7671275454306579
-0.36222445561984307
0.03497187535484194
1.7669426266168327
-0.36222445561984307
0.03497187535484194
1.7669426266168327
-0.36222445561984307
0.03497187535484194
1.7669426266168327
-0.36222445561984307
0.03497187535484194
1.7669426266168327
-0.36390819439710353
0.03392727571245779
1.7670437380892638
-0.36390819439710353
0.03392727571245779
1.7670437380892638
-0.36390819439710353
0.03392727571245779
1.7670437380892638
-0.36390819439710353
0.03392727571245779
1.7670437380892638
-0.3649867176447198
0.03368796721568747
1.7661172047403362
-0.3649867176447198
0.03368796721568747
1.7661172047403362
-0.3649867176447198
0.03368796721568747
1.7661172047403362
-0.3649867176447198
0.03368796721568747
1.7661172047403362
-0.3657763822423247
0.03381949823780948
1.765922086580347
-0.3657763822423247
0.03381949823780948
1.765922086580347
-0.3657763822423247
0.03381949823780948
1.765922086580347
-0.3657763822423247
0.03381949823780948
1.765922086580347
-0.3656873224969033
0.03370857844989162
1.7658479925688306
-0.3656873224969033
0.03370857844989162
1.7658479925688306
-0.3656873224969033
0.03370857844989162
1.7658479925688306
-0.3656873224969033
0.03370857844989162
1.7658479925688306
-0.3668318479150004
0.03378352679612553
1.766102656880481
-0.3668318479150004
0.03378352679612553
1.766102656880481
-0.3668318479150004
0.03378352679612553
1.766102656880481
-0.3668318479150004
0.03378352679612553
1.766102656880481
-0.3636380041482017
0.032948628492897064
1.765717395060313
-0.3636380041482017
0.032948628492897064
1.765717395060313
-0.3636380041482017
0.032948628492897064
1.765717395060313
-0.3636380041482017
0.032948628492897064
1.765717395060313
-0.3647825794467158
0.03302323173980344
1.7659725638726451
-0.3647825794467158
0.03302323173980344
1.7659725638726451
-0.3647825794467158
0.03302323173980344
1.7659725638726451
-0.3647825794467158
0.03302323173980344
1.7659725638726451
-0.3647716817144759
0.03316512911557091
1.7667414156469892
-0.3647716817144759
0.03316512911557091
1.7667414156469892
-0.3647716817144759
0.03316512911557091
1.7667414156469892
-0.3647716817144759
0.03316512911557091
1.7667414156469892
-0.36525033524277595
0.03386826381999649
1.7674159426652092
-0.36525033524277595
0.03386826381999649
1.7674159426652092
-0.36525033524277595
0.03386826381999649
1.7674159426652092
-0.36525033524277595
0.03386826381999649
1.7674159426652092
-0.36513929614327384
0.033957164299579325
1.7674799128352998
-0.36513929614327384
0.033957164299579325
1.7674799128352998
-0.36513929614327384
0.033957164299579325
1.7674799128352998
-0.36513929614327384
0.033957164299579325
1.7674799128352998
-0.36568744462607766
0.034703778212892514
1.767874005193013
-0.36568744462607766
0.034703778212892514
1.767874005193013
-0.36568744462607766
0.034703778212892514
1.767874005193013
-0.36568744462607766
0.034703778212892514
1.767874005193013
-0.36663408443242845
0.03491413165783534
1.7680105234434598
-0.36663408443242845
0.03491413165783534
1.7680105234434598
-0.36663408443242845
0.03491413165783534
1.7680105234434598
-0.36663408443242845
0.03491413165783534
1.7680105234434598
-0.36579640179803347
0.03544946949707191
1.768974639953018
-0.36579640179803347
0.03544946949707191
1.768974639953018
-0.36579640179803347
0.03544946949707191
1.768974639953018
-0.36579640179803347
0.03544946949707191
1.768974639953018
-0.3658831590368538
0.03548448552824777
1.7695868711264509
-0.3658831590368538
0.03548448552824777
1.7695868711264509
-0.3658831590368538
0.03548448552824777
1.7695868711264509
-0.3658831590368538
0.03548448552824777
1.7695868711264509
-0.3648328301679381
0.036398254308555124
1.7698651551677889
-0.3648328301679381
0.036398254308555124
1.7698651551677889
-0.3648328301679381
0.036398254308555124
1.7698651551677889
-0.3648328301679381
0.036398254308555124
1.7698651551677889
-0.366640588703699
0.03668328154303192
1.7708623316624452
-0.366640588703699
0.03668328154303192
1.7708623316624452
-0.366640588703699
0.03668328154303192
1.7708623316624452
-0.366640588703699
0.03668328154303192
1.7708623316624452
-0.36566534613313784
0.036782755362446184
1.771464621730424
-0.36566534613313784
0.036782755362446184
1.771464621730424
-0.36566534613313784
0.036782755362446184
1.771464621730424
-0.36566534613313784
0.036782755362446184
1.771464621730424
-0.3657580839103394
0.036706507021288394
1.771476964036196
-0.3657580839103394
0.036706507021288394
1.771476964036196
-0.3657580839103394
0.036706507021288394
1.771476964036196
-0.3657580839103394
0.036706507021288394
1.771476964036196
-0.36322887975259766
0.03732101118712358
1.7714539371259694
-0.36322887975259766
0.03732101118712358
1.7714539371259694
-0.36322887975259766
0.03732101118712358
1.7714539371259694
-0.36322887975259766
0.03732101118712358
1.7714539371259694
-0.3647501304116403
0.03804983930472717
1.7716757440694637
-0.3647501304116403
0.03804983930472717
1.7716757440694637
-0.3647501304116403
0.03804983930472717
1.7716757440694637
-0.3647501304116403
0.03804983930472717
1.7716757440694637
-0.36436648286255374
0.037429688566717426
1.7718757774307836
-0.36436648286255374
0.037429688566717426
1.7718757774307836
-0.36436648286255374
0.037429688566717426
1.7718757774307836
-0.36436648286255374
0.037429688566717426
1.7718757774307836
-0.366419472778709
0.03725880581259141
1.772175254035755
-0.366419472778709
0.03725880581259141
1.772175254035755
-0.366419472778709
0.03725880581259141
1.772175254035755
-0.366419472778709
0.03725880581259141
1.772175254035755
-0.36474980211296143
0.03623673562073606
1.772359479654759
-0.36474980211296143
0.03623673562073606
1.772359479654759
-0.36474980211296143
0.03623673562073606
1.772359479654759
-0.36474980211296143
0.03623673562073606
1.772359479654759
-0.3654835788731202
0.036908482925611524
1.7722397981291078
-0.3654835788731202
0.036908482925611524
1.7722397981291078
-0.3654835788731202
0.036908482925611524
1.7722397981291078
-0.3654835788731202
0.036908482925611524
1.7722397981291078
-0.3652879974654902
0.03530570225501161
1.772268598393283
-0.3652879974654902
0.03530570225501161
1.772268598393283
-0.3652879974654902
0.03530570225501161
1.772268598393283
-0.3652879974654902
0.03530570225501161
1.772268598393283
-0.36640532378485474
0.03470431269784594
1.7722032395644416
-0.36640532378485474
0.03470431269784594
1.7722032395644416
-0.36640532378485474
0.03470431269784594
1.7722032395644416
-0.36640532378485474
0.03470431269784594
1.7722032395644416
-0.3676875711953203
0.03430684409469168
1.772194139815068
-0.3676875711953203
0.03430684409469168
1.772194139815068
-0.3676875711953203
0.03430684409469168
1.772194139815068
-0.3676875711953203
0.03430684409469168
1.772194139815068
-0.3677782764936861
0.03407429860686724
1.7723140188761766
-0.3677782764936861
0.03407429860686724
1.7723140188761766
-0.3677782764936861
0.03407429860686724
1.7723140188761766
-0.3677782764936861
0.03407429860686724
1.7723140188761766
-0.36791220413310066
0.033785576267395485
1.7721124949463911
-0.36791220413310066
0.033785576267395485
1.7721124949463911
-0.36791220413310066
0.033785576267395485
1.7721124949463911
-0.36791220413310066
0.033785576267395485
1.7721124949463911
-0.3685841561200125
0.034039133991492936
1.7721499099576903
-0.3685841561200125
0.034039133991492936
1.7721499099576903
-0.3685841561200125
0.034039133991492936
1.7721499099576903
-0.3685841561200125
0.034039133991492936
1.7721499099576903
-0.3682007029356235
0.03531212690107024
1.7720942298973388
-0.3682007029356235
0.03531212690107024
1.7720942298973388
-0.3682007029356235
0.03531212690107024
1.7720942298973388
-0.3682007029356235
0.03531212690107024
1.7720942298973388
-0.36763984229699453
0.036443307230662636
1.7723216553385284
-0.36763984229699453
0.036443307230662636
1.7723216553385284
-0.36763984229699453
0.036443307230662636
1.7723216553385284
-0.36763984229699453
0.036443307230662636
1.7723216553385284
-0.368876627410057
0.03735189779708652
1.7722435046792766
-0.368876627410057
0.03735189779708652
1.7722435046792766
-0.368876627410057
0.03735189779708652
1.7722435046792766
-0.368876627410057
0.03735189779708652
1.7722435046792766
-0.36786843379214906
0.03770825162461597
1.7723530690086808
-0.36786843379214906
0.03770825162461597
1.7723530690086808
-0.36786843379214906
0.03770825162461597
1.7723530690086808
-0.36786843379214906
0.03770825162461597
1.7723530690086808
-0.36911579798881367
0.038397998659578665
1.7720435257722846
-0.36911579798881367
0.038397998659578665
1.7720435257722846
-0.36911579798881367
0.038397998659578665
1.7720435257722846
-0.36911579798881367
0.038397998659578665
1.7720435257722846
-0.3677326498629974
0.03826004364594303
1.7720784020452023
-0.3677326498629974
0.03826004364594303
1.7720784020452023
-0.3677326498629974
0.03826004364594303
1.7720784020452023
-0.3677326498629974
0.03826004364594303
1.7720784020452023
-0.3667674407572592
0.03814069694922351
1.772450680583367
-0.3667674407572592
0.03814069694922351
1.772450680583367
-0.3667674407572592
0.03814069694922351
1.772450680583367
-0.3667674407572592
0.03814069694922351
1.772450680583367
-0.3667674407572592
0.03814069694922351
1.772450680583367
-0.3667674407572592
0.03814069694922351
1.772450680583367
-0.3667674407572592
0.03814069694922351
1.772450680583367
-0.3667674407572592
0.03814069694922351
1.772450680583367
-0.36680044345810087
0.03780289956886482
1.77251270749017
-0.36680044345810087
0.03780289956886482
1.77251270749017
-0.36680044345810087
0.03780289956886482
1.77251270749017
-0.36680044345810087
0.03780289956886482
1.77251270749017
-0.36439032418106226
0.03803278651240231
1.7727336401102012
-0.36439032418106226
0.03803278651240231
1.7727336401102012
-0.36439032418106226
0.03803278651240231
1.7727336401102012
-0.36439032418106226
0.03803278651240231
1.7727336401102012
-0.3638671438362903
0.038072133272022156
1.772291034578232
-0.3638671438362903
0.038072133272022156
1.772291034578232
-0.3638671438362903
0.038072133272022156
1.772291034578232
-0.3638671438362903
0.038072133272022156
1.772291034578232
-0.36510374367799375
0.038074369744043754
1.7725556212021383
-0.36510374367799375
0.038074369744043754
1.7725556212021383
-0.36510374367799375
0.038074369744043754
1.7725556212021383
-0.36510374367799375
0.038074369744043754
1.7725556212021383
-0.3646906717378205
0.03776485326654974
1.773493911772148
-0.3646906717378205
0.03776485326654974
1.773493911772148
-0.3646906717378205
0.03776485326654974
1.773493911772148
-0.3646906717378205
0.03776485326654974
1.773493911772148
-0.36361323038659465
0.03701013720462111
1.7733643088442095
-0.36361323038659465
0.03701013720462111
1.7733643088442095
-0.36361323038659465
0.03701013720462111
1.7733643088442095
-0.36361323038659465
0.03701013720462111
1.7733643088442095
-0.3618539029718134
0.037848861428729036
1.7736533754949517
-0.3618539029718134
0.037848861428729036
1.7736533754949517
-0.3618539029718134
0.037848861428729036
1.7736533754949517
-0.3618539029718134
0.037848861428729036
1.7736533754949517
-0.3628667691474966
0.037306057733602974
1.7734805128040199
-0.3628667691474966
0.037306057733602974
1.7734805128040199
-0.3628667691474966
0.037306057733602974
1.7734805128040199
-0.3628667691474966
0.037306057733602974
1.7734805128040199
-0.36420254057899476
0.0372019650963556
1.7735887591734536
-0.36420254057899476
0.0372019650963556
1.7735887591734536
-0.36420254057899476
0.0372019650963556
1.7735887591734536
-0.36420254057899476
0.0372019650963556
1.7735887591734536
-0.3641822058847283
0.03665171668059776
1.7739615785238463
-0.3641822058847283
0.03665171668059776
1.7739615785238463
-0.3641822058847283
0.03665171668059776
1.7739615785238463
-0.3641822058847283
0.03665171668059776
1.7739615785238463
-0.3644897046226248
0.03627290109296368
1.7741220820964945
-0.3644897046226248
0.03627290109296368
1.7741220820964945
-0.3644897046226248
0.03627290109296368
1.7741220820964945
-0.3644897046226248
0.03627290109296368
1.7741220820964945
-0.36441352356626666
0.03618010584981975
1.7741406137758047
-0.36441352356626666
0.03618010584981975
1.7741406137758047
-0.36441352356626666
0.03618010584981975
1.7741406137758047
-0.36441352356626666
0.03618010584981975
1.7741406137758047
-0.3662960026215901
0.03583831020069989
1.774554783170704
-0.3662960026215901
0.03583831020069989
1.774554783170704
-0.3662960026215901
0.03583831020069989
1.774554783170704
-0.3662960026215901
0.03583831020069989
1.774554783170704
-0.3659486515194823
0.03495605614310924
1.774278760713137
-0.3659486515194823
0.03495605614310924
1.774278760713137
-0.3659486515194823
0.03495605614310924
1.774278760713137
-0.3659486515194823
0.03495605614310924
1.774278760713137
-0.3652139164584359
0.034127103677671904
1.7745048694892185
-0.3652139164584359
0.034127103677671904
1.7745048694892185
-0.3652139164584359
0.034127103677671904
1.7745048694892185
-0.3652139164584359
0.034127103677671904
1.7745048694892185
-0.3642647357202125
0.03311444981536423
1.7743405994088353
-0.3642647357202125
0.03311444981536423
1.7743405994088353
-0.3642647357202125
0.03311444981536423
1.7743405994088353
-0.3642647357202125
0.03311444981536423
1.7743405994088353
-0.36433173675706004
0.032438763559779
1.774463951443215
-0.36433173675706004
0.032438763559779
1.774463951443215
-0.36433173675706004
0.032438763559779
1.774463951443215
-0.36433173675706004
0.032438763559779
1.774463951443215
-0.36708273347877685
0.031499438063199096
1.775442381418361
-0.36708273347877685
0.031499438063199096
1.775442381418361
-0.36708273347877685
0.031499438063199096
1.775442381418361
-0.36708273347877685
0.031499438063199096
1.775442381418361
-0.3642482470679652
0.030594343807554412
1.7755034449125477
-0.3642482470679652
0.030594343807554412
1.7755034449125477
-0.3642482470679652
0.030594343807554412
1.7755034449125477
-0.3642482470679652
0.030594343807554412
1.7755034449125477
-0.3591790924051774
0.031044348044089915
1.7755842702723121
-0.3591790924051774
0.031044348044089915
1.7755842702723121
-0.3591790924051774
0.031044348044089915
1.7755842702723121
-0.3591790924051774
0.031044348044089915
1.7755842702723121
-0.36109211020618576
0.030552110897404214
1.7761258696526963
-0.36109211020618576
0.030552110897404214
1.7761258696526963
-0.36109211020618576
0.030552110897404214
1.7761258696526963
-0.36109211020618576
0.030552110897404214
1.7761258696526963
-0.3648702749271732
0.029729973304225957
1.7761952976764457
-0.3648702749271732
0.029729973304225957
1.7761952976764457
-0.3648702749271732
0.029729973304225957
1.7761952976764457
-0.3648702749271732
0.029729973304225957
1.7761952976764457
-0.36852705702893684
0.029290564514039122
1.7760237122045115
-0.36852705702893684
0.029290564514039122
1.7760237122045115
-0.36852705702893684
0.029290564514039122
1.7760237122045115
-0.36852705702893684
0.029290564514039122
1.7760237122045115
-0.367665771609167
0.030012878727870573
1.7751854438422074
-0.367665771609167
0.030012878727870573
1.7751854438422074
-0.367665771609167
0.030012878727870573
1.7751854438422074
-0.367665771609167
0.030012878727870573
1.7751854438422074
-0.36832740344421905
0.030486067334155695
1.7754547114846102
-0.36832740344421905
0.030486067334155695
1.7754547114846102
-0.36832740344421905
0.030486067334155695
1.7754547114846102
-0.36832740344421905
0.030486067334155695
1.7754547114846102
-0.36803646974502185
0.030700980180040773
1.7762924837027612
-0.36803646974502185
0.030700980180040773
1.7762924837027612
-0.36803646974502185
0.030700980180040773
1.7762924837027612
-0.36803646974502185
0.030700980180040773
1.7762924837027612
-0.36855164167503524
0.030957614558503686
1.77642961185152
-0.36855164167503524
0.030957614558503686
1.77642961185152
-0.36855164167503524
0.030957614558503686
1.77642961185152
-0.36855164167503524
0.030957614558503686
1.77642961185152
-0.3639188561994846
0.031329175487868594
1.7753734184191594
-0.3639188561994846
0.031329175487868594
1.7753734184191594
-0.3639188561994846
0.031329175487868594
1.7753734184191594
-0.3639188561994846
0.031329175487868594
1.7753734184191594
-0.36128910748025767
0.03196603759058842
1.7750698535192402
-0.36128910748025767
0.03196603759058842
1.7750698535192402
-0.36128910748025767
0.03196603759058842
1.7750698535192402
-0.36128910748025767
0.03196603759058842
1.7750698535192402
-0.3694436280243857
0.03445797265404568
1.777641399848259
-0.3694436280243857
0.03445797265404568
1.777641399848259
-0.3694436280243857
0.03445797265404568
1.777641399848259
-0.3694436280243857
0.03445797265404568
1.777641399848259
-0.37340976783368485
0.03542196931525812
1.7804707679578873
-0.37340976783368485
0.03542196931525812
1.7804707679578873
-0.37340976783368485
0.03542196931525812
1.7804707679578873
-0.37340976783368485
0.03542196931525812
1.7804707679578873
-0.37227697128729165
0.036163663413863706
1.7813029941695095
-0.37227697128729165
0.036163663413863706
1.7813029941695095
-0.37227697128729165
0.036163663413863706
1.7813029941695095
-0.37227697128729165
0.036163663413863706
1.7813029941695095
-0.37071780115462355
0.03587702028435926
1.7816193197114234
-0.37071780115462355
0.03587702028435926
1.7816193197114234
-0.37071780115462355
0.03587702028435926
1.7816193197114234
-0.37071780115462355
0.03587702028435926
1.7816193197114234
-0.3680306985172551
0.03526123548848027
1.7822503891579882
-0.3680306985172551
0.03526123548848027
1.7822503891579882
-0.3680306985172551
0.03526123548848027
1.7822503891579882
-0.3680306985172551
0.03526123548848027
1.7822503891579882
-0.36659802655161794
0.03472563437168598
1.7844704625755634
-0.36659802655161794
0.03472563437168598
1.7844704625755634
-0.36659802655161794
0.03472563437168598
1.7844704625755634
-0.36659802655161794
0.03472563437168598
1.7844704625755634
-0.36953977474143557
0.03285680290066594
1.7864153567782401
-0.36953977474143557
0.03285680290066594
1.7864153567782401
-0.36953977474143557
0.03285680290066594
1.7864153567782401
-0.36953977474143557
0.03285680290066594
1.7864153567782401
-0.3723730790589631
0.031148519180714974
1.78692195887073
-0.3723730790589631
0.031148519180714974
1.78692195887073
-0.3723730790589631
0.031148519180714974
1.78692195887073
-0.3723730790589631
0.031148519180714974
1.78692195887073
-0.37264177443565716
0.031141167564974762
1.787190654247424
-0.37264177443565716
0.031141167564974762
1.787190654247424
-0.37264177443565716
0.031141167564974762
1.787190654247424
-0.37264177443565716
0.031141167564974762
1.787190654247424
-0.3688587246516461
0.03187289359281934
1.7886275663325595
-0.3688587246516461
0.03187289359281934
1.7886275663325595
-0.3688587246516461
0.03187289359281934
1.7886275663325595
-0.3688587246516461
0.03187289359281934
1.7886275663325595
-0.36976425740776064
0.030107379452821457
1.790902067030489
-0.36976425740776064
0.030107379452821457
1.790902067030489
-0.36976425740776064
0.030107379452821457
1.790902067030489
-0.36976425740776064
0.030107379452821457
1.790902067030489
-0.37532764205377417
0.027839711369476158
1.7933053007514341
-0.37532764205377417
0.027839711369476158
1.7933053007514341
-0.37532764205377417
0.027839711369476158
1.7933053007514341
-0.37532764205377417
0.027839711369476158
1.7933053007514341
-0.3728389532827804
0.026544906740839574
1.796358209002435
-0.3728389532827804
0.026544906740839574
1.796358209002435
-0.3728389532827804
0.026544906740839574
1.796358209002435
-0.3728389532827804
0.026544906740839574
1.796358209002435
-0.36373813558993273
0.02564989885052083
1.7953024015405503
-0.36373813558993273
0.02564989885052083
1.7953024015405503
-0.36373813558993273
0.02564989885052083
1.7953024015405503
-0.36373813558993273
0.02564989885052083
1.7953024015405503
-0.36047721057441956
0.02467376286888542
1.7939514127782765
-0.36047721057441956
0.02467376286888542
1.7939514127782765
-0.36047721057441956
0.02467376286888542
1.7939514127782765
-0.36047721057441956
0.02467376286888542
1.7939514127782765
-0.3614415507957633
0.02323611857755717
1.7936986700199125
-0.3614415507957633
0.02323611857755717
1.7936986700199125
-0.3614415507957633
0.02323611857755717
1.7936986700199125
-0.3614415507957633
0.02323611857755717
1.7936986700199125
-0.3675760136648365
0.02136006282289584
1.7955087567310715
-0.3675760136648365
0.02136006282289584
1.7955087567310715
-0.3675760136648365
0.02136006282289584
1.7955087567310715
-0.3675760136648365
0.02136006282289584
1.7955087567310715
-0.37240702285237504
0.02016167307675496
1.7960531677562637
-0.37240702285237504
0.02016167307675496
1.7960531677562637
-0.37240702285237504
0.02016167307675496
1.7960531677562637
-0.37240702285237504
0.02016167307675496
1.7960531677562637
-0.37477458863448226
0.019559873494194586
1.7961054851963758
-0.37477458863448226
0.019559873494194586
1.7961054851963758
-0.37477458863448226
0.019559873494194586
1.7961054851963758
-0.37477458863448226
0.019559873494194586
1.7961054851963758
-0.37493224269078274
0.019601536379089318
1.7953004033040734
-0.37493224269078274
0.019601536379089318
1.7953004033040734
-0.37493224269078274
0.019601536379089318
1.7953004033040734
-0.37493224269078274
0.019601536379089318
1.7953004033040734
-0.3739681096480011
0.01858270303740313
1.794241072862296
-0.3739681096480011
0.01858270303740313
1.794241072862296
-0.3739681096480011
0.01858270303740313
1.794241072862296
-0.3739681096480011
0.01858270303740313
1.794241072862296
-0.3735607382092243
0.017496883233059563
1.7943529835706515
-0.3735607382092243
0.017496883233059563
1.7943529835706515
-0.3735607382092243
0.017496883233059563
1.7943529835706515
-0.3735607382092243
0.017496883233059563
1.7943529835706515
-0.37304830388798116
0.017430586512928167
1.7952429023982315
-0.37304830388798116
0.017430586512928167
1.7952429023982315
-0.37304830388798116
0.017430586512928167
1.7952429023982315
-0.37304830388798116
0.017430586512928167
1.7952429023982315
-0.37180241512354323
0.0175577198969853
1.795733845888842
-0.37180241512354323
0.0175577198969853
1.795733845888842
-0.37180241512354323
0.0175577198969853
1.795733845888842
-0.37180241512354323
0.0175577198969853
1.795733845888842
-0.3718530599353717
0.0180069313064809
1.795746147376523
-0.3718530599353717
0.0180069313064809
1.795746147376523
-0.3718530599353717
0.0180069313064809
1.795746147376523
-0.3718530599353717
0.0180069313064809
1.795746147376523
-0.37327918689500555
0.01864294118735451
1.7959045772679088
-0.37327918689500555
0.01864294118735451
1.7959045772679088
-0.37327918689500555
0.01864294118735451
1.7959045772679088
-0.37327918689500555
0.01864294118735451
1.7959045772679088
-0.37219305745448716
0.01966208746199924
1.7958776516379598
-0.37219305745448716
0.01966208746199924
1.7958776516379598
-0.37219305745448716
0.01966208746199924
1.7958776516379598
-0.37219305745448716
0.01966208746199924
1.7958776516379598
-0.370769974852217
0.020488241628834867
1.7959688592816392
-0.370769974852217
0.020488241628834867
1.7959688592816392
-0.370769974852217
0.020488241628834867
1.7959688592816392
-0.370769974852217
0.020488241628834867
1.7959688592816392
-0.370769974852217
0.020488241628834867
1.7959688592816392
-0.370769974852217
0.020488241628834867
1.7959688592816392
-0.370769974852217
0.020488241628834867
1.7959688592816392
-0.370769974852217
0.020488241628834867
1.7959688592816392
-0.3708017889168316
0.020337976744284076
1.7960939934285238
-0.3708017889168316
0.020337976744284076
1.7960939934285238
-0.3708017889168316
0.020337976744284076
1.7960939934285238
-0.3708017889168316
0.020337976744284076
1.7960939934285238
-0.37219590352267984
0.020356195171676833
1.796270479307213
-0.37219590352267984
0.020356195171676833
1.796270479307213
-0.37219590352267984
0.020356195171676833
1.796270479307213
-0.37219590352267984
0.020356195171676833
1.796270479307213
-0.3741192583313398
0.020541456249179246
1.7960807924870186
-0.3741192583313398
0.020541456249179246
1.7960807924870186
-0.3741192583313398
0.020541456249179246
1.7960807924870186
-0.3741192583313398
0.020541456249179246
1.7960807924870186
-0.37531767646130787
0.02097001880312114
1.7957549314007293
-0.37531767646130787
0.02097001880312114
1.7957549314007293
-0.37531767646130787
0.02097001880312114
1.7957549314007293
-0.37531767646130787
0.02097001880312114
1.7957549314007293
-0.37356364404612863
0.021376574794033053
1.794764255978311
-0.37356364404612863
0.021376574794033053
1.794764255978311
-0.37356364404612863
0.021376574794033053
1.794764255978311
-0.37356364404612863
0.021376574794033053
1.794764255978311
-0.37285552281474155
0.021331129810970663
1.7930925602007177
-0.37285552281474155
0.021331129810970663
1.7930925602007177
-0.37285552281474155
0.021331129810970663
1.7930925602007177
-0.37285552281474155
0.021331129810970663
1.7930925602007177
-0.3734250106838778
0.02089111465885602
1.792296576081087
-0.3734250106838778
0.02089111465885602
1.792296576081087
-0.3734250106838778
0.02089111465885602
1.792296576081087
-0.3734250106838778
0.02089111465885602
1.792296576081087
-0.37540268022319445
0.02144853798013614
1.7926552244785352
-0.37540268022319445
0.02144853798013614
1.7926552244785352
-0.37540268022319445
0.02144853798013614
1.7926552244785352
-0.37540268022319445
0.02144853798013614
1.7926552244785352
-0.3754717023189216
0.02241482204672067
1.792121655450586
-0.3754717023189216
0.02241482204672067
1.792121655450586
-0.3754717023189216
0.02241482204672067
1.792121655450586
-0.3754717023189216
0.02241482204672067
1.792121655450586
-0.37307442851037087
0.02469939984108963
1.7906889370211403
-0.37307442851037087
0.02469939984108963
1.7906889370211403
-0.37307442851037087
0.02469939984108963
1.7906889370211403
-0.37307442851037087
0.02469939984108963
1.7906889370211403
-0.3731330587345767
0.029168009916155563
1.7890687174805318
-0.3731330587345767
0.029168009916155563
1.7890687174805318
-0.3731330587345767
0.029168009916155563
1.7890687174805318
-0.3731330587345767
0.029168009916155563
1.7890687174805318
-0.3610753666425109
0.031011761280479465
1.7882135062486826
-0.3610753666425109
0.031011761280479465
1.7882135062486826
-0.3610753666425109
0.031011761280479465
1.7882135062486826
-0.3610753666425109
0.031011761280479465
1.7882135062486826
-0.35680021704059955
0.03395606663712401
1.790055760526612
-0.35680021704059955
0.03395606663712401
1.790055760526612
-0.35680021704059955
0.03395606663712401
1.790055760526612
-0.35680021704059955
0.03395606663712401
1.790055760526612
-0.36450104832864133
0.03710093353764037
1.791360146197776
-0.36450104832864133
0.03710093353764037
1.791360146197776
-0.36450104832864133
0.03710093353764037
1.791360146197776
-0.36450104832864133
0.03710093353764037
1.791360146197776
-0.3770584146114706
0.041310544621686214
1.7924584063892777
-0.3770584146114706
0.041310544621686214
1.7924584063892777
-0.3770584146114706
0.041310544621686214
1.7924584063892777
-0.3770584146114706
0.041310544621686214
1.7924584063892777
-0.3846970427304623
0.041036259814755005
1.7919850930313523
-0.3846970427304623
0.041036259814755005
1.7919850930313523
-0.3846970427304623
0.041036259814755005
1.7919850930313523
-0.3846970427304623
0.041036259814755005
1.7919850930313523
-0.37937835071514486
0.04033781778065011
1.7901704103318863
-0.37937835071514486
0.04033781778065011
1.7901704103318863
-0.37937835071514486
0.04033781778065011
1.7901704103318863
-0.37937835071514486
0.04033781778065011
1.7901704103318863
-0.3661258200085745
0.04094148533854592
1.7887185347617838
-0.3661258200085745
0.04094148533854592
1.7887185347617838
-0.3661258200085745
0.04094148533854592
1.7887185347617838
-0.3661258200085745
0.04094148533854592
1.7887185347617838
-0.3639967973943831
0.041878056477037705
1.7879312228904534
-0.3639967973943831
0.041878056477037705
1.7879312228904534
-0.3639967973943831
0.041878056477037705
1.7879312228904534
-0.3639967973943831
0.041878056477037705
1.7879312228904534
-0.3696904129741434
0.04076278777645927
1.7893762927417778
-0.3696904129741434
0.04076278777645927
1.7893762927417778
-0.3696904129741434
0.04076278777645927
1.7893762927417778
-0.3696904129741434
0.04076278777645927
1.7893762927417778
-0.37292486675803616
0.0402807434605958
1.789555713799954
-0.37292486675803616
0.0402807434605958
1.789555713799954
-0.37292486675803616
0.0402807434605958
1.789555713799954
-0.37292486675803616
0.0402807434605958
1.789555713799954
-0.3721815064832392
0.04048189814941198
1.7882716687971734
-0.3721815064832392
0.04048189814941198
1.7882716687971734
-0.3721815064832392
0.04048189814941198
1.7882716687971734
-0.3721815064832392
0.04048189814941198
1.7882716687971734
-0.36228974675958314
0.04046768003127655
1.7865976982855598
-0.36228974675958314
0.04046768003127655
1.7865976982855598
-0.36228974675958314
0.04046768003127655
1.7865976982855598
-0.36228974675958314
0.04046768003127655
1.7865976982855598
-0.3627817526153283
0.04076656843648482
1.7860092302615282
-0.3627817526153283
0.04076656843648482
1.7860092302615282
-0.3627817526153283
0.04076656843648482
1.7860092302615282
-0.3627817526153283
0.04076656843648482
1.7860092302615282
-0.36632190764624767
0.040062961709476416
1.787209656720201
-0.36632190764624767
0.040062961709476416
1.787209656720201
-0.36632190764624767
0.040062961709476416
1.787209656720201
-0.36632190764624767
0.040062961709476416
1.787209656720201
-0.36944264547571437
0.03889066155053224
1.786627663226928
-0.36944264547571437
0.03889066155053224
1.786627663226928
-0.36944264547571437
0.03889066155053224
1.786627663226928
-0.36944264547571437
0.03889066155053224
1.786627663226928
-0.3647416283252133
0.038238360288249854
1.7859499116895126
-0.3647416283252133
0.038238360288249854
1.7859499116895126
-0.3647416283252133
0.038238360288249854
1.7859499116895126
-0.3647416283252133
0.038238360288249854
1.7859499116895126
-0.3583567286988746
0.037631583082727564
1.7841121066329404
-0.3583567286988746
0.037631583082727564
1.7841121066329404
-0.3583567286988746
0.037631583082727564
1.7841121066329404
-0.3583567286988746
0.037631583082727564
1.7841121066329404
-0.36232426397728806
0.03675254605657479
1.7846220905013395
-0.36232426397728806
0.03675254605657479
1.7846220905013395
-0.36232426397728806
0.03675254605657479
1.7846220905013395
-0.36232426397728806
0.03675254605657479
1.7846220905013395
-0.36569191925928707
0.03589840755105066
1.7851424278263919
-0.36569191925928707
0.03589840755105066
1.7851424278263919
-0.36569191925928707
0.03589840755105066
1.7851424278263919
-0.36569191925928707
0.03589840755105066
1.7851424278263919
-0.3661664870565507
0.03548502660199034
1.784066132142675
-0.3661664870565507
0.03548502660199034
1.784066132142675
-0.3661664870565507
0.03548502660199034
1.784066132142675
-0.3661664870565507
0.03548502660199034
1.784066132142675
-0.35661029049544685
0.03488933565915715
1.7822188628172793
-0.35661029049544685
0.03488933565915715
1.7822188628172793
-0.35661029049544685
0.03488933565915715
1.7822188628172793
-0.35661029049544685
0.03488933565915715
1.7822188628172793
-0.352551131889532
0.03569531722578909
1.7808327282595666
-0.352551131889532
0.03569531722578909
1.7808327282595666
-0.352551131889532
0.03569531722578909
1.7808327282595666
-0.352551131889532
0.03569531722578909
1.7808327282595666
-0.3572541552953196
0.03457587737786535
1.7805974630229957
-0.3572541552953196
0.03457587737786535
1.7805974630229957
-0.3572541552953196
0.03457587737786535
1.7805974630229957
-0.3572541552953196
0.03457587737786535
1.7805974630229957
-0.36309450089173306
0.03348902830892582
1.780360512435031
-0.36309450089173306
0.03348902830892582
1.780360512435031
-0.36309450089173306
0.03348902830892582
1.780360512435031
-0.36309450089173306
0.03348902830892582
1.780360512435031
-0.36261666770354395
0.033929495104782804
1.7806370386347958
-0.36261666770354395
0.033929495104782804
1.7806370386347958
-0.36261666770354395
0.033929495104782804
1.7806370386347958
-0.36261666770354395
0.033929495104782804
1.7806370386347958
-0.35915038283148754
0.03417799168383407
1.7806736900749558
-0.35915038283148754
0.03417799168383407
1.7806736900749558
-0.35915038283148754
0.03417799168383407
1.7806736900749558
-0.35915038283148754
0.03417799168383407
1.7806736900749558
-0.3565902563949828
0.03501039681276096
1.779988830849517
-0.3565902563949828
0.03501039681276096
1.779988830849517
-0.3565902563949828
0.03501039681276096
1.779988830849517
-0.3565902563949828
0.03501039681276096
1.779988830849517
-0.35745434430131867
0.035962168676018584
1.78034337334075
-0.35745434430131867
0.035962168676018584
1.78034337334075
-0.35745434430131867
0.035962168676018584
1.78034337334075
-0.35745434430131867
0.035962168676018584
1.78034337334075
-0.3583525631175985
0.03657628758659413
1.7807576493199349
-0.3583525631175985
0.03657628758659413
1.7807576493199349
-0.3583525631175985
0.03657628758659413
1.7807576493199349
-0.3583525631175985
0.03657628758659413
1.7807576493199349
-0.35849911617912
0.036949727980469
1.7807838939530491
-0.35849911617912
0.036949727980469
1.7807838939530491
-0.35849911617912
0.036949727980469
1.7807838939530491
-0.35849911617912
0.036949727980469
1.7807838939530491
-0.3551095444019943
0.03744819546091082
1.7807021775622005
-0.3551095444019943
0.03744819546091082
1.7807021775622005
-0.3551095444019943
0.03744819546091082
1.7807021775622005
-0.3551095444019943
0.03744819546091082
1.7807021775622005
-0.3548059351636731
0.038516732741033885
1.7809428691447673
-0.3548059351636731
0.038516732741033885
1.7809428691447673
-0.3548059351636731
0.038516732741033885
1.7809428691447673
-0.3548059351636731
0.038516732741033885
1.7809428691447673
-0.3552309945187748
0.03953981421973059
1.7814672332925923
-0.3552309945187748
0.03953981421973059
1.7814672332925923
-0.3552309945187748
0.03953981421973059
1.7814672332925923
-0.3552309945187748
0.03953981421973059
1.7814672332925923
-0.3612689986483792
0.03928069676948544
1.7822226908987164
-0.3612689986483792
0.03928069676948544
1.7822226908987164
-0.3612689986483792
0.03928069676948544
1.7822226908987164
-0.3612689986483792
0.03928069676948544
1.7822226908987164
-0.3602936482598261
0.03849456260145418
1.782366566516538
-0.3602936482598261
0.03849456260145418
1.782366566516538
-0.3602936482598261
0.03849456260145418
1.782366566516538
-0.3602936482598261
0.03849456260145418
1.782366566516538
-0.35889241928738846
0.038361217503709404
1.782477132593297
-0.35889241928738846
0.038361217503709404
1.782477132593297
-0.35889241928738846
0.038361217503709404
1.782477132593297
-0.35889241928738846
0.038361217503709404
1.782477132593297
-0.3564226960703335
0.03831607561209815
1.7827479220564444
-0.3564226960703335
0.03831607561209815
1.7827479220564444
-0.3564226960703335
0.03831607561209815
1.7827479220564444
-0.3564226960703335
0.03831607561209815
1.7827479220564444
-0.35824854313602056
0.038674839166181356
1.7831307725360606
-0.35824854313602056
0.038674839166181356
1.7831307725360606
-0.35824854313602056
0.038674839166181356
1.7831307725360606
-0.35824854313602056
0.038674839166181356
1.7831307725360606
-0.3599462132097289
0.03745631822975875
1.7831634105773124
-0.3599462132097289
0.03745631822975875
1.7831634105773124
-0.3599462132097289
0.03745631822975875
1.7831634105773124
-0.3599462132097289
0.03745631822975875
1.7831634105773124
-0.3603636367028701
0.03779171228473481
1.7842569080925526
-0.3603636367028701
0.03779171228473481
1.7842569080925526
-0.3603636367028701
0.03779171228473481
1.7842569080925526
-0.3603636367028701
0.03779171228473481
1.7842569080925526
-0.36010134108001274
0.03784990253979199
1.784251433713496
-0.36010134108001274
0.03784990253979199
1.784251433713496
-0.36010134108001274
0.03784990253979199
1.784251433713496
-0.36010134108001274
0.03784990253979199
1.784251433713496
-0.35810259973163183
0.03827199343741824
1.7848730956238972
-0.35810259973163183
0.03827199343741824
1.7848730956238972
-0.35810259973163183
0.03827199343741824
1.7848730956238972
-0.35810259973163183
0.03827199343741824
1.7848730956238972
-0.3551170603572353
0.0381537151965466
1.7841010609833912
-0.3551170603572353
0.0381537151965466
1.7841010609833912
-0.3551170603572353
0.0381537151965466
1.7841010609833912
-0.3551170603572353
0.0381537151965466
1.7841010609833912
-0.3563043310550661
0.038669328148952
1.7833065718892513
-0.3563043310550661
0.038669328148952
1.7833065718892513
-0.3563043310550661
0.038669328148952
1.7833065718892513
-0.3563043310550661
0.038669328148952
1.7833065718892513
-0.3577481187451061
0.03832708503010148
1.7844244932391966
-0.3577481187451061
0.03832708503010148
1.7844244932391966
-0.3577481187451061
0.03832708503010148
1.7844244932391966
-0.3577481187451061
0.03832708503010148
1.7844244932391966
-0.35720236171936287
0.037686170797238384
1.783659799780264
-0.35720236171936287
0.037686170797238384
1.783659799780264
-0.35720236171936287
0.037686170797238384
1.783659799780264
-0.35720236171936287
0.037686170797238384
1.783659799780264
-0.355265758753583
0.03757190432959101
1.7832340285849406
-0.355265758753583
0.03757190432959101
1.7832340285849406
-0.355265758753583
0.03757190432959101
1.7832340285849406
-0.355265758753583
0.03757190432959101
1.7832340285849406
-0.3573076665805222
0.03739302819563796
1.7834395053028895
-0.3573076665805222
0.03739302819563796
1.7834395053028895
-0.3573076665805222
0.03739302819563796
1.7834395053028895
-0.3573076665805222
0.03739302819563796
1.7834395053028895
-0.3593964753636598
0.036895119589738734
1.7837993146293056
-0.3593964753636598
0.036895119589738734
1.7837993146293056
-0.3593964753636598
0.036895119589738734
1.7837993146293056
-0.3593964753636598
0.036895119589738734
1.7837993146293056
-0.3582658223591957
0.0367504674391931
1.783207782707876
-0.3582658223591957
0.0367504674391931
1.783207782707876
-0.3582658223591957
0.0367504674391931
1.783207782707876
-0.3582658223591957
0.0367504674391931
1.783207782707876
-0.35744472297239666
0.03774816605452382
1.7824039160863387
-0.35744472297239666
0.03774816605452382
1.7824039160863387
-0.35744472297239666
0.03774816605452382
1.7824039160863387
-0.35744472297239666
0.03774816605452382
1.7824039160863387
-0.3625720070235071
0.037816646339301055
1.7835499220386626
-0.3625720070235071
0.037816646339301055
1.7835499220386626
-0.3625720070235071
0.037816646339301055
1.7835499220386626
-0.3625720070235071
0.037816646339301055
1.7835499220386626
-0.3649348291810976
0.037043311877330114
1.7836849648671682
-0.3649348291810976
0.037043311877330114
1.7836849648671682
-0.3649348291810976
0.037043311877330114
1.7836849648671682
-0.3649348291810976
0.037043311877330114
1.7836849648671682
-0.3635485159452678
0.036924709426221246
1.782919231844076
-0.3635485159452678
0.036924709426221246
1.782919231844076
-0.3635485159452678
0.036924709426221246
1.782919231844076
-0.3635485159452678
0.036924709426221246
1.782919231844076
-0.35955684906583874
0.03784913276859422
1.782653856823193
-0.35955684906583874
0.03784913276859422
1.782653856823193
-0.35955684906583874
0.03784913276859422
1.782653856823193
-0.35955684906583874
0.03784913276859422
1.782653856823193
-0.36107385297932465
0.038586055844021874
1.7828768768382464
-0.36107385297932465
0.038586055844021874
1.7828768768382464
-0.36107385297932465
0.038586055844021874
1.7828768768382464
-0.36107385297932465
0.038586055844021874
1.7828768768382464
-0.36397175938522797
0.037074577592894814
1.7839497777311224
-0.36397175938522797
0.037074577592894814
1.7839497777311224
-0.36397175938522797
0.037074577592894814
1.7839497777311224
-0.36397175938522797
0.037074577592894814
1.7839497777311224
-0.36168027262308494
0.03701303464202584
1.7830748547245625
-0.36168027262308494
0.03701303464202584
1.7830748547245625
-0.36168027262308494
0.03701303464202584
1.7830748547245625
-0.36168027262308494
0.03701303464202584
1.7830748547245625
-0.36080075507450077
0.03854656716218392
1.7823469926064353
-0.36080075507450077
0.03854656716218392
1.7823469926064353
-0.36080075507450077
0.03854656716218392
1.7823469926064353
-0.36080075507450077
0.03854656716218392
1.7823469926064353
-0.36144127530909337
0.03847043239057237
1.7829875128410277
-0.36144127530909337
0.03847043239057237
1.7829875128410277
-0.36144127530909337
0.03847043239057237
1.7829875128410277
-0.36144127530909337
0.03847043239057237
1.7829875128410277
-0.3631859733764486
0.038687984251309274
1.7831257623973578
-0.3631859733764486
0.038687984251309274
1.7831257623973578
-0.3631859733764486
0.038687984251309274
1.7831257623973578
-0.3631859733764486
0.038687984251309274
1.7831257623973578
-0.36219149062442185
0.03799324575010172
1.7837770937103465
-0.36219149062442185
0.03799324575010172
1.7837770937103465
-0.36219149062442185
0.03799324575010172
1.7837770937103465
-0.36219149062442185
0.03799324575010172
1.7837770937103465
-0.3620982576442623
0.0380689545204445
1.7837650607755853
-0.3620982576442623
0.0380689545204445
1.7837650607755853
-0.3620982576442623
0.0380689545204445
1.7837650607755853
-0.3620982576442623
0.0380689545204445
1.7837650607755853
-0.36210375944571604
0.03811805243506854
1.784027299879313
-0.36210375944571604
0.03811805243506854
1.784027299879313
-0.36210375944571604
0.03811805243506854
1.784027299879313
-0.36210375944571604
0.03811805243506854
1.784027299879313
-0.36215987818648576
0.038302912428191484
1.7845157264957583
-0.36215987818648576
0.038302912428191484
1.7845157264957583
-0.36215987818648576
0.038302912428191484
1.7845157264957583
-0.36215987818648576
0.038302912428191484
1.7845157264957583
-0.36367285416972767
0.03834976752035271
1.7843413366138936
-0.36367285416972767
0.03834976752035271
1.7843413366138936
-0.36367285416972767
0.03834976752035271
1.7843413366138936
-0.36367285416972767
0.03834976752035271
1.7843413366138936
-0.36367285416972767
0.03834976752035271
1.7843413366138936
-0.36367285416972767
0.03834976752035271
1.7843413366138936
-0.36367285416972767
0.03834976752035271
1.7843413366138936
-0.36367285416972767
0.03834976752035271
1.7843413366138936
-0.36304198775443103
0.038366398513983664
1.784331466553786
-0.36304198775443103
0.038366398513983664
1.784331466553786
-0.36304198775443103
0.038366398513983664
1.784331466553786
-0.36304198775443103
0.038366398513983664
1.784331466553786
-0.3629487417944791
0.03844208046054956
1.7843194236897477
-0.3629487417944791
0.03844208046054956
1.7843194236897477
-0.3629487417944791
0.03844208046054956
1.7843194236897477
-0.3629487417944791
0.03844208046054956
1.7843194236897477
-0.3639460248413713
0.03815345399741757
1.784546546718542
-0.3639460248413713
0.03815345399741757
1.784546546718542
-0.3639460248413713
0.03815345399741757
1.784546546718542
-0.3639460248413713
0.03815345399741757
1.784546546718542
-0.3667820267434441
0.03792812097355962
1.784493497103626
-0.3667820267434441
0.03792812097355962
1.784493497103626
-0.3667820267434441
0.03792812097355962
1.784493497103626
-0.3667820267434441
0.03792812097355962
1.784493497103626
-0.3666315614818737
0.03694252541378719
1.7845047083764431
-0.3666315614818737
0.03694252541378719
1.7845047083764431
-0.3666315614818737
0.03694252541378719
1.7845047083764431
-0.3666315614818737
0.03694252541378719
1.7845047083764431
-0.36562797669164226
0.03654279721682293
1.7848499270603837
-0.36562797669164226
0.03654279721682293
1.7848499270603837
-0.36562797669164226
0.03654279721682293
1.7848499270603837
-0.36562797669164226
0.03654279721682293
1.7848499270603837
-0.36307039796296425
0.037103309191073366
1.7846404043955288
-0.36307039796296425
0.037103309191073366
1.7846404043955288
-0.36307039796296425
0.037103309191073366
1.7846404043955288
-0.36307039796296425
0.037103309191073366
1.7846404043955288
-0.36407350132312033
0.03686420727002576
1.7851303998139376
-0.36407350132312033
0.03686420727002576
1.7851303998139376
-0.36407350132312033
0.03686420727002576
1.7851303998139376
-0.36407350132312033
0.03686420727002576
1.7851303998139376
-0.368948327976902
0.03600861048318121
1.785216454433094
-0.368948327976902
0.03600861048318121
1.785216454433094
-0.368948327976902
0.03600861048318121
1.785216454433094
-0.368948327976902
0.03600861048318121
1.785216454433094
-0.36911719635214707
0.03602619885038665
1.7852100233848596
-0.36911719635214707
0.03602619885038665
1.7852100233848596
-0.36911719635214707
0.03602619885038665
1.7852100233848596
-0.36911719635214707
0.03602619885038665
1.7852100233848596
-0.3673995873850524
0.03637997137176302
1.7857581024217435
-0.3673995873850524
0.03637997137176302
1.7857581024217435
-0.3673995873850524
0.03637997137176302
1.7857581024217435
-0.3673995873850524
0.03637997137176302
1.7857581024217435
-0.367271350351827
0.03583728570530927
1.785764363399299
-0.367271350351827
0.03583728570530927
1.785764363399299
-0.367271350351827
0.03583728570530927
1.785764363399299
-0.367271350351827
0.03583728570530927
1.785764363399299
-0.3664071917018737
0.03560481245189751
1.785978559867137
-0.3664071917018737
0.03560481245189751
1.785978559867137
