1
1
-1
2
1
0
2
1
0
-2
-15
-3
-5
-4
-2
-1
-2
0
18
1
0
0
3
-2
2
0
-3
1
2
1
-4
0
-2
1
14
3
-1
-2
0
0
-2
-4
-15
-6
0
2
0
-1
-1
0
4
2
-3
0
-1
0
1
1
-3
-3
0
-3
-1
-1
0
-3
-9
-5
-2
-4
0
-3
0
1
-2
6
1
0
-5
1
-1
-1
-8
-4
-2
-3
-2
0
-2
-3
4
-3
-5
0
-2
-2
-1
2
3
4
2
-1
3
-1
0
1
7
3
-3
-1
-1
-1
1
-1
-12
0
1
1
-1
-1
-2
-4
-13
-9
-2
2
4
0
0
1
7
8
4
-1
-2
0
-1
-2
-5
-5
-1
-1
-5
-2
-2
1
18
-1
-3
-2
3
-2
-2
-2
-4
-1
-2
-2
-1
-1
0
0
2
2
2
1
1
0
-2
-2
-4
-6
-2
-2
0
0
1
0
-4
-1
0
-1
-2
-2
-1
-2
1
-2
-2
0
-3
-2
0
-3
-15
-1
1
0
0
0
-1
-2
11
2
-1
-1
2
0
-2
-2
-12
0
-4
-3
-2
-2
-3
2
3
4
2
0
-2
-1
-1
1
-1
-4
-2
-1
-6
-1
0
0
-14
-2
-1
0
3
0
-3
-4
4
-3
0
-1
-2
0
0
2
18
11
2
-1
0
-1
0
-2
-42
-9
1
1
-2
-1
-1
-2
17
1
-3
-2
-5
-3
0
0
0
-4
-2
0
2
-2
0
-1
1
4
1
0
-4
-1
-2
0
29
2
-1
-3
3
1
0
-3
-27
-2
0
0
-2
1
0
-1
-6
4
2
2
-2
2
-1
-1
-8
-4
-3
-2
-1
-1
1
0
8
-3
-4
0
-1
-1
0
-3
-5
-3
0
-2
1
0
-2
1
0
1
-2
-3
5
0
0
-4
-4
0
1
3
-11
-1
-2
-1
-5
3
3
1
-1
0
-1
0
5
-4
-3
0
2
-1
2
3
-7
0
3
2
0
1
-2
-6
4
-3
-2
-3
2
-1
-3
-4
3
-4
-7
-4
-2
0
2
2
-3
4
-1
-3
-4
-2
-3
0
19
6
1
-1
1
-2
-1
-3
-28
-13
-2
0
-2
1
0
0
-1
1
1
2
1
-1
-2
-1
9
-1
0
-1
2
0
0
-2
1
-6
-5
-3
-4
-2
0
2
0
4
-1
-3
2
-1
0
-2
2
0
2
-1
-5
1
-2
3
2
0
-1
0
2
0
0
-2
-18
-2
-1
1
1
-1
-1
-1
-2
-4
-1
0
-1
-2
-4
2
11
0
-6
-5
3
-1
-1
0
-5
6
3
2
-2
0
0
-3
-2
4
0
-2
1
-1
0
1
5
-2
-1
-2
-5
-2
-1
0
-7
-1
-1
0
2
-1
-3
-3
2
-4
0
-2
-2
-1
-1
0
18
4
2
2
2
-2
0
-1
-5
-1
-1
-2
1
2
-2
-4
-41
-12
-5
-2
-4
-3
0
0
2
-3
-2
-3
-4
-2
-1
-2
5
-3
-2
-1
0
0
-1
2
16
5
0
-1
2
-1
1
0
13
9
6
3
-2
1
-2
1
-21
-9
-2
-1
1
-2
0
-4
6
-10
-7
-3
-2
-1
-1
-1
-3
4
0
-1
0
-1
0
-2
-5
-2
0
0
-2
-1
0
-2
0
0
-1
0
-1
0
1
0
-8
0
1
-1
-5
-1
0
0
-2
4
1
2
3
-1
-1
-5
-2
-6
-3
-4
0
-3
1
-3
2
-2
-1
-4
-1
-3
-1
-2
-6
-4
0
1
-2
-2
-1
1
-1
0
-3
-2
0
-1
0
4
8
1
1
0
2
2
-2
-2
10
4
1
1
0
1
0
-2
0
-1
-3
-3
-3
0
-1
0
0
-7
-3
-2
-2
-1
1
1
6
5
5
3
0
1
-2
-1
1
-1
-2
-1
-2
-1
0
-1
-4
7
2
0
2
1
-1
-1
-1
-8
-3
0
0
-2
-2
-2
0
-1
-5
-4
-4
-2
0
-2
2
3
1
0
0
-1
-2
1
-9
-2
-4
0
-2
-2
0
-3
-8
-3
0
0
0
0
1
0
-8
-4
-2
-2
1
0
1
-1
3
1
0
1
-1
0
-1
-1
-2
-3
-1
-2
-1
-1
-2
-3
-1
0
-1
-1
-1
-2
-3
-2
19
1
-1
-4
-2
-2
0
1
7
4
2
1
3
0
0
-3
-29
-5
0
0
0
1
0
-1
0
3
0
-2
-2
2
-2
-1
2
-3
-1
-2
-1
-1
-2
-1
2
0
-1
-2
3
-1
-1
0
-1
1
-1
0
-1
0
-1
2
9
1
-1
-2
-11
-3
1
0
2
2
1
2
5
0
-1
0
1
-1
-2
-1
-4
-3
-3
-1
4
-2
-1
-1
0
0
0
-2
-14
-5
-3
-3
2
0
0
-1
6
3
-3
1
-5
1
-1
0
-10
0
1
1
3
-2
0
1
5
4
1
-2
-1
-2
-2
-1
-2
-4
0
-2
-1
0
-2
-2
-2
-2
-1
0
-4
-1
0
0
3
-4
-2
-2
-1
0
1
-2
-4
-5
-1
-1
-3
1
-3
2
14
6
0
1
2
0
1
-1
-10
-2
-1
1
0
0
-1
-1
-12
-3
-1
-1
0
0
-4
1
16
-4
-2
-1
-1
-3
1
-3
0
1
1
-1
0
-1
-2
-1
-2
-1
1
0
1
1
-2
0
7
2
-1
-3
-4
1
-1
-4
-25
-6
-2
-1
-1
0
-2
1
9
4
1
0
0
0
0
1
2
-1
-5
-2
0
-2
0
-3
-10
-3
-1
-1
0
-1
2
1
4
4
2
0
2
1
0
-1
3
-2
-3
-1
-1
-1
-1
0
-17
-3
1
1
0
-1
-1
-3
-2
-6
-2
0
-2
-3
-2
-2
3
2
0
-1
-5
-2
0
-1
-1
-1
-1
0
0
-1
0
-2
-5
-1
-1
-3
1
0
1
-2
-4
-5
-3
-2
-4
-1
0
-2
-10
-1
-2
-4
0
-1
-1
-3
7
-7
-2
0
0
-1
-2
2
6
5
1
0
-1
-2
-1
0
8
-1
-1
-3
1
0
-2
-3
5
3
-2
-1
-1
0
-2
2
-12
0
6
3
1
0
-1
-1
-2
3
-3
-2
-2
-1
0
-1
-8
-1
0
2
-1
-1
0
1
3
-3
0
1
-1
-1
1
1
13
2
-2
-2
2
1
-1
-5
-17
-6
0
1
-8
0
-2
-4
-29
-9
-4
-3
0
0
1
0
5
1
-2
0
1
-2
-3
-2
17
7
-2
-1
1
-1
1
1
8
3
1
-1
-1
1
-1
-3
14
3
-1
1
-4
-1
-1
-2
-4
2
1
0
0
0
-1
-4
-4
-3
-3
-1
-2
-2
-2
1
3
2
-2
0
-1
-1
-1
1
-2
-2
-2
0
0
-3
0
0
-1
1
3
1
-1
0
0
0
-2
-2
-2
0
-2
-2
-1
-4
-2
-5
-5
0
0
0
-1
1
10
3
3
0
1
0
0
0
-2
0
-3
-1
-2
-2
-1
-1
-5
4
-4
-1
-2
0
-3
-2
-6
-8
-1
-2
2
-2
0
2
2
-4
-1
-2
-1
-3
0
0
8
0
2
0
1
0
-1
-2
-7
-3
1
0
-2
-1
-1
1
9
1
-1
-1
1
0
-1
-2
-10
0
-3
-1
-2
1
-2
-1
4
-2
0
0
-2
0
1
4
-13
1
3
1
-1
-1
-3
-6
11
-3
-1
-2
-2
-3
-1
0
-4
-3
-4
-3
-3
0
-1
-2
-5
-3
-3
-4
-2
-1
-1
0
-2
3
-1
0
2
0
-1
0
3
7
6
0
0
-1
-1
2
8
6
3
0
0
-1
1
-5
-15
-11
-7
-2
-2
-1
0
1
13
1
-7
-3
-3
-1
2
1
-33
-6
5
2
1
-2
-2
-1
4
7
2
4
2
0
0
1
-1
1
-1
0
0
-1
-2
-3
-6
-11
-1
-2
-1
-1
-1
1
4
-3
-6
-4
-3
1
-2
0
4
6
2
1
-1
-2
-1
1
7
-2
1
-1
1
-1
0
-3
-17
-3
1
0
-1
-1
-2
1
18
4
-6
-4
-1
-2
1
-4
-14
-6
-3
-5
0
0
0
-1
-12
7
2
2
-1
-1
-1
-1
-9
-9
-2
-3
-6
-3
1
0
0
-3
2
1
1
1
-5
-3
-7
-3
-2
1
-1
-1
-1
0
2
-2
-3
-1
0
0
-1
-1
-2
3
-4
-2
0
-2
-1
1
-1
2
1
4
1
-1
0
0
4
2
6
4
2
1
-5
0
19
-2
-5
-3
-3
2
0
-1
-8
6
1
0
-2
-1
-2
-4
-5
-14
-9
-6
-2
-1
0
-1
1
-6
-5
-4
-2
0
-1
0
7
-1
3
1
0
-3
2
-1
1
6
0
0
1
-2
0
0
4
4
3
2
1
1
0
1
-2
0
3
0
-2
-1
0
0
-8
0
0
-1
-2
-2
-2
-2
5
-1
-2
0
1
-1
-2
-1
-3
-3
-4
0
-3
-1
0
-1
1
-7
-4
-4
-3
-1
-1
-4
-12
-5
-3
-2
-3
-2
-2
-1
-4
12
6
2
2
0
0
-3
8
3
3
0
-1
0
-3
-1
-3
-2
-7
-2
-3
0
-2
1
-3
-7
-1
0
0
-1
-1
1
1
-7
-4
-1
1
2
-2
-3
-5
-3
1
-3
-7
-3
-1
1
4
8
-1
0
0
-1
8
5
-3
-12
1
1
0
-1
-8
-3
-8
11
9
2
1
-1
-6
-12
16
10
-1
-3
-2
-3
0
12
16
4
0
-2
-2
-1
3
-4
-25
6
-5
-1
-1
-1
1
-2
8
-11
-6
0
-1
-1
1
3
-4
-10
-2
0
0
0
-7
-2
13
-6
-4
-1
-1
0
13
3
-18
6
1
-1
2
2
6
8
-7
8
6
3
2
4
-3
-4
4
1
2
0
0
1
-1
-6
-2
-10
-4
-2
-2
-6
3
-6
8
2
-5
-2
-1
-2
-14
15
2
6
0
1
-5
2
-19
-20
-20
-17
-7
-5
-5
-10
-19
-8
1
0
-2
-1
1
-4
15
-1
-1
-2
-1
3
14
-2
-4
1
8
-1
-4
-3
-12
-5
16
-6
-9
7
-11
0
-2
9
-10
8
-9
2
19
2
-16
-3
3
30
14
-13
-11
-9
-8
-1
58
-3
-10
31
-3
3
19
27
-72
-19
36
-37
4
2
-11
-17
-11
-30
0
-14
-11
-10
-3
-18
-105
16
-26
-13
19
3
-5
-21
-57
23
-72
19
-7
8
6
-12
53
-32
1
16
-3
-10
-2
12
77
23
53
-7
-2
5
-2
25
44
-4
-26
15
20
9
-3
-8
-32
24
-22
-47
-25
-15
-9
7
3
15
29
26
2
7
30
19
-31
49
-26
-106
6
-10
-44
-37
-55
-114
53
40
-14
-15
9
4
42
27
19
6
8
4
-13
-14
11
-20
-21
36
-6
13
15
9
106
39
-7
38
13
15
30
36
-58
21
-9
-18
-2
-10
-16
9
-126
-58
2
-21
22
4
-5
-42
-71
-40
31
-21
-37
-19
-31
-60
27
0
-8
-2
-27
-1
9
12
70
-77
-10
-41
31
11
20
15
32
-43
-73
19
21
-2
0
36
14
13
29
-37
16
-2
-5
-10
-127
-1
-21
89
-5
4
0
-13
37
-22
63
8
-16
-7
-3
6
107
12
-14
-63
-18
-26
15
10
27
7
0
-9
2
-14
-23
3
-81
-32
-7
18
9
42
25
-18
62
90
32
-3
7
17
4
42
-21
-38
0
13
-7
-23
1
5
-39
-19
-56
7
1
12
-2
-31
13
-51
32
-6
-7
-5
16
24
8
17
-3
12
-4
-8
-15
-50
-26
24
49
22
-2
-8
-30
-17
99
103
4
-16
-13
-2
20
25
14
-45
-77
-35
0
-33
-29
6
-54
-61
52
25
1
28
21
13
77
82
-42
5
4
1
-14
-32
-92
23
63
-20
-15
-9
-17
6
40
57
22
59
7
0
-7
3
-35
-6
-14
-3
-2
-34
-52
-10
53
-114
27
10
-21
-2
22
12
-61
98
22
23
13
27
3
-32
-2
-54
-51
-66
7
14
34
40
-40
45
18
-4
-10
-14
-11
-45
24
72
61
38
12
-7
0
11
127
-63
-54
41
9
21
10
34
-1
12
40
-42
-23
-46
-10
-7
25
-5
-13
-7
-16
-1
-24
-13
-58
-42
-16
5
7
35
33
-9
-56
-29
42
25
2
-21
-35
-16
102
76
14
15
0
-10
20
14
99
-56
-48
72
-3
19
23
17
24
43
46
-63
-15
-11
-17
-1
40
-47
23
-28
10
2
-7
7
64
-38
-45
60
2
15
5
5
-64
-42
70
-35
6
-8
-3
-3
-106
-63
28
28
7
-9
21
-9
48
28
-73
-12
11
11
14
7
-8
35
66
26
-4
-3
-23
-10
37
-3
-59
1
0
18
35
16
-31
-14
-6
-59
-14
-7
-25
24
32
73
17
10
6
4
8
1
-70
-9
-23
10
5
9
6
-15
34
104
-40
-15
24
-2
-3
50
-102
-26
67
-9
-25
-16
-14
-80
84
16
-16
-20
-8
-4
-15
-5
-27
-14
-36
3
19
16
9
0
55
26
-43
6
-12
-7
4
11
-16
34
-21
-38
2
7
0
17
-7
28
-8
-1
-19
-20
8
22
0
-3
10
-17
-6
-8
-19
-29
-31
-30
43
9
-7
-7
2
-5
56
73
-2
29
5
9
-7
-12
24
-97
-33
-49
5
0
17
37
47
57
40
32
11
-5
-1
-12
-43
39
-22
-52
-26
1
-8
-2
41
53
-6
11
11
-7
-11
2
-62
-98
6
-8
-5
16
25
10
-54
-77
-19
5
-5
-3
17
-14
-1
-13
-15
6
-1
-2
-24
-9
-13
40
11
0
-2
3
7
-4
-25
-48
-27
15
15
1
6
33
-36
-68
6
7
-1
2
-22
-48
-7
36
33
14
1
0
27
21
53
-60
-47
-36
-13
9
-21
9
-41
-14
31
6
-17
-23
-6
-10
12
-60
-27
-36
4
6
-6
15
-3
-61
9
22
0
-9
6
-32
10
-33
-5
9
9
5
-2
31
45
39
-37
-14
6
0
17
-17
15
-6
6
-17
4
-5
-17
-5
5
63
46
17
-6
-7
1
17
-49
-32
-17
0
3
0
-7
-3
-5
-1
-73
-22
-3
3
-3
-17
40
40
8
22
2
-5
35
38
-63
55
-5
14
-6
-17
-40
-49
13
-30
36
-11
-1
28
32
27
-17
21
28
16
4
-3
-10
-38
24
-3
5
-23
-8
-1
-10
-6
17
-17
46
4
11
1
14
-5
42
1
-52
32
-1
-6
23
52
-8
30
-16
-37
1
-11
-54
-58
-105
-70
15
-66
-10
3
5
-13
15
-67
-48
-3
-1
-6
-16
15
65
49
18
-12
6
3
19
-29
-18
13
45
-12
-10
-4
13
24
-6
32
-15
0
-6
-13
-20
-21
16
40
-22
10
0
0
-11
10
18
-56
32
-1
9
21
14
5
26
20
-37
29
10
-1
1
33
-28
13
12
-16
-9
-12
-12
-19
15
29
40
10
-8
9
13
9
36
-20
-76
5
5
-2
5
-22
80
14
51
-32
-8
-8
-1
32
-91
21
24
95
8
1
-12
-13
4
-1
-48
-9
6
10
8
0
20
35
55
9
-13
-20
-9
7
-34
-25
-29
-32
16
19
-27
-8
116
68
6
48
17
14
29
40
-85
-31
-46
-78
-18
-14
-22
-27
-104
-61
26
-17
-12
-7
-10
4
-45
5
-27
11
9
-8
-2
-17
3
-23
10
6
-3
6
10
19
35
-17
-24
7
3
6
3
-17
-1
35
13
-10
9
7
5
6
-9
-50
18
9
-5
-7
24
13
38
16
-46
14
-3
-14
-37
8
-63
-75
-30
-8
11
13
6
-41
39
69
31
11
-8
-14
-24
-18
-22
-6
21
34
-13
-10
3
-28
23
9
-36
0
6
25
42
20
25
20
-4
14
-6
-2
-14
11
9
-32
20
-17
1
-2
-14
0
-71
52
27
63
-4
-4
13
10
29
28
15
-49
-14
-1
8
-38
-1
-28
35
29
9
-2
-5
22
-81
-7
-63
35
-3
-4
27
33
-27
8
-8
-36
-12
-12
-32
-35
23
-59
17
-21
-10
-1
-2
-17
-58
48
59
0
11
7
15
-16
-19
-1
-75
24
9
2
0
20
77
3
2
16
-3
-10
3
19
20
3
-12
-48
-13
-11
-19
-15
-34
-70
23
5
7
2
2
7
-41
44
-4
1
13
5
-1
-3
-19
38
9
15
-7
0
-6
-43
20
-20
-37
-6
0
5
-3
17
2
-2
23
6
5
1
8
14
45
-9
13
-2
-7
-18
-24
-30
-30
-21
48
17
11
37
40
2
-35
-31
-48
5
-2
-10
-9
-5
74
31
-37
-25
-8
5
31
8
-70
-41
35
-83
-28
-13
-29
4
9
18
42
81
14
4
-3
3
7
10
-19
10
-6
-18
4
16
33
-8
-34
-26
-10
3
0
-19
-4
-9
-12
-23
2
-18
-8
-9
97
7
-32
-43
3
17
-6
27
-99
20
31
35
-12
-2
-7
6
4
8
-7
7
-15
-18
-11
-24
14
19
30
24
12
9
-4
-11
17
12
-36
-2
-9
-12
2
-11
-62
-28
-85
-8
6
3
-4
-12
15
-16
30
-32
-24
-12
1
27
75
68
17
51
14
9
-5
-3
-26
-110
-7
-9
-1
-11
-6
-31
-9
23
49
-15
6
0
-5
-2
-23
24
12
36
1
-10
-18
29
-59
7
-19
-14
-10
5
17
-37
49
34
-22
3
-1
1
21
46
-25
-5
-37
-12
-5
1
-21
-16
-96
-23
18
-16
2
3
13
-21
73
-103
-25
-58
5
-1
-10
-19
-6
55
8
66
11
-2
-7
12
0
16
-10
25
-7
-8
7
-2
30
-58
-10
13
-9
-13
-3
27
-6
5
0
-50
-3
17
-27
-24
-44
19
31
-20
-16
-4
11
-10
56
-10
-17
-38
5
3
-16
-14
38
6
-23
52
9
-5
0
39
-61
6
18
40
-8
10
11
-18
-3
0
-35
-12
6
4
8
35
64
16
60
-27
-14
-19
-6
-15
23
-35
-4
-14
-9
10
20
4
-80
32
0
-3
14
-11
-22
-10
16
25
-5
14
12
2
9
7
-2
32
-29
23
2
5
24
27
-11
-8
-19
-12
1
5
1
25
85
85
27
-22
-5
-17
-55
-22
11
-72
-23
-16
-4
24
31
-23
-35
-2
12
-5
5
-17
-39
26
-73
70
36
-14
-6
13
14
-63
61
14
-31
-15
-3
6
45
31
-16
2
-6
29
33
4
-10
24
15
16
11
41
-9
1
-4
-28
14
3
-15
-4
6
5
-1
12
-28
-10
9
28
-15
-13
-7
16
-12
-29
24
-14
-2
-8
-9
-27
84
37
-18
-5
-4
-3
17
9
82
-4
-8
12
-2
-1
-40
1
-10
-28
-16
-35
2
6
20
1
48
-20
11
15
-13
-24
-26
10
-49
33
3
23
13
19
0
-11
28
-20
-4
-52
1
10
13
-21
54
-38
17
-19
-26
-3
6
28
-47
33
2
-17
9
-9
-28
5
50
-20
8
14
8
-7
11
16
-81
92
-19
1
-3
-8
-7
-19
17
-27
18
48
-8
-8
13
-2
-45
5
-17
-41
-3
7
-5
-33
21
-31
5
7
6
-1
-6
10
16
-13
28
6
16
-1
13
-8
37
-42
-30
4
5
3
-1
29
-11
-8
-13
34
-1
-9
38
47
-95
-20
35
-44
-11
12
-20
-70
49
43
11
36
13
16
-4
12
-1
5
-4
-16
-7
-10
-7
5
-67
-4
13
13
-1
2
-2
-10
94
-52
-7
-24
-26
-6
5
35
-26
-10
19
-23
11
-8
-5
-30
42
1
-55
26
5
5
8
-2
-28
8
26
-9
-10
-6
1
19
-21
12
10
-24
5
7
-4
-15
20
-2
-4
-15
-3
-1
-7
-21
-24
-18
37
30
10
-3
-4
-6
29
14
-27
13
-5
1
11
15
28
-81
30
16
-3
-16
7
20
-13
24
-61
-24
-5
-1
-49
-22
-81
0
56
45
4
23
39
-1
57
14
-20
-14
-13
-16
-25
-27
-37
-27
-10
-6
8
2
7
-6
-3
-9
-12
37
-4
-11
2
19
-15
4
7
4
-1
-9
-14
6
76
10
-13
-18
-4
8
-25
-16
-57
36
33
2
-4
-1
15
-1
22
-31
-8
-18
-8
-6
8
-11
-18
42
-13
16
5
7
6
4
-73
-55
3
-13
-4
5
-8
-8
-11
21
11
-12
6
0
-13
-1
5
-10
11
-1
-3
-11
13
20
17
0
-4
-1
-2
-5
-7
-3
14
32
-4
0
0
3
4
5
-1
-3
-8
10
4
9
9
13
-34
-19
16
-12
-7
0
-3
-5
18
6
-8
9
2
0
8
6
4
-6
-5
-18
-5
-7
1
-4
-18
-12
4
3
-3
0
-3
-3
25
7
-5
8
4
7
6
7
-13
-8
-6
-13
0
-2
-3
-7
-7
-17
-8
-10
-3
-1
0
-6
2
12
6
13
3
-1
-1
1
14
6
-1
1
-5
-4
1
8
-3
-21
-5
-15
-5
-7
0
-4
-10
5
2
-3
-2
3
-3
-9
5
14
-7
5
2
1
9
7
1
-8
-6
5
5
4
2
4
-13
0
18
-1
-3
-6
-7
-3
7
4
1
8
3
-4
7
1
-4
-1
2
-9
-5
-1
-10
-10
-4
0
2
3
-1
-3
26
9
-4
-2
-8
-12
-6
7
-31
-4
5
2
2
3
0
-5
-2
6
9
7
-4
4
2
2
4
4
-9
4
10
4
0
-7
-9
-6
-2
4
21
10
3
-14
11
7
-1
-12
3
-13
-7
-37
-45
-16
-19
-8
-33
6
3
11
60
0
19
-7
-14
-42
-19
69
11
-2
-6
8
5
8
-1
2
13
-9
4
6
9
7
12
14
12
1
-1
5
12
1
-2
-21
-21
3
0
13
-8
14
12
-30
-15
19
-3
-46
5
-35
-1
2
9
-32
-4
10
-11
19
-12
21
22
15
5
-9
-34
2
-15
-14
-15
6
-1
23
47
14
7
-23
-13
6
6
-4
-33
-16
5
19
-7
3
-14
-6
79
15
1
4
10
-15
8
-1
-12
-20
2
6
8
3
-2
-2
37
5
0
-3
-11
-7
2
10
19
19
2
-22
1
4
8
11
-16
-2
6
-2
-7
2
-8
-16
-82
-36
-11
-8
-32
0
1
4
71
40
4
16
22
-4
3
12
-42
-40
6
6
1
10
-20
-33
-27
-19
-28
-15
-8
-9
20
35
37
40
29
22
-21
13
-18
-10
5
7
-3
-22
-4
-24
8
-18
-78
-36
-23
-6
-1
17
3
9
39
7
15
19
1
-7
-1
18
91
17
5
-7
11
-3
5
-17
-19
-21
-7
-8
-13
1
-13
-25
-56
-28
-11
4
6
-7
-3
13
6
38
4
-21
-42
-2
-6
10
51
8
-2
15
42
10
-1
-28
-31
1
2
36
35
9
12
27
70
18
14
-1
-6
-14
3
-20
-32
-36
-13
-18
-13
9
-12
2
7
-6
-6
9
12
-26
5
1
-64
-8
1
-3
-14
5
-4
4
56
29
2
-4
12
6
6
2
-1
-3
10
14
13
-1
-5
-14
-66
-13
-3
-7
-10
-1
0
3
-9
-14
-6
-20
-9
-3
-4
-5
-16
6
0
7
-3
2
-8
-5
-13
1
-6
1
9
0
2
-6
-11
-10
-9
-15
-19
1
2
13
22
15
13
10
7
0
-1
-3
44
26
5
3
-3
1
0
1
-18
-22
-1
1
3
0
-6
-9
-21
4
-6
-6
2
-3
4
-1
-30
-7
-6
-17
-8
-2
4
19
57
30
6
3
-14
5
-9
-9
-6
-12
-3
7
10
-4
7
26
72
28
7
1
-15
-11
-9
-14
3
-14
-10
-14
-4
-3
-3
-5
-7
-4
-2
0
1
-1
4
3
-14
0
0
5
13
1
1
6
-5
-1
4
0
-5
2
-5
-1
-14
-8
-3
-1
5
0
0
-5
20
16
-2
-7
4
-1
1
0
-25
-7
3
15
11
1
-7
-20
8
1
-3
-6
-8
-3
8
4
2
-1
0
6
8
3
-12
-8
-9
-13
-9
-8
-7
-5
4
7
-23
1
-1
-5
1
-2
1
-3
-8
2
12
9
-2
3
-3
-8
-1
-3
-9
-9
-5
-3
-1
9
-4
6
0
3
1
-1
-4
-7
-10
-12
-2
-2
-13
-3
-1
-11
-1
-14
-9
-5
1
-2
4
6
12
21
3
-4
-3
0
-6
-2
-59
-25
-7
-1
-5
-2
-3
-15
-7
-5
-7
-10
2
-2
4
-1
10
5
0
-3
0
4
-2
9
-3
-2
2
4
7
0
-8
-20
-19
-15
-8
-7
-7
-3
4
7
18
15
6
6
4
0
-3
0
1
-7
-4
-7
-3
3
-4
-7
-13
-12
-1
5
-7
5
-1
9
12
9
2
1
9
-13
1
-2
-20
-3
0
-6
7
0
0
-4
-4
-1
2
16
-9
-2
-2
1
-16
-2
-1
-6
-5
-1
5
-1
-5
-3
-2
-3
-2
11
-8
0
22
5
0
-3
2
-11
-1
1
-10
-6
-1
-6
4
1
4
7
12
11
2
2
-3
-1
-3
-8
3
0
-6
0
-6
0
2
2
-9
-1
5
1
-2
2
-1
5
3
7
-1
-2
-1
0
-4
-14
-67
-12
-2
-5
-6
-4
5
10
64
10
-2
-1
4
-1
-1
0
-11
-16
-5
-3
-12
-2
0
-2
18
-2
-3
-1
2
-2
-2
-5
-31
-11
-4
1
1
-2
2
-4
-14
5
4
-1
2
1
0
4
26
6
1
-7
6
-2
-3
0
-24
-7
-3
3
-8
0
3
3
24
-3
-1
-5
0
0
2
-4
-21
-5
0
-14
-9
0
-4
10
32
13
5
23
10
-1
-3
-9
5
-15
-7
-8
3
-3
-3
-3
1
5
-3
-2
-6
-4
-2
4
-6
-1
1
0
2
0
3
-4
4
0
-4
-11
-8
2
1
-1
-9
1
2
0
0
0
-3
-2
-14
2
1
3
-5
-2
-4
-6
8
-9
-5
2
2
0
-1
0
-16
12
-5
-6
-5
-2
-3
-5
9
1
-1
5
0
1
1
7
-30
-13
-2
-3
0
1
5
3
10
3
3
4
1
-2
-2
-7
-13
-1
-4
-3
-4
-1
4
7
-14
3
-1
0
3
0
-8
-13
18
-7
-6
-8
-3
-3
-2
1
-25
5
1
4
2
0
2
0
4
-2
4
2
-3
1
0
3
4
2
-2
-3
2
-2
2
5
30
6
1
0
0
-1
-2
0
4
0
-4
-1
-13
-2
0
-4
-23
-8
-2
-3
9
1
-1
-1
-1
2
3
-4
10
-1
-1
2
4
-1
2
7
-8
-3
-4
-6
0
-1
0
2
3
-2
-1
4
15
4
-1
-3
-8
-2
-4
-7
-10
-7
-5
-5
-2
-1
1
-2
2
-2
-1
-1
3
1
-1
1
-6
8
3
0
-1
-2
3
5
5
-18
-5
-2
-3
-2
0
-6
-49
-2
-3
-2
3
1
-5
-5
20
10
-4
-2
-7
0
-1
-2
-25
-3
2
1
-1
0
0
-2
12
4
0
-3
1
0
4
6
0
1
4
1
-3
1
-2
-5
-14
-15
-7
-6
1
-1
-2
2
19
2
-1
1
-3
-3
0
0
-4
3
0
0
-5
-1
-1
4
17
2
2
0
5
2
-1
-2
0
0
1
2
0
-1
2
1
-10
-8
-5
-1
1
-1
0
-4
5
-1
-5
-4
-5
-1
-2
-4
13
-6
-6
0
-8
-3
-2
-2
-9
19
8
1
5
0
1
2
3
4
3
-1
2
1
2
1
-9
0
1
0
0
0
-5
1
5
0
-5
-3
-3
-3
-1
2
4
-16
-1
1
1
-2
-1
-5
12
0
1
1
0
0
4
-3
-39
3
-4
-2
-2
0
-2
0
16
-10
3
1
-1
0
-7
1
3
2
-6
-3
-3
1
-10
-8
-30
0
2
-2
-1
-1
-3
-1
29
3
-4
-3
-1
-1
4
-5
-20
-25
-2
0
-2
-1
5
3
4
7
-1
0
1
0
6
6
5
2
-2
-1
5
1
2
2
-5
-1
-2
-2
-6
-1
-14
-6
8
1
-2
-1
-2
-4
-3
1
10
-2
7
2
-1
-6
0
0
-1
-3
-5
0
1
1
10
1
3
-3
1
-2
2
2
-6
0
3
9
-6
-3
-2
-1
-11
-8
0
3
0
-2
-3
0
-1
-7
-5
-5
0
0
0
-3
10
4
5
2
1
2
0
-2
9
1
-5
2
-3
-3
-2
-2
8
8
-1
-6
-4
-1
3
3
3
8
1
-2
-1
-1
-2
-1
-20
-14
6
3
3
2
5
4
-5
-5
-19
8
6
1
2
0
1
1
9
-8
-3
0
-7
-3
0
-5
10
-1
-4
-6
-2
-1
1
-2
-18
-1
-5
-5
-4
0
-13
3
8
-1
0
1
-2
-1
-3
4
11
3
0
2
4
0
34
-3
-11
-5
3
2
-1
1
-50
-4
5
-12
-4
-1
5
-5
5
5
4
4
-1
-1
-2
-3
-6
3
-11
-2
-2
-2
-6
1
10
0
8
2
0
-2
1
1
32
5
11
-3
0
0
4
2
-1
-9
-31
-12
-1
0
-6
-1
-21
7
1
4
1
3
7
0
19
-1
-2
9
6
5
-3
0
-32
-6
1
5
2
0
2
4
-29
11
13
3
-3
-3
-8
-2
59
3
0
-13
-11
-6
-8
-4
-53
4
-19
-15
1
0
0
-1
-74
0
10
0
5
2
-4
-22
44
-30
25
-7
-2
-5
1
-9
54
12
16
-1
-3
-5
-8
-7
-22
0
-35
-7
-8
-9
-1
16
33
-15
-57
-8
-5
0
-19
-20
-67
24
73
39
18
8
11
1
-46
-57
-54
-43
-6
0
-4
0
20
38
28
11
2
0
-3
-21
-54
-40
7
-11
-1
0
11
28
49
33
-5
-39
9
-4
1
19
-58
9
64
65
-1
1
-4
-16
-96
-53
-34
-13
-5
-7
-16
-28
115
47
28
-4
-17
-4
15
27
72
33
-20
7
-2
12
25
7
-89
-43
-37
-13
10
0
3
5
14
-55
9
-13
3
-7
2
-8
-26
5
17
30
28
6
-35
-23
74
32
5
25
-8
-4
3
3
22
15
-1
-21
-16
-4
-1
9
5
12
-51
-22
-14
-4
8
5
-7
-4
19
8
3
-6
0
-12
-10
-5
45
28
3
2
-9
0
-68
-57
-78
-6
28
8
1
-10
82
56
44
38
-14
0
11
22
63
54
13
-16
-4
-11
-15
14
23
22
14
17
4
-3
-7
-16
-18
-24
10
-45
-20
5
13
-39
87
-52
-63
-17
-13
-1
-13
44
-82
2
-33
41
16
5
16
-20
-29
55
42
-9
-23
-22
-30
-23
-73
8
30
8
-4
-22
-16
4
18
-9
-21
-41
-3
-7
17
-42
91
17
-19
42
-11
13
-24
22
-12
-35
-59
-29
9
4
13
31
127
18
51
-17
-11
14
27
2
-60
-2
31
18
36
5
-12
2
-47
-15
-41
-27
-15
-9
1
-24
11
-35
19
17
-10
1
1
-21
64
27
-97
25
9
-6
1
28
60
8
67
13
-15
-18
-3
-7
59
33
33
-46
5
9
-21
21
-62
-76
-41
20
19
6
-10
-21
-39
21
61
2
0
-9
-1
-10
83
29
-29
52
2
13
41
35
-69
27
-4
-13
-3
19
4
-26
-74
3
-62
-36
-10
-2
11
-11
104
5
57
-40
-7
-22
-25
10
-128
21
-29
18
-1
-8
-2
-30
127
-12
22
21
3
-8
11
28
-112
-12
-4
10
5
4
-11
-3
-93
-17
-30
-4
-6
-4
-2
-30
9
-32
39
-13
2
4
-7
22
26
54
26
-6
-2
-4
4
3
23
-9
17
16
-6
0
5
5
10
-21
-15
53
25
8
-6
38
-71
-6
68
-26
-22
-4
-14
-17
-23
-1
-11
29
14
-1
7
-27
40
21
-18
5
1
-6
4
7
-7
-10
10
34
2
-1
11
40
95
98
7
-75
-10
12
-13
22
-128
-81
26
-44
-8
2
14
-38
97
-1
4
29
2
-17
-2
-16
84
33
3
-2
-14
4
-25
11
-75
-3
0
13
-5
-5
-9
-21
29
-10
-30
-58
-24
-16
-4
9
98
5
-14
-28
1
1
8
29
-57
2
-6
22
-8
-2
-10
-15
-44
8
-22
9
11
3
4
-8
90
18
52
-35
-7
4
2
29
-128
-17
-46
-60
-11
-2
1
-40
100
30
5
15
1
7
18
26
-47
23
-19
14
2
-7
-25
-38
90
-14
-7
1
12
-7
11
5
-32
37
21
16
0
5
-11
6
-72
-7
11
-32
-5
-1
2
-9
-31
-14
-7
41
23
17
16
8
-15
11
13
4
-27
-13
0
-4
-50
-21
16
57
17
5
10
3
77
68
35
25
10
7
-30
28
-9
-53
-14
-32
-40
-20
-2
-44
12
-14
11
41
11
12
11
11
48
-25
-34
6
-13
-3
-7
5
-24
31
-8
-63
9
-2
14
-10
-2
-48
-22
36
9
5
-1
31
-78
-25
-27
9
2
-3
-12
-10
-74
14
32
-4
-9
-2
15
12
107
14
-10
10
5
-2
-5
-14
-5
8
11
-15
13
-5
-24
-3
-83
-23
-4
13
8
19
21
1
-4
-21
-16
-38
-17
0
-4
23
-46
-63
-19
7
-13
-5
19
-21
16
8
-43
-2
1
-5
-10
4
53
71
20
33
11
-2
2
3
3
-24
-5
18
-10
8
-6
21
-67
-12
-31
-25
4
-3
-5
-31
72
36
35
59
5
-3
21
35
-44
-81
-26
-57
-16
-4
-13
0
8
37
-2
11
10
5
4
-11
-56
2
-23
-12
-6
1
-17
-8
11
-34
7
0
0
-4
16
12
-49
-1
-19
6
-2
7
-3
-9
67
-7
24
-18
10
-10
-13
-16
-54
-75
-33
17
2
-2
8
11
56
-14
24
24
-17
10
3
6
-29
58
-24
-29
22
-4
-5
-11
-29
-55
-11
1
-6
-7
-10
-6
46
91
4
67
11
6
15
14
0
11
-6
-41
-18
-13
-24
-14
34
-54
27
6
0
-5
0
-21
17
8
-53
5
10
6
8
7
-18
-13
46
7
12
7
-3
-20
-43
19
-30
-35
4
4
3
-4
4
0
2
-26
-13
-8
-3
12
32
16
13
6
5
-2
-7
0
44
-12
25
22
-6
0
7
-1
8
1
-11
-31
4
6
12
20
-21
-1
-17
-3
9
-12
-18
-12
-6
27
9
-28
-10
-2
13
-2
-6
11
-2
-59
-8
-5
-24
1
-37
-47
20
44
8
18
32
-10
5
23
-17
-41
-21
-3
16
9
47
18
9
-1
3
6
-25
-12
-16
-16
8
7
2
0
9
12
-16
5
-12
-1
10
-6
-16
0
1
48
8
37
-12
-6
3
-6
-5
-9
8
-18
-4
-4
0
-4
-3
2
21
-7
2
-2
0
-21
0
21
-59
28
12
8
-2
-4
23
-46
8
21
11
0
-9
11
-26
-7
34
7
-3
-4
9
8
63
23
4
-3
-22
-3
-6
1
-36
9
19
-4
26
8
20
4
11
-3
25
18
-16
-8
-13
-12
13
-55
-42
-37
19
13
-10
-13
4
-14
5
23
-7
-5
9
10
81
17
36
-45
-7
-4
-2
7
10
15
-48
5
1
1
-5
7
36
31
10
-2
-13
-15
8
-7
-8
34
-27
-13
-10
-4
-12
1
8
-8
14
52
4
11
-7
-7
-7
1
33
-17
8
-2
-14
16
-36
-30
10
8
-19
-4
6
-27
41
21
-4
-80
3
0
6
5
91
22
44
38
-8
-11
4
19
-42
-69
-28
-5
8
14
0
2
-3
-6
8
10
-8
5
3
7
-60
-20
3
27
1
0
1
-19
25
-8
-4
-43
1
1
5
20
18
44
17
-13
1
3
10
-20
-77
-53
-5
-1
-5
-17
-26
-27
83
44
-27
6
-1
4
-14
21
27
-32
28
-14
-9
4
2
-2
-87
19
-32
-2
2
-14
-5
-9
68
15
-5
-8
-1
-4
-1
-17
-1
-9
11
58
15
13
7
2
-35
14
-25
-10
-13
-6
-22
-29
62
21
17
37
13
4
10
12
-22
-6
14
16
6
-5
7
25
7
3
-4
14
10
8
8
7
-101
-16
-19
28
5
-2
-2
-23
10
-63
-2
-10
-16
-3
-2
-7
22
29
-24
-30
11
6
16
30
-10
-35
2
-9
-10
-13
-4
-8
-1
32
13
17
5
4
4
4
6
2
-17
-13
-6
-1
-2
-22
34
20
-5
12
7
5
4
19
-53
-10
12
-21
-11
-5
-3
-10
-19
5
1
1
-7
-5
-3
-14
-22
-41
-23
-3
1
-10
-17
13
-6
5
14
-38
-14
0
2
9
-23
-72
-55
1
-1
-4
-6
-2
-31
33
4
-9
-8
-21
-12
-20
63
18
11
45
23
50
33
23
-23
23
0
7
5
10
1
-2
-60
-22
-15
-2
-19
-12
7
18
9
2
-7
-91
9
-5
-26
-44
112
-45
-6
26
-15
-8
23
62
-64
19
16
-14
-7
-7
-19
-28
-30
33
0
2
-8
-2
8
-18
-48
-65
-36
14
16
5
9
12
33
-12
28
20
-17
-20
-15
-41
26
-18
0
20
9
5
-6
3
-16
47
8
18
4
-5
3
-1
-75
6
18
-37
-20
8
-3
9
-10
-10
-19
30
10
-10
-4
27
-35
-2
-1
23
10
11
16
16
115
10
44
-21
2
4
0
-19
-11
-4
-6
12
-3
0
-23
-8
8
-1
9
-20
-3
9
10
20
-64
-34
-56
-15
-17
-9
-3
-21
48
-68
-6
18
19
2
1
30
72
35
15
24
2
2
12
12
-45
23
1
-26
-4
3
5
-9
51
80
6
9
-8
-16
-8
-4
-22
-37
-8
-15
7
12
2
20
-73
-58
-5
-13
-12
-15
-28
-60
-22
1
8
40
12
-1
-3
-21
-54
-29
3
10
-8
-1
2
3
-63
-3
-1
4
-5
-5
-10
-6
-15
9
-4
-25
-1
5
27
20
-68
16
16
3
1
-4
1
-17
127
39
-46
21
-3
2
12
7
54
45
10
-22
-7
6
6
13
-19
-34
-17
10
0
1
-2
4
13
35
-6
-45
4
-10
-5
-4
-21
-83
5
-20
1
-4
-23
-8
26
-10
-21
23
-18
-10
22
6
28
38
3
-41
22
23
-1
17
-103
15
15
-2
5
-5
-6
-18
-2
27
-9
-15
-4
0
-6
-8
-16
-21
-14
23
0
-3
14
16
63
-5
5
5
-12
-4
-18
-12
-21
-25
-6
-17
-5
-12
1
-21
14
48
67
31
4
24
-7
7
-22
30
-28
-70
0
4
10
-12
-17
24
-10
58
23
2
16
52
4
7
22
42
-12
0
5
-35
-63
-48
15
-5
-1
-9
-17
-7
-28
-8
18
-17
-6
-6
-28
-43
38
-16
-22
10
-1
0
17
33
-67
35
9
-20
-4
-2
-12
-33
-3
-5
-31
-7
15
7
22
11
92
59
38
41
2
-3
-15
26
-64
-68
-19
-63
5
3
1
-38
80
-72
12
-35
-12
-11
-5
31
7
16
-40
-20
2
2
4
-42
-35
8
-9
-12
3
6
-5
-25
45
-8
-14
44
-11
-8
16
17
-7
33
5
-21
1
8
-16
41
45
35
28
15
10
-8
-6
-10
3
12
20
-16
-7
-4
-3
14
-21
4
-23
15
-19
-5
-1
-3
44
33
-21
6
17
-1
-7
-16
37
-4
2
6
-13
4
17
27
-81
27
-4
10
14
-3
-12
10
103
38
43
24
-18
4
6
3
-24
-3
-22
-30
-2
-2
4
-8
-2
-9
3
4
-4
-9
-8
25
-93
0
-6
7
-5
-1
18
-45
34
15
21
-47
-28
-13
-31
4
-40
10
-20
56
48
24
17
19
-13
-5
0
22
11
1
3
6
-6
16
-9
-12
-12
0
5
-21
20
24
21
14
-5
-7
-1
3
-46
-110
-44
-26
-21
-13
-17
-18
-3
4
11
-9
0
7
7
10
-1
-22
-9
3
3
-3
-5
-1
-7
-16
6
5
8
3
12
-1
31
27
-29
-5
-8
1
-10
-3
14
-20
8
-11
-2
-8
-3
-2
-2
-45
9
-20
-6
-8
-1
-3
-27
-12
-21
-8
7
11
-1
-11
17
18
14
8
-10
-7
3
19
25
13
-8
-3
-7
-3
-2
1
-15
6
10
-1
3
4
-5
-5
-17
-21
-3
13
9
-6
3
0
7
17
5
4
-8
2
3
1
6
-9
3
-13
-6
-1
-1
-5
11
-13
-7
-17
3
1
-1
3
-17
1
6
0
0
-6
-4
-2
28
-11
0
1
-8
-6
0
4
-7
-14
-4
-19
-5
-1
-9
-7
7
-5
7
3
3
2
3
8
-19
-21
-8
7
-1
-8
-9
-5
1
-27
-4
-3
-8
5
7
-5
-6
-9
2
-8
3
-2
1
6
-1
5
-1
9
4
2
-5
-1
-5
35
-3
0
1
-13
-4
-3
12
19
8
1
-1
8
1
-1
-12
11
-12
-16
-5
1
-5
-2
12
3
-1
-5
-4
3
7
1
-6
2
-3
-3
2
3
2
2
4
6
0
2
-3
-12
-1
-6
-8
-3
-1
3
-1
-4
-10
0
4
-3
1
0
2
4
6
1
-9
-1
6
0
-1
-9
-5
-1
-2
-2
5
-3
-2
-6
-1
1
11
3
-3
-2
-2
7
10
0
1
-15
-7
-7
-6
2
-12
-3
-8
-4
-9
4
0
4
4
0
-1
1
8
3
-3
-4
-8
0
0
2
17
0
2
-4
4
0
2
-11
19
2
1
-2
-3
-3
-4
-3
-25
-7
-4
-8
-4
-2
3
1
16
-3
2
17
19
3
-9
0
3
2
-3
-8
-5
-3
0
1
-2
7
2
-4
0
1
-6
3
-10
-1
1
5
-6
-4
4
-16
-55
-27
-7
-13
-11
-1
5
13
60
13
5
20
27
8
1
-3
-33
1
7
-8
-16
-1
-12
-20
15
-7
-14
-8
-26
-25
-9
-8
-66
5
-6
-2
15
15
5
4
26
15
-2
-6
-10
9
-3
11
4
0
3
24
20
3
6
18
35
15
12
3
9
-6
-1
-10
-16
-12
1
1
-23
-12
-23
-21
-15
-25
-20
-27
-4
-7
16
-3
2
9
4
4
1
4
0
-7
-29
-13
-1
4
0
7
-1
15
64
27
2
-2
-2
-2
2
4
-14
2
7
-15
-10
-3
-4
-14
-57
-33
-14
-7
-18
-6
0
-3
2
-5
6
12
24
4
-1
0
23
-8
-7
10
10
-3
-7
-9
-55
20
-1
3
-16
-1
1
6
36
15
3
-3
7
3
4
3
21
9
3
-7
-2
3
5
18
66
24
12
-2
-5
-2
-4
-25
-86
-76
-11
5
1
-6
-6
-9
-18
11
-13
-16
-5
-3
-3
12
49
19
5
3
2
0
-1
1
66
8
-1
-15
-4
1
-4
-8
-30
-6
10
30
-5
-3
2
8
-35
-12
-6
-9
8
-6
-6
-22
59
7
-10
-13
-14
1
4
0
-59
-5
0
16
5
10
-1
9
63
-7
8
-5
3
-14
2
-2
-4
-2
1
-3
-5
3
-2
-2
-26
17
-5
-1
4
0
3
10
33
9
6
-11
-12
-2
-1
-3
-33
-24
-8
-5
8
9
-6
-13
-14
-3
-5
4
-4
-13
1
3
-11
-2
-1
4
10
-2
-1
4
30
12
3
-1
1
0
-2
-11
-20
-18
-7
-8
11
0
-1
-2
39
4
-2
0
-23
3
-3
-3
16
-8
-6
-4
7
2
-2
-8
-81
-20
-5
2
-13
-8
2
7
-31
13
3
3
-1
4
-2
-6
7
-12
1
-5
6
-5
2
9
17
28
2
4
-5
-2
-1
4
29
-1
-2
3
4
1
-2
8
40
16
2
-5
-2
-3
5
2
-26
-8
1
-7
-4
0
-1
-2
-7
-14
-5
-11
-24
-2
-8
-16
-49
-15
-2
28
28
0
2
0
-7
9
-1
-3
-4
-1
-2
-7
12
-1
-1
4
5
-2
16
6
-9
-9
7
-2
7
10
-19
-6
-31
-1
-8
-18
-15
-15
-2
3
20
11
-3
2
-11
-2
1
4
16
4
7
2
13
3
-3
-1
-58
-9
1
0
-17
-4
2
-7
8
-5
-2
2
3
4
3
7
34
8
-3
0
2
-3
2
8
-4
9
2
-4
-2
2
-3
-8
-13
-21
-8
2
13
-3
3
0
4
-3
-3
-2
-8
-3
-4
-5
-13
11
2
-1
-5
-1
0
-1
24
-1
4
4
0
0
-2
2
2
2
2
4
5
-2
0
-2
-5
0
1
-14
-3
-1
-1
0
11
-7
-6
1
-9
-3
1
3
1
12
1
-1
2
2
-1
-1
-39
-23
0
11
10
0
-2
-13
-31
-7
-6
-16
-14
-3
3
8
66
28
5
9
30
3
-2
4
0
-19
-7
-5
-33
-5
-8
-4
0
2
-4
-3
-8
-1
9
2
38
3
2
1
2
1
2
-1
-8
-7
-5
-5
-12
4
-5
-7
2
-3
-2
-1
6
-4
-5
-2
24
15
0
-2
4
-3
-3
1
-12
-6
4
3
-2
3
-3
0
13
6
-1
-3
3
-1
3
0
-18
-6
1
2
3
3
3
2
-8
-11
-6
-2
-8
-4
-1
0
3
2
1
2
8
-1
-1
1
-4
3
3
-2
-6
-1
-1
-6
-4
-5
-3
-1
-1
2
0
-1
-2
-1
-2
-7
2
-2
0
1
5
1
-6
1
-6
-2
-2
-7
-4
-2
-2
1
7
-1
1
5
9
0
-2
-11
6
0
-1
-1
1
1
6
12
-41
-4
-2
5
12
-1
-3
-2
-2
-2
-2
-9
3
-14
-2
-4
-6
-1
-2
0
39
7
-7
3
10
0
6
6
19
11
2
-8
6
-1
-1
2
-34
-3
-1
2
-2
2
-9
-25
-68
-6
-1
1
-5
-3
2
5
14
7
3
2
0
2
0
0
2
-7
1
2
10
0
3
7
18
0
2
0
0
-1
-1
0
-2
-3
-8
-6
0
-2
0
-1
-24
-4
0
3
-1
-1
-6
-13
-28
-13
-1
-1
1
-3
6
-6
-13
0
0
3
7
-1
-2
5
8
-1
-4
-12
-6
1
1
4
8
6
2
9
-10
-1
-6
-3
13
-2
-7
-7
-14
-2
-4
-5
0
-5
-2
1
18
0
2
5
17
6
6
8
-7
-1
-2
2
-11
-5
-3
-4
-2
-1
0
-2
-31
-8
-4
-4
7
1
-3
-7
-8
1
-2
-3
-6
-1
1
2
-12
-7
0
-3
-3
-3
-1
-1
0
3
4
3
8
0
0
-1
3
5
-1
0
3
0
-4
-2
11
-9
-12
-8
-7
-1
2
3
-3
-5
7
4
6
0
-1
-6
-4
9
3
-2
-5
-2
-1
-4
15
3
-5
1
7
-2
0
6
-3
7
4
3
-2
1
1
6
-1
-9
-9
-4
-1
-1
-4
-14
2
-10
-5
-5
-2
-2
3
5
16
6
4
4
6
0
-4
-6
-41
-10
-1
0
0
0
-2
1
-6
-9
-6
-3
-4
-2
0
1
-5
1
-7
-5
-1
-2
1
-3
-4
6
6
4
6
0
3
2
7
3
3
0
-2
1
-9
-3
1
3
-1
-2
0
0
-3
0
1
-3
0
0
0
1
-1
-3
-11
-6
-6
-3
-1
-1
2
-1
13
-1
-1
-2
-3
0
2
-1
4
4
-1
-3
-4
-1
5
2
0
-12
0
1
5
1
0
3
-10
12
2
0
-1
1
-9
-6
1
4
7
1
-4
-1
-6
1
8
2
-2
0
1
0
-5
-6
-7
-8
-4
-2
-3
-3
3
-1
-8
-11
0
0
1
-1
10
0
8
5
-3
0
0
-3
-4
-1
8
-5
-6
-2
-2
-1
6
3
-13
-2
4
-1
-1
-1
-10
4
4
2
-1
-1
-1
-2
-6
1
18
6
-2
-1
-2
-1
6
-5
2
4
4
-1
-1
0
-11
-3
-6
-5
-6
0
-1
-2
0
2
-7
7
6
2
2
3
-1
-1
-8
-8
-1
0
-1
1
14
0
22
7
3
0
0
-1
-4
0
4
7
-4
0
-2
-1
-9
-4
-8
-5
-2
-1
0
-1
4
2
-1
-9
-4
-3
-1
1
11
-1
0
1
2
1
-2
-1
1
-13
0
7
-3
-3
-2
-7
8
3
-8
-15
-6
-1
2
1
-26
0
-3
2
-1
-3
-3
-1
10
-3
-7
-13
-4
-1
-2
-2
5
0
-1
9
2
-2
0
2
2
-1
-2
7
2
3
3
0
-6
-2
-2
1
2
4
7
1
-19
1
-1
-4
-4
-6
-10
-2
-3
-2
-5
-5
-1
-2
-2
-2
1
-3
-1
-3
-2
-3
-2
0
1
2
1
4
3
2
0
0
10
17
-6
13
5
6
6
6
-3
-3
6
-10
-2
2
1
3
-14
-18
-11
-4
0
-6
-6
-6
22
7
8
3
-4
-5
-8
-1
-37
1
3
8
-1
3
5
-5
-13
-20
8
-16
3
-6
-3
-5
-24
4
-22
-11
-4
-2
-4
-3
11
1
11
5
-2
-7
-2
-4
10
3
-23
1
4
3
3
7
34
2
-32
4
-1
4
3
2
-31
-15
0
-5
-8
-6
-6
1
-6
3
0
-10
-11
-1
1
-7
-26
8
13
-10
15
2
-6
-5
-91
-4
-3
25
10
0
-8
-17
29
28
-10
-13
3
1
5
14
29
0
35
-4
-6
0
7
0
-7
-4
-13
-12
-13
-2
3
-5
-13
37
14
17
12
-9
-16
2
2
-69
-40
-28
-5
-6
-3
-17
9
31
21
19
-13
-6
-5
1
2
-9
4
16
47
28
26
31
76
89
-43
-64
-42
-11
-11
-4
-89
-19
37
-3
20
-1
-8
-19
43
17
-48
-4
-13
-5
0
-7
18
-70
9
-17
-10
-10
-10
-23
-67
-5
1
27
-4
4
3
16
73
17
-8
4
-18
1
5
9
43
-34
3
5
24
-3
-18
4
-49
41
18
3
-20
-31
-26
-23
-32
-20
2
26
9
29
27
8
122
32
50
13
-7
8
14
27
-117
-112
-16
-23
-16
-7
-8
-26
20
-18
-46
-61
4
8
7
30
-77
31
49
60
17
-7
-4
-26
65
-29
-12
0
-6
5
-5
6
-26
52
0
5
1
-9
-15
-17
56
9
47
-6
-4
-5
12
7
48
7
-25
-7
8
-6
-1
-1
-17
-24
-25
59
12
4
13
33
-81
-63
86
-97
-11
3
-22
-39
49
-58
-107
0
-24
6
14
-3
-23
-36
6
-7
-1
-7
-6
-18
57
123
52
55
4
2
-2
5
-29
-7
-48
-30
-6
-13
9
27
-68
7
19
22
10
17
9
7
-9
5
40
-43
-2
-6
-27
-29
38
-98
-7
-14
-13
-17
-5
6
9
60
53
29
5
21
2
-2
-62
32
-53
29
9
-1
-4
-13
116
-32
-12
-57
-8
-14
12
55
-96
61
-33
-7
-3
-24
-24
-28
103
-27
11
-3
-2
41
35
10
53
-50
7
60
18
0
-21
-23
99
89
18
-4
-15
-2
15
3
-6
34
4
-10
1
-22
-30
-10
24
31
-45
9
-12
-1
32
18
7
34
-11
7
18
5
-14
-13
40
8
2
88
-2
6
19
79
-91
6
22
-106
-17
-22
-39
-70
6
11
-9
55
-2
-3
10
-25
78
60
30
-11
-20
-3
5
39
-128
-82
-3
-22
-4
11
-5
-26
21
-9
-3
59
28
1
24
11
-55
7
-29
-3
5
-5
-28
0
-19
-39
28
10
-20
-37
-29
-17
53
-65
-17
-62
21
9
19
23
-47
74
23
19
0
21
30
-21
-25
-15
-19
0
21
7
-12
7
-100
-47
16
6
22
-2
-7
2
40
-45
1
27
-9
8
38
20
53
-99
0
-33
-8
11
-19
24
87
-38
-6
4
29
-25
-7
25
-69
65
-10
-40
-17
26
27
-21
-6
8
12
0
-21
-16
-7
-14
-78
-87
-5
32
7
19
12
-21
18
22
14
14
-9
-1
-10
9
-58
-33
-2
-71
-18
-10
-14
-2
-50
46
-41
109
4
-1
-12
-28
-9
-28
-1
-47
-13
-4
5
20
4
127
11
35
9
2
9
28
4
-89
3
-33
-15
-12
-17
-34
-72
-5
64
-12
-9
0
-8
-28
-20
72
-9
71
5
-4
-1
23
29
-20
-70
-21
-3
-14
-3
21
28
6
48
2
-6
-10
16
-25
75
-26
23
-21
11
36
27
20
-69
-69
-46
-2
13
-24
-29
-10
76
96
25
8
10
38
25
-8
17
10
26
-39
11
-4
-11
20
-10
-16
-30
24
-5
-7
-9
-10
27
33
-6
-64
-7
2
9
0
30
-66
-4
26
27
4
-7
27
-52
64
1
-11
-27
-13
-1
7
-78
22
-7
34
1
-17
-19
-40
61
-13
-16
-29
-23
16
11
27
-69
-40
32
-21
15
-3
-1
-22
32
-55
-54
-2
25
14
11
26
-40
-2
5
9
4
-35
-20
-28
-6
4
-24
56
2
41
6
53
-99
-40
11
-30
-22
-18
-6
-39
64
102
31
35
-15
-11
-17
-4
-18
49
-4
-55
9
-8
-1
-4
3
-37
24
19
14
4
14
4
13
9
-24
37
-11
1
21
14
-79
26
24
-55
-21
7
-16
-21
-89
33
-55
-26
42
26
6
22
69
80
59
32
-3
-3
12
-14
17
-122
-47
-4
-29
-20
-19
4
-9
-32
22
-45
-27
-17
3
-3
69
39
5
51
-12
10
-6
4
-44
69
-63
-120
28
9
14
-3
-102
37
49
88
7
-5
-7
-15
31
40
-65
54
0
-5
-7
-4
64
-99
38
-17
-9
-5
-14
47
-61
38
8
-6
-25
-19
2
-44
82
19
-15
-28
-13
-17
-30
-12
0
-8
1
58
17
22
21
-25
2
11
8
-29
4
0
21
10
35
20
4
40
-19
-9
-47
-2
-75
-36
-64
-56
15
22
31
6
86
53
8
20
13
-9
9
49
22
42
9
-20
-7
-11
-17
-32
31
31
29
0
-23
-12
-4
-46
-40
-62
-20
-8
11
0
14
28
-114
-74
-14
43
17
4
-18
-31
69
47
-7
19
-22
-9
-9
-8
-28
-48
-34
33
24
6
18
10
-21
47
58
-17
-21
-9
-29
12
39
-18
-10
40
-6
-2
23
20
-31
-27
-18
-27
14
3
-12
-2
-71
-104
-42
61
5
-9
-2
-5
127
86
20
-30
-23
1
4
-24
2
-52
31
-51
15
4
6
3
-51
-20
-18
-5
-8
-2
-29
9
44
90
52
-21
7
22
18
-13
49
27
-41
-20
18
7
-26
26
-88
-25
43
-66
-44
-17
5
-20
-38
-37
-16
-14
6
-4
12
-48
45
34
6
73
14
8
-4
19
-16
0
6
23
-6
-9
-18
-21
-39
98
-1
32
10
15
7
14
123
-46
-35
-43
-14
-12
0
18
-8
0
2
-45
1
5
19
13
-65
-5
10
25
-1
-9
-26
-34
76
-35
-6
12
-3
-10
-5
22
-19
-11
-9
-33
13
3
46
-7
-25
3
-30
12
-5
11
-23
-11
105
27
35
-2
-6
-6
3
-7
-25
-3
-20
-18
-4
-4
-12
-2
-27
56
-35
-97
37
13
-12
-3
-17
-36
15
-11
-9
-11
23
22
-2
-10
-18
36
13
-10
16
2
36
91
19
72
-2
10
-11
13
39
15
48
-25
-29
-4
-9
-27
-21
-56
2
-34
-6
-12
-33
-24
-18
20
-23
15
14
7
33
21
9
-60
-7
-13
8
0
0
-25
0
-24
-11
75
-6
-7
14
8
-44
-13
21
-48
18
4
-6
-12
10
16
46
5
-19
-3
-8
-21
17
-27
-32
-21
3
3
5
19
-128
9
6
36
-13
0
-16
5
42
23
2
-8
-17
-9
13
5
-51
-29
-5
-23
-4
-2
12
19
36
10
-3
14
6
7
6
-7
-25
-4
-9
11
-2
-2
-6
-6
35
25
38
54
-5
-9
-3
7
-19
-7
-26
-63
-21
-5
-3
11
37
-21
-53
80
18
6
6
9
-22
37
57
6
-14
-3
-2
-1
12
-38
7
33
7
5
17
7
-40
4
17
-15
13
3
-11
24
-34
-18
16
26
-16
-6
-30
-52
-6
38
-9
-47
10
12
-4
-17
-8
-10
7
32
-3
-9
7
31
-77
12
-1
10
11
7
36
-10
-6
114
-7
-7
1
2
-15
21
-41
-120
21
10
-7
-13
-18
0
39
-38
-16
-86
-19
5
-4
-5
7
-18
6
84
4
-6
14
-17
29
27
-2
-30
2
-5
-13
16
27
-31
-17
49
1
6
4
-6
-63
8
-25
-48
3
-13
-8
15
3
27
45
15
-8
-4
-15
-17
85
-47
-34
-26
12
0
15
7
-1
-3
4
49
-33
-18
-22
25
-1
-41
-31
-109
37
9
-9
-28
62
4
-2
63
15
5
8
25
-41
8
11
-6
-4
-7
-1
-28
64
-21
-22
0
-10
22
40
26
20
35
8
-3
6
8
-10
18
-17
-42
-7
-2
-9
-9
-43
-33
23
-11
-6
-1
-3
9
44
36
13
-36
12
-27
4
-10
-28
2
-26
-35
-37
-1
15
-1
20
-5
111
17
15
-7
-6
0
-5
4
-29
-6
34
60
-14
-5
-1
-17
42
61
-15
-38
11
4
11
42
-24
-63
-14
-53
6
-6
-23
-58
2
9
-56
39
37
14
3
12
-40
-1
38
37
0
0
8
12
70
28
-2
28
-3
-2
6
12
2
-17
-6
12
-29
-14
-5
-3
-42
-8
-38
-55
-7
-3
19
-11
-15
41
10
-68
-8
-19
-27
-32
-11
26
42
43
16
36
17
26
36
8
-31
26
-14
-8
-1
-45
-70
-14
-11
-37
14
27
33
37
62
4
20
-49
-11
-26
-3
18
26
-27
-1
-12
-11
-3
-16
-16
62
39
11
38
15
12
2
22
-29
-35
2
-5
-16
0
4
-31
-48
35
-10
-27
-9
-8
3
5
-39
23
-27
1
38
10
-13
-12
84
78
26
34
-15
-1
4
32
43
-12
10
-18
-6
-13
-11
-9
11
12
14
25
-10
10
20
55
-42
4
-17
18
-4
-8
-35
-91
-90
-38
19
-14
-17
-5
-7
-25
21
35
-33
7
-3
-7
5
18
77
7
20
17
-2
-1
-9
2
27
-39
6
-4
-1
-4
13
-2
2
-10
-20
-17
-13
-9
-12
-12
44
42
1
2
-6
2
8
-15
33
-23
-8
5
25
16
-36
-13
-9
27
14
-17
-21
-36
-8
13
20
22
43
53
-26
9
29
7
-118
-29
-17
-22
2
6
1
-33
0
-23
-11
45
6
8
23
23
-11
-16
21
-1
-13
-9
-16
1
9
48
-6
52
-20
-22
-26
-4
-23
-3
-14
8
27
10
2
-1
-19
16
16
-28
-3
0
2
-4
-51
-6
38
21
-16
-13
-16
-4
79
1
-64
-27
5
4
14
26
-91
36
26
-1
-27
-21
-22
-35
-47
-28
-14
-38
8
10
15
-17
52
-3
-25
-7
13
4
-9
13
-31
29
20
28
22
15
4
-24
43
-17
17
-11
0
12
9
20
-42
-31
4
-21
0
-12
-16
-7
19
13
-31
4
-4
-1
50
-18
-27
21
-4
-30
-18
-11
-24
29
24
22
3
-9
18
5
-7
18
-53
-47
-37
19
-4
0
7
-5
2
-31
-25
0
3
2
-3
6
-31
20
32
15
3
-5
-6
-16
17
-11
30
-31
-33
-11
-5
-14
20
24
-22
-37
4
11
-1
5
22
22
-4
29
8
9
17
29
-74
-37
-7
1
8
-2
-8
-21
47
29
17
20
-5
-8
-12
6
2
-39
5
-33
-17
-24
3
-2
-2
12
-49
-17
1
23
-4
-10
-20
4
23
1
8
17
25
35
-2
-26
-10
-4
-2
9
5
24
17
21
0
30
4
0
-15
-39
-16
-7
-10
-9
0
-11
0
11
15
5
4
14
5
-9
0
2
-30
-71
-12
-8
-1
-4
-13
3
2
10
-6
-8
0
5
9
-5
-6
11
24
12
3
0
3
5
-18
-24
-4
-3
-1
-2
-5
3
1
0
-9
6
8
-2
1
-13
-21
-33
-12
4
0
2
-9
-4
4
2
-5
-17
-16
-8
3
-3
-23
-24
5
-36
0
-3
-7
-7
5
18
-6
14
9
0
0
-1
-2
15
12
22
-4
-2
-1
10
5
-2
1
-3
2
1
2
-6
-3
8
-4
1
1
2
1
0
-3
-4
10
1
-6
-20
-17
3
-3
-6
-7
-5
6
23
7
-1
-6
-5
9
-4
-2
9
7
-4
13
-3
3
10
-2
-6
-3
3
-5
-33
-6
-10
-5
-2
-1
-3
1
-9
-3
7
-1
-6
-4
-2
-11
-16
-1
1
1
-5
-5
-5
2
-8
-6
4
3
2
-2
9
10
22
-7
-6
-6
-3
7
-9
-1
21
2
-2
-5
-5
-5
1
-2
22
6
-3
-1
-4
4
1
7
8
-1
7
3
-5
-8
0
-14
6
-2
-3
0
10
-2
-2
-11
17
14
4
2
1
1
-3
-4
-6
-6
-10
0
0
1
-1
11
6
-6
-4
-8
-12
-3
1
4
0
-2
0
-3
-2
-3
1
-8
-6
2
0
-1
3
3
-1
5
5
2
1
1
-4
-3
-1
6
-1
2
-2
-4
-1
-1
-3
-4
7
0
-1
0
6
0
1
-1
2
1
-2
2
-5
-2
0
-2
-9
-15
1
0
-2
-2
2
5
7
20
8
1
0
-3
-3
-6
-17
-44
-16
-9
-4
-2
-2
-2
2
26
3
0
2
3
2
4
9
16
7
3
-10
0
0
-5
-18
-26
-12
-5
6
-9
0
1
13
8
8
-6
-10
-15
2
1
-6
-7
2
3
5
4
4
-13
-2
20
-10
-10
-29
3
-16
5
0
-15
8
11
60
41
6
5
-2
-8
-8
-2
-6
1
9
-4
2
8
4
0
-1
-3
-1
4
-7
-9
0
4
3
-7
2
4
-2
19
-3
-4
-25
-20
-4
-1
-2
4
2
-3
3
16
-6
2
1
-5
-2
-1
-4
-9
-1
-1
-3
-10
-6
-1
14
1
0
-9
-8
4
2
-2
-5
2
-2
-1
3
20
18
4
-2
-1
-1
8
-1
-20
-10
0
-25
-22
-1
-8
-9
25
1
-16
4
-3
1
-24
-13
-74
-23
-15
-1
0
-17
-1
13
12
15
1
4
-2
-1
0
8
49
9
7
-2
-10
-3
7
0
8
-6
13
6
-2
2
-1
-13
-5
-11
-17
-13
14
6
-2
8
30
21
-4
-6
-2
2
-6
-11
-41
-14
-4
3
-12
-3
7
10
15
7
9
-2
-9
-2
7
7
35
4
7
-5
2
9
-5
-7
6
-5
-3
-5
8
-23
-1
6
14
1
4
9
-23
4
18
-12
-29
-27
-12
11
-1
11
-18
1
42
17
3
-12
-4
-17
6
7
1
-4
1
7
10
6
-10
-13
-70
-8
1
-7
10
-6
-12
-11
-6
5
-9
-11
-11
-6
12
7
22
1
1
-4
-11
5
2
5
-2
16
5
-2
1
2
-3
-3
41
-15
-1
-6
-10
-4
-9
5
36
-1
-9
12
22
-3
14
0
-63
-29
13
0
6
5
-8
11
73
40
-1
10
-1
-6
-11
-34
-112
-37
-27
-17
-2
0
0
11
64
34
10
10
-2
2
5
15
82
4
13
-1
-4
-2
17
-11
-43
-31
5
7
22
9
0
9
41
18
-4
-2
1
2
-8
1
21
17
-4
-9
12
-10
4
7
-94
-13
-4
0
5
4
-6
-21
-33
-26
-2
4
-23
1
3
4
38
23
0
3
18
0
1
-1
-41
-8
8
3
3
-1
-4
0
-4
9
-7
-9
-11
3
-2
-1
-43
-25
-4
-11
-5
0
-5
2
20
6
3
2
4
-4
-1
-1
-2
23
9
0
-8
3
-4
-8
-31
-35
-12
-7
-19
-7
1
12
-8
7
3
0
-2
3
-8
-19
66
-25
-14
-1
7
-7
8
15
38
-2
13
1
-3
-1
-4
-11
-27
28
-5
-1
-1
-2
-5
-1
-7
-7
-8
-6
-4
-1
6
11
-2
10
7
9
2
2
-4
-5
1
-7
-8
-12
-4
-4
0
-4
-6
-8
-3
-5
-10
-2
1
-4
-4
-14
1
10
10
1
-1
9
-6
21
1
-10
1
-3
-6
-10
-24
-15
-8
7
-6
0
3
3
40
14
5
5
-1
-2
-1
-2
-21
-17
2
-5
-6
-2
-1
-2
-21
-1
-3
0
0
-2
-7
-11
-21
-8
-1
-12
-6
-2
-3
1
13
12
-7
1
17
-2
-1
0
18
4
1
1
-7
0
-2
-2
38
-3
-2
6
-10
0
-1
-2
-91
-7
-5
-5
-7
-3
3
3
26
-6
-1
-3
6
0
0
-3
33
2
-7
-8
-7
-3
1
-1
-24
23
15
12
11
3
-4
2
-2
-17
-6
-3
-3
0
-2
-2
13
2
2
2
-3
-2
0
-2
-34
-12
-8
-6
-5
-2
3
-4
-39
-11
-6
-3
5
-1
2
3
4
6
4
2
-18
-2
-3
-2
20
0
0
4
4
0
-3
-6
2
0
-4
-3
-1
-1
5
0
-10
2
-1
-19
7
4
0
-2
-4
-3
2
32
-4
-4
-2
-2
-9
-7
0
3
-12
-3
0
1
38
17
5
-4
-3
0
-2
-4
-26
-8
-4
-1
3
-3
1
4
13
-2
-3
-11
4
1
6
6
14
14
8
3
-1
3
-7
-11
19
-13
-6
-1
-2
-2
3
7
-83
-5
-2
-1
-4
-3
-1
2
20
-3
-6
-7
1
1
-3
-12
-22
3
-1
1
2
1
2
-2
-18
-8
-3
-5
-2
3
0
6
34
2
5
8
3
-1
2
-1
-16
-4
-2
-3
1
-2
-1
0
5
4
0
-2
3
0
-4
-4
2
1
0
2
-3
1
-2
0
14
-1
-2
1
-5
-3
3
-3
-5
3
-1
-3
4
0
1
3
19
-5
-3
-6
5
-1
0
0
-27
3
0
2
-9
-1
-1
2
26
11
3
4
8
-1
-2
-2
-1
-1
-6
-13
-5
0
0
-1
-2
1
0
9
-4
1
0
1
-10
-6
2
-3
4
-2
1
-3
20
2
-1
-1
-5
-1
-4
-2
-17
-4
0
-6
2
0
0
-7
-15
1
-1
-6
-1
-3
-3
-2
-2
-5
-5
0
0
-1
-2
-1
2
-9
-7
-3
-6
-2
2
1
23
19
6
2
7
-1
-3
-2
-9
-6
4
2
-3
0
-1
2
10
2
0
-1
2
-1
-4
-6
4
-2
-4
-2
-2
0
0
3
-6
0
-3
-1
-1
2
3
5
-1
0
1
2
1
-2
-1
-5
-6
-6
-2
-3
1
-1
0
4
-8
-4
-2
0
1
0
-1
-2
3
6
0
1
0
-1
-1
-1
9
-1
-2
-3
-3
1
-1
-1
-6
-2
1
-1
0
0
-1
0
-7
-1
2
4
2
-1
-2
-6
-1
-3
-1
-1
-2
-1
-1
-2
-7
-2
-5
-4
-2
-1
0
2
6
3
0
1
-1
-2
-1
0
-5
-1
0
3
0
0
1
-4
-2
-12
-4
-2
0
-3
-1
-2
-2
-4
-4
-5
-2
-2
-4
-1
9
18
7
4
2
3
-1
6
15
6
-2
-3
-3
-2
-6
-1
-3
0
3
0
2
-2
-1
-4
10
0
-8
-4
-3
-4
1
0
1
-8
-3
-2
-1
-3
6
-2
-9
-2
-2
-3
-1
-1
0
1
-3
-3
-7
-1
1
0
1
0
12
-1
5
0
0
-2
0
5
14
3
5
0
1
-2
-5
-13
-36
-13
-1
-1
-1
0
3
-2
8
-2
-3
-2
-4
-1
0
2
9
2
-1
1
-1
1
1
0
1
12
0
0
-1
1
-2
4
2
-8
5
1
-2
-1
-4
0
-12
1
4
0
-3
-3
-3
-11
-3
8
-3
0
-2
-1
-12
-5
-2
-11
-5
-2
-2
-4
3
-3
-2
-10
-5
-3
-1
-2
-1
4
-12
4
0
1
1
1
9
6
-3
-3
3
2
1
1
-4
1
-6
-2
-4
-2
-2
1
0
-2
-1
4
1
0
4
1
-12
-5
7
-7
-5
-1
1
-2
-7
-3
-5
-5
-4
-4
-14
-8
2
-1
-3
2
-2
-1
0
-2
6
6
4
3
7
3
0
-1
-2
-6
-4
-1
0
-2
1
4
-6
-4
-6
-4
-1
-1
5
1
14
1
-12
-8
-3
-2
-1
-3
-13
1
24
10
-1
-1
-1
-2
9
0
-39
-4
1
1
1
-1
-9
-5
5
-2
-4
-5
-1
-1
10
-1
3
-2
-1
0
-2
0
-7
1
-7
1
-5
-3
0
0
1
-2
10
-6
-6
-2
0
-2
-18
-1
-10
1
7
3
-1
-1
14
7
-1
5
-1
-1
0
4
24
-6
11
0
-2
-2
-5
-3
-21
-6
-8
-13
1
0
4
3
-17
1
4
3
-5
-4
-11
-6
15
7
0
0
5
6
-2
0
-29
-10
-11
7
5
3
-1
0
40
0
12
2
-4
-7
0
0
36
16
-1
-2
0
-2
10
10
-44
-4
2
-4
4
4
3
1
-23
-26
-2
-5
-3
1
-11
-19
-6
-5
4
-4
-4
-4
-11
-6
7
3
-12
3
-2
4
11
4
6
10
3
-12
-3
-8
-22
-2
16
34
-2
12
-1
1
5
9
-69
-32
23
8
4
3
1
-1
65
-10
-1
-11
-4
-11
-2
-4
4
11
51
10
-1
-2
3
-6
-31
6
-65
-10
-1
4
6
3
-34
-27
5
-11
-5
-5
-13
-10
-18
14
24
-3
1
-5
-9
-9
4
-23
13
13
-3
4
24
19
52
-7
18
-24
-2
-3
-22
-16
-16
-27
-7
8
-2
3
8
-7
19
8
-24
-19
-3
-7
-12
6
39
7
-19
-19
-12
-2
4
14
-53
14
21
33
24
6
5
-14
22
8
-28
15
4
2
1
21
-122
-6
16
-70
-6
-2
-1
-48
32
-14
4
27
27
14
7
14
42
50
-5
32
0
2
14
13
-63
-29
-47
0
-17
-13
-21
-1
-5
20
-13
20
-6
4
14
25
5
8
-31
-61
-13
-7
-8
2
-24
-69
6
-18
19
0
-3
-24
74
64
27
21
-16
4
13
0
75
-85
-18
41
-8
-1
0
20
-43
-12
-17
-46
12
5
-1
-17
52
26
15
11
-13
-14
-7
15
-50
32
13
-26
12
4
4
-10
-22
6
10
42
-1
-9
-18
1
-59
1
-44
35
-7
-3
16
8
29
-12
-8
-56
-31
9
-10
-38
25
-22
25
28
11
17
-1
10
1
0
47
-23
19
13
37
29
7
17
-11
25
-11
-25
-19
-25
-85
102
37
-32
5
-7
-16
-6
35
79
-28
-59
5
14
4
-20
-97
-47
-58
85
25
17
15
12
24
-23
67
2
-5
-29
-25
-3
40
-25
9
9
-12
-23
12
28
-43
-66
-29
4
-20
20
2
0
-76
-13
-49
-67
-3
0
-14
-40
45
-28
40
-62
-35
-8
-13
-5
78
11
-30
47
15
14
17
29
-78
17
2
15
21
-11
-6
-1
76
12
4
-24
-12
-1
-5
-9
-106
-65
-2
-8
-10
10
7
-27
45
6
35
17
-26
-14
4
2
-61
-9
-12
-9
10
2
19
34
22
3
-22
-13
1
-12
-22
-1
-17
-22
23
13
-17
1
6
10
-97
-3
-49
-44
5
-2
-12
-33
68
-25
25
54
-11
-4
8
-15
106
47
27
2
-11
-18
-17
21
-63
32
-50
7
12
17
9
0
2
11
19
48
10
9
-14
13
8
-21
-18
-56
-11
-6
13
1
-68
-43
19
16
12
5
-4
17
-12
50
33
-37
-20
-8
7
-39
-28
-3
-47
-61
14
9
2
-7
70
-37
12
14
5
-21
-21
-6
-21
-24
4
48
17
10
15
3
61
28
-26
-29
1
-6
-21
14
-88
-7
10
26
-11
-14
2
-2
-13
26
76
2
-10
-6
1
-3
17
-3
-24
-18
-1
8
9
0
-80
-60
-35
47
4
4
11
12
21
-28
-10
18
-1
7
-19
-30
25
29
-8
37
-6
-14
-12
7
74
4
34
12
-26
-45
-21
27
-76
23
-22
-21
6
31
22
-27
11
12
82
5
6
7
9
31
17
-22
-64
12
25
19
18
11
18
25
13
2
3
14
-24
-59
116
50
-18
78
-33
-26
1
18
7
-9
-30
-46
18
10
-5
28
-35
59
14
-7
-8
-12
-3
6
48
105
10
69
4
5
15
3
27
-22
-32
-13
5
0
-12
19
-86
-68
0
1
-28
-13
6
-36
43
42
-2
27
-3
-26
-24
-1
-37
14
0
-1
7
31
40
3
19
-28
41
-20
28
20
17
23
-30
13
-51
3
-8
-7
-24
3
59
-18
1
-18
-9
-7
-12
-6
-54
-44
8
-20
-42
-7
8
-19
0
-26
14
14
28
6
-15
-6
127
-23
-47
-44
32
3
9
26
-83
50
24
2
-16
-14
-8
-32
1
-28
-6
-67
0
-15
-45
-30
26
50
25
59
14
17
33
20
80
19
11
-11
-13
-14
-5
32
46
54
-5
7
3
-9
18
-12
-101
-25
-40
-24
13
43
1
23
96
9
20
18
-11
-15
-39
-21
-28
-36
13
4
-13
-14
6
-2
59
-66
-10
39
16
12
22
20
25
-22
-6
-25
-26
-29
-22
-10
-47
5
5
-19
3
-7
-14
-10
-44
9
21
1
-19
9
17
8
-18
36
-34
-7
6
7
0
7
-102
-87
7
17
2
-9
-3
-15
3
2
18
20
-13
-8
0
-7
64
91
2
-21
28
9
15
34
-52
-77
-39
5
3
11
-11
3
-23
25
22
32
6
-4
8
-13
30
79
-42
14
13
-18
-3
36
-88
5
49
-43
-37
13
0
-81
93
-32
-17
-66
32
24
11
23
50
-8
-9
29
27
11
-2
13
-31
37
8
-1
-5
-29
-21
-29
65
4
-16
50
0
4
19
36
-15
13
21
19
-16
-4
-15
-5
1
-30
-5
-72
4
-4
17
-13
17
-10
-7
0
3
3
-4
4
-46
-59
-20
14
-13
-9
-8
-29
13
-41
21
-51
-2
-15
-22
-28
-41
-1
3
34
1
17
11
4
18
-23
-28
-4
8
11
9
20
-48
-58
-30
12
3
-4
-1
-11
82
18
27
27
-21
7
10
29
-46
63
29
7
-15
-22
-23
-16
-36
25
-22
-44
1
16
7
-12
-19
-20
-6
-34
8
-3
9
-1
-6
11
10
31
10
-6
4
4
40
-52
-34
31
-1
4
-10
10
40
11
3
-71
-22
-13
11
7
66
113
60
40
2
-2
-8
10
-114
-64
-55
-22
-35
-6
-14
-39
99
61
-4
-54
32
16
13
52
-81
-128
21
13
-13
-12
-9
-38
27
42
-14
2
7
12
19
16
-104
48
14
-23
13
16
-5
-21
90
22
1
66
-12
-15
20
45
-45
-46
-30
-12
2
-24
3
4
-4
-10
14
22
9
31
-28
-28
-84
-11
23
-41
-18
3
2
-19
23
13
-30
-26
15
-1
-24
-11
4
5
15
41
0
-3
15
7
-14
-60
-9
10
6
-16
13
17
-19
-42
-25
-13
-9
-8
-30
-49
-3
12
59
14
-12
-14
5
4
57
-34
-6
-31
31
30
-6
-16
-73
-50
-31
60
0
2
16
9
26
18
7
-5
-3
-11
-12
21
9
50
4
-28
-19
-2
13
4
10
-16
-16
-4
-3
-3
-8
-12
44
43
15
29
-4
1
-15
-1
11
-53
15
8
4
-18
18
11
-68
-40
-14
-9
-10
-6
-40
-12
30
59
16
4
-3
24
34
15
-62
-31
-14
-81
-25
-25
-8
2
-2
59
-21
-27
-16
1
3
-19
25
7
-9
-14
5
5
11
0
-17
-61
-1
4
7
3
-11
-10
4
-6
0
24
4
-10
-11
-6
1
32
-10
12
-2
-2
6
18
55
15
-11
-21
-11
-5
8
-1
68
19
-2
7
9
-1
-23
8
-2
-9
-8
22
3
11
17
-20
35
11
35
-21
6
4
-2
11
-7
-44
-31
7
-6
-2
-8
-29
21
12
15
-37
-21
-16
11
101
-36
-42
-1
21
13
2
-36
-91
42
68
13
15
5
-13
-8
19
-36
3
3
13
6
44
56
-10
53
75
10
-42
2
-1
-8
6
-33
7
-18
-17
4
-8
19
33
-32
-4
26
19
-5
-10
-14
-1
-10
-10
10
-8
5
-10
-14
-19
-56
3
-29
89
0
0
-3
-33
52
16
8
-22
31
10
10
48
11
-2
12
50
12
8
14
-30
-14
-14
-8
-17
-15
-10
-16
8
-104
-8
8
-12
-9
-1
-5
-49
29
14
-5
-35
-9
-4
-3
32
67
-8
-35
16
3
1
3
8
19
-18
23
8
-11
-7
1
22
-107
-27
-5
-15
-8
-20
-39
-57
-4
-1
4
-22
10
20
7
-24
-19
-39
-11
-5
6
2
4
13
107
60
17
-4
-15
-15
0
28
-62
4
-22
-73
-10
-2
-1
4
-26
-41
-7
8
2
-4
-12
-17
-18
-13
-26
29
15
10
17
13
41
9
-30
-22
14
-2
-20
-33
-38
-53
44
45
-2
-6
10
10
8
-1
14
26
-20
-14
-20
-7
31
-12
-18
-10
-5
8
4
10
-128
-54
-35
-72
2
-3
-7
-22
101
37
-7
20
11
11
11
16
-40
-28
20
25
-15
-7
2
-8
16
26
-1
-4
-1
-8
-9
-10
-9
4
15
12
4
15
11
-1
1
-29
-4
-1
-4
-9
-1
5
0
60
-18
-16
-8
1
8
-19
-35
-13
18
-74
2
18
29
13
-10
-21
4
18
-1
-17
-21
-32
-53
-51
-14
28
1
-2
10
-9
91
56
2
-7
-7
5
-22
49
-8
-26
7
-11
-19
-11
-8
-2
16
16
-32
-29
9
9
14
-6
-6
-13
11
-1
28
14
24
44
-20
42
-5
50
1
-11
-4
5
24
59
25
13
-4
6
-10
-10
-35
-68
-34
0
2
-4
18
14
30
34
19
4
-24
-23
-31
-64
-3
-32
-16
-59
1
15
14
34
20
-18
1
-10
20
-2
-21
-51
10
51
36
64
-12
-17
-2
15
-2
32
-17
3
10
31
24
5
63
-51
-4
12
-8
3
17
20
-67
37
10
13
6
-19
2
-5
-4
35
-7
6
4
16
-24
-16
-48
4
-16
24
-19
-6
-15
-2
-61
-45
48
-20
-35
-17
-20
-39
-30
-35
-24
16
22
13
20
30
34
26
19
55
17
5
17
21
77
10
0
21
1
2
-2
14
22
21
-14
0
-24
-11
12
-13
-18
-28
-29
-21
36
5
-8
8
5
19
39
37
12
2
11
9
-18
-13
-26
29
15
10
17
13
41
9
-30
-22
14
-2
-20
-33
-38
-53
44
45
-2
-6
10
10
8
-1
14
26
-20
-14
-20
-7
44
3
7
12
-1
1
-3
-1
31
22
-7
-11
5
-7
-23
11
-62
26
-6
-39
-14
-13
3
-16
-13
-34
-7
-25
-7
10
-9
-4
-50
10
-18
32
29
6
1
-44
-4
4
14
11
15
-8
-13
17
38
-26
28
3
-17
-1
-13
13
-30
-2
-45
1
-9
-16
-22
6
26
-35
0
-47
-24
-6
17
27
-13
17
14
67
24
3
-12
-17
-27
49
-2
37
-7
-3
-12
-29
-87
-23
15
-9
-1
2
16
23
36
-31
-5
-15
-27
-5
18
50
-93
-15
4
-41
-3
-16
-48
-100
38
19
-3
20
-10
12
10
8
-9
4
4
21
-11
1
2
-6
-24
6
-12
-80
14
1
-5
-11
32
-7
11
39
3
5
27
28
-13
-34
-13
5
-9
-7
2
6
24
39
-32
19
-14
-6
8
-3
14
-79
17
-31
13
13
4
8
9
39
-1
-11
-6
-4
9
-6
21
-4
13
16
14
3
-2
-1
22
30
8
-15
-4
-9
2
45
12
44
3
30
7
11
-17
-39
-29
-16
-10
-1
-2
10
22
-3
-30
-33
8
-29
5
-1
3
32
51
60
15
9
5
-12
-16
-27
-68
-57
8
18
-3
-10
-3
-2
3
-14
-35
-11
-13
5
27
14
10
54
0
-19
10
-9
-24
-27
16
-4
11
4
4
3
-7
17
-8
36
4
4
-4
4
-10
-10
-34
-11
-27
-2
12
-2
1
-11
34
-26
-5
62
-19
-1
16
31
2
-21
-5
-12
-7
-2
3
15
-39
48
16
-3
2
-4
-11
-30
-3
-32
-13
-14
-5
-8
-6
28
-13
20
18
-6
-6
-1
3
2
7
-11
10
-19
-2
-13
-15
-24
23
8
-10
10
-13
15
-3
10
21
10
-8
-22
5
-4
8
18
-11
16
1
-19
-6
7
-26
-5
-51
-19
-2
2
1
-3
11
-39
20
18
-10
12
7
-8
1
7
14
1
-8
2
5
0
-5
-4
19
-1
-3
0
-3
3
15
7
5
-25
-15
-10
-8
-7
-12
-7
-13
8
1
-6
5
-2
-3
2
9
2
11
3
-2
3
3
12
-4
-8
6
8
-1
0
2
-1
-4
7
6
-9
7
12
2
-7
11
-12
-6
0
2
-2
4
13
-21
-11
5
6
2
2
-2
-3
14
-12
-5
-13
-10
-5
-6
-5
1
1
0
-11
2
9
8
-6
4
-10
-1
6
-1
-3
-1
3
13
-11
0
2
-1
-1
-6
-1
-5
-59
-3
-4
0
0
3
-4
-1
-27
-1
-13
2
5
5
3
2
14
6
3
-6
-6
-4
3
-5
12
-18
-4
0
1
-4
-3
8
22
-6
-2
-3
1
4
3
-15
20
-1
-1
1
1
2
-2
7
17
-3
-4
-2
-8
-9
1
4
15
6
-4
0
0
12
-2
3
18
-2
-2
-1
2
-7
-2
-4
15
4
-3
-1
-3
-1
-2
-6
18
-8
1
1
-16
-11
-3
-1
10
-1
-3
0
13
4
9
6
3
9
-2
-2
-1
-2
-9
1
-1
6
-7
0
3
3
2
2
1
7
1
-2
-3
-2
-7
1
-5
-5
-1
-3
-10
-6
-3
-4
-9
-13
-1
-2
-8
10
2
-8
-1
4
1
-1
7
-14
-8
6
-2
-4
6
4
-3
8
6
-2
-7
11
2
1
-2
-2
-3
-4
-9
7
-10
-6
-1
4
-1
2
-7
-1
0
1
-3
-1
-1
0
-4
-8
2
-5
-11
-8
-1
1
-1
18
-1
2
7
-6
-3
1
-1
-20
6
8
16
10
1
-11
-16
-27
-14
-5
-4
6
-1
9
0
-14
-14
-6
-2
-4
1
-2
-2
33
14
-4
-15
-4
0
2
5
30
5
-1
-7
-10
-3
4
4
19
12
5
1
-6
-2
-9
4
-12
3
4
0
0
-4
-5
-22
-103
-41
-8
8
4
-1
-7
-5
16
6
-4
2
4
6
0
2
-7
0
0
-6
2
-8
0
-9
17
0
-10
-24
-24
5
5
17
15
10
13
39
24
1
-4
-1
-8
-10
-3
-4
-3
-6
1
2
32
5
3
-1
8
2
4
4
5
0
9
1
9
-4
-1
-4
-37
-22
-7
-24
-27
0
-7
-27
-27
-3
-17
4
1
5
-4
5
11
26
6
-4
5
-5
6
12
23
17
9
12
9
3
-16
-21
-28
-38
-18
-15
-12
-9
9
14
34
18
12
-3
8
2
-18
-24
-64
-33
-24
-6
-23
-5
0
17
62
29
7
12
6
4
6
-4
23
-7
6
0
-1
-3
2
-6
-54
-15
-7
-9
3
-4
2
7
48
12
6
7
7
6
-2
-6
-53
-14
-4
-1
5
-1
7
5
51
8
8
6
1
1
1
8
72
19
13
-9
-28
-4
-6
-9
-61
-61
-22
12
1
2
-1
-5
15
22
1
11
25
-1
-6
-4
-71
-7
-10
-20
-11
0
4
7
40
3
4
4
3
4
-3
8
84
16
8
-5
-17
-5
-1
-4
-8
-6
-1
1
0
-1
-5
-3
44
22
-5
-10
-1
-2
1
3
-47
-28
-2
7
0
0
1
-12
-80
-19
-8
-9
8
2
2
1
5
-2
2
7
-6
-1
2
11
66
33
4
-1
8
1
-4
-4
-10
-10
-2
-10
-10
-5
2
4
-19
-9
4
5
14
4
-5
-3
16
16
-6
-1
-19
-3
-2
3
1
0
3
-6
-7
-7
0
3
36
1
0
10
16
2
5
-5
-64
-8
0
-3
0
-1
-2
-12
-60
-19
-7
-1
-1
-3
2
4
-24
-3
-2
-2
-5
-2
-3
-3
14
-3
-7
-6
2
-1
0
6
55
10
3
-4
-6
0
-4
-9
-28
-18
-4
0
1
2
0
3
42
18
4
5
6
0
-1
5
18
6
2
3
-6
-1
-2
-10
-70
-3
-1
3
0
-1
3
3
24
-9
-4
-12
-2
-4
0
1
-9
12
-1
8
-3
1
-4
-12
-46
-15
-3
-2
7
-1
3
9
60
29
4
7
-7
2
-1
0
-20
-8
-1
0
1
-2
2
4
16
8
2
3
10
2
1
-2
-27
-1
0
-8
0
-2
-2
0
4
-2
-2
-7
-6
-1
1
1
-10
-2
-1
1
11
1
2
2
24
-16
-4
-2
-7
0
-2
-7
0
-2
-6
4
-7
3
-4
-8
0
-4
6
3
0
-8
9
5
48
17
4
0
0
-2
-1
0
7
7
-2
-6
-2
-2
-1
-5
-56
-15
-8
-8
-2
2
-1
4
29
1
-1
-8
2
-1
-1
-2
13
18
11
8
1
3
2
2
-20
-10
7
11
12
1
1
6
6
-1
4
8
-6
-4
-3
-8
-24
-5
-9
-8
-3
-1
-7
-7
0
-17
-13
-6
0
-3
-1
-4
4
-2
-8
-5
5
0
-4
-11
-18
2
0
0
-4
-2
4
8
25
0
5
2
-3
1
-2
-2
0
-1
-3
2
8
2
-1
-2
-10
-2
0
-1
-8
-2
-1
1
-2
-3
0
-2
-10
-4
-4
-6
10
12
-2
0
1
0
-2
-1
-33
-11
1
6
-3
-2
3
6
-2
-5
3
0
3
2
-3
-10
-2
2
-7
-9
-2
-5
-2
-3
-27
-5
-2
-3
-6
-2
-3
3
23
6
-1
-2
-1
1
2
3
-14
7
1
1
0
-1
-1
4
-23
-8
-1
-3
-3
-2
0
-1
48
-2
-2
-1
5
0
-3
-2
7
0
-6
-4
-7
-3
-4
-7
-31
-5
-2
3
5
0
3
10
47
11
5
-1
6
1
-3
-4
-58
-19
-6
6
7
1
2
-2
32
-8
-6
-4
-13
-2
-2
-2
-1
16
5
-1
-5
-1
0
1
-16
9
2
-1
13
3
0
3
26
6
0
-2
-16
-2
-1
-2
-25
-5
-1
-5
7
1
-4
0
14
-10
-10
-2
-23
-6
2
1
-19
-3
5
5
5
0
-1
3
7
7
1
-2
4
1
-5
-11
-6
-6
-5
0
5
-1
0
2
-4
1
0
1
1
0
-3
-2
6
4
-4
-4
-3
-3
3
7
20
7
4
0
-3
-2
-1
-1
-14
-4
2
4
2
0
-3
-9
-10
4
-2
-5
5
-1
0
3
30
-1
-4
-1
-6
-2
-3
-8
-9
-4
-3
2
7
-1
0
0
-21
-2
-1
-3
-7
0
2
5
26
0
3
1
1
0
-4
-4
-10
-2
-2
-1
-1
-1
-1
4
30
2
-2
-5
-4
-1
-1
-4
-31
-6
-5
-4
-5
-2
3
0
-6
-6
6
5
5
0
-1
-5
-21
1
2
0
-2
-1
-2
-2
17
13
0
-1
0
1
-1
2
-16
-6
-2
-1
-3
-1
-2
1
1
-2
-7
-2
2
-1
1
-1
-2
-6
-2
-3
-3
-1
-1
-2
-8
-2
0
2
1
-2
-2
1
4
5
3
-1
1
0
1
-3
-6
-4
-3
-3
0
0
0
2
16
3
2
3
-2
-3
-2
-4
-10
2
-1
-3
0
0
-1
5
22
4
-2
-1
-2
-1
-1
-3
-19
-7
1
-2
-2
2
0
-1
8
-5
-4
-1
1
1
4
4
-9
-5
-6
-5
-1
-1
-4
-5
-5
3
11
3
1
-2
-3
-2
4
5
-3
0
0
-1
-1
-1
-1
-3
-5
-1
0
0
-2
-1
-2
2
3
-2
0
-3
1
-2
1
-1
-5
-2
2
1
14
1
-10
-8
-7
-3
-3
-1
-13
0
-5
-1
-2
-1
-3
-1
4
-3
1
7
8
3
-1
-1
-8
-6
2
-4
0
0
-3
-5
-11
-6
-3
1
-1
-2
1
-3
8
4
-4
-2
-5
0
0
0
-4
0
-2
-3
-4
-1
0
2
2
3
-5
2
-1
0
0
2
1
1
6
-1
3
0
0
1
1
-3
-21
6
1
-1
-2
-2
-5
1
1
0
-3
1
1
1
0
-2
-3
-5
-2
-3
0
-2
-2
-1
-1
6
-5
-1
-3
0
3
0
2
-12
3
0
2
0
4
0
-2
-13
-2
0
-1
0
1
-4
-9
19
7
1
0
-3
-12
-5
17
2
2
-1
1
-4
1
-1
-6
-2
-4
-4
-9
-5
9
2
-3
0
1
-1
-2
1
10
9
0
-12
-1
0
0
1
5
2
0
0
0
1
4
1
-8
-1
5
6
1
1
4
2
-12
0
0
7
0
-1
0
0
-18
-12
1
-11
-4
-2
-3
-1
-14
8
-5
-9
0
-1
-4
-13
1
-12
6
1
-4
0
0
1
1
2
-10
-1
-3
0
3
6
12
5
7
11
2
1
3
-1
-6
3
15
2
-4
-4
-7
-1
20
-2
-12
-2
0
0
0
-6
-22
-3
-2
-1
-4
-1
4
1
4
5
-3
4
5
0
-13
-3
23
-11
3
-8
-4
-3
0
2
1
21
-6
7
-1
0
6
4
-20
-4
-1
3
3
-3
-13
-8
-10
-15
-6
-15
-7
-3
3
-3
23
3
6
1
0
0
-3
0
-32
-2
1
-1
3
1
9
5
-4
4
-21
-5
-3
2
10
6
-17
-15
-12
-14
-9
-2
-17
-17
12
17
37
17
8
2
-5
-2
55
-9
-29
5
-1
-2
-3
4
-22
1
-23
-9
-4
-4
-1
2
12
2
-1
-10
-7
0
9
12
-28
2
-22
-5
-2
3
0
15
-27
-3
38
18
13
-3
-18
-26
37
20
10
11
3
-2
-2
-4
-11
22
7
7
-1
1
10
7
-24
-89
-3
-15
-5
-4
-1
-13
-35
-52
16
-17
-13
-8
-5
-5
37
-9
-63
0
9
7
1
1
82
40
34
17
-25
-8
0
9
-32
29
-40
6
42
11
10
8
60
36
36
32
-4
3
2
22
22
7
-9
-41
-9
-11
-12
-18
-43
-7
-3
29
-2
-1
-17
-17
12
-31
-26
-32
4
16
13
12
-42
-1
-5
0
-1
-11
-5
-4
48
51
12
11
-9
1
7
21
-52
-59
3
-44
20
-4
-11
-18
-64
11
16
48
-4
-7
0
-6
-8
-35
-66
-6
5
8
9
-6
55
0
48
4
-12
-8
2
28
-56
-41
-22
4
0
2
-2
-15
10
48
31
2
-25
-12
0
-2
28
11
-9
-31
32
12
10
13
50
-9
23
10
0
-2
-8
-10
-75
-14
4
-21
-18
-6
-3
-3
-3
-25
-38
11
-6
1
9
25
25
36
13
-15
-20
-12
-11
-48
9
9
-11
29
27
16
4
2
23
-48
23
-20
25
5
6
25
-45
-10
-19
-12
-15
-19
-6
-17
-89
-9
3
13
-7
9
0
10
18
12
16
-24
-13
6
5
0
63
-31
-67
9
14
9
9
4
52
7
40
-3
14
-4
-12
-26
17
-43
48
-13
-5
-15
-14
-7
-44
17
-41
34
-1
-9
-6
4
-54
121
8
5
-5
6
27
20
127
-53
-48
-96
-7
6
-20
-10
-76
68
13
39
0
-19
-3
-11
51
-4
51
-4
-5
-3
0
-8
11
-49
-18
-14
-23
-3
-11
-14
11
106
-35
98
17
18
38
35
58
-104
17
-46
-8
1
0
9
-66
34
42
-58
-3
-15
-1
-21
27
55
-34
75
-9
1
-38
25
19
-12
37
-58
-25
-12
3
-19
-22
-79
-34
-14
3
8
21
-26
-25
30
-12
29
8
-8
6
22
5
33
39
-7
12
6
4
-27
11
-47
-5
18
-2
28
17
20
28
127
-54
-22
37
11
5
48
20
-128
5
22
-14
-3
-6
-6
-68
-65
-26
-90
-7
-19
-14
-62
-13
76
-21
57
-4
-3
-10
1
3
56
-3
25
17
18
24
33
-110
63
36
-28
-10
-10
-26
-22
27
-6
9
10
7
4
24
38
13
-17
9
-10
-7
-2
2
0
-98
-10
-7
12
-8
2
-12
-22
70
-50
-25
-3
-1
7
6
5
-30
5
24
20
-12
-10
-11
13
-27
32
1
-63
-6
-2
-10
-20
73
-11
-5
16
-7
10
16
34
-57
-89
8
0
4
8
-1
-18
74
12
47
51
11
-3
-2
-12
-87
-47
-2
1
-8
-6
6
-7
65
-101
-27
-55
0
-13
-37
14
-12
42
-35
2
-1
-9
-4
-17
40
-9
-20
6
-9
-14
12
0
-88
49
0
38
17
12
-15
16
48
33
35
9
-11
-7
33
44
-83
16
9
-3
6
6
-25
-62
-49
-41
5
-17
-4
5
2
1
19
17
1
14
-3
-12
-21
-27
-120
18
-5
7
-15
-5
1
-47
101
-29
-32
-19
10
2
18
76
44
52
-6
7
-8
-2
-9
4
-92
-81
23
-52
15
-12
-12
-31
-7
32
15
28
-18
-6
-6
-26
42
42
-16
-12
17
10
8
26
54
53
3
60
21
10
13
3
82
-18
9
41
1
-6
1
13
-10
21
-9
10
-6
-7
-11
-8
-75
-34
-30
37
-8
0
15
-13
37
-8
20
-38
-3
-5
-20
6
12
15
18
19
14
4
6
7
19
-8
14
-33
3
-4
5
11
-6
54
11
-34
-9
3
1
-28
-25
-13
15
20
-5
-8
-25
-27
18
12
-9
2
-13
-6
0
6
-48
-2
0
0
1
-6
-12
0
72
-16
7
-13
-9
-19
-1
9
-39
-44
-56
-42
6
27
5
-3
14
-7
14
-19
-3
-7
-3
7
-2
6
0
22
-4
8
1
-20
-13
37
19
35
5
-5
-6
9
16
54
9
6
-5
-10
2
4
12
-15
-18
-15
19
13
15
11
60
-30
-20
40
2
4
1
14
-122
-52
37
-53
-12
-7
-26
-19
20
-12
-22
34
-3
-11
1
-14
58
-55
-8
0
-10
2
3
8
-60
80
19
-81
7
-3
-8
-11
37
-57
-30
12
11
13
11
10
-9
-67
-4
20
-1
1
11
19
-108
28
18
-17
-20
-21
-27
-37
50
3
0
12
-13
-13
-3
-8
33
4
-1
26
2
27
24
11
33
34
-5
-28
0
2
17
62
18
17
17
19
9
-5
13
-13
-52
-36
-8
18
-15
-1
-54
-4
11
54
29
-17
-25
-10
6
8
-89
35
9
7
4
5
11
-1
46
-15
-5
4
-5
0
5
-4
-18
-45
27
64
-11
-10
3
-23
-58
-36
-27
-13
6
-1
6
16
-6
-3
-17
-6
-5
-1
-13
-17
-25
22
17
-4
-1
-2
-10
-2
84
-24
-6
-2
-7
-3
0
16
-61
-36
-27
-11
15
-4
-1
-25
64
-20
18
8
-5
2
0
3
43
-6
-21
1
-2
-4
19
45
-36
9
-22
7
-2
-3
3
-56
47
52
18
-13
-8
14
-15
9
-106
71
8
-21
7
-18
-35
-36
69
-51
0
-22
-13
9
20
9
38
-14
-9
-60
13
1
-3
9
21
-4
-20
30
-14
-6
4
6
46
-43
29
-10
1
-7
1
23
17
33
-31
37
1
13
-5
-6
27
-20
-16
-98
13
4
18
18
-26
57
18
60
-3
-1
-3
-6
-33
-31
-1
-13
7
-9
-3
-15
-32
-6
4
42
-6
-14
-8
41
-20
-13
1
17
2
12
-2
-48
95
-48
-39
-11
1
-25
7
10
-6
4
20
-14
-8
5
5
-18
-12
31
8
-11
13
28
3
4
-104
-5
-4
-17
-1
-8
-4
-25
5
29
17
11
-4
1
-13
-4
-16
-7
-9
17
2
7
16
-8
32
23
-14
-59
-16
-23
-27
-23
-29
-5
-13
48
-4
8
9
27
-56
-41
16
-32
-17
-14
-22
-30
-4
70
-19
27
27
13
13
8
27
-23
-3
21
1
-3
-10
1
51
59
11
35
2
-1
-4
19
-66
-17
2
-75
-3
-5
-8
-31
90
19
-10
18
-17
-18
3
8
-73
9
-41
-34
-3
9
-15
-16
-33
23
13
28
-5
-5
16
6
65
5
25
12
8
11
-1
14
6
-42
-38
-22
16
11
-3
-8
-29
13
5
0
-4
-14
-18
8
30
-18
-7
-10
-2
-5
25
-12
-73
-37
-10
5
1
10
-4
-12
27
-29
7
-2
-16
-11
-6
2
-69
43
5
-7
-14
-5
9
-20
-49
-14
5
8
2
-3
-28
4
84
9
10
9
-6
-15
1
8
-10
-2
-4
-7
3
13
15
15
-21
-66
-13
39
16
9
15
38
58
22
20
-31
-3
0
-25
-33
5
53
-8
22
3
5
14
8
-32
37
-15
-47
1
2
-13
-9
44
5
11
-32
-2
-13
7
19
-47
-5
-1
2
6
12
15
-25
94
5
-41
21
1
-6
-4
36
-37
-24
49
8
-1
11
-2
-59
-28
81
17
17
2
-9
-14
-1
51
13
-5
-6
-8
-5
17
53
-54
13
6
-14
5
12
-2
-7
-32
-18
-24
16
-10
-1
3
-7
28
17
16
-15
-31
-8
9
-1
17
-34
7
-15
-1
5
-12
5
-17
3
5
53
13
-4
6
7
-21
3
-1
13
-2
-11
-3
5
2
-1
17
-25
-10
5
2
3
-14
38
-20
10
0
-5
3
6
-99
-85
4
-23
-7
-3
-36
-62
34
24
-19
-31
2
9
12
18
-52
-66
-38
-49
2
-10
-5
10
13
5
38
16
6
3
3
-20
-1
10
-34
19
3
3
11
24
-19
-3
13
8
-11
-8
-13
-20
-18
25
-4
-4
18
1
-6
-19
25
-13
3
-26
2
-3
-10
8
-6
-26
11
-14
-1
-10
28
20
29
20
-8
20
-2
19
-33
-19
36
-90
-4
-25
-11
-11
1
0
-3
-3
-25
-15
3
0
-10
-9
42
28
3
25
-16
0
10
8
15
-8
13
-11
1
-4
34
28
14
-30
-17
17
9
8
-7
-23
8
4
11
23
-7
0
-1
21
-80
-26
-6
-46
-17
-16
-20
-25
25
-23
-8
22
5
7
7
32
-20
34
22
29
7
4
-13
-36
22
-18
-15
-20
-11
-14
8
42
-23
15
-4
-13
6
8
1
-36
50
-14
8
-3
-2
-12
-8
-6
0
-7
5
-29
-9
5
17
3
-34
-10
-19
-7
-3
-2
-22
-36
67
27
17
24
16
10
3
46
-93
-36
-17
-12
-7
-17
-18
-35
9
-22
-3
-2
-18
-5
22
22
-12
15
12
0
5
4
0
3
17
-5
19
-30
5
2
-3
-16
20
43
-14
29
1
-12
6
18
-24
30
-3
33
8
11
-13
-23
53
-15
12
25
-16
6
20
47
-17
-11
-27
-60
9
-1
-30
-22
-2
9
8
14
10
0
7
12
-43
13
-11
25
9
-5
-4
-16
49
34
7
16
-2
-1
-9
3
41
1
7
-1
-15
-1
17
4
18
-8
-8
-42
7
-1
-4
6
-32
-15
-32
29
5
-6
-16
-14
-16
-4
3
15
9
9
6
-3
18
19
22
4
4
6
18
35
-9
17
-8
-27
-17
-5
-2
-15
-7
-2
-6
-4
-5
-9
-10
1
64
-1
-21
19
0
7
33
37
31
-22
8
-11
-1
-2
-43
-21
-34
-13
27
-5
-1
0
1
-31
29
23
0
25
6
3
17
23
-20
-38
-13
-3
-8
-11
-14
-11
-65
-53
14
21
6
5
11
15
13
-17
-45
-21
-12
1
-2
-9
14
24
39
25
4
0
-6
6
6
4
5
10
-10
-9
1
-4
-39
12
6
34
3
0
7
7
4
1
-2
-4
1
4
-5
22
26
-8
6
-4
1
-1
5
-5
-2
4
-2
5
0
-4
-12
-22
-46
49
2
-15
-9
-10
2
-18
-32
-26
4
-2
-3
0
-4
12
100
1
-7
-6
-3
1
-4
-1
-61
-20
13
-23
8
-4
1
-6
21
14
-22
4
-4
4
27
4
35
-3
4
9
-3
-15
-35
2
-7
-10
5
-7
7
32
9
1
-12
1
0
-10
7
3
8
11
-17
-2
-15
-9
-4
-6
-16
-40
9
-18
-14
17
-2
-13
11
14
8
-14
1
-19
-18
-10
-5
-1
-49
-5
7
-13
12
1
-12
-9
-22
-4
8
7
-5
-7
4
17
-9
9
-28
-4
-1
4
3
-10
-1
16
8
-17
-5
-6
-4
-5
-56
15
-5
-9
-4
3
6
-9
68
16
0
6
-4
-4
-10
11
-5
-33
7
-8
6
8
3
-2
-51
11
8
0
8
-4
2
-6
8
7
7
-1
-1
-2
1
-14
23
-11
-26
0
3
0
-11
-2
22
18
6
4
-5
-2
4
6
-7
-4
-11
-2
-2
-4
7
1
18
-11
4
-2
2
7
-15
-4
12
4
-2
3
1
6
12
0
-8
7
11
5
2
2
3
9
1
-21
-8
-6
2
-6
-5
-6
19
10
-4
-9
-5
-11
-7
-6
-11
-17
-1
1
-2
3
-2
-4
-6
16
6
6
-1
0
6
1
14
1
0
-1
1
-2
-5
-3
19
1
-3
-2
-6
0
0
2
-3
-5
3
14
2
0
0
-5
-3
-5
8
-12
4
7
3
4
-6
3
0
-3
1
0
-2
0
8
3
-2
-2
-1
2
-4
-2
-10
4
0
-5
-4
-6
2
-1
-2
7
-3
4
-4
-1
-1
-1
-1
4
-4
-4
0
0
-2
-1
-5
-1
-1
-2
4
0
1
-2
2
-2
1
1
4
-1
-4
-2
5
-2
-2
-5
-3
-1
-1
0
-8
-1
0
-3
-2
-3
-4
-2
0
-6
-5
-4
-6
-4
-4
-1
-5
-1
-2
-3
-2
0
4
0
0
6
-1
5
0
-2
2
-2
-8
-3
2
3
2
10
6
1
-1
-4
-1
-1
2
-2
-9
-1
-1
-3
-3
-1
1
-2
-1
-1
-4
1
2
0
-4
-1
0
-2
-2
-3
-2
0
2
0
2
1
4
-2
5
-2
-4
-6
-1
1
0
-2
-2
-2
0
-1
-6
-1
-1
-4
-14
-3
-2
-7
-7
-4
-5
-3
15
0
-5
1
7
2
1
-4
-37
-13
-3
4
-6
-6
-2
-1
0
4
3
-2
8
9
-2
-5
2
5
0
-4
-12
-13
-1
3
11
1
-1
-3
-14
-2
0
0
27
4
0
1
13
0
-1
-2
-3
-5
-4
-7
-14
-5
4
4
5
0
0
8
20
6
1
-4
-16
-3
-2
-6
-4
0
-7
-3
14
2
1
1
-3
-3
3
2
-2
2
4
-2
-4
-1
-4
-11
-24
-10
-3
4
2
5
-4
-2
2
0
-2
-3
-7
-5
0
5
-7
-5
-4
-2
1
3
2
-2
9
-3
-3
-15
1
-3
2
7
14
12
4
10
-7
-3
-3
-4
-18
-5
0
4
-4
1
-3
-6
-5
-6
-2
-5
-2
-2
-4
0
-3
-2
1
9
-6
-3
1
6
0
3
1
-2
14
5
-6
-13
-16
-11
-11
-21
-10
-2
-5
2
27
-1
-2
9
11
9
1
-2
2
-4
-1
0
-3
-5
4
9
31
0
2
-15
-10
2
-4
-16
-82
-2
1
12
-11
-8
-1
-3
2
4
-12
-9
1
0
2
8
30
13
7
13
17
6
-5
-14
-48
-9
-4
-2
-27
-2
4
19
39
0
4
0
31
2
1
-9
-22
-9
-1
-2
-11
-6
2
3
4
5
-4
-11
9
-2
2
6
11
4
9
12
6
3
-1
-5
11
-4
3
2
-5
0
0
1
-29
-2
2
6
4
-1
-3
-6
-8
-3
-7
-7
-4
-1
-1
1
26
3
-3
-19
-10
-4
-2
-10
-54
-17
-7
5
-13
0
-5
-1
53
5
-2
-2
12
-3
3
6
18
20
5
-6
-7
1
-2
-5
-40
-15
-9
-3
-8
-1
4
0
40
20
3
18
29
1
8
4
-68
-14
7
4
1
0
-20
-18
32
6
-17
-7
-13
-6
2
6
36
5
7
1
8
-2
2
17
54
27
4
-15
-8
-1
2
-1
-16
-17
-4
-2
3
2
1
1
-54
-27
-1
2
-4
-5
4
-1
7
11
-2
8
6
6
-22
-22
-23
-13
-14
-13
-26
-13
9
17
52
21
2
-18
1
-4
2
-7
-58
5
8
23
20
13
1
-7
18
-25
-9
-1
6
-9
1
-7
-25
-6
1
2
2
1
-5
-4
-56
-13
-5
-12
-15
0
-2
5
27
1
-1
-2
-5
-5
3
5
14
7
6
4
6
1
1
6
34
5
-1
-5
1
5
1
8
49
-1
4
6
-2
0
-7
-24
-64
-18
-13
-4
-7
-3
-1
8
37
17
5
2
9
1
2
3
-29
-2
2
3
-5
-2
-4
3
31
4
2
4
-3
-1
3
9
-3
9
5
1
-3
-2
-6
-10
-41
1
-6
-9
-2
-4
6
1
13
-17
-1
-3
8
3
-1
-9
-2
-9
-7
-8
-3
0
-4
-12
-67
-26
-3
11
-3
-4
-8
1
-18
3
-3
3
-2
3
3
11
68
24
8
0
10
-9
-6
-9
26
2
-3
13
4
-1
0
-5
-4
-20
-4
-5
-5
-2
-4
-5
-43
-9
-7
-4
1
-2
-1
4
10
4
0
1
-7
4
-2
-4
-26
3
2
-3
-2
1
6
14
42
7
2
-3
-3
1
-5
-11
21
-1
-7
-5
-4
-2
0
0
-24
1
0
-2
-1
1
-2
-3
-13
-6
1
4
0
-2
-4
-3
-27
10
2
4
4
1
0
-2
-10
-9
-7
-3
-12
-5
0
3
-2
-3
-7
-3
4
1
0
2
-2
26
10
5
0
1
1
2
-7
-25
-1
0
3
0
-1
0
31
7
1
-3
2
-2
-1
0
-2
3
-2
0
-2
2
2
8
33
8
-2
1
-3
0
-3
-15
-2
6
-3
-10
-9
-2
-4
-10
-78
-33
-14
-19
1
-4
0
5
21
5
4
27
12
5
-2
-4
-20
-5
7
1
2
0
2
10
63
19
9
5
6
-1
-3
2
-25
-5
0
-4
2
0
-3
-6
-8
-9
-4
-11
-7
-2
0
2
-7
-17
-7
-4
-3
-1
-1
-5
30
15
-3
-2
1
-4
-2
4
39
20
6
2
-1
-2
-2
-2
-34
-12
3
1
-4
0
-4
-2
3
0
-3
1
-3
-1
4
4
-2
-2
2
-1
0
1
0
4
28
-1
-2
3
0
-2
-1
-4
10
-6
-6
-8
-5
-3
-3
-11
-33
-2
-3
-5
-4
-5
-1
1
-24
-18
-6
-9
1
1
3
4
23
12
7
19
6
3
2
6
16
4
2
-3
0
1
-1
-4
-5
-3
-1
2
-9
-2
1
-1
22
-4
-4
-4
-2
-3
-6
-13
-34
-8
-7
-2
-5
-4
0
0
-14
9
2
-4
1
-1
0
-3
-1
-2
-2
-2
2
0
-1
3
15
12
3
2
-6
-3
1
6
6
-10
0
4
-1
2
-1
-6
-15
-3
3
0
0
-1
1
-4
1
-4
1
-3
-1
0
1
4
14
12
-2
1
2
1
-1
-2
-14
-2
-5
-2
0
-2
-1
-4
-1
-4
0
-3
-3
-1
1
9
0
3
-5
-2
-1
1
-3
-8
8
-6
4
1
0
-2
-1
1
-7
5
3
0
-1
-2
-3
-2
-4
0
-3
-1
0
-2
0
0
-3
-9
-5
-3
0
-2
-2
1
-31
-4
-5
0
0
0
1
-4
1
4
3
-1
0
0
0
0
4
-8
-3
-4
-3
-2
-1
0
12
9
0
1
0
-1
0
-1
-8
-4
0
1
2
-1
0
6
29
5
6
1
0
0
-3
-1
-2
5
-5
-5
-1
-1
-1
1
-13
-10
-1
-2
0
-1
-3
-8
-14
-5
-2
-2
1
-1
2
4
13
-6
-7
-3
-1
1
4
-1
-4
13
10
2
0
-1
-3
-2
4
1
-1
-2
1
-1
5
2
7
8
1
4
-1
-2
-19
0
-7
9
5
1
0
0
1
-5
-4
-21
-7
-3
0
-3
1
-5
-4
0
-4
-2
-3
0
3
4
-1
-4
-2
-3
-2
1
6
1
1
-6
5
0
0
2
-2
-2
-8
4
-2
0
0
1
-1
1
11
8
2
-1
-2
-1
-2
1
4
0
-1
0
-1
-2
1
-2
-7
-4
-5
-5
-3
0
0
0
7
-5
-5
-3
-1
0
-2
-1
14
10
10
3
2
1
-7
0
-17
-1
-4
-2
-2
-3
-2
-5
-2
3
-1
0
-1
-2
1
2
8
2
1
1
-1
-2
2
-5
-4
-11
-2
0
-2
1
3
7
-2
-5
-2
-1
-1
0
0
1
6
8
-6
-3
-3
1
-1
-3
-8
-9
3
-1
-4
-3
-14
-4
-14
-1
-2
-2
-1
-3
-2
-8
2
11
4
1
0
-3
20
0
-6
-6
-1
-1
-1
-1
-6
3
-3
-4
-2
1
0
2
1
3
-3
-5
-1
1
0
-2
-10
1
2
5
3
2
-1
0
-8
-4
-4
-6
-1
1
-1
-1
2
-3
3
-1
-3
-2
0
1
4
-1
-2
-3
-4
-2
4
2
13
3
9
2
-5
-3
-2
1
-1
6
0
0
0
0
2
-1
-15
-5
-12
-19
-5
-1
-3
-2
-9
-10
-2
26
11
3
-1
0
18
0
5
-3
-6
-2
3
3
6
7
4
-5
3
-2
-2
-1
0
-11
16
9
0
-3
-2
-6
-10
4
-2
-11
-7
-3
0
-4
1
-11
-12
-2
1
1
-2
-1
0
4
-1
-7
5
5
5
5
6
3
-2
3
0
2
3
3
-13
0
-4
-2
-6
0
-2
-3
1
4
-1
19
11
4
0
1
-23
-14
1
-9
-6
-3
-5
-1
-12
-5
1
-14
-7
-3
-2
-3
-26
1
1
7
-5
-3
-12
-7
66
1
4
8
4
-2
5
7
-18
-5
7
-10
1
0
2
3
45
5
-16
7
0
3
-4
-9
-42
2
-20
-11
-6
-6
1
-1
-82
-16
32
1
-2
2
2
-5
94
2
-7
1
5
-1
-5
-1
-48
-8
-1
-12
-1
-2
-3
-7
33
-9
-17
-1
-7
-3
-3
9
-39
16
28
13
4
-2
0
1
29
-12
-42
-1
-3
-4
1
-9
56
12
38
-9
-3
-1
-7
-2
51
30
-34
15
3
1
11
15
-31
-38
-10
2
-6
-1
-8
-15
-17
-45
-5
-31
-8
-12
-11
-15
37
29
-10
-4
25
6
6
19
-20
-36
51
-11
-11
-17
-16
-32
67
18
-26
-17
-19
-19
3
-21
-87
-7
23
2
1
30
6
8
-18
8
18
-5
-10
-11
-12
-18
127
71
-20
41
25
20
5
41
-90
28
-20
-19
13
-6
-2
-5
40
0
-11
-14
-23
-11
13
30
-57
36
16
49
-2
5
-3
-14
-26
-13
5
-59
-19
-11
-8
-20
11
-61
-25
-32
12
0
-23
-21
104
-93
2
63
8
3
12
40
-53
-31
7
0
-36
-17
-2
-1
33
47
-45
24
19
12
15
17
55
55
-13
-8
-24
-16
-16
-27
-74
-46
67
-2
9
2
7
2
48
48
-32
-40
-8
3
-26
8
-128
-113
27
-58
0
-1
-4
-48
115
56
-1
60
16
-1
3
39
-83
80
-71
-27
-8
-1
1
-1
-21
-12
20
-24
-1
-12
0
-15
-50
98
16
43
11
42
31
17
34
-28
18
-36
7
-5
11
35
-107
98
0
17
1
-26
-37
-36
-5
-25
-32
32
16
19
49
34
108
56
33
-16
-42
-17
-31
-62
-75
-128
-12
-29
1
24
4
-3
20
-50
-56
-6
-12
-2
5
-14
-67
31
31
-1
44
39
38
36
71
24
31
60
-22
-21
7
57
-4
20
-13
-47
-21
-7
-6
-31
36
25
2
7
26
0
-14
4
-66
78
-25
-16
-28
-19
-12
-12
49
-126
-70
-97
29
-1
-27
-22
-31
18
53
98
23
18
19
19
81
-3
-40
-1
-12
-12
1
0
-6
-48
-13
11
-12
-5
-16
-12
-26
67
41
-15
-9
1
28
57
-90
58
-11
-5
-5
-19
-41
-28
30
4
66
73
13
25
31
-25
11
-8
-13
38
-15
2
17
-16
49
-37
-9
-55
14
15
-25
13
57
8
28
-30
-7
-20
23
22
-11
27
43
5
2
8
-30
3
114
-54
-75
-6
-8
-4
-10
-23
-127
42
32
62
12
7
24
7
77
85
-6
-9
-16
-6
-16
-29
-37
-101
13
29
-13
-12
-19
-36
53
-34
-11
-97
-9
-14
-4
-4
-16
-118
8
81
8
7
25
16
12
16
-24
64
-11
-3
-7
31
-70
9
-4
-38
-13
-23
-31
-23
61
-21
44
19
-1
-20
-30
-17
-2
-111
-42
2
-6
5
12
-23
1
13
6
-26
-7
4
5
4
29
-1
-19
-28
16
15
28
29
-100
-34
4
4
-3
-24
-3
-8
42
121
11
19
-12
-23
-68
-24
32
-56
-7
21
14
8
6
5
-9
-34
-13
0
0
10
34
26
-62
74
38
32
17
-7
13
-38
-47
27
-22
14
-1
8
-2
-4
5
18
-7
-9
-10
18
4
45
99
41
28
60
15
10
-9
15
16
110
36
-13
-6
12
4
40
-50
-86
-6
-53
15
1
-2
-20
-62
51
17
36
-4
-16
3
-31
51
45
-57
-56
18
3
8
28
-43
-84
3
14
-16
-10
-20
0
13
-9
-2
-11
-5
-5
3
-11
-37
-39
-2
5
-16
-2
2
0
-3
24
-13
-56
9
6
13
-6
10
26
5
39
20
12
11
23
31
14
28
-15
-6
-6
-18
-19
-53
-76
-15
-2
12
4
29
-12
-25
61
29
44
-9
-16
-29
-4
-26
-46
-11
-9
2
31
-13
-11
71
-52
-1
-46
-5
-8
32
50
-18
-43
-4
-17
-34
-10
2
-32
-87
19
-14
-50
19
10
-12
-35
59
-2
10
19
9
-9
-6
27
-45
24
-10
37
-8
-16
-14
1
-21
1
-46
-45
-8
15
14
-3
22
-27
36
30
-5
-5
11
11
-67
-63
-79
-59
15
3
1
-5
14
57
37
36
5
-2
-4
-14
40
9
-3
39
11
1
-1
22
22
-29
-24
-23
-29
-18
-37
-38
-1
-37
54
3
-6
0
8
1
53
17
-24
-12
2
-19
27
32
-2
35
12
12
15
9
-34
-19
-23
-5
-32
21
-8
16
17
-14
89
26
15
-5
-1
0
21
13
-32
-9
-32
-32
-7
1
-25
20
-52
-15
8
-3
10
0
53
53
-17
-17
25
-24
-9
0
-35
-56
-6
16
-2
51
11
0
-7
-3
-48
-48
-24
-29
-38
-9
-9
-26
-66
-63
-11
8
31
6
-7
-11
22
41
37
4
5
1
14
26
20
-19
-76
-40
-6
-6
-2
14
-62
50
25
9
-4
-3
-9
-28
4
27
-19
29
0
0
-21
-12
-25
35
36
4
-19
-8
9
9
12
-91
-59
-43
10
-1
7
17
-44
-7
0
-32
-1
-17
-18
-16
20
2
27
-33
3
14
18
-15
3
21
-13
43
-3
5
-14
6
-51
-6
25
11
-14
0
-8
-30
-7
-41
-6
13
1
0
28
-21
78
2
11
-25
-3
-6
1
24
-1
-21
-11
-24
-9
-15
17
31
-2
2
-7
20
-9
1
-2
16
2
-61
-2
3
5
2
-5
-10
-20
13
33
28
30
-6
-26
-26
7
-14
-35
17
0
-3
11
4
-25
8
9
43
0
1
-2
-6
56
4
-18
-15
16
7
13
19
7
-17
-36
5
-10
-4
-32
11
3
47
47
-4
6
-4
-6
-10
-38
18
6
10
11
8
3
2
13
61
27
25
-5
-2
25
15
18
23
-35
-66
-19
1
-14
5
-24
-40
-13
-21
10
-8
16
-15
6
32
12
24
4
7
-22
-8
49
38
16
25
13
20
30
58
-16
-15
-9
-52
-19
-14
-26
-74
2
-59
-9
-34
4
-1
0
24
68
16
3
7
-4
-4
3
12
-53
44
-5
13
4
1
-11
-20
63
14
6
-7
-17
7
21
16
21
-52
6
-10
-12
-4
-7
19
42
39
17
-33
-3
-7
2
-15
-54
-9
-17
-1
3
1
-15
-14
-4
-1
-6
32
-10
-10
3
-10
31
38
12
-13
-23
-5
13
0
18
-31
-36
17
18
10
-7
31
-62
-29
27
9
-1
0
8
-24
-18
-38
15
-7
-2
-11
-17
-12
-15
-2
-32
10
-9
-5
2
6
2
35
11
-24
-11
1
-9
-28
4
14
11
-21
-9
-4
0
5
-51
29
-2
35
17
9
2
23
-38
0
13
31
9
2
10
-28
71
4
0
-11
-16
-9
-26
-7
102
21
14
34
4
-3
0
20
-28
-53
-6
-27
-7
-1
21
-7
16
-20
-9
-13
2
-4
-35
7
-8
-15
-1
12
-6
-2
41
19
-42
18
2
42
-4
2
-34
-63
47
23
8
0
15
-9
-4
34
-15
34
-6
-34
6
7
10
-17
-59
-26
29
1
5
1
1
-8
-14
-34
-59
-20
-14
-3
-16
-30
-13
-4
-9
25
10
0
2
5
3
5
-11
13
5
-1
-1
-4
26
44
39
15
5
-4
-9
2
-5
3
-2
-11
-6
-7
6
3
-8
54
9
0
11
14
12
19
29
34
-5
-7
-22
-17
-4
-14
-29
-56
2
11
0
-16
-6
20
21
13
-7
-10
14
22
-30
-34
36
16
11
9
-7
22
44
6
30
-5
-2
30
10
9
-9
14
11
-10
-18
-33
-17
-11
-8
-2
-29
-4
1
-25
-1
-15
19
39
13
0
-2
2
-6
-7
-25
-21
-19
-37
-4
2
-8
-4
3
6
25
35
15
31
3
1
4
-9
-11
-1
-16
-19
-19
-10
-6
7
-8
-14
-17
-27
14
4
-4
-29
6
-12
7
58
11
3
7
18
-27
-4
-8
-34
8
3
-6
-31
23
-19
6
18
5
6
15
38
31
25
-12
19
-11
-8
-1
-4
-85
-21
7
-34
-14
-5
-12
-16
-19
64
15
0
0
-7
-10
9
39
11
13
28
5
5
10
28
7
-4
-1
-17
-3
4
14
-64
-6
-1
14
-2
5
22
16
54
-52
0
-5
-15
-4
1
-32
-31
3
-21
-21
-3
-1
-8
2
-17
-10
32
53
16
-18
-21
-8
50
70
12
-49
-51
1
3
-2
-8
20
3
2
21
-1
-1
20
20
-55
-7
10
25
-1
-2
-15
-5
-6
-3
15
10
3
6
8
29
76
8
8
-9
-3
-7
-8
-2
-42
-41
-26
-34
-3
1
-3
-25
21
33
-6
1
2
1
0
4
11
33
-7
13
-9
2
-1
38
-95
-36
-5
2
-2
-8
-13
-76
25
-8
13
-24
-16
-9
10
2
-48
-17
1
26
16
-3
-9
2
59
-12
-32
3
-8
-4
-14
-6
-23
49
27
8
-1
16
-6
-14
-12
-66
3
-41
5
3
14
13
2
30
25
18
-7
1
15
-19
-21
-53
-15
-12
5
-8
-32
3
57
10
-1
8
-3
-5
12
41
-8
21
-7
13
-6
-1
-4
-29
3
-25
-8
-32
1
-3
-18
12
-10
9
-1
33
3
-2
5
2
-68
-26
1
-7
3
3
13
10
27
6
0
12
3
4
-6
-15
8
12
2
-14
1
-1
2
-13
38
-1
-6
7
-4
-5
2
9
-64
-5
18
-13
-2
-3
-17
-18
17
-12
-20
2
-2
2
8
10
8
-16
6
-11
-2
-2
-1
3
-43
-6
12
-4
0
-3
-4
-20
6
7
8
3
1
-6
3
12
21
0
-25
2
11
10
6
15
34
-11
-6
-20
-1
1
-3
-12
-87
-13
-1
-17
-1
1
9
16
28
-7
5
-1
-2
-5
-13
-20
-28
17
15
22
3
4
4
-8
21
-30
-6
-7
-5
-4
9
2
9
-27
-4
-16
0
2
-9
1
9
-10
0
16
0
0
3
4
-11
0
-4
6
-3
-1
-2
-1
5
19
-5
-7
1
0
5
7
-3
10
3
1
0
-4
-5
-11
-9
20
-1
1
3
-3
0
-3
7
24
-7
4
-3
-2
0
8
-6
14
6
-6
-2
-3
0
-1
-8
-11
-4
-15
-7
-8
-7
-12
7
4
-15
0
-3
4
3
0
0
-1
6
1
0
3
4
8
2
3
6
4
2
2
0
-2
-4
1
1
-11
0
-2
-5
-8
8
6
-5
3
3
0
1
8
-1
-4
2
7
0
-2
-2
2
-10
-8
-8
-3
-3
0
-2
-6
2
6
2
-3
-1
-1
0
-2
0
-4
-8
-4
-4
-7
-1
3
-2
-6
-1
-3
-4
-3
-2
-3
3
6
5
-1
-1
3
1
-2
1
-3
-4
-6
1
-4
4
-1
2
-4
5
3
1
14
-2
-1
2
-1
3
-2
-3
-9
-8
2
-10
5
-4
3
2
11
9
4
-3
-5
-1
-1
0
3
-2
-6
9
1
-4
-2
1
-3
5
1
-2
0
-3
-1
-1
-6
-6
-1
-2
-7
6
-2
-4
-5
-4
-1
-5
-2
-7
-1
0
1
-5
-3
-3
0
5
-1
1
-1
1
0
2
-9
-28
-10
-4
-5
0
-2
0
0
26
9
-4
4
6
3
3
-3
-9
-2
0
2
5
-5
0
-4
5
3
-3
-10
-8
0
-3
-2
5
4
0
-3
-3
-1
-2
1
1
-4
0
7
-1
-4
1
0
4
-6
-1
-1
0
2
-3
1
16
-1
-1
-2
6
-2
0
-5
-38
-3
-3
-4
-3
-3
-3
-4
-16
-7
-4
-11
-7
1
-1
5
17
-1
0
3
4
-1
2
2
-9
-2
-2
-5
-9
-1
-4
3
18
6
3
1
-3
-2
4
-1
-7
7
-1
-10
10
0
-2
1
-5
-3
6
23
0
1
-4
0
2
0
1
-7
2
0
3
8
17
2
2
4
-9
0
-1
-14
-29
-9
0
5
-4
0
-6
-3
-19
-7
-13
-4
11
-10
4
4
19
-3
-3
1
-2
1
-5
-6
-23
-1
-3
0
2
1
-1
1
18
5
-3
-13
-6
-2
2
2
14
12
2
-10
-20
-2
3
-3
-26
-17
1
11
6
4
-5
2
17
-1
-2
-3
0
-3
3
-4
-19
0
0
1
-2
6
-1
-1
8
5
0
4
2
-2
-2
0
10
9
4
-3
2
-1
7
5
0
0
1
-8
7
6
-5
-3
2
-3
-4
0
-15
-14
6
-3
-6
-7
-4
4
12
6
-21
-11
-21
-6
-5
-1
-10
-5
3
4
29
3
3
11
5
-2
4
11
24
9
4
0
-1
2
2
-4
-19
-7
2
-10
-7
1
-11
-19
19
-15
-13
-10
-8
-8
-4
0
-4
-2
-5
-2
3
2
-2
-1
7
10
-2
0
2
-1
5
14
79
13
11
3
1
2
5
2
-75
-8
5
3
5
1
2
5
11
6
0
-5
1
4
-13
-23
-22
-44
-17
-10
-9
-12
-12
-4
23
19
-5
9
-6
-2
10
15
20
22
7
-7
4
2
-2
-1
12
6
3
5
-20
-9
8
16
-13
-9
3
15
24
5
-3
-9
-49
-20
3
0
-3
0
-11
-10
-5
2
-10
-9
-1
-6
0
7
48
5
0
-2
-4
-2
4
-4
21
7
-1
-11
-10
1
1
3
-14
-9
-3
-2
-1
-2
7
8
31
10
3
8
7
4
0
-5
-59
-2
1
-5
4
-2
1
-5
-30
-17
3
4
-3
-2
-3
-4
9
30
-10
-13
9
1
-4
4
-4
-7
-5
-3
-16
1
-3
-6
40
6
0
12
10
-2
1
4
-32
-7
1
3
-11
1
3
5
49
11
5
0
2
-3
6
-5
-40
-6
6
-7
-4
1
-16
-23
-16
-35
-23
-16
-12
-10
13
11
-5
26
5
22
34
15
-3
2
-27
-6
7
7
6
-10
0
-2
32
0
-4
-1
-7
-3
4
4
-23
-10
8
-3
4
3
-3
-12
25
-2
-5
-14
-12
-6
0
9
15
-9
-5
-7
-3
2
3
-7
-48
-5
0
2
3
1
3
4
-39
17
7
7
9
2
-7
1
70
24
1
1
-7
-4
-2
-8
-29
-17
-6
-5
-2
2
-3
2
28
4
0
-1
-2
-4
-1
-6
-37
-27
-6
0
-7
0
0
11
19
7
0
-3
-2
-7
-3
-13
-26
-11
-4
-4
-9
1
-6
-1
36
23
2
3
7
0
6
17
22
23
13
8
5
1
-9
-21
-84
-48
-12
-8
-7
-3
4
6
25
9
-1
-5
4
-1
-7
-11
-50
-20
-8
-8
1
-3
2
4
54
8
1
18
-1
5
4
7
6
7
5
3
0
-2
-3
-7
-27
-14
0
-7
-5
-1
-1
-1
31
-1
0
5
3
-1
0
6
-1
-1
0
-3
3
-2
-5
-11
2
-2
-6
-6
-6
-2
-1
-6
-27
-12
-5
-4
-6
-1
7
14
17
19
1
-3
7
1
-4
-7
-20
-18
1
-3
-19
-3
0
11
23
31
12
10
6
2
-4
-5
-16
-8
1
1
0
2
0
0
-11
-8
0
-1
-5
0
-2
-10
-46
-24
-18
-14
4
-3
-4
-7
3
17
2
-6
-9
-4
-1
5
13
5
-3
3
-1
-1
1
-2
-26
-6
9
4
0
-1
0
-1
30
11
-2
-2
6
0
-1
-2
16
-7
-5
1
-8
-1
-1
-7
-27
4
-5
-3
-3
-3
-1
1
-5
-1
-1
0
-3
0
0
2
-11
6
6
-2
-7
-1
-4
-2
-29
-14
-9
-7
12
-3
-1
-2
23
9
3
1
-9
-2
-2
0
10
-4
-4
4
-3
-1
-1
0
18
0
2
-3
2
-1
2
-2
-33
-9
1
2
-1
1
-4
-1
10
-5
-2
-5
0
-3
1
3
11
18
1
0
5
0
-3
-4
4
-11
-5
-2
-6
-1
2
6
6
9
1
-2
-4
2
1
-4
-43
-17
3
2
1
-3
1
-2
17
0
-1
-4
-2
-3
-1
3
13
5
-4
1
12
2
0
2
17
-1
1
0
-1
-1
-2
-4
-2
2
-1
0
2
-1
0
-3
-6
-9
-3
-1
2
-2
-3
-1
-12
9
-2
-4
-5
-4
5
9
17
-2
3
2
11
1
-2
-4
-20
-5
0
-4
-15
0
-3
-6
-21
-8
-6
-3
6
0
-1
-4
9
5
-3
-12
-11
0
2
-2
2
-1
1
22
15
-1
3
9
25
2
-3
-4
0
1
1
2
3
12
7
4
-9
-1
-5
-9
-22
-19
-8
-14
0
-3
0
3
13
11
0
-13
-11
-2
3
3
-40
3
6
15
15
3
-7
-10
33
-6
-8
-6
-4
-3
1
2
2
-11
3
9
6
1
-1
3
6
11
-1
-8
-9
-4
1
2
10
-13
-12
-5
1
-3
0
0
-10
-3
5
-1
-4
1
-4
-5
-19
19
9
4
2
0
-1
1
-6
-12
-3
0
0
0
0
2
17
3
2
-1
-2
-2
-1
-3
7
-3
-4
-2
2
0
0
-2
10
-9
-5
4
-1
0
0
-2
-21
9
0
-5
-4
0
-1
0
20
8
2
-2
3
0
1
-1
-12
-12
2
0
-2
-1
-1
2
8
0
-1
3
2
-2
-1
-9
-21
-5
-5
-4
-5
1
0
-3
15
2
0
0
2
-2
2
5
-5
-6
-3
1
0
-2
-1
0
11
6
-1
0
-2
-1
-2
-4
-19
1
-3
-3
-3
-3
-1
-1
19
-7
-4
-5
-2
-2
-2
-1
-18
4
2
4
2
0
-1
0
11
-11
-1
3
1
0
-1
-2
-5
2
3
-1
-1
-1
3
-2
-2
3
0
0
1
0
-13
2
-2
6
-1
-1
-4
0
-3
-7
0
-5
-5
-2
-2
-6
-2
-4
1
-14
-3
-1
-1
-2
0
2
-16
-9
2
-1
-4
-2
5
3
17
4
-3
-1
1
2
2
0
-14
-7
-6
-4
-4
2
0
2
14
10
4
1
1
-2
0
-3
-1
5
2
-1
2
0
1
3
0
-4
0
-3
-3
-1
-3
-1
-10
0
1
0
-1
0
0
-1
7
4
-3
-1
0
-1
-3
-1
-1
-8
-1
-2
-2
0
6
0
-5
3
1
2
0
-2
-16
-1
-1
-3
-1
-1
0
-2
0
-5
-8
2
4
1
0
-3
-1
-4
10
8
1
-1
-1
-1
-3
-2
-17
-7
-6
-2
0
1
4
4
5
7
4
4
3
0
6
-1
-10
-15
-3
-3
-3
0
-15
-1
4
8
-7
-5
-4
2
9
-2
8
-5
0
-5
-3
-2
32
1
-16
-4
-2
1
1
2
-23
0
0
1
1
2
4
2
-3
-7
-9
-14
-3
-1
-1
-5
-9
-4
-6
0
-2
-1
-1
-1
-30
-7
9
6
-7
-7
-7
-7
2
11
2
2
0
-2
-3
-2
1
-6
4
4
3
5
3
5
5
2
3
-2
-2
-2
4
2
7
0
-9
-5
2
2
-3
2
22
-4
7
-4
-1
0
-3
-6
-46
5
-10
5
-4
-4
-3
-6
6
-8
0
-7
3
4
2
2
-11
0
1
20
-1
1
4
6
5
-6
-5
-15
-4
-4
-1
-6
16
24
-2
-2
0
2
-1
5
10
-13
-11
10
1
-1
1
1
25
-8
9
-10
-1
-2
-7
-13
17
4
-5
-11
-2
2
3
4
-7
-16
11
1
3
-6
-1
-4
-17
9
7
-1
-5
-2
-2
-8
-2
9
-5
6
5
2
0
4
-10
-5
-6
-2
-10
-3
0
3
35
13
22
4
3
2
7
4
-13
2
-16
22
8
-2
-1
5
12
10
22
-11
-2
-3
-2
-6
-44
4
-7
8
-3
2
0
-1
-53
-9
7
17
4
2
3
-1
46
-8
-39
-18
-2
-3
-4
0
-57
-15
11
-32
-13
-11
-7
-17
-40
-16
-1
17
-5
-1
-3
-7
70
-5
-37
-31
23
10
2
3
9
28
48
-4
-14
-8
0
7
-45
4
-22
26
9
-24
-8
-1
75
12
19
24
5
37
12
8
-53
-30
16
-5
-13
0
4
-17
-65
-24
-32
-15
7
12
0
-4
83
5
7
0
-9
-3
5
10
-33
13
-7
49
19
-12
-10
3
-65
-35
-20
-3
-12
-14
-9
-6
80
-15
28
-19
4
4
-10
9
7
51
28
-19
-16
-14
-11
1
-94
-66
-36
-14
8
1
13
-12
40
41
9
9
-4
9
3
10
32
-6
-30
-14
-11
-26
-8
-13
-28
-47
-12
23
9
6
-2
3
75
36
61
-14
-3
-24
-15
8
-51
-18
-58
-2
0
43
21
-8
60
45
19
-32
-4
23
8
11
-38
-20
8
25
4
-26
-10
27
-6
18
-58
15
-2
18
11
-15
20
-6
34
-51
-21
-16
-37
-8
44
37
-12
55
3
-1
24
-1
-26
-103
9
8
2
4
-12
-3
65
64
13
6
-1
-4
7
12
-28
50
19
41
9
17
13
-8
56
-23
-16
-23
-8
11
16
50
-76
71
10
-26
-14
-20
14
-21
94
-44
-10
-10
-20
-47
-59
11
-20
-33
8
31
22
27
5
-12
-78
46
50
-15
-6
9
42
5
24
-38
-39
-25
23
36
-10
-20
-67
71
2
6
-9
5
9
-16
43
-55
-32
-15
-5
-37
-17
-2
-53
-42
29
15
-4
-23
-29
-6
-71
75
-11
28
2
9
-14
6
59
-60
-2
-56
-5
-4
29
9
40
51
38
-7
-20
-14
-25
-4
-70
-37
-53
32
24
4
1
-3
45
-32
4
-13
-22
-4
1
9
-96
-101
29
0
5
-3
-1
-6
-39
-19
1
4
-4
5
31
-5
-5
-25
-14
-20
-8
21
2
-14
42
50
17
30
13
21
3
5
45
-33
-42
-3
20
4
25
39
-68
16
26
-10
14
-25
-25
-20
-29
-54
-27
-19
6
-16
-21
1
91
34
-4
-5
-4
-1
22
-43
-91
29
-3
-17
-2
6
-13
-17
36
-71
-39
-1
-9
-19
-16
12
-48
11
23
-5
10
-1
21
3
22
16
-7
-8
-4
5
-9
15
-8
7
3
-17
4
10
-13
-18
-11
27
-8
30
-14
4
10
-6
33
76
3
-3
13
-3
-11
24
-83
-10
3
-27
-14
-13
-31
-45
-24
-33
-2
-5
14
13
33
-10
26
6
7
-20
-13
-28
-39
-11
3
-7
-6
-2
-9
27
14
17
55
-22
0
12
7
-7
-1
20
-41
46
30
-16
-15
-3
2
-10
-18
23
-24
39
-8
9
6
8
67
97
46
-14
13
8
3
-4
-32
-29
-33
-40
0
2
15
30
-31
-7
-15
25
-16
-18
-19
-30
52
-15
-4
-55
18
23
26
20
-79
-45
34
43
-18
-18
-32
-49
5
12
40
64
9
6
3
18
55
46
10
18
3
-10
-5
13
5
14
-11
-44
-2
1
11
7
-13
-45
-10
-13
0
-11
2
-20
-75
-39
-47
-10
0
-10
1
-4
7
-18
48
-1
-8
19
10
2
45
46
-33
28
7
19
4
22
-48
19
-10
-23
-14
-54
-1
-31
12
-37
-5
-33
-9
42
-2
-24
21
33
1
-4
-1
-1
2
27
-67
-1
22
10
6
-16
-6
12
13
-15
0
0
-10
1
-7
-23
-1
52
-26
-24
23
17
17
-6
11
18
-13
22
0
-1
-10
26
-33
-12
39
9
4
-3
-5
-17
-11
-26
-50
-27
-11
-21
-5
-11
2
-37
22
-5
-34
-11
-24
8
4
23
-28
38
30
12
9
-7
11
-27
11
40
-6
-22
-2
15
2
5
-28
-11
-12
8
-14
-12
-9
-3
16
11
5
3
13
-10
17
7
-5
-41
-11
-18
1
16
-9
-10
11
-4
-15
-18
4
10
-8
15
-6
46
10
32
-3
17
71
-48
-14
-13
12
14
44
36
65
-14
-2
0
-16
7
-36
-35
-68
-20
-6
-12
26
1
-7
-18
64
21
23
-19
-21
-11
-6
1
42
-31
-23
-13
-3
-21
9
26
1
-46
-1
42
4
7
-3
2
-55
-39
-29
13
-12
-5
-2
-30
27
-10
-4
-17
0
22
20
36
-87
17
29
6
-12
-20
-14
-31
2
-28
-7
2
-17
-13
-8
-13
47
41
8
16
7
10
5
0
-20
-16
30
64
3
-2
8
14
2
55
-12
16
5
-15
-40
4
-43
11
-16
-13
-12
20
51
-3
38
-25
-1
8
-4
5
-18
4
-15
-1
-6
-36
-4
-37
-34
-12
31
-24
17
-4
-1
27
46
31
-80
29
-2
-6
7
-22
-20
-57
54
-26
-10
7
-9
39
34
46
57
-4
16
-69
-23
-21
-3
-31
87
17
-1
26
10
-12
-25
17
-78
-14
13
18
6
-9
-9
4
21
51
6
17
-1
4
16
-10
11
-14
-21
10
-36
-1
-16
13
17
55
10
-40
27
15
11
0
-3
-13
-19
3
6
2
13
9
-8
19
-8
-19
-5
-22
-17
-9
-60
7
12
24
11
7
-13
-14
-21
-23
-2
-12
-21
-13
10
-28
15
-1
-4
51
23
10
-12
13
7
-31
16
-34
-10
-29
-20
-4
12
27
-35
7
25
37
34
31
-38
-14
20
6
-9
-17
-40
-48
7
-8
13
-35
-15
-8
1
11
42
7
-6
-19
-1
-7
4
-15
23
38
26
39
9
-3
-4
-10
7
-11
-14
7
0
-3
-9
16
85
-37
-23
-34
-17
5
14
-11
-23
31
44
-43
-28
-27
-72
-5
70
-39
-67
-7
41
43
56
23
-56
23
9
21
-10
-11
3
-20
-21
-3
-2
-11
-3
-7
-18
8
44
0
25
-11
-6
8
30
0
-67
-30
-7
-15
-3
-12
-23
-19
-1
67
-23
5
0
8
11
16
-3
-7
-6
-13
-2
-12
-17
-5
-27
14
14
3
2
-1
2
-3
36
-8
4
7
14
-5
-2
4
-29
-22
7
38
5
17
32
-18
11
0
-21
3
1
-31
-41
10
-4
58
-1
7
7
45
43
5
-24
-60
-5
-30
25
1
19
1
28
-21
3
-15
-10
-4
-17
-6
-18
13
21
-7
-8
0
6
-4
-24
-78
-35
8
1
-19
-13
9
39
53
27
117
28
26
-6
15
-19
-17
18
8
1
-8
16
-14
27
-5
-8
-15
-3
5
-25
3
-19
-44
10
-14
4
-5
3
7
-89
3
-38
-1
-23
-21
-8
-32
100
4
1
-24
-8
-1
-22
15
-52
10
5
19
-1
9
47
-8
-39
22
17
8
9
4
-30
1
-9
9
6
-32
-9
2
2
-9
-11
-8
7
17
3
5
-2
16
23
60
2
-46
5
11
20
-5
-15
35
7
28
5
-13
-4
-15
-1
1
14
20
0
-12
-12
24
21
-32
-34
9
-6
-6
-15
-16
17
20
56
-8
0
11
15
26
52
5
-9
26
20
15
20
0
-57
-18
21
-19
-21
-9
-6
-13
14
39
-22
28
1
-4
-25
4
-25
-46
-1
-4
-16
-11
-43
-22
-30
-7
-16
-43
16
22
48
14
-31
-11
11
40
10
-18
-8
-7
24
-31
-12
-10
1
22
13
11
-5
2
-14
-3
-4
-10
11
16
14
-32
-6
-6
-5
8
-7
-9
-8
17
15
-22
-19
-13
-20
7
-36
-30
-23
-9
14
0
9
-12
-53
8
15
-12
7
-2
-27
-14
27
-5
-7
27
0
-21
-5
4
40
29
13
8
-4
21
15
15
-51
-1
33
-19
-18
-18
2
-20
91
-28
-41
15
6
12
-4
0
-30
13
14
-6
-36
-17
-7
16
-2
-72
-85
-96
15
-5
1
-12
3
44
66
49
-2
0
-9
14
-25
-10
-1
-18
0
-4
20
4
14
25
1
20
7
-6
-15
-10
35
-7
35
-16
-21
9
-6
-11
-2
13
-23
-15
-2
-18
-13
-8
-12
-24
-45
-5
-2
-13
42
3
21
-18
-22
-17
4
42
13
16
-41
-22
28
-6
6
11
5
-47
12
0
-18
-12
10
-10
3
12
-12
20
25
26
-9
-17
-11
11
31
8
-45
-3
2
-11
-16
-1
-9
-7
35
22
2
8
-3
6
25
46
-10
-23
-15
1
0
-13
-8
3
-13
11
18
6
15
5
2
-9
27
28
-5
-7
8
-23
11
22
-22
-3
-12
-6
-10
9
-15
-16
28
10
-5
-13
-13
-4
-10
34
-52
-1
-3
11
7
11
-6
13
-7
-52
5
6
4
14
-5
22
34
37
0
-11
-8
-15
-16
-24
-18
-16
12
5
16
21
1
10
27
-8
-6
4
-9
-27
-25
-24
-4
8
10
-15
-8
-20
-9
-4
0
14
6
0
5
14
43
7
0
-15
-4
12
-25
20
-39
-42
9
-13
-3
11
6
-29
18
29
-7
-10
-11
-5
1
2
-52
23
9
17
-6
-15
10
-3
35
-39
-30
-5
13
4
4
-14
26
-7
18
-17
-3
-13
-35
4
-27
-17
-14
28
11
6
19
2
-13
-2
-5
31
4
2
-4
12
-34
-16
-24
-46
-13
-5
11
-3
44
31
14
45
14
10
6
12
-38
5
19
-38
-7
-8
-11
-9
38
-2
-47
2
-10
-6
4
-8
-7
-8
-10
10
-7
-10
-19
-17
-50
-34
14
4
6
26
10
0
25
14
5
2
-1
2
20
9
-22
-10
-8
-19
-3
2
-20
-17
-14
23
34
8
-1
-9
12
5
60
-14
-43
-1
-8
-18
-24
16
38
7
6
2
0
-5
-15
-22
20
15
17
-11
-2
1
17
3
-22
-22
-28
-17
1
5
5
-2
10
5
15
11
4
0
-4
-2
-18
-6
-3
-9
-4
-5
-3
5
18
-9
-10
-14
-5
-14
-12
5
-9
19
7
26
7
-5
6
1
-6
-2
5
-7
1
28
18
9
-28
-40
-6
0
-6
0
-19
-16
12
-3
3
-23
-7
0
6
16
-36
-23
-9
1
-1
0
6
-9
-1
-25
-11
-56
-4
-22
-4
-12
19
1
2
18
-1
-1
-5
5
1
3
-4
-6
0
2
2
0
6
33
26
6
-1
3
2
3
-8
27
-24
8
1
-4
0
-6
-21
14
8
0
-2
4
-1
-1
-2
5
1
-2
5
0
-2
1
-4
2
-8
-1
-1
-3
-2
2
-12
7
17
9
-5
-6
-3
-6
8
4
-7
-4
-4
1
-1
2
2
-9
-1
1
0
-4
-2
0
-6
2
6
8
-2
-32
4
2
1
0
7
3
3
51
-12
-3
5
5
-3
1
0
2
18
1
2
1
-4
-6
-7
-18
-18
-4
-7
-6
-5
-8
3
18
9
-2
0
2
3
6
-3
-25
-10
0
7
6
-8
3
-1
2
3
2
-6
7
9
-3
2
10
0
0
0
-2
-10
-1
-2
-2
-3
1
-7
1
6
9
-2
-12
-4
-5
10
-2
2
7
2
8
0
-2
-4
-9
-17
-11
-5
-7
-4
-1
1
-4
-4
0
-1
8
0
0
0
4
19
9
-2
-3
2
0
-1
-1
-14
-9
3
-3
1
1
-2
7
-1
6
0
1
-2
-1
0
-3
-4
-3
1
3
3
1
-1
-2
14
5
-2
-2
-4
1
-2
2
24
4
-10
-34
6
-8
1
-3
-17
-1
8
53
4
4
-7
-1
-19
-5
-1
4
-3
2
-6
0
4
0
2
-10
6
-2
4
0
42
12
-1
-3
2
-4
5
1
-17
-9
-3
-6
1
3
-2
2
12
4
-1
4
2
-2
-6
-14
-18
1
-1
-5
-4
1
-3
-1
-8
-6
-2
-8
-27
-1
-1
1
11
4
1
-1
15
-5
1
-10
-33
-16
-1
0
-7
-1
0
1
15
0
-6
-19
-6
-3
-7
-5
-26
-12
3
24
7
2
1
3
21
-1
1
-18
-10
-1
1
4
31
11
4
1
1
0
-2
4
18
9
-5
2
-9
-3
-2
-4
-31
-4
3
-1
11
1
-9
-11
10
1
-14
-14
-11
-3
-1
0
-40
-6
-1
2
4
1
4
3
24
-3
3
-6
-5
0
1
-3
-6
8
2
0
-2
-1
0
-9
-17
-5
-3
-8
8
1
-4
3
31
5
1
14
-12
0
4
2
-21
-11
-1
2
3
-2
2
15
62
23
2
-5
-9
4
-4
-13
-88
-23
0
-4
11
2
-6
-3
42
15
-4
22
12
3
10
2
-33
-15
-1
-15
-11
0
-2
-10
12
-18
0
28
14
3
3
8
28
26
1
-2
0
1
-2
3
-25
3
4
-6
-2
-3
-2
-13
-38
-14
0
8
10
2
-3
1
-48
-4
-7
-22
-2
-5
-1
-10
25
-7
-2
-4
-25
-3
7
-3
-20
-11
-1
-2
18
7
-4
13
13
10
5
15
-3
-6
5
6
9
5
4
-2
-2
3
0
0
26
-1
1
6
3
-1
5
3
-33
-9
-6
-13
-8
-3
4
-2
-43
3
3
-11
2
1
-22
-32
-15
-22
-21
5
-12
-5
-2
3
39
4
3
7
-7
1
6
1
-36
-18
-1
-13
0
-2
0
-6
-14
-8
2
6
16
0
10
14
-53
7
6
-15
-33
1
-18
-7
78
-7
-19
4
14
-4
-4
-5
-8
7
-1
-3
-12
-5
-2
1
-1
4
-3
1
-8
-3
3
1
4
-1
5
5
3
0
2
-6
-48
-12
-3
-10
-9
-3
3
-5
-20
-2
3
3
0
-1
-7
4
71
19
-3
-4
18
-1
2
-1
-15
-8
5
4
-7
0
3
-6
-53
-17
-6
-9
-11
1
-17
13
104
38
2
3
10
-8
-6
-17
-86
-25
-8
4
4
2
6
5
50
10
3
6
6
1
1
-2
-55
-20
-2
-13
11
0
-1
1
29
6
2
16
-13
0
-5
-3
30
1
-5
-8
-10
-3
-1
8
12
-3
2
2
9
-2
5
6
17
9
5
-5
-3
1
-1
-1
12
17
-3
2
6
-2
2
6
30
11
4
5
1
3
1
-11
-48
-21
-2
5
3
-1
-5
-1
-8
6
-3
-7
-1
-3
1
-8
-18
0
-2
-10
-11
0
1
4
30
-12
-7
-2
4
-1
-5
-7
-21
-5
-2
-5
8
1
4
13
38
34
12
-3
-8
2
-1
5
16
-10
2
15
-23
0
3
-4
-22
-3
0
6
17
1
-2
5
17
-1
-7
-17
-6
-2
8
17
34
9
8
22
10
-1
-6
-22
-36
-26
-5
-11
0
1
-3
-3
57
16
-2
-7
-2
-1
-2
-4
-13
-12
-6
2
-6
0
0
-2
-28
-8
-2
-3
-3
-1
5
7
24
5
1
-4
9
0
1
-5
-54
-7
2
3
-4
-1
-8
-9
25
4
-8
-7
0
-2
-1
3
3
8
4
6
-2
1
0
-2
-17
-10
-2
-1
1
-1
0
-4
-19
-13
-1
1
0
-1
-2
0
15
5
-5
0
-6
-3
1
-3
1
-3
-6
-5
12
0
1
8
-3
0
5
3
-7
-4
-2
-5
-26
-4
-2
-10
-23
0
0
0
31
15
5
19
17
0
-4
-11
-46
-9
-2
1
0
0
-3
-1
53
0
-5
-7
4
-1
2
6
10
5
-2
-10
-7
-2
0
-5
-44
-13
-4
3
-6
-1
1
7
5
-3
-1
-1
-8
-2
-1
-7
-16
-1
0
-11
-3
-1
-1
0
21
2
-1
9
16
3
-2
2
5
5
4
4
-6
-1
-3
2
38
8
6
5
1
-1
11
4
-40
-6
-2
-8
-6
-1
-6
-8
14
-12
-10
-6
1
-4
1
3
1
13
0
-4
2
3
0
4
20
1
5
3
-4
-2
-2
-10
-52
-18
-1
4
8
1
-2
1
29
13
-1
0
-6
-3
0
-4
-77
-13
-7
-5
3
-2
0
-3
32
-3
-7
-7
-9
-2
2
10
15
14
1
1
4
0
0
0
7
3
6
6
0
-3
-1
1
12
3
5
-2
-5
1
-1
-7
-16
-8
-1
1
0
-1
-4
-4
-14
-5
-10
-5
3
-4
1
5
-7
8
-2
-1
-6
0
0
-1
57
9
3
-4
-1
-1
0
-2
-55
-3
1
-1
2
1
-3
-2
-4
-2
-5
-1
-3
-1
1
-2
-21
-5
1
1
4
-1
2
5
11
-1
0
-4
5
0
1
1
16
-3
-1
7
-9
-3
-5
-8
1
-5
-3
-6
-3
-2
1
1
-3
3
-4
-4
2
-1
-1
0
-11
1
0
-1
0
0
0
1
-1
-5
-1
-1
4
2
-2
0
5
3
5
1
-1
-1
-1
6
17
7
4
3
-2
1
0
-4
-15
-8
-5
-4
1
0
1
-3
15
4
0
-2
-2
-3
1
0
-1
9
-2
2
4
-1
-1
-2
-19
-14
-3
-3
-1
-1
-1
-4
-8
1
2
0
-1
-1
-2
2
3
-6
-5
-4
0
-2
2
0
11
-14
-5
-2
1
-2
-1
0
7
19
4
0
0
0
-2
1
-9
-14
4
-1
-3
0
-1
1
17
7
-1
0
2
1
-2
-2
3
6
0
2
2
0
0
-1
-11
-6
-8
-5
-7
-4
1
-1
9
-15
-1
2
1
-2
4
1
-7
-5
-4
-3
0
3
3
4
-2
1
1
1
1
1
-23
-4
-4
-2
4
0
-2
0
5
-1
2
6
-4
-4
-5
-4
-8
-10
-14
-5
-2
-1
-2
-4
7
0
-9
-2
-4
-2
-1
1
8
6
7
2
1
0
-1
0
-2
2
7
3
-1
-1
1
0
-2
-4
-7
-13
-2
-3
-2
-1
-2
2
0
14
7
-1
0
1
-2
-3
4
-6
-2
0
-2
-1
-1
-4
-1
1
-3
1
-1
-1
2
2
-7
6
5
1
0
-1
-3
-1
6
-4
-2
0
1
-1
-2
-4
-5
0
2
-1
-1
-1
-2
1
-5
-12
-4
-2
-2
0
-3
0
11
14
2
2
-1
0
1
2
-1
-5
0
-2
-1
0
7
-1
-1
1
-4
-1
-3
1
-19
-11
-2
2
-6
-6
-4
-8
5
-2
-4
-7
5
0
1
-2
-7
-3
1
2
-3
-1
-1
-2
-3
-2
-3
-8
-4
-2
-8
-5
15
11
25
11
4
2
2
4
-17
0
-36
-2
-3
-1
-1
-3
18
-5
-9
-6
-4
-3
-1
-3
-25
-6
0
-4
-4
-2
0
1
-20
-13
-9
0
-1
0
-3
-1
3
0
16
1
-2
-1
0
0
3
2
0
-1
1
2
1
-1
21
6
-6
6
1
-1
0
0
-3
5
2
-5
-2
-3
-1
0
0
-2
10
2
1
-1
1
-1
2
-1
-20
-1
-4
-1
-1
1
-6
-3
-3
3
0
3
2
3
12
4
-3
-3
5
2
-1
-2
0
-1
5
2
-2
-2
-3
-2
-26
-7
8
1
-2
-2
0
-3
23
3
-1
-5
-2
-1
4
3
-14
-17
-10
-10
2
2
-4
-4
-6
4
1
-2
-2
-4
-7
-4
22
5
13
6
1
-3
-6
-3
-4
-4
-6
-16
-7
-2
0
2
-24
5
3
4
-3
-3
-1
-7
9
0
5
-5
5
6
7
2
-19
-10
-8
9
2
3
2
5
-2
4
0
-1
-1
-1
-2
-2
37
2
7
1
-1
-4
0
1
4
1
12
-6
-7
-5
-5
-3
1
-12
2
4
-1
-3
-2
-3
-2
-8
-47
-7
-3
-2
0
2
7
7
2
-7
-1
3
2
3
-20
8
-16
12
-3
-1
-1
-3
23
15
3
-5
-1
1
-4
-5
5
-20
6
9
3
3
7
3
-15
-3
4
-13
-8
-8
-19
-8
-6
10
-7
23
4
2
4
-3
54
-2
2
-14
5
3
3
10
-86
-10
11
7
16
2
-3
-9
48
15
10
-4
-6
-2
6
-2
19
-7
-2
-10
-2
2
-4
5
-10
14
7
1
-8
-4
-1
-9
2
-5
6
3
-23
-2
0
3
3
-2
-1
-10
-5
-7
-6
-5
-61
-11
-6
-29
32
9
2
-1
-29
1
-10
42
-9
2
-1
5
95
11
9
-15
6
3
4
5
-17
-4
-6
-10
-16
-6
-5
-3
33
14
9
21
-7
-6
7
13
-21
-28
-13
-13
-18
-11
-4
0
-14
24
20
34
30
6
-11
-9
59
-31
-26
-5
-2
2
8
16
7
-11
8
2
6
7
13
6
-71
-62
0
-16
7
-3
-5
-16
-81
-2
-47
-17
-20
-21
-6
1
-45
-99
1
1
-2
8
0
-4
14
83
1
2
1
-10
-5
-7
35
44
50
17
7
19
-7
1
64
46
6
-10
-7
6
-3
0
-84
9
-20
21
10
1
16
-1
74
-21
11
-23
-20
1
13
18
-39
-21
-17
13
20
-5
-17
1
31
39
-15
46
-1
1
-6
14
80
-24
0
-32
39
24
21
16
-59
-18
23
-5
-27
-23
-7
-16
-4
49
-24
-44
8
3
8
-15
23
-70
29
34
5
-1
-6
-1
-59
-3
-3
-9
2
-22
-18
-34
47
33
3
5
-14
-5
-26
0
16
-9
2
-1
-15
13
50
3
-2
25
-52
-69
-24
-8
-20
-1
-67
-24
25
76
7
-17
0
8
-74
-38
11
47
24
18
14
23
85
27
15
-12
-18
-12
-24
15
-111
-61
16
-24
-20
-7
-5
-99
34
83
-9
-14
-21
5
-10
-4
5
-14
0
-11
9
-9
13
18
-42
-52
1
15
4
7
-10
-9
-3
-3
-14
3
0
-13
6
25
10
53
-11
-51
17
15
11
16
-32
-59
-30
-22
-19
0
-30
-34
1
74
-3
62
13
7
34
44
62
-88
29
-13
-3
-9
-25
-12
-57
-24
2
-25
-23
-10
-4
-19
100
54
3
0
10
6
18
31
-50
0
-51
-28
-3
-18
-23
-27
55
65
13
-21
-4
3
28
26
35
-36
35
43
-4
-2
-27
-1
-41
-11
-23
-103
-19
15
29
-7
55
7
-4
98
24
-1
-15
-12
-39
49
-7
39
27
6
-3
-1
-51
-10
-14
-8
-7
-5
3
2
-20
-8
-21
43
-4
-4
-18
10
28
-37
9
-35
6
-8
1
-10
-46
5
38
8
-11
-2
-2
2
88
-33
-26
29
0
-2
-2
-9
-126
14
-8
39
-5
-24
-17
-13
-52
-110
7
-65
-20
11
-9
-33
-1
103
69
58
18
11
14
-9
24
25
-78
-19
-21
-17
-11
3
-35
17
15
53
18
5
9
16
69
31
7
-17
-14
4
18
1
23
39
-9
-48
-34
-6
-22
-20
-1
34
13
-48
11
10
22
24
13
-12
-17
-38
-16
-16
-33
-47
40
-18
-6
23
2
-13
8
7
-10
-32
2
-27
12
15
10
31
19
47
-9
33
14
0
-2
3
-63
-11
4
-14
-9
-5
1
-1
1
-22
22
-11
-12
1
-10
8
-14
-28
7
0
8
-4
9
-26
3
46
10
23
-3
8
-7
8
4
31
-23
6
22
12
11
10
40
-13
-13
14
-5
-8
-1
-1
-71
49
20
-12
-5
1
-6
-1
-76
47
15
50
20
7
-13
-29
79
-9
28
-2
-25
-3
16
-8
44
7
-52
-22
10
6
15
63
41
-15
3
-3
6
-4
4
11
-26
-32
39
2
-6
-5
0
7
17
-2
-15
8
-18
-9
-4
18
-116
-6
7
7
7
-1
-31
-43
18
-34
0
16
17
1
8
-8
21
-11
-3
-22
-17
19
33
42
58
-33
21
-2
1
-9
-18
-40
-48
9
-41
-15
-7
-10
-7
16
30
-48
-6
13
-11
-5
-3
18
-30
-2
-20
38
14
4
-1
-17
-7
3
16
-2
-8
1
10
7
-16
67
29
13
1
-4
-10
-3
18
34
-38
2
1
8
19
28
-31
-67
16
-71
-6
-10
-18
-35
15
16
-20
13
16
0
20
20
-42
-11
14
30
-3
11
11
-13
21
-71
-28
-56
-10
9
18
-7
46
41
37
6
1
-7
-18
4
-7
-77
-29
-24
9
2
-3
4
-9
-9
23
32
11
6
12
-25
-6
10
-22
37
-12
-6
2
2
43
47
-3
-7
10
3
9
19
2
-72
-14
-10
-16
-13
-27
-9
27
43
-6
-5
-4
0
5
10
-7
2
-19
-32
-5
-3
-5
9
-34
-47
-19
47
11
7
-9
-34
6
48
37
44
6
-1
-8
0
-22
10
-33
-48
-16
-18
-17
0
6
-26
-2
13
3
-6
18
27
-41
25
20
-6
-6
-1
-38
-3
19
-27
-14
-33
9
54
73
9
-65
-10
20
4
-4
-11
-34
-41
-8
-55
-22
-19
-1
-21
-22
-15
66
32
0
-16
-25
-14
7
18
4
102
20
20
6
-12
-8
-2
-6
13
28
2
9
15
24
9
12
25
4
-8
-18
-3
-23
-22
-20
-30
15
-20
-10
-8
-6
2
-48
-16
-6
37
11
6
-11
-9
12
-7
-14
-51
0
-3
15
21
-28
0
-22
-2
6
-4
-11
-31
21
-16
-2
25
-3
1
18
0
-65
22
15
-14
-5
-14
-26
-7
7
-47
-37
-10
0
3
17
28
-60
-12
26
-14
11
-9
-14
-18
33
32
-3
0
0
-9
-6
-15
-38
4
-11
19
13
26
-9
6
15
-36
31
-20
-16
-24
-8
-24
19
27
0
-6
6
31
27
16
-16
-59
-1
9
6
-4
2
-6
13
-14
-20
-38
-2
-16
-12
5
19
18
-5
7
-20
-14
-6
-8
12
15
30
45
-3
-1
6
20
-38
-20
-25
-47
6
4
4
3
50
27
-13
37
-7
1
6
31
-70
54
-11
-25
12
9
1
-22
13
-54
-24
28
19
-7
-12
-28
9
8
30
30
-9
2
4
10
69
18
7
2
-1
-6
5
-2
-27
-8
-4
-7
0
-2
0
21
-8
23
8
-6
1
4
-7
2
24
44
-2
-11
-5
2
-1
19
-28
-26
-11
-21
-1
11
8
-9
22
-3
20
48
5
1
3
-5
0
-21
2
-10
-5
-5
-22
-13
20
-50
-17
-33
-11
-17
-17
-3
14
-1
4
-19
-10
-7
16
-18
-18
-17
-9
23
8
11
5
8
-13
88
-7
-10
12
12
11
18
-33
-3
-4
29
-9
-3
5
-16
16
3
22
-17
-12
-13
-20
-23
-3
8
22
-9
-4
15
5
10
33
8
-19
30
-15
-7
2
11
29
-33
-24
-17
9
-3
-4
8
1
12
-30
6
9
-4
1
-4
11
-30
22
12
-8
-6
-13
3
22
2
37
10
-2
1
0
0
-38
26
-18
16
6
0
20
0
1
-17
1
-13
-12
-10
-25
2
52
-19
22
-13
4
8
8
-31
-27
35
-24
-12
-5
-4
-13
-9
-6
33
15
2
5
9
20
17
-46
-33
-17
-9
8
1
12
6
38
47
-17
-1
-4
-15
-36
4
-33
-23
11
4
-3
6
21
-15
18
-9
32
-50
-10
5
17
0
20
3
-40
-7
-8
-6
-8
-1
-6
16
-7
20
10
0
19
28
-6
-28
12
31
0
-1
-25
-6
-32
3
18
9
-7
-3
-13
-24
67
-12
29
-9
2
-1
-4
-9
-26
-14
-25
-35
-12
-9
-7
-3
43
67
-14
-20
-7
-6
15
20
-37
8
16
22
16
2
-5
8
-19
99
47
14
-5
1
-3
-15
23
17
-26
9
17
-1
-3
12
51
-4
-5
-28
1
-6
-2
9
-3
11
-20
17
4
15
12
-5
-15
-6
16
0
-2
6
10
23
-14
-12
5
-28
-6
15
-3
-22
-17
-22
-26
28
-2
-7
17
20
48
4
9
-20
-4
-7
-29
-17
-13
-61
-12
9
7
-1
15
23
32
14
17
-4
-5
-3
-14
-13
4
-40
4
-29
3
2
7
-8
49
24
-8
7
-6
-9
8
8
-89
-22
-22
-4
-10
-4
-15
-36
4
-2
15
23
7
6
7
1
-17
-9
-22
-11
-6
-5
-14
-5
27
21
-9
25
4
-4
-1
19
52
-7
-6
-15
-3
-8
3
17
-13
3
10
2
3
10
1
4
-15
-31
-6
-30
-19
-7
-17
-15
30
21
-18
22
20
-3
-11
6
3
-25
15
-2
15
2
-7
-20
-12
-14
-27
-10
-11
-10
6
8
11
19
15
1
4
9
7
18
-43
-21
-37
-2
-13
0
19
-24
18
-14
-10
7
3
0
-23
9
7
20
9
15
2
5
7
21
-49
-23
5
-25
-5
-5
-15
-27
-61
-4
16
19
13
1
-1
-21
15
7
22
12
-3
-8
3
14
25
9
-43
-6
-15
-4
25
18
18
-24
-34
5
20
9
-34
-7
-6
-5
-10
3
-13
2
8
29
17
20
57
-14
-9
-5
-4
-33
-6
-2
-42
20
-7
-9
0
-4
12
14
26
18
-4
0
1
13
10
-16
-7
-9
7
-4
-7
-3
6
1
-23
-13
-5
6
12
-7
1
-1
26
-29
-3
-21
-36
-14
-24
-3
-11
3
-1
27
36
-3
-18
-22
-4
-17
-13
-3
-10
18
4
14
-7
-1
-5
-2
3
1
-12
-13
6
-21
10
-5
5
1
40
23
17
11
5
-4
-10
-15
-19
-57
5
-16
1
-3
-7
-2
11
-1
-8
-5
0
-4
7
-11
-7
-7
-1
12
-3
8
-5
-12
23
-1
-10
-17
-7
-10
-2
13
-6
11
17
-7
-6
4
-3
-15
-14
-7
3
15
6
2
18
3
9
-1
-8
-19
-4
-2
-20
-11
-13
8
17
37
6
-6
7
15
-16
0
-14
-20
-3
2
0
-8
-5
-1
-18
2
0
-7
-10
7
2
-10
32
17
4
2
3
1
-17
-6
4
-51
-7
-1
2
-10
0
-24
-31
14
2
0
3
0
-15
-2
-1
2
-2
-1
-13
0
4
13
-2
-10
-2
6
4
0
-8
-7
-10
-5
-4
-7
0
-4
21
3
1
-9
-7
-4
4
-3
-7
12
-10
-1
5
6
-12
-1
0
1
11
-5
-3
3
6
4
-12
-14
-14
28
20
1
7
6
44
42
16
8
0
4
4
6
-1
-14
-16
2
-8
-1
-4
-4
-30
-11
-7
-1
2
-10
-19
-13
9
0
6
-5
-12
-22
10
5
1
5
2
-9
-2
24
-4
7
16
14
7
-4
5
12
-3
-22
8
-3
1
9
-2
-1
13
4
-12
8
1
-4
3
2
-3
-3
-9
-9
0
1
-4
-11
-2
1
-3
-5
0
-3
-2
-3
-5
7
-1
3
3
-2
-1
-3
-2
-5
-1
-3
-10
4
-2
-1
-5
-1
-1
-5
6
-5
1
4
-5
-6
-12
-1
-5
5
1
4
3
3
9
0
1
1
0
0
7
8
1
-4
-1
-6
-5
-2
-3
-10
9
4
2
-7
-3
-7
3
-2
-12
-5
-8
-4
-1
-3
-7
-2
-6
2
7
8
-3
-1
4
-1
-3
-1
-1
3
-1
3
1
4
-4
-4
9
0
2
-4
-3
-5
-2
-1
-15
-4
3
1
1
3
1
-3
-7
-5
-2
-3
-2
-3
2
-2
8
-3
-2
3
-4
3
0
-1
-6
1
-6
-7
-4
-5
0
-2
7
4
-3
-2
0
4
3
2
15
1
-1
3
-1
-3
-7
-2
-20
-9
0
2
-2
-4
1
1
15
5
1
-2
0
0
0
-7
-18
1
2
0
2
1
-3
-4
-4
-6
1
0
-3
-4
-1
2
30
8
-2
-4
2
0
1
-3
7
4
4
-4
0
-2
1
-7
-23
-8
-6
10
2
0
-3
-2
1
-2
0
-1
-3
1
1
1
0
-6
-1
-1
2
-1
1
0
-4
-3
-2
-3
-2
0
-1
3
17
1
0
-8
-4
-2
2
0
-10
1
1
2
1
-1
-2
0
5
3
-2
-7
0
0
-2
-4
-23
-5
-3
-4
-12
-3
-1
2
6
5
2
6
11
0
0
2
15
2
2
-7
-11
-2
-5
-3
-16
3
2
7
-7
0
1
-1
4
-6
-5
8
7
-2
-2
-2
5
-1
-1
-7
-11
-1
1
0
6
-2
1
2
11
0
1
3
32
1
-2
-11
-6
0
-1
-2
-37
-5
-4
-5
-2
0
-2
2
24
6
-4
-4
-3
0
-4
-4
-35
-11
-4
-1
-8
-2
0
-1
9
3
2
3
-1
-1
2
0
-17
-3
2
-1
5
0
-2
2
33
-3
-2
-6
8
-2
-1
-14
-36
-5
-1
-2
-12
5
-3
-5
-31
-18
-4
9
-1
-13
-2
2
16
-1
-1
2
-4
1
1
5
4
5
-1
-10
-3
-1
2
6
9
5
0
-8
-2
-1
6
-1
9
9
4
10
13
5
0
-1
8
3
-1
-7
-11
3
-6
2
-9
6
-1
10
20
-13
-4
-12
-82
-22
-3
4
0
0
7
-1
29
19
0
-9
-4
-1
0
0
-12
-17
-6
-11
-4
-2
2
-2
-4
4
4
8
-6
5
2
8
14
11
4
6
10
-4
-8
-2
7
2
0
2
-9
1
1
6
38
13
3
-4
7
3
7
8
-49
1
6
-2
9
5
-3
-10
-6
-14
-7
-4
-17
-7
-2
-6
10
-8
0
-1
-3
1
1
-2
-15
-1
0
7
0
-5
2
4
7
-11
1
-4
-4
-2
0
4
-4
15
-4
-10
21
4
-13
-24
-48
-41
-13
6
-1
-6
-3
-1
40
9
0
-12
-41
-6
-5
2
30
18
1
21
40
3
-2
-9
-47
-31
-5
1
-9
-3
1
14
48
30
2
-7
4
2
10
9
-17
19
11
4
1
-1
2
-2
-11
-30
0
-14
-20
0
-12
-11
-28
1
-14
-22
-15
-7
-5
-7
18
0
-6
29
33
3
13
7
58
6
13
7
3
1
-26
-16
-24
-9
-24
-28
-22
-11
-2
12
-9
3
7
21
9
-4
0
-11
-21
-12
0
-15
-17
5
-2
2
-19
6
-1
7
19
4
5
-11
3
3
2
-2
-3
2
4
10
54
0
1
-2
-5
-3
-2
0
3
-8
0
-10
-9
-2
-4
-5
-21
4
-3
7
16
3
6
1
-16
-14
3
-7
-24
0
-6
-7
-6
24
-7
9
13
2
0
12
-1
-2
1
5
1
1
-11
-18
-11
-21
-10
-5
5
-4
7
3
-13
-1
-1
-4
-7
-2
8
5
110
16
8
3
5
2
-3
-3
-69
-14
2
9
5
-1
-12
-8
14
1
-9
-4
-3
-3
-3
0
-9
-2
-7
2
0
0
-2
-8
-32
-13
0
-5
0
1
1
3
-9
7
0
-6
-4
-3
-4
-13
-25
-12
-3
-1
1
2
2
-2
15
8
4
9
4
1
3
8
38
-7
-3
-4
-1
0
-2
0
-22
-4
-1
-5
-13
-1
0
4
2
-2
-2
0
2
0
3
1
-3
7
7
6
8
3
-6
-7
25
4
-2
-4
-2
-3
1
-1
-40
-3
-1
-7
-12
-1
1
-1
20
3
-3
-15
-3
-6
-4
-6
-5
-10
-5
12
15
1
2
6
-3
4
2
-6
-4
2
1
-1
-26
-10
2
13
9
-1
0
0
5
-1
1
-6
-4
-1
0
-2
-16
-12
-4
-3
-9
0
3
7
-1
7
4
0
6
-1
-7
-8
62
12
-14
-21
-10
-4
-3
0
-10
-6
2
6
-3
-1
-2
-3
-8
6
2
5
3
0
2
3
16
7
4
5
-1
1
6
5
3
4
0
-4
-3
-1
3
11
32
-4
3
4
3
-1
-4
-20
-65
4
-2
-3
-7
-3
-1
4
17
-2
-6
-2
-4
-1
-2
-3
2
12
3
0
-4
0
0
5
26
-4
-1
3
7
1
4
11
4
8
4
-1
-3
0
-3
-4
-13
-6
0
2
-3
0
0
-1
-7
3
1
-1
9
-1
0
4
13
2
-3
-5
-3
-2
-2
-3
0
0
0
10
5
0
-2
-4
-10
-3
-4
0
6
1
0
5
15
-1
3
-5
-8
0
-1
-2
-10
-2
1
0
-5
0
-2
-1
24
4
1
1
0
-3
-1
0
-24
-9
-3
0
-2
-1
0
2
13
5
-2
-2
3
-1
-1
-3
-50
-14
-5
-4
-6
-1
-2
-1
33
8
-4
-4
-5
-2
-1
-7
12
1
3
1
1
-1
1
4
5
-1
2
0
-4
-1
-3
-5
8
-6
-8
-1
3
-1
-2
4
-16
2
0
0
-4
1
2
7
13
-3
6
0
0
-1
0
-12
-32
-4
-1
-1
0
-1
0
3
14
18
2
4
1
0
0
2
1
-5
-7
-7
-5
-1
-5
-10
-35
-11
-8
-2
-4
-3
0
-3
5
-5
-2
0
1
-1
0
-5
-22
-2
-2
1
-1
-3
1
1
19
-5
-3
-6
-2
0
2
2
4
5
3
2
0
0
1
2
5
-5
-1
0
1
-2
-1
-2
-22
1
0
1
2
-1
-2
-1
0
2
4
2
0
0
0
-5
11
-9
-1
-1
-2
-1
-1
-1
-15
0
1
2
1
2
-2
-1
-11
-4
-2
0
-2
0
2
0
3
-5
-1
-3
-4
-2
-1
3
3
10
-2
-1
-1
-3
1
1
10
-2
-3
-3
0
-2
-1
-3
-5
-1
-6
-2
-2
-2
-1
-4
1
-14
-9
-4
-2
-1
0
-1
-2
18
8
4
0
2
-3
-1
-9
-1
-3
-3
-2
0
-2
-2
-8
-4
2
3
2
-1
-1
1
14
8
1
-1
-1
-1
1
0
8
-5
-6
-3
0
1
0
3
5
0
3
2
1
-1
-2
-4
-7
0
-2
-1
-2
-1
0
2
3
6
0
0
-1
-1
-1
-4
-17
-4
-1
-2
-4
-3
0
2
16
-1
0
0
0
-1
-4
0
7
3
-2
-3
-2
-1
1
-1
-2
-5
6
0
1
-1
4
0
-7
7
-3
-1
0
0
-3
-1
-7
-12
-2
-1
0
0
-17
-2
1
-2
-3
-4
-3
-4
-9
-2
-6
3
-9
-5
-3
-5
4
-5
0
-4
6
2
0
0
1
1
5
-2
0
1
0
-1
5
1
-6
-7
-5
0
0
2
18
0
1
-2
1
0
-1
2
-19
-1
10
-2
-4
-2
0
-4
-3
-2
-2
6
-2
-1
-1
0
-6
1
6
3
1
0
-2
-2
-9
-3
-11
-7
0
0
0
-1
5
-2
11
-2
-5
-1
-1
-1
-3
-4
-2
3
1
-1
0
0
6
2
-7
0
0
0
-1
1
-2
0
-2
0
-3
-1
-2
-1
5
0
-8
-7
-3
-1
-1
-2
-4
3
1
-1
3
1
1
-1
14
-1
-9
0
3
2
1
0
-4
-2
3
8
-3
-1
3
0
9
-3
-4
17
2
-3
-5
2
0
2
-3
-18
-5
0
0
3
-26
-5
4
-5
-2
-5
-5
-10
2
-22
-12
-7
1
-3
-1
0
-41
-6
-2
-4
-6
-1
0
-8
14
8
0
7
-1
-1
-1
2
-3
-10
-6
-5
3
1
2
4
15
8
8
4
0
0
-2
-5
23
5
-8
-11
-2
-2
-1
2
3
3
-5
7
4
0
-1
1
-18
4
3
-3
-2
0
2
3
8
-10
-11
6
-2
-1
-2
-2
-22
5
9
3
0
0
-2
-3
14
-4
-7
-6
0
0
-2
-2
-11
11
-11
4
0
0
1
-2
-19
2
4
2
4
1
-1
1
17
4
7
7
3
-2
2
7
15
9
-4
-7
-2
3
2
4
-9
-23
12
-14
-3
-7
-2
-5
-20
1
13
-2
-6
-4
-8
-9
-13
6
-26
-7
-3
-1
0
-2
-56
-13
2
5
-1
2
3
-1
67
12
-8
14
4
0
2
3
-14
11
8
-22
-3
-3
-5
5
34
2
15
6
1
0
4
0
-57
-17
-18
-25
-9
-1
-4
-17
-50
-30
-7
24
-1
-3
-6
-13
47
16
-20
5
4
4
11
21
10
-15
28
9
1
0
-7
-2
34
16
15
11
3
-3
-1
-3
13
-3
-27
-29
-7
3
0
4
-34
-15
-17
-17
-6
-8
-1
-6
-5
16
-4
16
-5
0
4
3
28
-18
8
-7
2
1
-4
5
-50
7
-5
42
7
5
4
2
60
-15
-11
-10
1
1
-4
0
19
-22
-4
-30
-9
-2
0
2
-3
20
14
-28
2
-8
0
-4
6
20
-2
4
13
7
4
3
37
3
2
13
6
-1
2
1
4
16
-2
32
-2
2
-3
2
16
-29
-18
10
-19
-2
-4
-3
45
-18
8
-22
3
-7
0
18
-4
33
4
-9
-1
3
-2
-3
-2
-52
-1
3
-1
-8
-13
-20
-30
3
-15
39
-6
6
10
7
50
34
18
-37
-13
-4
-2
7
-33
-16
15
22
11
9
7
-14
-30
7
-18
-24
-6
-8
-5
0
36
-44
12
-13
2
-1
12
10
-71
-27
-9
12
3
2
-12
-13
37
16
11
1
-3
-3
0
8
-59
1
-8
12
-13
-2
-1
-10
70
1
-12
-16
7
-14
2
2
58
10
27
13
-14
9
7
-3
-1
-15
-19
-14
16
13
1
8
-94
-13
-8
19
7
6
2
-17
60
24
-4
16
-12
-13
-10
-5
17
37
-2
-11
-9
-2
16
17
-28
-58
-17
11
3
-3
-12
3
98
-7
46
-30
-5
0
-12
9
12
7
-37
-10
2
2
10
-3
6
-20
-2
-42
-5
-4
-6
-8
-46
2
-2
41
-2
1
6
-16
44
20
-26
-16
-8
-9
3
28
-101
1
45
37
18
6
-26
-16
48
51
-44
-5
-23
-18
-2
19
-60
-37
-1
-48
0
-3
-10
-24
17
18
1
-30
0
2
1
-22
46
44
0
18
3
7
7
20
11
-12
13
-11
-1
-9
3
-8
-71
20
-30
51
25
10
-17
-4
-1
-14
3
11
1
-8
13
8
2
53
-1
-24
-18
-16
5
0
-33
-24
7
8
10
28
-13
-6
34
54
-13
-20
-14
-15
12
17
-94
-42
12
18
10
28
-2
-33
45
-37
-12
-14
4
-5
-4
17
-26
-19
46
3
-2
-12
-5
-40
-9
-27
-38
-12
-18
-8
1
-5
6
46
-12
17
4
1
11
20
-74
-54
0
18
-2
7
2
9
13
-21
8
-6
5
-10
-5
5
57
0
4
7
1
7
3
10
-32
32
7
-19
6
-3
-1
3
-90
-35
4
14
1
1
-5
-31
31
-21
-3
14
-1
-3
-6
3
-15
-52
21
1
-6
-9
1
-14
-58
28
-1
12
-9
-8
-6
6
-56
-5
8
-31
-4
3
-7
-23
18
48
-12
19
10
10
12
16
-71
16
16
24
-4
-7
-7
-5
53
-19
-24
-17
-7
-4
0
-1
-13
15
-7
-22
-9
-1
-8
7
-84
8
6
9
21
1
3
2
127
5
2
0
-6
-1
4
14
-22
-20
17
0
14
6
17
-12
-21
107
9
62
-5
-22
-48
-12
47
37
-1
-39
-12
15
31
9
-48
13
19
-16
-15
2
0
6
5
12
-14
0
19
11
-1
15
-15
-15
-2
13
9
0
-4
-10
11
2
-13
-9
-7
-4
-5
-9
-41
62
26
-23
2
-6
-14
-16
-32
-18
-2
0
-18
-13
0
-5
21
-41
13
-21
-18
-7
-5
19
-86
-57
-25
27
0
-6
5
3
-43
66
10
19
11
7
0
-4
-24
-61
-4
-48
-15
-2
-14
-9
-10
-3
2
18
13
8
11
-19
96
-21
-3
-7
-7
-5
3
18
-39
18
-2
1
0
1
6
-15
4
10
5
-9
-6
-10
-14
-13
-41
38
-25
-26
21
26
19
15
58
-33
22
4
-20
-13
-8
9
7
-34
-17
5
22
1
14
32
113
17
-26
6
-3
-23
-48
-40
23
-34
23
-5
-8
16
24
-18
-32
-11
-11
-7
-11
-1
-22
-19
36
59
11
7
4
3
21
12
32
-45
-11
13
4
-4
5
20
56
-6
11
7
4
1
8
-7
-61
-1
6
4
-6
-1
-6
17
9
11
-10
-24
-27
-9
-9
-4
32
-4
-10
18
2
10
13
24
-17
25
3
4
0
-9
-24
-4
-76
14
-7
11
14
5
-2
-16
-7
14
10
-19
-25
-20
-6
-8
73
-77
4
-11
2
7
-7
-8
5
55
-6
-10
4
-4
8
8
-34
-12
-7
22
8
0
-8
-21
3
29
3
-6
-5
-3
-6
22
-21
33
6
0
-8
-17
5
-22
-61
-21
17
-6
-1
4
-19
-24
17
14
-1
0
6
11
16
-6
12
-26
-22
15
6
8
-7
-4
13
27
18
22
0
10
26
29
5
-22
-7
-19
5
-8
0
16
-29
27
-4
5
5
-13
-7
-10
-23
-70
0
-5
3
7
2
-3
-16
43
8
7
0
-4
-1
-16
41
3
6
17
-9
-4
-5
20
-9
-32
-15
-16
-8
3
-3
-27
64
10
19
11
10
10
10
14
-32
16
-13
-2
4
4
-4
8
-10
-22
13
-2
1
0
8
23
14
10
-5
-8
-3
-2
-1
-18
0
-22
1
-14
-5
-8
3
-8
-11
39
-4
-1
5
14
14
19
9
-29
-6
-17
-12
-11
-31
-46
-16
-52
0
-17
-4
-10
5
21
4
16
1
7
5
17
-3
-12
-98
-15
25
-23
0
5
14
-8
104
-2
-35
-1
-7
-10
-15
21
-48
17
14
6
7
2
11
-3
16
-36
-5
-18
-16
-14
-4
-7
-56
-16
-25
-9
6
-4
-5
-8
19
13
15
52
16
9
7
22
31
50
-3
-26
2
-8
-21
-14
11
-26
17
7
-7
-2
-4
-3
-2
14
-11
-10
-14
-5
-2
9
12
1
-20
-72
4
3
20
-19
67
-21
10
24
-5
1
-6
21
-59
-4
-21
-6
5
-6
-10
-13
17
-8
10
16
-1
3
-3
20
-45
-19
-2
-15
-9
-7
9
-16
61
54
2
4
5
2
-26
-1
30
-17
3
-20
3
4
17
11
-4
1
-12
7
-5
-9
3
-9
-6
3
10
10
-2
20
-3
-9
25
26
2
3
4
4
13
9
-105
9
2
17
-5
-11
-11
-32
64
-3
6
3
12
-8
-10
22
-51
17
-7
7
-3
2
25
-3
-7
34
-7
-49
0
1
-4
9
38
-66
-3
48
5
2
-1
16
-38
10
16
-60
-10
-7
-13
-29
-39
6
-11
34
21
5
9
1
15
-23
-31
10
-9
-4
-9
2
16
23
20
-15
-3
2
12
25
24
1
3
12
3
3
-14
-28
-4
-20
25
-9
-8
-7
-6
-8
12
61
-29
40
3
2
8
22
14
-16
-2
6
0
-5
16
1
-35
2
6
-21
2
8
-11
8
23
13
6
-17
-15
-8
-2
13
-32
-44
3
20
7
10
15
4
27
39
-15
-53
-7
-13
-21
-20
-1
-27
16
35
3
2
1
10
-8
17
0
-7
0
-2
9
12
-22
-74
-8
-10
-5
-5
9
10
6
-31
-17
1
-6
0
-6
-8
22
15
-15
-13
-2
-6
1
-2
-2
-1
-6
2
3
0
-7
18
-33
-41
16
18
-5
-4
1
-27
-6
3
-6
-22
7
6
5
-6
-5
15
-7
25
-1
-3
-24
-8
60
-7
2
-16
4
-1
6
13
-36
-48
-13
19
-8
-7
-13
-15
-1
2
10
0
2
-1
-4
-13
5
13
0
20
5
8
24
11
-55
-9
-4
-6
-8
-1
-12
-10
-2
14
-9
-27
1
4
9
-6
-40
-33
10
-34
0
-3
-8
-6
26
8
-1
12
-2
4
16
6
24
16
-9
-5
-4
-7
-8
8
-26
25
7
-4
11
2
-7
-36
-8
6
-9
28
4
1
-3
3
-18
-2
1
-10
0
2
9
-11
13
11
1
14
-3
13
16
-9
-14
-9
1
-18
-7
-13
-6
16
42
20
-9
-1
-2
6
15
-10
4
19
-10
1
-5
-3
-17
-7
-7
-54
15
16
6
-11
-12
5
-16
32
-6
-12
-1
-1
-5
-3
9
-14
10
11
-7
-7
-19
-8
27
-15
-15
-5
1
4
8
16
3
2
-1
3
-3
-6
8
7
-9
8
6
-2
-7
-4
-11
-20
27
9
-14
-1
6
1
-10
11
25
13
15
-11
-1
1
-1
-12
-8
-3
-14
-3
-6
-3
-8
-12
-9
-15
2
1
-7
2
20
33
9
0
-6
11
-6
-9
-7
0
-33
-36
-4
1
-7
0
-8
-18
2
22
4
22
11
2
0
-5
-83
35
12
-6
2
0
-1
-6
-22
21
-5
4
-7
13
-2
-2
-5
1
-5
-12
4
-7
13
25
-35
10
1
29
3
13
-3
-28
34
-62
-16
-50
-7
-6
6
13
14
5
10
7
-5
-3
-10
-10
-18
-2
6
8
3
-1
12
0
49
34
-12
-15
-3
-10
-36
-25
29
-19
-5
3
1
-4
-1
1
-11
-5
-4
1
2
6
12
11
2
9
2
-9
-6
-8
-4
5
-2
-14
-7
-6
-3
-2
17
-3
42
-3
1
-4
-6
-4
-19
12
-44
8
3
-20
-15
-11
-10
-37
29
15
-7
-10
9
6
7
15
-18
-7
-15
-2
-1
0
12
12
-28
4
21
17
2
-3
-27
11
-21
-1
15
-5
-4
5
12
-28
-12
12
-18
-17
-6
-12
-25
-16
19
-18
3
-9
-6
3
11
16
18
29
5
30
2
8
18
-8
-5
-29
-10
-22
10
-4
0
45
30
-8
1
18
6
18
12
-1
5
-8
-2
-8
-3
-7
-3
1
-13
-16
13
1
-8
-6
-11
-21
39
48
-2
-5
-1
-2
6
15
-72
-40
-10
3
-5
-4
8
10
27
-11
7
-19
-12
-8
-27
-8
34
27
4
5
8
11
13
5
31
7
-22
2
11
3
3
-10
10
-10
4
5
-4
-4
-4
-1
-48
-2
-7
3
-7
-7
4
6
5
-1
6
-10
-5
2
-6
15
5
10
4
12
1
-6
1
-7
1
-21
6
5
-4
-2
0
-5
-10
-17
-22
-23
6
5
-5
6
51
8
6
-17
6
2
5
-1
1
-11
2
17
1
-4
8
12
29
18
0
1
-8
-14
-15
-6
-16
1
4
2
-4
1
11
-5
11
2
-10
5
1
13
6
7
-6
-2
4
-12
0
1
-12
-19
-26
4
-2
-7
-1
-5
3
-15
35
-5
-1
39
5
-4
-7
10
0
5
1
-1
1
-1
8
6
-26
-5
0
-12
-5
-1
2
1
-6
-9
-9
-13
-6
-3
-8
-2
-7
6
3
-16
-3
0
5
2
-16
1
-6
10
4
-2
1
-12
-11
-4
2
8
-3
-4
-11
3
9
11
5
-5
3
2
0
4
-17
-18
5
-6
-2
6
4
-3
-9
5
1
4
-1
-7
-4
-12
16
-10
-12
0
-3
-3
2
4
1
11
1
2
-1
-3
-3
0
2
8
4
-5
-5
-7
-17
-3
-3
-8
-6
-1
-5
-5
10
-4
4
-6
0
9
2
3
-3
7
2
5
4
1
4
9
11
1
-12
1
1
-7
-1
1
-11
-6
-5
-4
-4
0
-1
-6
-4
-4
1
0
-1
-1
-2
-1
-4
3
11
6
1
3
-1
-1
-1
-2
-7
-8
0
-4
-1
-3
10
-1
-3
-7
0
-3
-1
-4
-8
-8
3
-1
-4
2
-2
0
1
3
1
0
2
1
2
-1
-1
2
3
3
-1
1
3
0
-5
-1
-5
5
-3
5
4
6
2
0
-2
-3
2
-1
-5
-5
-1
1
1
-3
-2
4
3
2
4
3
0
5
-2
-6
-1
-1
1
0
-8
-3
-2
-2
-4
-3
-1
-5
-1
-3
-2
1
-2
0
0
2
3
3
-2
-2
-5
-2
-5
0
4
0
2
-4
-2
-3
4
-1
0
0
-5
0
-1
-3
-5
-1
-4
-4
-2
2
-1
-4
2
1
4
-3
0
-4
-4
-1
-6
0
-5
0
-2
1
3
3
4
0
0
0
0
2
-1
0
4
-1
-3
-1
5
2
1
-4
6
0
-3
-1
-9
-2
1
6
-19
0
-1
1
9
-3
-4
1
10
-1
1
-1
0
-2
-1
-3
-5
-3
2
-3
2
0
-1
-1
4
0
-3
-3
1
1
-2
-7
-2
-4
0
-1
-13
-2
3
0
-4
-1
0
-3
-13
-1
-1
-2
-4
0
-1
-4
9
1
0
2
8
1
-2
0
-2
-5
1
1
-1
-1
-3
3
14
-2
-4
-3
-3
1
0
-4
0
3
-3
-3
1
0
2
3
-1
0
1
-1
-13
1
-3
2
22
1
-1
2
2
-3
0
-4
-31
1
-1
-4
5
0
1
1
-4
-11
-3
-1
-4
-2
0
5
17
8
3
4
-4
-2
-3
-8
-45
-5
-3
-9
3
-1
-2
-4
29
-8
2
5
-1
3
0
7
16
4
-1
2
4
-15
5
-17
-83
-5
-8
0
-14
1
-10
-3
19
5
-4
-3
16
-1
2
3
7
5
1
2
-10
1
1
3
-6
-7
1
-2
-1
2
1
5
33
3
5
2
6
-1
2
-5
-19
1
0
-5
-13
-3
-3
-4
-6
-2
-3
-11
-4
-1
2
7
22
0
1
8
16
8
-5
3
13
-3
-3
-3
-13
-18
-3
-15
-4
-3
-4
3
7
3
2
6
27
3
-3
-3
-10
-4
-2
-4
-16
7
3
4
-1
3
-1
1
-1
-3
-1
-5
13
5
0
4
-16
-16
-4
-2
0
-1
-4
-7
-7
-6
-2
2
0
-2
2
0
11
2
0
-10
-3
-3
-1
3
16
17
2
1
-2
2
-1
3
16
-5
-2
3
0
-1
-8
-24
-22
-10
-10
-2
2
-2
4
9
38
20
7
-1
3
0
-2
-1
-52
-16
1
4
-7
0
-4
-5
16
4
-7
-6
-5
0
-1
8
21
16
-1
-6
10
1
1
3
25
3
-2
0
-6
1
10
3
-42
1
13
23
18
8
-10
-7
38
7
-3
1
-11
-6
4
12
-3
-2
6
-1
-3
-1
-5
-1
-37
-10
-3
1
2
-2
-17
-2
72
13
-4
-8
-1
-5
5
-4
-58
-23
1
-1
-1
-7
-10
-10
-20
16
-8
-7
-4
-4
1
8
60
13
0
-4
-11
3
3
3
-28
-14
-3
-8
-2
5
3
-4
-56
-4
7
5
13
5
-5
11
50
11
0
-12
-24
-7
11
-25
-39
-38
-15
-5
6
0
0
-5
36
16
-6
-6
10
6
-2
1
35
17
6
18
-5
-10
7
22
26
-14
3
12
11
4
-22
-20
-49
-4
-6
-5
-7
-9
3
17
74
20
3
-4
-1
-5
1
-19
-82
-21
-4
-12
-2
5
-1
-8
-68
-12
2
5
7
3
-10
3
41
19
1
1
-8
-2
-4
-8
-18
-16
-4
-3
-2
-1
10
22
77
22
6
-1
3
10
-17
-17
-34
-22
0
7
-9
-18
5
5
-31
-6
-6
-8
6
3
3
-20
-22
4
2
2
-18
-2
1
11
33
-8
-5
-4
1
-1
5
0
51
26
6
4
-5
4
-3
-1
20
11
9
6
7
0
-7
-6
-112
-43
-11
-3
-1
3
3
8
73
32
-1
-2
-6
-6
4
5
-13
-21
-6
-6
6
-3
-1
13
-8
6
2
-1
0
1
6
-11
-18
1
4
2
-14
-3
-7
3
14
-9
-8
-6
7
2
5
10
11
15
1
0
6
2
-2
-7
-10
0
0
-2
-6
-2
-2
-4
9
2
4
4
0
-1
2
13
-2
6
7
8
1
0
-1
-11
-12
-14
-3
-6
-4
-1
7
-4
-4
6
-2
2
-1
2
-3
-3
4
-5
-12
-12
-8
-5
-3
-3
-13
0
4
9
16
-1
1
2
11
3
-2
2
-7
3
-3
-6
-8
-4
-2
-11
-9
-3
2
9
33
8
2
1
-5
-1
-1
3
-34
-9
0
3
13
3
3
-10
9
2
-1
1
2
3
-1
1
-21
-8
-3
-6
-5
0
-4
5
8
-1
-6
-1
5
-2
-2
-12
15
8
3
-1
-4
-1
2
4
1
1
17
5
14
1
-3
-10
-64
-16
-2
0
-7
-3
-2
6
-8
4
-5
-3
2
2
-4
5
-21
-6
-9
-8
-13
-1
2
-15
3
6
-3
-1
2
1
6
7
46
8
6
7
1
-3
-5
-10
-57
-17
-3
-2
2
-4
-2
-2
24
0
-2
-5
-9
-2
-3
-1
-15
-6
-2
-2
-1
0
-2
5
7
0
1
3
0
0
-1
2
30
2
-1
-2
5
0
-2
1
-1
-3
1
-4
-11
-3
0
2
-6
-5
0
4
-1
-1
-1
-7
0
-2
-6
-12
-8
-4
1
7
21
11
8
16
17
-1
-2
-9
-11
-19
-8
-6
-3
-1
-2
7
-2
8
2
0
3
0
2
2
8
-2
4
7
3
2
-2
1
-3
3
1
-10
-9
-3
2
-3
-18
7
4
1
-1
0
-3
6
21
-5
-11
-3
1
-1
0
-8
-39
-3
0
-1
-3
1
-2
-3
35
0
-3
-4
-1
-2
3
-4
-30
2
3
4
2
1
-2
-7
-17
-15
-5
-2
-3
-3
0
0
3
5
-1
-1
2
-3
-1
-3
17
-12
-11
1
-2
-2
-2
-5
-17
3
16
4
0
0
-2
1
3
10
4
-1
0
0
-2
0
16
0
-2
2
0
0
0
4
-7
-8
-6
-3
-1
0
0
1
20
-4
-10
-8
-7
-2
1
4
-3
-4
-1
-1
0
-2
-2
-8
-15
-1
0
3
1
-2
0
-1
0
-3
-1
-4
-6
0
0
0
-4
-4
-8
-3
-1
0
-3
-1
2
7
5
1
0
0
0
1
-6
-5
-3
1
1
1
0
0
9
10
3
-2
-1
0
-2
-5
-22
-12
-1
2
1
-2
2
-1
-9
-2
-5
-5
-1
-1
-4
0
12
4
4
3
1
-3
-2
-5
-2
-8
3
2
1
-2
2
0
19
4
-7
-4
-2
-1
-3
-2
-8
-8
-3
-2
-1
-1
4
-5
-6
-4
-1
-1
-1
-3
-2
1
4
7
6
2
0
-2
-3
1
-2
4
1
1
0
0
1
-1
4
-7
-2
0
-2
-2
0
2
7
-5
-4
-2
0
0
1
-3
-11
0
0
0
0
0
2
1
16
-1
-1
-1
-1
0
-4
-4
-11
-1
-1
0
1
0
-1
2
19
5
-2
-2
-3
-1
-3
-3
-1
-9
-8
-5
-2
-1
-2
3
-9
2
5
2
1
1
6
-1
4
2
-1
-3
-4
-3
-10
-1
-3
-6
-4
-1
0
-3
0
-5
9
-4
-2
-3
-2
-2
-2
-2
-13
-1
-4
-2
-1
-2
-4
-4
-1
-4
-3
0
1
2
4
0
6
-1
4
3
0
1
-2
1
0
7
3
0
0
-1
1
3
11
-2
1
0
-2
0
-4
-1
12
3
-1
-3
0
-3
2
4
-10
-11
-5
-3
0
-2
-1
2
5
12
-2
-2
-2
1
0
-7
-11
-11
-2
0
-2
-1
3
0
-9
-3
2
-1
1
1
-5
1
7
10
4
2
3
1
10
-2
-7
-8
-2
1
-3
-3
-5
-3
3
3
-4
-4
-1
-4
-7
-3
2
-5
-1
-3
-4
-3
7
-2
-9
6
-1
-2
0
0
-4
20
0
-3
-2
0
2
2
-3
-15
2
8
7
1
-1
1
10
1
-5
3
-2
0
-2
1
-1
11
-5
-6
-5
-2
-1
-3
-8
-18
-4
-8
-3
-3
0
-2
-3
11
11
-2
-5
-3
-1
-3
-6
1
-7
7
5
2
2
-1
6
-9
-5
6
2
0
0
3
1
8
2
-3
-1
0
-2
3
-10
-1
8
-1
-1
-3
0
-2
-9
-9
-10
-3
-7
-1
-1
-5
-14
-9
-8
-6
-7
-3
-4
-4
4
-5
0
3
2
0
0
0
12
5
-1
2
-3
0
4
6
-1
5
-4
10
10
2
-1
0
5
2
6
-10
-1
-2
-5
-4
3
-7
7
5
2
0
2
-3
-3
-2
-3
-7
-7
-5
-3
-2
-1
0
9
-3
-6
-2
-7
-5
7
1
-7
6
-2
-1
1
2
-10
-8
-10
-4
5
2
0
1
-20
3
3
-6
-2
-1
2
-5
20
-7
3
-6
-3
-2
-2
6
-8
-3
-5
0
-2
-2
-2
-18
20
5
-5
-1
-2
-1
1
8
-29
16
4
7
2
2
2
-6
-19
-22
-12
-7
-6
-1
-1
-2
-5
0
3
-10
4
3
3
4
4
-4
3
7
-4
-5
-5
-8
17
6
11
7
0
-5
2
7
6
15
2
13
2
1
-5
4
-6
-15
-11
-9
-3
2
-4
6
-37
16
23
30
-13
-5
-5
-12
28
-11
-17
-2
21
4
0
13
-3
6
5
-22
-2
-1
7
-10
-18
-16
-15
-11
-4
-2
0
-8
30
12
47
8
-2
-4
-8
2
-66
-13
-38
-12
-11
-5
-7
-7
71
-14
-20
-14
-11
-14
-5
7
-20
11
-4
14
10
3
0
-9
-48
4
3
-1
6
7
5
-3
42
10
10
-22
1
-7
-13
-8
65
-4
15
7
6
5
-1
5
10
-3
-1
32
-16
-5
2
-6
-7
-9
7
-7
8
-2
-3
7
-29
20
13
-15
-11
-3
-3
-1
30
-14
14
24
3
9
9
-2
-12
-6
-22
-7
-5
-1
-4
0
27
-8
-38
-24
-8
1
6
0
50
-18
5
39
29
9
8
6
-30
9
23
-31
-11
-9
-9
1
26
13
20
42
0
4
2
18
-57
-31
-17
-12
3
0
-4
-13
-23
-3
-12
-19
-23
-2
-2
-18
6
22
-30
-19
14
9
8
19
41
-37
8
-7
1
-4
-3
6
5
-22
-4
-21
-13
-15
5
0
1
-11
-1
36
4
9
3
8
-79
-17
-25
0
-8
-6
-3
-20
-72
72
-5
-16
4
13
13
-8
127
43
-4
-17
16
3
-9
24
-42
-83
46
-2
-12
-2
-3
3
-29
30
-24
22
0
19
11
-11
84
-26
-15
-107
3
-8
7
5
-110
5
4
61
-13
-17
-30
-46
4
43
-2
45
11
-1
9
16
49
-20
-10
11
9
0
-4
15
9
17
22
-59
-18
-5
-3
-11
-4
9
14
26
-3
9
12
6
46
-25
-13
-80
6
-4
-5
-9
-36
0
-2
63
0
-1
6
-2
-20
30
-7
-3
-6
-5
-5
24
7
-40
-12
-8
8
-2
-8
0
6
-19
-31
15
6
19
23
-4
-31
2
11
-44
-7
-12
-18
-3
40
9
0
43
13
2
2
-6
-24
22
2
1
7
8
14
7
-47
25
18
3
-7
-13
-15
-30
-3
1
-2
-25
-10
-4
-5
-12
-16
-16
-18
37
5
-2
10
17
95
1
5
-12
2
7
-3
29
47
30
13
6
-6
-3
3
12
-75
-3
4
14
-1
-5
2
-13
32
-19
18
11
-4
-12
-11
-27
-63
-12
-12
-10
-6
-19
-6
-8
-42
6
-7
0
-13
28
7
14
-7
-9
31
-12
19
0
-20
-8
-64
-12
-27
-12
-11
1
4
24
12
17
1
20
4
-10
-22
-44
31
27
-17
-27
-15
-12
3
19
54
-10
16
14
2
2
10
-13
64
26
44
25
4
-2
-9
-9
-78
-68
-26
-38
6
11
12
5
14
-7
10
10
6
-12
-6
5
-30
41
-34
12
-9
5
8
2
35
-32
17
10
-3
-9
-26
2
48
52
-7
-19
-17
17
29
16
-11
-54
-2
-13
27
1
-10
-21
17
-37
3
14
2
-19
8
7
-113
3
15
-3
-9
-1
-19
-18
-1
1
-17
-24
1
11
-9
-35
26
31
-3
33
-9
-3
7
-5
82
67
-1
-24
-15
-9
-18
38
-13
-11
-5
-2
19
0
0
-9
1
31
12
21
0
-9
3
12
-60
43
13
3
-8
-1
7
-11
-9
-24
6
-32
1
-7
-2
6
58
15
-28
26
-20
19
-2
-11
-78
-8
5
6
13
-9
-21
-15
10
-44
-5
8
0
-1
5
3
10
21
23
-35
-8
-4
3
9
6
8
-12
-7
-10
-6
10
11
42
-60
-2
-30
-12
-3
-4
-4
-34
14
-11
3
4
-2
-5
8
-70
-23
6
8
-4
-2
1
-13
-43
-17
-30
8
-2
-1
2
10
51
36
-4
4
-13
-4
18
9
-10
-65
-16
-55
-3
-7
-37
-11
16
-3
6
-3
-1
1
-6
-2
-26
-5
-8
23
11
2
10
21
-5
39
5
3
-7
10
20
-17
39
-6
24
0
4
12
9
-7
-9
-9
-24
-2
-12
-2
2
-15
-29
-16
15
25
11
-8
-14
-9
53
-21
4
35
0
-7
-2
40
-40
14
14
-4
-9
-2
9
4
-36
4
-10
20
4
5
-21
-17
49
12
14
-48
-11
-6
28
-2
-2
-27
-26
4
-1
-4
-14
-1
21
7
-10
-7
6
-1
-1
13
-2
1
6
1
-8
-3
5
-19
-19
-15
-10
10
10
1
-1
-12
-9
15
-21
-33
0
4
2
-5
12
-37
-20
19
-10
-6
-7
3
19
-36
17
-6
5
-7
2
17
38
23
13
-14
0
-5
-7
-2
20
6
-9
22
2
4
4
13
42
7
-4
4
-9
-6
-43
-13
-23
-2
2
-22
-2
21
32
17
24
-8
-9
15
9
3
-10
-35
-35
-25
26
8
-7
-6
2
5
32
30
10
-36
-7
-7
31
19
1
6
-13
29
-1
-12
-42
5
-17
-22
1
3
-8
-3
-1
-10
8
1
9
-8
-6
7
15
30
-32
49
4
-17
4
-9
-11
-15
24
-10
-15
21
-1
4
19
7
-83
-6
0
18
-5
4
1
3
-19
8
3
-67
-24
-13
-20
0
5
15
15
40
6
1
14
-36
30
-14
-11
-23
-4
-3
-17
-19
-46
-67
0
16
2
-2
-5
-7
-35
6
11
-16
17
8
4
2
35
17
-17
-27
-1
2
2
13
6
8
1
44
9
0
17
-3
-5
-11
21
-16
-3
-1
-27
-11
15
-13
-21
26
4
-4
-15
15
-24
-21
21
-4
-15
-10
-6
-13
24
39
-13
3
11
6
17
11
5
13
-5
-12
0
8
6
-1
48
-2
13
23
1
-9
-5
-15
-43
-49
-28
-21
9
-5
-12
2
-22
4
21
-2
-10
-7
7
-8
26
26
1
4
4
4
6
9
-13
11
-4
23
2
2
-14
-19
42
5
-6
2
1
8
21
31
-45
-22
2
-17
6
-1
-18
-10
22
1
4
-16
-3
2
1
13
-41
7
-13
-43
4
1
6
-19
-16
-24
17
14
-2
1
12
9
-23
-19
-12
-30
-3
-4
4
14
-11
32
2
-1
-2
-5
-18
-30
-3
-24
-8
-22
-4
-1
7
-2
-8
4
-14
-9
-7
3
-15
-21
-34
2
-16
3
9
4
-2
18
8
5
9
13
5
1
18
16
-12
7
-10
16
-2
-5
-8
-26
61
18
11
-8
-14
-3
0
16
-17
-11
-22
28
5
5
12
-13
-53
7
10
-14
-6
-2
-18
-6
-21
-6
-1
-31
4
-3
0
0
-11
15
-5
8
-4
1
9
5
37
12
0
11
2
5
-2
-4
24
13
-12
-27
-3
-7
13
11
-5
6
18
25
15
13
-12
-19
-67
-2
15
38
0
0
-5
2
83
-6
-27
-39
2
3
4
11
5
-19
-37
-7
-9
-8
-3
-2
34
20
5
0
-9
0
13
33
19
-3
4
-14
2
0
3
-15
-46
31
38
38
2
1
-16
-30
-1
-14
-4
5
-3
-4
11
7
37
1
-14
-16
2
4
21
13
-6
-10
-5
1
0
0
-16
-1
-3
-8
20
-15
-10
-24
-15
0
41
15
-1
-8
-3
34
39
-9
-25
-26
-3
6
4
-13
-36
-37
-63
1
17
34
8
5
18
11
18
-11
-19
-5
-4
-5
11
18
-35
20
16
23
-3
-11
-28
-1
83
-6
-14
-19
-5
-5
-3
18
15
28
9
-23
2
3
-2
-25
-32
-16
24
-11
-22
-8
-6
-13
42
-1
-24
53
23
3
-1
31
-27
24
12
56
-1
5
36
-20
11
-29
-37
-34
-3
-7
-28
16
-26
21
-7
18
-7
8
7
-4
-6
-35
8
-24
-6
-18
-17
-2
-50
0
25
20
-12
-1
-3
-15
28
14
-18
14
9
11
18
17
-9
2
10
-9
8
22
23
-11
-9
22
-10
-4
-5
-10
-7
-4
3
-7
6
-9
-3
9
-6
11
-6
21
1
4
-4
-12
10
-12
66
-14
6
-5
1
-8
-32
24
-2
10
14
-10
4
9
14
4
-15
-20
-3
10
-2
-2
7
-29
-39
2
6
-49
4
4
-9
-2
-26
-19
-19
0
-5
-3
5
-7
17
-6
0
-9
-3
-6
1
9
-31
27
7
9
-3
-4
1
21
39
-18
9
4
-2
-3
-29
-20
10
22
-8
-16
3
0
0
1
-14
-28
-4
-13
-4
-1
-2
-1
-5
7
-10
-16
-6
-2
0
6
-25
9
10
32
1
-4
5
-6
28
-6
-4
12
-2
2
8
25
-19
-12
19
-11
-6
3
-26
-39
18
-11
5
-17
-17
-9
6
22
3
-10
-30
10
8
2
-8
-14
8
10
-8
-18
-2
2
-2
9
16
2
16
-12
9
2
11
8
-58
-16
-14
8
-6
-11
5
4
36
-19
0
-16
-1
-4
-17
-5
-24
19
-5
-5
5
4
16
11
20
7
3
7
3
1
15
6
19
19
-3
2
-2
13
-6
3
2
-5
-8
-25
10
-1
-12
-21
43
-8
0
-13
14
0
0
-6
-37
-3
5
36
-13
-9
-2
14
23
-6
-9
15
12
-1
0
-9
-43
-2
6
29
1
-1
25
16
-19
-2
-11
-7
-12
-6
-28
-11
7
-7
-5
2
-1
-1
2
-11
14
3
-3
-1
9
1
-5
0
-14
-1
1
-17
-13
-5
0
2
31
24
11
18
3
-2
1
2
5
-27
-3
6
-1
3
1
-1
52
-15
-6
-2
8
-1
-10
-1
12
18
16
-5
-9
-1
3
10
11
-1
5
1
1
4
6
-29
-6
31
-3
-12
3
-11
-2
-8
-10
-7
3
1
-4
10
-5
8
-12
2
-6
15
-3
13
19
-20
20
-40
-14
-29
1
-1
0
8
-24
-1
4
3
-11
-5
-6
5
-22
-8
0
-30
14
-7
-13
-7
-8
-11
-26
40
-6
-11
2
6
-43
-9
0
34
15
1
-9
6
10
8
8
4
2
0
-16
-26
-10
1
10
-3
-9
-4
4
-2
-1
-4
0
-3
-6
-4
-8
10
-20
8
-6
-10
-8
-5
10
-24
-45
-35
-42
-17
0
1
-6
20
-21
-22
18
14
-1
-3
-13
-16
0
15
1
-33
-3
0
2
-4
-11
-8
-18
19
-1
-12
-16
-21
36
36
2
12
4
2
21
54
-62
6
-7
-9
-1
11
-7
-32
80
-39
-1
-9
1
3
1
25
-40
9
8
-23
-2
1
5
-13
14
9
-15
-8
1
1
11
16
2
5
-3
5
1
-7
-8
-4
8
13
-4
5
-15
-9
5
9
43
15
9
12
9
6
-7
4
3
-32
-8
4
1
1
1
-11
-25
-14
6
-14
-4
-5
6
9
-20
22
5
16
-6
-9
-7
6
-7
-8
-5
3
-6
11
27
27
-11
13
17
-22
-4
0
-15
-35
62
-5
-6
13
1
-6
-11
2
-29
-5
-12
-7
14
4
8
13
-5
-17
7
9
-11
-10
-19
-22
17
9
5
0
2
4
-1
3
-19
2
3
-17
-13
-6
4
-16
-14
-1
5
-13
1
2
-22
-23
29
6
-3
-2
-1
-5
1
15
-13
-9
-10
-23
-7
2
13
6
22
8
-22
15
19
-2
-7
-2
-10
2
9
1
-2
2
-13
4
-39
-19
6
12
-2
3
6
-2
8
6
1
-12
-9
-7
-2
-30
15
13
-2
-14
4
-1
1
9
-10
-15
8
8
1
-2
4
-9
4
-7
-3
14
-8
-2
-13
4
-11
7
4
-20
0
0
2
0
22
15
-3
1
-5
-1
15
15
-9
-17
6
30
8
6
3
6
-38
-16
5
-8
-12
-9
-27
-36
41
0
-2
7
11
4
30
38
-28
12
18
-6
-14
-11
-43
-32
16
7
-17
-16
-3
-3
13
12
-27
10
0
-4
-1
0
-2
-7
-14
-7
6
3
-1
7
-4
-9
18
4
0
-5
-2
-4
3
10
-22
11
-2
0
-4
-10
-6
-7
-37
-16
-21
-2
7
1
9
16
3
8
-1
-44
3
-2
-6
-8
25
2
4
9
-7
4
18
29
-28
2
-5
16
1
-3
-20
-23
47
-5
-10
-11
-4
3
25
36
-54
-1
-9
4
-9
-6
-27
-50
1
9
22
1
-1
4
5
8
17
-48
-13
-24
1
-2
5
-4
4
9
13
6
-7
-4
-1
5
-44
-7
0
15
-2
-3
0
8
-26
-16
-15
9
4
2
11
2
32
12
6
-16
-5
-3
10
14
28
21
13
-10
5
12
-13
-12
21
-5
8
7
0
-7
-6
-3
-35
-15
-20
3
-1
7
1
-5
-20
15
18
34
-13
-2
18
4
53
-5
-13
-25
10
-3
-10
-16
-20
21
14
17
1
-1
-1
-10
-17
-33
-8
-1
0
1
-2
14
10
12
4
-3
-7
-9
-16
-27
-38
5
-10
-3
-7
3
5
4
69
17
4
8
0
-3
-1
5
-8
-21
-4
13
-1
9
11
-6
-17
12
10
-1
6
1
-2
2
-20
7
5
6
1
-10
2
-6
-1
-9
-7
4
4
10
-11
10
45
8
-3
-8
-4
-9
-9
0
-7
1
5
-26
-2
7
4
3
-36
-30
-5
-8
-7
-6
-6
-21
12
3
-10
2
2
1
7
18
33
11
5
35
4
4
36
28
-8
-2
-10
-44
4
1
-35
-42
10
14
18
4
9
4
7
-1
3
-21
-10
10
-7
-6
-4
1
-15
-5
-1
-20
-20
-7
-13
6
6
30
3
19
7
7
18
31
-1
-20
-14
-9
-8
1
1
-19
24
2
2
6
0
-5
1
-11
-28
17
-2
-9
3
2
-15
6
-32
-25
2
-3
-9
-9
6
13
37
10
9
11
2
20
4
-22
-7
-9
3
-25
0
7
1
3
39
28
-6
12
1
-1
20
12
14
-15
-20
-10
-1
-11
-23
-5
-36
-19
3
9
5
-6
-4
-4
1
-3
2
-4
-1
-4
0
-8
-6
-3
-14
-28
4
0
-1
2
24
8
-11
-35
7
4
9
15
-14
14
9
29
-5
-5
-2
-11
1
-15
-22
-2
-14
-6
-5
2
-25
-18
10
-4
1
-4
-7
-17
41
4
-7
17
1
5
2
3
10
-6
15
-18
0
-2
-3
10
-37
-14
-2
-5
0
-15
-14
1
-15
-20
-8
6
6
13
7
-12
-7
-17
5
13
2
13
13
-10
3
10
-5
-7
-3
0
-3
17
-3
8
3
10
3
3
13
-1
5
1
-6
-5
-4
-8
-16
-7
2
6
4
14
-3
-4
-3
-7
-1
7
-5
-1
0
-5
0
12
0
5
5
-4
-3
1
-2
2
-3
5
-6
-6
-4
-3
-4
-9
-13
-2
-4
10
0
-2
-1
-1
-1
6
-3
-4
-1
-1
3
6
-7
6
3
0
6
2
-4
-1
2
4
1
2
4
-1
-5
-2
0
4
0
10
-5
-3
1
-6
5
5
-3
-9
-10
-11
0
5
1
-1
-1
-3
-3
3
-3
1
-1
1
2
3
4
5
1
-3
-2
-7
-6
0
-2
-4
-1
0
-2
4
1
-4
-1
0
-2
1
-4
1
2
-2
0
-1
1
-1
3
-8
-6
2
-1
-4
1
-3
-1
1
1
4
-1
-1
-13
-5
-4
1
-2
0
1
0
5
3
-3
-3
-3
1
1
2
3
-2
0
2
5
2
1
1
3
-4
5
1
4
6
0
-6
0
3
6
-2
2
-1
-2
7
-4
7
-5
2
-16
-7
-3
-2
-4
-9
-2
-6
5
4
-1
1
0
-1
-5
2
4
-1
-4
-17
2
-3
-3
2
7
-3
-1
13
2
1
-2
-4
19
2
2
7
0
4
-2
3
-14
0
2
-2
1
0
-3
-2
1
2
0
-1
1
-2
12
0
21
-1
-2
-12
-7
-2
1
-1
-31
2
2
1
1
3
-10
-12
15
-17
-12
-3
-5
-7
-4
-5
-9
12
-3
-2
-12
3
-4
1
-3
-6
0
9
14
0
2
3
37
11
2
-1
3
0
7
10
-1
-2
11
3
22
1
1
-9
-34
-13
-3
3
-20
-3
-6
-9
-7
-5
-5
-25
-38
-6
4
0
39
16
0
19
26
-7
-6
-5
-19
-12
-4
-15
-7
-6
-4
-5
-31
-13
-6
-2
4
-10
3
7
-4
2
7
27
17
13
-5
-9
-16
-12
-5
-11
-13
2
3
12
36
12
9
3
1
1
9
3
44
23
11
-9
4
-1
-16
-16
-44
-33
-18
-13
-15
-7
2
12
29
14
0
-2
7
4
1
-11
-5
4
-1
8
8
2
2
6
-1
5
6
6
-11
1
1
2
12
8
2
-6
4
-3
0
4
15
9
3
-6
-5
-1
-3
-13
-65
-31
-8
-4
-4
-1
-1
7
46
-2
4
15
8
0
-1
-10
-21
-3
-6
-31
-24
-5
-10
-12
7
3
-5
21
-13
-2
11
17
-56
2
-1
6
25
5
-24
-23
-46
-28
-13
-2
7
-9
15
15
17
-2
8
-2
4
5
-5
-9
-20
-6
-12
-25
-26
-6
-6
11
116
24
-10
-2
-17
0
3
-9
-97
-20
8
19
8
5
-7
-9
-31
-11
7
-4
12
-4
-1
-13
19
-13
-11
-12
-9
-6
1
1
12
-2
3
7
6
-1
-1
4
11
9
-8
-13
-6
-2
2
4
58
19
5
8
11
-1
8
9
-72
-9
7
-5
12
3
-15
-32
-73
-9
-18
-17
-15
-7
6
18
52
25
2
2
-3
-1
-6
-7
30
-4
-5
4
-11
-4
2
7
-3
-12
1
10
7
3
4
2
-44
-7
7
-3
-5
-2
-2
-3
19
4
-2
-10
1
0
0
8
24
19
1
5
7
0
3
-1
-33
-13
7
1
-5
0
-8
-15
19
-5
-12
-15
-7
-7
-5
-11
19
-13
-6
3
-7
2
-1
3
-9
13
4
14
7
1
4
3
-12
-18
-1
-5
-1
-1
2
6
6
3
6
-2
-4
-2
-1
-3
1
-1
-3
0
-4
0
-2
0
-26
-2
-2
-7
2
0
0
-8
13
-5
-1
-1
1
-2
-1
-1
-47
12
1
4
-3
0
-2
7
31
12
-5
-2
1
1
-3
-7
-21
-16
-6
-6
-4
-2
0
5
5
16
6
2
8
1
-1
-3
6
-16
-4
1
-7
-1
1
6
45
11
5
-3
5
-2
1
-5
-49
-16
-5
-1
-4
0
-1
2
8
11
-4
-2
2
-1
0
1
30
0
1
-1
-8
-2
-2
-2
-18
1
-1
-17
-3
1
0
3
2
-1
0
-39
10
-1
-5
-4
28
5
-3
-27
-11
0
2
1
6
2
5
-10
6
1
-1
-6
-30
-23
-7
8
2
-1
2
3
21
19
5
21
-6
-2
-7
-7
-24
-12
-7
13
2
-2
0
-4
-9
-1
2
15
-1
0
1
1
-3
0
-2
10
-2
0
0
3
6
6
3
8
0
-1
-3
-9
-56
-16
-1
12
-5
-1
-2
-4
45
11
-5
5
-6
-2
0
4
11
3
5
5
6
0
1
-1
-18
-2
-2
1
-7
-4
-1
-1
17
2
-4
0
2
-1
0
3
-1
0
1
-1
2
-1
-1
2
0
-3
-3
-3
-2
0
0
-1
1
3
-1
-1
-1
-1
-2
3
15
11
-1
-3
-2
-2
-2
-6
28
-14
-4
-4
1
-2
0
-1
-3
1
0
-5
1
-1
-3
-1
4
2
1
4
1
0
1
4
35
9
6
3
4
1
0
2
7
2
2
-2
0
0
-3
-9
-58
-21
-3
-1
-1
-2
-2
-4
2
2
-1
-1
-1
0
1
3
21
9
0
-3
0
-1
-2
-1
-12
-1
0
-2
-2
-2
3
7
11
0
0
-2
1
-1
-3
-7
-21
-14
-8
-5
1
-2
1
-3
-6
-1
0
0
0
0
-2
1
32
-2
-1
-1
-3
-2
-1
0
-30
-3
-4
0
1
-1
0
-2
2
0
-3
-6
0
0
1
-1
1
-2
3
5
5
-1
1
3
-5
1
3
5
2
-1
1
-1
17
5
3
-3
0
-2
-2
-3
2
-6
-3
1
1
-1
-2
-2
-6
-1
-6
-5
-1
-2
-1
3
3
7
1
0
-1
0
-3
-6
-11
-9
0
0
0
1
0
-1
-12
-7
-3
-2
-5
-1
-2
0
3
1
0
0
0
-1
1
1
-10
5
0
-8
-7
-1
2
3
42
2
0
8
6
-1
2
6
10
10
6
1
-3
-1
-7
-16
-29
-24
-7
-6
-1
-3
0
3
-2
6
-4
-3
-3
0
1
0
15
-2
-4
-3
-2
0
-1
-4
-31
-2
-2
1
-1
-1
2
4
21
11
3
-1
0
-1
1
-2
-17
-3
-3
0
0
-1
-4
-3
-6
2
2
-3
5
1
1
1
8
-6
-1
3
-9
-4
-1
0
-3
-7
-1
-8
-10
1
-4
-6
5
2
-2
8
11
-1
0
2
15
8
1
-1
2
-1
-2
0
16
3
-2
-1
6
0
1
1
-23
-4
0
-3
-1
-3
2
-1
4
0
2
-1
-2
-1
-1
-2
7
-2
1
-2
-9
-2
-1
-1
-12
-3
-3
1
1
-1
-2
0
4
-2
-5
-3
-6
-2
-2
-4
-25
-6
-4
-5
2
0
0
-1
-9
-1
-1
0
1
-1
1
1
-8
-2
3
1
0
-2
1
4
35
8
2
2
3
0
-2
0
6
-1
0
-3
-2
-1
0
0
11
-1
-4
0
-1
1
-2
-2
-5
2
-6
-2
3
-1
1
0
-14
-1
3
2
5
0
2
5
21
3
5
1
-1
1
-4
-4
-5
-1
-2
-3
-5
-2
-2
1
13
-2
-3
-3
0
1
-1
-3
-21
-6
0
0
2
-1
-2
-1
-31
2
1
4
-1
-1
-1
4
35
8
5
-2
5
1