-0.5956971526389689
0.038772866970452666
1.6758102003989521
-0.5956971526389689
0.038772866970452666
1.6758102003989521
-0.5956971526389689
0.038772866970452666
1.6758102003989521
-0.5956971526389689
0.038772866970452666
1.6758102003989521
-0.5960510118749079
0.039517258544935874
1.6752238801517159
-0.5960510118749079
0.039517258544935874
1.6752238801517159
-0.5960510118749079
0.039517258544935874
1.6752238801517159
-0.5960510118749079
0.039517258544935874
1.6752238801517159
-0.5963755295514578
0.04039810371520385
1.674500479593253
-0.5963755295514578
0.04039810371520385
1.674500479593253
-0.5963755295514578
0.04039810371520385
1.674500479593253
-0.5963755295514578
0.04039810371520385
1.674500479593253
-0.5971510514628823
0.04114214426113788
1.6735433345151087
-0.5971510514628823
0.04114214426113788
1.6735433345151087
-0.5971510514628823
0.04114214426113788
1.6735433345151087
-0.5971510514628823
0.04114214426113788
1.6735433345151087
-0.5980504173675059
0.04150546929788768
1.672795330945262
-0.5980504173675059
0.04150546929788768
1.672795330945262
-0.5980504173675059
0.04150546929788768
1.672795330945262
-0.5980504173675059
0.04150546929788768
1.672795330945262
-0.5989526514630356
0.04163998063292165
1.6724782102738749
-0.5989526514630356
0.04163998063292165
1.6724782102738749
-0.5989526514630356
0.04163998063292165
1.6724782102738749
-0.5989526514630356
0.04163998063292165
1.6724782102738749
-0.6002143681918422
0.0416524674468491
1.6722858094745858
-0.6002143681918422
0.0416524674468491
1.6722858094745858
-0.6002143681918422
0.0416524674468491
1.6722858094745858
-0.6002143681918422
0.0416524674468491
1.6722858094745858
-0.6008440384163166
0.041193038026187866
1.672148307019486
-0.6008440384163166
0.041193038026187866
1.672148307019486
-0.6008440384163166
0.041193038026187866
1.672148307019486
-0.6008440384163166
0.041193038026187866
1.672148307019486
-0.601424641821536
0.04051129549024809
1.6721765335014507
-0.601424641821536
0.04051129549024809
1.6721765335014507
-0.601424641821536
0.04051129549024809
1.6721765335014507
-0.601424641821536
0.04051129549024809
1.6721765335014507
-0.6023721194434928
0.03954332400272802
1.6723814792703025
-0.6023721194434928
0.03954332400272802
1.6723814792703025
-0.6023721194434928
0.03954332400272802
1.6723814792703025
-0.6023721194434928
0.03954332400272802
1.6723814792703025
-0.6026022267132821
0.038704830510386555
1.6725520426578768
-0.6026022267132821
0.038704830510386555
1.6725520426578768
-0.6026022267132821
0.038704830510386555
1.6725520426578768
-0.6026022267132821
0.038704830510386555
1.6725520426578768
-0.6026376255201453
0.03799521046837877
1.6725913924696452
-0.6026376255201453
0.03799521046837877
1.6725913924696452
-0.6026376255201453
0.03799521046837877
1.6725913924696452
-0.6026376255201453
0.03799521046837877
1.6725913924696452
-0.6024873746641781
0.037136146311622396
1.6727661354142804
-0.6024873746641781
0.037136146311622396
1.6727661354142804
-0.6024873746641781
0.037136146311622396
1.6727661354142804
-0.6024873746641781
0.037136146311622396
1.6727661354142804
-0.6019119778098813
0.036096801520515705
1.6727293128997065
-0.6019119778098813
0.036096801520515705
1.6727293128997065
-0.6019119778098813
0.036096801520515705
1.6727293128997065
-0.6019119778098813
0.036096801520515705
1.6727293128997065
-0.6006734799811543
0.035590019044245635
1.673070833786637
-0.6006734799811543
0.035590019044245635
1.673070833786637
-0.6006734799811543
0.035590019044245635
1.673070833786637
-0.6006734799811543
0.035590019044245635
1.673070833786637
-0.6008533519128805
0.03526814012361268
1.6731670732000683
-0.6008533519128805
0.03526814012361268
1.6731670732000683
-0.6008533519128805
0.03526814012361268
1.6731670732000683
-0.6008533519128805
0.03526814012361268
1.6731670732000683
-0.601882504818596
0.034795194465840305
1.673494964947959
-0.601882504818596
0.034795194465840305
1.673494964947959
-0.601882504818596
0.034795194465840305
1.673494964947959
-0.601882504818596
0.034795194465840305
1.673494964947959
-0.602709091963325
0.03461602531651767
1.6736405382775958
-0.602709091963325
0.03461602531651767
1.6736405382775958
-0.602709091963325
0.03461602531651767
1.6736405382775958
-0.602709091963325
0.03461602531651767
1.6736405382775958
-0.6033405649128976
0.03456573788314199
1.6736544681994783
-0.6033405649128976
0.03456573788314199
1.6736544681994783
-0.6033405649128976
0.03456573788314199
1.6736544681994783
-0.6033405649128976
0.03456573788314199
1.6736544681994783
-0.6039174216207683
0.03411137555419749
1.673253726540538
-0.6039174216207683
0.03411137555419749
1.673253726540538
-0.6039174216207683
0.03411137555419749
1.673253726540538
-0.6039174216207683
0.03411137555419749
1.673253726540538
-0.6040938529577906
0.03367037374758874
1.672389760750423
-0.6040938529577906
0.03367037374758874
1.672389760750423
-0.6040938529577906
0.03367037374758874
1.672389760750423
-0.6040938529577906
0.03367037374758874
1.672389760750423
-0.6037597456077277
0.03336026742936034
1.6720360973010746
-0.6037597456077277
0.03336026742936034
1.6720360973010746
-0.6037597456077277
0.03336026742936034
1.6720360973010746
-0.6037597456077277
0.03336026742936034
1.6720360973010746
-0.6044061535536923
0.0329802624427009
1.6721528527910021
-0.6044061535536923
0.0329802624427009
1.6721528527910021
-0.6044061535536923
0.0329802624427009
1.6721528527910021
-0.6044061535536923
0.0329802624427009
1.6721528527910021
-0.6055824089054864
0.032435327976547024
1.6722266851957077
-0.6055824089054864
0.032435327976547024
1.6722266851957077
-0.6055824089054864
0.032435327976547024
1.6722266851957077
-0.6055824089054864
0.032435327976547024
1.6722266851957077
-0.607013398764465
0.031777451274854665
1.671895630592665
-0.607013398764465
0.031777451274854665
1.671895630592665
-0.607013398764465
0.031777451274854665
1.671895630592665
-0.607013398764465
0.031777451274854665
1.671895630592665
-0.6081900595479272
0.03140707211980395
1.6713740763460323
-0.6081900595479272
0.03140707211980395
1.6713740763460323
-0.6081900595479272
0.03140707211980395
1.6713740763460323
-0.6081900595479272
0.03140707211980395
1.6713740763460323
-0.608842066142742
0.031149966290689866
1.6707308399370941
-0.608842066142742
0.031149966290689866
1.6707308399370941
-0.608842066142742
0.031149966290689866
1.6707308399370941
-0.608842066142742
0.031149966290689866
1.6707308399370941
-0.608842066142742
0.031149966290689866
1.6707308399370941
-0.608842066142742
0.031149966290689866
1.6707308399370941
-0.608842066142742
0.031149966290689866
1.6707308399370941
-0.608842066142742
0.031149966290689866
1.6707308399370941
-0.6091307521149286
0.03077820527150241
1.6709380999257748
-0.6091307521149286
0.03077820527150241
1.6709380999257748
-0.6091307521149286
0.03077820527150241
1.6709380999257748
-0.6091307521149286
0.03077820527150241
1.6709380999257748
-0.6106723448232065
0.030581746444472244
1.6709084233676785
-0.6106723448232065
0.030581746444472244
1.6709084233676785
-0.6106723448232065
0.030581746444472244
1.6709084233676785
-0.6106723448232065
0.030581746444472244
1.6709084233676785
-0.6125087567421506
0.030483718832815927
1.6708529052565497
-0.6125087567421506
0.030483718832815927
1.6708529052565497
-0.6125087567421506
0.030483718832815927
1.6708529052565497
-0.6125087567421506
0.030483718832815927
1.6708529052565497
-0.6135811441147857
0.03045809143581797
1.6705866904339215
-0.6135811441147857
0.03045809143581797
1.6705866904339215
-0.6135811441147857
0.03045809143581797
1.6705866904339215
-0.6135811441147857
0.03045809143581797
1.6705866904339215
-0.6131143339968262
0.03051664930240153
1.6705660692471296
-0.6131143339968262
0.03051664930240153
1.6705660692471296
-0.6131143339968262
0.03051664930240153
1.6705660692471296
-0.6131143339968262
0.03051664930240153
1.6705660692471296
-0.6124017466436058
0.030421160083485072
1.6709599153550945
-0.6124017466436058
0.030421160083485072
1.6709599153550945
-0.6124017466436058
0.030421160083485072
1.6709599153550945
-0.6124017466436058
0.030421160083485072
1.6709599153550945
-0.6125994516455311
0.03018013042869886
1.671309018048373
-0.6125994516455311
0.03018013042869886
1.671309018048373
-0.6125994516455311
0.03018013042869886
1.671309018048373
-0.6125994516455311
0.03018013042869886
1.671309018048373
-0.613966361943586
0.03008037409907552
1.671614114299899
-0.613966361943586
0.03008037409907552
1.671614114299899
-0.613966361943586
0.03008037409907552
1.671614114299899
-0.613966361943586
0.03008037409907552
1.671614114299899
-0.6148691207619243
0.030099531959573708
1.6715176384277328
-0.6148691207619243
0.030099531959573708
1.6715176384277328
-0.6148691207619243
0.030099531959573708
1.6715176384277328
-0.6148691207619243
0.030099531959573708
1.6715176384277328
-0.6148691207619243
0.030099531959573708
1.6715176384277328
-0.6148691207619243
0.030099531959573708
1.6715176384277328
-0.6148691207619243
0.030099531959573708
1.6715176384277328
-0.6148691207619243
0.030099531959573708
1.6715176384277328
-0.6145850349819157
0.03024594042006197
1.671742162660873
-0.6145850349819157
0.03024594042006197
1.671742162660873
-0.6145850349819157
0.03024594042006197
1.671742162660873
-0.6145850349819157
0.03024594042006197
1.671742162660873
-0.6149298269757271
0.030453884934050563
1.6717658127749762
-0.6149298269757271
0.030453884934050563
1.6717658127749762
-0.6149298269757271
0.030453884934050563
1.6717658127749762
-0.6149298269757271
0.030453884934050563
1.6717658127749762
-0.6156766771243815
0.030822851164486863
1.6716559901718684
-0.6156766771243815
0.030822851164486863
1.6716559901718684
-0.6156766771243815
0.030822851164486863
1.6716559901718684
-0.6156766771243815
0.030822851164486863
1.6716559901718684
-0.6157551365988894
0.030908757889943062
1.671627335442476
-0.6157551365988894
0.030908757889943062
1.671627335442476
-0.6157551365988894
0.030908757889943062
1.671627335442476
-0.6157551365988894
0.030908757889943062
1.671627335442476
-0.6157551365988894
0.030908757889943062
1.671627335442476
-0.6157551365988894
0.030908757889943062
1.671627335442476
-0.6157551365988894
0.030908757889943062
1.671627335442476
-0.6157551365988894
0.030908757889943062
1.671627335442476
-0.6153896845026546
0.030732371770434686
1.6711369659744406
-0.6153896845026546
0.030732371770434686
1.6711369659744406
-0.6153896845026546
0.030732371770434686
1.6711369659744406
-0.6153896845026546
0.030732371770434686
1.6711369659744406
-0.6151988014970076
0.03045944470642531
1.6703126033650935
-0.6151988014970076
0.03045944470642531
1.6703126033650935
-0.6151988014970076
0.03045944470642531
1.6703126033650935
-0.6151988014970076
0.03045944470642531
1.6703126033650935
-0.6161799128551209
0.02958852580818836
1.669688570765613
-0.6161799128551209
0.02958852580818836
1.669688570765613
-0.6161799128551209
0.02958852580818836
1.669688570765613
-0.6161799128551209
0.02958852580818836
1.669688570765613
-0.616977261113363
0.0294266826179451
1.6681941504294926
-0.616977261113363
0.0294266826179451
1.6681941504294926
-0.616977261113363
0.0294266826179451
1.6681941504294926
-0.616977261113363
0.0294266826179451
1.6681941504294926
-0.6156028428146787
0.029688103040125795
1.666114408965906
-0.6156028428146787
0.029688103040125795
1.666114408965906
-0.6156028428146787
0.029688103040125795
1.666114408965906
-0.6156028428146787
0.029688103040125795
1.666114408965906
-0.615503849317184
0.03026782182724086
1.6653889921455305
-0.615503849317184
0.03026782182724086
1.6653889921455305
-0.615503849317184
0.03026782182724086
1.6653889921455305
-0.615503849317184
0.03026782182724086
1.6653889921455305
-0.616429418487173
0.032146023708811124
1.6651562546124847
-0.616429418487173
0.032146023708811124
1.6651562546124847
-0.616429418487173
0.032146023708811124
1.6651562546124847
-0.616429418487173
0.032146023708811124
1.6651562546124847
-0.6160410556473591
0.03412467357084564
1.6648858532661621
-0.6160410556473591
0.03412467357084564
1.6648858532661621
-0.6160410556473591
0.03412467357084564
1.6648858532661621
-0.6160410556473591
0.03412467357084564
1.6648858532661621
-0.612466395123677
0.03731414634279884
1.665248216411737
-0.612466395123677
0.03731414634279884
1.665248216411737
-0.612466395123677
0.03731414634279884
1.665248216411737
-0.612466395123677
0.03731414634279884
1.665248216411737
-0.611309947354225
0.04110910563510448
1.6674139802345163
-0.611309947354225
0.04110910563510448
1.6674139802345163
-0.611309947354225
0.04110910563510448
1.6674139802345163
-0.611309947354225
0.04110910563510448
1.6674139802345163
-0.607293419883183
0.04399008596815042
1.668348893040598
-0.607293419883183
0.04399008596815042
1.668348893040598
-0.607293419883183
0.04399008596815042
1.668348893040598
-0.607293419883183
0.04399008596815042
1.668348893040598
-0.6026768655428086
0.04781125359163991
1.6683701662998107
-0.6026768655428086
0.04781125359163991
1.6683701662998107
-0.6026768655428086
0.04781125359163991
1.6683701662998107
-0.6026768655428086
0.04781125359163991
1.6683701662998107
-0.6001799811792636
0.05191445555479658
1.669215332526926
-0.6001799811792636
0.05191445555479658
1.669215332526926
-0.6001799811792636
0.05191445555479658
1.669215332526926
-0.6001799811792636
0.05191445555479658
1.669215332526926
-0.6039751101939075
0.05617632977079244
1.6705703503102116
-0.6039751101939075
0.05617632977079244
1.6705703503102116
-0.6039751101939075
0.05617632977079244
1.6705703503102116
-0.6039751101939075
0.05617632977079244
1.6705703503102116
-0.6060240191568175
0.05928147916918965
1.6691212014809107
-0.6060240191568175
0.05928147916918965
1.6691212014809107
-0.6060240191568175
0.05928147916918965
1.6691212014809107
-0.6060240191568175
0.05928147916918965
1.6691212014809107
-0.5977831240320942
0.05837570430464866
1.6709637901087935
-0.5977831240320942
0.05837570430464866
1.6709637901087935
-0.5977831240320942
0.05837570430464866
1.6709637901087935
-0.5977831240320942
0.05837570430464866
1.6709637901087935
-0.584069233617581
0.0580373523396795
1.6764044677468857
-0.584069233617581
0.0580373523396795
1.6764044677468857
-0.584069233617581
0.0580373523396795
1.6764044677468857
-0.584069233617581
0.0580373523396795
1.6764044677468857
-0.5632955324295243
0.05351380391073473
1.681318729839889
-0.5632955324295243
0.05351380391073473
1.681318729839889
-0.5632955324295243
0.05351380391073473
1.681318729839889
-0.5632955324295243
0.05351380391073473
1.681318729839889
-0.5407019813198622
0.04683721753827566
1.6814387605542231
-0.5407019813198622
0.04683721753827566
1.6814387605542231
-0.5407019813198622
0.04683721753827566
1.6814387605542231
-0.5407019813198622
0.04683721753827566
1.6814387605542231
-0.5441861674926103
0.0426145467153396
1.6877006349490886
-0.5441861674926103
0.0426145467153396
1.6877006349490886
-0.5441861674926103
0.0426145467153396
1.6877006349490886
-0.5441861674926103
0.0426145467153396
1.6877006349490886
-0.5523481703907624
0.03908234064253905
1.6933322604109684
-0.5523481703907624
0.03908234064253905
1.6933322604109684
-0.5523481703907624
0.03908234064253905
1.6933322604109684
-0.5523481703907624
0.03908234064253905
1.6933322604109684
-0.5622900695156535
0.030956063184779194
1.6980881074746963
-0.5622900695156535
0.030956063184779194
1.6980881074746963
-0.5622900695156535
0.030956063184779194
1.6980881074746963
-0.5622900695156535
0.030956063184779194
1.6980881074746963
-0.5565527663038163
0.024722433755248217
1.7002971770698594
-0.5565527663038163
0.024722433755248217
1.7002971770698594
-0.5565527663038163
0.024722433755248217
1.7002971770698594
-0.5565527663038163
0.024722433755248217
1.7002971770698594
-0.5440327717362625
0.020507374045830324
1.7011212420040134
-0.5440327717362625
0.020507374045830324
1.7011212420040134
-0.5440327717362625
0.020507374045830324
1.7011212420040134
-0.5440327717362625
0.020507374045830324
1.7011212420040134
-0.5431146886309809
0.013919854261606818
1.701868657222946
-0.5431146886309809
0.013919854261606818
1.701868657222946
-0.5431146886309809
0.013919854261606818
1.701868657222946
-0.5431146886309809
0.013919854261606818
1.701868657222946
-0.5472993136889273
0.007374049144222036
1.7018628140540928
-0.5472993136889273
0.007374049144222036
1.7018628140540928
-0.5472993136889273
0.007374049144222036
1.7018628140540928
-0.5472993136889273
0.007374049144222036
1.7018628140540928
-0.5500403740862142
0.0020356068562258924
1.6998146879703675
-0.5500403740862142
0.0020356068562258924
1.6998146879703675
-0.5500403740862142
0.0020356068562258924
1.6998146879703675
-0.5500403740862142
0.0020356068562258924
1.6998146879703675
-0.5508895093385536
-8.226623949278498E-4
1.6965042849277139
-0.5508895093385536
-8.226623949278498E-4
1.6965042849277139
-0.5508895093385536
-8.226623949278498E-4
1.6965042849277139
-0.5508895093385536
-8.226623949278498E-4
1.6965042849277139
-0.5497509744386837
-0.001824681237443914
1.6941625918116023
-0.5497509744386837
-0.001824681237443914
1.6941625918116023
-0.5497509744386837
-0.001824681237443914
1.6941625918116023
-0.5497509744386837
-0.001824681237443914
1.6941625918116023
-0.5489658788350078
-0.002783857603080629
1.6931568941228532
-0.5489658788350078
-0.002783857603080629
1.6931568941228532
-0.5489658788350078
-0.002783857603080629
1.6931568941228532
-0.5489658788350078
-0.002783857603080629
1.6931568941228532
-0.5472163703478107
-0.004140994176792329
1.6912599796685786
-0.5472163703478107
-0.004140994176792329
1.6912599796685786
-0.5472163703478107
-0.004140994176792329
1.6912599796685786
-0.5472163703478107
-0.004140994176792329
1.6912599796685786
-0.5463221624288852
-0.004774628008310568
1.6885507915262457
-0.5463221624288852
-0.004774628008310568
1.6885507915262457
-0.5463221624288852
-0.004774628008310568
1.6885507915262457
-0.5463221624288852
-0.004774628008310568
1.6885507915262457
-0.5459157427613408
-0.004385354745088301
1.686819645050387
-0.5459157427613408
-0.004385354745088301
1.686819645050387
-0.5459157427613408
-0.004385354745088301
1.686819645050387
-0.5459157427613408
-0.004385354745088301
1.686819645050387
-0.5437379510991402
-0.004530755625571509
1.6860982520639205
-0.5437379510991402
-0.004530755625571509
1.6860982520639205
-0.5437379510991402
-0.004530755625571509
1.6860982520639205
-0.5437379510991402
-0.004530755625571509
1.6860982520639205
-0.5418635329280291
-0.003773265734647071
1.6846848979768831
-0.5418635329280291
-0.003773265734647071
1.6846848979768831
-0.5418635329280291
-0.003773265734647071
1.6846848979768831
-0.5418635329280291
-0.003773265734647071
1.6846848979768831
-0.5383609305854198
-0.0023463521569522566
1.6834240362890593
-0.5383609305854198
-0.0023463521569522566
1.6834240362890593
-0.5383609305854198
-0.0023463521569522566
1.6834240362890593
-0.5383609305854198
-0.0023463521569522566
1.6834240362890593
-0.5338319245393762
-1.5341325554578102E-4
1.6822125215778874
-0.5338319245393762
-1.5341325554578102E-4
1.6822125215778874
-0.5338319245393762
-1.5341325554578102E-4
1.6822125215778874
-0.5338319245393762
-1.5341325554578102E-4
1.6822125215778874
-0.5277085619954892
0.0017223807739460322
1.6808072817562278
-0.5277085619954892
0.0017223807739460322
1.6808072817562278
-0.5277085619954892
0.0017223807739460322
1.6808072817562278
-0.5277085619954892
0.0017223807739460322
1.6808072817562278
-0.5253902683638215
0.002699466583088491
1.6792577845379548
-0.5253902683638215
0.002699466583088491
1.6792577845379548
-0.5253902683638215
0.002699466583088491
1.6792577845379548
-0.5253902683638215
0.002699466583088491
1.6792577845379548
-0.5248263583956608
0.003067573380761581
1.678079071322114
-0.5248263583956608
0.003067573380761581
1.678079071322114
-0.5248263583956608
0.003067573380761581
1.678079071322114
-0.5248263583956608
0.003067573380761581
1.678079071322114
-0.5209407674097581
0.003599536240840386
1.6771721763655698
-0.5209407674097581
0.003599536240840386
1.6771721763655698
-0.5209407674097581
0.003599536240840386
1.6771721763655698
-0.5209407674097581
0.003599536240840386
1.6771721763655698
-0.5172952750190273
0.004353989174784447
1.6760305746010986
-0.5172952750190273
0.004353989174784447
1.6760305746010986
-0.5172952750190273
0.004353989174784447
1.6760305746010986
-0.5172952750190273
0.004353989174784447
1.6760305746010986
-0.5163503899388926
0.005231352426328407
1.6748062324555155
-0.5163503899388926
0.005231352426328407
1.6748062324555155
-0.5163503899388926
0.005231352426328407
1.6748062324555155
-0.5163503899388926
0.005231352426328407
1.6748062324555155
-0.5154177431317373
0.005899268952505162
1.6734598697489296
-0.5154177431317373
0.005899268952505162
1.6734598697489296
-0.5154177431317373
0.005899268952505162
1.6734598697489296
-0.5154177431317373
0.005899268952505162
1.6734598697489296
-0.5143429857425978
0.005659298700831763
1.6720816900332698
-0.5143429857425978
0.005659298700831763
1.6720816900332698
-0.5143429857425978
0.005659298700831763
1.6720816900332698
-0.5143429857425978
0.005659298700831763
1.6720816900332698
-0.5124840144784526
0.0047663491756607035
1.670061411635561
-0.5124840144784526
0.0047663491756607035
1.670061411635561
-0.5124840144784526
0.0047663491756607035
1.670061411635561
-0.5124840144784526
0.0047663491756607035
1.670061411635561
-0.5107292243202746
0.0034205701956730437
1.6679803178827628
-0.5107292243202746
0.0034205701956730437
1.6679803178827628
-0.5107292243202746
0.0034205701956730437
1.6679803178827628
-0.5107292243202746
0.0034205701956730437
1.6679803178827628
-0.50951906243929
0.0020540702273497743
1.66502033622992
-0.50951906243929
0.0020540702273497743
1.66502033622992
-0.50951906243929
0.0020540702273497743
1.66502033622992
-0.50951906243929
0.0020540702273497743
1.66502033622992
-0.5087562101385795
4.391085069767034E-4
1.662038970505394
-0.5087562101385795
4.391085069767034E-4
1.662038970505394
-0.5087562101385795
4.391085069767034E-4
1.662038970505394
-0.5087562101385795
4.391085069767034E-4
1.662038970505394
-0.509492279938866
-0.0010601215216464145
1.6595780881772983
-0.509492279938866
-0.0010601215216464145
1.6595780881772983
-0.509492279938866
-0.0010601215216464145
1.6595780881772983
-0.509492279938866
-0.0010601215216464145
1.6595780881772983
-0.5084018323571987
-0.0030145816723689796
1.6573967308572697
-0.5084018323571987
-0.0030145816723689796
1.6573967308572697
-0.5084018323571987
-0.0030145816723689796
1.6573967308572697
-0.5084018323571987
-0.0030145816723689796
1.6573967308572697
-0.5078603029617011
-0.005677317683555612
1.6551354439362096
-0.5078603029617011
-0.005677317683555612
1.6551354439362096
-0.5078603029617011
-0.005677317683555612
1.6551354439362096
-0.5078603029617011
-0.005677317683555612
1.6551354439362096
-0.5081401468797337
-0.008577604326887828
1.6528599761312355
-0.5081401468797337
-0.008577604326887828
1.6528599761312355
-0.5081401468797337
-0.008577604326887828
1.6528599761312355
-0.5081401468797337
-0.008577604326887828
1.6528599761312355
-0.5076039621544948
-0.011566256456792974
1.6513946146935583
-0.5076039621544948
-0.011566256456792974
1.6513946146935583
-0.5076039621544948
-0.011566256456792974
1.6513946146935583
-0.5076039621544948
-0.011566256456792974
1.6513946146935583
-0.5049580409460479
-0.014783716673913075
1.6500429011579427
-0.5049580409460479
-0.014783716673913075
1.6500429011579427
-0.5049580409460479
-0.014783716673913075
1.6500429011579427
-0.5049580409460479
-0.014783716673913075
1.6500429011579427
-0.5017633535057554
-0.018018531238918205
1.6486761647859969
-0.5017633535057554
-0.018018531238918205
1.6486761647859969
-0.5017633535057554
-0.018018531238918205
1.6486761647859969
-0.5017633535057554
-0.018018531238918205
1.6486761647859969
-0.4993351896834378
-0.020590604933614965
1.6473242657487674
-0.4993351896834378
-0.020590604933614965
1.6473242657487674
-0.4993351896834378
-0.020590604933614965
1.6473242657487674
-0.4993351896834378
-0.020590604933614965
1.6473242657487674
-0.49806698370164343
-0.02225736548312461
1.646211563833091
-0.49806698370164343
-0.02225736548312461
1.646211563833091
-0.49806698370164343
-0.02225736548312461
1.646211563833091
-0.49806698370164343
-0.02225736548312461
1.646211563833091
-0.497693708607323
-0.022863367232496823
1.6445747609169807
-0.497693708607323
-0.022863367232496823
1.6445747609169807
-0.497693708607323
-0.022863367232496823
1.6445747609169807
-0.497693708607323
-0.022863367232496823
1.6445747609169807
-0.49639620914158744
-0.022203201362984606
1.64313357934393
-0.49639620914158744
-0.022203201362984606
1.64313357934393
-0.49639620914158744
-0.022203201362984606
1.64313357934393
-0.49639620914158744
-0.022203201362984606
1.64313357934393
-0.4954160520879389
-0.02085727018195213
1.6422357901802234
-0.4954160520879389
-0.02085727018195213
1.6422357901802234
-0.4954160520879389
-0.02085727018195213
1.6422357901802234
-0.4954160520879389
-0.02085727018195213
1.6422357901802234
-0.4953329862756041
-0.018810331546389163
1.6411833192152818
-0.4953329862756041
-0.018810331546389163
1.6411833192152818
-0.4953329862756041
-0.018810331546389163
1.6411833192152818
-0.4953329862756041
-0.018810331546389163
1.6411833192152818
-0.49457798017031995
-0.01544576880689522
1.6401425011899804
-0.49457798017031995
-0.01544576880689522
1.6401425011899804
-0.49457798017031995
-0.01544576880689522
1.6401425011899804
-0.49457798017031995
-0.01544576880689522
1.6401425011899804
-0.4942985954291693
-0.011226009880023499
1.6388917154077132
-0.4942985954291693
-0.011226009880023499
1.6388917154077132
-0.4942985954291693
-0.011226009880023499
1.6388917154077132
-0.4942985954291693
-0.011226009880023499
1.6388917154077132
-0.4950261756324179
-0.006889379593171052
1.6376280438989073
-0.4950261756324179
-0.006889379593171052
1.6376280438989073
-0.4950261756324179
-0.006889379593171052
1.6376280438989073
-0.4950261756324179
-0.006889379593171052
1.6376280438989073
-0.49603994653623906
-0.0027722266360656394
1.6372207840952484
-0.49603994653623906
-0.0027722266360656394
1.6372207840952484
-0.49603994653623906
-0.0027722266360656394
1.6372207840952484
-0.49603994653623906
-0.0027722266360656394
1.6372207840952484
-0.4958383207222578
7.8080851852136E-4
1.6368550580760417
-0.4958383207222578
7.8080851852136E-4
1.6368550580760417
-0.4958383207222578
7.8080851852136E-4
1.6368550580760417
-0.4958383207222578
7.8080851852136E-4
1.6368550580760417
-0.4946432513384754
0.004007648772170292
1.6363849022364387
-0.4946432513384754
0.004007648772170292
1.6363849022364387
-0.4946432513384754
0.004007648772170292
1.6363849022364387
-0.4946432513384754
0.004007648772170292
1.6363849022364387
-0.492927136027035
0.007155796786904559
1.6363822933538654
-0.492927136027035
0.007155796786904559
1.6363822933538654
-0.492927136027035
0.007155796786904559
1.6363822933538654
-0.492927136027035
0.007155796786904559
1.6363822933538654
-0.4912697619602418
0.009720427243257019
1.6368928218356327
-0.4912697619602418
0.009720427243257019
1.6368928218356327
-0.4912697619602418
0.009720427243257019
1.6368928218356327
-0.4912697619602418
0.009720427243257019
1.6368928218356327
-0.4906770612778642
0.01108320548893916
1.6374378170997876
-0.4906770612778642
0.01108320548893916
1.6374378170997876
-0.4906770612778642
0.01108320548893916
1.6374378170997876
-0.4906770612778642
0.01108320548893916
1.6374378170997876
-0.4902381501140771
0.011613811077844755
1.6378412069865547
-0.4902381501140771
0.011613811077844755
1.6378412069865547
-0.4902381501140771
0.011613811077844755
1.6378412069865547
-0.4902381501140771
0.011613811077844755
1.6378412069865547
-0.48917048898882187
0.011514987450999376
1.638307676225316
-0.48917048898882187
0.011514987450999376
1.638307676225316
-0.48917048898882187
0.011514987450999376
1.638307676225316
-0.48917048898882187
0.011514987450999376
1.638307676225316
-0.48713281710966916
0.011111296947409402
1.6380461350138609
-0.48713281710966916
0.011111296947409402
1.6380461350138609
-0.48713281710966916
0.011111296947409402
1.6380461350138609
-0.48713281710966916
0.011111296947409402
1.6380461350138609
-0.48546809283715264
0.01019691104883751
1.63782247710566
-0.48546809283715264
0.01019691104883751
1.63782247710566
-0.48546809283715264
0.01019691104883751
1.63782247710566
-0.48546809283715264
0.01019691104883751
1.63782247710566
-0.4857138472305668
0.008466471249319296
1.6379863408215352
-0.4857138472305668
0.008466471249319296
1.6379863408215352
-0.4857138472305668
0.008466471249319296
1.6379863408215352
-0.4857138472305668
0.008466471249319296
1.6379863408215352
-0.48646974671682064
0.006543513561543158
1.6380188203327484
-0.48646974671682064
0.006543513561543158
1.6380188203327484
-0.48646974671682064
0.006543513561543158
1.6380188203327484
-0.48646974671682064
0.006543513561543158
1.6380188203327484
-0.48564057673421074
0.005049900125330516
1.6378523340113718
-0.48564057673421074
0.005049900125330516
1.6378523340113718
-0.48564057673421074
0.005049900125330516
1.6378523340113718
-0.48564057673421074
0.005049900125330516
1.6378523340113718
-0.4848849544950036
0.0032449310255801777
1.6374918802676504
-0.4848849544950036
0.0032449310255801777
1.6374918802676504
-0.4848849544950036
0.0032449310255801777
1.6374918802676504
-0.4848849544950036
0.0032449310255801777
1.6374918802676504
-0.48424626067747956
0.0010457671569276442
1.637319256902605
-0.48424626067747956
0.0010457671569276442
1.637319256902605
-0.48424626067747956
0.0010457671569276442
1.637319256902605
-0.48424626067747956
0.0010457671569276442
1.637319256902605
-0.4841566335292499
-0.0013027761633750536
1.6371883463644843
-0.4841566335292499
-0.0013027761633750536
1.6371883463644843
-0.4841566335292499
-0.0013027761633750536
1.6371883463644843
-0.4841566335292499
-0.0013027761633750536
1.6371883463644843
-0.48493887511416833
-0.0034132895612841692
1.637183560137985
-0.48493887511416833
-0.0034132895612841692
1.637183560137985
-0.48493887511416833
-0.0034132895612841692
1.637183560137985
-0.48493887511416833
-0.0034132895612841692
1.637183560137985
-0.4867182323238746
-0.005889038127125284
1.637371591057314
-0.4867182323238746
-0.005889038127125284
1.637371591057314
-0.4867182323238746
-0.005889038127125284
1.637371591057314
-0.4867182323238746
-0.005889038127125284
1.637371591057314
-0.4869753249010948
-0.008602968915036504
1.6371576800575918
-0.4869753249010948
-0.008602968915036504
1.6371576800575918
-0.4869753249010948
-0.008602968915036504
1.6371576800575918
-0.4869753249010948
-0.008602968915036504
1.6371576800575918
-0.48592321223720253
-0.011715818055672152
1.6365826417193239
-0.48592321223720253
-0.011715818055672152
1.6365826417193239
-0.48592321223720253
-0.011715818055672152
1.6365826417193239
-0.48592321223720253
-0.011715818055672152
1.6365826417193239
-0.484976212800008
-0.01476377456641091
1.6366141064391966
-0.484976212800008
-0.01476377456641091
1.6366141064391966
-0.484976212800008
-0.01476377456641091
1.6366141064391966
-0.484976212800008
-0.01476377456641091
1.6366141064391966
-0.4849919573399079
-0.018345022372183155
1.6368752696101916
-0.4849919573399079
-0.018345022372183155
1.6368752696101916
-0.4849919573399079
-0.018345022372183155
1.6368752696101916
-0.4849919573399079
-0.018345022372183155
1.6368752696101916
-0.48625470424700445
-0.021068576192904573
1.636862961929562
-0.48625470424700445
-0.021068576192904573
1.636862961929562
-0.48625470424700445
-0.021068576192904573
1.636862961929562
-0.48625470424700445
-0.021068576192904573
1.636862961929562
-0.48630610113021117
-0.022783478714022063
1.6364000377117351
-0.48630610113021117
-0.022783478714022063
1.6364000377117351
-0.48630610113021117
-0.022783478714022063
1.6364000377117351
-0.48630610113021117
-0.022783478714022063
1.6364000377117351
-0.4857657401225543
-0.023134497205009114
1.6357640449494621
-0.4857657401225543
-0.023134497205009114
1.6357640449494621
-0.4857657401225543
-0.023134497205009114
1.6357640449494621
-0.4857657401225543
-0.023134497205009114
1.6357640449494621
-0.4851952968839657
-0.022689383968407997
1.634752776432949
-0.4851952968839657
-0.022689383968407997
1.634752776432949
-0.4851952968839657
-0.022689383968407997
1.634752776432949
-0.4851952968839657
-0.022689383968407997
1.634752776432949
-0.48577090152307867
-0.021495531404342214
1.63340232766338
-0.48577090152307867
-0.021495531404342214
1.63340232766338
-0.48577090152307867
-0.021495531404342214
1.63340232766338
-0.48577090152307867
-0.021495531404342214
1.63340232766338
-0.48654312523547694
-0.019143011654342696
1.632029663565701
-0.48654312523547694
-0.019143011654342696
1.632029663565701
-0.48654312523547694
-0.019143011654342696
1.632029663565701
-0.48654312523547694
-0.019143011654342696
1.632029663565701
-0.48738326442871766
-0.015304113353685695
1.6312664984456455
-0.48738326442871766
-0.015304113353685695
1.6312664984456455
-0.48738326442871766
-0.015304113353685695
1.6312664984456455
-0.48738326442871766
-0.015304113353685695
1.6312664984456455
-0.4888015265051767
-0.009564384425660493
1.6312794022846764
-0.4888015265051767
-0.009564384425660493
1.6312794022846764
-0.4888015265051767
-0.009564384425660493
1.6312794022846764
-0.4888015265051767
-0.009564384425660493
1.6312794022846764
-0.4887884582440829
-0.0028840163750877713
1.6316611621614614
-0.4887884582440829
-0.0028840163750877713
1.6316611621614614
-0.4887884582440829
-0.0028840163750877713
1.6316611621614614
-0.4887884582440829
-0.0028840163750877713
1.6316611621614614
-0.48775405703482483
0.004310870709106051
1.6310170249907538
-0.48775405703482483
0.004310870709106051
1.6310170249907538
-0.48775405703482483
0.004310870709106051
1.6310170249907538
-0.48775405703482483
0.004310870709106051
1.6310170249907538
-0.4880783028260715
0.011380556405313347
1.6286362523264215
-0.4880783028260715
0.011380556405313347
1.6286362523264215
-0.4880783028260715
0.011380556405313347
1.6286362523264215
-0.4880783028260715
0.011380556405313347
1.6286362523264215
-0.4894917299810719
0.01870973204841507
1.625029362842505
-0.4894917299810719
0.01870973204841507
1.625029362842505
-0.4894917299810719
0.01870973204841507
1.625029362842505
-0.4894917299810719
0.01870973204841507
1.625029362842505
-0.4925263393440606
0.027141510798471175
1.6206788406675432
-0.4925263393440606
0.027141510798471175
1.6206788406675432
-0.4925263393440606
0.027141510798471175
1.6206788406675432
-0.4925263393440606
0.027141510798471175
1.6206788406675432
-0.4925590877200231
0.03628759547056176
1.616690602197243
-0.4925590877200231
0.03628759547056176
1.616690602197243
-0.4925590877200231
0.03628759547056176
1.616690602197243
-0.4925590877200231
0.03628759547056176
1.616690602197243
-0.4919275955912732
0.0456509018579647
1.6129275210301925
-0.4919275955912732
0.0456509018579647
1.6129275210301925
-0.4919275955912732
0.0456509018579647
1.6129275210301925
-0.4919275955912732
0.0456509018579647
1.6129275210301925
-0.4917572414761963
0.05506929318128415
1.6103934280702914
-0.4917572414761963
0.05506929318128415
1.6103934280702914
-0.4917572414761963
0.05506929318128415
1.6103934280702914
-0.4917572414761963
0.05506929318128415
1.6103934280702914
-0.49119117541279167
0.06332982317206547
1.607895143783887
-0.49119117541279167
0.06332982317206547
1.607895143783887
-0.49119117541279167
0.06332982317206547
1.607895143783887
-0.49119117541279167
0.06332982317206547
1.607895143783887
-0.49045480131423197
0.07144047182249731
1.6055319724804014
-0.49045480131423197
0.07144047182249731
1.6055319724804014
-0.49045480131423197
0.07144047182249731
1.6055319724804014
-0.49045480131423197
0.07144047182249731
1.6055319724804014
-0.4890653094105169
0.07544053840883565
1.603868731661918
-0.4890653094105169
0.07544053840883565
1.603868731661918
-0.4890653094105169
0.07544053840883565
1.603868731661918
-0.4890653094105169
0.07544053840883565
1.603868731661918
-0.4878724247500575
0.0768024571279258
1.601610362038692
-0.4878724247500575
0.0768024571279258
1.601610362038692
-0.4878724247500575
0.0768024571279258
1.601610362038692
-0.4878724247500575
0.0768024571279258
1.601610362038692
-0.4859983968494205
0.07868928230098568
1.5968480136882033
-0.4859983968494205
0.07868928230098568
1.5968480136882033
-0.4859983968494205
0.07868928230098568
1.5968480136882033
-0.4859983968494205
0.07868928230098568
1.5968480136882033
-0.4831900196738482
0.08180515219117254
1.5928003986612258
-0.4831900196738482
0.08180515219117254
1.5928003986612258
-0.4831900196738482
0.08180515219117254
1.5928003986612258
-0.4831900196738482
0.08180515219117254
1.5928003986612258
-0.48990605310079394
0.08144129886901952
1.59005377417952
-0.48990605310079394
0.08144129886901952
1.59005377417952
-0.48990605310079394
0.08144129886901952
1.59005377417952
-0.48990605310079394
0.08144129886901952
1.59005377417952
-0.4982092159375228
0.07746475596775848
1.5870906303290433
-0.4982092159375228
0.07746475596775848
1.5870906303290433
-0.4982092159375228
0.07746475596775848
1.5870906303290433
-0.4982092159375228
0.07746475596775848
1.5870906303290433
-0.5040233754940969
0.06891137338817084
1.5856867604120504
-0.5040233754940969
0.06891137338817084
1.5856867604120504
-0.5040233754940969
0.06891137338817084
1.5856867604120504
-0.5040233754940969
0.06891137338817084
1.5856867604120504
-0.5096928289140318
0.05836467031724311
1.5842323658956932
-0.5096928289140318
0.05836467031724311
1.5842323658956932
-0.5096928289140318
0.05836467031724311
1.5842323658956932
-0.5096928289140318
0.05836467031724311
1.5842323658956932
-0.5119466185051708
0.04759042626220572
1.5821676165498044
-0.5119466185051708
0.04759042626220572
1.5821676165498044
-0.5119466185051708
0.04759042626220572
1.5821676165498044
-0.5119466185051708
0.04759042626220572
1.5821676165498044
-0.5100352099170625
0.03717094798455624
1.5799295024989968
-0.5100352099170625
0.03717094798455624
1.5799295024989968
-0.5100352099170625
0.03717094798455624
1.5799295024989968
-0.5100352099170625
0.03717094798455624
1.5799295024989968
-0.5020983357721689
0.025570175083630367
1.579120142348002
-0.5020983357721689
0.025570175083630367
1.579120142348002
-0.5020983357721689
0.025570175083630367
1.579120142348002
-0.5020983357721689
0.025570175083630367
1.579120142348002
-0.497215189111145
0.014229025122410113
1.5805421701518325
-0.497215189111145
0.014229025122410113
1.5805421701518325
-0.497215189111145
0.014229025122410113
1.5805421701518325
-0.497215189111145
0.014229025122410113
1.5805421701518325
-0.4992910412967898
0.0042186815384464855
1.5821019726428838
-0.4992910412967898
0.0042186815384464855
1.5821019726428838
-0.4992910412967898
0.0042186815384464855
1.5821019726428838
-0.4992910412967898
0.0042186815384464855
1.5821019726428838
-0.5041738760527947
-0.0038958634983973137
1.5823175449132816
-0.5041738760527947
-0.0038958634983973137
1.5823175449132816
-0.5041738760527947
-0.0038958634983973137
1.5823175449132816
-0.5041738760527947
-0.0038958634983973137
1.5823175449132816
-0.5080198319943005
-0.00994162868701454
1.5826514243840852
-0.5080198319943005
-0.00994162868701454
1.5826514243840852
-0.5080198319943005
-0.00994162868701454
1.5826514243840852
-0.5080198319943005
-0.00994162868701454
1.5826514243840852
-0.5065616405761582
-0.01402965365916077
1.5830765033289116
-0.5065616405761582
-0.01402965365916077
1.5830765033289116
-0.5065616405761582
-0.01402965365916077
1.5830765033289116
-0.5065616405761582
-0.01402965365916077
1.5830765033289116
-0.5015595465157351
-0.01576189264286138
1.5819623601681196
-0.5015595465157351
-0.01576189264286138
1.5819623601681196
-0.5015595465157351
-0.01576189264286138
1.5819623601681196
-0.5015595465157351
-0.01576189264286138
1.5819623601681196
-0.4992115416843068
-0.015641977799038042
1.578970404405187
-0.4992115416843068
-0.015641977799038042
1.578970404405187
-0.4992115416843068
-0.015641977799038042
1.578970404405187
-0.4992115416843068
-0.015641977799038042
1.578970404405187
-0.5022189591973888
-0.01412099462369972
1.5758445286591203
-0.5022189591973888
-0.01412099462369972
1.5758445286591203
-0.5022189591973888
-0.01412099462369972
1.5758445286591203
-0.5022189591973888
-0.01412099462369972
1.5758445286591203
-0.5054158315020423
-0.01220946485984633
1.5756429754918408
-0.5054158315020423
-0.01220946485984633
1.5756429754918408
-0.5054158315020423
-0.01220946485984633
1.5756429754918408
-0.5054158315020423
-0.01220946485984633
1.5756429754918408
-0.5047929256396048
-0.010817332949122167
1.577240774725911
-0.5047929256396048
-0.010817332949122167
1.577240774725911
-0.5047929256396048
-0.010817332949122167
1.577240774725911
-0.5047929256396048
-0.010817332949122167
1.577240774725911
-0.5030142605867147
-0.008318090411735028
1.5793501728588772
-0.5030142605867147
-0.008318090411735028
1.5793501728588772
-0.5030142605867147
-0.008318090411735028
1.5793501728588772
-0.5030142605867147
-0.008318090411735028
1.5793501728588772
-0.5007017097498782
-0.005434516643252789
1.5802045098927398
-0.5007017097498782
-0.005434516643252789
1.5802045098927398
-0.5007017097498782
-0.005434516643252789
1.5802045098927398
-0.5007017097498782
-0.005434516643252789
1.5802045098927398
-0.4987797711350849
-0.002159874137539651
1.5794514846539343
-0.4987797711350849
-0.002159874137539651
1.5794514846539343
-0.4987797711350849
-0.002159874137539651
1.5794514846539343
-0.4987797711350849
-0.002159874137539651
1.5794514846539343
-0.4971712462563789
0.0020187085743800684
1.5790999137126311
-0.4971712462563789
0.0020187085743800684
1.5790999137126311
-0.4971712462563789
0.0020187085743800684
1.5790999137126311
-0.4971712462563789
0.0020187085743800684
1.5790999137126311
-0.49865633364473916
0.00688389247723502
1.5796423760190443
-0.49865633364473916
0.00688389247723502
1.5796423760190443
-0.49865633364473916
0.00688389247723502
1.5796423760190443
-0.49865633364473916
0.00688389247723502
1.5796423760190443
-0.4989342807323943
0.012609414917771374
1.5814798194303359
-0.4989342807323943
0.012609414917771374
1.5814798194303359
-0.4989342807323943
0.012609414917771374
1.5814798194303359
-0.4989342807323943
0.012609414917771374
1.5814798194303359
-0.49886769283544447
0.019906666348610866
1.5842530532094194
-0.49886769283544447
0.019906666348610866
1.5842530532094194
-0.49886769283544447
0.019906666348610866
1.5842530532094194
-0.49886769283544447
0.019906666348610866
1.5842530532094194
-0.4987224573477023
0.027682969836967067
1.5864612765955048
-0.4987224573477023
0.027682969836967067
1.5864612765955048
-0.4987224573477023
0.027682969836967067
1.5864612765955048
-0.4987224573477023
0.027682969836967067
1.5864612765955048
-0.49928337428277575
0.035796369761490435
1.5878611357285837
-0.49928337428277575
0.035796369761490435
1.5878611357285837
-0.49928337428277575
0.035796369761490435
1.5878611357285837
-0.49928337428277575
0.035796369761490435
1.5878611357285837
-0.5020125410899916
0.043933582811464235
1.5892103781793487
-0.5020125410899916
0.043933582811464235
1.5892103781793487
-0.5020125410899916
0.043933582811464235
1.5892103781793487
-0.5020125410899916
0.043933582811464235
1.5892103781793487
-0.5024586229275131
0.052051323376244206
1.5909518539978156
-0.5024586229275131
0.052051323376244206
1.5909518539978156
-0.5024586229275131
0.052051323376244206
1.5909518539978156
-0.5024586229275131
0.052051323376244206
1.5909518539978156
-0.5006023787206364
0.05986276376434269
1.593726528804104
-0.5006023787206364
0.05986276376434269
1.593726528804104
-0.5006023787206364
0.05986276376434269
1.593726528804104
-0.5006023787206364
0.05986276376434269
1.593726528804104
-0.49901722642246815
0.06746715552646118
1.5978057970506347
-0.49901722642246815
0.06746715552646118
1.5978057970506347
-0.49901722642246815
0.06746715552646118
1.5978057970506347
-0.49901722642246815
0.06746715552646118
1.5978057970506347
-0.5022942084696006
0.07496133269374863
1.6027440513437043
-0.5022942084696006
0.07496133269374863
1.6027440513437043
-0.5022942084696006
0.07496133269374863
1.6027440513437043
-0.5022942084696006
0.07496133269374863
1.6027440513437043
-0.5044837670124445
0.08055105259804628
1.6055170445089326
-0.5044837670124445
0.08055105259804628
1.6055170445089326
-0.5044837670124445
0.08055105259804628
1.6055170445089326
-0.5044837670124445
0.08055105259804628
1.6055170445089326
-0.5053525467409661
0.08491944105737992
1.6074838679602206
-0.5053525467409661
0.08491944105737992
1.6074838679602206
-0.5053525467409661
0.08491944105737992
1.6074838679602206
-0.5053525467409661
0.08491944105737992
1.6074838679602206
-0.5044903146196253
0.08876617271154935
1.6107238010684954
-0.5044903146196253
0.08876617271154935
1.6107238010684954
-0.5044903146196253
0.08876617271154935
1.6107238010684954
-0.5044903146196253
0.08876617271154935
1.6107238010684954
-0.5042668602403462
0.09060434762377037
1.615794326033353
-0.5042668602403462
0.09060434762377037
1.615794326033353
-0.5042668602403462
0.09060434762377037
1.615794326033353
-0.5042668602403462
0.09060434762377037
1.615794326033353
-0.5018958272151309
0.09085948271366714
1.6212654940589055
-0.5018958272151309
0.09085948271366714
1.6212654940589055
-0.5018958272151309
0.09085948271366714
1.6212654940589055
-0.5018958272151309
0.09085948271366714
1.6212654940589055
-0.49551964514982805
0.08813006035530581
1.6286251528643214
-0.49551964514982805
0.08813006035530581
1.6286251528643214
-0.49551964514982805
0.08813006035530581
1.6286251528643214
-0.49551964514982805
0.08813006035530581
1.6286251528643214
-0.48679601537744743
0.08338907650612273
1.6359975369873643
-0.48679601537744743
0.08338907650612273
1.6359975369873643
-0.48679601537744743
0.08338907650612273
1.6359975369873643
-0.48679601537744743
0.08338907650612273
1.6359975369873643
-0.47861214051657003
0.07460431338093688
1.6422299006611871
-0.47861214051657003
0.07460431338093688
1.6422299006611871
-0.47861214051657003
0.07460431338093688
1.6422299006611871
-0.47861214051657003
0.07460431338093688
1.6422299006611871
-0.4824940855587887
0.06475225130609948
1.6484521165394435
-0.4824940855587887
0.06475225130609948
1.6484521165394435
-0.4824940855587887
0.06475225130609948
1.6484521165394435
-0.4824940855587887
0.06475225130609948
1.6484521165394435
-0.4892229666476243
0.05189810051484021
1.6587959861946397
-0.4892229666476243
0.05189810051484021
1.6587959861946397
-0.4892229666476243
0.05189810051484021
1.6587959861946397
-0.4892229666476243
0.05189810051484021
1.6587959861946397
-0.46565075934206107
0.03437116897448711
1.6677368005752253
-0.46565075934206107
0.03437116897448711
1.6677368005752253
-0.46565075934206107
0.03437116897448711
1.6677368005752253
-0.46565075934206107
0.03437116897448711
1.6677368005752253
-0.43943034003737935
0.018651792660372743
1.6740562447993084
-0.43943034003737935
0.018651792660372743
1.6740562447993084
-0.43943034003737935
0.018651792660372743
1.6740562447993084
-0.43943034003737935
0.018651792660372743
1.6740562447993084
-0.4538903117737536
0.007964963641850953
1.677791977034442
-0.4538903117737536
0.007964963641850953
1.677791977034442
-0.4538903117737536
0.007964963641850953
1.677791977034442
-0.4538903117737536
0.007964963641850953
1.677791977034442
-0.47841594530619136
-0.006352285694932145
1.6796316028231075
-0.47841594530619136
-0.006352285694932145
1.6796316028231075
-0.47841594530619136
-0.006352285694932145
1.6796316028231075
-0.47841594530619136
-0.006352285694932145
1.6796316028231075
-0.4856026384689286
-0.02252827043838427
1.6810939448405875
-0.4856026384689286
-0.02252827043838427
1.6810939448405875
-0.4856026384689286
-0.02252827043838427
1.6810939448405875
-0.4856026384689286
-0.02252827043838427
1.6810939448405875
-0.4726476225758292
-0.0281018604182595
1.6803410829145597
-0.4726476225758292
-0.0281018604182595
1.6803410829145597
-0.4726476225758292
-0.0281018604182595
1.6803410829145597
-0.4726476225758292
-0.0281018604182595
1.6803410829145597
-0.4628064231024171
-0.03029649937878986
1.677303057522238
-0.4628064231024171
-0.03029649937878986
1.677303057522238
-0.4628064231024171
-0.03029649937878986
1.677303057522238
-0.4628064231024171
-0.03029649937878986
1.677303057522238
-0.46393484146023073
-0.03279156792247485
1.6740214111708414
-0.46393484146023073
-0.03279156792247485
1.6740214111708414
-0.46393484146023073
-0.03279156792247485
1.6740214111708414
-0.46393484146023073
-0.03279156792247485
1.6740214111708414
-0.4729899141610655
-0.03248262350410563
1.6709195370537993
-0.4729899141610655
-0.03248262350410563
1.6709195370537993
-0.4729899141610655
-0.03248262350410563
1.6709195370537993
-0.4729899141610655
-0.03248262350410563
1.6709195370537993
-0.4755494455342473
-0.030628104681686648
1.6674289232399149
-0.4755494455342473
-0.030628104681686648
1.6674289232399149
-0.4755494455342473
-0.030628104681686648
1.6674289232399149
-0.4755494455342473
-0.030628104681686648
1.6674289232399149
-0.4763207174477551
-0.028509750987060826
1.6639098377376582
-0.4763207174477551
-0.028509750987060826
1.6639098377376582
-0.4763207174477551
-0.028509750987060826
1.6639098377376582
-0.4763207174477551
-0.028509750987060826
1.6639098377376582
-0.47671717356481774
-0.025241757003145727
1.6608140876038628
-0.47671717356481774
-0.025241757003145727
1.6608140876038628
-0.47671717356481774
-0.025241757003145727
1.6608140876038628
-0.47671717356481774
-0.025241757003145727
1.6608140876038628
-0.47674007794523254
-0.021741123414114587
1.6580036712894042
-0.47674007794523254
-0.021741123414114587
1.6580036712894042
-0.47674007794523254
-0.021741123414114587
1.6580036712894042
-0.47674007794523254
-0.021741123414114587
1.6580036712894042
-0.47700779694837764
-0.016768615196378515
1.6557325833503973
-0.47700779694837764
-0.016768615196378515
1.6557325833503973
-0.47700779694837764
-0.016768615196378515
1.6557325833503973
-0.47700779694837764
-0.016768615196378515
1.6557325833503973
-0.47704766019498074
-0.012582276350263173
1.6535575269705536
-0.47704766019498074
-0.012582276350263173
1.6535575269705536
-0.47704766019498074
-0.012582276350263173
1.6535575269705536
-0.47704766019498074
-0.012582276350263173
1.6535575269705536
-0.47895766131268486
-0.009832079565379681
1.6517622781880432
-0.47895766131268486
-0.009832079565379681
1.6517622781880432
-0.47895766131268486
-0.009832079565379681
1.6517622781880432
-0.47895766131268486
-0.009832079565379681
1.6517622781880432
-0.4798347561566023
-0.008382788793535323
1.6499063630082778
-0.4798347561566023
-0.008382788793535323
1.6499063630082778
-0.4798347561566023
-0.008382788793535323
1.6499063630082778
-0.4798347561566023
-0.008382788793535323
1.6499063630082778
-0.47929881815132924
-0.006634056283704482
1.648049244425761
-0.47929881815132924
-0.006634056283704482
1.648049244425761
-0.47929881815132924
-0.006634056283704482
1.648049244425761
-0.47929881815132924
-0.006634056283704482
1.648049244425761
-0.47815303744240034
-0.004721385315020093
1.6465923744929718
-0.47815303744240034
-0.004721385315020093
1.6465923744929718
-0.47815303744240034
-0.004721385315020093
1.6465923744929718
-0.47815303744240034
-0.004721385315020093
1.6465923744929718
-0.47791287515739916
-0.0034038029155882355
1.6454684755812046
-0.47791287515739916
-0.0034038029155882355
1.6454684755812046
-0.47791287515739916
-0.0034038029155882355
1.6454684755812046
-0.47791287515739916
-0.0034038029155882355
1.6454684755812046
-0.47901492000041934
-0.0026443995351284983
1.6444036900329362
-0.47901492000041934
-0.0026443995351284983
1.6444036900329362
-0.47901492000041934
-0.0026443995351284983
1.6444036900329362
-0.47901492000041934
-0.0026443995351284983
1.6444036900329362
-0.47990012116536895
-0.0028170192019391143
1.6435656491465056
-0.47990012116536895
-0.0028170192019391143
1.6435656491465056
-0.47990012116536895
-0.0028170192019391143
1.6435656491465056
-0.47990012116536895
-0.0028170192019391143
1.6435656491465056
-0.48011940343315873
-0.003706150962505542
1.6428099479862492
-0.48011940343315873
-0.003706150962505542
1.6428099479862492
-0.48011940343315873
-0.003706150962505542
1.6428099479862492
-0.48011940343315873
-0.003706150962505542
1.6428099479862492
-0.48015983618180835
-0.005440476188219701
1.6422545728983549
-0.48015983618180835
-0.005440476188219701
1.6422545728983549
-0.48015983618180835
-0.005440476188219701
1.6422545728983549
-0.48015983618180835
-0.005440476188219701
1.6422545728983549
-0.4801508797136943
-0.007575715521692354
1.6418891652103478
-0.4801508797136943
-0.007575715521692354
1.6418891652103478
-0.4801508797136943
-0.007575715521692354
1.6418891652103478
-0.4801508797136943
-0.007575715521692354
1.6418891652103478
-0.47964767064573643
-0.011152609345261065
1.641512413399641
-0.47964767064573643
-0.011152609345261065
1.641512413399641
-0.47964767064573643
-0.011152609345261065
1.641512413399641
-0.47964767064573643
-0.011152609345261065
1.641512413399641
-0.4799621704101413
-0.01484635354246372
1.640911368863998
-0.4799621704101413
-0.01484635354246372
1.640911368863998
-0.4799621704101413
-0.01484635354246372
1.640911368863998
-0.4799621704101413
-0.01484635354246372
1.640911368863998
-0.48086610421821097
-0.018079342096079604
1.6402959002020934
-0.48086610421821097
-0.018079342096079604
1.6402959002020934
-0.48086610421821097
-0.018079342096079604
1.6402959002020934
-0.48086610421821097
-0.018079342096079604
1.6402959002020934
-0.48219121740772086
-0.020981818059522272
1.6391653353221436
-0.48219121740772086
-0.020981818059522272
1.6391653353221436
-0.48219121740772086
-0.020981818059522272
1.6391653353221436
-0.48219121740772086
-0.020981818059522272
1.6391653353221436
-0.4838778807657958
-0.02349770238934862
1.63813062823732
-0.4838778807657958
-0.02349770238934862
1.63813062823732
-0.4838778807657958
-0.02349770238934862
1.63813062823732
-0.4838778807657958
-0.02349770238934862
1.63813062823732
-0.48463834482830015
-0.025354125246315907
1.6370047022446974
-0.48463834482830015
-0.025354125246315907
1.6370047022446974
-0.48463834482830015
-0.025354125246315907
1.6370047022446974
-0.48463834482830015
-0.025354125246315907
1.6370047022446974
-0.4847113140497314
-0.02603892691716398
1.636016927940785
-0.4847113140497314
-0.02603892691716398
1.636016927940785
-0.4847113140497314
-0.02603892691716398
1.636016927940785
-0.4847113140497314
-0.02603892691716398
1.636016927940785
-0.4850725893488779
-0.025858854179637233
1.6352714830495947
-0.4850725893488779
-0.025858854179637233
1.6352714830495947
-0.4850725893488779
-0.025858854179637233
1.6352714830495947
-0.4850725893488779
-0.025858854179637233
1.6352714830495947
-0.4850085674213692
-0.02478996456387359
1.634559140744316
-0.4850085674213692
-0.02478996456387359
1.634559140744316
-0.4850085674213692
-0.02478996456387359
1.634559140744316
-0.4850085674213692
-0.02478996456387359
1.634559140744316
-0.4849477990775499
-0.023281233630212728
1.6334740237856797
-0.4849477990775499
-0.023281233630212728
1.6334740237856797
-0.4849477990775499
-0.023281233630212728
1.6334740237856797
-0.4849477990775499
-0.023281233630212728
1.6334740237856797
-0.4839625060949522
-0.02163181665759947
1.6323335954855378
-0.4839625060949522
-0.02163181665759947
1.6323335954855378
-0.4839625060949522
-0.02163181665759947
1.6323335954855378
-0.4839625060949522
-0.02163181665759947
1.6323335954855378
-0.48315668042483584
-0.019620449083414548
1.6311991850753487
-0.48315668042483584
-0.019620449083414548
1.6311991850753487
-0.48315668042483584
-0.019620449083414548
1.6311991850753487
-0.48315668042483584
-0.019620449083414548
1.6311991850753487
-0.4833389386041151
-0.016951746904431166
1.6301013585334156
-0.4833389386041151
-0.016951746904431166
1.6301013585334156
-0.4833389386041151
-0.016951746904431166
1.6301013585334156
-0.4833389386041151
-0.016951746904431166
1.6301013585334156
-0.4838333743780903
-0.014125871416683082
1.6288752657958856
-0.4838333743780903
-0.014125871416683082
1.6288752657958856
-0.4838333743780903
-0.014125871416683082
1.6288752657958856
-0.4838333743780903
-0.014125871416683082
1.6288752657958856
-0.485068622035632
-0.01069496103949205
1.6278676050191103
-0.485068622035632
-0.01069496103949205
1.6278676050191103
-0.485068622035632
-0.01069496103949205
1.6278676050191103
-0.485068622035632
-0.01069496103949205
1.6278676050191103
-0.4857471662463904
-0.007427157346966623
1.6269753235632363
-0.4857471662463904
-0.007427157346966623
1.6269753235632363
-0.4857471662463904
-0.007427157346966623
1.6269753235632363
-0.4857471662463904
-0.007427157346966623
1.6269753235632363
-0.48592139991185235
-0.004006834743478039
1.6260417740575028
-0.48592139991185235
-0.004006834743478039
1.6260417740575028
-0.48592139991185235
-0.004006834743478039
1.6260417740575028
-0.48592139991185235
-0.004006834743478039
1.6260417740575028
-0.4862733466261626
-8.338183997083444E-4
1.6255245810727592
-0.4862733466261626
-8.338183997083444E-4
1.6255245810727592
-0.4862733466261626
-8.338183997083444E-4
1.6255245810727592
-0.4862733466261626
-8.338183997083444E-4
1.6255245810727592
-0.4873278964242669
0.0019593074742927283
1.6255467546686162
-0.4873278964242669
0.0019593074742927283
1.6255467546686162
-0.4873278964242669
0.0019593074742927283
1.6255467546686162
-0.4873278964242669
0.0019593074742927283
1.6255467546686162
-0.4882821323563024
0.0037862148486829898
1.6259896734334647
-0.4882821323563024
0.0037862148486829898
1.6259896734334647
-0.4882821323563024
0.0037862148486829898
1.6259896734334647
-0.4882821323563024
0.0037862148486829898
1.6259896734334647
-0.48735577873473385
0.004660081887528335
1.626744737749331
-0.48735577873473385
0.004660081887528335
1.626744737749331
-0.48735577873473385
0.004660081887528335
1.626744737749331
-0.48735577873473385
0.004660081887528335
1.626744737749331
-0.48630149902846487
0.004838666758063334
1.6275869114044963
-0.48630149902846487
0.004838666758063334
1.6275869114044963
-0.48630149902846487
0.004838666758063334
1.6275869114044963
-0.48630149902846487
0.004838666758063334
1.6275869114044963
-0.48516939008032695
0.004071199602314959
1.6285719244296912
-0.48516939008032695
0.004071199602314959
1.6285719244296912
-0.48516939008032695
0.004071199602314959
1.6285719244296912
-0.48516939008032695
0.004071199602314959
1.6285719244296912
-0.484957915309378
0.002638384924283433
1.6296378095301876
-0.484957915309378
0.002638384924283433
1.6296378095301876
-0.484957915309378
0.002638384924283433
1.6296378095301876
-0.484957915309378
0.002638384924283433
1.6296378095301876
-0.4860083381624437
3.8409195858609454E-4
1.6308253393600132
-0.4860083381624437
3.8409195858609454E-4
1.6308253393600132
-0.4860083381624437
3.8409195858609454E-4
1.6308253393600132
-0.4860083381624437
3.8409195858609454E-4
1.6308253393600132
-0.4861784777031874
-0.0017699332042869088
1.6318066166726013
-0.4861784777031874
-0.0017699332042869088
1.6318066166726013
-0.4861784777031874
-0.0017699332042869088
1.6318066166726013
-0.4861784777031874
-0.0017699332042869088
1.6318066166726013
-0.4848178617668635
-0.003823404220573664
1.6323023345783476
-0.4848178617668635
-0.003823404220573664
1.6323023345783476
-0.4848178617668635
-0.003823404220573664
1.6323023345783476
-0.4848178617668635
-0.003823404220573664
1.6323023345783476
-0.48382502450552145
-0.00622218301528207
1.6327952726090638
-0.48382502450552145
-0.00622218301528207
1.6327952726090638
-0.48382502450552145
-0.00622218301528207
1.6327952726090638
-0.48382502450552145
-0.00622218301528207
1.6327952726090638
-0.48427947762719664
-0.009371129173859525
1.6329551420028219
-0.48427947762719664
-0.009371129173859525
1.6329551420028219
-0.48427947762719664
-0.009371129173859525
1.6329551420028219
-0.48427947762719664
-0.009371129173859525
1.6329551420028219
-0.4861683142155953
-0.012810527425363477
1.6332085675480492
-0.4861683142155953
-0.012810527425363477
1.6332085675480492
-0.4861683142155953
-0.012810527425363477
1.6332085675480492
-0.4861683142155953
-0.012810527425363477
1.6332085675480492
-0.4880788472575718
-0.01631197601732158
1.6332201301600195
-0.4880788472575718
-0.01631197601732158
1.6332201301600195
-0.4880788472575718
-0.01631197601732158
1.6332201301600195
-0.4880788472575718
-0.01631197601732158
1.6332201301600195
-0.4885447305524287
-0.019962292283733633
1.6328028474168204
-0.4885447305524287
-0.019962292283733633
1.6328028474168204
-0.4885447305524287
-0.019962292283733633
1.6328028474168204
-0.4885447305524287
-0.019962292283733633
1.6328028474168204
-0.4896525535180618
-0.023928301170233184
1.6328348753621775
-0.4896525535180618
-0.023928301170233184
1.6328348753621775
-0.4896525535180618
-0.023928301170233184
1.6328348753621775
-0.4896525535180618
-0.023928301170233184
1.6328348753621775
-0.48943964569737464
-0.027831337546906955
1.6329176206077054
-0.48943964569737464
-0.027831337546906955
1.6329176206077054
-0.48943964569737464
-0.027831337546906955
1.6329176206077054
-0.48943964569737464
-0.027831337546906955
1.6329176206077054
-0.48911099204532527
-0.031213699290816847
1.6333098682450242
-0.48911099204532527
-0.031213699290816847
1.6333098682450242
-0.48911099204532527
-0.031213699290816847
1.6333098682450242
-0.48911099204532527
-0.031213699290816847
1.6333098682450242
-0.4888845228102454
-0.034531074448554584
1.6336001509357574
-0.4888845228102454
-0.034531074448554584
1.6336001509357574
-0.4888845228102454
-0.034531074448554584
1.6336001509357574
-0.4888845228102454
-0.034531074448554584
1.6336001509357574
-0.4882918634265345
-0.037504144726872836
1.6338830601586487
-0.4882918634265345
-0.037504144726872836
1.6338830601586487
-0.4882918634265345
-0.037504144726872836
1.6338830601586487
-0.4882918634265345
-0.037504144726872836
1.6338830601586487
-0.48766515661377485
-0.039431391183367935
1.6340810249169693
-0.48766515661377485
-0.039431391183367935
1.6340810249169693
-0.48766515661377485
-0.039431391183367935
1.6340810249169693
-0.48766515661377485
-0.039431391183367935
1.6340810249169693
-0.4877040370362288
-0.040686573225524165
1.6340385199724052
-0.4877040370362288
-0.040686573225524165
1.6340385199724052
-0.4877040370362288
-0.040686573225524165
1.6340385199724052
-0.4877040370362288
-0.040686573225524165
1.6340385199724052
-0.4867036376026214
-0.0403195555499744
1.633829745855021
-0.4867036376026214
-0.0403195555499744
1.633829745855021
-0.4867036376026214
-0.0403195555499744
1.633829745855021
-0.4867036376026214
-0.0403195555499744
1.633829745855021
-0.48608856820573537
-0.038577522755206914
1.633024123453822
-0.48608856820573537
-0.038577522755206914
1.633024123453822
-0.48608856820573537
-0.038577522755206914
1.633024123453822
-0.48608856820573537
-0.038577522755206914
1.633024123453822
-0.4854938185226444
-0.035262454968393406
1.632450454479744
-0.4854938185226444
-0.035262454968393406
1.632450454479744
-0.4854938185226444
-0.035262454968393406
1.632450454479744
-0.4854938185226444
-0.035262454968393406
1.632450454479744
-0.4857697890578145
-0.030811942740227468
1.6320638109692114
-0.4857697890578145
-0.030811942740227468
1.6320638109692114
-0.4857697890578145
-0.030811942740227468
1.6320638109692114
-0.4857697890578145
-0.030811942740227468
1.6320638109692114
-0.48647541839313607
-0.025052022877593096
1.632250836299371
-0.48647541839313607
-0.025052022877593096
1.632250836299371
-0.48647541839313607
-0.025052022877593096
1.632250836299371
-0.48647541839313607
-0.025052022877593096
1.632250836299371
-0.4874914805413073
-0.017920589721649102
1.6321873684938162
-0.4874914805413073
-0.017920589721649102
1.6321873684938162
-0.4874914805413073
-0.017920589721649102
1.6321873684938162
-0.4874914805413073
-0.017920589721649102
1.6321873684938162
-0.4874952734182463
-0.009918997256420776
1.6317977501782739
-0.4874952734182463
-0.009918997256420776
1.6317977501782739
-0.4874952734182463
-0.009918997256420776
1.6317977501782739
-0.4874952734182463
-0.009918997256420776
1.6317977501782739
-0.486577136610029
-0.00112700232697061
1.6304029242700582
-0.486577136610029
-0.00112700232697061
1.6304029242700582
-0.486577136610029
-0.00112700232697061
1.6304029242700582
-0.486577136610029
-0.00112700232697061
1.6304029242700582
-0.48620314276935955
0.008270057919776967
1.6278028495611712
-0.48620314276935955
0.008270057919776967
1.6278028495611712
-0.48620314276935955
0.008270057919776967
1.6278028495611712
-0.48620314276935955
0.008270057919776967
1.6278028495611712
-0.48730204862818155
0.017939933391568536
1.6239820664569518
-0.48730204862818155
0.017939933391568536
1.6239820664569518
-0.48730204862818155
0.017939933391568536
1.6239820664569518
-0.48730204862818155
0.017939933391568536
1.6239820664569518
-0.4884121171890235
0.027792509491447737
1.6201899681299918
-0.4884121171890235
0.027792509491447737
1.6201899681299918
-0.4884121171890235
0.027792509491447737
1.6201899681299918
-0.4884121171890235
0.027792509491447737
1.6201899681299918
-0.48976752053904193
0.038423058907558344
1.6166382383375142
-0.48976752053904193
0.038423058907558344
1.6166382383375142
-0.48976752053904193
0.038423058907558344
1.6166382383375142
-0.48976752053904193
0.038423058907558344
1.6166382383375142
-0.48952827650660136
0.04932732061040193
1.6136539068450357
-0.48952827650660136
0.04932732061040193
1.6136539068450357
-0.48952827650660136
0.04932732061040193
1.6136539068450357
-0.48952827650660136
0.04932732061040193
1.6136539068450357
-0.4921284821382995
0.06129653077447256
1.6099814844050175
-0.4921284821382995
0.06129653077447256
1.6099814844050175
-0.4921284821382995
0.06129653077447256
1.6099814844050175
-0.4921284821382995
0.06129653077447256
1.6099814844050175
-0.49847169821058884
0.07554773572819173
1.6071792108652803
-0.49847169821058884
0.07554773572819173
1.6071792108652803
-0.49847169821058884
0.07554773572819173
1.6071792108652803
-0.49847169821058884
0.07554773572819173
1.6071792108652803
-0.4969890504413411
0.08459632436240999
1.6071691696334125
-0.4969890504413411
0.08459632436240999
1.6071691696334125
-0.4969890504413411
0.08459632436240999
1.6071691696334125
-0.4969890504413411
0.08459632436240999
1.6071691696334125
-0.4847987433139612
0.0886297806799957
1.605832785231945
-0.4847987433139612
0.0886297806799957
1.605832785231945
-0.4847987433139612
0.0886297806799957
1.605832785231945
-0.4847987433139612
0.0886297806799957
1.605832785231945
-0.4825193880559802
0.09261198577284933
1.6005873122515162
-0.4825193880559802
0.09261198577284933
1.6005873122515162
-0.4825193880559802
0.09261198577284933
1.6005873122515162
-0.4825193880559802
0.09261198577284933
1.6005873122515162
-0.48658072745640146
0.09405918604286972
1.5948893799232196
-0.48658072745640146
0.09405918604286972
1.5948893799232196
-0.48658072745640146
0.09405918604286972
1.5948893799232196
-0.48658072745640146
0.09405918604286972
1.5948893799232196
-0.4843957432548677
0.09319960380122631
1.5916354877462267
-0.4843957432548677
0.09319960380122631
1.5916354877462267
-0.4843957432548677
0.09319960380122631
1.5916354877462267
-0.4843957432548677
0.09319960380122631
1.5916354877462267
-0.48606107714936
0.09005583976180792
1.5902931337802633
-0.48606107714936
0.09005583976180792
1.5902931337802633
-0.48606107714936
0.09005583976180792
1.5902931337802633
-0.48606107714936
0.09005583976180792
1.5902931337802633
-0.49317826170491097
0.0845668107661523
1.5862916106503868
-0.49317826170491097
0.0845668107661523
1.5862916106503868
-0.49317826170491097
0.0845668107661523
1.5862916106503868
-0.49317826170491097
0.0845668107661523
1.5862916106503868
-0.505124784176492
0.07663524373498416
1.5833930920459514
-0.505124784176492
0.07663524373498416
1.5833930920459514
-0.505124784176492
0.07663524373498416
1.5833930920459514
-0.505124784176492
0.07663524373498416
1.5833930920459514
-0.505925970485356
0.06516997493067296
1.5821315406116412
-0.505925970485356
0.06516997493067296
1.5821315406116412
-0.505925970485356
0.06516997493067296
1.5821315406116412
-0.505925970485356
0.06516997493067296
1.5821315406116412
-0.5059911385156078
0.051238035069118316
1.581715060695326
-0.5059911385156078
0.051238035069118316
1.581715060695326
-0.5059911385156078
0.051238035069118316
1.581715060695326
-0.5059911385156078
0.051238035069118316
1.581715060695326
-0.5042582919244736
0.03802200289685102
1.5796330584628213
-0.5042582919244736
0.03802200289685102
1.5796330584628213
-0.5042582919244736
0.03802200289685102
1.5796330584628213
-0.5042582919244736
0.03802200289685102
1.5796330584628213
-0.5029303422207465
0.025044407049605987
1.5780872989389483
-0.5029303422207465
0.025044407049605987
1.5780872989389483
-0.5029303422207465
0.025044407049605987
1.5780872989389483
-0.5029303422207465
0.025044407049605987
1.5780872989389483
-0.5001722765650007
0.012219791578951256
1.577830758897986
-0.5001722765650007
0.012219791578951256
1.577830758897986
-0.5001722765650007
0.012219791578951256
1.577830758897986
-0.5001722765650007
0.012219791578951256
1.577830758897986
-0.49675872555063694
6.347428037346459E-4
1.578917056183251
-0.49675872555063694
6.347428037346459E-4
1.578917056183251
-0.49675872555063694
6.347428037346459E-4
1.578917056183251
-0.49675872555063694
6.347428037346459E-4
1.578917056183251
-0.4969668232598807
-0.0086150149189987
1.5796610141555953
-0.4969668232598807
-0.0086150149189987
1.5796610141555953
-0.4969668232598807
-0.0086150149189987
1.5796610141555953
-0.4969668232598807
-0.0086150149189987
1.5796610141555953
-0.5003787456672856
-0.014717771715881218
1.5787446861723058
-0.5003787456672856
-0.014717771715881218
1.5787446861723058
-0.5003787456672856
-0.014717771715881218
1.5787446861723058
-0.5003787456672856
-0.014717771715881218
1.5787446861723058
-0.5031359827819478
-0.018028780088050863
1.576588665057384
-0.5031359827819478
-0.018028780088050863
1.576588665057384
-0.5031359827819478
-0.018028780088050863
1.576588665057384
-0.5031359827819478
-0.018028780088050863
1.576588665057384
-0.5049006517840223
-0.018853687947825406
1.5747684143928655
-0.5049006517840223
-0.018853687947825406
1.5747684143928655
-0.5049006517840223
-0.018853687947825406
1.5747684143928655
-0.5049006517840223
-0.018853687947825406
1.5747684143928655
-0.5034720024560582
-0.01768635281887724
1.5744539592206996
-0.5034720024560582
-0.01768635281887724
1.5744539592206996
-0.5034720024560582
-0.01768635281887724
1.5744539592206996
-0.5034720024560582
-0.01768635281887724
1.5744539592206996
-0.5024056811293777
-0.015360066459651935
1.5751837276678717
-0.5024056811293777
-0.015360066459651935
1.5751837276678717
-0.5024056811293777
-0.015360066459651935
1.5751837276678717
-0.5024056811293777
-0.015360066459651935
1.5751837276678717
-0.5029230652923198
-0.01169253655970922
1.5755825354021762
-0.5029230652923198
-0.01169253655970922
1.5755825354021762
-0.5029230652923198
-0.01169253655970922
1.5755825354021762
-0.5029230652923198
-0.01169253655970922
1.5755825354021762
-0.50627873303677
-0.007738043919241114
1.5743137043920294
-0.50627873303677
-0.007738043919241114
1.5743137043920294
-0.50627873303677
-0.007738043919241114
1.5743137043920294
-0.50627873303677
-0.007738043919241114
1.5743137043920294
-0.5076931631546828
-0.0035148551622812964
1.573402468193394
-0.5076931631546828
-0.0035148551622812964
1.573402468193394
-0.5076931631546828
-0.0035148551622812964
1.573402468193394
-0.5076931631546828
-0.0035148551622812964
1.573402468193394
-0.5058254344564191
1.5217655859243374E-4
1.5741447090758334
-0.5058254344564191
1.5217655859243374E-4
1.5741447090758334
-0.5058254344564191
1.5217655859243374E-4
1.5741447090758334
-0.5058254344564191
1.5217655859243374E-4
1.5741447090758334
-0.5022598204721935
0.0031263259827591272
1.5753409080222023
-0.5022598204721935
0.0031263259827591272
1.5753409080222023
-0.5022598204721935
0.0031263259827591272
1.5753409080222023
-0.5022598204721935
0.0031263259827591272
1.5753409080222023
-0.5013515306295053
0.005494964529098382
1.5762498506625877
-0.5013515306295053
0.005494964529098382
1.5762498506625877
-0.5013515306295053
0.005494964529098382
1.5762498506625877
-0.5013515306295053
0.005494964529098382
1.5762498506625877
-0.5031235506584194
0.007575200796552632
1.5766918427063472
-0.5031235506584194
0.007575200796552632
1.5766918427063472
-0.5031235506584194
0.007575200796552632
1.5766918427063472
-0.5031235506584194
0.007575200796552632
1.5766918427063472
-0.5044775574068684
0.009237451558045028
1.577240212667205
-0.5044775574068684
0.009237451558045028
1.577240212667205
-0.5044775574068684
0.009237451558045028
1.577240212667205
-0.5044775574068684
0.009237451558045028
1.577240212667205
-0.5023100538675946
0.011056778958400567
1.5781179627043678
-0.5023100538675946
0.011056778958400567
1.5781179627043678
-0.5023100538675946
0.011056778958400567
1.5781179627043678
-0.5023100538675946
0.011056778958400567
1.5781179627043678
-0.5008057866516852
0.013467189271604587
1.5795581393394948
-0.5008057866516852
0.013467189271604587
1.5795581393394948
-0.5008057866516852
0.013467189271604587
1.5795581393394948
-0.5008057866516852
0.013467189271604587
1.5795581393394948
-0.5011445925516268
0.01567212274655445
1.580506550822503
-0.5011445925516268
0.01567212274655445
1.580506550822503
-0.5011445925516268
0.01567212274655445
1.580506550822503
-0.5011445925516268
0.01567212274655445
1.580506550822503
-0.5027154155525823
0.01790492138865409
1.5815265333919863
-0.5027154155525823
0.01790492138865409
1.5815265333919863
-0.5027154155525823
0.01790492138865409
1.5815265333919863
-0.5027154155525823
0.01790492138865409
1.5815265333919863
-0.5039720065391409
0.02011750134778902
1.582463515851135
-0.5039720065391409
0.02011750134778902
1.582463515851135
-0.5039720065391409
0.02011750134778902
1.582463515851135
-0.5039720065391409
0.02011750134778902
1.582463515851135
-0.5043905160098542
0.022197962730333826
1.5832606590189144
-0.5043905160098542
0.022197962730333826
1.5832606590189144
-0.5043905160098542
0.022197962730333826
1.5832606590189144
-0.5043905160098542
0.022197962730333826
1.5832606590189144
-0.5052611692263155
0.024495385721400663
1.5845317088766495
-0.5052611692263155
0.024495385721400663
1.5845317088766495
-0.5052611692263155
0.024495385721400663
1.5845317088766495
-0.5052611692263155
0.024495385721400663
1.5845317088766495
-0.5046978967839446
0.027370965191089953
1.5860251111955488
-0.5046978967839446
0.027370965191089953
1.5860251111955488
-0.5046978967839446
0.027370965191089953
1.5860251111955488
-0.5046978967839446
0.027370965191089953
1.5860251111955488
-0.5033106370737812
0.030510215418179908
1.587551284135005
-0.5033106370737812
0.030510215418179908
1.587551284135005
-0.5033106370737812
0.030510215418179908
1.587551284135005
-0.5033106370737812
0.030510215418179908
1.587551284135005
-0.502943079363216
0.03330600001126013
1.5894245045976914
-0.502943079363216
0.03330600001126013
1.5894245045976914
-0.502943079363216
0.03330600001126013
1.5894245045976914
-0.502943079363216
0.03330600001126013
1.5894245045976914
-0.5038580751080377
0.035073200955057296
1.592433032892078
-0.5038580751080377
0.035073200955057296
1.592433032892078
-0.5038580751080377
0.035073200955057296
1.592433032892078
-0.5038580751080377
0.035073200955057296
1.592433032892078
-0.5047075900932291
0.035875079510339775
1.5947994667976348
-0.5047075900932291
0.035875079510339775
1.5947994667976348
-0.5047075900932291
0.035875079510339775
1.5947994667976348
-0.5047075900932291
0.035875079510339775
1.5947994667976348
-0.5040363930391925
0.03600838299500401
1.597092334896102
-0.5040363930391925
0.03600838299500401
1.597092334896102
-0.5040363930391925
0.03600838299500401
1.597092334896102
-0.5040363930391925
0.03600838299500401
1.597092334896102
-0.5038313146896011
0.035385475742471376
1.6009124444074985
-0.5038313146896011
0.035385475742471376
1.6009124444074985
-0.5038313146896011
0.035385475742471376
1.6009124444074985
-0.5038313146896011
0.035385475742471376
1.6009124444074985
-0.5028152819756738
0.03394558512885965
1.604058695006042
-0.5028152819756738
0.03394558512885965
1.604058695006042
-0.5028152819756738
0.03394558512885965
1.604058695006042
-0.5028152819756738
0.03394558512885965
1.604058695006042
-0.5023555858728048
0.03201158717500942
1.6073236422815071
-0.5023555858728048
0.03201158717500942
1.6073236422815071
-0.5023555858728048
0.03201158717500942
1.6073236422815071
-0.5023555858728048
0.03201158717500942
1.6073236422815071
-0.5037309633521021
0.02856571763661297
1.610781395379931
-0.5037309633521021
0.02856571763661297
1.610781395379931
-0.5037309633521021
0.02856571763661297
1.610781395379931
-0.5037309633521021
0.02856571763661297
1.610781395379931
-0.5026073765479407
0.023875842709041754
1.6144889258287156
-0.5026073765479407
0.023875842709041754
1.6144889258287156
-0.5026073765479407
0.023875842709041754
1.6144889258287156
-0.5026073765479407
0.023875842709041754
1.6144889258287156
-0.5005757467546089
0.018099485227405003
1.6192760453169974
-0.5005757467546089
0.018099485227405003
1.6192760453169974
-0.5005757467546089
0.018099485227405003
1.6192760453169974
-0.5005757467546089
0.018099485227405003
1.6192760453169974
-0.4941192621304412
0.014856047635813161
1.625097022724826
-0.4941192621304412
0.014856047635813161
1.625097022724826
-0.4941192621304412
0.014856047635813161
1.625097022724826
-0.4941192621304412
0.014856047635813161
1.625097022724826
-0.4854656103996181
0.00930947821670668
1.6313679781524204
-0.4854656103996181
0.00930947821670668
1.6313679781524204
-0.4854656103996181
0.00930947821670668
1.6313679781524204
-0.4854656103996181
0.00930947821670668
1.6313679781524204
-0.4797459280350195
0.005513511274218494
1.6354829351381839
-0.4797459280350195
0.005513511274218494
1.6354829351381839
-0.4797459280350195
0.005513511274218494
1.6354829351381839
-0.4797459280350195
0.005513511274218494
1.6354829351381839
-0.47991912920632335
-0.0010509391363720088
1.6424231455697078
-0.47991912920632335
-0.0010509391363720088
1.6424231455697078
-0.47991912920632335
-0.0010509391363720088
1.6424231455697078
-0.47991912920632335
-0.0010509391363720088
1.6424231455697078
-0.4624896985189901
-0.01039484087828875
1.647218473120909
-0.4624896985189901
-0.01039484087828875
1.647218473120909
-0.4624896985189901
-0.01039484087828875
1.647218473120909
-0.4624896985189901
-0.01039484087828875
1.647218473120909
-0.44778184102580504
-0.016985775113002057
1.6498380826021244
-0.44778184102580504
-0.016985775113002057
1.6498380826021244
-0.44778184102580504
-0.016985775113002057
1.6498380826021244
-0.44778184102580504
-0.016985775113002057
1.6498380826021244
-0.4513860457922082
-0.021733834238614056
1.654455557289201
-0.4513860457922082
-0.021733834238614056
1.654455557289201
-0.4513860457922082
-0.021733834238614056
1.654455557289201
-0.4513860457922082
-0.021733834238614056
1.654455557289201
-0.4679089502757536
-0.029791719550509615
1.659294106752063
-0.4679089502757536
-0.029791719550509615
1.659294106752063
-0.4679089502757536
-0.029791719550509615
1.659294106752063
-0.4679089502757536
-0.029791719550509615
1.659294106752063
-0.47529647589824414
-0.038753864918750755
1.6599715728789728
-0.47529647589824414
-0.038753864918750755
1.6599715728789728
-0.47529647589824414
-0.038753864918750755
1.6599715728789728
-0.47529647589824414
-0.038753864918750755
1.6599715728789728
-0.46951890448229217
-0.04381880312001579
1.660568398190682
-0.46951890448229217
-0.04381880312001579
1.660568398190682
-0.46951890448229217
-0.04381880312001579
1.660568398190682
-0.46951890448229217
-0.04381880312001579
1.660568398190682
-0.459310225935029
-0.04560322635114366
1.6607432633956232
-0.459310225935029
-0.04560322635114366
1.6607432633956232
-0.459310225935029
-0.04560322635114366
1.6607432633956232
-0.459310225935029
-0.04560322635114366
1.6607432633956232
-0.4576987512879434
-0.04693837215547413
1.661001612938102
-0.4576987512879434
-0.04693837215547413
1.661001612938102
-0.4576987512879434
-0.04693837215547413
1.661001612938102
-0.4576987512879434
-0.04693837215547413
1.661001612938102
-0.460072142393707
-0.04597728612545081
1.6613027879142293
-0.460072142393707
-0.04597728612545081
1.6613027879142293
-0.460072142393707
-0.04597728612545081
1.6613027879142293
-0.460072142393707
-0.04597728612545081
1.6613027879142293
-0.46084021617909954
-0.044396142408027264
1.6603336091915397
-0.46084021617909954
-0.044396142408027264
1.6603336091915397
-0.46084021617909954
-0.044396142408027264
1.6603336091915397
-0.46084021617909954
-0.044396142408027264
1.6603336091915397
-0.46401308658429913
-0.04112807727065327
1.6585998770438835
-0.46401308658429913
-0.04112807727065327
1.6585998770438835
-0.46401308658429913
-0.04112807727065327
1.6585998770438835
-0.46401308658429913
-0.04112807727065327
1.6585998770438835
-0.46567278135317797
-0.03675050359057032
1.656540557744904
-0.46567278135317797
-0.03675050359057032
1.656540557744904
-0.46567278135317797
-0.03675050359057032
1.656540557744904
-0.46567278135317797
-0.03675050359057032
1.656540557744904
-0.46727376507519797
-0.03376751562333015
1.6546337834047875
-0.46727376507519797
-0.03376751562333015
1.6546337834047875
-0.46727376507519797
-0.03376751562333015
1.6546337834047875
-0.46727376507519797
-0.03376751562333015
1.6546337834047875
-0.4683480675799958
-0.030816153173763232
1.6534233560494218
-0.4683480675799958
-0.030816153173763232
1.6534233560494218
-0.4683480675799958
-0.030816153173763232
1.6534233560494218
-0.4683480675799958
-0.030816153173763232
1.6534233560494218
-0.46937604151699197
-0.028584367339683323
1.6525582912276788
-0.46937604151699197
-0.028584367339683323
1.6525582912276788
-0.46937604151699197
-0.028584367339683323
1.6525582912276788
-0.46937604151699197
-0.028584367339683323
1.6525582912276788
-0.4695328588926376
-0.026637667086900647
1.6513854163410733
-0.4695328588926376
-0.026637667086900647
1.6513854163410733
-0.4695328588926376
-0.026637667086900647
1.6513854163410733
-0.4695328588926376
-0.026637667086900647
1.6513854163410733
-0.46887971894991926
-0.024223206695955728
1.6504381441902158
-0.46887971894991926
-0.024223206695955728
1.6504381441902158
-0.46887971894991926
-0.024223206695955728
1.6504381441902158
-0.46887971894991926
-0.024223206695955728
1.6504381441902158
-0.46959688579180425
-0.02077276288729424
1.6498911993364018
-0.46959688579180425
-0.02077276288729424
1.6498911993364018
-0.46959688579180425
-0.02077276288729424
1.6498911993364018
-0.46959688579180425
-0.02077276288729424
1.6498911993364018
-0.4693107575635719
-0.018290818139119192
1.6499121923508366
-0.4693107575635719
-0.018290818139119192
1.6499121923508366
-0.4693107575635719
-0.018290818139119192
1.6499121923508366
-0.4693107575635719
-0.018290818139119192
1.6499121923508366
-0.46855076300437526
-0.017184689557118275
1.6494568515138242
-0.46855076300437526
-0.017184689557118275
1.6494568515138242
-0.46855076300437526
-0.017184689557118275
1.6494568515138242
-0.46855076300437526
-0.017184689557118275
1.6494568515138242
-0.4698369744448687
-0.01579386042835998
1.6495036430434245
-0.4698369744448687
-0.01579386042835998
1.6495036430434245
-0.4698369744448687
-0.01579386042835998
1.6495036430434245
-0.4698369744448687
-0.01579386042835998
1.6495036430434245
-0.4709416101336083
-0.014517282371837434
1.6498374743534132
-0.4709416101336083
-0.014517282371837434
1.6498374743534132
-0.4709416101336083
-0.014517282371837434
1.6498374743534132
-0.4709416101336083
-0.014517282371837434
1.6498374743534132
-0.47057155028351505
-0.014135478442399277
1.650005844133002
-0.47057155028351505
-0.014135478442399277
1.650005844133002
-0.47057155028351505
-0.014135478442399277
1.650005844133002
-0.47057155028351505
-0.014135478442399277
1.650005844133002
-0.46934565562724956
-0.014976247554284745
1.649652148158658
-0.46934565562724956
-0.014976247554284745
1.649652148158658
-0.46934565562724956
-0.014976247554284745
1.649652148158658
-0.46934565562724956
-0.014976247554284745
1.649652148158658
-0.46899282527294656
-0.016707657095386283
1.6495308878653927
-0.46899282527294656
-0.016707657095386283
1.6495308878653927
-0.46899282527294656
-0.016707657095386283
1.6495308878653927
-0.46899282527294656
-0.016707657095386283
1.6495308878653927
-0.46971536371639894
-0.01963180661181559
1.6494420893232684
-0.46971536371639894
-0.01963180661181559
1.6494420893232684
-0.46971536371639894
-0.01963180661181559
1.6494420893232684
-0.46971536371639894
-0.01963180661181559
1.6494420893232684
-0.4710219792743509
-0.023098710718437245
1.649236279575166
-0.4710219792743509
-0.023098710718437245
1.649236279575166
-0.4710219792743509
-0.023098710718437245
1.649236279575166
-0.4710219792743509
-0.023098710718437245
1.649236279575166
-0.4726116728549327
-0.027309869517918067
1.6492181124586363
-0.4726116728549327
-0.027309869517918067
1.6492181124586363
-0.4726116728549327
-0.027309869517918067
1.6492181124586363
-0.4726116728549327
-0.027309869517918067
1.6492181124586363
-0.47341976179627543
-0.03213355989545509
1.6486252088620605
-0.47341976179627543
-0.03213355989545509
1.6486252088620605
-0.47341976179627543
-0.03213355989545509
1.6486252088620605
-0.47341976179627543
-0.03213355989545509
1.6486252088620605
-0.47370649156547556
-0.03720700754307026
1.6478169098981597
-0.47370649156547556
-0.03720700754307026
1.6478169098981597
-0.47370649156547556
-0.03720700754307026
1.6478169098981597
-0.47370649156547556
-0.03720700754307026
1.6478169098981597
-0.47390034155848526
-0.04191104107038858
1.6474511958948623
-0.47390034155848526
-0.04191104107038858
1.6474511958948623
-0.47390034155848526
-0.04191104107038858
1.6474511958948623
-0.47390034155848526
-0.04191104107038858
1.6474511958948623
-0.47354295271494096
-0.04590464408805409
1.647164646910525
-0.47354295271494096
-0.04590464408805409
1.647164646910525
-0.47354295271494096
-0.04590464408805409
1.647164646910525
-0.47354295271494096
-0.04590464408805409
1.647164646910525
-0.4728713364535531
-0.04923900474880728
1.6470587528308263
-0.4728713364535531
-0.04923900474880728
1.6470587528308263
-0.4728713364535531
-0.04923900474880728
1.6470587528308263
-0.4728713364535531
-0.04923900474880728
1.6470587528308263
-0.4721661436053824
-0.05142142080640782
1.6465865126527364
-0.4721661436053824
-0.05142142080640782
1.6465865126527364
-0.4721661436053824
-0.05142142080640782
1.6465865126527364
-0.4721661436053824
-0.05142142080640782
1.6465865126527364
-0.4725143539983342
-0.052320238557670304
1.64574737713238
-0.4725143539983342
-0.052320238557670304
1.64574737713238
-0.4725143539983342
-0.052320238557670304
1.64574737713238
-0.4725143539983342
-0.052320238557670304
1.64574737713238
-0.4734513022410739
-0.05200210705876478
1.644373173195506
-0.4734513022410739
-0.05200210705876478
1.644373173195506
-0.4734513022410739
-0.05200210705876478
1.644373173195506
-0.4734513022410739
-0.05200210705876478
1.644373173195506
-0.47431815626859253
-0.050763065551333475
1.64312344731045
-0.47431815626859253
-0.050763065551333475
1.64312344731045
-0.47431815626859253
-0.050763065551333475
1.64312344731045
-0.47431815626859253
-0.050763065551333475
1.64312344731045
-0.47406001284716154
-0.04799349887674772
1.6417315214606534
-0.47406001284716154
-0.04799349887674772
1.6417315214606534
-0.47406001284716154
-0.04799349887674772
1.6417315214606534
-0.47406001284716154
-0.04799349887674772
1.6417315214606534
-0.4742402221445777
-0.04437358984214624
1.6405057305140365
-0.4742402221445777
-0.04437358984214624
1.6405057305140365
-0.4742402221445777
-0.04437358984214624
1.6405057305140365
-0.4742402221445777
-0.04437358984214624
1.6405057305140365
-0.4750104012494325
-0.04012475492173367
1.6392311211705348
-0.4750104012494325
-0.04012475492173367
1.6392311211705348
-0.4750104012494325
-0.04012475492173367
1.6392311211705348
-0.4750104012494325
-0.04012475492173367
1.6392311211705348
-0.4759732815622765
-0.035561104834018746
1.6385045180098086
-0.4759732815622765
-0.035561104834018746
1.6385045180098086
-0.4759732815622765
-0.035561104834018746
1.6385045180098086
-0.4759732815622765
-0.035561104834018746
1.6385045180098086
-0.4769393421575409
-0.030998113469883806
1.6377736222019197
-0.4769393421575409
-0.030998113469883806
1.6377736222019197
-0.4769393421575409
-0.030998113469883806
1.6377736222019197
-0.4769393421575409
-0.030998113469883806
1.6377736222019197
-0.4765880131854839
-0.026335226527581555
1.6372538936891499
-0.4765880131854839
-0.026335226527581555
1.6372538936891499
-0.4765880131854839
-0.026335226527581555
1.6372538936891499
-0.4765880131854839
-0.026335226527581555
1.6372538936891499
-0.4756089579504574
-0.02156788250150309
1.6368755446394803
-0.4756089579504574
-0.02156788250150309
1.6368755446394803
-0.4756089579504574
-0.02156788250150309
1.6368755446394803
-0.4756089579504574
-0.02156788250150309
1.6368755446394803
-0.4750920722621475
-0.017311487868020455
1.6368988370591286
-0.4750920722621475
-0.017311487868020455
1.6368988370591286
-0.4750920722621475
-0.017311487868020455
1.6368988370591286
-0.4750920722621475
-0.017311487868020455
1.6368988370591286
-0.4757551273131611
-0.013268542814781369
1.6369953665404124
-0.4757551273131611
-0.013268542814781369
1.6369953665404124
-0.4757551273131611
-0.013268542814781369
1.6369953665404124
-0.4757551273131611
-0.013268542814781369
1.6369953665404124
-0.4759097681588118
-0.00960359604524851
1.637797007719363
-0.4759097681588118
-0.00960359604524851
1.637797007719363
-0.4759097681588118
-0.00960359604524851
1.637797007719363
-0.4759097681588118
-0.00960359604524851
1.637797007719363
-0.47509490244613517
-0.0064924777491088895
1.6382765275760518
-0.47509490244613517
-0.0064924777491088895
1.6382765275760518
-0.47509490244613517
-0.0064924777491088895
1.6382765275760518
-0.47509490244613517
-0.0064924777491088895
1.6382765275760518
-0.4747643996543436
-0.004120885339501215
1.6389442216992487
-0.4747643996543436
-0.004120885339501215
1.6389442216992487
-0.4747643996543436
-0.004120885339501215
1.6389442216992487
-0.4747643996543436
-0.004120885339501215
1.6389442216992487
-0.47451684210601586
-0.002354329055950747
1.6396672930752374
-0.47451684210601586
-0.002354329055950747
1.6396672930752374
-0.47451684210601586
-0.002354329055950747
1.6396672930752374
-0.47451684210601586
-0.002354329055950747
1.6396672930752374
-0.47556783948174425
-0.001839988247466851
1.6401743639972457
-0.47556783948174425
-0.001839988247466851
1.6401743639972457
-0.4758701900819604
-0.002691711721294902
1.6406505767393598
-0.4758701900819604
-0.002691711721294902
1.6406505767393598
-0.4758701900819604
-0.002691711721294902
1.6406505767393598
-0.4758701900819604
-0.002691711721294902
1.6406505767393598
-0.47629182269351866
-0.004543787932727343
1.6410150808518436
-0.47629182269351866
-0.004543787932727343
1.6410150808518436
-0.47629182269351866
-0.004543787932727343
1.6410150808518436
-0.47629182269351866
-0.004543787932727343
1.6410150808518436
-0.4767392255436426
-0.007106970728716428
1.641375743415435
-0.4767392255436426
-0.007106970728716428
1.641375743415435
-0.4767392255436426
-0.007106970728716428
1.641375743415435
-0.4767392255436426
-0.007106970728716428
1.641375743415435
-0.47722789561241985
-0.010274510760583685
1.6414439641230503
-0.47722789561241985
-0.010274510760583685
1.6414439641230503
-0.47722789561241985
-0.010274510760583685
1.6414439641230503
-0.47722789561241985
-0.010274510760583685
1.6414439641230503
-0.47808343748855275
-0.014308718930200559
1.641549940050764
-0.47808343748855275
-0.014308718930200559
1.641549940050764
-0.47808343748855275
-0.014308718930200559
1.641549940050764
-0.47808343748855275
-0.014308718930200559
1.641549940050764
-0.4786092719524696
-0.018964208734120656
1.6420712531003263
-0.4786092719524696
-0.018964208734120656
1.6420712531003263
-0.4786092719524696
-0.018964208734120656
1.6420712531003263
-0.4786092719524696
-0.018964208734120656
1.6420712531003263
-0.4792106003816996
-0.024498473887766086
1.6426390398880493
-0.4792106003816996
-0.024498473887766086
1.6426390398880493
-0.4792106003816996
-0.024498473887766086
1.6426390398880493
-0.4792106003816996
-0.024498473887766086
1.6426390398880493
-0.47907599270505485
-0.03039260216840523
1.6432748433713573
-0.47907599270505485
-0.03039260216840523
1.6432748433713573
-0.47907599270505485
-0.03039260216840523
1.6432748433713573
-0.47907599270505485
-0.03039260216840523
1.6432748433713573
-0.47926613622986713
-0.03659101509746673
1.643732690069987
-0.47926613622986713
-0.03659101509746673
1.643732690069987
-0.47926613622986713
-0.03659101509746673
1.643732690069987
-0.47926613622986713
-0.03659101509746673
1.643732690069987
-0.4790143871407717
-0.04326501942180171
1.6441146491866643
-0.4790143871407717
-0.04326501942180171
1.6441146491866643
-0.4790143871407717
-0.04326501942180171
1.6441146491866643
-0.4790143871407717
-0.04326501942180171
1.6441146491866643
-0.4786784172715948
-0.049568124061843355
1.6449351803698686
-0.4786784172715948
-0.049568124061843355
1.6449351803698686
-0.4786784172715948
-0.049568124061843355
1.6449351803698686
-0.4786784172715948
-0.049568124061843355
1.6449351803698686
-0.4786068520223231
-0.05510955800465868
1.6455809894654931
-0.4786068520223231
-0.05510955800465868
1.6455809894654931
-0.4786068520223231
-0.05510955800465868
1.6455809894654931
-0.4786068520223231
-0.05510955800465868
1.6455809894654931
-0.47797713623188554
-0.05944822836213015
1.6457267617515192
-0.47797713623188554
-0.05944822836213015
1.6457267617515192
-0.47797713623188554
-0.05944822836213015
1.6457267617515192
-0.47797713623188554
-0.05944822836213015
1.6457267617515192
-0.47673740573879486
-0.06266483817627541
1.6458455221852133
-0.47673740573879486
-0.06266483817627541
1.6458455221852133
-0.47673740573879486
-0.06266483817627541
1.6458455221852133
-0.47673740573879486
-0.06266483817627541
1.6458455221852133
-0.47662705814863876
-0.06457434360328995
1.646037043632841
-0.47662705814863876
-0.06457434360328995
1.646037043632841
-0.47662705814863876
-0.06457434360328995
1.646037043632841
-0.47662705814863876
-0.06457434360328995
1.646037043632841
-0.4773540956794447
-0.06461111997355386
1.6458122926085061
-0.4773540956794447
-0.06461111997355386
1.6458122926085061
-0.4773540956794447
-0.06461111997355386
1.6458122926085061
-0.4773540956794447
-0.06461111997355386
1.6458122926085061
-0.4780406663604223
-0.062423968893848436
1.6455714870813083
-0.4780406663604223
-0.062423968893848436
1.6455714870813083
-0.4780406663604223
-0.062423968893848436
1.6455714870813083
-0.4780406663604223
-0.062423968893848436
1.6455714870813083
-0.4781086731136699
-0.05858111986837194
1.6449002367068748
-0.4781086731136699
-0.05858111986837194
1.6449002367068748
-0.4781086731136699
-0.05858111986837194
1.6449002367068748
-0.4781086731136699
-0.05858111986837194
1.6449002367068748
-0.478712260995913
-0.05293526507065486
1.6438955270888007
-0.478712260995913
-0.05293526507065486
1.6438955270888007
-0.478712260995913
-0.05293526507065486
1.6438955270888007
-0.478712260995913
-0.05293526507065486
1.6438955270888007
-0.4792014215509437
-0.04633126218716298
1.6428280093658765
-0.4792014215509437
-0.04633126218716298
1.6428280093658765
-0.4792014215509437
-0.04633126218716298
1.6428280093658765
-0.4792014215509437
-0.04633126218716298
1.6428280093658765
-0.4794469169344462
-0.03939111107316207
1.6402432917221947
-0.4794469169344462
-0.03939111107316207
1.6402432917221947
-0.4794469169344462
-0.03939111107316207
1.6402432917221947
-0.4794469169344462
-0.03939111107316207
1.6402432917221947
-0.48081534873031884
-0.030696318905013627
1.6370789796760685
-0.48081534873031884
-0.030696318905013627
1.6370789796760685
-0.48081534873031884
-0.030696318905013627
1.6370789796760685
-0.48081534873031884
-0.030696318905013627
1.6370789796760685
-0.4825335307011819
-0.020886434408898216
1.6340786096864262
-0.4825335307011819
-0.020886434408898216
1.6340786096864262
-0.4825335307011819
-0.020886434408898216
1.6340786096864262
-0.4825335307011819
-0.020886434408898216
1.6340786096864262
-0.4828876348900859
-0.010665820777867476
1.6314793053677878
-0.4828876348900859
-0.010665820777867476
1.6314793053677878
-0.4828876348900859
-0.010665820777867476
1.6314793053677878
-0.4828876348900859
-0.010665820777867476
1.6314793053677878
-0.48207604012714533
2.3040383547195706E-4
1.6292326987154635
-0.48207604012714533
2.3040383547195706E-4
1.6292326987154635
-0.48207604012714533
2.3040383547195706E-4
1.6292326987154635
-0.48207604012714533
2.3040383547195706E-4
1.6292326987154635
-0.48069497916192766
0.011619744086378284
1.6258118499798866
-0.48069497916192766
0.011619744086378284
1.6258118499798866
-0.48069497916192766
0.011619744086378284
1.6258118499798866
-0.48069497916192766
0.011619744086378284
1.6258118499798866
-0.48049582584308
0.023442058627632933
1.6222059537071356
-0.48049582584308
0.023442058627632933
1.6222059537071356
-0.48049582584308
0.023442058627632933
1.6222059537071356
-0.48049582584308
0.023442058627632933
1.6222059537071356
-0.4793823972931617
0.034442927344102515
1.619348019233801
-0.4793823972931617
0.034442927344102515
1.619348019233801
-0.4793823972931617
0.034442927344102515
1.619348019233801
-0.4793823972931617
0.034442927344102515
1.619348019233801
-0.4782560041085142
0.04481721496558286
1.6171937725230119
-0.4782560041085142
0.04481721496558286
1.6171937725230119
-0.4782560041085142
0.04481721496558286
1.6171937725230119
-0.4782560041085142
0.04481721496558286
1.6171937725230119
-0.4753109829298698
0.052956019472035716
1.6144740407718314
-0.4753109829298698
0.052956019472035716
1.6144740407718314
-0.4753109829298698
0.052956019472035716
1.6144740407718314
-0.4753109829298698
0.052956019472035716
1.6144740407718314
-0.4740497791762086
0.06108203713570825
1.6114792810493
-0.4740497791762086
0.06108203713570825
1.6114792810493
-0.4740497791762086
0.06108203713570825
1.6114792810493
-0.4740497791762086
0.06108203713570825
1.6114792810493
-0.4760280338760499
0.06510023798323121
1.608053499241272
-0.4760280338760499
0.06510023798323121
1.608053499241272
-0.4760280338760499
0.06510023798323121
1.608053499241272
-0.4760280338760499
0.06510023798323121
1.608053499241272
-0.472735923006382
0.06701650259683954
1.604575757091537
-0.472735923006382
0.06701650259683954
1.604575757091537
-0.472735923006382
0.06701650259683954
1.604575757091537
-0.472735923006382
0.06701650259683954
1.604575757091537
-0.4755005828645323
0.06832288009937386
1.6008894613984954
-0.4755005828645323
0.06832288009937386
1.6008894613984954
-0.4755005828645323
0.06832288009937386
1.6008894613984954
-0.4755005828645323
0.06832288009937386
1.6008894613984954
-0.4768782572911654
0.06778298487556138
1.5963549744716379
-0.4768782572911654
0.06778298487556138
1.5963549744716379
-0.4768782572911654
0.06778298487556138
1.5963549744716379
-0.4768782572911654
0.06778298487556138
1.5963549744716379
-0.48229027801866703
0.0648317457986578
1.5914878810118693
-0.48229027801866703
0.0648317457986578
1.5914878810118693
-0.48229027801866703
0.0648317457986578
1.5914878810118693
-0.48229027801866703
0.0648317457986578
1.5914878810118693
-0.48523849272807773
0.057558593363011466
1.5884825596554666
-0.48523849272807773
0.057558593363011466
1.5884825596554666
-0.48523849272807773
0.057558593363011466
1.5884825596554666
-0.48523849272807773
0.057558593363011466
1.5884825596554666
-0.4917021919977512
0.048378581818665896
1.586962162407901
-0.4917021919977512
0.048378581818665896
1.586962162407901
-0.4917021919977512
0.048378581818665896
1.586962162407901
-0.4917021919977512
0.048378581818665896
1.586962162407901
-0.5007640854543952
0.037616913485056025
1.5851454736187947
-0.5007640854543952
0.037616913485056025
1.5851454736187947
-0.5007640854543952
0.037616913485056025
1.5851454736187947
-0.5007640854543952
0.037616913485056025
1.5851454736187947
-0.5039420381970509
0.026302102615742683
1.5836353933771556
-0.5039420381970509
0.026302102615742683
1.5836353933771556
-0.5039420381970509
0.026302102615742683
1.5836353933771556
-0.5039420381970509
0.026302102615742683
1.5836353933771556
-0.5025584182778515
0.014603284424096792
1.5825538573523192
-0.5025584182778515
0.014603284424096792
1.5825538573523192
-0.5025584182778515
0.014603284424096792
1.5825538573523192
-0.5025584182778515
0.014603284424096792
1.5825538573523192
-0.5001070034125076
0.00465932007160228
1.5813656694740919
-0.5001070034125076
0.00465932007160228
1.5813656694740919
-0.5001070034125076
0.00465932007160228
1.5813656694740919
-0.5001070034125076
0.00465932007160228
1.5813656694740919
-0.49490443041136417
-0.0053127836978581235
1.5811302015158024
-0.49490443041136417
-0.0053127836978581235
1.5811302015158024
-0.49490443041136417
-0.0053127836978581235
1.5811302015158024
-0.49490443041136417
-0.0053127836978581235
1.5811302015158024
-0.49309030070505117
-0.01463784055615043
1.581244770419138
-0.49309030070505117
-0.01463784055615043
1.581244770419138
-0.49309030070505117
-0.01463784055615043
1.581244770419138
-0.49309030070505117
-0.01463784055615043
1.581244770419138
-0.4934256280627212
-0.022340373508071713
1.5814076772096097
-0.4934256280627212
-0.022340373508071713
1.5814076772096097
-0.4934256280627212
-0.022340373508071713
1.5814076772096097
-0.4934256280627212
-0.022340373508071713
1.5814076772096097
-0.4937539565945223
-0.029415691565564867
1.5812369025709914
-0.4937539565945223
-0.029415691565564867
1.5812369025709914
-0.4937539565945223
-0.029415691565564867
1.5812369025709914
-0.4937539565945223
-0.029415691565564867
1.5812369025709914
-0.4962609579603478
-0.03398824701562262
1.5807438416943678
-0.4962609579603478
-0.03398824701562262
1.5807438416943678
-0.4962609579603478
-0.03398824701562262
1.5807438416943678
-0.4962609579603478
-0.03398824701562262
1.5807438416943678
-0.496540404383131
-0.03658901795252578
1.5792710850773855
-0.496540404383131
-0.03658901795252578
1.5792710850773855
-0.496540404383131
-0.03658901795252578
1.5792710850773855
-0.496540404383131
-0.03658901795252578
1.5792710850773855
-0.49845901937788584
-0.03681715039916522
1.5776738593402393
-0.49845901937788584
-0.03681715039916522
1.5776738593402393
-0.49845901937788584
-0.03681715039916522
1.5776738593402393
-0.49845901937788584
-0.03681715039916522
1.5776738593402393
-0.4988854901778572
-0.03616913671586961
1.577071563256249
-0.4988854901778572
-0.03616913671586961
1.577071563256249
-0.4988854901778572
-0.03616913671586961
1.577071563256249
-0.4988854901778572
-0.03616913671586961
1.577071563256249
-0.49818194349167505
-0.03468866282082992
1.5765923620372293
-0.49818194349167505
-0.03468866282082992
1.5765923620372293
-0.49818194349167505
-0.03468866282082992
1.5765923620372293
-0.49818194349167505
-0.03468866282082992
1.5765923620372293
-0.49742607933307537
-0.0320764538641776
1.575648008574175
-0.49742607933307537
-0.0320764538641776
1.575648008574175
-0.49742607933307537
-0.0320764538641776
1.575648008574175
-0.49742607933307537
-0.0320764538641776
1.575648008574175
-0.49711171431553847
-0.028645875532471228
1.5747720517471198
-0.49711171431553847
-0.028645875532471228
1.5747720517471198
-0.49711171431553847
-0.028645875532471228
1.5747720517471198
-0.49711171431553847
-0.028645875532471228
1.5747720517471198
-0.49744033038169655
-0.024875853322564742
1.574888101749429
-0.49744033038169655
-0.024875853322564742
1.574888101749429
-0.49744033038169655
-0.024875853322564742
1.574888101749429
-0.49744033038169655
-0.024875853322564742
1.574888101749429
-0.4963769428229643
-0.02158829803547014
1.5759110959368323
-0.4963769428229643
-0.02158829803547014
1.5759110959368323
-0.4963769428229643
-0.02158829803547014
1.5759110959368323
-0.4963769428229643
-0.02158829803547014
1.5759110959368323
-0.49674000623666037
-0.018504629141458326
1.577537519887692
-0.49674000623666037
-0.018504629141458326
1.577537519887692
-0.49674000623666037
-0.018504629141458326
1.577537519887692
-0.49674000623666037
-0.018504629141458326
1.577537519887692
-0.4977227281499746
-0.01441258102512842
1.579268442442648
-0.4977227281499746
-0.01441258102512842
1.579268442442648
-0.4977227281499746
-0.01441258102512842
1.579268442442648
-0.4977227281499746
-0.01441258102512842
1.579268442442648
-0.4969781434656211
-0.009698843005158875
1.5810046745113888
-0.4969781434656211
-0.009698843005158875
1.5810046745113888
-0.4969781434656211
-0.009698843005158875
1.5810046745113888
-0.4969781434656211
-0.009698843005158875
1.5810046745113888
-0.4950709272182752
-0.004723303188820378
1.5820500028677644
-0.4950709272182752
-0.004723303188820378
1.5820500028677644
-0.4950709272182752
-0.004723303188820378
1.5820500028677644
-0.4950709272182752
-0.004723303188820378
1.5820500028677644
-0.4937055216217007
-1.658081735173738E-4
1.582854520705831
-0.4937055216217007
-1.658081735173738E-4
1.582854520705831
-0.4937055216217007
-1.658081735173738E-4
1.582854520705831
-0.4937055216217007
-1.658081735173738E-4
1.582854520705831
-0.4949503565303986
0.004556503827072489
1.584602091171752
-0.4949503565303986
0.004556503827072489
1.584602091171752
-0.4949503565303986
0.004556503827072489
1.584602091171752
-0.4949503565303986
0.004556503827072489
1.584602091171752
-0.4956164251535898
0.009592001164041323
1.5868890892984004
-0.4956164251535898
0.009592001164041323
1.5868890892984004
-0.4956164251535898
0.009592001164041323
1.5868890892984004
-0.4956164251535898
0.009592001164041323
1.5868890892984004
-0.4956415418565513
0.014456519192286453
1.5895754050920352
-0.4956415418565513
0.014456519192286453
1.5895754050920352
-0.4956415418565513
0.014456519192286453
1.5895754050920352
-0.4956415418565513
0.014456519192286453
1.5895754050920352
-0.4942764686326397
0.018805396284167972
1.5924034249319
-0.4942764686326397
0.018805396284167972
1.5924034249319
-0.4942764686326397
0.018805396284167972
1.5924034249319
-0.4942764686326397
0.018805396284167972
1.5924034249319
-0.4933277583773982
0.02248453394644694
1.5950443302883515
-0.4933277583773982
0.02248453394644694
1.5950443302883515
-0.4933277583773982
0.02248453394644694
1.5950443302883515
-0.4933277583773982
0.02248453394644694
1.5950443302883515
-0.49801350880424206
0.025421278935785472
1.5975566338374156
-0.49801350880424206
0.025421278935785472
1.5975566338374156
-0.49801350880424206
0.025421278935785472
1.5975566338374156
-0.49801350880424206
0.025421278935785472
1.5975566338374156
-0.49849398644992055
0.027241136713155974
1.6004742075976126
-0.49849398644992055
0.027241136713155974
1.6004742075976126
-0.49849398644992055
0.027241136713155974
1.6004742075976126
-0.49849398644992055
0.027241136713155974
1.6004742075976126
-0.49521350697811833
0.02884013660224583
1.6056239570917972
-0.49521350697811833
0.02884013660224583
1.6056239570917972
-0.49521350697811833
0.02884013660224583
1.6056239570917972
-0.49521350697811833
0.02884013660224583
1.6056239570917972
-0.4933443085411527
0.029573687526018005
1.6122241629736056
-0.4933443085411527
0.029573687526018005
1.6122241629736056
-0.4933443085411527
0.029573687526018005
1.6122241629736056
-0.4933443085411527
0.029573687526018005
1.6122241629736056
-0.4909126814578885
0.02898176494388173
1.6161340638292547
-0.4909126814578885
0.02898176494388173
1.6161340638292547
-0.4909126814578885
0.02898176494388173
1.6161340638292547
-0.4909126814578885
0.02898176494388173
1.6161340638292547
-0.4920244061960362
0.02670719475003537
1.6182990390835836
-0.4920244061960362
0.02670719475003537
1.6182990390835836
-0.4920244061960362
0.02670719475003537
1.6182990390835836
-0.4920244061960362
0.02670719475003537
1.6182990390835836
-0.4933266098305295
0.02242533047373691
1.6195416157833638
-0.4933266098305295
0.02242533047373691
1.6195416157833638
-0.4933266098305295
0.02242533047373691
1.6195416157833638
-0.4933266098305295
0.02242533047373691
1.6195416157833638
-0.4885685770265008
0.019878546195481173
1.6241168754717148
-0.4885685770265008
0.019878546195481173
1.6241168754717148
-0.4885685770265008
0.019878546195481173
1.6241168754717148
-0.4885685770265008
0.019878546195481173
1.6241168754717148
-0.47946491674877884
0.017616994600522396
1.6301243238114942
-0.47946491674877884
0.017616994600522396
1.6301243238114942
-0.47946491674877884
0.017616994600522396
1.6301243238114942
-0.47946491674877884
0.017616994600522396
1.6301243238114942
-0.4717423170535683
0.013600707886001975
1.6343853013718406
-0.4717423170535683
0.013600707886001975
1.6343853013718406
-0.4717423170535683
0.013600707886001975
1.6343853013718406
-0.4717423170535683
0.013600707886001975
1.6343853013718406
-0.4660029773699445
0.004722791725516603
1.6381735210494681
-0.4660029773699445
0.004722791725516603
1.6381735210494681
-0.4660029773699445
0.004722791725516603
1.6381735210494681
-0.4660029773699445
0.004722791725516603
1.6381735210494681
-0.4581343267222976
-0.007441726736956218
1.6434488518624235
-0.4581343267222976
-0.007441726736956218
1.6434488518624235
-0.4581343267222976
-0.007441726736956218
1.6434488518624235
-0.4581343267222976
-0.007441726736956218
1.6434488518624235
-0.45684998053066567
-0.019076065527173256
1.6496913877185801
-0.45684998053066567
-0.019076065527173256
1.6496913877185801
-0.45684998053066567
-0.019076065527173256
1.6496913877185801
-0.45684998053066567
-0.019076065527173256
1.6496913877185801
-0.45820850902137356
-0.028085508293246252
1.6542143850047362
-0.45820850902137356
-0.028085508293246252
1.6542143850047362
-0.45820850902137356
-0.028085508293246252
1.6542143850047362
-0.45820850902137356
-0.028085508293246252
1.6542143850047362
-0.4636050207331669
-0.037266781687656736
1.6569632273106099
-0.4636050207331669
-0.037266781687656736
1.6569632273106099
-0.4636050207331669
-0.037266781687656736
1.6569632273106099
-0.4636050207331669
-0.037266781687656736
1.6569632273106099
-0.4667053086779154
-0.04596799162652113
1.657971330240098
-0.4667053086779154
-0.04596799162652113
1.657971330240098
-0.4667053086779154
-0.04596799162652113
1.657971330240098
-0.4667053086779154
-0.04596799162652113
1.657971330240098
-0.4636320108216472
-0.05346985459831378
1.6586698112174716
-0.4636320108216472
-0.05346985459831378
1.6586698112174716
-0.4636320108216472
-0.05346985459831378
1.6586698112174716
-0.4636320108216472
-0.05346985459831378
1.6586698112174716
-0.4569716381574249
-0.05772678377126044
1.6597735955609862
-0.4569716381574249
-0.05772678377126044
1.6597735955609862
-0.4569716381574249
-0.05772678377126044
1.6597735955609862
-0.4569716381574249
-0.05772678377126044
1.6597735955609862
-0.455094533585219
-0.059137128924109716
1.6601151580904914
-0.455094533585219
-0.059137128924109716
1.6601151580904914
-0.455094533585219
-0.059137128924109716
1.6601151580904914
-0.455094533585219
-0.059137128924109716
1.6601151580904914
-0.45693085517103876
-0.05897918202058614
1.6593550828955552
-0.45693085517103876
-0.05897918202058614
1.6593550828955552
-0.45693085517103876
-0.05897918202058614
1.6593550828955552
-0.45693085517103876
-0.05897918202058614
1.6593550828955552
-0.4601006901632979
-0.058462181107729945
1.6595362833414338
-0.4601006901632979
-0.058462181107729945
1.6595362833414338
-0.4601006901632979
-0.058462181107729945
1.6595362833414338
-0.4601006901632979
-0.058462181107729945
1.6595362833414338
-0.46111906706998884
-0.05710224219508595
1.659878631280756
-0.46111906706998884
-0.05710224219508595
1.659878631280756
-0.46111906706998884
-0.05710224219508595
1.659878631280756
-0.46111906706998884
-0.05710224219508595
1.659878631280756
-0.4588676547465646
-0.05565457921017021
1.6588287450500687
-0.4588676547465646
-0.05565457921017021
1.6588287450500687
-0.4588676547465646
-0.05565457921017021
1.6588287450500687
-0.4588676547465646
-0.05565457921017021
1.6588287450500687
-0.45980610911264796
-0.0530393935767169
1.6565634831045155
-0.45980610911264796
-0.0530393935767169
1.6565634831045155
-0.45980610911264796
-0.0530393935767169
1.6565634831045155
-0.45980610911264796
-0.0530393935767169
1.6565634831045155
-0.4628724864554557
-0.05024965805080855
1.6539753617678365
-0.4628724864554557
-0.05024965805080855
1.6539753617678365
-0.4628724864554557
-0.05024965805080855
1.6539753617678365
-0.4628724864554557
-0.05024965805080855
1.6539753617678365
-0.4652072141542272
-0.048183282614259734
1.65258795995448
-0.4652072141542272
-0.048183282614259734
1.65258795995448
-0.4652072141542272
-0.048183282614259734
1.65258795995448
-0.4652072141542272
-0.048183282614259734
1.65258795995448
-0.46617223360855686
-0.046541418263921865
1.6518740536216794
-0.46617223360855686
-0.046541418263921865
1.6518740536216794
-0.46617223360855686
-0.046541418263921865
1.6518740536216794
-0.46617223360855686
-0.046541418263921865
1.6518740536216794
-0.4656152360217095
-0.044789080216058444
1.6507290549109115
-0.4656152360217095
-0.044789080216058444
1.6507290549109115
-0.4656152360217095
-0.044789080216058444
1.6507290549109115
-0.4656152360217095
-0.044789080216058444
1.6507290549109115
-0.4661736595796501
-0.04200792782781736
1.6496413948525652
-0.4661736595796501
-0.04200792782781736
1.6496413948525652
-0.4661736595796501
-0.04200792782781736
1.6496413948525652
-0.4661736595796501
-0.04200792782781736
1.6496413948525652
-0.46712464739498766
-0.039784469263389334
1.649139431835103
-0.46712464739498766
-0.039784469263389334
1.649139431835103
-0.46712464739498766
-0.039784469263389334
1.649139431835103
-0.46712464739498766
-0.039784469263389334
1.649139431835103
-0.46663347264547744
-0.039006206319548306
1.6491153410385557
-0.46663347264547744
-0.039006206319548306
1.6491153410385557
-0.46663347264547744
-0.039006206319548306
1.6491153410385557
-0.46663347264547744
-0.039006206319548306
1.6491153410385557
-0.4668628991999677
-0.038328013794574074
1.6493134808387782
-0.4668628991999677
-0.038328013794574074
1.6493134808387782
-0.4668628991999677
-0.038328013794574074
1.6493134808387782
-0.4668628991999677
-0.038328013794574074
1.6493134808387782
-0.4678559375757853
-0.037670978400374054
1.650076227031274
-0.4678559375757853
-0.037670978400374054
1.650076227031274
-0.4678559375757853
-0.037670978400374054
1.650076227031274
-0.4678559375757853
-0.037670978400374054
1.650076227031274
-0.4686342392089596
-0.03774237239757441
1.6500231922938948
-0.4686342392089596
-0.03774237239757441
1.6500231922938948
-0.4686342392089596
-0.03774237239757441
1.6500231922938948
-0.4686342392089596
-0.03774237239757441
1.6500231922938948
-0.4689860399801732
-0.037828842759156996
1.6496104834989604
-0.4689860399801732
-0.037828842759156996
1.6496104834989604
-0.4689860399801732
-0.037828842759156996
1.6496104834989604
-0.4689860399801732
-0.037828842759156996
1.6496104834989604
-0.4680592915951908
-0.038542334305219264
1.6501106905930676
-0.4680592915951908
-0.038542334305219264
1.6501106905930676
-0.4680592915951908
-0.038542334305219264
1.6501106905930676
-0.4680592915951908
-0.038542334305219264
1.6501106905930676
-0.46558326800556465
-0.040406700210875675
1.6504837961586485
-0.46558326800556465
-0.040406700210875675
1.6504837961586485
-0.46558326800556465
-0.040406700210875675
1.6504837961586485
-0.46558326800556465
-0.040406700210875675
1.6504837961586485
-0.4646298791931116
-0.042710828254859834
1.650647933238237
-0.4646298791931116
-0.042710828254859834
1.650647933238237
-0.4646298791931116
-0.042710828254859834
1.650647933238237
-0.4646298791931116
-0.042710828254859834
1.650647933238237
-0.4661411470688591
-0.04503505588054887
1.6503595883379518
-0.4661411470688591
-0.04503505588054887
1.6503595883379518
-0.4661411470688591
-0.04503505588054887
1.6503595883379518
-0.4661411470688591
-0.04503505588054887
1.6503595883379518
-0.4685508095018009
-0.04763359941019288
1.6495507138079524
-0.4685508095018009
-0.04763359941019288
1.6495507138079524
-0.4685508095018009
-0.04763359941019288
1.6495507138079524
-0.4685508095018009
-0.04763359941019288
1.6495507138079524
-0.4696749832958263
-0.04985928084151322
1.6482575085519218
-0.4696749832958263
-0.04985928084151322
1.6482575085519218
-0.4696749832958263
-0.04985928084151322
1.6482575085519218
-0.4696749832958263
-0.04985928084151322
1.6482575085519218
-0.4692187499195658
-0.05194638687606621
1.6477657130899952
-0.4692187499195658
-0.05194638687606621
1.6477657130899952
-0.4692187499195658
-0.05194638687606621
1.6477657130899952
-0.4692187499195658
-0.05194638687606621
1.6477657130899952
-0.4682885305179148
-0.05354942431818484
1.647493154370647
-0.4682885305179148
-0.05354942431818484
1.647493154370647
-0.4682885305179148
-0.05354942431818484
1.647493154370647
-0.4682885305179148
-0.05354942431818484
1.647493154370647
-0.46814609645508054
-0.05455608967215017
1.6470195595292154
-0.46814609645508054
-0.05455608967215017
1.6470195595292154
-0.46814609645508054
-0.05455608967215017
1.6470195595292154
-0.46814609645508054
-0.05455608967215017
1.6470195595292154
-0.4691045553628005
-0.05472253787831356
1.6465602319580457
-0.4691045553628005
-0.05472253787831356
1.6465602319580457
-0.4691045553628005
-0.05472253787831356
1.6465602319580457
-0.4691045553628005
-0.05472253787831356
1.6465602319580457
-0.46945156944635213
-0.05456163629208486
1.6464458146212535
-0.46945156944635213
-0.05456163629208486
1.6464458146212535
-0.46945156944635213
-0.05456163629208486
1.6464458146212535
-0.46945156944635213
-0.05456163629208486
1.6464458146212535
-0.4686117178587444
-0.053709965458625976
1.646035153908598
-0.4686117178587444
-0.053709965458625976
1.646035153908598
-0.4686117178587444
-0.053709965458625976
1.646035153908598
-0.4686117178587444
-0.053709965458625976
1.646035153908598
-0.4678473990102901
-0.051961815694391233
1.6448758434072215
-0.4678473990102901
-0.051961815694391233
1.6448758434072215
-0.4678473990102901
-0.051961815694391233
1.6448758434072215
-0.4678473990102901
-0.051961815694391233
1.6448758434072215
-0.4678061121283508
-0.04955920134288999
1.643414756109053
-0.4678061121283508
-0.04955920134288999
1.643414756109053
-0.4678061121283508
-0.04955920134288999
1.643414756109053
-0.4678061121283508
-0.04955920134288999
1.643414756109053
-0.46941475291724316
-0.046822705786680865
1.6420117372435707
-0.46941475291724316
-0.046822705786680865
1.6420117372435707
-0.46941475291724316
-0.046822705786680865
1.6420117372435707
-0.46941475291724316
-0.046822705786680865
1.6420117372435707
-0.4710225108576913
-0.04388050428495799
1.6407319701671936
-0.4710225108576913
-0.04388050428495799
1.6407319701671936
-0.4710225108576913
-0.04388050428495799
1.6407319701671936
-0.4710225108576913
-0.04388050428495799
1.6407319701671936
-0.4703321779838053
-0.0404976232209876
1.6393673844206578
-0.4703321779838053
-0.0404976232209876
1.6393673844206578
-0.4703321779838053
-0.0404976232209876
1.6393673844206578
-0.4703321779838053
-0.0404976232209876
1.6393673844206578
-0.4697389214117953
-0.037073507552740144
1.6385298242138806
-0.4697389214117953
-0.037073507552740144
1.6385298242138806
-0.4697389214117953
-0.037073507552740144
1.6385298242138806
-0.4697389214117953
-0.037073507552740144
1.6385298242138806
-0.4707470922247174
-0.03420482871540847
1.6381302281626697
-0.4707470922247174
-0.03420482871540847
1.6381302281626697
-0.4707470922247174
-0.03420482871540847
1.6381302281626697
-0.4707470922247174
-0.03420482871540847
1.6381302281626697
-0.47083571338740327
-0.03193747715891026
1.6379427588380946
-0.47083571338740327
-0.03193747715891026
1.6379427588380946
-0.47083571338740327
-0.03193747715891026
1.6379427588380946
-0.47083571338740327
-0.03193747715891026
1.6379427588380946
-0.47084111933616146
-0.029468415888597
1.6382377709860965
-0.47084111933616146
-0.029468415888597
1.6382377709860965
-0.47084111933616146
-0.029468415888597
1.6382377709860965
-0.47084111933616146
-0.029468415888597
1.6382377709860965
-0.4713158946971153
-0.027195905743510225
1.6387695772090771
-0.4713158946971153
-0.027195905743510225
1.6387695772090771
-0.4713158946971153
-0.027195905743510225
1.6387695772090771
-0.4713158946971153
-0.027195905743510225
1.6387695772090771
-0.4715067918532206
-0.025183253903965575
1.6393535555275487
-0.4715067918532206
-0.025183253903965575
1.6393535555275487
-0.4715067918532206
-0.025183253903965575
1.6393535555275487
-0.4715067918532206
-0.025183253903965575
1.6393535555275487
-0.4706011708734729
-0.02365058667422129
1.6399472093765963
-0.4706011708734729
-0.02365058667422129
1.6399472093765963
-0.4706011708734729
-0.02365058667422129
1.6399472093765963
-0.4706011708734729
-0.02365058667422129
1.6399472093765963
-0.4700199325701673
-0.02306468601987348
1.6402347485072661
-0.4700199325701673
-0.02306468601987348
1.6402347485072661
-0.4700199325701673
-0.02306468601987348
1.6402347485072661
-0.4700199325701673
-0.02306468601987348
1.6402347485072661
-0.47040949758273265
-0.023307598272227503
1.6406582654790218
-0.47040949758273265
-0.023307598272227503
1.6406582654790218
-0.47040949758273265
-0.023307598272227503
1.6406582654790218
-0.47040949758273265
