-0.6053028748048256
0.04748409635486802
1.3180720377603918
-0.6053028748048256
0.04748409635486802
1.3180720377603918
-0.6063329324187882
0.047741629408188394
1.3178425661295674
-0.6063329324187882
0.047741629408188394
1.3178425661295674
-0.6063329324187882
0.047741629408188394
1.3178425661295674
-0.6063329324187882
0.047741629408188394
1.3178425661295674
-0.6072021904249657
0.048072607445130006
1.3177736425723716
-0.6072021904249657
0.048072607445130006
1.3177736425723716
-0.6072021904249657
0.048072607445130006
1.3177736425723716
-0.6072021904249657
0.048072607445130006
1.3177736425723716
-0.6073220704406705
0.04816776176642365
1.3178197428214724
-0.6073220704406705
0.04816776176642365
1.3178197428214724
-0.6073220704406705
0.04816776176642365
1.3178197428214724
-0.6073220704406705
0.04816776176642365
1.3178197428214724
-0.6073220704406705
0.04816776176642365
1.3178197428214724
-0.6073220704406705
0.04816776176642365
1.3178197428214724
-0.6073220704406705
0.04816776176642365
1.3178197428214724
-0.6073220704406705
0.04816776176642365
1.3178197428214724
-0.6065920913247753
0.0480435007337294
1.317719771328811
-0.6065920913247753
0.0480435007337294
1.317719771328811
-0.6065920913247753
0.0480435007337294
1.317719771328811
-0.6065920913247753
0.0480435007337294
1.317719771328811
-0.60670883392933
0.04764339792023632
1.3176623419115876
-0.60670883392933
0.04764339792023632
1.3176623419115876
-0.60670883392933
0.04764339792023632
1.3176623419115876
-0.60670883392933
0.04764339792023632
1.3176623419115876
-0.6074433332783553
0.04694334301534768
1.3177405556987105
-0.6074433332783553
0.04694334301534768
1.3177405556987105
-0.6074433332783553
0.04694334301534768
1.3177405556987105
-0.6074433332783553
0.04694334301534768
1.3177405556987105
-0.608079931698262
0.04631139744425087
1.3177213213717678
-0.608079931698262
0.04631139744425087
1.3177213213717678
-0.608079931698262
0.04631139744425087
1.3177213213717678
-0.608079931698262
0.04631139744425087
1.3177213213717678
-0.6084826609537592
0.04603621148377321
1.3178766026964939
-0.6084826609537592
0.04603621148377321
1.3178766026964939
-0.6084826609537592
0.04603621148377321
1.3178766026964939
-0.6084826609537592
0.04603621148377321
1.3178766026964939
-0.6084826609537592
0.04603621148377321
1.3178766026964939
-0.6084826609537592
0.04603621148377321
1.3178766026964939
-0.6084826609537592
0.04603621148377321
1.3178766026964939
-0.6084826609537592
0.04603621148377321
1.3178766026964939
-0.60883944067425
0.04606862708175752
1.3181161841126012
-0.60883944067425
0.04606862708175752
1.3181161841126012
-0.60883944067425
0.04606862708175752
1.3181161841126012
-0.60883944067425
0.04606862708175752
1.3181161841126012
-0.6091523680003094
0.0457747659813998
1.3184595105546488
-0.6091523680003094
0.0457747659813998
1.3184595105546488
-0.6091523680003094
0.0457747659813998
1.3184595105546488
-0.6091523680003094
0.0457747659813998
1.3184595105546488
-0.6095305156035413
0.04528479284142253
1.3185035923269688
-0.6095305156035413
0.04528479284142253
1.3185035923269688
-0.6095305156035413
0.04528479284142253
1.3185035923269688
-0.6095305156035413
0.04528479284142253
1.3185035923269688
-0.6092826707226199
0.04494808532548731
1.3190757385755492
-0.6092826707226199
0.04494808532548731
1.3190757385755492
-0.6092826707226199
0.04494808532548731
1.3190757385755492
-0.6092826707226199
0.04494808532548731
1.3190757385755492
-0.6090133338510755
0.04469033607810476
1.3199037703370096
-0.6090133338510755
0.04469033607810476
1.3199037703370096
-0.6090133338510755
0.04469033607810476
1.3199037703370096
-0.6090133338510755
0.04469033607810476
1.3199037703370096
-0.6089972518529763
0.04418734540791195
1.3203425899458634
-0.6089972518529763
0.04418734540791195
1.3203425899458634
-0.6089972518529763
0.04418734540791195
1.3203425899458634
-0.6089972518529763
0.04418734540791195
1.3203425899458634
-0.6097544821950622
0.04365149137955124
1.320370986641582
-0.6097544821950622
0.04365149137955124
1.320370986641582
-0.6097544821950622
0.04365149137955124
1.320370986641582
-0.6097544821950622
0.04365149137955124
1.320370986641582
-0.6097544821950622
0.04365149137955124
1.320370986641582
-0.6097544821950622
0.04365149137955124
1.320370986641582
-0.6097544821950622
0.04365149137955124
1.320370986641582
-0.6097544821950622
0.04365149137955124
1.320370986641582
-0.6097544821950622
0.04365149137955124
1.320370986641582
-0.6097544821950622
0.04365149137955124
1.320370986641582
-0.6103209423581933
0.043112838449408726
1.3203260062495987
-0.6103209423581933
0.043112838449408726
1.3203260062495987
-0.6103209423581933
0.043112838449408726
1.3203260062495987
-0.6103209423581933
0.043112838449408726
1.3203260062495987
-0.611595680260415
0.04297972404710555
1.3203742429732626
-0.611595680260415
0.04297972404710555
1.3203742429732626
-0.611595680260415
0.04297972404710555
1.3203742429732626
-0.611595680260415
0.04297972404710555
1.3203742429732626
-0.6129323855624444
0.042840746712905796
1.3201640121556772
-0.6129323855624444
0.042840746712905796
1.3201640121556772
-0.6129323855624444
0.042840746712905796
1.3201640121556772
-0.6129323855624444
0.042840746712905796
1.3201640121556772
-0.6138934320843
0.04300035371588907
1.3198680453024798
-0.6138934320843
0.04300035371588907
1.3198680453024798
-0.6138934320843
0.04300035371588907
1.3198680453024798
-0.6138934320843
0.04300035371588907
1.3198680453024798
-0.614478841781878
0.0432583826677466
1.3197508456436724
-0.614478841781878
0.0432583826677466
1.3197508456436724
-0.614478841781878
0.0432583826677466
1.3197508456436724
-0.614478841781878
0.0432583826677466
1.3197508456436724
-0.614478841781878
0.0432583826677466
1.3197508456436724
-0.614478841781878
0.0432583826677466
1.3197508456436724
-0.614478841781878
0.0432583826677466
1.3197508456436724
-0.614478841781878
0.0432583826677466
1.3197508456436724
-0.6146606551722107
0.043104551771803765
1.319334942323474
-0.6146606551722107
0.043104551771803765
1.319334942323474
-0.6146606551722107
0.043104551771803765
1.319334942323474
-0.6146606551722107
0.043104551771803765
1.319334942323474
-0.6150581209500515
0.04316880642318528
1.319103719498084
-0.6150581209500515
0.04316880642318528
1.319103719498084
-0.6150581209500515
0.04316880642318528
1.319103719498084
-0.6150581209500515
0.04316880642318528
1.319103719498084
-0.6161419955104278
0.043032131361219764
1.3190784458866496
-0.6161419955104278
0.043032131361219764
1.3190784458866496
-0.6161419955104278
0.043032131361219764
1.3190784458866496
-0.6161419955104278
0.043032131361219764
1.3190784458866496
-0.6167297594535607
0.04265598018708222
1.3189829320238864
-0.6167297594535607
0.04265598018708222
1.3189829320238864
-0.6167297594535607
0.04265598018708222
1.3189829320238864
-0.6167297594535607
0.04265598018708222
1.3189829320238864
-0.6167297594535607
0.04265598018708222
1.3189829320238864
-0.6167297594535607
0.04265598018708222
1.3189829320238864
-0.6167297594535607
0.04265598018708222
1.3189829320238864
-0.6167297594535607
0.04265598018708222
1.3189829320238864
-0.6167297594535607
0.04265598018708222
1.3189829320238864
-0.6167297594535607
0.04265598018708222
1.3189829320238864
-0.6167297594535607
0.04265598018708222
1.3189829320238864
-0.6167297594535607
0.04265598018708222
1.3189829320238864
-0.6167297594535607
0.04265598018708222
1.3189829320238864
-0.6167297594535607
0.04265598018708222
1.3189829320238864
-0.6167297594535607
0.04265598018708222
1.3189829320238864
-0.6167297594535607
0.04265598018708222
1.3189829320238864
-0.6170555625245608
0.04212605380887745
1.3185828805522437
-0.6170555625245608
0.04212605380887745
1.3185828805522437
-0.6170555625245608
0.04212605380887745
1.3185828805522437
-0.6170555625245608
0.04212605380887745
1.3185828805522437
-0.6170698464598903
0.04149797084217586
1.3180631012805333
-0.6170698464598903
0.04149797084217586
1.3180631012805333
-0.6170698464598903
0.04149797084217586
1.3180631012805333
-0.6170698464598903
0.04149797084217586
1.3180631012805333
-0.6174903971357038
0.04084756224507242
1.317598758084927
-0.6174903971357038
0.04084756224507242
1.317598758084927
-0.6174903971357038
0.04084756224507242
1.317598758084927
-0.6174903971357038
0.04084756224507242
1.317598758084927
-0.618357896780082
0.04049176251898952
1.3173904308394602
-0.618357896780082
0.04049176251898952
1.3173904308394602
-0.618357896780082
0.04049176251898952
1.3173904308394602
-0.618357896780082
0.04049176251898952
1.3173904308394602
-0.6190117017891916
0.0397266209404486
1.3169581191511448
-0.6190117017891916
0.0397266209404486
1.3169581191511448
-0.6190117017891916
0.0397266209404486
1.3169581191511448
-0.6190117017891916
0.0397266209404486
1.3169581191511448
-0.6192680560218393
0.03889805175888554
1.316756875095289
-0.6192680560218393
0.03889805175888554
1.316756875095289
-0.6192680560218393
0.03889805175888554
1.316756875095289
-0.6192680560218393
0.03889805175888554
1.316756875095289
-0.6190323970217838
0.03832595835246421
1.3165850388671543
-0.6190323970217838
0.03832595835246421
1.3165850388671543
-0.6190323970217838
0.03832595835246421
1.3165850388671543
-0.6190323970217838
0.03832595835246421
1.3165850388671543
-0.6190547919336836
0.037611582994442797
1.3163522873289424
-0.6190547919336836
0.037611582994442797
1.3163522873289424
-0.6190547919336836
0.037611582994442797
1.3163522873289424
-0.6190547919336836
0.037611582994442797
1.3163522873289424
-0.619074420707542
0.03708821942614642
1.316159430779396
-0.619074420707542
0.03708821942614642
1.316159430779396
-0.619074420707542
0.03708821942614642
1.316159430779396
-0.619074420707542
0.03708821942614642
1.316159430779396
-0.6187397140801826
0.03658415705899116
1.3158885998157226
-0.6187397140801826
0.03658415705899116
1.3158885998157226
-0.6187397140801826
0.03658415705899116
1.3158885998157226
-0.6187397140801826
0.03658415705899116
1.3158885998157226
-0.6190184812474795
0.036361150593032784
1.315572461680834
-0.6190184812474795
0.036361150593032784
1.315572461680834
-0.6190184812474795
0.036361150593032784
1.315572461680834
-0.6190184812474795
0.036361150593032784
1.315572461680834
-0.6195077866594745
0.036494573513450854
1.3153179717559995
-0.6195077866594745
0.036494573513450854
1.3153179717559995
-0.6195077866594745
0.036494573513450854
1.3153179717559995
-0.6195077866594745
0.036494573513450854
1.3153179717559995
-0.6196002581333588
0.03656508754384174
1.3152935325818698
-0.6196002581333588
0.03656508754384174
1.3152935325818698
-0.6196002581333588
0.03656508754384174
1.3152935325818698
-0.6196002581333588
0.03656508754384174
1.3152935325818698
-0.6197620663636763
0.03629952876721805
1.3150943879298675
-0.6197620663636763
0.03629952876721805
1.3150943879298675
-0.6197620663636763
0.03629952876721805
1.3150943879298675
-0.6197620663636763
0.03629952876721805
1.3150943879298675
-0.6202704731703786
0.03590928139474532
1.3146473882400493
-0.6202704731703786
0.03590928139474532
1.3146473882400493
-0.6202704731703786
0.03590928139474532
1.3146473882400493
-0.6202704731703786
0.03590928139474532
1.3146473882400493
-0.6204732550010432
0.03548186500383705
1.3139374278005203
-0.6204732550010432
0.03548186500383705
1.3139374278005203
-0.6204732550010432
0.03548186500383705
1.3139374278005203
-0.6204732550010432
0.03548186500383705
1.3139374278005203
-0.6206451177197412
0.03522104855069642
1.313196850372639
-0.6206451177197412
0.03522104855069642
1.313196850372639
-0.6206451177197412
0.03522104855069642
1.313196850372639
-0.6206451177197412
0.03522104855069642
1.313196850372639
-0.6219296608412591
0.03572175592880481
1.312685264789448
-0.6219296608412591
0.03572175592880481
1.312685264789448
-0.6219296608412591
0.03572175592880481
1.312685264789448
-0.6219296608412591
0.03572175592880481
1.312685264789448
-0.622686137947873
0.03606078652782059
1.3128989022487327
-0.622686137947873
0.03606078652782059
1.3128989022487327
-0.622686137947873
0.03606078652782059
1.3128989022487327
-0.622686137947873
0.03606078652782059
1.3128989022487327
-0.623114260424077
0.036635245970800714
1.3131442166406526
-0.623114260424077
0.036635245970800714
1.3131442166406526
-0.623114260424077
0.036635245970800714
1.3131442166406526
-0.623114260424077
0.036635245970800714
1.3131442166406526
-0.6237402909671241
0.03779713932677729
1.312734614690538
-0.6237402909671241
0.03779713932677729
1.312734614690538
-0.6237402909671241
0.03779713932677729
1.312734614690538
-0.6237402909671241
0.03779713932677729
1.312734614690538
-0.6241558162759702
0.03923614753334719
1.3122392899826745
-0.6241558162759702
0.03923614753334719
1.3122392899826745
-0.6241558162759702
0.03923614753334719
1.3122392899826745
-0.6241558162759702
0.03923614753334719
1.3122392899826745
-0.6234487943068516
0.04078705012651601
1.3122381221234574
-0.6234487943068516
0.04078705012651601
1.3122381221234574
-0.6234487943068516
0.04078705012651601
1.3122381221234574
-0.6234487943068516
0.04078705012651601
1.3122381221234574
-0.6229139884854673
0.04159678884650826
1.3125516563749324
-0.6229139884854673
0.04159678884650826
1.3125516563749324
-0.6229139884854673
0.04159678884650826
1.3125516563749324
-0.6229139884854673
0.04159678884650826
1.3125516563749324
-0.623362998545488
0.04209011056098582
1.3125402421088856
-0.623362998545488
0.04209011056098582
1.3125402421088856
-0.623362998545488
0.04209011056098582
1.3125402421088856
-0.623362998545488
0.04209011056098582
1.3125402421088856
-0.6232678852594441
0.04221077712652916
1.3126046572455956
-0.6232678852594441
0.04221077712652916
1.3126046572455956
-0.6232678852594441
0.04221077712652916
1.3126046572455956
-0.6232678852594441
0.04221077712652916
1.3126046572455956
-0.6224828244935093
0.04223711312170126
1.3120965266885376
-0.6224828244935093
0.04223711312170126
1.3120965266885376
-0.6224828244935093
0.04223711312170126
1.3120965266885376
-0.6224828244935093
0.04223711312170126
1.3120965266885376
-0.6224828244935093
0.04223711312170126
1.3120965266885376
-0.6224828244935093
0.04223711312170126
1.3120965266885376
-0.6224828244935093
0.04223711312170126
1.3120965266885376
-0.6224828244935093
0.04223711312170126
1.3120965266885376
-0.622575447334715
0.04230735177520829
1.312071759748263
-0.622575447334715
0.04230735177520829
1.312071759748263
-0.622575447334715
0.04230735177520829
1.312071759748263
-0.622575447334715
0.04230735177520829
1.312071759748263
-0.622781115750419
0.04212301660320165
1.311564054831643
-0.622781115750419
0.04212301660320165
1.311564054831643
-0.622781115750419
0.04212301660320165
1.311564054831643
-0.622781115750419
0.04212301660320165
1.311564054831643
-0.6228176095520661
0.0414652387601348
1.3109538113870403
-0.6228176095520661
0.0414652387601348
1.3109538113870403
-0.6228176095520661
0.0414652387601348
1.3109538113870403
-0.6228176095520661
0.0414652387601348
1.3109538113870403
-0.6230165910897191
0.040785041464475966
1.3103471625555152
-0.6230165910897191
0.040785041464475966
1.3103471625555152
-0.6230165910897191
0.040785041464475966
1.3103471625555152
-0.6230165910897191
0.040785041464475966
1.3103471625555152
-0.6235779729747276
0.040389178580008026
1.309877324920779
-0.6235779729747276
0.040389178580008026
1.309877324920779
-0.6235779729747276
0.040389178580008026
1.309877324920779
-0.6235779729747276
0.040389178580008026
1.309877324920779
-0.6236481864492696
0.04029659361305879
1.309905614249383
-0.6236481864492696
0.04029659361305879
1.309905614249383
-0.6236481864492696
0.04029659361305879
1.309905614249383
-0.6236481864492696
0.04029659361305879
1.309905614249383
-0.6230834648301187
0.03957097955954864
1.3099943499623106
-0.6230834648301187
0.03957097955954864
1.3099943499623106
-0.6230834648301187
0.03957097955954864
1.3099943499623106
-0.6230834648301187
0.03957097955954864
1.3099943499623106
-0.6227886985518667
0.03847080530963565
1.310737432949206
-0.6227886985518667
0.03847080530963565
1.310737432949206
-0.6227886985518667
0.03847080530963565
1.310737432949206
-0.6227886985518667
0.03847080530963565
1.310737432949206
-0.6251505564545013
0.03654363838132095
1.3125034232452324
-0.6251505564545013
0.03654363838132095
1.3125034232452324
-0.6251505564545013
0.03654363838132095
1.3125034232452324
-0.6251505564545013
0.03654363838132095
1.3125034232452324
-0.6277587796456916
0.03505525475051799
1.3145673233137736
-0.6277587796456916
0.03505525475051799
1.3145673233137736
-0.6277587796456916
0.03505525475051799
1.3145673233137736
-0.6277587796456916
0.03505525475051799
1.3145673233137736
-0.6270879679093891
0.033759384429927625
1.3151239196665636
-0.6270879679093891
0.033759384429927625
1.3151239196665636
-0.6270879679093891
0.033759384429927625
1.3151239196665636
-0.6270879679093891
0.033759384429927625
1.3151239196665636
-0.6242504680127983
0.03322636768968084
1.3143570525963204
-0.6242504680127983
0.03322636768968084
1.3143570525963204
-0.6242504680127983
0.03322636768968084
1.3143570525963204
-0.6242504680127983
0.03322636768968084
1.3143570525963204
-0.6194048936383372
0.03290060255791985
1.3134684958972929
-0.6194048936383372
0.03290060255791985
1.3134684958972929
-0.6194048936383372
0.03290060255791985
1.3134684958972929
-0.6194048936383372
0.03290060255791985
1.3134684958972929
-0.6165816482033228
0.03194030979139454
1.3136784949087381
-0.6165816482033228
0.03194030979139454
1.3136784949087381
-0.6165816482033228
0.03194030979139454
1.3136784949087381
-0.6165816482033228
0.03194030979139454
1.3136784949087381
-0.6164300445565939
0.029531799901488343
1.314088498817598
-0.6164300445565939
0.029531799901488343
1.314088498817598
-0.6164300445565939
0.029531799901488343
1.314088498817598
-0.6164300445565939
0.029531799901488343
1.314088498817598
-0.6171518630944961
0.026971169774356124
1.3134885925599564
-0.6171518630944961
0.026971169774356124
1.3134885925599564
-0.6171518630944961
0.026971169774356124
1.3134885925599564
-0.6171518630944961
0.026971169774356124
1.3134885925599564
-0.6183042727119055
0.025227661714431023
1.31334278209836
-0.6183042727119055
0.025227661714431023
1.31334278209836
-0.6183042727119055
0.025227661714431023
1.31334278209836
-0.6183042727119055
0.025227661714431023
1.31334278209836
-0.6180442199717759
0.02370705248118351
1.3142140943212965
-0.6180442199717759
0.02370705248118351
1.3142140943212965
-0.6180442199717759
0.02370705248118351
1.3142140943212965
-0.6180442199717759
0.02370705248118351
1.3142140943212965
-0.6168177542318061
0.022077975563217105
1.3140750233605414
-0.6168177542318061
0.022077975563217105
1.3140750233605414
-0.6168177542318061
0.022077975563217105
1.3140750233605414
-0.6168177542318061
0.022077975563217105
1.3140750233605414
-0.6153337547449345
0.02059162637958067
1.3139927505634992
-0.6153337547449345
0.02059162637958067
1.3139927505634992
-0.6153337547449345
0.02059162637958067
1.3139927505634992
-0.6153337547449345
0.02059162637958067
1.3139927505634992
-0.6144331399567837
0.019406634222654824
1.3145026987391208
-0.6144331399567837
0.019406634222654824
1.3145026987391208
-0.6144331399567837
0.019406634222654824
1.3145026987391208
-0.6144331399567837
0.019406634222654824
1.3145026987391208
-0.6133237554572147
0.01874163870446914
1.315129654631521
-0.6133237554572147
0.01874163870446914
1.315129654631521
-0.6133237554572147
0.01874163870446914
1.315129654631521
-0.6133237554572147
0.01874163870446914
1.315129654631521
-0.6124833261022659
0.01799332715175771
1.3153189433037331
-0.6124833261022659
0.01799332715175771
1.3153189433037331
-0.6124833261022659
0.01799332715175771
1.3153189433037331
-0.6124833261022659
0.01799332715175771
1.3153189433037331
-0.6109630716626797
0.017742244693893974
1.315660419828418
-0.6109630716626797
0.017742244693893974
1.315660419828418
-0.6109630716626797
0.017742244693893974
1.315660419828418
-0.6109630716626797
0.017742244693893974
1.315660419828418
-0.6091692689927826
0.017520940132333927
1.3162751946746292
-0.6091692689927826
0.017520940132333927
1.3162751946746292
-0.6091692689927826
0.017520940132333927
1.3162751946746292
-0.6091692689927826
0.017520940132333927
1.3162751946746292
-0.6069018530593886
0.01703229401511572
1.3167193882340402
-0.6069018530593886
0.01703229401511572
1.3167193882340402
-0.6069018530593886
0.01703229401511572
1.3167193882340402
-0.6069018530593886
0.01703229401511572
1.3167193882340402
-0.6049185818391649
0.016615457079380294
1.3172156954981844
-0.6049185818391649
0.016615457079380294
1.3172156954981844
-0.6049185818391649
0.016615457079380294
1.3172156954981844
-0.6049185818391649
0.016615457079380294
1.3172156954981844
-0.6028838481478016
0.016644978533518144
1.3176734255499776
-0.6028838481478016
0.016644978533518144
1.3176734255499776
-0.6028838481478016
0.016644978533518144
1.3176734255499776
-0.6028838481478016
0.016644978533518144
1.3176734255499776
-0.6009357344012063
0.017136163501691608
1.3178862330097605
-0.6009357344012063
0.017136163501691608
1.3178862330097605
-0.6009357344012063
0.017136163501691608
1.3178862330097605
-0.6009357344012063
0.017136163501691608
1.3178862330097605
-0.5988213928123709
0.01828199214480996
1.3180786789738974
-0.5988213928123709
0.01828199214480996
1.3180786789738974
-0.5988213928123709
0.01828199214480996
1.3180786789738974
-0.5988213928123709
0.01828199214480996
1.3180786789738974
-0.5967405078318341
0.019211098478301825
1.3179027591666461
-0.5967405078318341
0.019211098478301825
1.3179027591666461
-0.5967405078318341
0.019211098478301825
1.3179027591666461
-0.5967405078318341
0.019211098478301825
1.3179027591666461
-0.5952455600186602
0.02020781783376816
1.3175787279487383
-0.5952455600186602
0.02020781783376816
1.3175787279487383
-0.5952455600186602
0.02020781783376816
1.3175787279487383
-0.5952455600186602
0.02020781783376816
1.3175787279487383
-0.5939160580526022
0.020992451786994402
1.3172186163420672
-0.5939160580526022
0.020992451786994402
1.3172186163420672
-0.5939160580526022
0.020992451786994402
1.3172186163420672
-0.5939160580526022
0.020992451786994402
1.3172186163420672
-0.5918587959387918
0.021895352051193587
1.316955229146348
-0.5918587959387918
0.021895352051193587
1.316955229146348
-0.5918587959387918
0.021895352051193587
1.316955229146348
-0.5918587959387918
0.021895352051193587
1.316955229146348
-0.5892218664692196
0.022590154725947123
1.3169655043710642
-0.5892218664692196
0.022590154725947123
1.3169655043710642
-0.5892218664692196
0.022590154725947123
1.3169655043710642
-0.5892218664692196
0.022590154725947123
1.3169655043710642
-0.5875491202967391
0.02286234155876728
1.316869823968919
-0.5875491202967391
0.02286234155876728
1.316869823968919
-0.5875491202967391
0.02286234155876728
1.316869823968919
-0.5875491202967391
0.02286234155876728
1.316869823968919
-0.5863409940314881
0.02329963577607292
1.316618345607945
-0.5863409940314881
0.02329963577607292
1.316618345607945
-0.5863409940314881
0.02329963577607292
1.316618345607945
-0.5863409940314881
0.02329963577607292
1.316618345607945
-0.5851815592826098
0.023923731927318927
1.316388927179088
-0.5851815592826098
0.023923731927318927
1.316388927179088
-0.5851815592826098
0.023923731927318927
1.316388927179088
-0.5851815592826098
0.023923731927318927
1.316388927179088
-0.5839693248678346
0.02431206954047641
1.3159746576274565
-0.5839693248678346
0.02431206954047641
1.3159746576274565
-0.5839693248678346
0.02431206954047641
1.3159746576274565
-0.5839693248678346
0.02431206954047641
1.3159746576274565
-0.5831044088507353
0.02439044794683482
1.3152693686655026
-0.5831044088507353
0.02439044794683482
1.3152693686655026
-0.5831044088507353
0.02439044794683482
1.3152693686655026
-0.5831044088507353
0.02439044794683482
1.3152693686655026
-0.5822873360951168
0.024846674933307854
1.3146292890025437
-0.5822873360951168
0.024846674933307854
1.3146292890025437
-0.5822873360951168
0.024846674933307854
1.3146292890025437
-0.5822873360951168
0.024846674933307854
1.3146292890025437
-0.5811903828498083
0.02547165591761716
1.31414431011628
-0.5811903828498083
0.02547165591761716
1.31414431011628
-0.5811903828498083
0.02547165591761716
1.31414431011628
-0.5811903828498083
0.02547165591761716
1.31414431011628
-0.5806090794858533
0.026066808411403426
1.313438184986544
-0.5806090794858533
0.026066808411403426
1.313438184986544
-0.5806090794858533
0.026066808411403426
1.313438184986544
-0.5806090794858533
0.026066808411403426
1.313438184986544
-0.5813450954635168
0.02659828977041185
1.3127880736657862
-0.5813450954635168
0.02659828977041185
1.3127880736657862
-0.5813450954635168
0.02659828977041185
1.3127880736657862
-0.5813450954635168
0.02659828977041185
1.3127880736657862
-0.5815214771834509
0.027718894725147433
1.312349492597462
-0.5815214771834509
0.027718894725147433
1.312349492597462
-0.5815214771834509
0.027718894725147433
1.312349492597462
-0.5815214771834509
0.027718894725147433
1.312349492597462
-0.5817766854420252
0.02903585750570482
1.3123089046776721
-0.5817766854420252
0.02903585750570482
1.3123089046776721
-0.5817766854420252
0.02903585750570482
1.3123089046776721
-0.5817766854420252
0.02903585750570482
1.3123089046776721
-0.5816599120079635
0.030069093941253146
1.3123590528928237
-0.5816599120079635
0.030069093941253146
1.3123590528928237
-0.5816599120079635
0.030069093941253146
1.3123590528928237
-0.5816599120079635
0.030069093941253146
1.3123590528928237
-0.5815644325337855
0.03145677885552839
1.3124034880698652
-0.5815644325337855
0.03145677885552839
1.3124034880698652
-0.5815644325337855
0.03145677885552839
1.3124034880698652
-0.5815644325337855
0.03145677885552839
1.3124034880698652
-0.5814209577705657
0.032467254971722356
1.31238296603126
-0.5814209577705657
0.032467254971722356
1.31238296603126
-0.5814209577705657
0.032467254971722356
1.31238296603126
-0.5814209577705657
0.032467254971722356
1.31238296603126
-0.5805536651817246
0.03345529932510027
1.3125836095044403
-0.5805536651817246
0.03345529932510027
1.3125836095044403
-0.5805536651817246
0.03345529932510027
1.3125836095044403
-0.5805536651817246
0.03345529932510027
1.3125836095044403
-0.5791738647192866
0.034775515098586646
1.313075502033057
-0.5791738647192866
0.034775515098586646
1.313075502033057
-0.5791738647192866
0.034775515098586646
1.313075502033057
-0.5791738647192866
0.034775515098586646
1.313075502033057
-0.5790882431369736
0.035866992029476394
1.3136679707509495
-0.5790882431369736
0.035866992029476394
1.3136679707509495
-0.5790882431369736
0.035866992029476394
1.3136679707509495
-0.5790882431369736
0.035866992029476394
1.3136679707509495
-0.5787358673575693
0.03657155422857839
1.3137442669538624
-0.5787358673575693
0.03657155422857839
1.3137442669538624
-0.5787358673575693
0.03657155422857839
1.3137442669538624
-0.5787358673575693
0.03657155422857839
1.3137442669538624
-0.5783825372450767
0.0374662947179519
1.3138646651095618
-0.5783825372450767
0.0374662947179519
1.3138646651095618
-0.5783825372450767
0.0374662947179519
1.3138646651095618
-0.5783825372450767
0.0374662947179519
1.3138646651095618
-0.5782804217667747
0.03856515019685742
1.3135397559918403
-0.5782804217667747
0.03856515019685742
1.3135397559918403
-0.5782804217667747
0.03856515019685742
1.3135397559918403
-0.5782804217667747
0.03856515019685742
1.3135397559918403
-0.5783576324354676
0.04078544208692269
1.3127768865169822
-0.5783576324354676
0.04078544208692269
1.3127768865169822
-0.5783576324354676
0.04078544208692269
1.3127768865169822
-0.5783576324354676
0.04078544208692269
1.3127768865169822
-0.5807287036454865
0.04356030887419956
1.3111693211500164
-0.5807287036454865
0.04356030887419956
1.3111693211500164
-0.5807287036454865
0.04356030887419956
1.3111693211500164
-0.5807287036454865
0.04356030887419956
1.3111693211500164
-0.5782841758803867
0.04492143371142519
1.3098160049297145
-0.5782841758803867
0.04492143371142519
1.3098160049297145
-0.5782841758803867
0.04492143371142519
1.3098160049297145
-0.5782841758803867
0.04492143371142519
1.3098160049297145
-0.579227219440514
0.04600398204624183
1.3083529668282419
-0.579227219440514
0.04600398204624183
1.3083529668282419
-0.579227219440514
0.04600398204624183
1.3083529668282419
-0.579227219440514
0.04600398204624183
1.3083529668282419
-0.5838548808495442
0.048513212861194144
1.305570418752617
-0.5838548808495442
0.048513212861194144
1.305570418752617
-0.5838548808495442
0.048513212861194144
1.305570418752617
-0.5838548808495442
0.048513212861194144
1.305570418752617
-0.5903248619714218
0.05109566486655774
1.3026303436254945
-0.5903248619714218
0.05109566486655774
1.3026303436254945
-0.5903248619714218
0.05109566486655774
1.3026303436254945
-0.5903248619714218
0.05109566486655774
1.3026303436254945
-0.588145411494627
0.053385152167136844
1.3005327676296827
-0.588145411494627
0.053385152167136844
1.3005327676296827
-0.588145411494627
0.053385152167136844
1.3005327676296827
-0.588145411494627
0.053385152167136844
1.3005327676296827
-0.5915460585692254
0.055485569850328535
1.3004731623597745
-0.5915460585692254
0.055485569850328535
1.3004731623597745
-0.5915460585692254
0.055485569850328535
1.3004731623597745
-0.5915460585692254
0.055485569850328535
1.3004731623597745
-0.5985998580735098
0.05827396199069162
1.300300645354605
-0.5985998580735098
0.05827396199069162
1.300300645354605
-0.5985998580735098
0.05827396199069162
1.300300645354605
-0.5985998580735098
0.05827396199069162
1.300300645354605
-0.6016479781680892
0.06102828557818016
1.299211509806535
-0.6016479781680892
0.06102828557818016
1.299211509806535
-0.6016479781680892
0.06102828557818016
1.299211509806535
-0.6016479781680892
0.06102828557818016
1.299211509806535
-0.598976478599805
0.06161800066881895
1.2970352343310245
-0.598976478599805
0.06161800066881895
1.2970352343310245
-0.598976478599805
0.06161800066881895
1.2970352343310245
-0.598976478599805
0.06161800066881895
1.2970352343310245
-0.5938072309174196
0.06139365474142621
1.2952891015522414
-0.5938072309174196
0.06139365474142621
1.2952891015522414
-0.5938072309174196
0.06139365474142621
1.2952891015522414
-0.5938072309174196
0.06139365474142621
1.2952891015522414
-0.5944759100773171
0.05981286886468291
1.2951907422720086
-0.5944759100773171
0.05981286886468291
1.2951907422720086
-0.5944759100773171
0.05981286886468291
1.2951907422720086
-0.5944759100773171
0.05981286886468291
1.2951907422720086
-0.5955705186239563
0.05850803099714074
1.2949719005919424
-0.5955705186239563
0.05850803099714074
1.2949719005919424
-0.5955705186239563
0.05850803099714074
1.2949719005919424
-0.5955705186239563
0.05850803099714074
1.2949719005919424
-0.5965710981729005
0.056943677333604815
1.2947359943443038
-0.5965710981729005
0.056943677333604815
1.2947359943443038
-0.5965710981729005
0.056943677333604815
1.2947359943443038
-0.5965710981729005
0.056943677333604815
1.2947359943443038
-0.5967697188089833
0.05539464621689778
1.2948482411902296
-0.5967697188089833
0.05539464621689778
1.2948482411902296
-0.5967697188089833
0.05539464621689778
1.2948482411902296
-0.5967697188089833
0.05539464621689778
1.2948482411902296
-0.5980753255937675
0.0547337831915984
1.2941478253111105
-0.5980753255937675
0.0547337831915984
1.2941478253111105
-0.5980753255937675
0.0547337831915984
1.2941478253111105
-0.5980753255937675
0.0547337831915984
1.2941478253111105
-0.5965669354847527
0.054418071877784954
1.2942590871663795
-0.5965669354847527
0.054418071877784954
1.2942590871663795
-0.5965669354847527
0.054418071877784954
1.2942590871663795
-0.5965669354847527
0.054418071877784954
1.2942590871663795
-0.5953476200777001
0.05358789280392471
1.2955159717381977
-0.5953476200777001
0.05358789280392471
1.2955159717381977
-0.5953476200777001
0.05358789280392471
1.2955159717381977
-0.5953476200777001
0.05358789280392471
1.2955159717381977
-0.5938287008732668
0.05320770237526
1.2969224386156406
-0.5938287008732668
0.05320770237526
1.2969224386156406
-0.5938287008732668
0.05320770237526
1.2969224386156406
-0.5938287008732668
0.05320770237526
1.2969224386156406
-0.5935372882416868
0.052796184734980496
1.2963405236830934
-0.5935372882416868
0.052796184734980496
1.2963405236830934
-0.5935372882416868
0.052796184734980496
1.2963405236830934
-0.5935372882416868
0.052796184734980496
1.2963405236830934
-0.5946007462593108
0.052978505113921874
1.2943931583541672
-0.5946007462593108
0.052978505113921874
1.2943931583541672
-0.5946007462593108
0.052978505113921874
1.2943931583541672
-0.5946007462593108
0.052978505113921874
1.2943931583541672
-0.5952329551663296
0.05307533096059249
1.2937609494471483
-0.5952329551663296
0.05307533096059249
1.2937609494471483
-0.5952329551663296
0.05307533096059249
1.2937609494471483
-0.5952329551663296
0.05307533096059249
1.2937609494471483
-0.5941775342936713
0.052563499204339344
1.2946338042970393
-0.5941775342936713
0.052563499204339344
1.2946338042970393
-0.5941775342936713
0.052563499204339344
1.2946338042970393
-0.5941775342936713
0.052563499204339344
1.2946338042970393
-0.5921612339700628
0.051950092489782156
1.2959688847999926
-0.5921612339700628
0.051950092489782156
1.2959688847999926
-0.5921612339700628
0.051950092489782156
1.2959688847999926
-0.5921612339700628
0.051950092489782156
1.2959688847999926
-0.5914174374786597
0.051529483460534674
1.2969587166415995
-0.5914174374786597
0.051529483460534674
1.2969587166415995
-0.5914174374786597
0.051529483460534674
1.2969587166415995
-0.5914174374786597
0.051529483460534674
1.2969587166415995
-0.5910025567033346
0.05097469514185444
1.2961665108285803
-0.5910025567033346
0.05097469514185444
1.2961665108285803
-0.5910025567033346
0.05097469514185444
1.2961665108285803
-0.5910025567033346
0.05097469514185444
1.2961665108285803
-0.5917672499404506
0.05112832624596304
1.2948764561247819
-0.5917672499404506
0.05112832624596304
1.2948764561247819
-0.5917672499404506
0.05112832624596304
1.2948764561247819
-0.5917672499404506
0.05112832624596304
1.2948764561247819
-0.5928944703603918
0.05178807123447248
1.294238387828578
-0.5928944703603918
0.05178807123447248
1.294238387828578
-0.5928944703603918
0.05178807123447248
1.294238387828578
-0.5928944703603918
0.05178807123447248
1.294238387828578
-0.5913222349449841
0.05185632985637074
1.2946904457646282
-0.5913222349449841
0.05185632985637074
1.2946904457646282
-0.5913222349449841
0.05185632985637074
1.2946904457646282
-0.5913222349449841
0.05185632985637074
1.2946904457646282
-0.5907657327902396
0.051575218932987575
1.2956323024311964
-0.5907657327902396
0.051575218932987575
1.2956323024311964
-0.5907657327902396
0.051575218932987575
1.2956323024311964
-0.5907657327902396
0.051575218932987575
1.2956323024311964
-0.5907657327902396
0.051575218932987575
1.2956323024311964
-0.5907657327902396
0.051575218932987575
1.2956323024311964
-0.5907657327902396
0.051575218932987575
1.2956323024311964
-0.5907657327902396
0.051575218932987575
1.2956323024311964
-0.5914375667658395
0.05131578613138958
1.2947507448098898
-0.5914375667658395
0.05131578613138958
1.2947507448098898
-0.5914375667658395
0.05131578613138958
1.2947507448098898
-0.5914375667658395
0.05131578613138958
1.2947507448098898
-0.5927836944153726
0.0510355607540228
1.2931948328797982
-0.5927836944153726
0.0510355607540228
1.2931948328797982
-0.5927836944153726
0.0510355607540228
1.2931948328797982
-0.5927836944153726
0.0510355607540228
1.2931948328797982
-0.5926787249681704
0.0512970532403297
1.2922228835129457
-0.5926787249681704
0.0512970532403297
1.2922228835129457
-0.5926787249681704
0.0512970532403297
1.2922228835129457
-0.5926787249681704
0.0512970532403297
1.2922228835129457
-0.5915747770605344
0.051488375326843694
1.292040195150679
-0.5915747770605344
0.051488375326843694
1.292040195150679
-0.5915747770605344
0.051488375326843694
1.292040195150679
-0.5915747770605344
0.051488375326843694
1.292040195150679
-0.5914546758793596
0.05158490749109324
1.29203782177373
-0.5914546758793596
0.05158490749109324
1.29203782177373
-0.5914546758793596
0.05158490749109324
1.29203782177373
-0.5914546758793596
0.05158490749109324
1.29203782177373
-0.5925581356237241
0.051546820286316665
1.291792008580629
-0.5925581356237241
0.051546820286316665
1.291792008580629
-0.5925581356237241
0.051546820286316665
1.291792008580629
-0.5925581356237241
0.051546820286316665
1.291792008580629
-0.5941209501210003
0.05128713208349234
1.290378071472449
-0.5941209501210003
0.05128713208349234
1.290378071472449
-0.5941209501210003
0.05128713208349234
1.290378071472449
-0.5941209501210003
0.05128713208349234
1.290378071472449
-0.5949016590753041
0.05110500652816151
1.288932099333784
-0.5949016590753041
0.05110500652816151
1.288932099333784
-0.5949016590753041
0.05110500652816151
1.288932099333784
-0.5949016590753041
0.05110500652816151
1.288932099333784
-0.5937177095206844
0.05137941919502851
1.2881117317516226
-0.5937177095206844
0.05137941919502851
1.2881117317516226
-0.5937177095206844
0.05137941919502851
1.2881117317516226
-0.5937177095206844
0.05137941919502851
1.2881117317516226
-0.5919345331149362
0.051683864606609176
1.2883199386789241
-0.5919345331149362
0.051683864606609176
1.2883199386789241
-0.5919345331149362
0.051683864606609176
1.2883199386789241
-0.5919345331149362
0.051683864606609176
1.2883199386789241
-0.5916322876489949
0.05174269998040271
1.2886923722764445
-0.5916322876489949
0.05174269998040271
1.2886923722764445
-0.5916322876489949
0.05174269998040271
1.2886923722764445
-0.5916322876489949
0.05174269998040271
1.2886923722764445
-0.5922385919569303
0.05098892243893637
1.288881361931225
-0.5922385919569303
0.05098892243893637
1.288881361931225
-0.5922385919569303
0.05098892243893637
1.288881361931225
-0.5922385919569303
0.05098892243893637
1.288881361931225
-0.5928178579233866
0.05036461026696293
1.2885726415432095
-0.5928178579233866
0.05036461026696293
1.2885726415432095
-0.5928178579233866
0.05036461026696293
1.2885726415432095
-0.5928178579233866
0.05036461026696293
1.2885726415432095
-0.5923786237837514
0.04969827358995935
1.2879950035779146
-0.5923786237837514
0.04969827358995935
1.2879950035779146
-0.5923786237837514
0.04969827358995935
1.2879950035779146
-0.5923786237837514
0.04969827358995935
1.2879950035779146
-0.5911478461150493
0.04935473388840808
1.2878234875809624
-0.5911478461150493
0.04935473388840808
1.2878234875809624
-0.5911478461150493
0.04935473388840808
1.2878234875809624
-0.5911478461150493
0.04935473388840808
1.2878234875809624
-0.5881507413521772
0.04831127921999011
1.2881621602183122
-0.5881507413521772
0.04831127921999011
1.2881621602183122
-0.5881507413521772
0.04831127921999011
1.2881621602183122
-0.5881507413521772
0.04831127921999011
1.2881621602183122
-0.5853506488155025
0.045403509375809
1.2906095565284712
-0.5853506488155025
0.045403509375809
1.2906095565284712
-0.5853506488155025
0.045403509375809
1.2906095565284712
-0.5853506488155025
0.045403509375809
1.2906095565284712
-0.587966197607162
0.040208245805269154
1.2951099534361545
-0.587966197607162
0.040208245805269154
1.2951099534361545
-0.587966197607162
0.040208245805269154
1.2951099534361545
-0.587966197607162
0.040208245805269154
1.2951099534361545
-0.5934534993784728
0.035294869993302724
1.2996490945063877
-0.5934534993784728
0.035294869993302724
1.2996490945063877
-0.5934534993784728
0.035294869993302724
1.2996490945063877
-0.5934534993784728
0.035294869993302724
1.2996490945063877
-0.5971631068248093
0.03152055721813647
1.303511428187991
-0.5971631068248093
0.03152055721813647
1.303511428187991
-0.5971631068248093
0.03152055721813647
1.303511428187991
-0.5971631068248093
0.03152055721813647
1.303511428187991
-0.5950122797080372
0.02941439771054038
1.3055639375033388
-0.5950122797080372
0.02941439771054038
1.3055639375033388
-0.5950122797080372
0.02941439771054038
1.3055639375033388
-0.5950122797080372
0.02941439771054038
1.3055639375033388
-0.5895526568646836
0.028434347048550964
1.3066156845548536
-0.5895526568646836
0.028434347048550964
1.3066156845548536
-0.5895526568646836
0.028434347048550964
1.3066156845548536
-0.5895526568646836
0.028434347048550964
1.3066156845548536
-0.5859217457681285
0.027489855357667556
1.3073746225416953
-0.5859217457681285
0.027489855357667556
1.3073746225416953
-0.5859217457681285
0.027489855357667556
1.3073746225416953
-0.5859217457681285
0.027489855357667556
1.3073746225416953
-0.5856488724849711
0.02566599746037859
1.3078507247739535
-0.5856488724849711
0.02566599746037859
1.3078507247739535
-0.5856488724849711
0.02566599746037859
1.3078507247739535
-0.5856488724849711
0.02566599746037859
1.3078507247739535
-0.586830513199592
0.02252384912887069
1.3082011351525618
-0.586830513199592
0.02252384912887069
1.3082011351525618
-0.586830513199592
0.02252384912887069
1.3082011351525618
-0.586830513199592
0.02252384912887069
1.3082011351525618
-0.5885008623943716
0.019326687632984077
1.308263943347447
-0.5885008623943716
0.019326687632984077
1.308263943347447
-0.5885008623943716
0.019326687632984077
1.308263943347447
-0.5885008623943716
0.019326687632984077
1.308263943347447
-0.5900801834622237
0.01665645580559758
1.3076359312530959
-0.5900801834622237
0.01665645580559758
1.3076359312530959
-0.5900801834622237
0.01665645580559758
1.3076359312530959
-0.5900801834622237
0.01665645580559758
1.3076359312530959
-0.5906642452372267
0.014591883589979518
1.306780756567189
-0.5906642452372267
0.014591883589979518
1.306780756567189
-0.5906642452372267
0.014591883589979518
1.306780756567189
-0.5906642452372267
0.014591883589979518
1.306780756567189
-0.5894611034899937
0.013398662229301882
1.3059236644513377
-0.5894611034899937
0.013398662229301882
1.3059236644513377
-0.5894611034899937
0.013398662229301882
1.3059236644513377
-0.5894611034899937
0.013398662229301882
1.3059236644513377
-0.5872750118186976
0.013105119536855607
1.3052046571886389
-0.5872750118186976
0.013105119536855607
1.3052046571886389
-0.5872750118186976
0.013105119536855607
1.3052046571886389
-0.5872750118186976
0.013105119536855607
1.3052046571886389
-0.5856189705809192
0.013058715834324858
1.3049435211474696
-0.5856189705809192
0.013058715834324858
1.3049435211474696
-0.5856189705809192
0.013058715834324858
1.3049435211474696
-0.5856189705809192
0.013058715834324858
1.3049435211474696
-0.5856189705809192
0.013058715834324858
1.3049435211474696
-0.5856189705809192
0.013058715834324858
1.3049435211474696
-0.5856189705809192
0.013058715834324858
1.3049435211474696
-0.5856189705809192
0.013058715834324858
1.3049435211474696
-0.586187628692842
0.013199835521979056
1.3050521103510047
-0.586187628692842
0.013199835521979056
1.3050521103510047
-0.586187628692842
0.013199835521979056
1.3050521103510047
-0.586187628692842
0.013199835521979056
1.3050521103510047
-0.586494181815439
0.013434175025827106
1.3050567670357438
-0.586494181815439
0.013434175025827106
1.3050567670357438
-0.586494181815439
0.013434175025827106
1.3050567670357438
-0.586494181815439
0.013434175025827106
1.3050567670357438
-0.586494181815439
0.013434175025827106
1.3050567670357438
-0.586494181815439
0.013434175025827106
1.3050567670357438
-0.586494181815439
0.013434175025827106
1.3050567670357438
-0.586494181815439
0.013434175025827106
1.3050567670357438
-0.5864899581598301
0.013827129085525474
1.304836978701705
-0.5864899581598301
0.013827129085525474
1.304836978701705
-0.5864899581598301
0.013827129085525474
1.304836978701705
-0.5864899581598301
0.013827129085525474
1.304836978701705
-0.5859565360476475
0.014548301071438197
1.3042894313770261
-0.5859565360476475
0.014548301071438197
1.3042894313770261
-0.5859565360476475
0.014548301071438197
1.3042894313770261
-0.5859565360476475
0.014548301071438197
1.3042894313770261
-0.5850792739330742
0.01539142547616312
1.3039884162032478
-0.5850792739330742
0.01539142547616312
1.3039884162032478
-0.5850792739330742
0.01539142547616312
1.3039884162032478
-0.5850792739330742
0.01539142547616312
1.3039884162032478
-0.5846500342628043
0.016091586377423046
1.3037037108593053
-0.5846500342628043
0.016091586377423046
1.3037037108593053
-0.5846500342628043
0.016091586377423046
1.3037037108593053
-0.5846500342628043
0.016091586377423046
1.3037037108593053
-0.5846294564706471
0.01656171249848988
1.3037411416607425
-0.5846294564706471
0.01656171249848988
1.3037411416607425
-0.5846294564706471
0.01656171249848988
1.3037411416607425
-0.5846294564706471
0.01656171249848988
1.3037411416607425
-0.5849533455954996
0.016910116339937876
1.303532150020535
-0.5849533455954996
0.016910116339937876
1.303532150020535
-0.5849533455954996
0.016910116339937876
1.303532150020535
-0.5849533455954996
0.016910116339937876
1.303532150020535
-0.5845726474527936
0.01735352911360477
1.3033246415990951
-0.5845726474527936
0.01735352911360477
1.3033246415990951
-0.5845726474527936
0.01735352911360477
1.3033246415990951
-0.5845726474527936
0.01735352911360477
1.3033246415990951
-0.5841162131475748
0.01784070797860341
1.302926177422044
-0.5841162131475748
0.01784070797860341
1.302926177422044
-0.5841162131475748
0.01784070797860341
1.302926177422044
-0.5841162131475748
0.01784070797860341
1.302926177422044
-0.5838233501602224
0.018114445690300945
1.302489331022303
-0.5838233501602224
0.018114445690300945
1.302489331022303
-0.5838233501602224
0.018114445690300945
1.302489331022303
-0.5838233501602224
0.018114445690300945
1.302489331022303
-0.5840290330187231
0.01881284329866328
1.3021761675281145
-0.5840290330187231
0.01881284329866328
1.3021761675281145
-0.5840290330187231
0.01881284329866328
1.3021761675281145
-0.5840290330187231
0.01881284329866328
1.3021761675281145
-0.5844466549894914
0.01923160065829364
1.301944716416422
-0.5844466549894914
0.01923160065829364
1.301944716416422
-0.5844466549894914
0.01923160065829364
1.301944716416422
-0.5844466549894914
0.01923160065829364
1.301944716416422
-0.5847988603796781
0.01979296162504367
1.301849566280314
-0.5847988603796781
0.01979296162504367
1.301849566280314
-0.5847988603796781
0.01979296162504367
1.301849566280314
-0.5847988603796781
0.01979296162504367
1.301849566280314
-0.5854253534774889
0.020325254685057678
1.30147998446792
-0.5854253534774889
0.020325254685057678
1.30147998446792
-0.5854253534774889
0.020325254685057678
1.30147998446792
-0.5854253534774889
0.020325254685057678
1.30147998446792
-0.5858424207836899
0.020361611998813534
1.3011607541061103
-0.5858424207836899
0.020361611998813534
1.3011607541061103
-0.5858424207836899
0.020361611998813534
1.3011607541061103
-0.5858424207836899
0.020361611998813534
1.3011607541061103
-0.5854830337593775
0.02052619258884692
1.3009600786987823
-0.5854830337593775
0.02052619258884692
1.3009600786987823
-0.5854830337593775
0.02052619258884692
1.3009600786987823
-0.5854830337593775
0.02052619258884692
1.3009600786987823
-0.5854580469935455
0.020946822343133935
1.300833573601778
-0.5854580469935455
0.020946822343133935
1.300833573601778
-0.5854580469935455
0.020946822343133935
1.300833573601778
-0.5854580469935455
0.020946822343133935
1.300833573601778
-0.5855209370571364
0.02119733624686875
1.3004773668379652
-0.5855209370571364
0.02119733624686875
1.3004773668379652
-0.5855209370571364
0.02119733624686875
1.3004773668379652
-0.5855209370571364
0.02119733624686875
1.3004773668379652
-0.5855209370571364
0.02119733624686875
1.3004773668379652
-0.5855209370571364
0.02119733624686875
1.3004773668379652
-0.5855209370571364
0.02119733624686875
1.3004773668379652
-0.5855209370571364
0.02119733624686875
1.3004773668379652
-0.5855209370571364
0.02119733624686875
1.3004773668379652
-0.5855209370571364
0.02119733624686875
1.3004773668379652
-0.5855209370571364
0.02119733624686875
1.3004773668379652
-0.5855209370571364
0.02119733624686875
1.3004773668379652
-0.5855209370571364
0.02119733624686875
1.3004773668379652
-0.5855209370571364
0.02119733624686875
1.3004773668379652
-0.5855209370571364
0.02119733624686875
1.3004773668379652
-0.5855209370571364
0.02119733624686875
1.3004773668379652
-0.5855209370571364
0.02119733624686875
1.3004773668379652
-0.5855209370571364
0.02119733624686875
1.3004773668379652
-0.5855209370571364
0.02119733624686875
1.3004773668379652
-0.5855209370571364
0.02119733624686875
1.3004773668379652
-0.5855914050407934
0.021104092667561785
1.3005046641511246
-0.5855914050407934
0.021104092667561785
1.3005046641511246
-0.5855914050407934
0.021104092667561785
1.3005046641511246
-0.5855914050407934
0.021104092667561785
1.3005046641511246
-0.5863310605012196
0.021044970691969027
1.3000315001191645
-0.5863310605012196
0.021044970691969027
1.3000315001191645
-0.5863310605012196
0.021044970691969027
1.3000315001191645
-0.5863310605012196
0.021044970691969027
1.3000315001191645
-0.586580128064063
0.021245102421086258
1.2995868856799742
-0.586580128064063
0.021245102421086258
1.2995868856799742
-0.586580128064063
0.021245102421086258
1.2995868856799742
-0.586580128064063
0.021245102421086258
1.2995868856799742
-0.587318182807096
0.021769584955457617
1.2989370387637138
-0.587318182807096
0.021769584955457617
1.2989370387637138
-0.587318182807096
0.021769584955457617
1.2989370387637138
-0.587318182807096
0.021769584955457617
1.2989370387637138
-0.588318494648488
0.022390717677958836
1.2984329822623604
-0.588318494648488
0.022390717677958836
1.2984329822623604
-0.588318494648488
0.022390717677958836
1.2984329822623604
-0.588318494648488
0.022390717677958836
1.2984329822623604
-0.5881419929356748
0.023291271264927152
1.2977034413103443
-0.5881419929356748
0.023291271264927152
1.2977034413103443
-0.5881419929356748
0.023291271264927152
1.2977034413103443
-0.5881419929356748
0.023291271264927152
1.2977034413103443
-0.5905537372770545
0.025327459239083656
1.296778757907374
-0.5905537372770545
0.025327459239083656
1.296778757907374
-0.5905537372770545
0.025327459239083656
1.296778757907374
-0.5905537372770545
0.025327459239083656
1.296778757907374
-0.5897352787998738
0.027883705666399455
1.2952208036743205
-0.5897352787998738
0.027883705666399455
1.2952208036743205
-0.5897352787998738
0.027883705666399455
1.2952208036743205
-0.5897352787998738
0.027883705666399455
1.2952208036743205
-0.5874131319597351
0.02895710370905665
1.2941096768361193
-0.5874131319597351
0.02895710370905665
1.2941096768361193
-0.5874131319597351
0.02895710370905665
1.2941096768361193
-0.5874131319597351
0.02895710370905665
1.2941096768361193
-0.5889573947868638
0.029893627516723382
1.2933712810984503
-0.5889573947868638
0.029893627516723382
1.2933712810984503
-0.5889573947868638
0.029893627516723382
1.2933712810984503
-0.5889573947868638
0.029893627516723382
1.2933712810984503
-0.5923839179469778
0.03267859794035664
1.2929585393236689
-0.5923839179469778
0.03267859794035664
1.2929585393236689
-0.5923839179469778
0.03267859794035664
1.2929585393236689
-0.5923839179469778
0.03267859794035664
1.2929585393236689
-0.5929593616561089
0.034034554427452485
1.2928676539767632
-0.5929593616561089
0.034034554427452485
1.2928676539767632
-0.5929593616561089
0.034034554427452485
1.2928676539767632
-0.5929593616561089
0.034034554427452485
1.2928676539767632
-0.5911561025410398
0.03494543367514601
1.2929763029425696
-0.5911561025410398
0.03494543367514601
1.2929763029425696
-0.5911561025410398
0.03494543367514601
1.2929763029425696
-0.5911561025410398
0.03494543367514601
1.2929763029425696
-0.5946843521790498
0.03586980360703955
1.2924812595361277
-0.5946843521790498
0.03586980360703955
1.2924812595361277
-0.5946843521790498
0.03586980360703955
1.2924812595361277
-0.5946843521790498
0.03586980360703955
1.2924812595361277
-0.5979215184715317
0.03682360513067347
1.2913404555381003
-0.5979215184715317
0.03682360513067347
1.2913404555381003
-0.5979215184715317
0.03682360513067347
1.2913404555381003
-0.5979215184715317
0.03682360513067347
1.2913404555381003
-0.598572075915792
0.038728600321440355
1.2897956945561142
-0.598572075915792
0.038728600321440355
1.2897956945561142
-0.598572075915792
0.038728600321440355
1.2897956945561142
-0.598572075915792
0.038728600321440355
1.2897956945561142
-0.5969838525487255
0.03928289012764036
1.2888121367523913
-0.5969838525487255
0.03928289012764036
1.2888121367523913
-0.5969838525487255
0.03928289012764036
1.2888121367523913
-0.5969838525487255
0.03928289012764036
1.2888121367523913
-0.5949132678546967
0.04000051442662727
1.2884531941703132
-0.5949132678546967
0.04000051442662727
1.2884531941703132
-0.5949132678546967
0.04000051442662727
1.2884531941703132
-0.5949132678546967
0.04000051442662727
1.2884531941703132
-0.5949132678546967
0.04000051442662727
1.2884531941703132
-0.5949132678546967
0.04000051442662727
1.2884531941703132
-0.5949132678546967
0.04000051442662727
1.2884531941703132
-0.5949132678546967
0.04000051442662727
1.2884531941703132
-0.597705903276946
0.04016896892181702
1.2878604856893423
-0.597705903276946
0.04016896892181702
1.2878604856893423
-0.597705903276946
0.04016896892181702
1.2878604856893423
-0.597705903276946
0.04016896892181702
1.2878604856893423
-0.5982209021037841
0.039938693357059324
1.2864392155932514
-0.5982209021037841
0.039938693357059324
1.2864392155932514
-0.5982209021037841
0.039938693357059324
1.2864392155932514
-0.5982209021037841
0.039938693357059324
1.2864392155932514
-0.5996959384055351
0.04032508608330583
1.2856767653440107
-0.5996959384055351
0.04032508608330583
1.2856767653440107
-0.5996959384055351
0.04032508608330583
1.2856767653440107
-0.5996959384055351
0.04032508608330583
1.2856767653440107
-0.597989164368357
0.04024731515749071
1.2864508732676991
-0.597989164368357
0.04024731515749071
1.2864508732676991
-0.597989164368357
0.04024731515749071
1.2864508732676991
-0.597989164368357
0.04024731515749071
1.2864508732676991
-0.5962586239079126
0.03947240551357342
1.287618221211424
-0.5962586239079126
0.03947240551357342
1.287618221211424
-0.5962586239079126
0.03947240551357342
1.287618221211424
-0.5962586239079126
0.03947240551357342
1.287618221211424
-0.5944647049286941
0.038166976250089725
1.288231807496008
-0.5944647049286941
0.038166976250089725
1.288231807496008
-0.5944647049286941
0.038166976250089725
1.288231807496008
-0.5944647049286941
0.038166976250089725
1.288231807496008
-0.5947974522039459
0.036975319750863114
1.2877484358883162
-0.5947974522039459
0.036975319750863114
1.2877484358883162
-0.5947974522039459
0.036975319750863114
1.2877484358883162
-0.5947974522039459
0.036975319750863114
1.2877484358883162
-0.5957347817664943
0.03681845523841923
1.2864761542051992
-0.5957347817664943
0.03681845523841923
1.2864761542051992
-0.5957347817664943
0.03681845523841923
1.2864761542051992
-0.5957347817664943
0.03681845523841923
1.2864761542051992
-0.5965260203600162
0.036354697446416284
1.2861957673148705
-0.5965260203600162
0.036354697446416284
1.2861957673148705
-0.5965260203600162
0.036354697446416284
1.2861957673148705
-0.5965260203600162
0.036354697446416284
1.2861957673148705
-0.5942395659613164
0.0352006345425453
1.287969910219125
-0.5942395659613164
0.0352006345425453
1.287969910219125
-0.5942395659613164
0.0352006345425453
1.287969910219125
-0.5942395659613164
0.0352006345425453
1.287969910219125
-0.5927520457775093
0.033821418849927856
1.289668068233426
-0.5927520457775093
0.033821418849927856
1.289668068233426
-0.5927520457775093
0.033821418849927856
1.289668068233426
-0.5927520457775093
0.033821418849927856
1.289668068233426
-0.5927641369145897
0.033109843982402444
1.289425829771569
-0.5927641369145897
0.033109843982402444
1.289425829771569
-0.5927641369145897
0.033109843982402444
1.289425829771569
-0.5927641369145897
0.033109843982402444
1.289425829771569
-0.5969165555835243
0.032864765376466994
1.2877988137771146
-0.5969165555835243
0.032864765376466994
1.2877988137771146
-0.5969165555835243
0.032864765376466994
1.2877988137771146
-0.5969165555835243
0.032864765376466994
1.2877988137771146
-0.5965265966255736
0.03296743646858544
1.2870584566106236
-0.5965265966255736
0.03296743646858544
1.2870584566106236
-0.5965265966255736
0.03296743646858544
1.2870584566106236
-0.5965265966255736
0.03296743646858544
1.2870584566106236
-0.5933850129661821
0.03248241228247789
1.287947707898168
-0.5933850129661821
0.03248241228247789
1.287947707898168
-0.5933850129661821
0.03248241228247789
1.287947707898168
-0.5933850129661821
0.03248241228247789
1.287947707898168
-0.591597447016843
0.03215278587527002
1.2881535798309884
-0.591597447016843
0.03215278587527002
1.2881535798309884
-0.591597447016843
0.03215278587527002
1.2881535798309884
-0.591597447016843
0.03215278587527002
1.2881535798309884
-0.5936365148372322
0.032286882848454955
1.287722481343358
-0.5936365148372322
0.032286882848454955
1.287722481343358
-0.5936365148372322
0.032286882848454955
1.287722481343358
-0.5936365148372322
0.032286882848454955
1.287722481343358
-0.5956211337787586
0.03257597311808845
1.28688642312515
-0.5956211337787586
0.03257597311808845
1.28688642312515
-0.5956211337787586
0.03257597311808845
1.28688642312515
-0.5956211337787586
0.03257597311808845
1.28688642312515
-0.5947283420932336
0.033071052877646834
1.2865963498796593
-0.5947283420932336
0.033071052877646834
1.2865963498796593
-0.5947283420932336
0.033071052877646834
1.2865963498796593
-0.5947283420932336
0.033071052877646834
1.2865963498796593
-0.5920745013955602
0.03305879405506906
1.2868484396548847
-0.5920745013955602
0.03305879405506906
1.2868484396548847
-0.5920745013955602
0.03305879405506906
1.2868484396548847
-0.5920745013955602
0.03305879405506906
1.2868484396548847
-0.5901414307469204
0.032474226518279824
1.287057907824868
-0.5901414307469204
0.032474226518279824
1.287057907824868
-0.5901414307469204
0.032474226518279824
1.287057907824868
-0.5901414307469204
0.032474226518279824
1.287057907824868
-0.590768540401946
0.03203548515209511
1.2867734807025444
-0.590768540401946
0.03203548515209511
1.2867734807025444
-0.590768540401946
0.03203548515209511
1.2867734807025444
-0.590768540401946
0.03203548515209511
1.2867734807025444
-0.5931406084091646
0.03135801368006467
1.2859461504029968
-0.5931406084091646
0.03135801368006467
1.2859461504029968
-0.5931406084091646
0.03135801368006467
1.2859461504029968
-0.5931406084091646
0.03135801368006467
1.2859461504029968
-0.5941137519293057
0.030982868981114298
1.285458252647393
-0.5941137519293057
0.030982868981114298
1.285458252647393
-0.5941137519293057
0.030982868981114298
1.285458252647393
-0.5941137519293057
0.030982868981114298
1.285458252647393
-0.5925003875800336
0.03112473075735866
1.2857725192661458
-0.5925003875800336
0.03112473075735866
1.2857725192661458
-0.5925003875800336
0.03112473075735866
1.2857725192661458
-0.5925003875800336
0.03112473075735866
1.2857725192661458
-0.5915195165247551
0.030865405146908324
1.2862753609734905
-0.5915195165247551
0.030865405146908324
1.2862753609734905
-0.5915195165247551
0.030865405146908324
1.2862753609734905
-0.5915195165247551
0.030865405146908324
1.2862753609734905
-0.5917813339767213
0.030960985245743887
1.2864205855630142
-0.5917813339767213
0.030960985245743887
1.2864205855630142
-0.5917813339767213
0.030960985245743887
1.2864205855630142
-0.5917813339767213
0.030960985245743887
1.2864205855630142
-0.5929151711688013
0.031183640475630603
1.2864627144513463
-0.5929151711688013
0.031183640475630603
1.2864627144513463
-0.5929151711688013
0.031183640475630603
1.2864627144513463
-0.5929151711688013
0.031183640475630603
1.2864627144513463
-0.5930756270769424
0.0315020605596626
1.2860820620910345
-0.5930756270769424
0.0315020605596626
1.2860820620910345
-0.5930756270769424
0.0315020605596626
1.2860820620910345
-0.5930756270769424
0.0315020605596626
1.2860820620910345
-0.593172566577612
0.03215520357826197
1.2858807462996644
-0.593172566577612
0.03215520357826197
1.2858807462996644
-0.593172566577612
0.03215520357826197
1.2858807462996644
-0.593172566577612
0.03215520357826197
1.2858807462996644
-0.5922052694690552
0.032973197388081806
1.2863110907941717
-0.5922052694690552
0.032973197388081806
1.2863110907941717
-0.5922052694690552
0.032973197388081806
1.2863110907941717
-0.5922052694690552
0.032973197388081806
1.2863110907941717
-0.5910318470508998
0.03324850325256339
1.2863995039335723
-0.5910318470508998
0.03324850325256339
1.2863995039335723
-0.5910318470508998
0.03324850325256339
1.2863995039335723
-0.5910318470508998
0.03324850325256339
1.2863995039335723
-0.5910318470508998
0.03324850325256339
1.2863995039335723
-0.5910318470508998
0.03324850325256339
1.2863995039335723
-0.5910318470508998
0.03324850325256339
1.2863995039335723
-0.5910318470508998
0.03324850325256339
1.2863995039335723
-0.5932664624257598
0.033429933198067766
1.2862047045402452
-0.5932664624257598
0.033429933198067766
1.2862047045402452
-0.5932664624257598
0.033429933198067766
1.2862047045402452
-0.5932664624257598
0.033429933198067766
1.2862047045402452
-0.5925109831545525
0.03334510502723709
1.2861920322114702
-0.5925109831545525
0.03334510502723709
1.2861920322114702
-0.5925109831545525
0.03334510502723709
1.2861920322114702
-0.5925109831545525
0.03334510502723709
1.2861920322114702
-0.5922339458545518
0.033186758473372185
1.2864242200987897
-0.5922339458545518
0.033186758473372185
1.2864242200987897
-0.5922339458545518
0.033186758473372185
1.2864242200987897
-0.5922339458545518
0.033186758473372185
1.2864242200987897
-0.591171034098144
0.033060946025451926
1.286454101913466
-0.591171034098144
0.033060946025451926
1.286454101913466
-0.591171034098144
0.033060946025451926
1.286454101913466
-0.591171034098144
0.033060946025451926
1.286454101913466
-0.5897359821979162
0.03251624053297041
1.2866948340880016
-0.5897359821979162
0.03251624053297041
1.2866948340880016
-0.5897359821979162
0.03251624053297041
1.2866948340880016
-0.5897359821979162
0.03251624053297041
1.2866948340880016
-0.588714479126135
0.03135850256694742
1.286934642741969
-0.588714479126135
0.03135850256694742
1.286934642741969
-0.588714479126135
0.03135850256694742
1.286934642741969
-0.588714479126135
0.03135850256694742
1.286934642741969
-0.5870874809159241
0.029302525797116674
1.2878367509023736
-0.5870874809159241
0.029302525797116674
1.2878367509023736
-0.5870874809159241
0.029302525797116674
1.2878367509023736
-0.5870874809159241
0.029302525797116674
1.2878367509023736
-0.5870691365650611
0.026558226796090587
1.2893043579565968
-0.5870691365650611
0.026558226796090587
1.2893043579565968
-0.5870691365650611
0.026558226796090587
1.2893043579565968
-0.5870691365650611
0.026558226796090587
1.2893043579565968
-0.5912815756547737
0.02388684192456489
1.2914413547425017
-0.5912815756547737
0.02388684192456489
1.2914413547425017
-0.5912815756547737
0.02388684192456489
1.2914413547425017
-0.5912815756547737
0.02388684192456489
1.2914413547425017
-0.5941279965659003
0.022203982014065718
1.291975860896034
-0.5941279965659003
0.022203982014065718
1.291975860896034
-0.5941279965659003
0.022203982014065718
1.291975860896034
-0.5941279965659003
0.022203982014065718
1.291975860896034
-0.593979296131385
0.02206143261581929
1.2908463651502122
-0.593979296131385
0.02206143261581929
1.2908463651502122
-0.593979296131385
0.02206143261581929
1.2908463651502122
-0.593979296131385
0.02206143261581929
1.2908463651502122
-0.5927917570463139
0.02192870449064314
1.2886781965584455
-0.5927917570463139
0.02192870449064314
1.2886781965584455
-0.5927917570463139
0.02192870449064314
1.2886781965584455
-0.5927917570463139
0.02192870449064314
1.2886781965584455
-0.5912873964966621
0.02155376599576358
1.2870476058902667
-0.5912873964966621
0.02155376599576358
1.2870476058902667
-0.5912873964966621
0.02155376599576358
1.2870476058902667
-0.5912873964966621
0.02155376599576358
1.2870476058902667
-0.5903515412838269
0.020924353145460154
1.2857434423015999
-0.5903515412838269
0.020924353145460154
1.2857434423015999
-0.5903515412838269
0.020924353145460154
1.2857434423015999
-0.5903515412838269
0.020924353145460154
1.2857434423015999
-0.5904472105212953
0.01981394612094971
1.2845235460886664
-0.5904472105212953
0.01981394612094971
1.2845235460886664
-0.5904472105212953
0.01981394612094971
1.2845235460886664
-0.5904472105212953
0.01981394612094971
1.2845235460886664
-0.5914616674346759
0.018561226284327412
1.2835929906226582
-0.5914616674346759
0.018561226284327412
1.2835929906226582
-0.5914616674346759
0.018561226284327412
1.2835929906226582
-0.5914616674346759
0.018561226284327412
1.2835929906226582
-0.5929693238111863
0.017916064132842274
1.283060616162522
-0.5929693238111863
0.017916064132842274
1.283060616162522
-0.5929693238111863
0.017916064132842274
1.283060616162522
-0.5929693238111863
0.017916064132842274
1.283060616162522
-0.5932061358884528
0.017657102024134466
1.2832141122968608
-0.5932061358884528
0.017657102024134466
1.2832141122968608
-0.5932061358884528
0.017657102024134466
1.2832141122968608
-0.5932061358884528
0.017657102024134466
1.2832141122968608
-0.5922442061827468
0.016928787903322983
1.2836750745102168
-0.5922442061827468
0.016928787903322983
1.2836750745102168
-0.5922442061827468
0.016928787903322983
1.2836750745102168
-0.5922442061827468
0.016928787903322983
1.2836750745102168
-0.5909795184237301
0.016018859928530478
1.2842951580482374
-0.5909795184237301
0.016018859928530478
1.2842951580482374
-0.5909795184237301
0.016018859928530478
1.2842951580482374
-0.5909795184237301
0.016018859928530478
1.2842951580482374
-0.5890698098732913
0.015409201504116182
1.2843941618338148
-0.5890698098732913
0.015409201504116182
1.2843941618338148
-0.5890698098732913
0.015409201504116182
1.2843941618338148
-0.5890698098732913
0.015409201504116182
1.2843941618338148
-0.5883123148448852
0.01474145283811326
1.284551527492196
-0.5883123148448852
0.01474145283811326
1.284551527492196
-0.5883123148448852
0.01474145283811326
1.284551527492196
-0.5883123148448852
0.01474145283811326
1.284551527492196
-0.5891295575326779
0.014097679829130481
1.2846129689491583
-0.5891295575326779
0.014097679829130481
1.2846129689491583
-0.5891295575326779
0.014097679829130481
1.2846129689491583
-0.5891295575326779
0.014097679829130481
1.2846129689491583
-0.5903195094630824
0.013541648348283484
1.2845435337763154
-0.5903195094630824
0.013541648348283484
1.2845435337763154
-0.5903195094630824
0.013541648348283484
1.2845435337763154
-0.5903195094630824
0.013541648348283484
1.2845435337763154
-0.591661152044125
0.012898208371710634
1.28485764461383
-0.591661152044125
0.012898208371710634
1.28485764461383
-0.591661152044125
0.012898208371710634
1.28485764461383
-0.591661152044125
0.012898208371710634
1.28485764461383
-0.5923053102327887
0.012798891924082881
1.2851134121023715
-0.5923053102327887
0.012798891924082881
1.2851134121023715
-0.5923053102327887
0.012798891924082881
1.2851134121023715
-0.5923053102327887
0.012798891924082881
1.2851134121023715
-0.591533788131759
0.013185366205538384
1.2851283974699574
-0.591533788131759
0.013185366205538384
1.2851283974699574
-0.591533788131759
0.013185366205538384
1.2851283974699574
-0.591533788131759
0.013185366205538384
1.2851283974699574
-0.5904312936761377
0.013761021139400725
1.2850119269133953
-0.5904312936761377
0.013761021139400725
1.2850119269133953
-0.5904312936761377
0.013761021139400725
1.2850119269133953
-0.5904312936761377
0.013761021139400725
1.2850119269133953
-0.5904312936761377
0.013761021139400725
1.2850119269133953
-0.5904312936761377
0.013761021139400725
1.2850119269133953
-0.5904312936761377
0.013761021139400725
1.2850119269133953
-0.5904312936761377
0.013761021139400725
1.2850119269133953
-0.5904690778741537
0.014215563797873003
1.2853326840214852
-0.5904690778741537
0.014215563797873003
1.2853326840214852
-0.5904690778741537
0.014215563797873003
1.2853326840214852
-0.5904690778741537
0.014215563797873003
1.2853326840214852
-0.5905566150667453
0.014664161266631611
1.2856295784839589
-0.5905566150667453
0.014664161266631611
1.2856295784839589
-0.5905566150667453
0.014664161266631611
1.2856295784839589
-0.5905566150667453
0.014664161266631611
1.2856295784839589
-0.5903109546942268
0.01524206827636907
1.2859403338418411
-0.5903109546942268
0.01524206827636907
1.2859403338418411
-0.5903109546942268
0.01524206827636907
1.2859403338418411
-0.5903109546942268
0.01524206827636907
1.2859403338418411
-0.590338840724626
0.015264070916070873
1.2860101475031613
-0.590338840724626
0.015264070916070873
1.2860101475031613
-0.590338840724626
0.015264070916070873
1.2860101475031613
-0.590338840724626
0.015264070916070873
1.2860101475031613
-0.5896530937810232
0.015478840627283184
1.2857971759917626
-0.5896530937810232
0.015478840627283184
1.2857971759917626
-0.5896530937810232
0.015478840627283184
1.2857971759917626
-0.5896530937810232
0.015478840627283184
1.2857971759917626
-0.5888459015530498
0.015601994215744708
1.285536513956342
-0.5888459015530498
0.015601994215744708
1.285536513956342
-0.5888459015530498
0.015601994215744708
1.285536513956342
-0.5888459015530498
0.015601994215744708
1.285536513956342
-0.5892685876693806
0.015291293747007204
1.285601983363779
-0.5892685876693806
0.015291293747007204
1.285601983363779
-0.5892685876693806
0.015291293747007204
1.285601983363779
-0.5892685876693806
0.015291293747007204
1.285601983363779
-0.5897111563345635
0.01528552514289433
1.2854981050217809
-0.5897111563345635
0.01528552514289433
1.2854981050217809
-0.5897111563345635
0.01528552514289433
1.2854981050217809
-0.5897111563345635
0.01528552514289433
1.2854981050217809
-0.5897111563345635
0.01528552514289433
1.2854981050217809
-0.5897111563345635
0.01528552514289433
1.2854981050217809
-0.5897111563345635
0.01528552514289433
1.2854981050217809
-0.5897111563345635
0.01528552514289433
1.2854981050217809
-0.589711109157993
0.015678209750053546
1.2852768947070436
-0.589711109157993
0.015678209750053546
1.2852768947070436
-0.589711109157993
0.015678209750053546
1.2852768947070436
-0.589711109157993
0.015678209750053546
1.2852768947070436
-0.5900141466268584
0.015859662730499772
1.2851172075356554
-0.5900141466268584
0.015859662730499772
1.2851172075356554
-0.5900141466268584
0.015859662730499772
1.2851172075356554
-0.5900141466268584
0.015859662730499772
1.2851172075356554
-0.5900141466268584
0.015859662730499772
1.2851172075356554
-0.5900141466268584
0.015859662730499772
1.2851172075356554
-0.5900141466268584
0.015859662730499772
1.2851172075356554
-0.5900141466268584
0.015859662730499772
1.2851172075356554
-0.5893743975317287
0.01581764651288012
1.2849821184920494
-0.5893743975317287
0.01581764651288012
1.2849821184920494
-0.5893743975317287
0.01581764651288012
1.2849821184920494
-0.5893743975317287
0.01581764651288012
1.2849821184920494
-0.5892807047999737
0.015747882077979645
1.2850041006059933
-0.5892807047999737
0.015747882077979645
1.2850041006059933
-0.5892807047999737
0.015747882077979645
1.2850041006059933
-0.5892807047999737
0.015747882077979645
1.2850041006059933
-0.5895081740645143
0.015973188595025306
1.284653147134183
-0.5895081740645143
0.015973188595025306
1.284653147134183
-0.5895081740645143
0.015973188595025306
1.284653147134183
-0.5895081740645143
0.015973188595025306
1.284653147134183
-0.5892116935081818
0.016198575290882512
1.2840514543023436
-0.5892116935081818
0.016198575290882512
1.2840514543023436
-0.5892116935081818
0.016198575290882512
1.2840514543023436
-0.5892116935081818
0.016198575290882512
1.2840514543023436
-0.588705854938333
0.016312557547422318
1.2835875201438607
-0.588705854938333
0.016312557547422318
1.2835875201438607
-0.588705854938333
0.016312557547422318
1.2835875201438607
-0.588705854938333
0.016312557547422318
1.2835875201438607
-0.5886186318333034
0.016257046874100883
1.2830693375950533
-0.5886186318333034
0.016257046874100883
1.2830693375950533
-0.5886186318333034
0.016257046874100883
1.2830693375950533
-0.5886186318333034
0.016257046874100883
1.2830693375950533
-0.5888164287169603
0.016269050239718513
1.2826047536357323
-0.5888164287169603
0.016269050239718513
1.2826047536357323
-0.5888164287169603
0.016269050239718513
1.2826047536357323
-0.5888164287169603
0.016269050239718513
1.2826047536357323
-0.5889423739257643
0.016183509419872334
1.28206833275409
-0.5889423739257643
0.016183509419872334
1.28206833275409
-0.5889423739257643
0.016183509419872334
1.28206833275409
-0.5889423739257643
0.016183509419872334
1.28206833275409
-0.5893255291196999
0.01614328537384862
1.2815158510266222
-0.5893255291196999
0.01614328537384862
1.2815158510266222
-0.5893255291196999
0.01614328537384862
1.2815158510266222
-0.5893255291196999
0.01614328537384862
1.2815158510266222
-0.5894193455266157
0.016212878694580383
1.2814938977523296
-0.5894193455266157
0.016212878694580383
1.2814938977523296
-0.5894193455266157
0.016212878694580383
1.2814938977523296
-0.5894193455266157
0.016212878694580383
1.2814938977523296
-0.5894193455266157
0.016212878694580383
1.2814938977523296
-0.5894193455266157
0.016212878694580383
1.2814938977523296
-0.5894193455266157
0.016212878694580383
1.2814938977523296
-0.5894193455266157
0.016212878694580383
1.2814938977523296
-0.5899022304153442
0.016291819513590194
1.2810828689927911
-0.5899022304153442
0.016291819513590194
1.2810828689927911
-0.5899022304153442
0.016291819513590194
1.2810828689927911
-0.5899022304153442
0.016291819513590194
1.2810828689927911
-0.5905311654195398
0.01662544494913313
1.2806694603639541
-0.5905311654195398
0.01662544494913313
1.2806694603639541
-0.5905311654195398
0.01662544494913313
1.2806694603639541
-0.5905311654195398
0.01662544494913313
1.2806694603639541
-0.5906897404008283
0.016943857611116973
1.2802903978249862
-0.5906897404008283
0.016943857611116973
1.2802903978249862
-0.5906897404008283
0.016943857611116973
1.2802903978249862
-0.5906897404008283
0.016943857611116973
1.2802903978249862
-0.5912494826067837
0.017370936935444406
1.2798486994454699
-0.5912494826067837
0.017370936935444406
1.2798486994454699
-0.5912494826067837
0.017370936935444406
1.2798486994454699
-0.5912494826067837
0.017370936935444406
1.2798486994454699
-0.5913109525673127
0.017760959845238147
1.2793720637159218
-0.5913109525673127
0.017760959845238147
1.2793720637159218
-0.5913109525673127
0.017760959845238147
1.2793720637159218
-0.5913109525673127
0.017760959845238147
1.2793720637159218
-0.5913804124365992
0.0176670951144102
1.2793999847736055
-0.5913804124365992
0.0176670951144102
1.2793999847736055
-0.5913804124365992
0.0176670951144102
1.2793999847736055
-0.5913804124365992
0.0176670951144102
1.2793999847736055
-0.5917527316748126
0.017954939558208767
1.279002097241261
-0.5917527316748126
0.017954939558208767
1.279002097241261
-0.5917527316748126
0.017954939558208767
1.279002097241261
-0.5917527316748126
0.017954939558208767
1.279002097241261
-0.592044227683944
0.018796991363944898
1.2789210449937818
-0.592044227683944
0.018796991363944898
1.2789210449937818
-0.592044227683944
0.018796991363944898
1.2789210449937818
-0.592044227683944
0.018796991363944898
1.2789210449937818
-0.5918809063196975
0.018821471384671058
1.2789152583325167
-0.5918809063196975
0.018821471384671058
1.2789152583325167
-0.5918809063196975
0.018821471384671058
1.2789152583325167
-0.5918809063196975
0.018821471384671058
1.2789152583325167
-0.5934157786326039
0.019480473359706475
1.2788251693176704
-0.5934157786326039
0.019480473359706475
1.2788251693176704
-0.5934157786326039
0.019480473359706475
1.2788251693176704
-0.5934157786326039
0.019480473359706475
1.2788251693176704
-0.5932420715829219
0.02055916683589349
1.2786759795828755
-0.5932420715829219
0.02055916683589349
1.2786759795828755
-0.5932420715829219
0.02055916683589349
1.2786759795828755
-0.5932420715829219
0.02055916683589349
1.2786759795828755
-0.5936052485078381
0.021699565277765936
1.2783995753552921
-0.5936052485078381
0.021699565277765936
1.2783995753552921
-0.5936052485078381
0.021699565277765936
1.2783995753552921
-0.5936052485078381
0.021699565277765936
1.2783995753552921
-0.590965674700245
0.022295082773582057
1.277918683152683
-0.590965674700245
0.022295082773582057
1.277918683152683
-0.590543182381233
0.023876760227042545
1.2769068732519697
-0.590543182381233
0.023876760227042545
1.2769068732519697
-0.590543182381233
0.023876760227042545
1.2769068732519697
-0.590543182381233
0.023876760227042545
1.2769068732519697
-0.590543182381233
0.023876760227042545
1.2769068732519697
-0.590543182381233
0.023876760227042545
1.2769068732519697
-0.5965345031170665
0.02511540923682883
1.2757300484106933
-0.5965345031170665
0.02511540923682883
1.2757300484106933
-0.6017667449678518
0.028475633363695046
1.2745611804781154
-0.6017667449678518
0.028475633363695046
1.2745611804781154
-0.6017667449678518
0.028475633363695046
1.2745611804781154
-0.6017667449678518
0.028475633363695046
1.2745611804781154
-0.6021790108558922
0.029980806451269132
1.2748794167413064
-0.6021790108558922
0.029980806451269132
1.2748794167413064
-0.6021790108558922
0.029980806451269132
1.2748794167413064
-0.6021790108558922
0.029980806451269132
1.2748794167413064
-0.5978578079097053
0.031054739257157633
1.2754387273134613
-0.5978578079097053
0.031054739257157633
1.2754387273134613
-0.5978578079097053
0.031054739257157633
1.2754387273134613
-0.5978578079097053
0.031054739257157633
1.2754387273134613
-0.600905949988119
0.033167196372774675
1.2754214551055814
-0.600905949988119
0.033167196372774675
1.2754214551055814
-0.600905949988119
0.033167196372774675
1.2754214551055814
-0.600905949988119
0.033167196372774675
1.2754214551055814
-0.6040299233423367
0.03486968750980806
1.2735035979759661
-0.6040299233423367
0.03486968750980806
1.2735035979759661
-0.6040299233423367
0.03486968750980806
1.2735035979759661
-0.6040299233423367
0.03486968750980806
1.2735035979759661
-0.60656120703237
0.03737520215229176
1.2715440203914121
-0.60656120703237
0.03737520215229176
1.2715440203914121
-0.60656120703237
0.03737520215229176
1.2715440203914121
-0.60656120703237
0.03737520215229176
1.2715440203914121
-0.6028879105715568
0.03961705283910358
1.270259311072476
-0.6028879105715568
0.03961705283910358
1.270259311072476
-0.6028879105715568
0.03961705283910358
1.270259311072476
-0.6028879105715568
0.03961705283910358
1.270259311072476
-0.6002997946447697
0.04029670967618725
1.2709503400475033
-0.6002997946447697
0.04029670967618725
1.2709503400475033
-0.6002997946447697
0.04029670967618725
1.2709503400475033
-0.6002997946447697
0.04029670967618725
1.2709503400475033
-0.6018552599181461
0.040678784956012876
1.2705407774217525
-0.6018552599181461
0.040678784956012876
1.2705407774217525
-0.6018552599181461
0.040678784956012876
1.2705407774217525
-0.6018552599181461
0.040678784956012876
1.2705407774217525
-0.6035001501374841
0.04060309015994388
1.26899225377724
-0.6035001501374841
0.04060309015994388
1.26899225377724
-0.6035001501374841
0.04060309015994388
1.26899225377724
-0.6035001501374841
0.04060309015994388
1.26899225377724
-0.6038154536168391
0.04012455306923106
1.267292650996345
-0.6038154536168391
0.04012455306923106
1.267292650996345
-0.6038154536168391
0.04012455306923106
1.267292650996345
-0.6038154536168391
0.04012455306923106
1.267292650996345
-0.6011421587323572
0.03945431972428454
1.2674089456472815
-0.6011421587323572
0.03945431972428454
1.2674089456472815
-0.6011421587323572
0.03945431972428454
1.2674089456472815
-0.6011421587323572
0.03945431972428454
1.2674089456472815
-0.598780431722152
0.03866155985327553
1.2693686313657966
-0.598780431722152
0.03866155985327553
1.2693686313657966
-0.598780431722152
0.03866155985327553
1.2693686313657966
-0.598780431722152
0.03866155985327553
1.2693686313657966
-0.5972408779085756
0.037798597895556355
1.2712012790001497
-0.5972408779085756
0.037798597895556355
1.2712012790001497
-0.5972408779085756
0.037798597895556355
1.2712012790001497
-0.5972408779085756
0.037798597895556355
1.2712012790001497
-0.5990599960694246
0.03703081604499987
1.271041810630787
-0.5990599960694246
0.03703081604499987
1.271041810630787
-0.5990599960694246
0.03703081604499987
1.271041810630787
-0.5990599960694246
0.03703081604499987
1.271041810630787
-0.6013013292736933
0.03696254984606967
1.2700956352865709
-0.6013013292736933
0.03696254984606967
1.2700956352865709
-0.6013013292736933
0.03696254984606967
1.2700956352865709
-0.6013013292736933
0.03696254984606967
1.2700956352865709
-0.601166504241029
0.03651968390778292
1.2709772273987954
-0.601166504241029
0.03651968390778292
1.2709772273987954
-0.601166504241029
0.03651968390778292
1.2709772273987954
-0.601166504241029
0.03651968390778292
1.2709772273987954
-0.598689629322817
0.03549102039893962
1.2730071206490257
-0.598689629322817
0.03549102039893962
1.2730071206490257
-0.598689629322817
0.03549102039893962
1.2730071206490257
-0.598689629322817
0.03549102039893962
1.2730071206490257
-0.5968438339860656
0.03445670731442317
1.2735409903576713
-0.5968438339860656
0.03445670731442317
1.2735409903576713
-0.5968438339860656
0.03445670731442317
1.2735409903576713
-0.5968438339860656
0.03445670731442317
1.2735409903576713
-0.5973710910426634
0.03380318190812285
1.2722503370944218
-0.5973710910426634
0.03380318190812285
1.2722503370944218
-0.5973710910426634
0.03380318190812285
1.2722503370944218
-0.5973710910426634
0.03380318190812285
1.2722503370944218
-0.59996017531835
0.03399964874465276
1.2708363885723926
-0.59996017531835
0.03399964874465276
1.2708363885723926
-0.59996017531835
0.03399964874465276
1.2708363885723926
-0.59996017531835
0.03399964874465276
1.2708363885723926
-0.598113073411221
0.034072369034621894
1.2713865134466806
-0.598113073411221
0.034072369034621894
1.2713865134466806
-0.598113073411221
0.034072369034621894
1.2713865134466806
-0.598113073411221
0.034072369034621894
1.2713865134466806
-0.5962067014615582
0.03331322437319217
1.2733939600648871
-0.5962067014615582
0.03331322437319217
1.2733939600648871
-0.5962067014615582
0.03331322437319217
1.2733939600648871
-0.5962067014615582
0.03331322437319217
1.2733939600648871
-0.5961554303367693
0.032734706244134174
1.274747544092342
-0.5961554303367693
0.032734706244134174
1.274747544092342
-0.5961554303367693
0.032734706244134174
1.274747544092342
-0.5961554303367693
0.032734706244134174
1.274747544092342
-0.5971525972545308
0.032174560047469866
1.2745953113085984
-0.5971525972545308
0.032174560047469866
1.2745953113085984
-0.5971525972545308
0.032174560047469866
1.2745953113085984
-0.5971525972545308
0.032174560047469866
1.2745953113085984
-0.5971787769334608
0.031916629338869226
1.273754502665643
-0.5971787769334608
0.031916629338869226
1.273754502665643
-0.5971787769334608
0.031916629338869226
1.273754502665643
-0.5971787769334608
0.031916629338869226
1.273754502665643
-0.5958132646765238
0.03235329673042497
1.2733384461194057
-0.5958132646765238
0.03235329673042497
1.2733384461194057
-0.5958132646765238
0.03235329673042497
1.2733384461194057
-0.5958132646765238
0.03235329673042497
1.2733384461194057
-0.5944230103591426
0.03228506773782317
1.2733592758540295
-0.5944230103591426
0.03228506773782317
1.2733592758540295
-0.5944230103591426
0.03228506773782317
1.2733592758540295
-0.5944230103591426
0.03228506773782317
1.2733592758540295
-0.5929099397299313
0.03221333684164164
1.2742001577999507
-0.5929099397299313
0.03221333684164164
1.2742001577999507
-0.5929099397299313
0.03221333684164164
1.2742001577999507
-0.5929099397299313
0.03221333684164164
1.2742001577999507
-0.5934475592597878
0.032273320632952324
1.2740701061865636
-0.5934475592597878
0.032273320632952324
1.2740701061865636
-0.5934475592597878
0.032273320632952324
1.2740701061865636
-0.5934475592597878
0.032273320632952324
1.2740701061865636
-0.5943055595980122
0.032586152425152004
1.2730904291522742
-0.5943055595980122
0.032586152425152004
1.2730904291522742
-0.5943055595980122
0.032586152425152004
1.2730904291522742
-0.5943055595980122
0.032586152425152004
1.2730904291522742
-0.5953270774197925
0.032872787330191965
1.2721152626393195
-0.5953270774197925
0.032872787330191965
1.2721152626393195
-0.5953270774197925
0.032872787330191965
1.2721152626393195
-0.5953270774197925
0.032872787330191965
1.2721152626393195
-0.5950576852527512
0.033210956756425734
1.2713015593099075
-0.5950576852527512
0.033210956756425734
1.2713015593099075
-0.5950576852527512
0.033210956756425734
1.2713015593099075
-0.5950576852527512
0.033210956756425734
1.2713015593099075
-0.5944358722975193
0.03385718946438023
1.2713195836830193
-0.5944358722975193
0.03385718946438023
1.2713195836830193
-0.5944358722975193
0.03385718946438023
1.2713195836830193
-0.5944358722975193
0.03385718946438023
1.2713195836830193
-0.5938211580915908
0.034401869452517
1.271930947916518
-0.5938211580915908
0.034401869452517
1.271930947916518
-0.5938211580915908
0.034401869452517
1.271930947916518
-0.5938211580915908
0.034401869452517
1.271930947916518
-0.5930671751190207
0.034182099687941524
1.2720382344016434
-0.5930671751190207
0.034182099687941524
1.2720382344016434
-0.5930671751190207
0.034182099687941524
1.2720382344016434
-0.5930671751190207
0.034182099687941524
1.2720382344016434
-0.5923773947978936
0.03416054005762589
1.2716240585822052
-0.5923773947978936
0.03416054005762589
1.2716240585822052
-0.5923773947978936
0.03416054005762589
1.2716240585822052
-0.5923773947978936
0.03416054005762589
1.2716240585822052
-0.5918411878836779
0.03367049393883835
1.2712736292054472
-0.5918411878836779
0.03367049393883835
1.2712736292054472
-0.5918411878836779
0.03367049393883835
1.2712736292054472
-0.5918411878836779
0.03367049393883835
1.2712736292054472
-0.5914748937097477
0.03306487779141086
1.2712100384852862
-0.5914748937097477
0.03306487779141086
1.2712100384852862
-0.5914748937097477
0.03306487779141086
1.2712100384852862
-0.5914748937097477
0.03306487779141086
1.2712100384852862
-0.5909275407664587
0.03256231355336645
1.271398964095577
-0.5909275407664587
0.03256231355336645
1.271398964095577
-0.5909275407664587
0.03256231355336645
1.271398964095577
-0.5909275407664587
0.03256231355336645
1.271398964095577
-0.5913833844007854
0.03175092846076338
1.2713311281081179
-0.5913833844007854
0.03175092846076338
1.2713311281081179
-0.5913833844007854
0.03175092846076338
1.2713311281081179
-0.5913833844007854
0.03175092846076338
1.2713311281081179
-0.5919572324357679
0.030969174490209313
1.2714572768209165
-0.5919572324357679
0.030969174490209313
1.2714572768209165
-0.5919572324357679
0.030969174490209313
1.2714572768209165
-0.5919572324357679
0.030969174490209313
1.2714572768209165
-0.5917438497046693
0.030325420405306464
1.2719380887241942
-0.5917438497046693
0.030325420405306464
1.2719380887241942
-0.5917438497046693
0.030325420405306464
1.2719380887241942
-0.5917438497046693
0.030325420405306464
1.2719380887241942
-0.5904391183126679
0.029209475033928515
1.272453520033452
-0.5904391183126679
0.029209475033928515
1.272453520033452
-0.5904391183126679
0.029209475033928515
1.272453520033452
-0.5904391183126679
0.029209475033928515
1.272453520033452
-0.5891456646524689
0.02743149620090242
1.2728872024046674
-0.5891456646524689
0.02743149620090242
1.2728872024046674
-0.5891456646524689
0.02743149620090242
1.2728872024046674
-0.5891456646524689
0.02743149620090242
1.2728872024046674
-0.5881036356872673
0.024578537773088344
1.2738189591655935
-0.5881036356872673
0.024578537773088344
1.2738189591655935
-0.5881036356872673
0.024578537773088344
1.2738189591655935
-0.5881036356872673
0.024578537773088344
1.2738189591655935
-0.5877537383694771
0.02208992075199543
1.2747814048251405
-0.5877537383694771
0.02208992075199543
1.2747814048251405
-0.5877537383694771
0.02208992075199543
1.2747814048251405
-0.5877537383694771
0.02208992075199543
1.2747814048251405
-0.5877324725343005
0.01975345533922759
1.2754888119052996
-0.5877324725343005
0.01975345533922759
1.2754888119052996
-0.5877324725343005
0.01975345533922759
1.2754888119052996
-0.5877324725343005
0.01975345533922759
1.2754888119052996
-0.5899403422846419
0.017371726411302246
1.2768248456072462
-0.5899403422846419
0.017371726411302246
1.2768248456072462
-0.5899403422846419
0.017371726411302246
1.2768248456072462
-0.5899403422846419
0.017371726411302246
1.2768248456072462
-0.5921895517928536
0.015611935512681802
1.2775174247204504
-0.5921895517928536
0.015611935512681802
1.2775174247204504
-0.5921895517928536
0.015611935512681802
1.2775174247204504
-0.5921895517928536
0.015611935512681802
1.2775174247204504
-0.5929855333353039
0.014090187248886492
1.2773877323963316
-0.5929855333353039
0.014090187248886492
1.2773877323963316
-0.5929855333353039
0.014090187248886492
1.2773877323963316
-0.5929855333353039
0.014090187248886492
1.2773877323963316
-0.5915115362785561
0.01249003464868061
1.276229102667821
-0.5915115362785561
0.01249003464868061
1.276229102667821
-0.5915115362785561
0.01249003464868061
1.276229102667821
-0.5915115362785561
0.01249003464868061
1.276229102667821
-0.5885225983836332
0.010932843356032656
1.2747603735441522
-0.5885225983836332
0.010932843356032656
1.2747603735441522
-0.5885225983836332
0.010932843356032656
1.2747603735441522
-0.5885225983836332
0.010932843356032656
1.2747603735441522
-0.5846879862498264
0.009849686875288147
1.2738138668479133
-0.5846879862498264
0.009849686875288147
1.2738138668479133
-0.5846879862498264
0.009849686875288147
1.2738138668479133
-0.5846879862498264
0.009849686875288147
1.2738138668479133
-0.5827588314351089
0.008391422722870991
1.273168746531411
-0.5827588314351089
0.008391422722870991
1.273168746531411
-0.5827588314351089
0.008391422722870991
1.273168746531411
-0.5827588314351089
0.008391422722870991
1.273168746531411
-0.5831994071118554
0.007088069422624791
1.272996614037794
-0.5831994071118554
0.007088069422624791
1.272996614037794
-0.5831994071118554
0.007088069422624791
1.272996614037794
-0.5831994071118554
0.007088069422624791
1.272996614037794
-0.585137128880345
0.006020113775346493
1.273128699733576
-0.585137128880345
0.006020113775346493
1.273128699733576
-0.585137128880345
0.006020113775346493
1.273128699733576
-0.585137128880345
0.006020113775346493
1.273128699733576
-0.5868008613647435
0.005520064795016325
1.2731945720708768
-0.5868008613647435
0.005520064795016325
1.2731945720708768
-0.5868008613647435
0.005520064795016325
1.2731945720708768
-0.5868008613647435
0.005520064795016325
1.2731945720708768
-0.5864176639933818
0.005526873150717994
1.273041904203611
-0.5864176639933818
0.005526873150717994
1.273041904203611
-0.5864176639933818
0.005526873150717994
1.273041904203611
-0.5864176639933818
0.005526873150717994
1.273041904203611
-0.5851645528054057
0.005472442993955587
1.2728344866295531
-0.5851645528054057
0.005472442993955587
1.2728344866295531
-0.5851645528054057
0.005472442993955587
1.2728344866295531
-0.5851645528054057
0.005472442993955587
1.2728344866295531
-0.5844850287386244
0.005348635848260863
1.2730028267759137
-0.5844850287386244
0.005348635848260863
1.2730028267759137
-0.5844850287386244
0.005348635848260863
1.2730028267759137
-0.5844850287386244
0.005348635848260863
1.2730028267759137
-0.5843275086953701
0.005029632523093151
1.2733799723555959
-0.5843275086953701
0.005029632523093151
1.2733799723555959
-0.5843275086953701
0.005029632523093151
1.2733799723555959
-0.5843275086953701
0.005029632523093151
1.2733799723555959
-0.5848249338814524
0.00467118104526708
1.2736382564396176
-0.5848249338814524
0.00467118104526708
1.2736382564396176
-0.5848249338814524
0.00467118104526708
1.2736382564396176
-0.5848249338814524
0.00467118104526708
1.2736382564396176
-0.5854859374844062
0.004288285031739874
1.27390374871074
-0.5854859374844062
0.004288285031739874
1.27390374871074
-0.5854859374844062
0.004288285031739874
1.27390374871074
-0.5854859374844062
0.004288285031739874
1.27390374871074
-0.585555389477349
0.004194284350152223
1.2739319219804228
-0.585555389477349
0.004194284350152223
1.2739319219804228
-0.585555389477349
0.004194284350152223
1.2739319219804228
-0.585555389477349
0.004194284350152223
1.2739319219804228
-0.5842852668531472
0.004751919823220696
1.273641909198027
-0.5842852668531472
0.004751919823220696
1.273641909198027
-0.5842852668531472
0.004751919823220696
1.273641909198027
-0.5842852668531472
0.004751919823220696
1.273641909198027
-0.5833255320488012
0.005539336983600733
1.2733586851440297
-0.5833255320488012
0.005539336983600733
1.2733586851440297
-0.5833255320488012
0.005539336983600733
1.2733586851440297
-0.5833255320488012
0.005539336983600733
1.2733586851440297
-0.5830065757503017
0.006364705376870575
1.2732144070984388
-0.5830065757503017
0.006364705376870575
1.2732144070984388
-0.5830065757503017
0.006364705376870575
1.2732144070984388
-0.5830065757503017
0.006364705376870575
1.2732144070984388
-0.5830065757503017
0.006364705376870575
1.2732144070984388
-0.5830065757503017
0.006364705376870575
1.2732144070984388
-0.5830065757503017
0.006364705376870575
1.2732144070984388
-0.5830065757503017
0.006364705376870575
1.2732144070984388
-0.5831006599294372
0.0064341184605427384
1.273193249531783
-0.5831006599294372
0.0064341184605427384
1.273193249531783
-0.5831006599294372
0.0064341184605427384
1.273193249531783
-0.5831006599294372
0.0064341184605427384
1.273193249531783
-0.5831006599294372
0.0064341184605427384
1.273193249531783
-0.5831006599294372
0.0064341184605427384
1.273193249531783
-0.5831006599294372
0.0064341184605427384
1.273193249531783
-0.5831006599294372
0.0064341184605427384
1.273193249531783
-0.5827245281420533
0.006490285902397615
1.2732042699925803
-0.5827245281420533
0.006490285902397615
1.2732042699925803
-0.5827245281420533
0.006490285902397615
1.2732042699925803
-0.5827245281420533
0.006490285902397615
1.2732042699925803
-0.5828644550137513
0.006695217205950274
1.2730398973667447
-0.5828644550137513
0.006695217205950274
1.2730398973667447
-0.5828644550137513
0.006695217205950274
1.2730398973667447
-0.5828644550137513
0.006695217205950274
1.2730398973667447
-0.583179446548886
0.007509129417458922
1.272870310610897
-0.583179446548886
0.007509129417458922
1.272870310610897
-0.583179446548886
0.007509129417458922
1.272870310610897
-0.583179446548886
0.007509129417458922
1.272870310610897
-0.5835391914717619
0.008065416400983566
1.2727776249033886
-0.5835391914717619
0.008065416400983566
1.2727776249033886
-0.5835391914717619
0.008065416400983566
1.2727776249033886
-0.5835391914717619
0.008065416400983566
1.2727776249033886
-0.5837174385039281
0.008532190832686972
1.2728907677855406
-0.5837174385039281
0.008532190832686972
1.2728907677855406
-0.5837174385039281
0.008532190832686972
1.2728907677855406
-0.5837174385039281
0.008532190832686972
1.2728907677855406
-0.5837174385039281
0.008532190832686972
1.2728907677855406
-0.5837174385039281
0.008532190832686972
1.2728907677855406
-0.5837174385039281
0.008532190832686972
1.2728907677855406
-0.5837174385039281
0.008532190832686972
1.2728907677855406
-0.5837174385039281
0.008532190832686972
1.2728907677855406
-0.5837174385039281
0.008532190832686972
1.2728907677855406
-0.5837174385039281
0.008532190832686972
1.2728907677855406
-0.5837174385039281
0.008532190832686972
1.2728907677855406
-0.5837174385039281
0.008532190832686972
1.2728907677855406
-0.5837174385039281
0.008532190832686972
1.2728907677855406
-0.5837174385039281
0.008532190832686972
1.2728907677855406
-0.5837174385039281
0.008532190832686972
1.2728907677855406
-0.5831216196191216
0.008236957923249256
1.2728303858691041
-0.5831216196191216
0.008236957923249256
1.2728303858691041
-0.5831216196191216
0.008236957923249256
1.2728303858691041
-0.5831216196191216
0.008236957923249256
1.2728303858691041
-0.5830275027443761
0.008167587298874188
1.2728516242079848
-0.5830275027443761
0.008167587298874188
1.2728516242079848
-0.5830275027443761
0.008167587298874188
1.2728516242079848
-0.5830275027443761
0.008167587298874188
1.2728516242079848
-0.58309687824857
0.008073474917698019
1.2728795589187805
-0.58309687824857
0.008073474917698019
1.2728795589187805
-0.58309687824857
0.008073474917698019
1.2728795589187805
-0.58309687824857
0.008073474917698019
1.2728795589187805
-0.583166254908979
0.007979366401454073
1.2729074995655876
-0.583166254908979
0.007979366401454073
1.2729074995655876
-0.583166254908979
0.007979366401454073
1.2729074995655876
-0.583166254908979
0.007979366401454073
1.2729074995655876
-0.583166254908979
0.007979366401454073
1.2729074995655876
-0.583166254908979
0.007979366401454073
1.2729074995655876
-0.583166254908979
0.007979366401454073
1.2729074995655876
-0.583166254908979
0.007979366401454073
1.2729074995655876
-0.5830455607707838
0.008281904980289629
1.272638967027022
-0.5830455607707838
0.008281904980289629
1.272638967027022
-0.5830455607707838
0.008281904980289629
1.272638967027022
-0.5830455607707838
0.008281904980289629
1.272638967027022
-0.583740281541032
0.00866220682513963
1.2721384538501188
-0.583740281541032
0.00866220682513963
1.2721384538501188
-0.583740281541032
0.00866220682513963
1.2721384538501188
-0.583740281541032
0.00866220682513963
1.2721384538501188
-0.5846230019433952
0.00884717591611113
1.2716688373074159
-0.5846230019433952
0.00884717591611113
1.2716688373074159
-0.5846230019433952
0.00884717591611113
1.2716688373074159
-0.5846230019433952
0.00884717591611113
1.2716688373074159
-0.5852269519767112
0.00901539085356879
1.2713078265905402
-0.5852269519767112
0.00901539085356879
1.2713078265905402
-0.5852269519767112
0.00901539085356879
1.2713078265905402
-0.5852269519767112
0.00901539085356879
1.2713078265905402
-0.5853210993021629
0.009084652078091733
1.2712864940115975
-0.5853210993021629
0.009084652078091733
1.2712864940115975
-0.5853210993021629
0.009084652078091733
1.2712864940115975
-0.5853210993021629
0.009084652078091733
1.2712864940115975
-0.5852269519767112
0.00901539085356879
1.2713078265905402
-0.5852269519767112
0.00901539085356879
1.2713078265905402
-0.5852269519767112
0.00901539085356879
1.2713078265905402
-0.5852269519767112
0.00901539085356879
1.2713078265905402
-0.5852269519767112
0.00901539085356879
1.2713078265905402
-0.5852269519767112
0.00901539085356879
1.2713078265905402
-0.5852269519767112
0.00901539085356879
1.2713078265905402
-0.5852269519767112
0.00901539085356879
1.2713078265905402
-0.5855204748972238
0.00895432724938741
1.2709414818391762
-0.5855204748972238
0.00895432724938741
1.2709414818391762
-0.5855204748972238
0.00895432724938741
1.2709414818391762
-0.5855204748972238
0.00895432724938741
1.2709414818391762
-0.5855204748972238
0.00895432724938741
1.2709414818391762
-0.5855204748972238
0.00895432724938741
1.2709414818391762
-0.5855204748972238
0.00895432724938741
1.2709414818391762
-0.5855204748972238
0.00895432724938741
1.2709414818391762
-0.5855204748972238
0.00895432724938741
1.2709414818391762
-0.5855204748972238
0.00895432724938741
1.2709414818391762
-0.5855204748972238
0.00895432724938741
1.2709414818391762
-0.5855204748972238
0.00895432724938741
1.2709414818391762
-0.5856146318473435
0.009023570245649593
1.2709201467199074
-0.5856146318473435
0.009023570245649593
1.2709201467199074
-0.5856146318473435
0.009023570245649593
1.2709201467199074
-0.5856146318473435
0.009023570245649593
1.2709201467199074
-0.5848982437026238
0.00903127944096627
1.2705914400313776
-0.5848982437026238
0.00903127944096627
1.2705914400313776
-0.5848982437026238
0.00903127944096627
1.2705914400313776
-0.5848982437026238
0.00903127944096627
1.2705914400313776
-0.584876934255081
0.009059289739780084
1.270685614193614
-0.584876934255081
0.009059289739780084
1.270685614193614
-0.584876934255081
0.009059289739780084
1.270685614193614
-0.584876934255081
0.009059289739780084
1.270685614193614
-0.5858175845804428
0.009084598210462144
1.2706199095782278
-0.5858175845804428
0.009084598210462144
1.2706199095782278
-0.5858175845804428
0.009084598210462144
1.2706199095782278
-0.5858175845804428
0.009084598210462144
1.2706199095782278
-0.5864945030426784
0.009349566833489508
1.2703314920129627
-0.5864945030426784
0.009349566833489508
1.2703314920129627
-0.5864945030426784
0.009349566833489508
1.2703314920129627
-0.5864945030426784
0.009349566833489508
1.2703314920129627
-0.5863427113624465
0.009439012193366906
1.269948611121742
-0.5863427113624465
0.009439012193366906
1.269948611121742
-0.5863427113624465
0.009439012193366906
1.269948611121742
-0.5863427113624465
0.009439012193366906
1.269948611121742
-0.5864575024156385
0.010014900269410406
1.2694932627718583
-0.5864575024156385
0.010014900269410406
1.2694932627718583
-0.5864575024156385
0.010014900269410406
1.2694932627718583
-0.5864575024156385
0.010014900269410406
1.2694932627718583
-0.5869022136577521
0.010398645452535668
1.2691697395369679
-0.5869022136577521
0.010398645452535668
1.2691697395369679
-0.5869022136577521
0.010398645452535668
1.2691697395369679
-0.5869022136577521
0.010398645452535668
1.2691697395369679
-0.5876492071823912
0.011672774128172038
1.2689314952722615
-0.5876492071823912
0.011672774128172038
1.2689314952722615
-0.5876492071823912
0.011672774128172038
1.2689314952722615
-0.5876492071823912
0.011672774128172038
1.2689314952722615
-0.5882857926023556
0.013121456426038656
1.2680024358623148
-0.5882857926023556
0.013121456426038656
1.2680024358623148
-0.5882857926023556
0.013121456426038656
1.2680024358623148
-0.5882857926023556
0.013121456426038656
1.2680024358623148
-0.5903110869225249
0.014810707646251408
1.2676479404158791
-0.5903110869225249
0.014810707646251408
1.2676479404158791
-0.5903110869225249
0.014810707646251408
1.2676479404158791
-0.5903110869225249
0.014810707646251408
1.2676479404158791
-0.5895784620539462
0.01593922308973794
1.2658839296180577
-0.5895784620539462
0.01593922308973794
1.2658839296180577
-0.5895784620539462
0.01593922308973794
1.2658839296180577
-0.5895784620539462
0.01593922308973794
1.2658839296180577
-0.5885364806284527
0.018122302649202
1.2647232030911195
-0.5885364806284527
0.018122302649202
1.2647232030911195
-0.5885364806284527
0.018122302649202
1.2647232030911195
-0.5885364806284527
0.018122302649202
1.2647232030911195
-0.5953959244301725
0.020816246024760458
1.2637855389083734
-0.5953959244301725
0.020816246024760458
1.2637855389083734
-0.5953959244301725
0.020816246024760458
1.2637855389083734
-0.5953959244301725
0.020816246024760458
1.2637855389083734
-0.604138176936178
0.0237943710917344
1.2614305539195494
-0.604138176936178
0.0237943710917344
1.2614305539195494
-0.604138176936178
0.0237943710917344
1.2614305539195494
-0.604138176936178
0.0237943710917344
1.2614305539195494
-0.5995123627269985
0.025261816978666946
1.260334302961744
-0.5995123627269985
0.025261816978666946
1.260334302961744
-0.5995123627269985
0.025261816978666946
1.260334302961744
-0.5995123627269985
0.025261816978666946
1.260334302961744
-0.5989706474083183
0.02805574927602583
1.2614225966741217
-0.5989706474083183
0.02805574927602583
1.2614225966741217
-0.5989706474083183
0.02805574927602583
1.2614225966741217
-0.5989706474083183
0.02805574927602583
1.2614225966741217
-0.6052262887681307
0.030613554295547928
1.2615085299268736
-0.6052262887681307
0.030613554295547928
1.2615085299268736
-0.6052262887681307
0.030613554295547928
1.2615085299268736
-0.6052262887681307
0.030613554295547928
1.2615085299268736
-0.6076588964830503
0.03216681754761582
1.2588504641162526
-0.6076588964830503
0.03216681754761582
1.2588504641162526
-0.6076588964830503
0.03216681754761582
1.2588504641162526
-0.6076588964830503
0.03216681754761582
1.2588504641162526
-0.6036636594163037
0.032093406565921
1.2569345686698348
-0.6036636594163037
0.032093406565921
1.2569345686698348
-0.6036636594163037
0.032093406565921
1.2569345686698348
-0.6036636594163037
0.032093406565921
1.2569345686698348
-0.6032525291371055
0.030404166425489935
1.257494841648071
-0.6032525291371055
0.030404166425489935
1.257494841648071
-0.6032525291371055
0.030404166425489935
1.257494841648071
-0.6032525291371055
0.030404166425489935
1.257494841648071
-0.6045341852202023
0.028416822855010574
1.2582173090414277
-0.6045341852202023
0.028416822855010574
1.2582173090414277
-0.6045341852202023
0.028416822855010574
1.2582173090414277
-0.6045341852202023
0.028416822855010574
1.2582173090414277
-0.60491065241012
0.027412126881705905
1.2572188282614356
-0.60491065241012
0.027412126881705905
1.2572188282614356
-0.60491065241012
0.027412126881705905
1.2572188282614356
-0.60491065241012
0.027412126881705905
1.2572188282614356
-0.6062567385400814
0.026919098375960366
1.2560188325548038
-0.6062567385400814
0.026919098375960366
1.2560188325548038
-0.6062567385400814
0.026919098375960366
1.2560188325548038
-0.6062567385400814
0.026919098375960366
1.2560188325548038
-0.6053908398148043
0.0274306845066519
1.2566420272423322
-0.6053908398148043
0.0274306845066519
1.2566420272423322
-0.6053908398148043
0.0274306845066519
1.2566420272423322
-0.6053908398148043
0.0274306845066519
1.2566420272423322
-0.6021184024303086
0.027660507177730845
1.2584205264965294
-0.6021184024303086
0.027660507177730845
1.2584205264965294
-0.6021184024303086
0.027660507177730845
1.2584205264965294
-0.6021184024303086
0.027660507177730845
1.2584205264965294
-0.5994475219934429
0.02742406614797961
1.259309624825309
-0.5994475219934429
0.02742406614797961
1.259309624825309
-0.5994475219934429
0.02742406614797961
1.259309624825309
-0.5994475219934429
0.02742406614797961
1.259309624825309
-0.5994961110686323
0.027327691709805407
1.2584182614652089
-0.5994961110686323
0.027327691709805407
1.2584182614652089
-0.5994961110686323
0.027327691709805407
1.2584182614652089
-0.5994961110686323
0.027327691709805407
1.2584182614652089
-0.6008608170310037
0.027100640368173223
1.2565721686095737
-0.6008608170310037
0.027100640368173223
1.2565721686095737
-0.6008608170310037
0.027100640368173223
1.2565721686095737
-0.6008608170310037
0.027100640368173223
1.2565721686095737
-0.600537763505107
0.02688187539666629
1.255112696249396
-0.600537763505107
0.02688187539666629
1.255112696249396
-0.600537763505107
0.02688187539666629
1.255112696249396
-0.600537763505107
0.02688187539666629
1.255112696249396
-0.5990789931660456
0.026439429804238777
1.2556078318632138
-0.5990789931660456
0.026439429804238777
1.2556078318632138
-0.5990789931660456
0.026439429804238777
1.2556078318632138
-0.5990789931660456
0.026439429804238777
1.2556078318632138
-0.5975597025591992
0.025649205509067397
1.2570548391233218
-0.5975597025591992
0.025649205509067397
1.2570548391233218
-0.5975597025591992
0.025649205509067397
1.2570548391233218
-0.5975597025591992
0.025649205509067397
1.2570548391233218
-0.5968029645908695
0.024751524694425472
1.2579321665274361
-0.5968029645908695
0.024751524694425472
1.2579321665274361
-0.5968029645908695
0.024751524694425472
1.2579321665274361
-0.5968029645908695
0.024751524694425472
1.2579321665274361
-0.5963762358822997
0.02397323060282381
1.2575386548850833
-0.5963762358822997
0.02397323060282381
1.2575386548850833
-0.5963762358822997
0.02397323060282381
1.2575386548850833
-0.5963762358822997
0.02397323060282381
1.2575386548850833
-0.5972658648245567
0.023397609548330867
1.2561179348243159
-0.5972658648245567
0.023397609548330867
1.2561179348243159
-0.5972658648245567
0.023397609548330867
1.2561179348243159
-0.5972658648245567
0.023397609548330867
1.2561179348243159
-0.596291149387952
0.022795330421676415
1.2554508014982884
-0.596291149387952
0.022795330421676415
1.2554508014982884
-0.596291149387952
0.022795330421676415
1.2554508014982884
-0.596291149387952
0.022795330421676415
1.2554508014982884
-0.5961631601139548
0.02217210413040322
1.2557469920796733
-0.5961631601139548
0.02217210413040322
1.2557469920796733
-0.5961631601139548
0.02217210413040322
1.2557469920796733
-0.5961631601139548
0.02217210413040322
1.2557469920796733
-0.5958472134234146
0.02212457244477391
1.2563284939010524
-0.5958472134234146
0.02212457244477391
1.2563284939010524
-0.5958472134234146
0.02212457244477391
1.2563284939010524
-0.5958472134234146
0.02212457244477391
1.2563284939010524
-0.5970379319246453
0.02299745462238811
1.255887004451503
-0.5970379319246453
0.02299745462238811
1.255887004451503
-0.5970379319246453
0.02299745462238811
1.255887004451503
-0.5970379319246453
0.02299745462238811
1.255887004451503
-0.5983056545460346
0.023786365297221737
1.254933625942051
-0.5983056545460346
0.023786365297221737
1.254933625942051
-0.5983056545460346
0.023786365297221737
1.254933625942051
-0.5983056545460346
0.023786365297221737
1.254933625942051
-0.5989732896272058
0.024323485250035453
1.254628146070681
-0.5989732896272058
0.024323485250035453
1.254628146070681
-0.5989732896272058
0.024323485250035453
1.254628146070681
-0.5989732896272058
0.024323485250035453
1.254628146070681
-0.5978226447861553
0.024769512284472033
1.2552002044164066
-0.5978226447861553
0.024769512284472033
1.2552002044164066
-0.5978226447861553
0.024769512284472033
1.2552002044164066
-0.5978226447861553
0.024769512284472033
1.2552002044164066
-0.5973960595829415
0.02507471950795051
1.255675224544035
-0.5973960595829415
0.02507471950795051
1.255675224544035
-0.5973960595829415
0.02507471950795051
1.255675224544035
-0.5973960595829415
0.02507471950795051
1.255675224544035
-0.5974225871882267
0.025237550070584633
1.2556247136628562
-0.5974225871882267
0.025237550070584633
1.2556247136628562
-0.5974225871882267
0.025237550070584633
1.2556247136628562
-0.5974225871882267
0.025237550070584633
1.2556247136628562
-0.596502921649506
0.025190972203838764
1.2556039721200207
-0.596502921649506
0.025190972203838764
1.2556039721200207
-0.596502921649506
0.025190972203838764
1.2556039721200207
-0.596502921649506
0.025190972203838764
1.2556039721200207
-0.5959301790505104
0.02472131407211801
1.2558868353613417
-0.5959301790505104
0.02472131407211801
1.2558868353613417
-0.5959301790505104
0.02472131407211801
1.2558868353613417
-0.5959301790505104
0.02472131407211801
1.2558868353613417
-0.5948261037050304
0.02424639375983792
1.256459507120984
-0.5948261037050304
0.02424639375983792
1.256459507120984
-0.5948261037050304
0.02424639375983792
1.256459507120984
-0.5948261037050304
0.02424639375983792
1.256459507120984
-0.5942178674823494
0.02408410670970922
1.2568263018523456
-0.5942178674823494
0.02408410670970922
1.2568263018523456
-0.5942178674823494
0.02408410670970922
1.2568263018523456
-0.5942178674823494
0.02408410670970922
1.2568263018523456
-0.5942178674823494
0.02408410670970922
1.2568263018523456
-0.5942178674823494
0.02408410670970922
1.2568263018523456
-0.5942178674823494
0.02408410670970922
1.2568263018523456
-0.5942178674823494
0.02408410670970922
1.2568263018523456
-0.5939064717858287
0.024199459580646294
1.256438249486017
-0.5939064717858287
0.024199459580646294
1.256438249486017
-0.5939064717858287
0.024199459580646294
1.256438249486017
-0.5939064717858287
0.024199459580646294
1.256438249486017
-0.5938322757948643
0.0242439537103312
1.2562471979992376
-0.5938322757948643
0.0242439537103312
1.2562471979992376
-0.5938322757948643
0.0242439537103312
1.2562471979992376
-0.5938322757948643
0.0242439537103312
1.2562471979992376
-0.5938322757948643
0.0242439537103312
1.2562471979992376
-0.5938322757948643
0.0242439537103312
1.2562471979992376
-0.5938322757948643
0.0242439537103312
1.2562471979992376
-0.5938322757948643
0.0242439537103312
1.2562471979992376
-0.5934032071807687
0.023976924888753096
1.2563621477132545
-0.5934032071807687
0.023976924888753096
1.2563621477132545
-0.5934032071807687
0.023976924888753096
1.2563621477132545
-0.5934032071807687
0.023976924888753096
1.2563621477132545
-0.5934032071807687
0.023976924888753096
1.2563621477132545
-0.5934032071807687
0.023976924888753096
1.2563621477132545
-0.5934032071807687
0.023976924888753096
1.2563621477132545
-0.5934032071807687
0.023976924888753096
1.2563621477132545
-0.5931079476933702
0.024014335408863524
1.2557163820633668
-0.5931079476933702
0.024014335408863524
1.2557163820633668
-0.5931079476933702
0.024014335408863524
1.2557163820633668
-0.5931079476933702
0.024014335408863524
1.2557163820633668
-0.5932709359890901
0.02398783833735917
1.2557223421636996
-0.5932709359890901
0.02398783833735917
1.2557223421636996
-0.5932709359890901
0.02398783833735917
1.2557223421636996
-0.5932709359890901
0.02398783833735917
1.2557223421636996
-0.592646359567442
0.023534335864643385
1.255718302937539
-0.592646359567442
0.023534335864643385
1.255718302937539
-0.592646359567442
0.023534335864643385
1.255718302937539
-0.592646359567442
0.023534335864643385
1.255718302937539
-0.5923085658863817
0.022661097184098238
1.2562705173128639
-0.5923085658863817
0.022661097184098238
1.2562705173128639
-0.5923085658863817
0.022661097184098238
1.2562705173128639
-0.5923085658863817
0.022661097184098238
1.2562705173128639
-0.5923920032317853
0.021803222128659285
1.2568126878591221
-0.5923920032317853
0.021803222128659285
1.2568126878591221
-0.5923920032317853
0.021803222128659285
1.2568126878591221
-0.5923920032317853
0.021803222128659285
1.2568126878591221
-0.5928879327295136
0.02092141662575847
1.25687013575203
-0.5928879327295136
0.02092141662575847
1.25687013575203
-0.5928879327295136
0.02092141662575847
1.25687013575203
-0.5928879327295136
0.02092141662575847
1.25687013575203
-0.592753249368881
0.019878129551736606
1.2563737761560203
-0.592753249368881
0.019878129551736606
1.2563737761560203
-0.592753249368881
0.019878129551736606
1.2563737761560203
-0.592753249368881
0.019878129551736606
1.2563737761560203
-0.5912340240345642
0.018828917106231538
1.2560519662205407
-0.5912340240345642
0.018828917106231538
1.2560519662205407
-0.5912340240345642
0.018828917106231538
1.2560519662205407
-0.5912340240345642
0.018828917106231538
1.2560519662205407
-0.5884211356175344
0.01730812075612981
1.256221060455442
-0.5884211356175344
0.01730812075612981
1.256221060455442
-0.5884211356175344
0.01730812075612981
1.256221060455442
-0.5884211356175344
0.01730812075612981
1.256221060455442
-0.5887193426785817
0.015019030460574616
1.2572687352749925
-0.5887193426785817
0.015019030460574616
1.2572687352749925
-0.5887193426785817
0.015019030460574616
1.2572687352749925
-0.5887193426785817
0.015019030460574616
1.2572687352749925
-0.5897176006474708
0.012428103851910097
1.2582732402433439
-0.5897176006474708
0.012428103851910097
1.2582732402433439
-0.5897176006474708
0.012428103851910097
1.2582732402433439
-0.5897176006474708
0.012428103851910097
1.2582732402433439
-0.5868462612142085
0.0092920394642362
1.260016482112336
-0.5868462612142085
0.0092920394642362
1.260016482112336
-0.5868462612142085
0.0092920394642362
1.260016482112336
-0.5868462612142085
0.0092920394642362
1.260016482112336
-0.5850887067152754
0.005978890708915311
1.2626620271074689
-0.5850887067152754
0.005978890708915311
1.2626620271074689
-0.5850887067152754
0.005978890708915311
1.2626620271074689
-0.5850887067152754
0.005978890708915311
1.2626620271074689
-0.5880653356666576
0.0026629511934442357
1.2658912013915364
-0.5880653356666576
0.0026629511934442357
1.2658912013915364
-0.5880653356666576
0.0026629511934442357
1.2658912013915364
-0.5880653356666576
0.0026629511934442357
1.2658912013915364
-0.5907508864223932
3.3234320139741185E-4
1.2673789368665793
-0.5907508864223932
3.3234320139741185E-4
1.2673789368665793
-0.5907508864223932
3.3234320139741185E-4
1.2673789368665793
-0.5907508864223932
3.3234320139741185E-4
1.2673789368665793
-0.5899889447927273
-0.0010402190921188824
1.2672883484118647
-0.5899889447927273
-0.0010402190921188824
1.2672883484118647
-0.5899889447927273
-0.0010402190921188824
1.2672883484118647
-0.5899889447927273
-0.0010402190921188824
1.2672883484118647
-0.5873968920981258
-0.0015245503400813448
1.2661918582250073
-0.5873968920981258
-0.0015245503400813448
1.2661918582250073
-0.5873968920981258
-0.0015245503400813448
1.2661918582250073
-0.5873968920981258
-0.0015245503400813448
1.2661918582250073
-0.5852624138591128
-0.0022359001010290535
1.2648553969792435
-0.5852624138591128
-0.0022359001010290535
1.2648553969792435
-0.5852624138591128
-0.0022359001010290535
1.2648553969792435
-0.5852624138591128
-0.0022359001010290535
1.2648553969792435
-0.584040049762605
-0.003478873103909829
1.2637270616904648
-0.584040049762605
-0.003478873103909829
1.2637270616904648
-0.584040049762605
-0.003478873103909829
1.2637270616904648
-0.584040049762605
-0.003478873103909829
1.2637270616904648
-0.5840913063017548
-0.004700926462260691
1.2627170678081807
-0.5840913063017548
-0.004700926462260691
1.2627170678081807
-0.5840913063017548
-0.004700926462260691
1.2627170678081807
-0.5840913063017548
-0.004700926462260691
1.2627170678081807
-0.5850906632526616
-0.006446187394437988
1.2622990397014984
-0.5850906632526616
-0.006446187394437988
1.2622990397014984
-0.5850906632526616
-0.006446187394437988
1.2622990397014984
-0.5850906632526616
-0.006446187394437988
1.2622990397014984
-0.5871804817999704
-0.008133895757492805
1.262629965755769
-0.5871804817999704
-0.008133895757492805
1.262629965755769
-0.5871804817999704
-0.008133895757492805
1.262629965755769
-0.5871804817999704
-0.008133895757492805
1.262629965755769
-0.5875773159541
-0.0091482571174968
1.2630889114606285
-0.5875773159541
-0.0091482571174968
1.2630889114606285
-0.5875773159541
-0.0091482571174968
1.2630889114606285
-0.5875773159541
-0.0091482571174968
1.2630889114606285
-0.5854106077487471
-0.009270862886875538
1.2636858082512816
-0.5854106077487471
-0.009270862886875538
1.2636858082512816
-0.5854106077487471
-0.009270862886875538
1.2636858082512816
-0.5854106077487471
-0.009270862886875538
1.2636858082512816
-0.582640402891902
-0.008967788012186076
1.2641512718882737
-0.582640402891902
-0.008967788012186076
1.2641512718882737
-0.582640402891902
-0.008967788012186076
1.2641512718882737
-0.582640402891902
-0.008967788012186076
1.2641512718882737
-0.5810356799103762
-0.008476819253042073
1.2643608275979357
-0.5810356799103762
-0.008476819253042073
1.2643608275979357
-0.5810356799103762
-0.008476819253042073
1.2643608275979357
-0.5810356799103762
-0.008476819253042073
1.2643608275979357
-0.5815389665559417
-0.00825362867952893
1.2644466832381016
-0.5815389665559417
-0.00825362867952893
1.2644466832381016
-0.5815389665559417
-0.00825362867952893
1.2644466832381016
-0.5815389665559417
-0.00825362867952893
1.2644466832381016
-0.5833202243853584
-0.008528615428201325
1.264454090111764
-0.5833202243853584
-0.008528615428201325
1.264454090111764
-0.5833202243853584
-0.008528615428201325
1.264454090111764
-0.5833202243853584
-0.008528615428201325
1.264454090111764
-0.5845097319392812
-0.0085117021038453
1.2642209387954344
-0.5845097319392812
-0.0085117021038453
1.2642209387954344
-0.5845097319392812
-0.0085117021038453
1.2642209387954344
-0.5845097319392812
-0.0085117021038453
1.2642209387954344
-0.5845515417875679
-0.008233957657779007
1.263959438520708
-0.5845515417875679
-0.008233957657779007
1.263959438520708
-0.5845515417875679
-0.008233957657779007
1.263959438520708
-0.5845515417875679
-0.008233957657779007
1.263959438520708
-0.5837273894716761
-0.007822534119143548
1.2636817928503052
-0.5837273894716761
-0.007822534119143548
1.2636817928503052
-0.5837273894716761
-0.007822534119143548
1.2636817928503052
-0.5837273894716761
-0.007822534119143548
1.2636817928503052
-0.5832669506902532
-0.007391794117322853
1.2636534582218653
-0.5832669506902532
-0.007391794117322853
1.2636534582218653
-0.5832669506902532
-0.007391794117322853
1.2636534582218653
-0.5832669506902532
-0.007391794117322853
1.2636534582218653
-0.5830017670507129
-0.0071663507279799464
1.2639686781365689
-0.5830017670507129
-0.0071663507279799464
1.2639686781365689
-0.5830017670507129
-0.0071663507279799464
1.2639686781365689
-0.5830017670507129
-0.0071663507279799464
1.2639686781365689
-0.582932595835095
-0.007072087326341853
1.2639401276490208
-0.582932595835095
-0.007072087326341853
1.2639401276490208
-0.582932595835095
-0.007072087326341853
1.2639401276490208
-0.582932595835095
-0.007072087326341853
1.2639401276490208
-0.5830017670507129
-0.0071663507279799464
1.2639686781365689
-0.5830017670507129
-0.0071663507279799464
1.2639686781365689
-0.5830017670507129
-0.0071663507279799464
1.2639686781365689
-0.5830017670507129
-0.0071663507279799464
1.2639686781365689
-0.5830017670507129
-0.0071663507279799464
1.2639686781365689
-0.5830017670507129
-0.0071663507279799464
1.2639686781365689
-0.5830017670507129
-0.0071663507279799464
1.2639686781365689
-0.5830017670507129
-0.0071663507279799464
1.2639686781365689
-0.5823729755476502
-0.006960123184915795
1.264035042059695
-0.5823729755476502
-0.006960123184915795
1.264035042059695
-0.5823729755476502
-0.006960123184915795
1.264035042059695
-0.5823729755476502
-0.006960123184915795
1.264035042059695
-0.5817849348634532
-0.0068109104928785824
1.2639129690072952
-0.5817849348634532
-0.0068109104928785824
1.2639129690072952
-0.5817849348634532
-0.0068109104928785824
1.2639129690072952
-0.5817849348634532
