-0.6095901697689197
0.07898230752304441
2.893580498411511
-0.6095901697689197
0.07898230752304441
2.893580498411511
-0.6095901697689197
0.07898230752304441
2.893580498411511
-0.6095901697689197
0.07898230752304441
2.893580498411511
-0.6094136185642965
0.08123135456153394
2.893261600764629
-0.6094136185642965
0.08123135456153394
2.893261600764629
-0.6094136185642965
0.08123135456153394
2.893261600764629
-0.6094136185642965
0.08123135456153394
2.893261600764629
-0.6098378767515688
0.08317501191879899
2.8926157535827506
-0.6098378767515688
0.08317501191879899
2.8926157535827506
-0.6098378767515688
0.08317501191879899
2.8926157535827506
-0.6098378767515688
0.08317501191879899
2.8926157535827506
-0.6107545953950348
0.08522764315763949
2.8916141616220394
-0.6107545953950348
0.08522764315763949
2.8916141616220394
-0.6107545953950348
0.08522764315763949
2.8916141616220394
-0.6107545953950348
0.08522764315763949
2.8916141616220394
-0.6112681160929222
0.08747936844195667
2.890722593113631
-0.6112681160929222
0.08747936844195667
2.890722593113631
-0.6112681160929222
0.08747936844195667
2.890722593113631
-0.6112681160929222
0.08747936844195667
2.890722593113631
-0.6124636148092073
0.08943683622880955
2.8903842685752523
-0.6124636148092073
0.08943683622880955
2.8903842685752523
-0.6124636148092073
0.08943683622880955
2.8903842685752523
-0.6124636148092073
0.08943683622880955
2.8903842685752523
-0.6140944478725138
0.09086904446137346
2.890174159752646
-0.6140944478725138
0.09086904446137346
2.890174159752646
-0.6140944478725138
0.09086904446137346
2.890174159752646
-0.6140944478725138
0.09086904446137346
2.890174159752646
-0.6160295733918353
0.09160270518026632
2.889899701143485
-0.6160295733918353
0.09160270518026632
2.889899701143485
-0.6160295733918353
0.09160270518026632
2.889899701143485
-0.6160295733918353
0.09160270518026632
2.889899701143485
-0.6179349135424541
0.09195595316121727
2.889236964919966
-0.6179349135424541
0.09195595316121727
2.889236964919966
-0.6179349135424541
0.09195595316121727
2.889236964919966
-0.6179349135424541
0.09195595316121727
2.889236964919966
-0.6191633428201806
0.09170392126838009
2.888051010411894
-0.6191633428201806
0.09170392126838009
2.888051010411894
-0.6191633428201806
0.09170392126838009
2.888051010411894
-0.6191633428201806
0.09170392126838009
2.888051010411894
-0.6191891295183954
0.09128929679558603
2.8871484280148856
-0.6191891295183954
0.09128929679558603
2.8871484280148856
-0.6191891295183954
0.09128929679558603
2.8871484280148856
-0.6191891295183954
0.09128929679558603
2.8871484280148856
-0.6186252250666064
0.09078193544707702
2.8869712924131754
-0.6186252250666064
0.09078193544707702
2.8869712924131754
-0.6186252250666064
0.09078193544707702
2.8869712924131754
-0.6186252250666064
0.09078193544707702
2.8869712924131754
-0.6193882959446922
0.09013011918517905
2.887255079481503
-0.6193882959446922
0.09013011918517905
2.887255079481503
-0.6193882959446922
0.09013011918517905
2.887255079481503
-0.6193882959446922
0.09013011918517905
2.887255079481503
-0.6216592864064521
0.0896455785212012
2.887338992983929
-0.6216592864064521
0.0896455785212012
2.887338992983929
-0.6216592864064521
0.0896455785212012
2.887338992983929
-0.6216592864064521
0.0896455785212012
2.887338992983929
-0.6241775588845465
0.08924337127089295
2.887385281859298
-0.6241775588845465
0.08924337127089295
2.887385281859298
-0.6241775588845465
0.08924337127089295
2.887385281859298
-0.6241775588845465
0.08924337127089295
2.887385281859298
-0.6254775822939177
0.08856576837493575
2.8877525434276654
-0.6254775822939177
0.08856576837493575
2.8877525434276654
-0.6254775822939177
0.08856576837493575
2.8877525434276654
-0.6254775822939177
0.08856576837493575
2.8877525434276654
-0.6252255840210068
0.08793023153429173
2.8881126570738846
-0.6252255840210068
0.08793023153429173
2.8881126570738846
-0.6252255840210068
0.08793023153429173
2.8881126570738846
-0.6252255840210068
0.08793023153429173
2.8881126570738846
-0.6231357665115091
0.08736641858660672
2.888865131108189
-0.6231357665115091
0.08736641858660672
2.888865131108189
-0.6231357665115091
0.08736641858660672
2.888865131108189
-0.6231357665115091
0.08736641858660672
2.888865131108189
-0.620464489650611
0.08707416163947213
2.889443386669517
-0.620464489650611
0.08707416163947213
2.889443386669517
-0.620464489650611
0.08707416163947213
2.889443386669517
-0.620464489650611
0.08707416163947213
2.889443386669517
-0.6190271667549272
0.08717354052766817
2.88966543255812
-0.6190271667549272
0.08717354052766817
2.88966543255812
-0.6190271667549272
0.08717354052766817
2.88966543255812
-0.6190271667549272
0.08717354052766817
2.88966543255812
-0.6191795476451891
0.08723269437768204
2.889879757043993
-0.6191795476451891
0.08723269437768204
2.889879757043993
-0.6191795476451891
0.08723269437768204
2.889879757043993
-0.6191795476451891
0.08723269437768204
2.889879757043993
-0.620024003392627
0.08726991250437835
2.8903228032258346
-0.620024003392627
0.08726991250437835
2.8903228032258346
-0.620024003392627
0.08726991250437835
2.8903228032258346
-0.620024003392627
0.08726991250437835
2.8903228032258346
-0.619769268273078
0.08764208393639493
2.890994895359396
-0.619769268273078
0.08764208393639493
2.890994895359396
-0.619769268273078
0.08764208393639493
2.890994895359396
-0.619769268273078
0.08764208393639493
2.890994895359396
-0.6186808940336828
0.0883211575766081
2.8911277427635733
-0.6186808940336828
0.0883211575766081
2.8911277427635733
-0.6186808940336828
0.0883211575766081
2.8911277427635733
-0.6186808940336828
0.0883211575766081
2.8911277427635733
-0.6180794927942458
0.08937542209286066
2.8909615172630114
-0.6180794927942458
0.08937542209286066
2.8909615172630114
-0.6180794927942458
0.08937542209286066
2.8909615172630114
-0.6180794927942458
0.08937542209286066
2.8909615172630114
-0.617864065930793
0.0902694930205037
2.8904313445096212
-0.617864065930793
0.0902694930205037
2.8904313445096212
-0.617864065930793
0.0902694930205037
2.8904313445096212
-0.617864065930793
0.0902694930205037
2.8904313445096212
-0.6176490967460276
0.09116368096393807
2.8899013200373314
-0.6176490967460276
0.09116368096393807
2.8899013200373314
-0.6176490967460276
0.09116368096393807
2.8899013200373314
-0.6176490967460276
0.09116368096393807
2.8899013200373314
-0.6182500804073259
0.0924189359691677
2.889568461316091
-0.6182500804073259
0.0924189359691677
2.889568461316091
-0.6182500804073259
0.0924189359691677
2.889568461316091
-0.6182500804073259
0.0924189359691677
2.889568461316091
-0.6193184716110588
0.09337938346516159
2.8892908997010807
-0.6193184716110588
0.09337938346516159
2.8892908997010807
-0.6193184716110588
0.09337938346516159
2.8892908997010807
-0.6193184716110588
0.09337938346516159
2.8892908997010807
-0.62010429281521
0.09414377095822511
2.888721538709669
-0.62010429281521
0.09414377095822511
2.888721538709669
-0.62010429281521
0.09414377095822511
2.888721538709669
-0.62010429281521
0.09414377095822511
2.888721538709669
-0.6204805549743804
0.095205382189606
2.887694827549902
-0.6204805549743804
0.095205382189606
2.887694827549902
-0.6204805549743804
0.095205382189606
2.887694827549902
-0.6204805549743804
0.095205382189606
2.887694827549902
-0.6204239058054416
0.09597060249331435
2.8868000798495266
-0.6204239058054416
0.09597060249331435
2.8868000798495266
-0.6204239058054416
0.09597060249331435
2.8868000798495266
-0.6204239058054416
0.09597060249331435
2.8868000798495266
-0.6209758446906379
0.09613711105500802
2.8863204011260892
-0.6209758446906379
0.09613711105500802
2.8863204011260892
-0.6209758446906379
0.09613711105500802
2.8863204011260892
-0.6209758446906379
0.09613711105500802
2.8863204011260892
-0.6210255817324157
0.09562321014550135
2.8863554897128276
-0.6210255817324157
0.09562321014550135
2.8863554897128276
-0.6210255817324157
0.09562321014550135
2.8863554897128276
-0.6210255817324157
0.09562321014550135
2.8863554897128276
-0.6209916362997733
0.09457231512271176
2.8866951707142343
-0.6209916362997733
0.09457231512271176
2.8866951707142343
-0.6209916362997733
0.09457231512271176
2.8866951707142343
-0.6209916362997733
0.09457231512271176
2.8866951707142343
-0.6198055551951512
0.09366754307907206
2.8870904749536264
-0.6198055551951512
0.09366754307907206
2.8870904749536264
-0.6198055551951512
0.09366754307907206
2.8870904749536264
-0.6198055551951512
0.09366754307907206
2.8870904749536264
-0.6178449275151235
0.09320126457479955
2.887809378107014
-0.6178449275151235
0.09320126457479955
2.887809378107014
-0.6178449275151235
0.09320126457479955
2.887809378107014
-0.6178449275151235
0.09320126457479955
2.887809378107014
-0.6169928990695502
0.09279806083172512
2.888265428261544
-0.6169928990695502
0.09279806083172512
2.888265428261544
-0.6169928990695502
0.09279806083172512
2.888265428261544
-0.6169928990695502
0.09279806083172512
2.888265428261544
-0.6175520392494644
0.09192937835342456
2.889024232997282
-0.6175520392494644
0.09192937835342456
2.889024232997282
-0.6172317376427009
0.09176593685468534
2.88961672256238
-0.6172317376427009
0.09176593685468534
2.88961672256238
-0.6172317376427009
0.09176593685468534
2.88961672256238
-0.6172317376427009
0.09176593685468534
2.88961672256238
-0.6172317376427009
0.09176593685468534
2.88961672256238
-0.6172317376427009
0.09176593685468534
2.88961672256238
-0.6153259298917169
0.0921966244394543
2.889902006083009
-0.6153259298917169
0.0921966244394543
2.889902006083009
-0.6153259298917169
0.0921966244394543
2.889902006083009
-0.6153259298917169
0.0921966244394543
2.889902006083009
-0.6110352545579987
0.09375445776876676
2.8900242699924847
-0.6110352545579987
0.09375445776876676
2.8900242699924847
-0.6110352545579987
0.09375445776876676
2.8900242699924847
-0.6110352545579987
0.09375445776876676
2.8900242699924847
-0.6063531958178369
0.09566294724904421
2.8903464383480224
-0.6063531958178369
0.09566294724904421
2.8903464383480224
-0.6063531958178369
0.09566294724904421
2.8903464383480224
-0.6063531958178369
0.09566294724904421
2.8903464383480224
-0.6022142275160192
0.09716743570971938
2.890349899349805
-0.6022142275160192
0.09716743570971938
2.890349899349805
-0.6022142275160192
0.09716743570971938
2.890349899349805
-0.6022142275160192
0.09716743570971938
2.890349899349805
-0.6001047677267928
0.09800913969071962
2.8893677946372947
-0.6001047677267928
0.09800913969071962
2.8893677946372947
-0.6001047677267928
0.09800913969071962
2.8893677946372947
-0.6001047677267928
0.09800913969071962
2.8893677946372947
-0.5971315974358132
0.0989722965625981
2.888044580740414
-0.5971315974358132
0.0989722965625981
2.888044580740414
-0.5971315974358132
0.0989722965625981
2.888044580740414
-0.5971315974358132
0.0989722965625981
2.888044580740414
-0.5935629245794733
0.09994576829337035
2.8877993375619364
-0.5935629245794733
0.09994576829337035
2.8877993375619364
-0.5935629245794733
0.09994576829337035
2.8877993375619364
-0.5935629245794733
0.09994576829337035
2.8877993375619364
-0.5867453556923736
0.10048807635879924
2.887459577223075
-0.5867453556923736
0.10048807635879924
2.887459577223075
-0.5867453556923736
0.10048807635879924
2.887459577223075
-0.5867453556923736
0.10048807635879924
2.887459577223075
-0.5865026414926167
0.10277455566193955
2.886400257304329
-0.5865026414926167
0.10277455566193955
2.886400257304329
-0.5865026414926167
0.10277455566193955
2.886400257304329
-0.5865026414926167
0.10277455566193955
2.886400257304329
-0.6013029427086549
0.11557379855813532
2.8829384526270263
-0.6013029427086549
0.11557379855813532
2.8829384526270263
-0.6269530489268964
0.1443644579842672
2.8806658759479506
-0.6269530489268964
0.1443644579842672
2.8806658759479506
-0.6269530489268964
0.1443644579842672
2.8806658759479506
-0.6269530489268964
0.1443644579842672
2.8806658759479506
-0.6534195301753145
0.18029341539080737
2.8763947466693827
-0.6534195301753145
0.18029341539080737
2.8763947466693827
-0.6534195301753145
0.18029341539080737
2.8763947466693827
-0.6534195301753145
0.18029341539080737
2.8763947466693827
-0.6892085567369489
0.19976806561684277
2.861673896466483
-0.6892085567369489
0.19976806561684277
2.861673896466483
-0.6892085567369489
0.19976806561684277
2.861673896466483
-0.6892085567369489
0.19976806561684277
2.861673896466483
-0.6892085567369489
0.19976806561684277
2.861673896466483
-0.6892085567369489
0.19976806561684277
2.861673896466483
-0.7119901104050628
0.1892048947977345
2.842293667028938
-0.7119901104050628
0.1892048947977345
2.842293667028938
-0.7247067121766927
0.17245081672626805
2.8333304767506062
-0.7247067121766927
0.17245081672626805
2.8333304767506062
-0.7247067121766927
0.17245081672626805
2.8333304767506062
-0.7247067121766927
0.17245081672626805
2.8333304767506062
-0.7124513152957738
0.16841436205985283
2.8382225184539376
-0.7124513152957738
0.16841436205985283
2.8382225184539376
-0.7124513152957738
0.16841436205985283
2.8382225184539376
-0.7124513152957738
0.16841436205985283
2.8382225184539376
-0.6957167446439185
0.17137235628729613
2.835909611054409
-0.6957167446439185
0.17137235628729613
2.835909611054409
-0.6957167446439185
0.17137235628729613
2.835909611054409
-0.6957167446439185
0.17137235628729613
2.835909611054409
-0.6870088152368702
0.1699167418057263
2.831639469453945
-0.6870088152368702
0.1699167418057263
2.831639469453945
-0.6870088152368702
0.1699167418057263
2.831639469453945
-0.6870088152368702
0.1699167418057263
2.831639469453945
-0.6790198733052881
0.16552679237972337
2.829391679320178
-0.6790198733052881
0.16552679237972337
2.829391679320178
-0.6790198733052881
0.16552679237972337
2.829391679320178
-0.6790198733052881
0.16552679237972337
2.829391679320178
-0.6836907615447592
0.16392281563039207
2.822660306220677
-0.6836907615447592
0.16392281563039207
2.822660306220677
-0.6836907615447592
0.16392281563039207
2.822660306220677
-0.6836907615447592
0.16392281563039207
2.822660306220677
-0.6976107995771804
0.15974878880860713
2.819783106332482
-0.6976107995771804
0.15974878880860713
2.819783106332482
-0.6976107995771804
0.15974878880860713
2.819783106332482
-0.6976107995771804
0.15974878880860713
2.819783106332482
-0.7091228897206586
0.1553367440954678
2.8169684621209012
-0.7091228897206586
0.1553367440954678
2.8169684621209012
-0.7091228897206586
0.1553367440954678
2.8169684621209012
-0.7091228897206586
0.1553367440954678
2.8169684621209012
-0.7091097823174143
0.15308284848405576
2.8140055230964087
-0.7091097823174143
0.15308284848405576
2.8140055230964087
-0.7091097823174143
0.15308284848405576
2.8140055230964087
-0.7091097823174143
0.15308284848405576
2.8140055230964087
-0.7016351142346577
0.15002623197798798
2.8122410680953354
-0.7016351142346577
0.15002623197798798
2.8122410680953354
-0.7016351142346577
0.15002623197798798
2.8122410680953354
-0.7016351142346577
0.15002623197798798
2.8122410680953354
-0.6960015059512736
0.14731156703532414
2.810202122265524
-0.6960015059512736
0.14731156703532414
2.810202122265524
-0.6960015059512736
0.14731156703532414
2.810202122265524
-0.6960015059512736
0.14731156703532414
2.810202122265524
-0.6950411417338286
0.14520487020709782
2.808360637284238
-0.6950411417338286
0.14520487020709782
2.808360637284238
-0.6950411417338286
0.14520487020709782
2.808360637284238
-0.6950411417338286
0.14520487020709782
2.808360637284238
-0.7000365354307206
0.14364024857693622
2.806297546556984
-0.7000365354307206
0.14364024857693622
2.806297546556984
-0.7000365354307206
0.14364024857693622
2.806297546556984
-0.7000365354307206
0.14364024857693622
2.806297546556984
-0.7072532155844429
0.14293942448249186
2.804291705385535
-0.7072532155844429
0.14293942448249186
2.804291705385535
-0.7072532155844429
0.14293942448249186
2.804291705385535
-0.7072532155844429
0.14293942448249186
2.804291705385535
-0.7104300632515388
0.14347831763092705
2.8030017321024863
-0.7104300632515388
0.14347831763092705
2.8030017321024863
-0.7104300632515388
0.14347831763092705
2.8030017321024863
-0.7104300632515388
0.14347831763092705
2.8030017321024863
-0.7084662947554974
0.1453732436092102
2.802679966445926
-0.7084662947554974
0.1453732436092102
2.802679966445926
-0.7084662947554974
0.1453732436092102
2.802679966445926
-0.7084662947554974
0.1453732436092102
2.802679966445926
-0.7025545083735691
0.1471766971671513
2.8034455725431466
-0.7025545083735691
0.1471766971671513
2.8034455725431466
-0.7025545083735691
0.1471766971671513
2.8034455725431466
-0.7025545083735691
0.1471766971671513
2.8034455725431466
-0.697854554390277
0.1489257918896974
2.8046167448132997
-0.697854554390277
0.1489257918896974
2.8046167448132997
-0.697854554390277
0.1489257918896974
2.8046167448132997
-0.697854554390277
0.1489257918896974
2.8046167448132997
-0.6971120775424082
0.1506814445553222
2.8058979253790555
-0.6971120775424082
0.1506814445553222
2.8058979253790555
-0.6971120775424082
0.1506814445553222
2.8058979253790555
-0.6971120775424082
0.1506814445553222
2.8058979253790555
-0.6988290844841655
0.15166616487052512
2.80714141265468
-0.6988290844841655
0.15166616487052512
2.80714141265468
-0.6988290844841655
0.15166616487052512
2.80714141265468
-0.6988290844841655
0.15166616487052512
2.80714141265468
-0.7001682092682777
0.15228176012363936
2.8079070440434295
-0.7001682092682777
0.15228176012363936
2.8079070440434295
-0.7001682092682777
0.15228176012363936
2.8079070440434295
-0.7001682092682777
0.15228176012363936
2.8079070440434295
-0.698672926327751
0.15289262330901102
2.8082716885904886
-0.698672926327751
0.15289262330901102
2.8082716885904886
-0.698672926327751
0.15289262330901102
2.8082716885904886
-0.698672926327751
0.15289262330901102
2.8082716885904886
-0.6947117434757215
0.15287569111465538
2.8081745490464054
-0.6947117434757215
0.15287569111465538
2.8081745490464054
-0.6947117434757215
0.15287569111465538
2.8081745490464054
-0.6947117434757215
0.15287569111465538
2.8081745490464054
-0.6907819208748297
0.151953932406407
2.807740012834838
-0.6907819208748297
0.151953932406407
2.807740012834838
-0.6907819208748297
0.151953932406407
2.807740012834838
-0.6907819208748297
0.151953932406407
2.807740012834838
-0.6892675160933842
0.15035849544019356
2.807083643185517
-0.6892675160933842
0.15035849544019356
2.807083643185517
-0.6892675160933842
0.15035849544019356
2.807083643185517
-0.6892675160933842
0.15035849544019356
2.807083643185517
-0.689222428266559
0.14862572426440487
2.805892076801648
-0.689222428266559
0.14862572426440487
2.805892076801648
-0.689222428266559
0.14862572426440487
2.805892076801648
-0.689222428266559
0.14862572426440487
2.805892076801648
-0.6904081498905875
0.14735730883059192
2.8050190027269006
-0.6904081498905875
0.14735730883059192
2.8050190027269006
-0.6904081498905875
0.14735730883059192
2.8050190027269006
-0.6904081498905875
0.14735730883059192
2.8050190027269006
-0.6921515529721869
0.14596393745406688
2.804771605634884
-0.6921515529721869
0.14596393745406688
2.804771605634884
-0.6921515529721869
0.14596393745406688
2.804771605634884
-0.6921515529721869
0.14596393745406688
2.804771605634884
-0.6915082197025617
0.14469325234812666
2.8046777125611975
-0.6915082197025617
0.14469325234812666
2.8046777125611975
-0.6915082197025617
0.14469325234812666
2.8046777125611975
-0.6915082197025617
0.14469325234812666
2.8046777125611975
-0.6876550476394112
0.14491305443355412
2.805245152968693
-0.6876550476394112
0.14491305443355412
2.805245152968693
-0.6876550476394112
0.14491305443355412
2.805245152968693
-0.6876550476394112
0.14491305443355412
2.805245152968693
-0.6832808028242214
0.1451466512783801
2.805997298927722
-0.6832808028242214
0.1451466512783801
2.805997298927722
-0.6832808028242214
0.1451466512783801
2.805997298927722
-0.6832808028242214
0.1451466512783801
2.805997298927722
-0.6803069188977725
0.14494485984034464
2.8064591893189283
-0.6803069188977725
0.14494485984034464
2.8064591893189283
-0.6803069188977725
0.14494485984034464
2.8064591893189283
-0.6803069188977725
0.14494485984034464
2.8064591893189283
-0.6796843619703861
0.14441381310154805
2.8062214782437214
-0.6796843619703861
0.14441381310154805
2.8062214782437214
-0.6796843619703861
0.14441381310154805
2.8062214782437214
-0.6796843619703861
0.14441381310154805
2.8062214782437214
-0.6803471113885716
0.1437094848355607
2.8052066045641366
-0.6803471113885716
0.1437094848355607
2.8052066045641366
-0.6803471113885716
0.1437094848355607
2.8052066045641366
-0.6803471113885716
0.1437094848355607
2.8052066045641366
-0.6805637697802291
0.14256588048157046
2.803888863896538
-0.6805637697802291
0.14256588048157046
2.803888863896538
-0.6805637697802291
0.14256588048157046
2.803888863896538
-0.6805637697802291
0.14256588048157046
2.803888863896538
-0.6800124503838069
0.1415528579495451
2.802623476532531
-0.6800124503838069
0.1415528579495451
2.802623476532531
-0.6800124503838069
0.1415528579495451
2.802623476532531
-0.6800124503838069
0.1415528579495451
2.802623476532531
-0.6783793392578297
0.14048982146558894
2.8015174679119665
-0.6783793392578297
0.14048982146558894
2.8015174679119665
-0.6783793392578297
0.14048982146558894
2.8015174679119665
-0.6783793392578297
0.14048982146558894
2.8015174679119665
-0.6769697513308526
0.13950763092991708
2.800749225682442
-0.6769697513308526
0.13950763092991708
2.800749225682442
-0.6769697513308526
0.13950763092991708
2.800749225682442
-0.6769697513308526
0.13950763092991708
2.800749225682442
-0.6777860012618648
0.13850258264030807
2.800086099422494
-0.6777860012618648
0.13850258264030807
2.800086099422494
-0.6777860012618648
0.13850258264030807
2.800086099422494
-0.6777860012618648
0.13850258264030807
2.800086099422494
-0.6788290012384965
0.13745236892100982
2.799422081420633
-0.6788290012384965
0.13745236892100982
2.799422081420633
-0.6788290012384965
0.13745236892100982
2.799422081420633
-0.6788290012384965
0.13745236892100982
2.799422081420633
-0.6796444718563837
0.1364048232568389
2.7986472017330026
-0.6796444718563837
0.1364048232568389
2.7986472017330026
-0.6796444718563837
0.1364048232568389
2.7986472017330026
-0.6796444718563837
0.1364048232568389
2.7986472017330026
-0.6799869434843524
0.1358652266155632
2.7980235155040862
-0.6799869434843524
0.1358652266155632
2.7980235155040862
-0.6799869434843524
0.1358652266155632
2.7980235155040862
-0.6799869434843524
0.1358652266155632
2.7980235155040862
-0.6786343529588488
0.1361801545366723
2.797944338462035
-0.6786343529588488
0.1361801545366723
2.797944338462035
-0.6786343529588488
0.1361801545366723
2.797944338462035
-0.6786343529588488
0.1361801545366723
2.797944338462035
-0.6774614889305387
0.13689335371308012
2.797967472555685
-0.6774614889305387
0.13689335371308012
2.797967472555685
-0.6774614889305387
0.13689335371308012
2.797967472555685
-0.6774614889305387
0.13689335371308012
2.797967472555685
-0.6764707337304906
0.13694713307513773
2.7976781610378048
-0.6764707337304906
0.13694713307513773
2.7976781610378048
-0.6764707337304906
0.13694713307513773
2.7976781610378048
-0.6764707337304906
0.13694713307513773
2.7976781610378048
-0.6766512251210447
0.1369147832559836
2.7972718194465434
-0.6766512251210447
0.1369147832559836
2.7972718194465434
-0.6766512251210447
0.1369147832559836
2.7972718194465434
-0.6766512251210447
0.1369147832559836
2.7972718194465434
-0.6773278448690152
0.13737930205311885
2.796632361361535
-0.6773278448690152
0.13737930205311885
2.796632361361535
-0.6773278448690152
0.13737930205311885
2.796632361361535
-0.6773278448690152
0.13737930205311885
2.796632361361535
-0.6774165135050831
0.13752306109448004
2.79629896441852
-0.6774165135050831
0.13752306109448004
2.79629896441852
-0.6774165135050831
0.13752306109448004
2.79629896441852
-0.6774165135050831
0.13752306109448004
2.79629896441852
-0.6767188811986079
0.13799427951172658
2.7962247687719124
-0.6767188811986079
0.13799427951172658
2.7962247687719124
-0.6767188811986079
0.13799427951172658
2.7962247687719124
-0.6767188811986079
0.13799427951172658
2.7962247687719124
-0.6749377499072937
0.13873784083027377
2.796049408953972
-0.6749377499072937
0.13873784083027377
2.796049408953972
-0.6749377499072937
0.13873784083027377
2.796049408953972
-0.6749377499072937
0.13873784083027377
2.796049408953972
-0.6731584802538895
0.13939974719753906
2.795647664494096
-0.6731584802538895
0.13939974719753906
2.795647664494096
-0.6731584802538895
0.13939974719753906
2.795647664494096
-0.6731584802538895
0.13939974719753906
2.795647664494096
-0.6736104914667307
0.13924167375337348
2.794988561595448
-0.6736104914667307
0.13924167375337348
2.794988561595448
-0.6736104914667307
0.13924167375337348
2.794988561595448
-0.6736104914667307
0.13924167375337348
2.794988561595448
-0.6752129954769679
0.13860313455106302
2.7946267155206352
-0.6752129954769679
0.13860313455106302
2.7946267155206352
-0.6752129954769679
0.13860313455106302
2.7946267155206352
-0.6752129954769679
0.13860313455106302
2.7946267155206352
-0.6766051725295353
0.13836901918156472
2.794908577780885
-0.6766051725295353
0.13836901918156472
2.794908577780885
-0.6766051725295353
0.13836901918156472
2.794908577780885
-0.6766051725295353
0.13836901918156472
2.794908577780885
-0.6759951479702953
0.138870094291705
2.795330595371983
-0.6759951479702953
0.138870094291705
2.795330595371983
-0.6759951479702953
0.138870094291705
2.795330595371983
-0.6759951479702953
0.138870094291705
2.795330595371983
-0.6732960867718106
0.1394489304167637
2.7954914289775883
-0.6732960867718106
0.1394489304167637
2.7954914289775883
-0.6732960867718106
0.1394489304167637
2.7954914289775883
-0.6732960867718106
0.1394489304167637
2.7954914289775883
-0.6720351889759166
0.13920138009536084
2.7949465077175235
-0.6720351889759166
0.13920138009536084
2.7949465077175235
-0.6720351889759166
0.13920138009536084
2.7949465077175235
-0.6720351889759166
0.13920138009536084
2.7949465077175235
-0.6723994465568099
0.1384287241942886
2.793997413909019
-0.6723994465568099
0.1384287241942886
2.793997413909019
-0.6723994465568099
0.1384287241942886
2.793997413909019
-0.6723994465568099
0.1384287241942886
2.793997413909019
-0.6733267376122356
0.13735879826443215
2.793218206085269
-0.6733267376122356
0.13735879826443215
2.793218206085269
-0.6733267376122356
0.13735879826443215
2.793218206085269
-0.6733267376122356
0.13735879826443215
2.793218206085269
-0.6752215259854139
0.13623375456248474
2.79194227295892
-0.6752215259854139
0.13623375456248474
2.79194227295892
-0.6752215259854139
0.13623375456248474
2.79194227295892
-0.6752215259854139
0.13623375456248474
2.79194227295892
-0.6756736991834149
0.13532368859367266
2.7910361936705153
-0.6756736991834149
0.13532368859367266
2.7910361936705153
-0.6756736991834149
0.13532368859367266
2.7910361936705153
-0.6756736991834149
0.13532368859367266
2.7910361936705153
-0.6752444744708241
0.1346946859855635
2.7905216812917475
-0.6752444744708241
0.1346946859855635
2.7905216812917475
-0.6752444744708241
0.1346946859855635
2.7905216812917475
-0.6752444744708241
0.1346946859855635
2.7905216812917475
-0.6743674669285671
0.13406138136428103
2.7902096152543416
-0.6743674669285671
0.13406138136428103
2.7902096152543416
-0.6743674669285671
0.13406138136428103
2.7902096152543416
-0.6743674669285671
0.13406138136428103
2.7902096152543416
-0.6739630835680779
0.13326613140954904
2.7900270441809956
-0.6739630835680779
0.13326613140954904
2.7900270441809956
-0.6739630835680779
0.13326613140954904
2.7900270441809956
-0.6739630835680779
0.13326613140954904
2.7900270441809956
-0.6744326921453395
0.13208772588944612
2.7898548702932886
-0.6744326921453395
0.13208772588944612
2.7898548702932886
-0.6744326921453395
0.13208772588944612
2.7898548702932886
-0.6744326921453395
0.13208772588944612
2.7898548702932886
-0.6753793040666861
0.13097199560841005
2.789754100821987
-0.6753793040666861
0.13097199560841005
2.789754100821987
-0.6753793040666861
0.13097199560841005
2.789754100821987
-0.6753793040666861
0.13097199560841005
2.789754100821987
-0.6755577079045042
0.13031191533700773
2.789441504846845
-0.6755577079045042
0.13031191533700773
2.789441504846845
-0.6755577079045042
0.13031191533700773
2.789441504846845
-0.6755577079045042
0.13031191533700773
2.789441504846845
-0.6749717791755571
0.1297055555144324
2.788949241107403
-0.6749717791755571
0.1297055555144324
2.788949241107403
-0.6749717791755571
0.1297055555144324
2.788949241107403
-0.6749717791755571
0.1297055555144324
2.788949241107403
-0.6739123369254951
0.1293439473040256
2.7885529553922104
-0.6739123369254951
0.1293439473040256
2.7885529553922104
-0.6739123369254951
0.1293439473040256
2.7885529553922104
-0.6739123369254951
0.1293439473040256
2.7885529553922104
-0.6732165217176838
0.129068071776094
2.7882279913024606
-0.6732165217176838
0.129068071776094
2.7882279913024606
-0.6732165217176838
0.129068071776094
2.7882279913024606
-0.6732165217176838
0.129068071776094
2.7882279913024606
-0.6733262159472031
0.12869732668006495
2.7879462957230485
-0.6733262159472031
0.12869732668006495
2.7879462957230485
-0.6733262159472031
0.12869732668006495
2.7879462957230485
-0.6733262159472031
0.12869732668006495
2.7879462957230485
-0.6742275510443974
0.12861003880547706
2.787743965450789
-0.6742275510443974
0.12861003880547706
2.787743965450789
-0.6742275510443974
0.12861003880547706
2.787743965450789
-0.6742275510443974
0.12861003880547706
2.787743965450789
-0.6748758144716392
0.12869352758488364
2.787095702023547
-0.6748758144716392
0.12869352758488364
2.787095702023547
-0.6748758144716392
0.12869352758488364
2.787095702023547
-0.6748758144716392
0.12869352758488364
2.787095702023547
-0.6746043897019001
0.1290181120390571
2.7867449843160292
-0.6746043897019001
0.1290181120390571
2.7867449843160292
-0.6746043897019001
0.1290181120390571
2.7867449843160292
-0.6746043897019001
0.1290181120390571
2.7867449843160292
-0.6746713332782914
0.1295532958704589
2.786019547621849
-0.6746713332782914
0.1295532958704589
2.786019547621849
-0.6746713332782914
0.1295532958704589
2.786019547621849
-0.6746713332782914
0.1295532958704589
2.786019547621849
-0.6748291449272119
0.12995281665206337
2.7853351670270525
-0.6748291449272119
0.12995281665206337
2.7853351670270525
-0.6748291449272119
0.12995281665206337
2.7853351670270525
-0.6748291449272119
0.12995281665206337
2.7853351670270525
-0.6753924012022889
0.13043713407981414
2.7846990579891853
-0.6753924012022889
0.13043713407981414
2.7846990579891853
-0.6753924012022889
0.13043713407981414
2.7846990579891853
-0.6753924012022889
0.13043713407981414
2.7846990579891853
-0.6760705888130251
0.13173068081054154
2.7845369461806433
-0.6760705888130251
0.13173068081054154
2.7845369461806433
-0.6760705888130251
0.13173068081054154
2.7845369461806433
-0.6760705888130251
0.13173068081054154
2.7845369461806433
-0.6764587673402167
0.13366671586823017
2.784573052288206
-0.6764587673402167
0.13366671586823017
2.784573052288206
-0.6764587673402167
0.13366671586823017
2.784573052288206
-0.6764587673402167
0.13366671586823017
2.784573052288206
-0.6762641510427299
0.1361784005422108
2.7848738802152138
-0.6762641510427299
0.1361784005422108
2.7848738802152138
-0.6762641510427299
0.1361784005422108
2.7848738802152138
-0.6762641510427299
0.1361784005422108
2.7848738802152138
-0.6758182124593732
0.13937421426702237
2.7854659060024605
-0.6758182124593732
0.13937421426702237
2.7854659060024605
-0.6758182124593732
0.13937421426702237
2.7854659060024605
-0.6758182124593732
0.13937421426702237
2.7854659060024605
-0.6754903752069488
0.14343933411267704
2.786019428335911
-0.6754903752069488
0.14343933411267704
2.786019428335911
-0.6754903752069488
0.14343933411267704
2.786019428335911
-0.6754903752069488
0.14343933411267704
2.786019428335911
-0.6758069167038604
0.1471664151922898
2.786581307812124
-0.6758069167038604
0.1471664151922898
2.786581307812124
-0.6758069167038604
0.1471664151922898
2.786581307812124
-0.6758069167038604
0.1471664151922898
2.786581307812124
-0.6723660717600006
0.14899512402897222
2.7865281082586257
-0.6723660717600006
0.14899512402897222
2.7865281082586257
-0.6723660717600006
0.14899512402897222
2.7865281082586257
-0.6723660717600006
0.14899512402897222
2.7865281082586257
-0.6709228760010129
0.14878598791232173
2.7863964646360366
-0.6709228760010129
0.14878598791232173
2.7863964646360366
-0.6709228760010129
0.14878598791232173
2.7863964646360366
-0.6709228760010129
0.14878598791232173
2.7863964646360366
-0.6750784425568382
0.14753687348444178
2.7877234449270896
-0.6750784425568382
0.14753687348444178
2.7877234449270896
-0.6750784425568382
0.14753687348444178
2.7877234449270896
-0.6750784425568382
0.14753687348444178
2.7877234449270896
-0.6764180445705017
0.14702706039325225
2.78956818476174
-0.6764180445705017
0.14702706039325225
2.78956818476174
-0.6764180445705017
0.14702706039325225
2.78956818476174
-0.6764180445705017
0.14702706039325225
2.78956818476174
-0.6760643481870872
0.1457221900630308
2.7921876299081965
-0.6760643481870872
0.1457221900630308
2.7921876299081965
-0.6760643481870872
0.1457221900630308
2.7921876299081965
-0.6760643481870872
0.1457221900630308
2.7921876299081965
-0.6707386099580871
0.14390735251112616
2.7949956661187483
-0.6707386099580871
0.14390735251112616
2.7949956661187483
-0.6707386099580871
0.14390735251112616
2.7949956661187483
-0.6707386099580871
0.14390735251112616
2.7949956661187483
-0.6632480906296214
0.13993985815254503
2.797136555160773
-0.6632480906296214
0.13993985815254503
2.797136555160773
-0.6632480906296214
0.13993985815254503
2.797136555160773
-0.6632480906296214
0.13993985815254503
2.797136555160773
-0.6535846822184108
0.1357762803334664
2.8008841640322655
-0.6535846822184108
0.1357762803334664
2.8008841640322655
-0.6535846822184108
0.1357762803334664
2.8008841640322655
-0.6535846822184108
0.1357762803334664
2.8008841640322655
-0.6433484086590819
0.1305059443190388
2.8078903034519453
-0.6433484086590819
0.1305059443190388
2.8078903034519453
-0.6433484086590819
0.1305059443190388
2.8078903034519453
-0.6433484086590819
0.1305059443190388
2.8078903034519453
-0.6292753721969605
0.12548918638955955
2.815673613603269
-0.6292753721969605
0.12548918638955955
2.815673613603269
-0.6292753721969605
0.12548918638955955
2.815673613603269
-0.6292753721969605
0.12548918638955955
2.815673613603269
-0.6104077923034157
0.12188787868945279
2.820569873542588
-0.6104077923034157
0.12188787868945279
2.820569873542588
-0.6104077923034157
0.12188787868945279
2.820569873542588
-0.6104077923034157
0.12188787868945279
2.820569873542588
-0.6014304696676934
0.11892089180500263
2.823287107521673
-0.6014304696676934
0.11892089180500263
2.823287107521673
-0.6014304696676934
0.11892089180500263
2.823287107521673
-0.6014304696676934
0.11892089180500263
2.823287107521673
-0.5997573915594472
0.11565193269787513
2.8250245935129286
-0.5997573915594472
0.11565193269787513
2.8250245935129286
-0.5997573915594472
0.11565193269787513
2.8250245935129286
-0.5997573915594472
0.11565193269787513
2.8250245935129286
-0.5948351537070864
0.11118994955282749
2.827718123422197
-0.5948351537070864
0.11118994955282749
2.827718123422197
-0.5948351537070864
0.11118994955282749
2.827718123422197
-0.5948351537070864
0.11118994955282749
2.827718123422197
-0.5894620986260111
0.10857393745401384
2.8329566504121697
-0.5894620986260111
0.10857393745401384
2.8329566504121697
-0.5894620986260111
0.10857393745401384
2.8329566504121697
-0.5894620986260111
0.10857393745401384
2.8329566504121697
-0.5847109653668375
0.10730789866091464
2.83962573928235
-0.5847109653668375
0.10730789866091464
2.83962573928235
-0.5847109653668375
0.10730789866091464
2.83962573928235
-0.5847109653668375
0.10730789866091464
2.83962573928235
-0.5861750297396146
0.10485055787177759
2.8438598699484823
-0.5861750297396146
0.10485055787177759
2.8438598699484823
-0.5861750297396146
0.10485055787177759
2.8438598699484823
-0.5861750297396146
0.10485055787177759
2.8438598699484823
-0.5926220706230181
0.1006050954652683
2.8446791087149883
-0.5926220706230181
0.1006050954652683
2.8446791087149883
-0.5926220706230181
0.1006050954652683
2.8446791087149883
-0.5926220706230181
0.1006050954652683
2.8446791087149883
-0.5961980488259402
0.09517042178520349
2.8437224546561684
-0.5961980488259402
0.09517042178520349
2.8437224546561684
-0.5961980488259402
0.09517042178520349
2.8437224546561684
-0.5961980488259402
0.09517042178520349
2.8437224546561684
-0.5935035374265093
0.09001500947119548
2.8429955082903886
-0.5935035374265093
0.09001500947119548
2.8429955082903886
-0.5935035374265093
0.09001500947119548
2.8429955082903886
-0.5935035374265093
0.09001500947119548
2.8429955082903886
-0.5910401352907452
0.08697576226115812
2.843387947624882
-0.5910401352907452
0.08697576226115812
2.843387947624882
-0.5910401352907452
0.08697576226115812
2.843387947624882
-0.5910401352907452
0.08697576226115812
2.843387947624882
-0.589387172796155
0.08568872530064417
2.8448470370934684
-0.589387172796155
0.08568872530064417
2.8448470370934684
-0.589387172796155
0.08568872530064417
2.8448470370934684
-0.589387172796155
0.08568872530064417
2.8448470370934684
-0.5882269205132222
0.08443016619247243
2.8457143085940837
-0.5882269205132222
0.08443016619247243
2.8457143085940837
-0.5882269205132222
0.08443016619247243
2.8457143085940837
-0.5882269205132222
0.08443016619247243
2.8457143085940837
-0.5879356985596107
0.08376505654620538
2.8446646642334104
-0.5879356985596107
0.08376505654620538
2.8446646642334104
-0.5879356985596107
0.08376505654620538
2.8446646642334104
-0.5879356985596107
0.08376505654620538
2.8446646642334104
-0.5880171175999984
0.08490717725338041
2.842888861478792
-0.5880171175999984
0.08490717725338041
2.842888861478792
-0.5880171175999984
0.08490717725338041
2.842888861478792
-0.5880171175999984
0.08490717725338041
2.842888861478792
-0.5886367158757977
0.08794480416188658
2.841632728495028
-0.5886367158757977
0.08794480416188658
2.841632728495028
-0.5886367158757977
0.08794480416188658
2.841632728495028
-0.5886367158757977
0.08794480416188658
2.841632728495028
-0.5878674824041511
0.09129201168615163
2.8420805774154867
-0.5878674824041511
0.09129201168615163
2.8420805774154867
-0.5878674824041511
0.09129201168615163
2.8420805774154867
-0.5878674824041511
0.09129201168615163
2.8420805774154867
-0.5861394212306819
0.09413280769119022
2.8421357241271226
-0.5861394212306819
0.09413280769119022
2.8421357241271226
-0.5861394212306819
0.09413280769119022
2.8421357241271226
-0.5861394212306819
0.09413280769119022
2.8421357241271226
-0.5856375048528679
0.09664127315009176
2.8407713818959635
-0.5856375048528679
0.09664127315009176
2.8407713818959635
-0.5856375048528679
0.09664127315009176
2.8407713818959635
-0.5856375048528679
0.09664127315009176
2.8407713818959635
-0.5864988692808741
0.09949888430706907
2.838130517367992
-0.5864988692808741
0.09949888430706907
2.838130517367992
-0.5864988692808741
0.09949888430706907
2.838130517367992
-0.5864988692808741
0.09949888430706907
2.838130517367992
-0.5877713256866476
0.10281971425311726
2.835955031597681
-0.5877713256866476
0.10281971425311726
2.835955031597681
-0.5877713256866476
0.10281971425311726
2.835955031597681
-0.5877713256866476
0.10281971425311726
2.835955031597681
-0.5863421480241982
0.1068253972334837
2.835237408646828
-0.5863421480241982
0.1068253972334837
2.835237408646828
-0.5863421480241982
0.1068253972334837
2.835237408646828
-0.5863421480241982
0.1068253972334837
2.835237408646828
-0.5836825011462843
0.11020840553243003
2.8353630872491182
-0.5836825011462843
0.11020840553243003
2.8353630872491182
-0.5836825011462843
0.11020840553243003
2.8353630872491182
-0.5836825011462843
0.11020840553243003
2.8353630872491182
-0.5837900347418044
0.11346630423895869
2.8346104427751744
-0.5837900347418044
0.11346630423895869
2.8346104427751744
-0.5837900347418044
0.11346630423895869
2.8346104427751744
-0.5837900347418044
0.11346630423895869
2.8346104427751744
-0.5851503368897886
0.11678782071315232
2.8333093677214776
-0.5851503368897886
0.11678782071315232
2.8333093677214776
-0.5851503368897886
0.11678782071315232
2.8333093677214776
-0.5851503368897886
0.11678782071315232
2.8333093677214776
-0.5870016916015689
0.12058759326131896
2.8316818417114664
-0.5870016916015689
0.12058759326131896
2.8316818417114664
-0.5870016916015689
0.12058759326131896
2.8316818417114664
-0.5870016916015689
0.12058759326131896
2.8316818417114664
-0.5882730186814966
0.1258253892052127
2.829774894810916
-0.5882730186814966
0.1258253892052127
2.829774894810916
-0.5882730186814966
0.1258253892052127
2.829774894810916
-0.5882730186814966
0.1258253892052127
2.829774894810916
-0.5907364963583916
0.13285989056636616
2.8279506946099584
-0.5907364963583916
0.13285989056636616
2.8279506946099584
-0.5907364963583916
0.13285989056636616
2.8279506946099584
-0.5907364963583916
0.13285989056636616
2.8279506946099584
-0.590607434928117
0.14191158022877784
2.8264094180985007
-0.590607434928117
0.14191158022877784
2.8264094180985007
-0.590607434928117
0.14191158022877784
2.8264094180985007
-0.590607434928117
0.14191158022877784
2.8264094180985007
-0.601720872400038
0.15390916995766366
2.8220102217172167
-0.601720872400038
0.15390916995766366
2.8220102217172167
-0.601720872400038
0.15390916995766366
2.8220102217172167
-0.601720872400038
0.15390916995766366
2.8220102217172167
-0.6182313488425808
0.1690735367572393
2.814869859920009
-0.6182313488425808
0.1690735367572393
2.814869859920009
-0.6182313488425808
0.1690735367572393
2.814869859920009
-0.6182313488425808
0.1690735367572393
2.814869859920009
-0.6317568559243862
0.18544355795035672
2.8114759531511617
-0.6317568559243862
0.18544355795035672
2.8114759531511617
-0.6317568559243862
0.18544355795035672
2.8114759531511617
-0.6317568559243862
0.18544355795035672
2.8114759531511617
-0.6416836726682353
0.19829915272097007
2.8106534249642587
-0.6416836726682353
0.19829915272097007
2.8106534249642587
-0.6416836726682353
0.19829915272097007
2.8106534249642587
-0.6416836726682353
0.19829915272097007
2.8106534249642587
-0.6593798851797458
0.20735227270334164
2.8019292749691207
-0.6593798851797458
0.20735227270334164
2.8019292749691207
-0.6593798851797458
0.20735227270334164
2.8019292749691207
-0.6593798851797458
0.20735227270334164
2.8019292749691207
-0.6771972334520142
0.20500635675968665
2.79266231881183
-0.6771972334520142
0.20500635675968665
2.79266231881183
-0.6771972334520142
0.20500635675968665
2.79266231881183
-0.6771972334520142
0.20500635675968665
2.79266231881183
-0.6854838810164974
0.189667484503748
2.7971378304955077
-0.6854838810164974
0.189667484503748
2.7971378304955077
-0.6854838810164974
0.189667484503748
2.7971378304955077
-0.6854838810164974
0.189667484503748
2.7971378304955077
-0.6752257179636714
0.17844519138990445
2.8063733111477016
-0.6752257179636714
0.17844519138990445
2.8063733111477016
-0.6752257179636714
0.17844519138990445
2.8063733111477016
-0.6752257179636714
0.17844519138990445
2.8063733111477016
-0.6556806037190002
0.18010487825545093
2.8035688899735245
-0.6556806037190002
0.18010487825545093
2.8035688899735245
-0.6556806037190002
0.18010487825545093
2.8035688899735245
-0.6556806037190002
0.18010487825545093
2.8035688899735245
-0.6443166488581015
0.18185461847195897
2.798227529238281
-0.6443166488581015
0.18185461847195897
2.798227529238281
-0.6443166488581015
0.18185461847195897
2.798227529238281
-0.6443166488581015
0.18185461847195897
2.798227529238281
-0.641893847638165
0.17298230638010004
2.7961852855065943
-0.641893847638165
0.17298230638010004
2.7961852855065943
-0.641893847638165
0.17298230638010004
2.7961852855065943
-0.641893847638165
0.17298230638010004
2.7961852855065943
-0.6432003019922905
0.16646484767077618
2.7932987899933703
-0.6432003019922905
0.16646484767077618
2.7932987899933703
-0.6432003019922905
0.16646484767077618
2.7932987899933703
-0.6432003019922905
0.16646484767077618
2.7932987899933703
-0.650668333471702
0.16320775756817352
2.791161766736059
-0.650668333471702
0.16320775756817352
2.791161766736059
-0.650668333471702
0.16320775756817352
2.791161766736059
-0.650668333471702
0.16320775756817352
2.791161766736059
-0.6636748103564778
0.15840966459867126
2.7885383203476257
-0.6636748103564778
0.15840966459867126
2.7885383203476257
-0.6636748103564778
0.15840966459867126
2.7885383203476257
-0.6636748103564778
0.15840966459867126
2.7885383203476257
-0.6685331531786045
0.15550932749266866
2.785223919170944
-0.6685331531786045
0.15550932749266866
2.785223919170944
-0.6685331531786045
0.15550932749266866
2.785223919170944
-0.6685331531786045
0.15550932749266866
2.785223919170944
-0.6659168361410643
0.15503411703003162
2.783410295168061
-0.6659168361410643
0.15503411703003162
2.783410295168061
-0.6659168361410643
0.15503411703003162
2.783410295168061
-0.6659168361410643
0.15503411703003162
2.783410295168061
-0.6633653842521182
0.15538666025820685
2.7816690688106758
-0.6633653842521182
0.15538666025820685
2.7816690688106758
-0.6633653842521182
0.15538666025820685
2.7816690688106758
-0.6633653842521182
0.15538666025820685
2.7816690688106758
-0.6629402041397569
0.1558229487562278
2.7796164830468855
-0.6629402041397569
0.1558229487562278
2.7796164830468855
-0.6629402041397569
0.1558229487562278
2.7796164830468855
-0.6629402041397569
0.1558229487562278
2.7796164830468855
-0.665415089913425
0.1567163235468438
2.7782912074069315
-0.665415089913425
0.1567163235468438
2.7782912074069315
-0.665415089913425
0.1567163235468438
2.7782912074069315
-0.665415089913425
0.1567163235468438
2.7782912074069315
-0.6681107291821985
0.15776300258676845
2.777529562212063
-0.6681107291821985
0.15776300258676845
2.777529562212063
-0.6681107291821985
0.15776300258676845
2.777529562212063
-0.6681107291821985
0.15776300258676845
2.777529562212063
-0.6690676281170737
0.1589676251300202
2.7772200492732013
-0.6690676281170737
0.1589676251300202
2.7772200492732013
-0.6690676281170737
0.1589676251300202
2.7772200492732013
-0.6690676281170737
0.1589676251300202
2.7772200492732013
-0.6659888777052202
0.16067016988232477
2.777317805618475
-0.6659888777052202
0.16067016988232477
2.777317805618475
-0.6659888777052202
0.16067016988232477
2.777317805618475
-0.6659888777052202
0.16067016988232477
2.777317805618475
-0.6631237617487287
0.16185950197328391
2.7779627746873468
-0.6631237617487287
0.16185950197328391
2.7779627746873468
-0.6631237617487287
0.16185950197328391
2.7779627746873468
-0.6631237617487287
0.16185950197328391
2.7779627746873468
-0.661967493781529
0.16219077365018095
2.778396362800374
-0.661967493781529
0.16219077365018095
2.778396362800374
-0.661967493781529
0.16219077365018095
2.778396362800374
-0.661967493781529
0.16219077365018095
2.778396362800374
-0.661967493781529
0.16219077365018095
2.778396362800374
-0.661967493781529
0.16219077365018095
2.778396362800374
-0.661967493781529
0.16219077365018095
2.778396362800374
-0.661967493781529
0.16219077365018095
2.778396362800374
-0.6627654474933958
0.16165633031570248
2.777553824266576
-0.6627654474933958
0.16165633031570248
2.777553824266576
-0.6627654474933958
0.16165633031570248
2.777553824266576
-0.6627654474933958
0.16165633031570248
2.777553824266576
-0.6634205041983031
0.1607503748949899
2.7771288974577
-0.6634205041983031
0.1607503748949899
2.7771288974577
-0.6634205041983031
0.1607503748949899
2.7771288974577
-0.6634205041983031
0.1607503748949899
2.7771288974577
-0.6643235847117177
0.15999007797361026
2.7768876368193642
-0.6643235847117177
0.15999007797361026
2.7768876368193642
-0.6643235847117177
0.15999007797361026
2.7768876368193642
-0.6643235847117177
0.15999007797361026
2.7768876368193642
-0.6645368197324698
0.1591321876464587
2.777146258909701
-0.6645368197324698
0.1591321876464587
2.777146258909701
-0.6645368197324698
0.1591321876464587
2.777146258909701
-0.6645368197324698
0.1591321876464587
2.777146258909701
-0.6664453975886125
0.15858173714854318
2.777599725372485
-0.6664453975886125
0.15858173714854318
2.777599725372485
-0.6664453975886125
0.15858173714854318
2.777599725372485
-0.6664453975886125
0.15858173714854318
2.777599725372485
-0.6687442703677847
0.15854851615175308
2.777819304067151
-0.6687442703677847
0.15854851615175308
2.777819304067151
-0.6687442703677847
0.15854851615175308
2.777819304067151
-0.6687442703677847
0.15854851615175308
2.777819304067151
-0.6695347846581295
0.15852099535159858
2.777718761749506
-0.6695347846581295
0.15852099535159858
2.777718761749506
-0.6695347846581295
0.15852099535159858
2.777718761749506
-0.6695347846581295
0.15852099535159858
2.777718761749506
-0.6696005039433367
0.1586351988290903
2.7776530424642987
-0.6696005039433367
0.1586351988290903
2.7776530424642987
-0.6696005039433367
0.1586351988290903
2.7776530424642987
-0.6696005039433367
0.1586351988290903
2.7776530424642987
-0.6682937869052595
0.15815833566800902
2.777631406650065
-0.6682937869052595
0.15815833566800902
2.777631406650065
-0.6682937869052595
0.15815833566800902
2.777631406650065
-0.6682937869052595
0.15815833566800902
2.777631406650065
-0.6665710261670329
0.15670675312648202
2.7776013113301965
-0.6665710261670329
0.15670675312648202
2.7776013113301965
-0.6665710261670329
0.15670675312648202
2.7776013113301965
-0.6665710261670329
0.15670675312648202
2.7776013113301965
-0.6662488711963712
0.15472343040100006
2.77703989797279
-0.6662488711963712
0.15472343040100006
2.77703989797279
-0.6662488711963712
0.15472343040100006
2.77703989797279
-0.6662488711963712
0.15472343040100006
2.77703989797279
-0.6668282191175092
0.15236628641222086
2.7766386739935216
-0.6668282191175092
0.15236628641222086
2.7766386739935216
-0.6668282191175092
0.15236628641222086
2.7766386739935216
-0.6668282191175092
0.15236628641222086
2.7766386739935216
-0.6675884173061087
0.15080802502316576
2.7763088833347176
-0.6675884173061087
0.15080802502316576
2.7763088833347176
-0.6675884173061087
0.15080802502316576
2.7763088833347176
-0.6675884173061087
0.15080802502316576
2.7763088833347176
-0.6684578384227752
0.1497108497997528
2.7761738109159997
-0.6684578384227752
0.1497108497997528
2.7761738109159997
-0.6684578384227752
0.1497108497997528
2.7761738109159997
-0.6684578384227752
0.1497108497997528
2.7761738109159997
-0.6686398929681056
0.14888752714426748
2.7754020833911284
-0.6686398929681056
0.14888752714426748
2.7754020833911284
-0.6686398929681056
0.14888752714426748
2.7754020833911284
-0.6686398929681056
0.14888752714426748
2.7754020833911284
-0.6679712404250573
0.1490098357149807
2.774668000118833
-0.6679712404250573
0.1490098357149807
2.774668000118833
-0.6679712404250573
0.1490098357149807
2.774668000118833
-0.6679712404250573
0.1490098357149807
2.774668000118833
-0.6673511357634975
0.14935768337249308
2.773851558129582
-0.6673511357634975
0.14935768337249308
2.773851558129582
-0.6673511357634975
0.14935768337249308
2.773851558129582
-0.6673511357634975
0.14935768337249308
2.773851558129582
-0.6673332425812648
0.14976676958114596
2.773030291557541
-0.6673332425812648
0.14976676958114596
2.773030291557541
-0.6673332425812648
0.14976676958114596
2.773030291557541
-0.6673332425812648
0.14976676958114596
2.773030291557541
-0.6685131226169673
0.15025309223772923
2.772700196206204
-0.6685131226169673
0.15025309223772923
2.772700196206204
-0.6685131226169673
0.15025309223772923
2.772700196206204
-0.6685131226169673
0.15025309223772923
2.772700196206204
-0.6700765291782851
0.15103057443136242
2.7721941931582026
-0.6700765291782851
0.15103057443136242
2.7721941931582026
-0.6700765291782851
0.15103057443136242
2.7721941931582026
-0.6700765291782851
0.15103057443136242
2.7721941931582026
-0.670447778155299
0.1517388899113794
2.772170644359124
-0.670447778155299
0.1517388899113794
2.772170644359124
-0.670447778155299
0.1517388899113794
2.772170644359124
-0.670447778155299
0.1517388899113794
2.772170644359124
-0.6701584071286024
0.15278614879886418
2.7723406503741863
-0.6701584071286024
0.15278614879886418
2.7723406503741863
-0.6701584071286024
0.15278614879886418
2.7723406503741863
-0.6701584071286024
0.15278614879886418
2.7723406503741863
-0.6686308627654868
0.15341640842487367
2.772737295039766
-0.6686308627654868
0.15341640842487367
2.772737295039766
-0.6686308627654868
0.15341640842487367
2.772737295039766
-0.6686308627654868
0.15341640842487367
2.772737295039766
-0.6669209904953186
0.153973252544511
2.7727719099106607
-0.6669209904953186
0.153973252544511
2.7727719099106607
-0.6669209904953186
0.153973252544511
2.7727719099106607
-0.6669209904953186
0.153973252544511
2.7727719099106607
-0.6661848393124641
0.15446836244493473
2.772299892040473
-0.6661848393124641
0.15446836244493473
2.772299892040473
-0.6661848393124641
0.15446836244493473
2.772299892040473
-0.6661848393124641
0.15446836244493473
2.772299892040473
-0.6670088537805964
0.15466954188862897
2.771329888520759
-0.6670088537805964
0.15466954188862897
2.771329888520759
-0.6670088537805964
0.15466954188862897
2.771329888520759
-0.6670088537805964
0.15466954188862897
2.771329888520759
-0.6681855507932064
0.15484958821933195
2.7708274312973558
-0.6681855507932064
0.15484958821933195
2.7708274312973558
-0.6681855507932064
0.15484958821933195
2.7708274312973558
-0.6681855507932064
0.15484958821933195
2.7708274312973558
-0.6689108716841488
0.1550684691719567
2.770647060488479
-0.6689108716841488
0.1550684691719567
2.770647060488479
-0.6689108716841488
0.1550684691719567
2.770647060488479
-0.6689108716841488
0.1550684691719567
2.770647060488479
-0.6693624344803333
0.1550290596935489
2.770324719299989
-0.6693624344803333
0.1550290596935489
2.770324719299989
-0.6693624344803333
0.1550290596935489
2.770324719299989
-0.6693624344803333
0.1550290596935489
2.770324719299989
-0.6700442963918731
0.15485898260903902
2.769772091335426
-0.6700442963918731
0.15485898260903902
2.769772091335426
-0.6700442963918731
0.15485898260903902
2.769772091335426
-0.6700442963918731
0.15485898260903902
2.769772091335426
-0.6706341763863377
0.15490724466536143
2.7694069286250933
-0.6706341763863377
0.15490724466536143
2.7694069286250933
-0.6706341763863377
0.15490724466536143
2.7694069286250933
-0.6706341763863377
0.15490724466536143
2.7694069286250933
-0.6707080365175315
0.15524433220415607
2.7692824012818797
-0.6707080365175315
0.15524433220415607
2.7692824012818797
-0.6707080365175315
0.15524433220415607
2.7692824012818797
-0.6707080365175315
0.15524433220415607
2.7692824012818797
-0.6711842977617151
0.15531668551105018
2.7689184773286106
-0.6711842977617151
0.15531668551105018
2.7689184773286106
-0.6711842977617151
0.15531668551105018
2.7689184773286106
-0.6711842977617151
0.15531668551105018
2.7689184773286106
-0.6711842977617151
0.15531668551105018
2.7689184773286106
-0.6711842977617151
0.15531668551105018
2.7689184773286106
-0.6711842977617151
0.15531668551105018
2.7689184773286106
-0.6711842977617151
0.15531668551105018
2.7689184773286106
-0.6708606369660548
0.15443013847229908
2.76889401802989
-0.6708606369660548
0.15443013847229908
2.76889401802989
-0.6708606369660548
0.15443013847229908
2.76889401802989
-0.6708606369660548
0.15443013847229908
2.76889401802989
-0.6700419704225764
0.15359866678747333
2.768785320596772
-0.6700419704225764
0.15359866678747333
2.768785320596772
-0.6700419704225764
0.15359866678747333
2.768785320596772
-0.6700419704225764
0.15359866678747333
2.768785320596772
-0.6685018434853172
0.15242652854164665
2.7685142850249664
-0.6685018434853172
0.15242652854164665
2.7685142850249664
-0.6685018434853172
0.15242652854164665
2.7685142850249664
-0.6685018434853172
0.15242652854164665
2.7685142850249664
-0.6678336848189059
0.15082244880302226
2.7681283470225275
-0.6678336848189059
0.15082244880302226
2.7681283470225275
-0.6678336848189059
0.15082244880302226
2.7681283470225275
-0.6678336848189059
0.15082244880302226
2.7681283470225275
-0.6679800339803843
0.149258882116048
2.7674897565920276
-0.6679800339803843
0.149258882116048
2.7674897565920276
-0.6679800339803843
0.149258882116048
2.7674897565920276
-0.6679800339803843
0.149258882116048
2.7674897565920276
-0.6682834380383392
0.14809984473495888
2.7673365056737382
-0.6682834380383392
0.14809984473495888
2.7673365056737382
-0.6682834380383392
0.14809984473495888
2.7673365056737382
-0.6682834380383392
0.14809984473495888
2.7673365056737382
-0.6694221595052129
0.14725662499305062
2.7673462534661852
-0.6694221595052129
0.14725662499305062
2.7673462534661852
-0.6694221595052129
0.14725662499305062
2.7673462534661852
-0.6694221595052129
0.14725662499305062
2.7673462534661852
-0.6694919722082487
0.1467622612929511
2.7667461098702786
-0.6694919722082487
0.1467622612929511
2.7667461098702786
-0.6694919722082487
0.1467622612929511
2.7667461098702786
-0.6694919722082487
0.1467622612929511
2.7667461098702786
-0.6689695451755819
0.14623633664541988
2.766077887445099
-0.6689695451755819
0.14623633664541988
2.766077887445099
-0.6689695451755819
0.14623633664541988
2.766077887445099
-0.6689695451755819
0.14623633664541988
2.766077887445099
-0.6683149205383223
0.1459283366560909
2.765620866730144
-0.6683149205383223
0.1459283366560909
2.765620866730144
-0.6683149205383223
0.1459283366560909
2.765620866730144
-0.6683149205383223
0.1459283366560909
2.765620866730144
-0.6684047404378338
0.14575074182646158
2.7655476604456157
-0.6684047404378338
0.14575074182646158
2.7655476604456157
-0.6684047404378338
0.14575074182646158
2.7655476604456157
-0.6684047404378338
0.14575074182646158
2.7655476604456157
-0.6684214594882547
0.1451950465812505
2.7654845411979525
-0.6684214594882547
0.1451950465812505
2.7654845411979525
-0.6684214594882547
0.1451950465812505
2.7654845411979525
-0.6684214594882547
0.1451950465812505
2.7654845411979525
-0.6686414792733852
0.14488140663897708
2.7654272694301207
-0.6686414792733852
0.14488140663897708
2.7654272694301207
-0.6686414792733852
0.14488140663897708
2.7654272694301207
-0.6686414792733852
0.14488140663897708
2.7654272694301207
-0.6678787272297533
0.14494451192241892
2.7652536802383234
-0.6678787272297533
0.14494451192241892
2.7652536802383234
-0.6678787272297533
0.14494451192241892
2.7652536802383234
-0.6678787272297533
0.14494451192241892
2.7652536802383234
-0.6677029573844779
0.1450958818536712
2.764831876212833
-0.6677029573844779
0.1450958818536712
2.764831876212833
-0.6677029573844779
0.1450958818536712
2.764831876212833
-0.6677029573844779
0.1450958818536712
2.764831876212833
-0.6676828167754352
0.1451828941212364
2.7642710336183827
-0.6676828167754352
0.1451828941212364
2.7642710336183827
-0.6676828167754352
0.1451828941212364
2.7642710336183827
-0.6676828167754352
0.1451828941212364
2.7642710336183827
-0.6677840539971531
0.14595436576984547
2.7638450770907346
-0.6677840539971531
0.14595436576984547
2.7638450770907346
-0.6677840539971531
0.14595436576984547
2.7638450770907346
-0.6677840539971531
0.14595436576984547
2.7638450770907346
-0.6677299640341452
0.1467902777748996
2.763558198944411
-0.6677299640341452
0.1467902777748996
2.763558198944411
-0.6677299640341452
0.1467902777748996
2.763558198944411
-0.6677299640341452
0.1467902777748996
2.763558198944411
-0.668532968975851
0.14762468877444135
2.7628820471935516
-0.668532968975851
0.14762468877444135
2.7628820471935516
-0.668532968975851
0.14762468877444135
2.7628820471935516
-0.668532968975851
0.14762468877444135
2.7628820471935516
-0.6695671219259804
0.14873098739164464
2.7619417419375303
-0.6695671219259804
0.14873098739164464
2.7619417419375303
-0.6695671219259804
0.14873098739164464
2.7619417419375303
-0.6695671219259804
0.14873098739164464
2.7619417419375303
-0.6705205947845199
0.1502789616605137
2.761128876258482
-0.6705205947845199
0.1502789616605137
2.761128876258482
-0.6705205947845199
0.1502789616605137
2.761128876258482
-0.6705205947845199
0.1502789616605137
2.761128876258482
-0.6720348456395684
0.15196436599072233
2.7605594410189607
-0.6720348456395684
0.15196436599072233
2.7605594410189607
-0.6720348456395684
0.15196436599072233
2.7605594410189607
-0.6720348456395684
0.15196436599072233
2.7605594410189607
-0.6740834729021393
0.15323053562793784
2.7601954076360693
-0.6740834729021393
0.15323053562793784
2.7601954076360693
-0.6740834729021393
0.15323053562793784
2.7601954076360693
-0.6740834729021393
0.15323053562793784
2.7601954076360693
-0.676049010630025
0.1544677441638525
2.759333972546019
-0.676049010630025
0.1544677441638525
2.759333972546019
-0.676049010630025
0.1544677441638525
2.759333972546019
-0.676049010630025
0.1544677441638525
2.759333972546019
-0.6761068016424515
0.1559892931235575
2.7583860645672167
-0.6761068016424515
0.1559892931235575
2.7583860645672167
-0.6761068016424515
0.1559892931235575
2.7583860645672167
-0.6761068016424515
0.1559892931235575
2.7583860645672167
-0.6736987637870793
0.15863235650297208
2.7574955003757458
-0.6736987637870793
0.15863235650297208
2.7574955003757458
-0.6736987637870793
0.15863235650297208
2.7574955003757458
-0.6736987637870793
0.15863235650297208
2.7574955003757458
-0.6699923202609611
0.16191052268820835
2.7571246013442945
-0.6699923202609611
0.16191052268820835
2.7571246013442945
-0.6699923202609611
0.16191052268820835
2.7571246013442945
-0.6699923202609611
0.16191052268820835
2.7571246013442945
-0.6657441368789897
0.16295969297888263
2.7589540806184347
-0.6657441368789897
0.16295969297888263
2.7589540806184347
-0.6657441368789897
0.16295969297888263
2.7589540806184347
-0.6657441368789897
0.16295969297888263
2.7589540806184347
-0.6661075702280268
0.1625591327752009
2.763106954418724
-0.6661075702280268
0.1625591327752009
2.763106954418724
-0.6661075702280268
0.1625591327752009
2.763106954418724
-0.6661075702280268
0.1625591327752009
2.763106954418724
-0.6666952368425633
0.1608505071483331
2.7682278562966354
-0.6666952368425633
0.1608505071483331
2.7682278562966354
-0.6666952368425633
0.1608505071483331
2.7682278562966354
-0.6666952368425633
0.1608505071483331
2.7682278562966354
-0.6653739371761875
0.1575726183578947
2.7724834731609933
-0.6653739371761875
0.1575726183578947
2.7724834731609933
-0.6653739371761875
0.1575726183578947
2.7724834731609933
-0.6653739371761875
0.1575726183578947
2.7724834731609933
-0.6566160765177025
0.15387899666031743
2.7779172825350393
-0.6566160765177025
0.15387899666031743
2.7779172825350393
-0.6566160765177025
0.15387899666031743
2.7779172825350393
-0.6566160765177025
0.15387899666031743
2.7779172825350393
-0.6520081274867039
0.1502908539278191
2.785292839892042
-0.6520081274867039
0.1502908539278191
2.785292839892042
-0.6520081274867039
0.1502908539278191
2.785292839892042
-0.6520081274867039
0.1502908539278191
2.785292839892042
-0.6446370454739734
0.14596085014887256
2.793669621799345
-0.6446370454739734
0.14596085014887256
2.793669621799345
-0.6446370454739734
0.14596085014887256
2.793669621799345
-0.6446370454739734
0.14596085014887256
2.793669621799345
-0.6311047502955891
0.14251872606802404
2.8003719210704263
-0.6311047502955891
0.14251872606802404
2.8003719210704263
-0.6311047502955891
0.14251872606802404
2.8003719210704263
-0.6311047502955891
0.14251872606802404
2.8003719210704263
-0.6111417046127317
0.13986590541064944
2.8054309802867627
-0.6111417046127317
0.13986590541064944
2.8054309802867627
-0.6111417046127317
0.13986590541064944
2.8054309802867627
-0.6111417046127317
0.13986590541064944
2.8054309802867627
-0.5955022317394182
0.138549172316356
2.809446861051307
-0.5955022317394182
0.138549172316356
2.809446861051307
-0.5955022317394182
0.138549172316356
2.809446861051307
-0.5955022317394182
0.138549172316356
2.809446861051307
-0.5890224201484898
0.1359390312392657
2.8119506147489037
-0.5890224201484898
0.1359390312392657
2.8119506147489037
-0.5890224201484898
0.1359390312392657
2.8119506147489037
-0.5890224201484898
0.1359390312392657
2.8119506147489037
-0.5860708574598108
0.13153597330441516
2.814951611954848
-0.5860708574598108
0.13153597330441516
2.814951611954848
-0.5860708574598108
0.13153597330441516
2.814951611954848
-0.5860708574598108
0.13153597330441516
2.814951611954848
-0.5902397992874925
0.12739261971148086
2.817975536875109
-0.5902397992874925
0.12739261971148086
2.817975536875109
-0.5902397992874925
0.12739261971148086
2.817975536875109
-0.5902397992874925
0.12739261971148086
2.817975536875109
-0.5941396853718857
0.12318604216824253
2.820153004665907
-0.5941396853718857
0.12318604216824253
2.820153004665907
-0.5941396853718857
0.12318604216824253
2.820153004665907
-0.5941396853718857
0.12318604216824253
2.820153004665907
-0.595318172940459
0.11758178095846548
2.8215271469440864
-0.595318172940459
0.11758178095846548
2.8215271469440864
-0.595318172940459
0.11758178095846548
2.8215271469440864
-0.595318172940459
0.11758178095846548
2.8215271469440864
-0.593599392211291
0.11103219895711067
2.8231226090280925
-0.593599392211291
0.11103219895711067
2.8231226090280925
-0.593599392211291
0.11103219895711067
2.8231226090280925
-0.593599392211291
0.11103219895711067
2.8231226090280925
-0.5917867763941553
0.10561742180663768
2.8240929030162856
-0.5917867763941553
0.10561742180663768
2.8240929030162856
-0.5917867763941553
0.10561742180663768
2.8240929030162856
-0.5917867763941553
0.10561742180663768
2.8240929030162856
-0.5930576098589366
0.10140274624567822
2.824515086181159
-0.5930576098589366
0.10140274624567822
2.824515086181159
-0.5930576098589366
0.10140274624567822
2.824515086181159
-0.5930576098589366
0.10140274624567822
2.824515086181159
-0.5916304743342187
0.09737618282635714
2.826439127354014
-0.5916304743342187
0.09737618282635714
2.826439127354014
-0.5916304743342187
0.09737618282635714
2.826439127354014
-0.5916304743342187
0.09737618282635714
2.826439127354014
-0.5890247496423374
0.09377580029614123
2.8283230333475764
-0.5890247496423374
0.09377580029614123
2.8283230333475764
-0.5890247496423374
0.09377580029614123
2.8283230333475764
-0.5890247496423374
0.09377580029614123
2.8283230333475764
-0.5880919402675211
0.09137631501762564
2.828503234525201
-0.5880919402675211
0.09137631501762564
2.828503234525201
-0.5880919402675211
0.09137631501762564
2.828503234525201
-0.5880919402675211
0.09137631501762564
2.828503234525201
-0.5886384415032658
0.09075211744332849
2.8270945463008914
-0.5886384415032658
0.09075211744332849
2.8270945463008914
-0.5886384415032658
0.09075211744332849
2.8270945463008914
-0.5886384415032658
0.09075211744332849
2.8270945463008914
-0.5856544034366684
0.09179833239011795
2.8265306311252356
-0.5856544034366684
0.09179833239011795
2.8265306311252356
-0.5856544034366684
0.09179833239011795
2.8265306311252356
-0.5856544034366684
0.09179833239011795
2.8265306311252356
-0.5836926280522386
0.09301301040615496
2.827509272730294
-0.5836926280522386
0.09301301040615496
2.827509272730294
-0.5836926280522386
0.09301301040615496
2.827509272730294
-0.5836926280522386
0.09301301040615496
2.827509272730294
-0.5832792489996886
0.09403163325354813
2.8281441187216987
-0.5832792489996886
0.09403163325354813
2.8281441187216987
-0.5832792489996886
0.09403163325354813
2.8281441187216987
-0.5832792489996886
0.09403163325354813
2.8281441187216987
-0.58514023230575
0.0952176243801266
2.827329222005933
-0.58514023230575
0.0952176243801266
2.827329222005933
-0.58514023230575
0.0952176243801266
2.827329222005933
-0.58514023230575
0.0952176243801266
2.827329222005933
-0.5864897860940749
0.09686307520681495
2.825659560688469
-0.5864897860940749
0.09686307520681495
2.825659560688469
-0.5864897860940749
0.09686307520681495
2.825659560688469
-0.5864897860940749
0.09686307520681495
2.825659560688469
-0.5864702502771865
0.09936646414169749
2.8236031282594607
-0.5864702502771865
0.09936646414169749
2.8236031282594607
-0.5864702502771865
0.09936646414169749
2.8236031282594607
-0.5864702502771865
0.09936646414169749
2.8236031282594607
-0.5853652603218409
0.10220208753138982
2.822590600305807
-0.5853652603218409
0.10220208753138982
2.822590600305807
-0.5853652603218409
0.10220208753138982
2.822590600305807
-0.5853652603218409
0.10220208753138982
2.822590600305807
-0.5841039504873772
0.10500721481173204
2.8222310768616055
-0.5841039504873772
0.10500721481173204
2.8222310768616055
-0.5841039504873772
0.10500721481173204
2.8222310768616055
-0.5841039504873772
0.10500721481173204
2.8222310768616055
-0.5845803723675911
0.10704042630945604
2.8223300285826
-0.5845803723675911
0.10704042630945604
2.8223300285826
-0.5845803723675911
0.10704042630945604
2.8223300285826
-0.5845803723675911
0.10704042630945604
2.8223300285826
-0.5853053537457518
0.10881139243041232
2.8220951913234056
-0.5853053537457518
0.10881139243041232
2.8220951913234056
-0.5853053537457518
0.10881139243041232
2.8220951913234056
-0.5853053537457518
0.10881139243041232
2.8220951913234056
-0.5849415147168388
0.11077285455774147
2.821524569159946
-0.5849415147168388
0.11077285455774147
2.821524569159946
-0.5849415147168388
0.11077285455774147
2.821524569159946
-0.5849415147168388
0.11077285455774147
2.821524569159946
-0.5839466054965105
0.1126146195729857
2.8206687836434376
-0.5839466054965105
0.1126146195729857
2.8206687836434376
-0.5839466054965105
0.1126146195729857
2.8206687836434376
-0.5839466054965105
0.1126146195729857
2.8206687836434376
-0.5837549103071491
0.11415509694194792
2.8200900214452385
-0.5837549103071491
0.11415509694194792
2.8200900214452385
-0.5837549103071491
0.11415509694194792
2.8200900214452385
-0.5837549103071491
0.11415509694194792
2.8200900214452385
-0.5841021871010692
0.11591495256611273
2.8196457757268876
-0.5841021871010692
0.11591495256611273
2.8196457757268876
-0.5841021871010692
0.11591495256611273
2.8196457757268876
-0.5841021871010692
0.11591495256611273
2.8196457757268876
-0.5841835422349364
0.1178962543087491
2.8188801309235623
-0.5841835422349364
0.1178962543087491
2.8188801309235623
-0.5841835422349364
0.1178962543087491
2.8188801309235623
-0.5841835422349364
0.1178962543087491
2.8188801309235623
-0.5847911643024076
0.11976712181932833
2.8175893521355073
-0.5847911643024076
0.11976712181932833
2.8175893521355073
-0.5847911643024076
0.11976712181932833
2.8175893521355073
-0.5847911643024076
0.11976712181932833
2.8175893521355073
-0.5879449095517891
0.12145413818586669
2.815170187447384
-0.5879449095517891
0.12145413818586669
2.815170187447384
-0.5879449095517891
0.12145413818586669
2.815170187447384
-0.5879449095517891
0.12145413818586669
2.815170187447384
-0.590101289701374
0.12278365303302569
2.8128485584627967
-0.590101289701374
0.12278365303302569
2.8128485584627967
-0.590101289701374
0.12278365303302569
2.8128485584627967
-0.590101289701374
0.12278365303302569
2.8128485584627967
-0.5923366643890458
0.124447304718455
2.810775605417592
-0.5923366643890458
0.124447304718455
2.810775605417592
-0.5923366643890458
0.124447304718455
2.810775605417592
-0.5923366643890458
0.124447304718455
2.810775605417592
-0.5939026838042213
0.12765676756656147
2.807907935318513
-0.5939026838042213
0.12765676756656147
2.807907935318513
-0.5939026838042213
0.12765676756656147
2.807907935318513
-0.5939026838042213
0.12765676756656147
2.807907935318513
-0.5980358627559574
0.13373824201099577
2.803302955395328
-0.5980358627559574
0.13373824201099577
2.803302955395328
-0.5980358627559574
0.13373824201099577
2.803302955395328
-0.5980358627559574
0.13373824201099577
2.803302955395328
-0.6068877834530411
0.14333610497105123
2.799249549534271
-0.6068877834530411
0.14333610497105123
2.799249549534271
-0.6068877834530411
0.14333610497105123
2.799249549534271
-0.6068877834530411
0.14333610497105123
2.799249549534271
-0.6179033212032872
0.15853168284980465
2.798290575105725
-0.6179033212032872
0.15853168284980465
2.798290575105725
-0.6179033212032872
0.15853168284980465
2.798290575105725
-0.6179033212032872
0.15853168284980465
2.798290575105725
-0.6283297878026427
0.17339100928178391
2.797854105284078
-0.6283297878026427
0.17339100928178391
2.797854105284078
-0.6283297878026427
0.17339100928178391
2.797854105284078
-0.6283297878026427
0.17339100928178391
2.797854105284078
-0.6445911280063099
0.18218426012631847
2.7915491587263572
-0.6445911280063099
0.18218426012631847
2.7915491587263572
-0.6445911280063099
0.18218426012631847
2.7915491587263572
-0.6445911280063099
0.18218426012631847
2.7915491587263572
-0.6577472706646246
0.17749015322576334
2.783522784384428
-0.6577472706646246
0.17749015322576334
2.783522784384428
-0.6577472706646246
0.17749015322576334
2.783522784384428
-0.6577472706646246
0.17749015322576334
2.783522784384428
-0.6682350613513449
0.16150130157886375
2.7848237783517367
-0.6682350613513449
0.16150130157886375
2.7848237783517367
-0.6682350613513449
0.16150130157886375
2.7848237783517367
-0.6682350613513449
0.16150130157886375
2.7848237783517367
-0.6634968499043424
0.1489847827113609
2.7919331642414793
-0.6634968499043424
0.1489847827113609
2.7919331642414793
-0.6634968499043424
0.1489847827113609
2.7919331642414793
-0.6634968499043424
0.1489847827113609
2.7919331642414793
-0.6522148101016203
0.14885868928701487
2.791134335724993
-0.6522148101016203
0.14885868928701487
2.791134335724993
-0.6522148101016203
0.14885868928701487
2.791134335724993
-0.6522148101016203
0.14885868928701487
2.791134335724993
-0.6453241375217719
0.1527250561021551
2.7843086302199223
-0.6453241375217719
0.1527250561021551
2.7843086302199223
-0.6453241375217719
0.1527250561021551
2.7843086302199223
-0.6453241375217719
0.1527250561021551
2.7843086302199223
-0.6430725283962331
0.14727228903877435
2.783894063838584
-0.6430725283962331
0.14727228903877435
2.783894063838584
-0.6430725283962331
0.14727228903877435
2.783894063838584
-0.6430725283962331
0.14727228903877435
2.783894063838584
-0.6403888753231183
0.1405739175853872
2.783025437749109
-0.6403888753231183
0.1405739175853872
2.783025437749109
-0.6403888753231183
0.1405739175853872
2.783025437749109
-0.6403888753231183
0.1405739175853872
2.783025437749109
-0.6360231603260668
0.13901659023534302
2.7800769957514073
-0.6360231603260668
0.13901659023534302
2.7800769957514073
-0.6360231603260668
0.13901659023534302
2.7800769957514073
-0.6360231603260668
0.13901659023534302
2.7800769957514073
-0.6412631586361782
0.1360004915055879
2.7782105356511573
-0.6412631586361782
0.1360004915055879
2.7782105356511573
-0.6412631586361782
0.1360004915055879
2.7782105356511573
-0.6412631586361782
0.1360004915055879
2.7782105356511573
-0.6525463442760191
0.13162098426817959
2.7756807493372655
-0.6525463442760191
0.13162098426817959
2.7756807493372655
-0.6525463442760191
0.13162098426817959
2.7756807493372655
-0.6525463442760191
0.13162098426817959
2.7756807493372655
-0.6564394652962487
0.12922592173383074
2.773139209734786
-0.6564394652962487
0.12922592173383074
2.773139209734786
-0.6564394652962487
0.12922592173383074
2.773139209734786
-0.6564394652962487
0.12922592173383074
2.773139209734786
-0.6549705769054383
0.12887760750904528
2.7717486956893427
-0.6549705769054383
0.12887760750904528
2.7717486956893427
-0.6549705769054383
0.12887760750904528
2.7717486956893427
-0.6549705769054383
0.12887760750904528
2.7717486956893427
-0.6521805080516268
0.12996963373035028
2.7700063614329045
-0.6521805080516268
0.12996963373035028
2.7700063614329045
-0.6521805080516268
0.12996963373035028
2.7700063614329045
-0.6521805080516268
0.12996963373035028
2.7700063614329045
-0.6506006607577552
0.13172733307603363
2.7685701536701894
-0.6506006607577552
0.13172733307603363
2.7685701536701894
-0.6506006607577552
0.13172733307603363
2.7685701536701894
-0.6506006607577552
0.13172733307603363
2.7685701536701894
-0.6514488503846423
0.1337465753382474
2.767484020305464
-0.6514488503846423
0.1337465753382474
2.767484020305464
-0.6514488503846423
0.1337465753382474
2.767484020305464
-0.6514488503846423
0.1337465753382474
2.767484020305464
-0.6541986908405023
0.1363053253875907
2.766620316645785
-0.6541986908405023
0.1363053253875907
2.766620316645785
-0.6541986908405023
0.1363053253875907
2.766620316645785
-0.6541986908405023
0.1363053253875907
2.766620316645785
-0.6564554698618374
0.13863514385501546
2.766034925131864
-0.6564554698618374
0.13863514385501546
2.766034925131864
-0.6564554698618374
0.13863514385501546
2.766034925131864
-0.6564554698618374
0.13863514385501546
2.766034925131864
-0.6578515958158778
0.14069729726893374
2.765773024413638
-0.6578515958158778
0.14069729726893374
2.765773024413638
-0.6578515958158778
0.14069729726893374
2.765773024413638
-0.6578515958158778
0.14069729726893374
2.765773024413638
-0.6587844947287582
0.1415025654517503
2.76589120295606
-0.6587844947287582
0.1415025654517503
2.76589120295606
-0.6587844947287582
0.1415025654517503
2.76589120295606
-0.6587844947287582
0.1415025654517503
2.76589120295606
-0.6591259880177942
0.14219585988592062
2.765711448526651
-0.6591259880177942
0.14219585988592062
2.765711448526651
-0.6591259880177942
0.14219585988592062
2.765711448526651
-0.6591259880177942
0.14219585988592062
2.765711448526651
-0.6585780707293076
0.1435954272671153
2.7660820945954323
-0.6585780707293076
0.1435954272671153
2.7660820945954323
-0.6585780707293076
0.1435954272671153
2.7660820945954323
-0.6585780707293076
0.1435954272671153
2.7660820945954323
-0.6580951828835284
0.1447049249167386
2.7664201062107905
-0.6580951828835284
0.1447049249167386
2.7664201062107905
-0.6580951828835284
0.1447049249167386
2.7664201062107905
-0.6580951828835284
0.1447049249167386
2.7664201062107905
-0.658028638060639
0.14503495751386541
2.7665674387375114
-0.658028638060639
0.14503495751386541
2.7665674387375114
-0.658028638060639
0.14503495751386541
2.7665674387375114
-0.658028638060639
0.14503495751386541
2.7665674387375114
-0.6575159490441601
0.14564638229061697
2.7665479559282558
-0.6575159490441601
0.14564638229061697
2.7665479559282558
-0.6575159490441601
0.14564638229061697
2.7665479559282558
-0.6575159490441601
0.14564638229061697
2.7665479559282558
-0.6568970421843754
0.14596090008446627
2.7656186622291337
-0.6568970421843754
0.14596090008446627
2.7656186622291337
-0.6568970421843754
0.14596090008446627
2.7656186622291337
-0.6568970421843754
0.14596090008446627
2.7656186622291337
-0.6573025511751772
0.14545563686320526
2.7646962984320793
-0.6573025511751772
0.14545563686320526
2.7646962984320793
-0.6573025511751772
0.14545563686320526
2.7646962984320793
-0.6573025511751772
0.14545563686320526
2.7646962984320793
-0.6583482935913212
0.14424188667168802
2.7639230812131452
-0.6583482935913212
0.14424188667168802
2.7639230812131452
-0.6583482935913212
0.14424188667168802
2.7639230812131452
-0.6583482935913212
0.14424188667168802
2.7639230812131452
-0.6583236193615294
0.1441292528037679
2.763963722216882
-0.6583236193615294
0.1441292528037679
2.763963722216882
-0.6583236193615294
0.1441292528037679
2.763963722216882
-0.6583236193615294
0.1441292528037679
2.763963722216882
-0.6579944317736101
0.14308167834202745
2.764646854712871
-0.6579944317736101
0.14308167834202745
2.764646854712871
-0.6579944317736101
0.14308167834202745
2.764646854712871
-0.6579944317736101
0.14308167834202745
2.764646854712871
-0.6575703062513703
0.1418257643409936
2.765004746163338
-0.6575703062513703
0.1418257643409936
2.765004746163338
-0.6575703062513703
0.1418257643409936
2.765004746163338
-0.6575703062513703
0.1418257643409936
2.765004746163338
-0.6567738415086745
0.14082648358821895
2.7652181621830265
-0.6567738415086745
0.14082648358821895
2.7652181621830265
-0.6567738415086745
0.14082648358821895
2.7652181621830265
-0.6567738415086745
0.14082648358821895
2.7652181621830265
-0.6575711041928312
0.13961154261765585
2.7651469448117183
-0.6575711041928312
0.13961154261765585
2.7651469448117183
-0.6575711041928312
0.13961154261765585
2.7651469448117183
-0.6575711041928312
0.13961154261765585
2.7651469448117183
-0.658337980889215
0.1378179681313146
2.7644912385459537
-0.658337980889215
0.1378179681313146
2.7644912385459537
-0.658337980889215
0.1378179681313146
2.7644912385459537
-0.658337980889215
0.1378179681313146
2.7644912385459537
-0.6594702243487092
0.13634585697413804
2.763422168275737
-0.6594702243487092
0.13634585697413804
2.763422168275737
-0.6594702243487092
0.13634585697413804
2.763422168275737
-0.6594702243487092
0.13634585697413804
2.763422168275737
-0.6590492542118696
0.1350912336013976
2.7626101002124335
-0.6590492542118696
0.1350912336013976
2.7626101002124335
-0.6590492542118696
0.1350912336013976
2.7626101002124335
-0.6590492542118696
0.1350912336013976
2.7626101002124335
-0.657993187175833
0.13352334544484806
2.762122961429844
-0.657993187175833
0.13352334544484806
2.762122961429844
-0.657993187175833
0.13352334544484806
2.762122961429844
-0.657993187175833
0.13352334544484806
2.762122961429844
-0.6578779000961623
0.1315761615431411
2.7617793355219424
-0.6578779000961623
0.1315761615431411
2.7617793355219424
-0.6578779000961623
0.1315761615431411
2.7617793355219424
-0.6578779000961623
0.1315761615431411
2.7617793355219424
-0.6572021142986362
0.12993602972550963
2.7612652725397338
-0.6572021142986362
0.12993602972550963
2.7612652725397338
-0.6572021142986362
0.12993602972550963
2.7612652725397338
-0.6572021142986362
0.12993602972550963
2.7612652725397338
-0.657589727511393
0.12888203447833813
2.760663088147137
-0.657589727511393
0.12888203447833813
2.760663088147137
-0.657589727511393
0.12888203447833813
2.760663088147137
-0.657589727511393
0.12888203447833813
2.760663088147137
-0.6577582726334226
0.1281421276159331
2.7601184063090876
-0.6577582726334226
0.1281421276159331
2.7601184063090876
-0.6577582726334226
0.1281421276159331
2.7601184063090876
-0.6577582726334226
0.1281421276159331
2.7601184063090876
-0.6575547167708705
0.1281434327582367
2.759623045919988
-0.6575547167708705
0.1281434327582367
2.759623045919988
-0.6575547167708705
0.1281434327582367
2.759623045919988
-0.6575547167708705
0.1281434327582367
2.759623045919988
-0.6574750582087291
0.128908485111636
2.7594941911596025
-0.6574750582087291
0.128908485111636
2.7594941911596025
-0.6574750582087291
0.128908485111636
2.7594941911596025
-0.6574750582087291
0.128908485111636
2.7594941911596025
-0.6584103343060003
0.1296708935131405
2.7595040785958
-0.6584103343060003
0.1296708935131405
2.7595040785958
-0.6584103343060003
0.1296708935131405
2.7595040785958
-0.6584103343060003
0.1296708935131405
2.7595040785958
-0.6594255522317866
0.12995034272693723
2.7592693389059835
-0.6594255522317866
0.12995034272693723
2.7592693389059835
-0.6594255522317866
0.12995034272693723
2.7592693389059835
-0.6594255522317866
0.12995034272693723
2.7592693389059835
-0.6586231214541931
0.13045952540246114
2.7591964083291325
-0.6586231214541931
0.13045952540246114
2.7591964083291325
-0.6586231214541931
0.13045952540246114
2.7591964083291325
-0.6586231214541931
0.13045952540246114
2.7591964083291325
-0.65752831628089
0.13090501272699842
2.7591888252022985
-0.65752831628089
0.13090501272699842
2.7591888252022985
-0.65752831628089
0.13090501272699842
2.7591888252022985
-0.65752831628089
0.13090501272699842
2.7591888252022985
-0.6567563906364962
0.13066626465238873
2.7588391845824427
-0.6567563906364962
0.13066626465238873
2.7588391845824427
-0.6567563906364962
0.13066626465238873
2.7588391845824427
-0.6567563906364962
0.13066626465238873
2.7588391845824427
-0.6571282981031786
0.1301672446381469
2.7583024803107223
-0.6571282981031786
0.1301672446381469
2.7583024803107223
-0.6571282981031786
0.1301672446381469
2.7583024803107223
-0.6571282981031786
0.1301672446381469
2.7583024803107223
-0.6578017470180998
0.13007720099794923
2.7579860250287878
-0.6578017470180998
0.13007720099794923
2.7579860250287878
-0.6578017470180998
0.13007720099794923
2.7579860250287878
-0.6578017470180998
0.13007720099794923
2.7579860250287878
-0.6586636769651634
0.13054103747779844
2.758230188627499
-0.6586636769651634
0.13054103747779844
2.758230188627499
-0.6586636769651634
0.13054103747779844
2.758230188627499
-0.6586636769651634
0.13054103747779844
2.758230188627499
-0.6586582155011579
0.13148223524907562
2.7586938544908883
-0.6586582155011579
0.13148223524907562
2.7586938544908883
-0.6586582155011579
0.13148223524907562
2.7586938544908883
-0.6586582155011579
0.13148223524907562
2.7586938544908883
-0.6573706940749696
0.1327175782649461
2.758558071886098
-0.6573706940749696
0.1327175782649461
2.758558071886098
-0.6573706940749696
0.1327175782649461
2.758558071886098
-0.6573706940749696
0.1327175782649461
2.758558071886098
-0.6560833571891276
0.1338731090900026
2.758196462353143
-0.6560833571891276
0.1338731090900026
2.758196462353143
-0.6560833571891276
0.1338731090900026
2.758196462353143
-0.6560833571891276
0.1338731090900026
2.758196462353143
-0.6563613416288364
0.13441206135386996
2.7579697197519546
-0.6563613416288364
0.13441206135386996
2.7579697197519546
-0.6563613416288364
0.13441206135386996
2.7579697197519546
-0.6563613416288364
0.13441206135386996
2.7579697197519546
-0.6580907059079227
0.13439868207937625
2.7579906315276945
-0.6580907059079227
0.13439868207937625
2.7579906315276945
-0.6580907059079227
0.13439868207937625
2.7579906315276945
-0.6580907059079227
0.13439868207937625
2.7579906315276945
-0.6589906870332678
0.13405730502441915
2.758273354794165
-0.6589906870332678
0.13405730502441915
2.758273354794165
-0.6589906870332678
0.13405730502441915
2.758273354794165
-0.6589906870332678
0.13405730502441915
2.758273354794165
-0.6585596073477866
0.13394572351035422
2.758493059641482
-0.6585596073477866
0.13394572351035422
2.758493059641482
-0.6585596073477866
0.13394572351035422
2.758493059641482
-0.6585596073477866
0.13394572351035422
2.758493059641482
-0.6568854167481935
0.1334835638933218
2.75860846533342
-0.6568854167481935
0.1334835638933218
2.75860846533342
-0.6568854167481935
0.1334835638933218
2.75860846533342
-0.6568854167481935
0.1334835638933218
2.75860846533342
-0.6556324042124706
0.1325451533571251
2.7587052850812905
-0.6556324042124706
0.1325451533571251
2.7587052850812905
-0.6556324042124706
0.1325451533571251
2.7587052850812905
-0.6556324042124706
0.1325451533571251
2.7587052850812905
-0.6555920952083363
0.13254510134674824
2.7587299979586186
-0.6555920952083363
0.13254510134674824
2.7587299979586186
-0.6555920952083363
0.13254510134674824
2.7587299979586186
-0.6555920952083363
0.13254510134674824
2.7587299979586186
-0.656127553464551
0.13244721042242602
2.758680387950751
-0.656127553464551
0.13244721042242602
2.758680387950751
-0.656127553464551
0.13244721042242602
2.758680387950751
-0.656127553464551
0.13244721042242602
2.758680387950751
-0.6574003088070223
0.131606964671163
2.758426623208705
-0.6574003088070223
0.131606964671163
2.758426623208705
-0.6574003088070223
0.131606964671163
2.758426623208705
-0.6574003088070223
0.131606964671163
2.758426623208705
-0.656910720576261
0.13076417450498892
2.7579867414562083
-0.656910720576261
0.13076417450498892
2.7579867414562083
-0.656910720576261
0.13076417450498892
2.7579867414562083
-0.656910720576261
0.13076417450498892
2.7579867414562083
-0.6553995801968685
0.13030361767478413
2.7574501982025494
-0.6553995801968685
0.13030361767478413
2.7574501982025494
-0.6553995801968685
0.13030361767478413
2.7574501982025494
-0.6553995801968685
0.13030361767478413
2.7574501982025494
-0.6542606579302204
0.12962426980895803
2.757171671773036
-0.6542606579302204
0.12962426980895803
2.757171671773036
-0.6542606579302204
0.12962426980895803
2.757171671773036
-0.6542606579302204
0.12962426980895803
2.757171671773036
-0.6544189055953182
0.12841628561468676
2.757168022565316
-0.6544189055953182
0.12841628561468676
2.757168022565316
-0.6544189055953182
0.12841628561468676
2.757168022565316
-0.6544189055953182
0.12841628561468676
2.757168022565316
-0.6552496812740239
0.12679565080344163
2.7571083207500315
-0.6552496812740239
0.12679565080344163
2.7571083207500315
-0.6552496812740239
0.12679565080344163
2.7571083207500315
-0.6552496812740239
0.12679565080344163
2.7571083207500315
-0.6557873853264864
0.12535417486738595
2.756627448598942
-0.6557873853264864
0.12535417486738595
2.756627448598942
-0.6557873853264864
0.12535417486738595
2.756627448598942
-0.6557873853264864
0.12535417486738595
2.756627448598942
-0.6558780304211397
0.12415656868254207
2.7558625137141637
-0.6558780304211397
0.12415656868254207
2.7558625137141637
-0.6558780304211397
0.12415656868254207
2.7558625137141637
-0.6558780304211397
0.12415656868254207
2.7558625137141637
-0.6549786198340437
0.12315623529790413
2.7551427562468263
-0.6549786198340437
0.12315623529790413
2.7551427562468263
-0.6549786198340437
0.12315623529790413
2.7551427562468263
-0.6549786198340437
0.12315623529790413
2.7551427562468263
-0.6545601536207719
0.12233025913429878
2.754838944808622
-0.6545601536207719
0.12233025913429878
2.754838944808622
-0.6545601536207719
0.12233025913429878
2.754838944808622
-0.6545601536207719
0.12233025913429878
2.754838944808622
-0.6546626112300709
0.12163783128334489
2.7548134326312814
-0.6546626112300709
0.12163783128334489
2.7548134326312814
-0.6546626112300709
0.12163783128334489
2.7548134326312814
-0.6546626112300709
0.12163783128334489
2.7548134326312814
-0.6548551708835788
0.12121008110152097
2.754796724361284
-0.6548551708835788
0.12121008110152097
2.754796724361284
-0.6548551708835788
0.12121008110152097
2.754796724361284
-0.6548551708835788
0.12121008110152097
2.754796724361284
-0.6548919478679565
0.12068809429878627
2.7544633229483506
-0.6548919478679565
0.12068809429878627
2.7544633229483506
-0.6548919478679565
0.12068809429878627
2.7544633229483506
-0.6548919478679565
0.12068809429878627
2.7544633229483506
-0.6543359255953778
0.12017598892425298
2.754166373541221
-0.6543359255953778
0.12017598892425298
2.754166373541221
-0.6543359255953778
0.12017598892425298
2.754166373541221
-0.6543359255953778
0.12017598892425298
2.754166373541221
-0.6541567047598691
0.12037109288092991
2.753857630894064
-0.6541567047598691
0.12037109288092991
2.753857630894064
-0.6541567047598691
0.12037109288092991
2.753857630894064
-0.6541567047598691
0.12037109288092991
2.753857630894064
-0.6543824201416257
0.12024247579568978
2.7536319155123077
-0.6543824201416257
0.12024247579568978
2.7536319155123077
-0.6543824201416257
0.12024247579568978
2.7536319155123077
-0.6543824201416257
0.12024247579568978
2.7536319155123077
-0.654787964248174
0.12060313318695363
2.753310043095029
-0.654787964248174
0.12060313318695363
2.753310043095029
-0.654787964248174
0.12060313318695363
2.753310043095029
-0.654787964248174
0.12060313318695363
2.753310043095029
-0.6555206837970435
0.12140522850534502
2.7529424779124945
-0.6555206837970435
0.12140522850534502
2.7529424779124945
-0.6555206837970435
0.12140522850534502
2.7529424779124945
-0.6555206837970435
0.12140522850534502
2.7529424779124945
-0.6566714033853007
0.12291301154242815
2.7525366180591098
-0.6566714033853007
0.12291301154242815
2.7525366180591098
-0.6566714033853007
0.12291301154242815
2.7525366180591098
-0.6566714033853007
0.12291301154242815
2.7525366180591098
-0.6575199106092959
0.12531499918969863
2.752225513168283
-0.6575199106092959
0.12531499918969863
2.752225513168283
-0.6575199106092959
0.12531499918969863
2.752225513168283
-0.6575199106092959
0.12531499918969863
2.752225513168283
-0.6580991796487029
0.12858784858550193
2.75205940979162
-0.6580991796487029
0.12858784858550193
2.75205940979162
-0.6580991796487029
0.12858784858550193
2.75205940979162
-0.6580991796487029
0.12858784858550193
2.75205940979162
-0.6588462786493722
0.1313200591894152
2.751914952496261
-0.6588462786493722
0.1313200591894152
2.751914952496261
-0.6588462786493722
0.1313200591894152
2.751914952496261
-0.6588462786493722
0.1313200591894152
2.751914952496261
-0.6598364331409092
0.13380932890628675
2.7515568332954103
-0.6598364331409092
0.13380932890628675
2.7515568332954103
-0.6598364331409092
0.13380932890628675
2.7515568332954103
-0.6598364331409092
0.13380932890628675
2.7515568332954103
-0.660638731837385
0.135864963709758
2.750977491179597
-0.660638731837385
0.135864963709758
2.750977491179597
-0.660638731837385
0.135864963709758
2.750977491179597
-0.660638731837385
0.135864963709758
2.750977491179597
-0.6604621639344221
0.13728289546194533
2.7507576631757757
-0.6604621639344221
0.13728289546194533
2.7507576631757757
-0.6604621639344221
0.13728289546194533
2.7507576631757757
-0.6604621639344221
0.13728289546194533
2.7507576631757757
-0.6594470408740163
0.13855370116670038
2.7508252736091228
-0.6594470408740163
0.13855370116670038
2.7508252736091228
-0.6594470408740163
0.13855370116670038
2.7508252736091228
-0.6594470408740163
0.13855370116670038
2.7508252736091228
-0.6568908750060789
0.1401963643279357
2.7508702121586803
-0.6568908750060789
0.1401963643279357
2.7508702121586803
-0.6568908750060789
0.1401963643279357
2.7508702121586803
-0.6568908750060789
0.1401963643279357
2.7508702121586803
-0.6528639106183927
0.14192346661523467
2.752389737878038
-0.6528639106183927
0.14192346661523467
2.752389737878038
-0.6528639106183927
0.14192346661523467
2.752389737878038
-0.6528639106183927
0.14192346661523467
2.752389737878038
-0.6513330351045363
0.14285464995255
2.756464557285524
-0.6513330351045363
0.14285464995255
2.756464557285524
-0.6513330351045363
0.14285464995255
2.756464557285524
-0.6513330351045363
0.14285464995255
2.756464557285524
-0.6528991665160603
0.1420293388164776
2.76203357568692
-0.6528991665160603
0.1420293388164776
2.76203357568692
-0.6528991665160603
0.1420293388164776
2.76203357568692
-0.6528991665160603
0.1420293388164776
2.76203357568692
-0.6489697094969354
0.14042767137193587
2.7681065383093983
-0.6489697094969354
0.14042767137193587
2.7681065383093983
-0.6489697094969354
0.14042767137193587
2.7681065383093983
-0.6489697094969354
0.14042767137193587
2.7681065383093983
-0.6412166250978345
0.13861252571434052
2.7744614760969353
-0.6412166250978345
0.13861252571434052
2.7744614760969353
-0.6412166250978345
0.13861252571434052
2.7744614760969353
-0.6412166250978345
0.13861252571434052
2.7744614760969353
-0.6329777958747966
0.1352025020407048
2.7822970759029992
-0.6329777958747966
0.1352025020407048
2.7822970759029992
-0.6329777958747966
0.1352025020407048
2.7822970759029992
-0.6329777958747966
0.1352025020407048
2.7822970759029992
-0.6249911743524655
0.13041041740849807
2.789710055640359
-0.6249911743524655
0.13041041740849807
2.789710055640359
-0.6249911743524655
0.13041041740849807
2.789710055640359
-0.6249911743524655
0.13041041740849807
2.789710055640359
-0.6157029783055562
0.12634547309844849
2.7955462376009117
-0.6157029783055562
0.12634547309844849
2.7955462376009117
-0.6157029783055562
0.12634547309844849
2.7955462376009117
-0.6157029783055562
0.12634547309844849
2.7955462376009117
-0.6033661017000091
0.12269533747641947
2.7995987605047787
-0.6033661017000091
0.12269533747641947
2.7995987605047787
-0.6033661017000091
0.12269533747641947
2.7995987605047787
-0.6033661017000091
0.12269533747641947
2.7995987605047787
-0.5916111046432182
0.1200284619789313
2.8029410970303004
-0.5916111046432182
0.1200284619789313
2.8029410970303004
-0.5916111046432182
0.1200284619789313
2.8029410970303004
-0.5916111046432182
0.1200284619789313
2.8029410970303004
-0.5849463680665354
0.11855066323008898
2.8068596031331383
-0.5849463680665354
0.11855066323008898
2.8068596031331383
-0.5849463680665354
0.11855066323008898
2.8068596031331383
-0.5849463680665354
0.11855066323008898
2.8068596031331383
-0.584721232413083
0.1174616796236166
2.8105805762122187
-0.584721232413083
0.1174616796236166
2.8105805762122187
-0.584721232413083
0.1174616796236166
2.8105805762122187
-0.584721232413083
0.1174616796236166
2.8105805762122187
-0.5848814275392769
0.11590232936374405
2.813749602663103
-0.5848814275392769
0.11590232936374405
2.813749602663103
-0.5848814275392769
0.11590232936374405
2.813749602663103
-0.5848814275392769
0.11590232936374405
2.813749602663103
-0.585152883490243
0.11440268696367464
2.815864787672795
-0.585152883490243
0.11440268696367464
2.815864787672795
-0.585152883490243
0.11440268696367464
2.815864787672795
-0.585152883490243
0.11440268696367464
2.815864787672795
-0.585273962643073
0.11203673615001739
2.816716979873479
-0.585273962643073
0.11203673615001739
2.816716979873479
-0.585273962643073
0.11203673615001739
2.816716979873479
-0.585273962643073
0.11203673615001739
2.816716979873479
-0.5856158860043174
0.10851179750607083
2.817256433624522
-0.5856158860043174
0.10851179750607083
2.817256433624522
-0.5856158860043174
0.10851179750607083
2.817256433624522
-0.5856158860043174
0.10851179750607083
2.817256433624522
-0.5842092857606702
0.10478608976495157
2.818410867311221
-0.5842092857606702
0.10478608976495157
2.818410867311221
-0.5842092857606702
0.10478608976495157
2.818410867311221
-0.5842092857606702
0.10478608976495157
2.818410867311221
-0.5836346924834107
0.10138583962855856
2.820678052029267
-0.5836346924834107
0.10138583962855856
2.820678052029267
-0.5836346924834107
0.10138583962855856
2.820678052029267
-0.5836346924834107
0.10138583962855856
2.820678052029267
-0.5820500727514268
0.09769216515690927
2.82364466378321
-0.5820500727514268
0.09769216515690927
2.82364466378321
-0.5820500727514268
0.09769216515690927
2.82364466378321
-0.5820500727514268
0.09769216515690927
2.82364466378321
-0.5815283106410077
0.09411111459770279
2.825306231089469
-0.5815283106410077
0.09411111459770279
2.825306231089469
-0.5815283106410077
0.09411111459770279
2.825306231089469
-0.5815283106410077
0.09411111459770279
2.825306231089469
-0.5814115998817889
0.09108526903182053
2.8250833189662097
-0.5814115998817889
0.09108526903182053
2.8250833189662097
-0.5814115998817889
0.09108526903182053
2.8250833189662097
-0.5814115998817889
0.09108526903182053
2.8250833189662097
-0.5816829447871137
0.0895824309103548
2.823212155644507
-0.5816829447871137
0.0895824309103548
2.823212155644507
-0.5816829447871137
0.0895824309103548
2.823212155644507
-0.5816829447871137
0.0895824309103548
2.823212155644507
-0.5800295871038048
0.08963593005551558
2.8216739851600696
-0.5800295871038048
0.08963593005551558
2.8216739851600696
-0.5800295871038048
0.08963593005551558
2.8216739851600696
-0.5800295871038048
0.08963593005551558
2.8216739851600696
-0.5783720941882035
0.0906007544342955
2.821920098821222
-0.5783720941882035
0.0906007544342955
2.821920098821222
-0.5783720941882035
0.0906007544342955
2.821920098821222
-0.5783720941882035
0.0906007544342955
2.821920098821222
-0.5774997275287715
0.09169942682621213
2.8225560369775815
-0.5774997275287715
0.09169942682621213
2.8225560369775815
-0.5774997275287715
0.09169942682621213
2.8225560369775815
-0.5774997275287715
0.09169942682621213
2.8225560369775815
-0.577621522434302
0.0928006091843256
2.821951377958963
-0.577621522434302
0.0928006091843256
2.821951377958963
-0.577621522434302
0.0928006091843256
2.821951377958963
-0.577621522434302
0.0928006091843256
2.821951377958963
-0.5789101323820232
0.09378626283153836
2.819355116172253
-0.5789101323820232
0.09378626283153836
2.819355116172253
-0.5789101323820232
0.09378626283153836
2.819355116172253
-0.5789101323820232
0.09378626283153836
2.819355116172253
-0.5796652150256434
0.09520703313416051
2.817032590663775
-0.5796652150256434
0.09520703313416051
2.817032590663775
-0.5796652150256434
0.09520703313416051
2.817032590663775
-0.5796652150256434
0.09520703313416051
2.817032590663775
-0.5790708512913189
0.09710627547488175
2.8161180812377062
-0.5790708512913189
0.09710627547488175
2.8161180812377062
-0.5790708512913189
0.09710627547488175
2.8161180812377062
-0.5790708512913189
0.09710627547488175
2.8161180812377062
-0.5775058109112218
0.09931716663549627
2.816248390935741
-0.5775058109112218
0.09931716663549627
2.816248390935741
-0.5775058109112218
0.09931716663549627
2.816248390935741
-0.5775058109112218
0.09931716663549627
2.816248390935741
-0.5774781294766471
0.10202689122667198
2.816199720953145
-0.5774781294766471
0.10202689122667198
2.816199720953145
-0.5774781294766471
0.10202689122667198
2.816199720953145
-0.5774781294766471
0.10202689122667198
2.816199720953145
-0.5772579821628349
0.10449662059032615
2.815205887256505
-0.5772579821628349
0.10449662059032615
2.815205887256505
-0.5772579821628349
0.10449662059032615
2.815205887256505
-0.5772579821628349
0.10449662059032615
2.815205887256505
-0.5762944577445089
0.10665960543494847
2.8132309101897115
-0.5762944577445089
0.10665960543494847
2.8132309101897115
-0.5762944577445089
0.10665960543494847
2.8132309101897115
-0.5762944577445089
0.10665960543494847
2.8132309101897115
-0.574691494447476
0.10792758487654072
2.810950191537676
-0.574691494447476
0.10792758487654072
2.810950191537676
-0.574691494447476
0.10792758487654072
2.810950191537676
-0.574691494447476
0.10792758487654072
2.810950191537676
-0.5733214060285313
0.10922680125244125
2.8089014019538334
-0.5733214060285313
0.10922680125244125
2.8089014019538334
-0.5733214060285313
0.10922680125244125
2.8089014019538334
-0.5733214060285313
0.10922680125244125
2.8089014019538334
-0.572310711355547
0.11056033832585359
2.80756009214364
-0.572310711355547
0.11056033832585359
2.80756009214364
-0.572310711355547
0.11056033832585359
2.80756009214364
-0.572310711355547
0.11056033832585359
2.80756009214364
-0.571500659267653
0.11185981969745219
2.805317299014706
-0.571500659267653
0.11185981969745219
2.805317299014706
-0.571500659267653
0.11185981969745219
2.805317299014706
-0.571500659267653
0.11185981969745219
2.805317299014706
-0.5708385306024925
0.11262316844164674
2.8030986875922883
-0.5708385306024925
0.11262316844164674
2.8030986875922883
-0.5708385306024925
0.11262316844164674
2.8030986875922883
-0.5708385306024925
0.11262316844164674
2.8030986875922883
-0.5730569677770805
0.11695142985121061
2.7994937716108095
-0.5730569677770805
0.11695142985121061
2.7994937716108095
-0.5730569677770805
0.11695142985121061
2.7994937716108095
-0.5730569677770805
0.11695142985121061
2.7994937716108095
-0.5820473925198205
0.12882387093749587
2.7972804458398786
-0.5820473925198205
0.12882387093749587
2.7972804458398786
-0.5820473925198205
0.12882387093749587
2.7972804458398786
-0.5820473925198205
0.12882387093749587
2.7972804458398786
-0.5927125156811375
0.14613713651401905
2.793544527518167
-0.5927125156811375
0.14613713651401905
2.793544527518167
-0.5927125156811375
0.14613713651401905
2.793544527518167
-0.5927125156811375
0.14613713651401905
2.793544527518167
-0.6121624385131959
0.16438277628086456
2.789747580126379
-0.6121624385131959
0.16438277628086456
2.789747580126379
-0.6121624385131959
0.16438277628086456
2.789747580126379
-0.6121624385131959
0.16438277628086456
2.789747580126379
-0.6318752286992283
0.1785547519656651
2.7869891264233053
-0.6318752286992283
0.1785547519656651
2.7869891264233053
-0.6318752286992283
0.1785547519656651
2.7869891264233053
-0.6318752286992283
0.1785547519656651
2.7869891264233053
-0.6426440064326653
0.18647076978680016
2.7817438742452616
-0.6426440064326653
0.18647076978680016
2.7817438742452616
-0.6426440064326653
0.18647076978680016
2.7817438742452616
-0.6426440064326653
0.18647076978680016
2.7817438742452616
-0.6489416156967721
0.185307463506913
2.774906429616891
-0.6489416156967721
0.185307463506913
2.774906429616891
-0.6489416156967721
0.185307463506913
2.774906429616891
-0.6489416156967721
0.185307463506913
2.774906429616891
-0.6608100117623736
0.17425891000293195
2.7734695478657123
-0.6608100117623736
0.17425891000293195
2.7734695478657123
-0.6608100117623736
0.17425891000293195
2.7734695478657123
-0.6608100117623736
0.17425891000293195
2.7734695478657123
-0.6586575802003926
0.1583839481172426
2.778521593371415
-0.6586575802003926
0.1583839481172426
2.778521593371415
-0.6586575802003926
0.1583839481172426
2.778521593371415
-0.6586575802003926
0.1583839481172426
2.778521593371415
-0.6423172711266875
0.15112320123036396
2.782795891660265
-0.6423172711266875
0.15112320123036396
2.782795891660265
-0.6423172711266875
0.15112320123036396
2.782795891660265
-0.6423172711266875
0.15112320123036396
2.782795891660265
-0.6286835695441004
0.15426384751018202
2.777576556240257
-0.6286835695441004
0.15426384751018202
2.777576556240257
-0.6286835695441004
0.15426384751018202
2.777576556240257
-0.6286835695441004
0.15426384751018202
2.777576556240257
-0.6220854958788335
0.14960488550690365
2.7748274789584366
-0.6220854958788335
0.14960488550690365
2.7748274789584366
-0.6220854958788335
0.14960488550690365
2.7748274789584366
-0.6220854958788335
0.14960488550690365
2.7748274789584366
-0.6248644103488461
0.1433163288541346
2.7725198541805325
-0.6248644103488461
0.1433163288541346
2.7725198541805325
-0.6248644103488461
0.1433163288541346
2.7725198541805325
-0.6248644103488461
0.1433163288541346
2.7725198541805325
-0.6276191846222172
0.14165971628601895
2.7686787204148837
-0.6276191846222172
0.14165971628601895
2.7686787204148837
-0.6276191846222172
0.14165971628601895
2.7686787204148837
-0.6276191846222172
0.14165971628601895
2.7686787204148837
-0.635593374662805
0.14011657912627537
2.765941678872339
-0.635593374662805
0.14011657912627537
2.765941678872339
-0.635593374662805
0.14011657912627537
2.765941678872339
-0.635593374662805
0.14011657912627537
2.765941678872339
-0.6475477137217008
0.13740672264311368
2.763316398773762
-0.6475477137217008
0.13740672264311368
2.763316398773762
-0.6475477137217008
0.13740672264311368
2.763316398773762
-0.6475477137217008
0.13740672264311368
2.763316398773762
-0.6531231523618999
0.13481902289437217
2.7615173871355743
-0.6531231523618999
0.13481902289437217
2.7615173871355743
-0.6531231523618999
0.13481902289437217
2.7615173871355743
-0.6531231523618999
0.13481902289437217
2.7615173871355743
-0.649306898640013
0.1338215803717955
2.7609347807770943
-0.649306898640013
0.1338215803717955
2.7609347807770943
-0.649306898640013
0.1338215803717955
2.7609347807770943
-0.649306898640013
0.1338215803717955
2.7609347807770943
-0.6427905882533346
0.13478165052690125
2.759239832439078
-0.6427905882533346
0.13478165052690125
2.759239832439078
-0.6427905882533346
0.13478165052690125
2.759239832439078
-0.6427905882533346
0.13478165052690125
2.759239832439078
-0.6407841137591471
0.13630498255333257
2.7571471997347556
-0.6407841137591471
0.13630498255333257
2.7571471997347556
-0.6407841137591471
0.13630498255333257
2.7571471997347556
-0.6407841137591471
0.13630498255333257
2.7571471997347556
-0.641776127148225
0.13799149450337558
2.7555109566344247
-0.641776127148225
0.13799149450337558
2.7555109566344247
-0.641776127148225
0.13799149450337558
2.7555109566344247
-0.641776127148225
0.13799149450337558
2.7555109566344247
-0.6452921994390874
0.14086603714397838
2.7544389853340454
-0.6452921994390874
0.14086603714397838
2.7544389853340454
-0.6452921994390874
0.14086603714397838
2.7544389853340454
-0.6452921994390874
0.14086603714397838
2.7544389853340454
-0.6469539329378439
0.14334838568654112
2.753999488253037
-0.6469539329378439
0.14334838568654112
2.753999488253037
-0.6469539329378439
0.14334838568654112
2.753999488253037
-0.6469539329378439
0.14334838568654112
2.753999488253037
-0.6468983902733673
0.14545004153829585
2.753932109435934
-0.6468983902733673
0.14545004153829585
2.753932109435934
-0.6468983902733673
0.14545004153829585
2.753932109435934
-0.6468983902733673
0.14545004153829585
2.753932109435934
-0.645202321890653
0.1478339648987032
2.753864444643038
-0.645202321890653
0.1478339648987032
2.753864444643038
-0.645202321890653
0.1478339648987032
2.753864444643038
-0.645202321890653
0.1478339648987032
2.753864444643038
-0.643401376049222
0.1494418970300286
2.754218341611457
-0.643401376049222
0.1494418970300286
2.754218341611457
-0.643401376049222
0.1494418970300286
2.754218341611457
-0.643401376049222
0.1494418970300286
2.754218341611457
-0.643803179124684
0.15074280418543018
2.7543631004704743
-0.643803179124684
0.15074280418543018
2.7543631004704743
-0.643803179124684
0.15074280418543018
2.7543631004704743
-0.643803179124684
0.15074280418543018
2.7543631004704743
-0.6452029888860654
0.15209127096314362
2.7539605160586085
-0.6452029888860654
0.15209127096314362
2.7539605160586085
-0.6452029888860654
0.15209127096314362
2.7539605160586085
-0.6452029888860654
0.15209127096314362
2.7539605160586085
-0.6464424500910888
0.15312007294701452
2.753295415385532
-0.6464424500910888
0.15312007294701452
2.753295415385532
-0.6464424500910888
0.15312007294701452
2.753295415385532
-0.6464424500910888
0.15312007294701452
2.753295415385532
-0.6473903957874438
0.1540449325538516
2.7525832014285565
-0.6473903957874438
0.1540449325538516
2.7525832014285565
-0.6473903957874438
0.1540449325538516
2.7525832014285565
-0.6473903957874438
0.1540449325538516
2.7525832014285565
-0.6479790384450612
0.1541319998344334
2.7523326839954154
-0.6479790384450612
0.1541319998344334
2.7523326839954154
-0.6479790384450612
0.1541319998344334
2.7523326839954154
-0.6479790384450612
0.1541319998344334
2.7523326839954154
-0.6485610246516303
0.15397392680603733
2.7525690124122035
-0.6485610246516303
0.15397392680603733
2.7525690124122035
-0.6485610246516303
0.15397392680603733
2.7525690124122035
-0.6485610246516303
0.15397392680603733
2.7525690124122035
-0.6484779577242827
0.1533910792466323
2.753176581384214
-0.6484779577242827
0.1533910792466323
2.753176581384214
-0.6484779577242827
0.1533910792466323
2.753176581384214
-0.6484779577242827
0.1533910792466323
2.753176581384214
-0.6477814763212887
0.1526081086619306
2.754074311282963
-0.6477814763212887
0.1526081086619306
2.754074311282963
-0.6477814763212887
0.1526081086619306
2.754074311282963
-0.6477814763212887
0.1526081086619306
2.754074311282963
-0.6477141775738018
0.15146981581443406
2.754612962271861
-0.6477141775738018
0.15146981581443406
2.754612962271861
-0.6477141775738018
0.15146981581443406
2.754612962271861
-0.6477141775738018
0.15146981581443406
2.754612962271861
-0.6471232540844286
0.14981591955684748
2.754478304441529
-0.6471232540844286
0.14981591955684748
2.754478304441529
-0.6471232540844286
0.14981591955684748
2.754478304441529
-0.6471232540844286
0.14981591955684748
2.754478304441529
-0.6455452730007445
0.14816257037144967
2.753831255863167
-0.6455452730007445
0.14816257037144967
2.753831255863167
-0.6455452730007445
0.14816257037144967
2.753831255863167
-0.6455452730007445
0.14816257037144967
2.753831255863167
-0.6455147446712889
0.14714483286149246
2.753158357237279
-0.6455147446712889
0.14714483286149246
2.753158357237279
-0.6455147446712889
0.14714483286149246
2.753158357237279
-0.6455147446712889
0.14714483286149246
2.753158357237279
-0.6464433507649414
0.14583609539809006
2.7520366015850386
-0.6464433507649414
0.14583609539809006
2.7520366015850386
-0.6464433507649414
0.14583609539809006
2.7520366015850386
-0.6464433507649414
0.14583609539809006
2.7520366015850386
-0.6475967082652803
0.14455520717220774
2.7511426124541587
-0.6475967082652803
0.14455520717220774
2.7511426124541587
-0.6475967082652803
0.14455520717220774
2.7511426124541587
-0.6475967082652803
0.14455520717220774
2.7511426124541587
-0.6480103700460982
0.14357543812369933
2.750378501030669
-0.6480103700460982
0.14357543812369933
2.750378501030669
-0.6480103700460982
0.14357543812369933
2.750378501030669
-0.6480103700460982
0.14357543812369933
2.750378501030669
-0.6479804359956924
0.14280205540407367
2.749220978057099
-0.6479804359956924
0.14280205540407367
2.749220978057099
-0.6479804359956924
0.14280205540407367
2.749220978057099
-0.6479804359956924
0.14280205540407367
2.749220978057099
-0.647071924924712
0.1422837976974648
2.748345759882126
-0.647071924924712
0.1422837976974648
2.748345759882126
-0.647071924924712
0.1422837976974648
2.748345759882126
-0.647071924924712
0.1422837976974648
2.748345759882126
-0.6475590090366355
0.14172084671802665
2.7476898387867412
-0.6475590090366355
0.14172084671802665
2.7476898387867412
-0.6475590090366355
0.14172084671802665
2.7476898387867412
-0.6475590090366355
0.14172084671802665
2.7476898387867412
-0.6488698755195421
0.14087489826329888
2.7474017559775046
-0.6488698755195421
0.14087489826329888
2.7474017559775046
-0.6488698755195421
0.14087489826329888
2.7474017559775046
-0.6488698755195421
0.14087489826329888
2.7474017559775046
-0.6495059654967879
0.14004168582286142
2.7472075935380325
-0.6495059654967879
0.14004168582286142
2.7472075935380325
-0.6495059654967879
0.14004168582286142
2.7472075935380325
-0.6495059654967879
0.14004168582286142
2.7472075935380325
-0.6497236968784456
0.1396073849333608
2.746806626889124
-0.6497236968784456
0.1396073849333608
2.746806626889124
-0.6497236968784456
0.1396073849333608
2.746806626889124
-0.6497236968784456
0.1396073849333608
2.746806626889124
-0.6508941407118226
0.13933411061140621
2.746232525655998
-0.6508941407118226
0.13933411061140621
2.746232525655998
-0.6508941407118226
0.13933411061140621
2.746232525655998
-0.6508941407118226
0.13933411061140621
2.746232525655998
-0.6516358622778871
0.13915478637480827
2.745278467277391
-0.6516358622778871
0.13915478637480827
2.745278467277391
-0.6516358622778871
0.13915478637480827
2.745278467277391
-0.6516358622778871
0.13915478637480827
2.745278467277391
-0.6524026912653107
0.13916698444898237
2.7445116382899677
-0.6524026912653107
0.13916698444898237
2.7445116382899677
-0.6524026912653107
0.13916698444898237
2.7445116382899677
-0.6524026912653107
0.13916698444898237
2.7445116382899677
-0.6539571999059115
0.13921849744167586
2.7438793524605347
-0.6539571999059115
0.13921849744167586
2.7438793524605347
-0.6539571999059115
0.13921849744167586
2.7438793524605347
-0.6539571999059115
0.13921849744167586
2.7438793524605347
-0.6551926725419792
0.13913493532606877
2.7434673172252344
-0.6551926725419792
0.13913493532606877
2.7434673172252344
-0.6551926725419792
0.13913493532606877
2.7434673172252344
-0.6551926725419792
0.13913493532606877
2.7434673172252344
-0.6558522619982036
0.1392726372610265
2.743473707913629
-0.6558522619982036
0.1392726372610265
2.743473707913629
-0.6558522619982036
0.1392726372610265
2.743473707913629
-0.6558522619982036
0.1392726372610265
2.743473707913629
-0.6560683716013548
0.13899687684402476
2.7435286097931835
-0.6560683716013548
0.13899687684402476
2.7435286097931835
-0.6560683716013548
0.13899687684402476
2.7435286097931835
-0.6560683716013548
0.13899687684402476
2.7435286097931835
-0.6548183029466602
0.13841272027308885
2.743915023658118
-0.6548183029466602
0.13841272027308885
2.743915023658118
-0.6548183029466602
0.13841272027308885
2.743915023658118
-0.6548183029466602
0.13841272027308885
2.743915023658118
-0.6542428622606286
0.13781377155896404
2.7442086301179374
-0.6542428622606286
0.13781377155896404
2.7442086301179374
-0.6542428622606286
0.13781377155896404
2.7442086301179374
-0.6542428622606286
0.13781377155896404
2.7442086301179374
-0.6542282509536388
0.13722576759322921
2.744410102733967
-0.6542282509536388
0.13722576759322921
2.744410102733967
-0.6542282509536388
0.13722576759322921
2.744410102733967
-0.6542282509536388
0.13722576759322921
2.744410102733967
-0.6543273778889649
0.13653252559341816
2.7443843658744558
-0.6543273778889649
0.13653252559341816
2.7443843658744558
-0.6543273778889649
0.13653252559341816
2.7443843658744558
-0.6543273778889649
0.13653252559341816
2.7443843658744558
-0.6543273778889649
0.13653252559341816
2.7443843658744558
-0.6543273778889649
0.13653252559341816
2.7443843658744558
-0.6543273778889649
0.13653252559341816
2.7443843658744558
-0.6543273778889649
0.13653252559341816
2.7443843658744558
-0.6543017655179173
0.13641999734299684
2.744424661262143
-0.6543017655179173
0.13641999734299684
2.744424661262143
-0.6543017655179173
0.13641999734299684
2.744424661262143
-0.6543017655179173
0.13641999734299684
2.744424661262143
-0.6543017655179173
0.13641999734299684
2.744424661262143
-0.6543017655179173
0.13641999734299684
2.744424661262143
-0.6543017655179173
0.13641999734299684
2.744424661262143
-0.6543017655179173
0.13641999734299684
2.744424661262143
-0.6543017655179173
0.13641999734299684
2.744424661262143
-0.6543017655179173
0.13641999734299684
2.744424661262143
-0.6543017655179173
0.13641999734299684
2.744424661262143
-0.6543017655179173
0.13641999734299684
2.744424661262143
-0.6543897340266727
0.1362421764932338
2.744351377437845
-0.6543897340266727
0.1362421764932338
2.744351377437845
-0.6543897340266727
0.1362421764932338
2.744351377437845
-0.6543897340266727
0.1362421764932338
2.744351377437845
-0.6543897340266727
0.1362421764932338
2.744351377437845
-0.6543897340266727
0.1362421764932338
2.744351377437845
-0.6543897340266727
0.1362421764932338
2.744351377437845
-0.6543897340266727
0.1362421764932338
2.744351377437845
-0.654364126530594
0.13612964913117484
2.744391671286481
-0.654364126530594
0.13612964913117484
2.744391671286481
-0.654364126530594
0.13612964913117484
2.744391671286481
-0.654364126530594
0.13612964913117484
2.744391671286481
-0.655305719981307
0.13610447206020887
2.7443882593334195
-0.655305719981307
0.13610447206020887
2.7443882593334195
-0.655305719981307
0.13610447206020887
2.7443882593334195
-0.655305719981307
0.13610447206020887
2.7443882593334195
-0.6554192829424256
0.13607910337610177
2.7443882893176683
-0.6554192829424256
0.13607910337610177
2.7443882893176683
-0.6554192829424256
0.13607910337610177
2.7443882893176683
-0.6554192829424256
0.13607910337610177
2.7443882893176683
-0.6554192492141271
0.13603912427884657
2.7442747301006
-0.6554192492141271
0.13603912427884657
2.7442747301006
-0.6554192492141271
0.13603912427884657
2.7442747301006
-0.6554192492141271
0.13603912427884657
2.7442747301006
-0.6548734034994241
0.13587565687801537
2.744267296379112
-0.6548734034994241
0.13587565687801537
2.744267296379112
-0.6548734034994241
0.13587565687801537
2.744267296379112
-0.6548734034994241
0.13587565687801537
2.744267296379112
-0.6546828506084403
0.13544363310178767
2.7440474669912707
-0.6546828506084403
0.13544363310178767
2.7440474669912707
-0.6546828506084403
0.13544363310178767
2.7440474669912707
-0.6546828506084403
0.13544363310178767
2.7440474669912707
-0.6549611413105543
0.13479749698004634
2.743842651431232
-0.6549611413105543
0.13479749698004634
2.743842651431232
-0.6549611413105543
0.13479749698004634
2.743842651431232
-0.6549611413105543
0.13479749698004634
2.743842651431232
-0.6556825478965355
0.1338246133537474
2.743693745786192
-0.6556825478965355
0.1338246133537474
2.743693745786192
-0.6556825478965355
0.1338246133537474
2.743693745786192
-0.6556825478965355
0.1338246133537474
2.743693745786192
-0.6557803507828114
0.13297148755351604
2.7432146729003444
-0.6557803507828114
0.13297148755351604
2.7432146729003444
-0.6557803507828114
0.13297148755351604
2.7432146729003444
-0.6557803507828114
0.13297148755351604
2.7432146729003444
-0.6562503731826851
0.13205928743745615
2.7422787515256215
-0.6562503731826851
0.13205928743745615
2.7422787515256215
-0.6562503731826851
0.13205928743745615
2.7422787515256215
-0.6562503731826851
0.13205928743745615
2.7422787515256215
-0.6568073046402418
0.13100865300592593
2.741384057073044
-0.6568073046402418
0.13100865300592593
2.741384057073044
-0.6568073046402418
0.13100865300592593
2.741384057073044
-0.6568073046402418
0.13100865300592593
2.741384057073044
-0.6570314003384117
0.13001692461847555
2.7409211046069655
-0.6570314003384117
0.13001692461847555
2.7409211046069655
-0.6570314003384117
0.13001692461847555
2.7409211046069655
-0.6570314003384117
0.13001692461847555
2.7409211046069655
-0.6565564034256439
0.12896845268027315
2.7407011962221883
-0.6565564034256439
0.12896845268027315
2.7407011962221883
-0.6565564034256439
0.12896845268027315
2.7407011962221883
-0.6565564034256439
0.12896845268027315
2.7407011962221883
-0.6556493911746827
0.12777195548848141
2.740585201859025
-0.6556493911746827
0.12777195548848141
2.740585201859025
-0.6556493911746827
0.12777195548848141
2.740585201859025
-0.6556493911746827
0.12777195548848141
2.740585201859025
-0.6549077053955574
0.12681507957577748
2.740501879776337
-0.6549077053955574
0.12681507957577748
2.740501879776337
-0.6549077053955574
0.12681507957577748
2.740501879776337
-0.6549077053955574
0.12681507957577748
2.740501879776337
-0.6556652684118146
0.12576058120553543
2.740103674323818
-0.6556652684118146
0.12576058120553543
2.740103674323818
-0.6556652684118146
0.12576058120553543
2.740103674323818
-0.6556652684118146
0.12576058120553543
2.740103674323818
-0.6560910529903223
0.12472538900550056
2.740022994851181
-0.6560910529903223
0.12472538900550056
2.740022994851181
-0.6560910529903223
0.12472538900550056
2.740022994851181
-0.6560910529903223
0.12472538900550056
2.740022994851181
-0.6563666740174674
0.12407856075315858
2.739820447040129
-0.6563666740174674
0.12407856075315858
2.739820447040129
-0.6563666740174674
0.12407856075315858
2.739820447040129
-0.6563666740174674
0.12407856075315858
