1
1
1
2
1
0
2
1
0
1
10
2
3
2
2
1
1
1
13
2
2
2
2
1
1
1
11
1
2
2
2
1
1
1
12
2
2
2
2
1
1
1
12
3
2
2
2
1
1
1
11
3
2
1
2
1
1
1
11
3
2
2
2
1
1
1
10
3
2
2
1
1
1
1
10
3
2
2
2
1
1
1
10
3
2
2
2
1
1
1
9
3
2
2
2
1
1
1
9
3
2
2
2
1
1
1
9
3
2
2
2
1
1
1
9
3
2
2
2
1
1
2
9
4
2
2
2
1
1
1
9
4
2
1
2
1
1
1
9
4
2
1
2
1
1
1
10
4
2
1
2
1
1
1
9
4
2
1
2
1
1
1
9
4
2
1
2
1
1
1
9
4
2
1
2
1
1
1
9
4
2
1
2
1
1
1
9
4
2
1
2
1
1
1
9
4
2
1
2
1
1
1
9
3
2
1
2
1
1
1
9
3
2
1
2
1
1
1
9
3
2
1
2
1
1
1
9
3
2
1
2
1
1
1
9
3
2
1
2
1
1
1
9
3
2
1
2
1
1
1
9
4
2
1
2
1
1
1
12
4
2
1
2
1
1
1
12
4
2
1
2
1
1
1
12
4
2
1
2
1
1
1
11
4
2
1
2
1
1
1
12
4
2
1
2
1
1
1
13
4
2
1
2
1
1
1
13
4
2
1
2
1
1
1
12
4
2
1
2
1
1
1
12
4
2
1
2
1
1
1
12
4
2
1
2
1
1
1
12
4
2
1
2
1
1
1
12
4
2
1
3
1
1
1
12
4
2
1
3
1
1
1
12
4
2
1
3
1
1
1
12
4
2
1
3
1
1
2
12
4
2
1
3
1
1
2
11
4
2
1
2
1
1
2
11
4
2
1
3
1
1
2
12
4
2
1
3
1
1
2
12
4
2
1
3
1
1
2
12
4
2
1
2
1
1
2
12
4
2
1
2
1
1
2
12
4
2
1
2
1
1
2
12
4
2
1
3
1
1
2
12
4
2
1
3
1
1
2
12
4
2
1
3
1
1
2
12
4
2
1
3
1
1
2
12
4
2
1
3
1
1
2
12
4
2
1
3
1
1
2
12
4
2
1
3
1
1
2
12
4
2
1
3
1
1
2
12
4
2
1
3
1
1
2
12
4
2
1
3
1
1
2
12
4
2
1
3
1
1
2
12
4
2
1
3
1
1
2
12
4
2
1
2
1
1
2
13
4
2
1
2
1
1
2
13
4
2
1
3
1
1
2
13
4
2
1
3
1
1
2
13
4
2
1
3
1
1
2
13
4
2
1
3
1
1
2
13
4
2
1
3
1
1
2
13
4
2
2
3
1
1
2
13
4
2
2
3
1
1
2
13
4
2
1
3
1
1
2
13
4
2
1
3
1
1
2
13
4
2
1
2
1
1
2
13
4
2
2
2
1
1
2
13
5
2
2
2
1
1
2
13
4
2
2
2
1
1
2
11
4
2
2
2
1
1
2
11
4
2
2
2
1
1
2
11
4
2
2
2
1
1
2
11
4
2
2
2
1
1
2
11
4
2
2
2
1
1
2
10
4
2
2
2
1
1
2
10
4
2
2
2
1
1
2
10
4
2
2
2
1
1
2
10
4
2
2
2
1
1
2
10
4
2
2
2
1
1
2
10
4
2
2
2
1
1
2
10
4
2
2
2
1
1
2
10
4
2
2
2
1
1
2
10
4
2
2
2
1
1
2
10
4
2
2
2
1
1
2
10
4
2
2
2
1
1
2
10
4
2
2
2
1
1
2
10
4
2
2
2
1
1
2
10
4
2
2
2
1
1
2
9
4
2
2
2
1
1
2
10
4
2
2
2
1
1
2
10
4
2
2
2
1
1
2
10
4
2
2
2
1
1
2
10
4
2
2
2
1
1
2
10
4
2
2
2
1
1
1
10
4
2
2
2
1
1
1
10
4
2
2
2
1
1
1
10
4
2
2
2
1
1
1
10
4
2
1
2
1
1
1
10
4
2
1
2
1
1
1
10
4
2
1
2
1
1
1
10
4
2
1
2
1
1
1
10
4
2
1
2
1
1
1
10
4
2
1
2
1
1
1
9
4
2
1
2
1
1
1
9
4
2
1
2
1
1
1
8
4
2
1
2
1
1
1
8
4
2
1
2
1
1
1
8
4
2
1
2
1
1
1
8
4
2
1
2
1
1
1
8
3
2
1
2
1
1
1
7
3
2
1
2
1
1
1
7
3
1
1
2
1
1
1
7
3
1
1
2
1
1
1
8
3
1
1
2
1
1
1
8
3
1
1
2
1
1
1
8
3
2
1
2
1
1
1
8
3
2
1
2
1
1
1
8
3
2
1
2
1
1
1
8
3
2
1
2
1
1
1
9
3
2
1
2
1
1
1
9
3
2
1
2
1
1
1
8
3
2
1
2
1
1
1
8
3
2
1
2
1
1
1
8
3
2
1
2
1
1
1
8
3
2
1
2
1
1
1
8
3
1
1
2
1
1
1
9
3
1
1
2
1
1
1
9
3
1
1
2
1
1
1
9
3
1
1
2
1
1
1
9
3
1
1
2
1
1
1
9
3
1
1
2
1
1
1
9
3
1
1
2
1
1
1
9
3
1
1
2
1
1
1
9
3
1
1
2
1
1
1
9
3
1
1
2
1
1
1
9
3
1
1
2
1
1
1
10
3
1
1
2
1
1
1
10
3
1
1
2
1
1
1
10
3
1
1
2
1
1
1
9
3
1
1
2
1
1
1
9
3
1
1
2
1
1
1
9
3
1
1
2
1
1
1
9
3
2
1
2
1
1
1
9
3
2
1
2
1
1
1
9
3
2
1
2
1
1
1
9
3
2
1
2
1
1
1
9
3
2
1
2
1
1
2
9
3
2
1
2
1
1
2
9
3
2
1
2
1
1
2
9
3
2
1
2
1
1
2
9
3
2
1
2
1
1
2
9
3
2
1
2
1
1
2
9
3
2
1
2
1
1
2
9
3
2
1
2
1
1
2
9
3
2
1
2
1
1
2
9
3
2
1
2
1
1
2
9
3
2
1
2
1
1
2
9
3
2
1
2
1
1
2
9
3
2
1
2
1
1
2
9
3
2
1
2
1
1
2
9
3
2
1
2
1
1
2
9
3
2
1
2
1
1
2
9
3
2
1
2
1
1
2
8
3
2
1
2
1
1
2
8
3
2
1
2
1
1
2
8
4
2
1
2
1
1
2
9
4
2
1
2
1
1
2
10
4
2
1
2
1
1
2
10
4
2
1
2
1
1
2
9
4
2
1
2
1
1
2
9
4
2
1
2
1
1
2
9
4
3
1
2
1
1
2
9
4
3
1
2
1
1
2
9
4
3
1
2
1
1
2
10
4
2
1
1
1
1
2
10
4
3
1
1
1
1
2
10
4
3
1
1
1
1
2
10
4
3
1
1
1
1
2
10
4
3
1
2
1
1
2
10
4
3
1
2
1
1
2
10
4
3
1
2
1
1
2
10
4
3
1
2
1
1
2
10
4
3
1
2
1
1
2
10
4
3
1
2
1
1
2
10
4
3
2
2
1
1
2
10
4
3
2
1
1
1
2
9
4
3
2
1
1
1
2
9
4
3
2
1
1
1
2
9
4
3
2
1
1
1
2
9
4
3
2
1
1
1
2
9
4
3
2
1
1
1
2
9
4
3
2
1
1
1
1
9
4
3
2
1
1
1
1
9
4
3
2
1
1
1
1
9
4
3
2
1
1
1
2
9
4
3
2
1
1
1
2
9
5
3
2
1
1
1
2
9
5
3
2
1
1
1
2
9
5
3
2
1
1
1
2
9
5
3
2
1
1
1
2
9
5
3
2
1
1
1
2
9
5
3
2
1
1
1
2
9
5
3
2
1
1
1
2
9
5
3
2
2
1
1
2
9
5
3
2
2
1
2
2
9
5
3
2
2
1
2
2
9
5
3
2
2
1
2
2
9
6
3
2
2
1
2
3
9
6
3
2
2
1
2
3
9
6
3
2
2
1
2
3
10
6
4
2
2
1
2
3
9
6
4
2
2
1
2
3
10
6
4
2
2
1
3
3
10
6
3
2
2
1
3
3
10
6
4
2
2
1
3
3
10
6
3
2
2
1
3
3
10
6
3
2
2
1
3
3
9
6
3
2
2
1
3
4
9
6
3
2
2
1
4
5
9
6
3
2
2
2
5
5
9
6
3
2
2
2
5
5
9
6
3
2
2
2
5
5
9
6
3
2
3
2
6
5
9
6
4
2
3
2
6
5
9
6
4
2
4
2
6
6
9
6
5
2
4
2
10
6
8
8
5
2
5
4
14
7
10
9
5
2
5
5
14
8
10
9
5
2
5
5
20
8
10
9
6
2
5
6
22
9
14
10
6
3
5
6
23
10
14
10
6
3
5
6
25
10
16
10
6
3
5
7
26
10
16
10
6
3
5
7
27
11
17
12
7
4
5
7
27
11
17
13
7
4
6
8
27
13
17
19
7
4
9
9
28
21
19
20
7
4
9
9
29
21
19
20
7
4
9
10
29
21
19
21
7
5
9
10
32
22
19
21
7
5
10
11
33
22
19
22
7
5
10
11
38
23
19
22
8
5
10
12
39
24
20
22
10
6
11
15
39
24
20
22
10
6
11
15
40
26
20
23
11
6
12
15
41
27
22
23
11
6
12
16
41
27
23
23
12
6
12
16
44
27
23
26
12
6
12
16
45
27
24
26
12
6
12
16
47
27
24
28
12
7
12
16
47
27
24
28
12
7
12
16
49
28
24
28
12
9
13
16
49
30
25
28
12
10
13
17
50
31
25
28
12
10
13
17
50
31
26
28
12
10
13
18
50
32
26
28
12
10
13
18
50
32
26
28
12
10
13
20
50
32
27
28
12
10
14
20
52
35
27
28
12
10
14
20
52
36
29
29
12
11
15
20
53
37
30
29
12
12
15
20
54
38
30
29
12
12
15
21
55
39
32
29
12
12
15
21
55
39
32
30
12
12
15
21
56
39
32
30
12
13
17
21
56
43
32
30
13
13
17
21
57
45
32
30
13
14
17
21
57
45
33
32
13
14
18
22
57
46
33
32
13
14
18
23
57
47
34
32
13
14
18
23
60
48
35
32
13
14
18
23
60
48
35
33
13
15
18
23
60
48
35
33
14
15
18
23
60
48
35
33
13
16
18
23
61
48
36
33
13
16
19
23
62
49
36
33
13
16
19
23
63
50
36
34
13
17
19
23
63
50
37
35
13
17
19
23
61
50
37
35
13
17
19
23
61
50
36
36
13
17
19
23
62
51
37
36
13
17
19
23
62
51
36
37
13
17
20
23
62
51
38
37
13
17
20
23
62
52
39
36
13
17
20
23
63
51
39
36
12
17
20
23
63
51
39
34
13
17
20
22
62
50
39
33
12
17
19
22
63
49
39
33
12
17
19
22
63
51
39
33
13
17
19
23
63
51
40
33
13
17
19
25
63
51
40
33
13
17
19
25
61
51
40
33
13
17
19
25
61
50
41
32
12
17
18
23
61
51
41
33
12
17
18
23
60
50
41
32
11
17
18
23
60
49
39
32
11
17
18
23
60
49
40
32
11
17
18
23
57
50
40
30
11
17
18
23
57
52
39
30
10
17
19
24
56
53
39
30
10
16
18
24
56
53
39
30
11
16
18
24
55
53
39
30
11
15
18
24
55
54
39
30
11
15
18
23
56
55
39
30
11
15
18
23
55
54
38
30
11
15
19
23
55
54
38
30
11
15
19
22
55
55
38
30
11
15
19
22
55
55
38
30
11
15
18
23
54
54
38
30
11
15
19
22
54
54
37
30
11
14
18
23
54
53
37
30
11
14
18
22
53
53
36
30
11
14
18
22
51
53
35
30
11
14
18
23
51
53
35
29
11
14
18
23
51
53
35
29
11
13
16
23
51
51
35
29
11
13
16
23
50
50
36
29
11
13
16
23
50
49
35
28
11
12
16
22
50
49
36
28
10
12
16
21
50
48
35
28
10
12
16
22
48
48
35
27
10
12
17
22
48
48
35
27
10
11
18
23
48
48
35
27
10
11
17
23
47
48
35
27
10
10
17
23
47
48
35
27
10
10
16
23
45
46
35
27
10
10
16
24
42
46
35
25
10
9
18
25
45
47
34
26
10
9
18
25
45
47
35
25
9
9
18
25
45
47
34
24
9
9
18
26
44
47
34
23
10
9
18
26
41
46
33
23
10
9
18
26
41
47
32
23
9
9
18
26
41
47
31
23
9
9
18
26
41
47
30
23
10
9
17
26
40
47
30
22
9
9
17
26
40
46
31
22
9
9
17
26
39
46
32
22
9
9
17
26
41
44
33
22
9
9
17
26
40
44
31
26
8
9
17
23
38
44
32
26
8
9
17
23
38
44
33
26
8
9
17
23
38
44
32
26
8
9
17
23
41
45
32
26
9
10
18
24
43
45
33
29
9
9
18
24
45
46
33
29
9
9
18
24
45
45
33
29
9
9
18
24
45
44
33
28
9
9
18
24
45
42
32
27
9
9
18
24
44
42
32
27
9
9
18
23
44
42
32
26
8
9
18
24
44
41
33
26
8
10
19
24
44
40
33
26
8
10
18
24
44
40
33
26
8
10
18
24
44
40
33
27
8
10
18
25
44
40
33
27
8
10
19
25
44
39
33
27
8
10
19
24
44
38
33
27
8
10
19
23
45
39
33
28
8
10
19
23
44
38
33
28
8
10
18
24
44
38
33
29
8
10
18
24
45
37
34
29
8
10
19
24
46
36
34
29
8
10
19
24
46
37
34
29
8
10
19
24
46
37
34
29
8
10
19
24
46
37
36
29
8
10
19
24
47
36
35
29
8
10
19
24
47
36
35
30
8
10
19
24
47
37
34
30
8
10
19
24
47
37
34
30
8
10
19
24
46
37
34
30
8
10
18
23
46
37
34
30
8
9
17
23
46
36
34
29
8
9
17
23
47
36
34
29
8
9
17
23
47
36
34
29
8
11
18
23
47
37
34
29
8
11
18
22
48
37
34
29
9
11
17
20
46
36
34
30
9
11
17
20
46
35
34
32
9
11
17
20
45
34
34
32
9
11
17
20
46
34
34
32
9
11
17
20
46
34
34
32
9
11
17
20
48
33
34
33
9
11
17
20
50
32
34
33
9
11
17
20
49
32
34
33
10
11
17
20
49
32
34
33
10
11
17
20
49
32
34
33
10
11
16
20
50
32
34
33
10
11
16
19
49
32
34
33
10
11
16
19
48
34
34
31
10
11
16
19
48
37
33
31
10
11
16
20
48
37
33
31
10
11
16
20
48
37
33
31
10
11
16
20
46
36
33
30
10
11
16
20
45
36
32
28
9
11
16
21
42
35
33
28
9
10
16
21
44
35
32
28
9
10
16
21
45
37
33
29
9
10
16
21
45
38
32
31
9
10
16
21
45
38
32
31
9
10
16
21
45
38
32
31
9
10
16
21
45
38
32
32
9
11
15
21
44
37
32
32
10
10
15
20
45
35
31
32
9
10
15
20
45
35
32
33
9
10
15
21
46
35
31
33
9
10
14
21
46
35
32
33
9
10
14
21
46
35
33
33
10
10
14
21
45
35
32
32
10
10
14
21
47
35
32
31
10
10
14
21
47
35
32
31
10
10
14
20
45
35
31
31
10
10
14
20
45
35
31
31
10
10
14
20
47
36
31
31
10
10
16
20
46
37
30
31
9
11
16
20
46
37
28
31
9
11
17
20
46
38
29
30
9
11
17
22
47
38
29
30
9
11
18
22
47
37
29
30
10
11
18
23
46
36
29
31
10
11
18
23
46
36
29
31
10
11
18
22
46
36
29
31
10
11
18
22
46
36
29
31
10
11
18
22
47
36
29
31
10
11
18
22
49
36
28
31
10
10
18
22
48
36
27
31
10
10
18
22
48
36
27
31
10
10
18
22
47
36
26
29
10
10
17
22
47
36
26
28
9
10
18
22
48
36
26
28
10
10
18
23
48
37
25
28
10
10
18
22
49
37
25
27
10
10
18
22
48
39
25
27
10
10
18
22
46
39
25
27
10
10
18
22
46
39
25
28
10
10
18
22
47
39
24
28
10
9
18
22
46
39
24
28
10
9
18
22
46
39
21
28
10
9
18
23
46
39
21
28
9
9
19
23
47
38
21
27
9
9
19
25
47
36
21
28
9
9
19
25
47
35
20
28
9
10
19
25
48
35
20
27
9
9
19
25
49
36
20
28
10
10
19
25
49
36
20
28
10
10
19
24
49
36
21
28
10
10
18
24
47
36
21
28
10
10
18
24
46
33
21
27
10
10
18
24
46
32
21
25
10
10
18
24
46
32
21
25
10
10
18
24
46
31
22
25
10
9
18
24
46
33
22
25
10
9
18
24
46
33
23
25
10
9
19
24
47
33
24
25
10
10
20
24
47
33
24
24
10
10
20
24
47
33
24
23
10
10
20
23
47
33
24
24
10
10
20
23
46
33
22
23
10
10
20
23
47
33
22
23
10
10
20
23
46
33
23
23
10
10
20
23
46
33
23
24
9
10
20
23
46
33
23
23
9
10
20
23
47
34
23
23
9
10
20
23
46
32
22
23
9
9
18
22
46
30
22
23
9
9
18
22
46
30
22
23
9
9
17
22
45
29
21
23
9
9
17
20
44
29
21
23
9
9
16
20
44
29
21
23
8
9
16
20
44
29
21
22
8
9
16
19
44
29
21
22
8
9
16
19
44
29
21
22
8
8
16
19
44
29
21
22
8
8
16
19
42
28
21
22
8
8
16
19
41
28
21
22
8
8
15
19
41
28
20
21
8
8
14
19
40
28
20
21
8
8
14
19
40
28
20
21
8
7
14
19
40
28
20
20
8
7
14
18
39
27
20
20
7
7
14
18
38
27
20
19
7
7
13
18
38
27
20
19
7
7
13
18
36
23
20
19
7
7
13
18
36
23
20
18
7
7
13
18
35
23
20
17
7
7
14
17
35
23
20
17
7
7
14
17
35
22
20
17
6
7
14
17
35
22
19
17
6
7
14
17
35
22
19
17
6
7
13
15
32
22
19
16
6
7
13
12
31
21
19
15
6
8
14
12
31
21
19
15
6
8
17
12
30
21
19
16
6
13
17
12
27
20
19
15
5
13
17
11
27
19
19
15
5
13
17
10
26
19
18
15
5
13
17
10
26
20
17
15
5
14
17
10
26
21
17
15
5
14
17
11
26
21
17
15
5
14
17
11
25
20
17
15
6
14
18
11
25
21
18
15
6
14
18
10
25
17
18
15
6
15
18
10
25
17
19
15
6
15
16
10
22
17
18
13
6
14
15
10
20
17
18
13
5
14
15
9
20
16
18
14
5
14
15
9
20
16
19
13
5
14
15
9
20
17
22
13
6
14
16
9
17
17
24
14
6
14
15
8
15
16
24
15
6
14
15
9
15
16
24
15
7
15
15
8
15
16
25
16
8
15
16
9
11
14
25
16
8
15
16
9
11
14
27
17
8
15
15
9
11
14
28
17
9
15
15
9
11
14
30
17
9
15
15
9
10
13
31
17
9
15
15
9
11
14
32
18
9
15
15
9
9
14
31
18
9
16
17
9
9
14
32
18
9
16
17
9
9
14
33
18
9
16
18
9
9
15
34
18
9
16
18
9
8
15
34
19
9
17
18
9
8
15
34
19
9
17
18
10
8
15
35
19
9
17
18
10
8
14
36
19
9
17
18
10
8
14
36
19
9
17
19
10
8
14
37
19
9
17
19
10
8
14
37
19
9
17
19
10
8
14
37
19
9
17
19
10
8
14
38
19
9
17
19
10
8
14
37
19
9
17
19
10
8
14
38
19
9
17
19
10
8
14
38
20
9
17
19
10
8
14
38
20
9
17
18
10
8
14
38
20
9
17
18
10
8
14
38
20
9
17
18
10
8
15
39
20
9
17
18
10
8
15
39
20
9
17
18
10
8
15
40
21
10
17
18
10
8
15
40
21
10
17
17
9
7
15
40
21
10
17
15
9
7
15
40
20
9
13
15
9
7
15
40
20
9
13
15
9
7
15
40
20
9
13
15
9
7
15
40
20
9
13
14
9
7
15
40
20
9
13
14
9
7
14
40
19
9
13
14
8
7
14
40
19
9
12
14
7
7
14
40
19
9
12
14
7
7
13
40
19
9
12
14
7
7
13
39
19
9
11
14
7
7
13
38
19
9
12
14
7
7
13
38
19
9
12
14
7
7
13
38
19
9
12
14
7
7
13
37
19
9
11
14
7
7
13
37
19
9
11
14
7
7
13
37
19
9
11
13
7
7
13
35
18
9
11
13
7
7
13
35
17
9
11
13
7
6
12
35
17
8
11
13
7
6
12
34
16
7
10
12
7
5
12
34
16
7
10
12
6
5
11
33
15
6
10
12
5
5
11
32
15
6
10
12
5
5
11
29
15
6
10
12
5
5
11
30
15
6
10
12
5
5
10
28
14
6
10
12
5
5
10
29
13
6
9
11
5
5
10
28
13
6
9
9
5
5
9
27
13
6
8
8
5
5
9
26
13
5
8
8
5
5
8
25
12
5
7
7
5
4
8
25
12
5
7
7
4
4
8
24
12
5
7
7
4
4
8
22
11
5
7
7
3
4
9
24
11
5
7
7
3
4
8
24
11
5
7
7
3
4
8
24
11
5
6
7
3
4
8
24
11
5
6
7
3
4
8
25
12
5
6
7
3
4
8
25
11
5
6
6
3
4
8
25
11
4
6
6
3
4
8
24
11
4
6
6
3
4
8
24
10
4
6
6
3
4
8
24
10
4
6
6
3
4
8
24
10
4
7
6
3
4
8
23
10
4
7
6
3
4
8
23
10
4
7
6
3
4
7
21
9
4
7
6
3
3
7
21
9
4
6
6
3
3
7
21
9
4
6
6
3
3
7
21
9
4
6
5
3
3
7
21
9
4
6
5
3
3
7
21
9
4
6
5
3
3
7
20
9
4
6
5
3
3
7
21
9
4
6
5
3
3
6
21
9
4
6
5
3
3
6
21
9
4
6
5
3
3
6
21
9
4
6
5
3
3
6
21
9
4
6
5
3
3
6
21
9
3
6
5
3
3
6
21
9
3
6
5
3
3
6
21
9
3
6
5
3
3
6
21
8
3
6
4
3
3
6
21
8
3
6
5
3
3
6
21
8
3
6
5
3
3
6
20
7
3
6
5
3
3
6
20
7
3
6
5
3
3
6
20
7
3
6
5
3
3
6
20
7
3
6
5
3
3
5
20
7
3
6
5
3
3
5
20
6
3
6
5
3
3
5
20
6
3
5
5
3
3
5
20
7
3
5
5
3
3
5
21
7
3
5
5
2
3
5
21
7
3
5
5
2
3
5
21
7
3
5
5
2
3
5
21
7
3
5
5
2
3
5
21
7
3
5
5
2
2
5
21
7
3
5
5
1
2
5
21
7
3
5
5
1
2
5
21
7
3
5
5
1
2
5
21
7
3
5
5
1
2
5
21
7
3
5
5
1
2
5
21
7
3
5
5
1
2
4
19
7
3
5
5
1
2
4
17
7
3
5
5
1
2
4
17
7
3
5
5
1
2
4
16
7
3
5
5
1
2
4
16
7
3
5
5
1
2
4
16
7
3
5
5
1
2
4
15
7
3
5
4
1
2
4
15
7
3
5
4
1
2
4
16
7
3
5
4
1
2
4
16
7
3
4
4
1
2
4
15
7
3
3
4
1
3
4
15
6
3
3
4
1
3
4
16
6
3
3
4
1
3
4
16
7
3
3
4
1
3
4
16
7
3
2
4
1
3
4
16
7
3
2
4
1
3
4
16
7
3
2
4
1
3
4
16
7
3
2
4
1
3
4
16
7
3
2
4
1
3
4
16
7
3
2
4
1
4
4
15
7
3
2
4
1
4
4
15
7
3
2
4
1
4
4
15
7
3
2
4
1
4
4
15
7
3
2
4
1
4
3
15
7
3
2
4
1
4
3
14
7
3
2
4
1
4
3
14
7
3
2
4
1
4
4
14
7
3
2
4
1
5
4
14
7
3
2
4
1
5
4
14
7
3
2
3
1
5
4
14
7
3
2
3
1
5
4
14
7
3
2
3
1
5
4
14
7
3
2
3
1
5
4
14
7
3
2
3
1
5
4
14
7
3
2
3
1
7
4
14
7
3
2
3
1
10
4
14
7
3
2
3
1
10
4
14
7
3
2
3
2
10
4
14
6
3
2
3
1
10
4
12
6
3
2
3
1
11
4
12
6
3
2
3
2
11
4
12
7
3
2
3
2
11
4
12
7
3
2
3
2
12
4
12
7
3
2
3
2
12
4
12
6
3
2
3
2
13
4
12
6
3
2
3
2
15
4
12
7
3
2
3
2
17
4
12
7
3
2
3
2
20
4
12
7
3
2
3
3
21
6
13
7
3
2
3
3
22
6
13
7
3
2
3
4
22
6
14
7
3
2
3
4
23
6
16
6
3
2
4
5
25
7
19
8
4
2
4
5
26
11
20
10
4
2
4
5
26
12
20
10
4
2
4
6
27
13
20
10
4
2
5
7
28
14
20
12
4
2
5
7
29
14
22
15
4
2
5
8
32
16
22
15
4
3
5
9
36
17
22
15
5
3
5
9
37
18
22
15
5
3
6
9
39
19
22
15
5
3
6
9
39
20
22
15
5
3
6
9
39
20
22
15
6
3
8
10
41
21
22
16
6
3
8
10
41
21
22
16
7
3
8
10
41
21
23
16
7
3
8
10
41
21
24
16
7
3
8
10
41
21
24
17
7
3
8
10
42
22
27
17
8
4
8
10
43
24
27
17
8
4
8
11
44
25
27
18
8
4
8
11
44
25
28
18
8
4
9
11
44
25
28
19
9
4
9
12
46
26
29
19
9
4
9
14
47
26
29
20
9
4
9
14
48
27
30
20
9
5
10
14
49
27
30
20
9
6
10
14
49
27
30
21
9
6
11
16
50
27
30
21
10
6
11
16
50
28
31
22
10
6
11
16
53
28
32
22
10
6
12
16
54
28
32
22
11
6
12
16
55
28
33
22
11
6
12
17
54
28
33
22
11
6
12
17
55
29
36
23
11
7
12
17
55
29
37
23
11
7
12
17
56
29
37
24
11
7
12
18
57
31
37
24
12
7
12
18
57
31
38
24
12
7
12
18
58
31
38
25
12
7
13
19
59
31
38
25
12
8
13
19
59
31
39
25
12
8
13
19
61
31
40
26
12
8
14
19
63
32
40
26
12
8
14
20
65
32
40
26
12
9
14
20
67
32
40
26
12
9
14
20
67
32
41
26
12
9
14
20
67
32
41
26
12
9
14
20
67
33
41
26
12
9
14
20
67
33
41
26
12
8
14
20
67
33
40
27
12
8
14
21
67
33
40
27
12
8
14
21
66
32
39
27
12
8
14
21
67
31
39
27
12
8
14
21
66
31
39
27
12
8
14
21
67
33
39
28
13
9
14
21
69
35
38
28
13
9
14
22
69
34
38
28
13
9
14
22
68
34
38
28
12
9
14
21
68
34
37
28
12
9
14
22
67
33
37
29
13
9
14
22
69
32
37
29
13
9
14
22
69
32
37
29
12
9
13
22
68
32
37
29
12
9
13
22
70
32
38
29
12
9
13
22
72
32
38
30
12
9
13
23
73
32
38
30
12
9
13
23
74
33
37
30
12
9
14
24
74
32
36
30
12
9
14
24
73
31
35
30
11
9
14
24
73
30
35
30
11
9
14
23
73
30
35
30
12
9
14
23
73
30
35
30
12
9
14
23
73
29
34
31
12
9
14
22
73
31
34
30
12
9
14
22
73
31
34
31
13
9
13
23
72
31
34
31
13
9
13
23
72
31
34
31
13
9
13
22
71
31
34
31
13
9
13
22
71
31
33
31
13
9
13
22
70
32
32
31
13
9
12
22
70
32
32
31
12
8
12
22
71
32
32
31
12
8
12
22
71
31
32
31
12
8
13
22
72
31
29
31
12
9
13
21
71
31
27
31
12
8
13
21
71
32
27
31
12
8
13
21
70
30
27
31
12
8
13
21
71
32
26
31
12
8
13
21
70
32
26
30
12
8
12
21
70
32
26
30
12
8
12
21
69
32
25
31
12
8
12
21
68
34
24
31
12
7
12
21
66
34
24
31
12
7
12
21
64
34
24
31
12
7
12
21
62
34
24
31
12
7
12
21
61
34
23
31
12
7
12
20
62
34
23
31
12
7
12
20
62
35
23
31
12
7
12
20
62
35
23
32
12
7
12
20
62
36
23
31
12
7
12
20
62
36
21
31
12
7
12
20
62
39
21
32
12
7
12
19
62
39
21
32
12
7
13
19
62
39
22
32
12
8
12
19
61
37
23
30
12
7
12
19
58
35
23
30
12
7
12
18
57
35
24
30
12
7
12
18
55
35
24
30
12
7
12
18
54
35
24
30
12
7
12
18
55
35
24
29
12
7
12
18
53
35
24
29
12
7
12
17
52
35
24
29
12
7
12
17
52
35
24
29
12
7
12
17
50
35
22
30
12
7
13
17
47
36
22
29
12
7
13
16
45
36
22
30
12
7
13
16
45
35
22
30
12
7
13
15
43
35
22
30
12
7
13
15
43
35
22
30
12
7
13
15
42
36
22
30
12
7
13
15
42
36
22
29
12
7
13
15
42
36
22
29
11
7
13
15
41
36
23
28
11
7
13
15
40
35
23
28
11
7
12
15
40
34
23
28
10
6
13
13
41
34
23
27
10
6
12
13
41
34
23
27
10
6
13
13
41
34
23
26
11
6
13
13
41
34
23
26
11
6
13
13
39
34
23
26
11
6
13
13
39
34
23
27
11
6
13
12
37
34
24
27
11
6
13
12
37
34
24
27
11
7
12
12
35
34
24
27
11
6
12
12
35
34
24
27
11
6
12
12
34
33
25
27
10
6
12
12
35
33
24
28
11
6
12
12
34
32
24
29
11
6
12
12
37
32
25
30
11
6
12
12
36
33
25
30
11
7
12
12
35
33
24
28
11
7
11
11
35
31
24
27
11
7
11
11
35
31
24
28
10
7
11
11
34
31
24
28
10
7
11
11
36
32
24
28
10
7
11
12
37
32
24
28
10
7
12
12
36
33
24
28
10
7
11
12
37
31
24
28
10
7
11
12
38
31
24
28
10
7
11
12
38
30
23
29
10
7
11
12
38
29
24
29
10
7
12
13
38
26
24
28
10
7
12
13
38
26
24
27
10
7
11
13
38
25
24
27
10
7
11
13
40
25
23
27
10
7
11
13
40
27
22
27
10
7
11
13
40
27
21
27
10
7
11
13
40
27
21
27
10
7
11
13
40
28
21
27
10
7
11
13
39
27
21
27
10
7
11
14
40
28
21
27
10
7
11
14
40
28
21
27
10
7
11
14
40
27
21
27
10
7
11
14
40
28
21
25
10
7
11
14
40
27
21
25
10
7
10
14
40
29
22
25
10
7
9
14
40
29
22
25
10
7
9
14
41
29
22
25
10
10
10
14
41
29
22
25
10
10
10
14
42
29
22
25
10
10
10
15
42
29
22
28
10
10
10
16
45
29
22
28
11
10
11
18
46
29
21
28
10
10
11
18
46
29
21
28
10
10
11
18
46
30
21
28
11
10
11
18
45
30
21
28
10
11
11
19
45
30
21
28
10
11
11
19
45
31
21
28
10
10
11
19
46
30
20
28
10
10
11
19
46
30
20
28
10
10
11
19
45
30
20
28
10
11
11
19
48
30
19
28
10
11
11
20
48
30
19
28
10
10
11
20
48
29
19
28
10
10
11
20
49
30
21
27
10
10
11
20
49
31
20
27
10
10
11
20
50
31
20
27
10
10
11
20
50
31
20
25
10
10
11
20
49
33
19
24
10
10
11
20
49
32
19
25
10
10
11
20
50
33
19
25
10
11
12
22
49
33
19
25
10
11
12
22
49
33
19
24
10
11
12
22
50
32
19
24
10
11
12
21
49
32
19
24
10
10
12
21
49
31
18
24
10
10
12
21
52
31
19
24
10
10
12
21
51
32
19
25
10
10
12
21
50
32
19
25
10
10
12
21
50
32
19
24
10
10
12
21
50
34
18
24
10
10
12
21
49
34
18
24
10
10
12
21
49
35
18
25
10
11
12
21
51
35
18
24
10
11
12
21
49
35
18
24
10
11
12
21
49
34
18
24
10
11
12
21
50
34
18
24
10
11
12
20
50
33
18
24
10
11
12
20
50
34
20
24
10
11
12
20
50
34
21
26
10
11
12
20
50
34
21
27
10
11
13
21
49
34
21
28
10
11
13
22
50
35
21
28
10
11
13
22
50
34
21
28
10
11
13
23
51
34
21
27
10
11
13
23
51
33
20
28
10
11
14
23
51
33
20
28
10
11
14
23
52
34
21
28
10
8
13
23
53
35
21
29
10
8
13
24
53
36
21
29
10
8
13
24
53
36
21
27
10
8
13
24
51
36
21
26
9
8
12
23
51
36
21
27
9
8
12
23
50
36
21
27
9
8
12
23
50
35
21
27
9
8
12
23
50
35
21
27
9
8
12
23
50
35
21
27
9
8
12
23
50
35
21
27
9
8
12
23
50
35
21
26
9
8
12
23
51
35
21
26
9
7
12
23
53
35
22
26
10
7
12
23
50
35
21
26
10
7
12
22
50
35
21
26
10
7
12
23
52
35
21
26
10
7
12
23
51
35
20
27
10
7
13
23
51
34
20
28
12
8
13
23
50
33
20
28
12
8
13
23
50
33
20
28
12
8
13
23
49
31
20
28
12
8
13
23
50
35
21
28
12
8
13
23
49
34
21
28
12
8
13
22
49
34
21
27
12
8
13
21
48
34
21
27
12
8
13
21
47
34
22
27
12
8
13
21
47
34
22
27
12
8
12
21
46
34
22
27
12
8
12
21
43
34
21
27
12
8
12
21
42
33
21
27
12
8
12
21
42
33
21
27
12
8
12
21
42
33
21
26
12
8
12
21
42
31
21
26
12
8
12
21
42
31
21
26
12
8
11
21
42
30
21
25
12
7
11
21
39
30
21
25
12
7
11
21
40
30
20
25
12
7
11
21
40
30
20
25
12
7
11
21
39
30
20
25
12
7
11
21
39
30
20
25
12
7
11
20
39
29
18
25
12
6
11
20
39
29
18
23
12
6
11
20
38
29
18
21
11
6
10
19
38
29
17
20
11
6
10
18
37
29
17
20
11
6
10
18
37
29
17
20
11
6
9
17
37
29
17
20
11
6
9
17
36
28
17
20
11
6
9
16
36
28
16
20
11
6
9
16
33
27
15
19
11
7
8
16
32
25
15
17
11
7
8
15
30
23
15
17
11
6
8
14
30
23
14
16
11
7
8
13
30
23
14
16
11
7
8
12
29
23
14
15
11
7
8
12
29
23
14
15
11
6
8
11
28
22
13
15
11
6
8
11
28
22
13
14
11
6
8
10
28
22
13
14
10
6
8
10
28
22
13
14
10
6
8
10
27
22
13
14
10
6
8
9
25
21
14
14
10
7
8
9
20
21
12
14
9
7
8
9
20
21
12
13
9
7
8
9
20
21
12
13
9
7
8
9
15
21
14
14
9
7
8
6
14
21
16
12
8
7
7
6
13
21
17
9
5
7
7
6
13
21
17
9
6
7
8
7
13
21
19
9
5
7
8
6
13
21
19
9
5
7
9
6
11
14
18
8
5
7
9
6
11
14
19
8
5
7
9
6
11
14
19
8
5
7
9
6
11
14
19
9
5
8
9
6
11
13
19
9
5
8
9
6
11
13
19
9
5
8
9
6
11
12
21
10
5
8
9
6
10
12
21
9
5
8
9
6
10
12
22
10
5
8
9
5
9
12
22
10
5
8
10
5
9
11
22
11
5
8
10
5
8
11
24
11
5
8
10
5
8
11
24
11
5
8
10
5
8
11
24
11
5
8
10
5
8
11
26
11
5
8
10
5
8
12
29
15
6
8
10
5
7
12
29
15
6
9
10
5
7
11
30
15
6
9
10
5
7
11
31
15
6
9
10
5
6
11
31
15
6
10
10
5
6
11
32
15
6
10
10
5
6
11
33
15
6
10
10
5
6
11
34
15
6
10
10
5
6
10
35
15
6
10
10
6
6
9
35
15
6
10
10
6
6
9
35
16
6
10
10
6
6
9
35
16
6
10
11
6
6
9
36
16
6
10
11
6
6
10
36
16
6
10
11
6
6
10
36
16
6
10
11
6
6
10
36
16
6
10
11
6
5
10
36
16
6
10
11
6
5
10
36
16
6
10
11
6
5
10
36
16
6
10
11
6
5
10
38
16
6
10
11
6
5
10
38
17
6
10
11
6
5
10
38
17
6
10
11
6
5
10
38
17
6
10
11
6
5
10
39
17
6
10
11
6
5
10
39
17
6
10
11
6
5
10
39
17
6
10
11
6
5
10
39
17
6
10
11
6
5
10
40
17
6
10
12
6
5
10
40
17
6
10
12
6
5
10
39
17
6
10
12
6
5
10
38
17
6
10
11
6
6
10
38
17
6
10
11
7
6
9
38
17
6
10
11
6
6
9
37
17
6
10
11
5
6
9
38
17
6
10
11
5
6
9
38
17
6
9
10
5
6
9
38
17
6
9
10
5
6
9
37
17
6
9
10
5
5
8
37
17
5
9
10
5
4
8
37
17
5
9
10
5
4
8
37
17
5
9
10
5
4
8
36
16
5
9
10
5
4
8
36
16
5
8
10
5
4
8
35
16
5
9
10
5
4
8
35
16
5
8
9
4
4
8
35
16
5
8
9
4
4
8
35
16
5
9
9
4
4
8
35
16
5
9
9
4
4
8
36
16
5
9
10
4
4
8
35
16
5
9
11
5
4
7
32
12
5
9
11
4
4
7
33
12
4
9
11
4
4
6
32
12
4
9
11
4
4
6
31
11
4
8
11
4
4
6
31
12
4
7
11
4
4
6
30
12
4
7
11
4
4
6
29
12
4
7
11
4
4
6
28
12
4
7
11
4
4
5
27
12
4
7
11
4
4
5
27
12
4
7
11
4
4
5
26
11
4
7
11
4
4
5
26
11
4
6
11
4
4
5
26
11
3
6
11
4
4
5
26
11
3
6
11
3
4
5
25
11
3
6
11
3
4
5
25
11
3
7
11
3
4
5
25
10
3
7
12
3
4
5
24
10
3
7
12
3
4
5
24
11
3
7
12
3
4
5
22
10
3
7
12
3
4
5
22
10
3
7
12
3
4
5
22
10
3
7
12
3
4
6
24
9
3
7
12
3
4
6
24
9
3
7
12
3
4
6
23
9
3
7
12
3
4
6
23
9
3
7
12
3
4
6
23
9
3
6
11
3
4
5
22
9
3
5
11
3
4
6
23
9
3
5
11
3
4
6
23
9
3
5
11
3
4
6
23
9
3
5
11
3
3
6
22
9
3
5
10
2
3
6
22
9
3
5
11
2
3
6
22
9
3
5
11
2
3
6
21
8
3
5
10
2
3
6
21
8
3
5
10
2
3
5
21
8
3
5
10
2
3
5
21
8
3
5
11
2
3
5
21
8
3
5
10
2
3
5
21
8
3
5
10
2
3
5
21
8
3
5
10
2
3
5
20
8
4
5
10
2
3
5
20
8
4
5
10
2
3
5
20
8
4
5
10
2
3
5
20
8
4
5
10
2
3
5
20
8
4
5
10
2
3
5
20
7
4
5
10
2
3
6
19
7
4
4
10
2
3
5
17
6
4
4
9
2
3
6
18
6
4
4
8
1
3
5
18
6
4
4
8
1
3
5
17
6
4
4
8
1
3
5
17
6
4
4
8
1
2
5
17
6
4
4
8
1
3
5
17
6
4
4
8
1
3
5
17
6
4
4
8
1
3
5
17
6
4
4
8
1
3
5
17
6
4
4
8
1
3
5
17
5
4
4
8
1
3
5
17
6
4
4
8
1
3
5
17
6
4
4
8
1
3
5
17
6
4
4
8
1
3
5
17
6
4
4
8
1
3
6
17
6
4
4
8
1
3
5
17
6
4
4
8
1
3
5
17
6
4
4
8
1
3
5
17
6
4
3
5
1
3
5
17
6
4
3
5
1
4
5
17
6
4
3
5
1
4
5
16
6
4
3
5
1
4
5
16
6
4
3
5
1
4
5
15
6
4
3
5
1
4
4
12
6
4
3
5
1
4
4
12
6
4
3
5
1
4
4
12
6
4
3
5
1
4
4
12
6
4
3
5
1
4
4
12
6
4
3
5
1
5
4
12
6
4
3
5
1
5
4
11
6
4
3
5
1
5
4
11
6
4
3
4
1
5
4
11
6
4
3
4
1
6
4
11
6
4
2
4
1
6
4
11
6
4
2
4
1
6
4
11
6
4
2
3
1
6
4
10
7
4
2
3
1
6
4
10
6
4
2
3
1
7
4
9
6
4
2
3
1
7
4
9
6
4
2
3
1
7
4
9
6
4
2
3
1
7
4
9
6
4
2
3
1
7
4
9
7
4
2
3
1
7
4
9
7
4
2
3
1
7
5
9
7
3
2
3
2
8
5
9
7
3
2
3
2
9
5
9
7
3
2
3
2
9
5
9
7
3
2
3
2
10
5
9
7
3
2
3
2
10
5
10
7
3
2
3
2
10
5
10
7
3
2
3
2
11
5
9
7
3
2
3
2
12
5
9
7
3
3
3
2
12
5
9
7
3
2
3
2
12
6
9
7
4
2
3
2
18
6
9
8
4
2
3
3
18
7
9
8
4
2
3
4
19
7
11
8
4
2
3
4
19
7
11
8
4
2
3
4
19
8
11
8
5
3
4
4
19
13
12
9
5
3
4
4
19
13
12
9
5
3
4
4
19
13
12
9
8
5
5
6
22
18
14
13
10
5
5
6
25
18
15
13
10
5
6
7
26
19
16
13
10
5
5
7
26
21
16
13
11
5
6
7
27
21
16
14
11
5
6
8
29
21
16
14
11
5
6
8
30
22
16
14
11
5
6
8
31
22
16
14
12
7
7
8
31
23
16
14
12
8
8
8
35
23
17
14
12
8
8
9
39
28
17
14
12
8
8
10
39
28
19
17
12
8
8
11
40
28
20
19
12
8
8
11
41
29
20
19
12
8
8
11
42
30
20
19
12
8
9
12
42
30
21
19
12
8
9
12
43
30
21
19
12
8
9
12
43
30
21
20
12
8
9
13
44
31
24
24
12
8
9
14
45
32
29
24
13
8
10
14
45
32
29
24
13
8
10
14
46
37
29
26
13
8
10
14
46
37
30
26
13
8
10
14
47
37
30
26
13
9
10
14
47
37
31
27
13
9
11
15
47
39
31
27
13
9
10
15
47
40
32
27
13
10
10
15
48
40
33
27
13
10
10
15
50
41
33
28
13
10
11
17
52
41
33
28
13
10
11
17
54
42
33
28
13
12
12
17
55
42
33
30
13
12
12
18
56
44
33
30
13
12
13
18
56
44
33
30
13
12
13
18
56
44
34
30
14
12
14
18
56
45
34
30
14
12
14
18
56
45
33
32
14
12
14
21
58
45
33
35
14
12
15
23
58
45
33
36
14
12
15
23
58
45
33
36
14
12
15
24
61
47
33
36
14
12
15
24
61
47
33
37
15
12
16
24
60
47
34
37
14
12
16
24
60
47
34
37
15
13
17
24
60
48
34
38
15
14
17
25
61
49
34
38
15
14
17
25
61
49
34
38
15
14
17
25
63
48
33
38
15
14
17
25
63
48
33
38
15
14
18
25
63
50
33
38
14
13
18
25
63
49
33
37
13
14
18
25
63
50
32
37
13
14
18
25
63
50
32
37
13
14
18
25
64
50
32
38
13
15
18
25
63
50
32
37
13
14
18
25
63
51
32
39
13
15
18
25
63
51
32
42
13
15
18
25
62
51
32
42
13
14
18
25
62
54
32
42
13
13
18
25
60
55
31
43
13
13
18
25
58
53
33
42
13
13
18
26
58
53
32
43
13
13
18
25
58
53
33
42
13
13
18
25
57
53
33
42
13
13
18
26
58
53
33
42
13
14
18
26
58
54
33
42
13
15
18
26
59
55
33
42
13
16
19
26
59
55
33
42
13
16
19
25
58
55
31
40
13
16
18
25
57
54
28
41
12
16
18
25
57
55
28
41
13
16
18
25
57
53
27
40
13
16
18
25
58
53
26
40
13
16
19
25
58
53
26
40
14
16
19
26
59
53
26
40
14
16
18
25
59
52
27
40
14
16
18
26
59
51
26
40
14
16
18
26
58
51
25
40
14
17
18
27
58
51
25
40
14
17
18
26
57
52
25
40
15
17
18
26
55
53
25
41
15
16
18
26
54
52
25
40
14
16
17
26
53
51
25
40
14
16
18
26
54
51
25
41
15
16
17
26
55
51
26
41
16
16
17
26
56
52
27
41
16
16
17
26
56
55
28
39
16
16
17
24
54
55
28
37
16
16
16
22
55
55
28
37
16
16
16
21
54
55
29
40
17
16
16
21
53
54
29
42
17
16
16
20
53
55
31
42
16
16
15
20
54
56
31
42
16
16
15
21
54
56
31
42
16
16
15
22
55
56
31
41
16
16
15
22
55
55
31
42
16
16
15
22
54
55
31
42
16
16
15
22
53
54
30
43
16
16
16
22
54
54
32
43
16
16
16
22
54
53
32
43
16
16
16
23
53
53
32
43
16
16
16
23
52
52
32
43
16
15
15
24
53
53
32
43
16
15
15
24
54
53
32
43
16
15
16
24
55
53
32
43
16
15
16
24
54
53
32
42
16
15
16
24
54
53
33
39
16
15
16
24
54
53
33
39
16
15
16
24
54
50
33
39
16
15
16
23
55
51
34
40
16
15
16
23
57
52
32
40
17
15
16
23
57
52
33
39
17
15
16
23
57
52
31
39
17
15
17
23
58
53
31
39
17
15
17
22
57
53
32
39
17
14
17
22
58
53
32
40
18
14
16
23
57
51
32
40
18
13
16
24
57
51
31
41
18
13
16
23
57
51
31
41
18
13
16
24
57
53
31
41
18
13
16
24
60
52
32
41
18
13
16
24
59
52
32
41
17
13
16
24
59
51
32
41
17
13
16
23
59
52
31
41
17
13
16
23
59
51
31
41
17
13
18
23
58
51
31
41
17
13
18
23
60
51
31
41
17
12
18
23
60
51
31
40
17
11
18
21
59
51
31
42
17
11
18
21
58
49
31
42
17
11
18
21
58
49
31
42
17
11
18
21
58
50
31
43
17
11
18
21
58
50
32
43
17
11
18
21
57
51
31
42
17
11
18
21
56
51
31
42
16
10
19
21
55
50
29
42
16
10
19
21
55
47
29
43
16
10
19
21
56
47
29
43
15
10
19
21
55
47
29
43
16
10
19
22
54
46
28
39
15
9
18
22
55
46
28
38
15
9
19
22
56
45
26
37
15
10
19
22
55
44
26
37
15
9
19
21
55
43
25
37
15
9
19
20
54
43
25
37
15
9
18
20
54
43
26
37
15
8
18
20
54
43
26
38
15
8
18
20
54
43
27
39
15
8
16
20
53
43
27
38
15
8
16
20
52
43
27
38
15
8
16
18
52
43
27
38
15
8
16
18
52
42
27
38
15
8
16
19
52
42
27
39
15
8
16
18
49
41
27
39
15
8
16
18
49
40
27
39
14
8
17
18
49
43
26
38
14
8
17
19
50
45
25
38
14
8
17
18
50
46
25
40
14
8
16
18
49
45
25
41
14
8
16
18
49
43
24
41
14
8
16
19
45
42
24
41
13
8
16
18
46
41
24
41
13
8
16
18
46
41
25
41
13
8
16
18
47
40
24
41
13
7
16
18
46
40
24
42
14
8
16
18
44
40
23
43
13
8
16
19
45
39
23
44
14
8
16
18
45
39
23
43
13
8
16
18
46
39
23
43
13
8
17
18
46
37
23
43
13
8
17
18
42
37
23
42
13
8
18
18
42
37
23
42
13
8
19
19
41
37
23
42
13
8
19
18
40
37
23
42
13
8
19
18
43
37
23
41
13
8
18
18
43
37
24
42
13
8
17
18
41
38
23
43
14
8
17
19
41
39
23
43
14
8
18
21
41
39
24
41
14
8
18
21
41
38
24
42
14
7
17
21
42
38
24
42
13
7
17
21
42
36
24
40
14
7
17
21
42
36
24
41
13
7
17
20
42
36
24
42
13
8
17
21
42
36
24
42
13
9
17
21
42
35
25
42
14
9
17
21
43
35
25
41
14
10
17
22
44
35
25
41
14
10
17
22
44
35
24
41
13
10
17
22
45
35
23
42
14
11
17
22
41
35
23
41
14
11
17
22
41
36
23
41
13
11
17
22
41
36
24
41
14
11
17
22
42
37
24
41
15
11
17
23
42
37
24
42
15
11
17
23
42
37
23
41
15
11
17
24
43
37
23
40
14
11
18
27
44
37
22
39
14
11
18
27
44
37
21
39
14
11
18
27
45
37
21
38
14
11
18
27
45
37
21
38
14
11
18
27
45
37
21
38
14
11
17
26
45
37
21
38
14
11
17
26
46
37
21
37
14
11
18
26
44
38
21
37
15
12
17
26
44
34
22
38
15
12
18
26
47
30
22
38
15
12
18
26
47
30
22
37
15
12
18
26
47
30
22
35
15
12
18
26
47
30
22
35
15
12
18
26
46
30
22
35
16
12
18
26
46
30
22
34
16
12
18
26
46
30
22
34
16
12
18
26
46
29
23
34
16
12
18
26
48
29
23
34
15
12
18
27
48
29
23
30
15
12
18
26
48
29
23
29
15
12
18
26
48
29
23
29
15
13
18
26
47
29
23
29
15
12
17
26
48
29
23
30
15
12
18
26
48
29
24
30
15
12
18
26
48
29
24
30
15
12
17
25
48
29
24
30
15
12
17
26
48
29
24
30
15
12
17
26
46
29
24
30
15
12
17
26
46
29
24
29
15
12
17
26
45
28
24
28
15
12
16
25
45
27
24
28
15
12
16
24
45
27
23
28
15
12
16
24
46
27
22
27
15
12
16
24
46
27
22
27
15
12
16
24
46
28
22
27
14
13
16
24
45
28
23
26
14
13
16
24
45
27
23
25
14
13
16
24
45
27
22
24
14
12
16
24
45
27
22
24
14
12
16
24
44
27
22
23
14
12
15
23
43
27
22
23
14
11
15
23
43
29
22
23
14
11
15
23
42
28
22
22
14
11
15
23
42
28
22
22
13
11
15
22
42
28
22
22
13
11
15
22
41
28
22
22
12
11
15
22
40
26
21
21
12
11
15
22
39
26
21
21
12
11
15
22
39
26
21
21
12
11
15
21
39
26
21
21
12
11
14
16
37
25
21
21
12
11
14
16
37
25
21
21
12
11
14
16
35
25
20
21
12
11
14
16
35
24
20
21
12
11
14
16
35
24
20
21
12
11
14
16
34
24
20
21
12
11
14
16
34
23
20
21
11
11
13
15
34
24
20
21
11
10
13
15
34
23
19
20
10
10
13
15
30
23
19
20
10
10
13
15
30
23
19
19
10
10
12
14
30
23
19
19
10
10
12
14
30
22
19
17
10
9
11
14
30
23
19
17
9
9
12
14
29
22
19
17
9
9
12
14
29
22
18
16
9
9
11
14
26
23
16
16
9
9
11
14
23
22
15
16
8
9
11
13
22
22
15
15
8
9
11
13
21
22
15
15
8
9
10
13
21
21
14
15
7
9
10
12
20
21
14
15
7
8
10
12
19
21
14
14
7
8
10
12
19
21
14
14
7
8
8
12
18
20
14
14
7
8
7
11
18
20
14
14
6
8
7
11
17
19
13
13
6
8
7
11
17
19
14
14
7
8
7
11
16
19
14
13
7
8
7
10
16
19
13
13
5
8
7
10
16
19
13
12
5
8
7
10
15
18
13
11
5
8
7
9
11
18
13
11
5
8
7
9
9
17
13
11
5
9
6
9
9
16
14
10
4
12
8
9
9
16
12
10
4
11
8
9
9
16
11
10
4
11
8
8
9
16
11
10
4
11
8
7
9
16
12
9
4
12
8
5
9
16
12
9
4
11
8
4
8
15
12
8
4
11
8
4
7
12
12
8
4
12
8
4
7
12
12
8
4
12
8
4
7
12
12
9
4
12
8
4
7
11
12
9
4
12
9
4
7
11
12
9
5
12
9
4
7
11
16
9
5
12
8
4
7
11
16
9
5
12
8
4
6
10
17
8
5
12
9
4
6
10
17
8
5
12
9
4
6
10
17
7
5
12
9
4
6
10
18
8
5
12
9
4
6
10
19
8
5
12
9
4
6
10
19
8
6
12
9
4
7
10
19
8
6
11
9
4
7
10
19
8
6
11
9
5
6
10
19
8
6
11
9
5
7
9
20
9
6
12
9
6
7
9
21
9
6
12
9
6
7
9
21
9
6
12
9
6
7
9
23
9
6
12
9
6
7
9
23
9
6
12
9
6
7
8
23
9
6
12
10
6
7
8
23
9
6
12
10
6
7
8
24
9
6
12
10
6
7
8
24
9
6
12
10
6
7
7
26
10
6
12
10
6
7
7
28
11
6
12
10
6
7
9
32
13
7
12
10
6
7
9
33
13
7
12
10
6
7
9
35
13
7
12
10
6
8
9
36
14
7
12
11
6
8
9
36
14
7
12
11
6
8
9
36
14
7
12
11
6
8
9
38
15
8
12
11
6
8
10
39
15
8
12
11
6
8
10
39
15
8
12
11
6
8
9
39
15
7
12
11
6
8
9
39
15
8
12
11
6
8
9
39
16
8
12
12
6
8
9
39
16
8
12
11
6
8
9
39
16
8
12
11
6
8
9
39
17
8
12
12
6
7
9
39
17
8
11
12
6
7
9
40
17
8
8
10
6
8
9
41
17
8
8
10
6
8
10
41
17
8
8
10
6
8
10
41
17
8
8
10
6
8
10
41
17
8
7
10
6
8
10
41
17
8
7
10
6
8
10
41
17
8
7
10
6
8
10
41
17
8
7
10
6
7
10
41
18
8
7
10
6
8
10
41
18
8
7
10
6
7
10
41
18
8
7
9
6
7
10
41
18
8
7
9
6
7
10
40
18
8
7
9
5
7
9
40
17
8
7
9
5
7
9
39
18
8
7
9
5
7
9
39
18
7
7
9
5
7
9
40
17
7
7
9
5
7
9
41
17
7
7
9
5
7
9
41
17
7
7
9
5
7
9
41
17
7
7
9
5
6
9
41
17
7
7
9
5
6
9
41
18
7
7
9
4
6
9
41
18
7
7
9
4
6
9
41
17
7
7
9
4
5
9
41
17
7
6
9
3
5
9
41
17
7
6
9
3
5
9
40
17
7
6
9
3
5
8
40
17
7
6
9
3
5
8
40
17
7
7
9
3
5
8
40
17
7
8
9
3
5
8
40
17
7
8
9
3
5
8
40
17
7
8
8
3
4
8
39
17
7
8
8
3
4
8
37
16
7
8
8
3
4
7
34
15
6
7
8
3
4
7
33
14
6
7
8
3
4
7
33
14
6
7
8
3
3
6
33
14
6
7
8
2
3
6
32
13
6
7
8
2
3
6
32
13
6
7
8
2
3
6
30
13
6
7
8
2
3
6
29
13
6
7
7
2
3
6
29
12
6
7
6
2
3
6
28
12
5
7
6
2
3
6
29
12
5
7
6
2
3
6
28
12
5
7
6
2
3
6
28
12
5
7
6
2
3
6
28
11
5
7
6
2
3
6
28
10
5
7
6
2
3
5
28
10
5
7
6
2
3
5
26
9
5
7
6
2
2
4
26
9
4
7
6
2
2
4
26
9
4
7
6
2
2
4
26
9
4
7
6
2
2
4
26
9
4
7
6
2
2
4
26
8
4
7
6
1
2
4
26
9
4
7
6
1
2
4
26
9
4
7
6
1
2
4
26
8
4
7
6
1
2
3
26
8
4
7
6
1
2
4
25
8
4
7
6
1
2
4
25
7
4
7
6
1
2
4
25
7
4
7
6
1
2
3
25
7
4
7
6
1
2
3
25
7
4
7
5
1
2
3
25
7
4
7
5
1
2
3
24
7
4
7
5
1
2
3
21
7
4
6
5
1
2
3
20
7
4
7
5
1
2
3
20
7
4
6
5
1
2
3
19
6
3
6
4
1
2
3
19
6
3
6
4
1
2
3
19
6
3
6
4
1
2
3
19
6
3
6
4
1
2
3
18
6
3
6
4
1
2
3
18
6
3
6
3
1
2
4
18
6
3
6
3
1
2
3
18
6
3
6
3
1
2
3
18
6
3
6
3
1
2
3
18
6
3
4
3
1
2
3
18
6
3
4
3
1
2
3
17
6
3
4
3
1
2
3
17
6
3
4
3
1
2
3
17
6
3
3
3
1
2
4
18
6
3
3
3
1
2
3
17
5
3
3
3
1
2
3
13
5
3
3
3
1
2
3
13
6
3
3
3
1
2
3
12
6
3
3
3
1
2
3
12
6
3
3
3
1
2
3
11
6
3
3
3
1
2
3
11
6
3
3
3
1
2
3
11
6
3
3
3
1
2
3
11
6
3
3
3
1
3
3
11
6
3
3
3
1
3
3
11
6
3
3
3
1
3
3
11
6
3
3
3
1
3
3
10
6
3
3
2
1
3
3
9
6
3
3
3
2
3
3
9
6
3
2
3
2
3
4
9
6
3
2
3
2
3
4
9
6
3
2
3
2
3
4
9
6
3
2
3
2
4
4
9
6
3
2
3
2
4
4
9
6
3
2
3
2
4
4
11
6
3
2
3
2
5
4
11
6
3
2
2
2
5
4
10
5
3
2
2
2
5
4
10
5
3
2
2
2
5
4
10
5
3
2
2
2
5
3
10
5
3
2
2
2
6
4
10
5
3
2
2
2
7
4
10
5
3
2
2
2
7
4
10
6
3
2
2
2
7
4
10
6
3
2
3
2
8
4
10
6
3
2
3
2
9
4
10
6
3
2
3
2
10
4
10
6
3
2
3
2
11
4
10
6
3
2
3
2
13
4
10
6
3
2
3
2
13
6
10
6
3
2
3
3
13
6
10
6
3
2
4
3
13
6
10
6
3
2
4
3
13
6
10
6
3
2
5
3
14
7
10
6
3
2
5
4
17
9
11
6
3
2
5
4
19
9
11
6
3
3
5
4
19
9
13
6
3
3
5
4
19
9
16
6
3
3
5
4
20
10
16
6
3
3
5
4
20
10
16
6
3
3
5
4
20
10
16
6
3
3
6
5
21
10
16
7
3
3
7
5
22
11
16
7
3
3
7
5
22
11
16
7
3
3
7
5
22
11
16
8
3
3
7
6
24
11
16
9
5
3
7
6
24
11
16
9
5
3
7
7
29
11
17
13
5
3
7
9
30
11
17
14
6
4
7
10
30
13
17
14
6
4
8
10
31
14
18
14
6
4
8
10
31
14
18
15
6
4
8
10
31
14
18
17
7
4
8
10
32
17
18
17
7
4
8
11
33
19
19
17
7
4
9
11
35
23
19
18
7
4
9
11
35
23
19
19
8
4
9
11
36
23
19
19
8
5
8
12
37
23
19
20
8
5
8
12
37
23
19
21
8
5
9
12
38
23
20
21
8
5
9
12
38
23
20
23
9
5
9
13
38
24
20
23
9
5
9
13
38
24
21
23
9
6
10
13
38
24
21
23
10
7
11
14
40
28
21
24
10
7
11
14
40
30
21
25
10
7
11
14
42
31
23
28
10
7
11
14
43
31
25
28
10
8
12
14
43
31
25
28
10
9
12
15
43
32
25
28
11
9
12
15
44
32
26
29
11
9
12
16
45
33
27
31
12
9
12
16
46
33
27
31
12
10
12
16
47
33
27
31
12
10
12
16
48
33
27
31
12
10
12
16
50
34
27
31
12
10
12
17
50
34
27
32
13
10
12
17
51
34
27
32
13
10
13
17
51
34
27
32
13
10
13
17
51
34
28
32
13
10
13
17
53
34
28
32
13
10
13
18
53
34
29
33
13
10
12
18
55
34
29
33
13
10
13
18
55
34
30
33
13
10
13
18
54
34
30
34
13
10
13
18
54
34
29
35
14
10
13
18
55
35
28
35
14
10
13
18
55
35
28
35
14
11
13
19
55
35
28
36
14
11
13
19
56
36
28
36
14
11
13
19
56
36
28
36
14
11
13
19
56
36
29
37
14
11
13
19
57
36
28
37
14
11
13
19
57
36
30
37
14
11
13
19
57
36
30
36
14
11
13
19
58
37
30
37
14
11
13
19
55
37
30
36
14
11
13
18
55
37
30
36
13
11
13
18
56
36
31
36
14
13
13
18
56
36
30
36
14
13
13
18
56
36
32
36
14
13
13
19
56
36
33
35
14
14
13
19
56
35
33
35
14
14
14
20
58
35
33
36
14
14
14
20
57
33
33
36
15
14
14
20
56
34
33
36
14
14
14
20
56
37
33
37
14
14
14
20
56
37
33
37
14
14
14
20
57
38
33
36
15
14
14
21
57
38
33
36
15
15
14
21
57
38
33
35
14
15
15
20
57
38
33
35
15
15
15
20
57
38
33
35
14
15
15
20
58
38
33
35
14
15
15
20
57
36
33
35
16
15
14
20
57
35
33
34
16
15
15
20
58
34
32
32
16
15
14
20
59
35
31
32
16
14
14
20
59
35
31
34
16
14
15
21
59
34
31
35
16
14
16
21
59
34
30
33
16
14
16
20
59
35
30
32
16
14
16
20
59
35
30
32
15
15
16
20
60
35
30
32
15
15
17
21
59
35
30
32
15
15
17
21
58
35
30
32
15
15
17
20
58
35
30
32
15
16
17
20
57
35
30
32
15
16
17
20
58
35
30
32
16
16
17
20
58
36
30
32
15
16
17
20
58
38
29
32
15
16
17
19
57
37
29
31
15
16
17
19
56
39
29
31
16
16
17
20
55
40
29
31
16
16
17
20
56
40
29
31
16
16
17
20
56
42
29
30
16
16
17
20
56
41
30
30
16
16
17
23
58
41
29
31
17
16
17
23
58
41
29
30
17
16
17
23
57
41
29
30
17
16
17
23
58
41
29
30
17
16
17
24
57
41
29
30
17
16
17
24
56
41
29
32
17
16
17
24
56
41
27
32
17
16
17
24
56
42
27
31
17
16
17
24
55
41
26
32
17
16
17
24
56
41
26
32
17
17
17
24
55
41
27
31
17
17
17
24
55
42
26
31
17
15
17
24
55
42
27
32
17
15
16
24
55
43
24
32
17
15
17
24
56
43
23
32
17
15
16
24
56
43
23
32
17
15
16
22
53
42
23
31
16
14
16
22
53
43
23
30
16
14
16
22
54
42
23
32
16
14
16
22
54
42
24
31
16
14
16
22
56
43
25
31
17
14
16
22
57
43
25
32
17
14
16
23
57
46
25
32
17
14
16
23
57
46
25
32
17
13
15
24
59
47
25
32
17
13
15
24
60
47
24
33
17
14
15
24
60
47
24
33
17
14
15
24
59
47
24
33
16
15
15
25
61
47
24
34
16
14
15
25
58
47
24
33
15
14
16
24
57
46
23
34
15
14
16
24
57
47
23
32
15
14
14
24
57
47
23
31
15
14
14
25
56
46
25
31
15
14
14
24
56
46
25
32
15
15
14
24
55
47
25
33
15
14
14
24
53
47
24
33
15
13
13
24
53
47
24
33
15
13
13
24
53
46
24
32
15
13
13
24
53
46
24
32
15
13
13
24
53
47
25
32
15
13
13
24
53
47
24
32
15
13
14
24
53
48
24
32
15
13
15
24
52
46
24
34
15
14
15
24
52
47
24
34
15
13
15
24
51
45
24
34
15
13
15
24
51
45
24
34
15
13
15
24
51
45
23
34
15
13
15
24
51
43
23
34
14
13
15
23
50
43
22
34
14
13
15
20
49
43
22
32
13
13
15
20
48
43
22
32
12
13
15
20
48
43
22
32
12
12
15
20
47
43
22
32
12
12
15
19
48
43
22
32
12
12
15
24
48
44
22
30
13
12
15
27
48
45
22
31
13
12
15
27
48
44
22
31
13
14
17
27
48
45
22
30
13
14
17
27
48
45
22
30
13
13
17
27
48
45
22
30
13
13
17
27
48
44
22
30
13
13
17
27
47
44
22
32
12
13
17
27
47
43
21
32
13
13
17
28
47
43
21
33
13
13
17
28
47
43
21
32
13
13
17
28
49
43
21
32
13
13
17
29
49
42
21
32
13
13
17
29
50
42
21
31
13
13
17
29
49
39
20
30
13
13
17
29
49
38
18
30
12
13
18
30
47
37
18
29
11
13
18
29
45
33
18
29
11
13
18
29
48
34
18
29
11
13
17
29
46
33
18
31
11
13
17
29
44
33
18
29
11
13
17
28
44
33
18
30
11
13
17
28
44
33
19
30
11
12
17
28
43
34
19
30
11
12
17
28
43
34
19
30
11
12
17
28
43
34
19
29
11
12
17
28
47
33
20
31
11
12
17
28
49
33
19
31
11
12
17
28
49
33
18
31
11
12
17
28
49
33
18
31
10
11
17
28
48
33
17
30
10
11
17
28
47
33
17
30
10
11
16
27
47
33
17
30
10
11
16
28
48
33
18
31
10
11
17
28
47
33
17
31
10
12
17
28
48
33
17
31
10
11
17
28
49
33
17
31
10
11
16
29
48
32
17
31
10
11
15
29
48
32
18
30
10
11
16
29
48
31
17
29
10
11
16
29
48
31
17
30
10
11
16
29
48
31
18
30
10
11
16
29
48
33
18
30
10
11
16
29
48
33
19
30
11
11
17
31
47
33
19
31
11
11
17
31
47
33
19
31
11
11
17
32
47
34
19
32
11
12
16
32
46
34
19
32
11
12
17
32
47
34
18
32
11
12
17
31
48
35
18
32
11
12
17
28
48
34
18
31
11
13
16
25
48
33
18
32
11
12
16
25
48
34
19
32
12
11
15
26
48
32
20
31
12
11
15
26
48
33
20
32
13
11
15
26
49
33
19
32
13
11
15
26
49
33
19
32
13
11
15
26
48
33
19
30
14
11
15
25
48
33
20
30
13
11
15
24
48
33
20
29
13
11
15
24
48
33
21
29
13
11
15
24
46
34
22
30
13
11
15
24
46
34
22
30
13
11
15
23
46
34
21
30
13
11
15
23
46
34
21
30
13
11
16
23
44
34
21
30
14
11
15
22
44
34
21
30
13
11
15
21
45
34
21
31
14
11
15
22
42
33
21
31
14
11
15
22
41
33
21
29
14
11
15
22
41
32
22
29
14
11
15
22
42
33
22
29
14
11
15
22
41
33
21
31
15
11
15
22
41
33
21
30
15
11
15
22
43
33
21
30
14
11
15
22
43
33
20
30
15
11
15
23
41
32
20
29
15
11
16
27
39
32
20
29
15
11
16
27
38
32
20
29
15
11
16
27
39
31
20
31
15
11
16
27
39
31
20
32
15
11
17
27
39
32
20
32
15
11
17
27
39
31
20
32
15
11
17
27
39
33
20
30
15
10
16
27
39
33
20
30
15
10
16
27
38
32
20
30
15
10
16
27
36
32
20
30
15
10
16
27
36
32
20
30
15
10
16
27
36
32
20
30
15
10
16
27
36
32
20
30
15
10
16
27
37
33
20
29
15
10
16
27
38
33
19
30
15
10
16
27
38
31
19
30
15
10
16
27
38
32
19
30
14
10
16
26
38
32
19
29
14
10
16
25
38
32
19
28
14
10
15
24
38
31
19
27
14
9
15
24
38
31
19
28
14
8
15
25
37
30
19
28
14
8
15
25
36
31
19
28
14
8
15
25
36
31
19
28
14
8
15
25
36
31
19
28
14
8
15
25
35
30
18
28
13
7
15
25
35
30
17
28
13
7
14
25
34
30
17
27
13
7
14
25
33
30
17
27
13
7
15
24
33
30
17
27
12
7
15
25
33
29
17
27
11
7
15
25
33
29
16
27
11
7
14
25
33
29
16
26
11
7
14
25
33
29
15
26
11
7
14
25
32
28
14
25
11
7
14
24
33
28
14
25
11
7
14
25
32
29
14
25
11
7
14
25
32
28
14
25
11
7
14
25
30
28
14
24
10
7
14
24
31
28
14
24
10
7
13
24
30
28
13
24
10
7
14
24
30
28
13
24
10
7
13
24
29
28
13
24
9
7
13
24
29
28
11
24
9
6
13
24
29
28
11
23
9
6
13
23
29
29
11
21
8
6
13
23
29
28
11
20
8
6
13
23
26
28
11
20
8
6
12
23
25
28
11
20
7
6
12
21
22
28
11
19
7
6
10
16
21
28
11
19
7
6
10
16
21
28
11
19
7
6
10
16
21
28
11
15
6
6
10
16
20
28
11
14
6
6
10
16
20
28
11
14
6
6
10
16
20
27
10
14
6
6
10
16
20
25
10
14
6
6
10
16
20
24
10
14
6
6
10
16
20
24
10
13
5
6
10
16
20
24
10
13
5
6
10
14
19
23
10
12
5
6
9
13
19
23
10
12
5
6
9
13
19
22
10
12
5
6
9
13
17
21
9
12
5
6
9
12
14
19
9
12
5
6
9
12
14
19
8
12
5
6
8
12
14
17
8
11
5
6
8
11
14
17
8
11
5
6
8
11
14
17
9
11
5
6
8
11
13
17
9
11
5
6
8
11
13
16
9
8
4
6
7
10
13
16
10
8
4
6
7
10
11
15
11
8
4
7
7
9
11
14
11
8
4
6
7
8
11
14
11
8
4
6
7
8
11
14
18
9
4
6
7
7
11
14
18
9
4
6
7
7
10
14
18
9
4
6
7
7
10
14
18
8
4
7
7
7
8
14
18
8
4
9
7
4
7
14
18
8
4
9
7
4
7
14
19
8
4
9
7
4
6
14
19
8
4
9
7
4
6
13
19
9
4
9
8
4
6
14
20
9
5
9
8
4
6
14
20
9
5
9
8
4
6
14
20
10
5
9
8
4
6
14
20
11
5
9
8
4
6
14
21
11
6
9
8
4
6
14
23
12
6
9
9
4
6
14
24
13
6
10
9
4
6
14
24
13
6
9
9
4
6
14
26
13
6
10
9
4
6
14
26
13
7
10
9
4
6
12
27
13
7
10
9
4
6
11
28
13
7
10
9
4
6
11
30
13
7
10
10
4
6
11
31
16
7
10
10
4
6
11
31
16
7
10
10
4
5
10
33
16
8
10
10
4
5
10
33
16
8
10
10
4
5
10
35
16
8
10
10
4
5
10
35
16
8
10
10
4
5
9
36
16
8
10
10
4
5
9
36
17
8
10
10
4
5
9
38
17
8
10
10
4
5
9
38
17
8
10
10
3
5
9
39
18
8
10
10
3
5
9
39
18
8
10
10
3
5
9
39
18
8
10
11
3
5
9
39
18
8
10
11
3
5
9
39
18
8
10
11
3
5
9
40
18
8
10
11
3
5
9
41
18
8
10
11
3
5
9
41
18
8
10
11
3
5
9
42
18
8
10
11
3
5
9
42
18
8
10
11
3
5
9
42
18
8
10
11
3
5
9
42
18
8
10
11
3
5
9
43
18
8
10
11
3
5
9
43
18
8
10
11
3
5
9
44
18
8
10
11
3
5
9
43
18
8
10
11
3
5
9
43
18
8
10
11
3
5
9
44
18
8
10
11
3
4
9
42
18
8
10
11
3
4
9
42
18
8
10
11
3
4
9
42
18
8
10
11
3
4
9
42
18
8
9
10
3
4
8
42
18
7
7
10
3
4
8
42
18
7
7
10
3
4
8
42
18
7
7
10
3
4
8
42
18
7
7
10
3
4
8
42
18
7
7
9
3
4
8
42
18
7
7
9
3
4
8
42
17
7
7
9
3
4
7
43
17
7
7
9
3
4
7
43
17
6
6
9
2
4
7
43
17
6
6
9
2
3
6
42
16
6
7
8
2
3
5
41
15
5
6
8
2
3
5
41
15
6
7
8
2
3
6
40
15
6
7
8
2
3
5
40
15
6
6
8
2
3
6
39
15
6
6
8
2
3
6
38
15
6
6
8
2
3
6
37
15
5
6
7
2
3
5
36
12
5
6
7
2
3
5
36
12
5
6
7
2
2
5
35
12
4
5
7
2
2
5
35
12
4
5
7
2
2
5
33
12
4
5
6
2
2
5
32
12
4
5
6
2
2
5
32
12
4
5
6
2
2
5
32
11
4
5
6
2
2
5
30
11
4
5
6
2
2
5
30
11
4
5
6
2
2
5
29
10
4
5
6
2
2
5
29
10
4
5
6
2
2
5
29
10
4
5
6
2
2
5
30
9
4
5
5
2
2
5
31
10
4
5
5
2
2
5
31
10
4
5
5
2
2
5
30
10
4
5
5
2
2
5
28
10
4
5
5
2
2
5
28
10
4
5
6
2
2
5
29
10
4
5
6
2
2
5
28
10
4
5
7
2
2
5
28
9
4
5
7
2
2
5
27
9
4
5
7
2
2
5
27
9
4
5
7
2
2
5
25
9
4
4
7
2
2
5
25
9
4
4
7
2
2
5
25
9
4
4
7
2
2
4
24
9
4
4
6
2
2
4
23
8
4
4
6
2
2
5
23
8
4
4
6
2
2
5
23
8
4
4
6
2
2
5
23
8
4
4
6
2
2
5
23
8
4
4
6
2
2
5
23
8
4
4
6
2
2
5
23
7
4
4
6
2
2
5
23
7
4
4
6
2
2
5
23
7
4
4
6
2
2
5
23
7
4
4
6
2
2
5
23
7
4
4
6
2
2
4
22
7
4
4
6
2
2
4
21
7
4
4
6
2
2
4
21
7
4
3
6
1
2
4
21
6
4
3
6
2
2
4
21
6
4
3
6
1
2
4
21
6
4
3
6
1
2
4
21
6
3
3
6
1
2
4
21
6
3
3
6
1
2
4
21
6
3
3
6
1
2
4
21
6
3
3
6
1
2
4
21
6
3
3
6
1
2
4
21
6
3
3
6
1
2
4
21
6
3
3
6
1
2
4
21
6
4
3
6
1
2
4
20
6
4
3
5
1
2
4
20
6
4
3
5
1
2
4
20
6
4
2
5
1
2
3
20
6
4
2
5
1
3
3
20
6
4
2
5
1
3
3
20
6
4
2
5
1
3
4
19
6
4
2
5
1
4
4
18
6
4
2
5
1
4
4
18
6
4
2
5
1
4
4
18
6
4
2
5
1
4
3
16
6
4
2
5
1
4
3
14
5
4
2
5
1
4
3
14
5
4
2
5
1
4
3
14
4
4
2
5
1
4
3
14
4
4
2
4
1
4
3
13
4
4
2
4
1
4
3
13
5
4
2
4
1
4
3
13
5
3
2
2
1
4
3
12
5
3
2
2
1
4
3
12
5
3
2
2
1
4
3
12
5
3
2
2
1
4
3
12
5
3
2
2
1
4
3
12
5
3
2
2
1
4
3
12
5
3
2
2
1
4
3
12
5
3
2
2
1
5
3
12
5
3
2
2
1
5
3
11
6
3
2
2
1
6
3
11
6
3
2
2
2
6
4
11
6
3
2
2
2
6
4
10
6
3
2
2
2
6
4
10
6
3
2
2
2
6
4
10
6
3
2
2
2
6
4
9
6
3
2
2
2
7
4
9
6
3
1
2
2
7
4
8
6
3
1
3
2
8
4
8
6
3
1
3
2
8
5
8
6
3
1
3
2
8
5
8
6
3
1
3
3
8
5
8
6
3
1
3
3
9
5
8
6
3
1
3
3
10
5
8
6
3
1
3
3
10
5
8
6
3
1
4
3
10
6
8
6
4
1
4
4
10
6
9
7
4
1
4
4
13
6
10
7
4
1
4
4
13
6
10
7
4
1
4
4
13
6
10
7
4
1
5
4
14
6
10
7
4
1
5
4
14
6
11
7
4
1
5
6
15
7
11
7
4
1
5
6
15
7
12
7
4
1
5
6
16
14
12
8
4
1
5
6
16
16
12
8
4
2
5
6
17
16
15
8
4
2
5
6
21
17
15
8
5
2
5
6
21
17
16
8
8
3
5
6
23
18
17
9
8
3
5
7
23
18
17
11
8
3
6
7
23
18
17
12
8
3
6
8
24
19
17
12
8
4
6
8
24
19
17
12
8
4
6
8
25
20
18
13
8
4
7
8
26
22
17
14
8
4
7
9
28
22
17
15
8
4
7
9
28
22
20
15
8
4
7
9
29
22
21
15
9
4
7
10
30
23
21
15
9
4
7
10
30
24
21
15
9
5
7
10
30
24
21
16
10
5
7
10
31
24
22
16
10
5
7
10
33
24
22
16
10
5
7
10
33
24
22
16
10
5
7
11
33
25
22
16
11
5
7
13
33
25
22
17
11
6
7
13
33
26
23
17
12
6
7
13
33
26
23
17
12
6
7
13
36
26
23
17
12
6
7
13
36
26
23
17
12
6
7
13
37
26
25
17
12
6
7
13
37
26
25
17
13
7
8
14
37
27
26
17
13
7
8
14
38
27
27
18
13
7
8
14
39
32
27
18
13
7
9
14
42
33
27
22
13
7
9
14
44
34
28
23
13
7
9
14
44
34
28
23
13
7
9
14
44
35
29
23
13
7
9
14
44
38
29
27
13
8
10
15
45
40
29
27
13
8
10
15
46
41
30
29
13
8
10
15
46
41
30
31
13
8
11
16
46
41
30
32
14
8
11
16
46
43
31
32
14
8
11
16
46
43
30
32
14
8
11
16
45
43
30
32
14
8
11
17
45
44
30
32
14
9
12
17
45
47
31
32
15
9
12
18
45
50
31
32
15
9
12
18
46
51
31
34
15
10
12
20
46
52
31
35
15
10
12
20
46
53
31
35
15
10
12
20
48
52
31
36
15
10
13
20
48
52
31
36
15
10
13
21
48
52
30
36
15
10
13
21
48
51
30
36
15
10
13
21
49
52
29
36
13
10
13
21
49
51
29
35
13
10
13
21
49
52
29
36
13
10
13
21
49
52
29
36
13
10
13
22
50
53
29
36
13
10
13
22
51
53
30
36
13
10
13
22
52
53
30
36
13
10
13
22
52
54
30
37
13
10
14
21
51
54
30
36
13
10
14
22
52
54
29
36
13
10
14
22
53
55
28
36
13
10
14
21
52
55
28
36
13
10
15
22
54
54
28
36
13
10
15
24
54
54
28
36
12
10
15
24
54
54
28
36
12
10
15
24
55
54
28
36
12
10
15
25
57
55
28
36
12
10
15
27
57
55
28
36
12
10
15
26
59
56
28
37
11
10
16
26
59
56
28
37
11
10
16
26
59
56
28
37
11
10
16
26
58
56
28
38
12
10
16
26
59
57
27
38
11
10
16
26
58
56
26
38
11
10
16
26
59
57
26
38
11
10
16
26
59
56
25
39
11
9
16
26
58
56
24
38
11
9
16
26
58
54
24
39
11
9
15
26
55
54
23
37
11
9
15
26
54
53
23
36
11
9
16
27
54
53
22
36
12
9
16
27
54
52
22
36
11
9
16
27
55
50
22
33
11
9
15
26
55
49
23
33
11
10
15
26
54
48
22
32
11
10
15
26
54
48
22
31
11
10
14
26
54
48
21
30
10
10
14
26
54
47
21
30
10
10
13
26
54
47
21
30
11
10
14
25
54
47
20
30
10
10
13
25
57
47
21
31
11
9
14
25
57
44
20
31
9
9
14
24
58
41
20
31
9
9
14
24
57
41
20
31
9
9
14
23
58
40
20
30
9
9
14
23
58
41
20
30
9
8
13
23
57
40
19
30
9
9
13
23
58
40
19
30
9
9
13
22
58
40
19
30
9
10
13
22
56
40
19
30
9
10
13
24
56
40
19
30
9
10
14
24
56
40
19
30
9
9
15
24
56
40
19
29
10
10
15
24
56
41
19
29
10
10
15
23
56
39
19
29
10
9
15
23
55
39
19
29
10
10
15
23
54
39
19
29
10
10
15
23
54
36
19
28
10
9
15
23
54
36
18
28
10
9
15
23
55
36
18
28
10
9
15
23
54
36
18
28
10
9
14
23
54
36
18
28
10
9
14
23
53
36
18
28
10
9
13
22
53
35
18
28
10
9
13
23
54
36
19
28
10
9
13
23
53
37
19
28
10
9
14
23
52
38
18
28
10
9
14
20
52
37
18
29
10
9
14
20
50
35
18
29
10
9
14
20
51
35
18
28
9
9
14
19
50
35
19
29
9
9
14
19
50
34
19
31
9
9
14
19
49
35
19
31
9
9
14
19
49
35
19
31
9
9
14
19
48
35
19
31
9
9
14
20
48
35
18
31
9
9
14
21
50
36
19
31
9
10
14
21
50
36
19
31
9
10
14
21
50
35
19
30
9
11
14
21
52
35
19
30
9
11
13
21
52
35
19
30
9
11
13
21
51
35
19
30
9
11
13
21
50
35
19
32
9
11
14
21
50
35
18
32
9
10
14
21
51
35
18
32
9
10
14
22
51
37
18
32
10
11
14
22
51
36
18
32
10
11
14
22
51
37
18
32
10
10
14
22
52
37
17
34
9
10
14
22
53
36
17
33
10
11
14
22
51
36
17
33
10
11
14
22
51
36
17
33
10
11
14
22
51
35
18
33
10
11
14
22
51
34
18
31
10
11
14
22
51
33
18
31
10
11
14
22
51
32
18
31
10
11
15
22
50
32
18
31
9
10
14
21
49
32
18
31
9
10
14
21
50
33
18
30
10
10
14
21
50
32
18
30
10
10
14
20
52
32
18
30
10
10
14
20
51
32
17
30
9
10
12
20
51
32
17
30
9
10
12
20
50
32
17
31
9
10
13
21
50
33
17
31
9
10
13
21
50
33
17
30
9
10
13
21
50
32
17
31
9
10
13
21
50
32
16
31
9
10
13
21
52
32
17
31
9
10
13
21
51
32
19
31
9
10
13
23
50
34
18
31
8
11
13
23
50
34
18
31
8
11
13
24
50
34
18
31
9
11
13
23
50
34
18
31
9
11
13
22
50
33
18
31
10
11
13
22
47
32
18
31
9
10
12
21
46
31
18
32
9
10
12
21
46
31
18
30
9
10
12
21
46
31
18
30
9
10
12
21
46
31
18
30
9
10
12
21
48
33
17
30
9
10
13
22
48
33
17
27
9
10
13
22
48
33
18
27
9
10
13
22
48
33
19
27
9
10
13
23
48
33
19
26
9
10
13
22
48
33
19
26
9
10
13
21
46
32
18
26
10
9
13
21
46
32
18
26
9
9
13
21
46
32
18
26
9
9
13
21
44
32
18
26
9
9
14
21
44
34
18
27
9
9
14
21
44
34
18
26
9
9
14
21
44
35
18
25
9
8
13
21
44
35
18
25
9
8
14
21
43
34
18
24
9
8
14
21
43
33
18
24
8
8
14
21
45
33
18
25
9
8
14
21
44
32
18
25
9
8
14
22
43
32
18
23
9
8
14
22
42
32
19
23
9
8
14
23
40
32
18
22
9
8
14
23
41
32
18
22
9
8
14
23
40
32
17
22
9
8
14
23
40
32
17
22
8
8
14
23
41
32
17
22
9
8
14
24
43
32
17
22
9
8
14
25
42
32
17
22
9
8
14
25
41
32
17
22
9
8
14
25
40
31
17
23
9
8
14
25
40
32
17
23
9
8
14
25
38
32
17
23
9
8
14
25
39
32
17
24
9
8
14
26
39
31
18
24
9
8
14
25
38
31
17
24
9
8
14
25
38
30
17
24
9
8
14
25
39
30
17
23
9
8
14
25
39
30
17
23
9
8
14
25
38
30
17
24
9
7
14
25
36
30
17
24
9
7
14
24
36
29
16
24
9
7
14
23
36
27
16
24
9
7
14
23
35
27
16
24
9
7
14
22
34
27
16
24
9
7
14
22
35
27
16
24
9
7
15
23
35
27
15
24
8
7
16
23
35
27
16
24
8
7
16
23
36
27
16
23
8
7
16
24
36
28
16
23
8
7
16
24
37
29
16
23
8
7
16
24
37
28
17
23
8
7
16
24
34
26
18
23
8
7
15
22
34
26
18
23
8
7
15
22
33
24
17
22
8
7
15
22
33
24
16
22
8
7
15
22
34
24
15
22
8
7
15
22
33
24
15
22
8
7
15
22
34
25
15
22
8
7
15
22
34
25
15
22
8
7
15
22
37
25
15
22
8
7
15
22
38
25
15
22
8
6
14
22
37
21
15
21
8
6
14
22
38
21
15
21
8
7
15
22
37
21
15
21
8
8
15
22
37
21
15
21
8
8
14
21
37
20
15
21
8
8
14
22
37
21
15
21
8
8
15
22
36
20
15
20
8
8
14
21
36
20
15
20
8
8
14
21
36
20
15
19
8
8
14
20
36
19
15
19
8
8
14
20
36
19
15
19
8
8
14
19
36
19
15
19
8
7
14
19
37
20
15
19
8
7
14
19
37
20
15
19
8
8
14
18
36
20
15
19
7
7
14
17
34
19
14
19
7
7
14
17
34
19
15
19
7
7
13
16
34
19
15
19
7
7
13
16
34
19
15
18
7
7
13
16
34
18
15
18
7
7
13
16
34
18
15
17
7
7
13
16
33
17
15
17
6
7
13
14
33
18
14
14
6
7
13
14
33
18
14
14
6
7
13
14
33
18
14
14
6
7
13
14
32
17
14
14
6
7
12
14
32
17
14
14
6
7
12
14
32
17
14
13
6
7
12
14
31
17
13
12
6
7
12
14
31
17
13
12
6
7
12
14
31
17
13
12
6
7
12
13
31
17
13
11
5
7
12
13
31
17
13
11
5
7
12
13
30
17
12
11
5
7
11
11
29
16
12
11
5
7
9
11
29
16
12
11
5
7
9
10
29
16
12
10
5
7
9
10
29
15
12
10
5
6
8
10
27
13
11
10
5
6
8
9
27
13
10
10
5
6
8
9
27
13
8
9
5
6
8
9
27
13
8
9
4
6
8
9
26
13
8
8
4
6
8
9
26
13
8
8
4
6
8
9
26
12
8
8
4
6
8
9
26
12
8
8
4
6
8
8
25
10
8
7
4
6
8
8
25
10
8
7
4
6
8
8
21
10
8
7
4
6
8
8
19
9
8
6
4
6
8
8
19
9
8
6
4
6
7
7
18
9
9
7
4
6
6
8
18
9
9
7
4
4
6
8
18
9
9
6
4
4
6
8
18
9
9
6
4
4
6
5
18
9
10
6
4
4
6
5
18
9
10
5
3
4
6
5
16
9
10
5
3
4
7
5
16
9
10
5
3
4
7
4
16
9
9
5
3
4
7
4
16
8
9
4
3
4
7
4
14
8
10
4
3
4
6
4
10
8
10
4
3
4
6
4
10
7
10
4
3
4
6
4
8
6
10
4
2
4
6
4
8
6
10
5
2
4
6
3
7
6
9
5
2
4
6
3
6
6
9
5
2
4
6
3
6
6
9
5
2
5
6
3
6
6
9
5
2
4
6
3
6
6
10
5
3
5
6
3
5
6
10
5
3
5
6
3
5
5
10
5
3
5
6
3
5
5
11
5
3
5
6
3
5
5
16
5
3
6
7
3
5
4
16
5
3
6
6
3
4
5
16
5
3
6
7
3
3
5
18
5
3
6
8
3
3
6
18
5
3
6
9
3
3
6
19
5
3
6
9
3
3
6
19
5
3
6
9
3
3
6
19
5
3
6
9
3
3
6
19
5
3
6
9
3
3
6
19
5
3
6
9
3
3
6
19
5
3
6
9
3
3
6
20
5
3
7
9
4
3
6
21
5
4
7
9
4
3
6
22
5
4
7
10
4
3
6
22
6
4
7
10
4
3
6
23
6
4
7
10
4
3
6
24
7
4
7
10
4
3
6
26
7
4
7
10
4
4
6
26
7
4
7
11
4
4
6
26
7
5
7
11
4
4
7
28
8
5
8
11
4
4
7
28
8
5
8
11
4
4
7
29
9
5
8
11
4
4
7
29
9
5
8
11
4
5
7
29
9
5
8
11
4
5
8
30
10
5
8
11
4
5
8
31
10
5
9
11
4
5
8
30
10
5
9
11
5
5
8
31
10
5
9
11
4
5
8
32
10
5
9
11
4
5
8
32
10
5
9
11
4
5
8
32
10
5
9
11
4
5
8
32
10
5
9
11
4
5
8
33
10
5
9
11
4
5
9
34
11
5
9
11
4
5
9
34
11
6
9
11
4
5
9
34
11
6
9
11
4
5
9
34
11
5
9
11
4
5
9
34
11
6
9
11
4
5
9
35
11
6
9
11
4
5
9
35
11
6
9
11
4
5
9
35
11
6
9
11
4
5
9
36
12
6
9
11
4
5
9
36
12
6
9
11
4
5
9
37
12
6
9
11
4
5
9
38
12
6
9
11
4
5
9
38
12
6
8
11
4
5
9
38
12
6
8
10
4
5
9
38
12
6
8
11
4
5
9
38
12
6
8
10
4
5
9
36
12
6
8
10
4
5
9
37
12
5
8
10
4
5
9
36
12
5
8
10
4
5
9
36
12
5
8
9
4
5
8
36
12
5
8
8
4
5
8
36
12
5
8
8
4
5
8
36
12
5
8
8
4
5
8
36
13
6
7
8
4
5
8
35
13
6
7
8
4
5
8
36
13
6
7
8
4
5
8
36
13
5
7
8
4
5
8
36
13
5
7
8
4
5
8
35
13
5
7
8
4
5
8
36
14
6
7
8
4
5
8
36
14
6
8
8
4
5
8
35
13
6
8
8
4
5
8
36
13
6
8
7
4
5
8
35
13
6
8
7
4
4
8
35
13
5
8
7
4
4
8
34
14
5
8
7
4
4
8
34
13
5
8
7
4
4
8
34
13
5
8
7
4
4
8
34
13
5
8
7
4
4
8
34
13
5
8
6
3
3
7
33
13
5
7
5
3
3
7
33
12
5
7
5
3
3
7
32
12
5
6
5
2
3
7
32
12
5
6
5
2
3
7
32
12
5
7
5
2
3
7
31
12
5
7
4
2
3
7
31
12
5
7
4
2
3
7
31
12
5
7
4
2
3
7
31
12
5
7
4
2
3
7
30
12
5
7
4
2
3
6
29
12
5
7
4
2
3
6
29
12
4
7
4
2
3
6
29
12
4
7
4
2
3
6
28
12
4
7
4
2
3
6
28
12
4
7
4
2
2
6
28
12
4
7
4
2
2
6
28
12
4
7
4
2
2
6
28
12
4
7
4
2
2
6
26
11
4
6
4
2
2
6
26
11
4
6
4
2
2
6
24
11
4
6
4
2
2
5
24
11
4
6
4
2
2
5
24
10
4
6
4
2
2
5
23
10
4
6
4
2
2
5
24
10
4
6
4
2
2
5
23
10
4
6
4
2
2
5
23
10
4
6
4
2
2
5
22
10
4
6
4
2
2
5
22
10
4
6
4
2
2
5
22
10
4
6
4
2
2
5
22
10
4
6
4
2
2
5
22
10
4
6
3
2
2
5
22
10
4
6
3
2
2
5
22
10
4
6
3
2
2
5
22
9
4
6
3
2
2
5
22
9
4
6
3
2
2
5
22
9
4
6
3
2
3
5
21
9
4
6
3
2
3
4
21
10
4
6
3
2
3
4
19
8
4
5
3
1
3
4
18
8
4
4
2
1
3
4
18
8
4
4
2
1
3
4
16
8
4
4
2
1
3
4
16
8
4
4
2
1
3
4
15
8
4
3
2
1
3
4
15
8
4
3
2
1
3
4
15
7
4
4
2
1
3
4
14
7
4
4
2
1
3
4
13
7
4
4
2
1
3
4
13
7
4
4
2
1
3
4
13
7
4
4
2
1
3
4
13
7
4
4
2
1
3
4
13
7
4
3
2
1
3
4
12
7
4
3
2
1
3
4
12
7
4
3
2
1
4
4
11
7
4
2
2
1
4
4
11
7
4
2
2
1
4
4
11
7
4
2
1
1
5
4
11
7
4
2
1
1
4
3
10
7
3
2
1
1
5
3
9
7
3
2
1
1
5
3
9
7
3
2
1
1
5
3
9
6
3
2
1
1
5
3
9
6
3
2
1
1
5
3
9
6
4
2
1
1
5
3
9
6
4
2
1
1
6
3
9
7
4
2
1
1
6
3
9
8
4
2
1
1
6
3
9
8
4
2
1
1
6
3
9
8
4
2
1
1
6
4
9
8
4
2
1
1
6
4
9
8
4
2
1
1
6
4
9
8
4
2
1
1
6
4
9
8
4
2
1
1
6
4
8
8
4
2
1
2
7
4
8
8
4
2
1
2
7
4
8
8
4
2
1
2
7
4
8
8
4
2
1
2
8
4
8
8
4
2
1
2
8
4
7
8
4
2
2
2
12
4
7
8
4
2
2
2
13
4
7
8
4
2
2
2
14
4
7
8
4
2
2
2
15
4
7
8
4
2
2
2
19
5
8
8
4
2
2
2
23
5
8
8
4
2
2
2
24
5
8
8
4
2
2
3
24
5
9
8
4
2
2
3
25
5
9
8
4
2
2
3
25
6
11
8
4
2
2
3
26
6
12
8
4
2
3
3
27
7
13
8
4
2
3
4
28
9
13
8
4
2
3
4
28
11
13
9
4
2
3
5
28
11
13
9
5
3
4
5
28
13
15
9
6
3
4
7
30
13
15
10
6
4
4
7
32
13
15
9
6
6
4
7
32
13
15
9
6
6
4
8
37
16
16
11
7
7
5
10
39
17
16
11
7
7
5
10
40
17
16
11
8
7
5
11
40
17
16
13
8
7
5
11
40
17
16
16
8
7
5
11
41
19
16
16
8
7
6
11
43
23
16
18
8
7
6
13
44
24
16
18
10
7
6
13
44
25
18
19
10
8
6
13
44
26
18
19
11
8
7
13
46
27
20
19
11
8
7
13
46
27
20
19
11
8
8
13
50
32
21
21
11
8
8
15
52
33
21
23
11
8
8
16
53
35
23
23
11
8
8
16
53
35
23
23
11
8
8
16
54
37
23
24
11
10
9
16
54
37
23
24
11
10
9
17
56
40
23
24
11
11
10
18
56
40
24
25
11
11
12
18
58
41
24
25
13
11
13
20
59
44
24
25
13
12
13
20
59
45
25
25
13
12
13
20
60
45
26
25
14
13
14
21
61
45
26
26
14
13
14
22
61
45
26
27
15
13
14
23
61
46
26
27
15
13
14
23
62
47
26
27
16
13
14
23
62
50
28
30
16
13
15
23
62
50
29
33
16
14
15
23
63
50
30
33
16
14
15
23
62
51
30
33
16
14
15
23
62
51
30
33
17
14
16
25
63
52
30
33
17
14
17
25
63
52
31
35
17
14
17
25
62
52
31
35
17
14
17
25
61
52
31
36
17
14
18
25
61
52
31
36
17
15
18
25
61
52
32
36
17
15
18
25
63
53
33
36
17
15
18
26
65
53
33
37
17
15
19
26
66
55
33
37
17
15
19
26
65
56
32
37
17
15
19
26
66
56
32
40
17
15
19
26
66
58
32
41
17
15
19
26
66
58
33
42
17
15
19
26
66
58
32
42
17
15
20
26
66
58
32
42
17
15
20
26
65
60
33
42
17
15
20
26
65
60
32
43
17
15
20
26
63
59
32
42
16
14
20
26
63
59
32
42
16
15
20
26
63
62
32
42
16
15
22
26
63
62
32
42
16
15
22
26
62
62
32
41
16
15
23
26
63
62
33
41
16
15
23
26
62
61
33
40
16
15
23
26
61
61
33
40
15
15
23
26
63
61
32
41
15
15
23
26
62
62
33
41
15
15
23
27
62
63
31
42
15
15
23
27
62
63
31
42
15
15
22
27
60
62
32
41
15
15
22
27
58
62
32
41
15
15
22
26
57
61
30
40
15
15
22
26
57
61
30
40
15
15
22
26
56
60
30
41
15
14
22
26
56
60
30
41
16
14
22
26
54
58
30
41
16
14
22
25
55
59
30
40
16
13
21
25
53
59
30
41
14
13
21
23
52
57
30
41
14
14
21
23
53
57
29
41
14
14
21
24
52
57
29
41
14
13
21
24
52
57
28
41
14
12
21
23
53
57
28
41
13
12
21
23
53
57
28
41
13
13
21
23
52
56
29
41
12
13
21
23
52
53
28
39
12
13
20
23
53
54
29
38
12
12
20
23
52
54
29
38
11
12
20
23
52
54
29
38
11
12
20
23
52
53
28
38
12
12
20
22
50
53
29
38
12
12
20
22
51
53
28
37
12
12
20
22
51
53
28
37
12
12
20
22
50
53
28
36
12
12
20
22
51
53
28
36
12
12
20
22
51
53
28
36
12
12
20
22
49
52
26
36
12
12
21
23
46
52
26
35
12
12
21
25
45
51
26
36
12
12
21
24
45
49
26
36
13
12
21
24
45
50
26
33
13
11
21
24
45
47
26
31
13
11
21
24
45
47
28
30
13
11
21
24
45
48
28
30
13
11
20
24
44
48
28
30
13
11
20
24
44
46
28
30
13
11
20
24
44
47
29
30
13
11
20
24
45
47
29
31
13
11
20
24
43
47
29
31
13
10
20
24
42
44
29
31
13
10
18
24
42
43
29
31
13
10
18
24
42
43
29
31
13
10
18
24
43
42
29
31
13
10
18
23
42
42
28
31
13
10
18
24
42
42
28
31
13
9
18
23
40
42
28
30
13
9
18
23
40
40
28
30
13
9
18
23
40
38
29
30
13
9
18
22
39
37
28
30
13
9
18
22
39
36
27
29
13
9
18
22
38
35
28
29
13
9
18
22
38
35
29
29
13
9
18
22
38
35
29
29
13
9
18
22
38
36
29
28
13
9
19
22
38
36
29
29
13
9
19
22
38
36
29
29
13
9
19
22
38
35
29
29
13
9
19
22
38
34
29
29
13
9
19
23
38
34
29
30
13
8
19
25
37
34
29
29
13
8
18
25
38
33
29
29
12
8
18
24
37
34
29
28
12
8
18
24
37
34
29
28
12
8
18
24
36
34
29
28
12
8
18
24
37
35
28
27
12
7
18
24
37
35
28
27
12
7
18
24
36
34
25
26
12
7
18
24
36
33
25
26
13
7
18
24
36
33
25
25
13
8
18
24
37
33
26
25
12
7
18
24
37
33
24
25
12
7
18
24
36
33
25
25
12
7
17
23
36
33
25
25
12
7
17
24
36
33
24
25
12
6
17
23
35
33
24
26
12
7
16
24
35
33
24
26
12
7
16
24
35
33
24
26
12
7
15
23
38
33
24
26
12
7
14
21
38
34
24
25
12
7
14
21
38
33
23
25
11
7
15
21
37
32
23
25
10
7
16
21
37
32
23
26
10
7
17
23
37
32
20
25
10
7
17
23
36
32
20
26
11
7
17
23
37
32
20
25
11
7
16
23
37
32
21
25
10
7
16
23
37
29
20
25
10
7
16
23
37
29
20
25
10
6
16
23
37
29
20
24
10
6
16
23
37
29
20
24
10
6
16
23
36
30
20
23
10
6
16
23
36
30
20
23
11
7
16
23
35
31
20
23
11
7
16
22
35
31
20
23
11
7
16
23
35
31
20
23
11
8
17
22
36
30
20
23
11
8
17
23
36
30
19
23
10
8
17
22
36
30
19
24
10
8
17
23
36
30
19
23
10
8
17
23
35
30
18
23
10
8
17
23
35
31
18
23
10
8
17
23
35
30
17
23
10
8
17
23
35
30
17
23
11
8
17
23
35
29
16
25
11
8
16
23
35
28
16
23
10
8
16
24
35
28
16
23
10
8
16
24
35
28
16
23
10
8
16
24
36
28
16
23
10
8
15
23
36
29
16
22
10
8
15
20
37
28
16
22
10
8
15
20
36
28
16
22
10
8
15
22
35
27
16
22
10
8
15
23
34
27
16
22
10
8
16
24
34
26
16
22
10
8
16
24
34
26
18
22
10
9
16
25
34
26
19
23
10
9
16
25
35
26
19
23
10
9
16
25
35
25
19
23
9
9
16
25
35
25
18
23
9
9
16
25
36
25
18
23
9
9
16
24
36
25
18
23
9
9
16
25
36
25
17
23
9
9
16
25
36
25
17
23
9
9
16
25
38
26
17
23
9
9
16
27
38
25
17
22
9
9
16
27
38
25
17
22
9
9
16
27
38
25
18
22
9
9
15
27
35
26
18
22
9
9
15
26
35
27
18
22
9
9
15
26
35
27
18
22
9
9
15
27
35
28
19
22
9
9
14
26
35
28
19
22
9
9
14
26
35
28
19
22
9
9
14
25
35
28
19
22
9
9
14
25
34
27
18
22
9
9
14
25
35
27
16
22
8
9
14
25
35
27
16
22
8
9
14
25
35
27
16
22
8
9
14
25
35
26
15
22
8
9
14
25
36
26
15
22
8
9
14
25
37
25
15
22
8
9
14
25
36
25
15
22
7
8
14
25
37
24
16
22
7
8
14
25
36
24
16
22
7
7
13
25
36
24
16
22
7
7
12
25
36
24
16
21
7
7
12
25
38
24
16
21
7
7
12
25
38
24
16
21
7
6
11
25
38
24
16
21
7
6
11
24
38
24
16
21
7
6
11
24
38
23
16
21
7
6
11
24
38
24
16
21
6
6
11
24
38
23
15
20
6
6
11
24
38
24
15
19
6
6
11
24
38
24
15
18
6
6
11
24
38
24
15
18
5
6
11
23
38
24
15
18
5
6
11
23
36
23
15
17
5
6
11
23
36
22
15
17
5
6
11
23
35
22
15
17
5
6
10
23
35
22
15
16
5
6
10
21
35
22
15
16
5
5
10
19
35
22
15
16
5
5
9
19
35
22
15
16
5
5
9
19
35
21
13
16
4
4
9
17
33
21
11
15
4
4
9
17
33
21
11
14
4
4
9
17
32
21
11
14
4
4
8
17
32
21
11
14
4
4
8
17
30
21
11
14
4
4
8
17
30
20
10
13
4
4
8
16
30
20
10
13
4
4
8
16
30
19
10
13
4
5
8
15
26
18
10
13
4
5
8
11
26
18
10
12
4
5
8
11
25
18
10
12
3
5
8
11
24
18
9
12
3
5
8
11
24
17
8
12
3
4
8
11
24
14
8
10
3
4
8
11
24
14
7
10
3
4
7
11
24
12
8
10
3
4
6
11
22
11
9
10
3
4
6
9
22
11
9
10
2
4
6
8
22
11
9
9
2
4
5
8
22
10
9
8
2
4
5
8
20
10
9
8
2
4
5
8
20
10
9
8
2
4
5
7
20
10
9
7
2
4
5
7
19
10
11
7
2
4
5
7
17
10
10
7
2
5
4
7
16
10
10
7
2
5
4
7
16
9
10
7
2
5
5
7
15
9
11
7
2
5
5
6
15
9
11
7
2
5
5
6
15
9
10
7
2
5
5
5
14
9
10
6
2
6
5
5
7
9
10
6
2
6
5
5
6
9
11
6
2
6
4
4
5
9
11
5
3
6
5
4
4
8
11
5
3
6
4
4
4
7
12
5
3
6
4
4
4
7
12
5
3
6
4
4
4
7
12
5
3
6
5
4
4
6
13
5
3
6
5
4
4
6
13
5
3
6
5
3
4
6
13
5
3
6
5
3
4
5
13
5
3
6
5
3
3
4
13
5
3
6
5
3
3
4
13
5
2
6
5
3
3
4
13
5
3
6
5
4
3
4
13
5
3
6
6
3
4
4
13
5
3
6
6
4
4
4
14
5
3
6
6
3
4
4
14
5
3
6
6
3
4
4
15
5
3
6
6
3
4
5
15
5
3
7
6
3
4
5
15
5
3
7
6
3
4
5
15
5
3
7
6
3
4
5
18
6
3
7
6
3
5
5
21
6
4
7
6
3
5
5
21
6
4
7
6
3
5
6
21
8
4
6
6
4
5
6
22
9
4
6
6
4
5
6
22
9
4
6
6
4
5
6
22
9
4
6
7
4
5
7
22
9
4
7
7
4
5
7
23
10
4
7
7
4
5
7
23
10
5
7
7
4
5
7
24
10
5
7
7
4
5
7
24
10
5
7
7
4
5
7
24
10
5
7
7
4
5
7
24
10
5
7
7
4
5
7
25
10
5
7
7
4
5
7
26
10
5
7
7
4
5
7
26
11
5
7
7
4
5
7
26
11
5
7
8
4
5
7
26
11
5
7
8
4
5
7
27
11
5
7
8
4
5
7
27
11
5
7
8
4
5
7
27
11
5
7
8
4
6
8
27
12
6
7
8
4
6
8
27
13
6
8
9
4
6
8
28
13
6
8
9
5
6
8
28
13
6
8
9
5
6
8
28
13
6
7
9
5
6
8
28
13
6
7
9
5
6
8
28
13
6
7
9
5
6
8
29
13
6
7
9
5
6
8
29
13
6
7
9
5
6
8
31
13
6
7
9
5
6
8
31
13
6
7
9
5
6
8
31
13
6
7
9
5
6
8
31
14
6
7
9
5
6
8
31
14
6
7
9
5
6
8
31
14
6
7
9
5
6
8
32
14
6
7
9
5
6
9
32
14
6
7
9
5
6
9
34
16
6
7
9
5
6
9
34
16
6
7
9
5
6
9
35
16
6
7
9
4
6
9
36
16
6
8
9
4
5
9
35
16
6
8
8
4
5
9
35
16
6
7
8
4
5
9
35
16
6
8
9
4
5
9
35
16
6
7
8
4
5
9
35
16
6
7
8
4
5
9
35
16
6
7
8
4
5
9
36
16
6
7
9
4
5
9
34
16
6
7
9
4
5
9
32
17
6
7
9
4
5
9
32
17
6
7
9
4
5
8
32
16
6
7
9
4
5
8
33
16
6
7
9
4
5
8
33
16
6
7
9
4
5
8
33
16
6
7
8
3
4
8
33
16
6
7
8
3
4
8
32
16
6
7
8
3
4
8
32
16
6
7
8
3
4
8
32
16
6
7
8
3
4
8
32
16
6
7
8
3
4
8
32
16
6
7
8
3
4
8
32
16
6
7
8
3
4
8
31
16
6
7
8
3
4
8
31
16
6
7
8
3
4
8
31
15
6
7
8
3
4
8
31
15
6
7
8
3
4
8
31
15
6
6
8
3
4
8
30
15
6
6
7
3
4
8
29
15
6
6
7
3
4
8
29
15
6
6
7
3
3
7
29
15
5
6
7
3
3
7
30
14
5
5
6
2
3
7
29
14
5
5
6
2
3
7
29
14
5
5
6
2
3
7
29
14
5
5
6
2
3
7
29
14
5
5
5
2
3
6
29
14
5
5
5
2
3
6
28
14
5
5
6
2
3
6
28
14
5
5
6
2
3
7
26
14
5
5
6
2
3
6
26
13
5
5
6
2
3
6
25
13
5
6
6
2
3
7
25
13
5
6
6
2
3
6
25
13
5
6
6
1
3
6
25
13
5
6
6
2
3
6
24
13
5
6
6
2
3
6
25
12
5
6
7
2
2
5
22
11
5
6
7
2
2
5
22
11
5
7
7
2
2
5
21
10
4
7
7
2
2
5
20
10
5
6
7
2
2
5
20
10
5
6
7
2
2
5
20
11
5
6
7
2
2
5
19
11
5
6
7
2
2
5
19
11
5
6
7
2
2
5
19
11
5
6
7
1
2
5
19
11
5
6
7
1
2
4
19
10
5
6
7
1
2
4
19
10
5
6
6
1
2
4
19
9
5
6
6
1
2
4
19
9
5
6
6
1
2
4
19
9
5
6
6
1
2
4
18
9
4
6
6
1
2
4
18
8
4
5
6
1
2
4
18
8
4
5
6
1
2
4
18
8
4
5
6
1
2
4
17
8
4
5
6
1
2
4
17
8
4
5
6
1
2
3
17
8
4
5
6
1
2
3
17
8
4
5
6
1
2
3
17
8
4
5
6
1
2
3
16
8
3
5
5
1
2
4
16
8
3
5
5
1
2
4
16
8
3
5
5
1
2
4
16
8
3
5
5
1
2
4
16
8
3
5
5
2
2
4
16
8
4
5
5
1
2
4
16
8
4
5
5
2
2
4
16
8
4
5
5
1
2
4
16
8
4
5
5
1
2
3
15
7
4
5
5
1
2
3
14
7
4
5
5
1
2
3
14
7
4
5
5
1
3
3
14
8
4
5
5
1
3
3
14
8
4
5
5
1
3
3
14
7
4
5
5
1
3
3
14
7
4
5
5
1
3
3
14
7
4
5
5
1
3
3
14
7
4
5
4
1
3
3
14
8
4
5
4
1
4
3
14
8
4
5
4
1
4
3
14
8
4
4
3
1
6
3
13
8
4
4
3
1
7
3
13
8
4
4
3
1
7
3
13
7
3
4
3
2
7
3
13
7
3
3
3
1
8
3
12
7
3
3
2
2
8
3
11
7
3
3
2
2
8
3
11
7
3
3
2
2
8
3
11
7
3
2
2
2
8
3
11
7
3
2
2
2
8
3
11
7
3
2
2
2
11
3
10
6
3
2
2
2
11
3
10
6
3
2
2
2
11
3
10
7
3
2
2
2
11
3
10
7
3
2
2
2
11
5
10
7
3
2
2
2
11
5
10
7
3
2
2
2
12
5
9
7
3
2
2
3
12
5
9
7
3
2
2
3
12
6
9
7
3
2
2
3
12
6
9
7
3
2
2
3
12
6
9
7
3
2
2
3
12
6
9
7
3
2
2
3
13
6
9
7
3
2
2
3
13
6
9
8
3
2
2
3
13
6
9
8
3
2
2
3
15
6
9
8
3
2
2
3
16
6
9
8
3
2
2
3
18
6
10
8
3
2
2
3
19
7
10
9
4
3
3
4
20
7
10
10
4
3
3
4
22
7
12
10
5
3
3
4
22
8
13
10
5
3
3
4
23
8
14
11
5
4
3
4
25
8
14
11
5
7
3
4
27
9
14
11
5
7
3
5
28
10
14
11
5
7
3
5
30
10
14
11
6
7
3
5
31
10
14
13
6
7
3
5
32
11
14
13
6
7
4
5
34
11
15
14
6
7
4
5
34
13
15
14
7
8
4
5
36
16
16
14
7
8
4
6
37
17
16
14
7
8
4
6
37
17
17
14
7
8
5
6
37
18
17
14
7
9
5
6
39
19
19
14
7
9
5
6
39
19
20
14
7
11
6
6
40
20
20
15
7
11
6
6
41
20
20
15
7
12
6
7
41
20
22
15
7
12
6
8
40
20
22
17
8
12
8
8
41
21
22
19
8
12
9
8
41
26
22
19
8
12
9
8
42
27
23
19
8
12
9
8
42
28
23
19
8
12
9
8
43
28
23
20
8
13
9
10
44
30
23
20
8
13
9
11
46
30
23
20
8
14
12
11
46
31
23
21
9
15
12
11
47
31
24
21
9
15
14
11
47
32
24
21
9
16
14
11
48
33
24
21
10
16
14
12
48
34
25
21
10
17
14
12
49
35
25
21
10
17
15
12
50
36
25
21
10
17
15
12
50
37
25
23
10
17
15
12
50
38
26
22
10
17
16
11
51
38
27
23
11
17
16
11
52
38
27
23
11
17
16
12
53
41
27
23
11
17
16
11
54
41
27
23
11
17
16
11
54
41
27
23
11
17
16
12
54
42
27
23
11
18
16
12
54
42
27
23
11
18
17
13
55
42
28
23
11
18
17
13
55
43
28
23
12
18
17
13
56
43
28
23
12
18
17
14
57
43
27
23
12
18
18
15
56
44
28
23
11
18
18
14
57
44
28
23
11
18
18
14
56
44
27
22
11
18
18
15
56
44
27
22
11
18
18
15
55
44
26
23
11
18
18
15
55
45
26
22
11
17
18
15
55
45
26
23
11
17
19
16
55
45
26
23
11
17
19
16
54
45
26
23
11
18
20
16
53
45
26
22
11
18
20
16
53
45
26
22
11
18
20
17
52
46
26
22
11
18
20
17
52
45
26
22
11
18
20
17
52
46
26
22
11
18
20
17
51
46
26
23
11
18
20
17
51
46
26
23
11
18
20
18
52
46
26
24
11
18
20
18
52
46
25
25
12
18
21
19
51
46
24
26
12
17
20
19
51
46
24
26
12
16
20
19
51
46
24
27
12
16
20
19
51
46
23
27
12
16
20
19
52
46
23
26
11
16
20
19
52
46
24
24
11
16
19
19
52
44
25
25
11
16
19
19
52
43
25
25
12
18
19
19
51
43
25
25
12
19
19
20
51
43
24
24
12
19
19
19
51
42
25
24
11
19
19
19
49
42
25
24
11
17
17
19
49
42
25
24
11
17
17
19
48
42
24
24
11
17
16
19
48
41
24
24
11
16
16
19
47
40
25
24
11
17
16
19
46
40
25
24
12
16
17
19
46
40
25
25
12
16
16
19
45
38
25
25
12
16
16
19
44
37
25
24
13
16
16
19
44
37
24
24
12
16
15
19
43
36
23
24
12
16
15
19
42
36
23
24
12
16
15
19
40
33
23
25
12
17
15
20
41
34
23
25
12
17
16
20
42
34
23
25
12
17
17
21
42
33
23
24
12
16
17
21
43
33
22
24
12
16
16
20
42
33
22
25
12
16
16
20
42
33
22
25
12
16
16
20
41
33
22
25
12
16
15
20
39
33
22
25
12
16
16
20
41
31
22
25
12
16
16
21
40
32
22
25
13
17
15
21
40
32
22
25
13
17
15
21
40
32
22
27
13
17
15
21
40
33
22
26
12
17
16
21
41
31
22
26
12
17
18
20
39
31
22
26
12
17
17
19
39
31
22
27
12
18
17
19
39
31
23
27
12
17
18
20
41
31
22
27
12
17
18
21
41
31
23
27
12
18
18
22
41
31
22
28
12
18
18
22
43
31
22
28
12
18
19
22
43
27
21
28
12
18
19
22
43
28
21
27
12
18
19
22
43
28
21
27
13
18
19
22
42
29
21
27
13
18
18
22
41
28
20
26
13
18
18
20
41
28
20
25
13
18
18
20
41
28
20
25
13
18
18
20
41
28
20
24
13
18
18
21
41
27
20
25
14
18
18
21
40
27
19
25
14
19
18
21
40
27
18
25
14
19
19
21
40
26
18
25
14
19
20
22
39
26
18
25
14
18
20
21
40
26
18
25
14
17
20
21
40
26
18
26
14
17
20
21
38
26
18
26
14
16
20
21
40
26
18
26
14
16
20
21
40
26
19
27
15
17
22
21
41
26
21
26
16
18
23
21
42
26
20
27
16
18
23
21
42
26
19
26
16
18
24
21
42
26
19
26
15
18
24
21
44
26
19
26
14
18
24
21
43
27
19
25
14
17
24
21
43
27
19
25
14
17
24
21
44
27
18
25
14
17
24
21
44
27
18
25
14
17
24
21
44
27
18
25
14
17
24
21
44
27
19
24
14
17
25
21
43
28
19
24
14
18
25
20
42
29
19
25
14
18
25
20
41
29
19
25
14
18
25
19
40
29
19
25
14
18
25
19
40
30
19
25
14
18
25
19
40
31
19
29
14
18
25
19
40
30
19
29
14
18
25
19
40
30
19
29
14
18
25
18
38
31
19
29
14
18
25
18
40
31
19
29
14
18
25
18
42
30
19
29
14
18
25
18
42
30
19
28
14
18
26
18
43
29
19
28
14
18
26
18
42
29
19
28
14
18
25
18
42
29
19
28
14
18
24
18
42
30
19
28
14
17
24
18
42
30
19
29
14
17
23
18
40
30
19
29
14
17
23
16
40
30
19
29
14
16
23
15
39
30
21
27
14
15
23
15
38
30
21
27
14
16
23
15
37
30
21
27
14
16
23
15
37
30
21
27
14
16
23
15
37
30
21
27
13
16
24
15
37
30
21
27
13
16
24
15
37
29
21
28
13
16
24
15
38
30
21
28
13
16
24
15
37
30
21
28
13
16
24
15
36
30
21
28
13
16
24
15
36
30
21
27
13
16
24
15
37
30
21
26
13
15
24
15
37
30
21
26
12
15
24
14
37
30
21
27
12
15
23
13
38
30
21
26
12
15
24
13
38
30
21
26
12
15
24
13
40
30
22
26
12
15
24
13
40
30
22
26
13
15
24
13
38
31
24
29
13
15
23
13
38
31
25
29
13
15
21
13
37
31
24
29
11
14
20
13
36
31
23
29
11
14
20
12
36
31
24
29
12
14
20
12
36
31
24
29
12
14
20
12
35
31
25
29
12
14
20
12
35
29
25
29
12
15
20
12
35
30
25
29
12
15
20
14
35
29
25
29
12
15
20
14
35
30
25
29
12
15
20
14
35
29
26
29
12
15
20
14
35
29
26
29
12
14
19
14
35
29
26
29
12
13
18
14
35
28
26
29
11
13
18
14
35
28
27
29
11
13
18
14
35
28
27
29
11
13
18
14
34
26
27
29
11
13
18
14
34
25
27
24
11
13
18
14
34
25
27
25
11
13
18
14
34
25
28
25
11
13
17
14
34
25
28
25
11
13
17
15
31
25
27
25
10
12
17
14
28
25
27
25
11
12
17
14
27
25
27
25
11
12
16
15
27
25
27
25
10
12
16
15
28
25
27
25
10
13
16
15
28
26
27
25
11
13
16
15
29
24
27
24
11
13
16
15
29
25
28
24
11
13
16
15
29
25
28
24
11
13
16
15
29
24
27
24
11
13
16
15
29
24
26
24
11
12
16
14
29
24
26
25
11
12
16
14
28
24
26
26
10
12
16
14
29
24
26
26
10
12
16
14
29
23
27
26
10
12
15
14
29
23
27
25
10
12
13
14
29
23
27
25
10
12
13
14
29
23
27
25
10
12
13
14
30
23
27
25
10
12
14
14
30
23
27
25
10
12
14
14
31
23
28
25
10
12
14
14
31
22
28
24
9
12
14
14
30
23
28
24
9
12
14
14
30
23
28
24
9
12
14
14
29
22
28
24
9
11
13
14
29
22
28
24
9
11
13
14
26
22
27
24
9
11
13
14
25
22
27
24
8
11
13
14
25
20
24
20
7
11
14
14
26
20
22
19
7
11
14
14
26
20
22
19
8
11
14
14
26
20
23
19
7
11
14
14
26
20
22
21
7
12
14
14
26
20
22
21
7
11
13
14
26
19
21
21
7
11
12
14
25
20
21
21
7
10
12
14
25
20
21
21
7
10
12
12
25
20
21
20
7
10
12
12
25
20
20
20
7
9
12
12
24
20
20
20
7
9
12
12
25
20
19
20
7
9
12
12
24
19
19
20
6
9
12
12
24
19
19
20
6
9
11
12
24
19
19
19
6
10
11
11
24
19
18
19
6
12
11
11
24
18
18
19
6
12
12
11
24
18
16
19
6
12
12
11
24
18
16
18
6
13
12
11
24
17
16
17
6
13
12
11
24
17
16
17
5
13
12
10
24
17
15
17
5
13
12
9
24
17
15
17
5
13
12
9
24
17
15
17
5
13
12
9
23
17
15
17
5
13
11
8
22
16
15
17
5
13
11
7
22
15
15
17
5
13
11
7
21
15
15
17
5
13
11
7
20
14
15
17
4
13
11
7
20
14
15
16
4
13
10
7
20
14
15
16
4
13
9
7
20
14
15
15
4
13
9
7
19
14
15
14
4
13
9
7
18
13
15
13
4
15
9
7
17
13
15
11
4
15
9
7
17
13
13
11
3
15
9
7
16
13
15
11
3
15
9
6
15
12
15
11
3
15
9
6
15
12
15
11
3
15
8
6
14
12
15
11
3
15
8
6
14
11
14
11
3
15
9
6
11
11
13
11
3
15
8
5
10
11
14
11
3
14
8
4
10
11
14
11
3
15
8
4
9
11
14
11
3
15
8
4
9
11
14
11
3
15
8
4
9
11
14
11
3
15
8
4
9
11
14
11
3
15
8
4
8
10
15
10
3
15
8
4
9
10
15
10
3
15
8
4
8
9
16
10
3
15
7
4
7
9
16
10
3
15
7
3
6
8
16
10
3
15
7
3
6
7
17
6
3
15
7
2
5
7
17
6
3
15
7
2
5
7
17
6
3
15
7
2
5
6
19
7
3
15
7
2
5
5
22
7
3
15
7
2
4
5
23
8
3
15
8
2
4
5
24
8
3
15
8
2
4
5
24
8
3
16
8
2
4
5
24
9
3
16
8
2
4
5
24
9
3
16
8
2
4
5
25
9
3
16
8
2
4
5
26
9
3
15
8
2
4
6
26
9
3
14
9
2
4
6
26
9
3
14
9
2
4
6
26
9
3
13
8
2
4
6
26
9
3
13
8
2
4
6
26
9
3
13
8
2
4
6
27
9
3
13
8
2
4
6
27
9
3
13
8
2
5
7
27
10
4
13
8
2
5
7
28
10
4
13
8
2
4
7
28
10
4
13
8
2
4
7
28
10
4
13
9
2
5
7
29
10
4
13
10
2
5
7
31
10
5
13
10
2
5
7
31
10
5
13
10
3
5
7
31
10
5
13
10
3
5
7
31
10
5
13
10
3
5
7
32
10
5
13
10
3
5
7
32
10
5
12
10
2
5
7
33
10
5
10
10
2
5
7
33
10
5
10
11
2
5
7
34
11
5
10
11
2
6
8
36
12
5
10
11
2
6
8
38
12
5
10
11
2
6
8
39
12
5
10
11
2
6
8
40
13
5
10
11
2
6
8
40
13
5
10
10
2
6
8
40
13
5
10
10
2
6
8
40
12
5
10
10
2
6
8
40
12
5
10
10
2
6
8
40
13
5
9
10
2
6
8
40
13
5
9
10
2
6
8
40
13
5
9
10
2
6
8
40
13
5
9
10
2
6
8
40
13
5
9
10
2
6
8
40
13
5
9
10
2
6
8
40
13
5
9
10
2
6
8
40
14
5
9
10
2
6
8
40
14
5
9
10
2
6
8
40
14
5
9
11
2
6
8
40
14
5
9
11
2
6
8
40
14
5
10
11
2
6
9
39
14
5
10
11
2
6
8
38
14
5
10
10
2
6
8
38
14
5
9
10
2
6
8
38
13
5
9
10
2
6
8
38
13
5
8
10
2
6
8
38
13
5
8
10
2
6
8
38
13
5
8
10
2
6
8
38
13
5
8
10
2
6
8
38
13
5
8
10
2
6
8
37
13
5
8
9
2
6
8
37
13
5
8
9
2
6
8
37
13
5
8
9
2
6
8
37
13
5
8
9
2
6
8
37
13
5
8
10
2
5
8
37
13
5
8
10
2
5
8
37
13
5
8
10
2
5
7
38
12
5
8
10
2
5
7
38
13
5
8
10
2
5
7
38
12
5
8
10
2
5
7
38
12
5
8
10
2
4
7
37
12
5
7
9
2
4
7
36
12
4
8
9
2
4
7
36
12
4
8
9
1
4
7
36
12
4
8
9
1
4
7
36
12
4
8
9
1
4
7
36
12
4
8
9
1
4
7
36
12
4
8
9
2
4
7
34
12
4
8
8
2
4
7
35
12
4
8
8
2
4
7
35
12
4
7
8
2
3
7
33
11
4
8
8
1
3
6
31
11
4
8
8
1
3
6
31
11
4
8
8
1
3
6
30
10
4
7
8
1
3
6
29
10
4
7
8
1
3
6
29
10
4
7
8
1
3
6
29
10
4
7
8
1
3
6
29
10
4
7
8
1
3
6
30
10
4
7
8
1
3
6
31
10
4
7
8
1
3
6
30
10
4
7
8
1
3
6
30
10
4
7
8
1
3
6
30
10
4
7
7
1
3
6
30
10
4
7
8
1
3
6
30
10
4
7
7
1
3
6
29
8
4
7
7
1
3
6
29
8
4
6
7
1
3
6
29
8
4
6
6
1
3
6
29
8
4
6
6
1
2
5
29
8
4
5
6
1
2
4
28
8
4
5
6
1
2
4
27
7
4
5
6
1
2
4
27
7
4
5
6
1
2
4
27
7
4
5
6
1
2
4
27
7
4
5
6
1
2
4
26
7
4
5
6
1
2
4
26
8
4
5
6
1
2
4
26
8
4
5
6
1
2
4
25
8
4
5
6
1
2
4
25
8
4
5
6
1
2
4
25
8
4
5
6
1
2
4
25
8
4
5
6
1
2
4
25
8
4
5
6
1
2
4
25
8
4
5
5
1
2
4
25
8
4
4
4
1
4
4
24
8
4
4
4
1
4
4
23
8
4
4
4
1
4
4
23
8
4
3
4
1
4
4
22
8
4
3
4
1
4
4
22
8
4
3
4
1
4
4
22
8
4
3
4
1
4
4
22
8
4
3
3
1
4
4
22
8
4
3
3
1
4
4
21
8
4
3
3
1
4
4
20
8
4
3
3
1
4
3
20
8
3
3
3
1
4
3
20
8
3
2
3
1
4
3
20
8
3
2
3
1
4
3
19
7
3
2
3
1
4
3
18
7
3
2
3
1
4
3
15
7
3
2
3
1
4
3
14
7
3
2
2
1
5
3
14
7
3
2
2
2
5
3
14
7
3
2
2
2
5
3
14
7
3
2
2
2
5
3
14
7
3
2
3
2
5
3
14
7
3
2
2
2
6
3
15
7
3
2
2
2
6
3
13
7
3
2
2
2
7
3
10
7
3
2
2
2
8
4
10
7
3
2
2
2
8
4
10
7
3
2
2
2
8
4
10
7
3
2
2
2
8
4
10
7
3
2
2
2
8
4
10
7
3
2
2
2
8
4
10
7
3
2
2
2
8
4
10
7
3
2
2
2
8
4
10
7
3
2
2
2
8
4
10
7
3
2
2
2
8
4
10
7
3
2
2
2
9
4
10
7
3
2
2
2
10
4
9
7
3
2
2
2
10
4
10
7
3
2
2
2
10
4
9
7
3
2
2
2
10
4
9
7
3
2
2
2
10
4
9
7
3
2
2
2
11
5
9
7
3
2
2
2
11
5
9
6
3
2
2
2
11
5
9
6
3
2
2
2
11
5
9
6
3
2
2
2
12
5
9
6
3
2
2
2
12
5
9
6
3
2
2
2
12
5
9
6
3
2
2
2
12
5
11
6
3
2
2
2
12
5
11
6
3
2
2
2
12
5
11
6
3
2
2
2
13
6
11
6
3
2
2
2
13
6
11
6
3
2
2
2
13
6
11
6
3
2
3
2
13
6
11
7
3
2
3
3
15
6
11
7
3
2
4
3
19
6
11
7
4
2
4
3
20
7
11
7
4
2
4
3
20
7
11
7
4
2
4
3
20
7
11
7
4
2
4
3
20
7
11
7
5
2
4
3
20
7
11
7
5
2
4
3
22
7
11
8
7
3
4
3
22
7
11
10
7
3
4
3
26
7
11
10
7
3
4
4
26
7
11
10
7
3
4
4
27
8
11
10
7
3
4
4
27
8
11
10
7
3
4
4
27
9
12
11
8
3
4
4
28
10
12
11
8
3
4
5
28
10
12
11
8
3
5
5
30
13
12
12
9
3
5
5
32
13
12
12
9
4
5
5
32
19
12
12
9
5
5
5
32
22
12
12
9
5
5
5
32
23
14
12
9
5
5
5
33
24
14
12
9
5
5
5
35
24
14
12
9
5
5
5
37
24
14
13
10
5
6
6
37
24
15
13
10
5
6
6
37
25
15
14
10
5
6
6
39
25
14
15
11
6
7
6
40
25
15
15
12
7
7
7
40
26
15
16
12
7
7
7
40
28
16
17
12
7
7
7
41
28
16
17
12
8
7
8
41
28
16
17
12
8
8
8
41
28
15
17
12
8
11
8
41
28
17
19
13
8
11
8
42
29
17
22
13
8
11
8
43
29
17
23
13
9
11
9
45
29
18
23
13
9
12
9
48
31
18
23
14
9
12
17
48
33
18
23
14
9
12
17
48
33
18
23
14
9
12
17
48
34
18
23
14
9
12
17
48
34
18
23
14
9
12
17
48
34
18
25
14
9
12
17
48
35
17
25
14
9
13
18
48
37
17
26
14
9
13
19
49
39
17
26
14
9
14
19
49
39
17
26
15
10
14
19
51
39
17
26
15
10
14
20
52
39
19
27
15
10
14
20
52
41
19
27
15
10
15
20
52
41
19
27
15
10
15
20
51
41
20
31
15
10
16
20
51
41
20
34
15
10
16
20
51
41
20
34
16
10
16
20
52
41
20
34
16
10
16
20
52
41
20
35
15
10
16
20
52
42
20
35
15
10
16
20
52
42
21
35
15
10
16
20
53
42
21
34
15
10
16
20
54
42
21
35
15
11
16
20
55
45
21
36
15
11
16
21
54
47
23
37
15
11
16
21
54
47
25
37
15
11
16
21
55
47
25
37
15
11
16
21
55
47
25
37
15
11
16
21
55
47
25
38
16
11
17
21
54
47
25
38
16
11
17
21
53
47
24
39
16
11
18
22
53
45
24
39
16
11
18
22
53
43
24
39
16
11
18
23
53
43
23
39
16
11
18
23
53
43
23
39
16
11
18
23
51
43
23
39
16
11
18
23
50
43
23
39
16
11
17
23
50
43
23
39
15
11
17
23
50
43
23
39
16
11
17
23
49
43
23
38
15
10
17
23
49
44
23
38
14
10
17
23
50
44
23
39
14
10
17
23
51
42
23
38
15
10
17
23
51
42
24
38
15
9
17
24
51
42
24
38
15
9
17
24
51
42
25
38
15
9
15
24
51
42
24
37
14
9
15
24
53
42
24
36
14
9
16
25
52
42
24
35
14
9
16
25
50
42
24
35
14
9
16
25
49
41
24
35
14
9
16
22
49
40
24
35
14
9
16
22
49
40
24
35
14
9
16
22
49
40
24
35
14
9
16
22
49
40
25
35
14
9
16
22
49
40
25
35
14
8
16
22
49
39
25
35
13
9
16
22
49
39
25
35
13
9
15
21
48
37
25
35
14
9
15
21
48
37
25
35
13
9
15
21
46
38
25
36
13
9
15
21
46
38
25
36
13
8
15
21
45
39
25
36
13
8
14
20
45
38
25
35
13
8
14
21
45
38
25
33
13
8
13
20
44
39
25
30
13
8
13
21
44
39
25
29
12
8
14
21
44
40
25
29
12
8
14
21
43
40
25
29
12
8
14
21
44
40
25
29
12
8
14
21
43
41
25
30
12
8
14
21
41
40
25
30
13
9
14
21
37
41
25
30
13
8
14
21
37
38
25
29
12
8
15
21
37
35
23
28
12
11
18
21
38
35
21
28
12
11
18
22
38
36
21
27
11
11
19
22
38
36
21
27
12
11
19
22
38
38
21
26
11
11
18
22
38
38
21
25
11
11
18
21
38
38
21
25
11
11
18
21
37
38
21
25
11
11
18
21
38
38
21
25
11
11
18
20
38
37
21
25
11
11
18
20
37
37
22
25
11
11
18
21
37
37
21
26
11
11
18
21
38
37
21
26
11
11
19
20
38
37
22
26
11
11
19
21
39
37
22
26
10
11
19
21
39
37
22
26
10
11
19
21
38
36
22
26
10
11
19
21
37
36
22
25
10
12
19
21
35
36
22
25
10
13
19
21
34
37
21
25
10
13
19
19
34
37
21
25
10
13
19
19
34
37
20
25
10
13
19
19
34
37
20
26
10
13
19
19
30
37
21
27
10
13
19
18
31
37
21
27
9
13
19
19
32
38
21
27
9
13
18
18
31
38
21
27
10
13
18
17
31
38
20
28
10
13
18
17
32
38
20
28
10
13
18
17
32
38
20
27
9
13
18
17
32
38
20
27
9
13
18
17
32
37
20
27
9
13
18
17
32
37
19
27
9
13
18
17
32
36
19
26
9
13
17
16
32
36
19
26
9
13
17
16
31
37
19
26
9
13
18
16
31
35
19
25
9
13
18
16
31
35
18
26
9
13
17
16
31
35
18
25
9
13
17
16
31
35
17
25
9
13
17
16
31
35
17
25
9
13
18
17
31
35
17
25
9
13
18
16
31
33
18
25
9
13
17
16
31
33
18
25
9
13
17
16
31
33
18
25
9
13
17
16
31
33
18
24
9
13
17
16
31
32
18
23
9
13
17
16
31
32
18
22
9
13
17
16
31
32
18
22
9
13
17
15
31
32
18
22
9
13
17
16
31
32
18
22
9
10
13
16
30
32
18
22
9
10
13
15
31
32
18
22
9
10
12
15
30
32
18
22
8
10
13
15
30
29
18
22
8
10
14
15
30
29
18
23
8
10
13
15
30
29
19
23
8
10
13
14
30
29
19
23
8
10
13
15
30
29
19
23
8
10
14
15
30
29
19
21
8
10
14
15
31
29
19
21
8
10
14
14
31
29
19
22
8
10
13
14
30
30
19
22
8
10
13
15
31
29
19
22
8
10
13
14
30
32
20
22
8
9
13
14
30
32
20
22
9
9
13
14
30
32
20
22
8
9
13
14
30
32
20
22
8
8
13
14
30
32
20
22
8
7
12
14
30
31
20
22
8
7
12
14
30
31
20
22
8
7
12
14
30
31
20
22
8
7
13
15
30
32
20
21
8
7
13
15
30
32
19
20
8
7
13
15
30
32
19
20
8
7
13
14
29
31
19
20
8
7
13
14
31
30
19
20
7
7
13
14
31
30
19
19
7
7
13
14
30
30
19
19
7
7
13
14
30
30
19
20
7
7
13
14
31
30
19
20
7
7
13
14
30
30
19
20
7
7
13
14
30
30
19
20
8
7
14
14
30
30
19
19
8
7
14
14
30
30
19
19
8
7
13
14
30
29
19
18
8
7
13
14
30
29
19
18
8
7
13
14
31
29
20
18
8
7
13
15
31
27
20
18
8
6
14
15
31
27
20
18
8
7
14
15
31
27
20
18
8
6
13
15
32
27
20
18
8
6
13
15
32
27
20
18
8
6
13
15
32
27
21
17
8
6
14
15
32
27
21
17
8
6
15
15
32
27
20
17
9
6
15
16
32
27
21
17
9
6
15
16
32
26
22
17
9
6
14
16
32
26
22
18
9
6
14
17
31
26
22
18
9
6
14
16
31
26
22
18
9
6
14
16
31
25
22
18
9
7
14
16
30
25
22
18
9
8
15
16
30
24
22
18
9
7
14
16
29
24
22
18
9
7
14
16
29
24
22
17
9
7
14
16
30
24
21
17
9
7
14
16
30
26
21
17
9
7
14
16
30
25
21
16
9
7
13
16
30
25
21
16
8
7
13
15
28
25
20
17
9
7
13
15
28
25
20
16
8
7
13
16
27
23
20
16
8
7
13
15
27
23
20
16
8
7
14
15
27
19
19
16
8
7
14
15
27
19
19
17
8
7
14
15
26
19
19
16
8
7
14
15
26
19
19
16
8
7
14
15
26
19
19
18
8
7
13
15
26
19
20
17
8
7
13
15
26
19
19
17
8
7
13
14
25
19
19
17
8
7
13
14
25
17
19
17
8
7
13
14
25
17
19
17
8
7
12
14
25
16
19
16
8
7
13
14
24
16
19
16
8
7
13
14
20
15
19
17
8
7
12
13
21
16
19
16
8
7
12
13
21
16
19
16
8
7
12
13
21
16
19
16
8
7
13
13
20
16
19
16
8
7
13
12
20
16
19
16
8
8
13
12
20
16
19
15
8
8
12
13
19
16
19
15
7
8
12
13
19
15
19
15
7
8
12
12
19
15
18
15
7
8
12
12
19
15
18
15
7
8
12
12
18
15
17
15
7
8
12
12
18
14
17
15
7
8
12
12
18
14
17
15
7
8
12
11
17
14
17
14
7
8
11
11
14
14
17
14
6
8
11
10
14
14
17
14
6
8
11
10
14
14
16
14
6
8
11
10
14
13
15
14
6
8
10
10
14
13
15
14
5
8
10
9
14
13
13
14
5
8
10
8
14
13
12
14
5
8
10
8
14
13
11
13
5
8
10
8
13
13
11
13
5
8
10
8
13
13
11
13
5
8
10
8
13
13
10
13
5
7
8
7
13
13
10
13
5
6
7
7
13
12
10
12
5
6
7
7
13
12
11
13
5
6
7
7
13
12
11
12
4
6
7
7
11
12
11
12
4
6
6
7
11
9
11
12
4
6
6
7
11
9
12
12
4
6
6
6
11
9
12
12
4
6
6
6
11
9
12
12
4
6
6
6
10
9
12
12
4
6
6
6
10
9
12
11
4
6
6
6
10
9
12
11
4
6
5
5
10
9
12
10
4
6
5
5
10
9
12
10
4
6
5
5
10
9
11
10
4
6
5
5
10
8
11
9
4
6
5
5
10
8
11
6
4
6
5
5
10
8
10
6
4
6
6
5
9
8
11
6
4
6
5
5
9
8
11
6
4
6
5
5
9
7
11
6
4
6
6
5
9
7
11
6
4
6
6
5
9
7
11
6
4
6
6
5
9
7
12
6
4
6
6
5
9
7
13
4
3
6
6
5
6
4
13
4
3
6
6
4
6
4
13
4
3
6
6
4
5
3
13
4
3
6
5
4
4
3
14
4
2
6
5
4
4
4
15
4
2
4
5
4
4
3
16
5
2
4
5
3
4
3
16
5
2
4
5
3
3
3
16
5
2
5
5
3
3
3
16
5
2
4
5
3
3
3
16
5
2
5
5
3
3
3
16
5
2
5
5
3
3
3
16
5
2
5
6
4
3
3
20
6
2
5
6
3
3
3
20
6
2
5
6
3
3
3
20
7
2
5
6
3
3
3
20
7
2
5
6
3
3
3
20
7
2
5
6
3
3
3
20
7
2
5
6
3
2
4
21
7
2
5
6
3
3
4
22
7
2
5
6
3
3
4
22
7
3
5
7
3
3
4
22
7
2
5
7
3
3
4
22
7
2
5
7
3
3
4
22
7
2
5
7
3
3
4
22
8
2
5
7
3
3
5
23
9
3
6
7
3
3
5
23
10
3
6
9
3
3
5
24
10
3
6
11
3
3
5
24
11
3
6
11
3
3
6
25
11
3
6
11
3
3
6
25
12
3
6
11
3
3
6
25
12
3
7
11
3
4
6
25
12
4
7
11
3
4
6
25
12
4
8
12
3
4
6
27
12
4
8
12
3
5
6
27
12
5
9
13
4
5
6
27
12
5
10
13
4
5
7
27
12
5
10
13
4
5
7
27
12
5
10
13
4
5
7
27
12
5
10
13
4
5
7
28
12
5
10
13
4
5
7
28
12
5
10
13
4
5
7
28
12
5
10
13
4
5
7
28
13
5
10
13
4
5
7
28
13
5
10
14
4
5
7
28
13
5
10
13
4
6
8
28
13
6
10
13
4
6
8
28
13
6
10
13
4
6
8
31
14
6
10
13
4
6
8
32
14
6
10
13
4
6
8
32
14
6
10
13
4
6
8
32
14
6
10
13
4
6
8
32
14
6
10
13
4
6
8
32
14
6
10
13
4
6
8
32
14
6
10
13
4
6
8
32
14
6
10
13
3
6
8
32
14
6
10
13
3
6
8
32
14
6
10
13
3
6
8
32
14
6
10
13
3
6
8
32
14
6
10
13
3
6
8
32
14
6
10
13
3
6
8
33
14
6
10
13
3
6
8
31
13
6
10
13
3
6
8
30
13
6
10
13
3
6
8
30
13
6
10
13
3
6
8
31
13
6
10
13
3
6
8
31
13
6
10
13
3
6
8
31
13
6
10
13
3
6
8
30
13
6
10
13
3
6
8
31
13
6
10
13
3
6
7
31
13
6
10
13
3
6
7
31
13
6
10
13
3
6
7
31
13
6
10
13
3
6
7
31
13
6
10
13
3
6
8
31
13
6
10
13
3
6
7
32
11
6
10
13
3
6
7
31
11
6
10
11
2
6
7
31
11
6
10
10
2
6
7
30
10
6
10
10
2
6
7
30
9
6
10
10
2
6
7
30
9
6
10
10
2
6
7
30
8
6
9
10
2
5
7
29
8
5
9
9
2
5
7
29
8
5
8
8
2
5
7
28
8
5
8
8
2
4
7
28
8
4
7
8
2
4
6
28
8
4
6
8
2
4
6
28
8
4
6
7
2
4
6
28
8
4
6
7
1
3
6
28
8
4
6
7
1
3
6
28
8
4
6
7
1
3
6
28
8
4
6
7
1
3
6
28
8
4
6
6
1
3
6
28
8
4
6
6
1
3
6
28
7
4
6
5
1
3
6
28
7
4
6
5
1
3
5
28
7
4
6
5
1
3
6
29
7
4
5
5
1
3
5
24
7
4
5
5
1
3
5
22
6
4
5
5
1
2
6
23
7
4
5
5
1
2
6
23
7
3
5
5
1
2
5
22
6
3
5
5
1
2
5
23
6
4
5
5
1
2
5
22
6
4
5
5
1
2
5
22
6
3
5
5
1
2
5
22
6
3
5
5
1
2
5
22
6
3
5
5
1
2
5
22
6
3
5
5
1
2
5
22
6
3
5
5
1
2
5
21
6
3
5
5
1
2
5
21
6
3
5
4
1
2
5
21
6
3
5
4
1
2
5
21
6
3
4
4
1
2
5
21
6
3
4
4
1
2
5
20
6
4
4
4
1
2
5
20
7
4
4
4
1
2
5
20
6
4
4
3
1
2
5
20
6
4
4
3
1
2
5
18
6
3
3
3
1
2
5
18
6
3
3
3
1
1
5
18
6
3
3
3
1
1
5
18
6
3
3
3
1
1
5
18
6
3
2
3
1
1
4
18
6
3
2
3
1
1
4
16
6
3
2
3
1
1
4
15
6
3
2
3
1
1
4
15
6
3
2
3
1
1
4
15
6
3
2
3
1
1
3
15
6
3
2
3
1
2
3
15
6
3
2
3
1
3
3
15
6
3
3
2
1
3
3
15
6
3
2
2
1
3
3
15
6
3
2
2
1
3
3
15
6
4
2
2
1
4
3
15
6
4
2
2
1
4
3
15
6
4
2
2
1
4
3
14
6
4
2
2
1
5
3
14
6
4
2
2
1
5
3
14
6
4
2
2
1
5
3
12
6
4
2
2
1
5
3
11
6
3
2
1
1
5
3
11
6
3
2
1
1
5
3
11
6
3
2
1
1
5
3
11
6
3
2
1
1
5
3
11
6
3
2
1
1
5
3
11
6
3
2
1
1
5
2
10
6
3
2
1
1
5
2
10
6
3
2
1
1
5
2
10
6
3
2
1
1
6
2
8
6
3
2
1
2
6
3
8
6
3
2
1
2
9
3
8
6
3
2
1
2
9
4
8
6
3
2
1
2
9
4
8
6
3
2
1
2
9
4
8
6
3
2
1
2
10
4
7
6
3
2
1
2
10
4
7
6
3
2
1
2
10
4
7
6
3
2
1
2
10
4
7
6
3
2
1
2
10
4
7
6
3
2
1
2
11
4
7
6
3
2
1
2
11
5
7
6
3
2
1
2
11
5
7
6
3
1
1
2
11
5
7
6
3
1
1
2
11
5
7
6
3
1
1
2
11
6
7
6
3
2
1
2
12
6
7
6
3
2
2
3
12
6
8
6
3
2
2
3
14
6
8
6
3
2
2
3
17
6
8
6
3
2
2
3
17
6
8
7
3
2
2
3
18
6
8
7
3
2
2
3
19
7
8
8
3
2
2
4
21
8
8
8
3
2
2
4
22
8
8
8
3
2
2
5
22
8
9
8
3
2
3
5
22
9
9
9
3
2
3
5
22
9
10
9
3
2
3
5
23
9
10
10
3
2
3
5
23
9
10
10
3
2
3
5
23
10
10
10
3
2
3
5
24
10
10
11
3
2
3
5
25
10
10
11
3
2
3
5
26
10
10
12
3
2
3
5
25
11
10
13
3
2
3
5
25
11
10
13
4
2
3
5
26
11
10
13
4
2
3
5
26
11
10
14
4
2
3
5
26
12
11
14
4
2
3
5
27
12
10
14
4
3
3
6
27
13
10
14
4
3
3
6
27
15
10
14
4
3
3
6
27
15
11
15
4
3
4
6
28
16
11
16
5
3
4
6
28
16
11
16
5
3
4
7
28
16
11
17
5
3
4
7
29
17
11
17
5
3
4
7
31
17
11
16
5
3
4
7
31
17
12
16
5
3
4
7
32
17
12
16
5
3
4
7
33
17
12
16
5
4
4
7
34
17
12
17
6
4
4
7
34
17
12
17
6
4
4
7
36
17
12
17
6
4
4
7
37
18
12
17
6
5
5
7
37
18
12
17
6
5
5
8
37
20
13
17
6
5
5
8
40
20
14
18
6
5
6
8
40
20
15
18
6
5
6
8
40
20
15
19
6
5
6
8
40
20
15
19
6
5
6
8
41
20
15
19
7
5
6
9
43
20
16
20
7
5
7
9
43
22
18
20
8
6
7
10
44
22
18
21
8
6
7
10
44
22
17
22
8
5
7
11
45
23
17
22
8
6
7
11
45
23
17
22
8
6
7
11
45
23
18
23
8
6
7
11
44
23
18
23
8
6
7
11
44
24
18
23
9
6
7
11
44
24
17
23
9
7
8
11
43
25
17
23
9
8
8
11
45
26
17
23
9
9
8
12
45
26
17
23
9
9
8
12
45
26
18
23
9
9
8
13
45
26
19
23
9
9
8
13
45
27
18
22
9
9
8
13
46
28
18
22
9
9
8
13
46
28
18
22
9
9
8
13
46
28
18
22
9
9
8
13
46
28
18
22
9
9
8
13
47
29
18
22
9
9
8
14
47
29
18
21
9
9
8
14
47
30
18
21
9
9
8
14
48
30
18
21
9
9
8
14
48
30
18
22
9
9
8
15
48
30
18
21
9
9
8
15
49
30
18
21
9
9
8
15
49
30
19
21
9
9
8
14
49
30
19
22
9
9
8
14
51
29
19
22
9
9
8
14
54
29
18
21
9
9
8
14
53
29
18
20
9
9
8
14
53
32
18
22
9
9
11
14
53
33
18
22
9
10
11
14
53
32
18
22
10
10
11
14
53
32
18
22
10
10
11
14
52
32
18
22
10
10
11
14
52
32
18
22
10
10
11
14
51
33
19
22
10
9
11
15
51
33
18
22
10
10
11
15
51
34
18
22
10
9
11
15
50
35
18
23
10
9
11
15
50
36
19
23
10
9
11
15
50
36
19
24
10
9
11
14
50
35
18
24
10
9
11
15
50
35
17
23
10
9
11
15
50
36
16
23
10
9
11
15
50
35
16
23
10
9
11
15
50
36
17
22
11
10
11
15
50
36
17
22
11
10
11
15
48
36
16
21
11
10
11
15
50
36
15
21
11
10
13
16
50
36
15
20
11
11
13
16
50
36
15
20
11
11
14
16
50
36
15
20
11
11
14
15
50
37
15
20
11
11
14
16
50
36
15
18
10
10
14
16
50
36
15
18
10
10
14
16
50
36
15
18
11
10
14
16
50
35
15
19
11
10
14
16
50
35
15
18
11
9
14
16
50
34
15
18
11
9
14
15
49
34
15
18
11
9
14
15
50
36
13
18
11
9
14
14
50
36
12
18
11
9
14
14
50
36
12
18
11
9
14
14
49
35
12
18
11
9
14
15
49
35
12
18
11
9
14
15
49
35
12
18
11
9
14
15
49
35
12
18
11
9
14
15
48
35
13
18
11
9
14
15
47
35
13
18
11
9
15
15
47
35
13
18
11
9
15
15
47
35
13
18
11
9
15
15
46
36
13
18
11
9
15
15
46
36
13
18
11
9
15
15
46
36
12
18
11
9
15
15
45
36
12
18
11
9
15
16
46
36
12
17
11
9
15
16
45
36
12
17
11
9
15
16
41
36
13
17
11
9
15
16
41
36
12
17
10
9
15
16
41
33
12
15
10
9
13
16
40
33
12
14
10
9
12
16
40
33
12
14
10
9
13
17
40
34
12
14
10
9
13
18
40
34
12
14
10
9
13
18
42
34
12
15
10
9
13
18
44
33
13
14
10
9
13
18
44
33
13
14
9
9
13
18
44
33
13
14
9
9
13
17
43
32
13
14
9
9
13
18
43
30
13
15
10
9
13
18
43
30
13
14
9
9
14
18
43
30
13
14
9
9
13
18
41
30
13
14
9
9
13
18
41
30
13
17
9
9
14
18
42
30
13
18
9
9
14
18
42
30
13
17
9
9
13
18
41
29
13
17
9
8
13
18
42
29
13
17
8
8
13
17
40
30
12
17
8
8
12
17
40
30
12
18
8
8
12
16
39
30
12
18
8
8
11
16
39
28
12
18
8
8
11
16
39
28
12
18
8
8
11
16
41
28
12
18
8
8
11
17
41
28
12
18
8
8
11
17
42
28
12
17
7
8
12
17
41
28
12
19
7
8
12
16
42
30
12
20
7
8
11
17
41
30
12
21
7
8
11
17
41
30
12
22
7
8
11
17
40
28
13
22
7
8
11
17
40
27
13
22
7
8
11
17
40
27
13
22
7
8
12
17
40
27
13
22
7
8
12
17
40
28
14
22
7
7
12
17
39
27
14
22
7
7
12
17
39
27
14
23
7
7
11
17
39
27
13
23
7
7
11
17
39
28
13
23
7
7
11
16
39
28
13
24
7
7
11
16
39
28
13
24
7
7
11
16
39
26
13
24
7
7
11
17
39
28
13
24
7
7
11
16
39
28
14
24
7
7
11
16
39
28
14
24
7
7
11
16
38
28
13
24
7
7
11
16
38
28
13
24
7
7
11
16
38
28
13
24
7
7
11
16
38
28
13
24
7
7
12
16
39
28
13
24
7
7
12
16
39
28
13
25
7
7
12
16
39
28
14
24
7
7
11
15
39
27
14
25
7
6
12
14
40
27
14
25
7
6
12
14
37
27
13
25
7
6
12
14
35
27
12
25
7
6
11
14
34
27
12
25
7
6
12
14
34
27
12
25
6
6
12
14
34
27
12
25
6
6
12
15
33
27
12
24
6
6
12
15
33
26
12
24
6
5
11
15
33
26
11
24
6
6
11
15
33
26
11
24
6
6
11
15
34
26
11
22
6
6
11
15
32
26
11
22
6
6
12
14
31
27
11
22
6
6
12
14
31
27
11
22
6
6
12
14
31
27
11
22
6
6
12
14
30
26
11
22
6
6
11
14
30
26
11
21
6
6
11
14
30
26
11
21
6
6
11
14
30
26
11
21
6
5
11
14
30
26
11
21
6
5
11
14
26
26
11
21
6
5
11
14
24
26
11
21
6
5
11
14
23
26
11
21
6
5
11
14
24
26
11
20
6
5
11
14
23
25
11
19
6
5
11
14
25
25
11
17
6
5
11
13
25
25
11
17
5
5
11
13
25
25
10
17
5
5
11
14
25
25
10
17
5
6
11
14
25
26
10
18
5
6
10
14
26
26
10
18
5
6
11
14
26
25
9
18
5
6
11
13
26
25
9
18
5
6
12
14
26
25
9
17
5
6
11
14
26
25
9
17
5
6
12
14
26
24
9
17
5
6
11
14
25
24
9
16
5
5
11
13
26
24
8
15
5
5
12
13
27
23
8
15
5
6
12
14
27
21
8
15
5
6
12
14
27
21
8
15
5
6
12
14
27
21
9
15
5
6
12
14
27
21
9
15
5
6
12
15
27
20
9
15
5
6
13
14
27
20
9
15
5
6
13
15
27
20
9
15
5
6
13
15
26
21
9
15
5
6
13
16
26
20
9
15
5
6
13
16
26
20
9
15
5
6
13
16
26
20
9
15
5
6
12
16
25
21
9
15
5
6
12
16
27
21
9
14
5
6
12
16
27
21
9
14
5
6
13
16
27
21
9
14
6
7
13
16
27
21
9
14
6
6
13
16
27
21
9
14
6
7
13
15
28
21
9
13
6
7
13
15
28
21
9
13
6
7
12
15
28
21
9
13
6
6
12
15
28
21
9
13
6
6
12
15
27
21
10
13
6
6
12
15
28
21
10
14
6
6
12
15
28
20
9
14
6
6
12
15
28
19
9
13
6
6
12
15
28
19
9
13
6
6
12
15
28
19
9
13
6
6
12
15
28
19
9
13
6
6
12
15
28
19
9
13
6
6
12
15
28
19
9
15
6
6
12
15
28
19
9
14
6
6
12
15
28
19
8
15
5
6
12
15
28
19
8
15
5
6
11
14
28
19
8
15
5
6
11
14
28
18
8
15
5
6
11
14
28
18
8
15
5
6
11
14
26
17
8
15
5
6
11
14
25
17
8
15
5
6
11
14
25
17
8
14
5
6
11
14
25
17
8
14
5
6
11
13
25
15
8
12
5
6
11
13
25
15
8
12
5
6
11
13
24
15
8
12
5
6
11
13
23
14
8
12
5
6
10
12
23
14
8
12
5
6
10
12
23
14
8
12
5
6
10
12
23
14
8
12
5
6
10
12
23
14
8
12
5
6
10
12
22
14
8
12
5
6
10
12
22
14
8
11
4
6
10
11
21
14
8
11
4
6
10
11
21
14
7
11
4
6
10
11
21
14
7
11
4
6
9
11
21
14
7
11
4
5
9
10
20
14
6
11
4
5
8
10
20
13
6
11
4
5
8
9
20
13
6
10
4
5
8
9
20
12
6
10
4
5
8
7
20
12
6
9
4
5
7
7
20
12
6
9
4
5
7
7
20
12
6
9
4
4
7
7
19
10
6
9
4
4
7
6
16
8
6
9
4
4
7
6
16
8
6
9
3
4
6
6
15
7
5
9
3
4
6
6
14
7
5
9
3
4
6
6
14
7
5
9
3
4
6
6
12
7
5
9
3
4
6
6
12
7
5
9
3
4
6
5
12
7
5
8
3
4
7
5
12
6
5
8
3
4
7
5
12
6
4
8
3
4
7
5
10
6
4
7
3
4
7
5
10
5
4
7
3
4
7
5
9
5
4
7
2
4
6
5
9
5
4
7
2
4
6
5
9
5
4
7
2
3
6
5
9
5
5
7
2
3
6
4
8
5
5
7
2
3
6
3
7
5
5
4
2
3
6
3
7
5
6
4
2
3
6
3
6
5
7
4
2
3
6
3
5
5
7
4
2
3
6
3
5
5
7
4
2
3
6
3
5
5
9
3
2
3
6
3
5
5
10
3
2
3
6
3
5
5
10
3
2
3
6
3
4
5
16
3
2
3
6
3
4
5
16
3
2
3
6
3
3
4
16
3
2
3
7
3
3
4
16
4
2
3
7
3
3
4
16
3
2
3
6
3
3
4
17
3
2
3
6
3
3
4
17
3
2
3
6
3
3
4
17
3
2
3
6
3
3
4
17
3
2
3
7
4
3
4
17
3
2
3
7
4
3
4
17
3
2
3
7
4
3
4
18
3
2
3
7
4
3
4
18
3
2
3
7
4
3
4
18
4
2
3
7
4
3
4
18
4
2
3
7
4
3
4
18
4
2
4
7
4
3
4
18
5
2
4
7
4
2
4
18
5
2
3
7
4
3
5
18
5
3
3
7
4
3
5
19
5
3
3
7
4
3
5
20
6
3
3
7
4
3
5
20
6
3
4
7
3
3
6
21
6
3
4
7
3
3
6
21
6
3
4
7
3
3
6
22
6
3
5
7
4
3
6
22
6
3
5
7
4
3
6
22
6
3
5
7
4
3
6
23
6
3
5
7
4
4
6
25
7
3
5
7
4
4
6
26
7
3
5
7
4
4
6
27
8
3
5
7
4
4
6
28
8
3
5
7
4
4
6
28
8
3
5
7
4
4
6
29
8
4
5
7
4
4
6
30
8
4
5
8
4
4
7
30
10
4
5
8
4
4
7
31
10
4
5
8
4
4
7
31
10
4
6
8
4
4
8
31
10
4
6
8
4
5
8
32
10
4
6
8
5
5
9
34
11
4
6
8
5
5
9
36
11
4
6
8
5
5
9
37
11
4
6
8
5
5
9
37
12
4
6
8
5
6
9
37
12
4
6
8
5
6
10
39
12
4
6
8
5
6
10
39
12
4
6
8
5
6
10
38
12
4
6
8
5
6
10
38
12
4
6
8
5
6
10
39
12
4
6
8
5
6
10
38
13
4
6
8
5
6
10
38
13
5
6
8
5
6
10
41
14
5
6
8
5
6
10
42
15
5
6
8
5
6
10
42
15
5
6
8
5
6
10
42
15
5
6
8
5
6
10
42
15
5
6
8
5
6
10
42
15
5
6
8
5
6
10
42
15
5
6
8
4
6
10
42
15
5
6
8
4
6
10
41
15
5
6
7
4
6
10
41
15
5
6
7
4
6
10
41
16
5
6
7
4
6
10
41
15
5
6
7
4
6
10
41
15
5
6
7
4
6
10
41
15
5
6
8
4
6
10
41
15
5
6
8
4
6
10
41
15
5
7
8
4
6
10
41
15
5
7
8
4
6
10
41
15
5
7
8
4
6
10
41
15
5
7
8
4
6
10
41
15
5
7
8
4
6
10
41
15
5
6
8
4
6
10
41
15
5
6
8
4
6
10
40
15
5
6
8
4
6
10
41
15
5
6
8
4
6
10
41
15
5
6
8
4
6
10
41
15
5
6
8
4
5
10
39
15
5
6
8
4
5
10
39
14
5
6
8
4
5
10
40
14
5
6
8
4
5
10
39
14
5
6
8
4
5
10
39
14
5
6
8
4
5
10
38
14
5
6
7
4
5
10
38
14
5
5
7
4
5
9
37
13
5
5
7
4
5
9
37
13
5
5
7
4
5
9
37
13
5
5
7
4
5
9
37
13
5
5
7
4
4
9
36
13
5
5
7
3
4
8
34
13
5
5
7
3
4
8
32
12
5
5
7
3
4
8
31
12
5
5
7
3
4
8
31
12
5
5
7
3
4
8
31
12
5
5
7
3
4
7
29
11
5
5
7
3
3
7
29
11
5
5
7
2
3
7
29
11
5
5
7
2
3
6
29
11
5
5
6
2
3
6
29
11
5
5
6
2
3
6
28
11
5
5
6
2
3
6
28
11
5
5
6
2
2
6
23
9
5
5
6
2
2
6
21
8
5
5
6
2
2
6
21
7
5
5
6
2
2
6
21
7
5
5
6
2
2
6
21
7
5
5
6
2
2
6
21
7
5
5
6
2
2
6
21
7
5
5
6
2
2
6
21
7
5
5
6
2
2
6
21
7
5
5
6
2
2
5
21
7
5
5
6
2
2
5
21
7
5
5
6
2
2
5
21
7
5
5
6
2
2
5
21
7
5
5
6
1
2
5
21
7
5
4
5
1
2
5
21
7
5
4
5
1
2
5
21
7
5
4
5
1
2
5
20
7
5
4
5
1
2
5
20
7
5
4
5
1
2
5
20
7
5
4
5
1
2
5
20
7
5
4
5
1
2
5
20
7
5
4
5
1
2
4
20
7
5
4
5
1
2
4
20
7
5
4
4
1
2
4
18
6
5
4
4
1
2
4
18
6
5
4
4
1
2
4
18
6
4
4
4
1
2
4
18
6
5
4
4
1
2
4
16
6
5
4
4
1
2
3
14
6
5
4
4
1
2
3
14
6
5
4
3
1
2
3
14
6
5
4
3
1
2
3
14
6
5
4
3
1
2
3
13
6
5
4
3
1
2
3
13
6
5
4
3
1
2
3
13
6
5
4
3
1
2
3
13
6
5
3
3
1
2
3
13
6
4
3
2
1
2
3
13
5
4
3
2
1
2
3
13
6
4
3
2
1
2
3
13
6
4
2
2
1
2
3
13
6
4
2
1
1
2
3
13
6
4
2
1
1
3
3
13
6
4
2
2
1
3
3
12
6
4
2
1
1
3
3
11
6
4
2
2
1
3
3
10
6
4
2
2
1
3
4
9
6
4
2
2
1
3
4
9
6
4
2
1
1
3
4
9
6
4
2
1
1
3
4
9
6
3
2
2
1
3
5
9
6
3
2
2
1
3
5
9
6
3
2
2
1
4
5
9
6
3
2
2
1
4
5
8
6
3
2
1
1
4
5
8
6
3
2
1
1
4
5
8
6
3
2
1
1
4
5
8
6
3
2
1
2
4
5
8
6
3
2
1
2
4
6
8
6
3
2
1
2
5
6
8
5
3
2
1
2
5
6
8
5
3
2
1
2
5
6
8
5
3
2
1
2
5
6
8
5
3
2
1
2
5
6
7
5
3
2
1
2
5
6
8
5
4
2
2
2
5
6
7
5
3
2
2
2
5
6
7
5
3
2
2
2
6
6
7
5
3
2
2
2
6
6
7
5
3
2
2
2
6
6
7
5
3
2
2
3
7
6
7
5
3
2
2
3
8
6
7
5
3
2
2
3
8
7
7
5
3
2
2
3
8
7
7
6
3
2
2
3
8
7
7
6
4
2
2
4
9
7
6
6
4
2
2
4
9
7
6
6
3
2
2
4
9
7
6
6
3
2
2
4
10
8
7
7
4
2
2
4
11
8
8
7
5
2
2
4
11
8
7
8
5
2
2
5
11
8
8
8
5
2
2
5
12
8
10
8
5
2
2
5
15
9
11
8
5
2
3
5
18
9
12
8
5
3
3
5
18
9
11
8
5
3
3
5
19
9
11
8
5
3
3
5
20
9
11
9
5
3
3
5
22
9
11
9
5
3
3
5
22
9
11
10
6
3
3
5
22
9
11
10
6
3
3
5
23
9
11
10
6
3
3
5
23
10
12
10
6
3
3
5
23
10
12
10
6
3
3
5
23
10
13
11
6
3
4
5
24
10
13
12
7
3
4
5
25
10
13
13
7
4
4
5
25
10
14
14
7
4
4
6
26
11
14
14
7
4
4
6
26
10
14
14
8
4
4
7
26
11
15
15
8
4
4
7
27
12
15
15
8
4
4
7
27
12
15
15
8
4
4
7
27
12
14
16
8
5
4
7
29
12
15
16
8
5
4
8
31
16
15
16
8
5
4
8
36
17
15
16
9
5
5
8
36
20
16
16
9
5
5
8
36
21
16
16
9
6
5
9
38
21
17
22
9
6
5
9
41
21
17
24
9
6
6
11
41
22
17
24
9
6
6
11
42
22
17
24
9
6
6
11
42
22
17
26
9
6
6
11
42
22
17
26
9
6
7
11
42
23
17
28
9
6
7
11
42
23
17
30
9
6
7
11
42
23
17
30
9
6
7
12
42
24
17
30
9
6
7
12
42
24
18
30
9
7
7
11
42
24
18
30
9
7
8
11
43
24
18
31
10
7
8
11
43
24
18
31
10
7
8
11
43
24
18
31
10
7
8
12
43
24
18
31
10
7
8
12
43
24
18
32
10
7
8
12
45
24
18
32
10
7
8
13
46
24
18
31
10
7
8
13
47
24
18
31
10
7
8
13
47
24
18
31
9
7
9
13
47
24
18
31
9
8
9
13
48
24
18
31
9
9
9
14
48
24
17
31
10
9
9
14
47
24
16
31
10
9
9
14
46
24
16
31
10
9
9
15
47
24
16
31
10
9
9
15
47
24
17
31
10
9
9
15
47
25
18
32
10
9
9
16
48
26
18
32
10
9
10
16
48
26
18
32
10
9
10
16
48
27
18
32
10
9
10
15
48
27
19
32
9
9
10
15
48
28
18
32
10
9
11
16
48
29
18
32
10
9
11
16
48
30
17
32
10
10
11
16
50
29
18
31
10
9
11
16
50
29
17
31
9
10
11
17
50
30
17
31
10
10
11
17
51
31
17
31
10
10
12
17
51
31
17
31
10
10
12
17
51
31
16
31
9
10
12
17
51
31
17
31
9
10
12
17
51
31
17
31
9
9
12
17
52
31
17
31
10
10
12
17
52
31
17
31
10
10
12
17
51
30
17
31
10
10
12
17
47
30
17
31
10
10
12
17
47
27
16
31
10
10
12
17
47
28
15
31
10
9
12
17
46
28
15
27
10
9
12
17
44
28
15
26
10
9
11
16
45
28
16
25
9
9
11
16
45
28
16
25
10
9
11
15
45
29
16
25
9
9
12
15
45
29
16
25
9
9
12
15
45
29
16
22
9
9
12
16
44
30
16
20
9
9
13
16
44
29
16
20
9
9
13
16
45
29
16
20
9
9
13
16
45
29
16
21
9
9
12
16
45
29
16
20
9
9
12
17
45
29
16
19
9
9
12
17
45
29
16
20
9
9
12
17
45
29
16
21
9
8
13
16
45
29
16
20
9
8
13
16
45
29
16
20
9
8
13
16
43
29
16
20
9
8
13
16
43
29
16
20
9
8
13
16
42
29
16
20
9
8
13
16
41
29
16
20
10
8
13
15
41
29
16
20
9
8
13
15
40
30
16
20
9
7
13
15
41
30
16
20
9
7
12
15
40
30
16
20
9
7
14
15
40
29
16
20
9
7
14
14
40
29
15
20
9
7
14
15
40
29
16
20
9
7
14
15
39
30
14
20
9
7
15
15
37
28
14
20
9
7
16
15
37
28
14
20
9
7
16
15
37
27
13
20
9
7
16
15
37
28
13
20
9
7
15
15
36
27
13
20
8
7
15
15
38
26
13
20
8
7
15
15
38
25
13
22
8
7
15
15
35
26
13
23
8
7
15
16
35
26
13
23
8
7
15
15
35
27
13
23
8
7
15
15
34
25
13
22
8
6
15
14
34
25
13
23
8
6
15
14
34
25
13
23
8
6
15
14
33
24
13
23
8
6
16
14
33
24
14
23
8
6
16
14
32
24
14
23
8
6
16
14
31
25
14
23
8
6
16
14
31
24
14
23
8
6
16
14
31
24
13
23
8
6
16
14
32
25
14
23
8
6
16
14
32
23
14
23
7
6
16
14
31
24
14
23
7
6
16
14
30
23
14
23
7
6
16
14
30
23
13
23
7
6
16
15
30
23
13
23
7
6
16
15
30
21
13
22
7
6
15
15
30
21
13
22
7
6
15
15
30
21
13
22
7
6
15
15
30
21
14
23
7
6
15
15
30
21
13
23
7
6
15
15
30
22
13
23
7
6
15
15
30
21
13
23
7
6
15
16
29
21
13
22
7
6
15
15
28
21
13
22
7
6
16
15
28
21
13
22
7
6
15
15
28
21
13
21
7
6
15
15
29
21
13
21
7
6
15
15
29
21
13
22
7
6
15
15
30
21
13
22
7
6
15
15
29
21
13
22
7
6
15
15
30
21
12
22
7
6
15
15
30
20
12
22
7
6
15
15
30
20
12
22
7
6
15
15
31
20
12
22
7
6
15
15
33
20
13
23
7
6
15
15
32
20
14
23
7
6
14
15
33
20
14
23
7
5
13
16
33
20
14
23
7
5
13
15
33
20
14
23
7
5
13
15
32
20
14
23
7
5
13
15
33
20
14
23
7
5
12
15
33
19
14
23
7
5
12
15
33
19
14
23
7
6
12
15
33
18
14
22
7
7
13
15
33
19
14
22
7
7
14
15
32
19
14
23
7
7
14
16
32
19
15
21
6
7
14
16
32
19
15
20
6
7
14
15
34
19
15
20
6
7
14
15
34
17
15
20
6
7
14
15
34
17
15
20
6
7
14
15
34
17
15
21
7
7
14
16
34
17
15
22
7
7
15
16
34
17
16
22
7
8
15
16
34
17
16
22
7
8
15
16
34
18
15
22
7
8
15
16
35
17
16
22
7
8
15
16
35
17
16
22
7
8
15
16
34
17
16
22
7
8
15
16
34
16
15
22
7
8
15
16
33
16
15
22
7
8
15
16
33
16
15
22
7
9
15
16
34
16
15
22
7
9
16
16
34
16
15
22
7
9
15
16
33
16
15
22
7
9
15
16
34
16
15
23
7
9
15
16
33
16
15
22
7
9
15
16
33
16
15
22
7
9
15
16
34
16
15
21
7
9
15
16
34
16
15
21
7
9
16
16
34
15
15
21
7
9
15
16
34
16
15
21
7
9
15
15
34
16
15
22
7
9
15
15
34
16
15
22
7
9
15
15
34
16
15
22
7
9
15
15
33
16
15
22
6
9
16
16
33
16
15
22
7
9
16
16
32
16
15
22
7
9
15
16
32
16
15
21
7
9
15
16
32
16
15
21
7
9
15
16
33
16
16
21
7
9
15
16
33
16
15
21
7
9
15
16
33
16
15
21
7
9
16
16
32
16
15
20
7
9
16
16
30
16
15
19
7
9
16
16
30
16
14
20
7
9
16
16
30
16
14
20
7
9
16
16
30
16
14
20
7
9
16
16
30
15
13
20
7
9
15
15
31
15
13
20
7
9
16
15
30
15
13
20
7
9
16
15
30
15
13
20
7
9
16
15
30
15
12
20
7
8
16
15
30
15
12
20
8
7
15
15
30
15
13
20
8
7
14
14
29
16
12
20
8
7
14
14
29
16
12
20
8
7
14
14
29
16
12
19
8
6
13
14
27
15
12
19
8
6
13
14
27
16
12
19
8
7
13
14
26
15
11
19
7
7
13
14
26
15
11
18
6
7
13
14
25
16
11
16
6
7
12
13
26
16
10
16
6
7
12
13
26
15
10
16
7
7
12
13
26
15
10
16
7
6
12
13
25
15
10
17
7
6
12
13
25
15
9
17
7
6
12
13
25
15
9
17
7
5
11
13
25
14
9
17
7
5
11
13
25
14
9
17
7
5
11
14
26
15
11
17
7
5
11
14
24
15
11
17
7
5
11
14
24
15
11
18
7
5
10
14
24
15
11
18
7
5
11
13
24
16
11
16
7
5
11
15
26
15
11
17
7
5
11
16
28
16
11
17
7
5
11
16
28
16
11
17
7
5
11
16
28
16
11
17
7
5
10
16
27
16
11
17
7
5
10
16
27
15
11
17
7
5
10
16
28
15
11
17
7
5
10
16
28
16
11
16
7
5
10
16
28
16
11
16
7
5
10
16
28
16
11
16
7
6
10
15
28
16
11
16
7
6
10
15
28
16
10
16
7
6
11
16
29
16
10
16
7
6
11
16
29
16
10
16
7
6
11
16
28
16
10
16
7
6
11
16
28
16
10
16
7
6
11
16
28
16
10
16
7
6
10
16
28
16
10
16
7
6
11
16
28
16
10
16
7
5
11
16
28
16
10
16
7
5
11
16
27
16
11
16
7
5
11
16
27
16
11
15
7
5
11
16
27
16
11
15
7
5
11
16
27
16
10
15
7
5
10
16
27
16
10
15
7
5
10
16
27
16
10
15
7
5
10
16
27
16
10
15
7
5
10
16
27
16
10
15
7
5
10
16
26
16
10
15
7
5
10
17
26
16
10
15
7
5
10
17
26
16
10
15
7
5
11
17
26
15
10
15
7
5
11
18
27
16
10
15
7
6
13
18
27
15
11
16
7
5
13
18
27
15
11
16
7
5
13
18
27
15
11
15
7
5
13
18
27
14
10
15
7
5
13
18
27
14
10
15
7
5
13
18
27
14
11
14
7
5
13
18
27
14
10
14
7
5
13
18
27
14
10
14
6
5
13
19
27
14
10
14
6
5
13
18
28
14
10
14
6
5
13
19
29
14
10
14
6
5
14
20
29
14
11
14
6
5
14
20
28
15
9
14
6
5
14
20
28
14
9
14
6
5
14
20
29
14
9
13
6
5
14
20
29
14
9
13
6
5
13
20
29
14
9
13
6
5
13
18
28
14
9
13
6
5
13
18
25
13
9
13
6
5
13
17
25
13
9
13
6
5
13
17
25
13
10
14
7
5
13
17
26
13
10
14
7
5
14
17
27
13
10
14
6
5
13
17
26
14
10
14
6
5
13
17
26
13
10
14
6
5
14
18
26
13
10
14
6
5
14
18
28
13
10
14
6
5
14
18
28
13
10
14
6
5
13
17
28
13
10
14
6
5
13
17
27
13
10
14
6
5
13
17
26
13
10
14
6
5
13
17
27
13
10
14
6
5
13
16
27
13
10
14
6
5
13
16
27
14
10
14
6
5
13
16
27
14
10
14
6
5
12
16
27
14
10
15
6
5
13
17
27
14
10
16
6
5
14
18
27
14
10
15
5
5
14
18
27
14
10
15
5
5
14
18
27
14
9
16
6
5
14
18
27
15
9
16
6
5
14
18
27
15
10
16
6
5
14
18
27
15
10
16
6
5
14
18
27
15
10
16
6
5
14
18
27
15
10
15
6
5
14
18
28
15
10
15
6
6
14
18
28
15
10
15
6
6
14
18
28
15
10
15
6
6
14
17
27
15
10
15
6
6
14
17
27
15
10
15
5
6
12
16
27
15
9
15
5
6
12
16
27
15
10
16
5
6
12
16
27
15
10
16
5
6
12
16
27
16
10
17
5
6
12
16
27
16
10
17
6
6
12
16
27
16
10
17
6
6
12
16
27
16
10
16
6
6
12
16
27
16
10
16
6
6
12
16
27
16
10
16
5
6
12
15
27
16
10
16
6
6
11
14
26
16
10
16
5
6
11
13
26
16
10
16
5
6
11
13
25
15
9
16
5
6
11
13
25
15
9
16
5
7
11
13
25
15
9
16
5
7
11
13
24
15
9
16
5
7
11
13
24
14
9
15
5
7
11
13
24
14
9
15
5
6
11
13
24
14
9
15
5
6
11
13
23
14
9
15
5
6
11
13
23
14
8
15
5
6
11
13
22
14
8
14
5
6
11
13
22
14
8
14
5
6
11
13
21
13
8
14
5
6
11
12
21
13
8
14
5
6
10
12
21
13
8
14
5
6
10
12
18
13
8
14
5
6
10
12
18
12
8
14
5
6
10
12
18
12
7
14
5
6
10
12
18
12
7
14
5
6
10
12
18
12
7
14
5
6
10
12
17
12
7
14
5
6
10
12
17
12
7
14
5
6
10
12
16
11
7
14
5
6
10
11
16
11
7
14
5
6
10
11
15
11
7
13
5
6
9
10
15
11
7
11
5
6
7
9
15
11
7
11
5
6
7
9
15
11
7
11
5
6
7
9
15
11
7
11
4
6
7
9
15
10
7
10
4
6
7
8
15
9
7
10
3
6
7
7
15
9
7
10
3
6
7
7
14
9
8
10
3
7
6
7
14
8
9
10
3
6
6
7
13
8
9
10
4
6
6
6
13
8
9
10
4
6
7
6
11
7
9
10
4
6
6
6
11
7
10
10
4
6
6
6
10
7
10
10
4
6
6
6
10
7
11
10
4
6
7
6
10
7
11
9
4
7
9
6
10
7
12
8
4
7
9
6
9
7
12
7
4
7
9
6
9
6
13
7
3
7
9
6
9
6
13
7
3
8
9
5
7
6
13
7
4
8
10
5
7
6
14
7
4
8
10
5
5
6
15
8
4
8
9
5
5
6
16
9
5
8
10
5
5
6
17
9
5
8
10
5
5
6
17
9
5
8
10
4
5
6
17
9
5
8
10
4
5
6
17
9
5
8
9
4
5
6
17
9
5
8
9
4
5
6
19
10
5
8
9
4
5
6
20
10
5
8
9
4
5
6
20
10
5
9
10
4
4
6
20
10
5
10
10
4
5
6
22
10
5
10
11
4
6
7
23
10
5
10
11
4
6
7
23
10
5
10
11
4
6
7
23
10
5
10
11
4
6
8
28
11
5
10
12
4
6
8
31
11
5
11
12
4
6
8
32
11
6
11
12
4
6
8
32
11
6
11
12
4
6
8
32
11
6
11
12
4
6
8
32
11
6
11
12
4
6
8
33
12
6
11
12
4
6
8
34
12
6
11
12
4
6
9
36
12
6
11
12
4
7
9
37
12
6
11
12
4
7
9
37
12
6
11
12
4
7
10
37
12
6
11
12
4
6
10
37
12
7
11
12
4
6
10
37
12
7
11
12
4
6
10
37
13
7
11
12
4
6
10
38
13
7
11
12
4
7
10
38
13
7
11
12
4
7
10
38
13
7
11
12
4
7
10
38
13
7
11
12
4
7
10
38
13
7
11
12
4
6
10
38
13
7
11
12
4
6
10
37
13
7
11
12
4
6
10
38
13
7
11
12
4
6
10
38
13
7
11
12
4
6
10
38
13
7
11
12
4
6
10
38
13
7
11
12
4
6
10
38
13
7
11
12
4
6
10
38
13
7
11
11
4
6
10
38
13
7
11
10
4
6
10
38
13
7
10
9
4
6
10
39
13
7
10
9
3
6
10
38
13
7
10
9
3
6
10
39
13
7
9
9
3
6
10
39
13
7
9
9
3
6
9
38
13
6
11
9
3
6
9
38
13
6
11
9
3
5
9
37
12
6
11
9
3
5
9
37
12
6
11
9
3
5
9
38
12
6
12
9
3
5
9
38
13
6
12
9
3
5
9
38
13
6
12
9
3
5
9
38
12
6
12
9
3
5
9
37
12
6
12
9
3
5
9
37
12
6
12
9
3
5
9
37
12
6
11
8
2
5
9
37
12
6
11
8
2
5
8
36
12
6
11
7
2
4
8
36
11
6
11
7
2
3
7
36
11
5
11
7
2
3
7
36
11
5
10
6
2
3
7
32
11
5
10
6
2
3
7
29
11
5
10
6
2
3
7
29
11
5
10
6
2
3
7
29
11
5
10
5
2
3
7
29
11
5
10
5
2
3
7
29
11
5
10
5
2
3
7
28
10
4
10
5
2
3
7
27
11
4
10
5
2
2
5
25
10
4
9
4
1
2
5
24
10
4
9
4
1
2
5
24
10
4
9
4
1
2
5
24
10
4
9
4
1
2
5
24
10
4
9
4
1
2
5
23
10
4
9
4
1
2
4
24
10
4
9
4
1
2
4
23
9
4
9
4
1
2
4
23
9
3
9
4
1
2
4
23
9
3
9
4
1
2
4
23
9
3
9
4
1
1
4
23
9
3
9
4
1
1
4
23
9
3
9
4
1
1
4
23
9
3
9
3
1
1
4
23
9
3
9
3
1
2
4
23
9
3
9
3
1
2
4
22
9
3
9
4
1
2
3
22
9
3
9
4
1
1
3
21
8
3
9
4
1
1
3
22
8
3
9
4
1
2
3
22
8
3
9
3
1
2
4
22
8
3
9
3
1
2
4
21
8
3
9
3
1
2
4
21
8
3
9
3
1
2
4
21
8
3
9
3
1
2
4
21
8
3
9
3
1
2
4
21
8
3
7
3
1
2
4
21
8
3
6
3
1
2
4
21
8
3
5
3
1
2
4
20
8
3
5
3
1
2
4
20
7
3
5
3
1
2
4
20
7
3
4
3
1
2
4
20
7
3
4
3
1
2
4
20
7
3
4
3
1
2
4
20
7
3
3
3
1
2
4
19
7
3
3
3
1
1
3
18
7
3
3
3
1
2
3
17
7
3
3
3
1
2
3
18
7
3
3
3
1
2
3
18
7
3
3
3
1
2
3
18
7
3
3
3
1
2
3
18
7
3
3
3
1
2
3
18
7
3
3
3
1
2
3
18
7
3
3
3
1
2
3
18
6
3
3
3
1
2
3
18
6
3
3
3
1
2
3
18
6
3
3
3
1
2
3
17
6
3
3
3
1
2
3
18
6
3
3
3
1
2
3
16
5
3
3
3
1
2
3
16
5
3
3
3
1
2
3
17
5
3
3
3
1