-0.6565508685287058
0.09287568234889011
0.7319239496024362
-0.6565508685287058
0.09287568234889011
0.7319239496024362
-0.6565508685287058
0.09287568234889011
0.7319239496024362
-0.6565508685287058
0.09287568234889011
0.7319239496024362
-0.6529240800799898
0.09382125230430584
0.7309032764333516
-0.6529240800799898
0.09382125230430584
0.7309032764333516
-0.6529240800799898
0.09382125230430584
0.7309032764333516
-0.6529240800799898
0.09382125230430584
0.7309032764333516
-0.6487757797476323
0.09245709652785374
0.7316982238874817
-0.6487757797476323
0.09245709652785374
0.7316982238874817
-0.6487757797476323
0.09245709652785374
0.7316982238874817
-0.6487757797476323
0.09245709652785374
0.7316982238874817
-0.6451202505772758
0.09058326293614657
0.7332062265108168
-0.6451202505772758
0.09058326293614657
0.7332062265108168
-0.6451202505772758
0.09058326293614657
0.7332062265108168
-0.6451202505772758
0.09058326293614657
0.7332062265108168
-0.6430753539228284
0.08989303643362856
0.7339451508811379
-0.6430753539228284
0.08989303643362856
0.7339451508811379
-0.6430753539228284
0.08989303643362856
0.7339451508811379
-0.6430753539228284
0.08989303643362856
0.7339451508811379
-0.6427212508455801
0.08892401464354888
0.7335445834477281
-0.6427212508455801
0.08892401464354888
0.7335445834477281
-0.6427212508455801
0.08892401464354888
0.7335445834477281
-0.6427212508455801
0.08892401464354888
0.7335445834477281
-0.6446804611363035
0.08764020602103346
0.7331364256740243
-0.6446804611363035
0.08764020602103346
0.7331364256740243
-0.6451637234610188
0.08613874374586414
0.7334243792438744
-0.6451637234610188
0.08613874374586414
0.7334243792438744
-0.6451637234610188
0.08613874374586414
0.7334243792438744
-0.6451637234610188
0.08613874374586414
0.7334243792438744
-0.6442676988949039
0.08502356643029804
0.7343899559966318
-0.6442676988949039
0.08502356643029804
0.7343899559966318
-0.6442676988949039
0.08502356643029804
0.7343899559966318
-0.6442676988949039
0.08502356643029804
0.7343899559966318
-0.6449498953990188
0.08377080464407437
0.7355185204501077
-0.6449498953990188
0.08377080464407437
0.7355185204501077
-0.6449498953990188
0.08377080464407437
0.7355185204501077
-0.6449498953990188
0.08377080464407437
0.7355185204501077
-0.6466668301911793
0.08158969665173871
0.7363624947602678
-0.6466668301911793
0.08158969665173871
0.7363624947602678
-0.6466668301911793
0.08158969665173871
0.7363624947602678
-0.6466668301911793
0.08158969665173871
0.7363624947602678
-0.6496277953198029
0.07934477868889246
0.7367948190366095
-0.6496277953198029
0.07934477868889246
0.7367948190366095
-0.6496277953198029
0.07934477868889246
0.7367948190366095
-0.6496277953198029
0.07934477868889246
0.7367948190366095
-0.6517646258966202
0.07711349704164985
0.7370492809084251
-0.6517646258966202
0.07711349704164985
0.7370492809084251
-0.6517646258966202
0.07711349704164985
0.7370492809084251
-0.6517646258966202
0.07711349704164985
0.7370492809084251
-0.652724295401027
0.07467883840017674
0.7376417958058181
-0.652724295401027
0.07467883840017674
0.7376417958058181
-0.652724295401027
0.07467883840017674
0.7376417958058181
-0.652724295401027
0.07467883840017674
0.7376417958058181
-0.6543885881432935
0.0725580774878676
0.73831746766077
-0.6543885881432935
0.0725580774878676
0.73831746766077
-0.6543885881432935
0.0725580774878676
0.73831746766077
-0.6543885881432935
0.0725580774878676
0.73831746766077
-0.6542079370014451
0.07011494886686939
0.7398011512957923
-0.6542079370014451
0.07011494886686939
0.7398011512957923
-0.6542079370014451
0.07011494886686939
0.7398011512957923
-0.6542079370014451
0.07011494886686939
0.7398011512957923
-0.6534035920460349
0.06797388720569224
0.7416838710515524
-0.6534035920460349
0.06797388720569224
0.7416838710515524
-0.6534035920460349
0.06797388720569224
0.7416838710515524
-0.6534035920460349
0.06797388720569224
0.7416838710515524
-0.6524541413370559
0.0658986281615729
0.7435473029391908
-0.6524541413370559
0.0658986281615729
0.7435473029391908
-0.6524541413370559
0.0658986281615729
0.7435473029391908
-0.6524541413370559
0.0658986281615729
0.7435473029391908
-0.6519276112865282
0.06426263228131539
0.7449571562880413
-0.6519276112865282
0.06426263228131539
0.7449571562880413
-0.6519276112865282
0.06426263228131539
0.7449571562880413
-0.6519276112865282
0.06426263228131539
0.7449571562880413
-0.6521007678005242
0.06227306489538221
0.7457920306817419
-0.6521007678005242
0.06227306489538221
0.7457920306817419
-0.6521007678005242
0.06227306489538221
0.7457920306817419
-0.6521007678005242
0.06227306489538221
0.7457920306817419
-0.6528929943555142
0.06031039509599296
0.7463582358420076
-0.6528929943555142
0.06031039509599296
0.7463582358420076
-0.6528929943555142
0.06031039509599296
0.7463582358420076
-0.6528929943555142
0.06031039509599296
0.7463582358420076
-0.6535241241002554
0.0591981040694927
0.7468107444772224
-0.6535241241002554
0.0591981040694927
0.7468107444772224
-0.6535241241002554
0.0591981040694927
0.7468107444772224
-0.6535241241002554
0.0591981040694927
0.7468107444772224
-0.6533211655995521
0.058508734364590864
0.7474581347178985
-0.6533211655995521
0.058508734364590864
0.7474581347178985
-0.6533211655995521
0.058508734364590864
0.7474581347178985
-0.6533211655995521
0.058508734364590864
0.7474581347178985
-0.6527065436002841
0.05778382870371016
0.7484409880332508
-0.6527065436002841
0.05778382870371016
0.7484409880332508
-0.6527065436002841
0.05778382870371016
0.7484409880332508
-0.6527065436002841
0.05778382870371016
0.7484409880332508
-0.651568586726926
0.057503958949523266
0.748546890781852
-0.651568586726926
0.057503958949523266
0.748546890781852
-0.651568586726926
0.057503958949523266
0.748546890781852
-0.651568586726926
0.057503958949523266
0.748546890781852
-0.6516611293068063
0.057910396740931014
0.7484065001306025
-0.6516611293068063
0.057910396740931014
0.7484065001306025
-0.6516611293068063
0.057910396740931014
0.7484065001306025
-0.6516611293068063
0.057910396740931014
0.7484065001306025
-0.6534101822278382
0.05834305379974647
0.7480379083865288
-0.6534101822278382
0.05834305379974647
0.7480379083865288
-0.6534101822278382
0.05834305379974647
0.7480379083865288
-0.6534101822278382
0.05834305379974647
0.7480379083865288
-0.6549355139098227
0.05917405924187463
0.7470849148219213
-0.6549355139098227
0.05917405924187463
0.7470849148219213
-0.6549355139098227
0.05917405924187463
0.7470849148219213
-0.6549355139098227
0.05917405924187463
0.7470849148219213
-0.6549224093720426
0.05978075312604783
0.7464720483059293
-0.6549224093720426
0.05978075312604783
0.7464720483059293
-0.6549224093720426
0.05978075312604783
0.7464720483059293
-0.6549224093720426
0.05978075312604783
0.7464720483059293
-0.6546168466214738
0.06039596388911517
0.7458179180632661
-0.6546168466214738
0.06039596388911517
0.7458179180632661
-0.6546168466214738
0.06039596388911517
0.7458179180632661
-0.6546168466214738
0.06039596388911517
0.7458179180632661
-0.6558137061481231
0.060354384536410274
0.7451221688175464
-0.6558137061481231
0.060354384536410274
0.7451221688175464
-0.6558137061481231
0.060354384536410274
0.7451221688175464
-0.6558137061481231
0.060354384536410274
0.7451221688175464
-0.6576631918061299
0.06035511509647437
0.7441985129268625
-0.6576631918061299
0.06035511509647437
0.7441985129268625
-0.6576631918061299
0.06035511509647437
0.7441985129268625
-0.6576631918061299
0.06035511509647437
0.7441985129268625
-0.6589188670866988
0.060256611034308925
0.7436875295422578
-0.6589188670866988
0.060256611034308925
0.7436875295422578
-0.6589188670866988
0.060256611034308925
0.7436875295422578
-0.6589188670866988
0.060256611034308925
0.7436875295422578
-0.6599462114695118
0.06007459447847221
0.7435720690931147
-0.6599462114695118
0.06007459447847221
0.7435720690931147
-0.6599462114695118
0.06007459447847221
0.7435720690931147
-0.6599462114695118
0.06007459447847221
0.7435720690931147
-0.660461244492048
0.05949044116141976
0.7436835236135679
-0.660461244492048
0.05949044116141976
0.7436835236135679
-0.660461244492048
0.05949044116141976
0.7436835236135679
-0.660461244492048
0.05949044116141976
0.7436835236135679
-0.6604734556473717
0.05888541529050681
0.7442981492024566
-0.6604734556473717
0.05888541529050681
0.7442981492024566
-0.6604734556473717
0.05888541529050681
0.7442981492024566
-0.6604734556473717
0.05888541529050681
0.7442981492024566
-0.6595019144925679
0.058594345527501326
0.7445730296662969
-0.6595019144925679
0.058594345527501326
0.7445730296662969
-0.6595019144925679
0.058594345527501326
0.7445730296662969
-0.6595019144925679
0.058594345527501326
0.7445730296662969
-0.6584627646691794
0.05806556777080067
0.7446434134567561
-0.6584627646691794
0.05806556777080067
0.7446434134567561
-0.6584627646691794
0.05806556777080067
0.7446434134567561
-0.6584627646691794
0.05806556777080067
0.7446434134567561
-0.6582263914525655
0.057689863386780484
0.7450189403742545
-0.6582263914525655
0.057689863386780484
0.7450189403742545
-0.6582263914525655
0.057689863386780484
0.7450189403742545
-0.6582263914525655
0.057689863386780484
0.7450189403742545
-0.657946711621278
0.05709267328536422
0.7455910996040395
-0.657946711621278
0.05709267328536422
0.7455910996040395
-0.657946711621278
0.05709267328536422
0.7455910996040395
-0.657946711621278
0.05709267328536422
0.7455910996040395
-0.6579017406158111
0.05663036692112128
0.7462774107106409
-0.6579017406158111
0.05663036692112128
0.7462774107106409
-0.6579017406158111
0.05663036692112128
0.7462774107106409
-0.6579017406158111
0.05663036692112128
0.7462774107106409
-0.6581716512132338
0.05678284509904266
0.7464328606763138
-0.6581716512132338
0.05678284509904266
0.7464328606763138
-0.6581716512132338
0.05678284509904266
0.7464328606763138
-0.6581716512132338
0.05678284509904266
0.7464328606763138
-0.658763683366584
0.05672930221128777
0.7467682325719878
-0.658763683366584
0.05672930221128777
0.7467682325719878
-0.658763683366584
0.05672930221128777
0.7467682325719878
-0.658763683366584
0.05672930221128777
0.7467682325719878
-0.6593495290084332
0.05671268851789482
0.7468518384031738
-0.6593495290084332
0.05671268851789482
0.7468518384031738
-0.6593495290084332
0.05671268851789482
0.7468518384031738
-0.6593495290084332
0.05671268851789482
0.7468518384031738
-0.6600447548634132
0.056914635806827575
0.7474324821430293
-0.6600447548634132
0.056914635806827575
0.7474324821430293
-0.6600447548634132
0.056914635806827575
0.7474324821430293
-0.6600447548634132
0.056914635806827575
0.7474324821430293
-0.6606711367192211
0.05749977108324392
0.7479552218096335
-0.6606711367192211
0.05749977108324392
0.7479552218096335
-0.6606711367192211
0.05749977108324392
0.7479552218096335
-0.6606711367192211
0.05749977108324392
0.7479552218096335
-0.6605877437121166
0.05756402115605069
0.7486310089488499
-0.6605877437121166
0.05756402115605069
0.7486310089488499
-0.6605877437121166
0.05756402115605069
0.7486310089488499
-0.6605877437121166
0.05756402115605069
0.7486310089488499
-0.6605223612776167
0.05768140066464231
0.7494560832809241
-0.6605223612776167
0.05768140066464231
0.7494560832809241
-0.6605223612776167
0.05768140066464231
0.7494560832809241
-0.6605223612776167
0.05768140066464231
0.7494560832809241
-0.6603799305514522
0.057888955785119385
0.7502042982253454
-0.6603799305514522
0.057888955785119385
0.7502042982253454
-0.6603799305514522
0.057888955785119385
0.7502042982253454
-0.6603799305514522
0.057888955785119385
0.7502042982253454
-0.6597771185847454
0.058117470058978514
0.7507436112927958
-0.6597771185847454
0.058117470058978514
0.7507436112927958
-0.6597771185847454
0.058117470058978514
0.7507436112927958
-0.6597771185847454
0.058117470058978514
0.7507436112927958
-0.6595674787454764
0.058086874119132485
0.751287826435916
-0.6595674787454764
0.058086874119132485
0.751287826435916
-0.6595674787454764
0.058086874119132485
0.751287826435916
-0.6595674787454764
0.058086874119132485
0.751287826435916
-0.6592246681176765
0.05775790914091823
0.7519384587745379
-0.6592246681176765
0.05775790914091823
0.7519384587745379
-0.6592246681176765
0.05775790914091823
0.7519384587745379
-0.6592246681176765
0.05775790914091823
0.7519384587745379
-0.6586970931904386
0.05747754255650133
0.7525296277084847
-0.6586970931904386
0.05747754255650133
0.7525296277084847
-0.6586970931904386
0.05747754255650133
0.7525296277084847
-0.6586970931904386
0.05747754255650133
0.7525296277084847
-0.6586970931904386
0.05747754255650133
0.7525296277084847
-0.6586970931904386
0.05747754255650133
0.7525296277084847
-0.6586970931904386
0.05747754255650133
0.7525296277084847
-0.6586970931904386
0.05747754255650133
0.7525296277084847
-0.6594558680147153
0.05723530391850881
0.7525172653766014
-0.6594558680147153
0.05723530391850881
0.7525172653766014
-0.6594558680147153
0.05723530391850881
0.7525172653766014
-0.6594558680147153
0.05723530391850881
0.7525172653766014
-0.6601435476311897
0.05729841665840199
0.752331679338908
-0.6601435476311897
0.05729841665840199
0.752331679338908
-0.6601435476311897
0.05729841665840199
0.752331679338908
-0.6601435476311897
0.05729841665840199
0.752331679338908
-0.6602515023021612
0.05733976627852826
0.7523140434579347
-0.6602515023021612
0.05733976627852826
0.7523140434579347
-0.6602515023021612
0.05733976627852826
0.7523140434579347
-0.6602515023021612
0.05733976627852826
0.7523140434579347
-0.6598423321053177
0.05814046218517048
0.7526992504799663
-0.6598423321053177
0.05814046218517048
0.7526992504799663
-0.6598423321053177
0.05814046218517048
0.7526992504799663
-0.6598423321053177
0.05814046218517048
0.7526992504799663
-0.6597419770325055
0.05848024387180834
0.7529934038626205
-0.6597419770325055
0.05848024387180834
0.7529934038626205
-0.6597419770325055
0.05848024387180834
0.7529934038626205
-0.6597419770325055
0.05848024387180834
0.7529934038626205
-0.6594908011935583
0.05855717274216869
0.7535021041727209
-0.6594908011935583
0.05855717274216869
0.7535021041727209
-0.6594908011935583
0.05855717274216869
0.7535021041727209
-0.6594908011935583
0.05855717274216869
0.7535021041727209
-0.6588031778248561
0.05858211146114097
0.753945449195301
-0.6588031778248561
0.05858211146114097
0.753945449195301
-0.6588031778248561
0.05858211146114097
0.753945449195301
-0.6588031778248561
0.05858211146114097
0.753945449195301
-0.6582933480676365
0.05826567850550851
0.7544287844865574
-0.6582933480676365
0.05826567850550851
0.7544287844865574
-0.6582933480676365
0.05826567850550851
0.7544287844865574
-0.6582933480676365
0.05826567850550851
0.7544287844865574
-0.6578250771734625
0.05775277544693428
0.7546899698275621
-0.6578250771734625
0.05775277544693428
0.7546899698275621
-0.6578250771734625
0.05775277544693428
0.7546899698275621
-0.6578250771734625
0.05775277544693428
0.7546899698275621
-0.657398948576614
0.05730874896117237
0.7555013256513681
-0.657398948576614
0.05730874896117237
0.7555013256513681
-0.657398948576614
0.05730874896117237
0.7555013256513681
-0.657398948576614
0.05730874896117237
0.7555013256513681
-0.6566973350704741
0.05650646345361779
0.756394479394032
-0.6566973350704741
0.05650646345361779
0.756394479394032
-0.6566973350704741
0.05650646345361779
0.756394479394032
-0.6566973350704741
0.05650646345361779
0.756394479394032
-0.6567071868533694
0.05551960964595564
0.7567306095037175
-0.6567071868533694
0.05551960964595564
0.7567306095037175
-0.6567071868533694
0.05551960964595564
0.7567306095037175
-0.6567071868533694
0.05551960964595564
0.7567306095037175
-0.6572083462763075
0.05488572764841963
0.7566924978714056
-0.6572083462763075
0.05488572764841963
0.7566924978714056
-0.6572083462763075
0.05488572764841963
0.7566924978714056
-0.6572083462763075
0.05488572764841963
0.7566924978714056
-0.6570997751751192
0.05442633531094658
0.7566843334194266
-0.6570997751751192
0.05442633531094658
0.7566843334194266
-0.6570997751751192
0.05442633531094658
0.7566843334194266
-0.6570997751751192
0.05442633531094658
0.7566843334194266
-0.6576677145450247
0.05435957317777794
0.7566191945942135
-0.6576677145450247
0.05435957317777794
0.7566191945942135
-0.6576677145450247
0.05435957317777794
0.7566191945942135
-0.6576677145450247
0.05435957317777794
0.7566191945942135
-0.6588571711644258
0.054296448262591016
0.7566803067139751
-0.6588571711644258
0.054296448262591016
0.7566803067139751
-0.6588571711644258
0.054296448262591016
0.7566803067139751
-0.6588571711644258
0.054296448262591016
0.7566803067139751
-0.6588571711644258
0.054296448262591016
0.7566803067139751
-0.6588571711644258
0.054296448262591016
0.7566803067139751
-0.6588571711644258
0.054296448262591016
0.7566803067139751
-0.6588571711644258
0.054296448262591016
0.7566803067139751
-0.6588571711644258
0.054296448262591016
0.7566803067139751
-0.6588571711644258
0.054296448262591016
0.7566803067139751
-0.6588571711644258
0.054296448262591016
0.7566803067139751
-0.6588571711644258
0.054296448262591016
0.7566803067139751
-0.6593488419701594
0.054497021350816466
0.7570527317788257
-0.6593488419701594
0.054497021350816466
0.7570527317788257
-0.6593488419701594
0.054497021350816466
0.7570527317788257
-0.6593488419701594
0.054497021350816466
0.7570527317788257
-0.6604439728018254
0.05464867625817411
0.7574016300715819
-0.6604439728018254
0.05464867625817411
0.7574016300715819
-0.6604439728018254
0.05464867625817411
0.7574016300715819
-0.6604439728018254
0.05464867625817411
0.7574016300715819
-0.6604615567605163
0.05461307855176233
0.7572938175147865
-0.6604615567605163
0.05461307855176233
0.7572938175147865
-0.6604615567605163
0.05461307855176233
0.7572938175147865
-0.6604615567605163
0.05461307855176233
0.7572938175147865
-0.6602183343095627
0.05507092579729827
0.758078306835936
-0.6602183343095627
0.05507092579729827
0.758078306835936
-0.6602183343095627
0.05507092579729827
0.758078306835936
-0.6602183343095627
0.05507092579729827
0.758078306835936
-0.659347251880493
0.055737927859227016
0.7590005825172661
-0.659347251880493
0.055737927859227016
0.7590005825172661
-0.659347251880493
0.055737927859227016
0.7590005825172661
-0.659347251880493
0.055737927859227016
0.7590005825172661
-0.6593895504464091
0.05580753959276295
0.7595509963460197
-0.6593895504464091
0.05580753959276295
0.7595509963460197
-0.6593895504464091
0.05580753959276295
0.7595509963460197
-0.6593895504464091
0.05580753959276295
0.7595509963460197
-0.6593895504464091
0.05580753959276295
0.7595509963460197
-0.6593895504464091
0.05580753959276295
0.7595509963460197
-0.6593895504464091
0.05580753959276295
0.7595509963460197
-0.6593895504464091
0.05580753959276295
0.7595509963460197
-0.6590971192859222
0.05607976567534661
0.7602813018986058
-0.6590971192859222
0.05607976567534661
0.7602813018986058
-0.6590971192859222
0.05607976567534661
0.7602813018986058
-0.6590971192859222
0.05607976567534661
0.7602813018986058
-0.6582847341397278
0.05627294489040555
0.7613639751033112
-0.6582847341397278
0.05627294489040555
0.7613639751033112
-0.6582847341397278
0.05627294489040555
0.7613639751033112
-0.6582847341397278
0.05627294489040555
0.7613639751033112
-0.6576933448236815
0.0561055509329084
0.7627802235101775
-0.6576933448236815
0.0561055509329084
0.7627802235101775
-0.6576933448236815
0.0561055509329084
0.7627802235101775
-0.6576933448236815
0.0561055509329084
0.7627802235101775
-0.6568393881927149
0.05616337747031035
0.764316809335676
-0.6568393881927149
0.05616337747031035
0.764316809335676
-0.6568393881927149
0.05616337747031035
0.764316809335676
-0.6568393881927149
0.05616337747031035
0.764316809335676
-0.6564922848813372
0.05680458759022096
0.7661437571163826
-0.6564922848813372
0.05680458759022096
0.7661437571163826
-0.6564922848813372
0.05680458759022096
0.7661437571163826
-0.6564922848813372
0.05680458759022096
0.7661437571163826
-0.6558261889413304
0.05761092380513526
0.768043774695353
-0.6558261889413304
0.05761092380513526
0.768043774695353
-0.6558261889413304
0.05761092380513526
0.768043774695353
-0.6558261889413304
0.05761092380513526
0.768043774695353
-0.6546953494535166
0.0589390924438518
0.7700198467351416
-0.6546953494535166
0.0589390924438518
0.7700198467351416
-0.6546953494535166
0.0589390924438518
0.7700198467351416
-0.6546953494535166
0.0589390924438518
0.7700198467351416
-0.6530192926588387
0.060965086288377
0.7722544442969297
-0.6530192926588387
0.060965086288377
0.7722544442969297
-0.6530192926588387
0.060965086288377
0.7722544442969297
-0.6530192926588387
0.060965086288377
0.7722544442969297
-0.6500812646300297
0.06401756351505347
0.7745647240256196
-0.6500812646300297
0.06401756351505347
0.7745647240256196
-0.6500812646300297
0.06401756351505347
0.7745647240256196
-0.6500812646300297
0.06401756351505347
0.7745647240256196
-0.646570661073814
0.06765981864149202
0.7764864336555768
-0.646570661073814
0.06765981864149202
0.7764864336555768
-0.646570661073814
0.06765981864149202
0.7764864336555768
-0.646570661073814
0.06765981864149202
0.7764864336555768
-0.6434229748901776
0.07144668418752456
0.7780507264755878
-0.6434229748901776
0.07144668418752456
0.7780507264755878
-0.6434229748901776
0.07144668418752456
0.7780507264755878
-0.6434229748901776
0.07144668418752456
0.7780507264755878
-0.6396796038345709
0.0753225131927254
0.7798074336973166
-0.6396796038345709
0.0753225131927254
0.7798074336973166
-0.6396796038345709
0.0753225131927254
0.7798074336973166
-0.6396796038345709
0.0753225131927254
0.7798074336973166
-0.635735559021853
0.07940954643683197
0.7820395011997553
-0.635735559021853
0.07940954643683197
0.7820395011997553
-0.635735559021853
0.07940954643683197
0.7820395011997553
-0.635735559021853
0.07940954643683197
0.7820395011997553
-0.6318001799842736
0.0834544866942174
0.784180302111544
-0.6318001799842736
0.0834544866942174
0.784180302111544
-0.6318001799842736
0.0834544866942174
0.784180302111544
-0.6318001799842736
0.0834544866942174
0.784180302111544
-0.6289860748726369
0.08690439570423245
0.785243692886977
-0.6289860748726369
0.08690439570423245
0.785243692886977
-0.6289860748726369
0.08690439570423245
0.785243692886977
-0.6289860748726369
0.08690439570423245
0.785243692886977
-0.6253255209301941
0.09011578372219253
0.7858273161545895
-0.6253255209301941
0.09011578372219253
0.7858273161545895
-0.6253255209301941
0.09011578372219253
0.7858273161545895
-0.6253255209301941
0.09011578372219253
0.7858273161545895
-0.6208331630109423
0.09336342673580757
0.7859978624331444
-0.6208331630109423
0.09336342673580757
0.7859978624331444
-0.6208331630109423
0.09336342673580757
0.7859978624331444
-0.6208331630109423
0.09336342673580757
0.7859978624331444
-0.6191953009868932
0.09699260355336005
0.7853390951390459
-0.6191953009868932
0.09699260355336005
0.7853390951390459
-0.6191953009868932
0.09699260355336005
0.7853390951390459
-0.6191953009868932
0.09699260355336005
0.7853390951390459
-0.6192553913931313
0.10048162540747063
0.7845546288773825
-0.6192553913931313
0.10048162540747063
0.7845546288773825
-0.6192553913931313
0.10048162540747063
0.7845546288773825
-0.6192553913931313
0.10048162540747063
0.7845546288773825
-0.6218992631448768
0.10406886739894639
0.7832558922600311
-0.6218992631448768
0.10406886739894639
0.7832558922600311
-0.6218992631448768
0.10406886739894639
0.7832558922600311
-0.6218992631448768
0.10406886739894639
0.7832558922600311
-0.6271381850608453
0.10752663955546543
0.779998247595526
-0.6271381850608453
0.10752663955546543
0.779998247595526
-0.6271381850608453
0.10752663955546543
0.779998247595526
-0.6271381850608453
0.10752663955546543
0.779998247595526
-0.6335219834940764
0.11084813261492929
0.7745968273271306
-0.6335219834940764
0.11084813261492929
0.7745968273271306
-0.6335219834940764
0.11084813261492929
0.7745968273271306
-0.6335219834940764
0.11084813261492929
0.7745968273271306
-0.6368206133048797
0.11374469832305772
0.7686374693540786
-0.6368206133048797
0.11374469832305772
0.7686374693540786
-0.6368206133048797
0.11374469832305772
0.7686374693540786
-0.6368206133048797
0.11374469832305772
0.7686374693540786
-0.6417850380279893
0.11599265862621258
0.7608898105688653
-0.6417850380279893
0.11599265862621258
0.7608898105688653
-0.6417850380279893
0.11599265862621258
0.7608898105688653
-0.6417850380279893
0.11599265862621258
0.7608898105688653
-0.6534614259226506
0.12132674824198406
0.7491974012713154
-0.6534614259226506
0.12132674824198406
0.7491974012713154
-0.6534614259226506
0.12132674824198406
0.7491974012713154
-0.6534614259226506
0.12132674824198406
0.7491974012713154
-0.6971567967396197
0.1222950354570741
0.7434086487172826
-0.6971567967396197
0.1222950354570741
0.7434086487172826
-0.6971567967396197
0.1222950354570741
0.7434086487172826
-0.6971567967396197
0.1222950354570741
0.7434086487172826
-0.6984932567679847
0.12994767356817813
0.7589499978180405
-0.6984932567679847
0.12994767356817813
0.7589499978180405
-0.6984932567679847
0.12994767356817813
0.7589499978180405
-0.6984932567679847
0.12994767356817813
0.7589499978180405
-0.6961756081037013
0.12691592348733807
0.8118311696391727
-0.6961756081037013
0.12691592348733807
0.8118311696391727
-0.6961756081037013
0.12691592348733807
0.8118311696391727
-0.6961756081037013
0.12691592348733807
0.8118311696391727
-0.656988782161925
0.10695376490822427
0.8309185924167377
-0.656988782161925
0.10695376490822427
0.8309185924167377
-0.656988782161925
0.10695376490822427
0.8309185924167377
-0.656988782161925
0.10695376490822427
0.8309185924167377
-0.6341340307859948
0.09558886339435747
0.8036247116754348
-0.6341340307859948
0.09558886339435747
0.8036247116754348
-0.6341340307859948
0.09558886339435747
0.8036247116754348
-0.6341340307859948
0.09558886339435747
0.8036247116754348
-0.6193825471853088
0.08951978277974652
0.7690607850219442
-0.6193825471853088
0.08951978277974652
0.7690607850219442
-0.6193825471853088
0.08951978277974652
0.7690607850219442
-0.6193825471853088
0.08951978277974652
0.7690607850219442
-0.5835143991777293
0.0797501460584512
0.747968796829088
-0.5835143991777293
0.0797501460584512
0.747968796829088
-0.5835143991777293
0.0797501460584512
0.747968796829088
-0.5835143991777293
0.0797501460584512
0.747968796829088
-0.5803181145967748
0.07680586767817672
0.7422118673771484
-0.5803181145967748
0.07680586767817672
0.7422118673771484
-0.5803181145967748
0.07680586767817672
0.7422118673771484
-0.5803181145967748
0.07680586767817672
0.7422118673771484
-0.6094713935980545
0.07246826080538041
0.7368073124976787
-0.6094713935980545
0.07246826080538041
0.7368073124976787
-0.6094713935980545
0.07246826080538041
0.7368073124976787
-0.6094713935980545
0.07246826080538041
0.7368073124976787
-0.6461162523901705
0.06358344356488232
0.7338125310291989
-0.6461162523901705
0.06358344356488232
0.7338125310291989
-0.6461162523901705
0.06358344356488232
0.7338125310291989
-0.6461162523901705
0.06358344356488232
0.7338125310291989
-0.6662280993596794
0.062078993151154276
0.735183675364576
-0.6662280993596794
0.062078993151154276
0.735183675364576
-0.6662280993596794
0.062078993151154276
0.735183675364576
-0.6662280993596794
0.062078993151154276
0.735183675364576
-0.6736410202606421
0.05421864815061183
0.735152352145075
-0.6736410202606421
0.05421864815061183
0.735152352145075
-0.6736410202606421
0.05421864815061183
0.735152352145075
-0.6736410202606421
0.05421864815061183
0.735152352145075
-0.6580865445567395
0.041641866682434046
0.734789620191494
-0.6580865445567395
0.041641866682434046
0.734789620191494
-0.6580865445567395
0.041641866682434046
0.734789620191494
-0.6580865445567395
0.041641866682434046
0.734789620191494
-0.6401469693539363
0.03171759627963568
0.7347113101421414
-0.6401469693539363
0.03171759627963568
0.7347113101421414
-0.6401469693539363
0.03171759627963568
0.7347113101421414
-0.6401469693539363
0.03171759627963568
0.7347113101421414
-0.6338542241023234
0.02453760876622937
0.7344992891968014
-0.6338542241023234
0.02453760876622937
0.7344992891968014
-0.6338542241023234
0.02453760876622937
0.7344992891968014
-0.6338542241023234
0.02453760876622937
0.7344992891968014
-0.6395132095679985
0.02175198980460338
0.7348261732298825
-0.6395132095679985
0.02175198980460338
0.7348261732298825
-0.6395132095679985
0.02175198980460338
0.7348261732298825
-0.6395132095679985
0.02175198980460338
0.7348261732298825
-0.6468613399909511
0.02168474701586917
0.734760230524683
-0.6468613399909511
0.02168474701586917
0.734760230524683
-0.6468613399909511
0.02168474701586917
0.734760230524683
-0.6468613399909511
0.02168474701586917
0.734760230524683
-0.6476198532678932
0.021921634550912592
0.7325647237431112
-0.6476198532678932
0.021921634550912592
0.7325647237431112
-0.6476198532678932
0.021921634550912592
0.7325647237431112
-0.6476198532678932
0.021921634550912592
0.7325647237431112
-0.6416550947345943
0.022768169029659117
0.7304663361848122
-0.6416550947345943
0.022768169029659117
0.7304663361848122
-0.6416550947345943
0.022768169029659117
0.7304663361848122
-0.6416550947345943
0.022768169029659117
0.7304663361848122
-0.6320396437494971
0.023845350078872295
0.7295564536202965
-0.6320396437494971
0.023845350078872295
0.7295564536202965
-0.6320396437494971
0.023845350078872295
0.7295564536202965
-0.6320396437494971
0.023845350078872295
0.7295564536202965
-0.6270961579950511
0.024561332737296184
0.7295989766539164
-0.6270961579950511
0.024561332737296184
0.7295989766539164
-0.6270961579950511
0.024561332737296184
0.7295989766539164
-0.6270961579950511
0.024561332737296184
0.7295989766539164
-0.6255540265798128
0.023518532342498864
0.729486591987386
-0.6255540265798128
0.023518532342498864
0.729486591987386
-0.6255540265798128
0.023518532342498864
0.729486591987386
-0.6255540265798128
0.023518532342498864
0.729486591987386
-0.6281386815950021
0.02252474173121497
0.7284315612240526
-0.6281386815950021
0.02252474173121497
0.7284315612240526
-0.6281386815950021
0.02252474173121497
0.7284315612240526
-0.6281386815950021
0.02252474173121497
0.7284315612240526
-0.6298408764662908
0.021816213425032812
0.7263925146307126
-0.6298408764662908
0.021816213425032812
0.7263925146307126
-0.6298408764662908
0.021816213425032812
0.7263925146307126
-0.6298408764662908
0.021816213425032812
0.7263925146307126
-0.6297530968041616
0.02133315796446115
0.7250484257366181
-0.6297530968041616
0.02133315796446115
0.7250484257366181
-0.6297530968041616
0.02133315796446115
0.7250484257366181
-0.6297530968041616
0.02133315796446115
0.7250484257366181
-0.6279317870231189
0.021720149087790363
0.7237378470346788
-0.6279317870231189
0.021720149087790363
0.7237378470346788
-0.6279317870231189
0.021720149087790363
0.7237378470346788
-0.6279317870231189
0.021720149087790363
0.7237378470346788
-0.624308874159866
0.02352552859435511
0.7242873542058375
-0.624308874159866
0.02352552859435511
0.7242873542058375
-0.624308874159866
0.02352552859435511
0.7242873542058375
-0.624308874159866
0.02352552859435511
0.7242873542058375
-0.6190567344662506
0.02478518472965881
0.7259055113368011
-0.6190567344662506
0.02478518472965881
0.7259055113368011
-0.6190567344662506
0.02478518472965881
0.7259055113368011
-0.6190567344662506
0.02478518472965881
0.7259055113368011
-0.6142796472918646
0.027016901909498972
0.7262102363420329
-0.6142796472918646
0.027016901909498972
0.7262102363420329
-0.6142796472918646
0.027016901909498972
0.7262102363420329
-0.6142796472918646
0.027016901909498972
0.7262102363420329
-0.6118493210240987
0.028074199257937638
0.7264453152438456
-0.6118493210240987
0.028074199257937638
0.7264453152438456
-0.6118493210240987
0.028074199257937638
0.7264453152438456
-0.6118493210240987
0.028074199257937638
0.7264453152438456
-0.610035172503824
0.027503810659319266
0.7268272183253943
-0.610035172503824
0.027503810659319266
0.7268272183253943
-0.610035172503824
0.027503810659319266
0.7268272183253943
-0.610035172503824
0.027503810659319266
0.7268272183253943
-0.6101996659805407
0.027402027552349148
0.7267373610296192
-0.6101996659805407
0.027402027552349148
0.7267373610296192
-0.6101996659805407
0.027402027552349148
0.7267373610296192
-0.6101996659805407
0.027402027552349148
0.7267373610296192
-0.6112875034137252
0.026621338994254982
0.7264160871559971
-0.6112875034137252
0.026621338994254982
0.7264160871559971
-0.6112875034137252
0.026621338994254982
0.7264160871559971
-0.6112875034137252
0.026621338994254982
0.7264160871559971
-0.6107300854099837
0.024970816447711843
0.7257590996550545
-0.6107300854099837
0.024970816447711843
0.7257590996550545
-0.6107300854099837
0.024970816447711843
0.7257590996550545
-0.6107300854099837
0.024970816447711843
0.7257590996550545
-0.6099944484853199
0.024124670119157015
0.7248503806114223
-0.6099944484853199
0.024124670119157015
0.7248503806114223
-0.6099944484853199
0.024124670119157015
0.7248503806114223
-0.6099944484853199
0.024124670119157015
0.7248503806114223
-0.6102940895793665
0.02338243678126782
0.7238672616020612
-0.6102940895793665
0.02338243678126782
0.7238672616020612
-0.6102940895793665
0.02338243678126782
0.7238672616020612
-0.6102940895793665
0.02338243678126782
0.7238672616020612
-0.6102878407401111
0.02269459251606626
0.7225861986275564
-0.6102878407401111
0.02269459251606626
0.7225861986275564
-0.6102878407401111
0.02269459251606626
0.7225861986275564
-0.6102878407401111
0.02269459251606626
0.7225861986275564
-0.6086617712688154
0.02287129990492102
0.7220836207997969
-0.6086617712688154
0.02287129990492102
0.7220836207997969
-0.6086617712688154
0.02287129990492102
0.7220836207997969
-0.6086617712688154
0.02287129990492102
0.7220836207997969
-0.6080079200960359
0.02274835164868501
0.7220391644436814
-0.6080079200960359
0.02274835164868501
0.7220391644436814
-0.6080079200960359
0.02274835164868501
0.7220391644436814
-0.6080079200960359
0.02274835164868501
0.7220391644436814
-0.6093686412443675
0.02218304736112163
0.7225020226519343
-0.6093686412443675
0.02218304736112163
0.7225020226519343
-0.6093686412443675
0.02218304736112163
0.7225020226519343
-0.6093686412443675
0.02218304736112163
0.7225020226519343
-0.6090666558495967
0.02065632740349733
0.7232247021989906
-0.6090666558495967
0.02065632740349733
0.7232247021989906
-0.6090666558495967
0.02065632740349733
0.7232247021989906
-0.6090666558495967
0.02065632740349733
0.7232247021989906
-0.6063343917781212
0.01858134403845165
0.7238243311886791
-0.6063343917781212
0.01858134403845165
0.7238243311886791
-0.6063343917781212
0.01858134403845165
0.7238243311886791
-0.6063343917781212
0.01858134403845165
0.7238243311886791
-0.6039317592240104
0.015975112184105023
0.7241025163321408
-0.6039317592240104
0.015975112184105023
0.7241025163321408
-0.6039317592240104
0.015975112184105023
0.7241025163321408
-0.6039317592240104
0.015975112184105023
0.7241025163321408
-0.6028169001642932
0.013902550238432232
0.7240965964022458
-0.6028169001642932
0.013902550238432232
0.7240965964022458
-0.6028169001642932
0.013902550238432232
0.7240965964022458
-0.6028169001642932
0.013902550238432232
0.7240965964022458
-0.6026819842993388
0.012932769214280743
0.7246379385968323
-0.6026819842993388
0.012932769214280743
0.7246379385968323
-0.6026819842993388
0.012932769214280743
0.7246379385968323
-0.6026819842993388
0.012932769214280743
0.7246379385968323
-0.6045559195971117
0.012771442432537488
0.7249027643528978
-0.6045559195971117
0.012771442432537488
0.7249027643528978
-0.6045559195971117
0.012771442432537488
0.7249027643528978
-0.6045559195971117
0.012771442432537488
0.7249027643528978
-0.6057214534342004
0.012441250865349869
0.7242068964191186
-0.6057214534342004
0.012441250865349869
0.7242068964191186
-0.6057214534342004
0.012441250865349869
0.7242068964191186
-0.6057214534342004
0.012441250865349869
0.7242068964191186
-0.6054151908156125
0.01229237361888348
0.7236408720699753
-0.6054151908156125
0.01229237361888348
0.7236408720699753
-0.6054151908156125
0.01229237361888348
0.7236408720699753
-0.6054151908156125
0.01229237361888348
0.7236408720699753
-0.6039499260778153
0.012563216340237259
0.7236689009695917
-0.6039499260778153
0.012563216340237259
0.7236689009695917
-0.6039499260778153
0.012563216340237259
0.7236689009695917
-0.6039499260778153
0.012563216340237259
0.7236689009695917
-0.6028040182004304
0.013274966816178081
0.7242918015345673
-0.6028040182004304
0.013274966816178081
0.7242918015345673
-0.6028040182004304
0.013274966816178081
0.7242918015345673
-0.6028040182004304
0.013274966816178081
0.7242918015345673
-0.6037490873994047
0.014241670559112147
0.7249284133851681
-0.6037490873994047
0.014241670559112147
0.7249284133851681
-0.6037490873994047
0.014241670559112147
0.7249284133851681
-0.6037490873994047
0.014241670559112147
0.7249284133851681
-0.6049259399292657
0.014922978640175345
0.7256514491647672
-0.6049259399292657
0.014922978640175345
0.7256514491647672
-0.6049259399292657
0.014922978640175345
0.7256514491647672
-0.6049259399292657
0.014922978640175345
0.7256514491647672
-0.6045412962609609
0.015799189767833035
0.7263087617410497
-0.6045412962609609
0.015799189767833035
0.7263087617410497
-0.6045412962609609
0.015799189767833035
0.7263087617410497
-0.6045412962609609
0.015799189767833035
0.7263087617410497
-0.6047631381916574
0.016492895676724025
0.7269441258394145
-0.6047631381916574
0.016492895676724025
0.7269441258394145
-0.6047631381916574
0.016492895676724025
0.7269441258394145
-0.6047631381916574
0.016492895676724025
0.7269441258394145
-0.6048721732266088
0.016534042319581624
0.7269303003078094
-0.6048721732266088
0.016534042319581624
0.7269303003078094
-0.6048721732266088
0.016534042319581624
0.7269303003078094
-0.6048721732266088
0.016534042319581624
0.7269303003078094
-0.604142235543915
0.016708772453913286
0.7270754891214145
-0.604142235543915
0.016708772453913286
0.7270754891214145
-0.604142235543915
0.016708772453913286
0.7270754891214145
-0.604142235543915
0.016708772453913286
0.7270754891214145
-0.6049786544372235
0.017105620848526033
0.7273201255568201
-0.6049786544372235
0.017105620848526033
0.7273201255568201
-0.6049786544372235
0.017105620848526033
0.7273201255568201
-0.6049786544372235
0.017105620848526033
0.7273201255568201
-0.6058294817462333
0.01713452903216088
0.7276793583261348
-0.6058294817462333
0.01713452903216088
0.7276793583261348
-0.6058294817462333
0.01713452903216088
0.7276793583261348
-0.6058294817462333
0.01713452903216088
0.7276793583261348
-0.6062969660111259
0.017509386379322006
0.7282922602807194
-0.6062969660111259
0.017509386379322006
0.7282922602807194
-0.6062969660111259
0.017509386379322006
0.7282922602807194
-0.6062969660111259
0.017509386379322006
0.7282922602807194
-0.6055009667406371
0.0181372356924013
0.729508679376335
-0.6055009667406371
0.0181372356924013
0.729508679376335
-0.6055009667406371
0.0181372356924013
0.729508679376335
-0.6055009667406371
0.0181372356924013
0.729508679376335
-0.6043700704524726
0.018885387276341977
0.7306451786661988
-0.6043700704524726
0.018885387276341977
0.7306451786661988
-0.6043700704524726
0.018885387276341977
0.7306451786661988
-0.6043700704524726
0.018885387276341977
0.7306451786661988
-0.6041764460744896
0.01892295272169825
0.7314432644659526
-0.6041764460744896
0.01892295272169825
0.7314432644659526
-0.6041764460744896
0.01892295272169825
0.7314432644659526
-0.6041764460744896
0.01892295272169825
0.7314432644659526
-0.6042841858776378
0.018833666626100143
0.7319199637157339
-0.6042841858776378
0.018833666626100143
0.7319199637157339
-0.6042841858776378
0.018833666626100143
0.7319199637157339
-0.6042841858776378
0.018833666626100143
0.7319199637157339
-0.6042701593314346
0.018867189466800428
0.7320289217198099
-0.6042701593314346
0.018867189466800428
0.7320289217198099
-0.6042701593314346
0.018867189466800428
0.7320289217198099
-0.6042701593314346
0.018867189466800428
0.7320289217198099
-0.6049593039976264
0.01880317145125979
0.7318493406246819
-0.6049593039976264
0.01880317145125979
0.7318493406246819
-0.6049593039976264
0.01880317145125979
0.7318493406246819
-0.6049593039976264
0.01880317145125979
0.7318493406246819
-0.6049593039976264
0.01880317145125979
0.7318493406246819
-0.6049593039976264
0.01880317145125979
0.7318493406246819
-0.6049593039976264
0.01880317145125979
0.7318493406246819
-0.6049593039976264
0.01880317145125979
0.7318493406246819
-0.6056691703747469
0.018452155583429542
0.732043921392662
-0.6056691703747469
0.018452155583429542
0.732043921392662
-0.6056691703747469
0.018452155583429542
0.732043921392662
-0.6056691703747469
0.018452155583429542
0.732043921392662
-0.6058310117485582
0.017608814418954535
0.7317825852387165
-0.6058310117485582
0.017608814418954535
0.7317825852387165
-0.6058310117485582
0.017608814418954535
0.7317825852387165
-0.6058310117485582
0.017608814418954535
0.7317825852387165
-0.6051152892164076
0.016467552062705407
0.7316035869551221
-0.6051152892164076
0.016467552062705407
0.7316035869551221
-0.6051152892164076
0.016467552062705407
0.7316035869551221
-0.6051152892164076
0.016467552062705407
0.7316035869551221
-0.6051554808727819
0.015289983686337822
0.7313282704976489
-0.6051554808727819
0.015289983686337822
0.7313282704976489
-0.6051554808727819
0.015289983686337822
0.7313282704976489
-0.6051554808727819
0.015289983686337822
0.7313282704976489
-0.6061004245897914
0.014457284164333504
0.730984064086298
-0.6061004245897914
0.014457284164333504
0.730984064086298
-0.6061004245897914
0.014457284164333504
0.730984064086298
-0.6061004245897914
0.014457284164333504
0.730984064086298
-0.6079728328839966
0.013363137948024423
0.7304493960961577
-0.6079728328839966
0.013363137948024423
0.7304493960961577
-0.6079728328839966
0.013363137948024423
0.7304493960961577
-0.6079728328839966
0.013363137948024423
0.7304493960961577
-0.608372125294666
0.01245275981538144
0.7296851013044916
-0.608372125294666
0.01245275981538144
0.7296851013044916
-0.608372125294666
0.01245275981538144
0.7296851013044916
-0.608372125294666
0.01245275981538144
0.7296851013044916
-0.6079925673985769
0.011940557048507043
0.7293983450692079
-0.6079925673985769
0.011940557048507043
0.7293983450692079
-0.6079925673985769
0.011940557048507043
0.7293983450692079
-0.6079925673985769
0.011940557048507043
0.7293983450692079
-0.6083006045946837
0.011493178586494793
0.7284436851639642
-0.6083006045946837
0.011493178586494793
0.7284436851639642
-0.6083006045946837
0.011493178586494793
0.7284436851639642
-0.6083006045946837
0.011493178586494793
0.7284436851639642
-0.6086537901385503
0.011686178849081012
0.7273334828512679
-0.6086537901385503
0.011686178849081012
0.7273334828512679
-0.6086537901385503
0.011686178849081012
0.7273334828512679
-0.6086537901385503
0.011686178849081012
0.7273334828512679
-0.6084544670782405
0.012245303794017528
0.7263050821109638
-0.6084544670782405
0.012245303794017528
0.7263050821109638
-0.6084544670782405
0.012245303794017528
0.7263050821109638
-0.6084544670782405
0.012245303794017528
0.7263050821109638
-0.6083771441373359
0.013342800696345176
0.7255568417597983
-0.6083771441373359
0.013342800696345176
0.7255568417597983
-0.6083771441373359
0.013342800696345176
0.7255568417597983
-0.6083771441373359
0.013342800696345176
0.7255568417597983
-0.6086668764630481
0.015319725585334053
0.724979411980096
-0.6086668764630481
0.015319725585334053
0.724979411980096
-0.6086668764630481
0.015319725585334053
0.724979411980096
-0.6086668764630481
0.015319725585334053
0.724979411980096
-0.608935955783142
0.017445862324703815
0.7248784296182373
-0.608935955783142
0.017445862324703815
0.7248784296182373
-0.608935955783142
0.017445862324703815
0.7248784296182373
-0.608935955783142
0.017445862324703815
0.7248784296182373
-0.6091702519854414
0.020096713539396512
0.7247774877984339
-0.6091702519854414
0.020096713539396512
0.7247774877984339
-0.6091702519854414
0.020096713539396512
0.7247774877984339
-0.6091702519854414
0.020096713539396512
0.7247774877984339
-0.609089495758407
0.023244116116351084
0.7248822493919647
-0.609089495758407
0.023244116116351084
0.7248822493919647
-0.609089495758407
0.023244116116351084
0.7248822493919647
-0.609089495758407
0.023244116116351084
0.7248822493919647
-0.6075747214040734
0.02700197155322227
0.7252026340756395
-0.6075747214040734
0.02700197155322227
0.7252026340756395
-0.6075747214040734
0.02700197155322227
0.7252026340756395
-0.6075747214040734
0.02700197155322227
0.7252026340756395
-0.6071046607029644
0.03136111911187425
0.7257452002444148
-0.6071046607029644
0.03136111911187425
0.7257452002444148
-0.6071046607029644
0.03136111911187425
0.7257452002444148
-0.6071046607029644
0.03136111911187425
0.7257452002444148
-0.6073684096542559
0.03603387712940017
0.7267928402339958
-0.6073684096542559
0.03603387712940017
0.7267928402339958
-0.6073684096542559
0.03603387712940017
0.7267928402339958
-0.6073684096542559
0.03603387712940017
0.7267928402339958
-0.6072313395574034
0.040841789478569666
0.7283293091842156
-0.6072313395574034
0.040841789478569666
0.7283293091842156
-0.6072313395574034
0.040841789478569666
0.7283293091842156
-0.6072313395574034
0.040841789478569666
0.7283293091842156
-0.6082280292278324
0.046491822872211576
0.7306873250716942
-0.6082280292278324
0.046491822872211576
0.7306873250716942
-0.6082280292278324
0.046491822872211576
0.7306873250716942
-0.6082280292278324
0.046491822872211576
0.7306873250716942
-0.6060344709234858
0.05104821928551467
0.7330528253263263
-0.6060344709234858
0.05104821928551467
0.7330528253263263
-0.6060344709234858
0.05104821928551467
0.7330528253263263
-0.6060344709234858
0.05104821928551467
0.7330528253263263
-0.6020890672267463
0.05543432506325793
0.734941341846204
-0.6020890672267463
0.05543432506325793
0.734941341846204
-0.6020890672267463
0.05543432506325793
0.734941341846204
-0.6020890672267463
0.05543432506325793
0.734941341846204
-0.598491703595387
0.06069300161780517
0.7370148793733574
-0.598491703595387
0.06069300161780517
0.7370148793733574
-0.598491703595387
0.06069300161780517
0.7370148793733574
-0.598491703595387
0.06069300161780517
0.7370148793733574
-0.5981379838194357
0.06497812994418706
0.7385043792579858
-0.5981379838194357
0.06497812994418706
0.7385043792579858
-0.5981379838194357
0.06497812994418706
0.7385043792579858
-0.5981379838194357
0.06497812994418706
0.7385043792579858
-0.6058000092855543
0.06897490612824612
0.7380948339626369
-0.6058000092855543
0.06897490612824612
0.7380948339626369
-0.6058000092855543
0.06897490612824612
0.7380948339626369
-0.6058000092855543
0.06897490612824612
0.7380948339626369
-0.6062662660618543
0.07326040763957095
0.7368301555582092
-0.6062662660618543
0.07326040763957095
0.7368301555582092
-0.6062662660618543
0.07326040763957095
0.7368301555582092
-0.6062662660618543
0.07326040763957095
0.7368301555582092
-0.5991732646413654
0.07503626969296007
0.7374931148452855
-0.5991732646413654
0.07503626969296007
0.7374931148452855
-0.5991732646413654
0.07503626969296007
0.7374931148452855
-0.5991732646413654
0.07503626969296007
0.7374931148452855
-0.5955185476022575
0.07575585973908412
0.7361885596760243
-0.5955185476022575
0.07575585973908412
0.7361885596760243
-0.5955185476022575
0.07575585973908412
0.7361885596760243
-0.5955185476022575
0.07575585973908412
0.7361885596760243
-0.5966673842949031
0.0787080816036709
0.7333566468969919
-0.5966673842949031
0.0787080816036709
0.7333566468969919
-0.5966673842949031
0.0787080816036709
0.7333566468969919
-0.5966673842949031
0.0787080816036709
0.7333566468969919
-0.5971465974557433
0.07960547583437183
0.7317301333771199
-0.5971465974557433
0.07960547583437183
0.7317301333771199
-0.5971465974557433
0.07960547583437183
0.7317301333771199
-0.5971465974557433
0.07960547583437183
0.7317301333771199
-0.5932538357591653
0.07748089558967038
0.7332882617976343
-0.5932538357591653
0.07748089558967038
0.7332882617976343
-0.5932538357591653
0.07748089558967038
0.7332882617976343
-0.5932538357591653
0.07748089558967038
0.7332882617976343
-0.5860927853531748
0.07364246336328388
0.7374091265302157
-0.5860927853531748
0.07364246336328388
0.7374091265302157
-0.5860927853531748
0.07364246336328388
0.7374091265302157
-0.5860927853531748
0.07364246336328388
0.7374091265302157
-0.5821683131390467
0.0665293901042509
0.7422816485163436
-0.5821683131390467
0.0665293901042509
0.7422816485163436
-0.5821683131390467
0.0665293901042509
0.7422816485163436
-0.5821683131390467
0.0665293901042509
0.7422816485163436
-0.5788389457618399
0.06105965422193849
0.7478413576473888
-0.5788389457618399
0.06105965422193849
0.7478413576473888
-0.5788389457618399
0.06105965422193849
0.7478413576473888
-0.5788389457618399
0.06105965422193849
0.7478413576473888
-0.5802743501631795
0.05294376491851201
0.7577443720584313
-0.5802743501631795
0.05294376491851201
0.7577443720584313
-0.5802743501631795
0.05294376491851201
0.7577443720584313
-0.5802743501631795
0.05294376491851201
0.7577443720584313
-0.5744569481567532
0.04072554612672507
0.7689330913184055
-0.5744569481567532
0.04072554612672507
0.7689330913184055
-0.5744569481567532
0.04072554612672507
0.7689330913184055
-0.5744569481567532
0.04072554612672507
0.7689330913184055
-0.5692802089538344
0.027111464543063794
0.7814243531935535
-0.5692802089538344
0.027111464543063794
0.7814243531935535
-0.5692802089538344
0.027111464543063794
0.7814243531935535
-0.5692802089538344
0.027111464543063794
0.7814243531935535
-0.5619935717147029
0.015050529893303478
0.7890399028012635
-0.5619935717147029
0.015050529893303478
0.7890399028012635
-0.5619935717147029
0.015050529893303478
0.7890399028012635
-0.5619935717147029
0.015050529893303478
0.7890399028012635
-0.5558833558669638
0.007332009161153198
0.7906734432930198
-0.5558833558669638
0.007332009161153198
0.7906734432930198
-0.5558833558669638
0.007332009161153198
0.7906734432930198
-0.5558833558669638
0.007332009161153198
0.7906734432930198
-0.554210275046096
0.003418190140214436
0.790513701202523
-0.554210275046096
0.003418190140214436
0.790513701202523
-0.554210275046096
0.003418190140214436
0.790513701202523
-0.554210275046096
0.003418190140214436
0.790513701202523
-0.5505735348071206
-1.9407288366204368E-4
0.7923496208396776
-0.5505735348071206
-1.9407288366204368E-4
0.7923496208396776
-0.5505735348071206
-1.9407288366204368E-4
0.7923496208396776
-0.5505735348071206
-1.9407288366204368E-4
0.7923496208396776
-0.5501035831618235
-0.0031520062921749407
0.7966670339959113
-0.5501035831618235
-0.0031520062921749407
0.7966670339959113
-0.5501035831618235
-0.0031520062921749407
0.7966670339959113
-0.5501035831618235
-0.0031520062921749407
0.7966670339959113
-0.5533412631649588
-0.0041793688998717025
0.7994072500216308
-0.5533412631649588
-0.0041793688998717025
0.7994072500216308
-0.5533412631649588
-0.0041793688998717025
0.7994072500216308
-0.5533412631649588
-0.0041793688998717025
0.7994072500216308
-0.5591992826512523
-0.0037436048566411233
0.7990684648881698
-0.5591992826512523
-0.0037436048566411233
0.7990684648881698
-0.5591992826512523
-0.0037436048566411233
0.7990684648881698
-0.5591992826512523
-0.0037436048566411233
0.7990684648881698
-0.5626042108475757
-0.001600975164466932
0.797199350208572
-0.5626042108475757
-0.001600975164466932
0.797199350208572
-0.5626042108475757
-0.001600975164466932
0.797199350208572
-0.5626042108475757
-0.001600975164466932
0.797199350208572
-0.5610458938291932
5.426380366045687E-4
0.7963832715703119
-0.5610458938291932
5.426380366045687E-4
0.7963832715703119
-0.5610458938291932
5.426380366045687E-4
0.7963832715703119
-0.5610458938291932
5.426380366045687E-4
0.7963832715703119
-0.5577261491082381
0.0035481898121946663
0.7963800265550285
-0.5577261491082381
0.0035481898121946663
0.7963800265550285
-0.5577261491082381
0.0035481898121946663
0.7963800265550285
-0.5577261491082381
0.0035481898121946663
0.7963800265550285
-0.5566230605374409
0.006776549156531471
0.7962786632638923
-0.5566230605374409
0.006776549156531471
0.7962786632638923
-0.5566230605374409
0.006776549156531471
0.7962786632638923
-0.5566230605374409
0.006776549156531471
0.7962786632638923
-0.5573224100651719
0.011051382099709088
0.7952686829148576
-0.5573224100651719
0.011051382099709088
0.7952686829148576
-0.5573224100651719
0.011051382099709088
0.7952686829148576
-0.5573224100651719
0.011051382099709088
0.7952686829148576
-0.5569013691962275
0.01563435906468419
0.7936776701044999
-0.5569013691962275
0.01563435906468419
0.7936776701044999
-0.5569013691962275
0.01563435906468419
0.7936776701044999
-0.5569013691962275
0.01563435906468419
0.7936776701044999
-0.5532457239373811
0.020444457960272035
0.7923484927256295
-0.5532457239373811
0.020444457960272035
0.7923484927256295
-0.5532457239373811
0.020444457960272035
0.7923484927256295
-0.5532457239373811
0.020444457960272035
0.7923484927256295
-0.5493812863194933
0.02515111393208567
0.791420799859308
-0.5493812863194933
0.02515111393208567
0.791420799859308
-0.5493812863194933
0.02515111393208567
0.791420799859308
-0.5493812863194933
0.02515111393208567
0.791420799859308
-0.549708527199987
0.03006409458403772
0.7903630320558894
-0.549708527199987
0.03006409458403772
0.7903630320558894
-0.549708527199987
0.03006409458403772
0.7903630320558894
-0.549708527199987
0.03006409458403772
0.7903630320558894
-0.5517679265586752
0.03529984088520524
0.7898261892912471
-0.5517679265586752
0.03529984088520524
0.7898261892912471
-0.5517679265586752
0.03529984088520524
0.7898261892912471
-0.5517679265586752
0.03529984088520524
0.7898261892912471
-0.5520553405265823
0.04010270291267299
0.7889586716844997
-0.5520553405265823
0.04010270291267299
0.7889586716844997
-0.5520553405265823
0.04010270291267299
0.7889586716844997
-0.5520553405265823
0.04010270291267299
0.7889586716844997
-0.551735585555608
0.044844836787761196
0.7873394399278147
-0.551735585555608
0.044844836787761196
0.7873394399278147
-0.551735585555608
0.044844836787761196
0.7873394399278147
-0.551735585555608
0.044844836787761196
0.7873394399278147
-0.5525548235870308
0.04974347820583769
0.7851117060663695
-0.5525548235870308
0.04974347820583769
0.7851117060663695
-0.5525548235870308
0.04974347820583769
0.7851117060663695
-0.5525548235870308
0.04974347820583769
0.7851117060663695
-0.5529076380102882
0.05377143915710426
0.7829245461180863
-0.5529076380102882
0.05377143915710426
0.7829245461180863
-0.5529076380102882
0.05377143915710426
0.7829245461180863
-0.5529076380102882
0.05377143915710426
0.7829245461180863
-0.5555868441616998
0.056941910595195225
0.782453666020726
-0.5555868441616998
0.056941910595195225
0.782453666020726
-0.5555868441616998
0.056941910595195225
0.782453666020726
-0.5555868441616998
0.056941910595195225
0.782453666020726
-0.5541627355063226
0.05895974810458788
0.7834255546616067
-0.5541627355063226
0.05895974810458788
0.7834255546616067
-0.5541627355063226
0.05895974810458788
0.7834255546616067
-0.5541627355063226
0.05895974810458788
0.7834255546616067
-0.5556654523233195
0.06070682978705723
0.7848941178152212
-0.5556654523233195
0.06070682978705723
0.7848941178152212
-0.5556654523233195
0.06070682978705723
0.7848941178152212
-0.5556654523233195
0.06070682978705723
0.7848941178152212
-0.5584571656074706
0.06063176465580583
0.786656094779511
-0.5584571656074706
0.06063176465580583
0.786656094779511
-0.5584571656074706
0.06063176465580583
0.786656094779511
-0.5584571656074706
0.06063176465580583
0.786656094779511
-0.5590488361954343
0.05975276303654087
0.7906923147113241
-0.5590488361954343
0.05975276303654087
0.7906923147113241
-0.5590488361954343
0.05975276303654087
0.7906923147113241
-0.5590488361954343
0.05975276303654087
0.7906923147113241
-0.5622797952016413
0.0558257910071606
0.7991320001662535
-0.5622797952016413
0.0558257910071606
0.7991320001662535
-0.5622797952016413
0.0558257910071606
0.7991320001662535
-0.5622797952016413
0.0558257910071606
0.7991320001662535
-0.560642594642807
0.05213515180051888
0.8052316036419328
-0.560642594642807
0.05213515180051888
0.8052316036419328
-0.560642594642807
0.05213515180051888
0.8052316036419328
-0.560642594642807
0.05213515180051888
0.8052316036419328
-0.553134879660866
0.04855422099950189
0.8092488504840869
-0.553134879660866
0.04855422099950189
0.8092488504840869
-0.553134879660866
0.04855422099950189
0.8092488504840869
-0.553134879660866
0.04855422099950189
0.8092488504840869
-0.5478267556817025
0.04203368721184678
0.8060811811329444
-0.5478267556817025
0.04203368721184678
0.8060811811329444
-0.5478267556817025
0.04203368721184678
0.8060811811329444
-0.5478267556817025
0.04203368721184678
0.8060811811329444
-0.5472565531238802
0.03457887973936808
0.7953655806970282
-0.5472565531238802
0.03457887973936808
0.7953655806970282
-0.5472565531238802
0.03457887973936808
0.7953655806970282
-0.5472565531238802
0.03457887973936808
0.7953655806970282
-0.5527478533769723
0.029193632010117633
0.7829412758839449
-0.5527478533769723
0.029193632010117633
0.7829412758839449
-0.5527478533769723
0.029193632010117633
0.7829412758839449
-0.5527478533769723
0.029193632010117633
0.7829412758839449
-0.5725579224600579
0.027118847731322438
0.7746290475487202
-0.5725579224600579
0.027118847731322438
0.7746290475487202
-0.5725579224600579
0.027118847731322438
0.7746290475487202
-0.5725579224600579
0.027118847731322438
0.7746290475487202
-0.5821791089189335
0.020289301736701442
0.7694166204303214
-0.5821791089189335
0.020289301736701442
0.7694166204303214
-0.5821791089189335
0.020289301736701442
0.7694166204303214
-0.5821791089189335
0.020289301736701442
0.7694166204303214
-0.5922381972368403
0.011599136307447393
0.7644651040976919
-0.5922381972368403
0.011599136307447393
0.7644651040976919
-0.5922381972368403
0.011599136307447393
0.7644651040976919
-0.5922381972368403
0.011599136307447393
0.7644651040976919
-0.6006116887220084
0.004015736313327309
0.7606471883810618
-0.6006116887220084
0.004015736313327309
0.7606471883810618
-0.6006116887220084
0.004015736313327309
0.7606471883810618
-0.6006116887220084
0.004015736313327309
0.7606471883810618
-0.5978106494067307
-0.002844613803220516
0.7571692930471753
-0.5978106494067307
-0.002844613803220516
0.7571692930471753
-0.5978106494067307
-0.002844613803220516
0.7571692930471753
-0.5978106494067307
-0.002844613803220516
0.7571692930471753
-0.5933897766370912
-0.009142409240599727
0.7544451034328207
-0.5933897766370912
-0.009142409240599727
0.7544451034328207
-0.5933897766370912
-0.009142409240599727
0.7544451034328207
-0.5933897766370912
-0.009142409240599727
0.7544451034328207
-0.58922307665076
-0.012241034974214055
0.7528354495683323
-0.58922307665076
-0.012241034974214055
0.7528354495683323
-0.58922307665076
-0.012241034974214055
0.7528354495683323
-0.58922307665076
-0.012241034974214055
0.7528354495683323
-0.5899640584427763
-0.015480731232019871
0.7529469919763716
-0.5899640584427763
-0.015480731232019871
0.7529469919763716
-0.5899640584427763
-0.015480731232019871
0.7529469919763716
-0.5899640584427763
-0.015480731232019871
0.7529469919763716
-0.595090689434381
-0.016686379085385027
0.7527570670876854
-0.595090689434381
-0.016686379085385027
0.7527570670876854
-0.595090689434381
-0.016686379085385027
0.7527570670876854
-0.595090689434381
-0.016686379085385027
0.7527570670876854
-0.5977741517066371
-0.014436410045687397
0.7517269359973401
-0.5977741517066371
-0.014436410045687397
0.7517269359973401
-0.5977741517066371
-0.014436410045687397
0.7517269359973401
-0.5977741517066371
-0.014436410045687397
0.7517269359973401
-0.5942477598785152
-0.00926090777905097
0.7498138241121844
-0.5942477598785152
-0.00926090777905097
0.7498138241121844
-0.5942477598785152
-0.00926090777905097
0.7498138241121844
-0.5942477598785152
-0.00926090777905097
0.7498138241121844
-0.5898710343676432
-0.004439347712384303
0.7487394189932196
-0.5898710343676432
-0.004439347712384303
0.7487394189932196
-0.5898710343676432
-0.004439347712384303
0.7487394189932196
-0.5898710343676432
-0.004439347712384303
0.7487394189932196
-0.587297700380386
-6.390603242610794E-4
0.7487968904454158
-0.587297700380386
-6.390603242610794E-4
0.7487968904454158
-0.587297700380386
-6.390603242610794E-4
0.7487968904454158
-0.587297700380386
-6.390603242610794E-4
0.7487968904454158
-0.5889482876511534
0.0020983396965967554
0.749811728039711
-0.5889482876511534
0.0020983396965967554
0.749811728039711
-0.5889482876511534
0.0020983396965967554
0.749811728039711
-0.5889482876511534
0.0020983396965967554
0.749811728039711
-0.5938792222552698
0.00451052191602736
0.7508854655028898
-0.5938792222552698
0.00451052191602736
0.7508854655028898
-0.5938792222552698
0.00451052191602736
0.7508854655028898
-0.5938792222552698
0.00451052191602736
0.7508854655028898
-0.5972997790076416
0.006544843460739305
0.7517640690763873
-0.5972997790076416
0.006544843460739305
0.7517640690763873
-0.5972997790076416
0.006544843460739305
0.7517640690763873
-0.5972997790076416
0.006544843460739305
0.7517640690763873
-0.596657240004399
0.0089061169066071
0.7517997432266214
-0.596657240004399
0.0089061169066071
0.7517997432266214
-0.596657240004399
0.0089061169066071
0.7517997432266214
-0.596657240004399
0.0089061169066071
0.7517997432266214
-0.5937778325489235
0.0100268081207009
0.751094716179203
-0.5937778325489235
0.0100268081207009
0.751094716179203
-0.5937778325489235
0.0100268081207009
0.751094716179203
-0.5937778325489235
0.0100268081207009
0.751094716179203
-0.5940501189021589
0.0109345331790105
0.7505780043958187
-0.5940501189021589
0.0109345331790105
0.7505780043958187
-0.5940501189021589
0.0109345331790105
0.7505780043958187
-0.5940501189021589
0.0109345331790105
0.7505780043958187
-0.5953722695448872
0.011793400687610266
0.7503758714668325
-0.5953722695448872
0.011793400687610266
0.7503758714668325
-0.5953722695448872
0.011793400687610266
0.7503758714668325
-0.5953722695448872
0.011793400687610266
0.7503758714668325
-0.596506348555095
0.013030425255125513
0.7502480323977977
-0.596506348555095
0.013030425255125513
0.7502480323977977
-0.596506348555095
0.013030425255125513
0.7502480323977977
-0.596506348555095
0.013030425255125513
0.7502480323977977
-0.5964407585667628
0.013833547972988833
0.750239079189027
-0.5964407585667628
0.013833547972988833
0.750239079189027
-0.5964407585667628
0.013833547972988833
0.750239079189027
-0.5964407585667628
0.013833547972988833
0.750239079189027
-0.5980981944932001
0.013742772882491266
0.7500394132731689
-0.5980981944932001
0.013742772882491266
0.7500394132731689
-0.5980981944932001
0.013742772882491266
0.7500394132731689
-0.5980981944932001
0.013742772882491266
0.7500394132731689
-0.5985653685687995
0.012972442889413342
0.7500830957786139
-0.5985653685687995
0.012972442889413342
0.7500830957786139
-0.5985653685687995
0.012972442889413342
0.7500830957786139
-0.5985653685687995
0.012972442889413342
0.7500830957786139
-0.598122827449003
0.011484820798883721
0.7494066175421286
-0.598122827449003
0.011484820798883721
0.7494066175421286
-0.598122827449003
0.011484820798883721
0.7494066175421286
-0.598122827449003
0.011484820798883721
0.7494066175421286
-0.5998387933520244
0.010094078472626578
0.7489222883796511
-0.5998387933520244
0.010094078472626578
0.7489222883796511
-0.5998387933520244
0.010094078472626578
0.7489222883796511
-0.5998387933520244
0.010094078472626578
0.7489222883796511
-0.59942853106419
0.008196007312962451
0.7486104343797846
-0.59942853106419
0.008196007312962451
0.7486104343797846
-0.59942853106419
0.008196007312962451
0.7486104343797846
-0.59942853106419
0.008196007312962451
0.7486104343797846
-0.5980442002390962
0.006667765876276792
0.7480936505398461
-0.5980442002390962
0.006667765876276792
0.7480936505398461
-0.5980442002390962
0.006667765876276792
0.7480936505398461
-0.5980442002390962
0.006667765876276792
0.7480936505398461
-0.5994680941719053
0.004959624045363326
0.747427527442402
-0.5994680941719053
0.004959624045363326
0.747427527442402
-0.5994680941719053
0.004959624045363326
0.747427527442402
-0.5994680941719053
0.004959624045363326
0.747427527442402
-0.6014708264128369
0.0033441169215646695
0.7472307225295817
-0.6014708264128369
0.0033441169215646695
0.7472307225295817
-0.6014708264128369
0.0033441169215646695
0.7472307225295817
-0.6014708264128369
0.0033441169215646695
0.7472307225295817
-0.6017954726626498
0.0013597487612999326
0.7470386817200398
-0.6017954726626498
0.0013597487612999326
0.7470386817200398
-0.6017954726626498
0.0013597487612999326
0.7470386817200398
-0.6017954726626498
0.0013597487612999326
0.7470386817200398
-0.6003858848480073
-0.0011696741288456539
0.7464254686057287
-0.6003858848480073
-0.0011696741288456539
0.7464254686057287
-0.6003858848480073
-0.0011696741288456539
0.7464254686057287
-0.6003858848480073
-0.0011696741288456539
0.7464254686057287
-0.5991364126894261
-0.0034709655262833814
0.7458577917850678
-0.5991364126894261
-0.0034709655262833814
0.7458577917850678
-0.5991364126894261
-0.0034709655262833814
0.7458577917850678
-0.5991364126894261
-0.0034709655262833814
0.7458577917850678
-0.5978341912421954
-0.005541369094349697
0.7452626414405987
-0.5978341912421954
-0.005541369094349697
0.7452626414405987
-0.5978341912421954
-0.005541369094349697
0.7452626414405987
-0.5978341912421954
-0.005541369094349697
0.7452626414405987
-0.5978797515255351
-0.006920094504398934
0.744715437167397
-0.5978797515255351
-0.006920094504398934
0.744715437167397
-0.5978797515255351
-0.006920094504398934
0.744715437167397
-0.5978797515255351
-0.006920094504398934
0.744715437167397
-0.599001099026165
-0.007657183138133646
0.7435913879377823
-0.599001099026165
-0.007657183138133646
0.7435913879377823
-0.599001099026165
-0.007657183138133646
0.7435913879377823
-0.599001099026165
-0.007657183138133646
0.7435913879377823
-0.5996993255248254
-0.007731363991173044
0.7424528690423462
-0.5996993255248254
-0.007731363991173044
0.7424528690423462
-0.5996993255248254
-0.007731363991173044
0.7424528690423462
-0.5996993255248254
-0.007731363991173044
0.7424528690423462
-0.6020184648031048
-0.007715622099739692
0.7413586427985198
-0.6020184648031048
-0.007715622099739692
0.7413586427985198
-0.6020184648031048
-0.007715622099739692
0.7413586427985198
-0.6020184648031048
-0.007715622099739692
0.7413586427985198
-0.6032301986731005
-0.007304267656462068
0.7402821253899522
-0.6032301986731005
-0.007304267656462068
0.7402821253899522
-0.6032301986731005
-0.007304267656462068
0.7402821253899522
-0.6032301986731005
-0.007304267656462068
0.7402821253899522
-0.6017164537210811
-0.007131833572993114
0.7396344609636981
-0.6017164537210811
-0.007131833572993114
0.7396344609636981
-0.6017164537210811
-0.007131833572993114
0.7396344609636981
-0.6017164537210811
-0.007131833572993114
0.7396344609636981
-0.6020994034806342
-0.006512895568915274
0.7389668736874269
-0.6020994034806342
-0.006512895568915274
0.7389668736874269
-0.6020994034806342
-0.006512895568915274
0.7389668736874269
-0.6020994034806342
-0.006512895568915274
0.7389668736874269
-0.6019643580970596
-0.006267362876959413
0.738605662289359
-0.6019643580970596
-0.006267362876959413
0.738605662289359
-0.6019643580970596
-0.006267362876959413
0.738605662289359
-0.6019643580970596
-0.006267362876959413
0.738605662289359
-0.6010113636874264
-0.005721760495671572
0.7384144939292707
-0.6010113636874264
-0.005721760495671572
0.7384144939292707
-0.6010113636874264
-0.005721760495671572
0.7384144939292707
-0.6010113636874264
-0.005721760495671572
0.7384144939292707
-0.6007538903756434
-0.004955388319534858
0.7385799684045748
-0.6007538903756434
-0.004955388319534858
0.7385799684045748
-0.6007538903756434
-0.004955388319534858
0.7385799684045748
-0.6007538903756434
-0.004955388319534858
0.7385799684045748
-0.6000910328161608
-0.004634465528923445
0.7386712431975896
-0.6000910328161608
-0.004634465528923445
0.7386712431975896
-0.6000910328161608
-0.004634465528923445
0.7386712431975896
-0.6000910328161608
-0.004634465528923445
0.7386712431975896
-0.6005743947056562
-0.0037447781807181265
0.7387274680257925
-0.6005743947056562
-0.0037447781807181265
0.7387274680257925
-0.6005743947056562
-0.0037447781807181265
0.7387274680257925
-0.6005743947056562
-0.0037447781807181265
0.7387274680257925
-0.6014255513368625
-0.0026352823821513965
0.7390462672167217
-0.6014255513368625
-0.0026352823821513965
0.7390462672167217
-0.6014255513368625
-0.0026352823821513965
0.7390462672167217
-0.6014255513368625
-0.0026352823821513965
0.7390462672167217
-0.60095347038917
-0.001960660193483394
0.7395977722210793
-0.60095347038917
-0.001960660193483394
0.7395977722210793
-0.60095347038917
-0.001960660193483394
0.7395977722210793
-0.60095347038917
-0.001960660193483394
0.7395977722210793
-0.6009483230373731
-0.0018465264696599661
0.7399660560472248
-0.6009483230373731
-0.0018465264696599661
0.7399660560472248
-0.6009483230373731
-0.0018465264696599661
0.7399660560472248
-0.6009483230373731
-0.0018465264696599661
0.7399660560472248
-0.6009638724084483
-0.0016857003626010233
0.7404852370676805
-0.6009638724084483
-0.0016857003626010233
0.7404852370676805
-0.6009638724084483
-0.0016857003626010233
0.7404852370676805
-0.6009638724084483
-0.0016857003626010233
0.7404852370676805
-0.6014976091215644
-0.0023152550771509545
0.7408463561702542
-0.6014976091215644
-0.0023152550771509545
0.7408463561702542
-0.6014976091215644
-0.0023152550771509545
0.7408463561702542
-0.6014976091215644
-0.0023152550771509545
0.7408463561702542
-0.6021576022695859
-0.002848300249286214
0.7409860063370124
-0.6021576022695859
-0.002848300249286214
0.7409860063370124
-0.6021576022695859
-0.002848300249286214
0.7409860063370124
-0.6021576022695859
-0.002848300249286214
0.7409860063370124
-0.6015857880492644
-0.003407017354112559
0.7412313640736465
-0.6015857880492644
-0.003407017354112559
0.7412313640736465
-0.6015857880492644
-0.003407017354112559
0.7412313640736465
-0.6015857880492644
-0.003407017354112559
0.7412313640736465
-0.6006254491461425
-0.00423263444854017
0.7410621084830726
-0.6006254491461425
-0.00423263444854017
0.7410621084830726
-0.6006254491461425
-0.00423263444854017
0.7410621084830726
-0.6006254491461425
-0.00423263444854017
0.7410621084830726
-0.6021339054296375
-0.005341370968616628
0.7409064388776437
-0.6021339054296375
-0.005341370968616628
0.7409064388776437
-0.6021339054296375
-0.005341370968616628
0.7409064388776437
-0.6021339054296375
-0.005341370968616628
0.7409064388776437
-0.6028408322143061
-0.00705952379323536
0.7411312661887819
-0.6028408322143061
-0.00705952379323536
0.7411312661887819
-0.6028408322143061
-0.00705952379323536
0.7411312661887819
-0.6028408322143061
-0.00705952379323536
0.7411312661887819
-0.6021204225820966
-0.009043132134659852
0.7413675503395409
-0.6021204225820966
-0.009043132134659852
0.7413675503395409
-0.6021204225820966
-0.009043132134659852
0.7413675503395409
-0.6021204225820966
-0.009043132134659852
0.7413675503395409
-0.6021575062990971
-0.010849117700639364
0.7412863857771033
-0.6021575062990971
-0.010849117700639364
0.7412863857771033
-0.6021575062990971
-0.010849117700639364
0.7412863857771033
-0.6021575062990971
-0.010849117700639364
0.7412863857771033
-0.6016280484935728
-0.012787645824273114
0.7409850326755165
-0.6016280484935728
-0.012787645824273114
0.7409850326755165
-0.6016280484935728
-0.012787645824273114
0.7409850326755165
-0.6016280484935728
-0.012787645824273114
0.7409850326755165
-0.6015096930311089
-0.014614562719946786
0.7409818987868486
-0.6015096930311089
-0.014614562719946786
0.7409818987868486
-0.6015096930311089
-0.014614562719946786
0.7409818987868486
-0.6015096930311089
-0.014614562719946786
0.7409818987868486
-0.6024829394254417
-0.016056527877015253
0.740887457884326
-0.6024829394254417
-0.016056527877015253
0.740887457884326
-0.6024829394254417
-0.016056527877015253
0.740887457884326
-0.6024829394254417
-0.016056527877015253
0.740887457884326
-0.6044074582469046
-0.017283539159794102
0.740305158612674
-0.6044074582469046
-0.017283539159794102
0.740305158612674
-0.6044074582469046
-0.017283539159794102
0.740305158612674
-0.6044074582469046
-0.017283539159794102
0.740305158612674
-0.6038195799314349
-0.01811782968534029
0.739659783002481
-0.6038195799314349
-0.01811782968534029
0.739659783002481
-0.6038195799314349
-0.01811782968534029
0.739659783002481
-0.6038195799314349
-0.01811782968534029
0.739659783002481
-0.6017553871569206
-0.018243781994390567
0.7391645762999274
-0.6017553871569206
-0.018243781994390567
0.7391645762999274
-0.6017553871569206
-0.018243781994390567
0.7391645762999274
-0.6017553871569206
-0.018243781994390567
0.7391645762999274
-0.6006589533211135
-0.01840774577623329
0.7386632132468892
-0.6006589533211135
-0.01840774577623329
0.7386632132468892
-0.6006589533211135
-0.01840774577623329
0.7386632132468892
-0.6006589533211135
-0.01840774577623329
0.7386632132468892
-0.6006045032724893
-0.018265069530321202
0.7387377828205184
-0.6006045032724893
-0.018265069530321202
0.7387377828205184
-0.6006045032724893
-0.018265069530321202
0.7387377828205184
-0.6006045032724893
-0.018265069530321202
0.7387377828205184
-0.6014810690985694
-0.01775275531333907
0.7384406219383333
-0.6014810690985694
-0.01775275531333907
0.7384406219383333
-0.6014810690985694
-0.01775275531333907
0.7384406219383333
-0.6014810690985694
-0.01775275531333907
0.7384406219383333
-0.6023899743183201
-0.01710184779068366
0.7380543791032855
-0.6023899743183201
-0.01710184779068366
0.7380543791032855
-0.6023899743183201
-0.01710184779068366
0.7380543791032855
-0.6023899743183201
-0.01710184779068366
0.7380543791032855
-0.6023818096891124
-0.01600724113112056
0.7371453188764003
-0.6023818096891124
-0.01600724113112056
0.7371453188764003
-0.6023818096891124
-0.01600724113112056
0.7371453188764003
-0.6023818096891124
-0.01600724113112056
0.7371453188764003
-0.6016161374870593
-0.01466715199754149
0.7362275871942898
-0.6016161374870593
-0.01466715199754149
0.7362275871942898
-0.6022461909863752
-0.01307755273915378
0.7352615122498769
-0.6022461909863752
-0.01307755273915378
0.7352615122498769
-0.6022461909863752
-0.01307755273915378
0.7352615122498769
-0.6022461909863752
-0.01307755273915378
0.7352615122498769
-0.6036617424524371
-0.010946146709145838
0.7346257641350797
-0.6036617424524371
-0.010946146709145838
0.7346257641350797
-0.6036617424524371
-0.010946146709145838
0.7346257641350797
-0.6036617424524371
-0.010946146709145838
0.7346257641350797
-0.6040448563295377
-0.008395464124951499
0.7344481277111347
-0.6040448563295377
-0.008395464124951499
0.7344481277111347
-0.6040448563295377
-0.008395464124951499
0.7344481277111347
-0.6040448563295377
-0.008395464124951499
0.7344481277111347
-0.6033635352734431
-0.005224560401872573
0.7344590141513703
-0.6033635352734431
-0.005224560401872573
0.7344590141513703
-0.6033635352734431
-0.005224560401872573
0.7344590141513703
-0.6033635352734431
-0.005224560401872573
0.7344590141513703
-0.6039493853647705
-0.0011693332702847105
0.7353085559434183
-0.6039493853647705
-0.0011693332702847105
0.7353085559434183
-0.6039493853647705
-0.0011693332702847105
0.7353085559434183
-0.6039493853647705
-0.0011693332702847105
0.7353085559434183
-0.6057426292328094
0.003587986090028867
0.7369267220950612
-0.6057426292328094
0.003587986090028867
0.7369267220950612
-0.6057426292328094
0.003587986090028867
0.7369267220950612
-0.6057426292328094
0.003587986090028867
0.7369267220950612
-0.6084229630204622
0.009016272893989354
0.7391042032059357
-0.6084229630204622
0.009016272893989354
0.7391042032059357
-0.6084229630204622
0.009016272893989354
0.7391042032059357
-0.6084229630204622
0.009016272893989354
0.7391042032059357
-0.6072538816872691
0.014478869380298541
0.7422469303240473
-0.6072538816872691
0.014478869380298541
0.7422469303240473
-0.6072538816872691
0.014478869380298541
0.7422469303240473
-0.6072538816872691
0.014478869380298541
0.7422469303240473
-0.6029258413750902
0.020313056219299803
0.7461031017922732
-0.6029258413750902
0.020313056219299803
0.7461031017922732
-0.6029258413750902
0.020313056219299803
0.7461031017922732
-0.6029258413750902
0.020313056219299803
0.7461031017922732
-0.5998344746570996
0.026371001225891044
0.7505318242781542
-0.5998344746570996
0.026371001225891044
0.7505318242781542
-0.5998344746570996
0.026371001225891044
0.7505318242781542
-0.5998344746570996
0.026371001225891044
0.7505318242781542
-0.5959410916303709
0.031804058659839624
0.7557741915355322
-0.5959410916303709
0.031804058659839624
0.7557741915355322
-0.5959410916303709
0.031804058659839624
0.7557741915355322
-0.5959410916303709
0.031804058659839624
0.7557741915355322
-0.5941989961180498
0.037116633849362736
0.761834779454085
-0.5941989961180498
0.037116633849362736
0.761834779454085
-0.5941989961180498
0.037116633849362736
0.761834779454085
-0.5941989961180498
0.037116633849362736
0.761834779454085
-0.5918292059900297
0.04088255498227074
0.7681726031123914
-0.5918292059900297
0.04088255498227074
0.7681726031123914
-0.5918292059900297
0.04088255498227074
0.7681726031123914
-0.5918292059900297
0.04088255498227074
0.7681726031123914
-0.5880160196133054
0.04183871630314186
0.7749695819304844
-0.5880160196133054
0.04183871630314186
0.7749695819304844
-0.5880160196133054
0.04183871630314186
0.7749695819304844
-0.5880160196133054
0.04183871630314186
0.7749695819304844
-0.5881957249075032
0.044290240368267335
0.7795315816188951
-0.5881957249075032
0.044290240368267335
0.7795315816188951
-0.5881957249075032
0.044290240368267335
0.7795315816188951
-0.5881957249075032
0.044290240368267335
0.7795315816188951
-0.5857427872334539
0.04561786596315069
0.783986000421197
-0.5857427872334539
0.04561786596315069
0.783986000421197
-0.5857427872334539
0.04561786596315069
0.783986000421197
-0.5857427872334539
0.04561786596315069
0.783986000421197
-0.578118013181066
0.04528417008788253
0.7906444263585142
-0.578118013181066
0.04528417008788253
0.7906444263585142
-0.578118013181066
0.04528417008788253
0.7906444263585142
-0.578118013181066
0.04528417008788253
0.7906444263585142
-0.5713106584344891
0.0431991366518014
0.7969109364726314
-0.5713106584344891
0.0431991366518014
0.7969109364726314
-0.5713106584344891
0.0431991366518014
0.7969109364726314
-0.5713106584344891
0.0431991366518014
0.7969109364726314
-0.5681055561164644
0.04038442755901205
0.8012820270390287
-0.5681055561164644
0.04038442755901205
0.8012820270390287
-0.5681055561164644
0.04038442755901205
0.8012820270390287
-0.5681055561164644
0.04038442755901205
0.8012820270390287
-0.5675911543155143
0.04141475552192103
0.8045327526957005
-0.5675911543155143
0.04141475552192103
0.8045327526957005
-0.5675911543155143
0.04141475552192103
0.8045327526957005
-0.5675911543155143
0.04141475552192103
0.8045327526957005
-0.5689926668710105
0.038077670807325506
0.8111572977629948
-0.5689926668710105
0.038077670807325506
0.8111572977629948
-0.5689926668710105
0.038077670807325506
0.8111572977629948
-0.5689926668710105
0.038077670807325506
0.8111572977629948
-0.5614734974431251
0.03257187069170789
0.8213280051402854
-0.5614734974431251
0.03257187069170789
0.8213280051402854
-0.5614734974431251
0.03257187069170789
0.8213280051402854
-0.5614734974431251
0.03257187069170789
0.8213280051402854
-0.551453828398985
0.0238511354363785
0.8332037167395441
-0.551453828398985
0.0238511354363785
0.8332037167395441
-0.551453828398985
0.0238511354363785
0.8332037167395441
-0.551453828398985
0.0238511354363785
0.8332037167395441
-0.5441557272815624
0.013646592744734301
0.8414555106862661
-0.5441557272815624
0.013646592744734301
0.8414555106862661
-0.5441557272815624
0.013646592744734301
0.8414555106862661
-0.5441557272815624
0.013646592744734301
0.8414555106862661
-0.5432340022325923
0.00511542879689011
0.8446991962439839
-0.5432340022325923
0.00511542879689011
0.8446991962439839
-0.5432340022325923
0.00511542879689011
0.8446991962439839
-0.5432340022325923
0.00511542879689011
0.8446991962439839
-0.5484936937560382
-0.004009880002394867
0.8483277061266085
-0.5484936937560382
-0.004009880002394867
0.8483277061266085
-0.5484936937560382
-0.004009880002394867
0.8483277061266085
-0.5484936937560382
-0.004009880002394867
0.8483277061266085
-0.5471709442940693
-0.013830971176916748
0.8562024704636689
-0.5471709442940693
-0.013830971176916748
0.8562024704636689
-0.5471709442940693
-0.013830971176916748
0.8562024704636689
-0.5471709442940693
-0.013830971176916748
0.8562024704636689
-0.5389914655961048
-0.023039689070144292
0.8642098189734821
-0.5389914655961048
-0.023039689070144292
0.8642098189734821
-0.5389914655961048
-0.023039689070144292
0.8642098189734821
-0.5389914655961048
-0.023039689070144292
0.8642098189734821
-0.5310862385557643
-0.028095874799624297
0.8683306213584735
-0.5310862385557643
-0.028095874799624297
0.8683306213584735
-0.5310862385557643
-0.028095874799624297
0.8683306213584735
-0.5310862385557643
-0.028095874799624297
0.8683306213584735
-0.5303789896836216
-0.029047241810410615
0.8680751455428717
-0.5303789896836216
-0.029047241810410615
0.8680751455428717
-0.5303789896836216
-0.029047241810410615
0.8680751455428717
-0.5303789896836216
-0.029047241810410615
0.8680751455428717
-0.5353984679432875
-0.029086892982386287
0.8671003447073852
-0.5353984679432875
-0.029086892982386287
0.8671003447073852
-0.5353984679432875
-0.029086892982386287
0.8671003447073852
-0.5353984679432875
-0.029086892982386287
0.8671003447073852
-0.5395576741094718
-0.029091091243525775
0.8688263445586165
-0.5395576741094718
-0.029091091243525775
0.8688263445586165
-0.5395576741094718
-0.029091091243525775
0.8688263445586165
-0.5395576741094718
-0.029091091243525775
0.8688263445586165
-0.5395801406185705
-0.02808406485228952
0.8714410156233029
-0.5395801406185705
-0.02808406485228952
0.8714410156233029
-0.5395801406185705
-0.02808406485228952
0.8714410156233029
-0.5395801406185705
-0.02808406485228952
0.8714410156233029
-0.537609525532431
-0.026347227372515228
0.8719677281547092
-0.537609525532431
-0.026347227372515228
0.8719677281547092
-0.537609525532431
-0.026347227372515228
0.8719677281547092
-0.537609525532431
-0.026347227372515228
0.8719677281547092
-0.5354652455786544
-0.024622173425248927
0.8705800051509833
-0.5354652455786544
-0.024622173425248927
0.8705800051509833
-0.5354652455786544
-0.024622173425248927
0.8705800051509833
-0.5354652455786544
-0.024622173425248927
0.8705800051509833
-0.5335172038533179
-0.023040309262890715
0.8688936105181513
-0.5335172038533179
-0.023040309262890715
0.8688936105181513
-0.5335172038533179
-0.023040309262890715
0.8688936105181513
-0.5335172038533179
-0.023040309262890715
0.8688936105181513
-0.531662630188543
-0.020485809221819952
0.8680784216165094
-0.531662630188543
-0.020485809221819952
0.8680784216165094
-0.531662630188543
-0.020485809221819952
0.8680784216165094
-0.531662630188543
-0.020485809221819952
0.8680784216165094
-0.531635472372649
-0.01739547600797853
0.8681998420839849
-0.531635472372649
-0.01739547600797853
0.8681998420839849
-0.531635472372649
-0.01739547600797853
0.8681998420839849
-0.531635472372649
-0.01739547600797853
0.8681998420839849
-0.5319628700239444
-0.013395627802733814
0.8679613954968037
-0.5319628700239444
-0.013395627802733814
0.8679613954968037
-0.5319628700239444
-0.013395627802733814
0.8679613954968037
-0.5319628700239444
-0.013395627802733814
0.8679613954968037
-0.5319641713164741
-0.008730557099254034
0.8661778789272854
-0.5319641713164741
-0.008730557099254034
0.8661778789272854
-0.5319641713164741
-0.008730557099254034
0.8661778789272854
-0.5319641713164741
-0.008730557099254034
0.8661778789272854
-0.5306647662533877
-0.0029682107077282508
0.8628657183076468
-0.5306647662533877
-0.0029682107077282508
0.8628657183076468
-0.5306647662533877
-0.0029682107077282508
0.8628657183076468
-0.5306647662533877
-0.0029682107077282508
0.8628657183076468
-0.5302125632324715
0.00248308955750978
0.8591234991632735
-0.5302125632324715
0.00248308955750978
0.8591234991632735
-0.5302125632324715
0.00248308955750978
0.8591234991632735
-0.5302125632324715
0.00248308955750978
0.8591234991632735
-0.5309489417300679
0.008515972847851837
0.8560064858957172
-0.5309489417300679
0.008515972847851837
0.8560064858957172
-0.5309489417300679
0.008515972847851837
0.8560064858957172
-0.5309489417300679
0.008515972847851837
0.8560064858957172
-0.5336464788483712
0.0138001753145147
0.854122556225007
-0.5336464788483712
0.0138001753145147
0.854122556225007
-0.5336464788483712
0.0138001753145147
0.854122556225007
-0.5336464788483712
0.0138001753145147
0.854122556225007
-0.5338211096641845
0.018200562066517073
0.8526351626674844
-0.5338211096641845
0.018200562066517073
0.8526351626674844
-0.5338211096641845
0.018200562066517073
0.8526351626674844
-0.5338211096641845
0.018200562066517073
0.8526351626674844
-0.5387213533601108
0.021450624006509728
0.8498273473087212
-0.5387213533601108
0.021450624006509728
0.8498273473087212
-0.5387213533601108
0.021450624006509728
0.8498273473087212
-0.5387213533601108
0.021450624006509728
0.8498273473087212
-0.5410889333423602
0.02405418883117311
0.8478625022632367
-0.5410889333423602
0.02405418883117311
0.8478625022632367
-0.5410889333423602
0.02405418883117311
0.8478625022632367
-0.5410889333423602
0.02405418883117311
0.8478625022632367
-0.5411866817311669
0.024486868951461842
0.8467766261991085
-0.5411866817311669
0.024486868951461842
0.8467766261991085
-0.5411866817311669
0.024486868951461842
0.8467766261991085
-0.5411866817311669
0.024486868951461842
0.8467766261991085
-0.5461646498980546
0.02735655600319895
0.8479532671460998
-0.5461646498980546
0.02735655600319895
0.8479532671460998
-0.5461646498980546
0.02735655600319895
0.8479532671460998
-0.5461646498980546
0.02735655600319895
0.8479532671460998
-0.5409239127673356
0.02656590442766334
0.8526096795140922
-0.5409239127673356
0.02656590442766334
0.8526096795140922
-0.5409239127673356
0.02656590442766334
0.8526096795140922
-0.5409239127673356
0.02656590442766334
0.8526096795140922
-0.5358724725967012
0.021202069322008785
0.854547475953152
-0.5358724725967012
0.021202069322008785
0.854547475953152
-0.5358724725967012
0.021202069322008785
0.854547475953152
-0.5358724725967012
0.021202069322008785
0.854547475953152
-0.5277490918168727
0.015589863498166334
0.847630190189466
-0.5277490918168727
0.015589863498166334
0.847630190189466
-0.5277490918168727
0.015589863498166334
0.847630190189466
-0.5277490918168727
0.015589863498166334
0.847630190189466
-0.5240172313901372
0.009456660597853866
0.8358246002424764
-0.5240172313901372
0.009456660597853866
0.8358246002424764
-0.5240172313901372
0.009456660597853866
0.8358246002424764
-0.5240172313901372
0.009456660597853866
0.8358246002424764
-0.5257154223543898
0.0023042139950908104
0.8234046779294788
-0.5257154223543898
0.0023042139950908104
0.8234046779294788
-0.5257154223543898
0.0023042139950908104
0.8234046779294788
-0.5257154223543898
0.0023042139950908104
0.8234046779294788
-0.5389379953853642
-0.0011983494200664528
0.8113450640756358
-0.5389379953853642
-0.0011983494200664528
0.8113450640756358
-0.5389379953853642
-0.0011983494200664528
0.8113450640756358
-0.5389379953853642
-0.0011983494200664528
0.8113450640756358
-0.5551227039234151
-0.002919743621672139
0.8012322681333525
-0.5551227039234151
-0.002919743621672139
0.8012322681333525
-0.5551227039234151
-0.002919743621672139
0.8012322681333525
-0.5551227039234151
-0.002919743621672139
0.8012322681333525
-0.5665976547420124
-0.004899336141721398
0.7938152756064872
-0.5665976547420124
-0.004899336141721398
0.7938152756064872
-0.5665976547420124
-0.004899336141721398
0.7938152756064872
-0.5665976547420124
-0.004899336141721398
0.7938152756064872
-0.5758722491630563
-0.008496733042466561
0.7876429476324976
-0.5758722491630563
-0.008496733042466561
0.7876429476324976
-0.5758722491630563
-0.008496733042466561
0.7876429476324976
-0.5758722491630563
-0.008496733042466561
0.7876429476324976
-0.5863310633875036
-0.01295702371564045
0.7817825114006833
-0.5863310633875036
-0.01295702371564045
0.7817825114006833
-0.5863310633875036
-0.01295702371564045
0.7817825114006833
-0.5863310633875036
-0.01295702371564045
0.7817825114006833
-0.5924942664145036
-0.017454632561373223
0.7768159887336157
-0.5924942664145036
-0.017454632561373223
0.7768159887336157
-0.5924942664145036
-0.017454632561373223
0.7768159887336157
-0.5924942664145036
-0.017454632561373223
0.7768159887336157
-0.5863983595866535
-0.022032196694381393
0.7716425912507754
-0.5863983595866535
-0.022032196694381393
0.7716425912507754
-0.5863983595866535
-0.022032196694381393
0.7716425912507754
-0.5863983595866535
-0.022032196694381393
0.7716425912507754
-0.5795845930447174
-0.02651451904835406
0.7695108515807088
-0.5795845930447174
-0.02651451904835406
0.7695108515807088
-0.5795845930447174
-0.02651451904835406
0.7695108515807088
-0.5795845930447174
-0.02651451904835406
0.7695108515807088
-0.5744849245267298
-0.03172680306487096
0.7689913210298615
-0.5744849245267298
-0.03172680306487096
0.7689913210298615
-0.5744849245267298
-0.03172680306487096
0.7689913210298615
-0.5744849245267298
-0.03172680306487096
0.7689913210298615
-0.5760985059814885
-0.034915288013376164
0.7671736646621911
-0.5760985059814885
-0.034915288013376164
0.7671736646621911
-0.5760985059814885
-0.034915288013376164
0.7671736646621911
-0.5760985059814885
-0.034915288013376164
0.7671736646621911
-0.5817047524202568
-0.034164368503211945
0.7653718415448727
-0.5817047524202568
-0.034164368503211945
0.7653718415448727
-0.5817047524202568
-0.034164368503211945
0.7653718415448727
-0.5817047524202568
-0.034164368503211945
0.7653718415448727
-0.5828875575067239
-0.03225271179356905
0.7637069838504312
-0.5828875575067239
-0.03225271179356905
0.7637069838504312
-0.5828875575067239
-0.03225271179356905
0.7637069838504312
-0.5828875575067239
-0.03225271179356905
0.7637069838504312
-0.5805368651134284
-0.03004708940731499
0.761802192559878
-0.5805368651134284
-0.03004708940731499
0.761802192559878
-0.5805368651134284
-0.03004708940731499
0.761802192559878
-0.5805368651134284
-0.03004708940731499
0.761802192559878
-0.5781609749675759
-0.026184275212556684
0.759884404075163
-0.5781609749675759
-0.026184275212556684
0.759884404075163
-0.5781609749675759
-0.026184275212556684
0.759884404075163
-0.5781609749675759
-0.026184275212556684
0.759884404075163
-0.5784841787686171
-0.021781855014115708
0.7590276872669364
-0.5784841787686171
-0.021781855014115708
0.7590276872669364
-0.5784841787686171
-0.021781855014115708
0.7590276872669364
-0.5784841787686171
-0.021781855014115708
0.7590276872669364
-0.5794364013700743
-0.018850011585118107
0.7597488949676966
-0.5794364013700743
-0.018850011585118107
0.7597488949676966
-0.5794364013700743
-0.018850011585118107
0.7597488949676966
-0.5794364013700743
-0.018850011585118107
0.7597488949676966
-0.5830244843053898
-0.017534528597106545
0.7607835746535607
-0.5830244843053898
-0.017534528597106545
0.7607835746535607
-0.5830244843053898
-0.017534528597106545
0.7607835746535607
-0.5830244843053898
-0.017534528597106545
0.7607835746535607
-0.5879764396182866
-0.01639857328335038
0.7612171108247036
-0.5879764396182866
-0.01639857328335038
0.7612171108247036
-0.5879764396182866
-0.01639857328335038
0.7612171108247036
-0.5879764396182866
-0.01639857328335038
0.7612171108247036
-0.5877179722750249
-0.014713837240727544
0.7612261435407937
-0.5877179722750249
-0.014713837240727544
0.7612261435407937
-0.5877179722750249
-0.014713837240727544
0.7612261435407937
-0.5877179722750249
-0.014713837240727544
0.7612261435407937
-0.5819032536842657
-0.013589432989471057
0.7612251802793955
-0.5819032536842657
-0.013589432989471057
0.7612251802793955
-0.5819032536842657
-0.013589432989471057
0.7612251802793955
-0.5819032536842657
-0.013589432989471057
0.7612251802793955
-0.5793825720543392
-0.012697701168522901
0.7615808880202313
-0.5793825720543392
-0.012697701168522901
0.7615808880202313
-0.5793825720543392
-0.012697701168522901
0.7615808880202313
-0.5793825720543392
-0.012697701168522901
0.7615808880202313
-0.5794105475855362
-0.012277209093932226
0.7629931123833761
-0.5794105475855362
-0.012277209093932226
0.7629931123833761
-0.5794105475855362
-0.012277209093932226
0.7629931123833761
-0.5794105475855362
-0.012277209093932226
0.7629931123833761
-0.5807440739156932
-0.011784429353424497
0.7642502882172338
-0.5807440739156932
-0.011784429353424497
0.7642502882172338
-0.5807440739156932
-0.011784429353424497
0.7642502882172338
-0.5807440739156932
-0.011784429353424497
0.7642502882172338
-0.5819400505858576
-0.011672420338672093
0.7653365305189119
-0.5819400505858576
-0.011672420338672093
0.7653365305189119
-0.5819400505858576
-0.011672420338672093
0.7653365305189119
-0.5819400505858576
-0.011672420338672093
0.7653365305189119
-0.580824064475285
-0.012111499537432027
0.7662411808533477
-0.580824064475285
-0.012111499537432027
0.7662411808533477
-0.580824064475285
-0.012111499537432027
0.7662411808533477
-0.580824064475285
-0.012111499537432027
0.7662411808533477
-0.5783527350933677
-0.012804058634019531
0.7659101347787909
-0.5783527350933677
-0.012804058634019531
0.7659101347787909
-0.5783527350933677
-0.012804058634019531
0.7659101347787909
-0.5783527350933677
-0.012804058634019531
0.7659101347787909
-0.5777606143456324
-0.014008139843758035
0.7649631120854137
-0.5777606143456324
-0.014008139843758035
0.7649631120854137
-0.5777606143456324
-0.014008139843758035
0.7649631120854137
-0.5777606143456324
-0.014008139843758035
0.7649631120854137
-0.5802701666696263
-0.014945346875559883
0.7634877339053193
-0.5802701666696263
-0.014945346875559883
0.7634877339053193
-0.5802701666696263
-0.014945346875559883
0.7634877339053193
-0.5802701666696263
-0.014945346875559883
0.7634877339053193
-0.5817586106053456
-0.015744350188988183
0.762957763697583
-0.5817586106053456
-0.015744350188988183
0.762957763697583
-0.5817586106053456
-0.015744350188988183
0.762957763697583
-0.5817586106053456
-0.015744350188988183
0.762957763697583
-0.583542297864027
-0.017182410423034755
0.7626704844600749
-0.583542297864027
-0.017182410423034755
0.7626704844600749
-0.583542297864027
-0.017182410423034755
0.7626704844600749
-0.583542297864027
-0.017182410423034755
0.7626704844600749
-0.5851930845399317
-0.018598623611892098
0.7626146126160099
-0.5851930845399317
-0.018598623611892098
0.7626146126160099
-0.5851930845399317
-0.018598623611892098
0.7626146126160099
-0.5851930845399317
-0.018598623611892098
0.7626146126160099
-0.5846485662821137
-0.020353310694118606
0.7625220488619295
-0.5846485662821137
-0.020353310694118606
0.7625220488619295
-0.5846485662821137
-0.020353310694118606
0.7625220488619295
-0.5846485662821137
-0.020353310694118606
0.7625220488619295
-0.5830509782801995
-0.02270900158756457
0.762786131491929
-0.5830509782801995
-0.02270900158756457
0.762786131491929
-0.5830509782801995
-0.02270900158756457
0.762786131491929
-0.5830509782801995
-0.02270900158756457
0.762786131491929
-0.5819216620095407
-0.025075634515950896
0.7627720784031762
-0.5819216620095407
-0.025075634515950896
0.7627720784031762
-0.5819216620095407
-0.025075634515950896
0.7627720784031762
-0.5819216620095407
-0.025075634515950896
0.7627720784031762
-0.5817294075057846
-0.027610094301034813
0.7628420443850532
-0.5817294075057846
-0.027610094301034813
0.7628420443850532
-0.5817294075057846
-0.027610094301034813
0.7628420443850532
-0.5817294075057846
-0.027610094301034813
0.7628420443850532
-0.5832426676249148
-0.029624297229642067
0.7628524728848817
-0.5832426676249148
-0.029624297229642067
0.7628524728848817
-0.5832426676249148
-0.029624297229642067
0.7628524728848817
-0.5832426676249148
-0.029624297229642067
0.7628524728848817
-0.5825569203621173
-0.03154519991488554
0.7623533663673772
-0.5825569203621173
-0.03154519991488554
0.7623533663673772
-0.5825569203621173
-0.03154519991488554
0.7623533663673772
-0.5825569203621173
-0.03154519991488554
0.7623533663673772
-0.5820637411335334
-0.03292232135458446
0.7616219571196837
-0.5820637411335334
-0.03292232135458446
0.7616219571196837
-0.5820637411335334
-0.03292232135458446
0.7616219571196837
-0.5820637411335334
-0.03292232135458446
0.7616219571196837
-0.5821559509092059
-0.03410137958798796
0.7607696611361578
-0.5821559509092059
-0.03410137958798796
0.7607696611361578
-0.5821559509092059
-0.03410137958798796
0.7607696611361578
-0.5821559509092059
-0.03410137958798796
0.7607696611361578
-0.5830286917566563
-0.03473138775946153
0.7602634246327417
-0.5830286917566563
-0.03473138775946153
0.7602634246327417
-0.5830286917566563
-0.03473138775946153
0.7602634246327417
-0.5830286917566563
-0.03473138775946153
0.7602634246327417
-0.583014815046751
-0.03429074678928731
0.759444517365507
-0.583014815046751
-0.03429074678928731
0.759444517365507
-0.583014815046751
-0.03429074678928731
0.759444517365507
-0.583014815046751
-0.03429074678928731
0.759444517365507
-0.5823924667850262
-0.03409156626023053
0.7585936051632761
-0.5823924667850262
-0.03409156626023053
0.7585936051632761
-0.5823924667850262
-0.03409156626023053
0.7585936051632761
-0.5823924667850262
-0.03409156626023053
0.7585936051632761
-0.5831634953295548
-0.033954101368046156
0.7575709299856438
-0.5831634953295548
-0.033954101368046156
0.7575709299856438
-0.5831634953295548
-0.033954101368046156
0.7575709299856438
-0.5831634953295548
-0.033954101368046156
0.7575709299856438
-0.5843359436780156
-0.03356756294870581
0.7563616500699453
-0.5843359436780156
-0.03356756294870581
0.7563616500699453
-0.5843359436780156
-0.03356756294870581
0.7563616500699453
-0.5843359436780156
-0.03356756294870581
0.7563616500699453
-0.5836494099585222
-0.03363130352333557
0.7551863346782026
-0.5836494099585222
-0.03363130352333557
0.7551863346782026
-0.5836494099585222
-0.03363130352333557
0.7551863346782026
-0.5836494099585222
-0.03363130352333557
0.7551863346782026
-0.5831037290451332
-0.032898935845879336
0.7542237267140391
-0.5831037290451332
-0.032898935845879336
0.7542237267140391
-0.5831037290451332
-0.032898935845879336
0.7542237267140391
-0.5831037290451332
-0.032898935845879336
0.7542237267140391
-0.5840815756825184
-0.031704814742932
0.7537373907521281
-0.5840815756825184
-0.031704814742932
0.7537373907521281
-0.5840815756825184
-0.031704814742932
0.7537373907521281
-0.5840815756825184
-0.031704814742932
0.7537373907521281
-0.5850917446580256
-0.030474746179663746
0.7537609017301798
-0.5850917446580256
-0.030474746179663746
0.7537609017301798
-0.5850917446580256
-0.030474746179663746
0.7537609017301798
-0.5850917446580256
-0.030474746179663746
0.7537609017301798
-0.586112455928284
-0.029166469488838567
0.7540436827590933
-0.586112455928284
-0.029166469488838567
0.7540436827590933
-0.586112455928284
-0.029166469488838567
0.7540436827590933
-0.586112455928284
-0.029166469488838567
0.7540436827590933
-0.5859145361778665
-0.028140570349495044
0.7545364491169563
-0.5859145361778665
-0.028140570349495044
0.7545364491169563
-0.5859145361778665
-0.028140570349495044
0.7545364491169563
-0.5859145361778665
-0.028140570349495044
0.7545364491169563
-0.5852693078916573
-0.027342162203948778
0.7552822523053138
-0.5852693078916573
-0.027342162203948778
0.7552822523053138
-0.5852693078916573
-0.027342162203948778
0.7552822523053138
-0.5852693078916573
-0.027342162203948778
0.7552822523053138
-0.5848422600575671
-0.02678415052839996
0.7558665642706213
-0.5848422600575671
-0.02678415052839996
0.7558665642706213
-0.5848422600575671
-0.02678415052839996
0.7558665642706213
-0.5848422600575671
-0.02678415052839996
0.7558665642706213
-0.5835115206243884
-0.026044001982032643
0.756408822204732
-0.5835115206243884
-0.026044001982032643
0.756408822204732
-0.5835115206243884
-0.026044001982032643
0.756408822204732
-0.5835115206243884
-0.026044001982032643
0.756408822204732
-0.5833359153828632
-0.02571483715143375
0.7568752413621553
-0.5833359153828632
-0.02571483715143375
0.7568752413621553
-0.5833359153828632
-0.02571483715143375
0.7568752413621553
-0.5833359153828632
-0.02571483715143375
0.7568752413621553
-0.5846184930123256
-0.025796579859062155
0.7571763958445293
-0.5846184930123256
-0.025796579859062155
0.7571763958445293
-0.5846184930123256
-0.025796579859062155
0.7571763958445293
-0.5846184930123256
-0.025796579859062155
0.7571763958445293
-0.5869137224610028
-0.02571410982103962
0.7571797861325477
-0.5869137224610028
-0.02571410982103962
0.7571797861325477
-0.5869137224610028
-0.02571410982103962
0.7571797861325477
-0.5869137224610028
-0.02571410982103962
0.7571797861325477
-0.5869470959712
-0.025702454941152197
0.7572234085084846
-0.5869470959712
-0.025702454941152197
0.7572234085084846
-0.5869470959712
-0.025702454941152197
0.7572234085084846
-0.5869470959712
-0.025702454941152197
0.7572234085084846
-0.5875478987333932
-0.026582524675855777
0.7571420484449648
-0.5875478987333932
-0.026582524675855777
0.7571420484449648
-0.5875478987333932
-0.026582524675855777
0.7571420484449648
-0.5875478987333932
-0.026582524675855777
0.7571420484449648
-0.5877660912427773
-0.027124397222637254
0.7573092368744763
-0.5877660912427773
-0.027124397222637254
0.7573092368744763
-0.5877660912427773
-0.027124397222637254
0.7573092368744763
-0.5877660912427773
-0.027124397222637254
0.7573092368744763
-0.5879967785412759
-0.02791498051061391
0.7575987247498008
-0.5879967785412759
-0.02791498051061391
0.7575987247498008
-0.5879967785412759
-0.02791498051061391
0.7575987247498008
-0.5879967785412759
-0.02791498051061391
0.7575987247498008
-0.5887622371288239
-0.02910835990008205
0.7576627882054375
-0.5887622371288239
-0.02910835990008205
0.7576627882054375
-0.5887622371288239
-0.02910835990008205
0.7576627882054375
-0.5887622371288239
-0.02910835990008205
0.7576627882054375
-0.5905189686557809
-0.030699977371648663
0.7578398643070768
-0.5905189686557809
-0.030699977371648663
0.7578398643070768
-0.5905189686557809
-0.030699977371648663
0.7578398643070768
-0.5905189686557809
-0.030699977371648663
0.7578398643070768
-0.5903736564678639
-0.03263437941503642
0.7580227990021241
-0.5903736564678639
-0.03263437941503642
0.7580227990021241
-0.5903736564678639
-0.03263437941503642
0.7580227990021241
-0.5903736564678639
-0.03263437941503642
0.7580227990021241
-0.5891939731608165
-0.034476052837763706
0.7580179849180276
-0.5891939731608165
-0.034476052837763706
0.7580179849180276
-0.5891939731608165
-0.034476052837763706
0.7580179849180276
-0.5891939731608165
-0.034476052837763706
0.7580179849180276
-0.5885038281157993
-0.03608652745381265
0.7581624968751779
-0.5885038281157993
-0.03608652745381265
0.7581624968751779
-0.5885038281157993
-0.03608652745381265
0.7581624968751779
-0.5885038281157993
-0.03608652745381265
0.7581624968751779
-0.5890545206750175
-0.037668589577837766
0.7585811984913263
-0.5890545206750175
-0.037668589577837766
0.7585811984913263
-0.5890545206750175
-0.037668589577837766
0.7585811984913263
-0.5890545206750175
-0.037668589577837766
0.7585811984913263
-0.589474798436124
-0.039339065462363654
0.7588595610955737
-0.589474798436124
-0.039339065462363654
0.7588595610955737
-0.589474798436124
-0.039339065462363654
0.7588595610955737
-0.589474798436124
-0.039339065462363654
0.7588595610955737
-0.5894242489910768
-0.0406794816299996
0.7585784465549561
-0.5894242489910768
-0.0406794816299996
0.7585784465549561
-0.5894242489910768
-0.0406794816299996
0.7585784465549561
-0.5894242489910768
-0.0406794816299996
0.7585784465549561
-0.5878906286198805
-0.0414397290107697
0.7580669789344912
-0.5878906286198805
-0.0414397290107697
0.7580669789344912
-0.5878906286198805
-0.0414397290107697
0.7580669789344912
-0.5878906286198805
-0.0414397290107697
0.7580669789344912
-0.5882347713093377
-0.04159982390948266
0.7570798845374929
-0.5882347713093377
-0.04159982390948266
0.7570798845374929
-0.5882347713093377
-0.04159982390948266
0.7570798845374929
-0.5882347713093377
-0.04159982390948266
0.7570798845374929
-0.5890108087099283
-0.041284137031504756
0.7557204446008771
-0.5890108087099283
-0.041284137031504756
0.7557204446008771
-0.5890108087099283
-0.041284137031504756
0.7557204446008771
-0.5890108087099283
-0.041284137031504756
0.7557204446008771
-0.5892088914750971
-0.040241909337722634
0.7543185447158223
-0.5892088914750971
-0.040241909337722634
0.7543185447158223
-0.5892088914750971
-0.040241909337722634
0.7543185447158223
-0.5892088914750971
-0.040241909337722634
0.7543185447158223
-0.5890061949560698
-0.03881993632108477
0.7529115319996504
-0.5890061949560698
-0.03881993632108477
0.7529115319996504
-0.5890061949560698
-0.03881993632108477
0.7529115319996504
-0.5890061949560698
-0.03881993632108477
0.7529115319996504
-0.5890778866480426
-0.036599362710676236
0.7519551493283778
-0.5890778866480426
-0.036599362710676236
0.7519551493283778
-0.5890778866480426
-0.036599362710676236
0.7519551493283778
-0.5890778866480426
-0.036599362710676236
0.7519551493283778
-0.5901745182999303
-0.03221776452144241
0.7518273607162423
-0.5901745182999303
-0.03221776452144241
0.7518273607162423
-0.5901745182999303
-0.03221776452144241
0.7518273607162423
-0.5901745182999303
-0.03221776452144241
0.7518273607162423
-0.5904973637487695
-0.026924961382111576
0.752568401863346
-0.5904973637487695
-0.026924961382111576
0.752568401863346
-0.5904973637487695
-0.026924961382111576
0.752568401863346
-0.5904973637487695
-0.026924961382111576
0.752568401863346
-0.5905854743667003
-0.020943736712932783
0.7536173440597879
-0.5905854743667003
-0.020943736712932783
0.7536173440597879
-0.5905854743667003
-0.020943736712932783
0.7536173440597879
-0.5905854743667003
-0.020943736712932783
0.7536173440597879
-0.5898509013803779
-0.014996328435041704
0.7546945237233555
-0.5898509013803779
-0.014996328435041704
0.7546945237233555
-0.5898509013803779
-0.014996328435041704
0.7546945237233555
-0.5898509013803779
-0.014996328435041704
0.7546945237233555
-0.5874735269825141
-0.009134088662942607
0.7563393949778336
-0.5874735269825141
-0.009134088662942607
0.7563393949778336
-0.5874735269825141
-0.009134088662942607
0.7563393949778336
-0.5874735269825141
-0.009134088662942607
0.7563393949778336
-0.5871904842560063
-0.0036573392131587917
0.7584716221811761
-0.5871904842560063
-0.0036573392131587917
0.7584716221811761
-0.5871904842560063
-0.0036573392131587917
0.7584716221811761
-0.5871904842560063
-0.0036573392131587917
0.7584716221811761
-0.5868747075222087
0.0028167092802511076
0.7603037322932714
-0.5868747075222087
0.0028167092802511076
0.7603037322932714
-0.5868747075222087
0.0028167092802511076
0.7603037322932714
-0.5868747075222087
0.0028167092802511076
0.7603037322932714
-0.5844437662988491
0.008866870686039162
0.7635766573268987
-0.5844437662988491
0.008866870686039162
0.7635766573268987
-0.5844437662988491
0.008866870686039162
0.7635766573268987
-0.5844437662988491
0.008866870686039162
0.7635766573268987
-0.5782450433647469
0.013977193905311967
0.7669771377516479
-0.5782450433647469
0.013977193905311967
0.7669771377516479
-0.5782450433647469
0.013977193905311967
0.7669771377516479
-0.5782450433647469
0.013977193905311967
0.7669771377516479
-0.5721213697913745
0.01863462493876548
0.7720717203650923
-0.5721213697913745
0.01863462493876548
0.7720717203650923
-0.5721213697913745
0.01863462493876548
0.7720717203650923
-0.5721213697913745
0.01863462493876548
0.7720717203650923
-0.5689193310306696
0.02109053770447144
0.7782986597299126
-0.5689193310306696
0.02109053770447144
0.7782986597299126
-0.5689193310306696
0.02109053770447144
0.7782986597299126
-0.5689193310306696
0.02109053770447144
0.7782986597299126
-0.5625777297694028
0.021548057325528138
0.7850368824758355
-0.5625777297694028
0.021548057325528138
0.7850368824758355
-0.5625777297694028
0.021548057325528138
0.7850368824758355
-0.5625777297694028
0.021548057325528138
0.7850368824758355
-0.5535824038689017
0.01985363176996032
0.7907459718277833
-0.5535824038689017
0.01985363176996032
0.7907459718277833
-0.5535824038689017
0.01985363176996032
0.7907459718277833
-0.5535824038689017
0.01985363176996032
0.7907459718277833
-0.543096728310928
0.017684568011560382
0.7937620197770754
-0.543096728310928
0.017684568011560382
0.7937620197770754
-0.543096728310928
0.017684568011560382
0.7937620197770754
-0.543096728310928
0.017684568011560382
0.7937620197770754
-0.540115862627856
0.01653332959050117
0.7960928843653214
-0.540115862627856
0.01653332959050117
0.7960928843653214
-0.540115862627856
0.01653332959050117
0.7960928843653214
-0.540115862627856
0.01653332959050117
0.7960928843653214
-0.5324052894646946
0.014638717189046037
0.8000436498051561
-0.5324052894646946
0.014638717189046037
0.8000436498051561
-0.5324052894646946
0.014638717189046037
0.8000436498051561
-0.5324052894646946
0.014638717189046037
0.8000436498051561
-0.5209575394145888
0.008532386297973423
0.8086871156701936
-0.5209575394145888
0.008532386297973423
0.8086871156701936
-0.5209575394145888
0.008532386297973423
0.8086871156701936
-0.5209575394145888
0.008532386297973423
0.8086871156701936
-0.5129027391269412
-0.0016123644252321254
0.820380609981283
-0.5129027391269412
-0.0016123644252321254
0.820380609981283
-0.5129027391269412
-0.0016123644252321254
0.820380609981283
-0.5129027391269412
-0.0016123644252321254
0.820380609981283
-0.5082134541229054
-0.01324743191089348
0.8296192318512283
-0.5082134541229054
-0.01324743191089348
0.8296192318512283
-0.5082134541229054
-0.01324743191089348
0.8296192318512283
-0.5082134541229054
-0.01324743191089348
0.8296192318512283
-0.511559395860737
-0.02138188047879337
0.8352245271850007
-0.511559395860737
-0.02138188047879337
0.8352245271850007
-0.511559395860737
-0.02138188047879337
0.8352245271850007
-0.511559395860737
-0.02138188047879337
0.8352245271850007
-0.5073185519704779
-0.0308008320070618
0.8403237628738806
-0.5073185519704779
-0.0308008320070618
0.8403237628738806
-0.5073185519704779
-0.0308008320070618
0.8403237628738806
-0.5073185519704779
-0.0308008320070618
0.8403237628738806
-0.4997873562658133
-0.042377361330573404
0.8489932386163922
-0.4997873562658133
-0.042377361330573404
0.8489932386163922
-0.4997873562658133
-0.042377361330573404
0.8489932386163922
-0.4997873562658133
-0.042377361330573404
0.8489932386163922
-0.4977055399874822
-0.05497388886884401
0.8586987677165847
-0.4977055399874822
-0.05497388886884401
0.8586987677165847
-0.4977055399874822
-0.05497388886884401
0.8586987677165847
-0.4977055399874822
-0.05497388886884401
0.8586987677165847
-0.49744108887924177
-0.06654108716912342
0.8654577188867397
-0.49744108887924177
-0.06654108716912342
0.8654577188867397
-0.49744108887924177
-0.06654108716912342
0.8654577188867397
-0.49744108887924177
-0.06654108716912342
0.8654577188867397
-0.495473061288294
-0.07403287778522674
0.86938155420714
-0.495473061288294
-0.07403287778522674
0.86938155420714
-0.495473061288294
-0.07403287778522674
0.86938155420714
-0.495473061288294
-0.07403287778522674
0.86938155420714
-0.490747888179459
-0.08090459735832026
0.8731502748867556
-0.490747888179459
-0.08090459735832026
0.8731502748867556
-0.490747888179459
-0.08090459735832026
0.8731502748867556
-0.490747888179459
-0.08090459735832026
0.8731502748867556
-0.4899140981580932
-0.08751567682795075
0.8769688897810618
-0.4899140981580932
-0.08751567682795075
0.8769688897810618
-0.4899140981580932
-0.08751567682795075
0.8769688897810618
-0.4899140981580932
-0.08751567682795075
0.8769688897810618
-0.4898548178178483
-0.09149178909874876
0.8793066282731338
-0.4898548178178483
-0.09149178909874876
0.8793066282731338
-0.4898548178178483
-0.09149178909874876
0.8793066282731338
-0.4898548178178483
-0.09149178909874876
0.8793066282731338
-0.4903812000209426
-0.09204601924331444
0.8800864200306275
-0.4903812000209426
-0.09204601924331444
0.8800864200306275
-0.4903812000209426
-0.09204601924331444
0.8800864200306275
-0.4903812000209426
-0.09204601924331444
0.8800864200306275
-0.49526272577208946
-0.0902776997209868
0.8804011673227592
-0.49526272577208946
-0.0902776997209868
0.8804011673227592
-0.49526272577208946
-0.0902776997209868
0.8804011673227592
-0.49526272577208946
-0.0902776997209868
0.8804011673227592
-0.4968094801573018
-0.08853620188518872
0.8805864844931189
-0.4968094801573018
-0.08853620188518872
0.8805864844931189
-0.4968094801573018
-0.08853620188518872
0.8805864844931189
-0.4968094801573018
-0.08853620188518872
0.8805864844931189
-0.49484329316868125
-0.08643282388813829
0.8815036294203403
-0.49484329316868125
-0.08643282388813829
0.8815036294203403
-0.49484329316868125
-0.08643282388813829
0.8815036294203403
-0.49484329316868125
-0.08643282388813829
0.8815036294203403
-0.49115581581903534
-0.0839769499731847
0.8813710211331183
-0.49115581581903534
-0.0839769499731847
0.8813710211331183
-0.49115581581903534
-0.0839769499731847
0.8813710211331183
-0.49115581581903534
-0.0839769499731847
0.8813710211331183
-0.48928035963416183
-0.08080475339085574
0.880064668501491
-0.48928035963416183
-0.08080475339085574
0.880064668501491
-0.48928035963416183
-0.08080475339085574
0.880064668501491
-0.48928035963416183
-0.08080475339085574
0.880064668501491
-0.4891134996785782
-0.07698617979293929
0.8782066290968159
-0.4891134996785782
-0.07698617979293929
0.8782066290968159
-0.4891134996785782
-0.07698617979293929
0.8782066290968159
-0.4891134996785782
-0.07698617979293929
0.8782066290968159
-0.4883477427122735
-0.07168001157357416
0.8761317336068902
-0.4883477427122735
-0.07168001157357416
0.8761317336068902
-0.4883477427122735
-0.07168001157357416
0.8761317336068902
-0.4883477427122735
-0.07168001157357416
0.8761317336068902
-0.4875894958686895
-0.06505769856678685
0.8736818917284996
-0.4875894958686895
-0.06505769856678685
0.8736818917284996
-0.4875894958686895
-0.06505769856678685
0.8736818917284996
-0.4875894958686895
-0.06505769856678685
0.8736818917284996
-0.4883420236092506
-0.05723427271891501
0.869955219930127
-0.4883420236092506
-0.05723427271891501
0.869955219930127
-0.4883420236092506
-0.05723427271891501
0.869955219930127
-0.4883420236092506
-0.05723427271891501
0.869955219930127
-0.48909856631116727
-0.048142778759786654
0.8652292355341096
-0.48909856631116727
-0.048142778759786654
0.8652292355341096
-0.48909856631116727
-0.048142778759786654
0.8652292355341096
-0.48909856631116727
-0.048142778759786654
0.8652292355341096
-0.494046642634875
-0.03887420795251125
0.8602769998904068
-0.494046642634875
-0.03887420795251125
0.8602769998904068
-0.494046642634875
-0.03887420795251125
0.8602769998904068
-0.494046642634875
-0.03887420795251125
0.8602769998904068
-0.4989612551707476
-0.02999706010476075
0.8562692972478999
-0.4989612551707476
-0.02999706010476075
0.8562692972478999
-0.4989612551707476
-0.02999706010476075
0.8562692972478999
-0.4989612551707476
-0.02999706010476075
0.8562692972478999
-0.5003694537530978
-0.021675072549264193
0.8537574443626844
-0.5003694537530978
-0.021675072549264193
0.8537574443626844
-0.5003694537530978
-0.021675072549264193
0.8537574443626844
-0.5003694537530978
-0.021675072549264193
0.8537574443626844
-0.5018977798851565
-0.015000227424925546
0.8516562841806583
-0.5018977798851565
-0.015000227424925546
0.8516562841806583
-0.5018977798851565
-0.015000227424925546
0.8516562841806583
-0.5018977798851565
-0.015000227424925546
0.8516562841806583
-0.5083370434116393
-0.007980139126486305
0.8477292424016322
-0.5083370434116393
-0.007980139126486305
0.8477292424016322
-0.5083370434116393
-0.007980139126486305
0.8477292424016322
-0.5083370434116393
-0.007980139126486305
0.8477292424016322
-0.5142864739594023
-0.0019260553270702085
0.844182870503714
-0.5142864739594023
-0.0019260553270702085
0.844182870503714
-0.5142864739594023
-0.0019260553270702085
0.844182870503714
-0.5142864739594023
-0.0019260553270702085
0.844182870503714
-0.5159186563863326
0.0021482127831214635
0.8416757695020761
-0.5159186563863326
0.0021482127831214635
0.8416757695020761
-0.5159186563863326
0.0021482127831214635
0.8416757695020761
-0.5159186563863326
0.0021482127831214635
0.8416757695020761
-0.5159553863453705
0.0046506969658442286
0.8385286749396278
-0.5159553863453705
0.0046506969658442286
0.8385286749396278
-0.5159553863453705
0.0046506969658442286
0.8385286749396278
-0.5159553863453705
0.0046506969658442286
0.8385286749396278
-0.5213314630971033
0.0067285151560516265
0.8332044181731814
-0.5213314630971033
0.0067285151560516265
0.8332044181731814
-0.5213314630971033
0.0067285151560516265
0.8332044181731814
-0.5213314630971033
0.0067285151560516265
0.8332044181731814
-0.523013622736086
0.006462147381106586
0.8274184165147812
-0.523013622736086
0.006462147381106586
0.8274184165147812
-0.523013622736086
0.006462147381106586
0.8274184165147812
-0.523013622736086
0.006462147381106586
0.8274184165147812
-0.5242474150948008
0.0012449122590896824
0.8198047736101157
-0.5242474150948008
0.0012449122590896824
0.8198047736101157
-0.5242474150948008
0.0012449122590896824
0.8198047736101157
-0.5242474150948008
0.0012449122590896824
0.8198047736101157
-0.5208390976468399
-0.005367972348938141
0.8108656471255737
-0.5208390976468399
-0.005367972348938141
0.8108656471255737
-0.5208390976468399
-0.005367972348938141
0.8108656471255737
-0.5208390976468399
-0.005367972348938141
0.8108656471255737
-0.5269927035925511
-0.011570491817051587
0.7999393684485293
-0.5269927035925511
-0.011570491817051587
0.7999393684485293
-0.5269927035925511
-0.011570491817051587
0.7999393684485293
-0.5269927035925511
-0.011570491817051587
0.7999393684485293
-0.5363163560629653
-0.014937099445569162
0.7882724612402429
-0.5363163560629653
-0.014937099445569162
0.7882724612402429
-0.5363163560629653
-0.014937099445569162
0.7882724612402429
-0.5363163560629653
-0.014937099445569162
0.7882724612402429
-0.5515647155805492
-0.017389174586279865
0.7800694293972003
-0.5515647155805492
-0.017389174586279865
0.7800694293972003
-0.5515647155805492
-0.017389174586279865
0.7800694293972003
-0.5515647155805492
-0.017389174586279865
0.7800694293972003
-0.5633243906306493
-0.022625227038146952
0.7727749946355554
-0.5633243906306493
-0.022625227038146952
0.7727749946355554
-0.5633243906306493
-0.022625227038146952
0.7727749946355554
-0.5633243906306493
-0.022625227038146952
0.7727749946355554
-0.5693336764408322
-0.030953358628099337
0.7645200462441324
-0.5693336764408322
-0.030953358628099337
0.7645200462441324
-0.5693336764408322
-0.030953358628099337
0.7645200462441324
-0.5693336764408322
-0.030953358628099337
0.7645200462441324
-0.5739354121467627
-0.03721118573731169
0.7574580558997043
-0.5739354121467627
-0.03721118573731169
0.7574580558997043
-0.5739354121467627
-0.03721118573731169
0.7574580558997043
-0.5739354121467627
-0.03721118573731169
0.7574580558997043
-0.5750524096963597
-0.042636355656741655
0.7518481864455551
-0.5750524096963597
-0.042636355656741655
0.7518481864455551
-0.5750524096963597
-0.042636355656741655
0.7518481864455551
-0.5750524096963597
-0.042636355656741655
0.7518481864455551
-0.5754626901352058
-0.04792296303220171
0.7472710139145223
-0.5754626901352058
-0.04792296303220171
0.7472710139145223
-0.5754626901352058
-0.04792296303220171
0.7472710139145223
-0.5754626901352058
-0.04792296303220171
0.7472710139145223
-0.5768667100351148
-0.04859627391504443
0.7449013363445798
-0.5768667100351148
-0.04859627391504443
0.7449013363445798
-0.5768667100351148
-0.04859627391504443
0.7449013363445798
-0.5768667100351148
-0.04859627391504443
0.7449013363445798
-0.5798152616662708
-0.04917789078935822
0.7437422936966346
-0.5798152616662708
-0.04917789078935822
0.7437422936966346
-0.5798152616662708
-0.04917789078935822
0.7437422936966346
-0.5798152616662708
-0.04917789078935822
0.7437422936966346
-0.5796423393628676
-0.04941080994281051
0.7427185199828137
-0.5796423393628676
-0.04941080994281051
0.7427185199828137
-0.5796423393628676
-0.04941080994281051
0.7427185199828137
-0.5796423393628676
-0.04941080994281051
0.7427185199828137
-0.5783114432125264
-0.04663303575950286
0.7421960166974595
-0.5783114432125264
-0.04663303575950286
0.7421960166974595
-0.5783114432125264
-0.04663303575950286
0.7421960166974595
-0.5783114432125264
-0.04663303575950286
0.7421960166974595
-0.5747189111323929
-0.04390925332448672
0.7416958882259368
-0.5747189111323929
-0.04390925332448672
0.7416958882259368
-0.5747189111323929
-0.04390925332448672
0.7416958882259368
-0.5747189111323929
-0.04390925332448672
0.7416958882259368
-0.574164755728021
-0.04099294061473347
0.7411327566311886
-0.574164755728021
-0.04099294061473347
0.7411327566311886
-0.574164755728021
-0.04099294061473347
0.7411327566311886
-0.574164755728021
-0.04099294061473347
0.7411327566311886
-0.5770862312103743
-0.03732578682007811
0.7400244495149457
-0.5770862312103743
-0.03732578682007811
0.7400244495149457
-0.5770862312103743
