-0.6508953671687115
0.0072963447101026145
0.9069146876072929
-0.6508953671687115
0.0072963447101026145
0.9069146876072929
-0.6511295410266412
0.006551801550820102
0.9069335843282859
-0.6511295410266412
0.006551801550820102
0.9069335843282859
-0.6511295410266412
0.006551801550820102
0.9069335843282859
-0.6511295410266412
0.006551801550820102
0.9069335843282859
-0.6516786809914605
0.006217481693008746
0.9068130211192759
-0.6516786809914605
0.006217481693008746
0.9068130211192759
-0.6516786809914605
0.006217481693008746
0.9068130211192759
-0.6516786809914605
0.006217481693008746
0.9068130211192759
-0.6524376591572859
0.0060706175553332424
0.9065692942714438
-0.6524376591572859
0.0060706175553332424
0.9065692942714438
-0.6524376591572859
0.0060706175553332424
0.9065692942714438
-0.6524376591572859
0.0060706175553332424
0.9065692942714438
-0.6531286511632868
0.006062615599679958
0.9063946140003443
-0.6531286511632868
0.006062615599679958
0.9063946140003443
-0.6531286511632868
0.006062615599679958
0.9063946140003443
-0.6531286511632868
0.006062615599679958
0.9063946140003443
-0.6531286511632868
0.006062615599679958
0.9063946140003443
-0.6531286511632868
0.006062615599679958
0.9063946140003443
-0.6531286511632868
0.006062615599679958
0.9063946140003443
-0.6531286511632868
0.006062615599679958
0.9063946140003443
-0.6530606720821885
0.006201657593520182
0.9064635630786806
-0.6530606720821885
0.006201657593520182
0.9064635630786806
-0.6530606720821885
0.006201657593520182
0.9064635630786806
-0.6530606720821885
0.006201657593520182
0.9064635630786806
-0.6534222149900888
0.006077116089430392
0.9064452588358323
-0.6534222149900888
0.006077116089430392
0.9064452588358323
-0.6534222149900888
0.006077116089430392
0.9064452588358323
-0.6534222149900888
0.006077116089430392
0.9064452588358323
-0.6537806406773481
0.00560642708508067
0.9062561600502151
-0.6537806406773481
0.00560642708508067
0.9062561600502151
-0.6537806406773481
0.00560642708508067
0.9062561600502151
-0.6537806406773481
0.00560642708508067
0.9062561600502151
-0.6533089639900146
0.005075911728165297
0.9062084776826284
-0.6533089639900146
0.005075911728165297
0.9062084776826284
-0.6533089639900146
0.005075911728165297
0.9062084776826284
-0.6533089639900146
0.005075911728165297
0.9062084776826284
-0.6527130016221828
0.004271436632340208
0.9063694194977379
-0.6527130016221828
0.004271436632340208
0.9063694194977379
-0.6527130016221828
0.004271436632340208
0.9063694194977379
-0.6527130016221828
0.004271436632340208
0.9063694194977379
-0.6532916838488437
0.003524873326515232
0.9067339918244133
-0.6532916838488437
0.003524873326515232
0.9067339918244133
-0.6532916838488437
0.003524873326515232
0.9067339918244133
-0.6532916838488437
0.003524873326515232
0.9067339918244133
-0.6538560668755903
0.003072143268816897
0.9071152937067843
-0.6538560668755903
0.003072143268816897
0.9071152937067843
-0.6538560668755903
0.003072143268816897
0.9071152937067843
-0.6538560668755903
0.003072143268816897
0.9071152937067843
-0.6540224858333358
0.0024666841407386406
0.9072045359948439
-0.6540224858333358
0.0024666841407386406
0.9072045359948439
-0.6540224858333358
0.0024666841407386406
0.9072045359948439
-0.6540224858333358
0.0024666841407386406
0.9072045359948439
-0.6539485885943117
0.002001179402925281
0.9071901431771601
-0.6539485885943117
0.002001179402925281
0.9071901431771601
-0.6539485885943117
0.002001179402925281
0.9071901431771601
-0.6539485885943117
0.002001179402925281
0.9071901431771601
-0.6536201419237742
0.0019721031778451473
0.9076044043750136
-0.6536201419237742
0.0019721031778451473
0.9076044043750136
-0.6536201419237742
0.0019721031778451473
0.9076044043750136
-0.6536201419237742
0.0019721031778451473
0.9076044043750136
-0.6532925063255695
0.0021153433697918026
0.9080194977037384
-0.6532925063255695
0.0021153433697918026
0.9080194977037384
-0.6532925063255695
0.0021153433697918026
0.9080194977037384
-0.6532925063255695
0.0021153433697918026
0.9080194977037384
-0.6532418418058477
0.0022192608053666347
0.907984354988155
-0.6532418418058477
0.0022192608053666347
0.907984354988155
-0.6532418418058477
0.0022192608053666347
0.907984354988155
-0.6532418418058477
0.0022192608053666347
0.907984354988155
-0.6532418418058477
0.0022192608053666347
0.907984354988155
-0.6532418418058477
0.0022192608053666347
0.907984354988155
-0.6532418418058477
0.0022192608053666347
0.907984354988155
-0.6532418418058477
0.0022192608053666347
0.907984354988155
-0.653191180061888
0.0023231817941437353
0.9079492169298505
-0.653191180061888
0.0023231817941437353
0.9079492169298505
-0.653191180061888
0.0023231817941437353
0.9079492169298505
-0.653191180061888
0.0023231817941437353
0.9079492169298505
-0.653191180061888
0.0023231817941437353
0.9079492169298505
-0.653191180061888
0.0023231817941437353
0.9079492169298505
-0.653191180061888
0.0023231817941437353
0.9079492169298505
-0.653191180061888
0.0023231817941437353
0.9079492169298505
-0.6533302424861275
0.002391141111571223
0.907982579215445
-0.6533302424861275
0.002391141111571223
0.907982579215445
-0.6533302424861275
0.002391141111571223
0.907982579215445
-0.6533302424861275
0.002391141111571223
0.907982579215445
-0.6533302424861275
0.002391141111571223
0.907982579215445
-0.6533302424861275
0.002391141111571223
0.907982579215445
-0.6533302424861275
0.002391141111571223
0.907982579215445
-0.6533302424861275
0.002391141111571223
0.907982579215445
-0.6534341650174613
0.002441800609658017
0.9079652741592716
-0.6534341650174613
0.002441800609658017
0.9079652741592716
-0.6534341650174613
0.002441800609658017
0.9079652741592716
-0.6534341650174613
0.002441800609658017
0.9079652741592716
-0.6538317272537665
0.0025071663373219654
0.9079991423534228
-0.6538317272537665
0.0025071663373219654
0.9079991423534228
-0.6538317272537665
0.0025071663373219654
0.9079991423534228
-0.6538317272537665
0.0025071663373219654
0.9079991423534228
-0.6541248445702363
0.002434203534384016
0.9077918474799568
-0.6541248445702363
0.002434203534384016
0.9077918474799568
-0.6541248445702363
0.002434203534384016
0.9077918474799568
-0.6541248445702363
0.002434203534384016
0.9077918474799568
-0.65417548882698
0.0023302925659426646
0.9078270330980471
-0.65417548882698
0.0023302925659426646
0.9078270330980471
-0.65417548882698
0.0023302925659426646
0.9078270330980471
-0.65417548882698
0.0023302925659426646
0.9078270330980471
-0.6542287562349931
0.0024848444575372676
0.9077745237668913
-0.6542287562349931
0.0024848444575372676
0.9077745237668913
-0.6542287562349931
0.0024848444575372676
0.9077745237668913
-0.6542287562349931
0.0024848444575372676
0.9077745237668913
-0.6541258802799426
0.0026095796449268874
0.9083087866870108
-0.6541258802799426
0.0026095796449268874
0.9083087866870108
-0.6541258802799426
0.0026095796449268874
0.9083087866870108
-0.6541258802799426
0.0026095796449268874
0.9083087866870108
-0.6536070950583501
0.002528626639479876
0.9083961849435341
-0.6536070950583501
0.002528626639479876
0.9083961849435341
-0.6536070950583501
0.002528626639479876
0.9083961849435341
-0.6536070950583501
0.002528626639479876
0.9083961849435341
-0.6535533377309749
0.0022864238950748173
0.9081901561197127
-0.6535533377309749
0.0022864238950748173
0.9081901561197127
-0.6535533377309749
0.0022864238950748173
0.9081901561197127
-0.6535533377309749
0.0022864238950748173
0.9081901561197127
-0.6535533377309749
0.0022864238950748173
0.9081901561197127
-0.6535533377309749
0.0022864238950748173
0.9081901561197127
-0.6535533377309749
0.0022864238950748173
0.9081901561197127
-0.6535533377309749
0.0022864238950748173
0.9081901561197127
-0.6544368745440651
0.002589167768657891
0.9082560483178669
-0.6544368745440651
0.002589167768657891
0.9082560483178669
-0.6544368745440651
0.002589167768657891
0.9082560483178669
-0.6544368745440651
0.002589167768657891
0.9082560483178669
-0.6549417745022661
0.003139291828940341
0.9087015686146686
-0.6549417745022661
0.003139291828940341
0.9087015686146686
-0.6549417745022661
0.003139291828940341
0.9087015686146686
-0.6549417745022661
0.003139291828940341
0.9087015686146686
-0.6552234261623091
0.003794035116480935
0.9089392829168756
-0.6552234261623091
0.003794035116480935
0.9089392829168756
-0.6552234261623091
0.003794035116480935
0.9089392829168756
-0.6552234261623091
0.003794035116480935
0.9089392829168756
-0.6550084889966934
0.004761598848104184
0.9087268148667407
-0.6550084889966934
0.004761598848104184
0.9087268148667407
-0.6550084889966934
0.004761598848104184
0.9087268148667407
-0.6550084889966934
0.004761598848104184
0.9087268148667407
-0.653682229538812
0.005013991665208712
0.9084181255369832
-0.653682229538812
0.005013991665208712
0.9084181255369832
-0.653682229538812
0.005013991665208712
0.9084181255369832
-0.653682229538812
0.005013991665208712
0.9084181255369832
-0.6528777140026651
0.005606234188776034
0.9079341889378009
-0.6528777140026651
0.005606234188776034
0.9079341889378009
-0.6528777140026651
0.005606234188776034
0.9079341889378009
-0.6528777140026651
0.005606234188776034
0.9079341889378009
-0.6530756608416183
0.006521001488557401
0.9082567427855452
-0.6530756608416183
0.006521001488557401
0.9082567427855452
-0.6530756608416183
0.006521001488557401
0.9082567427855452
-0.6530756608416183
0.006521001488557401
0.9082567427855452
-0.6534334085884598
0.007899527930274299
0.9084213562525362
-0.6534334085884598
0.007899527930274299
0.9084213562525362
-0.6534334085884598
0.007899527930274299
0.9084213562525362
-0.6534334085884598
0.007899527930274299
0.9084213562525362
-0.6528628147235048
0.009596090439787102
0.9083124197206691
-0.6528628147235048
0.009596090439787102
0.9083124197206691
-0.6528628147235048
0.009596090439787102
0.9083124197206691
-0.6528628147235048
0.009596090439787102
0.9083124197206691
-0.6502107860203187
0.011604464296624362
0.907540754939327
-0.6502107860203187
0.011604464296624362
0.907540754939327
-0.6502107860203187
0.011604464296624362
0.907540754939327
-0.6502107860203187
0.011604464296624362
0.907540754939327
-0.6471107255144357
0.014086090119812513
0.90748572414382
-0.6471107255144357
0.014086090119812513
0.90748572414382
-0.6471107255144357
0.014086090119812513
0.90748572414382
-0.6471107255144357
0.014086090119812513
0.90748572414382
-0.6450650339758971
0.016868593684241196
0.9076705811157255
-0.6450650339758971
0.016868593684241196
0.9076705811157255
-0.6450650339758971
0.016868593684241196
0.9076705811157255
-0.6450650339758971
0.016868593684241196
0.9076705811157255
-0.6432612971062263
0.02020099397607886
0.9083073180285849
-0.6432612971062263
0.02020099397607886
0.9083073180285849
-0.6432612971062263
0.02020099397607886
0.9083073180285849
-0.6432612971062263
0.02020099397607886
0.9083073180285849
-0.6404557005989273
0.02445828132493471
0.9080823664794717
-0.6404557005989273
0.02445828132493471
0.9080823664794717
-0.6404557005989273
0.02445828132493471
0.9080823664794717
-0.6404557005989273
0.02445828132493471
0.9080823664794717
-0.6376774420215954
0.03053030869540062
0.9072699840124301
-0.6376774420215954
0.03053030869540062
0.9072699840124301
-0.6376774420215954
0.03053030869540062
0.9072699840124301
-0.6376774420215954
0.03053030869540062
0.9072699840124301
-0.6364883972597115
0.037073869817449374
0.905997537750003
-0.6364883972597115
0.037073869817449374
0.905997537750003
-0.6364883972597115
0.037073869817449374
0.905997537750003
-0.6364883972597115
0.037073869817449374
0.905997537750003
-0.6363255563136989
0.044552168291176884
0.906008652181931
-0.6363255563136989
0.044552168291176884
0.906008652181931
-0.6363255563136989
0.044552168291176884
0.906008652181931
-0.6363255563136989
0.044552168291176884
0.906008652181931
-0.6372663442647555
0.05189266340088539
0.9073563306070517
-0.6372663442647555
0.05189266340088539
0.9073563306070517
-0.6372663442647555
0.05189266340088539
0.9073563306070517
-0.6372663442647555
0.05189266340088539
0.9073563306070517
-0.6384424787282783
0.05911236698759435
0.9097076091194407
-0.6384424787282783
0.05911236698759435
0.9097076091194407
-0.6384424787282783
0.05911236698759435
0.9097076091194407
-0.6384424787282783
0.05911236698759435
0.9097076091194407
-0.631740148589723
0.06660884341839886
0.9080476713051542
-0.631740148589723
0.06660884341839886
0.9080476713051542
-0.631740148589723
0.06660884341839886
0.9080476713051542
-0.631740148589723
0.06660884341839886
0.9080476713051542
-0.6248682752758774
0.06943543077996726
0.9122055610501353
-0.6248682752758774
0.06943543077996726
0.9122055610501353
-0.6248682752758774
0.06943543077996726
0.9122055610501353
-0.6248682752758774
0.06943543077996726
0.9122055610501353
-0.6131147625408626
0.06747356581085494
0.9222574616105719
-0.6131147625408626
0.06747356581085494
0.9222574616105719
-0.6131147625408626
0.06747356581085494
0.9222574616105719
-0.6131147625408626
0.06747356581085494
0.9222574616105719
-0.5760875283288391
0.05952181710043488
0.9142687971286634
-0.5760875283288391
0.05952181710043488
0.9142687971286634
-0.5760875283288391
0.05952181710043488
0.9142687971286634
-0.5760875283288391
0.05952181710043488
0.9142687971286634
-0.5638095559679577
0.0708566687107824
0.9146137809667345
-0.5638095559679577
0.0708566687107824
0.9146137809667345
-0.5638095559679577
0.0708566687107824
0.9146137809667345
-0.5638095559679577
0.0708566687107824
0.9146137809667345
-0.5581465436257201
0.07977708628056952
0.9212449907725765
-0.5581465436257201
0.07977708628056952
0.9212449907725765
-0.5581465436257201
0.07977708628056952
0.9212449907725765
-0.5581465436257201
0.07977708628056952
0.9212449907725765
-0.575933054645297
0.0763288958642532
0.9262117879466266
-0.575933054645297
0.0763288958642532
0.9262117879466266
-0.575933054645297
0.0763288958642532
0.9262117879466266
-0.575933054645297
0.0763288958642532
0.9262117879466266
-0.5834781313345074
0.06469188105432226
0.9243995562203553
-0.5834781313345074
0.06469188105432226
0.9243995562203553
-0.5834781313345074
0.06469188105432226
0.9243995562203553
-0.5834781313345074
0.06469188105432226
0.9243995562203553
-0.5757419954198651
0.057043182638722024
0.9241834721101017
-0.5757419954198651
0.057043182638722024
0.9241834721101017
-0.5757419954198651
0.057043182638722024
0.9241834721101017
-0.5757419954198651
0.057043182638722024
0.9241834721101017
-0.567556247839542
0.04835500191857553
0.9273527799527254
-0.567556247839542
0.04835500191857553
0.9273527799527254
-0.567556247839542
0.04835500191857553
0.9273527799527254
-0.567556247839542
0.04835500191857553
0.9273527799527254
-0.5635677605519231
0.04330582518834058
0.931411874934208
-0.5635677605519231
0.04330582518834058
0.931411874934208
-0.5635677605519231
0.04330582518834058
0.931411874934208
-0.5635677605519231
0.04330582518834058
0.931411874934208
-0.5593104997863668
0.04218611604760307
0.934948350413851
-0.5593104997863668
0.04218611604760307
0.934948350413851
-0.5593104997863668
0.04218611604760307
0.934948350413851
-0.5593104997863668
0.04218611604760307
0.934948350413851
-0.561739265265701
0.039924650022163874
0.93845034582824
-0.561739265265701
0.039924650022163874
0.93845034582824
-0.561739265265701
0.039924650022163874
0.93845034582824
-0.561739265265701
0.039924650022163874
0.93845034582824
-0.5628318170701289
0.03579390577679158
0.9398505027736738
-0.5628318170701289
0.03579390577679158
0.9398505027736738
-0.5628318170701289
0.03579390577679158
0.9398505027736738
-0.5628318170701289
0.03579390577679158
0.9398505027736738
-0.5576901400205307
0.034143095495289016
0.9398387719372374
-0.5576901400205307
0.034143095495289016
0.9398387719372374
-0.5576901400205307
0.034143095495289016
0.9398387719372374
-0.5576901400205307
0.034143095495289016
0.9398387719372374
-0.554401993625837
0.03531540585043943
0.9379083944935755
-0.554401993625837
0.03531540585043943
0.9379083944935755
-0.554401993625837
0.03531540585043943
0.9379083944935755
-0.554401993625837
0.03531540585043943
0.9379083944935755
-0.5567610795880676
0.03479673966494979
0.9373946532501987
-0.5567610795880676
0.03479673966494979
0.9373946532501987
-0.5567610795880676
0.03479673966494979
0.9373946532501987
-0.5567610795880676
0.03479673966494979
0.9373946532501987
-0.5596526984836181
0.03282447605382418
0.9377446760827384
-0.5596526984836181
0.03282447605382418
0.9377446760827384
-0.5596526984836181
0.03282447605382418
0.9377446760827384
-0.5596526984836181
0.03282447605382418
0.9377446760827384
-0.5570863226396855
0.03244264982646521
0.9374941036655208
-0.5570863226396855
0.03244264982646521
0.9374941036655208
-0.5570863226396855
0.03244264982646521
0.9374941036655208
-0.5570863226396855
0.03244264982646521
0.9374941036655208
-0.555212693602305
0.03259796275604981
0.9369095156623248
-0.555212693602305
0.03259796275604981
0.9369095156623248
-0.555212693602305
0.03259796275604981
0.9369095156623248
-0.555212693602305
0.03259796275604981
0.9369095156623248
-0.5535303971104084
0.032906579401543824
0.9360526281345033
-0.5535303971104084
0.032906579401543824
0.9360526281345033
-0.5535303971104084
0.032906579401543824
0.9360526281345033
-0.5535303971104084
0.032906579401543824
0.9360526281345033
-0.5541042143888868
0.03308924909841376
0.9366736427181871
-0.5541042143888868
0.03308924909841376
0.9366736427181871
-0.5541042143888868
0.03308924909841376
0.9366736427181871
-0.5541042143888868
0.03308924909841376
0.9366736427181871
-0.5532065459942722
0.03236131114090561
0.938141692524091
-0.5532065459942722
0.03236131114090561
0.938141692524091
-0.5532065459942722
0.03236131114090561
0.938141692524091
-0.5532065459942722
0.03236131114090561
0.938141692524091
-0.5507674733078258
0.032653912818698075
0.9390598146291197
-0.5507674733078258
0.032653912818698075
0.9390598146291197
-0.5507674733078258
0.032653912818698075
0.9390598146291197
-0.5507674733078258
0.032653912818698075
0.9390598146291197
-0.5493597837398261
0.03274550542324617
0.9384307218726518
-0.5493597837398261
0.03274550542324617
0.9384307218726518
-0.5493597837398261
0.03274550542324617
0.9384307218726518
-0.5493597837398261
0.03274550542324617
0.9384307218726518
-0.5493597837398261
0.03274550542324617
0.9384307218726518
-0.5493597837398261
0.03274550542324617
0.9384307218726518
-0.5493597837398261
0.03274550542324617
0.9384307218726518
-0.5493597837398261
0.03274550542324617
0.9384307218726518
-0.549691335637049
0.03182885321285575
0.9395921326133261
-0.549691335637049
0.03182885321285575
0.9395921326133261
-0.549691335637049
0.03182885321285575
0.9395921326133261
-0.549691335637049
0.03182885321285575
0.9395921326133261
-0.5463298816462215
0.030328951010920775
0.9398325453621298
-0.5463298816462215
0.030328951010920775
0.9398325453621298
-0.5463298816462215
0.030328951010920775
0.9398325453621298
-0.5463298816462215
0.030328951010920775
0.9398325453621298
-0.5423048556962771
0.029092974159339126
0.9392096002059039
-0.5423048556962771
0.029092974159339126
0.9392096002059039
-0.5423048556962771
0.029092974159339126
0.9392096002059039
-0.5423048556962771
0.029092974159339126
0.9392096002059039
-0.5409513056719251
0.02776704276196124
0.9389714008251884
-0.5409513056719251
0.02776704276196124
0.9389714008251884
-0.5409513056719251
0.02776704276196124
0.9389714008251884
-0.5409513056719251
0.02776704276196124
0.9389714008251884
-0.541130203852751
0.025582458182076204
0.939462001313487
-0.541130203852751
0.025582458182076204
0.939462001313487
-0.541130203852751
0.025582458182076204
0.939462001313487
-0.541130203852751
0.025582458182076204
0.939462001313487
-0.5393059825834907
0.023676539308708618
0.9400085105945316
-0.5393059825834907
0.023676539308708618
0.9400085105945316
-0.5393059825834907
0.023676539308708618
0.9400085105945316
-0.5393059825834907
0.023676539308708618
0.9400085105945316
-0.5356455325851972
0.022514301479301276
0.9400251887137907
-0.5356455325851972
0.022514301479301276
0.9400251887137907
-0.5356455325851972
0.022514301479301276
0.9400251887137907
-0.5356455325851972
0.022514301479301276
0.9400251887137907
-0.5354283130187761
0.020785057235291542
0.9403318420062755
-0.5354283130187761
0.020785057235291542
0.9403318420062755
-0.5354283130187761
0.020785057235291542
0.9403318420062755
-0.5354283130187761
0.020785057235291542
0.9403318420062755
-0.5343890659103824
0.019163848318321866
0.9404439953578454
-0.5343890659103824
0.019163848318321866
0.9404439953578454
-0.5343890659103824
0.019163848318321866
0.9404439953578454
-0.5343890659103824
0.019163848318321866
0.9404439953578454
-0.5317682456372046
0.018309950614909073
0.9396793974937774
-0.5317682456372046
0.018309950614909073
0.9396793974937774
-0.5317682456372046
0.018309950614909073
0.9396793974937774
-0.5317682456372046
0.018309950614909073
0.9396793974937774
-0.5294404168715635
0.017195530117182414
0.9383578124083217
-0.5294404168715635
0.017195530117182414
0.9383578124083217
-0.5294404168715635
0.017195530117182414
0.9383578124083217
-0.5294404168715635
0.017195530117182414
0.9383578124083217
-0.5295125175615728
0.015344769144930312
0.9371621710798422
-0.5295125175615728
0.015344769144930312
0.9371621710798422
-0.5295125175615728
0.015344769144930312
0.9371621710798422
-0.5295125175615728
0.015344769144930312
0.9371621710798422
-0.5294693436005886
0.014182051571734555
0.9366293516458762
-0.5294693436005886
0.014182051571734555
0.9366293516458762
-0.5294693436005886
0.014182051571734555
0.9366293516458762
-0.5294693436005886
0.014182051571734555
0.9366293516458762
-0.524774877780845
0.012767165561243106
0.9365278113138641
-0.524774877780845
0.012767165561243106
0.9365278113138641
-0.524774877780845
0.012767165561243106
0.9365278113138641
-0.524774877780845
0.012767165561243106
0.9365278113138641
-0.5208442296990929
0.010301917141001055
0.9358493215189486
-0.5208442296990929
0.010301917141001055
0.9358493215189486
-0.5208442296990929
0.010301917141001055
0.9358493215189486
-0.5208442296990929
0.010301917141001055
0.9358493215189486
-0.5202207553474517
0.008179045453045793
0.9348912669780707
-0.5202207553474517
0.008179045453045793
0.9348912669780707
-0.5202207553474517
0.008179045453045793
0.9348912669780707
-0.5202207553474517
0.008179045453045793
0.9348912669780707
-0.5197362460899801
0.007625839560710934
0.9343058579801409
-0.5197362460899801
0.007625839560710934
0.9343058579801409
-0.5197362460899801
0.007625839560710934
0.9343058579801409
-0.5197362460899801
0.007625839560710934
0.9343058579801409
-0.5194338119044608
0.007428179100104439
0.9335680825963248
-0.5194338119044608
0.007428179100104439
0.9335680825963248
-0.5194338119044608
0.007428179100104439
0.9335680825963248
-0.5194338119044608
0.007428179100104439
0.9335680825963248
-0.5175704180615921
0.0079592880782077
0.9321904737715692
-0.5175704180615921
0.0079592880782077
0.9321904737715692
-0.5175704180615921
0.0079592880782077
0.9321904737715692
-0.5175704180615921
0.0079592880782077
0.9321904737715692
-0.515946145008634
0.009140910211589559
0.9306986019222285
-0.515946145008634
0.009140910211589559
0.9306986019222285
-0.515946145008634
0.009140910211589559
0.9306986019222285
-0.515946145008634
0.009140910211589559
0.9306986019222285
-0.5149817069513798
0.010531004957001674
0.9297719193775456
-0.5149817069513798
0.010531004957001674
0.9297719193775456
-0.5149817069513798
0.010531004957001674
0.9297719193775456
-0.5149817069513798
0.010531004957001674
0.9297719193775456
-0.5167301598459033
0.011733017056745794
0.9293891276163985
-0.5167301598459033
0.011733017056745794
0.9293891276163985
-0.5167301598459033
0.011733017056745794
0.9293891276163985
-0.5167301598459033
0.011733017056745794
0.9293891276163985
-0.5158444343223344
0.013171545205304079
0.9290712101439181
-0.5158444343223344
0.013171545205304079
0.9290712101439181
-0.5158444343223344
0.013171545205304079
0.9290712101439181
-0.5158444343223344
0.013171545205304079
0.9290712101439181
-0.5148263663266682
0.0148070292014096
0.9286470729857215
-0.5148263663266682
0.0148070292014096
0.9286470729857215
-0.5148263663266682
0.0148070292014096
0.9286470729857215
-0.5148263663266682
0.0148070292014096
0.9286470729857215
-0.5154492344427312
0.016341118315566297
0.928464019134845
-0.5154492344427312
0.016341118315566297
0.928464019134845
-0.5154492344427312
0.016341118315566297
0.928464019134845
-0.5154492344427312
0.016341118315566297
0.928464019134845
-0.5158582086378619
0.017575617687164632
0.9286433599120528
-0.5158582086378619
0.017575617687164632
0.9286433599120528
-0.5149435005128974
0.018805464900683428
0.9286095084507282
-0.5149435005128974
0.018805464900683428
0.9286095084507282
-0.5149435005128974
0.018805464900683428
0.9286095084507282
-0.5149435005128974
0.018805464900683428
0.9286095084507282
-0.5155192583258794
0.01891687703838582
0.9279538512929753
-0.5155192583258794
0.01891687703838582
0.9279538512929753
-0.5155192583258794
0.01891687703838582
0.9279538512929753
-0.5155192583258794
0.01891687703838582
0.9279538512929753
-0.5150090955862988
0.018616201542052492
0.9272473935787855
-0.5150090955862988
0.018616201542052492
0.9272473935787855
-0.5150090955862988
0.018616201542052492
0.9272473935787855
-0.5150090955862988
0.018616201542052492
0.9272473935787855
-0.5158740454393949
0.01794962351067449
0.9268507324468156
-0.5158740454393949
0.01794962351067449
0.9268507324468156
-0.5158740454393949
0.01794962351067449
0.9268507324468156
-0.5158740454393949
0.01794962351067449
0.9268507324468156
-0.5174374039716613
0.017270382413290056
0.9266209340055903
-0.5174374039716613
0.017270382413290056
0.9266209340055903
-0.5174374039716613
0.017270382413290056
0.9266209340055903
-0.5174374039716613
0.017270382413290056
0.9266209340055903
-0.5207866711977088
0.016598160953100866
0.9268274610187582
-0.5207866711977088
0.016598160953100866
0.9268274610187582
-0.5207866711977088
0.016598160953100866
0.9268274610187582
-0.5207866711977088
0.016598160953100866
0.9268274610187582
-0.5219734777436746
0.015814145991134475
0.9274790392113158
-0.5219734777436746
0.015814145991134475
0.9274790392113158
-0.5219734777436746
0.015814145991134475
0.9274790392113158
-0.5219734777436746
0.015814145991134475
0.9274790392113158
-0.5210938999258549
0.015384219015322583
0.927995848677457
-0.5210938999258549
0.015384219015322583
0.927995848677457
-0.5210938999258549
0.015384219015322583
0.927995848677457
-0.5210938999258549
0.015384219015322583
0.927995848677457
-0.5202969287463047
0.014792951202909238
0.9283287353144226
-0.5202969287463047
0.014792951202909238
0.9283287353144226
-0.5202969287463047
0.014792951202909238
0.9283287353144226
-0.5202969287463047
0.014792951202909238
0.9283287353144226
-0.5214338125439604
0.013781145443664804
0.9287600235119506
-0.5214338125439604
0.013781145443664804
0.9287600235119506
-0.5214338125439604
0.013781145443664804
0.9287600235119506
-0.5214338125439604
0.013781145443664804
0.9287600235119506
-0.5232990352665922
0.012176154468167178
0.9292904039992363
-0.5232990352665922
0.012176154468167178
0.9292904039992363
-0.5232990352665922
0.012176154468167178
0.9292904039992363
-0.5232990352665922
0.012176154468167178
0.9292904039992363
-0.5230067028778691
0.010315896898426099
0.9297333821054804
-0.5230067028778691
0.010315896898426099
0.9297333821054804
-0.5230067028778691
0.010315896898426099
0.9297333821054804
-0.5230067028778691
0.010315896898426099
0.9297333821054804
-0.5216566623382957
0.007336147989501289
0.9306483002929193
-0.5216566623382957
0.007336147989501289
0.9306483002929193
-0.5216566623382957
0.007336147989501289
0.9306483002929193
-0.5216566623382957
0.007336147989501289
0.9306483002929193
-0.5202446627515999
0.0035567330339631247
0.9313197630215063
-0.5202446627515999
0.0035567330339631247
0.9313197630215063
-0.5202446627515999
0.0035567330339631247
0.9313197630215063
-0.5202446627515999
0.0035567330339631247
0.9313197630215063
-0.5201850332632482
-2.5925712099668276E-6
0.9323799246672726
-0.5201850332632482
-2.5925712099668276E-6
0.9323799246672726
-0.5201850332632482
-2.5925712099668276E-6
0.9323799246672726
-0.5201850332632482
-2.5925712099668276E-6
0.9323799246672726
-0.519692772787355
-0.0035525991216096555
0.9332669464065839
-0.519692772787355
-0.0035525991216096555
0.9332669464065839
-0.519692772787355
-0.0035525991216096555
0.9332669464065839
-0.519692772787355
-0.0035525991216096555
0.9332669464065839
-0.5194772286518722
-0.006408850040490336
0.9335735512360149
-0.5194772286518722
-0.006408850040490336
0.9335735512360149
-0.5194772286518722
-0.006408850040490336
0.9335735512360149
-0.5194772286518722
-0.006408850040490336
0.9335735512360149
-0.5205574078948211
-0.00848020732308694
0.9338470941802762
-0.5205574078948211
-0.00848020732308694
0.9338470941802762
-0.5205574078948211
-0.00848020732308694
0.9338470941802762
-0.5205574078948211
-0.00848020732308694
0.9338470941802762
-0.5225465993839035
-0.009001205042079777
0.9339966519431014
-0.5225465993839035
-0.009001205042079777
0.9339966519431014
-0.5225465993839035
-0.009001205042079777
0.9339966519431014
-0.5225465993839035
-0.009001205042079777
0.9339966519431014
-0.5239092812295987
-0.007134850441539444
0.9352557612425878
-0.5239092812295987
-0.007134850441539444
0.9352557612425878
-0.5239092812295987
-0.007134850441539444
0.9352557612425878
-0.5239092812295987
-0.007134850441539444
0.9352557612425878
-0.5250120388371191
-0.004092041495003818
0.9370997146669221
-0.5250120388371191
-0.004092041495003818
0.9370997146669221
-0.5250120388371191
-0.004092041495003818
0.9370997146669221
-0.5250120388371191
-0.004092041495003818
0.9370997146669221
-0.5253519930916312
-2.163817462917095E-4
0.9382637195268685
-0.5253519930916312
-2.163817462917095E-4
0.9382637195268685
-0.5253519930916312
-2.163817462917095E-4
0.9382637195268685
-0.5253519930916312
-2.163817462917095E-4
0.9382637195268685
-0.525308966495926
0.005296132666781613
0.9377422397010298
-0.525308966495926
0.005296132666781613
0.9377422397010298
-0.525308966495926
0.005296132666781613
0.9377422397010298
-0.525308966495926
0.005296132666781613
0.9377422397010298
-0.5263159619891902
0.01267102875766437
0.9359241239674645
-0.5263159619891902
0.01267102875766437
0.9359241239674645
-0.5263159619891902
0.01267102875766437
0.9359241239674645
-0.5263159619891902
0.01267102875766437
0.9359241239674645
-0.5316323157005404
0.022773619955877327
0.9340517176358332
-0.5316323157005404
0.022773619955877327
0.9340517176358332
-0.5316323157005404
0.022773619955877327
0.9340517176358332
-0.5316323157005404
0.022773619955877327
0.9340517176358332
-0.5402705530027324
0.03388854514176144
0.9318467895755359
-0.5402705530027324
0.03388854514176144
0.9318467895755359
-0.5402705530027324
0.03388854514176144
0.9318467895755359
-0.5402705530027324
0.03388854514176144
0.9318467895755359
-0.5381388556202329
0.04450848934833586
0.9297462785503686
-0.5381388556202329
0.04450848934833586
0.9297462785503686
-0.5381388556202329
0.04450848934833586
0.9297462785503686
-0.5381388556202329
0.04450848934833586
0.9297462785503686
-0.5332556702289296
0.053202200974593016
0.927308746270006
-0.5332556702289296
0.053202200974593016
0.927308746270006
-0.5332556702289296
0.053202200974593016
0.927308746270006
-0.5332556702289296
0.053202200974593016
0.927308746270006
-0.5283008890993214
0.05832501222730481
0.9229439922214965
-0.5283008890993214
0.05832501222730481
0.9229439922214965
-0.5283008890993214
0.05832501222730481
0.9229439922214965
-0.5283008890993214
0.05832501222730481
0.9229439922214965
-0.5272597692492501
0.0660960607372787
0.9169729345145745
-0.5272597692492501
0.0660960607372787
0.9169729345145745
-0.5272597692492501
0.0660960607372787
0.9169729345145745
-0.5272597692492501
0.0660960607372787
0.9169729345145745
-0.5287023466167304
0.07285099604242067
0.9115851455716575
-0.5287023466167304
0.07285099604242067
0.9115851455716575
-0.5287023466167304
0.07285099604242067
0.9115851455716575
-0.5287023466167304
0.07285099604242067
0.9115851455716575
-0.5380016877209757
0.07691838677771157
0.9091970667609314
-0.5380016877209757
0.07691838677771157
0.9091970667609314
-0.5380016877209757
0.07691838677771157
0.9091970667609314
-0.5380016877209757
0.07691838677771157
0.9091970667609314
-0.551005162144106
0.07699956255700816
0.9047802261245352
-0.551005162144106
0.07699956255700816
0.9047802261245352
-0.551005162144106
0.07699956255700816
0.9047802261245352
-0.551005162144106
0.07699956255700816
0.9047802261245352
-0.5578838801946683
0.07382249754385829
0.9002335527955064
-0.5578838801946683
0.07382249754385829
0.9002335527955064
-0.5578838801946683
0.07382249754385829
0.9002335527955064
-0.5578838801946683
0.07382249754385829
0.9002335527955064
-0.5576166319884043
0.07149841845642921
0.8952861120761675
-0.5576166319884043
0.07149841845642921
0.8952861120761675
-0.5576166319884043
0.07149841845642921
0.8952861120761675
-0.5576166319884043
0.07149841845642921
0.8952861120761675
-0.5559648843149114
0.06894017129198847
0.8908583067120757
-0.5559648843149114
0.06894017129198847
0.8908583067120757
-0.5559648843149114
0.06894017129198847
0.8908583067120757
-0.5559648843149114
0.06894017129198847
0.8908583067120757
-0.5563487637484222
0.062112706223679544
0.887060523279383
-0.5563487637484222
0.062112706223679544
0.887060523279383
-0.5563487637484222
0.062112706223679544
0.887060523279383
-0.5563487637484222
0.062112706223679544
0.887060523279383
-0.5584132110043465
0.054621914614062475
0.8826013828488171
-0.5584132110043465
0.054621914614062475
0.8826013828488171
-0.5584132110043465
0.054621914614062475
0.8826013828488171
-0.5584132110043465
0.054621914614062475
0.8826013828488171
-0.561735229115674
0.04719738906532537
0.8800879474348682
-0.561735229115674
0.04719738906532537
0.8800879474348682
-0.561735229115674
0.04719738906532537
0.8800879474348682
-0.561735229115674
0.04719738906532537
0.8800879474348682
-0.5650753518589081
0.03758780028949149
0.8810736468830501
-0.5650753518589081
0.03758780028949149
0.8810736468830501
-0.5650753518589081
0.03758780028949149
0.8810736468830501
-0.5650753518589081
0.03758780028949149
0.8810736468830501
-0.5635888194637754
0.026297165394878544
0.8846126704274938
-0.5635888194637754
0.026297165394878544
0.8846126704274938
-0.5635888194637754
0.026297165394878544
0.8846126704274938
-0.5635888194637754
0.026297165394878544
0.8846126704274938
-0.561298375261431
0.015115670365220314
0.8870864512300605
-0.561298375261431
0.015115670365220314
0.8870864512300605
-0.561298375261431
0.015115670365220314
0.8870864512300605
-0.561298375261431
0.015115670365220314
0.8870864512300605
-0.5605922237854899
0.004921380603395543
0.8865642388274946
-0.5605922237854899
0.004921380603395543
0.8865642388274946
-0.5605922237854899
0.004921380603395543
0.8865642388274946
-0.5605922237854899
0.004921380603395543
0.8865642388274946
-0.5594108095065626
-0.0028798240195810425
0.8848386296513475
-0.5594108095065626
-0.0028798240195810425
0.8848386296513475
-0.5594108095065626
-0.0028798240195810425
0.8848386296513475
-0.5594108095065626
-0.0028798240195810425
0.8848386296513475
-0.5565452582389205
-0.009396675950092656
0.8854643911928353
-0.5565452582389205
-0.009396675950092656
0.8854643911928353
-0.5565452582389205
-0.009396675950092656
0.8854643911928353
-0.5565452582389205
-0.009396675950092656
0.8854643911928353
-0.5552634178635816
-0.013706073296862072
0.887773161170958
-0.5552634178635816
-0.013706073296862072
0.887773161170958
-0.5552634178635816
-0.013706073296862072
0.887773161170958
-0.5552634178635816
-0.013706073296862072
0.887773161170958
-0.5555922488969915
-0.015266093509557738
0.8896936601233878
-0.5555922488969915
-0.015266093509557738
0.8896936601233878
-0.5555922488969915
-0.015266093509557738
0.8896936601233878
-0.5555922488969915
-0.015266093509557738
0.8896936601233878
-0.5565498677176476
-0.01463876790895382
0.888779666088934
-0.5565498677176476
-0.01463876790895382
0.888779666088934
-0.5565498677176476
-0.01463876790895382
0.888779666088934
-0.5565498677176476
-0.01463876790895382
0.888779666088934
-0.5577492910969442
-0.010980762480063161
0.8867693284668934
-0.5577492910969442
-0.010980762480063161
0.8867693284668934
-0.5577492910969442
-0.010980762480063161
0.8867693284668934
-0.5577492910969442
-0.010980762480063161
0.8867693284668934
-0.5560567740435349
-0.005471278737728085
0.8852534025044486
-0.5560567740435349
-0.005471278737728085
0.8852534025044486
-0.5560567740435349
-0.005471278737728085
0.8852534025044486
-0.5560567740435349
-0.005471278737728085
0.8852534025044486
-0.5525328077421303
0.0010209316414106185
0.8862634115531011
-0.5525328077421303
0.0010209316414106185
0.8862634115531011
-0.5525328077421303
0.0010209316414106185
0.8862634115531011
-0.5525328077421303
0.0010209316414106185
0.8862634115531011
-0.5502091819580853
0.008640335789579286
0.887359345329957
-0.5502091819580853
0.008640335789579286
0.887359345329957
-0.5502091819580853
0.008640335789579286
0.887359345329957
-0.5502091819580853
0.008640335789579286
0.887359345329957
-0.5490825627663648
0.016181049663375278
0.8866636486713179
-0.5490825627663648
0.016181049663375278
0.8866636486713179
-0.5490825627663648
0.016181049663375278
0.8866636486713179
-0.5490825627663648
0.016181049663375278
0.8866636486713179
-0.5490195205135573
0.024033169358101108
0.883318535670768
-0.5490195205135573
0.024033169358101108
0.883318535670768
-0.5490195205135573
0.024033169358101108
0.883318535670768
-0.5490195205135573
0.024033169358101108
0.883318535670768
-0.546315092244866
0.03296779437320615
0.8804080897668445
-0.546315092244866
0.03296779437320615
0.8804080897668445
-0.546315092244866
0.03296779437320615
0.8804080897668445
-0.546315092244866
0.03296779437320615
0.8804080897668445
-0.5427002628006815
0.04062930241432372
0.8814180597885397
-0.5427002628006815
0.04062930241432372
0.8814180597885397
-0.5427002628006815
0.04062930241432372
0.8814180597885397
-0.5427002628006815
0.04062930241432372
0.8814180597885397
-0.5427860352622634
0.04679316053299747
0.886669607009714
-0.5427860352622634
0.04679316053299747
0.886669607009714
-0.5427860352622634
0.04679316053299747
0.886669607009714
-0.5427860352622634
0.04679316053299747
0.886669607009714
-0.5441645529768634
0.05255899336665373
0.8931820455917815
-0.5441645529768634
0.05255899336665373
0.8931820455917815
-0.5441645529768634
0.05255899336665373
0.8931820455917815
-0.5441645529768634
0.05255899336665373
0.8931820455917815
-0.5442764292042044
0.05777148180553444
0.8988657614726536
-0.5442764292042044
0.05777148180553444
0.8988657614726536
-0.5442764292042044
0.05777148180553444
0.8988657614726536
-0.5442764292042044
0.05777148180553444
0.8988657614726536
-0.5406289907325453
0.06226543038434559
0.9006854987472444
-0.5406289907325453
0.06226543038434559
0.9006854987472444
-0.5406289907325453
0.06226543038434559
0.9006854987472444
-0.5406289907325453
0.06226543038434559
0.9006854987472444
-0.5325461822034736
0.06623617150845132
0.9039016487968811
-0.5325461822034736
0.06623617150845132
0.9039016487968811
-0.5325461822034736
0.06623617150845132
0.9039016487968811
-0.5325461822034736
0.06623617150845132
0.9039016487968811
-0.5277335076382849
0.07025390055719379
0.9076288030703151
-0.5277335076382849
0.07025390055719379
0.9076288030703151
-0.5277335076382849
0.07025390055719379
0.9076288030703151
-0.5277335076382849
0.07025390055719379
0.9076288030703151
-0.5262391009768681
0.07437188071100499
0.9094598756173681
-0.5262391009768681
0.07437188071100499
0.9094598756173681
-0.5262391009768681
0.07437188071100499
0.9094598756173681
-0.5262391009768681
0.07437188071100499
0.9094598756173681
-0.5266121586391148
0.07680653116251479
0.9124090320453191
-0.5266121586391148
0.07680653116251479
0.9124090320453191
-0.5266121586391148
0.07680653116251479
0.9124090320453191
-0.5266121586391148
0.07680653116251479
0.9124090320453191
-0.535364901391336
0.07973665068827283
0.9151588599878046
-0.535364901391336
0.07973665068827283
0.9151588599878046
-0.535364901391336
0.07973665068827283
0.9151588599878046
-0.535364901391336
0.07973665068827283
0.9151588599878046
-0.5364732052373501
0.08151964623743613
0.9207984473712588
-0.5364732052373501
0.08151964623743613
0.9207984473712588
-0.5364732052373501
0.08151964623743613
0.9207984473712588
-0.5364732052373501
0.08151964623743613
0.9207984473712588
-0.5255384971317332
0.07853241891154251
0.9295813058060168
-0.5255384971317332
0.07853241891154251
0.9295813058060168
-0.5255384971317332
0.07853241891154251
0.9295813058060168
-0.5255384971317332
0.07853241891154251
0.9295813058060168
-0.4927577548231206
0.0641915453799566
0.9324906911030675
-0.4927577548231206
0.0641915453799566
0.9324906911030675
-0.4927577548231206
0.0641915453799566
0.9324906911030675
-0.4927577548231206
0.0641915453799566
0.9324906911030675
-0.4632047647011886
0.05545737352281196
0.9324481760047029
-0.4632047647011886
0.05545737352281196
0.9324481760047029
-0.4632047647011886
0.05545737352281196
0.9324481760047029
-0.4632047647011886
0.05545737352281196
0.9324481760047029
-0.47296244559802775
0.05134354255339058
0.9392412673231436
-0.47296244559802775
0.05134354255339058
0.9392412673231436
-0.47296244559802775
0.05134354255339058
0.9392412673231436
-0.47296244559802775
0.05134354255339058
0.9392412673231436
-0.4865328541094318
0.043646114535771025
0.9494860691358677
-0.4865328541094318
0.043646114535771025
0.9494860691358677
-0.4865328541094318
0.043646114535771025
0.9494860691358677
-0.4865328541094318
0.043646114535771025
0.9494860691358677
-0.4884082107045494
0.030632761618071342
0.9549412070195011
-0.4884082107045494
0.030632761618071342
0.9549412070195011
-0.4884082107045494
0.030632761618071342
0.9549412070195011
-0.4884082107045494
0.030632761618071342
0.9549412070195011
-0.4783662498469684
0.018037259113627482
0.954252135374686
-0.4783662498469684
0.018037259113627482
0.954252135374686
-0.4783662498469684
0.018037259113627482
0.954252135374686
-0.4783662498469684
0.018037259113627482
0.954252135374686
-0.46973767612846046
0.007289503976324049
0.9528311626850426
-0.46973767612846046
0.007289503976324049
0.9528311626850426
-0.46973767612846046
0.007289503976324049
0.9528311626850426
-0.46973767612846046
0.007289503976324049
0.9528311626850426
-0.4664570804689552
-0.0034573688408441597
0.9521880826799873
-0.4664570804689552
-0.0034573688408441597
0.9521880826799873
-0.4664570804689552
-0.0034573688408441597
0.9521880826799873
-0.4664570804689552
-0.0034573688408441597
0.9521880826799873
-0.4718783599360978
-0.0075714834379683816
0.9504510576430979
-0.4718783599360978
-0.0075714834379683816
0.9504510576430979
-0.4718783599360978
-0.0075714834379683816
0.9504510576430979
-0.4718783599360978
-0.0075714834379683816
0.9504510576430979
-0.47750380097051365
-0.00776469982573556
0.9494119807315738
-0.47750380097051365
-0.00776469982573556
0.9494119807315738
-0.47750380097051365
-0.00776469982573556
0.9494119807315738
-0.47750380097051365
-0.00776469982573556
0.9494119807315738
-0.47907602144584704
-0.008686343753544585
0.9492536108543225
-0.47907602144584704
-0.008686343753544585
0.9492536108543225
-0.47907602144584704
-0.008686343753544585
0.9492536108543225
-0.47907602144584704
-0.008686343753544585
0.9492536108543225
-0.4781094952419355
-0.008879059102477292
0.9487315065501619
-0.4781094952419355
-0.008879059102477292
0.9487315065501619
-0.4781094952419355
-0.008879059102477292
0.9487315065501619
-0.4781094952419355
-0.008879059102477292
0.9487315065501619
-0.476851199454608
-0.006039265453612613
0.9456737169799682
-0.476851199454608
-0.006039265453612613
0.9456737169799682
-0.476851199454608
-0.006039265453612613
0.9456737169799682
-0.476851199454608
-0.006039265453612613
0.9456737169799682
-0.4814628710614815
-0.002372718452027996
0.943504579650654
-0.4814628710614815
-0.002372718452027996
0.943504579650654
-0.4814628710614815
-0.002372718452027996
0.943504579650654
-0.4814628710614815
-0.002372718452027996
0.943504579650654
-0.48263496924512095
2.0593438986927857E-5
0.9433694141779797
-0.48263496924512095
2.0593438986927857E-5
0.9433694141779797
-0.48263496924512095
2.0593438986927857E-5
0.9433694141779797
-0.48263496924512095
2.0593438986927857E-5
0.9433694141779797
-0.4836695294790566
0.0015811700296192808
0.9423673633241456
-0.4836695294790566
0.0015811700296192808
0.9423673633241456
-0.4836695294790566
0.0015811700296192808
0.9423673633241456
-0.4836695294790566
0.0015811700296192808
0.9423673633241456
-0.484548453012463
0.004821797674498137
0.941117669839194
-0.484548453012463
0.004821797674498137
0.941117669839194
-0.484548453012463
0.004821797674498137
0.941117669839194
-0.484548453012463
0.004821797674498137
0.941117669839194
-0.4839109785920532
0.008283278523244134
0.9421758963919202
-0.4839109785920532
0.008283278523244134
0.9421758963919202
-0.4839109785920532
0.008283278523244134
0.9421758963919202
-0.4839109785920532
0.008283278523244134
0.9421758963919202
-0.4845237295352083
0.010655669213268907
0.9431071113352182
-0.4845237295352083
0.010655669213268907
0.9431071113352182
-0.4845237295352083
0.010655669213268907
0.9431071113352182
-0.4845237295352083
0.010655669213268907
0.9431071113352182
-0.48600337374430364
0.013737298377498078
0.943912639016977
-0.48600337374430364
0.013737298377498078
0.943912639016977
-0.48600337374430364
0.013737298377498078
0.943912639016977
-0.48600337374430364
0.013737298377498078
0.943912639016977
-0.48548044301586585
0.016593972777336215
0.9434328578572533
-0.48548044301586585
0.016593972777336215
0.9434328578572533
-0.48548044301586585
0.016593972777336215
0.9434328578572533
-0.48548044301586585
0.016593972777336215
0.9434328578572533
-0.48654486206179637
0.018194354099489447
0.9414537064369797
-0.48654486206179637
0.018194354099489447
0.9414537064369797
-0.48654486206179637
0.018194354099489447
0.9414537064369797
-0.48654486206179637
0.018194354099489447
0.9414537064369797
-0.4878495568914415
0.017992544909424618
0.9408194370806958
-0.4878495568914415
0.017992544909424618
0.9408194370806958
-0.4878495568914415
0.017992544909424618
0.9408194370806958
-0.4878495568914415
0.017992544909424618
0.9408194370806958
-0.4898250429118147
0.017238098553702265
0.941106226823224
-0.4898250429118147
0.017238098553702265
0.941106226823224
-0.4898250429118147
0.017238098553702265
0.941106226823224
-0.4898250429118147
0.017238098553702265
0.941106226823224
-0.490556819401571
0.017110547153449823
0.9407953455414771
-0.490556819401571
0.017110547153449823
0.9407953455414771
-0.490556819401571
0.017110547153449823
0.9407953455414771
-0.490556819401571
0.017110547153449823
0.9407953455414771
-0.4895082187881862
0.01650819003532346
0.9399967888329932
-0.4895082187881862
0.01650819003532346
0.9399967888329932
-0.4895082187881862
0.01650819003532346
0.9399967888329932
-0.4895082187881862
0.01650819003532346
0.9399967888329932
-0.4902964780751651
0.013718914377710112
0.9396195346861154
-0.4902964780751651
0.013718914377710112
0.9396195346861154
-0.4902964780751651
0.013718914377710112
0.9396195346861154
-0.4902964780751651
0.013718914377710112
0.9396195346861154
-0.49031857837040604
0.01007808642439091
0.9396862401404167
-0.49031857837040604
0.01007808642439091
0.9396862401404167
-0.49031857837040604
0.01007808642439091
0.9396862401404167
-0.49031857837040604
0.01007808642439091
0.9396862401404167
-0.4915223932153156
0.00783522881478172
0.9401323394249468
-0.4915223932153156
0.00783522881478172
0.9401323394249468
-0.4915223932153156
0.00783522881478172
0.9401323394249468
-0.4915223932153156
0.00783522881478172
0.9401323394249468
-0.4943784595835564
0.006528430927606379
0.9397792169396648
-0.4943784595835564
0.006528430927606379
0.9397792169396648
-0.4943784595835564
0.006528430927606379
0.9397792169396648
-0.4943784595835564
0.006528430927606379
0.9397792169396648
-0.4966547346812735
0.004924698998189448
0.9389433741946824
-0.4966547346812735
0.004924698998189448
0.9389433741946824
-0.4966547346812735
0.004924698998189448
0.9389433741946824
-0.4966547346812735
0.004924698998189448
0.9389433741946824
-0.4972897701197301
0.003083322424955503
0.9376643517937956
-0.4972897701197301
0.003083322424955503
0.9376643517937956
-0.4972897701197301
0.003083322424955503
0.9376643517937956
-0.4972897701197301
0.003083322424955503
0.9376643517937956
-0.49818470400960446
0.0017712991468537085
0.936251434552457
-0.49818470400960446
0.0017712991468537085
0.936251434552457
-0.49818470400960446
0.0017712991468537085
0.936251434552457
-0.49818470400960446
0.0017712991468537085
0.936251434552457
-0.4979524624592474
3.910763505270985E-4
0.9357008605145565
-0.4979524624592474
3.910763505270985E-4
0.9357008605145565
-0.4979524624592474
3.910763505270985E-4
0.9357008605145565
-0.4979524624592474
3.910763505270985E-4
0.9357008605145565
-0.4969690695275626
-0.0019317812629164371
0.9352196475522189
-0.4969690695275626
-0.0019317812629164371
0.9352196475522189
-0.4969690695275626
-0.0019317812629164371
0.9352196475522189
-0.4969690695275626
-0.0019317812629164371
0.9352196475522189
-0.4969223352008703
-0.0040809023940595514
0.9340752411865789
-0.4969223352008703
-0.0040809023940595514
0.9340752411865789
-0.4969223352008703
-0.0040809023940595514
0.9340752411865789
-0.4969223352008703
-0.0040809023940595514
0.9340752411865789
-0.49794396370432703
-0.005524851538709387
0.9330371874833621
-0.49794396370432703
-0.005524851538709387
0.9330371874833621
-0.49794396370432703
-0.005524851538709387
0.9330371874833621
-0.49794396370432703
-0.005524851538709387
0.9330371874833621
-0.49892323451758397
-0.005960340209191633
0.9326442788490251
-0.49892323451758397
-0.005960340209191633
0.9326442788490251
-0.49892323451758397
-0.005960340209191633
0.9326442788490251
-0.49892323451758397
-0.005960340209191633
0.9326442788490251
-0.49926570249964713
-0.005590272305705153
0.9323258930410036
-0.49926570249964713
-0.005590272305705153
0.9323258930410036
-0.49926570249964713
-0.005590272305705153
0.9323258930410036
-0.49926570249964713
-0.005590272305705153
0.9323258930410036
-0.49949988866198153
-0.004547545930978512
0.9315537768522727
-0.49949988866198153
-0.004547545930978512
0.9315537768522727
-0.49949988866198153
-0.004547545930978512
0.9315537768522727
-0.49949988866198153
-0.004547545930978512
0.9315537768522727
-0.5010173489462556
-0.003161976461582044
0.9301328856014923
-0.5010173489462556
-0.003161976461582044
0.9301328856014923
-0.5010173489462556
-0.003161976461582044
0.9301328856014923
-0.5010173489462556
-0.003161976461582044
0.9301328856014923
-0.5019148178086329
-0.0018562867074040396
0.9290672756051056
-0.5019148178086329
-0.0018562867074040396
0.9290672756051056
-0.5019148178086329
-0.0018562867074040396
0.9290672756051056
-0.5019148178086329
-0.0018562867074040396
0.9290672756051056
-0.5029196501569673
-0.001027365958499377
0.928122764192332
-0.5029196501569673
-0.001027365958499377
0.928122764192332
-0.5029196501569673
-0.001027365958499377
0.928122764192332
-0.5029196501569673
-0.001027365958499377
0.928122764192332
-0.5055144494679867
-3.937863585580884E-4
0.9277352109875908
-0.5055144494679867
-3.937863585580884E-4
0.9277352109875908
-0.5055144494679867
-3.937863585580884E-4
0.9277352109875908
-0.5055144494679867
-3.937863585580884E-4
0.9277352109875908
-0.507712180908094
0.001033373820967446
0.9273654863737089
-0.507712180908094
0.001033373820967446
0.9273654863737089
-0.507712180908094
0.001033373820967446
0.9273654863737089
-0.507712180908094
0.001033373820967446
0.9273654863737089
-0.5076605370804937
0.0025871932869216455
0.9263984453825912
-0.5076605370804937
0.0025871932869216455
0.9263984453825912
-0.5076605370804937
0.0025871932869216455
0.9263984453825912
-0.5076605370804937
0.0025871932869216455
0.9263984453825912
-0.5069186515507687
0.003278280515887832
0.9266716058633058
-0.5069186515507687
0.003278280515887832
0.9266716058633058
-0.5069186515507687
0.003278280515887832
0.9266716058633058
-0.5069186515507687
0.003278280515887832
0.9266716058633058
-0.5078980775221404
0.003509245060230706
0.9273431828231569
-0.5078980775221404
0.003509245060230706
0.9273431828231569
-0.5078980775221404
0.003509245060230706
0.9273431828231569
-0.5078980775221404
0.003509245060230706
0.9273431828231569
-0.5085719367253287
0.0037543411821490454
0.9280679643789439
-0.5085719367253287
0.0037543411821490454
0.9280679643789439
-0.5085719367253287
0.0037543411821490454
0.9280679643789439
-0.5085719367253287
0.0037543411821490454
0.9280679643789439
-0.5078833023083184
0.004202108097357383
0.927840134309643
-0.5078833023083184
0.004202108097357383
0.927840134309643
-0.5078833023083184
0.004202108097357383
0.927840134309643
-0.5078833023083184
0.004202108097357383
0.927840134309643
-0.5056740433950535
0.004378428590523643
0.9267841687176874
-0.5056740433950535
0.004378428590523643
0.9267841687176874
-0.5056740433950535
0.004378428590523643
0.9267841687176874
-0.5056740433950535
0.004378428590523643
0.9267841687176874
-0.5060847325876346
0.0038891315624419915
0.9268534018077466
-0.5060847325876346
0.0038891315624419915
0.9268534018077466
-0.5060847325876346
0.0038891315624419915
0.9268534018077466
-0.5060847325876346
0.0038891315624419915
0.9268534018077466
-0.5081761769758187
0.0034817799927516833
0.927237018604368
-0.5081761769758187
0.0034817799927516833
0.927237018604368
-0.5081761769758187
0.0034817799927516833
0.927237018604368
-0.5081761769758187
0.0034817799927516833
0.927237018604368
-0.5083346629403581
0.003428868085647932
0.9272504698788823
-0.5083346629403581
0.003428868085647932
0.9272504698788823
-0.5083346629403581
0.003428868085647932
0.9272504698788823
-0.5083346629403581
0.003428868085647932
0.9272504698788823
-0.5083341205247633
0.003233319602918879
0.9275832794758776
-0.5083341205247633
0.003233319602918879
0.9275832794758776
-0.5083341205247633
0.003233319602918879
0.9275832794758776
-0.5083341205247633
0.003233319602918879
0.9275832794758776
-0.5075920256693066
0.0022703195614375
0.9280034108190842
-0.5075920256693066
0.0022703195614375
0.9280034108190842
-0.5075920256693066
0.0022703195614375
0.9280034108190842
-0.5075920256693066
0.0022703195614375
0.9280034108190842
-0.5069309518172792
0.001078251068745359
0.9279745760178865
-0.5069309518172792
0.001078251068745359
0.9279745760178865
-0.5069309518172792
0.001078251068745359
0.9279745760178865
-0.5069309518172792
0.001078251068745359
0.9279745760178865
-0.5080564547340068
5.502470512951768E-4
0.9281111531137799
-0.5080564547340068
5.502470512951768E-4
0.9281111531137799
-0.5080564547340068
5.502470512951768E-4
0.9281111531137799
-0.5080564547340068
5.502470512951768E-4
0.9281111531137799
-0.5090100429069482
-4.256707656650816E-4
0.9284776752198862
-0.5090100429069482
-4.256707656650816E-4
0.9284776752198862
-0.5090100429069482
-4.256707656650816E-4
0.9284776752198862
-0.5090100429069482
-4.256707656650816E-4
0.9284776752198862
-0.507726958899055
-0.0014304214947501834
0.9287379266633418
-0.507726958899055
-0.0014304214947501834
0.9287379266633418
-0.507726958899055
-0.0014304214947501834
0.9287379266633418
-0.507726958899055
-0.0014304214947501834
0.9287379266633418
-0.506602402969655
-0.002556622905784159
0.9287464953895674
-0.506602402969655
-0.002556622905784159
0.9287464953895674
-0.506602402969655
-0.002556622905784159
0.9287464953895674
-0.506602402969655
-0.002556622905784159
0.9287464953895674
-0.5072776678113818
-0.00404355904700487
0.9282306068544401
-0.5072776678113818
-0.00404355904700487
0.9282306068544401
-0.5072776678113818
-0.00404355904700487
0.9282306068544401
-0.5072776678113818
-0.00404355904700487
0.9282306068544401
-0.5084553673204706
-0.004814276372925191
0.9278693726376586
-0.5084553673204706
-0.004814276372925191
0.9278693726376586
-0.5084553673204706
-0.004814276372925191
0.9278693726376586
-0.5084553673204706
-0.004814276372925191
0.9278693726376586
-0.5089577432089818
-0.005624577540876947
0.9275737439476777
-0.5089577432089818
-0.005624577540876947
0.9275737439476777
-0.5089577432089818
-0.005624577540876947
0.9275737439476777
-0.5089577432089818
-0.005624577540876947
0.9275737439476777
-0.5095385618613455
-0.0064006434933498325
0.9267620375705109
-0.5095385618613455
-0.0064006434933498325
0.9267620375705109
-0.5095385618613455
-0.0064006434933498325
0.9267620375705109
-0.5095385618613455
-0.0064006434933498325
0.9267620375705109
-0.510079276823363
-0.006232803473259504
0.9263251647254959
-0.510079276823363
-0.006232803473259504
0.9263251647254959
-0.510079276823363
-0.006232803473259504
0.9263251647254959
-0.510079276823363
-0.006232803473259504
0.9263251647254959
-0.5100264191345543
-0.006127172946556515
0.9262974518548454
-0.5100264191345543
-0.006127172946556515
0.9262974518548454
-0.5100264191345543
-0.006127172946556515
0.9262974518548454
-0.5100264191345543
-0.006127172946556515
0.9262974518548454
-0.5101320520117284
-0.006074318791973911
0.9262840158772626
-0.5101320520117284
-0.006074318791973911
0.9262840158772626
-0.5101320520117284
-0.006074318791973911
0.9262840158772626
-0.5101320520117284
-0.006074318791973911
0.9262840158772626
-0.5101597672739815
-0.00606087901412309
0.9263368721788008
-0.5101597672739815
-0.00606087901412309
0.9263368721788008
-0.5101597672739815
-0.00606087901412309
0.9263368721788008
-0.5101597672739815
-0.00606087901412309
0.9263368721788008
-0.5109275261672535
-0.005080317365707726
0.9264216423546079
-0.5109275261672535
-0.005080317365707726
0.9264216423546079
-0.5109275261672535
-0.005080317365707726
0.9264216423546079
-0.5109275261672535
-0.005080317365707726
0.9264216423546079
-0.5109279943663017
-0.003954991935210031
0.926409843638032
-0.5109279943663017
-0.003954991935210031
0.926409843638032
-0.5109279943663017
-0.003954991935210031
0.926409843638032
-0.5109279943663017
-0.003954991935210031
0.926409843638032
-0.510769567781983
-0.0031098841031038395
0.9261888627363041
-0.510769567781983
-0.0031098841031038395
0.9261888627363041
-0.510769567781983
-0.0031098841031038395
0.9261888627363041
-0.510769567781983
-0.0031098841031038395
0.9261888627363041
-0.5108889774775136
-0.0025565585733601653
0.9259316615684955
-0.5108889774775136
-0.0025565585733601653
0.9259316615684955
-0.5108889774775136
-0.0025565585733601653
0.9259316615684955
-0.5108889774775136
-0.0025565585733601653
0.9259316615684955
-0.5113256103313231
-0.0023041060480168867
0.9260354850864582
-0.5113256103313231
-0.0023041060480168867
0.9260354850864582
-0.5113256103313231
-0.0023041060480168867
0.9260354850864582
-0.5113256103313231
-0.0023041060480168867
0.9260354850864582
-0.5123319518374063
-0.0022606844643144235
0.9264201519554108
-0.5123319518374063
-0.0022606844643144235
0.9264201519554108
-0.5123319518374063
-0.0022606844643144235
0.9264201519554108
-0.5123319518374063
-0.0022606844643144235
0.9264201519554108
-0.5127824704885112
-0.002494641629684977
0.926820548217485
-0.5127824704885112
-0.002494641629684977
0.926820548217485
-0.5127824704885112
-0.002494641629684977
0.926820548217485
-0.5127824704885112
-0.002494641629684977
0.926820548217485
-0.5122271377969462
-0.0029673241320301203
0.9271693714289997
-0.5122271377969462
-0.0029673241320301203
0.9271693714289997
-0.5122271377969462
-0.0029673241320301203
0.9271693714289997
-0.5122271377969462
-0.0029673241320301203
0.9271693714289997
-0.5131286869265163
-0.004032048345050569
0.9278450821528191
-0.5131286869265163
-0.004032048345050569
0.9278450821528191
-0.5131286869265163
-0.004032048345050569
0.9278450821528191
-0.5131286869265163
-0.004032048345050569
0.9278450821528191
-0.5163627022098477
-0.004852904769613923
0.9288026001468912
-0.5163627022098477
-0.004852904769613923
0.9288026001468912
-0.5163627022098477
-0.004852904769613923
0.9288026001468912
-0.5163627022098477
-0.004852904769613923
0.9288026001468912
-0.5171310581575291
-0.0038559233573222306
0.9300090152792846
-0.5171310581575291
-0.0038559233573222306
0.9300090152792846
-0.5171310581575291
-0.0038559233573222306
0.9300090152792846
-0.5171310581575291
-0.0038559233573222306
0.9300090152792846
-0.5163521410956154
-0.003266647322969699
0.9316019271765901
-0.5163521410956154
-0.003266647322969699
0.9316019271765901
-0.5163521410956154
-0.003266647322969699
0.9316019271765901
-0.5163521410956154
-0.003266647322969699
0.9316019271765901
-0.5167500952541346
-0.003866332188310541
0.9312531317633314
-0.5167500952541346
-0.003866332188310541
0.9312531317633314
-0.5167500952541346
-0.003866332188310541
0.9312531317633314
-0.5167500952541346
-0.003866332188310541
0.9312531317633314
-0.5225562631643098
-0.0014159686797712945
0.9289734898864603
-0.5225562631643098
-0.0014159686797712945
0.9289734898864603
-0.5225562631643098
-0.0014159686797712945
0.9289734898864603
-0.5225562631643098
-0.0014159686797712945
0.9289734898864603
-0.5334147473461927
0.0031117714732052577
0.9266713895490224
-0.5334147473461927
0.0031117714732052577
0.9266713895490224
-0.5334147473461927
0.0031117714732052577
0.9266713895490224
-0.5334147473461927
0.0031117714732052577
0.9266713895490224
-0.536329409888425
0.010039585330150794
0.9244798726001259
-0.536329409888425
0.010039585330150794
0.9244798726001259
-0.536329409888425
0.010039585330150794
0.9244798726001259
-0.536329409888425
0.010039585330150794
0.9244798726001259
-0.5397019124532593
0.01807478439532383
0.923428472264732
-0.5397019124532593
0.01807478439532383
0.923428472264732
-0.5397019124532593
0.01807478439532383
0.923428472264732
-0.5397019124532593
0.01807478439532383
0.923428472264732
-0.5403727220349455
0.02490941681953282
0.9229452195080348
-0.5403727220349455
0.02490941681953282
0.9229452195080348
-0.5403727220349455
0.02490941681953282
0.9229452195080348
-0.5403727220349455
0.02490941681953282
0.9229452195080348
-0.5382191270937713
0.030738509550144236
0.9184204851724591
-0.5382191270937713
0.030738509550144236
0.9184204851724591
-0.5382191270937713
0.030738509550144236
0.9184204851724591
-0.5382191270937713
0.030738509550144236
0.9184204851724591
-0.5397426863485675
0.04186420393076101
0.9127673555589236
-0.5397426863485675
0.04186420393076101
0.9127673555589236
-0.5397426863485675
0.04186420393076101
0.9127673555589236
-0.5397426863485675
0.04186420393076101
0.9127673555589236
-0.547601546327986
0.051626216840117437
0.912622643265799
-0.547601546327986
0.051626216840117437
0.912622643265799
-0.547601546327986
0.051626216840117437
0.912622643265799
-0.547601546327986
0.051626216840117437
0.912622643265799
-0.5622109930912681
0.05562808641308904
0.9097509022024058
-0.5622109930912681
0.05562808641308904
0.9097509022024058
-0.5622109930912681
0.05562808641308904
0.9097509022024058
-0.5622109930912681
0.05562808641308904
0.9097509022024058
-0.5689421195297353
0.05751965249486677
0.9068876206341969
-0.5689421195297353
0.05751965249486677
0.9068876206341969
-0.5689421195297353
0.05751965249486677
0.9068876206341969
-0.5689421195297353
0.05751965249486677
0.9068876206341969
-0.5597791649160332
0.05998912568003563
0.9053310751542706
-0.5597791649160332
0.05998912568003563
0.9053310751542706
-0.5597791649160332
0.05998912568003563
0.9053310751542706
-0.5597791649160332
0.05998912568003563
0.9053310751542706
-0.5474616205431778
0.06268529198572573
0.9031089713381095
-0.5474616205431778
0.06268529198572573
0.9031089713381095
-0.5474616205431778
0.06268529198572573
0.9031089713381095
-0.5474616205431778
0.06268529198572573
0.9031089713381095
-0.544570963208083
0.06325299454581984
0.8984010345914645
-0.544570963208083
0.06325299454581984
0.8984010345914645
-0.544570963208083
0.06325299454581984
0.8984010345914645
-0.544570963208083
0.06325299454581984
0.8984010345914645
-0.5508779648083156
0.0607775293041923
0.8933713004888394
-0.5508779648083156
0.0607775293041923
0.8933713004888394
-0.5508779648083156
0.0607775293041923
0.8933713004888394
-0.5508779648083156
0.0607775293041923
0.8933713004888394
-0.5537478988705838
0.057768580963317426
0.8922526894600206
-0.5537478988705838
0.057768580963317426
0.8922526894600206
-0.5537478988705838
0.057768580963317426
0.8922526894600206
-0.5537478988705838
0.057768580963317426
0.8922526894600206
-0.5529888056503128
0.05318454152323323
0.8940926300006168
-0.5529888056503128
0.05318454152323323
0.8940926300006168
-0.5529888056503128
0.05318454152323323
0.8940926300006168
-0.5529888056503128
0.05318454152323323
0.8940926300006168
-0.5503665964864657
0.04581495827571336
0.8948392231877532
-0.5503665964864657
0.04581495827571336
0.8948392231877532
-0.5503665964864657
0.04581495827571336
0.8948392231877532
-0.5503665964864657
0.04581495827571336
0.8948392231877532
-0.5550557584228681
0.036530729533331904
0.8923044157252633
-0.5550557584228681
0.036530729533331904
0.8923044157252633
-0.5550557584228681
0.036530729533331904
0.8923044157252633
-0.5550557584228681
0.036530729533331904
0.8923044157252633
-0.5570364692570804
0.026939569953084743
0.8898360860065977
-0.5570364692570804
0.026939569953084743
0.8898360860065977
-0.5570364692570804
0.026939569953084743
0.8898360860065977
-0.5570364692570804
0.026939569953084743
0.8898360860065977
-0.5545277298825603
0.01742846062894264
0.8921942928774983
-0.5545277298825603
0.01742846062894264
0.8921942928774983
-0.5545277298825603
0.01742846062894264
0.8921942928774983
-0.5545277298825603
0.01742846062894264
0.8921942928774983
-0.551879351155907
0.009414320876424465
0.8976216600166461
-0.551879351155907
0.009414320876424465
0.8976216600166461
-0.551879351155907
0.009414320876424465
0.8976216600166461
-0.551879351155907
0.009414320876424465
0.8976216600166461
-0.5507402580471155
0.003723601503717782
0.9003184358207452
-0.5507402580471155
0.003723601503717782
0.9003184358207452
-0.5507402580471155
0.003723601503717782
0.9003184358207452
-0.5507402580471155
0.003723601503717782
0.9003184358207452
-0.5537787899342329
0.001021549167208364
0.899536287181916
-0.5537787899342329
0.001021549167208364
0.899536287181916
-0.5537787899342329
0.001021549167208364
0.899536287181916
-0.5537787899342329
0.001021549167208364
0.899536287181916
-0.5526147802840767
3.486182258576762E-4
0.8991091195864207
-0.5526147802840767
3.486182258576762E-4
0.8991091195864207
-0.5526147802840767
3.486182258576762E-4
0.8991091195864207
-0.5526147802840767
3.486182258576762E-4
0.8991091195864207
-0.5471455346649347
0.00255746468048407
0.901856671428795
-0.5471455346649347
0.00255746468048407
0.901856671428795
-0.5471455346649347
0.00255746468048407
0.901856671428795
-0.5471455346649347
0.00255746468048407
0.901856671428795
-0.5424519755493441
0.006981331339789156
0.9071658395411206
-0.5424519755493441
0.006981331339789156
0.9071658395411206
-0.5424519755493441
0.006981331339789156
0.9071658395411206
-0.5424519755493441
0.006981331339789156
0.9071658395411206
-0.5431360886416312
0.012101192805540603
0.9141790170104244
-0.5431360886416312
0.012101192805540603
0.9141790170104244
-0.5431360886416312
0.012101192805540603
0.9141790170104244
-0.5431360886416312
0.012101192805540603
0.9141790170104244
-0.5455334326219123
0.018396945138380017
0.917273742653685
-0.5455334326219123
0.018396945138380017
0.917273742653685
-0.5455334326219123
0.018396945138380017
0.917273742653685
-0.5455334326219123
0.018396945138380017
0.917273742653685
-0.5427244457398641
0.02389066201679141
0.9186646577366262
-0.5427244457398641
0.02389066201679141
0.9186646577366262
-0.5427244457398641
0.02389066201679141
0.9186646577366262
-0.5427244457398641
0.02389066201679141
0.9186646577366262
-0.537022998697529
0.029129861694656523
0.9208082648913408
-0.537022998697529
0.029129861694656523
0.9208082648913408
-0.537022998697529
0.029129861694656523
0.9208082648913408
-0.537022998697529
0.029129861694656523
0.9208082648913408
-0.5320363620179459
0.03454699588960377
0.9238794640206306
-0.5320363620179459
0.03454699588960377
0.9238794640206306
-0.5320363620179459
0.03454699588960377
0.9238794640206306
-0.5320363620179459
0.03454699588960377
0.9238794640206306
-0.5291326970176474
0.0392547796602499
0.927294353057053
-0.5291326970176474
0.0392547796602499
0.927294353057053
-0.5291326970176474
0.0392547796602499
0.927294353057053
-0.5291326970176474
0.0392547796602499
0.927294353057053
-0.5324944979213849
0.04303124214002954
0.9286315289059388
-0.5324944979213849
0.04303124214002954
0.9286315289059388
-0.5324944979213849
0.04303124214002954
0.9286315289059388
-0.5324944979213849
0.04303124214002954
0.9286315289059388
-0.5286530986612201
0.04632262973884183
0.9291803403002201
-0.5286530986612201
0.04632262973884183
0.9291803403002201
-0.5286530986612201
0.04632262973884183
0.9291803403002201
-0.5286530986612201
0.04632262973884183
0.9291803403002201
-0.5252604415539092
0.04849741789576142
0.9325188812345464
-0.5252604415539092
0.04849741789576142
0.9325188812345464
-0.5252604415539092
0.04849741789576142
0.9325188812345464
-0.5252604415539092
0.04849741789576142
0.9325188812345464
-0.5215208065454194
0.05056610693151574
0.9351067490520907
-0.5215208065454194
0.05056610693151574
0.9351067490520907
-0.5215208065454194
0.05056610693151574
0.9351067490520907
-0.5215208065454194
0.05056610693151574
0.9351067490520907
-0.5157611238560138
0.05314637785059415
0.9356960816620971
-0.5157611238560138
0.05314637785059415
0.9356960816620971
-0.5157611238560138
0.05314637785059415
0.9356960816620971
-0.5157611238560138
0.05314637785059415
0.9356960816620971
-0.521677797701045
0.05284092737741046
0.936418319098144
-0.521677797701045
0.05284092737741046
0.936418319098144
-0.521677797701045
0.05284092737741046
0.936418319098144
-0.521677797701045
0.05284092737741046
0.936418319098144
-0.5190152686192613
0.05312117307745508
0.9448290080060571
-0.5190152686192613
0.05312117307745508
0.9448290080060571
-0.5190152686192613
0.05312117307745508
0.9448290080060571
-0.5190152686192613
0.05312117307745508
0.9448290080060571
-0.496455407084979
0.03899488758005657
0.954701001867227
-0.496455407084979
0.03899488758005657
0.954701001867227
-0.496455407084979
0.03899488758005657
0.954701001867227
-0.496455407084979
0.03899488758005657
0.954701001867227
-0.45990204163819404
0.027655201460465306
0.9508201268176291
-0.45990204163819404
0.027655201460465306
0.9508201268176291
-0.45990204163819404
0.027655201460465306
0.9508201268176291
-0.45990204163819404
0.027655201460465306
0.9508201268176291
-0.46916351059637573
0.022984986329627706
0.9530108762246672
-0.46916351059637573
0.022984986329627706
0.9530108762246672
-0.46916351059637573
0.022984986329627706
0.9530108762246672
-0.46916351059637573
0.022984986329627706
0.9530108762246672
-0.4889748428310578
0.01828423225681351
0.9608842210513354
-0.4889748428310578
0.01828423225681351
0.9608842210513354
-0.4889748428310578
0.01828423225681351
0.9608842210513354
-0.4889748428310578
0.01828423225681351
0.9608842210513354
-0.48985487791825394
0.005096321880427214
0.9674945302285752
-0.48985487791825394
0.005096321880427214
0.9674945302285752
-0.48985487791825394
0.005096321880427214
0.9674945302285752
-0.48985487791825394
0.005096321880427214
0.9674945302285752
-0.4661410471628113
-0.004723552410288026
0.9702758297008731
-0.4661410471628113
-0.004723552410288026
0.9702758297008731
-0.4661410471628113
-0.004723552410288026
0.9702758297008731
-0.4661410471628113
-0.004723552410288026
0.9702758297008731
-0.45799790528737905
-0.013600262041663858
0.971892448685632
-0.45799790528737905
-0.013600262041663858
0.971892448685632
-0.45799790528737905
-0.013600262041663858
0.971892448685632
-0.45799790528737905
-0.013600262041663858
0.971892448685632
-0.46074808395860983
-0.028533003187049384
0.9754322723000772
-0.46074808395860983
-0.028533003187049384
0.9754322723000772
-0.46074808395860983
-0.028533003187049384
0.9754322723000772
-0.46074808395860983
-0.028533003187049384
0.9754322723000772
-0.46425021833623664
-0.03950133449595227
0.9778738761327795
-0.46425021833623664
-0.03950133449595227
0.9778738761327795
-0.46425021833623664
-0.03950133449595227
0.9778738761327795
-0.46425021833623664
-0.03950133449595227
0.9778738761327795
-0.4655699364402652
-0.04348697611307937
0.9761056501179265
-0.4655699364402652
-0.04348697611307937
0.9761056501179265
-0.4655699364402652
-0.04348697611307937
0.9761056501179265
-0.4655699364402652
-0.04348697611307937
0.9761056501179265
-0.4692025690568371
-0.04621546599497435
0.9745012353895205
-0.4692025690568371
-0.04621546599497435
0.9745012353895205
-0.4692025690568371
-0.04621546599497435
0.9745012353895205
-0.4692025690568371
-0.04621546599497435
0.9745012353895205
-0.4759855530277523
-0.04904131682740432
0.9739207531705586
-0.4759855530277523
-0.04904131682740432
0.9739207531705586
-0.4759855530277523
-0.04904131682740432
0.9739207531705586
-0.4759855530277523
-0.04904131682740432
0.9739207531705586
-0.48025596117098146
-0.05000445680518328
0.9742871899973087
-0.48025596117098146
-0.05000445680518328
0.9742871899973087
-0.48025596117098146
-0.05000445680518328
0.9742871899973087
-0.48025596117098146
-0.05000445680518328
0.9742871899973087
-0.4777591570448488
-0.045927930116752926
0.9741140992728334
-0.4777591570448488
-0.045927930116752926
0.9741140992728334
-0.4777591570448488
-0.045927930116752926
0.9741140992728334
-0.4777591570448488
-0.045927930116752926
0.9741140992728334
-0.47546856570483664
-0.04371161103706064
0.9753075780943233
-0.47546856570483664
-0.04371161103706064
0.9753075780943233
-0.47546856570483664
-0.04371161103706064
0.9753075780943233
-0.47546856570483664
-0.04371161103706064
0.9753075780943233
-0.4788742883210021
-0.04339689448168807
0.978193457999196
-0.4788742883210021
-0.04339689448168807
0.978193457999196
-0.4788742883210021
-0.04339689448168807
0.978193457999196
-0.4788742883210021
-0.04339689448168807
0.978193457999196
-0.4794861172361881
-0.04607636330512486
0.979372008825131
-0.4794861172361881
-0.04607636330512486
0.979372008825131
-0.4794861172361881
-0.04607636330512486
0.979372008825131
-0.4794861172361881
-0.04607636330512486
0.979372008825131
-0.4769324169794991
-0.048254658828643986
0.9782537501915004
-0.4769324169794991
-0.048254658828643986
0.9782537501915004
-0.4769324169794991
-0.048254658828643986
0.9782537501915004
-0.4769324169794991
-0.048254658828643986
0.9782537501915004
-0.4754751156200614
-0.048315874609781415
0.9776640862588518
-0.4754751156200614
-0.048315874609781415
0.9776640862588518
-0.4754751156200614
-0.048315874609781415
0.9776640862588518
-0.4754751156200614
-0.048315874609781415
0.9776640862588518
-0.4752912878166028
-0.050251623560375464
0.9789711698598094
-0.4752912878166028
-0.050251623560375464
0.9789711698598094
-0.4752912878166028
-0.050251623560375464
0.9789711698598094
-0.4752912878166028
-0.050251623560375464
0.9789711698598094
-0.47810612280820325
-0.051521943113714615
0.9799873174841977
-0.47810612280820325
-0.051521943113714615
0.9799873174841977
-0.47810612280820325
-0.051521943113714615
0.9799873174841977
-0.47810612280820325
-0.051521943113714615
0.9799873174841977
-0.4805840408670357
-0.05045986492462014
0.9795248128720175
-0.4805840408670357
-0.05045986492462014
0.9795248128720175
-0.4805840408670357
-0.05045986492462014
0.9795248128720175
-0.4805840408670357
-0.05045986492462014
0.9795248128720175
-0.48212779207927126
-0.050251100507823616
0.9800297240205796
-0.48212779207927126
-0.050251100507823616
0.9800297240205796
-0.48212779207927126
-0.050251100507823616
0.9800297240205796
-0.48212779207927126
-0.050251100507823616
0.9800297240205796
-0.48223791347956163
-0.05154884146724427
0.9809141844117456
-0.48223791347956163
-0.05154884146724427
0.9809141844117456
-0.48223791347956163
-0.05154884146724427
0.9809141844117456
-0.48223791347956163
-0.05154884146724427
0.9809141844117456
-0.4813600190885013
-0.05386476244836602
0.9809495707964709
-0.4813600190885013
-0.05386476244836602
0.9809495707964709
-0.4813600190885013
-0.05386476244836602
0.9809495707964709
-0.4813600190885013
-0.05386476244836602
0.9809495707964709
-0.4799398416921737
-0.05276171630142594
0.9784378359322514
-0.4799398416921737
-0.05276171630142594
0.9784378359322514
-0.4799398416921737
-0.05276171630142594
0.9784378359322514
-0.4799398416921737
-0.05276171630142594
0.9784378359322514
-0.48309034853085403
-0.05423177866815699
0.977949625753074
-0.48309034853085403
-0.05423177866815699
0.977949625753074
-0.48309034853085403
-0.05423177866815699
0.977949625753074
-0.48309034853085403
-0.05423177866815699
0.977949625753074
-0.48403508920415006
-0.058106583599528194
0.9788278428805864
-0.48403508920415006
-0.058106583599528194
0.9788278428805864
-0.48403508920415006
-0.058106583599528194
0.9788278428805864
-0.48403508920415006
-0.058106583599528194
0.9788278428805864
-0.48121144070260063
-0.059412341530874595
0.9789926879253255
-0.48121144070260063
-0.059412341530874595
0.9789926879253255
-0.48121144070260063
-0.059412341530874595
0.9789926879253255
-0.48121144070260063
-0.059412341530874595
0.9789926879253255
-0.48336900045666964
-0.058665899986354665
0.9791098175239118
-0.48336900045666964
-0.058665899986354665
0.9791098175239118
-0.48336900045666964
-0.058665899986354665
0.9791098175239118
-0.48336900045666964
-0.058665899986354665
0.9791098175239118
-0.4853104166606087
-0.05861815405399098
0.9798428795256385
-0.4853104166606087
-0.05861815405399098
0.9798428795256385
-0.4853104166606087
-0.05861815405399098
0.9798428795256385
-0.4853104166606087
-0.05861815405399098
0.9798428795256385
-0.48869774256017606
-0.060040699781142244
0.9802078635329557
-0.48869774256017606
-0.060040699781142244
0.9802078635329557
-0.48869774256017606
-0.060040699781142244
0.9802078635329557
-0.48869774256017606
-0.060040699781142244
0.9802078635329557
-0.4868766534168787
-0.06180955514283407
0.9797932799200448
-0.4868766534168787
-0.06180955514283407
0.9797932799200448
-0.4868766534168787
-0.06180955514283407
0.9797932799200448
-0.4868766534168787
-0.06180955514283407
0.9797932799200448
-0.4848579384389091
-0.06143023714278185
0.9773727713087889
-0.4848579384389091
-0.06143023714278185
0.9773727713087889
-0.4848579384389091
-0.06143023714278185
0.9773727713087889
-0.4848579384389091
-0.06143023714278185
0.9773727713087889
-0.48509784553355184
-0.06250423155618633
0.9752849445984013
-0.48509784553355184
-0.06250423155618633
0.9752849445984013
-0.48509784553355184
-0.06250423155618633
0.9752849445984013
-0.48509784553355184
-0.06250423155618633
0.9752849445984013
-0.486989805880717
-0.06334721474596625
0.975396767104266
-0.486989805880717
-0.06334721474596625
0.975396767104266
-0.486989805880717
-0.06334721474596625
0.975396767104266
-0.486989805880717
-0.06334721474596625
0.975396767104266
-0.4871027152325859
-0.06164762409372413
0.9756521373414426
-0.4871027152325859
-0.06164762409372413
0.9756521373414426
-0.4871027152325859
-0.06164762409372413
0.9756521373414426
-0.4871027152325859
-0.06164762409372413
0.9756521373414426
-0.48753927722622026
-0.0593700318901579
0.9734695123152197
-0.48753927722622026
-0.0593700318901579
0.9734695123152197
-0.48753927722622026
-0.0593700318901579
0.9734695123152197
-0.48753927722622026
-0.0593700318901579
0.9734695123152197
-0.4896295985182368
-0.059148763073668835
0.9721935089894442
-0.4896295985182368
-0.059148763073668835
0.9721935089894442
-0.4896295985182368
-0.059148763073668835
0.9721935089894442
-0.4896295985182368
-0.059148763073668835
0.9721935089894442
-0.49085273167984256
-0.058802878951473056
0.9721494876958994
-0.49085273167984256
-0.058802878951473056
0.9721494876958994
-0.49085273167984256
-0.058802878951473056
0.9721494876958994
-0.49085273167984256
-0.058802878951473056
0.9721494876958994
-0.4904254857277231
-0.05765875514896205
0.9724662226456912
-0.4904254857277231
-0.05765875514896205
0.9724662226456912
-0.4904254857277231
-0.05765875514896205
0.9724662226456912
-0.4904254857277231
-0.05765875514896205
0.9724662226456912
-0.49037341659678463
-0.05597721177074136
0.9724366914491548
-0.49037341659678463
-0.05597721177074136
0.9724366914491548
-0.49037341659678463
-0.05597721177074136
0.9724366914491548
-0.49037341659678463
-0.05597721177074136
0.9724366914491548
-0.49143793639330985
-0.056034086873480334
0.9735012112456801
-0.49143793639330985
-0.056034086873480334
0.9735012112456801
-0.49143793639330985
-0.056034086873480334
0.9735012112456801
-0.49143793639330985
-0.056034086873480334
0.9735012112456801
-0.4896603674884433
-0.05657822015448816
0.9739147799668184
-0.4896603674884433
-0.05657822015448816
0.9739147799668184
-0.4896603674884433
-0.05657822015448816
0.9739147799668184
-0.4896603674884433
-0.05657822015448816
0.9739147799668184
-0.4884657447312497
-0.0566324391302239
0.9733250823430077
-0.4884657447312497
-0.0566324391302239
0.9733250823430077
-0.4884657447312497
-0.0566324391302239
0.9733250823430077
-0.4884657447312497
-0.0566324391302239
0.9733250823430077
-0.49104670083055196
-0.0571021578365067
0.9728549108543755
-0.49104670083055196
-0.0571021578365067
0.9728549108543755
-0.49104670083055196
-0.0571021578365067
0.9728549108543755
-0.49104670083055196
-0.0571021578365067
0.9728549108543755
-0.49489357579090987
-0.05725168899618825
0.9733624018584033
-0.49489357579090987
-0.05725168899618825
0.9733624018584033
-0.49489357579090987
-0.05725168899618825
0.9733624018584033
-0.49489357579090987
-0.05725168899618825
0.9733624018584033
-0.49603661650900216
-0.05612492062039671
0.9744125622960291
-0.49603661650900216
-0.05612492062039671
0.9744125622960291
-0.49603661650900216
-0.05612492062039671
0.9744125622960291
-0.49603661650900216
-0.05612492062039671
0.9744125622960291
-0.495684300567435
-0.0543676471518686
0.9746855180419953
-0.495684300567435
-0.0543676471518686
0.9746855180419953
-0.495684300567435
-0.0543676471518686
0.9746855180419953
-0.495684300567435
-0.0543676471518686
0.9746855180419953
-0.4980837100754557
-0.05168832141056448
0.974645930752707
-0.4980837100754557
-0.05168832141056448
0.974645930752707
-0.4980837100754557
-0.05168832141056448
0.974645930752707
-0.4980837100754557
-0.05168832141056448
0.974645930752707
-0.5015579989044162
-0.05043289693336954
0.9764652004848221
-0.5015579989044162
-0.05043289693336954
0.9764652004848221
-0.5015579989044162
-0.05043289693336954
0.9764652004848221
-0.5015579989044162
-0.05043289693336954
0.9764652004848221
-0.5034085447890017
-0.05040071229970414
0.9784315057401654
-0.5034085447890017
-0.05040071229970414
0.9784315057401654
-0.5034085447890017
-0.05040071229970414
0.9784315057401654
-0.5034085447890017
-0.05040071229970414
0.9784315057401654
-0.5036506360481604
-0.050652604403878886
0.9798590995836223
-0.5036506360481604
-0.050652604403878886
0.9798590995836223
-0.5036506360481604
-0.050652604403878886
0.9798590995836223
-0.5036506360481604
-0.050652604403878886
0.9798590995836223
-0.5071631732273336
-0.04981877627844384
0.979754507170022
-0.5071631732273336
-0.04981877627844384
0.979754507170022
-0.5071631732273336
-0.04981877627844384
0.979754507170022
-0.5071631732273336
-0.04981877627844384
0.979754507170022
-0.5101783338765848
-0.04844255015316844
0.9783053070450661
-0.5101783338765848
-0.04844255015316844
0.9783053070450661
-0.5101783338765848
-0.04844255015316844
0.9783053070450661
-0.5101783338765848
-0.04844255015316844
0.9783053070450661
-0.5102846966001842
-0.046937449332722994
0.9760523376885085
-0.5102846966001842
-0.046937449332722994
0.9760523376885085
-0.5102846966001842
-0.046937449332722994
0.9760523376885085
-0.5102846966001842
-0.046937449332722994
0.9760523376885085
-0.5111463190078064
-0.04362877614467475
0.9737450156639927
-0.5111463190078064
-0.04362877614467475
0.9737450156639927
-0.5111463190078064
-0.04362877614467475
0.9737450156639927
-0.5111463190078064
-0.04362877614467475
0.9737450156639927
-0.5138405884667819
-0.040159561980871145
0.9727939968813956
-0.5138405884667819
-0.040159561980871145
0.9727939968813956
-0.5138405884667819
-0.040159561980871145
0.9727939968813956
-0.5138405884667819
-0.040159561980871145
0.9727939968813956
-0.5158709103021105
-0.035100482509220154
0.9721304274673225
-0.5158709103021105
-0.035100482509220154
0.9721304274673225
-0.5158709103021105
-0.035100482509220154
0.9721304274673225
-0.5158709103021105
-0.035100482509220154
0.9721304274673225
-0.5143478071984154
-0.029278049850225852
0.9711830159782986
-0.5143478071984154
-0.029278049850225852
0.9711830159782986
-0.5143478071984154
-0.029278049850225852
0.9711830159782986
-0.5143478071984154
-0.029278049850225852
0.9711830159782986
-0.510319167183107
-0.023041384253545318
0.9691904590580388
-0.510319167183107
-0.023041384253545318
0.9691904590580388
-0.510319167183107
-0.023041384253545318
0.9691904590580388
-0.510319167183107
-0.023041384253545318
0.9691904590580388
-0.5094898252108686
-0.01542830599395573
0.9666285298033671
-0.5094898252108686
-0.01542830599395573
0.9666285298033671
-0.5094898252108686
-0.01542830599395573
0.9666285298033671
-0.5094898252108686
-0.01542830599395573
0.9666285298033671
-0.5070726375962651
-0.01155630855187055
0.9649731238834668
-0.5070726375962651
-0.01155630855187055
0.9649731238834668
-0.5070726375962651
-0.01155630855187055
0.9649731238834668
-0.5070726375962651
-0.01155630855187055
0.9649731238834668
-0.49759814314514345
-0.009136846018847867
0.9620616840254709
-0.49759814314514345
-0.009136846018847867
0.9620616840254709
-0.49759814314514345
-0.009136846018847867
0.9620616840254709
-0.49759814314514345
-0.009136846018847867
0.9620616840254709
-0.4999187655982845
-0.0039059203217029145
0.9565753870525416
-0.4999187655982845
-0.0039059203217029145
0.9565753870525416
-0.4999187655982845
-0.0039059203217029145
0.9565753870525416
-0.4999187655982845
-0.0039059203217029145
0.9565753870525416
-0.5095622141980376
4.7052997300519136E-4
0.9509790572429356
-0.5095622141980376
4.7052997300519136E-4
0.9509790572429356
-0.5095622141980376
4.7052997300519136E-4
0.9509790572429356
-0.5095622141980376
4.7052997300519136E-4
0.9509790572429356
-0.5122180133811419
0.0021466852910014523
0.9488534578580247
-0.5122180133811419
0.0021466852910014523
0.9488534578580247
-0.5122180133811419
0.0021466852910014523
0.9488534578580247
-0.5122180133811419
0.0021466852910014523
0.9488534578580247
-0.5190389375644026
-4.1101824151406913E-4
0.946382538475938
-0.5190389375644026
-4.1101824151406913E-4
0.946382538475938
-0.5190389375644026
-4.1101824151406913E-4
0.946382538475938
-0.5190389375644026
-4.1101824151406913E-4
0.946382538475938
-0.5261630941866016
-0.002247137611566871
0.9428824779650324
-0.5261630941866016
-0.002247137611566871
0.9428824779650324
-0.5261630941866016
-0.002247137611566871
0.9428824779650324
-0.5261630941866016
-0.002247137611566871
0.9428824779650324
-0.5301647115563055
-0.0028850012690817026
0.9418802694889834
-0.5301647115563055
-0.0028850012690817026
0.9418802694889834
-0.5301647115563055
-0.0028850012690817026
0.9418802694889834
-0.5301647115563055
-0.0028850012690817026
0.9418802694889834
-0.5259002343962296
-0.0013467238859100107
0.9393032570006258
-0.5259002343962296
-0.0013467238859100107
0.9393032570006258
-0.5259002343962296
-0.0013467238859100107
0.9393032570006258
-0.5259002343962296
-0.0013467238859100107
0.9393032570006258
-0.5178667700860435
2.804862450900916E-4
0.9341104370683739
-0.5178667700860435
2.804862450900916E-4
0.9341104370683739
-0.518489488555113
3.78747129092833E-4
0.9306398284782172
-0.518489488555113
3.78747129092833E-4
0.9306398284782172
-0.518489488555113
3.78747129092833E-4
0.9306398284782172
-0.518489488555113
3.78747129092833E-4
0.9306398284782172
-0.518489488555113
3.78747129092833E-4
0.9306398284782172
-0.518489488555113
3.78747129092833E-4
0.9306398284782172
-0.5245274622937957
-8.976782929323139E-4
0.9266883801831945
-0.5245274622937957
-8.976782929323139E-4
0.9266883801831945
-0.5245274622937957
-8.976782929323139E-4
0.9266883801831945
-0.5245274622937957
-8.976782929323139E-4
0.9266883801831945
-0.5283386640792163
-0.003403297253342513
0.9245398331360785
-0.5283386640792163
-0.003403297253342513
0.9245398331360785
-0.5283386640792163
-0.003403297253342513
0.9245398331360785
-0.5283386640792163
-0.003403297253342513
0.9245398331360785
-0.5287167886632135
-0.005772574999621821
0.9239375744103595
-0.5287167886632135
-0.005772574999621821
0.9239375744103595
-0.5287167886632135
-0.005772574999621821
0.9239375744103595
-0.5287167886632135
-0.005772574999621821
0.9239375744103595
-0.523747815174477
-0.00873888677743066
0.9242117994815553
-0.523747815174477
-0.00873888677743066
0.9242117994815553
-0.523747815174477
-0.00873888677743066
0.9242117994815553
-0.523747815174477
-0.00873888677743066
0.9242117994815553
-0.5173448176538384
-0.012152721388186523
0.9217015990949966
-0.5173448176538384
-0.012152721388186523
0.9217015990949966
-0.5173448176538384
-0.012152721388186523
0.9217015990949966
-0.5173448176538384
-0.012152721388186523
0.9217015990949966
-0.51755253023408
-0.015764283702177032
0.9172368680380323
-0.51755253023408
-0.015764283702177032
0.9172368680380323
-0.51755253023408
-0.015764283702177032
0.9172368680380323
-0.51755253023408
-0.015764283702177032
0.9172368680380323
-0.5214497965251461
-0.018962828125957263
0.9138219641945592
-0.5214497965251461
-0.018962828125957263
0.9138219641945592
-0.5214497965251461
-0.018962828125957263
0.9138219641945592
-0.5214497965251461
-0.018962828125957263
0.9138219641945592
-0.52428579332955
-0.02240981674039119
0.9147679015372165
-0.52428579332955
-0.02240981674039119
0.9147679015372165
-0.52428579332955
-0.02240981674039119
0.9147679015372165
-0.52428579332955
-0.02240981674039119
0.9147679015372165
-0.525319645907958
-0.02597560315182835
0.9164709681607247
-0.525319645907958
-0.02597560315182835
0.9164709681607247
-0.525319645907958
-0.02597560315182835
0.9164709681607247
-0.525319645907958
-0.02597560315182835
0.9164709681607247
-0.5266418366044945
-0.02791283431935516
0.9151993574487661
-0.5266418366044945
-0.02791283431935516
0.9151993574487661
-0.5266418366044945
-0.02791283431935516
0.9151993574487661
-0.5266418366044945
-0.02791283431935516
0.9151993574487661
-0.528790569244874
-0.029638158935864054
0.911620475934549
-0.528790569244874
-0.029638158935864054
0.911620475934549
-0.528790569244874
-0.029638158935864054
0.911620475934549
-0.528790569244874
-0.029638158935864054
0.911620475934549
-0.5268471268018107
-0.030547101021440714
0.9096349475916315
-0.5268471268018107
-0.030547101021440714
0.9096349475916315
-0.5268471268018107
-0.030547101021440714
0.9096349475916315
-0.5268471268018107
-0.030547101021440714
0.9096349475916315
-0.522124651754078
-0.031087511729925722
0.9120356047929085
-0.522124651754078
-0.031087511729925722
0.9120356047929085
-0.522124651754078
-0.031087511729925722
0.9120356047929085
-0.522124651754078
-0.031087511729925722
0.9120356047929085
-0.5196175971987607
-0.030546050653067147
0.9150218376641099
-0.5196175971987607
-0.030546050653067147
0.9150218376641099
-0.5196175971987607
-0.030546050653067147
0.9150218376641099
-0.5196175971987607
-0.030546050653067147
0.9150218376641099
-0.521374624418814
-0.030008076647156365
0.9154109381631396
-0.521374624418814
-0.030008076647156365
0.9154109381631396
-0.521374624418814
-0.030008076647156365
0.9154109381631396
-0.521374624418814
-0.030008076647156365
0.9154109381631396
-0.5261796708919767
-0.02930984399573936
0.9139862275615256
-0.5261796708919767
-0.02930984399573936
0.9139862275615256
-0.5261796708919767
-0.02930984399573936
0.9139862275615256
-0.5261796708919767
-0.02930984399573936
0.9139862275615256
-0.5262274667059506
-0.02823964907688303
0.9131332718326302
-0.5262274667059506
-0.02823964907688303
0.9131332718326302
-0.5262274667059506
-0.02823964907688303
0.9131332718326302
-0.5262274667059506
-0.02823964907688303
0.9131332718326302
-0.5216987205299896
-0.027190053160597315
0.9137026818668019
-0.5216987205299896
-0.027190053160597315
0.9137026818668019
-0.5216987205299896
-0.027190053160597315
0.9137026818668019
-0.5216987205299896
-0.027190053160597315
0.9137026818668019
-0.5200524650648052
-0.02656204845589548
0.9160013612316117
-0.5200524650648052
-0.02656204845589548
0.9160013612316117
-0.5200524650648052
-0.02656204845589548
0.9160013612316117
-0.5200524650648052
-0.02656204845589548
0.9160013612316117
-0.5215451674647704
-0.025999757788817784
0.9185815386940417
-0.5215451674647704
-0.025999757788817784
0.9185815386940417
-0.5215451674647704
-0.025999757788817784
0.9185815386940417
-0.5215451674647704
-0.025999757788817784
0.9185815386940417
-0.521896364015101
-0.025975716680912343
0.9201617129938805
-0.521896364015101
-0.025975716680912343
0.9201617129938805
-0.521896364015101
-0.025975716680912343
0.9201617129938805
-0.521896364015101
-0.025975716680912343
0.9201617129938805
-0.5208926229783728
-0.026405223295346596
0.9204333172748491
-0.5208926229783728
-0.026405223295346596
0.9204333172748491
-0.5208926229783728
-0.026405223295346596
0.9204333172748491
-0.5208926229783728
-0.026405223295346596
0.9204333172748491
-0.5197017537276316
-0.026531057785020705
0.9205652748753247
-0.5197017537276316
-0.026531057785020705
0.9205652748753247
-0.5197017537276316
-0.026531057785020705
0.9205652748753247
-0.5197017537276316
-0.026531057785020705
0.9205652748753247
-0.5190673897896491
-0.026380632782262364
0.9206873247663527
-0.5190673897896491
-0.026380632782262364
0.9206873247663527
-0.5190673897896491
-0.026380632782262364
0.9206873247663527
-0.5190673897896491
-0.026380632782262364
0.9206873247663527
-0.5183687370042483
-0.02548848531514471
0.9227576648725843
-0.5183687370042483
-0.02548848531514471
0.9227576648725843
-0.5183687370042483
-0.02548848531514471
0.9227576648725843
-0.5183687370042483
-0.02548848531514471
0.9227576648725843
-0.5191395648237374
-0.024853955974822577
0.9292073112221593
-0.5191395648237374
-0.024853955974822577
0.9292073112221593
-0.5191395648237374
-0.024853955974822577
0.9292073112221593
-0.5191395648237374
-0.024853955974822577
0.9292073112221593
-0.5260671543606037
-0.02338561092962962
0.9361934367847901
-0.5260671543606037
-0.02338561092962962
0.9361934367847901
-0.5260671543606037
-0.02338561092962962
0.9361934367847901
-0.5260671543606037
-0.02338561092962962
0.9361934367847901
-0.5269338353279186
-0.023475075640244192
0.9389993609847231
-0.5269338353279186
-0.023475075640244192
0.9389993609847231
-0.5269338353279186
-0.023475075640244192
0.9389993609847231
-0.5269338353279186
-0.023475075640244192
0.9389993609847231
-0.5170248535191715
-0.022771935479128
0.9413359590764626
-0.5170248535191715
-0.022771935479128
0.9413359590764626
-0.5170248535191715
-0.022771935479128
0.9413359590764626
-0.5170248535191715
-0.022771935479128
0.9413359590764626
-0.5140553359611213
-0.019191372895166665
0.9423308163719971
-0.5140553359611213
-0.019191372895166665
0.9423308163719971
-0.5140553359611213
-0.019191372895166665
0.9423308163719971
-0.5140553359611213
-0.019191372895166665
0.9423308163719971
-0.5104087254653912
-0.016393357321587823
0.9427430818322072
-0.5104087254653912
-0.016393357321587823
0.9427430818322072
-0.5104087254653912
-0.016393357321587823
0.9427430818322072
-0.5104087254653912
-0.016393357321587823
0.9427430818322072
-0.4966845559206785
-0.015384376071405888
0.951471695800489
-0.4966845559206785
-0.015384376071405888
0.951471695800489
-0.4966845559206785
-0.015384376071405888
0.951471695800489
-0.4966845559206785
-0.015384376071405888
0.951471695800489
-0.4794050731232726
-0.025007082730000515
0.9560569458912247
-0.4794050731232726
-0.025007082730000515
0.9560569458912247
-0.4794050731232726
-0.025007082730000515
0.9560569458912247
-0.4794050731232726
-0.025007082730000515
0.9560569458912247
-0.4557278026198113
-0.027377876165671573
0.9576314758702238
-0.4557278026198113
-0.027377876165671573
0.9576314758702238
-0.4557278026198113
-0.027377876165671573
0.9576314758702238
-0.4557278026198113
-0.027377876165671573
0.9576314758702238
-0.47349879438241793
-0.029616942025425544
0.9633102353314318
-0.47349879438241793
-0.029616942025425544
0.9633102353314318
-0.47349879438241793
-0.029616942025425544
0.9633102353314318
-0.47349879438241793
-0.029616942025425544
0.9633102353314318
-0.4949093538534462
-0.03400889075400483
0.9708039341841092
-0.4949093538534462
-0.03400889075400483
0.9708039341841092
-0.4949093538534462
-0.03400889075400483
0.9708039341841092
-0.4949093538534462
-0.03400889075400483
0.9708039341841092
-0.4962826598671764
-0.04045531620857502
0.980638328974337
-0.4962826598671764
-0.04045531620857502
0.980638328974337
-0.4962826598671764
-0.04045531620857502
0.980638328974337
-0.4962826598671764
-0.04045531620857502
0.980638328974337
-0.4762997828700084
-0.04127829143533493
0.9857536844459766
-0.4762997828700084
-0.04127829143533493
0.9857536844459766
-0.4762997828700084
-0.04127829143533493
0.9857536844459766
-0.4762997828700084
-0.04127829143533493
0.9857536844459766
-0.4569733146618592
-0.044184937185515014
0.9875811029561095
-0.4569733146618592
-0.044184937185515014
0.9875811029561095
-0.4569733146618592
-0.044184937185515014
0.9875811029561095
-0.4569733146618592
-0.044184937185515014
0.9875811029561095
-0.46057943871737483
-0.05369844153619637
0.9894749010587648
-0.46057943871737483
-0.05369844153619637
0.9894749010587648
-0.46057943871737483
-0.05369844153619637
0.9894749010587648
-0.46057943871737483
-0.05369844153619637
0.9894749010587648
-0.4754938396100776
-0.060517954048660685
0.989284547351597
-0.4754938396100776
-0.060517954048660685
0.989284547351597
-0.4754938396100776
-0.060517954048660685
0.989284547351597
-0.4754938396100776
-0.060517954048660685
0.989284547351597
-0.4802027621133787
-0.06420272530761688
0.989188545661955
-0.4802027621133787
-0.06420272530761688
0.989188545661955
-0.4802027621133787
-0.06420272530761688
0.989188545661955
-0.4802027621133787
-0.06420272530761688
0.989188545661955
-0.46434446386837597
-0.06243376807681015
0.9894322636118548
-0.46434446386837597
-0.06243376807681015
0.9894322636118548
-0.46434446386837597
-0.06243376807681015
0.9894322636118548
-0.46434446386837597
-0.06243376807681015
0.9894322636118548
-0.45735116147853266
-0.057455871070809975
0.9893451167952418
-0.45735116147853266
-0.057455871070809975
0.9893451167952418
-0.45735116147853266
-0.057455871070809975
0.9893451167952418
-0.45735116147853266
-0.057455871070809975
0.9893451167952418
-0.462693518838198
-0.05181686863090091
0.9857920378705886
-0.462693518838198
-0.05181686863090091
0.9857920378705886
-0.47208393313653507
-0.05052839020503334
0.9839368242537712
-0.47208393313653507
-0.05052839020503334
0.9839368242537712
-0.47208393313653507
-0.05052839020503334
0.9839368242537712
-0.47208393313653507
-0.05052839020503334
0.9839368242537712
-0.47084489146857084
-0.04910329246098795
0.9836664583482241
-0.47084489146857084
-0.04910329246098795
0.9836664583482241
-0.47084489146857084
-0.04910329246098795
0.9836664583482241
-0.47084489146857084
-0.04910329246098795
0.9836664583482241
-0.46834288769053367
-0.045072300740431386
0.9852633754374971
-0.46834288769053367
-0.045072300740431386
0.9852633754374971
-0.46834288769053367
-0.045072300740431386
0.9852633754374971
-0.46834288769053367
-0.045072300740431386
0.9852633754374971
-0.468566327456157
-0.04264969819445362
0.9859823470253373
-0.468566327456157
-0.04264969819445362
0.9859823470253373
-0.468566327456157
-0.04264969819445362
0.9859823470253373
-0.468566327456157
-0.04264969819445362
0.9859823470253373
-0.4706565284578323
-0.042319017913391516
0.9869166796855866
-0.4706565284578323
-0.042319017913391516
0.9869166796855866
-0.4706565284578323
-0.042319017913391516
0.9869166796855866
-0.4706565284578323
-0.042319017913391516
0.9869166796855866
-0.4726814153177505
-0.044983594784456064
0.9880095638780395
-0.4726814153177505
-0.044983594784456064
0.9880095638780395
-0.4726814153177505
-0.044983594784456064
0.9880095638780395
-0.4726814153177505
-0.044983594784456064
0.9880095638780395
-0.472260486346107
-0.04785517726509725
0.988971585854221
-0.472260486346107
-0.04785517726509725
0.988971585854221
-0.472260486346107
-0.04785517726509725
0.988971585854221
-0.472260486346107
-0.04785517726509725
0.988971585854221
-0.4730086519639372
-0.04803529982016574
0.9895435436799745
-0.4730086519639372
-0.04803529982016574
0.9895435436799745
-0.4730086519639372
-0.04803529982016574
0.9895435436799745
-0.4730086519639372
-0.04803529982016574
0.9895435436799745
-0.4739202662541033
-0.046711547860804004
0.9900372928857145
-0.4739202662541033
-0.046711547860804004
0.9900372928857145
-0.4739202662541033
-0.046711547860804004
0.9900372928857145
-0.4739202662541033
-0.046711547860804004
0.9900372928857145
-0.47490673324113536
-0.044757052845712346
0.9912804596047174
-0.47490673324113536
-0.044757052845712346
0.9912804596047174
-0.47490673324113536
-0.044757052845712346
0.9912804596047174
-0.47490673324113536
-0.044757052845712346
0.9912804596047174
-0.4779136367051362
-0.04318403110257875
0.9904806615360267
-0.4779136367051362
-0.04318403110257875
0.9904806615360267
-0.4779136367051362
-0.04318403110257875
0.9904806615360267
-0.4779136367051362
-0.04318403110257875
0.9904806615360267
-0.48153310774043323
-0.04282594894485108
0.9892627185041772
-0.48153310774043323
-0.04282594894485108
0.9892627185041772
-0.48153310774043323
-0.04282594894485108
0.9892627185041772
-0.48153310774043323
-0.04282594894485108
0.9892627185041772
-0.4834617659825808
-0.0443846005750847
0.9898164418928965
-0.4834617659825808
-0.0443846005750847
0.9898164418928965
-0.4834617659825808
-0.0443846005750847
0.9898164418928965
-0.4834617659825808
-0.0443846005750847
0.9898164418928965
-0.48263400130300566
-0.04450556327605942
0.9905517074441224
-0.48263400130300566
-0.04450556327605942
0.9905517074441224
-0.48263400130300566
-0.04450556327605942
0.9905517074441224
-0.48263400130300566
-0.04450556327605942
0.9905517074441224
-0.4848936469910988
-0.04384860052918145
0.9900059302873471
-0.4848936469910988
-0.04384860052918145
0.9900059302873471
-0.4848936469910988
-0.04384860052918145
0.9900059302873471
-0.4848936469910988
-0.04384860052918145
0.9900059302873471
-0.48941397351810845
-0.04406562900194652
0.9898022084535725
-0.48941397351810845
-0.04406562900194652
0.9898022084535725
-0.48941397351810845
-0.04406562900194652
0.9898022084535725
-0.48941397351810845
-0.04406562900194652
0.9898022084535725
-0.490515959488995
-0.04660095230702404
0.9899074510464037
-0.490515959488995
-0.04660095230702404
0.9899074510464037
-0.490515959488995
-0.04660095230702404
0.9899074510464037
-0.490515959488995
-0.04660095230702404
0.9899074510464037
-0.4895378619162697
-0.04757125330484862
0.9903998585442627
-0.4895378619162697
-0.04757125330484862
0.9903998585442627
-0.4895378619162697
-0.04757125330484862
0.9903998585442627
-0.4895378619162697
-0.04757125330484862
0.9903998585442627
-0.48887845972860894
-0.04742228122616086
0.9901757960841355
-0.48887845972860894
-0.04742228122616086
0.9901757960841355
-0.48887845972860894
-0.04742228122616086
0.9901757960841355
-0.48887845972860894
-0.04742228122616086
0.9901757960841355
-0.48927869078242503
-0.047911998753668555
0.9901971092634081
-0.48927869078242503
-0.047911998753668555
0.9901971092634081
-0.48927869078242503
-0.047911998753668555
0.9901971092634081
-0.48927869078242503
-0.047911998753668555
0.9901971092634081
-0.4904674911436851
-0.04836553057743999
0.9916437605609175
-0.4904674911436851
-0.04836553057743999
0.9916437605609175
-0.4904674911436851
-0.04836553057743999
0.9916437605609175
-0.4904674911436851
-0.04836553057743999
0.9916437605609175
-0.4899722360182738
-0.04757393185742594
0.9930617677459697
-0.4899722360182738
-0.04757393185742594
0.9930617677459697
-0.4899722360182738
-0.04757393185742594
0.9930617677459697
-0.4899722360182738
-0.04757393185742594
0.9930617677459697
-0.48952347530229656
-0.04656734864523263
0.992850592268058
-0.48952347530229656
-0.04656734864523263
0.992850592268058
-0.48952347530229656
-0.04656734864523263
0.992850592268058
-0.48952347530229656
-0.04656734864523263
0.992850592268058
-0.48971797344149726
-0.046933322532985856
0.9927248830243612
-0.48971797344149726
-0.046933322532985856
0.9927248830243612
-0.48971797344149726
-0.046933322532985856
0.9927248830243612
-0.48971797344149726
-0.046933322532985856
0.9927248830243612
-0.49114858251728266
-0.048171191023743384
0.9921234081495474
-0.49114858251728266
-0.048171191023743384
0.9921234081495474
-0.49114858251728266
-0.048171191023743384
0.9921234081495474
-0.49114858251728266
-0.048171191023743384
0.9921234081495474
-0.49021937067212923
-0.04805574638134663
0.991108236344515
-0.49021937067212923
-0.04805574638134663
0.991108236344515
-0.49021937067212923
-0.04805574638134663
0.991108236344515
-0.49021937067212923
-0.04805574638134663
0.991108236344515
-0.4907664914060658
-0.04770565827898298
0.9895166225939452
-0.4907664914060658
-0.04770565827898298
0.9895166225939452
-0.4907664914060658
-0.04770565827898298
0.9895166225939452
-0.4907664914060658
-0.04770565827898298
0.9895166225939452
-0.49275352266986283
-0.04759307480896837
0.9879753648373252
-0.49275352266986283
-0.04759307480896837
0.9879753648373252
-0.49275352266986283
-0.04759307480896837
0.9879753648373252
-0.49275352266986283
-0.04759307480896837
0.9879753648373252
-0.49456467454458086
-0.04828048718385688
0.9864014820863584
-0.49456467454458086
-0.04828048718385688
0.9864014820863584
-0.49456467454458086
-0.04828048718385688
0.9864014820863584
-0.49456467454458086
-0.04828048718385688
0.9864014820863584
-0.49578392834126483
-0.048553798505086156
0.9849895379697481
-0.49578392834126483
-0.048553798505086156
0.9849895379697481
-0.49578392834126483
-0.048553798505086156
0.9849895379697481
-0.49578392834126483
-0.048553798505086156
0.9849895379697481
-0.49638205931835017
-0.04865970748299978
0.9838530113235492
-0.49638205931835017
-0.04865970748299978
0.9838530113235492
-0.49638205931835017
-0.04865970748299978
0.9838530113235492
-0.49638205931835017
-0.04865970748299978
0.9838530113235492
-0.4950198337623002
-0.04836726827933808
0.9826640195120758
-0.4950198337623002
-0.04836726827933808
0.9826640195120758
-0.4950198337623002
-0.04836726827933808
0.9826640195120758
-0.4950198337623002
-0.04836726827933808
0.9826640195120758
-0.49568596671445436
-0.04860518668078182
0.9814510331160732
-0.49568596671445436
-0.04860518668078182
0.9814510331160732
-0.49568596671445436
-0.04860518668078182
0.9814510331160732
-0.49568596671445436
-0.04860518668078182
0.9814510331160732
-0.4983521612075382
-0.04854874213940636
0.9805609501753176
-0.4983521612075382
-0.04854874213940636
0.9805609501753176
-0.4983521612075382
-0.04854874213940636
0.9805609501753176
-0.4983521612075382
-0.04854874213940636
0.9805609501753176
-0.5013925540714212
-0.0483574350323082
0.9788585366851645
-0.5013925540714212
-0.0483574350323082
0.9788585366851645
-0.5013925540714212
-0.0483574350323082
0.9788585366851645
-0.5013925540714212
-0.0483574350323082
0.9788585366851645
-0.5007098684715722
-0.048503692628622315
0.9767889695541355
-0.5007098684715722
-0.048503692628622315
0.9767889695541355
-0.5007098684715722
-0.048503692628622315
0.9767889695541355
-0.5007098684715722
-0.048503692628622315
0.9767889695541355
-0.4997843896211696
-0.049286031141505274
0.9755509975027332
-0.4997843896211696
-0.049286031141505274
0.9755509975027332
-0.4997843896211696
-0.049286031141505274
0.9755509975027332
-0.4997843896211696
-0.049286031141505274
0.9755509975027332
-0.4998667627930684
-0.04977809782028985
0.9751737124733482
-0.4998667627930684
-0.04977809782028985
0.9751737124733482
-0.4998667627930684
-0.04977809782028985
0.9751737124733482
-0.4998667627930684
-0.04977809782028985
0.9751737124733482
-0.5014157813834833
-0.05019090113148432
0.9747619539798439
-0.5014157813834833
-0.05019090113148432
0.9747619539798439
-0.5014157813834833
-0.05019090113148432
0.9747619539798439
-0.5014157813834833
-0.05019090113148432
0.9747619539798439
-0.5018221285735168
-0.05054346761634685
0.9742461797526405
-0.5018221285735168
-0.05054346761634685
0.9742461797526405
-0.5018221285735168
-0.05054346761634685
0.9742461797526405
-0.5018221285735168
-0.05054346761634685
0.9742461797526405
-0.502042551469948
-0.051636811823359975
0.9745909371380322
-0.502042551469948
-0.051636811823359975
0.9745909371380322
-0.502042551469948
-0.051636811823359975
0.9745909371380322
-0.502042551469948
-0.051636811823359975
0.9745909371380322
-0.5003964648240169
-0.052680303554914217
0.975031184427901
-0.5003964648240169
-0.052680303554914217
0.975031184427901
-0.5003964648240169
-0.052680303554914217
0.975031184427901
-0.5003964648240169
-0.052680303554914217
0.975031184427901
-0.4995429623867505
-0.05296347105732072
0.9750746876819827
-0.4995429623867505
-0.05296347105732072
0.9750746876819827
-0.4995429623867505
-0.05296347105732072
0.9750746876819827
-0.4995429623867505
-0.05296347105732072
0.9750746876819827
-0.5003430181352478
-0.052908168457965095
0.9748061726554912
-0.5003430181352478
-0.052908168457965095
0.9748061726554912
-0.5003430181352478
-0.052908168457965095
0.9748061726554912
-0.5003430181352478
-0.052908168457965095
0.9748061726554912
-0.5017338470246948
-0.0528732018078354
0.9748412055242007
-0.5017338470246948
-0.0528732018078354
0.9748412055242007
-0.5017338470246948
-0.0528732018078354
0.9748412055242007
-0.5017338470246948
-0.0528732018078354
0.9748412055242007
-0.5027397152882407
-0.05237401051551638
0.9747460675667237
-0.5027397152882407
-0.05237401051551638
0.9747460675667237
-0.5027397152882407
-0.05237401051551638
0.9747460675667237
-0.5027397152882407
-0.05237401051551638
0.9747460675667237
-0.5037288403888347
-0.051914733264066606
0.9744901278017778
-0.5037288403888347
-0.051914733264066606
0.9744901278017778
-0.5037288403888347
-0.051914733264066606
0.9744901278017778
-0.5037288403888347
-0.051914733264066606
0.9744901278017778
-0.5021310245448435
-0.051784566114619755
0.9737857929418289
-0.5021310245448435
-0.051784566114619755
0.9737857929418289
-0.5021310245448435
-0.051784566114619755
0.9737857929418289
-0.5021310245448435
-0.051784566114619755
0.9737857929418289
-0.501417426930306
-0.051818565464396435
0.9728129304870163
-0.501417426930306
-0.051818565464396435
0.9728129304870163
-0.501417426930306
-0.051818565464396435
0.9728129304870163
-0.501417426930306
-0.051818565464396435
0.9728129304870163
-0.5037098340713496
-0.052075462729668856
0.9721058204022224
-0.5037098340713496
-0.052075462729668856
0.9721058204022224
-0.5037098340713496
-0.052075462729668856
0.9721058204022224
-0.5037098340713496
-0.052075462729668856
0.9721058204022224
-0.5066567145916793
-0.05377138008595609
0.9723582970087276
-0.5066567145916793
-0.05377138008595609
0.9723582970087276
-0.5066567145916793
-0.05377138008595609
0.9723582970087276
-0.5066567145916793
-0.05377138008595609
0.9723582970087276
-0.5068811313143654
-0.0555293219628398
0.9723144842980447
-0.5068811313143654
-0.0555293219628398
0.9723144842980447
-0.5068811313143654
-0.0555293219628398
0.9723144842980447
-0.5068811313143654
-0.0555293219628398
0.9723144842980447
-0.507731689058746
-0.05654961454839006
0.9715926438829701
-0.507731689058746
-0.05654961454839006
0.9715926438829701
-0.507731689058746
-0.05654961454839006
0.9715926438829701
-0.507731689058746
-0.05654961454839006
0.9715926438829701
-0.5100939910195873
-0.05626660162225463
0.970581949366205
-0.5100939910195873
-0.05626660162225463
0.970581949366205
-0.5100939910195873
-0.05626660162225463
0.970581949366205
-0.5100939910195873
-0.05626660162225463
0.970581949366205
-0.51135958615448
-0.05509757175970757
0.9698118794827426
-0.51135958615448
-0.05509757175970757
0.9698118794827426
-0.51135958615448
-0.05509757175970757
0.9698118794827426
-0.51135958615448
-0.05509757175970757
0.9698118794827426
-0.5138172597040849
-0.05443882839324089
0.9696068822264239
-0.5138172597040849
-0.05443882839324089
0.9696068822264239
-0.5138172597040849
-0.05443882839324089
0.9696068822264239
-0.5138172597040849
-0.05443882839324089
0.9696068822264239
-0.5157190776481869
-0.05397214100617236
0.969771288820656
-0.5157190776481869
-0.05397214100617236
0.969771288820656
-0.5157190776481869
-0.05397214100617236
0.969771288820656
-0.5157190776481869
-0.05397214100617236
0.969771288820656
-0.5178615864835148
-0.05297827822638655
0.9704249905494603
-0.5178615864835148
-0.05297827822638655
0.9704249905494603
-0.5178615864835148
-0.05297827822638655
0.9704249905494603
-0.5178615864835148
-0.05297827822638655
0.9704249905494603
-0.5207773820133458
-0.05227789869537689
0.9705576760960609
-0.5207773820133458
-0.05227789869537689
0.9705576760960609
-0.5207773820133458
-0.05227789869537689
0.9705576760960609
-0.5207773820133458
-0.05227789869537689
0.9705576760960609
-0.5229073284510034
-0.05216182579451854
0.9700293222374361
-0.5229073284510034
-0.05216182579451854
0.9700293222374361
-0.5229073284510034
-0.05216182579451854
0.9700293222374361
-0.5229073284510034
-0.05216182579451854
0.9700293222374361
-0.5224380956125919
-0.05234484565862546
0.9691592273243488
-0.5224380956125919
-0.05234484565862546
0.9691592273243488
-0.5224380956125919
-0.05234484565862546
0.9691592273243488
-0.5224380956125919
-0.05234484565862546
0.9691592273243488
-0.523370740190661
-0.05403233607974454
0.9685110169110858
-0.523370740190661
-0.05403233607974454
0.9685110169110858
-0.523370740190661
-0.05403233607974454
0.9685110169110858
-0.523370740190661
-0.05403233607974454
0.9685110169110858
-0.5254281860881744
-0.0569339759071259
0.9674923747283236
-0.5254281860881744
-0.0569339759071259
0.9674923747283236
-0.5254281860881744
-0.0569339759071259
0.9674923747283236
-0.5254281860881744
-0.0569339759071259
0.9674923747283236
-0.5278264489365999
-0.05892881306092607
0.9660778587594367
-0.5278264489365999
-0.05892881306092607
0.9660778587594367
-0.5278264489365999
-0.05892881306092607
0.9660778587594367
-0.5278264489365999
-0.05892881306092607
0.9660778587594367
-0.5320067699788704
-0.05965781064569593
0.9648942793414279
-0.5320067699788704
-0.05965781064569593
0.9648942793414279
-0.5320067699788704
-0.05965781064569593
0.9648942793414279
-0.5320067699788704
-0.05965781064569593
0.9648942793414279
-0.5330127635402756
-0.05940773094910773
0.9632755923424625
-0.5330127635402756
-0.05940773094910773
0.9632755923424625
-0.5330127635402756
-0.05940773094910773
0.9632755923424625
-0.5330127635402756
-0.05940773094910773
0.9632755923424625
-0.5322711839974594
-0.05840919145179791
0.9603169335183349
-0.5322711839974594
-0.05840919145179791
0.9603169335183349
-0.5322711839974594
-0.05840919145179791
0.9603169335183349
-0.5322711839974594
-0.05840919145179791
0.9603169335183349
-0.5316081661379581
-0.05602530514695946
0.9580590946212688
-0.5316081661379581
-0.05602530514695946
0.9580590946212688
-0.5316081661379581
-0.05602530514695946
0.9580590946212688
-0.5316081661379581
-0.05602530514695946
0.9580590946212688
-0.5318115003196007
-0.054392356803953636
0.9567712379514025
-0.5318115003196007
-0.054392356803953636
0.9567712379514025
-0.5318115003196007
-0.054392356803953636
0.9567712379514025
-0.5318115003196007
-0.054392356803953636
0.9567712379514025
-0.5292602164752576
-0.05334952883762075
0.956522529221999
-0.5292602164752576
-0.05334952883762075
0.956522529221999
-0.5292602164752576
-0.05334952883762075
0.956522529221999
-0.5292602164752576
-0.05334952883762075
0.956522529221999
-0.5294377585447209
-0.05268746863289408
0.9570839654410953
-0.5294377585447209
-0.05268746863289408
0.9570839654410953
-0.5294377585447209
-0.05268746863289408
0.9570839654410953
-0.5294377585447209
-0.05268746863289408
0.9570839654410953
-0.5322177932602585
-0.05214463052977937
0.9569062038047104
-0.5322177932602585
-0.05214463052977937
0.9569062038047104
-0.5322177932602585
-0.05214463052977937
0.9569062038047104
-0.5322177932602585
-0.05214463052977937
0.9569062038047104
-0.5366912636723405
-0.051025078937559594
0.9573560945619165
-0.5366912636723405
-0.051025078937559594
0.9573560945619165
-0.5366912636723405
-0.051025078937559594
0.9573560945619165
-0.5366912636723405
-0.051025078937559594
0.9573560945619165
-0.535236699882534
-0.04881136430408159
0.957215241120653
-0.535236699882534
-0.04881136430408159
0.957215241120653
-0.535236699882534
-0.04881136430408159
0.957215241120653
-0.535236699882534
-0.04881136430408159
0.957215241120653
-0.5333583827491173
-0.04853221279831933
0.955386855599283
-0.5333583827491173
-0.04853221279831933
0.955386855599283
-0.5333583827491173
-0.04853221279831933
0.955386855599283
-0.5333583827491173
-0.04853221279831933
0.955386855599283
-0.5332485162158765
-0.04729820089743514
0.954310510809243
-0.5332485162158765
-0.04729820089743514
0.954310510809243
-0.5332485162158765
-0.04729820089743514
0.954310510809243
-0.5332485162158765
-0.04729820089743514
0.954310510809243
-0.5354637468117371
-0.04710171967511014
0.9529014115598232
-0.5354637468117371
-0.04710171967511014
0.9529014115598232
-0.5354637468117371
-0.04710171967511014
0.9529014115598232
-0.5354637468117371
-0.04710171967511014
0.9529014115598232
-0.5384411379843913
-0.0460341905465401
0.952800463565108
-0.5384411379843913
-0.0460341905465401
0.952800463565108
-0.5384411379843913
-0.0460341905465401
0.952800463565108
-0.5384411379843913
-0.0460341905465401
0.952800463565108
-0.5361069078382452
-0.04679991094683837
0.9500609392027938
-0.5361069078382452
-0.04679991094683837
0.9500609392027938
-0.5361069078382452
-0.04679991094683837
0.9500609392027938
-0.5361069078382452
-0.04679991094683837
0.9500609392027938
-0.5376471519121374
-0.04579227822528696
0.9460861816835455
-0.5376471519121374
-0.04579227822528696
0.9460861816835455
-0.5376471519121374
-0.04579227822528696
0.9460861816835455
-0.5376471519121374
-0.04579227822528696
0.9460861816835455
-0.5364395986147502
-0.044828633850409035
0.9417697560871919
-0.5364395986147502
-0.044828633850409035
0.9417697560871919
-0.5364395986147502
-0.044828633850409035
0.9417697560871919
-0.5364395986147502
-0.044828633850409035
0.9417697560871919
-0.5403450839964583
-0.043615670687854706
0.9389794685568762
-0.5403450839964583
-0.043615670687854706
0.9389794685568762
-0.5403450839964583
-0.043615670687854706
0.9389794685568762
-0.5403450839964583
-0.043615670687854706
0.9389794685568762
-0.5421914340843698
-0.04329519589153101
0.935646579952298
-0.5421914340843698
-0.04329519589153101
0.935646579952298
-0.5421914340843698
-0.04329519589153101
0.935646579952298
-0.5421914340843698
-0.04329519589153101
0.935646579952298
-0.5461383749033586
-0.04224988419849353
0.9327220554494029
-0.5461383749033586
-0.04224988419849353
0.9327220554494029
-0.5461383749033586
-0.04224988419849353
0.9327220554494029
-0.5461383749033586
-0.04224988419849353
0.9327220554494029
-0.5474278818282383
-0.04238216618323998
0.929838452937208
-0.5474278818282383
-0.04238216618323998
0.929838452937208
-0.5474278818282383
-0.04238216618323998
0.929838452937208
-0.5474278818282383
-0.04238216618323998
0.929838452937208
-0.5440594670383946
-0.044027440180317866
0.9283542092673372
-0.5440594670383946
-0.044027440180317866
0.9283542092673372
-0.5440594670383946
-0.044027440180317866
0.9283542092673372
-0.5440594670383946
-0.044027440180317866
0.9283542092673372
-0.5377758717928991
-0.04781137621706421
0.9274452140389436
-0.5377758717928991
-0.04781137621706421
0.9274452140389436
-0.5377758717928991
-0.04781137621706421
0.9274452140389436
-0.5377758717928991
-0.04781137621706421
0.9274452140389436
-0.5319289860378148
-0.052734460058078275
0.9256468190163694
-0.5319289860378148
-0.052734460058078275
0.9256468190163694
-0.5319289860378148
-0.052734460058078275
0.9256468190163694
-0.5319289860378148
-0.052734460058078275
0.9256468190163694
-0.529928300793409
-0.05758812504936027
0.9233459382326293
-0.529928300793409
-0.05758812504936027
0.9233459382326293
-0.529928300793409
-0.05758812504936027
0.9233459382326293
-0.529928300793409
-0.05758812504936027
0.9233459382326293
-0.5339842503826301
-0.06237118823255907
0.9206927291474367
-0.5339842503826301
-0.06237118823255907
0.9206927291474367
-0.5339842503826301
-0.06237118823255907
0.9206927291474367
-0.5339842503826301
-0.06237118823255907
0.9206927291474367
-0.5386857736578247
-0.0672618032338317
0.9198048239888618
-0.5386857736578247
-0.0672618032338317
0.9198048239888618
-0.5386857736578247
-0.0672618032338317
0.9198048239888618
-0.5386857736578247
-0.0672618032338317
0.9198048239888618
-0.541595254673201
-0.07120643424360822
0.9210506352479346
-0.541595254673201
-0.07120643424360822
0.9210506352479346
-0.541595254673201
-0.07120643424360822
0.9210506352479346
-0.541595254673201
-0.07120643424360822
0.9210506352479346
-0.5418977577102564
-0.07379246071510558
0.9225728781438257
-0.5418977577102564
-0.07379246071510558
0.9225728781438257
-0.5418977577102564
