-0.6369165009402482
0.0032492847394183636
0.6762877518969903
-0.6369165009402482
0.0032492847394183636
0.6762877518969903
-0.6378369514609532
0.0029597878746389175
0.6761033578651838
-0.6378369514609532
0.0029597878746389175
0.6761033578651838
-0.6378369514609532
0.0029597878746389175
0.6761033578651838
-0.6378369514609532
0.0029597878746389175
0.6761033578651838
-0.6385839494416534
0.0028132805336929306
0.6761146944685882
-0.6385839494416534
0.0028132805336929306
0.6761146944685882
-0.6385839494416534
0.0028132805336929306
0.6761146944685882
-0.6385839494416534
0.0028132805336929306
0.6761146944685882
-0.6390958568180444
0.002870341180458664
0.6761377144659764
-0.6390958568180444
0.002870341180458664
0.6761377144659764
-0.6390958568180444
0.002870341180458664
0.6761377144659764
-0.6390958568180444
0.002870341180458664
0.6761377144659764
-0.6400360565151209
0.0028737714175912405
0.675977901462084
-0.6400360565151209
0.0028737714175912405
0.675977901462084
-0.6400360565151209
0.0028737714175912405
0.675977901462084
-0.6400360565151209
0.0028737714175912405
0.675977901462084
-0.6406117669035889
0.002748377990626806
0.6761825879589252
-0.6406117669035889
0.002748377990626806
0.6761825879589252
-0.6406117669035889
0.002748377990626806
0.6761825879589252
-0.6406117669035889
0.002748377990626806
0.6761825879589252
-0.6406246628156196
0.002712173034241209
0.6760732730154749
-0.6406246628156196
0.002712173034241209
0.6760732730154749
-0.6406246628156196
0.002712173034241209
0.6760732730154749
-0.6406246628156196
0.002712173034241209
0.6760732730154749
-0.6410759860462242
0.002706933497025484
0.6764023851258488
-0.6410759860462242
0.002706933497025484
0.6764023851258488
-0.6410759860462242
0.002706933497025484
0.6764023851258488
-0.6410759860462242
0.002706933497025484
0.6764023851258488
-0.6416753655697215
0.0026314620305140884
0.6763907051088629
-0.6416753655697215
0.0026314620305140884
0.6763907051088629
-0.6416753655697215
0.0026314620305140884
0.6763907051088629
-0.6416753655697215
0.0026314620305140884
0.6763907051088629
-0.6417846601085956
0.002669847143161669
0.676377786958157
-0.6417846601085956
0.002669847143161669
0.676377786958157
-0.6417846601085956
0.002669847143161669
0.676377786958157
-0.6417846601085956
0.002669847143161669
0.676377786958157
-0.6414309414915141
0.0026271891060622578
0.6766351291870704
-0.6414309414915141
0.0026271891060622578
0.6766351291870704
-0.6414309414915141
0.0026271891060622578
0.6766351291870704
-0.6414309414915141
0.0026271891060622578
0.6766351291870704
-0.6414309414915141
0.0026271891060622578
0.6766351291870704
-0.6414309414915141
0.0026271891060622578
0.6766351291870704
-0.6414309414915141
0.0026271891060622578
0.6766351291870704
-0.6414309414915141
0.0026271891060622578
0.6766351291870704
-0.6420195651933419
0.002465858588166204
0.6767306621743188
-0.6420195651933419
0.002465858588166204
0.6767306621743188
-0.6420195651933419
0.002465858588166204
0.6767306621743188
-0.6420195651933419
0.002465858588166204
0.6767306621743188
-0.6420195651933419
0.002465858588166204
0.6767306621743188
-0.6420195651933419
0.002465858588166204
0.6767306621743188
-0.6420195651933419
0.002465858588166204
0.6767306621743188
-0.6420195651933419
0.002465858588166204
0.6767306621743188
-0.6421288415866145
0.002504261560336009
0.6767177408076444
-0.6421288415866145
0.002504261560336009
0.6767177408076444
-0.6421288415866145
0.002504261560336009
0.6767177408076444
-0.6421288415866145
0.002504261560336009
0.6767177408076444
-0.6421288415866145
0.002504261560336009
0.6767177408076444
-0.6421288415866145
0.002504261560336009
0.6767177408076444
-0.6421288415866145
0.002504261560336009
0.6767177408076444
-0.6421288415866145
0.002504261560336009
0.6767177408076444
-0.6422479348841913
0.001932401925579005
0.6769505498586623
-0.6422479348841913
0.001932401925579005
0.6769505498586623
-0.6422479348841913
0.001932401925579005
0.6769505498586623
-0.6422479348841913
0.001932401925579005
0.6769505498586623
-0.6422479348841913
0.001932401925579005
0.6769505498586623
-0.6422479348841913
0.001932401925579005
0.6769505498586623
-0.6422479348841913
0.001932401925579005
0.6769505498586623
-0.6422479348841913
0.001932401925579005
0.6769505498586623
-0.6422479348841913
0.001932401925579005
0.6769505498586623
-0.6422479348841913
0.001932401925579005
0.6769505498586623
-0.6422479348841913
0.001932401925579005
0.6769505498586623
-0.6422479348841913
0.001932401925579005
0.6769505498586623
-0.6422479348841913
0.001932401925579005
0.6769505498586623
-0.6422479348841913
0.001932401925579005
0.6769505498586623
-0.6422479348841913
0.001932401925579005
0.6769505498586623
-0.6422479348841913
0.001932401925579005
0.6769505498586623
-0.6423119015263853
0.0017501819718658738
0.677132429785776
-0.6423119015263853
0.0017501819718658738
0.677132429785776
-0.6423119015263853
0.0017501819718658738
0.677132429785776
-0.6423119015263853
0.0017501819718658738
0.677132429785776
-0.6416650703948563
0.001726915440902124
0.6773406604667448
-0.6416650703948563
0.001726915440902124
0.6773406604667448
-0.6416650703948563
0.001726915440902124
0.6773406604667448
-0.6416650703948563
0.001726915440902124
0.6773406604667448
-0.6416650703948563
0.001726915440902124
0.6773406604667448
-0.6416650703948563
0.001726915440902124
0.6773406604667448
-0.6416650703948563
0.001726915440902124
0.6773406604667448
-0.6416650703948563
0.001726915440902124
0.6773406604667448
-0.6414721162677968
0.0015769976496874418
0.6775119560568255
-0.6414721162677968
0.0015769976496874418
0.6775119560568255
-0.6414721162677968
0.0015769976496874418
0.6775119560568255
-0.6414721162677968
0.0015769976496874418
0.6775119560568255
-0.6407439779910665
0.0013204465183915461
0.677512176521025
-0.6407439779910665
0.0013204465183915461
0.677512176521025
-0.6407439779910665
0.0013204465183915461
0.677512176521025
-0.6407439779910665
0.0013204465183915461
0.677512176521025
-0.6407439779910665
0.0013204465183915461
0.677512176521025
-0.6407439779910665
0.0013204465183915461
0.677512176521025
-0.6407439779910665
0.0013204465183915461
0.677512176521025
-0.6407439779910665
0.0013204465183915461
0.677512176521025
-0.6412942635988624
0.0012686578775784189
0.6775717406225469
-0.6412942635988624
0.0012686578775784189
0.6775717406225469
-0.6412942635988624
0.0012686578775784189
0.6775717406225469
-0.6412942635988624
0.0012686578775784189
0.6775717406225469
-0.6413305258161915
0.0012815143346033956
0.6776102183135567
-0.6413305258161915
0.0012815143346033956
0.6776102183135567
-0.6413305258161915
0.0012815143346033956
0.6776102183135567
-0.6413305258161915
0.0012815143346033956
0.6776102183135567
-0.6413305258161915
0.0012815143346033956
0.6776102183135567
-0.6413305258161915
0.0012815143346033956
0.6776102183135567
-0.6413305258161915
0.0012815143346033956
0.6776102183135567
-0.6413305258161915
0.0012815143346033956
0.6776102183135567
-0.6413305258161915
0.0012815143346033956
0.6776102183135567
-0.6413305258161915
0.0012815143346033956
0.6776102183135567
-0.6413305258161915
0.0012815143346033956
0.6776102183135567
-0.6413305258161915
0.0012815143346033956
0.6776102183135567
-0.6411917190345098
0.0015602131021660796
0.6773537011921781
-0.6411917190345098
0.0015602131021660796
0.6773537011921781
-0.6411917190345098
0.0015602131021660796
0.6773537011921781
-0.6411917190345098
0.0015602131021660796
0.6773537011921781
-0.6416974420654022
0.00198390046768467
0.6772552251183707
-0.6416974420654022
0.00198390046768467
0.6772552251183707
-0.6416974420654022
0.00198390046768467
0.6772552251183707
-0.6416974420654022
0.00198390046768467
0.6772552251183707
-0.6416974420654022
0.00198390046768467
0.6772552251183707
-0.6416974420654022
0.00198390046768467
0.6772552251183707
-0.6416974420654022
0.00198390046768467
0.6772552251183707
-0.6416974420654022
0.00198390046768467
0.6772552251183707
-0.6415472749610074
0.002176414902984114
0.677598124293814
-0.6415472749610074
0.002176414902984114
0.677598124293814
-0.6415472749610074
0.002176414902984114
0.677598124293814
-0.6415472749610074
0.002176414902984114
0.677598124293814
-0.6416565425457671
0.002214874004516272
0.6775852119447012
-0.6416565425457671
0.002214874004516272
0.6775852119447012
-0.6416565425457671
0.002214874004516272
0.6775852119447012
-0.6416565425457671
0.002214874004516272
0.6775852119447012
-0.6416565425457671
0.002214874004516272
0.6775852119447012
-0.6416565425457671
0.002214874004516272
0.6775852119447012
-0.6416565425457671
0.002214874004516272
0.6775852119447012
-0.6416565425457671
0.002214874004516272
0.6775852119447012
-0.6412924824258535
0.0020865866936191956
0.6775854734493387
-0.6412924824258535
0.0020865866936191956
0.6775854734493387
-0.6412924824258535
0.0020865866936191956
0.6775854734493387
-0.6412924824258535
0.0020865866936191956
0.6775854734493387
-0.6414017522842742
0.0021250476773982344
0.6775725713740163
-0.6414017522842742
0.0021250476773982344
0.6775725713740163
-0.6414017522842742
0.0021250476773982344
0.6775725713740163
-0.6414017522842742
0.0021250476773982344
0.6775725713740163
-0.6415791883378457
0.0017376132799119804
0.6775012735841274
-0.6415791883378457
0.0017376132799119804
0.6775012735841274
-0.6415791883378457
0.0017376132799119804
0.6775012735841274
-0.6415791883378457
0.0017376132799119804
0.6775012735841274
-0.6420029311685403
0.001231948167438153
0.6775476857724393
-0.6420029311685403
0.001231948167438153
0.6775476857724393
-0.6420029311685403
0.001231948167438153
0.6775476857724393
-0.6420029311685403
0.001231948167438153
0.6775476857724393
-0.6420029311685403
0.001231948167438153
0.6775476857724393
-0.6420029311685403
0.001231948167438153
0.6775476857724393
-0.6420029311685403
0.001231948167438153
0.6775476857724393
-0.6420029311685403
0.001231948167438153
0.6775476857724393
-0.6421484914091706
0.001283290017847861
0.6775732879669755
-0.6421484914091706
0.001283290017847861
0.6775732879669755
-0.6421484914091706
0.001283290017847861
0.6775732879669755
-0.6421484914091706
0.001283290017847861
0.6775732879669755
-0.6419298541095588
0.0012059760521845946
0.6779630913990895
-0.6419298541095588
0.0012059760521845946
0.6779630913990895
-0.6419298541095588
0.0012059760521845946
0.6779630913990895
-0.6419298541095588
0.0012059760521845946
0.6779630913990895
-0.6419298541095588
0.0012059760521845946
0.6779630913990895
-0.6419298541095588
0.0012059760521845946
0.6779630913990895
-0.6419298541095588
0.0012059760521845946
0.6779630913990895
-0.6419298541095588
0.0012059760521845946
0.6779630913990895
-0.6419298541095588
0.0012059760521845946
0.6779630913990895
-0.6419298541095588
0.0012059760521845946
0.6779630913990895
-0.6419298541095588
0.0012059760521845946
0.6779630913990895
-0.6419298541095588
0.0012059760521845946
0.6779630913990895
-0.6423621101784817
9.080680385017764E-4
0.6782688417814549
-0.6423621101784817
9.080680385017764E-4
0.6782688417814549
-0.6423621101784817
9.080680385017764E-4
0.6782688417814549
-0.6423621101784817
9.080680385017764E-4
0.6782688417814549
-0.6424713445757306
9.465825635760958E-4
0.6782559705471038
-0.6424713445757306
9.465825635760958E-4
0.6782559705471038
-0.6424713445757306
9.465825635760958E-4
0.6782559705471038
-0.6424713445757306
9.465825635760958E-4
0.6782559705471038
-0.6421564328424947
7.944191976438028E-4
0.6785493621716192
-0.6421564328424947
7.944191976438028E-4
0.6785493621716192
-0.6421564328424947
7.944191976438028E-4
0.6785493621716192
-0.6421564328424947
7.944191976438028E-4
0.6785493621716192
-0.6421564328424947
7.944191976438028E-4
0.6785493621716192
-0.6421564328424947
7.944191976438028E-4
0.6785493621716192
-0.6421564328424947
7.944191976438028E-4
0.6785493621716192
-0.6421564328424947
7.944191976438028E-4
0.6785493621716192
-0.6421564328424947
7.944191976438028E-4
0.6785493621716192
-0.6421564328424947
7.944191976438028E-4
0.6785493621716192
-0.6421564328424947
7.944191976438028E-4
0.6785493621716192
-0.6421564328424947
7.944191976438028E-4
0.6785493621716192
-0.6422656638967789
8.329521020221822E-4
0.678536496122441
-0.6422656638967789
8.329521020221822E-4
0.678536496122441
-0.6422656638967789
8.329521020221822E-4
0.678536496122441
-0.6422656638967789
8.329521020221822E-4
0.678536496122441
-0.6422271341174761
9.421827802400907E-4
0.6785001810053587
-0.6422271341174761
9.421827802400907E-4
0.6785001810053587
-0.6422271341174761
9.421827802400907E-4
0.6785001810053587
-0.6422271341174761
9.421827802400907E-4
0.6785001810053587
-0.6422142598154341
9.784946073298532E-4
0.6786094112586246
-0.6422142598154341
9.784946073298532E-4
0.6786094112586246
-0.6422142598154341
9.784946073298532E-4
0.6786094112586246
-0.6422142598154341
9.784946073298532E-4
0.6786094112586246
-0.6423598032858674
0.0010299070506530328
0.6786350651064076
-0.6423598032858674
0.0010299070506530328
0.6786350651064076
-0.6423598032858674
0.0010299070506530328
0.6786350651064076
-0.6423598032858674
0.0010299070506530328
0.6786350651064076
-0.6413470818303784
3.0431543909590676E-4
0.6783414578569172
-0.6413470818303784
3.0431543909590676E-4
0.6783414578569172
-0.6413470818303784
3.0431543909590676E-4
0.6783414578569172
-0.6413470818303784
3.0431543909590676E-4
0.6783414578569172
-0.640890968613965
-1.4253347579018473E-4
0.6778763143184929
-0.640890968613965
-1.4253347579018473E-4
0.6778763143184929
-0.640890968613965
-1.4253347579018473E-4
0.6778763143184929
-0.640890968613965
-1.4253347579018473E-4
0.6778763143184929
-0.6416914397885388
-5.556969887973467E-4
0.677449865102589
-0.6416914397885388
-5.556969887973467E-4
0.677449865102589
-0.6416914397885388
-5.556969887973467E-4
0.677449865102589
-0.6416914397885388
-5.556969887973467E-4
0.677449865102589
-0.6424506932060715
-0.0014336704582774502
0.6768501309760557
-0.6424506932060715
-0.0014336704582774502
0.6768501309760557
-0.6424506932060715
-0.0014336704582774502
0.6768501309760557
-0.6424506932060715
-0.0014336704582774502
0.6768501309760557
-0.6414929728311045
-0.0018523124467507322
0.6766177382652209
-0.6414929728311045
-0.0018523124467507322
0.6766177382652209
-0.6414929728311045
-0.0018523124467507322
0.6766177382652209
-0.6414929728311045
-0.0018523124467507322
0.6766177382652209
-0.6401508947886809
-0.0011782888197846373
0.6763863291578969
-0.6401508947886809
-0.0011782888197846373
0.6763863291578969
-0.6401508947886809
-0.0011782888197846373
0.6763863291578969
-0.6401508947886809
-0.0011782888197846373
0.6763863291578969
-0.6387667671794642
-1.5017764757908303E-4
0.6759961843724419
-0.6387667671794642
-1.5017764757908303E-4
0.6759961843724419
-0.6387667671794642
-1.5017764757908303E-4
0.6759961843724419
-0.6387667671794642
-1.5017764757908303E-4
0.6759961843724419
-0.6378181315332521
0.0011551892127912452
0.6751946738640191
-0.6378181315332521
0.0011551892127912452
0.6751946738640191
-0.6378181315332521
0.0011551892127912452
0.6751946738640191
-0.6378181315332521
0.0011551892127912452
0.6751946738640191
-0.6365366766190576
0.0027115821951656537
0.6746761935689304
-0.6365366766190576
0.0027115821951656537
0.6746761935689304
-0.6365366766190576
0.0027115821951656537
0.6746761935689304
-0.6365366766190576
0.0027115821951656537
0.6746761935689304
-0.6353014870574384
0.004488186082472274
0.6743298757801734
-0.6353014870574384
0.004488186082472274
0.6743298757801734
-0.6353014870574384
0.004488186082472274
0.6743298757801734
-0.6353014870574384
0.004488186082472274
0.6743298757801734
-0.6308283366713102
0.0063981539649125615
0.6741826421816773
-0.6308283366713102
0.0063981539649125615
0.6741826421816773
-0.6308283366713102
0.0063981539649125615
0.6741826421816773
-0.6308283366713102
0.0063981539649125615
0.6741826421816773
-0.6138678442942492
0.01119248324805818
0.6725517217587069
-0.6138678442942492
0.01119248324805818
0.6725517217587069
-0.6138678442942492
0.01119248324805818
0.6725517217587069
-0.6138678442942492
0.01119248324805818
0.6725517217587069
-0.629460230701212
0.013222232441013662
0.6695237009710387
-0.629460230701212
0.013222232441013662
0.6695237009710387
-0.629460230701212
0.013222232441013662
0.6695237009710387
-0.629460230701212
0.013222232441013662
0.6695237009710387
-0.6453849128953286
0.005549422776255946
0.6641137080581159
-0.6453849128953286
0.005549422776255946
0.6641137080581159
-0.6453849128953286
0.005549422776255946
0.6641137080581159
-0.6453849128953286
0.005549422776255946
0.6641137080581159
-0.6495553317537481
6.121710287647575E-5
0.6556588284310477
-0.6495553317537481
6.121710287647575E-5
0.6556588284310477
-0.6495553317537481
6.121710287647575E-5
0.6556588284310477
-0.6495553317537481
6.121710287647575E-5
0.6556588284310477
-0.6115638076856185
0.004463296615638249
0.6453303285970534
-0.6115638076856185
0.004463296615638249
0.6453303285970534
-0.6115638076856185
0.004463296615638249
0.6453303285970534
-0.6115638076856185
0.004463296615638249
0.6453303285970534
-0.5517247227712161
0.023090761730994315
0.6353594980569944
-0.5517247227712161
0.023090761730994315
0.6353594980569944
-0.5517247227712161
0.023090761730994315
0.6353594980569944
-0.5517247227712161
0.023090761730994315
0.6353594980569944
-0.5138260742391637
0.04302321914091643
0.6361884865031048
-0.5138260742391637
0.04302321914091643
0.6361884865031048
-0.5138260742391637
0.04302321914091643
0.6361884865031048
-0.5138260742391637
0.04302321914091643
0.6361884865031048
-0.5082556659742885
0.05754275572093057
0.648819130451701
-0.5082556659742885
0.05754275572093057
0.648819130451701
-0.5082556659742885
0.05754275572093057
0.648819130451701
-0.5082556659742885
0.05754275572093057
0.648819130451701
-0.5456660032595217
0.06681579844819487
0.6667911952020668
-0.5456660032595217
0.06681579844819487
0.6667911952020668
-0.5456660032595217
0.06681579844819487
0.6667911952020668
-0.5456660032595217
0.06681579844819487
0.6667911952020668
-0.5935233929204295
0.0733339785652903
0.6713978516345603
-0.5935233929204295
0.0733339785652903
0.6713978516345603
-0.5935233929204295
0.0733339785652903
0.6713978516345603
-0.5935233929204295
0.0733339785652903
0.6713978516345603
-0.6085179928875116
0.07987762506539814
0.6683346513255775
-0.6085179928875116
0.07987762506539814
0.6683346513255775
-0.6085179928875116
0.07987762506539814
0.6683346513255775
-0.6085179928875116
0.07987762506539814
0.6683346513255775
-0.5830919312286602
0.08771467750602288
0.6691222285101042
-0.5830919312286602
0.08771467750602288
0.6691222285101042
-0.5830919312286602
0.08771467750602288
0.6691222285101042
-0.5830919312286602
0.08771467750602288
0.6691222285101042
-0.5617314077911024
0.09174923140605393
0.6723163679471811
-0.5617314077911024
0.09174923140605393
0.6723163679471811
-0.5617314077911024
0.09174923140605393
0.6723163679471811
-0.5617314077911024
0.09174923140605393
0.6723163679471811
-0.5583581643063877
0.09168113815813775
0.6770204494192591
-0.5583581643063877
0.09168113815813775
0.6770204494192591
-0.5583581643063877
0.09168113815813775
0.6770204494192591
-0.5583581643063877
0.09168113815813775
0.6770204494192591
-0.5639947335498516
0.08848624181806798
0.6805304030827914
-0.5639947335498516
0.08848624181806798
0.6805304030827914
-0.5639947335498516
0.08848624181806798
0.6805304030827914
-0.5639947335498516
0.08848624181806798
0.6805304030827914
-0.5713618309038746
0.08743125248537072
0.6823234042784759
-0.5713618309038746
0.08743125248537072
0.6823234042784759
-0.5713618309038746
0.08743125248537072
0.6823234042784759
-0.5713618309038746
0.08743125248537072
0.6823234042784759
-0.5748465938757632
0.0883049449579741
0.6840708695008301
-0.5748465938757632
0.0883049449579741
0.6840708695008301
-0.5748465938757632
0.0883049449579741
0.6840708695008301
-0.5748465938757632
0.0883049449579741
0.6840708695008301
-0.5745985597118461
0.08937039090890324
0.6860638429423134
-0.5745985597118461
0.08937039090890324
0.6860638429423134
-0.5745985597118461
0.08937039090890324
0.6860638429423134
-0.5745985597118461
0.08937039090890324
0.6860638429423134
-0.5718032583644044
0.09217731747643854
0.6871634124982781
-0.5718032583644044
0.09217731747643854
0.6871634124982781
-0.5718032583644044
0.09217731747643854
0.6871634124982781
-0.5718032583644044
0.09217731747643854
0.6871634124982781
-0.5686127354426442
0.09596398414525252
0.6875566673881207
-0.5686127354426442
0.09596398414525252
0.6875566673881207
-0.5686127354426442
0.09596398414525252
0.6875566673881207
-0.5686127354426442
0.09596398414525252
0.6875566673881207
-0.5675243114085926
0.09962382932771986
0.6885105360168117
-0.5675243114085926
0.09962382932771986
0.6885105360168117
-0.5675243114085926
0.09962382932771986
0.6885105360168117
-0.5675243114085926
0.09962382932771986
0.6885105360168117
-0.5720302279549465
0.10204282558481706
0.6891788228582836
-0.5720302279549465
0.10204282558481706
0.6891788228582836
-0.5720302279549465
0.10204282558481706
0.6891788228582836
-0.5720302279549465
0.10204282558481706
0.6891788228582836
-0.5741436229889126
0.10204632536504889
0.6901349428642538
-0.5741436229889126
0.10204632536504889
0.6901349428642538
-0.5741436229889126
0.10204632536504889
0.6901349428642538
-0.5741436229889126
0.10204632536504889
0.6901349428642538
-0.5725123823206459
0.10054633423293662
0.6907268719751392
-0.5725123823206459
0.10054633423293662
0.6907268719751392
-0.5725123823206459
0.10054633423293662
0.6907268719751392
-0.5725123823206459
0.10054633423293662
0.6907268719751392
-0.5717735851365316
0.09957471667484863
0.6910829217872708
-0.5717735851365316
0.09957471667484863
0.6910829217872708
-0.5717735851365316
0.09957471667484863
0.6910829217872708
-0.5717735851365316
0.09957471667484863
0.6910829217872708
-0.5695014976086342
0.09953428538118814
0.69151485001688
-0.5695014976086342
0.09953428538118814
0.69151485001688
-0.5695014976086342
0.09953428538118814
0.69151485001688
-0.5695014976086342
0.09953428538118814
0.69151485001688
-0.5681446884707702
0.09901394239371457
0.6932149225628633
-0.5681446884707702
0.09901394239371457
0.6932149225628633
-0.5681446884707702
0.09901394239371457
0.6932149225628633
-0.5681446884707702
0.09901394239371457
0.6932149225628633
-0.5691713433874779
0.09712442771536078
0.6950105538214159
-0.5691713433874779
0.09712442771536078
0.6950105538214159
-0.5691713433874779
0.09712442771536078
0.6950105538214159
-0.5691713433874779
0.09712442771536078
0.6950105538214159
-0.569773863429453
0.09537295125344207
0.6969089711834942
-0.569773863429453
0.09537295125344207
0.6969089711834942
-0.569773863429453
0.09537295125344207
0.6969089711834942
-0.569773863429453
0.09537295125344207
0.6969089711834942
-0.5671900685349969
0.09526081921601429
0.6988155451331385
-0.5671900685349969
0.09526081921601429
0.6988155451331385
-0.5671900685349969
0.09526081921601429
0.6988155451331385
-0.5671900685349969
0.09526081921601429
0.6988155451331385
-0.5640102943293596
0.09567417681847389
0.7005531918215675
-0.5640102943293596
0.09567417681847389
0.7005531918215675
-0.5640102943293596
0.09567417681847389
0.7005531918215675
-0.5640102943293596
0.09567417681847389
0.7005531918215675
-0.5610025317711383
0.09560999222891013
0.7023006854387834
-0.5610025317711383
0.09560999222891013
0.7023006854387834
-0.5610025317711383
0.09560999222891013
0.7023006854387834
-0.5610025317711383
0.09560999222891013
0.7023006854387834
-0.5603986877085787
0.09444864502537094
0.7036624397805918
-0.5603986877085787
0.09444864502537094
0.7036624397805918
-0.5603986877085787
0.09444864502537094
0.7036624397805918
-0.5603986877085787
0.09444864502537094
0.7036624397805918
-0.5604542313167297
0.09332813699918456
0.7047861103223698
-0.5604542313167297
0.09332813699918456
0.7047861103223698
-0.5604542313167297
0.09332813699918456
0.7047861103223698
-0.5604542313167297
0.09332813699918456
0.7047861103223698
-0.5586023029400943
0.09304484814668766
0.7057465949017556
-0.5586023029400943
0.09304484814668766
0.7057465949017556
-0.5586023029400943
0.09304484814668766
0.7057465949017556
-0.5586023029400943
0.09304484814668766
0.7057465949017556
-0.5564609963753322
0.09220685734517187
0.7061040415408435
-0.5564609963753322
0.09220685734517187
0.7061040415408435
-0.5564609963753322
0.09220685734517187
0.7061040415408435
-0.5564609963753322
0.09220685734517187
0.7061040415408435
-0.5549942447840343
0.09138137811878795
0.706112190887179
-0.5549942447840343
0.09138137811878795
0.706112190887179
-0.5549942447840343
0.09138137811878795
0.706112190887179
-0.5549942447840343
0.09138137811878795
0.706112190887179
-0.5538519493846514
0.0902327313621512
0.7055113103712937
-0.5538519493846514
0.0902327313621512
0.7055113103712937
-0.5538519493846514
0.0902327313621512
0.7055113103712937
-0.5538519493846514
0.0902327313621512
0.7055113103712937
-0.5539090368128015
0.0884180894757254
0.7047760748149581
-0.5539090368128015
0.0884180894757254
0.7047760748149581
-0.5539090368128015
0.0884180894757254
0.7047760748149581
-0.5539090368128015
0.0884180894757254
0.7047760748149581
-0.5539090368128015
0.0884180894757254
0.7047760748149581
-0.5539090368128015
0.0884180894757254
0.7047760748149581
-0.5539321803221443
0.08713077726074873
0.7040563588119799
-0.5539321803221443
0.08713077726074873
0.7040563588119799
-0.5539321803221443
0.08713077726074873
0.7040563588119799
-0.5539321803221443
0.08713077726074873
0.7040563588119799
-0.5510496168191167
0.08295625449693599
0.7036451197752197
-0.5510496168191167
0.08295625449693599
0.7036451197752197
-0.5510496168191167
0.08295625449693599
0.7036451197752197
-0.5510496168191167
0.08295625449693599
0.7036451197752197
-0.5573058186364884
0.09562759217376818
0.7020788069447692
-0.5573058186364884
0.09562759217376818
0.7020788069447692
-0.5470658896143061
0.08353141699479492
0.7020080613334286
-0.5470658896143061
0.08353141699479492
0.7020080613334286
-0.5470658896143061
0.08353141699479492
0.7020080613334286
-0.5470658896143061
0.08353141699479492
0.7020080613334286
-0.552037325529634
0.08683036796162144
0.7004673826585595
-0.552037325529634
0.08683036796162144
0.7004673826585595
-0.552037325529634
0.08683036796162144
0.7004673826585595
-0.552037325529634
0.08683036796162144
0.7004673826585595
-0.548629560018911
0.08375946009838497
0.6998847454704118
-0.548629560018911
0.08375946009838497
0.6998847454704118
-0.548629560018911
0.08375946009838497
0.6998847454704118
-0.548629560018911
0.08375946009838497
0.6998847454704118
-0.5515100277869751
0.08120780295741369
0.6989788983533243
-0.5515100277869751
0.08120780295741369
0.6989788983533243
-0.5515100277869751
0.08120780295741369
0.6989788983533243
-0.5515100277869751
0.08120780295741369
0.6989788983533243
-0.5504333791405264
0.08435164145287909
0.697764938158147
-0.5504333791405264
0.08435164145287909
0.697764938158147
-0.5504333791405264
0.08435164145287909
0.697764938158147
-0.5504333791405264
0.08435164145287909
0.697764938158147
-0.5500339635559546
0.09031660985876279
0.6961866951764064
-0.5500339635559546
0.09031660985876279
0.6961866951764064
-0.5500339635559546
0.09031660985876279
0.6961866951764064
-0.5500339635559546
0.09031660985876279
0.6961866951764064
-0.5504444096660974
0.08902907708648684
0.6958473907134587
-0.5504444096660974
0.08902907708648684
0.6958473907134587
-0.5504444096660974
0.08902907708648684
0.6958473907134587
-0.5504444096660974
0.08902907708648684
0.6958473907134587
-0.5507768211261609
0.0887279312315328
0.6948766734447491
-0.5507768211261609
0.0887279312315328
0.6948766734447491
-0.5507768211261609
0.0887279312315328
0.6948766734447491
-0.5507768211261609
0.0887279312315328
0.6948766734447491
-0.5508878271630021
0.08866849517024818
0.6940857753873301
-0.5508878271630021
0.08866849517024818
0.6940857753873301
-0.5508878271630021
0.08866849517024818
0.6940857753873301
-0.5508878271630021
0.08866849517024818
0.6940857753873301
-0.5505861475996603
0.08910929587359503
0.6936931269120103
-0.5505861475996603
0.08910929587359503
0.6936931269120103
-0.5505861475996603
0.08910929587359503
0.6936931269120103
-0.5505861475996603
0.08910929587359503
0.6936931269120103
-0.5521527050069002
0.08999366958685283
0.6937831045422355
-0.5521527050069002
0.08999366958685283
0.6937831045422355
-0.5521527050069002
0.08999366958685283
0.6937831045422355
-0.5521527050069002
0.08999366958685283
0.6937831045422355
-0.5541662954350801
0.090022627865745
0.693617925593685
-0.5541662954350801
0.090022627865745
0.693617925593685
-0.5541662954350801
0.090022627865745
0.693617925593685
-0.5541662954350801
0.090022627865745
0.693617925593685
-0.5480283433201568
0.07493354389812473
0.6948658042986827
-0.5480283433201568
0.07493354389812473
0.6948658042986827
-0.5480283433201568
0.07493354389812473
0.6948658042986827
-0.5480283433201568
0.07493354389812473
0.6948658042986827
-0.5385216795209998
0.06339432267425699
0.6959638663209009
-0.5385216795209998
0.06339432267425699
0.6959638663209009
-0.5385216795209998
0.06339432267425699
0.6959638663209009
-0.5385216795209998
0.06339432267425699
0.6959638663209009
-0.5393829761675124
0.06142261646799885
0.6964055202372078
-0.5393829761675124
0.06142261646799885
0.6964055202372078
-0.5393829761675124
0.06142261646799885
0.6964055202372078
-0.5393829761675124
0.06142261646799885
0.6964055202372078
-0.5412134350021937
0.06173246938356685
0.6969994774197517
-0.5412134350021937
0.06173246938356685
0.6969994774197517
-0.5412134350021937
0.06173246938356685
0.6969994774197517
-0.5412134350021937
0.06173246938356685
0.6969994774197517
-0.5431155115889533
0.06219343383106064
0.6975486813593789
-0.5431155115889533
0.06219343383106064
0.6975486813593789
-0.5431155115889533
0.06219343383106064
0.6975486813593789
-0.5431155115889533
0.06219343383106064
0.6975486813593789
-0.5437153228251865
0.06252198675157829
0.6979262780265253
-0.5437153228251865
0.06252198675157829
0.6979262780265253
-0.5437153228251865
0.06252198675157829
0.6979262780265253
-0.5437153228251865
0.06252198675157829
0.6979262780265253
-0.5444651680140012
0.06270541852827842
0.6980573006079416
-0.5444651680140012
0.06270541852827842
0.6980573006079416
-0.5444651680140012
0.06270541852827842
0.6980573006079416
-0.5444651680140012
0.06270541852827842
0.6980573006079416
-0.5445761652540497
0.06274463830361568
0.698042587332576
-0.5445761652540497
0.06274463830361568
0.698042587332576
-0.5445761652540497
0.06274463830361568
0.698042587332576
-0.5445761652540497
0.06274463830361568
0.698042587332576
-0.5445077253165751
0.063062193824996
0.6987575346848386
-0.5445077253165751
0.063062193824996
0.6987575346848386
-0.5445077253165751
0.063062193824996
0.6987575346848386
-0.5445077253165751
0.063062193824996
0.6987575346848386
-0.5442171610260124
0.0633749068691925
0.6997633709614196
-0.5442171610260124
0.0633749068691925
0.6997633709614196
-0.5442171610260124
0.0633749068691925
0.6997633709614196
-0.5442171610260124
0.0633749068691925
0.6997633709614196
-0.544794147725858
0.06346580093254356
0.7007274153889427
-0.544794147725858
0.06346580093254356
0.7007274153889427
-0.544794147725858
0.06346580093254356
0.7007274153889427
-0.544794147725858
0.06346580093254356
0.7007274153889427
-0.5457655369656008
0.06380304029420332
0.7010896081384184
-0.5457655369656008
0.06380304029420332
0.7010896081384184
-0.5457655369656008
0.06380304029420332
0.7010896081384184
-0.5457655369656008
0.06380304029420332
0.7010896081384184
-0.5458764203445468
0.06391641493838608
0.701336059402242
-0.5458764203445468
0.06391641493838608
0.701336059402242
-0.5458764203445468
0.06391641493838608
0.701336059402242
-0.5458764203445468
0.06391641493838608
0.701336059402242
-0.5451192114572724
0.06432495870987169
0.7018859721255094
-0.5451192114572724
0.06432495870987169
0.7018859721255094
-0.5451192114572724
0.06432495870987169
0.7018859721255094
-0.5451192114572724
0.06432495870987169
0.7018859721255094
-0.5443962912061068
0.064526353054418
0.7025667823622953
-0.5443962912061068
0.064526353054418
0.7025667823622953
-0.5443962912061068
0.064526353054418
0.7025667823622953
-0.5443962912061068
0.064526353054418
0.7025667823622953
-0.5443567685093456
0.06463705274507064
0.7025372306560838
-0.5443567685093456
0.06463705274507064
0.7025372306560838
-0.5443567685093456
0.06463705274507064
0.7025372306560838
-0.5443567685093456
0.06463705274507064
0.7025372306560838
-0.545798909857368
0.06482781758038109
0.7027310428992697
-0.545798909857368
0.06482781758038109
0.7027310428992697
-0.545798909857368
0.06482781758038109
0.7027310428992697
-0.545798909857368
0.06482781758038109
0.7027310428992697
-0.5467282849102734
0.06495685063117235
0.7029152249217113
-0.5467282849102734
0.06495685063117235
0.7029152249217113
-0.5467282849102734
0.06495685063117235
0.7029152249217113
-0.5467282849102734
0.06495685063117235
0.7029152249217113
-0.5467996632304861
0.06510694877174322
0.7028705918952699
-0.5467996632304861
0.06510694877174322
0.7028705918952699
-0.5467996632304861
0.06510694877174322
0.7028705918952699
-0.5467996632304861
0.06510694877174322
0.7028705918952699
-0.5474701165881762
0.06615257626170848
0.7023605176034858
-0.5474701165881762
0.06615257626170848
0.7023605176034858
-0.5474701165881762
0.06615257626170848
0.7023605176034858
-0.5474701165881762
0.06615257626170848
0.7023605176034858
-0.5478496901032173
0.06728912280954422
0.7020720301971947
-0.5478496901032173
0.06728912280954422
0.7020720301971947
-0.5478496901032173
0.06728912280954422
0.7020720301971947
-0.5478496901032173
0.06728912280954422
0.7020720301971947
-0.5482296127906436
0.06842553372031429
0.7017830947923646
-0.5482296127906436
0.06842553372031429
0.7017830947923646
-0.5482296127906436
0.06842553372031429
0.7017830947923646
-0.5482296127906436
0.06842553372031429
0.7017830947923646
-0.5482762742598617
0.06873094933038297
0.7018588619876666
-0.5482762742598617
0.06873094933038297
0.7018588619876666
-0.5482762742598617
0.06873094933038297
0.7018588619876666
-0.5482762742598617
0.06873094933038297
0.7018588619876666
-0.5493573475116934
0.06942686880871249
0.7014745067810971
-0.5493573475116934
0.06942686880871249
0.7014745067810971
-0.5493573475116934
0.06942686880871249
0.7014745067810971
-0.5493573475116934
0.06942686880871249
0.7014745067810971
-0.5510455233838235
0.0699328041805046
0.701046050317225
-0.5510455233838235
0.0699328041805046
0.701046050317225
-0.5510455233838235
0.0699328041805046
0.701046050317225
-0.5510455233838235
0.0699328041805046
0.701046050317225
-0.5533353382358276
0.07046915424051552
0.699946167363463
-0.5533353382358276
0.07046915424051552
0.699946167363463
-0.5533353382358276
0.07046915424051552
0.699946167363463
-0.5533353382358276
0.07046915424051552
0.699946167363463
-0.5540537765759661
0.0706350118658067
0.6991585447798065
-0.5540537765759661
0.0706350118658067
0.6991585447798065
-0.5540537765759661
0.0706350118658067
0.6991585447798065
-0.5540537765759661
0.0706350118658067
0.6991585447798065
-0.5541646991566295
0.07067409233232434
0.6991431819796288
-0.5541646991566295
0.07067409233232434
0.6991431819796288
-0.5541646991566295
0.07067409233232434
0.6991431819796288
-0.5541646991566295
0.07067409233232434
0.6991431819796288
-0.5567870233508339
0.07029820663609082
0.6995823451839012
-0.5567870233508339
0.07029820663609082
0.6995823451839012
-0.5567870233508339
0.07029820663609082
0.6995823451839012
-0.5567870233508339
0.07029820663609082
0.6995823451839012
-0.5593079512142335
0.07023074092760083
0.7006963075877038
-0.5593079512142335
0.07023074092760083
0.7006963075877038
-0.5593079512142335
0.07023074092760083
0.7006963075877038
-0.5593079512142335
0.07023074092760083
0.7006963075877038
-0.5594743664042318
0.07138859924127934
0.7012048913360893
-0.5594743664042318
0.07138859924127934
0.7012048913360893
-0.5594743664042318
0.07138859924127934
0.7012048913360893
-0.5594743664042318
0.07138859924127934
0.7012048913360893
-0.5595964955331618
0.07217357610554356
0.7027892588430874
-0.5595964955331618
0.07217357610554356
0.7027892588430874
-0.5595964955331618
0.07217357610554356
0.7027892588430874
-0.5595964955331618
0.07217357610554356
0.7027892588430874
-0.5626966443783468
0.0707338982623065
0.7048875622633831
-0.5626966443783468
0.0707338982623065
0.7048875622633831
-0.5626966443783468
0.0707338982623065
0.7048875622633831
-0.5626966443783468
0.0707338982623065
0.7048875622633831
-0.5667781879346393
0.06713492907563938
0.70755624826387
-0.5667781879346393
0.06713492907563938
0.70755624826387
-0.5667781879346393
0.06713492907563938
0.70755624826387
-0.5667781879346393
0.06713492907563938
0.70755624826387
-0.5692483787522528
0.0629249182401278
0.7110996684027067
-0.5692483787522528
0.0629249182401278
0.7110996684027067
-0.5692483787522528
0.0629249182401278
0.7110996684027067
-0.5692483787522528
0.0629249182401278
0.7110996684027067
-0.5698043221821893
0.05934923352041892
0.7137822174272762
-0.5698043221821893
0.05934923352041892
0.7137822174272762
-0.5698043221821893
0.05934923352041892
0.7137822174272762
-0.5698043221821893
0.05934923352041892
0.7137822174272762
-0.5725535615572956
0.056479996093660015
0.7160638383956757
-0.5725535615572956
0.056479996093660015
0.7160638383956757
-0.5725535615572956
0.056479996093660015
0.7160638383956757
-0.5725535615572956
0.056479996093660015
0.7160638383956757
-0.5782739361263911
0.05551511829187597
0.7181862734782718
-0.5782739361263911
0.05551511829187597
0.7181862734782718
-0.5782739361263911
0.05551511829187597
0.7181862734782718
-0.5782739361263911
0.05551511829187597
0.7181862734782718
-0.5865683920049904
0.05388051396026973
0.7201972501941922
-0.5865683920049904
0.05388051396026973
0.7201972501941922
-0.5865683920049904
0.05388051396026973
0.7201972501941922
-0.5865683920049904
0.05388051396026973
0.7201972501941922
-0.5937436776661315
0.05070906622794393
0.7203630900766668
-0.5937436776661315
0.05070906622794393
0.7203630900766668
-0.5937436776661315
0.05070906622794393
0.7203630900766668
-0.5937436776661315
0.05070906622794393
0.7203630900766668
-0.6016219751815746
0.046372564973577425
0.7199410489098883
-0.6016219751815746
0.046372564973577425
0.7199410489098883
-0.6016219751815746
0.046372564973577425
0.7199410489098883
-0.6016219751815746
0.046372564973577425
0.7199410489098883
-0.6104784235642953
0.042950803941119504
0.717834896563313
-0.6104784235642953
0.042950803941119504
0.717834896563313
-0.6104784235642953
0.042950803941119504
0.717834896563313
-0.6104784235642953
0.042950803941119504
0.717834896563313
-0.6158425527963982
0.03933386150235173
0.7142667607927643
-0.6158425527963982
0.03933386150235173
0.7142667607927643
-0.6158425527963982
0.03933386150235173
0.7142667607927643
-0.6158425527963982
0.03933386150235173
0.7142667607927643
-0.6174331500160122
0.03401264659777004
0.711612775920228
-0.6174331500160122
0.03401264659777004
0.711612775920228
-0.6174331500160122
0.03401264659777004
0.711612775920228
-0.6174331500160122
0.03401264659777004
0.711612775920228
-0.6167210374894787
0.027804132185656916
0.7079948350429562
-0.6167210374894787
0.027804132185656916
0.7079948350429562
-0.6167210374894787
0.027804132185656916
0.7079948350429562
-0.6167210374894787
0.027804132185656916
0.7079948350429562
-0.6172641736710925
0.019680729018596646
0.7045783146032105
-0.6172641736710925
0.019680729018596646
0.7045783146032105
-0.6172641736710925
0.019680729018596646
0.7045783146032105
-0.6172641736710925
0.019680729018596646
0.7045783146032105
-0.6216325305306014
0.01175840565037498
0.7029444659081361
-0.6216325305306014
0.01175840565037498
0.7029444659081361
-0.6216325305306014
0.01175840565037498
0.7029444659081361
-0.6216325305306014
0.01175840565037498
0.7029444659081361
-0.6238151205261327
0.004772168039823696
0.7045940909706281
-0.6238151205261327
0.004772168039823696
0.7045940909706281
-0.6238151205261327
0.004772168039823696
0.7045940909706281
-0.6238151205261327
0.004772168039823696
0.7045940909706281
-0.6242524320168875
-0.0026896675940206033
0.7059491692763902
-0.6242524320168875
-0.0026896675940206033
0.7059491692763902
-0.6242524320168875
-0.0026896675940206033
0.7059491692763902
-0.6242524320168875
-0.0026896675940206033
0.7059491692763902
-0.6252637389982547
-0.009345206284605669
0.7053522260769511
-0.6252637389982547
-0.009345206284605669
0.7053522260769511
-0.6252637389982547
-0.009345206284605669
0.7053522260769511
-0.6252637389982547
-0.009345206284605669
0.7053522260769511
-0.6266761584599654
-0.013752549393830958
0.7045305248224544
-0.6266761584599654
-0.013752549393830958
0.7045305248224544
-0.6266761584599654
-0.013752549393830958
0.7045305248224544
-0.6266761584599654
-0.013752549393830958
0.7045305248224544
-0.626461536988747
-0.015303348501777817
0.7037704063813358
-0.626461536988747
-0.015303348501777817
0.7037704063813358
-0.626461536988747
-0.015303348501777817
0.7037704063813358
-0.626461536988747
-0.015303348501777817
0.7037704063813358
-0.6228888198074052
-0.015877552960358816
0.7039353366457972
-0.6228888198074052
-0.015877552960358816
0.7039353366457972
-0.6228888198074052
-0.015877552960358816
0.7039353366457972
-0.6228888198074052
-0.015877552960358816
0.7039353366457972
-0.6189041503225465
-0.015544872646695303
0.7048115105254188
-0.6189041503225465
-0.015544872646695303
0.7048115105254188
-0.6189041503225465
-0.015544872646695303
0.7048115105254188
-0.6189041503225465
-0.015544872646695303
0.7048115105254188
-0.6190969754458396
-0.014279319386670066
0.70469310468607
-0.6190969754458396
-0.014279319386670066
0.70469310468607
-0.6190969754458396
-0.014279319386670066
0.70469310468607
-0.6190969754458396
-0.014279319386670066
0.70469310468607
-0.6208782598340931
-0.01196835948853635
0.7039007360497336
-0.6208782598340931
-0.01196835948853635
0.7039007360497336
-0.6208782598340931
-0.01196835948853635
0.7039007360497336
-0.6208782598340931
-0.01196835948853635
0.7039007360497336
-0.6217836441127097
-0.008048666058202338
0.7031404554404805
-0.6217836441127097
-0.008048666058202338
0.7031404554404805
-0.6217836441127097
-0.008048666058202338
0.7031404554404805
-0.6217836441127097
-0.008048666058202338
0.7031404554404805
-0.6210611707164855
-0.0030532099049444712
0.703351856941047
-0.6210611707164855
-0.0030532099049444712
0.703351856941047
-0.6210611707164855
-0.0030532099049444712
0.703351856941047
-0.6210611707164855
-0.0030532099049444712
0.703351856941047
-0.6193527387255691
0.0013725107333697306
0.7037820411940404
-0.6193527387255691
0.0013725107333697306
0.7037820411940404
-0.6193527387255691
0.0013725107333697306
0.7037820411940404
-0.6193527387255691
0.0013725107333697306
0.7037820411940404
-0.6165046892637787
0.005874978258765612
0.7040658826254604
-0.6165046892637787
0.005874978258765612
0.7040658826254604
-0.6165046892637787
0.005874978258765612
0.7040658826254604
-0.6165046892637787
0.005874978258765612
0.7040658826254604
-0.6151422739653679
0.011384216135496998
0.7036865295701276
-0.6151422739653679
0.011384216135496998
0.7036865295701276
-0.6151422739653679
0.011384216135496998
0.7036865295701276
-0.6151422739653679
0.011384216135496998
0.7036865295701276
-0.6099486837348591
0.017255875340555112
0.7033168510465182
-0.6099486837348591
0.017255875340555112
0.7033168510465182
-0.6099486837348591
0.017255875340555112
0.7033168510465182
-0.6099486837348591
0.017255875340555112
0.7033168510465182
-0.6080936268702163
0.021633204319988837
0.7034007115643586
-0.6080936268702163
0.021633204319988837
0.7034007115643586
-0.6080936268702163
0.021633204319988837
0.7034007115643586
-0.6080936268702163
0.021633204319988837
0.7034007115643586
-0.6064159060116674
0.024313277986160776
0.7030927795288974
-0.6064159060116674
0.024313277986160776
0.7030927795288974
-0.6064159060116674
0.024313277986160776
0.7030927795288974
-0.6064159060116674
0.024313277986160776
0.7030927795288974
-0.6007956857696483
0.02866051163032807
0.7010340912182884
-0.6007956857696483
0.02866051163032807
0.7010340912182884
-0.6007956857696483
0.02866051163032807
0.7010340912182884
-0.6007956857696483
0.02866051163032807
0.7010340912182884
-0.5937265989384479
0.034103751096058975
0.6986054821471609
-0.5937265989384479
0.034103751096058975
0.6986054821471609
-0.5937265989384479
0.034103751096058975
0.6986054821471609
-0.5937265989384479
0.034103751096058975
0.6986054821471609
-0.583261635744314
0.038763996079330475
0.6949975990299979
-0.583261635744314
0.038763996079330475
0.6949975990299979
-0.583261635744314
0.038763996079330475
0.6949975990299979
-0.583261635744314
0.038763996079330475
0.6949975990299979
-0.5672474999184058
0.0433881427725966
0.6903802165841795
-0.5672474999184058
0.0433881427725966
0.6903802165841795
-0.5672474999184058
0.0433881427725966
0.6903802165841795
-0.5672474999184058
0.0433881427725966
0.6903802165841795
-0.5523395525836927
0.049441575707713466
0.6864002830592495
-0.5523395525836927
0.049441575707713466
0.6864002830592495
-0.5523395525836927
0.049441575707713466
0.6864002830592495
-0.5523395525836927
0.049441575707713466
0.6864002830592495
-0.5403761125075084
0.05742097785220351
0.6844601217130108
-0.5403761125075084
0.05742097785220351
0.6844601217130108
-0.5403761125075084
0.05742097785220351
0.6844601217130108
-0.5403761125075084
0.05742097785220351
0.6844601217130108
-0.529288389643896
0.06882722551519892
0.6850344618695785
-0.529288389643896
0.06882722551519892
0.6850344618695785
-0.529288389643896
0.06882722551519892
0.6850344618695785
-0.529288389643896
0.06882722551519892
0.6850344618695785
-0.5264169757333396
0.07941704425647414
0.6921183666547512
-0.5264169757333396
0.07941704425647414
0.6921183666547512
-0.5264169757333396
0.07941704425647414
0.6921183666547512
-0.5264169757333396
0.07941704425647414
0.6921183666547512
-0.5339797758078288
0.08605603867380113
0.7022026071157078
-0.5339797758078288
0.08605603867380113
0.7022026071157078
-0.5339797758078288
0.08605603867380113
0.7022026071157078
-0.5339797758078288
0.08605603867380113
0.7022026071157078
-0.5462302818483656
0.09009840062879214
0.7089209405114903
-0.5462302818483656
0.09009840062879214
0.7089209405114903
-0.5462302818483656
0.09009840062879214
0.7089209405114903
-0.5462302818483656
0.09009840062879214
0.7089209405114903
-0.5537836091979517
0.09301126822139685
0.7099125252802018
-0.5537836091979517
0.09301126822139685
0.7099125252802018
-0.5537836091979517
0.09301126822139685
0.7099125252802018
-0.5537836091979517
0.09301126822139685
0.7099125252802018
-0.5431258164629967
0.09589017187575892
0.7101971423186638
-0.5431258164629967
0.09589017187575892
0.7101971423186638
-0.5431258164629967
0.09589017187575892
0.7101971423186638
-0.5431258164629967
0.09589017187575892
0.7101971423186638
-0.5320066514454739
0.09562760472888374
0.7114207349133225
-0.5320066514454739
0.09562760472888374
0.7114207349133225
-0.5320066514454739
0.09562760472888374
0.7114207349133225
-0.5320066514454739
0.09562760472888374
0.7114207349133225
-0.5269923080452505
0.09270158977799114
0.7144841145967004
-0.5269923080452505
0.09270158977799114
0.7144841145967004
-0.5269923080452505
0.09270158977799114
0.7144841145967004
-0.5269923080452505
0.09270158977799114
0.7144841145967004
-0.5302781433472156
0.08885135293030959
0.7191692539196909
-0.5302781433472156
0.08885135293030959
0.7191692539196909
-0.5302781433472156
0.08885135293030959
0.7191692539196909
-0.5302781433472156
0.08885135293030959
0.7191692539196909
-0.5352961485144268
0.08699874222304478
0.7214269976333211
-0.5352961485144268
0.08699874222304478
0.7214269976333211
-0.5352961485144268
0.08699874222304478
0.7214269976333211
-0.5352961485144268
0.08699874222304478
0.7214269976333211
-0.5420801282921559
0.0867231239121007
0.7216422713237426
-0.5420801282921559
0.0867231239121007
0.7216422713237426
-0.5420801282921559
0.0867231239121007
0.7216422713237426
-0.5420801282921559
0.0867231239121007
0.7216422713237426
-0.5461414294621897
0.08474413286393781
0.720137598805616
-0.5461414294621897
0.08474413286393781
0.720137598805616
-0.5461414294621897
0.08474413286393781
0.720137598805616
-0.5461414294621897
0.08474413286393781
0.720137598805616
-0.5426007862350589
0.08164826152002573
0.717451226156904
-0.5426007862350589
0.08164826152002573
0.717451226156904
-0.5426007862350589
0.08164826152002573
0.717451226156904
-0.5426007862350589
0.08164826152002573
0.717451226156904
-0.5374317276292611
0.08043003349955148
0.7149717031267576
-0.5374317276292611
0.08043003349955148
0.7149717031267576
-0.5374317276292611
0.08043003349955148
0.7149717031267576
-0.5374317276292611
0.08043003349955148
0.7149717031267576
-0.5356805690534712
0.08057914919102435
0.7136235062569786
-0.5356805690534712
0.08057914919102435
0.7136235062569786
-0.5356805690534712
0.08057914919102435
0.7136235062569786
-0.5356805690534712
0.08057914919102435
0.7136235062569786
-0.54022064450091
0.08131103295807147
0.7124782907751288
-0.54022064450091
0.08131103295807147
0.7124782907751288
-0.54022064450091
0.08131103295807147
0.7124782907751288
-0.54022064450091
0.08131103295807147
0.7124782907751288
-0.5458212003768265
0.08259797103055082
0.7114263366599985
-0.5458212003768265
0.08259797103055082
0.7114263366599985
-0.5458212003768265
0.08259797103055082
0.7114263366599985
-0.5458212003768265
0.08259797103055082
0.7114263366599985
-0.5269923080452505
0.09270158977799114
0.7144841145967004
-0.5269923080452505
0.09270158977799114
0.7144841145967004
-0.5484029074730236
0.08183182376002231
0.7095865797744308
-0.5484029074730236
0.08183182376002231
0.7095865797744308
-0.5484029074730236
0.08183182376002231
0.7095865797744308
-0.5484029074730236
0.08183182376002231
0.7095865797744308
-0.5484029074730236
0.08183182376002231
0.7095865797744308
-0.5484029074730236
0.08183182376002231
0.7095865797744308
-0.5459842367821583
0.08102689537824467
0.7095280336443932
-0.5459842367821583
0.08102689537824467
0.7095280336443932
-0.5459842367821583
0.08102689537824467
0.7095280336443932
-0.5459842367821583
0.08102689537824467
0.7095280336443932
-0.5435678890486213
0.08086204428409961
0.7088881891944495
-0.5435678890486213
0.08086204428409961
0.7088881891944495
-0.5435678890486213
0.08086204428409961
0.7088881891944495
-0.5435678890486213
0.08086204428409961
0.7088881891944495
-0.5398911588210473
0.07023806202746108
0.7104837341909234
-0.5398911588210473
0.07023806202746108
0.7104837341909234
-0.5398911588210473
0.07023806202746108
0.7104837341909234
-0.5398911588210473
0.07023806202746108
0.7104837341909234
-0.5393006458208764
0.05876712522441607
0.7121342626628473
-0.5393006458208764
0.05876712522441607
0.7121342626628473
-0.5393006458208764
0.05876712522441607
0.7121342626628473
-0.5393006458208764
0.05876712522441607
0.7121342626628473
-0.5400837331551173
0.05265344540128379
0.7123653040675552
-0.5400837331551173
0.05265344540128379
0.7123653040675552
-0.5400837331551173
0.05265344540128379
0.7123653040675552
-0.5400837331551173
0.05265344540128379
0.7123653040675552
-0.5425334138730098
0.05799818680870096
0.7117611067528729
-0.5425334138730098
0.05799818680870096
0.7117611067528729
-0.5425334138730098
0.05799818680870096
0.7117611067528729
-0.5425334138730098
0.05799818680870096
0.7117611067528729
-0.5469376264642228
0.07254784247078613
0.7106202832702788
-0.5469376264642228
0.07254784247078613
0.7106202832702788
-0.5469376264642228
0.07254784247078613
0.7106202832702788
-0.5469376264642228
0.07254784247078613
0.7106202832702788
-0.5497830836985119
0.08445640668318921
0.7094125363030501
-0.5497830836985119
0.08445640668318921
0.7094125363030501
-0.5497830836985119
0.08445640668318921
0.7094125363030501
-0.5497830836985119
0.08445640668318921
0.7094125363030501
-0.5498619206423772
0.08352236701873297
0.7097913338124243
-0.5498619206423772
0.08352236701873297
0.7097913338124243
-0.5498619206423772
0.08352236701873297
0.7097913338124243
-0.5498619206423772
0.08352236701873297
0.7097913338124243
-0.5471800346596261
0.07077753071549263
0.7107074185257352
-0.5471800346596261
0.07077753071549263
0.7107074185257352
-0.5471800346596261
0.07077753071549263
0.7107074185257352
-0.5471800346596261
0.07077753071549263
0.7107074185257352
-0.5461457679021009
0.059324529936891864
0.7120833338192012
-0.5461457679021009
0.059324529936891864
0.7120833338192012
-0.5461457679021009
0.059324529936891864
0.7120833338192012
-0.5461457679021009
0.059324529936891864
0.7120833338192012
-0.5472063882289767
0.06027840528232881
0.7126000096509091
-0.5472063882289767
0.06027840528232881
0.7126000096509091
-0.5472063882289767
0.06027840528232881
0.7126000096509091
-0.5472063882289767
0.06027840528232881
0.7126000096509091
-0.5510639906139659
0.07234122387634204
0.7119367384912887
-0.5510639906139659
0.07234122387634204
0.7119367384912887
-0.5510639906139659
0.07234122387634204
0.7119367384912887
-0.5510639906139659
0.07234122387634204
0.7119367384912887
-0.55343875516873
0.08483528286383017
0.7114351297403839
-0.55343875516873
0.08483528286383017
0.7114351297403839
-0.55343875516873
0.08483528286383017
0.7114351297403839
-0.55343875516873
0.08483528286383017
0.7114351297403839
-0.5531817091917808
0.08641419503999459
0.7120829978075353
-0.5531817091917808
0.08641419503999459
0.7120829978075353
-0.5531817091917808
0.08641419503999459
0.7120829978075353
-0.5531817091917808
0.08641419503999459
0.7120829978075353
-0.5551178214528953
0.0843261593190318
0.7134554117665103
-0.5551178214528953
0.0843261593190318
0.7134554117665103
-0.5551178214528953
0.0843261593190318
0.7134554117665103
-0.5551178214528953
0.0843261593190318
0.7134554117665103
-0.5557862290476233
0.0832126587751478
0.7133875944438252
-0.5557862290476233
0.0832126587751478
0.7133875944438252
-0.5557862290476233
0.0832126587751478
0.7133875944438252
-0.5557862290476233
0.0832126587751478
0.7133875944438252
-0.5548073471043456
0.08211037240080307
0.7132075049751586
-0.5548073471043456
0.08211037240080307
0.7132075049751586
-0.5548073471043456
0.08211037240080307
0.7132075049751586
-0.5548073471043456
0.08211037240080307
0.7132075049751586
-0.5549069213899186
0.08107244131152136
0.7132164129899937
-0.5549069213899186
0.08107244131152136
0.7132164129899937
-0.5549069213899186
0.08107244131152136
0.7132164129899937
-0.5549069213899186
0.08107244131152136
0.7132164129899937
-0.5550152434561029
0.07966366737503715
0.7133308426766793
-0.5550152434561029
0.07966366737503715
0.7133308426766793
-0.5550152434561029
0.07966366737503715
0.7133308426766793
-0.5550152434561029
0.07966366737503715
0.7133308426766793
-0.5552178438207686
0.0787164555118839
0.7130726792092891
-0.5552178438207686
0.0787164555118839
0.7130726792092891
-0.5552178438207686
0.0787164555118839
0.7130726792092891
-0.5552178438207686
0.0787164555118839
0.7130726792092891
-0.5558907407660065
0.07801942978537572
0.7130517906128111
-0.5558907407660065
0.07801942978537572
0.7130517906128111
-0.5558907407660065
0.07801942978537572
0.7130517906128111
-0.5558907407660065
0.07801942978537572
0.7130517906128111
-0.5571780417244763
0.07779730905445435
0.7129152868634183
-0.5571780417244763
0.07779730905445435
0.7129152868634183
-0.5571780417244763
0.07779730905445435
0.7129152868634183
-0.5571780417244763
0.07779730905445435
0.7129152868634183
-0.5572489160646618
0.07794736238770479
0.7128693183287564
-0.5572489160646618
0.07794736238770479
0.7128693183287564
-0.5572489160646618
0.07794736238770479
0.7128693183287564
-0.5572489160646618
0.07794736238770479
0.7128693183287564
-0.5560186824404288
0.07827384351177298
0.7128094844711671
-0.5560186824404288
0.07827384351177298
0.7128094844711671
-0.5560186824404288
0.07827384351177298
0.7128094844711671
-0.5560186824404288
0.07827384351177298
0.7128094844711671
-0.5560186824404288
0.07827384351177298
0.7128094844711671
-0.5560186824404288
0.07827384351177298
0.7128094844711671
-0.5560186824404288
0.07827384351177298
0.7128094844711671
-0.5560186824404288
0.07827384351177298
0.7128094844711671
-0.5568146066536219
0.07837398612270692
0.7126013059963251
-0.5568146066536219
0.07837398612270692
0.7126013059963251
-0.5568146066536219
0.07837398612270692
0.7126013059963251
-0.5568146066536219
0.07837398612270692
0.7126013059963251
-0.5568146066536219
0.07837398612270692
0.7126013059963251
-0.5568146066536219
0.07837398612270692
0.7126013059963251
-0.5568146066536219
0.07837398612270692
0.7126013059963251
-0.5568146066536219
0.07837398612270692
0.7126013059963251
-0.5572036873378654
0.07898881163279936
0.7118887717156976
-0.5572036873378654
0.07898881163279936
0.7118887717156976
-0.5572036873378654
0.07898881163279936
0.7118887717156976
-0.5572036873378654
0.07898881163279936
0.7118887717156976
-0.5577399755175376
0.07936398156841923
0.7115667083486451
-0.5577399755175376
0.07936398156841923
0.7115667083486451
-0.5577399755175376
0.07936398156841923
0.7115667083486451
-0.5577399755175376
0.07936398156841923
0.7115667083486451
-0.5573586796675467
0.08004635578198127
0.7116247375383046
-0.5573586796675467
0.08004635578198127
0.7116247375383046
-0.5573586796675467
0.08004635578198127
0.7116247375383046
-0.5573586796675467
0.08004635578198127
0.7116247375383046
-0.5576854166488643
0.08102825837758607
0.7117760688342673
-0.5576854166488643
0.08102825837758607
0.7117760688342673
-0.5576854166488643
0.08102825837758607
0.7117760688342673
-0.5576854166488643
0.08102825837758607
0.7117760688342673
-0.5590702019047229
0.08136726453371781
0.7120377197300696
-0.5590702019047229
0.08136726453371781
0.7120377197300696
-0.5590702019047229
0.08136726453371781
0.7120377197300696
-0.5590702019047229
0.08136726453371781
0.7120377197300696
-0.5591711978991942
0.08153340304045129
0.7120311863850971
-0.5591711978991942
0.08153340304045129
0.7120311863850971
-0.5591711978991942
0.08153340304045129
0.7120311863850971
-0.5591711978991942
0.08153340304045129
0.7120311863850971
-0.5588130852228587
0.0821352121590456
0.7122298395867591
-0.5588130852228587
0.0821352121590456
0.7122298395867591
-0.5588130852228587
0.0821352121590456
0.7122298395867591
-0.5588130852228587
0.0821352121590456
0.7122298395867591
-0.5594897604611536
0.08217475960365392
0.7123983897302584
-0.5594897604611536
0.08217475960365392
0.7123983897302584
-0.5594897604611536
0.08217475960365392
0.7123983897302584
-0.5594897604611536
0.08217475960365392
0.7123983897302584
-0.5595353273233253
0.08176982209819354
0.7127957919185386
-0.5595353273233253
0.08176982209819354
0.7127957919185386
-0.5595353273233253
0.08176982209819354
0.7127957919185386
-0.5595353273233253
0.08176982209819354
0.7127957919185386
-0.5581102954750494
0.08171736936057536
0.7135395703951861
-0.5581102954750494
0.08171736936057536
0.7135395703951861
-0.5581102954750494
0.08171736936057536
0.7135395703951861
-0.5581102954750494
0.08171736936057536
0.7135395703951861
-0.5586997935019123
0.0816371401414611
0.7138652078686634
-0.5586997935019123
0.0816371401414611
0.7138652078686634
-0.5586997935019123
0.0816371401414611
0.7138652078686634
-0.5586997935019123
0.0816371401414611
0.7138652078686634
-0.5587558877836543
0.08149697064050099
0.7137844510452378
-0.5587558877836543
0.08149697064050099
0.7137844510452378
-0.5587558877836543
0.08149697064050099
0.7137844510452378
-0.5587558877836543
0.08149697064050099
0.7137844510452378
-0.5587956952691991
0.08138664162917894
0.7138143965917653
-0.5587956952691991
0.08138664162917894
0.7138143965917653
-0.5587956952691991
0.08138664162917894
0.7138143965917653
-0.5587956952691991
0.08138664162917894
0.7138143965917653
-0.5587956952691991
0.08138664162917894
0.7138143965917653
-0.5587956952691991
0.08138664162917894
0.7138143965917653
-0.5587956952691991
0.08138664162917894
0.7138143965917653
-0.5587956952691991
0.08138664162917894
0.7138143965917653
-0.5592818245794113
0.08121635312006559
0.7144077616447764
-0.5592818245794113
0.08121635312006559
0.7144077616447764
-0.5592818245794113
0.08121635312006559
0.7144077616447764
-0.5592818245794113
0.08121635312006559
0.7144077616447764
-0.5590840524707296
0.08105648931825796
0.7145809593894042
-0.5590840524707296
0.08105648931825796
0.7145809593894042
-0.5590840524707296
0.08105648931825796
0.7145809593894042
-0.5590840524707296
0.08105648931825796
0.7145809593894042
-0.5589424341940346
0.08075642484874992
0.7146734168302724
-0.5589424341940346
0.08075642484874992
0.7146734168302724
-0.5589424341940346
0.08075642484874992
0.7146734168302724
-0.5589424341940346
0.08075642484874992
0.7146734168302724
-0.5584723395323478
0.0805054102567861
0.7144373338386716
-0.5584723395323478
0.0805054102567861
0.7144373338386716
-0.5584723395323478
0.0805054102567861
0.7144373338386716
-0.5584723395323478
0.0805054102567861
0.7144373338386716
-0.5587586665177321
0.08007403172036752
0.7144302531991824
-0.5587586665177321
0.08007403172036752
0.7144302531991824
-0.5587586665177321
0.08007403172036752
0.7144302531991824
-0.5587586665177321
0.08007403172036752
0.7144302531991824
-0.5591133424730911
0.0798686355321137
0.7146382789971841
-0.5591133424730911
0.0798686355321137
0.7146382789971841
-0.5591133424730911
0.0798686355321137
0.7146382789971841
-0.5591133424730911
0.0798686355321137
0.7146382789971841
-0.5582389396247049
0.07966840323866275
0.7146419402250717
-0.5582389396247049
0.07966840323866275
0.7146419402250717
-0.5582389396247049
0.07966840323866275
0.7146419402250717
-0.5582389396247049
0.07966840323866275
0.7146419402250717
-0.5581828704910728
0.0798085570928002
0.7147226642374939
-0.5581828704910728
0.0798085570928002
0.7147226642374939
-0.5581828704910728
0.0798085570928002
0.7147226642374939
-0.5581828704910728
0.0798085570928002
0.7147226642374939
-0.5582958134166723
0.08016394242122368
0.7139772962837341
-0.5582958134166723
0.08016394242122368
0.7139772962837341
-0.5582958134166723
0.08016394242122368
0.7139772962837341
-0.5582958134166723
0.08016394242122368
0.7139772962837341
-0.5578741082829709
0.08077954882496884
0.7129704505258966
-0.5578741082829709
0.08077954882496884
0.7129704505258966
-0.5578741082829709
0.08077954882496884
0.7129704505258966
-0.5578741082829709
0.08077954882496884
0.7129704505258966
-0.5571925855358344
0.08184729672052883
0.7128857493005669
-0.5571925855358344
0.08184729672052883
0.7128857493005669
-0.5571925855358344
0.08184729672052883
0.7128857493005669
-0.5571925855358344
0.08184729672052883
0.7128857493005669
-0.5582391134690876
0.08236292978992044
0.7128285887826115
-0.5582391134690876
0.08236292978992044
0.7128285887826115
-0.5582391134690876
0.08236292978992044
0.7128285887826115
-0.5582391134690876
0.08236292978992044
0.7128285887826115
-0.5585272071509619
0.08256692143891517
0.7122371440475337
-0.5585272071509619
0.08256692143891517
0.7122371440475337
-0.5585272071509619
0.08256692143891517
0.7122371440475337
-0.5585272071509619
0.08256692143891517
0.7122371440475337
-0.5587333415554557
0.08306742228726174
0.7118469577054619
-0.5587333415554557
0.08306742228726174
0.7118469577054619
-0.5587333415554557
0.08306742228726174
0.7118469577054619
-0.5587333415554557
0.08306742228726174
0.7118469577054619
-0.560951890406997
0.08361401714463831
0.7112978036746661
-0.560951890406997
0.08361401714463831
0.7112978036746661
-0.560951890406997
0.08361401714463831
0.7112978036746661
-0.560951890406997
0.08361401714463831
0.7112978036746661
-0.563776297546641
0.08404905362574681
0.7109618896310947
-0.563776297546641
0.08404905362574681
0.7109618896310947
-0.563776297546641
0.08404905362574681
0.7109618896310947
-0.563776297546641
0.08404905362574681
0.7109618896310947
-0.5648143119302566
0.08525414789163632
0.7109389031161905
-0.5648143119302566
0.08525414789163632
0.7109389031161905
-0.5648143119302566
0.08525414789163632
0.7109389031161905
-0.5648143119302566
0.08525414789163632
0.7109389031161905
-0.5674525267611773
0.08579211523508878
0.7102948365468806
-0.5674525267611773
0.08579211523508878
0.7102948365468806
-0.5674525267611773
0.08579211523508878
0.7102948365468806
-0.5674525267611773
0.08579211523508878
0.7102948365468806
-0.570818417695629
0.08491738221812596
0.7089879000416808
-0.570818417695629
0.08491738221812596
0.7089879000416808
-0.570818417695629
0.08491738221812596
0.7089879000416808
-0.570818417695629
0.08491738221812596
0.7089879000416808
-0.5745333590197227
0.0828812558518424
0.7083394931078891
-0.5745333590197227
0.0828812558518424
0.7083394931078891
-0.5745333590197227
0.0828812558518424
0.7083394931078891
-0.5745333590197227
0.0828812558518424
0.7083394931078891
-0.5762177651736974
0.0803667229433998
0.7081772288228386
-0.5762177651736974
0.0803667229433998
0.7081772288228386
-0.5762177651736974
0.0803667229433998
0.7081772288228386
-0.5762177651736974
0.0803667229433998
0.7081772288228386
-0.579138721686155
0.07715379642166893
0.7081928185513077
-0.579138721686155
0.07715379642166893
0.7081928185513077
-0.579138721686155
0.07715379642166893
0.7081928185513077
-0.579138721686155
0.07715379642166893
0.7081928185513077
-0.5820505560059542
0.07335968326639797
0.7085571295085908
-0.5820505560059542
0.07335968326639797
0.7085571295085908
-0.5820505560059542
0.07335968326639797
0.7085571295085908
-0.5820505560059542
0.07335968326639797
0.7085571295085908
-0.5854030933992145
0.06988247926173023
0.7093880740105792
-0.5854030933992145
0.06988247926173023
0.7093880740105792
-0.5854030933992145
0.06988247926173023
0.7093880740105792
-0.5854030933992145
0.06988247926173023
0.7093880740105792
-0.5905378360013294
0.06690097711790133
0.7105278500794586
-0.5905378360013294
0.06690097711790133
0.7105278500794586
-0.5905378360013294
0.06690097711790133
0.7105278500794586
-0.5905378360013294
0.06690097711790133
0.7105278500794586
-0.5951752809330284
0.06294762375986508
0.7126424970589111
-0.5951752809330284
0.06294762375986508
0.7126424970589111
-0.5951752809330284
0.06294762375986508
0.7126424970589111
-0.5951752809330284
0.06294762375986508
0.7126424970589111
-0.6001472605087954
0.058475102777993615
0.7135516804754898
-0.6001472605087954
0.058475102777993615
0.7135516804754898
-0.6001472605087954
0.058475102777993615
0.7135516804754898
-0.6001472605087954
0.058475102777993615
0.7135516804754898
-0.6053143605006752
0.053269359053671375
0.7132564189835806
-0.6053143605006752
0.053269359053671375
0.7132564189835806
-0.6053143605006752
0.053269359053671375
0.7132564189835806
-0.6053143605006752
0.053269359053671375
0.7132564189835806
-0.610313519148433
0.04826819676842408
0.7104552543554291
-0.610313519148433
0.04826819676842408
0.7104552543554291
-0.610313519148433
0.04826819676842408
0.7104552543554291
-0.610313519148433
0.04826819676842408
0.7104552543554291
-0.6141892749841494
0.04539913500014775
0.7071745610078434
-0.6141892749841494
0.04539913500014775
0.7071745610078434
-0.6141892749841494
0.04539913500014775
0.7071745610078434
-0.6141892749841494
0.04539913500014775
0.7071745610078434
-0.6179855699761596
0.04548073106027399
0.7072209553369421
-0.6179855699761596
0.04548073106027399
0.7072209553369421
-0.6179855699761596
0.04548073106027399
0.7072209553369421
-0.6179855699761596
0.04548073106027399
0.7072209553369421
-0.6172374477475684
0.044953462312328545
0.7085774542199601
-0.6172374477475684
0.044953462312328545
0.7085774542199601
-0.6172374477475684
0.044953462312328545
0.7085774542199601
-0.6172374477475684
0.044953462312328545
0.7085774542199601
-0.6149355929958094
0.04164443934713599
0.7064898859278685
-0.6149355929958094
0.04164443934713599
0.7064898859278685
-0.6149355929958094
0.04164443934713599
0.7064898859278685
-0.6149355929958094
0.04164443934713599
0.7064898859278685
-0.6159394800194171
0.03664211118417699
0.7037704379425093
-0.6159394800194171
0.03664211118417699
0.7037704379425093
-0.6159394800194171
0.03664211118417699
0.7037704379425093
-0.6159394800194171
0.03664211118417699
0.7037704379425093
-0.6215488166798837
0.029492931363112866
0.7026055980272434
-0.6215488166798837
0.029492931363112866
0.7026055980272434
-0.6215488166798837
0.029492931363112866
0.7026055980272434
-0.6215488166798837
0.029492931363112866
0.7026055980272434
-0.6312502201285664
0.02198752413593088
0.7024854430711746
-0.6312502201285664
0.02198752413593088
0.7024854430711746
-0.6312502201285664
0.02198752413593088
0.7024854430711746
-0.6312502201285664
0.02198752413593088
0.7024854430711746
-0.6402927084328235
0.012845844896083267
0.7056658518191377
-0.6402927084328235
0.012845844896083267
0.7056658518191377
-0.6402927084328235
0.012845844896083267
0.7056658518191377
-0.6402927084328235
0.012845844896083267
0.7056658518191377
-0.6413587472102757
0.0032417588267126814
0.7069050294516644
-0.6413587472102757
0.0032417588267126814
0.7069050294516644
-0.6413587472102757
0.0032417588267126814
0.7069050294516644
-0.6413587472102757
0.0032417588267126814
0.7069050294516644
-0.6337488958738519
-0.003343040793194206
0.7054211438833243
-0.6337488958738519
-0.003343040793194206
0.7054211438833243
-0.6337488958738519
-0.003343040793194206
0.7054211438833243
-0.6337488958738519
-0.003343040793194206
0.7054211438833243
-0.6232945609030083
-0.005889644501746449
0.7030330396001224
-0.6232945609030083
-0.005889644501746449
0.7030330396001224
-0.6232945609030083
-0.005889644501746449
0.7030330396001224
-0.6232945609030083
-0.005889644501746449
0.7030330396001224
-0.6150974561600964
-0.005953894243722631
0.7015340372371234
-0.6150974561600964
-0.005953894243722631
0.7015340372371234
-0.6150974561600964
-0.005953894243722631
0.7015340372371234
-0.6150974561600964
-0.005953894243722631
0.7015340372371234
-0.6128515241865924
-0.005999715195154914
0.7018467689870035
-0.6128515241865924
-0.005999715195154914
0.7018467689870035
-0.6128515241865924
-0.005999715195154914
0.7018467689870035
-0.6128515241865924
-0.005999715195154914
0.7018467689870035
-0.6165471224844257
-0.006550622177416281
0.7027143128254101
-0.6165471224844257
-0.006550622177416281
0.7027143128254101
-0.6165471224844257
-0.006550622177416281
0.7027143128254101
-0.6165471224844257
-0.006550622177416281
0.7027143128254101
-0.6237746631400988
-0.0068629420323419975
0.7028665943873356
-0.6237746631400988
-0.0068629420323419975
0.7028665943873356
-0.6237746631400988
-0.0068629420323419975
0.7028665943873356
-0.6237746631400988
-0.0068629420323419975
0.7028665943873356
-0.6285348338863049
-0.006391306764262976
0.7027777295379041
-0.6285348338863049
-0.006391306764262976
0.7027777295379041
-0.6285348338863049
-0.006391306764262976
0.7027777295379041
-0.6285348338863049
-0.006391306764262976
0.7027777295379041
-0.626056999663082
-0.005575162337453801
0.703007676781458
-0.626056999663082
-0.005575162337453801
0.703007676781458
-0.626056999663082
-0.005575162337453801
0.703007676781458
-0.626056999663082
-0.005575162337453801
0.703007676781458
-0.6206360890058074
-0.004363520707339434
0.7036068655107014
-0.6206360890058074
-0.004363520707339434
0.7036068655107014
-0.6206360890058074
-0.004363520707339434
0.7036068655107014
-0.6206360890058074
-0.004363520707339434
0.7036068655107014
-0.6172410735365101
-0.0035201289020695683
0.7041481571871683
-0.6172410735365101
-0.0035201289020695683
0.7041481571871683
-0.6172410735365101
-0.0035201289020695683
0.7041481571871683
-0.6172410735365101
-0.0035201289020695683
0.7041481571871683
-0.6166428064099974
-0.0023373509173390756
0.7038464727915386
-0.6166428064099974
-0.0023373509173390756
0.7038464727915386
-0.6166428064099974
-0.0023373509173390756
0.7038464727915386
-0.6166428064099974
-0.0023373509173390756
0.7038464727915386
-0.6176579741742304
5.1792648096994984E-5
0.7037432047362738
-0.6176579741742304
5.1792648096994984E-5
0.7037432047362738
-0.6176579741742304
5.1792648096994984E-5
0.7037432047362738
-0.6176579741742304
5.1792648096994984E-5
0.7037432047362738
-0.6182634941867002
0.0038953053269772265
0.7035343496151152
-0.6182634941867002
0.0038953053269772265
0.7035343496151152
-0.6182634941867002
0.0038953053269772265
0.7035343496151152
-0.6182634941867002
0.0038953053269772265
0.7035343496151152
-0.6154799047569152
0.00853555472910357
0.7046342046985798
-0.6154799047569152
0.00853555472910357
0.7046342046985798
-0.6154799047569152
0.00853555472910357
0.7046342046985798
-0.6154799047569152
0.00853555472910357
0.7046342046985798
-0.6127709184364185
0.012954392531906339
0.7058156648416665
-0.6127709184364185
0.012954392531906339
0.7058156648416665
-0.6127709184364185
0.012954392531906339
0.7058156648416665
-0.6127709184364185
0.012954392531906339
0.7058156648416665
-0.608181582941727
0.017213221443057158
0.7069731277801636
-0.608181582941727
0.017213221443057158
0.7069731277801636
-0.608181582941727
0.017213221443057158
0.7069731277801636
-0.608181582941727
0.017213221443057158
0.7069731277801636
-0.6079165177022552
0.020745190604407816
0.7063918812730814
-0.6079165177022552
0.020745190604407816
0.7063918812730814
-0.6079165177022552
0.020745190604407816
0.7063918812730814
-0.6079165177022552
0.020745190604407816
0.7063918812730814
-0.6094059736514906
0.0216144519765121
0.7039734375828894
-0.6094059736514906
0.0216144519765121
0.7039734375828894
-0.6094059736514906
0.0216144519765121
0.7039734375828894
-0.6094059736514906
0.0216144519765121
0.7039734375828894
-0.6081092772648045
0.022821424338768888
0.7011257806714363
-0.6081092772648045
0.022821424338768888
0.7011257806714363
-0.6081092772648045
0.022821424338768888
0.7011257806714363
-0.6081092772648045
0.022821424338768888
0.7011257806714363
-0.6009373773675608
0.025909662160735637
0.6990568356490184
-0.6009373773675608
0.025909662160735637
0.6990568356490184
-0.6009373773675608
0.025909662160735637
0.6990568356490184
-0.6009373773675608
0.025909662160735637
0.6990568356490184
-0.5876908973431392
0.03167288373701116
0.6961625871464565
-0.5876908973431392
0.03167288373701116
0.6961625871464565
-0.5876908973431392
0.03167288373701116
0.6961625871464565
-0.5876908973431392
0.03167288373701116
0.6961625871464565
-0.5743788745122876
0.035625067027748696
0.6909124463888173
-0.5743788745122876
0.035625067027748696
0.6909124463888173
-0.5743788745122876
0.035625067027748696
0.6909124463888173
-0.5743788745122876
0.035625067027748696
0.6909124463888173
-0.5748328112793178
0.03510799353252385
0.6859883681073098
-0.5748328112793178
0.03510799353252385
0.6859883681073098
-0.5748328112793178
0.03510799353252385
0.6859883681073098
-0.5748328112793178
0.03510799353252385
0.6859883681073098
-0.5681851507919106
0.03912984630181333
0.6835615448993747
-0.5681851507919106
0.03912984630181333
0.6835615448993747
-0.5681851507919106
0.03912984630181333
0.6835615448993747
-0.5681851507919106
0.03912984630181333
0.6835615448993747
-0.5489049209554892
0.05345152652595221
0.6860222645440794
-0.5489049209554892
0.05345152652595221
0.6860222645440794
-0.5489049209554892
0.05345152652595221
0.6860222645440794
-0.5489049209554892
0.05345152652595221
0.6860222645440794
-0.540304922995757
0.07055468473337756
0.6914986901084442
-0.540304922995757
0.07055468473337756
0.6914986901084442
-0.540304922995757
0.07055468473337756
0.6914986901084442
-0.540304922995757
0.07055468473337756
0.6914986901084442
-0.549546125252393
0.07911298580810344
0.6971000324265053
-0.549546125252393
0.07911298580810344
0.6971000324265053
-0.549546125252393
0.07911298580810344
0.6971000324265053
-0.549546125252393
0.07911298580810344
0.6971000324265053
-0.5649642615771345
0.08114532587522919
0.7008111195805993
-0.5649642615771345
0.08114532587522919
0.7008111195805993
-0.5649642615771345
0.08114532587522919
0.7008111195805993
-0.5649642615771345
0.08114532587522919
0.7008111195805993
-0.5669018493883757
0.08541448712935308
0.7035785973286496
-0.5669018493883757
0.08541448712935308
0.7035785973286496
-0.5669018493883757
0.08541448712935308
0.7035785973286496
-0.5669018493883757
0.08541448712935308
0.7035785973286496
-0.5573434100190399
0.08954456124874671
0.7050986386949308
-0.5573434100190399
0.08954456124874671
0.7050986386949308
-0.5573434100190399
0.08954456124874671
0.7050986386949308
-0.5573434100190399
0.08954456124874671
0.7050986386949308
-0.5487099113101038
0.09000221617301588
0.7067679158205666
-0.5487099113101038
0.09000221617301588
0.7067679158205666
-0.5487099113101038
0.09000221617301588
0.7067679158205666
-0.5487099113101038
0.09000221617301588
0.7067679158205666
-0.545423166812028
0.08781381278089109
0.709062923191087
-0.545423166812028
0.08781381278089109
0.709062923191087
-0.545423166812028
0.08781381278089109
0.709062923191087
-0.545423166812028
0.08781381278089109
0.709062923191087
-0.5494621200058947
0.08649606022846819
0.7117037995769847
-0.5494621200058947
0.08649606022846819
0.7117037995769847
-0.5494621200058947
0.08649606022846819
0.7117037995769847
-0.5494621200058947
0.08649606022846819
0.7117037995769847
-0.55247103664481
0.08638728720663046
0.7138010730326074
-0.55247103664481
0.08638728720663046
0.7138010730326074
-0.55247103664481
0.08638728720663046
0.7138010730326074
-0.55247103664481
0.08638728720663046
0.7138010730326074
-0.5549430927042168
0.0848969939096592
0.7142215002811538
-0.5549430927042168
0.0848969939096592
0.7142215002811538
-0.5549430927042168
0.0848969939096592
0.7142215002811538
-0.5549430927042168
0.0848969939096592
0.7142215002811538
-0.5588311828067617
0.08220657022654439
0.7128928696787864
-0.5588311828067617
0.08220657022654439
0.7128928696787864
-0.5588311828067617
0.08220657022654439
0.7128928696787864
-0.5588311828067617
0.08220657022654439
0.7128928696787864
-0.5587351776189388
0.08075590023658333
0.7117809935325494
-0.5587351776189388
0.08075590023658333
0.7117809935325494
-0.5587351776189388
0.08075590023658333
0.7117809935325494
-0.5587351776189388
0.08075590023658333
0.7117809935325494
-0.5570402251578092
0.08107320752699022
0.7104961157849425
-0.5570402251578092
0.08107320752699022
0.7104961157849425
-0.5570402251578092
0.08107320752699022
0.7104961157849425
-0.5570402251578092
0.08107320752699022
0.7104961157849425
-0.5566146497528074
0.08198530110451192
0.7091227603217021
-0.5566146497528074
0.08198530110451192
0.7091227603217021
-0.5566146497528074
0.08198530110451192
0.7091227603217021
-0.5566146497528074
0.08198530110451192
0.7091227603217021
-0.5577888932925664
0.08162033994909954
0.7082262084718282
-0.5577888932925664
0.08162033994909954
0.7082262084718282
-0.5577888932925664
0.08162033994909954
0.7082262084718282
-0.5577888932925664
0.08162033994909954
0.7082262084718282
-0.5618893877977579
0.08138290457563845
0.7071991465620024
-0.5618893877977579
0.08138290457563845
0.7071991465620024
-0.5618893877977579
0.08138290457563845
0.7071991465620024
-0.5618893877977579
0.08138290457563845
0.7071991465620024
-0.5621202717869609
0.08148162867785914
0.7068041379751967
-0.5621202717869609
0.08148162867785914
0.7068041379751967
-0.5621202717869609
0.08148162867785914
0.7068041379751967
-0.5621202717869609
0.08148162867785914
0.7068041379751967
-0.5624255109451878
0.0808662244506012
0.7061652589748223
-0.5624255109451878
0.0808662244506012
0.7061652589748223
-0.5624255109451878
0.0808662244506012
0.7061652589748223
-0.5624255109451878
0.0808662244506012
0.7061652589748223
-0.5616049761971736
0.08067087070235206
0.7051994664289954
-0.5616049761971736
0.08067087070235206
0.7051994664289954
-0.5616049761971736
0.08067087070235206
0.7051994664289954
-0.5616049761971736
0.08067087070235206
0.7051994664289954
-0.5618055493296785
0.08154056754724158
0.7047017817844811
-0.5618055493296785
0.08154056754724158
0.7047017817844811
-0.5618055493296785
0.08154056754724158
0.7047017817844811
-0.5618055493296785
0.08154056754724158
0.7047017817844811
-0.5613547430203484
0.08318221722956289
0.7048869745687398
-0.5613547430203484
0.08318221722956289
0.7048869745687398
-0.5613547430203484
0.08318221722956289
0.7048869745687398
-0.5613547430203484
0.08318221722956289
0.7048869745687398
-0.5612497498664539
0.08373828257881123
0.7059815518521871
-0.5612497498664539
0.08373828257881123
0.7059815518521871
-0.5612497498664539
0.08373828257881123
0.7059815518521871
-0.5612497498664539
0.08373828257881123
0.7059815518521871
-0.5616818581156053
0.08331072868768746
0.7062496370912263
-0.5616818581156053
0.08331072868768746
0.7062496370912263
-0.5616818581156053
0.08331072868768746
0.7062496370912263
-0.5616818581156053
0.08331072868768746
0.7062496370912263
-0.5620958269740142
0.08266954426669568
0.7067446972404714
-0.5620958269740142
0.08266954426669568
0.7067446972404714
-0.5620958269740142
0.08266954426669568
0.7067446972404714
-0.5620958269740142
0.08266954426669568
0.7067446972404714
-0.5608559787470214
0.08194780334190571
0.7072283916440261
-0.5608559787470214
0.08194780334190571
0.7072283916440261
-0.5608559787470214
0.08194780334190571
0.7072283916440261
-0.5608559787470214
0.08194780334190571
0.7072283916440261
-0.5606470870131145
0.08120421757299277
0.7077349627271138
-0.5606470870131145
0.08120421757299277
0.7077349627271138
-0.5606470870131145
0.08120421757299277
0.7077349627271138
-0.5606470870131145
0.08120421757299277
0.7077349627271138
-0.5613351413918602
0.08000829750152727
0.7078125053000391
-0.5613351413918602
0.08000829750152727
0.7078125053000391
-0.5613351413918602
0.08000829750152727
0.7078125053000391
-0.5613351413918602
0.08000829750152727
0.7078125053000391
-0.5613784119158041
0.07871407038331162
0.7074997572687849
-0.5613784119158041
0.07871407038331162
0.7074997572687849
-0.5613784119158041
0.07871407038331162
0.7074997572687849
-0.5613784119158041
0.07871407038331162
0.7074997572687849
-0.5614907175328578
0.07764578902159305
0.7074018050876971
-0.5614907175328578
0.07764578902159305
0.7074018050876971
-0.5614907175328578
0.07764578902159305
0.7074018050876971
-0.5614907175328578
0.07764578902159305
0.7074018050876971
-0.5628161411714008
0.07659852231497495
0.7076211646651052
-0.5628161411714008
0.07659852231497495
0.7076211646651052
-0.5628161411714008
0.07659852231497495
0.7076211646651052
-0.5628161411714008
0.07659852231497495
0.7076211646651052
-0.5637225489913598
0.0753139355471871
0.7080467561793002
-0.5637225489913598
0.0753139355471871
0.7080467561793002
-0.5637225489913598
0.0753139355471871
0.7080467561793002
-0.5637225489913598
0.0753139355471871
0.7080467561793002
-0.5637766370414743
0.07453917655918534
0.7085521739963137
-0.5637766370414743
0.07453917655918534
0.7085521739963137
-0.5637766370414743
0.07453917655918534
0.7085521739963137
-0.5637766370414743
0.07453917655918534
0.7085521739963137
-0.5624468185409144
0.07296033307838895
0.7089997643471941
-0.5624468185409144
0.07296033307838895
0.7089997643471941
-0.5624468185409144
0.07296033307838895
0.7089997643471941
-0.5624468185409144
0.07296033307838895
0.7089997643471941
-0.5610231383118898
0.07099052190975548
0.7092052638077412
-0.5610231383118898
0.07099052190975548
0.7092052638077412
-0.5610231383118898
0.07099052190975548
0.7092052638077412
-0.5610231383118898
0.07099052190975548
0.7092052638077412
-0.5599169310352389
0.06877267700073961
0.709065841216819
-0.5599169310352389
0.06877267700073961
0.709065841216819
-0.5599169310352389
0.06877267700073961
0.709065841216819
-0.5599169310352389
0.06877267700073961
0.709065841216819
-0.5606242302565864
0.06668433715306768
0.7088383098253598
-0.5606242302565864
0.06668433715306768
0.7088383098253598
-0.5606242302565864
0.06668433715306768
0.7088383098253598
-0.5606242302565864
0.06668433715306768
0.7088383098253598
-0.5616196094823764
0.06504613858259398
0.7084438851550302
-0.5616196094823764
0.06504613858259398
0.7084438851550302
-0.5616196094823764
0.06504613858259398
0.7084438851550302
-0.5616196094823764
0.06504613858259398
0.7084438851550302
-0.5599369552588842
0.06359757412928828
0.7084113834862089
-0.5599369552588842
0.06359757412928828
0.7084113834862089
-0.5599369552588842
0.06359757412928828
0.7084113834862089
-0.5599369552588842
0.06359757412928828
0.7084113834862089
-0.5582139608564931
0.06193861994935238
0.7082007137896315
-0.5582139608564931
0.06193861994935238
0.7082007137896315
-0.5582139608564931
0.06193861994935238
0.7082007137896315
-0.5582139608564931
0.06193861994935238
0.7082007137896315
-0.5581040631209685
0.06063985945460689
0.7076102570880497
-0.5581040631209685
0.06063985945460689
0.7076102570880497
-0.5581040631209685
0.06063985945460689
0.7076102570880497
-0.5581040631209685
0.06063985945460689
0.7076102570880497
-0.5588977237126911
0.06066119604087413
0.7071479578244364
-0.5588977237126911
0.06066119604087413
0.7071479578244364
-0.5588977237126911
0.06066119604087413
0.7071479578244364
-0.5588977237126911
0.06066119604087413
0.7071479578244364
-0.5600249126350841
0.061273807332632546
0.7073073620960753
-0.5600249126350841
0.061273807332632546
0.7073073620960753
-0.5600249126350841
0.061273807332632546
0.7073073620960753
-0.5600249126350841
0.061273807332632546
0.7073073620960753
-0.5601659279465819
0.06132849991548272
0.7073319962003931
-0.5601659279465819
0.06132849991548272
0.7073319962003931
-0.5601659279465819
0.06132849991548272
0.7073319962003931
-0.5601659279465819
0.06132849991548272
0.7073319962003931
-0.560219550256366
0.06214405129592226
0.7068127065569483
-0.560219550256366
0.06214405129592226
0.7068127065569483
-0.560219550256366
0.06214405129592226
0.7068127065569483
-0.560219550256366
0.06214405129592226
0.7068127065569483
-0.5600114507216963
0.06377772807661991
0.7062306763831454
-0.5600114507216963
0.06377772807661991
0.7062306763831454
-0.5600114507216963
0.06377772807661991
0.7062306763831454
-0.5600114507216963
0.06377772807661991
0.7062306763831454
-0.5601444198714889
0.06508346332108447
0.7054486320579304
-0.5601444198714889
0.06508346332108447
0.7054486320579304
-0.5601444198714889
0.06508346332108447
0.7054486320579304
-0.5601444198714889
0.06508346332108447
0.7054486320579304
-0.5594032093655128
0.06626881146427796
0.7049251005519573
-0.5594032093655128
0.06626881146427796
0.7049251005519573
-0.5594032093655128
0.06626881146427796
0.7049251005519573
-0.5594032093655128
0.06626881146427796
0.7049251005519573
-0.5601273084039695
0.06732296239644633
0.7048494720344128
-0.5601273084039695
0.06732296239644633
0.7048494720344128
-0.5601273084039695
0.06732296239644633
0.7048494720344128
-0.5601273084039695
0.06732296239644633
0.7048494720344128
-0.5614671515347411
0.06813872415602375
0.704982990061586
-0.5614671515347411
0.06813872415602375
0.704982990061586
-0.5614671515347411
0.06813872415602375
0.704982990061586
-0.5614671515347411
0.06813872415602375
0.704982990061586
-0.5627124618892899
0.06920581658169493
0.7051651394016535
-0.5627124618892899
0.06920581658169493
0.7051651394016535
-0.5627124618892899
0.06920581658169493
0.7051651394016535
-0.5627124618892899
0.06920581658169493
0.7051651394016535
-0.5615054866283941
0.06999935253322716
0.7052927754379366
-0.5615054866283941
0.06999935253322716
0.7052927754379366
-0.5615054866283941
0.06999935253322716
0.7052927754379366
-0.5615054866283941
0.06999935253322716
0.7052927754379366
-0.5607249186894235
0.07065981641598824
0.7053245384252755
-0.5607249186894235
0.07065981641598824
0.7053245384252755
-0.5607249186894235
0.07065981641598824
0.7053245384252755
-0.5607249186894235
0.07065981641598824
0.7053245384252755
-0.5608744379072215
0.0713758569290055
0.705276281911783
-0.5608744379072215
0.0713758569290055
0.705276281911783
-0.5608744379072215
0.0713758569290055
0.705276281911783
-0.5608744379072215
0.0713758569290055
0.705276281911783
-0.5625922170684307
0.07229525498190065
0.7052884111142012
-0.5625922170684307
0.07229525498190065
0.7052884111142012
-0.5625922170684307
0.07229525498190065
0.7052884111142012
-0.5625922170684307
0.07229525498190065
0.7052884111142012
-0.5634034558076585
0.07307915130181153
0.7055215695264824
-0.5634034558076585
0.07307915130181153
0.7055215695264824
-0.5634034558076585
0.07307915130181153
0.7055215695264824
-0.5634034558076585
0.07307915130181153
0.7055215695264824
-0.563796612003672
0.07354941261274682
0.7056977463824697
-0.563796612003672
0.07354941261274682
0.7056977463824697
-0.563796612003672
0.07354941261274682
0.7056977463824697
-0.563796612003672
0.07354941261274682
0.7056977463824697
-0.5625592972373489
0.07353998497110872
0.7058518467997997
-0.5625592972373489
0.07353998497110872
0.7058518467997997
-0.5625592972373489
0.07353998497110872
0.7058518467997997
-0.5625592972373489
0.07353998497110872
0.7058518467997997
-0.5624854046718992
0.0728320692773088
0.7067441125763887
-0.5624854046718992
0.0728320692773088
0.7067441125763887
-0.5624854046718992
0.0728320692773088
0.7067441125763887
-0.5624854046718992
0.0728320692773088
0.7067441125763887
-0.5634925087821255
0.07210971850819517
0.7075700335669585
-0.5634925087821255
0.07210971850819517
0.7075700335669585
-0.5634925087821255
0.07210971850819517
0.7075700335669585
-0.5634925087821255
0.07210971850819517
0.7075700335669585
-0.5648163100033852
0.07121612488247593
0.7083155883468243
-0.5648163100033852
0.07121612488247593
0.7083155883468243
-0.5648163100033852
0.07121612488247593
0.7083155883468243
-0.5648163100033852
0.07121612488247593
0.7083155883468243
-0.5649424620519505
0.0705913914977816
0.7087752259818365
-0.5649424620519505
0.0705913914977816
0.7087752259818365
-0.5649424620519505
0.0705913914977816
0.7087752259818365
-0.5649424620519505
0.0705913914977816
0.7087752259818365
-0.5640595920054932
0.0701300344550247
0.7092539084882138
-0.5640595920054932
0.0701300344550247
0.7092539084882138
-0.5640595920054932
0.0701300344550247
0.7092539084882138
-0.5640595920054932
0.0701300344550247
0.7092539084882138
-0.5627688651202638
0.06922763909118719
0.7096655747809257
-0.5627688651202638
0.06922763909118719
0.7096655747809257
-0.5627688651202638
0.06922763909118719
0.7096655747809257
-0.5627688651202638
0.06922763909118719
0.7096655747809257
-0.5617085001470278
0.06771259503780472
0.7100068190579312
-0.5617085001470278
0.06771259503780472
0.7100068190579312
-0.5617085001470278
0.06771259503780472
0.7100068190579312
-0.5617085001470278
0.06771259503780472
0.7100068190579312
-0.5618931327283864
0.06631192139617148
0.7109703661567978
-0.5618931327283864
0.06631192139617148
0.7109703661567978
-0.5618931327283864
0.06631192139617148
0.7109703661567978
-0.5618931327283864
0.06631192139617148
0.7109703661567978
-0.5625060458481185
0.06470371485311473
0.711577555269251
-0.5625060458481185
0.06470371485311473
0.711577555269251
-0.5625060458481185
0.06470371485311473
0.711577555269251
-0.5625060458481185
0.06470371485311473
0.711577555269251
-0.5619051814323396
0.0629954403485809
0.7115997274507013
-0.5619051814323396
0.0629954403485809
0.7115997274507013
-0.5619051814323396
0.0629954403485809
0.7115997274507013
-0.5619051814323396
0.0629954403485809
0.7115997274507013
-0.5607521947650013
0.06133305451992253
0.7115806489540121
-0.5607521947650013
0.06133305451992253
0.7115806489540121
-0.5607521947650013
0.06133305451992253
0.7115806489540121
-0.5607521947650013
0.06133305451992253
0.7115806489540121
-0.5599365907985139
0.06020645715599414
0.7115585691714017
-0.5599365907985139
0.06020645715599414
0.7115585691714017
-0.5599365907985139
0.06020645715599414
0.7115585691714017
-0.5599365907985139
0.06020645715599414
0.7115585691714017
-0.5604975949749407
0.05963814123172893
0.7111837952761444
-0.5604975949749407
0.05963814123172893
0.7111837952761444
-0.5604975949749407
0.05963814123172893
0.7111837952761444
-0.5604975949749407
0.05963814123172893
0.7111837952761444
-0.5621652257834882
0.05985903659383538
0.710726832839546
-0.5621652257834882
0.05985903659383538
0.710726832839546
-0.5621652257834882
0.05985903659383538
0.710726832839546
-0.5621652257834882
0.05985903659383538
0.710726832839546
-0.5634225090107257
0.06074688392573708
0.7102818115475736
-0.5634225090107257
0.06074688392573708
0.7102818115475736
-0.5634225090107257
0.06074688392573708
0.7102818115475736
-0.5634225090107257
0.06074688392573708
0.7102818115475736
-0.5640637084938425
0.0618703662065815
0.7096236944329165
-0.5640637084938425
0.0618703662065815
0.7096236944329165
-0.5640637084938425
0.0618703662065815
0.7096236944329165
-0.5640637084938425
0.0618703662065815
0.7096236944329165
-0.5642003288104533
0.0636674547386714
0.7091430333601373
-0.5642003288104533
0.0636674547386714
0.7091430333601373
-0.5642003288104533
0.0636674547386714
0.7091430333601373
-0.5642003288104533
0.0636674547386714
0.7091430333601373
-0.5652606499398181
0.0651816170152328
0.7088020467254432
-0.5652606499398181
0.0651816170152328
0.7088020467254432
-0.5652606499398181
0.0651816170152328
0.7088020467254432
-0.5652606499398181
0.0651816170152328
0.7088020467254432
-0.5669751759924317
0.06681398083093473
0.7084917536516083
-0.5669751759924317
0.06681398083093473
0.7084917536516083
-0.5669751759924317
0.06681398083093473
0.7084917536516083
-0.5669751759924317
0.06681398083093473
0.7084917536516083
-0.5653782676957275
0.0700119076182127
0.7085252464547815
-0.5653782676957275
0.0700119076182127
0.7085252464547815
-0.5653782676957275
0.0700119076182127
0.7085252464547815
-0.5653782676957275
0.0700119076182127
0.7085252464547815
-0.5645356455349768
0.07253892128814343
0.7090289243146602
-0.5645356455349768
0.07253892128814343
0.7090289243146602
-0.5645356455349768
0.07253892128814343
0.7090289243146602
-0.5645356455349768
0.07253892128814343
0.7090289243146602
-0.5668819261448508
0.07327116490864793
0.7093974813224876
-0.5668819261448508
0.07327116490864793
0.7093974813224876
-0.5668819261448508
0.07327116490864793
0.7093974813224876
-0.5668819261448508
0.07327116490864793
0.7093974813224876
-0.5696272018119397
0.07379452015791209
0.7107782674037836
-0.5696272018119397
0.07379452015791209
0.7107782674037836
-0.5696272018119397
0.07379452015791209
0.7107782674037836
-0.5696272018119397
0.07379452015791209
0.7107782674037836
-0.5719875501072273
0.0742838848111645
0.7134364518975629
-0.5719875501072273
0.0742838848111645
0.7134364518975629
-0.5719875501072273
0.0742838848111645
0.7134364518975629
-0.5719875501072273
0.0742838848111645
0.7134364518975629
-0.5742192701210471
0.07564524745565032
0.7155135782868768
-0.5742192701210471
0.07564524745565032
0.7155135782868768
-0.5742192701210471
0.07564524745565032
0.7155135782868768
-0.5742192701210471
0.07564524745565032
0.7155135782868768
-0.5763023167267886
0.07668165185941185
0.7171704665190575
-0.5763023167267886
0.07668165185941185
0.7171704665190575
-0.5763023167267886
0.07668165185941185
0.7171704665190575
-0.5763023167267886
0.07668165185941185
0.7171704665190575
-0.5785917570705317
0.07541135471273674
0.7180864373819122
-0.5785917570705317
0.07541135471273674
0.7180864373819122
-0.5785917570705317
0.07541135471273674
0.7180864373819122
-0.5785917570705317
0.07541135471273674
0.7180864373819122
-0.5837987529241606
0.07062343452982774
0.7184932176388319
-0.5837987529241606
0.07062343452982774
0.7184932176388319
-0.5837987529241606
0.07062343452982774
0.7184932176388319
-0.5837987529241606
0.07062343452982774
0.7184932176388319
-0.5884661270563318
0.06398614375224251
0.71889162174226
-0.5884661270563318
0.06398614375224251
0.71889162174226
-0.5884661270563318
0.06398614375224251
0.71889162174226
-0.5884661270563318
0.06398614375224251
0.71889162174226
-0.5911746250695271
0.055440225907016964
0.720376005548701
-0.5911746250695271
0.055440225907016964
0.720376005548701
-0.5911746250695271
0.055440225907016964
0.720376005548701
-0.5911746250695271
0.055440225907016964
0.720376005548701
-0.5926124129476549
0.04518706120476012
0.7214942410460694
-0.5926124129476549
0.04518706120476012
0.7214942410460694
-0.5926124129476549
0.04518706120476012
0.7214942410460694
-0.5926124129476549
0.04518706120476012
0.7214942410460694
-0.5944083394303629
0.034427536732179666
0.721446570676314
-0.5944083394303629
0.034427536732179666
0.721446570676314
-0.5944083394303629
0.034427536732179666
0.721446570676314
-0.5944083394303629
0.034427536732179666
0.721446570676314
-0.5985065915717087
0.026260957303500403
0.7221636151522592
-0.5985065915717087
0.026260957303500403
0.7221636151522592
-0.5985065915717087
0.026260957303500403
0.7221636151522592
-0.5985065915717087
0.026260957303500403
0.7221636151522592
-0.6024500073695813
0.02046663084257944
0.723271553053291
-0.6024500073695813
0.02046663084257944
0.723271553053291
-0.6024500073695813
0.02046663084257944
0.723271553053291
-0.6024500073695813
0.02046663084257944
0.723271553053291
-0.6050252241791163
0.01422218238631721
0.7228761940628526
-0.6050252241791163
0.01422218238631721
0.7228761940628526
-0.6050252241791163
0.01422218238631721
0.7228761940628526
-0.6050252241791163
0.01422218238631721
0.7228761940628526
-0.6061579320694062
0.007119858776122953
0.7214971040365292
-0.6061579320694062
0.007119858776122953
0.7214971040365292
-0.6061579320694062
0.007119858776122953
0.7214971040365292
-0.6061579320694062
0.007119858776122953
0.7214971040365292
-0.6078007131305688
-8.447671690739009E-4
0.7215794288894961
-0.6078007131305688
-8.447671690739009E-4
0.7215794288894961
-0.6078007131305688
-8.447671690739009E-4
0.7215794288894961
-0.6078007131305688
-8.447671690739009E-4
0.7215794288894961
-0.6130938249327555
-0.006791204907804938
0.7228828942000873
-0.6130938249327555
-0.006791204907804938
0.7228828942000873
-0.6130938249327555
-0.006791204907804938
0.7228828942000873
-0.6130938249327555
-0.006791204907804938
0.7228828942000873
-0.6157104052587592
-0.01250958014868838
0.7242175950250641
-0.6157104052587592
-0.01250958014868838
0.7242175950250641
-0.6157104052587592
-0.01250958014868838
0.7242175950250641
-0.6157104052587592
-0.01250958014868838
0.7242175950250641
-0.6167018966083866
-0.020239196155995634
0.7250375691520683
-0.6167018966083866
-0.020239196155995634
0.7250375691520683
-0.6167018966083866
-0.020239196155995634
0.7250375691520683
-0.6167018966083866
-0.020239196155995634
0.7250375691520683
-0.6171684966211515
-0.027501136489406115
0.7231890636904796
-0.6171684966211515
-0.027501136489406115
0.7231890636904796
-0.6171684966211515
-0.027501136489406115
0.7231890636904796
-0.6171684966211515
-0.027501136489406115
0.7231890636904796
-0.6197992917500255
-0.034100256317410045
0.7209149728783296
-0.6197992917500255
-0.034100256317410045
0.7209149728783296
-0.6197992917500255
-0.034100256317410045
0.7209149728783296
-0.6197992917500255
-0.034100256317410045
0.7209149728783296
-0.6224499313792627
-0.04009175452321407
0.719677042066268
-0.6224499313792627
-0.04009175452321407
0.719677042066268
-0.6224499313792627
-0.04009175452321407
0.719677042066268
-0.6224499313792627
-0.04009175452321407
0.719677042066268
-0.6206533916392083
-0.04404408837628888
0.7184164901219041
-0.6206533916392083
-0.04404408837628888
0.7184164901219041
-0.6206533916392083
-0.04404408837628888
0.7184164901219041
-0.6206533916392083
-0.04404408837628888
0.7184164901219041
-0.6165218732755432
-0.045193908220078814
0.7169812663917589
-0.6165218732755432
-0.045193908220078814
0.7169812663917589
-0.6165218732755432
-0.045193908220078814
0.7169812663917589
-0.6165218732755432
-0.045193908220078814
0.7169812663917589
-0.614203640000986
-0.04431815876956445
0.7163812611432774
-0.614203640000986
-0.04431815876956445
0.7163812611432774
-0.614203640000986
-0.04431815876956445
0.7163812611432774
-0.614203640000986
-0.04431815876956445
0.7163812611432774
-0.6151748393574011
-0.04274760653070072
0.7158736689559363
-0.6151748393574011
-0.04274760653070072
0.7158736689559363
-0.6151748393574011
-0.04274760653070072
0.7158736689559363
-0.6151748393574011
-0.04274760653070072
0.7158736689559363
-0.6173576357740695
-0.04088605045694043
0.7152668876667003
-0.6173576357740695
-0.04088605045694043
0.7152668876667003
-0.6173576357740695
-0.04088605045694043
0.7152668876667003
-0.6173576357740695
-0.04088605045694043
0.7152668876667003
-0.619964704282757
-0.038621601809180325
0.7146238591254631
-0.619964704282757
-0.038621601809180325
0.7146238591254631
-0.619964704282757
-0.038621601809180325
0.7146238591254631
-0.619964704282757
-0.038621601809180325
0.7146238591254631
-0.6210279620948674
-0.036313474605932254
0.7137530170438081
-0.6210279620948674
-0.036313474605932254
0.7137530170438081
-0.6210279620948674
-0.036313474605932254
0.7137530170438081
-0.6210279620948674
-0.036313474605932254
0.7137530170438081
-0.6192269766860604
-0.03404515760024194
0.7130114474970419
-0.6192269766860604
-0.03404515760024194
0.7130114474970419
-0.6192269766860604
-0.03404515760024194
0.7130114474970419
-0.6192269766860604
-0.03404515760024194
0.7130114474970419
-0.6162681063850998
-0.03053160328619947
0.7128642077983316
-0.6162681063850998
-0.03053160328619947
0.7128642077983316
-0.6162681063850998
-0.03053160328619947
0.7128642077983316
-0.6162681063850998
-0.03053160328619947
0.7128642077983316
-0.6139047910180492
-0.027051641662621754
0.7131960260980501
-0.6139047910180492
-0.027051641662621754
0.7131960260980501
-0.6139047910180492
-0.027051641662621754
0.7131960260980501
-0.6139047910180492
-0.027051641662621754
0.7131960260980501
-0.6118783062739608
-0.024029558949821655
0.7138491591897553
-0.6118783062739608
-0.024029558949821655
0.7138491591897553
-0.6118783062739608
-0.024029558949821655
0.7138491591897553
-0.6118783062739608
-0.024029558949821655
0.7138491591897553
-0.6095619274275204
-0.0210239043967886
0.7139851723156146
-0.6095619274275204
-0.0210239043967886
0.7139851723156146
-0.6095619274275204
-0.0210239043967886
0.7139851723156146
-0.6095619274275204
-0.0210239043967886
0.7139851723156146
-0.6082112224168827
-0.01795632589880155
0.7126651810062219
-0.6082112224168827
-0.01795632589880155
0.7126651810062219
-0.6082112224168827
-0.01795632589880155
0.7126651810062219
-0.6082112224168827
-0.01795632589880155
0.7126651810062219
-0.6128416281822562
-0.014137516819987291
0.7107003525755635
-0.6128416281822562
-0.014137516819987291
0.7107003525755635
-0.6128416281822562
-0.014137516819987291
0.7107003525755635
-0.6128416281822562
-0.014137516819987291
0.7107003525755635
-0.6132471251112116
-0.010899446760277216
0.7083440351975935
-0.6132471251112116
-0.010899446760277216
0.7083440351975935
-0.6132471251112116
-0.010899446760277216
0.7083440351975935
-0.6132471251112116
-0.010899446760277216
0.7083440351975935
-0.6068927825535144
-0.0052749846527812
0.7067670156316477
-0.6068927825535144
-0.0052749846527812
0.7067670156316477
-0.6068927825535144
-0.0052749846527812
0.7067670156316477
-0.6068927825535144
-0.0052749846527812
0.7067670156316477
-0.593083756222688
-4.4358430526833955E-5
0.7053198442213852
-0.593083756222688
-4.4358430526833955E-5
0.7053198442213852
-0.593083756222688
-4.4358430526833955E-5
0.7053198442213852
-0.593083756222688
-4.4358430526833955E-5
0.7053198442213852
-0.5861271325867538
0.00553622307275074
0.7026036930395607
-0.5861271325867538
0.00553622307275074
0.7026036930395607
-0.5861271325867538
0.00553622307275074
0.7026036930395607
-0.5861271325867538
0.00553622307275074
0.7026036930395607
-0.5875097158463716
0.011411506541883871
0.7001479290189223
-0.5875097158463716
0.011411506541883871
0.7001479290189223
-0.5875097158463716
0.011411506541883871
0.7001479290189223
-0.5875097158463716
0.011411506541883871
0.7001479290189223
-0.5866456281903315
0.016619668982977683
0.6995817804133164
-0.5866456281903315
0.016619668982977683
0.6995817804133164
-0.5866456281903315
0.016619668982977683
0.6995817804133164
-0.5866456281903315
0.016619668982977683
0.6995817804133164
-0.5806820409201757
0.022072269006057205
0.6988823041958555
-0.5806820409201757
0.022072269006057205
0.6988823041958555
-0.5806820409201757
0.022072269006057205
0.6988823041958555
-0.5806820409201757
0.022072269006057205
0.6988823041958555
-0.5720375383237458
0.025629027114174908
0.7001149587794862
-0.5720375383237458
0.025629027114174908
0.7001149587794862
-0.5720375383237458
0.025629027114174908
0.7001149587794862
-0.5720375383237458
0.025629027114174908
0.7001149587794862
-0.5594816825797961
0.030902681203879824
0.7007095885548061
-0.5594816825797961
0.030902681203879824
0.7007095885548061
-0.5594816825797961
0.030902681203879824
0.7007095885548061
-0.5594816825797961
0.030902681203879824
0.7007095885548061
-0.544183595465286
0.037724235721098905
0.7042553804762699
-0.544183595465286
0.037724235721098905
0.7042553804762699
-0.544183595465286
0.037724235721098905
0.7042553804762699
-0.544183595465286
0.037724235721098905
0.7042553804762699
-0.5395372690454006
0.04539861540069314
0.7112876302391168
-0.5395372690454006
0.04539861540069314
0.7112876302391168
-0.5395372690454006
0.04539861540069314
0.7112876302391168
-0.5395372690454006
0.04539861540069314
0.7112876302391168
-0.5482195509726967
0.04934279625447036
0.7159263826403456
-0.5482195509726967
0.04934279625447036
0.7159263826403456
-0.5482195509726967
0.04934279625447036
0.7159263826403456
-0.5482195509726967
0.04934279625447036
0.7159263826403456
-0.5552043787610085
0.048650029586370595
0.7169451514167078
-0.5552043787610085
0.048650029586370595
0.7169451514167078
-0.5552043787610085
0.048650029586370595
0.7169451514167078
-0.5552043787610085
0.048650029586370595
0.7169451514167078
-0.5520470505226016
0.048572681923194215
0.7161678697965438
-0.5520470505226016
0.048572681923194215
0.7161678697965438
-0.5520470505226016
0.048572681923194215
0.7161678697965438
-0.5520470505226016
0.048572681923194215
0.7161678697965438
-0.5437241196730892
0.051425168126915395
0.7168967912078608
-0.5437241196730892
0.051425168126915395
0.7168967912078608
-0.5437241196730892
0.051425168126915395
0.7168967912078608
-0.5437241196730892
0.051425168126915395
0.7168967912078608
-0.5441529846870085
0.053434110361911924
0.7181350514905794
-0.5441529846870085
0.053434110361911924
0.7181350514905794
-0.5441529846870085
0.053434110361911924
0.7181350514905794
-0.5441529846870085
0.053434110361911924
0.7181350514905794
-0.5476123576538032
0.05324464627144654
0.7180515633892494
-0.5476123576538032
0.05324464627144654
0.7180515633892494
-0.5476123576538032
0.05324464627144654
0.7180515633892494
-0.5476123576538032
0.05324464627144654
0.7180515633892494
-0.5500998517683761
0.05255934294807853
0.7170800650144663
-0.5500998517683761
0.05255934294807853
0.7170800650144663
-0.5500998517683761
0.05255934294807853
0.7170800650144663
-0.5500998517683761
0.05255934294807853
0.7170800650144663
-0.5504287799628066
0.052007697184450793
0.7152224438522713
-0.5504287799628066
0.052007697184450793
0.7152224438522713
-0.5504287799628066
0.052007697184450793
0.7152224438522713
-0.5504287799628066
0.052007697184450793
0.7152224438522713
-0.5526394160410073
0.05149421918558985
0.7133638232139794
-0.5526394160410073
0.05149421918558985
0.7133638232139794
-0.5526394160410073
0.05149421918558985
0.7133638232139794
-0.5526394160410073
0.05149421918558985
0.7133638232139794
-0.5527652436528339
0.05024686554840738
0.7126299719278324
-0.5527652436528339
0.05024686554840738
0.7126299719278324
-0.5527652436528339
0.05024686554840738
0.7126299719278324
-0.5527652436528339
0.05024686554840738
0.7126299719278324
-0.550951497638062
0.048781379209817774
0.7118291310008737
-0.550951497638062
0.048781379209817774
0.7118291310008737
-0.550951497638062
0.048781379209817774
0.7118291310008737
-0.550951497638062
0.048781379209817774
0.7118291310008737
-0.5521660494375332
0.04703443784956394
0.7121451186104091
-0.5521660494375332
0.04703443784956394
0.7121451186104091
-0.5521660494375332
0.04703443784956394
0.7121451186104091
-0.5521660494375332
0.04703443784956394
0.7121451186104091
-0.5568693962245485
0.04515894881299105
0.7130575899431011
-0.5568693962245485
0.04515894881299105
0.7130575899431011
-0.5568693962245485
0.04515894881299105
0.7130575899431011
-0.5568693962245485
0.04515894881299105
0.7130575899431011
-0.5586875237600235
0.04407128536067746
0.7139070294609452
-0.5586875237600235
0.04407128536067746
0.7139070294609452
-0.5586875237600235
0.04407128536067746
0.7139070294609452
-0.5586875237600235
0.04407128536067746
0.7139070294609452
-0.5588676181621656
0.04571050079957399
0.7137147566592825
-0.5588676181621656
0.04571050079957399
0.7137147566592825
-0.5588676181621656
0.04571050079957399
0.7137147566592825
-0.5588676181621656
0.04571050079957399
0.7137147566592825
-0.5575538652584825
0.04856817666461086
0.7136411377285521
-0.5575538652584825
0.04856817666461086
0.7136411377285521
-0.5575538652584825
0.04856817666461086
0.7136411377285521
-0.5575538652584825
0.04856817666461086
0.7136411377285521
-0.5579011480246506
0.0515166225215136
0.7144826303412428
-0.5579011480246506
0.0515166225215136
0.7144826303412428
-0.5579011480246506
0.0515166225215136
0.7144826303412428
-0.5579011480246506
0.0515166225215136
0.7144826303412428
-0.5607008832244662
0.053322481230579664
0.7151683998938234
-0.5607008832244662
0.053322481230579664
0.7151683998938234
-0.5607008832244662
0.053322481230579664
0.7151683998938234
-0.5607008832244662
0.053322481230579664
0.7151683998938234
-0.5604352605999999
0.05478197265332634
0.7153945528478846
-0.5604352605999999
0.05478197265332634
0.7153945528478846
-0.5604352605999999
0.05478197265332634
0.7153945528478846
-0.5604352605999999
0.05478197265332634
0.7153945528478846
-0.5583467149644787
0.05647590957614512
0.7155915554070491
-0.5583467149644787
0.05647590957614512
0.7155915554070491
-0.5583467149644787
0.05647590957614512
0.7155915554070491
-0.5583467149644787
0.05647590957614512
0.7155915554070491
-0.5557053322678551
0.058610511680492076
0.7161578834982427
-0.5557053322678551
0.058610511680492076
0.7161578834982427
-0.5557053322678551
0.058610511680492076
0.7161578834982427
-0.5557053322678551
0.058610511680492076
0.7161578834982427
-0.557272207571999
0.059294048544805494
0.7168970524531046
-0.557272207571999
0.059294048544805494
0.7168970524531046
-0.557272207571999
0.059294048544805494
0.7168970524531046
-0.557272207571999
0.059294048544805494
0.7168970524531046
-0.5589558227720776
0.058589807454664314
0.7173917887911788
-0.5589558227720776
0.058589807454664314
0.7173917887911788
-0.5589558227720776
0.058589807454664314
0.7173917887911788
-0.5589558227720776
0.058589807454664314
0.7173917887911788
-0.5586403011177552
0.057481435257136636
0.7172274430570903
-0.5586403011177552
0.057481435257136636
0.7172274430570903
-0.5586403011177552
0.057481435257136636
0.7172274430570903
-0.5586403011177552
0.057481435257136636
0.7172274430570903
-0.5567782508299519
0.05662202102786893
0.7171848554799984
-0.5567782508299519
0.05662202102786893
0.7171848554799984
-0.5567782508299519
0.05662202102786893
0.7171848554799984
-0.5567782508299519
0.05662202102786893
0.7171848554799984
-0.5567082359635004
0.056471542178924285
0.7172300344080274
-0.5567082359635004
0.056471542178924285
0.7172300344080274
-0.5567082359635004
0.056471542178924285
0.7172300344080274
-0.5567082359635004
0.056471542178924285
0.7172300344080274
-0.5571985141275375
0.055716105689685304
0.7181607317429749
-0.5571985141275375
0.055716105689685304
0.7181607317429749
-0.5571985141275375
0.055716105689685304
0.7181607317429749
-0.5571985141275375
0.055716105689685304
0.7181607317429749
-0.5579805040650363
0.055267947042883715
0.719277865713946
-0.5579805040650363
0.055267947042883715
0.719277865713946
-0.5579805040650363
0.055267947042883715
0.719277865713946
-0.5579805040650363
0.055267947042883715
0.719277865713946
-0.558159161831666
0.05502365475525943
0.7200722246722802
-0.558159161831666
0.05502365475525943
0.7200722246722802
-0.558159161831666
0.05502365475525943
0.7200722246722802
-0.558159161831666
0.05502365475525943
0.7200722246722802
-0.5576715832410465
0.05472636228190862
0.7196793239561432
-0.5576715832410465
0.05472636228190862
0.7196793239561432
-0.5576715832410465
0.05472636228190862
0.7196793239561432
-0.5576715832410465
0.05472636228190862
0.7196793239561432
-0.5572135655741142
0.05436870857864142
0.7190657228269159
-0.5572135655741142
0.05436870857864142
0.7190657228269159
-0.5572135655741142
0.05436870857864142
0.7190657228269159
-0.5572135655741142
0.05436870857864142
0.7190657228269159
-0.5581789287110454
0.053980099998761424
0.7192399892532865
-0.5581789287110454
0.053980099998761424
0.7192399892532865
-0.5581789287110454
0.053980099998761424
0.7192399892532865
-0.5581789287110454
0.053980099998761424
0.7192399892532865
-0.5577129751831904
0.05250588421142042
0.7199130468459778
-0.5577129751831904
0.05250588421142042
0.7199130468459778
-0.5577129751831904
0.05250588421142042
0.7199130468459778
-0.5577129751831904
0.05250588421142042
0.7199130468459778
-0.5570822164618663
0.05156709409051331
0.7198256899434983
-0.5570822164618663
0.05156709409051331
0.7198256899434983
-0.5570822164618663
0.05156709409051331
0.7198256899434983
-0.5570822164618663
0.05156709409051331
0.7198256899434983
-0.5567980732598196
0.050473488442926165
0.7196996138833893
-0.5567980732598196
0.050473488442926165
0.7196996138833893
-0.5567980732598196
0.050473488442926165
0.7196996138833893
-0.5567980732598196
0.050473488442926165
0.7196996138833893
-0.5561309578020438
0.05006075546691501
0.7196260539115493
-0.5561309578020438
0.05006075546691501
0.7196260539115493
-0.5561309578020438
0.05006075546691501
0.7196260539115493
-0.5561309578020438
0.05006075546691501
0.7196260539115493
-0.5572506118970592
0.049943272426268934
0.7196019483519853
-0.5572506118970592
0.049943272426268934
0.7196019483519853
-0.5572506118970592
0.049943272426268934
0.7196019483519853
-0.5572506118970592
0.049943272426268934
0.7196019483519853
-0.5578760125846648
0.0500691932401651
0.7192388592602525
-0.5578760125846648
0.0500691932401651
0.7192388592602525
-0.5578760125846648
0.0500691932401651
0.7192388592602525
-0.5578760125846648
0.0500691932401651
0.7192388592602525
-0.5580726044155555
0.05049480449694213
0.7185916951898006
-0.5580726044155555
0.05049480449694213
0.7185916951898006
-0.5580726044155555
0.05049480449694213
0.7185916951898006
-0.5580726044155555
0.05049480449694213
0.7185916951898006
-0.5578284557568385
0.05108013430794425
0.7181479638328911
-0.5578284557568385
0.05108013430794425
0.7181479638328911
-0.5578284557568385
0.05108013430794425
0.7181479638328911
-0.5578284557568385
0.05108013430794425
0.7181479638328911
-0.5583955856956936
0.051005744704315424
0.7180805386338469
-0.5583955856956936
0.051005744704315424
0.7180805386338469
-0.5583955856956936
0.051005744704315424
0.7180805386338469
-0.5583955856956936
0.051005744704315424
0.7180805386338469
-0.5595996327272893
0.051007360846519884
0.717900620201575
-0.5595996327272893
0.051007360846519884
0.717900620201575
-0.5595996327272893
0.051007360846519884
0.717900620201575
-0.5595996327272893
0.051007360846519884
0.717900620201575
-0.5603063663470713
0.05123381499778815
0.7177427839982342
-0.5603063663470713
0.05123381499778815
0.7177427839982342
-0.5603063663470713
0.05123381499778815
0.7177427839982342
-0.5603063663470713
0.05123381499778815
0.7177427839982342
-0.5603761853627354
0.051384291426393426
0.7176975201095732
-0.5603761853627354
0.051384291426393426
0.7176975201095732
-0.5603761853627354
0.051384291426393426
0.7176975201095732
-0.5603761853627354
0.051384291426393426
0.7176975201095732
-0.5601263127985877
0.051364590259488814
0.7179473926737209
-0.5601263127985877
0.051364590259488814
0.7179473926737209
-0.5601263127985877
0.051364590259488814
0.7179473926737209
-0.5601263127985877
0.051364590259488814
0.7179473926737209
-0.5591035004570722
0.05130793974925106
0.7181838138959984
-0.5591035004570722
0.05130793974925106
0.7181838138959984
-0.5591035004570722
0.05130793974925106
0.7181838138959984
-0.5591035004570722
0.05130793974925106
0.7181838138959984
-0.558675962585969
0.05168338676775026
0.7181610070428988
-0.558675962585969
0.05168338676775026
0.7181610070428988
-0.558675962585969
0.05168338676775026
0.7181610070428988
-0.558675962585969
0.05168338676775026
0.7181610070428988
-0.5600144530289405
0.05284829655912191
0.718089099793819
-0.5600144530289405
0.05284829655912191
0.718089099793819
-0.5600144530289405
0.05284829655912191
0.718089099793819
-0.5600144530289405
0.05284829655912191
0.718089099793819
-0.5599785432956657
0.05369587359271251
0.7182476282541053
-0.5599785432956657
0.05369587359271251
0.7182476282541053
-0.5599785432956657
0.05369587359271251
0.7182476282541053
-0.5599785432956657
0.05369587359271251
0.7182476282541053
-0.5599785432956657
0.05369587359271251
0.7182476282541053
-0.5599785432956657
0.05369587359271251
0.7182476282541053
-0.5599785432956657
0.05369587359271251
0.7182476282541053
-0.5599785432956657
0.05369587359271251
0.7182476282541053
-0.5601193202065281
0.053751044125429456
0.718273230142126
-0.5601193202065281
0.053751044125429456
0.718273230142126
-0.5601193202065281
0.053751044125429456
0.718273230142126
-0.5601193202065281
0.053751044125429456
0.718273230142126
-0.5601597482245598
0.0536409364487761
0.7183037459260623
-0.5601597482245598
0.0536409364487761
0.7183037459260623
-0.5601597482245598
0.0536409364487761
0.7183037459260623
-0.5601597482245598
0.0536409364487761
0.7183037459260623
-0.5601597482245598
0.0536409364487761
0.7183037459260623
-0.5601597482245598
0.0536409364487761
0.7183037459260623
-0.5601597482245598
0.0536409364487761
0.7183037459260623
-0.5601597482245598
0.0536409364487761
0.7183037459260623
-0.5600593998215506
0.0534756640757293
0.7183086484844512
-0.5600593998215506
0.0534756640757293
0.7183086484844512
-0.5600593998215506
0.0534756640757293
0.7183086484844512
-0.5600593998215506
0.0534756640757293
0.7183086484844512
-0.5604144740770763
0.05268543592796442
0.7188542900830943
-0.5604144740770763
0.05268543592796442
0.7188542900830943
-0.5604144740770763
0.05268543592796442
0.7188542900830943
-0.5604144740770763
0.05268543592796442
0.7188542900830943
-0.5605323756955545
0.052015047742496864
0.7191626123677415
-0.5605323756955545
0.052015047742496864
0.7191626123677415
-0.5605323756955545
0.052015047742496864
0.7191626123677415
-0.5605323756955545
0.052015047742496864
0.7191626123677415
-0.5608609445986097
0.05155043391759115
0.7194514588745705
-0.5608609445986097
0.05155043391759115
0.7194514588745705
-0.5608609445986097
0.05155043391759115
0.7194514588745705
-0.5608609445986097
0.05155043391759115
0.7194514588745705
-0.5598610515816682
0.05075169958793706
0.7199006888955954
-0.5598610515816682
0.05075169958793706
0.7199006888955954
-0.5598610515816682
0.05075169958793706
0.7199006888955954
-0.5598610515816682
0.05075169958793706
0.7199006888955954
-0.5588733556238568
0.050092523062497375
0.7198616896458594
-0.5588733556238568
0.050092523062497375
0.7198616896458594
-0.5588733556238568
0.050092523062497375
0.7198616896458594
-0.5588733556238568
0.050092523062497375
0.7198616896458594
-0.5594925925217419
0.04953778743373968
0.7199313762180762
-0.5594925925217419
0.04953778743373968
0.7199313762180762
-0.5594925925217419
0.04953778743373968
0.7199313762180762
-0.5594925925217419
0.04953778743373968
0.7199313762180762
-0.5594489734483511
0.04930763627278457
0.7201172709659369
-0.5594489734483511
0.04930763627278457
0.7201172709659369
-0.5594489734483511
0.04930763627278457
0.7201172709659369
-0.5594489734483511
0.04930763627278457
0.7201172709659369
-0.5596665546798986
0.04872683529894772
0.720159886419628
-0.5596665546798986
0.04872683529894772
0.720159886419628
-0.5596665546798986
0.04872683529894772
0.720159886419628
-0.5596665546798986
0.04872683529894772
0.720159886419628
-0.558793522826647
0.04852389480279393
0.7201499905784747
-0.558793522826647
0.04852389480279393
0.7201499905784747
-0.558793522826647
0.04852389480279393
0.7201499905784747
-0.558793522826647
0.04852389480279393
0.7201499905784747
-0.558204540053841
0.04941473552336232
0.720265692445042
-0.558204540053841
0.04941473552336232
0.720265692445042
-0.558204540053841
0.04941473552336232
0.720265692445042
-0.558204540053841
0.04941473552336232
0.720265692445042
-0.5580449832139369
0.05051699335318772
0.7200725326827894
-0.5580449832139369
0.05051699335318772
0.7200725326827894
-0.5580449832139369
0.05051699335318772
0.7200725326827894
-0.5580449832139369
0.05051699335318772
0.7200725326827894
-0.5587005160568422
0.05130070211414533
0.7200394503271111
-0.5587005160568422
0.05130070211414533
0.7200394503271111
-0.5587005160568422
0.05130070211414533
0.7200394503271111
-0.5587005160568422
0.05130070211414533
0.7200394503271111
-0.5583465982785552
0.052242200760579616
0.7200163127842432
-0.5583465982785552
0.052242200760579616
0.7200163127842432
-0.5583465982785552
0.052242200760579616
0.7200163127842432
-0.5583465982785552
0.052242200760579616
0.7200163127842432
-0.5589238029133436
0.05351078853686468
0.7194442453926582
-0.5589238029133436
0.05351078853686468
0.7194442453926582
-0.5589238029133436
0.05351078853686468
0.7194442453926582
-0.5589238029133436
0.05351078853686468
0.7194442453926582
-0.5610476208001632
0.05413408954612717
0.7183455501554992
-0.5610476208001632
0.05413408954612717
0.7183455501554992
-0.5610476208001632
0.05413408954612717
0.7183455501554992
-0.5610476208001632
