-0.5346786086821411
0.007295042104478435
0.7019887065715111
-0.5346786086821411
0.007295042104478435
0.7019887065715111
-0.5346786086821411
0.007295042104478435
0.7019887065715111
-0.5346786086821411
0.007295042104478435
0.7019887065715111
-0.5360292479448983
0.008428915286320643
0.70232189175568
-0.5360292479448983
0.008428915286320643
0.70232189175568
-0.5360292479448983
0.008428915286320643
0.70232189175568
-0.5360292479448983
0.008428915286320643
0.70232189175568
-0.5377933510101732
0.009555101438324946
0.7025785193661648
-0.5377933510101732
0.009555101438324946
0.7025785193661648
-0.5377933510101732
0.009555101438324946
0.7025785193661648
-0.5377933510101732
0.009555101438324946
0.7025785193661648
-0.5394412149031399
0.010910517369068675
0.7023702687819527
-0.5394412149031399
0.010910517369068675
0.7023702687819527
-0.5394412149031399
0.010910517369068675
0.7023702687819527
-0.5394412149031399
0.010910517369068675
0.7023702687819527
-0.5407878112901923
0.01240612400380129
0.7021228200970829
-0.5407878112901923
0.01240612400380129
0.7021228200970829
-0.5407878112901923
0.01240612400380129
0.7021228200970829
-0.5407878112901923
0.01240612400380129
0.7021228200970829
-0.5417689673512696
0.013335373224777649
0.7021835022567964
-0.5417689673512696
0.013335373224777649
0.7021835022567964
-0.5417689673512696
0.013335373224777649
0.7021835022567964
-0.5417689673512696
0.013335373224777649
0.7021835022567964
-0.541618197129152
0.013405641973183608
0.7021650755907465
-0.541618197129152
0.013405641973183608
0.7021650755907465
-0.541618197129152
0.013405641973183608
0.7021650755907465
-0.541618197129152
0.013405641973183608
0.7021650755907465
-0.5420851154698589
0.01368181007165837
0.7025291930221348
-0.5420851154698589
0.01368181007165837
0.7025291930221348
-0.5420851154698589
0.01368181007165837
0.7025291930221348
-0.5420851154698589
0.01368181007165837
0.7025291930221348
-0.5418584892295734
0.013704477058545664
0.7029250025583896
-0.5418584892295734
0.013704477058545664
0.7029250025583896
-0.5418584892295734
0.013704477058545664
0.7029250025583896
-0.5418584892295734
0.013704477058545664
0.7029250025583896
-0.5416478348963113
0.013252110819058924
0.7030521600019668
-0.5416478348963113
0.013252110819058924
0.7030521600019668
-0.5416478348963113
0.013252110819058924
0.7030521600019668
-0.5416478348963113
0.013252110819058924
0.7030521600019668
-0.5420404990241323
0.012518977925207873
0.7032530712333358
-0.5420404990241323
0.012518977925207873
0.7032530712333358
-0.5420404990241323
0.012518977925207873
0.7032530712333358
-0.5420404990241323
0.012518977925207873
0.7032530712333358
-0.5416956750662538
0.012087060162926579
0.7036130481969229
-0.5416956750662538
0.012087060162926579
0.7036130481969229
-0.5416956750662538
0.012087060162926579
0.7036130481969229
-0.5416956750662538
0.012087060162926579
0.7036130481969229
-0.5415097146247174
0.01199901285726618
0.7040391104888997
-0.5415097146247174
0.01199901285726618
0.7040391104888997
-0.5415097146247174
0.01199901285726618
0.7040391104888997
-0.5415097146247174
0.01199901285726618
0.7040391104888997
-0.5414461812163854
0.011920880799582135
0.7043427760854026
-0.5414461812163854
0.011920880799582135
0.7043427760854026
-0.5414461812163854
0.011920880799582135
0.7043427760854026
-0.5414461812163854
0.011920880799582135
0.7043427760854026
-0.5420800641037733
0.011652518786420464
0.7044571790426781
-0.5420800641037733
0.011652518786420464
0.7044571790426781
-0.5420800641037733
0.011652518786420464
0.7044571790426781
-0.5420800641037733
0.011652518786420464
0.7044571790426781
-0.5430835531985605
0.011931506426751443
0.7046237893627597
-0.5430835531985605
0.011931506426751443
0.7046237893627597
-0.5430835531985605
0.011931506426751443
0.7046237893627597
-0.5430835531985605
0.011931506426751443
0.7046237893627597
-0.543928609344542
0.012292380765437547
0.7052438244049122
-0.543928609344542
0.012292380765437547
0.7052438244049122
-0.543928609344542
0.012292380765437547
0.7052438244049122
-0.543928609344542
0.012292380765437547
0.7052438244049122
-0.5444376653084473
0.01297715498312072
0.7060572052945883
-0.5444376653084473
0.01297715498312072
0.7060572052945883
-0.5444376653084473
0.01297715498312072
0.7060572052945883
-0.5444376653084473
0.01297715498312072
0.7060572052945883
-0.5446260376447045
0.013759507263484507
0.7066825733351221
-0.5446260376447045
0.013759507263484507
0.7066825733351221
-0.5446260376447045
0.013759507263484507
0.7066825733351221
-0.5446260376447045
0.013759507263484507
0.7066825733351221
-0.5443014343763628
0.015068459881460217
0.706957845590434
-0.5443014343763628
0.015068459881460217
0.706957845590434
-0.5443014343763628
0.015068459881460217
0.706957845590434
-0.5443014343763628
0.015068459881460217
0.706957845590434
-0.5439065353674034
0.016226439381054877
0.707276231005906
-0.5439065353674034
0.016226439381054877
0.707276231005906
-0.5439065353674034
0.016226439381054877
0.707276231005906
-0.5439065353674034
0.016226439381054877
0.707276231005906
-0.5433361290478939
0.016748222063754484
0.7074921956215399
-0.5433361290478939
0.016748222063754484
0.7074921956215399
-0.5433361290478939
0.016748222063754484
0.7074921956215399
-0.5433361290478939
0.016748222063754484
0.7074921956215399
-0.542554894318867
0.017066230598703772
0.7077228843654519
-0.542554894318867
0.017066230598703772
0.7077228843654519
-0.542554894318867
0.017066230598703772
0.7077228843654519
-0.542554894318867
0.017066230598703772
0.7077228843654519
-0.542554894318867
0.017066230598703772
0.7077228843654519
-0.542554894318867
0.017066230598703772
0.7077228843654519
-0.542554894318867
0.017066230598703772
0.7077228843654519
-0.542554894318867
0.017066230598703772
0.7077228843654519
-0.54271735940759
0.01714223966336216
0.7082636231349011
-0.54271735940759
0.01714223966336216
0.7082636231349011
-0.54271735940759
0.01714223966336216
0.7082636231349011
-0.54271735940759
0.01714223966336216
0.7082636231349011
-0.5432468236742011
0.01690756748641441
0.7086500407972344
-0.5432468236742011
0.01690756748641441
0.7086500407972344
-0.5432468236742011
0.01690756748641441
0.7086500407972344
-0.5432468236742011
0.01690756748641441
0.7086500407972344
-0.5428852723475471
0.01677366144858426
0.7086463623674745
-0.5428852723475471
0.01677366144858426
0.7086463623674745
-0.5428852723475471
0.01677366144858426
0.7086463623674745
-0.5428852723475471
0.01677366144858426
0.7086463623674745
-0.5421802559950476
0.016548430163151853
0.7087898244834103
-0.5421802559950476
0.016548430163151853
0.7087898244834103
-0.5421802559950476
0.016548430163151853
0.7087898244834103
-0.5421802559950476
0.016548430163151853
0.7087898244834103
-0.5414346718057675
0.016433489998829258
0.7089028476121038
-0.5414346718057675
0.016433489998829258
0.7089028476121038
-0.5414346718057675
0.016433489998829258
0.7089028476121038
-0.5414346718057675
0.016433489998829258
0.7089028476121038
-0.5413761848810446
0.015910732844509577
0.7090484385861329
-0.5413761848810446
0.015910732844509577
0.7090484385861329
-0.5413761848810446
0.015910732844509577
0.7090484385861329
-0.5413761848810446
0.015910732844509577
0.7090484385861329
-0.5419698927471639
0.015754129919557328
0.7091311045580102
-0.5419698927471639
0.015754129919557328
0.7091311045580102
-0.5419698927471639
0.015754129919557328
0.7091311045580102
-0.5419698927471639
0.015754129919557328
0.7091311045580102
-0.5418594940826419
0.015713537864047448
0.7091433167630478
-0.5418594940826419
0.015713537864047448
0.7091433167630478
-0.5418594940826419
0.015713537864047448
0.7091433167630478
-0.5418594940826419
0.015713537864047448
0.7091433167630478
-0.540986187757637
0.016447622143572954
0.708577016708906
-0.540986187757637
0.016447622143572954
0.708577016708906
-0.540986187757637
0.016447622143572954
0.708577016708906
-0.540986187757637
0.016447622143572954
0.708577016708906
-0.5397880006144445
0.017724070729904225
0.7079831550773403
-0.5397880006144445
0.017724070729904225
0.7079831550773403
-0.5397880006144445
0.017724070729904225
0.7079831550773403
-0.5397880006144445
0.017724070729904225
0.7079831550773403
-0.5372345808842052
0.018827171259040824
0.70663844419914
-0.5372345808842052
0.018827171259040824
0.70663844419914
-0.5372345808842052
0.018827171259040824
0.70663844419914
-0.5372345808842052
0.018827171259040824
0.70663844419914
-0.5346565109509858
0.020167156871695822
0.7061515365952257
-0.5346565109509858
0.020167156871695822
0.7061515365952257
-0.5346565109509858
0.020167156871695822
0.7061515365952257
-0.5346565109509858
0.020167156871695822
0.7061515365952257
-0.532282580965997
0.02181329710926736
0.7060265493749555
-0.532282580965997
0.02181329710926736
0.7060265493749555
-0.532282580965997
0.02181329710926736
0.7060265493749555
-0.532282580965997
0.02181329710926736
0.7060265493749555
-0.5296245710706
0.023127073286227703
0.7055995151868206
-0.5296245710706
0.023127073286227703
0.7055995151868206
-0.5296245710706
0.023127073286227703
0.7055995151868206
-0.5296245710706
0.023127073286227703
0.7055995151868206
-0.5268211297165768
0.024832933269861655
0.7053094556468512
-0.5268211297165768
0.024832933269861655
0.7053094556468512
-0.5268211297165768
0.024832933269861655
0.7053094556468512
-0.5268211297165768
0.024832933269861655
0.7053094556468512
-0.5217621226982208
0.02702175343774487
0.7044263744556145
-0.5217621226982208
0.02702175343774487
0.7044263744556145
-0.5217621226982208
0.02702175343774487
0.7044263744556145
-0.5217621226982208
0.02702175343774487
0.7044263744556145
-0.5158510432781434
0.02889266581607865
0.7030474143128894
-0.5158510432781434
0.02889266581607865
0.7030474143128894
-0.5158510432781434
0.02889266581607865
0.7030474143128894
-0.5158510432781434
0.02889266581607865
0.7030474143128894
-0.5144637556908049
0.03191769781743658
0.6997034859854769
-0.5144637556908049
0.03191769781743658
0.6997034859854769
-0.5144637556908049
0.03191769781743658
0.6997034859854769
-0.5144637556908049
0.03191769781743658
0.6997034859854769
-0.5173377923141284
0.03667629440163656
0.6945476981051353
-0.5173377923141284
0.03667629440163656
0.6945476981051353
-0.5173377923141284
0.03667629440163656
0.6945476981051353
-0.5173377923141284
0.03667629440163656
0.6945476981051353
-0.5255591718947552
0.04256424841042739
0.6889098459599271
-0.5255591718947552
0.04256424841042739
0.6889098459599271
-0.5255591718947552
0.04256424841042739
0.6889098459599271
-0.5255591718947552
0.04256424841042739
0.6889098459599271
-0.5350215730983007
0.051728537075927096
0.6782884280583804
-0.5350215730983007
0.051728537075927096
0.6782884280583804
-0.5350215730983007
0.051728537075927096
0.6782884280583804
-0.5350215730983007
0.051728537075927096
0.6782884280583804
-0.5535610105941051
0.06479548150395156
0.6617854281401119
-0.5535610105941051
0.06479548150395156
0.6617854281401119
-0.5535610105941051
0.06479548150395156
0.6617854281401119
-0.5535610105941051
0.06479548150395156
0.6617854281401119
-0.5922362180497602
0.07574746126548226
0.6397253861516239
-0.5922362180497602
0.07574746126548226
0.6397253861516239
-0.5922362180497602
0.07574746126548226
0.6397253861516239
-0.5922362180497602
0.07574746126548226
0.6397253861516239
-0.6644708136231318
0.08269602532952981
0.6165483152889683
-0.6644708136231318
0.08269602532952981
0.6165483152889683
-0.6644708136231318
0.08269602532952981
0.6165483152889683
-0.6644708136231318
0.08269602532952981
0.6165483152889683
-0.7689263214037871
0.09358787794849521
0.593317235570544
-0.7689263214037871
0.09358787794849521
0.593317235570544
-0.7689263214037871
0.09358787794849521
0.593317235570544
-0.7689263214037871
0.09358787794849521
0.593317235570544
-0.9046704295118217
0.1135578975571692
0.5639092185793242
-0.9046704295118217
0.1135578975571692
0.5639092185793242
-0.9046704295118217
0.1135578975571692
0.5639092185793242
-0.9046704295118217
0.1135578975571692
0.5639092185793242
-1.0480044205148351
0.1342170252662707
0.5265208254352258
-1.0480044205148351
0.1342170252662707
0.5265208254352258
-1.0480044205148351
0.1342170252662707
0.5265208254352258
-1.0480044205148351
0.1342170252662707
0.5265208254352258
-1.1386333569751907
0.1459283497785059
0.48531919403430485
-1.1386333569751907
0.1459283497785059
0.48531919403430485
-1.1386333569751907
0.1459283497785059
0.48531919403430485
-1.1386333569751907
0.1459283497785059
0.48531919403430485
-1.173252313606638
0.14770293619940192
0.4432415929605359
-1.173252313606638
0.14770293619940192
0.4432415929605359
-1.173252313606638
0.14770293619940192
0.4432415929605359
-1.173252313606638
0.14770293619940192
0.4432415929605359
-1.201889397598718
0.14999682987781487
0.4112584653434367
-1.201889397598718
0.14999682987781487
0.4112584653434367
-1.201889397598718
0.14999682987781487
0.4112584653434367
-1.201889397598718
0.14999682987781487
0.4112584653434367
-1.2355870104239404
0.15132465618229884
0.39291115184901104
-1.2355870104239404
0.15132465618229884
0.39291115184901104
-1.2355870104239404
0.15132465618229884
0.39291115184901104
-1.2355870104239404
0.15132465618229884
0.39291115184901104
-1.2619646998677139
0.14925348358176094
0.38544132530398706
-1.2619646998677139
0.14925348358176094
0.38544132530398706
-1.2619646998677139
0.14925348358176094
0.38544132530398706
-1.2619646998677139
0.14925348358176094
0.38544132530398706
-1.270494112858021
0.14460330375327887
0.3819109716484757
-1.270494112858021
0.14460330375327887
0.3819109716484757
-1.270494112858021
0.14460330375327887
0.3819109716484757
-1.270494112858021
0.14460330375327887
0.3819109716484757
-1.2672353411960013
0.13712123251066818
0.3825993790728424
-1.2672353411960013
0.13712123251066818
0.3825993790728424
-1.2672353411960013
0.13712123251066818
0.3825993790728424
-1.2672353411960013
0.13712123251066818
0.3825993790728424
-1.2595884143410292
0.1328480826528585
0.3869833219523536
-1.2595884143410292
0.1328480826528585
0.3869833219523536
-1.2595884143410292
0.1328480826528585
0.3869833219523536
-1.2595884143410292
0.1328480826528585
0.3869833219523536
-1.2553719234741727
0.13243844601848867
0.39178265302519494
-1.2553719234741727
0.13243844601848867
0.39178265302519494
-1.2553719234741727
0.13243844601848867
0.39178265302519494
-1.2553719234741727
0.13243844601848867
0.39178265302519494
-1.2530121126969567
0.13153430916609474
0.39425143956621067
-1.2530121126969567
0.13153430916609474
0.39425143956621067
-1.2530121126969567
0.13153430916609474
0.39425143956621067
-1.2530121126969567
0.13153430916609474
0.39425143956621067
-1.2503482539618125
0.12869097143534547
0.39376047849734924
-1.2503482539618125
0.12869097143534547
0.39376047849734924
-1.2503482539618125
0.12869097143534547
0.39376047849734924
-1.2503482539618125
0.12869097143534547
0.39376047849734924
-1.2469365644441883
0.12692782408237419
0.3922654770298995
-1.2469365644441883
0.12692782408237419
0.3922654770298995
-1.2469365644441883
0.12692782408237419
0.3922654770298995
-1.2469365644441883
0.12692782408237419
0.3922654770298995
-1.251241031795357
0.12755184162197822
0.39168183025523806
-1.251241031795357
0.12755184162197822
0.39168183025523806
-1.251241031795357
0.12755184162197822
0.39168183025523806
-1.251241031795357
0.12755184162197822
0.39168183025523806
-1.252257299200053
0.1261871523599635
0.39136286465814984
-1.252257299200053
0.1261871523599635
0.39136286465814984
-1.252257299200053
0.1261871523599635
0.39136286465814984
-1.252257299200053
0.1261871523599635
0.39136286465814984
-1.2475353768490263
0.12341595006707305
0.3907956788594972
-1.2475353768490263
0.12341595006707305
0.3907956788594972
-1.2475353768490263
0.12341595006707305
0.3907956788594972
-1.2475353768490263
0.12341595006707305
0.3907956788594972
-1.2416614963592034
0.1217545125704791
0.39149993007403716
-1.2416614963592034
0.1217545125704791
0.39149993007403716
-1.2416614963592034
0.1217545125704791
0.39149993007403716
-1.2416614963592034
0.1217545125704791
0.39149993007403716
-1.2385145010194014
0.12144345999839501
0.39253354231792087
-1.2385145010194014
0.12144345999839501
0.39253354231792087
-1.2385145010194014
0.12144345999839501
0.39253354231792087
-1.2385145010194014
0.12144345999839501
0.39253354231792087
-1.2358570384405976
0.12081643841274389
0.39276059238781125
-1.2358570384405976
0.12081643841274389
0.39276059238781125
-1.2358570384405976
0.12081643841274389
0.39276059238781125
-1.2358570384405976
0.12081643841274389
0.39276059238781125
-1.2328233305453773
0.12044450449813503
0.39262203308460747
-1.2328233305453773
0.12044450449813503
0.39262203308460747
-1.2328233305453773
0.12044450449813503
0.39262203308460747
-1.2328233305453773
0.12044450449813503
0.39262203308460747
-1.2283164882946997
0.1206798995179451
0.3925550235059212
-1.2283164882946997
0.1206798995179451
0.3925550235059212
-1.2283164882946997
0.1206798995179451
0.3925550235059212
-1.2283164882946997
0.1206798995179451
0.3925550235059212
-1.2256072649854082
0.12159600489535309
0.39263612732953534
-1.2256072649854082
0.12159600489535309
0.39263612732953534
-1.2256072649854082
0.12159600489535309
0.39263612732953534
-1.2256072649854082
0.12159600489535309
0.39263612732953534
-1.224838075043762
0.12384139629235093
0.39221537614913354
-1.224838075043762
0.12384139629235093
0.39221537614913354
-1.224838075043762
0.12384139629235093
0.39221537614913354
-1.224838075043762
0.12384139629235093
0.39221537614913354
-1.2238977869722232
0.1256685648534095
0.3914911327138398
-1.2238977869722232
0.1256685648534095
0.3914911327138398
-1.2238977869722232
0.1256685648534095
0.3914911327138398
-1.2238977869722232
0.1256685648534095
0.3914911327138398
-1.2231665348682723
0.127203800127948
0.3911347827904482
-1.2231665348682723
0.127203800127948
0.3911347827904482
-1.2231665348682723
0.127203800127948
0.3911347827904482
-1.2231665348682723
0.127203800127948
0.3911347827904482
-1.222463476172597
0.1288938217927768
0.3909936962373787
-1.222463476172597
0.1288938217927768
0.3909936962373787
-1.222463476172597
0.1288938217927768
0.3909936962373787
-1.222463476172597
0.1288938217927768
0.3909936962373787
-1.2218549721815017
0.13056741562602003
0.39100109433876046
-1.2218549721815017
0.13056741562602003
0.39100109433876046
-1.2218549721815017
0.13056741562602003
0.39100109433876046
-1.2218549721815017
0.13056741562602003
0.39100109433876046
-1.219918929782193
0.13112985246813547
0.39032993902701096
-1.219918929782193
0.13112985246813547
0.39032993902701096
-1.219918929782193
0.13112985246813547
0.39032993902701096
-1.219918929782193
0.13112985246813547
0.39032993902701096
-1.2171654539766816
0.13199370843005617
0.3901468601367386
-1.2171654539766816
0.13199370843005617
0.3901468601367386
-1.2171654539766816
0.13199370843005617
0.3901468601367386
-1.2171654539766816
0.13199370843005617
0.3901468601367386
-1.2147379233904463
0.1330521146132266
0.39077263264128265
-1.2147379233904463
0.1330521146132266
0.39077263264128265
-1.2147379233904463
0.1330521146132266
0.39077263264128265
-1.2147379233904463
0.1330521146132266
0.39077263264128265
-1.211444013167501
0.13304268127691957
0.3914715507393898
-1.211444013167501
0.13304268127691957
0.3914715507393898
-1.211444013167501
0.13304268127691957
0.3914715507393898
-1.211444013167501
0.13304268127691957
0.3914715507393898
-1.2088682319598723
0.13159892551438998
0.39179358031065187
-1.2088682319598723
0.13159892551438998
0.39179358031065187
-1.2088682319598723
0.13159892551438998
0.39179358031065187
-1.2088682319598723
0.13159892551438998
0.39179358031065187
-1.2078514379973797
0.13039808349172585
0.39193307348086154
-1.2078514379973797
0.13039808349172585
0.39193307348086154
-1.2078514379973797
0.13039808349172585
0.39193307348086154
-1.2078514379973797
0.13039808349172585
0.39193307348086154
-1.206234570010253
0.12946113797481215
0.39201961395644724
-1.206234570010253
0.12946113797481215
0.39201961395644724
-1.206234570010253
0.12946113797481215
0.39201961395644724
-1.206234570010253
0.12946113797481215
0.39201961395644724
-1.2038147724092818
0.1279973165873239
0.39161145174699924
-1.2038147724092818
0.1279973165873239
0.39161145174699924
-1.2038147724092818
0.1279973165873239
0.39161145174699924
-1.2038147724092818
0.1279973165873239
0.39161145174699924
-1.2021636945707324
0.12615255188856705
0.39059725514214905
-1.2021636945707324
0.12615255188856705
0.39059725514214905
-1.2021636945707324
0.12615255188856705
0.39059725514214905
-1.2021636945707324
0.12615255188856705
0.39059725514214905
-1.202016365154453
0.12403936276109534
0.39019520928171325
-1.202016365154453
0.12403936276109534
0.39019520928171325
-1.202016365154453
0.12403936276109534
0.39019520928171325
-1.202016365154453
0.12403936276109534
0.39019520928171325
-1.2032256516252788
0.12210102200534087
0.39022659274630916
-1.2032256516252788
0.12210102200534087
0.39022659274630916
-1.2032256516252788
0.12210102200534087
0.39022659274630916
-1.2032256516252788
0.12210102200534087
0.39022659274630916
-1.2028059904972725
0.11990466201690352
0.39001587754507333
-1.2028059904972725
0.11990466201690352
0.39001587754507333
-1.2028059904972725
0.11990466201690352
0.39001587754507333
-1.2028059904972725
0.11990466201690352
0.39001587754507333
-1.2008083963494187
0.11788383483412038
0.39015462804011064
-1.2008083963494187
0.11788383483412038
0.39015462804011064
-1.2008083963494187
0.11788383483412038
0.39015462804011064
-1.2008083963494187
0.11788383483412038
0.39015462804011064
-1.1993499287949696
0.11633665601202164
0.39081091113572203
-1.1993499287949696
0.11633665601202164
0.39081091113572203
-1.1993499287949696
0.11633665601202164
0.39081091113572203
-1.1993499287949696
0.11633665601202164
0.39081091113572203
-1.1989247781119472
0.11565820863993073
0.3921405727439422
-1.1989247781119472
0.11565820863993073
0.3921405727439422
-1.1989247781119472
0.11565820863993073
0.3921405727439422
-1.1989247781119472
0.11565820863993073
0.3921405727439422
-1.198386066171651
0.11564230588667096
0.3931696294936938
-1.198386066171651
0.11564230588667096
0.3931696294936938
-1.198386066171651
0.11564230588667096
0.3931696294936938
-1.198386066171651
0.11564230588667096
0.3931696294936938
-1.1962484452460929
0.11609641347570257
0.3939139769769609
-1.1962484452460929
0.11609641347570257
0.3939139769769609
-1.1962484452460929
0.11609641347570257
0.3939139769769609
-1.1962484452460929
0.11609641347570257
0.3939139769769609
-1.1944560789286258
0.11691548461713436
0.3939839659316819
-1.1944560789286258
0.11691548461713436
0.3939839659316819
-1.1944560789286258
0.11691548461713436
0.3939839659316819
-1.1944560789286258
0.11691548461713436
0.3939839659316819
-1.1926803935827928
0.11859900258373228
0.3937878024688286
-1.1926803935827928
0.11859900258373228
0.3937878024688286
-1.1926803935827928
0.11859900258373228
0.3937878024688286
-1.1926803935827928
0.11859900258373228
0.3937878024688286
-1.191470636212676
0.12071844207179655
0.39424896102066215
-1.191470636212676
0.12071844207179655
0.39424896102066215
-1.191470636212676
0.12071844207179655
0.39424896102066215
-1.191470636212676
0.12071844207179655
0.39424896102066215
-1.1901951958477837
0.12227163499816363
0.39478066681471036
-1.1901951958477837
0.12227163499816363
0.39478066681471036
-1.1901951958477837
0.12227163499816363
0.39478066681471036
-1.1901951958477837
0.12227163499816363
0.39478066681471036
-1.1887716117258902
0.12372326327764184
0.3952177804834558
-1.1887716117258902
0.12372326327764184
0.3952177804834558
-1.1887716117258902
0.12372326327764184
0.3952177804834558
-1.1887716117258902
0.12372326327764184
0.3952177804834558
-1.1864275809846605
0.12526717054396344
0.3956809344351398
-1.1864275809846605
0.12526717054396344
0.3956809344351398
-1.1864275809846605
0.12526717054396344
0.3956809344351398
-1.1864275809846605
0.12526717054396344
0.3956809344351398
-1.184120080463456
0.12722547600680123
0.395864294064237
-1.184120080463456
0.12722547600680123
0.395864294064237
-1.184120080463456
0.12722547600680123
0.395864294064237
-1.184120080463456
0.12722547600680123
0.395864294064237
-1.1837215749014574
0.12905223482888087
0.39584947622208927
-1.1837215749014574
0.12905223482888087
0.39584947622208927
-1.1837215749014574
0.12905223482888087
0.39584947622208927
-1.1837215749014574
0.12905223482888087
0.39584947622208927
-1.1834282284949373
0.13092931653387316
0.3956486160122551
-1.1834282284949373
0.13092931653387316
0.3956486160122551
-1.1834282284949373
0.13092931653387316
0.3956486160122551
-1.1834282284949373
0.13092931653387316
0.3956486160122551
-1.1834982029240253
0.1326568979289059
0.3950852357208569
-1.1834982029240253
0.1326568979289059
0.3950852357208569
-1.1834982029240253
0.1326568979289059
0.3950852357208569
-1.1834982029240253
0.1326568979289059
0.3950852357208569
-1.1839639674274154
0.13444017052150328
0.39469452758136836
-1.1839639674274154
0.13444017052150328
0.39469452758136836
-1.1839639674274154
0.13444017052150328
0.39469452758136836
-1.1839639674274154
0.13444017052150328
0.39469452758136836
-1.183535348482338
0.13628630805654626
0.3940642241221215
-1.183535348482338
0.13628630805654626
0.3940642241221215
-1.183535348482338
0.13628630805654626
0.3940642241221215
-1.183535348482338
0.13628630805654626
0.3940642241221215
-1.1826593871376132
0.1368302458589857
0.3936429986212803
-1.1826593871376132
0.1368302458589857
0.3936429986212803
-1.1826593871376132
0.1368302458589857
0.3936429986212803
-1.1826593871376132
0.1368302458589857
0.3936429986212803
-1.181977275184984
0.13606252311665268
0.3931929309158644
-1.181977275184984
0.13606252311665268
0.3931929309158644
-1.181977275184984
0.13606252311665268
0.3931929309158644
-1.181977275184984
0.13606252311665268
0.3931929309158644
-1.1818111941920253
0.13491513714459075
0.3928749170014364
-1.1818111941920253
0.13491513714459075
0.3928749170014364
-1.1818111941920253
0.13491513714459075
0.3928749170014364
-1.1818111941920253
0.13491513714459075
0.3928749170014364
-1.1814240790107615
0.13287099168612396
0.39286009759622864
-1.1814240790107615
0.13287099168612396
0.39286009759622864
-1.1814240790107615
0.13287099168612396
0.39286009759622864
-1.1814240790107615
0.13287099168612396
0.39286009759622864
-1.1798552261349629
0.13013463754309157
0.39289010117989404
-1.1798552261349629
0.13013463754309157
0.39289010117989404
-1.1798552261349629
0.13013463754309157
0.39289010117989404
-1.1798552261349629
0.13013463754309157
0.39289010117989404
-1.1791400582521399
0.12766989756549102
0.39279438727203114
-1.1791400582521399
0.12766989756549102
0.39279438727203114
-1.1791400582521399
0.12766989756549102
0.39279438727203114
-1.1791400582521399
0.12766989756549102
0.39279438727203114
-1.1788227976330492
0.1258414376085337
0.3926244118986116
-1.1788227976330492
0.1258414376085337
0.3926244118986116
-1.1788227976330492
0.1258414376085337
0.3926244118986116
-1.1788227976330492
0.1258414376085337
0.3926244118986116
-1.1781758154020006
0.12397802201309384
0.3922948050200729
-1.1781758154020006
0.12397802201309384
0.3922948050200729
-1.1781758154020006
0.12397802201309384
0.3922948050200729
-1.1781758154020006
0.12397802201309384
0.3922948050200729
-1.177800504084347
0.12165369268821494
0.39185464252790664
-1.177800504084347
0.12165369268821494
0.39185464252790664
-1.177800504084347
0.12165369268821494
0.39185464252790664
-1.177800504084347
0.12165369268821494
0.39185464252790664
-1.1783966846262424
0.11955084534186282
0.3911758019101979
-1.1783966846262424
0.11955084534186282
0.3911758019101979
-1.1783966846262424
0.11955084534186282
0.3911758019101979
-1.1783966846262424
0.11955084534186282
0.3911758019101979
-1.1790063272907552
0.11789433599121338
0.39048366396163214
-1.1790063272907552
0.11789433599121338
0.39048366396163214
-1.1790063272907552
0.11789433599121338
0.39048366396163214
-1.1790063272907552
0.11789433599121338
0.39048366396163214
-1.1803408411387468
0.11676159028112298
0.38923014577760745
-1.1803408411387468
0.11676159028112298
0.38923014577760745
-1.1803408411387468
0.11676159028112298
0.38923014577760745
-1.1803408411387468
0.11676159028112298
0.38923014577760745
-1.1816629788390616
0.11738616484895172
0.3881533562008645
-1.1816629788390616
0.11738616484895172
0.3881533562008645
-1.1816629788390616
0.11738616484895172
0.3881533562008645
-1.1816629788390616
0.11738616484895172
0.3881533562008645
-1.1817079252306646
0.12028080185914801
0.38713097620439446
-1.1817079252306646
0.12028080185914801
0.38713097620439446
-1.1817079252306646
0.12028080185914801
0.38713097620439446
-1.1817079252306646
0.12028080185914801
0.38713097620439446
-1.1814331014659045
0.1266467956345981
0.38651665736783586
-1.1814331014659045
0.1266467956345981
0.38651665736783586
-1.1814331014659045
0.1266467956345981
0.38651665736783586
-1.1814331014659045
0.1266467956345981
0.38651665736783586
-1.1791064237152875
0.13583226293106823
0.3861816140503525
-1.1791064237152875
0.13583226293106823
0.3861816140503525
-1.1791064237152875
0.13583226293106823
0.3861816140503525
-1.1791064237152875
0.13583226293106823
0.3861816140503525
-1.177180841433544
0.1474820833833542
0.3856364827607111
-1.177180841433544
0.1474820833833542
0.3856364827607111
-1.177180841433544
0.1474820833833542
0.3856364827607111
-1.177180841433544
0.1474820833833542
0.3856364827607111
-1.1750786776967361
0.16269583542527633
0.3847476666255103
-1.1750786776967361
0.16269583542527633
0.3847476666255103
-1.1750786776967361
0.16269583542527633
0.3847476666255103
-1.1750786776967361
0.16269583542527633
0.3847476666255103
-1.1684911864097383
0.18083688903505435
0.3844250588781523
-1.1684911864097383
0.18083688903505435
0.3844250588781523
-1.1684911864097383
0.18083688903505435
0.3844250588781523
-1.1684911864097383
0.18083688903505435
0.3844250588781523
-1.1541461990683342
0.19895939437329835
0.38541499294970716
-1.1541461990683342
0.19895939437329835
0.38541499294970716
-1.1541461990683342
0.19895939437329835
0.38541499294970716
-1.1541461990683342
0.19895939437329835
0.38541499294970716
-1.1311302032050732
0.21646378078835296
0.38922636979795766
-1.1311302032050732
0.21646378078835296
0.38922636979795766
-1.1311302032050732
0.21646378078835296
0.38922636979795766
-1.1311302032050732
0.21646378078835296
0.38922636979795766
-1.0991872071483946
0.23162151998913683
0.3963933733141414
-1.0991872071483946
0.23162151998913683
0.3963933733141414
-1.0991872071483946
0.23162151998913683
0.3963933733141414
-1.0991872071483946
0.23162151998913683
0.3963933733141414
-1.0633655218759497
0.2452822077091776
0.4067329749654867
-1.0633655218759497
0.2452822077091776
0.4067329749654867
-1.0633655218759497
0.2452822077091776
0.4067329749654867
-1.0633655218759497
0.2452822077091776
0.4067329749654867
-1.0259852958161308
0.25698200764038776
0.4194060951273183
-1.0259852958161308
0.25698200764038776
0.4194060951273183
-1.0259852958161308
0.25698200764038776
0.4194060951273183
-1.0259852958161308
0.25698200764038776
0.4194060951273183
-0.9890870394396177
0.26643606271880393
0.4315109682349271
-0.9890870394396177
0.26643606271880393
0.4315109682349271
-0.9890870394396177
0.26643606271880393
0.4315109682349271
-0.9890870394396177
0.26643606271880393
0.4315109682349271
-0.9548761765027852
0.27458664146522105
0.44313986790723825
-0.9548761765027852
0.27458664146522105
0.44313986790723825
-0.9548761765027852
0.27458664146522105
0.44313986790723825
-0.9548761765027852
0.27458664146522105
0.44313986790723825
-0.9242622408408416
0.2806755775011651
0.4569022328334645
-0.9242622408408416
0.2806755775011651
0.4569022328334645
-0.9242622408408416
0.2806755775011651
0.4569022328334645
-0.9242622408408416
0.2806755775011651
0.4569022328334645
-0.8907575013052692
0.28324949629874313
0.47210628109333114
-0.8907575013052692
0.28324949629874313
0.47210628109333114
-0.8907575013052692
0.28324949629874313
0.47210628109333114
-0.8907575013052692
0.28324949629874313
0.47210628109333114
-0.8514390261079816
0.283144872534152
0.48823372779626373
-0.8514390261079816
0.283144872534152
0.48823372779626373
-0.8514390261079816
0.283144872534152
0.48823372779626373
-0.8514390261079816
0.283144872534152
0.48823372779626373
-0.8108217053308144
0.27959428802599867
0.5040615548045485
-0.8108217053308144
0.27959428802599867
0.5040615548045485
-0.8108217053308144
0.27959428802599867
0.5040615548045485
-0.8108217053308144
0.27959428802599867
0.5040615548045485
-0.7730653852547843
0.27242627655127405
0.518227834134667
-0.7730653852547843
0.27242627655127405
0.518227834134667
-0.7730653852547843
0.27242627655127405
0.518227834134667
-0.7730653852547843
0.27242627655127405
0.518227834134667
-0.7402683310422958
0.26344089007826027
0.5300984106759745
-0.7402683310422958
0.26344089007826027
0.5300984106759745
-0.7402683310422958
0.26344089007826027
0.5300984106759745
-0.7402683310422958
0.26344089007826027
0.5300984106759745
-0.7136392124371792
0.2527443839750859
0.5411760526373206
-0.7136392124371792
0.2527443839750859
0.5411760526373206
-0.7136392124371792
0.2527443839750859
0.5411760526373206
-0.7136392124371792
0.2527443839750859
0.5411760526373206
-0.6934282643626921
0.23981594816518137
0.5531040449566514
-0.6934282643626921
0.23981594816518137
0.5531040449566514
-0.6934282643626921
0.23981594816518137
0.5531040449566514
-0.6934282643626921
0.23981594816518137
0.5531040449566514
-0.6757003591514903
0.22531737832561177
0.5659403921983766
-0.6757003591514903
0.22531737832561177
0.5659403921983766
-0.6757003591514903
0.22531737832561177
0.5659403921983766
-0.6757003591514903
0.22531737832561177
0.5659403921983766
-0.6584496564803137
0.20751748388778282
0.5789741043882319
-0.6584496564803137
0.20751748388778282
0.5789741043882319
-0.6584496564803137
0.20751748388778282
0.5789741043882319
-0.6584496564803137
0.20751748388778282
0.5789741043882319
-0.6416019346135641
0.18712983859581553
0.5897762228930553
-0.6416019346135641
0.18712983859581553
0.5897762228930553
-0.6416019346135641
0.18712983859581553
0.5897762228930553
-0.6416019346135641
0.18712983859581553
0.5897762228930553
-0.621159253891894
0.16617318992898372
0.5973747134175891
-0.621159253891894
0.16617318992898372
0.5973747134175891
-0.621159253891894
0.16617318992898372
0.5973747134175891
-0.621159253891894
0.16617318992898372
0.5973747134175891
-0.599900947133752
0.14575186821735475
0.6028056189758364
-0.599900947133752
0.14575186821735475
0.6028056189758364
-0.599900947133752
0.14575186821735475
0.6028056189758364
-0.599900947133752
0.14575186821735475
0.6028056189758364
-0.5835819515379164
0.12646487749174323
0.6076095254992259
-0.5835819515379164
0.12646487749174323
0.6076095254992259
-0.5835819515379164
0.12646487749174323
0.6076095254992259
-0.5835819515379164
0.12646487749174323
0.6076095254992259
-0.573338593327129
0.10853916347010856
0.6121209835543673
-0.573338593327129
0.10853916347010856
0.6121209835543673
-0.573338593327129
0.10853916347010856
0.6121209835543673
-0.573338593327129
0.10853916347010856
0.6121209835543673
-0.5686205634401736
0.0929029727045597
0.616938298561972
-0.5686205634401736
0.0929029727045597
0.616938298561972
-0.5686205634401736
0.0929029727045597
0.616938298561972
-0.5686205634401736
0.0929029727045597
0.616938298561972
-0.5696451500942501
0.07996993962201772
0.6214443980117677
-0.5696451500942501
0.07996993962201772
0.6214443980117677
-0.5696451500942501
0.07996993962201772
0.6214443980117677
-0.5696451500942501
0.07996993962201772
0.6214443980117677
-0.5753432268153541
0.07036461914308684
0.6239627865505288
-0.5753432268153541
0.07036461914308684
0.6239627865505288
-0.5753432268153541
0.07036461914308684
0.6239627865505288
-0.5753432268153541
0.07036461914308684
0.6239627865505288
-0.5823245129396926
0.0640275184432183
0.6244687031013859
-0.5823245129396926
0.0640275184432183
0.6244687031013859
-0.5823245129396926
0.0640275184432183
0.6244687031013859
-0.5823245129396926
0.0640275184432183
0.6244687031013859
-0.5870556802017386
0.06040928357003611
0.6237037599974954
-0.5870556802017386
0.06040928357003611
0.6237037599974954
-0.5870556802017386
0.06040928357003611
0.6237037599974954
-0.5870556802017386
0.06040928357003611
0.6237037599974954
-0.5882599154735855
0.058894242862368676
0.623114500111821
-0.5882599154735855
0.058894242862368676
0.623114500111821
-0.5882599154735855
0.058894242862368676
0.623114500111821
-0.5882599154735855
0.058894242862368676
0.623114500111821
-0.5866638905557536
0.05806240144731953
0.6230143750642937
-0.5866638905557536
0.05806240144731953
0.6230143750642937
-0.5866638905557536
0.05806240144731953
0.6230143750642937
-0.5866638905557536
0.05806240144731953
0.6230143750642937
-0.5843577855976148
0.05776468369042019
0.623218374589223
-0.5843577855976148
0.05776468369042019
0.623218374589223
-0.5843577855976148
0.05776468369042019
0.623218374589223
-0.5843577855976148
0.05776468369042019
0.623218374589223
-0.583336175303611
0.05763409333418782
0.6234515343572197
-0.583336175303611
0.05763409333418782
0.6234515343572197
-0.583336175303611
0.05763409333418782
0.6234515343572197
-0.583336175303611
0.05763409333418782
0.6234515343572197
-0.5831570991745901
0.057696791832317615
0.6233981778209091
-0.5831570991745901
0.057696791832317615
0.6233981778209091
-0.5831570991745901
0.057696791832317615
0.6233981778209091
-0.5831570991745901
0.057696791832317615
0.6233981778209091
-0.5834243136062669
0.05781240515977019
0.6239193763259511
-0.5834243136062669
0.05781240515977019
0.6239193763259511
-0.5834243136062669
0.05781240515977019
0.6239193763259511
-0.5834243136062669
0.05781240515977019
0.6239193763259511
-0.5833962258916161
0.05829343045265036
0.6237757167203208
-0.5833962258916161
0.05829343045265036
0.6237757167203208
-0.5833962258916161
0.05829343045265036
0.6237757167203208
-0.5833962258916161
0.05829343045265036
0.6237757167203208
-0.5828611732527487
0.05951848054146715
0.6231427707986518
-0.5828611732527487
0.05951848054146715
0.6231427707986518
-0.5828611732527487
0.05951848054146715
0.6231427707986518
-0.5828611732527487
0.05951848054146715
0.6231427707986518
-0.5827171396456592
0.06274232317987317
0.6220588077235772
-0.5827171396456592
0.06274232317987317
0.6220588077235772
-0.5827171396456592
0.06274232317987317
0.6220588077235772
-0.5827171396456592
0.06274232317987317
0.6220588077235772
-0.583910911609375
0.06765653109792709
0.6207002880030885
-0.583910911609375
0.06765653109792709
0.6207002880030885
-0.583910911609375
0.06765653109792709
0.6207002880030885
-0.583910911609375
0.06765653109792709
0.6207002880030885
-0.5852052225200464
0.07401344574183652
0.6195817923459719
-0.5852052225200464
0.07401344574183652
0.6195817923459719
-0.5852052225200464
0.07401344574183652
0.6195817923459719
-0.5852052225200464
0.07401344574183652
0.6195817923459719
-0.5881505531965456
0.08212282073391802
0.6180922508489871
-0.5881505531965456
0.08212282073391802
0.6180922508489871
-0.5881505531965456
0.08212282073391802
0.6180922508489871
-0.5881505531965456
0.08212282073391802
0.6180922508489871
-0.5946469160839637
0.09245489622923125
0.6152753087750384
-0.5946469160839637
0.09245489622923125
0.6152753087750384
-0.5946469160839637
0.09245489622923125
0.6152753087750384
-0.5946469160839637
0.09245489622923125
0.6152753087750384
-0.6039841110490661
0.10410662869763179
0.6112052273171118
-0.6039841110490661
0.10410662869763179
0.6112052273171118
-0.6039841110490661
0.10410662869763179
0.6112052273171118
-0.6039841110490661
0.10410662869763179
0.6112052273171118
-0.6178218714055278
0.1159418498032358
0.6061390030564558
-0.6178218714055278
0.1159418498032358
0.6061390030564558
-0.6178218714055278
0.1159418498032358
0.6061390030564558
-0.6178218714055278
0.1159418498032358
0.6061390030564558
-0.6349201428130342
0.12790719739895456
0.5996319941670369
-0.6349201428130342
0.12790719739895456
0.5996319941670369
-0.6349201428130342
0.12790719739895456
0.5996319941670369
-0.6349201428130342
0.12790719739895456
0.5996319941670369
-0.654257573918008
0.14008437614166888
0.5922629538364793
-0.654257573918008
0.14008437614166888
0.5922629538364793
-0.654257573918008
0.14008437614166888
0.5922629538364793
-0.654257573918008
0.14008437614166888
0.5922629538364793
-0.6748721030147473
0.15158151980395684
0.5832976655489215
-0.6748721030147473
0.15158151980395684
0.5832976655489215
-0.6748721030147473
0.15158151980395684
0.5832976655489215
-0.6748721030147473
0.15158151980395684
0.5832976655489215
-0.6982854417135245
0.16201574515134062
0.5734478217216098
-0.6982854417135245
0.16201574515134062
0.5734478217216098
-0.6982854417135245
0.16201574515134062
0.5734478217216098
-0.6982854417135245
0.16201574515134062
0.5734478217216098
-0.7224052720943265
0.17076403864182602
0.5633329514387899
-0.7224052720943265
0.17076403864182602
0.5633329514387899
-0.7224052720943265
0.17076403864182602
0.5633329514387899
-0.7224052720943265
0.17076403864182602
0.5633329514387899
-0.7457739505662646
0.17750777898308695
0.5520316730848464
-0.7457739505662646
0.17750777898308695
0.5520316730848464
-0.7457739505662646
0.17750777898308695
0.5520316730848464
-0.7457739505662646
0.17750777898308695
0.5520316730848464
-0.7709970513151025
0.1813968418485562
0.5399146768652758
-0.7709970513151025
0.1813968418485562
0.5399146768652758
-0.7709970513151025
0.1813968418485562
0.5399146768652758
-0.7709970513151025
0.1813968418485562
0.5399146768652758
-0.7979346787139071
0.18311474517125803
0.5275783027391056
-0.7979346787139071
0.18311474517125803
0.5275783027391056
-0.7979346787139071
0.18311474517125803
0.5275783027391056
-0.7979346787139071
0.18311474517125803
0.5275783027391056
-0.8301731836052884
0.18275409979311785
0.5151173054890468
-0.8301731836052884
0.18275409979311785
0.5151173054890468
-0.8301731836052884
0.18275409979311785
0.5151173054890468
-0.8301731836052884
0.18275409979311785
0.5151173054890468
-0.8720665197221787
0.18149281140569037
0.5011552569073867
-0.8720665197221787
0.18149281140569037
0.5011552569073867
-0.8720665197221787
0.18149281140569037
0.5011552569073867
-0.8720665197221787
0.18149281140569037
0.5011552569073867
-0.9199552470566597
0.17842553437331693
0.4844859542643396
-0.9199552470566597
0.17842553437331693
0.4844859542643396
-0.9199552470566597
0.17842553437331693
0.4844859542643396
-0.9199552470566597
0.17842553437331693
0.4844859542643396
-0.973506894210906
0.17433591369750043
0.46827672310186746
-0.973506894210906
0.17433591369750043
0.46827672310186746
-0.973506894210906
0.17433591369750043
0.46827672310186746
-0.973506894210906
0.17433591369750043
0.46827672310186746
-1.0283231569388127
0.17019465573714493
0.45264508296312356
-1.0283231569388127
0.17019465573714493
0.45264508296312356
-1.0283231569388127
0.17019465573714493
0.45264508296312356
-1.0283231569388127
0.17019465573714493
0.45264508296312356
-1.076307637866999
0.1644902980402548
0.43631018744951805
-1.076307637866999
0.1644902980402548
0.43631018744951805
-1.076307637866999
0.1644902980402548
0.43631018744951805
-1.076307637866999
0.1644902980402548
0.43631018744951805
-1.0969258034973248
0.1556069525429527
0.4194086554408671
-1.0969258034973248
0.1556069525429527
0.4194086554408671
-1.0969258034973248
0.1556069525429527
0.4194086554408671
-1.0969258034973248
0.1556069525429527
0.4194086554408671
-1.1086595621161073
0.14567549584907313
0.4036503153703615
-1.1086595621161073
0.14567549584907313
0.4036503153703615
-1.1086595621161073
0.14567549584907313
0.4036503153703615
-1.1086595621161073
0.14567549584907313
0.4036503153703615
-1.1220839087090395
0.1344830776242377
0.39139991336557617
-1.1220839087090395
0.1344830776242377
0.39139991336557617
-1.1220839087090395
0.1344830776242377
0.39139991336557617
-1.1220839087090395
0.1344830776242377
0.39139991336557617
-1.1355667217192016
0.12301319902846486
0.38316949242571896
-1.1355667217192016
0.12301319902846486
0.38316949242571896
-1.1355667217192016
0.12301319902846486
0.38316949242571896
-1.1355667217192016
0.12301319902846486
0.38316949242571896
-1.1493876868481427
0.11469696931341887
0.37905318056381576
-1.1493876868481427
0.11469696931341887
0.37905318056381576
-1.1493876868481427
0.11469696931341887
0.37905318056381576
-1.1493876868481427
0.11469696931341887
0.37905318056381576
-1.1574354327234115
0.10995374497432735
0.37804393437845324
-1.1574354327234115
0.10995374497432735
0.37804393437845324
-1.1574354327234115
0.10995374497432735
0.37804393437845324
-1.1574354327234115
0.10995374497432735
0.37804393437845324
-1.1577839795305587
0.10725886618482151
0.3792118242691044
-1.1577839795305587
0.10725886618482151
0.3792118242691044
-1.1577839795305587
0.10725886618482151
0.3792118242691044
-1.1577839795305587
0.10725886618482151
0.3792118242691044
-1.1521955383087656
0.10591182538532243
0.38133088318653996
-1.1521955383087656
0.10591182538532243
0.38133088318653996
-1.1521955383087656
0.10591182538532243
0.38133088318653996
-1.1521955383087656
0.10591182538532243
0.38133088318653996
-1.1446516168352916
0.10717644083969816
0.3833989940596785
-1.1446516168352916
0.10717644083969816
0.3833989940596785
-1.1446516168352916
0.10717644083969816
0.3833989940596785
-1.1446516168352916
0.10717644083969816
0.3833989940596785
-1.1444311738908388
0.11216893778117905
0.38527056052478353
-1.1444311738908388
0.11216893778117905
0.38527056052478353
-1.1444311738908388
0.11216893778117905
0.38527056052478353
-1.1444311738908388
0.11216893778117905
0.38527056052478353
-1.145462137009802
0.11824604216043684
0.3856562084453639
-1.145462137009802
0.11824604216043684
0.3856562084453639
-1.145462137009802
0.11824604216043684
0.3856562084453639
-1.145462137009802
0.11824604216043684
0.3856562084453639
-1.1483283624708105
0.12250201186734812
0.385065536612404
-1.1483283624708105
0.12250201186734812
0.385065536612404
-1.1483283624708105
0.12250201186734812
0.385065536612404
-1.1483283624708105
0.12250201186734812
0.385065536612404
-1.1509218923547715
0.12515035376698
0.38503872286758345
-1.1509218923547715
0.12515035376698
0.38503872286758345
-1.1509218923547715
0.12515035376698
0.38503872286758345
-1.1509218923547715
0.12515035376698
0.38503872286758345
-1.1499223857949672
0.12882646320223412
0.3856073812688679
-1.1499223857949672
0.12882646320223412
0.3856073812688679
-1.1499223857949672
0.12882646320223412
0.3856073812688679
-1.1499223857949672
0.12882646320223412
0.3856073812688679
-1.1455813947988966
0.13351174581534528
0.38758757970408
-1.1455813947988966
0.13351174581534528
0.38758757970408
-1.1455813947988966
0.13351174581534528
0.38758757970408
-1.1455813947988966
0.13351174581534528
0.38758757970408
-1.141665097788599
0.13751041932743568
0.3901935108115141
-1.141665097788599
0.13751041932743568
0.3901935108115141
-1.141665097788599
0.13751041932743568
0.3901935108115141
-1.141665097788599
0.13751041932743568
0.3901935108115141
-1.140272385274899
0.1408247342884923
0.3930975335266547
-1.140272385274899
0.1408247342884923
0.3930975335266547
-1.140272385274899
0.1408247342884923
0.3930975335266547
-1.140272385274899
0.1408247342884923
0.3930975335266547
-1.1404739484679736
0.1433170251303095
0.3952779155725189
-1.1404739484679736
0.1433170251303095
0.3952779155725189
-1.1404739484679736
0.1433170251303095
0.3952779155725189
-1.1404739484679736
0.1433170251303095
0.3952779155725189
-1.1385776354298298
0.1452902400738094
0.3963166297914179
-1.1385776354298298
0.1452902400738094
0.3963166297914179
-1.1385776354298298
0.1452902400738094
0.3963166297914179
-1.1385776354298298
0.1452902400738094
0.3963166297914179
-1.134196351730344
0.1465215707322531
0.39692775981970707
-1.134196351730344
0.1465215707322531
0.39692775981970707
-1.134196351730344
0.1465215707322531
0.39692775981970707
-1.134196351730344
0.1465215707322531
0.39692775981970707
-1.1316595165474856
0.14664423023262416
0.3967238144805544
-1.1316595165474856
0.14664423023262416
0.3967238144805544
-1.1316595165474856
0.14664423023262416
0.3967238144805544
-1.1316595165474856
0.14664423023262416
0.3967238144805544
-1.1326715341491946
0.14552686119269506
0.3964187892508659
-1.1326715341491946
0.14552686119269506
0.3964187892508659
-1.1326715341491946
0.14552686119269506
0.3964187892508659
-1.1326715341491946
0.14552686119269506
0.3964187892508659
-1.135509202566182
0.14297545116883553
0.3968458527741182
-1.135509202566182
0.14297545116883553
0.3968458527741182
-1.135509202566182
0.14297545116883553
0.3968458527741182
-1.135509202566182
0.14297545116883553
0.3968458527741182
-1.1363204154789486
0.14008759986557406
0.3975224525951831
-1.1363204154789486
0.14008759986557406
0.3975224525951831
-1.1363204154789486
0.14008759986557406
0.3975224525951831
-1.1363204154789486
0.14008759986557406
0.3975224525951831
-1.1357870339146479
0.13685527180773072
0.3981668802680846
-1.1357870339146479
0.13685527180773072
0.3981668802680846
-1.1357870339146479
0.13685527180773072
0.3981668802680846
-1.1357870339146479
0.13685527180773072
0.3981668802680846
-1.1326860891667139
0.13335907601619754
0.398696085416528
-1.1326860891667139
0.13335907601619754
0.398696085416528
-1.1326860891667139
0.13335907601619754
0.398696085416528
-1.1326860891667139
0.13335907601619754
0.398696085416528
-1.132288698549433
0.13091251007462773
0.39913464540292876
-1.132288698549433
0.13091251007462773
0.39913464540292876
-1.132288698549433
0.13091251007462773
0.39913464540292876
-1.132288698549433
0.13091251007462773
0.39913464540292876
-1.133887545819695
0.12791309339745144
0.39935222043401153
-1.133887545819695
0.12791309339745144
0.39935222043401153
-1.133887545819695
0.12791309339745144
0.39935222043401153
-1.133887545819695
0.12791309339745144
0.39935222043401153
-1.1343713524656505
0.12461564875217179
0.39905908027484027
-1.1343713524656505
0.12461564875217179
0.39905908027484027
-1.1343713524656505
0.12461564875217179
0.39905908027484027
-1.1343713524656505
0.12461564875217179
0.39905908027484027
-1.1341303228451813
0.12166680851929565
0.3986793772758873
-1.1341303228451813
0.12166680851929565
0.3986793772758873
-1.1341303228451813
0.12166680851929565
0.3986793772758873
-1.1341303228451813
0.12166680851929565
0.3986793772758873
-1.1355207441459927
0.11917462173763545
0.39839083981603846
-1.1355207441459927
0.11917462173763545
0.39839083981603846
-1.1355207441459927
0.11917462173763545
0.39839083981603846
-1.1355207441459927
0.11917462173763545
0.39839083981603846
-1.137908033051981
0.11765147114240114
0.3983456060905194
-1.137908033051981
0.11765147114240114
0.3983456060905194
-1.137908033051981
0.11765147114240114
0.3983456060905194
-1.137908033051981
0.11765147114240114
0.3983456060905194
-1.135212877655101
0.11676243882571198
0.39841300822744813
-1.135212877655101
0.11676243882571198
0.39841300822744813
-1.135212877655101
0.11676243882571198
0.39841300822744813
-1.135212877655101
0.11676243882571198
0.39841300822744813
-1.132028514679924
0.11656820355348495
0.39906065868535745
-1.132028514679924
0.11656820355348495
0.39906065868535745
-1.132028514679924
0.11656820355348495
0.39906065868535745
-1.132028514679924
0.11656820355348495
0.39906065868535745
-1.1310361763917944
0.1163615191703736
0.39955963239479303
-1.1310361763917944
0.1163615191703736
0.39955963239479303
-1.1310361763917944
0.1163615191703736
0.39955963239479303
-1.1310361763917944
0.1163615191703736
0.39955963239479303
-1.131961115251637
0.11706577777571925
0.3996277522319338
-1.131961115251637
0.11706577777571925
0.3996277522319338
-1.131961115251637
0.11706577777571925
0.3996277522319338
-1.131961115251637
0.11706577777571925
0.3996277522319338
-1.1336716932383744
0.1184917793110587
0.3991653598875963
-1.1336716932383744
0.1184917793110587
0.3991653598875963
-1.1336716932383744
0.1184917793110587
0.3991653598875963
-1.1336716932383744
0.1184917793110587
0.3991653598875963
-1.1337645436513843
0.1198998861049254
0.39811856913368393
-1.1337645436513843
0.1198998861049254
0.39811856913368393
-1.1337645436513843
0.1198998861049254
0.39811856913368393
-1.1337645436513843
0.1198998861049254
0.39811856913368393
-1.1328397719452559
0.1214217547650576
0.39694962327633343
-1.1328397719452559
0.1214217547650576
0.39694962327633343
-1.1328397719452559
0.1214217547650576
0.39694962327633343
-1.1328397719452559
0.1214217547650576
0.39694962327633343
-1.1330686498587799
0.12319876064244652
0.3964284032318097
-1.1330686498587799
0.12319876064244652
0.3964284032318097
-1.1330686498587799
0.12319876064244652
0.3964284032318097
-1.1330686498587799
0.12319876064244652
0.3964284032318097
-1.1333138772869409
0.12488148145027128
0.3964558839705949
-1.1333138772869409
0.12488148145027128
0.3964558839705949
-1.1333138772869409
0.12488148145027128
0.3964558839705949
-1.1333138772869409
0.12488148145027128
0.3964558839705949
-1.1340728889335283
0.12669180322483317
0.3967060018372145
-1.1340728889335283
0.12669180322483317
0.3967060018372145
-1.1340728889335283
0.12669180322483317
0.3967060018372145
-1.1340728889335283
0.12669180322483317
0.3967060018372145
-1.1346838301542326
0.12823455916452078
0.396366480003499
-1.1346838301542326
0.12823455916452078
0.396366480003499
-1.1346838301542326
0.12823455916452078
0.396366480003499
-1.1346838301542326
0.12823455916452078
0.396366480003499
-1.1348094218285851
0.12995609798552585
0.3960279631370972
-1.1348094218285851
0.12995609798552585
0.3960279631370972
-1.1348094218285851
0.12995609798552585
0.3960279631370972
-1.1348094218285851
0.12995609798552585
0.3960279631370972
-1.1346249002410125
0.1309958444263601
0.39566221045958166
-1.1346249002410125
0.1309958444263601
0.39566221045958166
-1.1346249002410125
0.1309958444263601
0.39566221045958166
-1.1346249002410125
0.1309958444263601
0.39566221045958166
-1.1336599834344903
0.13143162759130847
0.39533539286406777
-1.1336599834344903
0.13143162759130847
0.39533539286406777
-1.1336599834344903
0.13143162759130847
0.39533539286406777
-1.1336599834344903
0.13143162759130847
0.39533539286406777
-1.133189209195796
0.1313402165042378
0.3949118671954238
-1.133189209195796
0.1313402165042378
0.3949118671954238
-1.133189209195796
0.1313402165042378
0.3949118671954238
-1.133189209195796
0.1313402165042378
0.3949118671954238
-1.1332249115658946
0.13117581365559358
0.39487269951083476
-1.1332249115658946
0.13117581365559358
0.39487269951083476
-1.1332249115658946
0.13117581365559358
0.39487269951083476
-1.1332249115658946
0.13117581365559358
0.39487269951083476
-1.1333895180557796
0.13019852936394857
0.3953402387120892
-1.1333895180557796
0.13019852936394857
0.3953402387120892
-1.1333895180557796
0.13019852936394857
0.3953402387120892
-1.1333895180557796
0.13019852936394857
0.3953402387120892
-1.132180996249394
0.12857245316353838
0.39554306698475183
-1.132180996249394
0.12857245316353838
0.39554306698475183
-1.132180996249394
0.12857245316353838
0.39554306698475183
-1.132180996249394
0.12857245316353838
0.39554306698475183
-1.1324762869112235
0.12707786492454592
0.39562450567538304
-1.1324762869112235
0.12707786492454592
0.39562450567538304
-1.1338605808598008
0.125687738854268
0.3956801538739559
-1.1338605808598008
0.125687738854268
0.3956801538739559
-1.1338605808598008
0.125687738854268
0.3956801538739559
-1.1338605808598008
0.125687738854268
0.3956801538739559
-1.1338605808598008
0.125687738854268
0.3956801538739559
-1.1338605808598008
0.125687738854268
0.3956801538739559
-1.134222673524528
0.12437380037446849
0.3957829256176716
-1.134222673524528
0.12437380037446849
0.3957829256176716
-1.134222673524528
0.12437380037446849
0.3957829256176716
-1.134222673524528
0.12437380037446849
0.3957829256176716
-1.1334981919842815
0.12239934269542077
0.3954932294940502
-1.1334981919842815
0.12239934269542077
0.3954932294940502
-1.1334981919842815
0.12239934269542077
0.3954932294940502
-1.1334981919842815
0.12239934269542077
0.3954932294940502
-1.1334307037084501
0.1204815256943758
0.39503742799736036
-1.1334307037084501
0.1204815256943758
0.39503742799736036
-1.1334307037084501
0.1204815256943758
0.39503742799736036
-1.1334307037084501
0.1204815256943758
0.39503742799736036
-1.1339746918348963
0.11842205455524656
0.3946152050914015
-1.1339746918348963
0.11842205455524656
0.3946152050914015
-1.1339746918348963
0.11842205455524656
0.3946152050914015
-1.1339746918348963
0.11842205455524656
0.3946152050914015
-1.1353075157241515
0.11619322813353537
0.39430470184466637
-1.1353075157241515
0.11619322813353537
0.39430470184466637
-1.1353075157241515
0.11619322813353537
0.39430470184466637
-1.1353075157241515
0.11619322813353537
0.39430470184466637
-1.1359752181150422
0.11369995438266337
0.39383686893908415
-1.1359752181150422
0.11369995438266337
0.39383686893908415
-1.135612799522311
0.11107544087718943
0.3930862067292669
-1.135612799522311
0.11107544087718943
0.3930862067292669
-1.135612799522311
0.11107544087718943
0.3930862067292669
-1.135612799522311
0.11107544087718943
0.3930862067292669
-1.135612799522311
0.11107544087718943
0.3930862067292669
-1.135612799522311
0.11107544087718943
0.3930862067292669
-1.1360196325637435
0.10825922387375254
0.39221596805374215
-1.1360196325637435
0.10825922387375254
0.39221596805374215
-1.1360196325637435
0.10825922387375254
0.39221596805374215
-1.1360196325637435
0.10825922387375254
0.39221596805374215
-1.1369239556147965
0.10512276231201577
0.39158061829196633
-1.1369239556147965
0.10512276231201577
0.39158061829196633
-1.1382187264749148
0.10258393601145369
0.3910590824398597
-1.1382187264749148
0.10258393601145369
0.3910590824398597
-1.1382187264749148
0.10258393601145369
0.3910590824398597
-1.1382187264749148
0.10258393601145369
0.3910590824398597
-1.1382815862372881
0.10004471823337428
0.3902901035618219
-1.1382815862372881
0.10004471823337428
0.3902901035618219
-1.1382815862372881
0.10004471823337428
0.3902901035618219
-1.1382815862372881
0.10004471823337428
0.3902901035618219
-1.137806601187936
0.09795253153011974
0.38948966478451025
-1.137806601187936
0.09795253153011974
0.38948966478451025
-1.137806601187936
0.09795253153011974
0.38948966478451025
-1.137806601187936
0.09795253153011974
0.38948966478451025
-1.1387380968615528
0.09672667920972897
0.3888627050039298
-1.1387380968615528
0.09672667920972897
0.3888627050039298
-1.1387380968615528
0.09672667920972897
0.3888627050039298
-1.1387380968615528
0.09672667920972897
0.3888627050039298
-1.1404994054834618
0.09634701283394352
0.3883323530988817
-1.1404994054834618
0.09634701283394352
0.3883323530988817
-1.1404994054834618
0.09634701283394352
0.3883323530988817
-1.1404994054834618
0.09634701283394352
0.3883323530988817
-1.1413514805133678
0.09728067545757406
0.38766234154253215
-1.1413514805133678
0.09728067545757406
0.38766234154253215
-1.1413514805133678
0.09728067545757406
0.38766234154253215
-1.1413514805133678
0.09728067545757406
0.38766234154253215
-1.141227232476357
0.10040757331768767
0.3868577812177955
-1.141227232476357
0.10040757331768767
0.3868577812177955
-1.141227232476357
0.10040757331768767
0.3868577812177955
-1.141227232476357
0.10040757331768767
0.3868577812177955
-1.1394243781610334
0.10496896375613483
0.38636558296010926
-1.1394243781610334
0.10496896375613483
0.38636558296010926
-1.1394243781610334
0.10496896375613483
0.38636558296010926
-1.1394243781610334
0.10496896375613483
0.38636558296010926
-1.1358736635781765
0.11188206075202507
0.386044053985706
-1.1358736635781765
0.11188206075202507
0.386044053985706
-1.1358736635781765
0.11188206075202507
0.386044053985706
-1.1358736635781765
0.11188206075202507
0.386044053985706
-1.1312218094622468
0.12100536810806536
0.38640596935858024
-1.1312218094622468
0.12100536810806536
0.38640596935858024
-1.1312218094622468
0.12100536810806536
0.38640596935858024
-1.1312218094622468
0.12100536810806536
0.38640596935858024
-1.1262880349570472
0.13279166423324254
0.38764043181164826
-1.1262880349570472
0.13279166423324254
0.38764043181164826
-1.1262880349570472
0.13279166423324254
0.38764043181164826
-1.1262880349570472
0.13279166423324254
0.38764043181164826
-1.114237348716782
0.14549165064840322
0.3905619586057632
-1.114237348716782
0.14549165064840322
0.3905619586057632
-1.114237348716782
0.14549165064840322
0.3905619586057632
-1.114237348716782
0.14549165064840322
0.3905619586057632
-1.0970011513202427
0.15858058140289383
0.3937993287150862
-1.0970011513202427
0.15858058140289383
0.3937993287150862
-1.0970011513202427
0.15858058140289383
0.3937993287150862
-1.0970011513202427
0.15858058140289383
0.3937993287150862
-1.0790955137599874
0.1714694239359133
0.3975287968358518
-1.0790955137599874
0.1714694239359133
0.3975287968358518
-1.0790955137599874
0.1714694239359133
0.3975287968358518
-1.0790955137599874
0.1714694239359133
0.3975287968358518
-1.0621671989970216
0.18344638903784616
0.4025284563979563
-1.0621671989970216
0.18344638903784616
0.4025284563979563
-1.0621671989970216
0.18344638903784616
0.4025284563979563
-1.0621671989970216
0.18344638903784616
0.4025284563979563
-1.0451797021196176
0.1947141565266824
0.40885657286537336
-1.0451797021196176
0.1947141565266824
0.40885657286537336
-1.0451797021196176
0.1947141565266824
0.40885657286537336
-1.0451797021196176
0.1947141565266824
0.40885657286537336
-1.0252351383535778
0.20509692503062316
0.4166011379277231
-1.0252351383535778
0.20509692503062316
0.4166011379277231
-1.0252351383535778
0.20509692503062316
0.4166011379277231
-1.0252351383535778
0.20509692503062316
0.4166011379277231
-0.999401075286212
0.21491443301081997
0.4263739739106449
-0.999401075286212
0.21491443301081997
0.4263739739106449
-0.999401075286212
0.21491443301081997
0.4263739739106449
-0.999401075286212
0.21491443301081997
0.4263739739106449
-0.9700027965109573
0.2239689881593941
0.43851837546571093
-0.9700027965109573
0.2239689881593941
0.43851837546571093
-0.9700027965109573
0.2239689881593941
0.43851837546571093
-0.9700027965109573
0.2239689881593941
0.43851837546571093
-0.9383894926860785
0.23068368783690676
0.45173566412753013
-0.9383894926860785
0.23068368783690676
0.45173566412753013
-0.9383894926860785
0.23068368783690676
0.45173566412753013
-0.9383894926860785
0.23068368783690676
0.45173566412753013
-0.9068969298925842
0.23483928285750966
0.46463171121842983
-0.9068969298925842
0.23483928285750966
0.46463171121842983
-0.9068969298925842
0.23483928285750966
0.46463171121842983
-0.9068969298925842
0.23483928285750966
0.46463171121842983
-0.8762676782367533
0.23668228968274813
0.47712618166151544
-0.8762676782367533
0.23668228968274813
0.47712618166151544
-0.8762676782367533
0.23668228968274813
0.47712618166151544
-0.8762676782367533
0.23668228968274813
0.47712618166151544
-0.8451434434777623
0.23656544057889875
0.4889301080664974
-0.8451434434777623
0.23656544057889875
0.4889301080664974
-0.8451434434777623
0.23656544057889875
0.4889301080664974
-0.8451434434777623
0.23656544057889875
0.4889301080664974
-0.8140655166221712
0.23511312084085784
0.49973867609925693
-0.8140655166221712
0.23511312084085784
0.49973867609925693
-0.8140655166221712
0.23511312084085784
0.49973867609925693
-0.8140655166221712
0.23511312084085784
0.49973867609925693
-0.7846694038903833
0.23370670630407506
0.5117262373768036
-0.7846694038903833
0.23370670630407506
0.5117262373768036
-0.7846694038903833
0.23370670630407506
0.5117262373768036
-0.7846694038903833
0.23370670630407506
0.5117262373768036
-0.7626111259333616
0.2309430098412442
0.525470172787901
-0.7626111259333616
0.2309430098412442
0.525470172787901
-0.7626111259333616
0.2309430098412442
0.525470172787901
-0.7626111259333616
0.2309430098412442
0.525470172787901
-0.7500829189201815
0.22548161616252466
0.5410686703063283
-0.7500829189201815
0.22548161616252466
0.5410686703063283
-0.7500829189201815
0.22548161616252466
0.5410686703063283
-0.7500829189201815
0.22548161616252466
0.5410686703063283
-0.7420819330098695
0.2175836666147341
0.5558574852793526
-0.7420819330098695
0.2175836666147341
0.5558574852793526
-0.7420819330098695
0.2175836666147341
0.5558574852793526
-0.7420819330098695
0.2175836666147341
0.5558574852793526
-0.7303033150937749
0.20739183799301303
0.5690375632034271
-0.7303033150937749
0.20739183799301303
0.5690375632034271
-0.7303033150937749
0.20739183799301303
0.5690375632034271
-0.7303033150937749
0.20739183799301303
0.5690375632034271
-0.7103419595576379
0.19578706235280827
0.5807702390646949
-0.7103419595576379
0.19578706235280827
0.5807702390646949
-0.7103419595576379
0.19578706235280827
0.5807702390646949
-0.7103419595576379
0.19578706235280827
0.5807702390646949
-0.6839242701561982
0.18260372003228542
0.592409884654206
-0.6839242701561982
0.18260372003228542
0.592409884654206
-0.6839242701561982
0.18260372003228542
0.592409884654206
-0.6839242701561982
0.18260372003228542
0.592409884654206
-0.6546886312549602
0.16690555145218747
0.6033527130564253
-0.6546886312549602
0.16690555145218747
0.6033527130564253
-0.6546886312549602
0.16690555145218747
0.6033527130564253
-0.6546886312549602
0.16690555145218747
0.6033527130564253
-0.6285753864347084
0.15014075216431866
0.6130882381871761
-0.6285753864347084
0.15014075216431866
0.6130882381871761
-0.6285753864347084
0.15014075216431866
0.6130882381871761
-0.6285753864347084
0.15014075216431866
0.6130882381871761
-0.6089912540835973
0.13254353585700404
0.6222256805811606
-0.6089912540835973
0.13254353585700404
0.6222256805811606
-0.6089912540835973
0.13254353585700404
0.6222256805811606
-0.6089912540835973
0.13254353585700404
0.6222256805811606
-0.5969111705595815
0.11546038053326944
0.6303927925765704
-0.5969111705595815
0.11546038053326944
0.6303927925765704
-0.5969111705595815
0.11546038053326944
0.6303927925765704
-0.5969111705595815
0.11546038053326944
0.6303927925765704
-0.5924507735819428
0.09978412549024457
0.637993951802711
-0.5924507735819428
0.09978412549024457
0.637993951802711
-0.5924507735819428
0.09978412549024457
0.637993951802711
-0.5924507735819428
0.09978412549024457
0.637993951802711
-0.5923024615510315
0.08488110242382313
0.6443680468187301
-0.5923024615510315
0.08488110242382313
0.6443680468187301
-0.5923024615510315
0.08488110242382313
0.6443680468187301
-0.5923024615510315
0.08488110242382313
0.6443680468187301
-0.59387394609227
0.0717716513504572
0.6491197130861861
-0.59387394609227
0.0717716513504572
0.6491197130861861
-0.59387394609227
0.0717716513504572
0.6491197130861861
-0.59387394609227
0.0717716513504572
0.6491197130861861
-0.5954793751743442
0.061341007705544424
0.6521821006058276
-0.5954793751743442
0.061341007705544424
0.6521821006058276
-0.5954793751743442
0.061341007705544424
0.6521821006058276
-0.5954793751743442
0.061341007705544424
0.6521821006058276
-0.5960666623963081
0.053888905712704445
0.6539287305814931
-0.5960666623963081
0.053888905712704445
0.6539287305814931
-0.5960666623963081
0.053888905712704445
0.6539287305814931
-0.5960666623963081
0.053888905712704445
0.6539287305814931
-0.5966930046677983
0.04894192337653309
0.6550285720580697
-0.5966930046677983
0.04894192337653309
0.6550285720580697
-0.5966930046677983
0.04894192337653309
0.6550285720580697
-0.5966930046677983
0.04894192337653309
0.6550285720580697
-0.598616868346662
0.04538276759229798
0.6557192075288493
-0.598616868346662
0.04538276759229798
0.6557192075288493
-0.598616868346662
0.04538276759229798
0.6557192075288493
-0.598616868346662
0.04538276759229798
0.6557192075288493
-0.6019226236440887
0.04228997712039119
0.6568127559719874
-0.6019226236440887
0.04228997712039119
0.6568127559719874
-0.6019226236440887
0.04228997712039119
0.6568127559719874
-0.6019226236440887
0.04228997712039119
0.6568127559719874
-0.604610168324799
0.04009339420938881
0.657567190973177
-0.604610168324799
0.04009339420938881
0.657567190973177
-0.604610168324799
0.04009339420938881
0.657567190973177
-0.604610168324799
0.04009339420938881
0.657567190973177
-0.6047512726829055
0.03866098219641647
0.6584154560837701
-0.6047512726829055
0.03866098219641647
0.6584154560837701
-0.6047512726829055
0.03866098219641647
0.6584154560837701
-0.6047512726829055
0.03866098219641647
0.6584154560837701
-0.6029879371718163
0.03768585981773331
0.6589922165042226
-0.6029879371718163
0.03768585981773331
0.6589922165042226
-0.6029879371718163
0.03768585981773331
0.6589922165042226
-0.6029879371718163
0.03768585981773331
0.6589922165042226
-0.6003859023071236
0.037035473975102186
0.659357046231329
-0.6003859023071236
0.037035473975102186
0.659357046231329
-0.6003859023071236
0.037035473975102186
0.659357046231329
-0.6003859023071236
0.037035473975102186
0.659357046231329
-0.5984698323862537
0.03685868934936454
0.6600481766556667
-0.5984698323862537
0.03685868934936454
0.6600481766556667
-0.5984698323862537
0.03685868934936454
0.6600481766556667
-0.5984698323862537
0.03685868934936454
0.6600481766556667
-0.5972618088209092
0.03663963378359553
0.6607009858303047
-0.5972618088209092
0.03663963378359553
0.6607009858303047
-0.5972618088209092
0.03663963378359553
0.6607009858303047
-0.5972618088209092
0.03663963378359553
0.6607009858303047
-0.5960508262200787
0.03658445251144521
0.660977616487977
-0.5960508262200787
0.03658445251144521
0.660977616487977
-0.5960508262200787
0.03658445251144521
0.660977616487977
-0.5960508262200787
0.03658445251144521
0.660977616487977
-0.5952181468222143
0.03756333287153158
0.661176172430609
-0.5952181468222143
0.03756333287153158
0.661176172430609
-0.5952181468222143
0.03756333287153158
0.661176172430609
-0.5952181468222143
0.03756333287153158
0.661176172430609
-0.5940710346966042
0.03962483399752218
0.6608458131476765
-0.5940710346966042
0.03962483399752218
0.6608458131476765
-0.5940710346966042
0.03962483399752218
0.6608458131476765
-0.5940710346966042
0.03962483399752218
0.6608458131476765
-0.5936296577688964
0.043122000944713704
0.6600263792928652
-0.5936296577688964
0.043122000944713704
0.6600263792928652
-0.5936296577688964
0.043122000944713704
0.6600263792928652
-0.5936296577688964
0.043122000944713704
0.6600263792928652
-0.5941898520434605
0.04876981002336358
0.6585302816709702
-0.5941898520434605
0.04876981002336358
0.6585302816709702
-0.5941898520434605
0.04876981002336358
0.6585302816709702
-0.5941898520434605
0.04876981002336358
0.6585302816709702
-0.5965219257591188
0.05595454410807636
0.6569572414912571
-0.5965219257591188
0.05595454410807636
0.6569572414912571
-0.5965219257591188
0.05595454410807636
0.6569572414912571
-0.5965219257591188
0.05595454410807636
0.6569572414912571
-0.6013719493491735
0.0643308376721239
0.6538718794002996
-0.6013719493491735
0.0643308376721239
0.6538718794002996
-0.6013719493491735
0.0643308376721239
0.6538718794002996
-0.6013719493491735
0.0643308376721239
0.6538718794002996
-0.6102337766951025
0.07436976625861871
0.6491857699070779
-0.6102337766951025
0.07436976625861871
0.6491857699070779
-0.6102337766951025
0.07436976625861871
0.6491857699070779
-0.6102337766951025
0.07436976625861871
0.6491857699070779
-0.6240860988755077
0.08608777812230893
0.6432377095968506
-0.6240860988755077
0.08608777812230893
0.6432377095968506
-0.6240860988755077
0.08608777812230893
0.6432377095968506
-0.6240860988755077
0.08608777812230893
0.6432377095968506
-0.6407066940881461
0.09704401991110874
0.6376238448919895
-0.6407066940881461
0.09704401991110874
0.6376238448919895
-0.6407066940881461
0.09704401991110874
0.6376238448919895
-0.6407066940881461
0.09704401991110874
0.6376238448919895
-0.6594710902347912
0.10801692221951592
0.6305231926614471
-0.6594710902347912
0.10801692221951592
0.6305231926614471
-0.6594710902347912
0.10801692221951592
0.6305231926614471
-0.6594710902347912
0.10801692221951592
0.6305231926614471
-0.679307051784013
0.11824942871923592
0.6218493582351639
-0.679307051784013
0.11824942871923592
0.6218493582351639
-0.679307051784013
0.11824942871923592
0.6218493582351639
-0.679307051784013
0.11824942871923592
0.6218493582351639
-0.6978999929845228
0.1274191504512072
0.6125588619020006
-0.6978999929845228
0.1274191504512072
0.6125588619020006
-0.6978999929845228
0.1274191504512072
0.6125588619020006
-0.6978999929845228
0.1274191504512072
0.6125588619020006
-0.7176301311351284
0.13465764437679892
0.6033001663843697
-0.7176301311351284
0.13465764437679892
0.6033001663843697
-0.7176301311351284
0.13465764437679892
0.6033001663843697
-0.7176301311351284
0.13465764437679892
0.6033001663843697
-0.7402922437381693
0.14019088680191671
0.5928857025766879
-0.7402922437381693
0.14019088680191671
0.5928857025766879
-0.7402922437381693
0.14019088680191671
0.5928857025766879
-0.7402922437381693
0.14019088680191671
0.5928857025766879
-0.7641849142158162
0.1440372541410277
0.5819098019361849
-0.7641849142158162
0.1440372541410277
0.5819098019361849
-0.7641849142158162
0.1440372541410277
0.5819098019361849
-0.7641849142158162
0.1440372541410277
0.5819098019361849
-0.7908468281552306
0.14635214291010673
0.5712971727362823
-0.7908468281552306
0.14635214291010673
0.5712971727362823
-0.7908468281552306
0.14635214291010673
0.5712971727362823
-0.7908468281552306
0.14635214291010673
0.5712971727362823
-0.8227636103004556
0.14732700574478425
0.5595468679971749
-0.8227636103004556
0.14732700574478425
0.5595468679971749
-0.8227636103004556
0.14732700574478425
0.5595468679971749
-0.8227636103004556
0.14732700574478425
0.5595468679971749
-0.8585260738113661
0.14613126575740068
0.5473338597826161
-0.8585260738113661
0.14613126575740068
0.5473338597826161
-0.8585260738113661
0.14613126575740068
0.5473338597826161
-0.8585260738113661
0.14613126575740068
0.5473338597826161
-0.9033892297735238
0.1452014946683891
0.5363744614259608
-0.9033892297735238
0.1452014946683891
0.5363744614259608
-0.9033892297735238
0.1452014946683891
0.5363744614259608
-0.9033892297735238
0.1452014946683891
0.5363744614259608
-0.949673706529285
0.1441018668751658
0.5247970247090594
-0.949673706529285
0.1441018668751658
0.5247970247090594
-0.949673706529285
0.1441018668751658
0.5247970247090594
-0.949673706529285
0.1441018668751658
0.5247970247090594
-0.9933508627024251
0.14216634174948137
0.5111910170737053
-0.9933508627024251
0.14216634174948137
0.5111910170737053
-0.9933508627024251
0.14216634174948137
0.5111910170737053
-0.9933508627024251
0.14216634174948137
0.5111910170737053
-1.0262390875765952
0.13702705868587245
0.49492175496812235
-1.0262390875765952
0.13702705868587245
0.49492175496812235
-1.0262390875765952
0.13702705868587245
0.49492175496812235
-1.0262390875765952
0.13702705868587245
0.49492175496812235
-1.0372870348602
0.1277315908861881
0.47765426139321343
-1.0372870348602
0.1277315908861881
0.47765426139321343
-1.0372870348602
0.1277315908861881
0.47765426139321343
-1.0372870348602
0.1277315908861881
0.47765426139321343
-1.0511129146717684
0.11882523625832579
0.4623836147372546
-1.0511129146717684
0.11882523625832579
0.4623836147372546
-1.0511129146717684
0.11882523625832579
0.4623836147372546
-1.0511129146717684
0.11882523625832579
0.4623836147372546
-1.0699485373139552
0.11118572598762771
0.45113449989373455
-1.0699485373139552
0.11118572598762771
0.45113449989373455
-1.0699485373139552
0.11118572598762771
0.45113449989373455
-1.0699485373139552
0.11118572598762771
0.45113449989373455
-1.0875982031112998
0.10478551280435021
0.4431180620065611
-1.0875982031112998
0.10478551280435021
0.4431180620065611
-1.0875982031112998
0.10478551280435021
0.4431180620065611
-1.0875982031112998
0.10478551280435021
0.4431180620065611
-1.1014165598074623
0.10156595199767993
0.43812460002272013
-1.1014165598074623
0.10156595199767993
0.43812460002272013
-1.1014165598074623
0.10156595199767993
0.43812460002272013
-1.1014165598074623
0.10156595199767993
0.43812460002272013
-1.1073199462674113
0.09919163126870205
0.4347410694784731
-1.1073199462674113
0.09919163126870205
0.4347410694784731
-1.1073199462674113
0.09919163126870205
0.4347410694784731
-1.1073199462674113
0.09919163126870205
0.4347410694784731
-1.106783992423356
0.09791715182181901
0.4338588971076784
-1.106783992423356
0.09791715182181901
0.4338588971076784
-1.106783992423356
0.09791715182181901
0.4338588971076784
-1.106783992423356
0.09791715182181901
0.4338588971076784
-1.100565259436539
0.09822520734746792
0.4363750933108248
-1.100565259436539
0.09822520734746792
0.4363750933108248
-1.100565259436539
0.09822520734746792
0.4363750933108248
-1.100565259436539
0.09822520734746792
0.4363750933108248
-1.0982079968935696
0.09956609459392125
0.4394940347386586
-1.0982079968935696
0.09956609459392125
0.4394940347386586
-1.0982079968935696
0.09956609459392125
0.4394940347386586
-1.0982079968935696
0.09956609459392125
0.4394940347386586
-1.0975553706471461
0.10080727544967842
0.44106928158482833
-1.0975553706471461
0.10080727544967842
0.44106928158482833
-1.0975553706471461
0.10080727544967842
0.44106928158482833
-1.0975553706471461
0.10080727544967842
0.44106928158482833
-1.099213366215402
0.10270156635244931
0.44108423556371273
-1.099213366215402
0.10270156635244931
0.44108423556371273
-1.099213366215402
0.10270156635244931
0.44108423556371273
-1.099213366215402
0.10270156635244931
0.44108423556371273
-1.0998675701249645
0.104710161579602
0.4405384557985629
-1.0998675701249645
0.104710161579602
0.4405384557985629
-1.0998675701249645
0.104710161579602
0.4405384557985629
-1.0998675701249645
0.104710161579602
0.4405384557985629
-1.0986961398227377
0.10639733974942775
0.43927050027126363
-1.0986961398227377
0.10639733974942775
0.43927050027126363
-1.0986961398227377
0.10639733974942775
0.43927050027126363
-1.0986961398227377
0.10639733974942775
0.43927050027126363
-1.0996755875800739
0.10812187563041172
0.43741468320502636
-1.0996755875800739
0.10812187563041172
0.43741468320502636
-1.0996755875800739
0.10812187563041172
0.43741468320502636
-1.0996755875800739
0.10812187563041172
0.43741468320502636
-1.1016551094849074
0.10936205324007023
0.4357822881557159
-1.1016551094849074
0.10936205324007023
0.4357822881557159
-1.1016551094849074
0.10936205324007023
0.4357822881557159
-1.1016551094849074
0.10936205324007023
0.4357822881557159
-1.1026706668348274
0.11030708986858517
0.43453602863865176
-1.1026706668348274
0.11030708986858517
0.43453602863865176
-1.1026706668348274
0.11030708986858517
0.43453602863865176
-1.1026706668348274
0.11030708986858517
0.43453602863865176
-1.1032168034150245
0.11127685439488262
0.434003644441432
-1.1032168034150245
0.11127685439488262
0.434003644441432
-1.1032168034150245
0.11127685439488262
0.434003644441432
-1.1032168034150245
0.11127685439488262
0.434003644441432
-1.1030834135317666
0.11195081556234268
0.4337373879481754
-1.1030834135317666
0.11195081556234268
0.4337373879481754
-1.1030834135317666
0.11195081556234268
0.4337373879481754
-1.1030834135317666
0.11195081556234268
0.4337373879481754
-1.1042843649431688
0.11286854896677151
0.43402310650316916
-1.1042843649431688
0.11286854896677151
0.43402310650316916
-1.1042843649431688
0.11286854896677151
0.43402310650316916
-1.1042843649431688
0.11286854896677151
0.43402310650316916
-1.1067341996538156
0.11374804437475283
0.4339596884326976
-1.1067341996538156
0.11374804437475283
0.4339596884326976
-1.1067341996538156
0.11374804437475283
0.4339596884326976
-1.1067341996538156
0.11374804437475283
0.4339596884326976
-1.1072143275018638
0.11429042180465568
0.43324040216442006
-1.1072143275018638
0.11429042180465568
0.43324040216442006
-1.1072143275018638
0.11429042180465568
0.43324040216442006
-1.1072143275018638
0.11429042180465568
0.43324040216442006
-1.1072095754894047
0.11520594766869595
0.43235972727412225
-1.1072095754894047
0.11520594766869595
0.43235972727412225
-1.1072095754894047
0.11520594766869595
0.43235972727412225
-1.1072095754894047
0.11520594766869595
0.43235972727412225
-1.1067683073509715
0.11574184830794501
0.4319915280319971
-1.1067683073509715
0.11574184830794501
0.4319915280319971
-1.1067683073509715
0.11574184830794501
0.4319915280319971
-1.1067683073509715
0.11574184830794501
0.4319915280319971
-1.1084732049732524
0.11473832242721457
0.43157895769104626
-1.1084732049732524
0.11473832242721457
0.43157895769104626
-1.1084732049732524
0.11473832242721457
0.43157895769104626
-1.1084732049732524
0.11473832242721457
0.43157895769104626
-1.1107475091578327
0.11356257668671045
0.4315798251098638
-1.1107475091578327
0.11356257668671045
0.4315798251098638
-1.1107475091578327
0.11356257668671045
0.4315798251098638
-1.1107475091578327
0.11356257668671045
0.4315798251098638
-1.1088056846783905
0.11125386217967108
0.4319368051970716
-1.1088056846783905
0.11125386217967108
0.4319368051970716
-1.1088056846783905
0.11125386217967108
0.4319368051970716
-1.1088056846783905
0.11125386217967108
0.4319368051970716
-1.1056329255931459
0.10867876331897398
0.43236870215169165
-1.1056329255931459
0.10867876331897398
0.43236870215169165
-1.1056329255931459
0.10867876331897398
0.43236870215169165
-1.1056329255931459
0.10867876331897398
0.43236870215169165
-1.1044574519360708
0.10666107270474183
0.43335048392719566
-1.1044574519360708
0.10666107270474183
0.43335048392719566
-1.1044574519360708
0.10666107270474183
0.43335048392719566
-1.1044574519360708
0.10666107270474183
0.43335048392719566
-1.1056508549258275
0.10415986102500498
0.43425482194324366
-1.1056508549258275
0.10415986102500498
0.43425482194324366
-1.1056508549258275
0.10415986102500498
0.43425482194324366
-1.1056508549258275
0.10415986102500498
0.43425482194324366
-1.1058599057146135
0.10159288898795045
0.4345036298390181
-1.1058599057146135
0.10159288898795045
0.4345036298390181
-1.1058599057146135
0.10159288898795045
0.4345036298390181
-1.1058599057146135
0.10159288898795045
0.4345036298390181
-1.1047930735940008
0.1000012265615288
0.43447933814498685
-1.1047930735940008
0.1000012265615288
0.43447933814498685
-1.1047930735940008
0.1000012265615288
0.43447933814498685
-1.1047930735940008
0.1000012265615288
0.43447933814498685
-1.1037937107201916
0.09895804748527508
0.4341457823418678
-1.1037937107201916
0.09895804748527508
0.4341457823418678
-1.1037937107201916
0.09895804748527508
0.4341457823418678
-1.1037937107201916
0.09895804748527508
0.4341457823418678
-1.1038542304432593
0.09769621434396522
0.4337367920298573
-1.1038542304432593
0.09769621434396522
0.4337367920298573
-1.1038542304432593
0.09769621434396522
0.4337367920298573
-1.1038542304432593
0.09769621434396522
0.4337367920298573
-1.1037792089564866
0.09710808647118437
0.4330606051966835
-1.1037792089564866
0.09710808647118437
0.4330606051966835
-1.1037792089564866
0.09710808647118437
0.4330606051966835
-1.1037792089564866
0.09710808647118437
0.4330606051966835
-1.1045740007714953
0.09707684516452345
0.43267921139181265
-1.1045740007714953
0.09707684516452345
0.43267921139181265
-1.1045740007714953
0.09707684516452345
0.43267921139181265
-1.1045740007714953
0.09707684516452345
0.43267921139181265
-1.1043005653445237
0.09689825498372254
0.43204199425451145
-1.1043005653445237
0.09689825498372254
0.43204199425451145
-1.1043005653445237
0.09689825498372254
0.43204199425451145
-1.1043005653445237
0.09689825498372254
0.43204199425451145
-1.1028103327908239
0.09643581651866312
0.43072117768235024
-1.1028103327908239
0.09643581651866312
0.43072117768235024
-1.1028103327908239
0.09643581651866312
0.43072117768235024
-1.1028103327908239
0.09643581651866312
0.43072117768235024
-1.1035346027459507
0.09734187384474
0.42976663257524683
-1.1035346027459507
0.09734187384474
0.42976663257524683
-1.1035346027459507
0.09734187384474
0.42976663257524683
-1.1035346027459507
0.09734187384474
0.42976663257524683
-1.1048203201587956
0.09854081392464606
0.4293229171910129
-1.1048203201587956
0.09854081392464606
0.4293229171910129
-1.1048203201587956
0.09854081392464606
0.4293229171910129
-1.1048203201587956
0.09854081392464606
0.4293229171910129
-1.1046703194986027
0.09956201561072686
0.4286679530655159
-1.1046703194986027
0.09956201561072686
0.4286679530655159
-1.1046703194986027
0.09956201561072686
0.4286679530655159
-1.1046703194986027
0.09956201561072686
0.4286679530655159
-1.1035738342750046
0.10135196434435162
0.4282311354154833
-1.1035738342750046
0.10135196434435162
0.4282311354154833
-1.1035738342750046
0.10135196434435162
0.4282311354154833
-1.1035738342750046
0.10135196434435162
0.4282311354154833
-1.1029232787431738
0.10289079676455191
0.4276762169604516
-1.1029232787431738
0.10289079676455191
0.4276762169604516
-1.1029232787431738
0.10289079676455191
0.4276762169604516
-1.1029232787431738
0.10289079676455191
0.4276762169604516
-1.1026162144509661
0.10420032347969715
0.4268565496703452
-1.1026162144509661
0.10420032347969715
0.4268565496703452
-1.1026162144509661
0.10420032347969715
0.4268565496703452
-1.1026162144509661
0.10420032347969715
0.4268565496703452
-1.1027416941651977
0.10560379454697645
0.4260177955712776
-1.1027416941651977
0.10560379454697645
0.4260177955712776
-1.1027416941651977
0.10560379454697645
0.4260177955712776
-1.1027416941651977
0.10560379454697645
0.4260177955712776
-1.1024228088484351
0.10618139162828917
0.42519822138038466
-1.1024228088484351
0.10618139162828917
0.42519822138038466
-1.1024228088484351
0.10618139162828917
0.42519822138038466
-1.1024228088484351
0.10618139162828917
0.42519822138038466
-1.102775321700677
0.10652206747147999
0.4244407911653167
-1.102775321700677
0.10652206747147999
0.4244407911653167
-1.102775321700677
0.10652206747147999
0.4244407911653167
-1.102775321700677
0.10652206747147999
0.4244407911653167
-1.103981152239108
0.10751699412923771
0.42391245673383104
-1.103981152239108
0.10751699412923771
0.42391245673383104
-1.103981152239108
0.10751699412923771
0.42391245673383104
-1.103981152239108
0.10751699412923771
0.42391245673383104
-1.1039776171523632
0.1083923383398645
0.42368589178100485
-1.1039776171523632
0.1083923383398645
0.42368589178100485
-1.1039776171523632
0.1083923383398645
0.42368589178100485
-1.1039776171523632
0.1083923383398645
0.42368589178100485
-1.1036542054065155
0.10860222906812812
0.42368496315171283
-1.1036542054065155
0.10860222906812812
0.42368496315171283
-1.1036542054065155
0.10860222906812812
0.42368496315171283
-1.1036542054065155
0.10860222906812812
0.42368496315171283
-1.1035273430960069
0.10840135849083231
0.42364431167193506
-1.1035273430960069
0.10840135849083231
0.42364431167193506
-1.1035273430960069
0.10840135849083231
0.42364431167193506
-1.1035273430960069
0.10840135849083231
0.42364431167193506
-1.10324085302707
0.10741053724592967
0.42333703906600123
-1.10324085302707
0.10741053724592967
0.42333703906600123
-1.10324085302707
0.10741053724592967
0.42333703906600123
-1.10324085302707
0.10741053724592967
0.42333703906600123
-1.1035159083441544
0.10579739424659727
0.423441476435038
-1.1035159083441544
0.10579739424659727
0.423441476435038
-1.1035159083441544
0.10579739424659727
0.423441476435038
-1.1035159083441544
0.10579739424659727
0.423441476435038
-1.1046073438749273
0.10400480684191231
0.4238763849005273
-1.1046073438749273
0.10400480684191231
0.4238763849005273
-1.1046073438749273
0.10400480684191231
0.4238763849005273
-1.1046073438749273
0.10400480684191231
0.4238763849005273
-1.1053428278445547
0.10183300056992282
0.4240857616363796
-1.1053428278445547
0.10183300056992282
0.4240857616363796
-1.1053428278445547
0.10183300056992282
0.4240857616363796
-1.1053428278445547
0.10183300056992282
0.4240857616363796
-1.105178114102363
0.09967899535637524
0.424209614889855
-1.105178114102363
0.09967899535637524
0.424209614889855
-1.105178114102363
0.09967899535637524
0.424209614889855
-1.105178114102363
0.09967899535637524
0.424209614889855
-1.1060349606845024
0.09750504130978546
0.42413564458090364
-1.1060349606845024
0.09750504130978546
0.42413564458090364
-1.1060349606845024
0.09750504130978546
0.42413564458090364
-1.1060349606845024
0.09750504130978546
0.42413564458090364
-1.1067576696948636
0.09492701113840905
0.4236959304095478
-1.1067576696948636
0.09492701113840905
0.4236959304095478
-1.1067576696948636
0.09492701113840905
0.4236959304095478
-1.1067576696948636
0.09492701113840905
0.4236959304095478
-1.10686364797949
0.09236114491323719
0.4230478705945325
-1.10686364797949
0.09236114491323719
0.4230478705945325
-1.10686364797949
0.09236114491323719
0.4230478705945325
-1.10686364797949
0.09236114491323719
0.4230478705945325
-1.1073044384871158
0.09007231352394157
0.42272846207629144
-1.1073044384871158
0.09007231352394157
0.42272846207629144
-1.1073044384871158
0.09007231352394157
0.42272846207629144
-1.1073044384871158
0.09007231352394157
0.42272846207629144
-1.1078750565358872
0.08786317523476062
0.42294480620122377
-1.1078750565358872
0.08786317523476062
0.42294480620122377
-1.1078750565358872
0.08786317523476062
0.42294480620122377
-1.1078750565358872
0.08786317523476062
0.42294480620122377
-1.1083215356564304
0.08653112247271066
0.42321867192682466
-1.1083215356564304
0.08653112247271066
0.42321867192682466
-1.1083215356564304
0.08653112247271066
0.42321867192682466
-1.1083215356564304
0.08653112247271066
0.42321867192682466
-1.1086827859968946
0.0861174456663103
0.42334778899823206
-1.1086827859968946
0.0861174456663103
0.42334778899823206
-1.1086827859968946
0.0861174456663103
0.42334778899823206
-1.1086827859968946
0.0861174456663103
0.42334778899823206
-1.109115134636824
0.08617029644879694
0.42349670928219685
-1.109115134636824
0.08617029644879694
0.42349670928219685
-1.109115134636824
0.08617029644879694
0.42349670928219685
-1.109115134636824
0.08617029644879694
0.42349670928219685
-1.1082473765154746
0.08685867305051612
0.423299331447065
-1.1082473765154746
0.08685867305051612
0.423299331447065
-1.1082473765154746
0.08685867305051612
0.423299331447065
-1.1082473765154746
0.08685867305051612
0.423299331447065
-1.1077406322108194
0.08929065646062578
0.42294029913065617
-1.1077406322108194
0.08929065646062578
0.42294029913065617
-1.1077406322108194
0.08929065646062578
0.42294029913065617
-1.1077406322108194
0.08929065646062578
0.42294029913065617
-1.1083663419641128
0.09308237292117674
0.42246503495901366
-1.1083663419641128
0.09308237292117674
0.42246503495901366
-1.1083663419641128
0.09308237292117674
0.42246503495901366
-1.1083663419641128
0.09308237292117674
0.42246503495901366
-1.1083395518601686
0.09772329586195426
0.4224126830247339
-1.1083395518601686
0.09772329586195426
0.4224126830247339
-1.1083395518601686
0.09772329586195426
0.4224126830247339
-1.1083395518601686
0.09772329586195426
0.4224126830247339
-1.1050719642754017
0.10493288432420184
0.4226081223630022
-1.1050719642754017
0.10493288432420184
0.4226081223630022
-1.1050719642754017
0.10493288432420184
0.4226081223630022
-1.1050719642754017
0.10493288432420184
0.4226081223630022
-1.0992358290577549
0.11396293341641502
0.4230529322784872
-1.0992358290577549
0.11396293341641502
0.4230529322784872
-1.0992358290577549
0.11396293341641502
0.4230529322784872
-1.0992358290577549
0.11396293341641502
0.4230529322784872
-1.0933074548347588
0.12426929937847347
0.42423545652494254
-1.0933074548347588
0.12426929937847347
0.42423545652494254
-1.0933074548347588
0.12426929937847347
0.42423545652494254
-1.0933074548347588
0.12426929937847347
0.42423545652494254
-1.088253128014472
0.13626256490720964
0.4252771037599699
-1.088253128014472
0.13626256490720964
0.4252771037599699
-1.088253128014472
0.13626256490720964
0.4252771037599699
-1.088253128014472
0.13626256490720964
0.4252771037599699
-1.081705487632801
0.14908991154021514
0.42674198760776977
-1.081705487632801
0.14908991154021514
0.42674198760776977
-1.081705487632801
0.14908991154021514
0.42674198760776977
-1.081705487632801
0.14908991154021514
0.42674198760776977
-1.0682128140916323
0.1613432563154554
0.42917786455532775
-1.0682128140916323
0.1613432563154554
0.42917786455532775
-1.0682128140916323
0.1613432563154554
0.42917786455532775
-1.0682128140916323
0.1613432563154554
0.42917786455532775
-1.048118030752487
0.1729868346490126
0.43232044708590406
-1.048118030752487
0.1729868346490126
0.43232044708590406
-1.048118030752487
0.1729868346490126
0.43232044708590406
-1.048118030752487
0.1729868346490126
0.43232044708590406
-1.0244864845792996
0.18507455732942443
0.437741681050209
-1.0244864845792996
0.18507455732942443
0.437741681050209
-1.0244864845792996
0.18507455732942443
0.437741681050209
-1.0244864845792996
0.18507455732942443
0.437741681050209
-0.9994126247176492
0.19696451473129914
0.4460290686618859
-0.9994126247176492
0.19696451473129914
0.4460290686618859
-0.9994126247176492
0.19696451473129914
0.4460290686618859
-0.9994126247176492
0.19696451473129914
0.4460290686618859
-0.9720404941372449
0.20726224790701633
0.4568353397254197
-0.9720404941372449
0.20726224790701633
0.4568353397254197
-0.9720404941372449
0.20726224790701633
0.4568353397254197
-0.9720404941372449
0.20726224790701633
0.4568353397254197
-0.9409048514146738
0.21588777422398897
0.46945067125291745
-0.9409048514146738
0.21588777422398897
0.46945067125291745
-0.9409048514146738
0.21588777422398897
0.46945067125291745
-0.9409048514146738
0.21588777422398897
0.46945067125291745
-0.9069976945514197
0.22244192734784057
0.4816725260589086
-0.9069976945514197
0.22244192734784057
0.4816725260589086
-0.9069976945514197
0.22244192734784057
0.4816725260589086
-0.9069976945514197
0.22244192734784057
0.4816725260589086
-0.8751851211968718
0.22780234644835887
0.4934269440134555
-0.8751851211968718
0.22780234644835887
0.4934269440134555
-0.8751851211968718
0.22780234644835887
0.4934269440134555
-0.8751851211968718
0.22780234644835887
0.4934269440134555
-0.8468855248316736
0.23125297005681192
0.5055710126714726
-0.8468855248316736
0.23125297005681192
0.5055710126714726
-0.8468855248316736
0.23125297005681192
0.5055710126714726
-0.8468855248316736
0.23125297005681192
0.5055710126714726
-0.8215073699726542
0.2316266071527702
0.5175727170097894
-0.8215073699726542
0.2316266071527702
0.5175727170097894
-0.8215073699726542
0.2316266071527702
0.5175727170097894
-0.8215073699726542
0.2316266071527702
0.5175727170097894
-0.7966319765450702
0.22899943943467846
0.5292719804112894
-0.7966319765450702
0.22899943943467846
0.5292719804112894
-0.7966319765450702
0.22899943943467846
0.5292719804112894
-0.7966319765450702
0.22899943943467846
0.5292719804112894
-0.7735968520234482
0.225425710696799
0.5424304233367216
-0.7735968520234482
0.225425710696799
0.5424304233367216
-0.7735968520234482
0.225425710696799
0.5424304233367216
-0.7735968520234482
0.225425710696799
0.5424304233367216
-0.7513022561366816
0.22195558895156842
0.5572052219453608
-0.7513022561366816
0.22195558895156842
0.5572052219453608
-0.7513022561366816
0.22195558895156842
0.5572052219453608
-0.7513022561366816
0.22195558895156842
0.5572052219453608
-0.7295475052147512
0.21852735043846674
0.5717299084482201
-0.7295475052147512
0.21852735043846674
0.5717299084482201
-0.7295475052147512
0.21852735043846674
0.5717299084482201
-0.7295475052147512
0.21852735043846674
0.5717299084482201
-0.7090586282286339
0.2132822724855248
0.5837321889166495
-0.7090586282286339
0.2132822724855248
0.5837321889166495
-0.7090586282286339
0.2132822724855248
0.5837321889166495
-0.7090586282286339
0.2132822724855248
0.5837321889166495
-0.6920134700101204
0.205486990947397
0.594009795133827
-0.6920134700101204
0.205486990947397
0.594009795133827
-0.6920134700101204
0.205486990947397
0.594009795133827
-0.6920134700101204
0.205486990947397
0.594009795133827
-0.6795505080979868
0.19559140885454296
0.6028273627934133
-0.6795505080979868
0.19559140885454296
0.6028273627934133
-0.6795505080979868
0.19559140885454296
0.6028273627934133
-0.6795505080979868
0.19559140885454296
0.6028273627934133
-0.6667033594047467
0.18485577504138878
0.6114359555205086
-0.6667033594047467
0.18485577504138878
0.6114359555205086
-0.6667033594047467
0.18485577504138878
0.6114359555205086
-0.6667033594047467
0.18485577504138878
0.6114359555205086
-0.653796860232949
0.17370689475830756
0.6199723118148994
-0.653796860232949
0.17370689475830756
0.6199723118148994
-0.653796860232949
0.17370689475830756
0.6199723118148994
-0.653796860232949
0.17370689475830756
0.6199723118148994
-0.642565325097789
0.16218551217518842
0.6268354621447557
-0.642565325097789
0.16218551217518842
0.6268354621447557
-0.642565325097789
0.16218551217518842
0.6268354621447557
-0.642565325097789
0.16218551217518842
0.6268354621447557
-0.6313967959822849
0.15076389135243212
0.6317940417397728
-0.6313967959822849
0.15076389135243212
0.6317940417397728
-0.6313967959822849
0.15076389135243212
0.6317940417397728
-0.6313967959822849
0.15076389135243212
0.6317940417397728
-0.6214321094553898
0.14073714357880007
0.636967311455152
-0.6214321094553898
0.14073714357880007
0.636967311455152
-0.6214321094553898
0.14073714357880007
0.636967311455152
-0.6214321094553898
0.14073714357880007
0.636967311455152
-0.6155281997679825
0.13222806833677472
0.6421234221199793
-0.6155281997679825
0.13222806833677472
0.6421234221199793
-0.6155281997679825
0.13222806833677472
0.6421234221199793
-0.6155281997679825
0.13222806833677472
0.6421234221199793
-0.6154610847462206
0.12436362077391265
0.6463723387034956
-0.6154610847462206
0.12436362077391265
0.6463723387034956
-0.6154610847462206
0.12436362077391265
0.6463723387034956
-0.6154610847462206
0.12436362077391265
0.6463723387034956
-0.6198927681715364
0.11689359206823709
0.6495048397568874
-0.6198927681715364
0.11689359206823709
0.6495048397568874
-0.6198927681715364
0.11689359206823709
0.6495048397568874
-0.6198927681715364
0.11689359206823709
0.6495048397568874
-0.6246194987006624
0.11062905218395139
0.651539954071148
-0.6246194987006624
0.11062905218395139
0.651539954071148
-0.6246194987006624
0.11062905218395139
0.651539954071148
-0.6246194987006624
0.11062905218395139
0.651539954071148
-0.6261911875458048
0.1060748198883944
0.6531729602180871
-0.6261911875458048
0.1060748198883944
0.6531729602180871
-0.6261911875458048
0.1060748198883944
0.6531729602180871
-0.6261911875458048
0.1060748198883944
0.6531729602180871
-0.6245143199080072
0.10347689888467393
0.6544224880384919
-0.6245143199080072
0.10347689888467393
0.6544224880384919
-0.6245143199080072
0.10347689888467393
0.6544224880384919
-0.6245143199080072
0.10347689888467393
0.6544224880384919
-0.6213015506055599
0.1020617346741388
0.6547927836946374
-0.6213015506055599
0.1020617346741388
0.6547927836946374
-0.6213015506055599
0.1020617346741388
0.6547927836946374
-0.6213015506055599
0.1020617346741388
0.6547927836946374
-0.6186300706767175
0.10135605204838345
0.6542968834475624
-0.6186300706767175
0.10135605204838345
0.6542968834475624
-0.6186300706767175
0.10135605204838345
0.6542968834475624
-0.6186300706767175
0.10135605204838345
0.6542968834475624
-0.6178408809862747
0.10080044284518792
0.6542683661984633
-0.6178408809862747
0.10080044284518792
0.6542683661984633
-0.6178408809862747
0.10080044284518792
0.6542683661984633
-0.6178408809862747
0.10080044284518792
0.6542683661984633
-0.619206705533492
0.10049354666375067
0.6543427479589636
-0.619206705533492
0.10049354666375067
0.6543427479589636
-0.619206705533492
0.10049354666375067
0.6543427479589636
-0.619206705533492
0.10049354666375067
0.6543427479589636
-0.6207255705344508
0.10035085730894491
0.6543131461862803
-0.6207255705344508
0.10035085730894491
0.6543131461862803
-0.6207255705344508
0.10035085730894491
0.6543131461862803
-0.6207255705344508
0.10035085730894491
0.6543131461862803
-0.6207909122177514
0.10130830301353735
0.6538808619350884
-0.6207909122177514
0.10130830301353735
0.6538808619350884
-0.6207909122177514
0.10130830301353735
0.6538808619350884
-0.6207909122177514
0.10130830301353735
0.6538808619350884
-0.6199441084034414
0.10416052461419274
0.6524426987540837
-0.6199441084034414
0.10416052461419274
0.6524426987540837
-0.6199441084034414
0.10416052461419274
0.6524426987540837
-0.6199441084034414
0.10416052461419274
0.6524426987540837
-0.6198082357502408
0.10928477527328039
0.6502010327706762
-0.6198082357502408
0.10928477527328039
0.6502010327706762
-0.6198082357502408
0.10928477527328039
0.6502010327706762
-0.6198082357502408
0.10928477527328039
0.6502010327706762
-0.6212077536803023
0.11589112641571941
0.6475578872718756
-0.6212077536803023
0.11589112641571941
0.6475578872718756
-0.6212077536803023
0.11589112641571941
0.6475578872718756
-0.6212077536803023
0.11589112641571941
0.6475578872718756
-0.6239346002816716
0.1236727322323478
0.6450550667686097
-0.6239346002816716
0.1236727322323478
0.6450550667686097
-0.6239346002816716
0.1236727322323478
0.6450550667686097
-0.6239346002816716
0.1236727322323478
0.6450550667686097
-0.6300692146438023
0.13227131342812584
0.6414669688897275
-0.6300692146438023
0.13227131342812584
0.6414669688897275
-0.6300692146438023
0.13227131342812584
0.6414669688897275
-0.6300692146438023
0.13227131342812584
0.6414669688897275
-0.6385886554284474
0.1411952654274851
0.6364817296869212
-0.6385886554284474
0.1411952654274851
0.6364817296869212
-0.6385886554284474
0.1411952654274851
0.6364817296869212
-0.6385886554284474
0.1411952654274851
0.6364817296869212
-0.6506539593794531
0.14985171498497446
0.6304045024344709
-0.6506539593794531
0.14985171498497446
0.6304045024344709
-0.6506539593794531
0.14985171498497446
0.6304045024344709
-0.6506539593794531
0.14985171498497446
0.6304045024344709
-0.6656751608887932
0.15795166746493244
0.6231199029858836
-0.6656751608887932
0.15795166746493244
0.6231199029858836
-0.6656751608887932
0.15795166746493244
0.6231199029858836
-0.6656751608887932
0.15795166746493244
0.6231199029858836
-0.6806523076251731
0.1642012376536308
0.6165802313098989
-0.6806523076251731
0.1642012376536308
0.6165802313098989
-0.6806523076251731
0.1642012376536308
0.6165802313098989
-0.6806523076251731
0.1642012376536308
0.6165802313098989
-0.6966098689309242
0.1688524198136855
0.6094581079421248
-0.6966098689309242
0.1688524198136855
0.6094581079421248
-0.6966098689309242
0.1688524198136855
0.6094581079421248
-0.6966098689309242
0.1688524198136855
0.6094581079421248
-0.7167206739626499
0.17140986790870902
0.6005863574754613
-0.7167206739626499
0.17140986790870902
0.6005863574754613
-0.7167206739626499
0.17140986790870902
0.6005863574754613
-0.7167206739626499
0.17140986790870902
0.6005863574754613
-0.7404072552726969
0.1723531613606227
0.5899286201965503
-0.7404072552726969
0.1723531613606227
0.5899286201965503
-0.7404072552726969
0.1723531613606227
0.5899286201965503
-0.7404072552726969
0.1723531613606227
0.5899286201965503
-0.7639991662502286
0.17062834857056952
0.5800717048906239
-0.7639991662502286
0.17062834857056952
0.5800717048906239
-0.7639991662502286
0.17062834857056952
0.5800717048906239
-0.7639991662502286
0.17062834857056952
0.5800717048906239
-0.789022842632994
0.16695852698411232
0.5702917869249896
-0.789022842632994
0.16695852698411232
0.5702917869249896
-0.789022842632994
0.16695852698411232
0.5702917869249896
-0.789022842632994
0.16695852698411232
0.5702917869249896
-0.81645688021564
0.1617180706819322
0.5608208982949632
-0.81645688021564
0.1617180706819322
0.5608208982949632
-0.81645688021564
0.1617180706819322
0.5608208982949632
-0.81645688021564
0.1617180706819322
0.5608208982949632
-0.84372310244659
0.1557510582074427
0.5526608053849765
-0.84372310244659
0.1557510582074427
0.5526608053849765
-0.84372310244659
0.1557510582074427
0.5526608053849765
-0.84372310244659
0.1557510582074427
0.5526608053849765
-0.8864183142501183
0.15015644646576087
0.546850583508123
-0.8864183142501183
0.15015644646576087
0.546850583508123
-0.8864183142501183
0.15015644646576087
0.546850583508123
-0.8864183142501183
0.15015644646576087
0.546850583508123
-0.9410657715313947
0.14705406558502532
0.5413511064525381
-0.9410657715313947
0.14705406558502532
0.5413511064525381
-0.9410657715313947
0.14705406558502532
0.5413511064525381
-0.9410657715313947
0.14705406558502532
0.5413511064525381
-0.9756190769672769
0.13838233642493858
0.5305947841372093
-0.9756190769672769
0.13838233642493858
0.5305947841372093
-0.9756190769672769
0.13838233642493858
0.5305947841372093
-0.9756190769672769
0.13838233642493858
0.5305947841372093
-0.9835193066179562
0.1256389724439838
0.5156580801683822
-0.9835193066179562
0.1256389724439838
0.5156580801683822
-0.9835193066179562
0.1256389724439838
0.5156580801683822
-0.9835193066179562
0.1256389724439838
0.5156580801683822
-0.9819494528468289
0.10801501151059187
0.5016458622103728
-0.9819494528468289
0.10801501151059187
0.5016458622103728
-0.9819494528468289
0.10801501151059187
0.5016458622103728
-0.9819494528468289
0.10801501151059187
0.5016458622103728
-0.9883248356463779
0.09103690639938132
0.4922816111751692
-0.9883248356463779
0.09103690639938132
0.4922816111751692
-0.9883248356463779
0.09103690639938132
0.4922816111751692
-0.9883248356463779
0.09103690639938132
0.4922816111751692
-1.003113058767192
0.08308699969437318
0.4871225415477969
-1.003113058767192
0.08308699969437318
0.4871225415477969
-1.003113058767192
0.08308699969437318
0.4871225415477969
-1.003113058767192
0.08308699969437318
0.4871225415477969
-1.0170398954969675
0.07851533687042685
0.48300789657171084
-1.0170398954969675
0.07851533687042685
0.48300789657171084
-1.0170398954969675
0.07851533687042685
0.48300789657171084
-1.0170398954969675
0.07851533687042685
0.48300789657171084
-1.0267110042327217
0.07346541752140681
0.47892542467233995
-1.0267110042327217
0.07346541752140681
0.47892542467233995
-1.0267110042327217
0.07346541752140681
0.47892542467233995
-1.0267110042327217
0.07346541752140681
0.47892542467233995
-1.0240808005544664
0.068810601634155
0.4757344828117538
-1.0240808005544664
0.068810601634155
0.4757344828117538
-1.0240808005544664
0.068810601634155
0.4757344828117538
-1.0240808005544664
0.068810601634155
0.4757344828117538
-1.0206454860127325
0.06657969164381784
0.4749103443777111
-1.0206454860127325
0.06657969164381784
0.4749103443777111
-1.0206454860127325
0.06657969164381784
0.4749103443777111
-1.0206454860127325
0.06657969164381784
0.4749103443777111
-1.0197324689191518
0.06682468410204526
0.47524821877625534
-1.0197324689191518
0.06682468410204526
0.47524821877625534
-1.0197324689191518
0.06682468410204526
0.47524821877625534
-1.0197324689191518
0.06682468410204526
0.47524821877625534
-1.024338515405428
0.06759753752603694
0.47501486031130324
-1.024338515405428
0.06759753752603694
0.47501486031130324
-1.024338515405428
0.06759753752603694
0.47501486031130324
-1.024338515405428
0.06759753752603694
0.47501486031130324
-1.0308676451831884
0.068549612101608
0.4747026414707146
-1.0308676451831884
0.068549612101608
0.4747026414707146
-1.0308676451831884
0.068549612101608
0.4747026414707146
-1.0308676451831884
0.068549612101608
0.4747026414707146
-1.0329920802091297
0.07006068881756185
0.4743758626496299
-1.0329920802091297
0.07006068881756185
0.4743758626496299
-1.0329920802091297
0.07006068881756185
0.4743758626496299
-1.0329920802091297
0.07006068881756185
0.4743758626496299
-1.0320236163926746
0.0720346786714085
0.47373600630855295
-1.0320236163926746
0.0720346786714085
0.47373600630855295
-1.0320236163926746
0.0720346786714085
0.47373600630855295
-1.0320236163926746
0.0720346786714085
0.47373600630855295
-1.0302518667667555
0.07523637617621345
0.4733561543099961
-1.0302518667667555
0.07523637617621345
0.4733561543099961
-1.0302518667667555
0.07523637617621345
0.4733561543099961
-1.0302518667667555
0.07523637617621345
0.4733561543099961
-1.0331089036303236
0.07968601001937452
0.47404534890210664
-1.0331089036303236
0.07968601001937452
0.47404534890210664
-1.0331089036303236
0.07968601001937452
0.47404534890210664
-1.0331089036303236
0.07968601001937452
0.47404534890210664
-1.036081055674207
0.08350826333801765
0.47408756350575465
-1.036081055674207
0.08350826333801765
0.47408756350575465
-1.036081055674207
0.08350826333801765
0.47408756350575465
-1.036081055674207
0.08350826333801765
0.47408756350575465
-1.0363025080418822
0.08655667124111184
0.47428253107135165
-1.0363025080418822
0.08655667124111184
0.47428253107135165
-1.0363025080418822
0.08655667124111184
0.47428253107135165
-1.0363025080418822
0.08655667124111184
0.47428253107135165
-1.0339105080242077
0.08833554019669938
0.4742381596123479
-1.0339105080242077
0.08833554019669938
0.4742381596123479
-1.0339105080242077
0.08833554019669938
0.4742381596123479
-1.0339105080242077
0.08833554019669938
0.4742381596123479
-1.0341620909071103
0.08967138143037483
0.4739427719296616
-1.0341620909071103
0.08967138143037483
0.4739427719296616
-1.0341620909071103
0.08967138143037483
0.4739427719296616
-1.0341620909071103
0.08967138143037483
0.4739427719296616
-1.0370310975687462
0.09114176209390809
0.47367831636411606
-1.0370310975687462
0.09114176209390809
0.47367831636411606
-1.0370310975687462
0.09114176209390809
0.47367831636411606
-1.0370310975687462
0.09114176209390809
0.47367831636411606
-1.0386330752548634
0.09228696224796851
0.4731818435899442
-1.0386330752548634
0.09228696224796851
0.4731818435899442
-1.0386330752548634
0.09228696224796851
0.4731818435899442
-1.0386330752548634
0.09228696224796851
0.4731818435899442
-1.0392109140707038
0.09308183840073413
0.4720482210176547
-1.0392109140707038
0.09308183840073413
0.4720482210176547
-1.0392109140707038
0.09308183840073413
0.4720482210176547
-1.0392109140707038
0.09308183840073413
0.4720482210176547
-1.0389945398056553
0.09364171226177441
0.4711242628765486
-1.0389945398056553
0.09364171226177441
0.4711242628765486
-1.0389945398056553
0.09364171226177441
0.4711242628765486
-1.0389945398056553
0.09364171226177441
0.4711242628765486
-1.0390955780016846
0.09370952950917474
0.4709432281060671
-1.0390955780016846
0.09370952950917474
0.4709432281060671
-1.0390955780016846
0.09370952950917474
0.4709432281060671
-1.0390955780016846
0.09370952950917474
0.4709432281060671
-1.0396717106014841
0.09362801901154812
0.4710271036961679
-1.0396717106014841
0.09362801901154812
0.4710271036961679
-1.0396717106014841
0.09362801901154812
0.4710271036961679
-1.0396717106014841
0.09362801901154812
0.4710271036961679
-1.040165020891703
0.092780699844336
0.4708391300099918
-1.040165020891703
0.092780699844336
0.4708391300099918
-1.040165020891703
0.092780699844336
0.4708391300099918
-1.040165020891703
0.092780699844336
0.4708391300099918
-1.0406663738290434
0.09115556576035284
0.4707889069223683
-1.0406663738290434
0.09115556576035284
0.4707889069223683
-1.0406663738290434
0.09115556576035284
0.4707889069223683
-1.0406663738290434
0.09115556576035284
0.4707889069223683
-1.0423763146449025
0.08919387432883084
0.4705982225289868
-1.0423763146449025
0.08919387432883084
0.4705982225289868
-1.0423763146449025
0.08919387432883084
0.4705982225289868
-1.0423763146449025
0.08919387432883084
0.4705982225289868
-1.044363409137338
0.08732723844097341
0.46996759369988034
-1.044363409137338
0.08732723844097341
0.46996759369988034
-1.044363409137338
0.08732723844097341
0.46996759369988034
-1.044363409137338
0.08732723844097341
0.46996759369988034
-1.0443933707426503
0.08532879000644439
0.46947440942573077
-1.0443933707426503
0.08532879000644439
0.46947440942573077
-1.0443933707426503
0.08532879000644439
0.46947440942573077
-1.0443933707426503
0.08532879000644439
0.46947440942573077
-1.0447270134170266
0.08325927724155699
0.46924992322731157
-1.0447270134170266
0.08325927724155699
0.46924992322731157
-1.0447270134170266
0.08325927724155699
0.46924992322731157
-1.0447270134170266
0.08325927724155699
0.46924992322731157
-1.0445554503929393
0.08112626365599636
0.4691183025442053
-1.0445554503929393
0.08112626365599636
0.4691183025442053
-1.0445554503929393
0.08112626365599636
0.4691183025442053
-1.0445554503929393
0.08112626365599636
0.4691183025442053
-1.0442794953792316
0.07920916477783077
0.4691759394032148
-1.0442794953792316
0.07920916477783077
0.4691759394032148
-1.0442794953792316
0.07920916477783077
0.4691759394032148
-1.0442794953792316
0.07920916477783077
0.4691759394032148
-1.0449856629453078
0.0778659290937916
0.4692674700137276
-1.0449856629453078
0.0778659290937916
0.4692674700137276
-1.0449856629453078
0.0778659290937916
0.4692674700137276
-1.0449856629453078
0.0778659290937916
0.4692674700137276
-1.045494574284839
0.07695891366628747
0.4689821317459982
-1.045494574284839
0.07695891366628747
0.4689821317459982
-1.045494574284839
0.07695891366628747
0.4689821317459982
-1.045494574284839
0.07695891366628747
0.4689821317459982
-1.0449407315932542
0.07577415497143668
0.4684240464078416
-1.0449407315932542
0.07577415497143668
0.4684240464078416
-1.0449407315932542
0.07577415497143668
0.4684240464078416
-1.0449407315932542
0.07577415497143668
0.4684240464078416
-1.0452563979048786
0.07546894537070482
0.46776601335198487
-1.0452563979048786
0.07546894537070482
0.46776601335198487
-1.0452563979048786
0.07546894537070482
0.46776601335198487
-1.0452563979048786
0.07546894537070482
0.46776601335198487
-1.0462621061808752
0.0758224807820938
0.4669362954583653
-1.0462621061808752
0.0758224807820938
0.4669362954583653
-1.0462621061808752
0.0758224807820938
0.4669362954583653
-1.0462621061808752
0.0758224807820938
0.4669362954583653
-1.0466820951792446
0.07598769030289311
0.4662739627974726
-1.0466820951792446
0.07598769030289311
0.4662739627974726
-1.0466820951792446
0.07598769030289311
0.4662739627974726
-1.0466820951792446
0.07598769030289311
0.4662739627974726
-1.0461497894320755
0.07692749992997715
0.4654144644263374
-1.0461497894320755
0.07692749992997715
0.4654144644263374
-1.0461497894320755
0.07692749992997715
0.4654144644263374
-1.0461497894320755
0.07692749992997715
0.4654144644263374
-1.0465057335553918
0.07832752216850257
0.46493172912806946
-1.0465057335553918
0.07832752216850257
0.46493172912806946
-1.0465057335553918
0.07832752216850257
0.46493172912806946
-1.0465057335553918
0.07832752216850257
0.46493172912806946
-1.046780708705348
0.07960200423262605
0.46452519084629235
-1.046780708705348
0.07960200423262605
0.46452519084629235
-1.046780708705348
0.07960200423262605
0.46452519084629235
-1.046780708705348
0.07960200423262605
0.46452519084629235
-1.0469562544928561
0.08080947582058562
0.4642987537276178
-1.0469562544928561
0.08080947582058562
0.4642987537276178
-1.0469562544928561
0.08080947582058562
0.4642987537276178
-1.0469562544928561
0.08080947582058562
0.4642987537276178
-1.0472321993830092
0.08208381703452529
0.4638914998975612
-1.0472321993830092
0.08208381703452529
0.4638914998975612
-1.0472321993830092
0.08208381703452529
0.4638914998975612
-1.0472321993830092
0.08208381703452529
0.4638914998975612
-1.0468545565457608
0.0830325331651612
0.46346479456506917
-1.0468545565457608
0.0830325331651612
0.46346479456506917
-1.0468545565457608
0.0830325331651612
0.46346479456506917
-1.0468545565457608
0.0830325331651612
0.46346479456506917
-1.0447695193244964
0.08303491547149484
0.46339428829529067
-1.0447695193244964
0.08303491547149484
0.46339428829529067
-1.0447695193244964
0.08303491547149484
0.46339428829529067
-1.0447695193244964
0.08303491547149484
0.46339428829529067
-1.0430364599376272
0.08271267410250531
0.4638705853089544
-1.0430364599376272
0.08271267410250531
0.4638705853089544
-1.0430364599376272
0.08271267410250531
0.4638705853089544
-1.0430364599376272
0.08271267410250531
0.4638705853089544
-1.043503648154367
0.08203596769542996
0.46471451948968623
-1.043503648154367
0.08203596769542996
0.46471451948968623
-1.043503648154367
0.08203596769542996
0.46471451948968623
-1.043503648154367
0.08203596769542996
0.46471451948968623
-1.0443699097979136
0.08165597896390532
0.46516517148177866
-1.0443699097979136
0.08165597896390532
0.46516517148177866
-1.0443699097979136
0.08165597896390532
0.46516517148177866
-1.0443699097979136
0.08165597896390532
0.46516517148177866
-1.0451298864426057
0.08174825899408666
0.4654861623755874
-1.0451298864426057
0.08174825899408666
0.4654861623755874
-1.0451298864426057
0.08174825899408666
0.4654861623755874
-1.0451298864426057
0.08174825899408666
0.4654861623755874
-1.0449273591266683
0.0818697018178625
0.46552778296587166
-1.0449273591266683
0.0818697018178625
0.46552778296587166
-1.0449273591266683
0.0818697018178625
0.46552778296587166
-1.0449273591266683
0.0818697018178625
0.46552778296587166
-1.0441039443954347
0.08159385750886611
0.4651797118509477
-1.0441039443954347
0.08159385750886611
0.4651797118509477
-1.0441039443954347
0.08159385750886611
0.4651797118509477
-1.0441039443954347
0.08159385750886611
0.4651797118509477
-1.0446531637833936
0.08073504957199432
0.46469050430269776
-1.0446531637833936
0.08073504957199432
0.46469050430269776
-1.0446531637833936
0.08073504957199432
0.46469050430269776
-1.0446531637833936
0.08073504957199432
0.46469050430269776
-1.046044980920668
0.07891264555538456
0.4644104990954574
-1.046044980920668
0.07891264555538456
0.4644104990954574
-1.046044980920668
0.07891264555538456
0.4644104990954574
-1.046044980920668
0.07891264555538456
0.4644104990954574
-1.0479309047754388
0.07712009304404836
0.46446964071427466
-1.0479309047754388
0.07712009304404836
0.46446964071427466
-1.0479309047754388
0.07712009304404836
0.46446964071427466
-1.0479309047754388
0.07712009304404836
0.46446964071427466
-1.0495695300318453
0.07541757354641455
0.4642849053142413
-1.0495695300318453
0.07541757354641455
0.4642849053142413
-1.0495695300318453
0.07541757354641455
0.4642849053142413
-1.0495695300318453
0.07541757354641455
0.4642849053142413
-1.0501221611088003
0.0735700159611206
0.4640988537443783
-1.0501221611088003
0.0735700159611206
0.4640988537443783
-1.0501221611088003
0.0735700159611206
0.4640988537443783
-1.0501221611088003
0.0735700159611206
0.4640988537443783
-1.0518933196998508
0.07157775196160211
0.4633617339082039
-1.0518933196998508
0.07157775196160211
0.4633617339082039
-1.0518933196998508
0.07157775196160211
0.4633617339082039
-1.0518933196998508
0.07157775196160211
0.4633617339082039
-1.0541085491498532
0.07059755679959494
0.46270548059218236
-1.0541085491498532
0.07059755679959494
0.46270548059218236
-1.0541085491498532
0.07059755679959494
0.46270548059218236
-1.0541085491498532
0.07059755679959494
0.46270548059218236
-1.0548687985021765
0.06980945086690667
0.46176036985419094
-1.0548687985021765
0.06980945086690667
0.46176036985419094
-1.0548687985021765
0.06980945086690667
0.46176036985419094
-1.0548687985021765
0.06980945086690667
0.46176036985419094
-1.055809429677617
0.06997194784520121
0.46090541679766306
-1.055809429677617
0.06997194784520121
0.46090541679766306
-1.055809429677617
0.06997194784520121
0.46090541679766306
-1.055809429677617
0.06997194784520121
0.46090541679766306
-1.0571448765096463
0.0715340244886842
0.46027740479087437
-1.0571448765096463
0.0715340244886842
0.46027740479087437
-1.0571448765096463
0.0715340244886842
0.46027740479087437
-1.0571448765096463
0.0715340244886842
0.46027740479087437
-1.0582391143915486
0.07316978462446203
0.45988955364597517
-1.0582391143915486
0.07316978462446203
0.45988955364597517
-1.0582391143915486
0.07316978462446203
0.45988955364597517
-1.0582391143915486
0.07316978462446203
0.45988955364597517
-1.0587517827610757
0.07627999207277286
0.46003579519520366
-1.0587517827610757
0.07627999207277286
0.46003579519520366
-1.0587517827610757
0.07627999207277286
0.46003579519520366
-1.0587517827610757
0.07627999207277286
0.46003579519520366
-1.0566921993930178
0.0812187106677785
0.460471413341573
-1.0566921993930178
0.0812187106677785
0.460471413341573
-1.0566921993930178
0.0812187106677785
0.460471413341573
-1.0566921993930178
0.0812187106677785
0.460471413341573
-1.0531582237416814
0.08785741360281428
0.46127185832182754
-1.0531582237416814
0.08785741360281428
0.46127185832182754
-1.0531582237416814
0.08785741360281428
0.46127185832182754
-1.0531582237416814
0.08785741360281428
0.46127185832182754
-1.050408471149551
0.09666467998515745
0.4622670846137788
-1.050408471149551
0.09666467998515745
0.4622670846137788
-1.050408471149551
0.09666467998515745
0.4622670846137788
-1.050408471149551
0.09666467998515745
0.4622670846137788
-1.0456984355596828
0.10722710836341397
0.46372517292690096
-1.0456984355596828
0.10722710836341397
0.46372517292690096
-1.0456984355596828
0.10722710836341397
0.46372517292690096
-1.0456984355596828
0.10722710836341397
0.46372517292690096
-1.035385731728479
0.11889343034738943
0.4648017517495543
-1.035385731728479
0.11889343034738943
0.4648017517495543
-1.035385731728479
0.11889343034738943
0.4648017517495543
-1.035385731728479
0.11889343034738943
0.4648017517495543
-1.0238672391718695
0.13096319760838057
0.4662968466720173
-1.0238672391718695
0.13096319760838057
0.4662968466720173
-1.0238672391718695
0.13096319760838057
0.4662968466720173
-1.0238672391718695
0.13096319760838057
0.4662968466720173
-1.0109923099387526
0.14300824242202334
0.4693314652394367
-1.0109923099387526
0.14300824242202334
0.4693314652394367
-1.0109923099387526
0.14300824242202334
