-0.5496053637348596
0.07328308351410255
-0.34184977103120634
-0.5496053637348596
0.07328308351410255
-0.34184977103120634
-0.5496053637348596
0.07328308351410255
-0.34184977103120634
-0.5496053637348596
0.07328308351410255
-0.34184977103120634
-0.5498340443539176
0.0727268237843787
-0.3409500485716975
-0.5498340443539176
0.0727268237843787
-0.3409500485716975
-0.5498340443539176
0.0727268237843787
-0.3409500485716975
-0.5498340443539176
0.0727268237843787
-0.3409500485716975
-0.5497334148392413
0.07183433064361368
-0.3400474298124443
-0.5497334148392413
0.07183433064361368
-0.3400474298124443
-0.5497334148392413
0.07183433064361368
-0.3400474298124443
-0.5497334148392413
0.07183433064361368
-0.3400474298124443
-0.5496001783385271
0.07094319712761783
-0.3391239025469115
-0.5496001783385271
0.07094319712761783
-0.3391239025469115
-0.5496001783385271
0.07094319712761783
-0.3391239025469115
-0.5496001783385271
0.07094319712761783
-0.3391239025469115
-0.5497647360356678
0.06997383633537002
-0.3383553320880705
-0.5497647360356678
0.06997383633537002
-0.3383553320880705
-0.5497647360356678
0.06997383633537002
-0.3383553320880705
-0.5497647360356678
0.06997383633537002
-0.3383553320880705
-0.5500861211453022
0.06918145145873439
-0.3377677067845233
-0.5500861211453022
0.06918145145873439
-0.3377677067845233
-0.5500861211453022
0.06918145145873439
-0.3377677067845233
-0.5500861211453022
0.06918145145873439
-0.3377677067845233
-0.5502086487675583
0.06884585747871373
-0.3370308155913271
-0.5502086487675583
0.06884585747871373
-0.3370308155913271
-0.5502086487675583
0.06884585747871373
-0.3370308155913271
-0.5502086487675583
0.06884585747871373
-0.3370308155913271
-0.5502474235978505
0.06849620980766968
-0.33643217987882007
-0.5502474235978505
0.06849620980766968
-0.33643217987882007
-0.5502474235978505
0.06849620980766968
-0.33643217987882007
-0.5502474235978505
0.06849620980766968
-0.33643217987882007
-0.5503864162925057
0.06817627614871435
-0.3360762170019306
-0.5503864162925057
0.06817627614871435
-0.3360762170019306
-0.5503864162925057
0.06817627614871435
-0.3360762170019306
-0.5503864162925057
0.06817627614871435
-0.3360762170019306
-0.5503864162925057
0.06817627614871435
-0.3360762170019306
-0.5503864162925057
0.06817627614871435
-0.3360762170019306
-0.5503864162925057
0.06817627614871435
-0.3360762170019306
-0.5503864162925057
0.06817627614871435
-0.3360762170019306
-0.5502705808873706
0.06819702729875114
-0.33607781660596336
-0.5502705808873706
0.06819702729875114
-0.33607781660596336
-0.5502705808873706
0.06819702729875114
-0.33607781660596336
-0.5502705808873706
0.06819702729875114
-0.33607781660596336
-0.5501547416435998
0.06821777929772675
-0.3360794138540161
-0.5501547416435998
0.06821777929772675
-0.3360794138540161
-0.5501547416435998
0.06821777929772675
-0.3360794138540161
-0.5501547416435998
0.06821777929772675
-0.3360794138540161
-0.5509406434192832
0.06827240178718907
-0.3359131915543822
-0.5509406434192832
0.06827240178718907
-0.3359131915543822
-0.5509406434192832
0.06827240178718907
-0.3359131915543822
-0.5509406434192832
0.06827240178718907
-0.3359131915543822
-0.5520724441603072
0.0682315034341642
-0.3358580018452176
-0.5520724441603072
0.0682315034341642
-0.3358580018452176
-0.5520724441603072
0.0682315034341642
-0.3358580018452176
-0.5520724441603072
0.0682315034341642
-0.3358580018452176
-0.5528775847145527
0.06836840522140666
-0.3358412107083392
-0.5528775847145527
0.06836840522140666
-0.3358412107083392
-0.5528775847145527
0.06836840522140666
-0.3358412107083392
-0.5528775847145527
0.06836840522140666
-0.3358412107083392
-0.5534079249006413
0.06873259372546243
-0.3355882043080518
-0.5534079249006413
0.06873259372546243
-0.3355882043080518
-0.5534079249006413
0.06873259372546243
-0.3355882043080518
-0.5534079249006413
0.06873259372546243
-0.3355882043080518
-0.5534526413839466
0.06903070266678696
-0.33542385262487523
-0.5534526413839466
0.06903070266678696
-0.33542385262487523
-0.5534526413839466
0.06903070266678696
-0.33542385262487523
-0.5534526413839466
0.06903070266678696
-0.33542385262487523
-0.5530243303903396
0.06959581835975084
-0.3350469116029705
-0.5530243303903396
0.06959581835975084
-0.3350469116029705
-0.5530243303903396
0.06959581835975084
-0.3350469116029705
-0.5530243303903396
0.06959581835975084
-0.3350469116029705
-0.5530243303903396
0.06959581835975084
-0.3350469116029705
-0.5530243303903396
0.06959581835975084
-0.3350469116029705
-0.5530243303903396
0.06959581835975084
-0.3350469116029705
-0.5530243303903396
0.06959581835975084
-0.3350469116029705
-0.553045095550391
0.06971134717907425
-0.33508051548886575
-0.553045095550391
0.06971134717907425
-0.33508051548886575
-0.553045095550391
0.06971134717907425
-0.33508051548886575
-0.553045095550391
0.06971134717907425
-0.33508051548886575
-0.5528862220153538
0.06946748451474961
-0.33513065714502405
-0.5528862220153538
0.06946748451474961
-0.33513065714502405
-0.5528862220153538
0.06946748451474961
-0.33513065714502405
-0.5528862220153538
0.06946748451474961
-0.33513065714502405
-0.5528862220153538
0.06946748451474961
-0.33513065714502405
-0.5528862220153538
0.06946748451474961
-0.33513065714502405
-0.5528862220153538
0.06946748451474961
-0.33513065714502405
-0.5528862220153538
0.06946748451474961
-0.33513065714502405
-0.5532864830460713
0.06948579129943323
-0.33529622402629017
-0.5532864830460713
0.06948579129943323
-0.33529622402629017
-0.5532864830460713
0.06948579129943323
-0.33529622402629017
-0.5532864830460713
0.06948579129943323
-0.33529622402629017
-0.5541419970486682
0.06918852843348272
-0.3354090395775774
-0.5541419970486682
0.06918852843348272
-0.3354090395775774
-0.5541419970486682
0.06918852843348272
-0.3354090395775774
-0.5541419970486682
0.06918852843348272
-0.3354090395775774
-0.5551355962869894
0.06901957107004837
-0.33543794738060173
-0.5551355962869894
0.06901957107004837
-0.33543794738060173
-0.5551355962869894
0.06901957107004837
-0.33543794738060173
-0.5551355962869894
0.06901957107004837
-0.33543794738060173
-0.5557912771067968
0.06917899156986775
-0.33540248900665554
-0.5557912771067968
0.06917899156986775
-0.33540248900665554
-0.5557912771067968
0.06917899156986775
-0.33540248900665554
-0.5557912771067968
0.06917899156986775
-0.33540248900665554
-0.5567314048478554
0.06937712614129975
-0.3355342867254267
-0.5567314048478554
0.06937712614129975
-0.3355342867254267
-0.5567314048478554
0.06937712614129975
-0.3355342867254267
-0.5567314048478554
0.06937712614129975
-0.3355342867254267
-0.557536625737863
0.06951421241865229
-0.3355182701829612
-0.557536625737863
0.06951421241865229
-0.3355182701829612
-0.557536625737863
0.06951421241865229
-0.3355182701829612
-0.557536625737863
0.06951421241865229
-0.3355182701829612
-0.5579784592867196
0.06976292814497308
-0.33575165581145433
-0.5579784592867196
0.06976292814497308
-0.33575165581145433
-0.5579784592867196
0.06976292814497308
-0.33575165581145433
-0.5579784592867196
0.06976292814497308
-0.33575165581145433
-0.5585523179884829
0.06994145172024697
-0.3357390456605529
-0.5585523179884829
0.06994145172024697
-0.3357390456605529
-0.5585523179884829
0.06994145172024697
-0.3357390456605529
-0.5585523179884829
0.06994145172024697
-0.3357390456605529
-0.5592804845351085
0.06981535171988246
-0.33575033765227746
-0.5592804845351085
0.06981535171988246
-0.33575033765227746
-0.5592804845351085
0.06981535171988246
-0.33575033765227746
-0.5592804845351085
0.06981535171988246
-0.33575033765227746
-0.5595474421302333
0.06980615526175343
-0.3356522551445809
-0.5595474421302333
0.06980615526175343
-0.3356522551445809
-0.5595474421302333
0.06980615526175343
-0.3356522551445809
-0.5595474421302333
0.06980615526175343
-0.3356522551445809
-0.5596131451133439
0.069773299843248
-0.33524881200628276
-0.5596131451133439
0.069773299843248
-0.33524881200628276
-0.5596131451133439
0.069773299843248
-0.33524881200628276
-0.5596131451133439
0.069773299843248
-0.33524881200628276
-0.5600508303841312
0.06941045614392272
-0.33492979888243385
-0.5600508303841312
0.06941045614392272
-0.33492979888243385
-0.5600508303841312
0.06941045614392272
-0.33492979888243385
-0.5600508303841312
0.06941045614392272
-0.33492979888243385
-0.5600835641967198
0.06892811005296968
-0.33479215441442745
-0.5600835641967198
0.06892811005296968
-0.33479215441442745
-0.5600835641967198
0.06892811005296968
-0.33479215441442745
-0.5600835641967198
0.06892811005296968
-0.33479215441442745
-0.5592385265005397
0.06859373097163103
-0.33462463944484455
-0.5592385265005397
0.06859373097163103
-0.33462463944484455
-0.5592385265005397
0.06859373097163103
-0.33462463944484455
-0.5592385265005397
0.06859373097163103
-0.33462463944484455
-0.558933395103741
0.06843968015919147
-0.33442362977968004
-0.558933395103741
0.06843968015919147
-0.33442362977968004
-0.558933395103741
0.06843968015919147
-0.33442362977968004
-0.558933395103741
0.06843968015919147
-0.33442362977968004
-0.5595284924458466
0.06828710908229463
-0.3341707004044494
-0.5595284924458466
0.06828710908229463
-0.3341707004044494
-0.5595284924458466
0.06828710908229463
-0.3341707004044494
-0.5595284924458466
0.06828710908229463
-0.3341707004044494
-0.5606600658419784
0.06824743197166747
-0.3341153939260201
-0.5606600658419784
0.06824743197166747
-0.3341153939260201
-0.5606600658419784
0.06824743197166747
-0.3341153939260201
-0.5606600658419784
0.06824743197166747
-0.3341153939260201
-0.561592651831772
0.0682133914401422
-0.3341997559047163
-0.561592651831772
0.0682133914401422
-0.3341997559047163
-0.561592651831772
0.0682133914401422
-0.3341997559047163
-0.561592651831772
0.0682133914401422
-0.3341997559047163
-0.5622759506439475
0.06778904900635856
-0.3343733582237463
-0.5622759506439475
0.06778904900635856
-0.3343733582237463
-0.5622759506439475
0.06778904900635856
-0.3343733582237463
-0.5622759506439475
0.06778904900635856
-0.3343733582237463
-0.5619377670751607
0.06718530681712331
-0.3344376159967378
-0.5619377670751607
0.06718530681712331
-0.3344376159967378
-0.5619377670751607
0.06718530681712331
-0.3344376159967378
-0.5619377670751607
0.06718530681712331
-0.3344376159967378
-0.5612310451817669
0.06697969263347252
-0.3341871561500243
-0.5612310451817669
0.06697969263347252
-0.3341871561500243
-0.5612310451817669
0.06697969263347252
-0.3341871561500243
-0.5612310451817669
0.06697969263347252
-0.3341871561500243
-0.5612310451817669
0.06697969263347252
-0.3341871561500243
-0.5612310451817669
0.06697969263347252
-0.3341871561500243
-0.5612310451817669
0.06697969263347252
-0.3341871561500243
-0.5612310451817669
0.06697969263347252
-0.3341871561500243
-0.5612310451817669
0.06697969263347252
-0.3341871561500243
-0.5612310451817669
0.06697969263347252
-0.3341871561500243
-0.5612310451817669
0.06697969263347252
-0.3341871561500243
-0.5612310451817669
0.06697969263347252
-0.3341871561500243
-0.5602087347775448
0.06725155523157764
-0.33379202965932414
-0.5602087347775448
0.06725155523157764
-0.33379202965932414
-0.5602087347775448
0.06725155523157764
-0.33379202965932414
-0.5602087347775448
0.06725155523157764
-0.33379202965932414
-0.5585216411406752
0.06802837115302789
-0.33337203736836013
-0.5585216411406752
0.06802837115302789
-0.33337203736836013
-0.5585216411406752
0.06802837115302789
-0.33337203736836013
-0.5585216411406752
0.06802837115302789
-0.33337203736836013
-0.5566945040440343
0.06864213162244637
-0.33315000113074217
-0.5566945040440343
0.06864213162244637
-0.33315000113074217
-0.5566945040440343
0.06864213162244637
-0.33315000113074217
-0.5566945040440343
0.06864213162244637
-0.33315000113074217
-0.555757988342127
0.06905547606379593
-0.33356997294029556
-0.555757988342127
0.06905547606379593
-0.33356997294029556
-0.555757988342127
0.06905547606379593
-0.33356997294029556
-0.555757988342127
0.06905547606379593
-0.33356997294029556
-0.55396976915228
0.069447379990879
-0.33455854867237433
-0.55396976915228
0.069447379990879
-0.33455854867237433
-0.55396976915228
0.069447379990879
-0.33455854867237433
-0.55396976915228
0.069447379990879
-0.33455854867237433
-0.5493715892869553
0.06899696506188813
-0.3341853776884612
-0.5493715892869553
0.06899696506188813
-0.3341853776884612
-0.5493715892869553
0.06899696506188813
-0.3341853776884612
-0.5493715892869553
0.06899696506188813
-0.3341853776884612
-0.5507592979400827
0.0695794820033196
-0.33408546045088006
-0.5507592979400827
0.0695794820033196
-0.33408546045088006
-0.5507592979400827
0.0695794820033196
-0.33408546045088006
-0.5507592979400827
0.0695794820033196
-0.33408546045088006
-0.5557679263390649
0.07312053256589539
-0.3388650980094115
-0.5557679263390649
0.07312053256589539
-0.3388650980094115
-0.5557679263390649
0.07312053256589539
-0.3388650980094115
-0.5557679263390649
0.07312053256589539
-0.3388650980094115
-0.5709349832769279
0.0761757625866342
-0.3467615806797616
-0.5709349832769279
0.0761757625866342
-0.3467615806797616
-0.5709349832769279
0.0761757625866342
-0.3467615806797616
-0.5709349832769279
0.0761757625866342
-0.3467615806797616
-0.6141387300222673
0.07776582026219034
-0.3531772989141517
-0.6141387300222673
0.07776582026219034
-0.3531772989141517
-0.6141387300222673
0.07776582026219034
-0.3531772989141517
-0.6141387300222673
0.07776582026219034
-0.3531772989141517
-0.6977564263469448
0.08374569969939567
-0.3551981569019852
-0.6977564263469448
0.08374569969939567
-0.3551981569019852
-0.6977564263469448
0.08374569969939567
-0.3551981569019852
-0.6977564263469448
0.08374569969939567
-0.3551981569019852
-0.8130354788770708
0.09397000062655878
-0.36421459298945646
-0.8130354788770708
0.09397000062655878
-0.36421459298945646
-0.8130354788770708
0.09397000062655878
-0.36421459298945646
-0.8130354788770708
0.09397000062655878
-0.36421459298945646
-0.908892534299857
0.09946814046298534
-0.3793702467718229
-0.908892534299857
0.09946814046298534
-0.3793702467718229
-0.908892534299857
0.09946814046298534
-0.3793702467718229
-0.908892534299857
0.09946814046298534
-0.3793702467718229
-0.9389045784316233
0.10346338178483953
-0.39662516769533107
-0.9389045784316233
0.10346338178483953
-0.39662516769533107
-0.9389045784316233
0.10346338178483953
-0.39662516769533107
-0.9389045784316233
0.10346338178483953
-0.39662516769533107
-0.9229808238358969
0.11131161178603281
-0.4149351193804274
-0.9229808238358969
0.11131161178603281
-0.4149351193804274
-0.9229808238358969
0.11131161178603281
-0.4149351193804274
-0.9229808238358969
0.11131161178603281
-0.4149351193804274
-0.9168580533861026
0.11392279717789196
-0.42956600814468204
-0.9168580533861026
0.11392279717789196
-0.42956600814468204
-0.9168580533861026
0.11392279717789196
-0.42956600814468204
-0.9168580533861026
0.11392279717789196
-0.42956600814468204
-0.931536234224886
0.11063040349649168
-0.437673540941145
-0.931536234224886
0.11063040349649168
-0.437673540941145
-0.931536234224886
0.11063040349649168
-0.437673540941145
-0.931536234224886
0.11063040349649168
-0.437673540941145
-0.9538998398109626
0.10666829291976772
-0.4427197165125718
-0.9538998398109626
0.10666829291976772
-0.4427197165125718
-0.9538998398109626
0.10666829291976772
-0.4427197165125718
-0.9538998398109626
0.10666829291976772
-0.4427197165125718
-0.966522070063689
0.1027394079542784
-0.44684497564172065
-0.966522070063689
0.1027394079542784
-0.44684497564172065
-0.966522070063689
0.1027394079542784
-0.44684497564172065
-0.966522070063689
0.1027394079542784
-0.44684497564172065
-0.969914255295785
0.09706468951000383
-0.4495954041870548
-0.969914255295785
0.09706468951000383
-0.4495954041870548
-0.969914255295785
0.09706468951000383
-0.4495954041870548
-0.969914255295785
0.09706468951000383
-0.4495954041870548
-0.9671200851886256
0.08988736459264283
-0.45135371430996096
-0.9671200851886256
0.08988736459264283
-0.45135371430996096
-0.9671200851886256
0.08988736459264283
-0.45135371430996096
-0.9671200851886256
0.08988736459264283
-0.45135371430996096
-0.9624654459109664
0.08483069491906937
-0.45226831256890043
-0.9624654459109664
0.08483069491906937
-0.45226831256890043
-0.9624654459109664
0.08483069491906937
-0.45226831256890043
-0.9624654459109664
0.08483069491906937
-0.45226831256890043
-0.962027635130182
0.0833607739234828
-0.4525559576858107
-0.962027635130182
0.0833607739234828
-0.4525559576858107
-0.962027635130182
0.0833607739234828
-0.4525559576858107
-0.962027635130182
0.0833607739234828
-0.4525559576858107
-0.960862368174378
0.08328887494291605
-0.4531819702438208
-0.960862368174378
0.08328887494291605
-0.4531819702438208
-0.960862368174378
0.08328887494291605
-0.4531819702438208
-0.960862368174378
0.08328887494291605
-0.4531819702438208
-0.9583637915055011
0.08357273520784271
-0.45475344109481497
-0.9583637915055011
0.08357273520784271
-0.45475344109481497
-0.9583637915055011
0.08357273520784271
-0.45475344109481497
-0.9583637915055011
0.08357273520784271
-0.45475344109481497
-0.9544046405058118
0.08330283721903321
-0.45665263364464387
-0.9544046405058118
0.08330283721903321
-0.45665263364464387
-0.9544046405058118
0.08330283721903321
-0.45665263364464387
-0.9544046405058118
0.08330283721903321
-0.45665263364464387
-0.9508305574171483
0.08210667661180325
-0.4582546492564114
-0.9508305574171483
0.08210667661180325
-0.4582546492564114
-0.9508305574171483
0.08210667661180325
-0.4582546492564114
-0.9508305574171483
0.08210667661180325
-0.4582546492564114
-0.9482695717658571
0.08034385348118069
-0.45916681240832136
-0.9482695717658571
0.08034385348118069
-0.45916681240832136
-0.9482695717658571
0.08034385348118069
-0.45916681240832136
-0.9482695717658571
0.08034385348118069
-0.45916681240832136
-0.9478861353288455
0.0794221619094458
-0.45918269167279707
-0.9478861353288455
0.0794221619094458
-0.45918269167279707
-0.9478861353288455
0.0794221619094458
-0.45918269167279707
-0.9478861353288455
0.0794221619094458
-0.45918269167279707
-0.9498407310701508
0.07863067824731908
-0.459370255372904
-0.9498407310701508
0.07863067824731908
-0.459370255372904
-0.9498407310701508
0.07863067824731908
-0.459370255372904
-0.9498407310701508
0.07863067824731908
-0.459370255372904
-0.9496411564421017
0.07789137374947151
-0.4600830887029613
-0.9496411564421017
0.07789137374947151
-0.4600830887029613
-0.9496411564421017
0.07789137374947151
-0.4600830887029613
-0.9496411564421017
0.07789137374947151
-0.4600830887029613
-0.9469582665469766
0.07845731055243356
-0.46119183391982954
-0.9469582665469766
0.07845731055243356
-0.46119183391982954
-0.9469582665469766
0.07845731055243356
-0.46119183391982954
-0.9469582665469766
0.07845731055243356
-0.46119183391982954
-0.9454265768821533
0.08044985496666968
-0.46298929722657367
-0.9454265768821533
0.08044985496666968
-0.46298929722657367
-0.9454265768821533
0.08044985496666968
-0.46298929722657367
-0.9454265768821533
0.08044985496666968
-0.46298929722657367
-0.9439691017171608
0.08298452700487698
-0.4647665015160914
-0.9439691017171608
0.08298452700487698
-0.4647665015160914
-0.9439691017171608
0.08298452700487698
-0.4647665015160914
-0.9439691017171608
0.08298452700487698
-0.4647665015160914
-0.9435296096847474
0.08488450711951961
-0.46622170684718817
-0.9435296096847474
0.08488450711951961
-0.46622170684718817
-0.9435296096847474
0.08488450711951961
-0.46622170684718817
-0.9435296096847474
0.08488450711951961
-0.46622170684718817
-0.9444467976014079
0.08590727601874791
-0.4674742723517956
-0.9444467976014079
0.08590727601874791
-0.4674742723517956
-0.9444467976014079
0.08590727601874791
-0.4674742723517956
-0.9444467976014079
0.08590727601874791
-0.4674742723517956
-0.9449442164810969
0.08657532501039202
-0.468734330359568
-0.9449442164810969
0.08657532501039202
-0.468734330359568
-0.9449442164810969
0.08657532501039202
-0.468734330359568
-0.9449442164810969
0.08657532501039202
-0.468734330359568
-0.9440752810069604
0.0871821260405528
-0.46990680150800995
-0.9440752810069604
0.0871821260405528
-0.46990680150800995
-0.9440752810069604
0.0871821260405528
-0.46990680150800995
-0.9440752810069604
0.0871821260405528
-0.46990680150800995
-0.9410663181519466
0.08773709798588702
-0.47123749106332796
-0.9410663181519466
0.08773709798588702
-0.47123749106332796
-0.9410663181519466
0.08773709798588702
-0.47123749106332796
-0.9410663181519466
0.08773709798588702
-0.47123749106332796
-0.9368943648173818
0.08694765039966208
-0.47266804136321217
-0.9368943648173818
0.08694765039966208
-0.47266804136321217
-0.9368943648173818
0.08694765039966208
-0.47266804136321217
-0.9368943648173818
0.08694765039966208
-0.47266804136321217
-0.9352056436823579
0.08533328778643592
-0.47378248480207735
-0.9352056436823579
0.08533328778643592
-0.47378248480207735
-0.9352056436823579
0.08533328778643592
-0.47378248480207735
-0.9352056436823579
0.08533328778643592
-0.47378248480207735
-0.9366006491534392
0.08393839007027687
-0.47485573210398646
-0.9366006491534392
0.08393839007027687
-0.47485573210398646
-0.9366006491534392
0.08393839007027687
-0.47485573210398646
-0.9366006491534392
0.08393839007027687
-0.47485573210398646
-0.9374697070638831
0.08333829073909127
-0.47621514110502855
-0.9374697070638831
0.08333829073909127
-0.47621514110502855
-0.9374697070638831
0.08333829073909127
-0.47621514110502855
-0.9374697070638831
0.08333829073909127
-0.47621514110502855
-0.9369190530667889
0.08331356470782564
-0.4779411974549481
-0.9369190530667889
0.08331356470782564
-0.4779411974549481
-0.9369190530667889
0.08331356470782564
-0.4779411974549481
-0.9369190530667889
0.08331356470782564
-0.4779411974549481
-0.9356163824607253
0.0836984820857096
-0.47947844151722147
-0.9356163824607253
0.0836984820857096
-0.47947844151722147
-0.9356163824607253
0.0836984820857096
-0.47947844151722147
-0.9356163824607253
0.0836984820857096
-0.47947844151722147
-0.934285066649295
0.08453450261317583
-0.4803798526090614
-0.934285066649295
0.08453450261317583
-0.4803798526090614
-0.934285066649295
0.08453450261317583
-0.4803798526090614
-0.934285066649295
0.08453450261317583
-0.4803798526090614
-0.9339004496705855
0.08542050581142942
-0.4807770243625556
-0.9339004496705855
0.08542050581142942
-0.4807770243625556
-0.9339004496705855
0.08542050581142942
-0.4807770243625556
-0.9339004496705855
0.08542050581142942
-0.4807770243625556
-0.9332240562168137
0.08648541900632792
-0.48118885979115056
-0.9332240562168137
0.08648541900632792
-0.48118885979115056
-0.9332240562168137
0.08648541900632792
-0.48118885979115056
-0.9332240562168137
0.08648541900632792
-0.48118885979115056
-0.93175245545692
0.08679736599210622
-0.4818147850175975
-0.93175245545692
0.08679736599210622
-0.4818147850175975
-0.93175245545692
0.08679736599210622
-0.4818147850175975
-0.93175245545692
0.08679736599210622
-0.4818147850175975
-0.9311352954309673
0.087125244378322
-0.48258368359648324
-0.9311352954309673
0.087125244378322
-0.48258368359648324
-0.9311352954309673
0.087125244378322
-0.48258368359648324
-0.9311352954309673
0.087125244378322
-0.48258368359648324
-0.9305214567026562
0.08700091118193355
-0.4833917992505438
-0.9305214567026562
0.08700091118193355
-0.4833917992505438
-0.9305214567026562
0.08700091118193355
-0.4833917992505438
-0.9305214567026562
0.08700091118193355
-0.4833917992505438
-0.929184744397727
0.08672045482370579
-0.48402233540072714
-0.929184744397727
0.08672045482370579
-0.48402233540072714
-0.929184744397727
0.08672045482370579
-0.48402233540072714
-0.929184744397727
0.08672045482370579
-0.48402233540072714
-0.9270048388923358
0.0863039455704064
-0.484153119338304
-0.9270048388923358
0.0863039455704064
-0.484153119338304
-0.9270048388923358
0.0863039455704064
-0.484153119338304
-0.9270048388923358
0.0863039455704064
-0.484153119338304
-0.926599309760116
0.08578574627463309
-0.4842418904760295
-0.926599309760116
0.08578574627463309
-0.4842418904760295
-0.926599309760116
0.08578574627463309
-0.4842418904760295
-0.926599309760116
0.08578574627463309
-0.4842418904760295
-0.926116525644935
0.0856773252331224
-0.4841020337241984
-0.926116525644935
0.0856773252331224
-0.4841020337241984
-0.926116525644935
0.0856773252331224
-0.4841020337241984
-0.926116525644935
0.0856773252331224
-0.4841020337241984
-0.9254250823314292
0.0858449671990038
-0.4840591394083657
-0.9254250823314292
0.0858449671990038
-0.4840591394083657
-0.9254250823314292
0.0858449671990038
-0.4840591394083657
-0.9254250823314292
0.0858449671990038
-0.4840591394083657
-0.9252589750766134
0.08651122543039187
-0.4842497776586129
-0.9252589750766134
0.08651122543039187
-0.4842497776586129
-0.9252589750766134
0.08651122543039187
-0.4842497776586129
-0.9252589750766134
0.08651122543039187
-0.4842497776586129
-0.9252333612289293
0.0866250757160013
-0.4842753915062967
-0.9252333612289293
0.0866250757160013
-0.4842753915062967
-0.9252333612289293
0.0866250757160013
-0.4842753915062967
-0.9252333612289293
0.0866250757160013
-0.4842753915062967
-0.9252418487907559
0.08667904979407919
-0.4841696085116713
-0.9252418487907559
0.08667904979407919
-0.4841696085116713
-0.9252418487907559
0.08667904979407919
-0.4841696085116713
-0.9252418487907559
0.08667904979407919
-0.4841696085116713
-0.925835843548089
0.08726565879825436
-0.4841549911859343
-0.925835843548089
0.08726565879825436
-0.4841549911859343
-0.925835843548089
0.08726565879825436
-0.4841549911859343
-0.925835843548089
0.08726565879825436
-0.4841549911859343
-0.9265931542704818
0.08775857113014791
-0.48453239136036486
-0.9265931542704818
0.08775857113014791
-0.48453239136036486
-0.9265931542704818
0.08775857113014791
-0.48453239136036486
-0.9265931542704818
0.08775857113014791
-0.48453239136036486
-0.9272478640308016
0.08782707073737568
-0.48495870173022054
-0.9272478640308016
0.08782707073737568
-0.48495870173022054
-0.9272478640308016
0.08782707073737568
-0.48495870173022054
-0.9272478640308016
0.08782707073737568
-0.48495870173022054
-0.9272563359201614
0.08788116462353573
-0.48485297832184576
-0.9272563359201614
0.08788116462353573
-0.48485297832184576
-0.9272563359201614
0.08788116462353573
-0.48485297832184576
-0.9272563359201614
0.08788116462353573
-0.48485297832184576
-0.9260531892977653
0.08783536749738668
-0.48461473137381406
-0.9260531892977653
0.08783536749738668
-0.48461473137381406
-0.9260531892977653
0.08783536749738668
-0.48461473137381406
-0.9260531892977653
0.08783536749738668
-0.48461473137381406
-0.9260526909487061
0.08771535101973803
-0.48399192803858915
-0.9260526909487061
0.08771535101973803
-0.48399192803858915
-0.9260526909487061
0.08771535101973803
-0.48399192803858915
-0.9260526909487061
0.08771535101973803
-0.48399192803858915
-0.9265922794226621
0.08751887123244916
-0.4832867197681747
-0.9265922794226621
0.08751887123244916
-0.4832867197681747
-0.9265922794226621
0.08751887123244916
-0.4832867197681747
-0.9265922794226621
0.08751887123244916
-0.4832867197681747
-0.925443210888344
0.08734347936247501
-0.48245454052610626
-0.925443210888344
0.08734347936247501
-0.48245454052610626
-0.925443210888344
0.08734347936247501
-0.48245454052610626
-0.925443210888344
0.08734347936247501
-0.48245454052610626
-0.9243879972939614
0.08753741345798183
-0.4816791673038443
-0.9243879972939614
0.08753741345798183
-0.4816791673038443
-0.9243879972939614
0.08753741345798183
-0.4816791673038443
-0.9243879972939614
0.08753741345798183
-0.4816791673038443
-0.9234262215503405
0.08810086309834292
-0.4809600382687595
-0.9234262215503405
0.08810086309834292
-0.4809600382687595
-0.9234262215503405
0.08810086309834292
-0.4809600382687595
-0.9234262215503405
0.08810086309834292
-0.4809600382687595
-0.922514004533319
0.08814897430253645
-0.48041603037968217
-0.922514004533319
0.08814897430253645
-0.48041603037968217
-0.922514004533319
0.08814897430253645
-0.48041603037968217
-0.922514004533319
0.08814897430253645
-0.48041603037968217
-0.9217360888647035
0.08827383828953558
-0.4799177700224643
-0.9217360888647035
0.08827383828953558
-0.4799177700224643
-0.9217360888647035
0.08827383828953558
-0.4799177700224643
-0.9217360888647035
0.08827383828953558
-0.4799177700224643
-0.9214380702855496
0.08828897421365355
-0.479479929976948
-0.9214380702855496
0.08828897421365355
-0.479479929976948
-0.9214380702855496
0.08828897421365355
-0.479479929976948
-0.9214380702855496
0.08828897421365355
-0.479479929976948
-0.9207916904457382
0.08827123357629339
-0.47894772946521663
-0.9207916904457382
0.08827123357629339
-0.47894772946521663
-0.9207916904457382
0.08827123357629339
-0.47894772946521663
-0.9207916904457382
0.08827123357629339
-0.47894772946521663
-0.9204597731462336
0.08834598501410733
-0.47864145430399446
-0.9204597731462336
0.08834598501410733
-0.47864145430399446
-0.9204597731462336
0.08834598501410733
-0.47864145430399446
-0.9204597731462336
0.08834598501410733
-0.47864145430399446
-0.9193877408564636
0.0885506442075069
-0.47869942836332696
-0.9193877408564636
0.0885506442075069
-0.47869942836332696
-0.9193877408564636
0.0885506442075069
-0.47869942836332696
-0.9193877408564636
0.0885506442075069
-0.47869942836332696
-0.9185614868191547
0.0886387995885744
-0.4786093501864595
-0.9185614868191547
0.0886387995885744
-0.4786093501864595
-0.9185614868191547
0.0886387995885744
-0.4786093501864595
-0.9185614868191547
0.0886387995885744
-0.4786093501864595
-0.9194160928767159
0.08865624838309775
-0.4787533521920773
-0.9194160928767159
0.08865624838309775
-0.4787533521920773
-0.9194160928767159
0.08865624838309775
-0.4787533521920773
-0.9194160928767159
0.08865624838309775
-0.4787533521920773
-0.9201739442792377
0.08848059383436906
-0.47909192693953956
-0.9201739442792377
0.08848059383436906
-0.47909192693953956
-0.9201739442792377
0.08848059383436906
-0.47909192693953956
-0.9201739442792377
0.08848059383436906
-0.47909192693953956
-0.9202601079888628
0.08852233639478246
-0.47954622076737086
-0.9202601079888628
0.08852233639478246
-0.47954622076737086
-0.9202601079888628
0.08852233639478246
-0.47954622076737086
-0.9202601079888628
0.08852233639478246
-0.47954622076737086
-0.920121313372331
0.08833562647583995
-0.47997837437533336
-0.920121313372331
0.08833562647583995
-0.47997837437533336
-0.920121313372331
0.08833562647583995
-0.47997837437533336
-0.920121313372331
0.08833562647583995
-0.47997837437533336
-0.920198892759573
0.08820176095004426
-0.4799162054042006
-0.920198892759573
0.08820176095004426
-0.4799162054042006
-0.920198892759573
0.08820176095004426
-0.4799162054042006
-0.920198892759573
0.08820176095004426
-0.4799162054042006
-0.920198892759573
0.08820176095004426
-0.4799162054042006
-0.920198892759573
0.08820176095004426
-0.4799162054042006
-0.920198892759573
0.08820176095004426
-0.4799162054042006
-0.920198892759573
0.08820176095004426
-0.4799162054042006
-0.9198626072706781
0.08872906756118222
-0.4795679399301779
-0.9198626072706781
0.08872906756118222
-0.4795679399301779
-0.9198626072706781
0.08872906756118222
-0.4795679399301779
-0.9198626072706781
0.08872906756118222
-0.4795679399301779
-0.9155860583496381
0.09132734533418699
-0.4779566288053098
-0.9155860583496381
0.09132734533418699
-0.4779566288053098
-0.9155860583496381
0.09132734533418699
-0.4779566288053098
-0.9155860583496381
0.09132734533418699
-0.4779566288053098
-0.9076310991178356
0.0939995422075377
-0.4754583739775239
-0.9076310991178356
0.0939995422075377
-0.4754583739775239
-0.9076310991178356
0.0939995422075377
-0.4754583739775239
-0.9076310991178356
0.0939995422075377
-0.4754583739775239
-0.8953288151600697
0.09841329065501525
-0.47214148168666914
-0.8953288151600697
0.09841329065501525
-0.47214148168666914
-0.8953288151600697
0.09841329065501525
-0.47214148168666914
-0.8953288151600697
0.09841329065501525
-0.47214148168666914
-0.8772562088913365
0.10372236709632834
-0.46733285442154004
-0.8772562088913365
0.10372236709632834
-0.46733285442154004
-0.8772562088913365
0.10372236709632834
-0.46733285442154004
-0.8772562088913365
0.10372236709632834
-0.46733285442154004
-0.851585205939029
0.10733888822340734
-0.46161774014002405
-0.851585205939029
0.10733888822340734
-0.46161774014002405
-0.851585205939029
0.10733888822340734
-0.46161774014002405
-0.851585205939029
0.10733888822340734
-0.46161774014002405
-0.8194352671993581
0.10837758968761835
-0.45634708928901324
-0.8194352671993581
0.10837758968761835
-0.45634708928901324
-0.8194352671993581
0.10837758968761835
-0.45634708928901324
-0.8194352671993581
0.10837758968761835
-0.45634708928901324
-0.7817563877518422
0.10605151550475579
-0.4502185869026967
-0.7817563877518422
0.10605151550475579
-0.4502185869026967
-0.7817563877518422
0.10605151550475579
-0.4502185869026967
-0.7817563877518422
0.10605151550475579
-0.4502185869026967
-0.7407554599489534
0.10249979133512688
-0.4431825266999581
-0.7407554599489534
0.10249979133512688
-0.4431825266999581
-0.7407554599489534
0.10249979133512688
-0.4431825266999581
-0.7407554599489534
0.10249979133512688
-0.4431825266999581
-0.6959199257276735
0.09749318565312134
-0.43542963706689464
-0.6959199257276735
0.09749318565312134
-0.43542963706689464
-0.6959199257276735
0.09749318565312134
-0.43542963706689464
-0.6959199257276735
0.09749318565312134
-0.43542963706689464
-0.650409144966453
0.09037243074184219
-0.4268740306157074
-0.650409144966453
0.09037243074184219
-0.4268740306157074
-0.650409144966453
0.09037243074184219
-0.4268740306157074
-0.650409144966453
0.09037243074184219
-0.4268740306157074
-0.6094287002339112
0.08175795036753845
-0.41805640966818586
-0.6094287002339112
0.08175795036753845
-0.41805640966818586
-0.6094287002339112
0.08175795036753845
-0.41805640966818586
-0.6094287002339112
0.08175795036753845
-0.41805640966818586
-0.5748522898630307
0.07104967800443196
-0.4098824382411382
-0.5748522898630307
0.07104967800443196
-0.4098824382411382
-0.5748522898630307
0.07104967800443196
-0.4098824382411382
-0.5748522898630307
0.07104967800443196
-0.4098824382411382
-0.5485465339319945
0.058299094654333805
-0.4029387842962372
-0.5485465339319945
0.058299094654333805
-0.4029387842962372
-0.5485465339319945
0.058299094654333805
-0.4029387842962372
-0.5485465339319945
0.058299094654333805
-0.4029387842962372
-0.5269404159366231
0.04472242198442186
-0.3975061989698846
-0.5269404159366231
0.04472242198442186
-0.3975061989698846
-0.5269404159366231
0.04472242198442186
-0.3975061989698846
-0.5269404159366231
0.04472242198442186
-0.3975061989698846
-0.5024010213104984
0.02982220477938562
-0.393966255653148
-0.5024010213104984
0.02982220477938562
-0.393966255653148
-0.5024010213104984
0.02982220477938562
-0.393966255653148
-0.5024010213104984
0.02982220477938562
-0.393966255653148
-0.4744927882906306
0.016252724664695718
-0.3910362319132145
-0.4744927882906306
0.016252724664695718
-0.3910362319132145
-0.4744927882906306
0.016252724664695718
-0.3910362319132145
-0.4744927882906306
0.016252724664695718
-0.3910362319132145
-0.4468976674542559
0.005061393218269508
-0.38710308855637693
-0.4468976674542559
0.005061393218269508
-0.38710308855637693
-0.4468976674542559
0.005061393218269508
-0.38710308855637693
-0.4468976674542559
0.005061393218269508
-0.38710308855637693
-0.4248861209189469
-0.005270390535803288
-0.3811886010116205
-0.4248861209189469
-0.005270390535803288
-0.3811886010116205
-0.4248861209189469
-0.005270390535803288
-0.3811886010116205
-0.4248861209189469
-0.005270390535803288
-0.3811886010116205
-0.415232296335063
-0.014265624408058406
-0.3755154495316225
-0.415232296335063
-0.014265624408058406
-0.3755154495316225
-0.415232296335063
-0.014265624408058406
-0.3755154495316225
-0.415232296335063
-0.014265624408058406
-0.3755154495316225
-0.4184356166673537
-0.020809669187843036
-0.3711837983170997
-0.4184356166673537
-0.020809669187843036
-0.3711837983170997
-0.4184356166673537
-0.020809669187843036
-0.3711837983170997
-0.4184356166673537
-0.020809669187843036
-0.3711837983170997
-0.4278554986637576
-0.025158213862238515
-0.3683764725467046
-0.4278554986637576
-0.025158213862238515
-0.3683764725467046
-0.4278554986637576
-0.025158213862238515
-0.3683764725467046
-0.4278554986637576
-0.025158213862238515
-0.3683764725467046
-0.4371348216870588
-0.027622059799636455
-0.36643469354323865
-0.4371348216870588
-0.027622059799636455
-0.36643469354323865
-0.4371348216870588
-0.027622059799636455
-0.36643469354323865
-0.4371348216870588
-0.027622059799636455
-0.36643469354323865
-0.44303099693559483
-0.028736769459391402
-0.36534602830856033
-0.44303099693559483
-0.028736769459391402
-0.36534602830856033
-0.44303099693559483
-0.028736769459391402
-0.36534602830856033
-0.44303099693559483
-0.028736769459391402
-0.36534602830856033
-0.44553897591136055
-0.028092055012604755
-0.36490854427740166
-0.44553897591136055
-0.028092055012604755
-0.36490854427740166
-0.44553897591136055
-0.028092055012604755
-0.36490854427740166
-0.44553897591136055
-0.028092055012604755
-0.36490854427740166
-0.44570036909187727
-0.027108232237148866
-0.36436788747712606
-0.44570036909187727
-0.027108232237148866
-0.36436788747712606
-0.44570036909187727
-0.027108232237148866
-0.36436788747712606
-0.44570036909187727
-0.027108232237148866
-0.36436788747712606
-0.44571449711780897
-0.0262849275270268
-0.36354692769640273
-0.44571449711780897
-0.0262849275270268
-0.36354692769640273
-0.44571449711780897
-0.0262849275270268
-0.36354692769640273
-0.44571449711780897
-0.0262849275270268
-0.36354692769640273
-0.44710872517375533
-0.02617007196050809
-0.36246913980257073
-0.44710872517375533
-0.02617007196050809
-0.36246913980257073
-0.44710872517375533
-0.02617007196050809
-0.36246913980257073
-0.44710872517375533
-0.02617007196050809
-0.36246913980257073
-0.45066850065831254
-0.02660612820780554
-0.36093436062167716
-0.45066850065831254
-0.02660612820780554
-0.36093436062167716
-0.45066850065831254
-0.02660612820780554
-0.36093436062167716
-0.45066850065831254
-0.02660612820780554
-0.36093436062167716
-0.4555621784162313
-0.027493264157724004
-0.35921837923347755
-0.4555621784162313
-0.027493264157724004
-0.35921837923347755
-0.4555621784162313
-0.027493264157724004
-0.35921837923347755
-0.4555621784162313
-0.027493264157724004
-0.35921837923347755
-0.4589847614673656
-0.028709197237197125
-0.3573731600128785
-0.4589847614673656
-0.028709197237197125
-0.3573731600128785
-0.4589847614673656
-0.028709197237197125
-0.3573731600128785
-0.4589847614673656
-0.028709197237197125
-0.3573731600128785
-0.4593268467656838
-0.02945137022255211
-0.355938674523691
-0.4593268467656838
-0.02945137022255211
-0.355938674523691
-0.4593268467656838
-0.02945137022255211
-0.355938674523691
-0.4593268467656838
-0.02945137022255211
-0.355938674523691
-0.4575153586068026
-0.029445285468211457
-0.35462217630306986
-0.4575153586068026
-0.029445285468211457
-0.35462217630306986
-0.4575153586068026
-0.029445285468211457
-0.35462217630306986
-0.4575153586068026
-0.029445285468211457
-0.35462217630306986
-0.4552084847779813
-0.029202532338013936
-0.3532005175618812
-0.4552084847779813
-0.029202532338013936
-0.3532005175618812
-0.4552084847779813
-0.029202532338013936
-0.3532005175618812
-0.4552084847779813
-0.029202532338013936
-0.3532005175618812
-0.453966728841544
-0.028884863878055653
-0.3517239614277136
-0.453966728841544
-0.028884863878055653
-0.3517239614277136
-0.453966728841544
-0.028884863878055653
-0.3517239614277136
-0.453966728841544
-0.028884863878055653
-0.3517239614277136
-0.4544433509411964
-0.028062885570493797
-0.3500126342586215
-0.4544433509411964
-0.028062885570493797
-0.3500126342586215
-0.4544433509411964
-0.028062885570493797
-0.3500126342586215
-0.4544433509411964
-0.028062885570493797
-0.3500126342586215
-0.4550122234305956
-0.02671769700753408
-0.3481746808991354
-0.4550122234305956
-0.02671769700753408
-0.3481746808991354
-0.4550122234305956
-0.02671769700753408
-0.3481746808991354
-0.4550122234305956
-0.02671769700753408
-0.3481746808991354
-0.4548094421804145
-0.02544208468579283
-0.3466796263883842
-0.4548094421804145
-0.02544208468579283
-0.3466796263883842
-0.4548094421804145
-0.02544208468579283
-0.3466796263883842
-0.4548094421804145
-0.02544208468579283
-0.3466796263883842
-0.4541832371946404
-0.02363819994983537
-0.3454133972747937
-0.4541832371946404
-0.02363819994983537
-0.3454133972747937
-0.4541832371946404
-0.02363819994983537
-0.3454133972747937
-0.4541832371946404
-0.02363819994983537
-0.3454133972747937
-0.4531991956289715
-0.021764923346189097
-0.34465993488705493
-0.4531991956289715
-0.021764923346189097
-0.34465993488705493
-0.4531991956289715
-0.021764923346189097
-0.34465993488705493
-0.4531991956289715
-0.021764923346189097
-0.34465993488705493
-0.45202287714258743
-0.019730643440085134
-0.3444590931137546
-0.45202287714258743
-0.019730643440085134
-0.3444590931137546
-0.45202287714258743
-0.019730643440085134
-0.3444590931137546
-0.45202287714258743
-0.019730643440085134
-0.3444590931137546
-0.45285328153314525
-0.01720083322941178
-0.34443820154819016
-0.45285328153314525
-0.01720083322941178
-0.34443820154819016
-0.45285328153314525
-0.01720083322941178
-0.34443820154819016
-0.45285328153314525
-0.01720083322941178
-0.34443820154819016
-0.45548079257459023
-0.014528325412115519
-0.3446270275476579
-0.45548079257459023
-0.014528325412115519
-0.3446270275476579
-0.45548079257459023
-0.014528325412115519
-0.3446270275476579
-0.45548079257459023
-0.014528325412115519
-0.3446270275476579
-0.46246034321418283
-0.01046539043089363
-0.3459359463414815
-0.46246034321418283
-0.01046539043089363
-0.3459359463414815
-0.46246034321418283
-0.01046539043089363
-0.3459359463414815
-0.46246034321418283
-0.01046539043089363
-0.3459359463414815
-0.474639755582806
-0.0034903570553304333
-0.3493368277332954
-0.474639755582806
-0.0034903570553304333
-0.3493368277332954
-0.474639755582806
-0.0034903570553304333
-0.3493368277332954
-0.474639755582806
-0.0034903570553304333
-0.3493368277332954
-0.4919587192159598
0.005626960263926354
-0.35478176410231677
-0.4919587192159598
0.005626960263926354
-0.35478176410231677
-0.4919587192159598
0.005626960263926354
-0.35478176410231677
-0.4919587192159598
0.005626960263926354
-0.35478176410231677
-0.5178040089275004
0.015567836528384572
-0.3633218568971371
-0.5178040089275004
0.015567836528384572
-0.3633218568971371
-0.5178040089275004
0.015567836528384572
-0.3633218568971371
-0.5178040089275004
0.015567836528384572
-0.3633218568971371
-0.5561638813201919
0.025292369846853836
-0.3754444157868825
-0.5561638813201919
0.025292369846853836
-0.3754444157868825
-0.5561638813201919
0.025292369846853836
-0.3754444157868825
-0.5561638813201919
0.025292369846853836
-0.3754444157868825
-0.6089717515648321
0.03255459375235586
-0.38782977905097576
-0.6089717515648321
0.03255459375235586
-0.38782977905097576
-0.6089717515648321
0.03255459375235586
-0.38782977905097576
-0.6089717515648321
0.03255459375235586
-0.38782977905097576
-0.6775135033286728
0.03971228800613037
-0.399950009048506
-0.6775135033286728
0.03971228800613037
-0.399950009048506
-0.6775135033286728
0.03971228800613037
-0.399950009048506
-0.6775135033286728
0.03971228800613037
-0.399950009048506
-0.7614601469705039
0.05200057287921877
-0.4174659843988297
-0.7614601469705039
0.05200057287921877
-0.4174659843988297
-0.7614601469705039
0.05200057287921877
-0.4174659843988297
-0.7614601469705039
0.05200057287921877
-0.4174659843988297
-0.8532889635669819
0.06436410594124997
-0.4374738341188746
-0.8532889635669819
0.06436410594124997
-0.4374738341188746
-0.8532889635669819
0.06436410594124997
-0.4374738341188746
-0.8532889635669819
0.06436410594124997
-0.4374738341188746
-0.9215241010491904
0.07179527652444022
-0.45581841036160253
-0.9215241010491904
0.07179527652444022
-0.45581841036160253
-0.9215241010491904
0.07179527652444022
-0.45581841036160253
-0.9215241010491904
0.07179527652444022
-0.45581841036160253
-0.943238752885387
0.07682323057092671
-0.47450987095299485
-0.943238752885387
0.07682323057092671
-0.47450987095299485
-0.943238752885387
0.07682323057092671
-0.47450987095299485
-0.943238752885387
0.07682323057092671
-0.47450987095299485
-0.9381279799685995
0.07959283187575024
-0.4911174924354373
-0.9381279799685995
0.07959283187575024
-0.4911174924354373
-0.9381279799685995
0.07959283187575024
-0.4911174924354373
-0.9381279799685995
0.07959283187575024
-0.4911174924354373
-0.9417430571955443
0.07912050181180985
-0.5051189640369176
-0.9417430571955443
0.07912050181180985
-0.5051189640369176
-0.9417430571955443
0.07912050181180985
-0.5051189640369176
-0.9417430571955443
0.07912050181180985
-0.5051189640369176
-0.9634804378011761
0.07739444396895923
-0.5144577386720618
-0.9634804378011761
0.07739444396895923
-0.5144577386720618
-0.9634804378011761
0.07739444396895923
-0.5144577386720618
-0.9634804378011761
0.07739444396895923
-0.5144577386720618
-0.9875788686966472
0.07676765868953235
-0.5211334213436516
-0.9875788686966472
0.07676765868953235
-0.5211334213436516
-0.9875788686966472
0.07676765868953235
-0.5211334213436516
-0.9875788686966472
0.07676765868953235
-0.5211334213436516
-0.9987432619558902
0.07595883097150598
-0.5274244324736093
-0.9987432619558902
0.07595883097150598
-0.5274244324736093
-0.9987432619558902
0.07595883097150598
-0.5274244324736093
-0.9987432619558902
0.07595883097150598
-0.5274244324736093
-1.0020262956986135
0.07443293122739335
-0.5325213087303935
-1.0020262956986135
0.07443293122739335
-0.5325213087303935
-1.0020262956986135
0.07443293122739335
-0.5325213087303935
-1.0020262956986135
0.07443293122739335
-0.5325213087303935
-1.0014198160066012
0.07180924001725447
-0.5349713028791487
-1.0014198160066012
0.07180924001725447
-0.5349713028791487
-1.0014198160066012
0.07180924001725447
-0.5349713028791487
-1.0014198160066012
0.07180924001725447
-0.5349713028791487
-1.0008982907845378
0.07004476877075884
-0.534182751465196
-1.0008982907845378
0.07004476877075884
-0.534182751465196
-1.0008982907845378
0.07004476877075884
-0.534182751465196
-1.0008982907845378
0.07004476877075884
-0.534182751465196
-0.999678223608311
0.06963153034651237
-0.5322793451939439
-0.999678223608311
0.06963153034651237
-0.5322793451939439
-0.999678223608311
0.06963153034651237
-0.5322793451939439
-0.999678223608311
0.06963153034651237
-0.5322793451939439
-0.9967752198834001
0.06928072910973684
-0.530267740992488
-0.9967752198834001
0.06928072910973684
-0.530267740992488
-0.9967752198834001
0.06928072910973684
-0.530267740992488
-0.9967752198834001
0.06928072910973684
-0.530267740992488
-0.9942831817722981
0.06957734204687445
-0.5271139557495209
-0.9942831817722981
0.06957734204687445
-0.5271139557495209
-0.9942831817722981
0.06957734204687445
-0.5271139557495209
-0.9942831817722981
0.06957734204687445
-0.5271139557495209
-0.9906335517865439
0.0700796132461391
-0.5233166597993515
-0.9906335517865439
0.0700796132461391
-0.5233166597993515
-0.9906335517865439
0.0700796132461391
-0.5233166597993515
-0.9906335517865439
0.0700796132461391
-0.5233166597993515
-0.9863235097453347
0.07055764721738102
-0.5200887430815271
-0.9863235097453347
0.07055764721738102
-0.5200887430815271
-0.9863235097453347
0.07055764721738102
-0.5200887430815271
-0.9863235097453347
0.07055764721738102
-0.5200887430815271
-0.9819838247538007
0.0698184581693186
-0.5183629901780537
-0.9819838247538007
0.0698184581693186
-0.5183629901780537
-0.9819838247538007
0.0698184581693186
-0.5183629901780537
-0.9819838247538007
0.0698184581693186
-0.5183629901780537
-0.9791304294367998
0.06860689981863136
-0.5173277510146246
-0.9791304294367998
0.06860689981863136
-0.5173277510146246
-0.9791304294367998
0.06860689981863136
-0.5173277510146246
-0.9791304294367998
0.06860689981863136
-0.5173277510146246
-0.977597686631013
0.06828950435919093
-0.5164578004344755
-0.977597686631013
0.06828950435919093
-0.5164578004344755
-0.977597686631013
0.06828950435919093
-0.5164578004344755
-0.977597686631013
0.06828950435919093
-0.5164578004344755
-0.9751512292329171
0.06786981901805031
-0.5159664360893601
-0.9751512292329171
0.06786981901805031
-0.5159664360893601
-0.9751512292329171
0.06786981901805031
-0.5159664360893601
-0.9751512292329171
0.06786981901805031
-0.5159664360893601
-0.9738438478366205
0.06719813000205867
-0.515959216637385
-0.9738438478366205
0.06719813000205867
-0.515959216637385
-0.9738438478366205
0.06719813000205867
-0.515959216637385
-0.9738438478366205
0.06719813000205867
-0.515959216637385
-0.9747635028455862
0.0667798158281295
-0.5163111463101075
-0.9747635028455862
0.0667798158281295
-0.5163111463101075
-0.9747635028455862
0.0667798158281295
-0.5163111463101075
-0.9747635028455862
0.0667798158281295
-0.5163111463101075
-0.9766520952185817
0.06740471556559392
-0.5169876657332044
-0.9766520952185817
0.06740471556559392
-0.5169876657332044
-0.9766520952185817
0.06740471556559392
-0.5169876657332044
-0.9766520952185817
0.06740471556559392
-0.5169876657332044
-0.9763716232940907
0.06813786131040982
-0.5178694158280512
-0.9763716232940907
0.06813786131040982
-0.5178694158280512
-0.9763716232940907
0.06813786131040982
-0.5178694158280512
-0.9763716232940907
0.06813786131040982
-0.5178694158280512
-0.9747660516470613
0.06849314983916278
-0.5190969732333903
-0.9747660516470613
0.06849314983916278
-0.5190969732333903
-0.9747660516470613
0.06849314983916278
-0.5190969732333903
-0.9747660516470613
0.06849314983916278
-0.5190969732333903
-0.9752348094345236
0.0684685203897954
-0.5197074493153991
-0.9752348094345236
0.0684685203897954
-0.5197074493153991
-0.9752348094345236
0.0684685203897954
-0.5197074493153991
-0.9752348094345236
0.0684685203897954
-0.5197074493153991
-0.9779316495304635
0.06883140416453952
-0.5196786001990759
-0.9779316495304635
0.06883140416453952
-0.5196786001990759
-0.9779316495304635
0.06883140416453952
-0.5196786001990759
-0.9779316495304635
0.06883140416453952
-0.5196786001990759
-0.9795120179014629
0.06909943394923719
-0.5192506591229789
-0.9795120179014629
0.06909943394923719
-0.5192506591229789
-0.9788753027089746
0.06949695031933839
-0.5190664464451651
-0.9788753027089746
0.06949695031933839
-0.5190664464451651
-0.9788753027089746
0.06949695031933839
-0.5190664464451651
-0.9788753027089746
0.06949695031933839
-0.5190664464451651
-0.9767947326595126
0.06959611365303683
-0.5187293419301998
-0.9767947326595126
0.06959611365303683
-0.5187293419301998
-0.9767947326595126
0.06959611365303683
-0.5187293419301998
-0.9767947326595126
0.06959611365303683
-0.5187293419301998
-0.9749901735302637
0.06985033130595451
-0.5185529398488792
-0.9749901735302637
0.06985033130595451
-0.5185529398488792
-0.9749901735302637
0.06985033130595451
-0.5185529398488792
-0.9749901735302637
0.06985033130595451
-0.5185529398488792
-0.9754466504855102
0.07052336253045506
-0.5184266472604653
-0.9754466504855102
0.07052336253045506
-0.5184266472604653
-0.9754466504855102
0.07052336253045506
-0.5184266472604653
-0.9754466504855102
0.07052336253045506
-0.5184266472604653
-0.9778164948961744
0.07068550666398622
-0.5186479796042842
-0.9778164948961744
0.07068550666398622
-0.5186479796042842
-0.9778164948961744
0.07068550666398622
-0.5186479796042842
-0.9778164948961744
0.07068550666398622
-0.5186479796042842
-0.9791407976690945
0.07118435289295835
-0.5187357157270861
-0.9791407976690945
0.07118435289295835
-0.5187357157270861
-0.9791407976690945
0.07118435289295835
-0.5187357157270861
-0.9791407976690945
0.07118435289295835
-0.5187357157270861
-0.9791073569136726
0.07147745955504291
-0.5187560953153376
-0.9791073569136726
0.07147745955504291
-0.5187560953153376
-0.9791073569136726
0.07147745955504291
-0.5187560953153376
-0.9791073569136726
0.07147745955504291
-0.5187560953153376
-0.9793518924122216
0.07197487481018555
-0.5187638442757987
-0.9793518924122216
0.07197487481018555
-0.5187638442757987
-0.9793518924122216
0.07197487481018555
-0.5187638442757987
-0.9793518924122216
0.07197487481018555
-0.5187638442757987
-0.9800853613425048
0.07234103471279789
-0.5190920400276299
-0.9800853613425048
0.07234103471279789
-0.5190920400276299
-0.9800853613425048
0.07234103471279789
-0.5190920400276299
-0.9800853613425048
0.07234103471279789
-0.5190920400276299
-0.980287096278061
0.07324413367196776
-0.5194822241603378
-0.980287096278061
0.07324413367196776
-0.5194822241603378
-0.980287096278061
0.07324413367196776
-0.5194822241603378
-0.980287096278061
0.07324413367196776
-0.5194822241603378
-0.9806480469964257
0.07393738549762674
-0.5196336247750484
-0.9806480469964257
0.07393738549762674
-0.5196336247750484
-0.9806480469964257
0.07393738549762674
-0.5196336247750484
-0.9806480469964257
0.07393738549762674
-0.5196336247750484
-0.9806480469964257
0.07393738549762674
-0.5196336247750484
-0.9806480469964257
0.07393738549762674
-0.5196336247750484
-0.9806480469964257
0.07393738549762674
-0.5196336247750484
-0.9806480469964257
0.07393738549762674
-0.5196336247750484
-0.9806778315311239
0.07404084230682322
-0.5196903214851076
-0.9806778315311239
0.07404084230682322
-0.5196903214851076
-0.9806778315311239
0.07404084230682322
-0.5196903214851076
-0.9806778315311239
0.07404084230682322
-0.5196903214851076
-0.9806574327761399
0.07382476614706478
-0.5192720403869518
-0.9806574327761399
0.07382476614706478
-0.5192720403869518
-0.9806574327761399
0.07382476614706478
-0.5192720403869518
-0.9806574327761399
0.07382476614706478
-0.5192720403869518
-0.9806531450375626
0.07343777428417723
-0.5189305819402277
-0.9806531450375626
0.07343777428417723
-0.5189305819402277
-0.9806531450375626
0.07343777428417723
-0.5189305819402277
-0.9806531450375626
0.07343777428417723
-0.5189305819402277
-0.980623417682255
0.07333430025046571
-0.5188738928017775
-0.980623417682255
0.07333430025046571
-0.5188738928017775
-0.980623417682255
0.07333430025046571
-0.5188738928017775
-0.980623417682255
0.07333430025046571
-0.5188738928017775
-0.980623417682255
0.07333430025046571
-0.5188738928017775
-0.980623417682255
0.07333430025046571
-0.5188738928017775
-0.980623417682255
0.07333430025046571
-0.5188738928017775
-0.980623417682255
0.07333430025046571
-0.5188738928017775
-0.9809319316113991
0.07302751472413059
-0.5187573451311264
-0.9809319316113991
0.07302751472413059
-0.5187573451311264
-0.9809319316113991
0.07302751472413059
-0.5187573451311264
-0.9809319316113991
0.07302751472413059
-0.5187573451311264
-0.9813972577844515
0.07307677751515029
-0.5187368200673301
-0.9813972577844515
0.07307677751515029
-0.5187368200673301
-0.9813972577844515
0.07307677751515029
-0.5187368200673301
-0.9813972577844515
0.07307677751515029
-0.5187368200673301
-0.9810960468841826
0.07259035985168241
-0.5186987326873399
-0.9810960468841826
0.07259035985168241
-0.5186987326873399
-0.9810960468841826
0.07259035985168241
-0.5186987326873399
-0.9810960468841826
0.07259035985168241
-0.5186987326873399
-0.9806751244209292
0.07230452983107997
-0.5185950404720192
-0.9806751244209292
0.07230452983107997
-0.5185950404720192
-0.9806751244209292
0.07230452983107997
-0.5185950404720192
-0.9806751244209292
0.07230452983107997
-0.5185950404720192
-0.9801554553528151
0.07182079677043242
-0.518683053481461
-0.9801554553528151
0.07182079677043242
-0.518683053481461
-0.9801554553528151
0.07182079677043242
-0.518683053481461
-0.9801554553528151
0.07182079677043242
-0.518683053481461
-0.9796581013260878
0.07098752881781749
-0.5188546470095677
-0.9796581013260878
0.07098752881781749
-0.5188546470095677
-0.9796581013260878
0.07098752881781749
-0.5188546470095677
-0.9796581013260878
0.07098752881781749
-0.5188546470095677
-0.9797704284783652
0.07033386758032063
-0.5189471194033363
-0.9797704284783652
0.07033386758032063
-0.5189471194033363
-0.9797704284783652
0.07033386758032063
-0.5189471194033363
-0.9797704284783652
0.07033386758032063
-0.5189471194033363
-0.9803368286287193
0.06967282569034135
-0.5191219585241691
-0.9803368286287193
0.06967282569034135
-0.5191219585241691
-0.9803368286287193
0.06967282569034135
-0.5191219585241691
-0.9803368286287193
0.06967282569034135
-0.5191219585241691
-0.980772345812451
0.06915588243622164
-0.5193346063299481
-0.980772345812451
0.06915588243622164
-0.5193346063299481
-0.980772345812451
0.06915588243622164
-0.5193346063299481
-0.980772345812451
0.06915588243622164
-0.5193346063299481
-0.9808289693190029
0.06914472664061458
-0.5193642311993125
-0.9808289693190029
0.06914472664061458
-0.5193642311993125
-0.9808289693190029
0.06914472664061458
-0.5193642311993125
-0.9808289693190029
0.06914472664061458
-0.5193642311993125
-0.9815722028742443
0.06939813269994136
-0.5193300346534526
-0.9815722028742443
0.06939813269994136
-0.5193300346534526
-0.9815722028742443
0.06939813269994136
-0.5193300346534526
-0.9815722028742443
0.06939813269994136
-0.5193300346534526
-0.9815722028742443
0.06939813269994136
-0.5193300346534526
-0.9815722028742443
0.06939813269994136
-0.5193300346534526
-0.9815722028742443
0.06939813269994136
-0.5193300346534526
-0.9815722028742443
0.06939813269994136
-0.5193300346534526
-0.9812080296211947
0.06910141558876375
-0.5192565476496135
-0.9812080296211947
0.06910141558876375
-0.5192565476496135
-0.9812080296211947
0.06910141558876375
-0.5192565476496135
-0.9812080296211947
0.06910141558876375
-0.5192565476496135
-0.9812080296211947
0.06910141558876375
-0.5192565476496135
-0.9812080296211947
0.06910141558876375
-0.5192565476496135
-0.9812080296211947
0.06910141558876375
-0.5192565476496135
-0.9812080296211947
0.06910141558876375
-0.5192565476496135
-0.9827854578013081
0.06947281159454002
-0.5194550478659355
-0.9827854578013081
0.06947281159454002
-0.5194550478659355
-0.9827854578013081
0.06947281159454002
-0.5194550478659355
-0.9827854578013081
0.06947281159454002
-0.5194550478659355
-0.9843225311165507
0.07046672210676717
-0.5201211182300053
-0.9843225311165507
0.07046672210676717
-0.5201211182300053
-0.9843225311165507
0.07046672210676717
-0.5201211182300053
-0.9843225311165507
0.07046672210676717
-0.5201211182300053
-0.9848072374635585
0.07134507247283754
-0.520680949928187
-0.9848072374635585
0.07134507247283754
-0.520680949928187
-0.9848072374635585
0.07134507247283754
-0.520680949928187
-0.9848072374635585
0.07134507247283754
-0.520680949928187
-0.984138774457216
0.07174206072701904
-0.5210661624914399
-0.984138774457216
0.07174206072701904
-0.5210661624914399
-0.984138774457216
0.07174206072701904
-0.5210661624914399
-0.984138774457216
0.07174206072701904
-0.5210661624914399
-0.9844339836183531
0.07255773144978049
-0.5215507125174286
-0.9844339836183531
0.07255773144978049
-0.5215507125174286
-0.9844339836183531
0.07255773144978049
-0.5215507125174286
-0.9844339836183531
0.07255773144978049
-0.5215507125174286
-0.9860311308772256
0.07297351605621843
-0.5219131203470745
-0.9860311308772256
0.07297351605621843
-0.5219131203470745
-0.9860311308772256
0.07297351605621843
-0.5219131203470745
-0.9860311308772256
0.07297351605621843
-0.5219131203470745
-0.987084455902739
0.07308733231136251
-0.5220218722179213
-0.987084455902739
0.07308733231136251
-0.5220218722179213
-0.987084455902739
0.07308733231136251
-0.5220218722179213
-0.987084455902739
0.07308733231136251
-0.5220218722179213
-0.9870579842432393
0.07366534037722457
-0.5217600741341244
-0.9870579842432393
0.07366534037722457
-0.5217600741341244
-0.9870579842432393
0.07366534037722457
-0.5217600741341244
-0.9870579842432393
0.07366534037722457
-0.5217600741341244
-0.9868161165264911
0.07384964458585304
-0.5215453668594913
-0.9868161165264911
0.07384964458585304
-0.5215453668594913
-0.9868161165264911
0.07384964458585304
-0.5215453668594913
-0.9868161165264911
0.07384964458585304
-0.5215453668594913
-0.9872059168957878
0.0738630302615422
-0.5213348609236422
-0.9872059168957878
0.0738630302615422
-0.5213348609236422
-0.9872059168957878
0.0738630302615422
-0.5213348609236422
-0.9872059168957878
0.0738630302615422
-0.5213348609236422
-0.9876962701118642
0.07424309681080876
-0.5211919961046887
-0.9876962701118642
0.07424309681080876
-0.5211919961046887
-0.9876962701118642
0.07424309681080876
-0.5211919961046887
-0.9876962701118642
0.07424309681080876
-0.5211919961046887
-0.9871680889864114
0.07438418158620527
-0.5211765931415242
-0.9871680889864114
0.07438418158620527
-0.5211765931415242
-0.9871680889864114
0.07438418158620527
-0.5211765931415242
-0.9871680889864114
0.07438418158620527
-0.5211765931415242
-0.9861086432160322
0.07398516835827909
-0.5213507034115977
-0.9861086432160322
0.07398516835827909
-0.5213507034115977
-0.9861086432160322
0.07398516835827909
-0.5213507034115977
-0.9861086432160322
0.07398516835827909
-0.5213507034115977
-0.9867342301592295
0.07352944218573106
-0.5216384490457452
-0.9867342301592295
0.07352944218573106
-0.5216384490457452
-0.9867342301592295
0.07352944218573106
-0.5216384490457452
-0.9867342301592295
0.07352944218573106
-0.5216384490457452
-0.9879315980729382
0.07269606901008344
-0.5218156787845485
-0.9879315980729382
0.07269606901008344
-0.5218156787845485
-0.9879315980729382
0.07269606901008344
-0.5218156787845485
-0.9879315980729382
0.07269606901008344
-0.5218156787845485
-0.9888807099817081
0.07176182928157741
-0.522060767254791
-0.9888807099817081
0.07176182928157741
-0.522060767254791
-0.9888807099817081
0.07176182928157741
-0.522060767254791
-0.9888807099817081
0.07176182928157741
-0.522060767254791
-0.9892147098319297
0.07087675582805866
-0.5222037722099409
-0.9892147098319297
0.07087675582805866
-0.5222037722099409
-0.9892147098319297
0.07087675582805866
-0.5222037722099409
-0.9892147098319297
0.07087675582805866
-0.5222037722099409
-0.9892548173442219
0.06995913454689047
-0.5222823526844838
-0.9892548173442219
0.06995913454689047
-0.5222823526844838
-0.9892548173442219
0.06995913454689047
-0.5222823526844838
-0.9892548173442219
0.06995913454689047
-0.5222823526844838
-0.989934781659751
0.06932360153477128
-0.5223390484253629
-0.989934781659751
0.06932360153477128
-0.5223390484253629
-0.989934781659751
0.06932360153477128
-0.5223390484253629
-0.989934781659751
0.06932360153477128
-0.5223390484253629
-0.9916791061361483
0.06885837885504832
-0.5223986500769828
-0.9916791061361483
0.06885837885504832
-0.5223986500769828
-0.9916791061361483
0.06885837885504832
-0.5223986500769828
-0.9916791061361483
0.06885837885504832
-0.5223986500769828
-0.992280687683889
0.06858420377952709
-0.5223436015281384
-0.992280687683889
0.06858420377952709
-0.5223436015281384
-0.992280687683889
0.06858420377952709
-0.5223436015281384
-0.992280687683889
0.06858420377952709
-0.5223436015281384
-0.9922509930719801
0.06848106777086996
-0.522286412763088
-0.9922509930719801
0.06848106777086996
-0.522286412763088
-0.9922509930719801
0.06848106777086996
-0.522286412763088
-0.9922509930719801
0.06848106777086996
-0.522286412763088
-0.9928794351467923
0.06870612886131373
-0.5223681680900476
-0.9928794351467923
0.06870612886131373
-0.5223681680900476
-0.9928794351467923
0.06870612886131373
-0.5223681680900476
-0.9928794351467923
0.06870612886131373
-0.5223681680900476
-0.9937257436359507
0.0688785999433394
-0.5224980012936304
-0.9937257436359507
0.0688785999433394
-0.5224980012936304
-0.9937257436359507
0.0688785999433394
-0.5224980012936304
-0.9937257436359507
0.0688785999433394
-0.5224980012936304
-0.9937257436359507
0.0688785999433394
-0.5224980012936304
-0.9937257436359507
0.0688785999433394
-0.5224980012936304
-0.9937257436359507
0.0688785999433394
-0.5224980012936304
-0.9937257436359507
0.0688785999433394
-0.5224980012936304
-0.9935555501905836
0.06902981816047095
-0.522842167389642
-0.9935555501905836
0.06902981816047095
-0.522842167389642
-0.9935555501905836
0.06902981816047095
-0.522842167389642
-0.9935555501905836
0.06902981816047095
-0.522842167389642
-0.9934570828862354
0.06888105854601524
-0.5228585174125215
-0.9934570828862354
0.06888105854601524
-0.5228585174125215
-0.9934570828862354
0.06888105854601524
-0.5228585174125215
-0.9934570828862354
0.06888105854601524
-0.5228585174125215
-0.994567422990474
0.06898250389531521
-0.5229952483371827
-0.994567422990474
0.06898250389531521
-0.5229952483371827
-0.994567422990474
0.06898250389531521
-0.5229952483371827
-0.994567422990474
0.06898250389531521
-0.5229952483371827
-0.9954071226449158
0.06891897053289887
-0.5232333421325721
-0.9954071226449158
0.06891897053289887
-0.5232333421325721
-0.9954071226449158
0.06891897053289887
-0.5232333421325721
-0.9954071226449158
0.06891897053289887
-0.5232333421325721
-0.9946863927354432
0.0693947179375739
-0.523224523641297
-0.9946863927354432
0.0693947179375739
-0.523224523641297
-0.9946863927354432
0.0693947179375739
-0.523224523641297
-0.9946863927354432
0.0693947179375739
-0.523224523641297
-0.9925081800440831
0.070379818020742
-0.522955680752146
-0.9925081800440831
0.070379818020742
-0.522955680752146
-0.9925081800440831
0.070379818020742
-0.522955680752146
-0.9925081800440831
0.070379818020742
-0.522955680752146
-0.9874258178560728
0.07295104051867433
-0.5215936703030519
-0.9874258178560728
0.07295104051867433
-0.5215936703030519
-0.9874258178560728
0.07295104051867433
-0.5215936703030519
-0.9874258178560728
0.07295104051867433
-0.5215936703030519
-0.97887359797449
0.07605381070362964
-0.5191720132587501
-0.97887359797449
0.07605381070362964
-0.5191720132587501
-0.97887359797449
0.07605381070362964
-0.5191720132587501
-0.97887359797449
0.07605381070362964
-0.5191720132587501
-0.9690365101504675
0.08056407050899769
-0.5151395419802162
-0.9690365101504675
0.08056407050899769
-0.5151395419802162
-0.9690365101504675
0.08056407050899769
-0.5151395419802162
-0.9690365101504675
0.08056407050899769
-0.5151395419802162
-0.9552336818016888
0.08618778457176024
-0.5095992439479838
-0.9552336818016888
0.08618778457176024
-0.5095992439479838
-0.9552336818016888
0.08618778457176024
-0.5095992439479838
-0.9552336818016888
0.08618778457176024
-0.5095992439479838
-0.9332454514939295
0.09161055154103392
-0.5017881065228095
-0.9332454514939295
0.09161055154103392
-0.5017881065228095
-0.9332454514939295
0.09161055154103392
-0.5017881065228095
-0.9332454514939295
0.09161055154103392
-0.5017881065228095
-0.9015877490297433
0.09560801129894649
-0.4926381001177095
-0.9015877490297433
0.09560801129894649
-0.4926381001177095
-0.9015877490297433
0.09560801129894649
-0.4926381001177095
-0.9015877490297433
0.09560801129894649
-0.4926381001177095
-0.8616976785745608
0.09658049975386573
-0.4832314203873727
-0.8616976785745608
0.09658049975386573
-0.4832314203873727
-0.8616976785745608
0.09658049975386573
-0.4832314203873727
-0.8616976785745608
0.09658049975386573
-0.4832314203873727
-0.8175187593691132
0.09577981216852036
-0.4747207285076056
-0.8175187593691132
0.09577981216852036
-0.4747207285076056
-0.8175187593691132
0.09577981216852036
-0.4747207285076056
-0.8175187593691132
0.09577981216852036
-0.4747207285076056
-0.7739466357824789
0.09444317360385134
-0.4650016021317424
-0.7739466357824789
0.09444317360385134
-0.4650016021317424
-0.7739466357824789
0.09444317360385134
-0.4650016021317424
-0.7739466357824789
0.09444317360385134
-0.4650016021317424
-0.7305720427196474
0.09164659571886619
-0.45264398848746923
-0.7305720427196474
0.09164659571886619
-0.45264398848746923
-0.7305720427196474
0.09164659571886619
-0.45264398848746923
-0.7305720427196474
0.09164659571886619
-0.45264398848746923
-0.6865136591697072
0.08680135188155806
-0.4398517037556787
-0.6865136591697072
0.08680135188155806
-0.4398517037556787
-0.6865136591697072
0.08680135188155806
-0.4398517037556787
-0.6865136591697072
0.08680135188155806
-0.4398517037556787
-0.6458004838879141
0.07995455973433487
-0.4284037388357801
-0.6458004838879141
0.07995455973433487
-0.4284037388357801
-0.6458004838879141
0.07995455973433487
-0.4284037388357801
-0.6458004838879141
0.07995455973433487
-0.4284037388357801
-0.6117161540067468
0.07087989016290734
-0.41949203776331034
-0.6117161540067468
0.07087989016290734
-0.41949203776331034
-0.6117161540067468
0.07087989016290734
-0.41949203776331034
-0.6117161540067468
0.07087989016290734
-0.41949203776331034
-0.5855148176976459
0.0621678321981141
-0.41248449561654443
-0.5855148176976459
0.0621678321981141
-0.41248449561654443
-0.5855148176976459
0.0621678321981141
-0.41248449561654443
-0.5855148176976459
0.0621678321981141
-0.41248449561654443
-0.5644487756077657
0.05394361710610086
-0.4058982320740209
-0.5644487756077657
0.05394361710610086
-0.4058982320740209
-0.5644487756077657
0.05394361710610086
-0.4058982320740209
-0.5644487756077657
0.05394361710610086
-0.4058982320740209
-0.5488926928367763
0.046075412294861166
-0.39908373322006324
-0.5488926928367763
0.046075412294861166
-0.39908373322006324
-0.5488926928367763
0.046075412294861166
-0.39908373322006324
-0.5488926928367763
0.046075412294861166
-0.39908373322006324
-0.5372783553948066
0.03803287916287396
-0.3922988864961138
-0.5372783553948066
0.03803287916287396
-0.3922988864961138
-0.5372783553948066
0.03803287916287396
-0.3922988864961138
-0.5372783553948066
0.03803287916287396
-0.3922988864961138
-0.5273970678713726
0.029686419209131704
-0.38532211823127366
-0.5273970678713726
0.029686419209131704
-0.38532211823127366
-0.5273970678713726
0.029686419209131704
-0.38532211823127366
-0.5273970678713726
0.029686419209131704
-0.38532211823127366
-0.5187972120635251
0.02335382529988109
-0.3789421466168309
-0.5187972120635251
0.02335382529988109
-0.3789421466168309
-0.5187972120635251
0.02335382529988109
-0.3789421466168309
-0.5187972120635251
0.02335382529988109
-0.3789421466168309
-0.511820013575814
0.019336253111120697
-0.3742359781387265
-0.511820013575814
0.019336253111120697
-0.3742359781387265
-0.511820013575814
0.019336253111120697
-0.3742359781387265
-0.511820013575814
0.019336253111120697
-0.3742359781387265
-0.5072011069874864
0.0177322279554672
-0.3708451553718061
-0.5072011069874864
0.0177322279554672
-0.3708451553718061
-0.5072011069874864
0.0177322279554672
-0.3708451553718061
-0.5072011069874864
0.0177322279554672
-0.3708451553718061
-0.5065186952063954
0.01760563048518929
-0.3683353086068862
-0.5065186952063954
0.01760563048518929
-0.3683353086068862
-0.5065186952063954
0.01760563048518929
-0.3683353086068862
-0.5065186952063954
0.01760563048518929
-0.3683353086068862
-0.5102474533163581
0.018343628569059314
-0.36629667979865543
-0.5102474533163581
0.018343628569059314
-0.36629667979865543
-0.5102474533163581
0.018343628569059314
-0.36629667979865543
-0.5102474533163581
0.018343628569059314
-0.36629667979865543
-0.517162292477155
0.01955806555002951
-0.3642026572744762
-0.517162292477155
0.01955806555002951
-0.3642026572744762
-0.517162292477155
0.01955806555002951
-0.3642026572744762
-0.517162292477155
0.01955806555002951
-0.3642026572744762
-0.524074902914978
0.020786976663784717
-0.36211698451626634
-0.524074902914978
0.020786976663784717
-0.36211698451626634
-0.524074902914978
0.020786976663784717
-0.36211698451626634
-0.524074902914978
0.020786976663784717
-0.36211698451626634
-0.5288279633160161
0.022054332199966626
-0.36042971365185866
-0.5288279633160161
0.022054332199966626
-0.36042971365185866
-0.5288279633160161
0.022054332199966626
-0.36042971365185866
-0.5288279633160161
0.022054332199966626
-0.36042971365185866
-0.5307379774527032
0.023052245052359494
-0.35927389250382447
-0.5307379774527032
0.023052245052359494
-0.35927389250382447
-0.5307379774527032
0.023052245052359494
-0.35927389250382447
-0.5307379774527032
0.023052245052359494
-0.35927389250382447
-0.5310687980580551
0.023610991191914073
-0.35843355475281247
-0.5310687980580551
0.023610991191914073
-0.35843355475281247
-0.5310687980580551
0.023610991191914073
-0.35843355475281247
-0.5310687980580551
0.023610991191914073
-0.35843355475281247
-0.5318131494357006
0.023605682258728954
-0.3579654019688015
-0.5318131494357006
0.023605682258728954
-0.3579654019688015
-0.5318131494357006
0.023605682258728954
-0.3579654019688015
-0.5318131494357006
0.023605682258728954
-0.3579654019688015
-0.5339706138041087
0.022920688654673747
-0.35764468232309005
-0.5339706138041087
0.022920688654673747
-0.35764468232309005
-0.5339706138041087
0.022920688654673747
-0.35764468232309005
-0.5339706138041087
0.022920688654673747
-0.35764468232309005
-0.5381105694953854
0.0223579636500686
-0.35749035565387094
-0.5381105694953854
0.0223579636500686
-0.35749035565387094
-0.5381105694953854
0.0223579636500686
-0.35749035565387094
-0.5381105694953854
0.0223579636500686
-0.35749035565387094
-0.5451133424169262
0.022626694729265692
-0.3576076601798018
-0.5451133424169262
0.022626694729265692
-0.3576076601798018
-0.5451133424169262
0.022626694729265692
-0.3576076601798018
-0.5451133424169262
0.022626694729265692
-0.3576076601798018
-0.554479209357704
0.024653885157789556
-0.3591618909217075
-0.554479209357704
0.024653885157789556
-0.3591618909217075
-0.554479209357704
0.024653885157789556
-0.3591618909217075
-0.554479209357704
0.024653885157789556
-0.3591618909217075
-0.5660651319709221
0.028459983057150483
-0.36167318885099004
-0.5660651319709221
0.028459983057150483
-0.36167318885099004
-0.5660651319709221
0.028459983057150483
-0.36167318885099004
-0.5660651319709221
0.028459983057150483
-0.36167318885099004
-0.5812906445072936
0.03408662669839074
-0.36672375226975396
-0.5812906445072936
0.03408662669839074
-0.36672375226975396
-0.5812906445072936
0.03408662669839074
-0.36672375226975396
-0.5812906445072936
0.03408662669839074
-0.36672375226975396
-0.6028475923426699
0.040037694551006885
-0.3757698581260561
-0.6028475923426699
0.040037694551006885
-0.3757698581260561
-0.6028475923426699
0.040037694551006885
-0.3757698581260561
-0.6028475923426699
0.040037694551006885
-0.3757698581260561
-0.6330674902125136
0.043422520351483036
-0.3861362666310891
-0.6330674902125136
0.043422520351483036
-0.3861362666310891
-0.6330674902125136
0.043422520351483036
-0.3861362666310891
-0.6330674902125136
0.043422520351483036
-0.3861362666310891
-0.676560249787824
0.04264695168145584
-0.39469347603252314
-0.676560249787824
0.04264695168145584
-0.39469347603252314
-0.676560249787824
0.04264695168145584
-0.39469347603252314
-0.676560249787824
0.04264695168145584
-0.39469347603252314
-0.7310532599015958
0.040691930210742355
-0.4005985254434926
-0.7310532599015958
0.040691930210742355
-0.4005985254434926
-0.7310532599015958
0.040691930210742355
-0.4005985254434926
-0.7310532599015958
0.040691930210742355
-0.4005985254434926
-0.7962956186620512
0.040862425986384086
-0.40774626581966217
-0.7962956186620512
0.040862425986384086
-0.40774626581966217
-0.7962956186620512
0.040862425986384086
-0.40774626581966217
-0.7962956186620512
0.040862425986384086
-0.40774626581966217
-0.862581929000516
0.04264093886566088
-0.4176582468066665
-0.862581929000516
0.04264093886566088
-0.4176582468066665
-0.862581929000516
0.04264093886566088
-0.4176582468066665
-0.862581929000516
0.04264093886566088
-0.4176582468066665
-0.9077732045872333
0.046021159796367866
-0.4270502784008318
-0.9077732045872333
0.046021159796367866
-0.4270502784008318
-0.9077732045872333
0.046021159796367866
-0.4270502784008318
-0.9077732045872333
0.046021159796367866
-0.4270502784008318
-0.9243660134755594
0.04798288394565958
-0.43967236572565355
-0.9243660134755594
0.04798288394565958
-0.43967236572565355
-0.9243660134755594
0.04798288394565958
-0.43967236572565355
-0.9243660134755594
0.04798288394565958
-0.43967236572565355
-0.9170469533694138
0.04575246900642473
-0.45540560160303173
-0.9170469533694138
0.04575246900642473
-0.45540560160303173
-0.9170469533694138
0.04575246900642473
-0.45540560160303173
-0.9170469533694138
0.04575246900642473
-0.45540560160303173
-0.9143623862100624
0.03980880176374363
-0.46967497585430534
-0.9143623862100624
0.03980880176374363
-0.46967497585430534
-0.9143623862100624
0.03980880176374363
-0.46967497585430534
-0.9143623862100624
0.03980880176374363
-0.46967497585430534
-0.9257369190476267
0.03275059672120716
-0.4789008511273253
-0.9257369190476267
0.03275059672120716
-0.4789008511273253
-0.9257369190476267
0.03275059672120716
-0.4789008511273253
-0.9257369190476267
0.03275059672120716
-0.4789008511273253
-0.9360808741657877
0.0278025568123096
-0.48470331360326213
-0.9360808741657877
0.0278025568123096
-0.48470331360326213
-0.9360808741657877
0.0278025568123096
-0.48470331360326213
-0.9360808741657877
0.0278025568123096
-0.48470331360326213
-0.9429391928334141
0.025139490819779176
-0.487254031766439
-0.9429391928334141
0.025139490819779176
-0.487254031766439
-0.9429391928334141
0.025139490819779176
-0.487254031766439
-0.9429391928334141
0.025139490819779176
-0.487254031766439
-0.9489371344177544
0.02161848355525665
-0.48797984086813095
-0.9489371344177544
0.02161848355525665
-0.48797984086813095
-0.9489371344177544
0.02161848355525665
-0.48797984086813095
-0.9489371344177544
0.02161848355525665
-0.48797984086813095
-0.9474685321727595
0.0186657505261933
-0.4878150285591544
-0.9474685321727595
0.0186657505261933
-0.4878150285591544
-0.9474685321727595
0.0186657505261933
-0.4878150285591544
-0.9474685321727595
0.0186657505261933
-0.4878150285591544
-0.9431206082169247
0.017500204819567176
-0.4871826922167989
-0.9431206082169247
0.017500204819567176
-0.4871826922167989
-0.9431206082169247
0.017500204819567176
-0.4871826922167989
-0.9431206082169247
0.017500204819567176
-0.4871826922167989
-0.9397800942357434
0.018331721447528544
-0.48688056066268537
-0.9397800942357434
0.018331721447528544
-0.48688056066268537
-0.9397800942357434
0.018331721447528544
-0.48688056066268537
-0.9397800942357434
0.018331721447528544
-0.48688056066268537
-0.9394873785243627
0.022175340030274195
-0.486106875020329
-0.9394873785243627
0.022175340030274195
-0.486106875020329
-0.9394873785243627
0.022175340030274195
-0.486106875020329
-0.9394873785243627
0.022175340030274195
-0.486106875020329
-0.9402882380118218
0.026818019288886583
-0.48521873893989487
-0.9402882380118218
0.026818019288886583
-0.48521873893989487
-0.9402882380118218
0.026818019288886583
-0.48521873893989487
-0.9402882380118218
0.026818019288886583
-0.48521873893989487
-0.9400522998671867
0.03047750729623509
-0.48421936359048184
-0.9400522998671867
0.03047750729623509
-0.48421936359048184
-0.9400522998671867
0.03047750729623509
-0.48421936359048184
-0.9400522998671867
0.03047750729623509
-0.48421936359048184
-0.9383809104520211
0.032467095452432794
-0.48274822400588574
-0.9383809104520211
0.032467095452432794
-0.48274822400588574
-0.9383809104520211
0.032467095452432794
-0.48274822400588574
-0.9383809104520211
0.032467095452432794
-0.48274822400588574
-0.9382189609636502
0.034196195499974665
-0.48136434903186903
-0.9382189609636502
0.034196195499974665
-0.48136434903186903
-0.9382189609636502
0.034196195499974665
-0.48136434903186903
-0.9382189609636502
0.034196195499974665
-0.48136434903186903
-0.9373691973657781
0.035868186381593004
-0.48013955487510773
-0.9373691973657781
0.035868186381593004
-0.48013955487510773
-0.9373691973657781
0.035868186381593004
-0.48013955487510773
-0.9373691973657781
0.035868186381593004
-0.48013955487510773
-0.9362551884401552
0.03732056569178785
-0.479728868454237
-0.9362551884401552
0.03732056569178785
-0.479728868454237
-0.9362551884401552
0.03732056569178785
-0.479728868454237
-0.9362551884401552
0.03732056569178785
-0.479728868454237
-0.9362323381918425
0.03811321096414585
-0.48012919921714153
-0.9362323381918425
0.03811321096414585
-0.48012919921714153
-0.9362323381918425
0.03811321096414585
-0.48012919921714153
-0.9362323381918425
0.03811321096414585
-0.48012919921714153
-0.9363362527199265
0.038705873156245775
-0.4808622750739106
-0.9363362527199265
0.038705873156245775
-0.4808622750739106
-0.9363362527199265
0.038705873156245775
-0.4808622750739106
-0.9363362527199265
0.038705873156245775
-0.4808622750739106
-0.9367279568331148
0.03934137281047815
-0.4813891484685272
-0.9367279568331148
0.03934137281047815
-0.4813891484685272
-0.9367279568331148
0.03934137281047815
-0.4813891484685272
-0.9367279568331148
0.03934137281047815
-0.4813891484685272
-0.9381466528822718
0.04028694073204405
-0.48166034101359223
-0.9381466528822718
0.04028694073204405
-0.48166034101359223
-0.9381466528822718
0.04028694073204405
-0.48166034101359223
-0.9381466528822718
0.04028694073204405
-0.48166034101359223
-0.9387561107398111
0.040924666853907984
-0.48179535499321335
-0.9387561107398111
0.040924666853907984
-0.48179535499321335
-0.9387561107398111
0.040924666853907984
-0.48179535499321335
-0.9387561107398111
0.040924666853907984
-0.48179535499321335
-0.9385289706561066
0.041149379072550354
-0.4817389388715616
-0.9385289706561066
0.041149379072550354
-0.4817389388715616
-0.9385289706561066
0.041149379072550354
-0.4817389388715616
-0.9385289706561066
0.041149379072550354
-0.4817389388715616
-0.9376249132585495
0.04114481239035361
-0.4815882158401531
-0.9376249132585495
0.04114481239035361
-0.4815882158401531
-0.9376249132585495
0.04114481239035361
-0.4815882158401531
-0.9376249132585495
0.04114481239035361
-0.4815882158401531
-0.939046547898468
0.0407979844662024
-0.48107209865619693
-0.939046547898468
0.0407979844662024
-0.48107209865619693
-0.939046547898468
0.0407979844662024
-0.48107209865619693
-0.939046547898468
0.0407979844662024
-0.48107209865619693
-0.9413206506925181
0.04001600378664561
-0.4807157651937288
-0.9413206506925181
0.04001600378664561
-0.4807157651937288
-0.9413206506925181
0.04001600378664561
-0.4807157651937288
-0.9413206506925181
0.04001600378664561
-0.4807157651937288
-0.9428015452187657
0.039878066590602716
-0.48057222930672056
-0.9428015452187657
0.039878066590602716
-0.48057222930672056
-0.9428015452187657
0.039878066590602716
-0.48057222930672056
-0.9428015452187657
0.039878066590602716
-0.48057222930672056
-0.9438380746383392
0.03996102262459231
-0.4807656885216841
-0.9438380746383392
0.03996102262459231
-0.4807656885216841
-0.9438380746383392
0.03996102262459231
-0.4807656885216841
-0.9438380746383392
0.03996102262459231
-0.4807656885216841
-0.9443493828435688
0.03994858627973455
-0.48113301151247206
-0.9443493828435688
0.03994858627973455
-0.48113301151247206
-0.9443493828435688
0.03994858627973455
-0.48113301151247206
-0.9443493828435688
0.03994858627973455
-0.48113301151247206
-0.9448280134957528
0.040277688497064174
-0.4813445959545902
-0.9448280134957528
0.040277688497064174
-0.4813445959545902
-0.9448280134957528
0.040277688497064174
-0.4813445959545902
-0.9448280134957528
0.040277688497064174
-0.4813445959545902
-0.9453108496183769
0.04111660862232405
-0.4811497451567041
-0.9453108496183769
0.04111660862232405
-0.4811497451567041
-0.9453108496183769
0.04111660862232405
-0.4811497451567041
-0.9453108496183769
0.04111660862232405
-0.4811497451567041
-0.9459937105595896
0.04162557480619056
-0.48095639955971164
-0.9459937105595896
0.04162557480619056
-0.48095639955971164
-0.9459937105595896
0.04162557480619056
-0.48095639955971164
-0.9459937105595896
0.04162557480619056
-0.48095639955971164
-0.9462728148071653
0.04206303322770689
-0.4810854363489099
-0.9462728148071653
0.04206303322770689
-0.4810854363489099
-0.9462728148071653
0.04206303322770689
-0.4810854363489099
-0.9462728148071653
0.04206303322770689
-0.4810854363489099
-0.945571354012724
0.04217667485028401
-0.48116479330920453
-0.945571354012724
0.04217667485028401
-0.48116479330920453
-0.945571354012724
0.04217667485028401
-0.48116479330920453
-0.945571354012724
0.04217667485028401
-0.48116479330920453
-0.945338609436916
0.0421217155115362
-0.4813975378850128
-0.945338609436916
0.0421217155115362
-0.4813975378850128
-0.945338609436916
0.0421217155115362
-0.4813975378850128
-0.945338609436916
0.0421217155115362
-0.4813975378850128
-0.9454439532695043
0.04209467652607517
-0.4813865046289528
-0.9454439532695043
0.04209467652607517
-0.4813865046289528
-0.9454439532695043
0.04209467652607517
-0.4813865046289528
-0.9454439532695043
0.04209467652607517
-0.4813865046289528
-0.9456142175521771
0.041827498120107325
-0.4818509463363348
-0.9456142175521771
0.041827498120107325
-0.4818509463363348
-0.9456142175521771
0.041827498120107325
-0.4818509463363348
-0.9456142175521771
0.041827498120107325
-0.4818509463363348
-0.9474387134048998
0.04210713955643352
-0.4823952592308821
-0.9474387134048998
0.04210713955643352
-0.4823952592308821
-0.9474387134048998
0.04210713955643352
-0.4823952592308821
-0.9474387134048998
0.04210713955643352
-0.4823952592308821
-0.948931145537566
0.04263802625986547
-0.4828957765339019
-0.948931145537566
0.04263802625986547
-0.4828957765339019
-0.948931145537566
0.04263802625986547
-0.4828957765339019
-0.948931145537566
0.04263802625986547
-0.4828957765339019
-0.948718006165319
0.04308100421395441
-0.48351842081902185
-0.948718006165319
0.04308100421395441
-0.48351842081902185
-0.948718006165319
0.04308100421395441
-0.48351842081902185
-0.948718006165319
0.04308100421395441
-0.48351842081902185
-0.948154401819438
0.043047821852079164
-0.4838240613149075
-0.948154401819438
0.043047821852079164
-0.4838240613149075
-0.948154401819438
0.043047821852079164
-0.4838240613149075
-0.948154401819438
0.043047821852079164
-0.4838240613149075
-0.9481272031012123
0.04294268748977981
-0.4837693601285334
-0.9481272031012123
0.04294268748977981
-0.4837693601285334
-0.9481272031012123
0.04294268748977981
-0.4837693601285334
-0.9481272031012123
0.04294268748977981
-0.4837693601285334
-0.9496820827626874
0.04328974763499153
-0.4840448656835593
-0.9496820827626874
0.04328974763499153
-0.4840448656835593
-0.9496820827626874
0.04328974763499153
-0.4840448656835593
-0.9496820827626874
0.04328974763499153
-0.4840448656835593
-0.9509447428906757
0.043596845628636034
-0.48426105373282824
-0.9509447428906757
0.043596845628636034
-0.48426105373282824
-0.9509447428906757
0.043596845628636034
-0.48426105373282824
-0.9509447428906757
0.043596845628636034
-0.48426105373282824
-0.9518545363673852
0.04359460543691662
-0.4846781731878207
-0.9518545363673852
0.04359460543691662
-0.4846781731878207
-0.9518545363673852
0.04359460543691662
-0.4846781731878207
-0.9518545363673852
0.04359460543691662
-0.4846781731878207
-0.9518545363673852
0.04359460543691662
-0.4846781731878207
-0.9518545363673852
0.04359460543691662
-0.4846781731878207
-0.9518545363673852
0.04359460543691662
-0.4846781731878207
-0.9518545363673852
0.04359460543691662
-0.4846781731878207
-0.9519596540661434
0.043567390227344814
-0.48466703874688555
-0.9519596540661434
0.043567390227344814
-0.48466703874688555
-0.9519596540661434
0.043567390227344814
-0.48466703874688555
-0.9519596540661434
0.043567390227344814
-0.48466703874688555
-0.9519324170582507
0.04346237343513677
-0.4846121333324445
-0.9519324170582507
0.04346237343513677
-0.4846121333324445
-0.9519324170582507
0.04346237343513677
-0.4846121333324445
-0.9519324170582507
0.04346237343513677
-0.4846121333324445
-0.9528533256381377
0.04351466695877504
-0.4849240941112934
-0.9528533256381377
0.04351466695877504
-0.4849240941112934
-0.9528533256381377
0.04351466695877504
-0.4849240941112934
-0.9528533256381377
0.04351466695877504
-0.4849240941112934
-0.9545642263470819
0.043595859094367966
-0.4850684715078615
-0.9545642263470819
0.043595859094367966
-0.4850684715078615
-0.9545642263470819
0.043595859094367966
-0.4850684715078615
-0.9545642263470819
0.043595859094367966
-0.4850684715078615
-0.9558929268296228
0.04416664487740128
-0.4852908631891829
-0.9558929268296228
0.04416664487740128
-0.4852908631891829
-0.9558929268296228
0.04416664487740128
-0.4852908631891829
-0.9558929268296228
0.04416664487740128
-0.4852908631891829
-0.9564384381347387
0.044537204820964175
-0.48542745609328497
-0.9564384381347387
0.044537204820964175
-0.48542745609328497
-0.9564384381347387
0.044537204820964175
-0.48542745609328497
-0.9564384381347387
0.044537204820964175
-0.48542745609328497
-0.9574637654417252
0.0455210176183944
-0.48522687135827536
-0.9574637654417252
0.0455210176183944
-0.48522687135827536
-0.9574637654417252
0.0455210176183944
-0.48522687135827536
-0.9574637654417252
0.0455210176183944
-0.48522687135827536
-0.9588083395537274
0.046593102891663914
-0.48557879050892055
-0.9588083395537274
0.046593102891663914
-0.48557879050892055
-0.9588083395537274
0.046593102891663914
-0.48557879050892055
-0.9588083395537274
0.046593102891663914
-0.48557879050892055
-0.9600765179402602
0.047344629645015485
-0.48603113588971186
-0.9600765179402602
0.047344629645015485
-0.48603113588971186
-0.9600765179402602
0.047344629645015485
-0.48603113588971186
-0.9600765179402602
0.047344629645015485
-0.48603113588971186
-0.9604943996089641
0.04830411416095829
-0.4864411956985995
-0.9604943996089641
0.04830411416095829
-0.4864411956985995
-0.9604943996089641
0.04830411416095829
-0.4864411956985995
-0.9604943996089641
0.04830411416095829
-0.4864411956985995
-0.96126066855257
0.04929115959326555
-0.48693999167707724
-0.96126066855257
0.04929115959326555
-0.48693999167707724
-0.96126066855257
0.04929115959326555
-0.48693999167707724
-0.96126066855257
0.04929115959326555
-0.48693999167707724
-0.9621047421743835
0.050145714350403145
-0.4873730549821157
-0.9621047421743835
0.050145714350403145
-0.4873730549821157
-0.9621047421743835
0.050145714350403145
-0.4873730549821157
-0.9621047421743835
0.050145714350403145
-0.4873730549821157
-0.9618289805906155
0.05032035428794959
-0.48799171721873713
-0.9618289805906155
0.05032035428794959
-0.48799171721873713
-0.9618289805906155
0.05032035428794959
-0.48799171721873713
-0.9618289805906155
0.05032035428794959
-0.48799171721873713
-0.9615477900847863
0.05004904875575913
-0.48837736789243114
-0.9615477900847863
0.05004904875575913
-0.48837736789243114
-0.9615477900847863
0.05004904875575913
-0.48837736789243114
-0.9615477900847863
0.05004904875575913
-0.48837736789243114
-0.9621884812178172
0.049662807453398926
-0.4885588562564072
-0.9621884812178172
0.049662807453398926
-0.4885588562564072
-0.9621884812178172
0.049662807453398926
-0.4885588562564072
-0.9621884812178172
0.049662807453398926
-0.4885588562564072
-0.9635137302200355
0.04978461172378048
-0.4885541722221411
-0.9635137302200355
0.04978461172378048
-0.4885541722221411
-0.9635137302200355
0.04978461172378048
-0.4885541722221411
-0.9635137302200355
0.04978461172378048
-0.4885541722221411
-0.9645682991584037
0.049910381164085596
-0.48891398702596234
-0.9645682991584037
0.049910381164085596
-0.48891398702596234
-0.9645682991584037
0.049910381164085596
-0.48891398702596234
-0.9645682991584037
0.049910381164085596
-0.48891398702596234
-0.9636739706238171
0.0501299193314712
-0.4891738501103256
-0.9636739706238171
0.0501299193314712
-0.4891738501103256
-0.9636739706238171
0.0501299193314712
-0.4891738501103256
-0.9636739706238171
0.0501299193314712
-0.4891738501103256
-0.9630281520696707
0.050234368309953356
-0.48927872246774695
-0.9630281520696707
0.050234368309953356
-0.48927872246774695
-0.9630281520696707
0.050234368309953356
-0.48927872246774695
-0.9630281520696707
0.050234368309953356
-0.48927872246774695
-0.9630281520696707
0.050234368309953356
-0.48927872246774695
-0.9630281520696707
0.050234368309953356
-0.48927872246774695
-0.9630281520696707
0.050234368309953356
-0.48927872246774695
-0.9630281520696707
0.050234368309953356
-0.48927872246774695
-0.9631218047530737
0.050151300312642595
-0.4893723751511499
-0.9631218047530737
0.050151300312642595
-0.4893723751511499
-0.9631218047530737
0.050151300312642595
-0.4893723751511499
-0.9631218047530737
0.050151300312642595
-0.4893723751511499
-0.9631218047530737
0.050151300312642595
-0.4893723751511499
-0.9631218047530737
0.050151300312642595
-0.4893723751511499
-0.9631218047530737
0.050151300312642595
-0.4893723751511499
-0.9631218047530737
0.050151300312642595
-0.4893723751511499
-0.9626470872871862
0.04982033946311755
-0.48942081515499025
-0.9626470872871862
0.04982033946311755
-0.48942081515499025
-0.9626470872871862
0.04982033946311755
-0.48942081515499025
-0.9626470872871862
0.04982033946311755
-0.48942081515499025
-0.9627518201193188
0.04979276834856954
-0.48940972740247235
-0.9627518201193188
0.04979276834856954
-0.48940972740247235
-0.9627518201193188
0.04979276834856954
-0.48940972740247235
-0.9627518201193188
0.04979276834856954
-0.48940972740247235
-0.9630114392474945
0.04944442367016799
-0.48970136794386343
-0.9630114392474945
0.04944442367016799
-0.48970136794386343
-0.9630114392474945
0.04944442367016799
-0.48970136794386343
-0.9630114392474945
0.04944442367016799
-0.48970136794386343
-0.9630114392474945
0.04944442367016799
-0.48970136794386343
-0.9630114392474945
0.04944442367016799
-0.48970136794386343
-0.9630114392474945
0.04944442367016799
-0.48970136794386343
-0.9630114392474945
0.04944442367016799
-0.48970136794386343
-0.9639885638980592
0.04953827290271838
-0.489608056946603
-0.9639885638980592
0.04953827290271838
-0.489608056946603
-0.9639885638980592
0.04953827290271838
-0.489608056946603
-0.9639885638980592
0.04953827290271838
-0.489608056946603
-0.9645407979463884
0.04951689966253482
-0.48940936121077594
-0.9645407979463884
0.04951689966253482
-0.48940936121077594
-0.9645407979463884
0.04951689966253482
-0.48940936121077594
-0.9645407979463884
0.04951689966253482
-0.48940936121077594
-0.9646343153546625
0.04972272017161803
-0.48895193416090593
-0.9646343153546625
0.04972272017161803
-0.48895193416090593
-0.9646343153546625
0.04972272017161803
-0.48895193416090593
-0.9646343153546625
0.04972272017161803
-0.48895193416090593
-0.9651701082294285
0.04965265024826796
-0.4885929250983633
-0.9651701082294285
0.04965265024826796
-0.4885929250983633
-0.9651701082294285
0.04965265024826796
-0.4885929250983633
-0.9651701082294285
0.04965265024826796
-0.4885929250983633
-0.9666051899596381
0.0500295716733048
-0.4882915974536952
-0.9666051899596381
0.0500295716733048
-0.4882915974536952
-0.9666051899596381
0.0500295716733048
-0.4882915974536952
-0.9666051899596381
0.0500295716733048
-0.4882915974536952
-0.967615933332185
0.050454104505328674
-0.48840482405812097
-0.967615933332185
0.050454104505328674
-0.48840482405812097
-0.967615933332185
0.050454104505328674
-0.48840482405812097
-0.967615933332185
0.050454104505328674
-0.48840482405812097
-0.9661086778258238
0.050039337852856636
-0.4885177407302472
-0.9661086778258238
0.050039337852856636
-0.4885177407302472
-0.9661086778258238
0.050039337852856636
-0.4885177407302472
-0.9661086778258238
0.050039337852856636
-0.4885177407302472
-0.9657995253936243
0.04949964506757517
-0.4883274056626826
-0.9657995253936243
0.04949964506757517
-0.4883274056626826
-0.9657995253936243
0.04949964506757517
-0.4883274056626826
-0.9657995253936243
0.04949964506757517
-0.4883274056626826
-0.9674392979118338
0.048866682317726784
-0.48823611044555176
-0.9674392979118338
0.048866682317726784
-0.48823611044555176
-0.9674392979118338
0.048866682317726784
-0.48823611044555176
-0.9674392979118338
0.048866682317726784
-0.48823611044555176
-0.9692010063835066
0.04848739357387813
-0.4881783882144502
-0.9692010063835066
0.04848739357387813
-0.4881783882144502
-0.9692010063835066
0.04848739357387813
-0.4881783882144502
-0.9692010063835066
0.04848739357387813
-0.4881783882144502
-0.9693055790476657
0.04845995978379945
-0.4881671752377209
-0.9693055790476657
0.04845995978379945
-0.4881671752377209
-0.9693055790476657
0.04845995978379945
-0.4881671752377209
-0.9693055790476657
0.04845995978379945
-0.4881671752377209
-0.9683173881034385
0.04830938168945077
-0.4883653280650046
-0.9683173881034385
0.04830938168945077
-0.4883653280650046
-0.9683173881034385
0.04830938168945077
-0.4883653280650046
-0.9683173881034385
0.04830938168945077
-0.4883653280650046
-0.967770256546844
0.04861294954242129
-0.48827889235068056
-0.967770256546844
0.04861294954242129
-0.48827889235068056
-0.967770256546844
0.04861294954242129
-0.48827889235068056
-0.967770256546844
0.04861294954242129
-0.48827889235068056
-0.9689411806590983
0.04883646723909979
-0.4878879744689102
-0.9689411806590983
0.04883646723909979
-0.4878879744689102
-0.9689411806590983
0.04883646723909979
-0.4878879744689102
-0.9689411806590983
0.04883646723909979
-0.4878879744689102
-0.970751793562068
0.04889372369182804
-0.4877612671993133
-0.970751793562068
0.04889372369182804
-0.4877612671993133
-0.970751793562068
0.04889372369182804
-0.4877612671993133
-0.970751793562068
0.04889372369182804
-0.4877612671993133
-0.9713540292940773
0.0487989659522704
-0.4879592698316175
-0.9713540292940773
0.0487989659522704
-0.4879592698316175
-0.9713540292940773
0.0487989659522704
-0.4879592698316175
-0.9713540292940773
0.0487989659522704
-0.4879592698316175
-0.970686152602514
0.049243255284216976
-0.48824400205476043
-0.970686152602514
0.049243255284216976
-0.48824400205476043
-0.970686152602514
0.049243255284216976
-0.48824400205476043
-0.970686152602514
0.049243255284216976
-0.48824400205476043
-0.9702990431853998
0.04905582596745669
-0.48820408429161644
-0.9702990431853998
0.04905582596745669
-0.48820408429161644
-0.9702990431853998
0.04905582596745669
-0.48820408429161644
-0.9702990431853998
0.04905582596745669
-0.48820408429161644
-0.970840256711074
0.04897956561714995
-0.4881096901652742
-0.970840256711074
0.04897956561714995
-0.4881096901652742
-0.970840256711074
0.04897956561714995
-0.4881096901652742
-0.970840256711074
0.04897956561714995
-0.4881096901652742
-0.9712991358872844
0.048590178037390803
-0.48784730915564206
-0.9712991358872844
0.048590178037390803
-0.48784730915564206
-0.9712991358872844
0.048590178037390803
-0.48784730915564206
-0.9712991358872844
0.048590178037390803
-0.48784730915564206
-0.9710176804751949
0.0481552818676436
-0.48771176554167983
-0.9710176804751949
0.0481552818676436
-0.48771176554167983
-0.9710176804751949
0.0481552818676436
-0.48771176554167983
-0.9710176804751949
0.0481552818676436
-0.48771176554167983
-0.9710947912523257
0.04802348578890792
-0.4876445637211967
-0.9710947912523257
0.04802348578890792
-0.4876445637211967
-0.9710947912523257
0.04802348578890792
-0.4876445637211967
-0.9710947912523257
0.04802348578890792
-0.4876445637211967
-0.969824559182481
0.048562354219175353
-0.4877315325291315
-0.969824559182481
0.048562354219175353
-0.4877315325291315
-0.969824559182481
0.048562354219175353
-0.4877315325291315
-0.969824559182481
0.048562354219175353
-0.4877315325291315
-0.9653009620388352
0.05104947338745709
-0.4869534460290633
-0.9653009620388352
0.05104947338745709
-0.4869534460290633
-0.9653009620388352
0.05104947338745709
-0.4869534460290633
-0.9653009620388352
0.05104947338745709
-0.4869534460290633
-0.9537839335093199
0.05392238343068752
-0.48441916219694664
-0.9537839335093199
0.05392238343068752
-0.48441916219694664
-0.9537839335093199
0.05392238343068752
-0.48441916219694664
-0.9537839335093199
0.05392238343068752
-0.48441916219694664
-0.9365177577615444
0.057159872209015576
-0.4803393490292034
-0.9365177577615444
0.057159872209015576
-0.4803393490292034
-0.9365177577615444
0.057159872209015576
-0.4803393490292034
-0.9365177577615444
0.057159872209015576
-0.4803393490292034
-0.9133338820461665
0.05973054983948583
-0.4753528828250298
-0.9133338820461665
0.05973054983948583
-0.4753528828250298
-0.9133338820461665
0.05973054983948583
-0.4753528828250298
-0.9133338820461665
0.05973054983948583
-0.4753528828250298
-0.8841990909061067
0.060457263724158015
-0.46978662599232407
-0.8841990909061067
0.060457263724158015
-0.46978662599232407
-0.8841990909061067
0.060457263724158015
-0.46978662599232407
-0.8841990909061067
0.060457263724158015
-0.46978662599232407
-0.8511118013154556
0.05830434352468128
-0.4625343713474406
-0.8511118013154556
0.05830434352468128
-0.4625343713474406
-0.8511118013154556
0.05830434352468128
-0.4625343713474406
-0.8511118013154556
0.05830434352468128
-0.4625343713474406
-0.8114715480809025
0.05388934721884828
-0.45401937494526684
-0.8114715480809025
0.05388934721884828
-0.45401937494526684
-0.8114715480809025
0.05388934721884828
-0.45401937494526684
-0.8114715480809025
0.05388934721884828
-0.45401937494526684
-0.7685279188899244
0.050527072053190084
-0.4436152116208127
-0.7685279188899244
0.050527072053190084
-0.4436152116208127
-0.7685279188899244
0.050527072053190084
-0.4436152116208127
-0.7685279188899244
0.050527072053190084
-0.4436152116208127
-0.7288157868637516
0.04755935316427019
-0.4303635613081748
-0.7288157868637516
0.04755935316427019
-0.4303635613081748
-0.7288157868637516
0.04755935316427019
-0.4303635613081748
-0.7288157868637516
0.04755935316427019
-0.4303635613081748
-0.6948766179949667
0.0425623430385797
-0.41769352396036685
-0.6948766179949667
0.0425623430385797
-0.41769352396036685
-0.6948766179949667
0.0425623430385797
-0.41769352396036685
-0.6948766179949667
0.0425623430385797
-0.41769352396036685
-0.6655460919284125
0.035848908699052044
-0.40804393709386877
-0.6655460919284125
0.035848908699052044
-0.40804393709386877
-0.6655460919284125
0.035848908699052044
-0.40804393709386877
-0.6655460919284125
0.035848908699052044
-0.40804393709386877
-0.6406857253487142
0.02688448288077601
-0.40050743201715305
-0.6406857253487142
0.02688448288077601
-0.40050743201715305
-0.6406857253487142
0.02688448288077601
-0.40050743201715305
-0.6406857253487142
0.02688448288077601
-0.40050743201715305
-0.6193842299776509
0.017219523644724982
-0.39439418111542296
-0.6193842299776509
0.017219523644724982
-0.39439418111542296
-0.6193842299776509
0.017219523644724982
-0.39439418111542296
-0.6193842299776509
0.017219523644724982
-0.39439418111542296
-0.5995480821078866
0.00858093147887813
-0.3889989254667995
-0.5995480821078866
0.00858093147887813
-0.3889989254667995
-0.5995480821078866
0.00858093147887813
-0.3889989254667995
-0.5995480821078866
0.00858093147887813
-0.3889989254667995
-0.5802993558318182
8.293129067200817E-4
-0.38364540695768595
-0.5802993558318182
8.293129067200817E-4
-0.38364540695768595
-0.5802993558318182
8.293129067200817E-4
-0.38364540695768595
-0.5802993558318182
8.293129067200817E-4
-0.38364540695768595
-0.5600755281211938
-0.006367484700730235
-0.37821247733288177
-0.5600755281211938
-0.006367484700730235
-0.37821247733288177
-0.5600755281211938
-0.006367484700730235
-0.37821247733288177
-0.5600755281211938
-0.006367484700730235
-0.37821247733288177
-0.5451316402713918
-0.012307549586528096
-0.3728307823993902
-0.5451316402713918
-0.012307549586528096
-0.3728307823993902
-0.5451316402713918
-0.012307549586528096
-0.3728307823993902
-0.5451316402713918
-0.012307549586528096
-0.3728307823993902
-0.5389568729349282
-0.017186546607276296
-0.36771493879071426
-0.5389568729349282
-0.017186546607276296
-0.36771493879071426
-0.5389568729349282
-0.017186546607276296
-0.36771493879071426
-0.5389568729349282
-0.017186546607276296
-0.36771493879071426
-0.5406362710813593
-0.0211088322171416
-0.36310329197373725
-0.5406362710813593
-0.0211088322171416
-0.36310329197373725
-0.5406362710813593
-0.0211088322171416
-0.36310329197373725
-0.5406362710813593
-0.0211088322171416
-0.36310329197373725
-0.5468346188845521
-0.023892100402885055
-0.3597426610331566
-0.5468346188845521
-0.023892100402885055
-0.3597426610331566
-0.5468346188845521
-0.023892100402885055
-0.3597426610331566
-0.5468346188845521
-0.023892100402885055
-0.3597426610331566
-0.5512686876198181
-0.025278950827179385
-0.3572095189718282
-0.5512686876198181
-0.025278950827179385
-0.3572095189718282
-0.5512686876198181
-0.025278950827179385
-0.3572095189718282
-0.5512686876198181
-0.025278950827179385
-0.3572095189718282
-0.5522120230581383
-0.025976720435987494
-0.35497930678096934
-0.5522120230581383
-0.025976720435987494
-0.35497930678096934
-0.5522120230581383
-0.025976720435987494
-0.35497930678096934
-0.5522120230581383
-0.025976720435987494
-0.35497930678096934
-0.5504868057653169
-0.025941661887955457
-0.3532540894881479
-0.5504868057653169
-0.025941661887955457
-0.3532540894881479
-0.5504868057653169
-0.025941661887955457
-0.3532540894881479
-0.5504868057653169
-0.025941661887955457
-0.3532540894881479
-0.5478974657800834
-0.025651586391877288
-0.35206718047885704
-0.5478974657800834
-0.025651586391877288
-0.35206718047885704
-0.5478974657800834
-0.025651586391877288
-0.35206718047885704
-0.5478974657800834
-0.025651586391877288
-0.35206718047885704
-0.5467616154252208
-0.02548680046037348
-0.3513126270441356
-0.5467616154252208
-0.02548680046037348
-0.3513126270441356
-0.5467616154252208
-0.02548680046037348
-0.3513126270441356
-0.5467616154252208
-0.02548680046037348
-0.3513126270441356
-0.5484571890603457
-0.02512498084087581
-0.35031321603950283
-0.5484571890603457
-0.02512498084087581
-0.35031321603950283
-0.5484571890603457
-0.02512498084087581
-0.35031321603950283
-0.5484571890603457
-0.02512498084087581
-0.35031321603950283
-0.5516249415949481
-0.02444275162242379
-0.34907782052034525
-0.5516249415949481
-0.02444275162242379
-0.34907782052034525
-0.5516249415949481
-0.02444275162242379
-0.34907782052034525
-0.5516249415949481
-0.02444275162242379
-0.34907782052034525
-0.555578646907245
-0.02353626325098961
-0.3479197339746199
-0.555578646907245
-0.02353626325098961
-0.3479197339746199
-0.555578646907245
-0.02353626325098961
-0.3479197339746199
-0.555578646907245
-0.02353626325098961
-0.3479197339746199
-0.5580184547847251
-0.02217734819135597
-0.34751501272071045
-0.5580184547847251
-0.02217734819135597
-0.34751501272071045
-0.5580184547847251
-0.02217734819135597
-0.34751501272071045
-0.5580184547847251
-0.02217734819135597
-0.34751501272071045
-0.558468388948962
-0.02029814154176034
-0.3474233977593241
-0.558468388948962
-0.02029814154176034
-0.3474233977593241
-0.558468388948962
-0.02029814154176034
-0.3474233977593241
-0.558468388948962
-0.02029814154176034
-0.3474233977593241
-0.5583663036629614
-0.0179484773991034
-0.34782580144374176
-0.5583663036629614
-0.0179484773991034
-0.34782580144374176
-0.5583663036629614
-0.0179484773991034
-0.34782580144374176
-0.5583663036629614
-0.0179484773991034
-0.34782580144374176
-0.5586008296142412
-0.014723806117030657
-0.34902075940109817
-0.5586008296142412
-0.014723806117030657
-0.34902075940109817
-0.5586008296142412
-0.014723806117030657
-0.34902075940109817
-0.5586008296142412
-0.014723806117030657
-0.34902075940109817
-0.5621557332355446
-0.01043764756356949
-0.35118142331531443
-0.5621557332355446
-0.01043764756356949
-0.35118142331531443
-0.5621557332355446
-0.01043764756356949
-0.35118142331531443
-0.5621557332355446
-0.01043764756356949
-0.35118142331531443
-0.573884930187418
-0.004308941803586293
-0.3548266795911291
-0.573884930187418
-0.004308941803586293
-0.3548266795911291
-0.573884930187418
-0.004308941803586293
-0.3548266795911291
-0.573884930187418
-0.004308941803586293
-0.3548266795911291
-0.5933854506209532
0.0036515654200339922
-0.3609831853825568
-0.5933854506209532
0.0036515654200339922
-0.3609831853825568
-0.5933854506209532
0.0036515654200339922
-0.3609831853825568
-0.5933854506209532
0.0036515654200339922
-0.3609831853825568
-0.618007229472421
0.011973452389510858
-0.36822858300037525
-0.618007229472421
0.011973452389510858
-0.36822858300037525
-0.618007229472421
0.011973452389510858
-0.36822858300037525
-0.618007229472421
0.011973452389510858
-0.36822858300037525
-0.6499845252176257
0.018963867787379886
-0.37667423922600535
-0.6499845252176257
0.018963867787379886
-0.37667423922600535
-0.6499845252176257
0.018963867787379886
-0.37667423922600535
-0.6499845252176257
0.018963867787379886
-0.37667423922600535
-0.6927329200037212
0.023558468310748818
-0.38713154563724334
-0.6927329200037212
0.023558468310748818
-0.38713154563724334
-0.6927329200037212
0.023558468310748818
-0.38713154563724334
-0.6927329200037212
0.023558468310748818
-0.38713154563724334
-0.7493287554306397
0.02798958376182034
-0.3992381018039266
-0.7493287554306397
0.02798958376182034
-0.3992381018039266
-0.7493287554306397
0.02798958376182034
-0.3992381018039266
-0.7493287554306397
0.02798958376182034
-0.3992381018039266
-0.8210242271095256
0.036492630414643984
-0.4134174429098951
-0.8210242271095256
0.036492630414643984
-0.4134174429098951
-0.8210242271095256
0.036492630414643984
-0.4134174429098951
-0.8210242271095256
0.036492630414643984
-0.4134174429098951
-0.9069875582254554
0.04794316666318307
-0.42830961261718453
-0.9069875582254554
0.04794316666318307
-0.42830961261718453
-0.9069875582254554
0.04794316666318307
-0.42830961261718453
-0.9069875582254554
0.04794316666318307
-0.42830961261718453
-0.9747755709111435
0.05542172392627831
-0.44319902448309423
-0.9747755709111435
0.05542172392627831
-0.44319902448309423
-0.9747755709111435
0.05542172392627831
-0.44319902448309423
-0.9747755709111435
0.05542172392627831
-0.44319902448309423
-0.9986764530725132
0.05975757448706335
-0.45838236103905944
-0.9986764530725132
0.05975757448706335
-0.45838236103905944
-0.9986764530725132
0.05975757448706335
-0.45838236103905944
-0.9986764530725132
0.05975757448706335
-0.45838236103905944
-0.9893241970638599
0.061276091382935716
-0.471661124239938
-0.9893241970638599
0.061276091382935716
-0.471661124239938
-0.9893241970638599
0.061276091382935716
-0.471661124239938
-0.9893241970638599
0.061276091382935716
-0.471661124239938
-0.9802576290107797
0.05795054477499163
-0.4826148968737394
-0.9802576290107797
0.05795054477499163
-0.4826148968737394
-0.9802576290107797
0.05795054477499163
-0.4826148968737394
-0.9802576290107797
0.05795054477499163
-0.4826148968737394
-0.9943540492188763
0.053828496952942784
-0.4884766612065237
-0.9943540492188763
0.053828496952942784
-0.4884766612065237
-0.9943540492188763
0.053828496952942784
-0.4884766612065237
-0.9943540492188763
0.053828496952942784
-0.4884766612065237
-1.0207218206072253
0.05221208810695804
-0.49349921640589944
-1.0207218206072253
0.05221208810695804
-0.49349921640589944
-1.0207218206072253
0.05221208810695804
-0.49349921640589944
-1.0207218206072253
0.05221208810695804
-0.49349921640589944
-1.038156261561112
0.05040464122627662
-0.49986482801358645
-1.038156261561112
0.05040464122627662
-0.49986482801358645
-1.038156261561112
0.05040464122627662
-0.49986482801358645
-1.038156261561112
0.05040464122627662
-0.49986482801358645
-1.0419006914880649
0.04800662579141985
-0.5060708278213629
-1.0419006914880649
0.04800662579141985
-0.5060708278213629
-1.0419006914880649
0.04800662579141985
-0.5060708278213629
-1.0419006914880649
0.04800662579141985
-0.5060708278213629
-1.04128021842811
0.045764623334732704
-0.5110480255088127
-1.04128021842811
0.045764623334732704
-0.5110480255088127
-1.04128021842811
0.045764623334732704
-0.5110480255088127
-1.04128021842811
0.045764623334732704
-0.5110480255088127
-1.042309699135574
0.042783091485207744
-0.5142824463490949
-1.042309699135574
0.042783091485207744
-0.5142824463490949
-1.042309699135574
0.042783091485207744
-0.5142824463490949
-1.042309699135574
0.042783091485207744
-0.5142824463490949
-1.0458368264692033
0.041623092928317416
-0.5155251921336145
-1.0458368264692033
0.041623092928317416
-0.5155251921336145
-1.0458368264692033
0.041623092928317416
-0.5155251921336145
-1.0458368264692033
0.041623092928317416
-0.5155251921336145
-1.048829289341665
0.041790225482445195
-0.5157063110226447
-1.048829289341665
0.041790225482445195
-0.5157063110226447
-1.048829289341665
0.041790225482445195
-0.5157063110226447
-1.048829289341665
0.041790225482445195
-0.5157063110226447
-1.0483708165659895
0.04313257368517363
-0.5151014750222579
-1.0483708165659895
0.04313257368517363
-0.5151014750222579
-1.0483708165659895
0.04313257368517363
-0.5151014750222579
-1.0483708165659895
0.04313257368517363
-0.5151014750222579
-1.0434673416493743
0.043197112812076104
-0.5135628770959532
-1.0434673416493743
0.043197112812076104
-0.5135628770959532
-1.0434673416493743
0.043197112812076104
-0.5135628770959532
-1.0434673416493743
0.043197112812076104
-0.5135628770959532
-1.0372511066132073
0.04212656163019308
-0.5120255003374168
-1.0372511066132073
0.04212656163019308
-0.5120255003374168
-1.0372511066132073
0.04212656163019308
-0.5120255003374168
-1.0372511066132073
0.04212656163019308
-0.5120255003374168
-1.034183145496001
0.042494787068581556
-0.5104138066593413
-1.034183145496001
0.042494787068581556
-0.5104138066593413
-1.034183145496001
0.042494787068581556
-0.5104138066593413
-1.034183145496001
0.042494787068581556
-0.5104138066593413
-1.0339265016866321
0.043412559584772324
-0.509157565219046
-1.0339265016866321
0.043412559584772324
-0.509157565219046
-1.0339265016866321
0.043412559584772324
-0.509157565219046
-1.0339265016866321
0.043412559584772324
-0.509157565219046
-1.0356832315718842
0.04424198923463907
-0.5095074303267615
-1.0356832315718842
0.04424198923463907
-0.5095074303267615
-1.0356832315718842
0.04424198923463907
-0.5095074303267615
-1.0356832315718842
0.04424198923463907
-0.5095074303267615
-1.0356253405635172
0.044922550052326246
-0.5108821128317433
-1.0356253405635172
0.044922550052326246
-0.5108821128317433
-1.0356253405635172
0.044922550052326246
-0.5108821128317433
-1.0356253405635172
0.044922550052326246
-0.5108821128317433
-1.0334442048765176
0.04503449779250888
-0.5121778850504204
-1.0334442048765176
0.04503449779250888
-0.5121778850504204
-1.0334442048765176
0.04503449779250888
-0.5121778850504204
-1.0334442048765176
0.04503449779250888
-0.5121778850504204
-1.031114774057778
0.04472447180408864
-0.5124795559387664
-1.031114774057778
0.04472447180408864
-0.5124795559387664
-1.031114774057778
0.04472447180408864
-0.5124795559387664
-1.031114774057778
0.04472447180408864
-0.5124795559387664
-1.0289564542597465
0.04467877761921605
-0.510929067778727
-1.0289564542597465
0.04467877761921605
-0.510929067778727
-1.0289564542597465
0.04467877761921605
-0.510929067778727
-1.0289564542597465
0.04467877761921605
-0.510929067778727
-1.028262283895564
0.04405350482413461
-0.5087197737161042
-1.028262283895564
0.04405350482413461
-0.5087197737161042
-1.028262283895564
0.04405350482413461
-0.5087197737161042
-1.028262283895564
0.04405350482413461
-0.5087197737161042
-1.02975858255718
0.04374103577226377
-0.5070529334600714
-1.02975858255718
0.04374103577226377
-0.5070529334600714
-1.02975858255718
0.04374103577226377
-0.5070529334600714
-1.02975858255718
0.04374103577226377
-0.5070529334600714
-1.0316279042840826
0.04340868344390502
-0.5063352879938071
-1.0316279042840826
0.04340868344390502
-0.5063352879938071
-1.0316279042840826
0.04340868344390502
-0.5063352879938071
-1.0316279042840826
0.04340868344390502
-0.5063352879938071
-1.0304872661064441
0.043578148599926377
-0.5065037444543905
-1.0304872661064441
0.043578148599926377
-0.5065037444543905
-1.0304872661064441
0.043578148599926377
-0.5065037444543905
-1.0304872661064441
0.043578148599926377
-0.5065037444543905
-1.0290760527883052
0.044371989141962456
-0.5070171735329215
-1.0290760527883052
0.044371989141962456
-0.5070171735329215
-1.0290760527883052
0.044371989141962456
-0.5070171735329215
-1.0290760527883052
0.044371989141962456
-0.5070171735329215
-1.029471634784229
0.04522501858977001
-0.5071362126375432
-1.029471634784229
0.04522501858977001
-0.5071362126375432
-1.029471634784229
0.04522501858977001
-0.5071362126375432
-1.029471634784229
0.04522501858977001
-0.5071362126375432
-1.0312735567535647
0.046364157957522155
-0.5066403018272451
-1.0312735567535647
0.046364157957522155
-0.5066403018272451
-1.0312735567535647
0.046364157957522155
-0.5066403018272451
-1.0312735567535647
0.046364157957522155
-0.5066403018272451
-1.0325266606095433
0.0473065793171005
-0.5049291030754988
-1.0325266606095433
0.0473065793171005
-0.5049291030754988
-1.0325266606095433
0.0473065793171005
-0.5049291030754988
-1.0325266606095433
0.0473065793171005
-0.5049291030754988
-1.0326092419364175
0.047791143369849326
-0.5037763612122209
-1.0326092419364175
0.047791143369849326
-0.5037763612122209
-1.0326092419364175
0.047791143369849326
-0.5037763612122209
-1.0326092419364175
0.047791143369849326
-0.5037763612122209
-1.0332067391394861
0.04824167903757705
-0.5029927999910276
-1.0332067391394861
0.04824167903757705
-0.5029927999910276
-1.0332067391394861
0.04824167903757705
-0.5029927999910276
-1.0332067391394861
0.04824167903757705
-0.5029927999910276
-1.0321138675256099
0.0478129964482273
-0.5024128800985537
-1.0321138675256099
0.0478129964482273
-0.5024128800985537
-1.0321138675256099
0.0478129964482273
-0.5024128800985537
-1.0321138675256099
0.0478129964482273
-0.5024128800985537
-1.0323945088347983
0.04742530342011087
-0.5019617995065034
-1.0323945088347983
0.04742530342011087
-0.5019617995065034
-1.0323945088347983
0.04742530342011087
-0.5019617995065034
-1.0323945088347983
0.04742530342011087
-0.5019617995065034
-1.0337405293150936
0.047203335464493755
-0.5017700238064959
-1.0337405293150936
0.047203335464493755
-0.5017700238064959
-1.0337405293150936
0.047203335464493755
-0.5017700238064959
-1.0337405293150936
0.047203335464493755
-0.5017700238064959
-1.0347350340355528
0.04712059207503824
-0.5017496332967211
-1.0347350340355528
0.04712059207503824
-0.5017496332967211
-1.0347350340355528
0.04712059207503824
-0.5017496332967211
-1.0347350340355528
0.04712059207503824
-0.5017496332967211
-1.0346947130556825
0.04695910649732614
-0.5017929879632101
-1.0346947130556825
0.04695910649732614
-0.5017929879632101
-1.0346947130556825
0.04695910649732614
-0.5017929879632101
-1.0346947130556825
0.04695910649732614
-0.5017929879632101
-1.0337647533485592
0.046329040658535714
-0.500967590218679
-1.0337647533485592
0.046329040658535714
-0.500967590218679
-1.0337647533485592
0.046329040658535714
-0.500967590218679
-1.0337647533485592
0.046329040658535714
-0.500967590218679
-1.0316529622295718
0.04551561197655154
-0.499735245205356
-1.0316529622295718
0.04551561197655154
-0.499735245205356
-1.0316529622295718
0.04551561197655154
-0.499735245205356
-1.0316529622295718
0.04551561197655154
-0.499735245205356
-1.032735979235371
0.04537911958817833
-0.497949087700949
-1.032735979235371
0.04537911958817833
-0.497949087700949
-1.032735979235371
0.04537911958817833
-0.497949087700949
-1.032735979235371
0.04537911958817833
-0.497949087700949
-1.0339402162135392
0.04587451425258374
-0.4965575170496889
-1.0339402162135392
0.04587451425258374
-0.4965575170496889
-1.0339402162135392
0.04587451425258374
-0.4965575170496889
-1.0339402162135392
0.04587451425258374
-0.4965575170496889
-1.0336890545783792
0.04699472114343784
-0.49572289049914176
-1.0336890545783792
0.04699472114343784
-0.49572289049914176
-1.0336890545783792
0.04699472114343784
-0.49572289049914176
-1.0336890545783792
0.04699472114343784
-0.49572289049914176
-1.0333999892188863
0.047937533070502296
-0.49519581483522307
-1.0333999892188863
0.047937533070502296
-0.49519581483522307
-1.0333999892188863
0.047937533070502296
-0.49519581483522307
-1.0333999892188863
0.047937533070502296
-0.49519581483522307
-1.0331550502358533
0.04850122104114141
-0.49533921269518844
-1.0331550502358533
0.04850122104114141
-0.49533921269518844
-1.0331550502358533
0.04850122104114141
-0.49533921269518844
-1.0331550502358533
0.04850122104114141
-0.49533921269518844
-1.0333270117967066
0.04888334339901738
-0.4958676672991311
-1.0333270117967066
0.04888334339901738
-0.4958676672991311
-1.0333270117967066
0.04888334339901738
-0.4958676672991311
-1.0333270117967066
0.04888334339901738
-0.4958676672991311
-1.0336211050970803
0.0490640045008918
-0.4964548643784276
-1.0336211050970803
0.0490640045008918
-0.4964548643784276
-1.0336211050970803
0.0490640045008918
-0.4964548643784276
-1.0336211050970803
0.0490640045008918
-0.4964548643784276
-1.0334445698181156
0.04873703199500143
-0.49708280250895853
-1.0334445698181156
0.04873703199500143
-0.49708280250895853
-1.0334445698181156
0.04873703199500143
-0.49708280250895853
-1.0334445698181156
0.04873703199500143
-0.49708280250895853
-1.033960176840455
0.04787282032756124
-0.49711564869446334
-1.033960176840455
0.04787282032756124
-0.49711564869446334
-1.033960176840455
0.04787282032756124
-0.49711564869446334
-1.033960176840455
0.04787282032756124
-0.49711564869446334
-1.0343439644509076
0.04678840538189216
-0.496576142096261
-1.0343439644509076
0.04678840538189216
-0.496576142096261
-1.0343439644509076
0.04678840538189216
-0.496576142096261
-1.0343439644509076
0.04678840538189216
-0.496576142096261
-1.0344190924415375
0.046658493477006235
-0.49650453907619024
-1.0344190924415375
0.046658493477006235
-0.49650453907619024
-1.0344190924415375
0.046658493477006235
-0.49650453907619024
-1.0344190924415375
0.046658493477006235
-0.49650453907619024
-1.0346014639535557
0.046954224686466615
-0.49640527776724896
-1.0346014639535557
0.046954224686466615
-0.49640527776724896
-1.0346014639535557
0.046954224686466615
-0.49640527776724896
-1.0346014639535557
0.046954224686466615
-0.49640527776724896
-1.0340251221754033
0.047321183408765725
-0.4965307375842403
-1.0340251221754033
