0
-4
-5
-3
-3
0
7
-2
-3
-3
9
3
-2
1
-7
-2
-3
-1
-12
-5
-5
-3
-2
-2
-3
2
0
0
0
-4
-1
-1
-2
2
5
0
-1
-2
-1
1
-3
0
-8
-3
-1
-2
1
1
-3
-3
3
0
0
0
1
-1
-1
-1
-11
-1
0
0
-3
-1
-1
-2
3
-2
-4
-3
-2
-1
-1
-1
-15
0
0
2
-2
-1
0
2
4
2
1
0
-1
1
-2
-2
9
0
2
1
2
1
-3
0
-1
-9
-4
0
0
-1
0
-2
8
2
0
-4
1
-1
-2
-4
-9
-4
-2
0
0
-2
0
-1
5
4
-2
-2
0
0
-1
1
4
-3
-2
-2
-6
-2
-2
-2
-20
-1
0
-2
3
0
1
0
11
2
-1
-2
-5
1
-2
-2
-6
-7
-2
2
-1
-3
-1
1
0
4
2
1
0
0
-2
0
6
-9
-3
-2
0
-4
1
0
25
2
0
-3
-5
0
1
-3
-12
-1
-1
-1
1
1
3
-2
4
5
0
0
2
-1
-1
0
1
-1
-2
0
-6
0
1
-1
-15
0
1
1
1
-3
-1
2
33
-3
-2
-4
5
-1
0
0
7
2
1
-3
-10
-2
-2
-6
-38
-9
-1
0
2
0
-2
0
9
3
-3
0
-4
-1
-1
0
-20
4
4
1
-3
0
-1
-2
18
-3
-2
-1
-1
-2
2
3
8
-4
-3
-2
0
-1
0
-4
-3
4
3
2
4
0
0
-3
-14
-4
-2
-3
-3
-1
0
-3
-9
1
0
-3
-9
-1
1
1
3
0
-1
0
7
0
0
0
-4
-5
-2
-2
1
-2
-2
2
8
6
-2
-2
-2
0
-3
-1
-19
-1
0
0
0
0
-1
1
4
-2
2
2
0
-1
1
0
19
-2
-2
-2
-3
-2
12
-1
-7
-5
-4
-1
1
0
6
2
-3
7
-2
-5
0
0
3
-4
-5
-8
-2
-3
4
0
-4
2
11
-1
1
3
-11
0
-7
-1
-11
-4
-1
0
-5
-2
-6
1
3
2
0
0
1
-2
-6
-5
-14
-3
1
0
1
0
-6
1
22
1
-3
-5
3
-2
-6
-1
-17
-5
-4
-1
0
0
-2
1
-3
5
2
1
3
2
-3
1
9
-5
-2
0
-4
-2
3
-9
-18
-9
1
-2
-1
0
-1
1
16
9
-2
-4
-8
-1
-1
-6
-5
-5
-3
-1
12
-1
-1
2
17
7
-1
0
-12
-1
1
1
-20
1
0
0
-1
-1
-3
-1
13
-7
-3
-1
2
-1
-2
-2
-17
-1
-2
-3
4
0
2
-1
1
1
-2
-2
-9
-1
-3
-1
-8
2
-1
1
2
2
-2
-2
4
2
1
1
-2
-2
-2
0
-10
-4
1
1
-1
-2
-1
2
11
2
1
-3
-1
-1
-1
-1
-6
0
-2
1
1
-1
-1
-3
-4
2
1
-1
3
-1
0
-1
0
-6
-2
-1
-4
0
1
-2
-9
3
-1
-1
2
1
0
1
2
3
1
-1
-1
-1
0
1
11
-5
0
-1
2
-1
-1
-1
2
-4
-4
-3
-6
-3
-1
0
-13
6
2
0
1
0
0
0
-8
-5
0
1
-1
0
-2
1
24
4
-1
-1
4
-1
-3
-3
-17
-3
-1
0
-1
2
1
0
-1
-1
-2
1
0
-3
1
0
-2
1
4
0
3
0
-3
-7
-16
-4
-3
-2
-8
-2
-1
0
4
2
0
-3
1
0
-1
-2
7
2
-1
-1
0
-1
-1
-6
-12
-6
-2
-5
0
-1
-2
1
-5
-1
-1
0
-4
0
0
1
14
2
-1
1
-1
-1
-1
-3
-15
-3
-1
-3
-2
0
1
2
9
-1
-1
-1
2
-1
0
-2
-7
-9
-3
-2
-2
-1
1
1
9
6
2
1
-1
-2
1
2
12
3
2
1
0
0
-2
-6
-24
-15
-4
-3
0
-3
1
-3
-13
-2
-3
-1
1
0
-1
2
14
7
2
0
-7
-1
1
0
16
4
2
-1
1
1
-2
-3
-20
-6
-3
1
-2
-1
0
-2
0
-3
0
2
1
-1
0
-3
-9
-4
-2
1
-7
-3
-2
-3
-10
0
0
-2
4
-1
-1
-2
15
4
0
1
-9
0
0
0
-10
-1
1
0
4
1
0
0
12
-2
-3
-4
1
0
-2
-2
-2
2
-1
2
-5
-1
0
-2
-9
2
1
0
2
1
-3
1
3
-3
0
-2
-3
0
-4
-4
-8
-1
-2
1
3
0
-1
-1
-4
-5
-2
-1
-4
-2
0
2
3
2
2
1
3
0
1
0
-1
7
3
-1
-6
-2
0
-1
-4
-3
-1
-4
6
0
-1
-1
3
-4
-5
-2
5
-2
0
2
5
2
0
-2
-3
-2
0
-2
-1
0
-1
-1
-1
-2
0
0
14
-1
-4
-5
-3
-3
1
-2
-21
2
1
1
-1
0
2
1
-16
-4
-5
0
1
-1
0
-4
21
5
0
1
4
-2
-1
1
-15
3
-1
0
-8
1
-1
1
21
-1
-5
-3
4
0
-3
-1
-11
-3
-4
-23
-6
-2
-2
-4
-11
-5
0
-7
-1
-1
0
-2
6
-2
4
-1
1
-2
-4
-2
4
0
-1
-1
-5
-2
-1
0
4
2
2
10
1
-1
-3
3
11
4
1
6
5
0
-4
-4
-19
-5
-2
2
-1
-2
1
0
9
-5
1
3
-4
-1
-1
-1
12
1
-3
0
2
0
-1
-1
-20
-3
-3
-1
-4
0
-1
-2
-1
-2
2
5
4
-2
1
3
3
0
1
-2
-5
-2
-1
-3
-3
-3
0
-2
-4
-1
0
1
8
4
2
3
5
1
3
0
-3
-5
-4
-1
-4
-1
2
-3
-3
-2
1
-4
2
-2
1
1
11
7
2
3
1
0
0
1
5
-1
-2
-2
-3
-3
-2
1
9
2
1
-1
3
-1
-5
-4
-49
-12
-5
-5
-5
-1
1
-2
28
0
-4
0
-3
-1
-1
-2
-25
-9
-4
0
1
-1
2
1
1
-3
-3
-3
-2
0
0
-2
12
3
3
4
2
2
-4
0
-2
-1
-3
1
4
0
-2
-1
-2
-2
0
-1
-1
-1
-1
0
10
3
0
0
-2
1
-3
-2
-16
-1
-2
-3
-7
-1
-2
0
3
1
-1
0
1
-2
-1
1
6
3
0
-2
-1
-1
-1
-2
-9
2
0
2
3
0
-2
-1
9
-7
-4
-3
-5
-1
-1
2
-5
0
-4
-3
-4
-2
-2
-2
-7
0
-1
0
0
-2
-1
-1
1
-3
-2
-1
2
-1
-2
-2
-2
1
2
2
2
0
-1
-2
-7
-6
-2
-1
-1
-3
0
0
-1
-3
-4
-1
-2
-1
0
1
-4
-5
0
-3
-2
0
0
1
16
8
-1
-2
4
-2
-1
-4
-21
-4
-2
-1
-4
-2
1
-2
2
3
-2
-2
-2
0
-2
-1
5
-2
-2
-1
-5
-3
-1
-1
2
-3
-1
-1
-2
-1
0
0
2
0
1
-1
-1
-1
-1
-4
-5
-3
-1
-3
-1
-3
-3
1
-5
8
0
-1
-2
1
-1
1
-3
-1
1
2
5
0
1
-1
0
-2
2
6
5
0
-2
-1
7
7
-2
-1
1
1
-3
-4
-14
-12
-5
0
-6
-1
0
0
-2
-1
-6
-4
-2
-1
-2
-1
-5
-1
-3
-4
-6
-1
0
3
7
-2
-1
-2
8
2
-2
-1
6
7
0
-2
7
-1
-2
0
-3
-1
3
4
-14
-1
1
2
-1
0
-1
-1
-2
0
0
-5
-7
-8
-6
-6
-5
-1
2
-2
0
3
-1
-3
1
-3
3
-1
4
0
-1
-2
1
0
1
-3
-8
-1
0
1
3
0
-4
1
17
11
0
-2
-4
-3
-3
-5
-16
-10
-2
-1
0
1
-6
-2
-6
-8
-5
-4
2
-1
-4
-3
-10
-1
-1
-2
-4
0
-2
1
-8
-5
-1
1
1
0
-1
0
2
4
1
1
-3
-2
-3
0
4
0
0
0
2
0
-3
-1
1
-7
-1
-2
1
-1
-4
-3
3
9
0
2
-6
1
1
2
9
7
0
0
-2
-2
0
-2
-8
-1
-1
-2
2
2
1
0
8
2
-1
-2
0
0
3
0
-10
-3
0
0
-2
-1
1
3
-4
0
-2
-2
0
-3
-2
-5
0
0
-3
-3
2
-1
-2
0
3
2
-1
-2
-2
0
1
2
-1
0
1
-1
0
-1
3
1
17
11
1
3
2
0
8
5
0
-13
1
1
3
-1
-3
0
24
5
-5
-4
-4
-1
-3
-5
-7
-17
-8
-6
-4
-1
9
12
23
30
17
8
5
2
-11
-7
22
-20
-18
-12
-6
-5
-3
-29
-83
-59
-9
-4
-1
-6
7
29
47
76
27
13
6
9
11
38
23
-37
5
7
7
-2
-16
23
-62
8
-30
-19
-15
-6
-8
-65
76
-33
11
3
3
-1
-13
0
8
-8
-26
-12
-10
0
9
57
-15
2
10
5
5
4
-3
-54
-62
-9
12
6
5
2
39
105
30
68
38
20
12
5
-20
-106
-97
-65
-30
-15
-10
-8
-8
45
37
70
-32
-16
-13
-2
-3
3
86
40
13
4
-1
1
16
73
68
34
-8
-1
2
8
-25
-54
-13
-10
25
6
2
-9
29
86
-6
-116
5
2
2
1
-29
-101
-10
4
-22
-15
-14
-8
-16
-77
-44
70
12
6
2
15
48
127
73
48
-13
-7
4
-2
-15
-113
65
-63
-40
-14
-9
-10
-29
-39
-73
-21
14
10
3
-9
9
-33
-20
-45
38
15
6
-1
-11
-14
39
38
-14
-8
-9
2
-1
-55
78
19
16
-7
-6
4
33
101
127
74
30
15
13
7
-34
58
-52
-7
-29
-7
-1
-9
0
51
35
-9
14
7
3
12
-21
-25
42
70
7
-1
-3
-15
11
28
57
-9
-9
-4
-1
3
1
39
-20
30
-12
-12
-3
-11
-23
-54
23
-53
2
0
-5
-10
5
-8
-91
11
10
7
8
11
-32
-47
-53
-49
-14
-15
-12
-10
22
77
23
17
8
1
-1
6
-6
-19
49
3
3
2
-2
-17
-2
-10
-80
-61
-23
-12
-10
1
28
15
4
0
11
14
8
9
-15
-24
87
-56
3
2
-2
-5
-4
15
4
-38
-14
-3
2
5
-31
-49
18
-20
-11
-5
-7
3
6
69
-72
-41
-20
-5
-1
-18
-9
-66
20
22
-12
-5
-7
8
27
58
-90
0
7
2
4
10
13
22
41
50
37
17
10
-8
14
38
49
45
5
7
5
11
-26
-92
-72
-77
-33
-17
-13
-21
20
44
6
47
37
14
10
5
-38
-81
65
-46
-47
-23
-15
-10
10
43
16
18
21
5
5
9
4
11
-23
-24
-16
-5
-3
-2
-4
-28
1
0
-11
-5
-2
2
29
-14
25
-16
13
9
8
11
1
62
104
25
-11
-7
-3
-10
-12
-50
-6
11
3
0
1
4
-3
-33
15
-9
-10
-8
-4
-1
6
61
25
41
18
12
6
4
24
7
2
12
2
5
9
9
-5
-12
81
28
2
3
0
-12
-18
-28
-77
-79
-26
-10
-6
5
0
84
19
49
14
4
1
-8
9
9
-42
4
0
-4
4
8
30
24
35
1
5
1
-6
5
-2
-77
-64
-74
-21
-2
4
3
-30
-39
21
5
-27
-15
-15
-14
4
53
26
6
14
7
4
3
-21
-72
-50
-28
-21
-16
-9
-5
16
39
68
10
16
11
5
-2
11
44
-15
16
11
3
7
6
-29
-39
-100
-64
-29
-17
-14
-14
-1
69
43
33
-3
-3
-2
4
17
31
4
107
35
17
7
5
-1
-2
-58
-47
-5
-2
3
1
13
10
55
10
2
7
5
4
5
-26
56
-23
-3
-1
1
-4
-7
38
44
-4
-17
-9
-6
-5
-7
1
-10
13
8
3
3
4
-15
-60
58
16
23
8
0
-17
4
-3
-107
-34
-9
-4
0
8
-9
1
27
-33
-31
-17
-11
-15
-11
-68
-104
1
-3
-2
-2
0
9
2
41
16
20
9
0
12
9
103
-22
12
3
-1
12
-1
-3
-20
-56
-10
-1
-2
-6
3
22
33
57
16
5
1
-7
3
-9
-54
34
-40
-22
-7
-4
-23
0
-26
33
62
6
-1
-5
-2
17
15
56
32
18
10
11
7
-3
-5
8
-75
-19
-7
-4
-6
4
19
-38
72
25
6
2
14
-8
-12
-18
-67
-32
-10
-5
-5
-1
-16
38
40
24
7
1
-1
-8
-42
57
37
4
-2
-3
5
14
54
52
1
3
1
2
-3
-22
-15
47
-24
-17
-6
-3
-15
-10
18
-44
25
6
-1
-3
-2
3
37
-31
-37
-11
-2
3
-3
1
29
-24
17
11
2
1
8
-9
9
-18
7
-3
-8
-8
0
5
19
-40
-28
10
9
11
1
-14
-56
-64
6
-3
-4
-12
-8
-14
-40
-11
-20
-35
-20
-11
-9
7
-51
31
14
16
9
3
2
-9
-21
40
12
1
-1
1
-5
5
-7
-46
-48
-2
-2
2
7
-7
-35
-18
9
0
1
4
3
-2
6
-26
29
12
5
-3
-5
4
28
-96
-27
-12
-6
-4
1
12
67
-20
36
21
12
5
4
-7
-44
71
-71
-32
-14
-7
-8
0
-9
-14
32
1
0
1
9
0
5
15
7
8
2
-1
-11
8
52
89
15
-4
-1
1
2
-9
-81
-84
-32
-1
0
-2
2
10
39
36
22
19
9
5
5
-8
-11
-57
-27
-11
-4
-1
-4
-9
-14
47
10
-13
-9
-2
-6
2
1
11
27
4
1
0
3
2
-55
-18
-3
4
1
-3
-4
3
1
10
22
6
3
1
4
-16
-44
-92
-85
-26
-10
-3
-8
2
38
8
10
2
0
-1
5
6
41
23
34
9
4
3
-3
3
45
28
-31
0
3
4
6
10
-12
-52
17
1
-2
-7
6
6
49
28
-16
-1
2
0
-2
-25
-36
-62
-48
-30
-18
-11
-8
-6
-27
-27
5
-3
-5
-2
-8
13
17
75
53
29
12
6
6
-4
0
7
6
8
3
-4
0
10
31
52
24
17
9
10
5
-2
8
116
-11
-14
-7
-7
-4
-6
27
18
34
-2
-3
0
1
-5
-22
32
12
-8
-8
-2
-1
6
71
-35
-3
4
2
-1
6
-1
-3
108
39
5
-1
-2
-8
-11
-10
4
-27
-13
-6
-2
-7
3
-14
-58
1
5
3
1
6
3
35
9
-44
-17
-6
-3
-6
-3
-19
95
50
5
-1
-2
-1
-5
-36
-3
-23
-6
-2
-1
-2
-4
-2
63
7
2
0
1
-3
18
33
75
60
28
11
5
10
-4
-26
-24
2
-8
-3
-6
1
4
-52
92
26
7
3
6
-1
0
26
55
33
18
7
4
3
-5
-13
52
-24
-15
-5
-1
-3
-5
-3
-43
-19
-6
0
-5
0
10
61
27
24
14
3
-2
1
2
18
-110
-42
-11
-2
-1
-3
-5
-36
-10
10
11
4
2
-1
-13
-46
-54
-25
-10
-7
4
-3
12
47
39
-9
1
5
3
6
-11
-30
1
0
-15
-7
-9
-5
-7
-69
-38
-15
3
4
0
1
-1
0
-44
2
-9
-6
-3
-2
8
15
-5
51
24
10
7
6
-4
23
12
-10
-10
-9
-3
-5
-1
-31
-86
-33
-11
-4
-1
-2
13
64
-51
3
3
2
4
1
-11
-23
23
4
-7
-3
-3
-6
-5
-18
7
-43
-4
-2
-3
-3
-11
43
-5
-50
-20
-7
-3
-3
7
-1
54
30
23
9
3
2
-6
7
-73
-58
-17
-7
-1
3
-7
-58
-40
19
7
3
2
-10
13
8
-22
12
6
2
3
1
-6
-18
-45
-57
-20
-9
-7
-3
2
19
-10
47
9
5
2
6
-2
18
9
4
1
1
0
1
9
-43
-18
15
18
8
4
-1
-1
0
41
55
7
1
3
3
-7
-18
-19
-34
-13
-8
-7
-5
-8
-33
10
-9
-8
-2
-3
-3
5
26
47
15
9
3
2
2
2
16
43
-1
8
2
2
2
0
-35
-93
8
15
7
3
2
-7
-8
42
43
2
0
-1
2
-1
28
76
22
-9
-7
-7
-1
0
-21
39
2
2
-1
-1
0
-3
2
-46
-12
-1
-2
0
0
18
69
-55
-16
5
4
1
1
-14
-40
-35
-62
-18
-9
-5
-6
-2
30
-113
-18
-8
-3
-6
-2
-6
-24
41
21
-12
-9
-4
-8
-8
21
6
6
-13
-7
-6
-2
11
20
-45
15
7
1
-1
3
-1
-55
53
3
10
4
0
-3
-7
-16
54
-31
-4
-2
-1
-3
-4
-47
-3
21
6
1
-1
1
-14
-50
-4
-10
-9
-5
-2
-1
-4
24
9
1
-4
-2
-3
-1
-7
-16
95
6
-9
-7
-4
-5
6
29
49
-1
-1
-2
1
0
-7
-10
13
-8
-11
-4
-3
-5
-4
-26
-32
0
2
-2
-2
3
-6
-37
-63
-39
-4
0
1
-3
-6
-4
-25
-7
-3
-7
-5
-3
8
33
-4
22
8
6
4
4
6
-10
-30
-22
-7
-2
-2
1
5
49
44
8
-4
-3
-1
2
2
-25
-16
16
8
2
3
4
-3
1
47
8
-3
-1
1
0
-6
-4
50
-4
-4
-3
0
-4
6
11
1
26
9
7
2
1
16
29
0
-24
3
7
6
2
-9
12
125
28
-4
-9
-7
-6
-4
-14
-37
-17
-10
-3
-2
2
-1
1
-8
16
6
0
0
-2
9
55
76
7
-4
-2
1
0
7
-15
-93
14
17
9
5
4
-16
-45
91
-8
-13
-6
-3
-9
-4
34
-32
20
3
0
-1
2
-6
-51
-32
2
-2
0
0
1
11
9
-11
48
25
9
2
7
7
35
50
-12
-9
-4
-1
-5
2
-20
-18
-54
-17
-5
-4
-6
-7
-34
-63
-14
2
1
-1
0
-2
23
11
12
-3
-5
-4
-2
8
29
10
3
1
1
2
2
-9
-36
-44
-6
-6
-4
-4
-8
5
-38
-20
-8
11
5
3
1
-4
-16
-66
-58
-11
-2
1
0
3
-33
-85
-15
-3
-2
-3
3
-9
-62
59
-12
-13
-9
-6
-2
-2
-8
-38
-4
1
-1
0
-2
-2
26
5
17
0
-3
2
-3
-3
21
41
-12
0
0
0
-4
-6
-33
-48
-23
2
0
0
0
-6
29
28
17
-6
-1
-4
-2
3
13
30
-4
1
0
0
-1
7
32
-25
10
2
1
-1
-1
-6
-13
-38
-47
-14
-5
-4
-5
-2
-52
23
14
5
-1
-1
1
3
28
94
27
-2
-2
0
-1
-11
-19
-25
-42
-13
-5
-5
0
4
25
-33
44
14
4
3
2
7
-4
-19
-19
3
3
3
-1
-8
-50
-78
-22
-7
-3
-4
-4
8
-5
-18
11
13
4
4
3
-3
6
-5
-15
-8
-5
-3
-1
2
29
-47
-38
-17
-6
-3
-1
-1
-38
-42
-23
0
2
1
1
-3
-14
-4
18
6
1
0
0
3
26
-95
-13
7
4
3
3
2
-59
31
20
6
1
-2
-4
-9
20
60
-43
-22
-9
-8
-6
-6
-15
-6
5
-6
-5
-6
-5
0
7
23
-27
-7
-3
-2
2
-1
3
16
15
-6
-6
-2
0
0
5
-11
6
-6
-3
-3
-2
-4
-37
-70
19
11
1
3
-2
0
10
93
26
2
0
-2
-4
7
43
15
-10
4
2
3
1
-7
-45
-67
-44
-14
-5
-3
-3
-5
28
84
3
-4
0
-2
-2
8
19
-5
13
17
11
4
5
-11
9
-9
-14
-12
-7
-6
-3
7
31
-1
32
10
1
0
5
2
30
28
6
-2
-1
-1
0
8
19
42
3
-1
0
1
0
-7
-14
35
7
4
4
1
-1
4
-3
-15
-24
0
-2
0
0
7
10
44
1
-15
-5
-2
0
-22
-44
-44
-32
-9
-10
-9
-6
2
14
29
21
5
2
1
1
-1
-15
27
14
7
1
-1
-5
7
-24
59
-5
0
2
3
0
8
31
52
39
4
0
-1
2
-6
-20
-58
-5
-6
-2
-4
-2
-1
-27
20
22
5
1
0
-2
-6
36
-36
5
8
4
3
0
1
-26
-8
10
1
0
1
0
-5
26
-42
-27
-7
-5
-3
-2
8
35
30
3
0
6
2
5
13
50
70
93
34
9
4
2
-12
-6
-9
-20
-13
-4
-5
-5
4
32
18
10
-2
1
1
1
10
11
36
15
5
2
4
2
-15
-56
-31
-83
-15
-5
-6
-5
2
6
57
38
14
3
1
-3
-11
-28
-1
-39
-14
-7
-5
-3
-5
29
44
19
-6
-6
-5
-4
1
7
-36
-14
1
1
0
3
6
-28
-2
31
6
0
1
0
17
35
62
-18
4
6
5
1
-15
-10
72
14
-12
-9
-6
-5
-3
-4
66
20
-1
-3
-4
1
12
62
48
-1
6
5
4
4
-6
-15
2
19
0
-4
-1
-3
-1
-17
16
-18
0
-1
0
-2
-6
-38
28
26
-5
-4
-5
-3
0
-27
-49
-21
-4
0
0
1
-1
15
-39
26
11
4
0
0
16
40
5
19
-4
1
0
0
-10
9
-90
-18
-7
-7
-5
-4
6
38
20
-17
2
2
4
1
-7
-69
66
22
3
-2
-2
1
-9
-8
42
-3
2
1
0
-1
0
13
2
-2
-3
-1
0
3
-2
-23
-23
-17
-9
-2
-2
0
10
-6
-44
-5
9
4
4
3
-20
-1
48
-64
-40
-17
-11
-6
4
-28
-72
-41
6
5
3
0
10
55
72
44
13
4
5
3
3
0
63
4
-18
-8
-5
-5
9
-19
-72
-1
15
6
5
2
0
35
40
-13
-9
-8
-2
-3
-6
-23
39
26
-1
-2
0
8
14
85
-97
16
21
12
7
-3
-4
-11
-31
-4
-4
-5
-1
-1
2
42
-46
25
12
5
3
0
0
20
-28
-25
-13
-5
-5
0
-7
-2
-61
-22
-9
-6
-3
1
3
-12
37
6
11
5
3
4
0
-36
8
13
0
1
-2
-2
-1
5
-28
31
8
1
0
-3
-13
-46
-67
-67
-17
-7
-6
-6
-2
40
-99
-4
1
0
-2
-1
-4
-43
-72
-5
-12
-7
-3
-2
-8
-19
74
24
0
-2
-3
-8
3
39
57
4
3
-2
-1
0
-12
-36
-28
2
-1
-3
-3
-2
-1
22
58
-13
-7
-3
-1
1
-6
-23
-40
-21
-15
-11
-6
-2
2
-21
0
17
17
10
5
-1
1
12
-25
14
11
6
3
0
6
-11
22
2
7
4
3
2
-2
24
9
-8
-3
0
-2
-5
0
-3
31
9
-13
-8
-6
0
-2
-24
-37
-26
-6
-3
-2
-2
-3
4
-31
-7
-3
-2
-2
-1
0
-4
-6
2
1
0
-3
-1
-5
-11
-28
-6
-7
-2
1
-1
0
2
10
10
5
5
0
-1
2
8
19
-2
2
1
0
-1
-1
-4
-27
-17
-2
-2
-2
-2
-10
-15
27
-15
-11
-5
-4
-6
4
10
-12
-2
6
2
3
0
-7
-9
-40
-9
-9
-5
-3
-2
-5
-6
13
-1
-8
-5
-2
-3
-1
-7
-12
-18
-6
-5
-1
1
3
8
7
7
5
2
1
1
-1
8
40
5
3
2
0
1
-4
-15
-45
-12
1
2
0
-1
2
-7
9
7
5
1
-1
2
0
5
26
14
0
-2
-3
-2
4
0
13
-2
1
1
1
-2
-2
-4
-16
-12
-7
-5
-2
-4
-1
-6
9
-2
-2
-3
-2
0
3
8
-19
-7
1
2
-1
1
-1
-14
-71
-32
-9
-3
-2
-1
-3
2
-1
-3
-2
-3
-2
-1
-1
-2
7
5
1
1
1
2
-1
2
16
1
-3
-2
-3
0
7
8
26
8
7
4
3
3
2
0
-1
6
2
0
0
0
-4
-11
-83
-15
-8
-3
-3
-5
-3
-8
-24
6
1
-2
-2
-1
-2
8
44
17
0
-1
0
-2
-3
-3
-21
-15
-3
-3
1
-1
0
4
22
10
4
0
-5
-1
-4
-4
-7
-7
-2
-3
0
-3
-1
5
20
1
-1
3
1
-1
-3
-5
-7
1
-1
2
1
-2
-1
2
30
5
3
0
3
0
-2
1
16
-1
-5
-4
-3
-2
-3
-1
-5
-9
-5
-6
-4
0
3
1
17
3
2
0
0
2
3
4
9
4
0
0
-2
0
2
0
10
1
-2
-2
-1
-1
2
-6
4
3
-1
-1
1
-2
2
-4
-31
-8
-1
-1
0
-1
0
0
0
5
1
6
-7
-1
-2
1
10
-8
0
-2
-6
-1
-3
1
29
14
3
0
-1
-2
-2
-3
-36
3
1
2
2
0
-5
-2
26
4
-2
-2
2
-2
0
0
-3
-1
0
1
3
0
0
-1
-21
-6
-2
-2
-4
-1
-3
-2
19
-2
-2
-2
-2
-2
-2
4
16
10
3
-1
1
-1
-1
-8
-58
-3
3
0
0
1
-4
0
18
-3
-5
-6
-4
-4
-1
-2
18
6
-2
0
3
-2
-2
-4
-14
-5
-2
1
-1
1
-1
3
17
4
-1
-1
-1
1
-1
1
0
-2
0
1
1
1
-4
-1
-18
-6
0
-2
-2
-2
-3
-6
-4
-6
-5
-4
-3
-3
-1
-1
24
2
-3
-2
1
-3
0
1
-4
-2
0
0
0
-1
-1
-1
19
3
0
2
-2
-1
1
-4
-10
8
4
0
1
-1
-1
0
16
-1
-5
-2
-1
-1
-3
-2
-3
-8
-2
1
2
1
1
0
-25
-1
4
2
-6
0
-2
-1
12
2
-2
-1
-1
-1
-1
-2
1
-4
-4
-2
0
-2
-1
3
11
8
0
0
-1
0
-1
2
18
2
-1
-2
1
1
-3
-7
-38
-20
-7
-4
-3
-2
-1
5
38
8
1
1
0
0
-1
-12
-46
-6
1
-2
1
1
-2
-3
9
-8
-4
-3
-2
-1
1
4
8
12
1
1
0
-1
-1
-4
-7
-5
-1
-2
-1
-1
-3
2
4
-2
0
0
1
-2
0
-3
12
-2
3
2
0
-1
-1
2
-1
1
3
1
1
-2
0
4
6
7
1
0
1
-1
-4
-5
-24
-14
-8
-6
-7
-4
3
-2
-7
-2
-1
0
-2
0
1
2
16
6
2
1
1
0
-1
-2
-16
-4
-2
-2
-1
0
0
1
3
2
2
-1
-1
1
-1
0
8
1
-2
-2
7
0
1
-4
-6
-4
-1
0
-8
-1
0
4
2
-1
1
1
-1
-2
-1
-7
-21
-9
-3
-6
-2
0
-5
-2
-13
0
-4
0
0
-2
3
5
15
16
8
7
10
1
-2
5
12
-12
-3
2
-2
-1
-4
-9
-64
-20
-6
-4
-4
-5
0
-2
17
10
-4
-5
-7
0
-4
-1
1
-2
-2
-6
1
-2
0
-2
-2
0
2
-1
1
0
3
6
25
3
3
3
0
1
1
-1
-5
1
1
1
0
-2
-3
-2
4
-9
-9
-6
-2
-2
-1
-1
0
0
1
1
-1
1
-6
-7
3
-6
-3
-1
-2
-2
-2
-3
-10
0
2
1
-1
1
-1
1
-5
-2
-1
0
0
0
-2
-4
-9
-3
-2
-4
-4
0
2
4
17
6
-1
0
2
1
1
1
7
3
2
-1
-1
-1
-1
-3
6
-10
-5
-5
-4
0
-2
-4
-17
3
-4
-2
-2
0
1
4
16
13
8
5
-1
2
1
2
9
7
1
-2
-2
-1
2
1
-23
-9
1
2
10
-2
-4
-9
-11
-7
-4
-2
0
-6
-3
-1
-23
-5
-5
-2
-3
0
-2
-2
5
-2
-1
-2
-3
-1
0
-3
-4
5
-2
-2
-3
0
2
0
6
5
3
1
2
0
2
5
0
2
3
3
3
0
-1
-7
-23
-10
-3
0
-4
-4
-1
2
17
0
-3
-1
-5
-1
-2
-1
-12
-4
-3
1
1
0
0
1
28
7
-2
-3
-1
-2
0
1
0
1
-1
-1
5
-1
-1
0
-6
-1
1
5
-1
-1
-1
-2
-3
-4
-2
-2
-1
-3
-1
0
15
4
0
0
1
-2
0
1
0
2
-2
0
2
-2
-3
-6
-11
-11
-2
-4
-8
-1
-1
-1
-6
-11
1
1
4
1
-1
-1
15
-19
-1
0
0
1
2
-7
-19
-20
0
-2
-1
1
-1
-3
-8
7
0
-1
-1
-1
1
-1
6
10
0
-2
-3
-1
-2
-5
5
7
-5
-2
-3
-3
0
0
8
2
-2
1
1
-1
0
1
1
8
5
1
1
1
0
-3
3
3
-2
-4
-4
-2
0
0
-8
6
-2
-3
0
-1
-2
2
1
2
2
1
-2
1
-2
-1
18
-2
0
0
1
0
0
-2
-23
-2
-1
0
-2
0
0
2
9
4
-1
0
0
-1
-1
-3
-3
0
-3
-3
-2
-2
1
1
2
4
0
-2
1
-1
-3
-6
-19
-8
-3
-1
-2
0
-1
2
0
5
0
0
-1
0
-1
3
-4
2
1
3
1
1
-1
-1
-1
-5
1
0
2
-3
0
0
20
2
-2
-2
0
-2
-1
0
-6
-1
0
-3
-4
0
0
-2
-28
3
-2
-1
-1
-1
-1
-3
-2
-9
-5
-3
-1
0
-1
1
18
9
7
4
-1
-1
-1
-2
-12
-2
2
0
0
2
0
7
26
14
6
2
1
-2
-1
-4
-34
-9
-5
-3
-1
-1
-7
-8
-2
-16
-12
-5
-3
-1
0
2
16
3
-1
-2
0
-2
0
1
13
5
-1
-1
0
0
4
1
-5
1
1
-1
0
-1
1
3
-2
-7
-1
0
0
-2
-1
-3
-1
3
4
2
-1
-2
-1
0
23
-1
-4
-3
-2
0
-4
-8
-37
-13
0
-2
-2
-2
-3
-3
11
11
-4
-3
-2
0
-1
3
4
1
1
0
-1
0
2
4
52
3
3
1
1
-1
-4
-13
-45
-40
-11
-5
-3
-3
0
4
35
20
0
-1
-2
-2
-1
-5
33
-18
-8
-4
-2
-1
-4
-8
-24
-5
0
-1
-1
-3
2
7
13
12
6
3
2
1
1
-5
-17
-10
2
0
1
-3
-1
5
52
7
-3
-4
-2
-2
-2
-7
-81
-5
1
-3
-1
-1
-3
3
48
29
1
-1
0
-1
-1
-5
-54
-8
1
0
-1
1
6
2
-42
2
5
3
1
-1
3
18
84
17
10
6
1
2
-6
-24
-34
-38
-17
-5
-6
-7
-2
6
35
2
-2
-3
-2
0
-4
-3
-30
-10
-4
-4
-2
-3
1
-4
-53
42
3
-1
0
3
13
13
21
19
34
16
8
3
1
5
83
30
-1
-3
0
-3
-10
11
95
-29
-21
-10
-5
-6
-4
-27
-86
-44
4
4
2
-5
2
8
9
18
-4
-3
0
6
-1
9
-56
-3
-10
0
0
3
4
12
17
31
21
5
0
0
-20
-60
-26
-69
-31
-13
-9
-8
13
29
26
-33
-1
1
2
-5
5
-23
40
49
30
5
2
0
4
37
41
66
0
1
0
0
1
31
9
-37
8
5
4
0
2
38
-19
-5
-22
-13
-7
3
14
-59
80
71
55
25
13
8
-45
-96
-108
-44
-48
-20
-16
-10
20
68
-9
40
20
7
4
8
-5
-28
127
76
33
10
3
3
-25
-2
4
-63
-69
-28
-13
-12
26
49
50
59
43
16
12
13
-15
-26
104
-35
-28
-15
-11
-13
2
-10
-28
-11
2
6
0
10
11
127
-48
-4
-1
-3
0
-6
-6
-37
-12
-6
26
8
3
-1
3
2
39
5
-10
-6
-1
-7
-9
-18
28
-83
-9
-6
-5
-4
8
50
-57
-1
-2
-5
-4
3
-6
16
-58
-24
-16
-4
-3
2
8
5
-12
34
23
9
5
-1
18
66
7
9
-13
4
8
3
-22
-124
-41
-74
-11
-11
-9
-10
13
71
-81
43
10
2
5
4
-3
-44
-73
14
5
-1
-4
5
4
-10
21
16
-9
-2
2
4
-29
-121
4
-26
-19
-8
-5
-8
26
26
75
-58
11
12
9
-2
-23
-64
-28
-3
-19
-4
-3
1
-9
6
91
65
-5
-9
-5
-1
9
37
-46
-59
-14
-1
-1
1
8
37
-4
-3
2
3
2
-1
-15
-57
42
-30
-20
-11
-7
-10
7
5
28
33
16
6
5
-3
-18
-1
35
7
-24
-13
-11
-12
-13
68
71
28
-14
-10
-7
-1
-9
-65
15
12
-4
0
-1
7
12
83
28
54
11
6
3
2
22
-8
20
-5
45
24
15
10
-20
-26
56
41
-8
-11
-11
-8
22
105
113
82
10
2
6
3
-24
-51
12
-76
-40
-20
-16
-10
19
100
102
69
19
9
8
8
2
-80
-9
-12
5
4
2
-1
34
113
-4
14
23
19
12
15
-10
-56
29
13
2
-5
-5
-3
-12
-11
-88
7
-20
-14
-12
-9
19
23
18
-11
3
4
5
5
2
71
41
37
-2
-5
-6
-1
14
41
-102
29
34
14
9
5
-10
-28
57
-68
-27
-16
-10
-10
-3
-2
20
-3
-15
-5
0
-4
-8
-41
-64
-45
-16
-6
-3
-5
-3
-1
9
-11
13
6
3
-4
4
-22
32
52
29
15
8
5
-37
-77
-1
-30
-57
-32
-23
-19
-8
-6
33
-4
-8
-8
-6
-4
-5
-13
-105
-16
-6
-4
-2
-1
17
28
-38
19
14
9
8
4
-10
-41
43
-49
-18
-11
-6
-9
-7
-40
-4
24
8
3
0
2
-5
-24
10
4
-7
-6
-5
-2
15
42
74
48
20
10
7
6
9
26
-35
-26
13
9
4
7
-1
24
64
-11
-13
-4
-6
-6
-22
-26
24
29
-16
-12
-11
-10
17
102
62
33
13
4
4
8
-9
-37
54
-15
-12
-8
-4
-5
-13
-30
-47
-29
-5
-2
-2
-8
-11
-82
-59
-59
4
4
1
-3
-3
-8
15
-13
-2
1
1
1
3
-21
-70
73
26
8
3
5
-91
23
-49
-32
1
1
2
1
-111
-46
47
-15
1
1
1
-2
-110
-59
-55
-4
-10
-8
-6
-6
-28
90
-53
12
24
13
10
7
15
-79
-3
0
14
5
3
3
38
16
91
1
-12
-4
-2
1
36
44
23
-18
-13
-5
-2
-4
22
-81
-89
-41
3
0
-5
-4
29
-8
-55
-44
-37
-15
-10
-10
25
66
-11
-76
-37
-14
-10
-5
32
-62
56
54
15
5
3
4
10
38
25
-14
-13
-6
-4
-4
32
6
-60
-3
23
9
4
7
27
-2
51
27
1
-1
0
-2
-5
-37
-2
-7
-23
-14
-11
-9
6
-28
10
-19
-3
0
1
-2
24
9
47
29
13
6
4
6
15
6
45
17
12
2
3
-1
27
52
32
32
25
10
7
6
-18
-42
65
35
-34
-22
-14
-5
3
-10
32
2
-9
-4
-4
-4
14
27
-32
6
-2
-1
-2
0
2
-10
-39
-32
-6
-1
-1
-3
14
-2
-57
-14
20
10
6
6
4
26
-55
-7
-9
-6
-5
1
-2
6
-5
26
-1
-1
-1
-3
-7
-32
-105
-11
1
-2
0
-2
4
1
-28
-28
-6
-1
-2
1
-6
-9
6
-1
-4
-4
-2
-5
1
-14
-70
6
6
1
0
3
12
-2
31
-6
22
10
4
4
-19
-40
-101
-69
-34
-15
-11
-8
0
3
81
31
5
2
2
3
-7
-23
-84
-59
-13
-2
-1
-5
-3
-22
-52
-47
-13
-6
-5
-4
4
41
63
-6
8
4
5
5
3
-6
77
1
3
2
1
-2
-6
22
64
43
-5
-5
-3
-3
9
-3
-2
-1
-3
0
1
4
9
25
54
10
19
7
3
2
0
25
15
-32
-11
-4
-2
-3
11
19
-65
27
25
11
6
6
-5
54
61
17
-23
-11
-6
-7
6
31
127
34
13
4
6
3
-14
23
58
-18
-24
-14
-9
-6
7
-7
-67
-12
17
9
4
2
-12
-62
33
6
-10
-4
-3
-1
5
10
-37
23
4
2
2
4
2
-55
-53
-1
11
5
5
1
0
-11
17
-9
9
0
-1
-2
0
31
-107
-12
-12
-6
-3
-3
10
-1
16
19
8
5
2
2
-1
30
4
29
11
2
2
5
-2
-23
67
17
0
1
-1
5
-20
-52
-19
-51
-24
-12
-8
-8
-9
29
-34
-55
-14
-1
-1
-5
-1
25
1
73
28
7
2
-2
-15
5
9
-38
-31
-18
-9
-9
-1
-3
-80
-56
-1
2
0
1
8
4
2
13
6
5
3
4
-8
-33
-27
-35
-23
-10
-5
-11
5
38
49
34
13
5
2
0
-14
-35
56
0
3
0
-4
-1
0
47
44
18
1
-2
0
-1
13
9
-83
-26
-3
0
2
3
6
-13
49
28
8
4
2
4
-2
20
92
-5
-10
-7
-5
-5
-4
-15
42
3
-8
-4
-3
-4
-1
4
50
20
4
2
1
2
-4
-49
-21
-72
0
2
-2
-2
-2
30
84
-10
-13
-5
-3
3
6
-4
70
51
16
8
4
4
-6
6
108
-22
-14
-4
-1
-3
1
0
8
-11
-7
1
1
-1
14
-11
-3
-10
18
7
4
6
-8
-46
-111
18
-5
-6
-5
-6
-2
-72
-54
-3
12
7
5
2
-11
16
31
-47
-24
-9
-5
0
5
22
39
27
13
8
4
4
-3
-20
-33
-41
-9
-4
-3
-2
7
9
-30
-6
7
6
2
4
-5
-24
-46
7
-1
1
-1
-4
-4
-12
-24
17
-2
-1
-1
2
9
-47
-39
20
34
17
10
7
-7
-4
70
27
-6
-9
-8
-6
-5
38
21
-15
4
3
2
-6
7
27
-66
22
12
5
3
3
0
39
9
-6
0
-1
-2
-2
-20
-4
37
-50
-39
-18
-13
-9
-4
-6
-12
14
-1
-4
-2
1
1
30
2
27
16
5
3
1
-4
4
100
-3
-3
-2
0
0
-2
15
-52
-12
-6
-6
-6
-3
-6
20
62
22
-10
-7
-4
-2
6
5
2
-7
3
3
4
0
-6
-40
87
2
-13
-7
-6
-5
13
28
-73
12
26
9
5
2
11
34
36
29
0
-2
1
0
-24
-55
-29
-25
-10
-8
-5
-6
0
-12
-95
0
13
6
2
7
10
65
111
9
-1
1
2
1
5
-4
28
32
6
1
1
1
10
24
44
1
10
7
2
-3
-10
14
75
-36
-27
-14
-9
-7
-7
5
-1
2
-2
-3
-2
-1
4
-4
31
5
1
-1
0
4
-1
8
-1
-22
-7
-4
-4
-3
3
15
-27
-4
5
3
1
-2
12
28
45
27
14
8
6
4
-29
-89
23
-65
-23
-11
-8
-12
-1
31
-28
-13
-7
-3
-2
2
6
14
-10
23
6
1
1
5
-2
-23
10
2
-2
0
2
1
15
30
-13
22
15
7
4
4
-5
-26
53
0
-5
-4
-1
-5
-4
11
33
-7
-6
-3
-1
-6
-2
-16
-86
12
-1
-1
-2
1
5
-38
-5
33
14
8
3
8
-10
-21
55
42
-2
-2
-3
-3
2
33
-73
-1
2
0
0
1
-13
-54
-52
4
-5
-4
-4
-3
-4
-34
-33
-18
-3
-2
0
2
7
40
12
14
-1
-2
-2
1
-7
-49
-85
-42
-10
-2
-1
-5
3
62
38
5
-3
-2
-1
-3
-4
1
-117
-41
-7
-4
-2
-1
5
8
38
7
-1
-1
-2
0
5
-4
26
30
9
5
2
0
3
10
24
-15
-15
-8
-5
-3
-6
-15
-5
16
9
0
0
-5
-3
-16
-113
-66
-22
-8
-5
-2
-2
8
46
-38
-5
0
1
3
-5
-45
23
26
10
3
-1
-2
9
55
64
25
5
4
1
0
3
0
-74
-20
0
3
4
2
-16
-34
59
14
-9
-9
-8
-3
1
34
-26
-28
0
2
2
1
-4
-21
69
2
2
1
1
-1
-1
-40
-58
-9
5
2
0
0
0
-12
75
57
12
5
2
0
0
-18
-58
-34
-5
-1
-2
2
-9
6
13
5
-14
-8
-6
-5
-2
19
79
0
-3
-4
-3
-2
4
-5
-28
-25
-6
-3
-1
-3
-5
-66
-67
-40
-5
-3
-3
-4
2
1
17
-2
0
0
0
-1
1
0
65
27
7
0
2
0
4
-12
-11
-27
1
1
2
-3
-1
-4
33
5
3
1
1
1
10
23
-14
-6
-11
-5
-1
0
-22
-82
3
-2
-12
-9
-7
-9
10
37
30
25
17
8
5
4
-2
-10
-60
-18
-8
-6
-3
-3
0
-1
-16
-17
-3
0
-1
1
4
91
107
8
-1
-1
0
-4
11
17
-30
19
15
6
2
8
-16
-18
35
-40
-30
-13
-6
-7
0
19
16
5
6
0
0
0
5
8
-44
11
3
2
2
2
0
-2
-31
-22
-3
-1
0
-1
8
22
127
27
16
5
3
1
-17
-39
-3
-33
-23
-11
-8
-5
-2
-13
3
3
-1
-2
-3
-2
-5
-26
3
-8
-7
-3
-3
-3
22
6
81
69
38
20
13
9
-13
-50
-89
-61
-16
-6
-7
-2
-1
11
74
40
8
2
2
0
-10
-14
-20
13
-6
-7
-6
-5
3
24
14
22
1
-1
0
2
8
5
-33
3
19
10
6
4
2
55
-53
-16
3
2
0
-1
-13
-34
35
32
-4
-3
-1
-1
-15
-20
-82
-13
-17
-7
-6
-6
5
33
-32
22
7
1
1
-3
3
10
-16
0
-1
-2
-2
-1
-4
42
-8
19
-7
-8
-4
-1
7
12
28
6
10
5
3
2
4
32
67
24
8
2
2
-1
-6
-48
-97
-22
-6
-3
-1
0
-4
8
-60
-42
-9
-4
-2
-5
-6
-2
-29
-23
-9
-5
-2
-2
7
12
-11
33
11
5
3
4
6
-19
74
-15
17
6
4
2
-12
-24
-58
-33
-27
-14
-11
-6
1
-2
56
14
1
0
1
-2
-5
13
-8
-14
-7
-3
-4
-4
1
-14
27
8
2
1
1
5
-9
4
61
-25
-16
-7
-5
-7
-9
-23
-6
-15
-2
-2
-2
1
5
12
-8
31
6
0
-1
1
-5
-11
-20
-12
-7
-3
-2
-6
2
-16
-77
-3
11
8
3
3
-1
-4
21
17
0
-4
-2
-2
7
26
-2
14
4
0
2
1
-3
-24
12
-19
-11
-5
-5
4
15
18
63
45
28
13
9
6
-11
-39
-75
-19
-8
-5
-6
-5
-2
10
-36
-22
-10
-1
0
-2
3
0
31
31
13
4
4
-2
-8
-21
-25
-32
-20
-12
-6
-9
-3
3
119
17
-7
-2
-2
0
-1
22
-5
8
1
-1
0
-1
0
-18
-71
-4
1
-1
0
-1
1
-7
51
5
7
5
2
-2
1
31
116
9
-2
-3
-1
0
-4
-38
68
-16
-5
-1
-2
1
-12
18
-64
-30
0
0
-2
-1
-3
12
53
40
3
-1
1
2
5
0
-60
-5
5
2
3
-2
-2
-17
23
-7
0
-3
-4
1
4
17
61
4
-5
-2
-2
0
4
-16
7
13
10
3
2
2
0
18
-72
-36
-7
-2
-2
-4
-12
-29
54
16
-4
-5
-4
-6
2
-4
7
0
-3
-2
0
0
9
54
35
16
8
2
4
4
10
-4
31
29
14
5
4
1
-9
-19
-94
-47
-18
-10
-7
-6
-2
-7
21
5
-3
-1
-3
0
3
10
-19
-17
0
3
1
1
2
18
43
15
4
-1
-1
3
-4
-5
7
-6
-4
-4
0
0
-2
-5
-8
-5
-13
-7
-4
0
11
-7
-5
2
3
2
2
2
-8
4
-14
-21
-10
-3
-1
-8
3
9
34
10
3
0
2
0
-1
13
19
1
-4
-1
-3
-4
1
3
32
16
3
2
-2
-2
-4
-3
-79
-46
-8
-2
-4
-2
-2
-5
-31
-4
-6
-4
-3
-5
-3
-3
-16
19
1
1
1
3
-4
4
33
-9
-4
-3
0
-3
4
-1
3
-9
-2
0
-2
1
3
3
15
3
2
-1
-1
-1
4
2
-31
-12
3
1
2
1
-8
-17
-26
-13
-6
-3
-4
-4
5
18
-41
32
12
5
2
4
-1
28
60
-1
-8
-4
-1
-2
-1
1
2
-2
-2
-3
-2
-4
1
1
-9
-2
3
0
1
0
3
9
-22
11
4
3
1
3
3
5
31
15
9
5
2
0
-12
-1
71
-18
-19
-8
-7
-7
-3
1
-40
-15
-7
-5
-3
-2
0
-2
-2
3
2
-3
0
0
2
10
24
14
3
1
2
2
-1
-5
6
5
4
1
0
0
0
-1
17
21
9
4
1
1
-2
3
7
-18
-9
-5
-4
-2
2
-21
-47
-9
5
3
1
2
-1
6
16
10
-2
-3
-1
-2
-3
-1
-9
-3
-5
-1
0
0
2
-1
8
11
6
4
-1
1
2
0
-4
1
1
1
0
0
-2
-23
-50
-20
-4
-2
-1
-4
-3
-1
-34
-7
-5
-8
-8
-3
-3
0
5
-7
-1
1
5
-1
-2
-4
-4
-8
-5
-2
-5
-1
0
5
-1
8
6
6
4
-1
-2
-1
-12
1
3
1
-6
0
-4
-8
18
-11
-9
-7
-2
-4
0
-2
-2
10
1
0
0
1
0
3
5
7
2
-1
-11
-1
-1
-1
20
0
-1
3
5
0
-2
-4
-43
-8
-4
-8
-14
-3
-1
2
1
1
-1
-2
4
0
0
2
19
4
1
0
9
2
-4
-2
-2
-7
-6
-6
1
-1
0
2
2
4
3
5
-1
-2
1
0
-18
1
6
6
1
3
-3
-16
-61
-15
-8
-7
1
-6
-1
-3
-28
-3
-1
0
-1
-2
-4
0
8
0
-2
4
-5
1
3
-4
-10
0
-1
-4
-6
-2
2
6
13
7
3
1
-1
5
4
5
1
-4
-3
-2
17
-1
2
-1
4
-1
-6
-13
-3
-1
-2
-2
-2
2
1
17
4
-2
1
2
8
3
0
0
3
0
-2
-5
4
-7
-4
-1
-3
-4
1
1
-1
9
1
-3
-3
1
-3
-4
5
-1
-5
-9
-4
-3
-1
3
-1
1
-2
-4
7
1
-6
-5
-12
-1
-1
0
-16
0
-1
-2
5
2
3
5
13
1
-1
0
2
-2
-2
-8
-6
-5
2
2
4
9
6
6
0
0
-2
-8
-17
-20
-9
-3
-1
-3
1
3
8
5
-1
-3
-22
0
0
4
-1
0
1
8
21
4
1
-4
-1
-1
2
-4
-4
0
-4
1
17
7
-3
-10
-25
-1
-6
-3
-4
-8
-3
8
25
-4
-3
-2
-12
-2
0
-7
-12
-3
-2
5
15
4
2
2
5
1
0
-1
-15
-6
0
3
0
1
-1
-3
-5
-1
-4
-7
-12
-3
-2
-2
1
3
-2
0
5
-1
0
0
2
2
1
0
3
0
-1
0
11
-2
0
-4
-4
-3
2
0
13
-6
-7
-2
3
-3
0
-2
3
8
8
1
0
-1
0
0
-8
2
-2
-4
-11
-1
1
1
4
4
2
0
8
0
2
3
-10
-4
2
4
3
1
-4
-8
-6
-9
-10
-5
-8
2
-3
-1
5
-4
0
1
-3
-4
-1
0
-17
5
-1
-2
-1
0
0
1
20
5
5
1
12
-1
0
-1
-16
-5
1
1
-6
-3
-3
3
5
-2
-6
-1
0
0
0
-4
-29
-6
1
0
3
0
-3
-2
23
1
1
-3
-6
-1
-1
4
5
1
-5
-6
-4
-3
-4
-8
-18
-7
-2
0
-2
-1
2
-2
5
-5
-2
0
2
0
1
3
13
6
2
-1
1
0
-4
-7
-42
-14
-5
-2
-2
-2
-2
1
-6
-1
3
0
1
1
-3
-1
12
7
-2
0
-4
-3
-2
-5
-12
8
5
0
-3
1
-1
2
44
-11
-8
-4
8
-1
3
0
0
0
-3
-5
-19
-2
3
1
-2
4
-1
-1
17
1
0
1
-9
-3
-2
5
-20
-1
0
-1
-1
2
2
1
11
0
0
-2
-5
-3
-3
0
-7
-2
-1
-1
14
-4
2
0
2
-1
-1
-4
-13
-4
1
-2
2
-2
2
1
-6
-1
2
0
-3
1
0
0
8
-3
-4
-3
-1
-1
-1
-1
12
8
-3
-2
-3
0
-1
-5
-28
-5
-1
-1
2
1
1
1
4
12
10
3
-4
0
-2
0
2
0
-3
-4
1
-1
0
2
17
-2
0
2
-2
-2
-2
-2
-29
-1
-1
0
4
-2
3
-1
21
2
-4
-5
-5
-1
-3
-2
-9
0
-4
0
-1
1
-1
-2
-14
-2
-1
1
-3
-1
2
5
19
2
1
1
1
1
-1
1
-8
-4
-2
-2
-2
-2
-1
-2
-3
-3
1
-2
1
-3
0
0
4
1
0
1
1
-2
-2
0
-5
-9
-2
-3
6
0
0
-3
-5
4
0
1
-10
-2
0
0
-3
-1
2
4
-3
0
-1
2
7
1
-3
-3
11
-1
0
0
5
2
-2
-1
-7
-3
-5
-1
-9
-4
-3
5
-2
-1
-1
-1
1
0
0
-2
1
0
-1
-4
-8
-5
-3
-3
-5
-1
-2
-2
-1
2
-3
-3
1
-2
-2
0
2
-2
-4
-4
1
-1
0
-1
4
-2
2
2
-5
-1
0
0
7
2
2
0
-3
-1
-1
-3
-1
0
-2
-4
0
-4
-4
-1
-13
-9
-9
-5
-5
0
1
-1
-18
0
-1
-1
3
1
0
-2
-4
-2
-1
0
-2
0
-1
3
35
4
4
2
-2
2
1
-2
-5
3
2
2
4
0
-1
-3
-4
-2
-4
-3
-1
0
0
-3
-8
0
-1
0
-1
0
-2
-3
-7
2
-1
-1
-9
-3
-1
3
7
2
1
-1
3
-1
-1
0
3
-8
-4
-2
0
-2
-2
0
-3
2
-1
-3
-6
0
-1
-1
-9
1
-2
-1
4
0
-1
-2
2
-5
-1
-4
-3
1
0
3
24
11
4
6
1
0
-2
-4
-27
-16
-3
0
0
-3
-3
-2
-12
-6
-5
-2
-2
2
1
1
16
2
-1
-1
-3
-2
-2
-5
-31
1
0
-2
2
0
0
2
28
0
-2
-2
0
-1
3
0
-15
6
1
0
-3
0
-2
-5
-9
-3
2
-1
-2
0
-1
3
32
-2
-1
0
2
-1
1
1
-15
0
-2
0
-1
-3
-1
-2
6
-5
-4
-1
0
-2
0
2
12
0
-2
0
2
0
0
-5
-41
-4
-2
-3
-2
-3
0
2
5
5
-1
0
-2
0
1
4
24
-5
3
4
5
2
-4
-6
-19
8
-5
-4
-2
-5
-2
-3
-13
-6
-3
-4
-3
0
-3
-2
22
7
-3
-3
-3
-3
0
-1
-14
-11
1
-1
1
1
4
2
0
3
3
4
3
2
-1
-4
43
-9
-1
-1
0
-3
-3
-7
-26
-9
-9
-4
-3
-3
-1
6
44
15
1
-2
-2
0
-1
-6
-52
-9
-3
-1
-2
0
-2
2
16
7
2
-1
-2
0
2
1
10
6
7
2
2
0
-2
-3
-26
-5
-2
-1
1
-4
1
4
18
-3
1
-2
-1
-2
7
20
60
23
11
9
6
0
-14
-41
-101
-19
-17
-8
-8
-5
-2
2
10
-4
-4
-2
-2
1
-1
4
44
11
0
-1
-1
0
-2
-4
-20
-7
1
-2
-3
1
7
6
21
13
9
5
1
2
4
9
46
8
-5
-1
-2
-2
-1
-14
-83
-38
-2
-1
-1
-4
3
13
70
45
13
4
1
0
0
2
-41
-26
-9
-3
-1
0
7
7
1
6
8
5
4
0
-13
-6
46
18
-2
-3
-5
-2
-5
-12
-28
-13
-11
-4
-2
-2
3
13
10
1
2
1
3
2
6
11
31
-4
9
4
3
0
1
4
55
4
5
3
0
-1
-10
-17
-67
-45
-15
-9
-6
-1
1
-9
26
20
0
-1
-2
-1
1
12
83
25
-3
-3
-1
-1
5
-18
-106
-49
2
3
1
2
6
32
70
4
-1
1
-2
4
8
-9
-5
-3
11
5
3
-6
-26
-21
-3
-2
-26
-16
-12
-7
-6
-6
-46
-25
-10
-6
-3
-1
-5
-29
-67
24
8
3
2
5
-3
-15
94
-4
-11
-3
-3
-5
24
36
-33
-19
31
13
9
5
10
20
83
36
30
12
6
-3
-23
-72
-77
-21
-19
-14
-8
-10
-5
33
61
34
-13
-5
-4
5
16
1
18
0
23
14
10
7
6
98
76
13
-22
-11
-8
-10
2
-6
9
46
22
10
5
5
-4
-12
-24
-31
-13
-4
-3
-1
-17
-63
-61
-23
-18
-5
-3
-4
10
10
96
115
14
3
4
8
29
112
52
14
8
9
8
6
-43
-75
-32
-67
-31
-23
-19
-18
-4
16
18
19
-6
-6
-5
3
7
8
-43
-17
25
8
4
7
-19
-75
-62
-65
-37
-14
-7
-13
29
-31
-39
28
60
23
14
9
-19
-35
52
-40
-15
-7
-6
-9
-9
2
-44
27
2
-3
-2
-1
12
32
89
16
27
10
6
8
15
35
50
38
-3
1
5
-4
-5
71
-46
5
-17
-9
-7
-10
-14
-43
9
-45
-21
-6
-6
-4
6
-6
-56
8
4
2
-2
2
19
-16
-45
24
41
17
9
10
-13
5
47
-24
-28
-14
-8
-6
0
7
29
42
-14
-9
-4
-3
-8
-69
-21
-18
5
-3
0
-7
-37
-48
-35
-71
-50
-21
-18
-9
1
40
27
33
9
4
2
7
-1
-37
6
-28
0
-1
-1
-1
3
-8
40
15
-2
6
2
4
-6
29
-41
-19
-20
-9
-4
-6
-1
-12
-54
-12
-11
-2
-2
0
3
42
124
-29
7
3
0
-4
-12
-40
-14
14
0
-5
-5
-2
11
82
64
83
19
10
6
15
5
-29
49
-29
-12
-4
0
-7
3
-28
-121
-27
5
7
7
7
-11
42
102
21
-12
-8
-7
-3
14
54
85
7
24
10
7
7
4
3
33
58
4
3
1
8
8
19
16
5
2
2
1
3
-5
14
16
-40
-19
-10
-7
-7
-12
-56
8
11
-8
-6
-4
-5
14
-35
-31
2
16
9
6
4
-3
18
97
65
0
-3
-1
-2
-2
-6
-19
-30
-14
-2
-2
-3
2
-46
-45
-62
4
4
4
-2
-5
-19
-63
42
22
9
2
2
-14
-33
-23
-15
-17
-9
-8
-7
11
47
57
21
7
4
3
2
6
43
64
-18
9
0
-1
2
-26
-95
-87
-37
-7
-6
-5
-11
-3
10
54
45
-2
0
4
4
8
11
42
32
18
12
8
4
3
35
-15
59
12
3
3
-2
-10
20
-73
-37
-14
-10
-10
-2
6
69
-37
-16
-4
-1
-1
-1
-6
-58
-49
-18
-9
-8
-6
-5
23
56
69
43
16
7
8
4
-3
-8
86
16
8
1
-1
0
-6
-15
6
-2
-14
-6
-4
-5
20
90
88
29
12
5
5
3
-11
-24
13
1
-17
-9
-5
-3
9
36
37
-34
-7
-3
-2
2
-5
-85
-64
-56
10
10
3
4
8
21
-36
1
-5
-4
-2
-1
-10
3
13
0
-15
-7
-6
-3
6
-27
-1
-18
-12
-2
-1
-1
-4
-56
-84
-49
1
-3
-3
-5
-14
29
37
-13
-19
-9
-6
-7
-2
-10
-22
-8
-8
-3
-1
1
-3
11
-27
22
11
3
2
0
8
6
-9
0
3
6
3
6
-3
-26
-2
-14
2
0
2
0
-7
-6
19
-31
-14
-7
-5
-9
7
5
-35
16
16
6
5
0
-13
-20
38
30
-10
-9
-7
-6
-1
20
-72
-28
-4
-3
-4
1
-5
-48
25
-20
2
1
0
-3
1
-8
50
12
-7
-3
-4
2
8
-4
26
4
21
8
6
2
-18
-30
45
-73
-35
-18
-9
-9
7
25
56
44
12
6
6
6
8
14
48
-2
6
5
5
2
-20
7
15
-68
-50
-23
-12
-15
3
-8
26
35
20
8
3
5
5
-17
-44
-37
-2
0
1
-2
-13
10
-40
4
-9
-5
-5
-6
8
5
26
26
14
4
1
5
-2
-34
-26
-3
-2
0
2
-2
-8
-57
-68
-15
-12
-5
-5
-2
6
19
25
30
18
5
4
3
-13
-46
-81
-27
-8
-3
-5
-4
-14
15
-5
25
-13
-8
-7
-9
7
4
-63
-3
16
10
4
10
4
30
-10
0
7
1
1
1
-2
-7
-7
-5
-7
-6
-4
-1
16
53
-9
74
32
14
8
7
-21
-46
-68
-93
-46
-20
-14
-11
-3
-12
-74
-10
-2
0
2
0
14
41
59
11
5
4
3
5
-10
-28
-61
-27
-14
-8
-5
-6
2
28
15
14
1
-3
-2
1
5
6
73
43
20
9
4
3
-15
4
22
-45
-49
-23
-12
-10
2
-41
35
5
2
4
3
1
2
10
0
50
16
6
3
0
-8
-24
-16
-21
-18
-11
-7
-6
4
47
6
15
25
11
8
2
-7
-34
-21
0
-4
-4
-2
-3
1
44
82
24
12
0
-3
-1
5
-38
9
5
4
2
1
0
-3
-37
-22
29
9
1
-3
0
2
21
-13
-20
-1
0
1
-3
3
-12
-9
45
23
9
6
2
8
14
-10
-5
12
5
3
3
-6
-27
-62
1
-10
-4
-4
-2
7
31
-11
5
1
-1
-3
3
18
62
83
42
7
3
3
4
-6
13
-4
-35
-25
-13
-9
-10
4
8
14
-3
-11
-4
-2
-1
0
-2
-12
-20
-2
0
-1
-2
-10
-23
-32
-24
-13
-8
-6
-7
-11
-27
-40
-16
-15
-9
-6
-7
4
20
46
16
11
3
0
1
-5
-16
-4
-34
-7
-3
-3
-1
-4
-16
6
-14
-2
0
0
-3
-9
-15
72
25
2
-3
-1
1
-13
-39
26
-27
-17
-7
-3
-6
11
80
67
30
15
6
3
4
-13
-58
-20
-27
-17
-8
-5
-4
-4
-9
11
-4
-9
-6
-1
1
10
4
-63
-29
9
9
4
5
-10
-40
28
23
6
-1
-2
-3
8
17
-46
-4
5
3
1
1
-4
-1
7
-14
-6
-2
-1
-2
-6
-20
-56
-31
-4
-5
-3
0
3
-3
39
15
0
2
0
1
-5
-3
2
-3
-6
-3
-1
-1
-5
-4
-25
-3
-13
-5
-3
-7
2
27
10
-7
7
4
3
1
-11
-27
46
2
-8
-5
-5
-3
1
10
3
3
-2
0
0
2
3
-57
10
-51
-4
-1
0
-2
9
47
117
70
18
5
2
2
-1
-19
-70
-40
-7
-3
0
-3
15
71
49
6
5
5
4
1
-13
-17
-87
-3
-2
-2
-4
0
-4
17
-43
5
0
-1
-3
-1
-2
-20
-8
-10
0
3
1
2
7
24
32
31
13
6
4
6
-2
-16
-86
-23
-8
0
-2
-3
-7
-16
-21
-28
-11
-9
-5
-3
2
42
25
42
-1
-2
0
1
-14
-25
-6
2
-3
-2
-2
-5
15
34
14
18
30
12
7
9
0
21
86
40
-3
-3
0
-2
0
0
32
21
3
-2
-2
-3
-15
-5
77
-45
-33
-17
-10
-10
-4
14
35
31
9
1
3
2
10
-24
84
39
13
4
4
3
14
-3
60
-11
2
-2
-5
0
13
16
-20
37
24
12
6
2
-19
55
127
-43
-63
-30
-20
-14
-10
-13
-14
26
3
0
-2
1
-5
-27
-42
-17
-3
-2
0
-1
7
8
8
13
13
5
1
4
6
29
-37
-5
4
3
4
2
2
25
12
11
8
4
3
-1
0
15
-51
-34
-6
-4
0
0
-5
-4
-51
-3
-4
-2
-1
-2
8
67
6
27
11
3
2
4
-2
-27
-66
-36
-2
-1
-4
1
-8
-20
6
-43
-18
-7
-1
-8
-2
-20
-15
-16
-7
-3
0
0
2
51
9
19
3
1
0
-2
8
7
66
-8
8
4
0
5
-9
-26
58
-32
-19
-8
-5
-7
-8
-3
0
-23
-12
-12
-6
-6
-1
-11
-15
-35
-2
0
0
3
-2
8
-53
9
0
1
1
1
9
54
4
12
14
8
4
7
-18
-53
-53
-44
-31
-14
-10
-11
10
23
-33
66
19
7
4
2
-4
-29
-14
-27
-11
-5
-2
1
0
-2
-74
0
-10
-5
-2
-5
2
4
-11
22
8
3
2
6
13
8
42
17
17
9
6
3
-8
-14
-26
-28
-14
-7
-2
-6
3
14
2
35
16
6
4
3
0
15
-6
7
7
4
2
0
-1
-36
34
-2
2
-3
-3
-2
7
-7
-76
-33
-5
1
-2
-1
-5
-13
4
49
16
5
0
2
0
16
-19
1
-9
-5
-3
1
1
-27
19
17
4
1
1
1
-3
-31
-97
-29
2
-2
-2
-1
4
14
-27
1
2
2
0
2
-4
-8
33
21
0
-1
-2
-4
3
3
-73
-32
-2
0
2
-1
-9
-24
9
20
4
-1
-1
-3
-5
-8
34
-16
-9
-4
-2
-3
-2
14
69
18
6
1
-1
1
9
9
-12
17
11
7
2
5
-2
48
100
-7
-19
-10
-4
-4
5
2
43
33
7
-1
3
0
1
-5
19
-29
1
2
1
-1
-6
-30
15
33
3
1
-2
-2
4
30
52
-9
-3
-1
1
1
-14
-53
34
30
0
-3
-4
-3
-6
13
9
-49
-20
-9
-5
-6
-3
-32
31
-3
-1
-1
-2
-1
-2
-43
43
41
10
1
-2
2
12
62
-3
-12
4
1
0
1
-7
-20
-13
-2
-7
-3
-3
-2
-6
1
-15
-5
2
1
1
-3
-4
9
-74
-40
-10
-3
-2
-5
8
10
0
4
13
7
4
4
6
20
53
25
4
-2
-1
3
-9
-3
61
2
-14
-7
-5
-5
3
-2
-3
-1
4
4
3
0
-1
-13
16
-23
1
4
2
-1
-7
-23
-70
-44
-17
-8
-6
-5
3
33
40
9
6
0
3
-1
-2
-27
57
19
3
3
-1
-1
-10
-48
-113
-37
-15
-5
-6
-4
4
-6
18
35
14
6
4
2
7
14
13
-15
-5
-3
-2
1
2
52
16
5
9
3
2
1
-11
-61
-52
-62
-23
-9
-4
-6
4
-5
18
4
3
3
3
4
3
20
-87
-14
2
0
-2
-2
7
51
75
37
10
5
2
1
4
39
66
-18
-6
-3
0
1
-2
-15
-19
20
4
2
2
1
2
-9
85
2
-1
1
-1
1
-6
-17
-15
31
-4
-7
-7
-1
0
7
11
0
-9
-4
-1
-3
0
48
7
5
13
5
4
0
-2
8
41
7
0
0
0
3
2
-15
-22
6
5
1
2
1
5
21
11
22
4
0
1
0
3
1
39
25
2
0
-1
-5
-2
-11
13
-31
-6
-2
0
-4
-2
-31
50
-3
3
2
0
0
-9
-7
0
36
-2
-6
-4
-3
1
-23
1
-18
2
2
1
0
-2
8
-41
-3
2
-1
-1
-3
1
-19
-57
-60
-16
-6
-3
-1
2
25
48
53
8
3
0
1
5
34
117
27
1
-2
-1
2
-3
-20
-28
5
0
0
0
2
-6
42
-107
-50
-13
-6
-5
-4
-2
-21
21
-3
-1
-1
-1
-3
5
9
-65
-14
-1
-1
0
1
6
3
12
5
5
3
3
2
-5
-4
37
53
4
-1
-1
-3
7
42
-83
-80
-13
1
0
-1
-10
-14
45
5
4
1
0
-3
-12
-66
-29
-42
-19
-7
-6
-4
3
8
45
23
11
4
5
2
-2
-43
-44
-20
0
-2
-1
-1
19
75
13
33
11
3
3
3
-14
-4
4
-14
-19
-10
-10
-3
-5
-10
-17
4
-2
-1
0
-6
8
5
-10
29
18
6
4
3
-13
-48
-18
-74
-26
-9
-6
-8
-13
5
87
-31
-15
-12
-6
-10
3
-4
31
23
6
1
1
1
2
-23
127
68
16
5
6
3
-10
-43
-119
-23
-2
-3
-5
1
4
9
49
12
4
0
0
1
8
5
49
-28
2
2
3
2
3
-27
61
16
6
0
-1
3
-14
-2
63
-25
-23
-13
-8
-8
-3
-11
-11
28
11
4
1
0
3
-6
-3
-19
0
0
1
1
11
65
-8
21
5
2
2
2
-5
-40
-108
-40
-15
-6
-5
-4
-11
-11
70
0
-10
-8
-4
-6
-1
-7
60
11
3
1
0
-1
-2
2
-26
-21
-9
-4
-6
-4
1
-9
-5
26
8
4
3
2
7
11
-97
1
2
2
0
4
-6
-3
-50
-30
-16
-9
-6
-4
-7
-14
-30
14
-1
-2
0
-5
6
12
35
15
10
4
2
0
5
2
-58
20
8
6
3
-1
0
-20
-14
17
11
3
1
-1
-4
12
20
-2
-2
-2
-2
-1
-4
-7
-20
0
-2
-1
-1
-2
3
6
-31
-22
-7
-3
-3
0
-2
2
-18
-3
-7
-3
-3
-1
-10
-22
-22
-33
-14
-9
-4
-3
1
-6
2
18
4
-1
-1
0
1
-13
5
-7
-1
0
0
1
1
11
55
28
4
4
0
1
3
13
-52
1
3
4
3
1
-4
-2
7
-13
-1
-1
-2
-3
-1
1
-12
2
4
4
1
-3
-4
2
18
1
-1
1
0
-1
-1
-11
-45
-6
2
1
-2
0
3
15
13
-1
-5
-3
-2
1
-1
-17
30
11
4
-1
2
2
3
6
31
-1
0
-2
-1
-1
-9
-18
-36
-14
-14
-9
-5
-5
1
2
10
2
4
0
1
1
-2
6
18
2
-1
-3
-2
-2
1
12
-14
4
1
1
1
1
-2
-2
30
-12
-1
0
0
-4
2
-5
-40
2
0
0
0
-2
-6
-14
10
9
-2
-3
-4
-1
-2
-6
-28
-9
-10
-5
-3
0
1
4
21
10
10
5
3
0
1
2
-4
3
2
1
2
0
1
6
3
-26
-7
-2
1
-1
-5
-1
-11
11
1
-1
-1
-2
-1
-5
0
11
-2
-1
-3
-1
1
7
39
13
3
2
1
0
1
-3
-37
-21
-1
1
0
-1
-2
-8
-28
-14
-7
-3
-2
-1
-1
-1
9
-20
-12
-5
-2
-2
2
4
18
16
8
2
1
1
-2
-9
-17
0
0
0
1
1
1
1
0
-6
-4
-1
-1
-1
2
-4
3
1
1
-1
-1
0
-1
2
13
0
-1
1
1
2
-2
5
14
10
2
1
0
2
0
2
4
4
2
1
0
2
0
-6
-21
-16
-4
-2
-3
-1
2
-3
10
10
3
0
-1
-1
4
9
-5
3
-1
-4
0
0
-7
0
28
-10
-8
-4
4
-3
-7
7
29
-10
2
-1
-7
5
-8
4
8
-17
0
0
-3
6
-5
4
10
5
1
0
-5
3
0
2
-15
2
-1
1
2
3
3
-19
-42
1
-3
-1
0
-4
0
-3
-1
8
-5
-5
-2
-5
2
-2
11
11
3
2
5
-4
1
0
-11
6
2
-1
-6
-3
2
1
8
6
3
1
4
-3
1
-3
-9
5
1
-2
1
-2
0
1
21
7
1
-2
5
-4
-2
-1
-33
-10
-4
-2
-14
-3
-1
5
2
6
3
3
-3
-1
-1
-1
-1
-9
-3
2
5
-3
0
3
17
2
3
3
1
-1
1
4
32
-1
3
0
5
-1
-6
-3
-11
6
1
-5
-4
-2
-1
2
20
2
2
-1
-2
-1
-2
-2
-18
1
1
0
0
1
1
-1
1
-2
0
1
1
2
2
3
8
2
-4
-3
0
-3
-2
-2
-15
-2
1
-2
3
-3
-3
1
6
-3
-2
1
1
-1
-3
-3
-21
-5
0
0
-8
-2
-1
-1
6
-3
-4
2
4
0
2
0
-10
0
-4
-1
-4
0
0
-3
-3
-8
-5
-5
-2
-1
1
1
0
6
-2
-4
3
-1
1
-2
-9
0
2
4
-4
0
-2
2
13
1
2
2
0
0
0
-2
4
-1
1
2
-1
0
-5
-3
-20
-5
-8
-7
0
-2
5
7
22
21
7
2
1
1
-12
-24
-45
-36
-17
-6
-9
-2
-1
1
18
7
2
1
-1
-1
0
-2
-5
-4
8
2
3
0
-2
0
30
-4
-8
-7
-3
-2
2
5
-15
28
9
2
-1
1
1
-3
-9
-6
-3
0
-1
0
-2
-4
8
1
2
2
5
-2
-2
1
-13
-10
-1
0
0
-2
0
3
12
-8
-2
-3
0
-2
-2
-3
-1
0
-5
-6
-6
-2
0
3
3
1
-1
0
0
0
-3
-2
-5
0
0
1
2
0
0
3
12
3
0
-1
-1
0
0
-1
-21
-2
-2
0
-2
-2
-2
-2
8
-1
-2
-2
0
-3
-1
-3
-18
-1
0
-3
2
-2
1
-1
20
3
-2
1
2
-2
2
2
-26
0
4
3
-7
-1
-1
-4
31
2
-4
-2
-3
-3
0
-2
-33
-8
-5
-1
-1
0
-1
2
28
4
1
-2
1
-2
-3
-4
-1
4
-1
-3
1
1
-2
0
3
-4
-2
-3
-2
2
0
2
-42
-11
0
-3
1
1
2
1
5
-7
-1
0
-1
-1
-3
-4
16
10
5
2
2
1
0
0
-7
6
-2
-2
-3
0
-2
-2
2
-3
0
-2
-3
1
-1
-1
-1
-1
1
3
0
0
0
1
-2
-7
-6
-4
0
-3
2
0
-3
0
-1
-1
-1
2
1
-3
8
-5
-2
0
-1
-1
0
2
-5
2
0
0
-1
-2
-4
-4
-12
-4
-2
-2
-2
0
-3
-1
-9
-1
-1
1
-1
0
0
0
12
6
1
0
4
0
0
2
4
-2
-2
-3
-8
0
0
2
20
1
1
-2
0
0
-3
-10
-62
-10
-1
0
1
0
-2
0
2
-3
-2
-2
-2
-1
1
5
14
6
-2
-4
3
-2
1
-2
-6
-8
-2
-1
0
0
2
2
15
2
0
-1
0
-2
-2
-2
8
15
3
0
-2
0
-4
-5
-32
-14
-2
-2
-2
0
3
3
16
3
-1
-3
-3
0
-1
-3
-17
-7
3
2
0
-2
-1
-1
16
-4
-4
0
-2
-2
0
0
3
8
2
1
1
0
-3
-4
-28
-7
-3
-1
-2
-2
-2
1
9
0
-3
-1
-1
0
-1
3
-2
-2
-2
1
-1
0
2
1
-18
2
2
-1
-1
1
-3
-11
7
-10
-4
-2
-2
-2
-2
1
-9
-3
-2
-1
-2
-2
0
0
-3
0
1
0
-2
-2
0
0
10
-1
-1
0
0
-2
-1
0
-10
5
1
0
-2
1
-2
3
32
10
0
-1
0
0
-4
-4
-4
-12
-3
-2
0
-1
-3
-2
-3
4
2
3
3
2
-2
1
-15
-8
2
2
1
-2
-1
-1
26
-1
-4
-2
-3
-3
1
3
6
7
3
1
2
0
-2
-3
5
-2
-4
-3
-3
-2
0
-4
-51
-13
-8
-4
-3
1
3
2
12
1
7
1
1
0
-2
-2
22
9
-3
-2
-2
-4
-2
-7
17
-2
-1
0
-3
1
-1
-1
3
-2
3
1
0
-2
1
0
-9
1
-1
0
-1
1
1
-3
-14
-9
-2
-2
0
1
2
7
16
8
-1
0
1
-1
0
-2
-36
-3
0
0
2
-3
-6
-6
36
-12
-10
-5
-3
-2
-7
-12
-49
-7
-5
-5
-4
-1
0
0
-13
3
1
0
0
1
1
8
35
12
1
1
0
1
5
5
35
5
4
1
0
0
3
2
-65
-28
1
3
0
-4
-3
-16
-54
12
-1
-3
-3
1
-6
7
47
-3
-11
-8
-3
0
1
-2
-8
17
5
5
2
1
-2
0
23
-5
-1
0
1
0
4
4
-7
1
9
6
4
0
0
-2
4
-2
-2
-2
-1
-1
-2
0
6
3
-3
-1
-1
-1
3
12
55
20
8
2
4
-1
-9
-17
-42
-19
-15
-10
-7
-4
-1
-3
2
6
0
-1
-2
0
1
0
27
-9
-1
-1
1
-2
0
-1
-9
11
-3
-3
-2
-1
11
12
-39
-13
11
6
5
3
-14
-11
53
-6
-14
-11
-7
-11
-4
0
13
12
-1
-3
-6
2
-2
-10
-37
-24
-11
-4
-5
0
2
11
47
31
11
3
2
-2
7
3
-17
-7
11
5
5
6
0
4
-4
2
2
-1
0
-2
-1
8
2
-1
-4
-2
-1
2
-4
1
26
-4
-2
-4
0
-2
4
4
49
13
2
5
2
0
-4
-21
-125
-46
-8
-2
-2
-4
1
-18
-52
7
12
5
0
4
-3
5
55
-19
-13
-5
-4
-4
-8
-10
15
-24
-21
-9
-6
-1
4
13
-15
32
15
3
2
0
4
-13
-68
-23
-3
0
3
1
-15
-28
39
2
-23
-13
-8
-8
3
18
51
22
13
4
1
5
3
-2
-60
-5
4
0
1
-1
9
22
127
-9
11
7
7
-3
-5
-27
-58
-19
-12
-6
-3
-4
-11
-32
-107
-23
-18
-8
-7
-2
-7
-4
53
16
2
3
-1
-1
8
29
127
36
8
1
-1
0
25
83
63
51
17
9
9
0
-27
-54
-39
-64
-30
-19
-13
-12
4
2
74
9
6
4
2
4
4
29
48
-3
-12
-1
2
0
6
32
122
71
23
6
3
1
25
20
-17
76
32
19
12
6
-29
-10
89
41
-23
-20
-14
-15
-8
-7
23
-7
-9
-4
-5
5
-3
-30
-12
-2
0
4
0
4
12
1
-49
10
19
8
2
7
9
21
-8
-22
-9
-1
0
3
9
42
66
64
18
11
4
-2
-31
-96
-61
-65
-25
-17
-11
-5
7
44
38
1
-2
-1
2
-2
46
94
25
46
44
25
19
18
-7
-33
-128
-46
-13
-8
-7
-9
-16
18
-128
47
-17
-13
-10
-1
11
39
106
38
26
13
11
7
-2
-3
44
34
6
-2
-1
1
-11
61
40
-32
-17
-13
-7
-4
13
16
-6
37
18
16
10
8
-9
1
-8
-102
-9
-5
-5
-8
4
62
68
102
14
3
2
3
-3
-47
48
12
1
3
1
-2
1
-53
-40
-102
-5
-3
-3
-4
-21
60
103
40
-30
-18
-10
-10
-15
-95
-29
-75
-18
-4
-1
-3
0
37
-26
-8
-3
-5
-3
2
-10
-41
83
-9
-1
-5
-4
-4
28
-47
-20
16
35
21
13
12
-39
-20
46
-81
-65
-35
-23
-31
-8
-23
-46
30
-2
-4
-4
-4
22
28
74
19
22
10
9
12
9
91
49
-20
21
6
0
-2
-3
-9
-89
71
2
4
2
-2
-1
-28
-50
-26
-5
-6
-5
-5
-3
13
72
24
6
6
3
2
-10
14
55
-14
-31
-15
-9
-3
18
32
-77
-28
28
13
9
7
-11
-81
-77
-57
-5
0
0
1
0
7
-49
-10
-7
-4
-4
-7
-6
14
-70
-11
-9
-6
-4
-2
3
-50
-42
-29
4
3
-1
2
10
-12
-30
49
16
8
5
5
-14
2
-33
-94
-34
-19
-11
-15
1
-9
-3
-13
-3
-1
3
0
-11
-70
33
10
3
-2
-2
-3
0
16
-25
50
20
8
3
4
9
32
-33
-10
-3
3
2
7
-19
-76
-84
-61
-25
-10
-10
-9
12
93
71
69
7
2
2
0
-15
-27
-9
-86
-32
-11
-5
-8
-4
-21
38
7
10
3
0
-1
0
-45
-58
30
7
3
3
3
-13
-1
-7
-39
-17
-8
-7
-6
8
17
10
22
8
2
2
3
7
11
54
30
7
3
2
-1
-12
-67
-22
-2
-16
-8
-9
-2
6
-10
-73
-60
6
3
1
5
-13
36
119
24
-19
-13
-7
-12
0
-9
-36
-17
1
2
2
4
15
21
-27
39
17
10
8
4
-7
-39
77
-15
-7
-3
-4
-1
5
16
-11
-21
-5
-2
-2
-3
-4
53
17
-36
-32
-15
-8
-6
4
57
79
30
14
4
0
2
2
26
-8
14
4
2
3
2
6
4
10
18
7
2
1
2
2
21
63
16
3
2
1
0
-9
-66
-14
-10
3
3
2
-1
2
-12
-29
-10
-11
-4
0
-3
8
32
87
22
4
2
1
1
4
18
-79
-16
0
0
-2
0
-1
2
39
20
-5
-6
-2
1
11
5
18
25
13
6
3
6
-16
-33
18
-24
-8
-7
-7
-4
0
-16
37
22
13
5
3
-3
-4
32
107
41
-6
-4
-4
-7
6
67
-3
-7
-1
-1
-1
0
5
11
18
-22
15
7
3
3
-15
12
16
55
-14
-13
-10
-7
-12
-31
-84
-48
-14
-8
-5
-6
-6
-4
67
-6
-7
-2
-2
-5
4
-10
51
53
20
7
3
4
-17
-64
-35
-71
-17
-8
-5
-7
-7
-33
-70
-21
-8
-3
-1
-5
-9
-9
-8
-18
-4
-3
-4
-2
7
19
27
55
5
3
4
3
5
1
10
-25
-5
0
0
3
11
29
8
7
8
0
2
0
-6
-72
21
-17
2
4
0
-5
4
-23
-59
27
8
1
1
0
9
50
67
39
19
3
2
-2
-19
-72
-61
5
5
1
-4
-3
5
29
-13
-26
-13
-7
-3
-1
-1
10
15
14
4
3
3
5
0
19
87
-18
-21
-7
-5
-2
7
41
88
32
4
0
0
-1
13
13
-2
-12
-5
-4
0
-1
0
1
-63
-19
-2
-1
-1
0
-14
-26
-40
-45
-22
-10
-5
-6
8
38
28
8
10
5
1
3
-3
-14
-57
-15
-2
2
0
-1
16
34
94
19
-1
3
2
-1
1
-45
-46
23
20
8
2
7
0
5
88
9
-4
-1
0
0
-4
-7
33
21
0
-1
-2
0
-9
-30
-54
-17
-2
1
0
-3
-1
-3
-59
44
19
5
1
3
0
-14
23
14
-4
-1
0
0
7
63
-57
-25
-1
2
1
1
-13
11
52
44
-7
-10
-10
-3
5
-2
-24
2
7
6
3
1
3
26
-26
-22
6
2
-1
2
3
18
64
-4
-6
0
1
-3
-9
-42
-41
-48
-12
-7
-4
-7
12
46
65
27
13
6
3
2
-9
7
37
-27
-31
-16
-10
-7
-1
-18
-3
23
4
2
3
3
0
0
29
-33
-9
-2
-2
-3
14
19
69
64
23
12
7
8
9
67
64
17
-3
0
4
-1
-13
-6
-99
-61
-15
-6
-5
-2
-10
13
-14
-14
-9
-7
-5
-2
6
12
-17
3
4
1
2
2
1
-22
-10
-1
1
3
0
2
-2
11
-2
2
-1
-2
-4
-3
3
22
55
19
7
4
3
2
-1
5
11
-14
-6
-2
-2
-2
-1
8
40
-29
-15
-6
-2
-4
-4
-5
-34
9
-13
-6
-4
-4
-3
-68
31
46
11
3
3
0
-7
-24
1
-25
-8
0
1
-2
-5
-10
-16
15
7
1
-1
1
10
20
68
47
21
8
6
7
3
21
12
-22
-2
-1
-1
0
-11
-45
48
-30
-27
-15
-9
-7
7
1
-63
9
15
6
5
5
1
-30
18
34
12
4
0
1
-5
7
-99
-17
-6
-1
0
-4
-5
15
-63
-15
-10
-7
-4
-2
1
-4
-4
3
7
4
1
0
-12
-86
-80
-59
-15
-8
-6
-6
6
29
-5
2
-6
-5
-2
-1
-1
-8
-76
0
2
2
1
0
-2
-8
-68
-41
-18
-6
-3
-6
-6
-1
70
33
14
5
1
3
-7
-24
-87
-46
-14
-6
-5
-4
4
7
-51
18
12
4
0
5
-3
-21
-106
-39
-6
-2
-1
1
-4
20
83
3
-5
-4
-1
-4
-1
-18
12
-3
4
3
3
1
-5
0
56
-18
-16
-8
-3
-2
4
15
-4
-3
10
2
-1
-1
5
5
-16
29
5
1
-1
-1
-6
1
6
-6
-8
-3
-3
-1
5
-28
-72
-29
5
4
2
-3
-7
-2
-18
15
-3
-5
-3
-4
-5
49
-8
-12
-15
-9
-7
-4
-3
-30
-38
-8
0
0
1
0
-8
-34
-25
-34
-3
-1
-2
-2
-3
-28
83
37
17
7
4
2
0
-18
-83
-20
-6
-5
-4
-1
9
41
27
28
13
8
4
5
-3
6
112
22
2
2
3
2
3
16
62
4
2
1
1
0
-13
-28
16
-22
-8
-4
-3
-5
4
6
1
18
2
-2
1
1
6
31
-11
2
7
3
2
3
-1
-10
9
6
-10
-6
-4
-1
4
14
24
0
-3
-2
-1
2
6
-1
82
-17
4
4
1
0
-11
-23
-52
-23
-22
-12
-8
-7
-1
-10
-20
-1
-4
-2
0
0
-1
-5
-20
-6
5
2
0
-3
6
38
77
38
4
0
-1
-1
8
53
76
21
8
3
2
-1
-4
-1
27
5
-16
-8
-6
-1
-2
-14
46
20
4
2
1
2
-1
25
30
-3
-2
-2
-1
-1
-1
10
-12
48
11
4
1
-3
12
18
-85
-5
10
3
1
-1
11
44
4
-10
-4
-4
0
2
-18
-77
-128
-56
-18
-8
-8
-6
1
-2
38
9
2
1
-1
0
-3
-24
3
-1
4
1
-1
-1
4
-3
27
17
2
0
2
0
6
32
18
2
2
2
2
-2
-6
-62
42
-32
0
0
0
-4
-9
7
39
58
4
-1
-1
2
3
-4
-28
11
9
3
4
5
-7
9
6
-29
-21
-11
-7
-4
4
23
-4
14
14
6
1
3
0
8
30
-17
0
-1
1
-1
0
16
-14
-3
1
2
1
-1
-3
-13
-31
-7
6
2
2
3
12
50
70
52
13
8
6
5
-16
-43
-71
-71
-23
-10
-8
-4
-6
-14
18
-4
-10
-4
-6
-5
4
9
16
-1
4
3
1
-1
8
73
25
14
7
2
2
4
-1
-12
-87
-2
3
-1
1
-1
-7
-15
19
-1
-11
-5
-3
-1
1
14
40
-4
0
-1
-1
1
2
-16
-7
-15
-5
-2
-1
0
6
16
59
15
6
3
3
4
0
-25
-19
15
7
2
1
-1
3
-5
11
-24
7
4
3
3
-12
-10
-2
39
-18
-13
-8
-2
1
-3
97
-5
1
3
0
0
-2
-6
-81
-33
-3
0
2
-1
-3
-33
0
6
8
2
0
0
3
-14
-5
25
10
5
1
3
-7
23
0
10
-16
-10
-5
-7
-3
-15
-38
-7
-3
-1
0
2
-4
-24
-16
26
-2
-3
0
-2
-4
-24
-87
-50
-6
-3
-3
-1
7
-6
-110
7
14
6
2
4
-3
-18
61
12
-4
-1
-1
-2
0
-6
-48
7
-1
-2
-1
-2
2
15
-43
-23
-6
-3
0
-3
6
42
63
-10
3
2
1
2
-11
-85
-38
-7
-7
-4
-4
-4
13
74
65
-4
-4
-2
0
1
-14
-25
-73
-24
-14
-9
-6
-5
1
-20
-45
-5
7
4
3
-1
11
45
45
29
16
4
3
1
-11
-30
33
-15
-20
-11
-6
-7
5
9
46
-19
4
5
5
-3
1
-7
-10
20
7
3
0
5
-2
22
26
3
-1
-1
-4
0
4
-23
-60
-3
6
3
3
4
1
10
84
26
2
0
-1
-3
-3
-18
45
21
3
-1
-2
-4
3
7
8
-27
-9
-2
-1
0
-3
7
49
30
9
1
0
-3
-9
-20
23
-13
-10
-5
-5
-1
4
31
39
32
9
2
2
-1
1
19
19
-14
0
2
1
-1
-10
-17
-79
-31
-3
-4
-6
-4
-11
-14
-16
-34
-21
-11
-8
-7
8
27
67
9
4
2
3
2
-3
13
65
-12
-15
-11
-6
-4
2
3
27
23
7
4
5
3
-7
-44
-109
-34
-3
-4
-4
-2
-2
10
64
-20
-7
-4
-6
-2
-5
3
-44
-12
-4
-1
-1
-4
-2
-6
14
34
-1
-1
-1
1
-1
-16
-18
12
11
3
1
0
-6
-9
-7
-28
-20
-8
-6
-4
-5
13
13
7
1
-1
-2
1
-9
-10
15
-31
-10
-4
-4
-6
0
10
9
-20
-10
-1
0
-1
10
11
-87
-13
15
9
7
2
-7
-16
37
11
-4
-1
-2
-3
8
29
-41
-18
-8
-1
-1
2
3
11
-15
19
10
4
2
2
-4
-20
-29
-8
-11
-5
-5
-1
8
16
-69
-8
-2
-2
1
-1
-2
-53
-27
20
14
4
3
-1
-5
8
-3
16
-7
-6
-4
-2
-5
8
60
12
-2
-4
-2
-1
0
-18
-76
10
2
1
0
-4
-3
-30
-6
-10
3
4
1
2
6
-4
11
1
10
6
2
1
-7
-19
-53
-12
-8
-5
-2
-1
7
0
19
31
13
4
1
2
-6
8
-51
-22
-9
-4
-3
-3
-3
-18
41
17
4
0
1
-1
-7
-18
-1
-19
-4
0
-2
-3
1
-18
-24
9
-2
-3
-2
-1
2
-27
4
-13
-5
-4
-4
0
-5
6
-32
-6
-7
-1
-4
-3
4
21
0
18
8
-1
2
-1
16
30
49
3
25
15
11
6
-10
17
32
-42
-27
-12
-6
-8
2
7
100
42
5
2
0
6
2
6
-34
-8
-2
1
1
1
3
7
-19
1
11
4
4
0
-4
-2
-26
7
-5
-4
-2
-1
-5
3
-61
-48
-11
-5
-4
-6
-8
0
35
-9
-11
-5
-3
-3
1
-3
24
-1
-5
-2
-2
0
2
18
5
-1
1
3
2
1
-5
-19
-82
-42
-8
-5
-4
-3
-5
-36
57
-3
0
-1
-3
0
-3
-8
-33
8
-1
-4
-2
-2
-1
3
0
2
0
-3
-1
0
13
14
62
40
14
7
6
3
-5
-13
51
5
-1
-1
-2
-1
-5
-9
-58
-32
-11
-4
-1
1
4
23
27
18
11
5
1
1
-5
-18
-4
-28
-14
-8
-4
-5
3
0
1
18
1
0
-1
0
-4
-23
47
5
-3
0
-3
0
-2
-32
-14
-14
-3
-1
-3
-4
2
15
19
-6
-4
-3
-1
-2
-1
5
91
16
-1
-1
0
-2
-4
-16
-34
-20
-9
-7
-4
-2
2
24
-13
23
7
4
1
4
-2
-12
19
9
3
3
2
2
0
-12
-31
-8
0
-2
0
-2
-2
11
32
-2
-4
-3
-3
-3
-2
2
11
-7
2
1
0
-2
2
-7
-27
11
7
3
1
0
-8
9
-67
-21
-10
-6
-4
-4
1
13
-4
2
1
0
0
2
1
9
63
12
0
0
0
1
-5
3
-17
-12
-9
-5
-5
0
3
13
29
15
5
1
2
1
-2
-10
12
-10
-4
-2
-2
-1
-4
-3
14
8
-2
-1
-3
2
7
26
5
5
8
4
5
1
0
-16
18
2
-3
-3
-2
-1
-9
4
-19
-16
-8
-4
-4
-5
1
8
8
-2
3
0
3
1
1
-1
-1
-1
-2
1
-1
-1
-1
-4
-3
-14
-1
0
0
-2
0
-3
-7
14
6
3
2
-1
-2
-6
10
6
-4
-4
-1
-2
-3
-10
-34
-9
-5
-3
-4
-1
0
-8
-49
1
-1
-1
-1
0
4
5
18
3
2
2
1
0
-2
-14
-60
-17
-7
-3
-3
-5
0
-1
20
3
3
2
2
-3
-6
-3
-31
-19
-10
-4
-3
-2
-3
7
78
36
3
0
0
-2
0
0
-58
-21
-1
0
2
0
3
2
8
0
-1
-1
0
3
0
-10
-22
-6
8
5
2
-1
-4
3
33
13
-4
-3
-2
-3
0
0
20
6
-3
-3
-3
0
-2
-6
-7
-8
-1
-2
0
0
6
13
3
6
3
1
5
3
-7
-7
-34
-2
-8
-5
-8
-2
1
0
28
6
4
4
0
-1
-3
1
4
1
-4
-1
1
-4
2
-3
-14
4
1
-1
-2
0
0
0
-1
-10
0
0
1
-1
0
6
6
2
2
-3
2
1
-8
-21
-13
-23
-13
-6
-11
-3
-1
0
9
-1
-2
1
0
-3
2
-4
-23
-12
-1
-1
3
0
1
4
3
3
0
-2
-15
-2
2
-1
46
21
9
3
12
2
-5
-10
-43
-2
-6
-4
-7
-1
-1
-5
8
0
-2
0
-3
-2
-1
-3
-21
-5
-1
-3
-7
0
1
11
22
8
1
3
5
-1
1
5
9
3
3
6
10
2
1
2
2
-7
1
0
3
1
-3
-3
9
4
-5
-5
3
-1
-2
-2
-22
1
-3
-7
-16
0
0
7
11
-2
3
5
1
-1
-2
-6
-46
-9
-3
1
0
-1
-2
0
3
0
1
1
-1
-3
-2
4
21
-3
-3
-5
4
-2
-4
0
-5
8
0
-6
0
-1
0
-1
16
-2
-2
0
-5
1
-2
-6
-12
-3
0
2
-1
-2
1
4
-5
4
4
0
8
-2
1
3
-19
2
1
-1
-1
0
-4
-5
-4
-6
-2
0
2
1
-2
0
19
1
-2
-1
-2
-1
-1
-1
-1
3
-1
2
-3
1
1
7
14
0
-1
-4
-8
0
2
1
0
-2
0
-3
3
0
0
-1
-1
-1
-1
2
4
-1
-3
1
1
-2
-2
-3
-4
0
1
-2
2
-1
-3
-4
-5
-2
-1
-1
3
-1
0
-4
-1
-2
2
-1
-1
-2
-1
6
15
2
-2
-2
-17
-9
0
2
-11
-1
0
1
26
-6
-3
0
-1
-3
-5
0
-6
6
-3
-4
-8
-2
-1
-6
-11
0
0
-3
5
-2
-1
-1
-20
-1
-3
-2
-2
1
2
5
18
4
2
1
0
-2
-3
-6
-4
-7
-1
2
-3
-2
1
3
5
-3
-2
-2
-2
-1
-6
-10
-55
-10
-6
0
-3
0
0
-2
-13
9
0
-4
0
-4
1
2
-32
-6
2
2
6
2
1
6
7
1
-3
-4
-6
-1
6
8
21
3
4
1
0
0
-7
-21
-87
-28
-7
-3
-3
-1
-2
5
29
3
-5
-8
5
-4
-3
-5
-32
-1
-1
4
-2
0
3
10
20
4
0
0
-11
-3
-2
-2
6
8
5
7
5
2
1
-4
7
-4
-2
-4
3
0
-5
-2
6
-2
-2
-3
-5
-3
8
7
26
3
2
-3
-2
-2
-6
-14
-3
-12
-10
-5
-6
-4
1
2
23
3
0
2
-5
-1
-3
-3
-30
-5
-3
-6
1
1
-6
-5
15
2
-5
-2
0
-1
1
5
0
5
1
-2
-5
1
1
3
12
8
6
3
3
3
-1
-2
0
-5
0
3
-2
-2
-3
-1
9
8
-1
-3
0
-1
2
5
17
-9
-5
3
2
1
-1
-4
-19
4
-3
-5
0
-3
4
3
5
-3
9
5
-5
0
-5
-4
-3
3
-3
0
2
-3
-1
7
24
13
-4
-5
-3
-4
-2
-6
-36
-9
0
-4
-4
0
-1
-3
2
-2
-2
1
-1
-1
0
-4
-7
-8
-1
-1
2
-1
2
3
13
3
2
-1
-1
0
3
7
24
6
3
2
-1
0
-4
-12
-38
-12
-8
-12
-5
-2
-2
0
4
0
1
0
-1
0
1
1
2
3
4
19
3
2
1
5
11
-1
-1
5
-3
-1
1
-6
-18
4
3
0
3
1
-3
-1
1
-2
-7
-6
1
-2
-1
-1
19
-1
-3
-9
-2
-2
1
4
-6
5
3
4
1
2
-4
-13
-35
-8
-6
-2
-5
-2
-1
-2
-7
1
0
-1
-2
-1
-2
1
7
0
5
-2
1
0
0
-1
-3
-2
-1
-2
4
-1
0
6
36
7
-3
-5
2
-3
-1
-4
-11
0
-3
-1
-6
1
-1
3
4
3
-1
1
-3
0
-1
-7
-29
-17
-1
1
0
-1
-1
3
32
-6
-2
0
1
-1
-1
-2
-9
3
1
1
6
-3
1
6
-2
9
2
-2
-2
0
-2
-8
21
-7
-4
-4
-7
-3
0
1
-30
-4
-3
3
1
0
-1
-1
5
-3
-3
-2
-1
1
0
-1
-2
3
3
-2
4
0
0
-2
-7
-4
-1
3
-5
-1
0
5
23
7
5
0
3
-1
-2
0
16
0
1
2
-1
-1
-3
1
-2
-6
-5
-4
-1
-2
-1
0
1
3
-3
-2
-3
0
0
3
10
2
-3
-4
3
0
1
-6
-37
-10
1
-1
0
-2
0
-6
-15
-7
0
-3
-2
-1
-2
3
9
0
-3
0
1
-3
-1
0
12
15
4
2
-2
0
-1
1
-8
-7
-1
-1
-1
1
-2
-4
-4
-4
-1
-1
0
0
0
-6
-7
-2
-4
-4
-1
0
2
0
-1
-3
-4
0
-1
-1
1
6
20
5
7
7
3
-1
-2
-3
7
-9
-2
0
1
-1
-1
3
17
9
-1
-2
-4
0
-6
-5
-12
-10
-9
-6
-5
-4
-2
-7
-7
-6
-2
-2
0
0
-2
3
-2
3
1
-1
-1
1
-2
0
-2
0
2
1
0
-1
-1
3
18
4
2
1
-3
-1
1
-2
-10
-4
1
-1
0
-2
3
-1
1
4
0
1
-1
-1
2
-1
-17
-10
-1
-1
0
0
-2
2
1
7
-3
-2
-2
-2
0
2
-23
0
-5
-3
-3
0
-2
-11
-27
-16
-5
-3
-3
-1
-3
4
26
10
2
-2
-2
0
2
4
26
9
8
2
2
1
-8
-10
2
-10
-4
-3
-1
-1
-2
6
68
9
0
-1
-1
-1
-4
-2
-95
-16
-3
0
-3
-3
-1
-16
-19
-6
-3
-2
-1
-2
-2
1
17
-19
-9
-5
-3
-1
8
14
-9
21
14
6
2
2
-6
-21
-27
-13
-9
-8
-5
-1
1
11
-10
0
-1
0
0
4
3
-3
-21
12
11
7
1
1
-6
-18
-3
-11
-11
-3
-2
-5
4
5
9
-6
11
7
4
1
-4
-4
-29
-15
-10
-3
-3
-2
0
4
47
17
-4
-2
-1
0
0
2
-54
-12
-2
-3
-3
-1
0
1
29
27
-2
-2
1
-2
1
-4
6
-8
0
0
-1
0
0
-8
-50
-12
-2
-1
-1
-1
4
4
40
21
3
1
1
1
-2
2
26
-5
-8
-3
-3
-1
3
7
0
0
8
3
3
-2
-11
-22
-5
-7
-7
-3
-1
-4
-5
-4
-19
12
1
-3
-4
-3
7
12
6
11
9
4
2
4
-6
-1
39
-30
-18
-5
-2
-1
2
-3
-71
2
3
1
0
-3
1
14
30
38
11
3
1
1
-4
-6
110
11
3
2
1
-3
0
-11
-26
1
-3
-1
-3
3
2
-7
40
18
-1
2
0
2
4
38
-51
-29
-6
-5
-2
-2
-1
-33
13
17
4
-2
-1
0
7
40
3
6
0
1
2
1
-10
-58
34
-59
-11
-6
-6
-4
-9
-3
16
12
-16
-7
-5
-2
-5
7
-68
-19
-10
-4
-1
-1
-11
-62
-105
-27
2
-3
-4
-3
14
62
101
70
16
8
6
6
-22
-34
41
-81
-32
-15
-12
-10
0
-19
-25
-61
-18
-4
-2
0
3
29
-50
19
0
0
-1
1
0
23
-5
18
0
-3
1
1
1
7
-19
22
16
7
3
1
7
16
81
8
16
8
4
1
1
-82
-33
-51
-13
0
0
-3
-24
-5
90
-4
-28
-19
-14
-8
9
31
78
77
22
10
7
4
-4
-9
-74
24
1
-1
-2
2
-6
-52
113
-10
25
9
4
-4
1
12
-98
-51
-10
-3
-1
-4
-20
-92
-51
-44
-17
-9
-7
-5
11
61
80
61
24
6
3
2
3
-24
7
-6
-1
1
-1
2
-24
-29
-97
-77
-62
-23
-14
-8
13
-7
127
57
15
7
5
5
12
69
41
-22
-5
0
-1
-2
-26
5
16
-41
-40
-18
-12
-14
5
27
9
51
8
1
0
1
0
-33
-96
-19
-12
-3
-1
-2
-6
-6
24
0
-1
-4
-4
-2
14
21
32
123
43
16
10
11
11
14
-47
8
14
2
-1
4
-6
17
-5
-42
-8
-5
-2
-8
1
-12
28
61
20
10
7
1
5
43
102
28
-6
-3
-1
2
6
23
33
-14
-8
-2
0
1
19
49
-100
4
30
17
9
10
-8
10
86
12
-12
-12
-5
-6
-7
-7
-36
-46
-33
-13
-8
-4
-10
-27
26
-10
-38
-13
-6
-5
15
47
43
17
29
16
12
6
-14
-25
-14
-49
-26
-11
-10
-7
-9
22
-60
47
14
2
-2
3
2
-16
78
-2
20
7
3
0
-4
-26
-12
-20
-28
-14
-8
-9
7
32
-106
7
27
15
8
7
-2
39
82
72
5
-1
-2
-4
-21
-33
-70
-24
-6
-5
-7
-10
3
9
104
-3
-2
-2
0
3
0
14
38
37
4
-5
-2
-2
-3
-42
-39
-67
-1
-1
-2
0
9
6
-58
35
33
11
5
0
-5
12
8
-13
-15
-7
-3
-2
0
1
-22
10
-6
-3
-2
0
16
72
21
-9
14
7
7
1
3
13
42
-21
-3
-1
-3
2
-14
-27
9
-85
-34
-14
-9
-5
-4
-30
-14
-19
-3
-4
-4
-4
-3
-58
-25
-3
10
3
3
-2
23
68
127
95
36
18
13
14
-17
-55
-82
-16
-32
-17
-13
-8
-5
11
33
-24
-28
-11
-5
-3
12
49
49
-27
9
5
3
4
-11
-52
68
-23
-3
-1
-1
-2
11
41
36
63
24
9
7
2
-1
-14
-28
-38
-16
-7
-5
-6
-10
-14
-21
-40
-8
-4
-6
-4
1
9
11
32
5
4
3
4
5
4
-5
-14
9
4
3
1
-2
2
61
6
0
0
-2
2
3
20
-15
-12
-10
-4
-2
-4
-3
-23
-56
-36
-11
-6
-1
-4
2
23
-75
-10
-2
-1
0
-3
0
-53
9
30
19
6
4
2
-10
-42
-5
30
-11
-8
-7
-3
-6
6
77
-43
-10
-4
-3
-2
1
-2
-1
32
1
-1
1
2
-4
-33
-6
9
3
3
1
-6
7
-4
-4
-1
4
3
5
6
5
14
-36
18
14
2
0
-1
-2
-12
103
30
11
3
-1
2
-9
-6
-13
-63
-20
-9
-6
-7
-6
-36
-17
-4
-5
-2
0
-3
9
-2
-45
-30
-1
2
1
0
12
26
35
9
15
10
4
5
-17
-18
38
-75
-27
-15
-9
-6
7
18
11
38
15
6
4
2
-1
-42
4
29
10
2
1
-2
-5
3
54
-26
-11
-7
-4
-4
9
22
-55
25
12
7
3
4
-3
-16
16
-18
-8
-4
0
-1
-1
18
-23
11
5
1
1
-2
-9
-35
-64
-17
-3
-4
-4
-1
-1
-40
-12
3
-3
0
0
-2
4
38
61
32
2
0
1
-1
-4
-11
-47
-13
-1
-1
-1
-2
-3
-15
13
8
2
-1
1
-4
12
2
-8
19
14
8
7
9
1
58
115
36
3
-1
0
-2
1
1
3
34
4
-1
-1
0
-2
-2
7
-20
-8
-6
-6
-1
6
9
64
53
12
3
1
4
2
10
1
-41
-13
-3
0
-3
-10
34
78
-4
-14
-11
-6
-2
4
6
-5
-22
-2
1
0
1
3
21
6
56
7
1
-3
1
-7
-16
-67
-23
-2
0
-1
1
5
-7
14
7
5
2
1
4
1
21
47
22
-18
-3
-1
-4
4
8
16
-10
15
4
2
-3
-13
-20
69
7
-15
-9
-8
-1
6
-18
-2
4
11
6
4
1
11
42
37
28
10
1
2
2
-5
-29
-22
30
-8
-4
-2
1
-2
-35
-62
-3
7
1
-1
-2
0
-37
-43
-33
-4
1
-1
0
-1
13
48
33
21
7
3
-2
-10
-31
-85
-51
-16
-9
-3
-3
6
15
-11
25
10
3
1
5
-13
-32
-54
-35
-18
-8
-7
-6
3
-12
-62
-18
-3
0
0
-1
3
27
-19
-12
-1
1
3
0
3
14
-1
23
10
4
2
4
0
34
64
-25
-9
-4
0
-3
5
-53
-55
-15
4
3
3
0
-5
4
-62
-21
-16
-7
-7
-2
-1
14
50
-4
-1
-1
-1
0
4
18
-23
33
10
5
3
3
-8
21
83
18
-15
-5
-4
-2
5
17
-43
-49
0
2
5
2
-7
10
14
12
-14
-8
-7
-6
9
12
44
12
9
3
4
2
-5
-44
-80
-3
4
-3
-6
-1
-4
-34
-12
-6
-3
-2
-2
-4
0
6
41
7
0
-4
1
-3
8
20
16
13
11
7
5
3
-3
11
-33
13
0
-1
1
-4
-3
-8
48
11
0
1
-3
2
8
31
-28
-15
4
4
2
3
-1
20
41
32
10
0
-1
0
1
-13
13
4
3
1
2
-1
-1
48
1
-8
-1
0
-2
0
11
15
-32
22
6
3
3
3
-12
7
7
-3
-10
-5
-5
-6
-9
-53
17
49
11
3
2
3
1
13
-54
-67
-18
-6
-2
0
2
-23
-28
5
3
1
0
0
0
-27
-48
-11
6
2
2
0
1
-2
19
-18
-3
-4
-3
-1
-16
-18
-4
4
-20
-9
-6
-6
6
-27
54
4
7
2
1
4
4
25
-11
7
-7
-3
-2
2
-5
19
-22
-14
-1
0
-1
2
10
-1
-37
45
17
7
3
3
-19
-37
-39
-49
-23
-11
-7
-8
-4
-14
13
40
3
1
0
0
2
11
-8
-17
3
3
2
1
-4
7
100
-7
-3
-1
-1
-5
-7
-4
-3
20
-1
-3
0
-3
1
1
-4
-11
-3
-2
-2
-1
4
16
-13
-8
-2
-1
0
-1
0
-20
-8
-29
-1
0
-2
-1
-7
-23
7
-11
-8
-3
-3
-3
3
-11
-48
10
6
3
1
1
-6
-6
77
-27
-12
-7
-6
-7
-5
-11
-4
-11
-3
-1
-2
-1
4
-11
7
-10
9
2
1
0
-14
-28
-76
-62
-13
-10
-6
-8
5
31
70
65
11
5
3
4
-6
6
34
7
-9
-5
-4
-2
0
21
-15
-27
-8
-1
-2
-3
12
7
52
-3
7
3
4
5
1
6
-62
-22
-3
-1
-1
-1
-5
-25
-11
-43
-14
-9
-5
-7
-5
-33
-18
15
-3
-2
-3
3
4
37
45
8
-1
-1
0
-1
3
42
5
-10
-7
-1
1
0
5
-2
-1
23
15
6
3
4
-4
-49
-27
-18
-1
-2
0
-6
-20
-18
-8
-35
-21
-9
-8
-4
-2
-33
-79
-1
6
2
0
2
2
18
59
17
6
1
3
-2
-2
18
-46
-22
-4
-2
-3
-3
7
27
49
33
9
3
3
2
-2
-33
-11
-1
-5
-3
-1
-2
7
-14
-15
-25
9
5
2
3
-2
42
72
38
-7
-4
-2
-3
-1
-8
19
15
1
-3
-3
2
-4
4
-11
-2
-6
-3
-2
-1
2
-8
32
15
8
2
1
2
2
-7
54
-4
-3
1
2
1
0
9
-25
-50
-13
-5
-1
-3
0
-28
37
18
2
-4
-4
-1
2
22
41
18
6
0
1
1
-7
-25
-86
-25
-7
-4
-3
-1
-4
-15
-2
12
-8
0
-2
-2
0
29
28
34
6
2
1
0
1
12
3
-13
-3
0
0
-2
0
8
5
-4
2
-1
-2
2
-3
-4
8
-10
-3
1
0
-4
-3
17
-20
6
-1
-1
-1
0
-1
-26
-57
-9
5
3
3
0
3
8
15
2
-1
-3
-1
2
2
9
10
16
8
1
1
0
4
-11
13
-18
4
2
2
1
5
-23
-19
20
-4
-5
-4
2
-3
24
67
29
3
-2
-1
-3
4
-2
-14
6
10
4
2
0
-8
-39
8
-2
-4
-2
0
-2
7
4
10
42
20
10
3
1
-2
2
-3
-20
-13
-6
-1
-2
1
-18
-84
9
5
-2
-1
1
-2
-41
-48
-14
-7
-5
-1
-1
-2
23
26
7
12
7
4
3
-18
-48
-101
-28
-16
-8
-7
-10
1
12
61
22
5
1
0
2
5
11
24
-15
0
1
1
1
-8
15
-73
0
-8
-8
-7
-1
-3
7
-26
-39
-7
-2
-2
-4
-4
-34
-3
-4
-2
-2
0
-4
0
9
3
6
4
3
2
1
-3
22
20
-24
-5
-2
2
-5
3
25
57
14
1
-2
-2
1
1
2
-24
27
6
1
-1
2
0
0
-6
-17
-11
-6
-3
-2
-4
-28
40
-1
-4
-3
-1
-1
12
6
79
25
22
8
2
0
-12
-23
12
-34
-12
-8
-5
-5
-2
-3
11
21
-3
-3
-2
-2
-2
42
-25
-16
-8
-2
-2
-1
11
28
97
22
12
5
5
4
1
-7
0
7
-2
-2
-4
-2
-6
24
-3
-7
0
-2
-3
-5
-8
-42
37
-7
-16
-8
-6
-4
1
3
-25
6
8
5
4
3
4
1
22
11
9
3
1
2
2
8
47
-27
-9
-4
-3
-4
-1
1
50
-1
-7
-3
-2
-3
2
-2
0
11
4
1
2
1
5
15
15
8
0
1
3
0
-1
-2
65
-4
-2
1
1
1
-5
-3
-51
8
-3
-4
-5
0
-6
-16
-54
-14
-9
-4
-6
0
-13
-15
4
-59
-24
-9
-7
-8
6
1
6
6
5
2
2
-1
-9
-55
-68
-26
-12
-5
-1
-4
5
-54
-2
-6
11
6
3
3
5
83
55
28
0
-3
-5
2
-7
-9
15
-14
-12
-8
-5
0
5
12
44
-3
-3
-1
0
0
6
3
38
24
15
8
6
1
5
-11
81
64
28
11
8
0
-16
-61
-104
-67
-19
-10
-9
-2
1
36
79
48
4
0
0
1
0
18
-39
-19
-8
-3
-1
1
4
13
28
-7
5
1
2
-1
4
4
-25
21
8
4
4
1
-12
-20
-77
-21
-9
-8
-5
-2
0
45
1
-6
-9
-7
-7
-4
-10
-47
-65
-29
-11
-4
-3
-2
7
34
15
11
0
0
1
1
6
6
8
2
15
7
4
0
-8
17
14
-19
-10
-4
-3
-3
-2
-10
-13
-60
-19
-10
-6
-5
-14
-33
-56
-27
-16
-9
-8
-7
5
-46
55
40
11
6
4
5
-6
-5
-67
-14
-4
-6
-4
-3
15
67
81
19
7
7
5
5
-10
-47
57
24
6
1
-2
-1
1
4
-11
12
5
0
0
-5
-2
-17
-43
-3
-2
-3
-2
-2
7
36
-97
-14
-3
3
0
2
1
-11
18
2
6
2
2
-2
1
40
-2
16
-4
-2
2
0
-1
-5
27
4
-4
-1
0
1
3
-17
-30
-9
11
4
2
1
-10
61
9
36
-6
-5
-6
-7
-11
-16
-72
-31
-16
-10
-9
-3
0
-17
45
-2
-5
-2
1
-2
-8
-28
-34
-3
-9
-6
-4
-3
15
28
-5
23
23
12
9
6
5
-3
5
-68
-4
0
0
-3
-10
12
30
42
-3
-2
-4
-1
2
-14
44
12
2
1
1
3
-9
-35
78
-33
-15
-8
-7
-1
2
7
71
30
4
2
-2
3
3
-16
-12
-17
2
2
1
-1
-5
-15
10
-3
0
-1
0
-6
10
36
-9
9
11
4
5
1
-3
2
15
0
-5
-5
-3
-6
-3
-13
-25
-13
-1
1
1
-1
-2
-8
-28
18
3
1
1
1
0
8
-32
-19
-2
-3
-2
-4
-8
-11
-34
6
-7
-5
-4
-2
3
1
-58
-13
4
1
0
3
-1
7
64
23
-1
0
0
-1
-3
-2
0
-11
-5
0
-2
-4
1
6
7
-4
5
2
1
-1
1
-1
-42
-25
-1
-2
-3
-3
-1
-7
21
8
-4
-2
-1
1
-1
24
-4
6
5
3
0
1
-5
-20
0
2
2
1
0
0
2
6
70
26
1
0
-1
0
1
0
-30
-20
-2
-4
-2
-3
0
-3
-11
20
-1
-2
-1
0
5
25
25
7
1
4
2
3
1
3
3
15
5
2
0
2
-2
-11
-8
-20
-10
-4
-1
-4
4
-1
-25
13
8
1
1
2
1
9
91
21
3
0
2
-2
-9
-15
-40
-16
-11
-6
-4
-4
1
3
-7
31
9
2
1
0
2
-1
57
-11
-8
-3
0
-2
-1
5
13
-12
-9
-6
-3
-1
-4
-9
-29
-2
-8
-5
-3
-2
-3
-6
-14
-8
3
0
-2
0
1
3
-4
-5
-3
0
0
-1
1
-1
-15
-5
3
2
0
-1
-1
7
11
-6
-2
1
1
0
-5
-12
-53
-20
-10
-5
-4
-1
-1
-3
1
3
-3
-2
-1
0
0
3
-20
-19
-3
-2
0
0
3
9
26
20
7
2
1
0
-1
-3
-2
3
2
2
0
-1
2
6
8
0
0
-2
1
3
-5
-3
-13
8
2
1
-2
0
4
11
40
3
5
1
2
2
-6
-6
-3
-10
-8
-4
-6
-3
-1
0
-5
-1
0
-2
-3
-3
5
3
-29
-1
7
2
5
0
-4
-2
0
1
-3
-3
-7
-1
-1
-1
16
2
3
2
-3
1
-4
-5
-7
1
-1
0
4
-2
-4
-1
18
-2
-4
-4
-2
-1
2
3
7
-3
-1
-4
0
-1
1
2
-26
0
4
0
-9
1
-1
-4
0
2
2
1
9
1
0
-5
-16
0
0
-3
-9
0
-2
0
8
-6
-2
7
3
-3
0
-1
6
8
-1
1
9
0
2
1
-6
-5
3
0
-2
-1
-2
-4
-19
3
-7
-4
2
-2
0
1
26
7
3
-1
-3
2
-1
-2
-10
-2
-3
4
-3
-1
0
-3
-18
-5
2
2
4
0
0
-1
1
-2
-1
-1
-2
-3
-2
0
-18
-3
-4
-5
-1
-1
1
-4
18
1
-2
-6
1
-3
0
-4
2
-3
1
1
-3
1
-3
-2
-19
-2
2
0
-2
-1
0
1
4
-5
-2
0
-2
-1
0
-3
-4
5
-2
-4
2
-2
1
-1
-2
1
-2
-3
-4
0
1
0
-11
0
1
1
9
0
-2
-2
-10
-3
-1
0
-6
0
-2
0
7
-6
-5
0
-5
0
-3
-2
-4
0
-4
-2
-5
-11
1
0
-19
-3
1
3
0
-1
-3
0
34
7
1
0
5
-2
0
-7
-61
-5
-2
-3
-4
0
-3
0
6
-3
-2
-2
-2
0
2
2
25
7
1
2
4
2
4
0
-24
-8
3
-1
6
0
-13
-15
-55
-5
-15
-11
-12
-3
-3
-5
20
-1
4
3
3
9
0
0
5
-3
1
-2
-6
-2
5
0
16
-2
-1
2
-2
-13
4
6
33
-1
0
-1
5
-2
0
-1
-35
-3
-8
-5
-4
0
-2
-1
11
3
5
4
2
2
-3
-2
-3
-5
-2
-3
-2
2
-1
-2
4
3
3
0
1
1
-3
0
1
1
-1
2
1
0
2
3
5
2
-2
-3
-1
1
-5
-8
-16
-7
-4
-1
0
1
-2
-1
12
5
1
1
4
-3
1
-1
3
0
4
4
-5
1
-2
0
-2
-1
0
-3
-4
-4
-2
-2
-12
3
2
1
1
3
0
4
25
-7
3
1
4
-2
-1
-6
-24
-9
-1
-3
-2
-5
0
-1
-13
10
2
1
-2
0
0
6
0
4
0
0
1
2
-1
-7
-21
-3
1
3
-5
-1
-2
-4
-7
-2
-3
-6
-2
-3
-1
1
10
2
0
0
-1
-1
1
2
-9
-10
-5
-2
4
3
1
4
7
4
3
2
-1
-3
-2
1
-7
3
0
-1
-3
0
-3
-4
14
-1
-2
-1
1
-2
-3
-3
-5
0
1
-2
-4
-3
1
0
10
-6
-2
-1
0
0
1
2
1
2
-3
-2
-1
-1
1
-2
3
2
-1
0
-2
0
-2
-2
-21
-3
-3
-2
-2
-1
-4
0
13
-1
-3
-3
-3
-1
-2
-1
7
0
1
-2
3
-2
2
3
-4
-3
-2
1
2
-1
-1
0
-2
2
-2
0
-3
0
1
4
10
0
-2
-2
0
-1
-1
-2
-44
-5
1
1
-2
0
-4
-3
8
3
2
0
-3
-2
-2
-1
6
4
-2
-2
-1
-2
1
-1
4
-12
-5
-2
2
0
3
8
12
11
4
1
0
-1
-1
-6
-8
-7
-9
-5
-1
-1
0
-6
-33
0
4
0
0
0
-4
3
27
6
-1
-2
-5
-1
-2
-3
13
-1
-1
0
-1
-1
-2
1
-12
-6
-1
-2
-1
-2
2
4
18
6
-2
-2
0
0
1
-1
-3
2
1
0
3
0
-3
-4
-15
-13
-5
-5
-3
-2
-1
2
3
8
0
-3
-1
2
-1
-3
9
-3
0
3
2
1
-2
-6
-2
3
6
4
-2
1
-2
1
4
-9
-2
1
1
-1
1
0
-1
-2
-5
-2
-3
-1
-4
-4
-1
0
-1
-4
-1
-2
1
-1
-6
3
0
-2
1
-3
1
0
8
5
3
0
-1
-1
0
0
-11
-5
-1
-1
1
0
0
2
1
-4
-2
0
-3
-2
1
2
75
11
2
2
1
-3
-6
-17
-88
-17
-10
-5
-5
-3
-3
-2
6
2
-2
0
0
0
-2
0
9
3
0
-2
-5
0
2
9
13
1
3
3
2
-1
0
-4
-5
-5
-2
0
0
-4
-3
-5
-9
0
1
0
0
-2
-2
1
2
-2
-2
-2
0
-1
0
-1
-22
2
-1
-3
0
1
2
8
31
3
0
1
-1
0
0
-4
-14
-3
-2
-1
-3
-3
2
2
0
1
-2
0
0
-1
-4
-3
-20
-5
-3
-3
-2
-4
-2
-5
14
5
0
-1
1
1
-1
-2
-3
2
1
-3
0
0
0
-1
15
0
2
1
0
-3
-3
-1
-21
-4
-4
-2
-2
-3
1
-3
7
3
0
-1
0
0
-2
0
-1
-12
-7
-3
-2
-3
0
-2
4
0
-6
-3
-1
1
0
2
-20
4
3
2
2
-1
-3
-3
68
9
2
0
0
-2
0
-4
-41
-3
8
1
-1
-1
-3
-6
-6
-5
-4
-1
-1
-2
1
2
15
6
-3
-2
-3
0
1
3
-13
-6
-3
0
0
2
0
2
-1
-6
-2
1
2
1
-2
-3
1
-4
-1
-2
-2
0
-1
-5
-12
4
-2
-2
0
1
5
9
51
14
4
-1
3
0
-6
-12
-27
-18
-11
-6
-5
-3
1
1
-14
-3
5
2
0
-3
-1
-4
4
5
5
3
3
-1
5
8
-14
8
6
5
4
0
-2
-3
-7
-13
-3
-3
-2
0
0
4
-52
-11
-5
-2
0
3
-4
-20
-16
-25
-9
-6
-3
-3
4
10
51
19
7
2
1
2
-2
4
60
15
-3
-2
-1
-3
-2
3
2
-10
-3
-2
-2
-2
-1
-8
-28
-10
-8
-3
-1
-2
-1
7
-13
-14
0
0
0
-1
0
-5
25
9
2
2
-1
-3
0
3
55
21
8
3
0
-2
1
0
-50
-12
-6
-1
1
1
-6
1
-53
-4
-6
-5
-5
-3
-1
-4
-44
-15
-5
-2
-3
0
4
1
10
0
5
3
2
1
-1
5
-24
4
-2
1
0
-1
-14
-51
-78
-23
-5
-5
-6
-5
1
17
25
20
-3
-1
1
1
5
15
46
22
8
4
2
0
-1
20
36
3
-9
-3
-2
0
5
10
11
-18
-4
-1
1
-3
-5
-23
25
-9
-10
-8
-2
-1
2
-4
-35
22
9
4
2
2
13
37
123
27
11
5
4
2
-5
-19
-19
-20
0
0
-2
-6
0
43
4
-1
-5
-1
-2
5
7
-12
86
9
-5
2
2
4
-13
-65
27
-52
-11
-7
-5
-6
-17
-30
23
1
-11
-7
-7
-6
3
-12
-4
-21
-12
-4
-2
-2
-6
-1
-55
-20
6
-2
-5
-5
1
33
-17
14
11
6
1
3
13
49
69
20
-5
-1
-1
6
-18
-53
-67
-5
0
-3
-5
-6
22
37
27
-3
29
15
10
7
-20
-65
25
7
-39
-21
-13
-11
-14
2
14
-21
0
2
-1
-1
4
-22
-53
-23
-2
3
1
4
-7
2
-63
-70
-16
-8
-8
-6
3
19
-32
34
23
9
8
1
13
59
78
93
15
5
4
8
-11
-22
-35
-74
-12
-6
-4
-7
-11
-25
-13
29
-28
-11
-5
-1
14
5
43
10
36
8
0
-1
-2
4
23
6
2
-4
-2
-6
-16
-68
-63
-30
-9
-5
-7
-3
-8
1
-19
3
-16
-8
-5
-2
23
80
85
79
2
0
1
1
-1
-25
65
1
28
13
5
-3
-16
12
-39
-3
-25
-16
-11
-7
-5
10
57
25
-18
-4
0
0
-26
-36
-59
-23
-17
-6
-3
-5
11
-16
-37
0
13
7
3
6
3
62
7
13
13
4
2
-4
-17
16
-22
-67
-34
-16
-11
-6
16
32
40
35
28
14
9
10
-3
-21
-128
-68
-23
-10
-2
-4
8
-40
-37
-11
-9
0
0
-2
7
-4
-16
-17
6
4
3
0
-5
-77
-117
-73
-16
-5
-5
-1
-8
18
-54
21
5
-3
-3
1
18
69
118
85
27
14
10
8
-11
-10
49
29
16
2
0
-9
-13
-1
-71
-37
-28
-12
-7
-3
7
-5
25
-23
-13
-1
1
4
10
27
-1
-15
15
3
3
3
1
-33
-20
8
19
2
-2
0
-12
-17
-11
-36
-13
-7
-7
-6
0
32
116
18
-16
-6
1
-2
1
-25
94
60
25
6
2
-5
14
27
-87
21
5
4
3
6
-21
-70
-78
-41
-7
-3
-4
-5
6
21
-86
40
18
9
3
2
-14
1
-67
-116
-43
-18
-8
-7
-4
12
125
51
-2
-2
-1
-1
14
54
85
50
25
10
7
6
-1
-29
48
-21
-13
-9
-7
-7
-6
-31
-14
42
14
3
0
1
4
19
83
33
1
-6
-2
-3
3
28
16
29
10
6
4
3
-6
3
-39
-65
-15
-7
-3
-6
4
-35
-44
7
14
5
3
-4
6
27
1
-32
1
0
-1
4
4
9
78
-7
-7
0
0
-1
-12
-52
-54
17
-5
-6
-5
-4
10
34
67
47
16
8
5
7
4
15
-6
8
10
5
3
3
6
19
-70
-6
5
1
1
-1
4
-5
9
24
15
6
3
1
-5
24
6
-35
-33
-13
-8
-6
-3
-16
38
21
-9
-1
-1
-2
-2
-8
-3
-2
6
1
0
-3
-12
0
-66
-15
-12
-8
-8
1
5
20
-37
-24
7
0
2
0
-37
-74
-12
-96
-35
-17
-12
-12
7
-12
43
28
9
6
3
3
-2
1
113
8
-19
-9
-5
-4
5
40
82
21
7
2
1
1
3
-13
-84
-28
5
2
1
-1
1
34
74
2
-1
-1
-2
-1
-6
-20
-22
-47
-13
-5
-2
-4
4
11
-55
4
3
0
1
5
-3
12
12
5
10
5
3
-1
0
-58
5
24
3
-2
-1
0
10
68
8
-10
0
3
0
2
1
-8
25
22
14
4
1
2
-1
5
-73
-9
-8
-3
-1
-4
-2
-6
24
-15
-4
-4
-4
-3
3
-26
-11
10
2
-1
-1
1
2
-15
-32
23
7
4
2
3
0
-29
42
57
11
3
2
-1
-5
26
-88
-58
-9
-5
-7
-5
-8
-51
-84
-8
-5
-3
-2
-3
4
4
45
18
4
2
3
2
7
-8
-2
-4
-2
1
-1
4
0
-15
-72
6
-7
-3
1
0
-4
1
51
-9
-8
-3
-2
-2
-1
-20
2
21
8
6
1
0
-17
-91
-24
-65
-20
-10
-9
-7
4
46
63
-2
-4
-1
1
0
2
-17
-20
3
3
0
1
1
0
-22
1
-12
-3
0
1
0
-1
33
24
-5
-7
-6
-5
-2
-6
-18
-64
-8
3
0
-1
0
-2
7
-37
9
8
4
3
-2
-10
-31
29
-13
-7
-2
-4
-3
5
12
-2
34
7
2
4
2
-3
-12
-21
-16
-6
-3
-3
-3
11
21
19
59
26
12
6
8
-8
-11
-42
-58
-15
-7
-5
-6
7
38
55
22
1
2
-1
5
-3
-5
24
4
-10
-4
-1
-2
-10
34
47
5
-8
-4
-5
-2
0
21
84
19
-5
-2
-2
0
8
7
17
3
8
1
1
3
6
5
63
-14
-3
-1
0
-1
-3
-51
-76
-11
0
2
1
-1
-6
9
-1
2
-4
0
-3
-3
-8
-21
-76
-6
-4
-1
0
-2
4
-8
66
35
8
1
2
4
4
-17
-12
-38
0
0
1
-1
-1
25
36
-27
-12
-6
-4
-4
-5
-36
-12
8
-5
-6
-3
-4
9
60
62
29
12
5
3
3
-6
27
70
21
4
0
-1
-3
5
17
81
24
3
2
3
3
-6
8
56
-10
-11
-5
-3
-4
-1
11
20
-25
-2
-2
-3
-1
-1
-14
47
9
-1
-1
-2
0
1
-10
-24
-13
0
-1
1
-2
6
9
-14
25
8
5
1
5
7
-1
-15
-4
-4
-2
0
-4
-8
24
26
-23
-23
-12
-8
-4
-2
-14
51
3
13
0
-2
-1
7
15
-97
-24
8
5
3
0
-6
-67
-46
-10
-8
-6
-4
-4
1
-24
42
-13
1
1
2
0
-3
12
-21
32
-8
-5
-6
-4
9
39
17
12
7
1
1
3
-16
-29
-52
-87
-28
-11
-6
-6
7
23
-50
-8
3
0
1
2
8
13
21
28
10
7
5
4
-5
-13
-40
10
9
4
0
-1
3
12
-35
25
-3
-2
-1
2
-14
-33
-13
-36
-19
-10
-7
-6
-2
-59
-42
-6
-2
-2
0
1
1
8
-57
-33
2
3
3
-2
3
2
58
40
13
4
2
5
14
36
37
21
5
1
0
-2
2
-28
35
30
-3
-3
-3
1
-24
13
102
-49
-30
-14
-10
-10
-12
-30
-61
-7
0
-2
-3
-6
2
13
23
-17
4
3
2
5
-9
-37
-62
-14
2
-5
-1
-7
-1
-11
-21
-2
3
2
-3
1
6
80
21
7
-3
-2
1
-4
-2
-7
-69
-16
4
3
2
0
5
91
24
-3
-4
-1
-1
2
0
-72
22
4
2
1
2
0
-9
8
54
-25
-7
-5
-3
0
3
-31
30
26
2
0
1
2
5
0
64
17
11
4
1
2
11
24
-11
26
5
0
2
1
4
-8
-63
8
4
5
1
4
-7
-10
-52
0
-11
-6
-5
-3
-1
20
34
-22
-11
-4
-3
-3
1
0
6
6
2
1
0
-2
-2
-6
-9
5
5
2
2
0
-1
7
-4
14
6
1
2
1
-2
-15
-37
-22
-6
-3
-1
-1
-3
-2
16
23
1
-3
-4
-4
-6
-33
36
64
6
2
1
3
5
41
4
-36
-9
-2
2
0
-4
36
11
17
4
2
1
0
3
-52
-22
6
2
0
0
-1
2
-8
-57
-18
-3
-2
-2
0
0
-30
-86
-6
6
1
0
-1
-10
-28
-56
-7
-6
-3
-3
-1
-10
5
-48
-43
-17
-9
-4
-3
-5
5
-13
-12
-1
-2
-3
-1
4
-19
53
18
9
5
2
1
1
30
-21
13
13
4
2
1
-1
12
-71
2
-6
-3
-1
1
-16
-71
85
-50
-17
-7
-8
-4
4
59
72
27
6
1
1
-1
0
-15
33
4
7
4
4
2
1
14
49
17
4
0
0
-4
3
30
-47
-1
3
1
1
3
-7
-1
-30
-15
-3
-3
-4
-2
-5
-23
37
17
-2
-3
-3
-3
4
10
-13
1
4
5
2
6
5
25
13
7
-4
-2
0
-3
-8
-3
35
13
-12
-7
-6
-5
8
19
37
11
10
5
5
1
-1
3
24
-6
5
2
0
-3
-1
-25
-21
-8
2
-1
-1
-2
-3
24
21
46
-1
-2
-2
-1
-1
-5
-61
-39
-16
-6
-5
2
12
19
-18
7
3
0
1
0
-2
16
13
13
-7
-4
-3
-3
1
-28
29
-17
-4
-3
-1
-4
-2
-14
-46
-7
1
1
-1
0
-7
-22
24
14
-1
0
-1
-1
2
0
54
32
6
4
1
1
7
-12
-16
-4
9
5
1
5
-5
1
-2
-38
-14
-8
-4
-5
2
20
106
26
4
2
1
3
-4
-42
-25
14
8
3
1
-3
5
10
106
20
10
4
3
3
-12
3
35
-2
-11
-7
-8
-4
0
-3
36
-21
-3
-2
-1
1
0
10
11
12
2
-2
0
-1
2
11
1
6
0
0
-2
-2
-2
-9
-10
-18
6
4
4
-1
-4
9
-47
-27
-12
-5
-4
-5
9
59
-56
-8
7
2
2
1
-15
-53
-90
-35
-12
-4
-4
-1
-3
-18
-18
-7
-8
-7
-3
-5
-10
-16
3
-8
-14
-9
-3
-2
1
3
29
-7
1
3
1
-1
0
8
-16
-10
4
0
1
1
-4
-15
10
26
-3
-1
-2
0
15
9
-14
27
15
5
3
0
-3
-35
-34
-8
1
0
-1
-2
-7
-23
-87
-81
-19
-9
-5
-5
0
-1
-20
19
-3
-2
-2
2
4
0
58
26
6
2
3
2
1
1
-2
-5
0
0
-1
0
3
-5
-10
-4
7
3
2
-2
8
17
19
9
5
4
2
0
-3
-1
-92
-56
-10
-3
0
-6
-7
2
-38
18
-5
-4
-7
2
4
10
42
33
11
6
4
6
-1
-32
13
-20
-2
-2
-1
-3
9
19
101
31
1
-1
2
-3
0
16
-14
-25
-8
-4
-2
0
1
20
-1
8
-2
0
-2
0
0
-11
10
8
-2
-4
-1
1
-1
24
61
-10
-6
-1
-3
1
-5
-18
-35
-38
-2
-2
1
-5
-5
4
-2
35
4
1
-1
3
8
56
60
2
-6
2
3
0
-9
-32
-39
-67
-6
-3
-2
-5
0
-4
-46
13
0
1
0
1
4
28
32
26
1
1
1
-2
-17
-49
-40
-25
-7
-5
-5
-2
-3
-8
-34
4
1
-2
-2
3
2
21
86
9
7
2
1
0
4
41
-4
-2
0
-1
1
-3
1
-39
-55
-16
0
0
-1
0
5
9
64
54
17
9
2
3
4
45
38
-20
-11
-6
-3
-1
-15
-36
50
30
1
-2
-2
-4
5
25
-12
10
3
3
1
1
-4
1
-43
10
0
-1
-3
-2
-2
17
-30
-24
-9
-2
-2
-1
1
-38
26
9
7
1
3
-1
-4
9
19
22
0
-4
-5
-2
-9
-39
-35
8
-1
-3
-1
-1
3
-13
-46
-12
-8
-3
0
-3
-13
-28
-50
-26
-16
-10
-9
-4
8
32
63
1
13
8
4
1
2
8
33
3
-4
-1
-1
1
-4
-4
26
12
6
0
-4
-2
6
26
-52
-32
-7
-1
3
4
0
-8
21
-4
-6
-4
-1
-3
18
71
72
1
11
7
6
0
-12
-14
106
29
-3
-5
-5
-3
-4
-4
45
12
-1
-2
-3
-3
3
7
-24
-3
4
1
1
3
0
-6
24
-7
-4
-2
0
-2
13
30
-67
1
15
8
6
5
-1
6
-4
5
-7
-6
-4
-3
0
33
30
0
-10
-3
0
1
-8
-33
-11
2
4
1
-2
-3
-3
-12
38
14
-4
-1
-2
-1
3
6
19
24
6
-1
1
-1
7
12
-48
-26
1
2
2
1
-3
-5
32
25
-5
-2
-2
0
3
-5
11
7
6
1
3
0
-2
27
44
-5
-5
-4
-4
-3
-6
-21
-28
-12
-5
-3
-3
-3
0
-13
-32
8
-2
-3
-2
0
8
13
26
24
11
6
3
1
-1
-29
29
18
6
1
0
-2
-1
8
42
-1
-4
-3
-1
2
-8
-19
-86
-18
-11
-8
-4
-3
-1
-10
-48
-3
-5
-2
1
-1
5
6
16
-10
4
5
2
2
1
-12
-25
4
6
2
0
0
-3
16
10
19
2
0
-3
2
-7
-25
-5
-16
-7
-4
-3
-3
0
-6
-78
-6
1
2
0
1
-5
5
16
-9
-9
-5
-3
-5
1
-3
-1
0
3
1
0
0
-16
-36
-4
-39
-24
-11
-10
-9
0
-10
-30
-15
-8
-7
-5
-2
0
-2
4
16
4
1
-1
0
1
8
11
-4
6
4
3
-2
2
-2
21
20
6
3
3
-1
2
2
5
-14
-2
2
0
1
-3
-7
-17
3
-4
-3
-1
-1
-3
0
-19
-10
-4
-1
0
-2
0
-1
23
11
6
0
0
0
2
2
7
-5
-1
-2
-1
0
1
-1
-43
-10
-1
-2
-2
-2
-3
-5
-2
-9
-4
-3
0
-2
3
15
92
12
3
1
1
0
-9
-9
6
-12
-9
-5
0
-2
0
-1
20
-1
1
1
-1
1
0
4
5
-1
-2
-1
-3
-2
0
-4
-18
-1
-2
-3
1
-1
-1
-2
-3
14
9
3
-1
-1
-3
2
-8
4
5
5
-1
-1
-3
-5
-30
-30
-8
-5
-6
-1
-1
-1
-12
1
1
0
2
1
3
3
-7
-9
-5
-2
7
-2
1
-2
-12
1
-2
-4
-11
-3
1
3
14
7
0
3
-4
-2
-1
-5
-44
-11
4
4
2
1
-7
-14
-30
-21
-9
-3
-2
-3
1
2
30
3
-2
-4
2
-1
-3
-2
-13
-5
-4
-1
3
1
-1
-2
15
18
3
1
-2
0
-3
-5
-12
-4
3
1
0
-1
1
4
3
-1
0
1
2
2
4
0
20
14
7
-1
1
-2
-1
-1
-10
-5
-3
-3
-5
-2
0
4
9
6
1
2
-1
0
-3
-3
-4
2
-3
0
-1
-3
-1
-1
6
1
1
1
1
0
1
-4
-10
2
4
2
1
1
-2
-4
-2
-5
-4
-5
-3
-2
-2
-1
-6
-3
-2
0
0
0
-2
-3
0
-1
-3
-2
-1
0
-2
-1
-9
-3
0
-2
-2
-2
1
0
-1
-4
-3
1
-2
-1
1
-4
-5
3
3
-1
3
0
1
-2
1
-1
-3
-5
-1
-1
-1
-2
-8
-8
-5
0
-9
-4
1
9
24
17
6
4
-1
1
-3
-13
-3
-17
-4
0
0
1
-3
-1
-20
-10
-2
-2
0
-1
-4
-2
6
1
-3
-3
0
0
3
7
24
7
3
2
2
2
-2
5
19
16
0
-3
-2
-1
-5
-7
-16
5
-7
-5
-4
-3
-3
-6
-2
-24
-9
-5
-3
-1
-1
-2
0
11
4
0
-1
-1
0
7
0
-5
3
2
2
-1
1
-4
-18
-12
-1
0
-1
-1
-1
2
0
4
-6
-4
1
-1
-2
-3
-7
-5
0
-1
4
-2
0
-4
-17
-5
0
1
-5
-1
-1
3
20
5
1
0
-3
-1
-3
-1
-6
-1
2
4
8
1
-1
-2
-11
-8
-4
-3
-2
0
0
-1
-1
4
-2
-2
4
-1
0
3
5
1
0
1
-1
0
1
0
3
2
-3
-4
-3
-1
-1
-1
-21
-3
-1
-1
-3
-2
0
3
21
1
-4
-2
2
-2
-3
-3
-15
-8
-3
-6
-7
-2
-1
-2
12
-2
2
4
2
-1
-1
-6
-17
-8
-3
2
1
-1
-3
-2
6
4
0
-2
-3
-1
1
1
13
1
0
-2
3
-1
1
5
16
19
0
-2
-2
0
-6
-7
-21
-23
-10
-7
-6
0
1
0
-2
-7
-5
-1
-2
-1
-2
-2
10
9
5
3
4
1
2
1
-5
1
2
-1
-3
0
1
1
11
4
4
2
1
-1
1
-1
-2
-3
-1
0
1
0
-1
-1
-11
0
-2
-2
-4
-2
-2
-6
-30
-12
-3
3
-1
0
-1
1
22
12
0
-3
4
-1
-1
-3
-25
-6
-1
-1
-3
1
2
3
15
1
1
1
3
0
-3
-3
-5
-4
-3
-3
-6
-2
0
0
3
-4
-2
-4
1
0
-1
2
3
5
4
3
3
-1
-1
-2
-11
3
-1
1
3
-1
-2
-2
-5
-5
3
2
-3
-2
-2
3
28
2
-2
-3
-4
-2
1
4
-5
5
-2
-5
0
-2
-2
-3
-21
-12
-7
-6
-3
-1
-1
-8
-29
-1
2
-2
1
-2
0
-1
7
7
1
-1
-2
0
0
0
6
8
0
2
1
2
-1
2
16
1
5
2
-1
-2
0
3
5
-2
-3
-1
2
0
2
-1
-16
-2
2
1
0
0
-4
-2
9
-3
-2
-2
-3
-2
-4
0
6
-3
-5
0
1
0
-3
4
0
-1
-4
-1
-2
0
0
-3
15
-6
-4
1
-3
-1
-5
-6
-55
-5
3
0
-1
-3
2
1
15
6
3
-1
-1
-2
1
1
11
1
0
2
5
0
2
2
-8
-5
1
0
-3
-1
-1
2
9
1
-3
-2
-2
0
-3
-7
-2
0
-5
-3
-9
-1
-2
-1
-14
-6
-3
-2
3
0
-1
0
5
5
1
-1
-2
0
0
-1
9
-2
-1
0
7
-1
1
5
-6
2
1
2
-2
0
0
-7
8
-3
-2
-4
-3
-2
0
-2
-22
-4
-2
-2
-1
0
1
3
26
1
0
-1
-3
0
-2
-7
-46
-5
-2
0
3
0
-2
-2
-4
-12
1
-2
-3
-2
-4
0
4
6
4
3
-2
-3
2
6
8
10
1
2
1
1
-2
-10
4
-14
-6
-3
-1
-3
-1
2
2
2
-1
-2
-2
0
2
1
-5
2
0
1
1
0
-2
-4
-7
-3
-4
-2
-4
-2
1
1
10
7
2
0
0
0
0
-1
-9
-12
-5
-2
-3
-2
-1
-2
4
2
-1
0
0
-1
0
-3
-5
-3
1
0
1
-2
0
1
-2
-2
1
0
-3
0
-2
-1
8
4
-4
-2
-2
-1
-2
-1
10
-2
-7
-4
-1
-1
1
-1
19
-6
3
-1
-1
-1
-3
-6
-45
-9
-2
-2
1
-2
-2
0
-8
5
-2
0
1
-1
-1
-1
-6
-1
-2
1
0
1
-3
-4
17
5
2
-1
-4
0
0
4
18
-1
-2
0
0
0
0
-1
-4
0
1
1
1
2
-2
-6
-28
-9
-2
-1
1
2
-1
1
-12
-3
-2
-4
-3
0
-1
1
29
7
1
1
0
-4
-2
-6
0
-2
2
1
0
-1
0
5
31
4
2
-1
1
0
-2
-3
-41
-11
-2
-2
-2
1
2
3
5
-1
-6
-5
-1
0
-4
-3
19
4
3
0
-2
-2
1
2
18
2
4
0
1
-1
0
0
-9
4
0
0
-2
-3
-1
1
21
13
-1
0
-1
0
0
-2
-28
-8
-2
-2
-1
-1
-2
-9
1
-2
1
0
0
-2
-3
-5
-7
-16
-6
-1
-2
-1
-1
0
16
1
2
0
3
-2
3
11
13
7
-4
-1
1
-1
-4
-8
-42
-8
2
0
-1
-2
1
12
44
7
-5
-4
-2
-1
-6
-19
-65
-15
0
0
-3
-2
-2
-2
29
3
-2
-2
-2
-1
2
7
17
-3
-4
-1
-2
-1
2
1
-17
4
1
1
-1
1
1
2
8
-1
-1
-3
-2
0
-1
-3
-21
-1
1
0
-1
-1
-1
6
2
-8
-4
-1
-1
-1
2
-2
39
8
6
3
3
-1
-4
-5
-65
-11
-6
-3
-4
0
-1
-6
27
13
-1
0
0
1
-3
-2
-13
-11
-5
-5
-2
-3
0
0
29
4
-2
-1
-1
-2
7
9
-41
-2
13
8
4
1
-9
-5
-2
-17
-17
-10
-5
-4
-1
-3
-33
-24
-1
0
-1
1
0
-1
4
44
12
6
2
1
1
7
64
-3
-6
-2
0
-3
-1
-9
-71
-25
2
3
-1
0
9
19
10
20
7
4
3
0
-14
-20
2
-34
-23
-12
-7
-3
5
7
37
24
10
6
4
4
0
-6
-60
0
5
2
1
-1
-5
9
98
11
-3
-1
-4
-4
-2
11
13
7
0
-2
-1
-4
2
12
13
1
1
0
2
-3
-1
-14
11
0
-2
0
-1
1
2
-3
-53
24
10
2
1
1
-16
-61
-108
-63
-20
-11
-7
-4
-2
11
116
18
-3
-2
-3
3
1
11
-37
-31
-7
-4
-1
-3
0
-5
-6
5
9
4
0
3
10
8
-29
-29
-1
3
4
-3
-3
0
25
85
20
2
0
-2
-7
20
42
-14
-16
-6
-5
-1
0
-54
-92
-44
-13
-6
-3
0
4
-4
-20
36
10
4
3
1
4
9
-28
-72
12
5
3
0
-2
33
3
12
1
-3
-3
-2
-20
6
112
-6
-22
-12
-7
-9
-2
-25
-15
23
3
2
0
3
12
26
-10
-45
4
1
-1
0
10
11
109
50
6
6
6
-2
-20
-66
-95
-43
-2
-5
-8
-6
-7
-46
-15
-27
-38
-15
-9
-1
5
46
49
20
11
8
7
2
-4
-34
-54
-36
13
-1
-5
0
10
26
60
74
11
7
5
1
-8
-57
-13
-26
-3
0
-2
-2
-8
29
33
-11
-29
-12
-8
-5
3
-63
65
63
33
14
8
6
3
20
-81
-56
-26
-13
-5
0
19
127
66
93
28
15
9
9
-13
-13
-32
-39
-26
-12
-7
-4
-2
-20
-78
-36
-6
-4
-2
-6
5
-8
-55
45
12
6
0
-1
-21
4
127
-6
-20
-16
-10
-12
-9
-22
-121
-22
-13
-6
-3
-6
14
58
61
45
4
3
3
6
9
-29
14
47
14
3
3
8
8
9
-91
-103
-1
1
-2
2
-10
-50
78
53
0
-2
-4
0
5
65
9
81
9
6
2
4
-8
4
45
2
3
-4
-1
-10
8
9
39
26
20
7
5
2
-4
5
-106
-14
-11
-7
-5
-5
2
17
54
-9
-6
-3
-1
4
1
4
19
-29
-6
-4
-1
3
-4
-37
-52
3
7
3
0
-1
4
-7
32
25
2
3
3
0
-11
-64
11
-25
-12
-8
-7
-8
17
101
12
37
-15
-1
2
0
-32
-72
-94
-57
-19
-16
-13
-15
4
14
-38
-8
6
1
0
4
-2
-39
-39
-12
0
1
-1
0
4
51
111
55
6
2
-1
4
12
28
120
-14
-5
-2
2
-1
1
18
-42
33
11
4
0
-3
4
1
-24
37
7
2
4
0
-7
-1
20
-57
-7
-3
-1
-2
-7
-59
-28
19
4
-3
-7
-2
-1
-17
37
6
2
-1
-1
1
8
48
-6
-16
5
4
4
1
0
-25
-22
-4
-6
-2
-1
-2
18
52
-55
-20
4
7
8
7
-16
-47
-12
-22
-13
-9
-7
-4
-6
-8
6
6
-10
-3
-3
-3
5
-8
-11
-36
14
7
5
3
1
39
83
37
-2
-2
0
-3
6
-14
12
-48
-2
2
2
-2
-8
5
51
-43
-11
-7
-5
-1
-16
-43
-23
-21
-8
-4
-4
-7
26
40
-41
58
33
17
11
14
-5
-64
-54
-57
-20
-9
-5
-7
-7
17
89
7
-5
-3
-2
-4
-2
6
8
-27
-10
-5
-4
-2
6
-12
34
15
22
5
4
1
0
-1
11
19
10
5
2
2
9
-13
-59
-17
-9
-4
0
1
0
3
-72
-38
-5
-5
-4
-3
-2
16
-35
-14
-14
-6
-2
-1
-4
-2
33
3
4
0
-3
-3
-6
-17
-16
6
-2
-3
-4
-5
1
7
28
26
6
3
5
3
-8
-7
-3
-17
-12
-8
-6
-4
6
24
10
21
7
1
-1
1
-7
35
22
-28
-17
-7
-4
-6
-7
-14
-57
-69
-1
-2
-2
-3
-6
13
-76
-41
-23
-7
-3
-3
3
19
67
26
2
5
7
3
4
15
-3
29
17
6
2
-1
-16
-86
-47
-43
-9
-2
-3
-2
-7
-4
71
48
-11
-5
-5
-1
6
37
28
17
4
0
2
4
-4
-39
-58
-28
-3
-1
0
-3
7
-7
120
53
12
6
2
-2
5
24
20
10
2
3
3
-1
-8
-27
-99
-14
-11
-7
-6
-4
-13
-44
-33
-19
-9
-6
-4
-3
4
-38
37
48
12
3
1
4
0
9
31
-10
5
-1
0
1
1
4
42
5
-4
-2
-1
-1
-2
7
2
-43
-9
-5
-2
-2
-1
46
86
42
-1
-1
-2
0
-9
-63
-12
9
-2
-3
-3
-3
3
1
9
16
8
5
3
4
-3
4
3
-27
-6
-4
-4
0
-2
6
72
59
5
0
-3
1
3
12
-59
-81
-4
0
1
-1
-7
-15
66
-29
-14
-7
-4
-3
1
4
73
-13
-3
0
2
0
2
-1
15
20
5
4
2
3
5
-2
-22
19
16
6
3
-2
-8
-16
-10
14
-2
-2
-1
-3
7
19
31
-7
7
2
4
1
-1
-5
0
0
-2
-2
-2
-3
-3
-1
-17
12
1
-1
-1
3
-4
-26
13
10
2
-1
-2
-1
-3
1
-89
-17
-11
-6
-4
-2
2
20
-31
-9
3
2
3
0
-6
1
-21
2
-4
-3
-2
-1
6
8
12
18
7
3
4
1
-10
-58
-91
-19
-1
0
-4
0
-2
16
20
33
-2
-1
-1
-2
1
-6
-33
-26
-10
-3
-4
-4
1
2
35
17
0
-1
-1
-2
-2
8
-67
-7
11
2
0
0
3
-2
-100
-39
-3
-2
-1
0
-11
18
123
43
-3
-4
-3
-2
8
24
-23
-14
0
5
3
4
7
2
39
0
5
4
0
0
1
26
-66
-11
-9
-5
-1
-1
7
31
43
31
10
2
3
0
6
0
21
-16
-2
0
0
-2
-11
-6
7
-15
-8
-7
-5
-2
4
45
35
3
1
0
-1
-1
4
-22
-26
40
14
7
3
5
-15
-3
60
-36
-22
-9
-6
-4
8
20
11
32
2
3
4
0
1
0
-10
-19
1
-2
0
-3
-2
25
44
-4
-5
-5
-1
-2
-2
-4
25
11
10
3
-1
0
-2
-18
-6
-1
-2
0
-1
-4
-7
-26
-30
-33
-17
-5
-3
-1
3
45
12
2
9
2
0
-4
-4
-22
-89
-32
-3
-3
-2
0
0
0
65
3
4
1
0
-2
6
38
3
15
8
4
3
4
-9
-69
-10
-31
-10
-3
-3
-3
0
4
-24
29
0
-5
-3
-2
8
18
-16
15
6
0
-1
1
-4
-22
-20
-55
-4
-3
-3
-5
-3
6
-10
29
-1
-2
0
-2
-5
-6
5
-2
2
0
-2
-3
0
6
-9
12
-6
-2
-2
3
2
10
36
-3
-4
-4
-3
0
-2
-7
-20
-5
3
-1
1
0
12
30
-39
-19
4
5
5
0
-1
-14
11
35
15
4
3
1
-6
-14
22
-7
-12
-6
-5
1
0
-9
-17
-13
-3
1
-1
0
-2
13
25
14
1
-4
-3
1
9
50
-6
19
6
4
4
2
-12
-42
39
-12
-16
-9
-9
-5
5
-11
-48
8
2
2
2
-1
-1
19
9
-16
-5
-2
-3
-1
3
-5
-5
8
3
2
2
1
1
12
11
36
10
1
3
0
3
6
50
-11
-7
-3
-1
-1
1
-15
-59
27
5
2
2
1
-7
7
-33
-18
-8
-3
-4
-8
1
-18
55
7
3
6
4
0
-10
-54
22
-10
-6
-6
-6
-2
0
-10
29
7
-4
0
-1
-1
-4
-23
1
-8
-4
-5
-3
1
2
4
-3
6
16
7
6
2
-4
-11
-28
3
-3
-2
-2
-1
1
6
61
-6
5
0
0
-1
0
-2
15
8
-3
-2
0
3
-9
-8
-49
-14
-15
-6
-6
-4
10
16
10
1
3
4
2
3
15
42
17
60
24
9
6
2
-7
-1
78
1
-10
-6
-3
-6
1
-2
-35
-4
9
1
1
0
2
27
39
22
5
4
1
0
2
-32
-66
-5
2
2
0
3
-3
2
49
2
-4
-4
-2
-5
0
-34
23
12
1
0
-1
-2
4
76
72
5
3
0
1
-1
-9
-24
-5
-37
-20
-10
-5
-7
-3
-35
-21
-6
-1
-3
-1
-1
-4
4
-25
-16
-15
-6
-6
-3
-1
-6
-27
4
12
4
1
-3
-4
-21
48
29
-5
-2
-3
-3
-1
-10
-35
7
-1
2
0
-1
13
31
-48
-5
-5
-2
0
2
-6
-28
-2
-25
-13
-6
-3
-2
-7
7
-75
-34
-9
-2
-2
1
-1
-13
-7
6
0
0
-1
-3
0
0
-3
19
3
2
2
-3
0
-24
-36
-10
-1
2
0
-2
-13
-37
-12
-22
-13
-8
-7
-7
2
18
39
0
-2
0
-1
0
5
13
2
17
11
1
5
0
-4
-5
2
11
-3
-2
-3
-3
-6
-7
21
-12
-6
-6
-4
-3
-1
-2
-30
8
-2
-2
-1
2
1
5
68
-8
6
1
1
2
-2
-16
29
-12
-6
-2
-1
-2
4
-8
-23
24
17
3
2
2
-2
3
-13
-15
-8
-4
-4
-2
-5
-13
14
15
4
-1
-5
1
3
27
24
-2
-6
-2
-3
2
-2
2
-15
-29
-9
-3
-1
-2
2
-8
18
3
1
0
-3
-2
1
33
6
1
0
-1
-1
2
-1
-24
9
0
2
1
1
0
1
10
10
-1
-5
-2
-1
-2
3
3
49
19
5
3
1
0
10
42
-39
11
6
4
4
1
-12
-17
-36
-26
-11
-7
-4
-3
-4
-5
-24
21
9
2
2
3
-3
5
-32
-19
-3
-1
1
2
-10
-7
25
-16
-13
-7
-5
-6
-2
5
41
37
2
-2
-2
-3
9
23
-40
-2
4
2
1
0
-1
-1
15
8
3
0
-1
0
4
-14
-33
-11
5
2
2
-1
-5
5
7
-2
-9
-6
-2
-3
-2
-3
-10
-11
3
0
0
1
-2
8
-10
3
-2
1
1
-1
-8
-49
4
-22
-4
-2
-3
-1
-1
-67
-31
-25
0
1
0
-2
0
22
83
22
-4
-3
-2
4
4
16
71
17
6
1
3
1
-2
-16
-34
0
-2
-4
-2
-4
13
40
37
3
4
3
1
0
-1
-17
-21
2
-1
3
1
0
-3
-20
-27
-27
-8
-6
-4
-4
0
1
18
17
1
0
-1
2
5
12
40
8
4
-2
2
0
7
7
5
8
5
4
2
0
-10
3
16
-22
-12
-7
-8
-4
1
-11
-88
27
7
5
1
0
-2
15
-42
-23
-7
-4
-1
-1
2
28
12
-13
1
-3
0
-2
-10
-13
20
10
-5
-6
-4
-3
-2
-23
26
-6
-1
0
-2
-2
-1
-3
-66
-6
-1
-2
-1
0
2
11
13
-3
-1
-2
1
0
1
21
-21
-3
-1
-1
0
0
-7
-29
-31
-19
-4
-1
-2
-4
4
5
14
16
2
2
0
3
-13
-21
-37
-37
-17
-6
-6
-7
7
8
-95
-17
-1
1
1
1
3
20
89
26
2
1
4
0
-5
-8
18
2
-4
-5
-4
-2
-1
-7
41
-4
4
1
-2
-2
2
-19
21
28
7
3
4
0
-2
17
22
6
-2
-3
0
0
-7
9
-15
0
-6
-2
-2
-3
-1
27
38
-29
-6
0
-1
1
3
-27
-18
23
22
10
6
3
-8
18
97
4
-8
-5
-2
-4
-7
-51
-80
-1
-2
-3
-1
-3
-8
4
29
-23
-17
-8
-7
0
4
19
11
-9
2
0
0
3
1
4
0
-1
1
2
1
-3
3
12
12
3
6
3
3
0
4
-2
-4
-1
-4
1
2
-2
-2
-5
-13
1
-4
-3
-5
-2
5
20
-38
3
0
2
-1
2
-1
6
-10
-25
-3
1
0
-3
5
-4
-12
21
9
5
2
1
2
56
71
-16
-3
-3
-1
0
-7
-47
-22
-25
-7
-3
-4
-2
-1
9
37
11
5
-1
-3
-2
3
26
17
38
9
1
2
1
-1
-5
-45
-4
-6
-1
1
0
8
34
21
8
2
-1
-3
0
-3
-12
-28
-4
-8
-4
-1
1
1
1
31
9
1
0
-1
-4
2
14
36
23
-4
-1
-2
-1
-4
-6
-72
-34
-10
-5
-3
-4
-2
8
-50
-49
-12
-4
-3
-2
-13
-39
-46
-4
-7
-5
-4
-5
-2
-10
2
10
-5
-4
-3
2
-4
-7
-16
0
2
3
0
-2
7
10
83
22
18
9
5
3
-7
-8
-45
-12
-6
-5
-4
-1
-5
-6
8
-17
1
0
-1
-2
1
8
-24
-37
-12
-8
-2
1
3
7
26
19
3
1
1
3
5
-16
25
9
5
2
1
1
-4
-18
-15
-11
-4
-3
-4
-2
-1
-3
-19
-12
-3
0
-1
-4
0
5
4
9
0
-2
-3
0
-4
-19
-12
-9
-5
-2
-1
-3
0
-1
-24
-8
5
1
2
-3
-2
-4
7
5
4
1
1
0
-3
4
-3
2
1
3
-1
-1
2
13
23
5
0
-1
-1
0
1
-12
10
3
-1
2
0
-3
6
0
-13
-1
5
4
5
1
-4
-5
41
16
-5
-4
-4
-2
-1
1
6
-5
-3
0
1
1
1
-2
-21
6
1
2
1
1
-3
-2
16
11
-2
-3
-4
1
2
15
-29
-3
-3
-2
-1
-1
-2
-6
14
-3
2
1
1
-2
0
4
-19
-11
-3
-3
1
-1
-2
2
19
10
-1
-2
-1
-3
-4
-38
-20
-4
-1
-1
0
-2
1
12
-12
-3
-2
-3
-1
0
-1
9
3
-5
-2
-1
-2
-2
-2
0
33
14
-1
-3
-2
-2
1
5
-3
-20
-6
-3
0
0
2
-2
-8
-4
1
0
1
1
-7
-20
4
-14
-9
-3
-3
-2
-1
1
4
-2
-3
-2
-1
-1
2
6
8
3
0
-1
-1
0
0
-2
16
16
6
4
1
-1
3
7
-13
-21
0
1
1
0
-3
-2
-23
-18
-8
-4
-2
-2
0
3
-1
1
0
-1
1
1
4
-2
-8
-5
3
0
-1
1
-5
-16
-14
-6
-7
-6
-4
-5
1
0
-2
5
0
1
-1
1
2
7
-5
-3
1
-1
0
0
1
-16
20
-6
-3
-3
-2
-1
2
16
-8
21
3
-1
0
0
-5
-34
22
-1
-3
-1
-6
-1
1
-3
0
3
-3
-1
-1
1
0
6
-19
-7
-5
-4
-3
-1
0
1
6
2
4
2
2
-1
1
7
-8
0
1
-1
0
-2
0
9
32
11
4
4
2
-1
-2
-2
-50
-6
-4
-5
-3
-5
-4
-4
43
-2
-4
-1
0
-1
-1
5
-29
7
-1
-2
0
-1
1
1
-17
-13
-1
-2
-1
2
-3
-1
-5
2
0
-1
-4
2
-1
-1
6
8
-2
0
-2
2
0
4
0
1
2
-1
-1
0
-1
4
13
7
0
-1
-1
0
-4
2
-5
1
-1
1
0
-1
-3
1
16
1
3
0
-2
0
1
3
1
-3
-2
1
0
2
-2
-2
-14
-2
-3
-4
-4
-2
1
5
22
6
2
0
1
0
-2
-6
-36
-11
-2
-2
0
-1
-3
4
-29
-3
-4
-2
1
1
-3
1
6
2
0
0
-1
-2
-4
2
4
0
-2
-1
-1
2
1
0
11
-2
0
-4
0
2
2
-2
6
-5
-1
0
1
-2
1
-2
-10
3
0
-1
-2
-1
-1
1
-3
-7
-7
-5
-4
-2
2
-5
-7
2
2
2
-1
1
1
1
14
2
0
2
-2
-2
-1
-3
7
-1
0
1
1
-2
2
6
13
10
3
3
-1
1
0
-2
-9
9
-1
0
0
0
-4
-2
14
-6
-6
-3
-6
1
0
-1
-2
-3
1
-1
-3
0
0
-1
3
2
-1
0
1
0
-1
1
-1
0
1
1
-3
-1
-5
-2
9
6
5
3
2
-2
-9
1
-29
-9
-5
1
0
-2
-7
-3
-6
-8
-2
-2
-2
-2
-9
-5
-2
-6
-8
-2
-1
-3
-1
0
-2
6
3
1
1
-3
2
-2
8
-3
-1
-2
1
-3
4
4
15
8
3
1
0
0
1
-1
-12
-3
0
-1
-1
0
0
-3
-8
2
-3
-3
2
0
0
0
2
0
-1
-2
-6
-3
0
-3
-6
-4
-2
-1
-2
-1
4
-1
22
1
0
-1
-2
0
2
1
-14
-1
0
0
2
-1
3
1
9
7
2
0
4
-1
-2
-6
-13
-9
-4
-3
-2
-1
-1
1
-3
6
-3
-2
0
-1
-1
-2
-11
-6
-5
-1
-3
-1
0
-6
13
-6
-5
0
-7
0
1
5
-2
-2
8
4
7
-2
0
1
4
-8
0
1
0
-1
1
1
15
4
-4
-2
-4
-2
-1
-1
-13
10
2
0
0
0
-6
-5
1
-14
-7
-3
-3
-2
-1
-2
-4
7
0
0
-2
-2
3
-2
-6
3
4
1
0
1
0
1
0
3
-2
-3
1
2
1
0
4
5
-2
-1
0
0
-1
-2
-3
-6
-2
-4
-1
0
1
-2
0
2
2
0
1
-4
-1
10
26
12
1
0
-2
-2
-2
-14
-50
-12
-5
-4
-3
0
0
0
9
-2
0
0
0
3
-1
1
11
1
-2
-1
-3
3
0
-2
-30
-7
7
5
2
-14
-6
-5
29
9
-3
-2
-4
-2
-3
4
17
3
-3
-1
5
1
0
0
-6
3
3
1
2
8
0
5
10
2
1
-1
-9
-14
1
-7
-30
-7
4
2
-7
0
-4
-6
0
-11
-6
-4
-6
-8
-2
3
9
3
1
-2
3
0
0
0
4
-2
-2
-2
4
6
1
6
11
-1
-2
1
4
-1
0
-4
-42
-6
7
3
0
2
-1
-4
2
2
-2
-3
0
-4
-1
-5
-6
2
0
-1
0
5
-1
4
16
5
-1
-1
-1
-3
0
-1
17
-2
-2
1
-1
3
0
1
1
-5
0
0
-3
-3
-3
-11
-33
-6
-5
-2
2
0
-1
-1
10
4
2
2
3
1
-1
2
4
1
-2
0
-3
0
-1
-2
1
2
0
-2
-4
-4
1
1
-9
-2
2
0
2
2
4
6
21
3
-1
1
1
0
-4
-4
6
-5
-7
-5
-3
-4
0
-4
-18
-3
0
0
-3
-2
-2
-5
-4
-9
-3
-2
-1
2
3
4
16
6
2
0
1
1
3
0
8
2
4
3
0
-1
-3
1
-11
-2
-1
0
0
-1
-2
0
2
0
-3
-3
-2
2
-1
-1
1
-8
-5
-4
-1
1
-1
1
-8
-1
-2
-3
0
0
-1
-6
-13
-2
-3
0
0
-1
0
0
21
0
-1
-1
2
-1
-3
-2
-3
0
-2
-2
-3
-1
1
0
-13
-4
0
0
1
-1
2
-2
5
-1
3
2
1
-2
-3
-5
-16
-3
-4
-1
-3
0
-2
2
12
-1
-3
0
-1
0
-1
-6
-6
-3
-4
-2
2
0
-1
-1
-1
-5
2
-1
-3
-1
-2
-1
7
3
2
3
0
0
-1
-3
-22
3
1
0
1
-2
2
2
17
6
2
0
-1
-1
-4
-7
-17
-10
-7
-5
-1
-2
1
0
15
-4
0
0
1
-1
0
0
-6
-1
3
0
-1
-3
2
6
-6
5
0
-1
2
-1
-4
-3
-6
-8
-7
-4
-3
-2
-3
3
33
0
-4
-3
-1
-2
-4
-3
-6
2
2
1
1
-1
0
4
4
4
3
2
-2
-2
-1
-3
-25
-4
-1
-1
-1
-1
1
2
4
0
-1
-2
1
1
-3
-4
-6
-4
-4
-1
-1
2
1
-3
14
1
0
-1
-1
2
2
0
1
4
-1
0
0
0
1
-1
-10
-14
-4
-3
-2
0
1
0
-4
10
3
-1
-1
-2
0
1
23
-4
5
2
-1
0
-2
-5
-46
6
0
1
1
3
-4
3
21
11
-4
-4
-1
-2
-1
-1
-6
-11
1
0
-1
-1
-2
-3
3
2
-3
-2
-2
-2
2
7
13
3
4
3
2
0
3
4
14
5
3
2
3
2
1
1
27
-2
-2
-3
0
-1
-4
-15
-90
-7
-2
-2
-2
-2
-4
7
105
-4
-8
-5
-4
-4
-6
-16
-29
4
-4
-3
-4
-2
-1
-7
20
1
-1
-3
-2
-2
1
3
-5
-10
0
1
0
1
1
4
2
7
-2
-2
0
0
-1
-6
1
0
4
2
-1
0
3
9
-26
0
3
2
1
0
-1
0
15
0
-4
-3
-2
-2
1
1
23
10
3
-1
0
0
-2
1
-49
-19
-6
-5
0
-2
-5
-4
55
-10
-9
-5
-2
1
-2
-20
-108
-24
6
4
3
-2
-3
-5
47
-2
-6
-3
-1
-3
-1
2
49
8
-1
-1
-2
2
5
12
-14
-2
-1
-1
-2
1
-5
-9
-17
4
-5
-4
-4
-2
-3
-13
-53
-23
2
3
1
1
0
-1
-21
-10
-1
0
-1
-3
1
11
-24
3
1
1
-1
-2
-4
-3
66
3
-9
-6
-2
-1
3
3
-9
14
4
1
1
0
-1
-14
-82
-24
-6
-4
-3
-1
-6
0
24
25
5
1
-2
1
0
17
8
13
1
0
-1
0
-4
-10
16
-5
-5
-3
-2
0
7
11
89
13
4
4
3
1
3
8
-75
-36
-3
-2
2
-2
-6
-35
18
27
9
1
0
-1
0
61
-59
-25
-4
-4
-3
-1
2
-26
8
-20
-4
2
2
2
1
-10
68
34
1
0
-2
-1
2
11
22
19
8
5
0
2
0
-19
89
-3
-6
-3
0
-6
2
35
-24
22
0
0
0
0
-10
-11
30
-20
-12
-6
-3
-2
13
-10
-54
3
13
7
6
3
-9
-20
-26
-46
-25
-10
-6
-2
0
42
4
40
11
1
0
-4
0
-9
51
38
12
2
-1
-4
-9
-9
37
-14
-16
-6
-5
-3
-1
-8
-80
-9
9
3
0
-2
13
46
-56
4
4
3
1
3
-13
-52
-20
-23
-10
-5
-4
-4
6
12
-12
-9
1
1
1
0
3
8
25
26
8
4
4
2
-10
-33
-42
-28
-14
-8
-5
-5
9
12
60
26
21
7
3
-1
5
39
87
-1
-8
-4
-2
4
-16
-81
-50
-54
-13
-4
-5
1
-2
-19
16
-36
3
1
-3
0
0
-38
-35
-24
-23
-5
2
3
-5
12
3
-20
8
3
-1
-2
0
-24
76
29
-18
-13
-7
-7
19
81
55
67
30
14
13
5
-4
-64
-40
-36
0
1
-2
1
0
-24
-47
6
-12
-5
-2
2
25
99
-13
-12
25
17
9
8
-15
-28
-52
-17
-14
-10
-8
-12
24
127
60
65
26
12
12
8
-27
-79
-91
-97
-45
-20
-15
-6
3
-23
-29
63
18
4
2
1
-8
-65
29
-16
-14
-3
-4
1
9
24
-108
13
2
-3
-2
-4
-11
-48
108
31
11
4
0
-1
-9
-13
-45
-28
-7
-7
-6
-5
1
-6
62
0
-6
-2
-2
2
-10
-49
-74
-4
10
-2
-4
-9
6
32
15
20
2
4
4
1
5
57
54
-7
-15
-2
0
0
-21
-98
-94
-5
3
-3
-7
-3
0
58
-31
-57
-17
-4
-2
1
10
24
29
23
15
6
5
1
2
42
87
68
23
7
3
-2
-1
3
-15
-11
-27
-10
-6
3
3
15
85
11
2
3
0
3
-4
14
-49
7
-11
-7
-2
-5
2
-64
-5
36
10
3
2
1
-1
65
-21
-25
5
3
2
-3
-20
-67
-16
-51
-25
-12
-9
-3
13
2
43
21
19
4
2
1
2
0
-105
-7
4
3
0
2
-17
-18
44
-17
-21
-11
-7
-10
-5
7
5
-19
-13
-5
0
0
16
59
102
44
25
8
7
4
7
26
47
29
6
4
3
3
3
-5
6
-5
3
0
-1
6
2
-47
38
62
14
7
3
-1
-6
0
-32
-63
-26
-11
-5
-4
-13
7
-4
0
-13
-8
-6
-9
11
39
-28
3
10
3
6
0
9
-13
14
15
0
3
-2
5
-4
41
-5
-15
-4
0
-2
-3
-14
-72
8
-46
-17
-8
-5
-4
-3
-13
15
-10
0
0
-1
-3
-5
-6
-38
-9
-1
-2
-2
-1
19
20
9
31
17
12
8
6
-37
-65
-97
-105
-42
-22
-18
-17
-4
-18
64
49
11
1
-1
0
-4
-8
22
0
1
-1
1
-5
4
29
-3
-3
-2
-1
-2
3
8
-3
49
23
9
1
3
-1
7
-4
3
-2
4
0
2
2
-3
20
48
8
-3
-1
-4
1
-8
-50
-64
8
-4
-5
-5
-6
22
54
-16
-5
19
11
9
6
-6
-56
-9
-13
-6
-7
-5
-6
4
20
-69
7
5
3
-2
1
-11
26
13
26
-2
-5
-4
-3
6
12
-63
-10
8
7
3
5
1
8
12
-5
5
3
2
-1
3
31
2
-7
-5
-3
1
2
-5
-33
20
-1
0
1
-1
-1
4
-3
31
7
3
2
0
1
10
47
-16
12
5
6
2
3
-10
-6
52
-20
-10
-7
-5
-4
0
9
-19
-28
-8
-3
-3
-3
5
-6
34
59
13
5
4
6
-6
3
12
-11
-4
-2
1
-3
-1
14
-33
-33
-3
0
0
-4
-7
-52
44
27
1
-1
-2
-4
10
21
-6
2
14
5
4
2
-11
-13
75
-35
-27
-11
-8
-4
-4
17
58
43
6
0
0
-4
-1
7
-47
-27
-5
-4
-3
1
1
10
70
14
5
5
3
1
6
11
-13
7
10
3
1
2
-6
-41
-51
-17
-3
-6
-3
-7
-2
6
-9
7
-8
-4
-5
-2
-1
9
46
8
-7
-6
-3
-1
2
-28
-57
-21
5
5
2
2
-3
14
-25
-8
0
0
2
-1
-9
10
-5
-27
-19
-9
-6
-5
-13
-32
-37
-20
-9
-6
-6
-4
5
24
6
6
1
1
0
1
3
1
9
12
16
4
1
-3
4
-13
-32
-7
-4
-1
-1
1
0
0
21
-4
-2
-2
0
3
-2
41
20
17
0
-3
-3
-3
-8
-25
-9
-2
-13
-5
-5
0
6
12
-8
25
9
5
4
2
-1
-19
14
-5
-3
0
1
-2
-2
-12
-62
1
0
-1
-2
-2
2
25
14
-39
-10
-5
-1
-1
1
2
29
9
3
-2
-1
0
4
17
-17
11
-6
-1
-4
-2
6
30
-5
1
11
5
4
1
2
6
10
-28
-10
-5
-4
0
0
-9
84
10
9
1
3
2
-7
12
56
-9
-10
-5
-2
-7
4
13
-38
15
1
1
0
2
-6
-37
55
18
-1
-2
-2
-1
7
50
-9
-16
6
5
1
0
-2
-28
-12
18
10
3
1
1
-2
-30
67
24
1
-4
-1
0
4
26
7
0
-2
2
1
2
-9
-10
-5
11
-11
-7
-6
-6
-1
8
-68
-27
-8
-4
-2
-3
0
-10
-56
-8
-2
-1
1
-3
0
-13
-3
6
3
1
-1
2
-2
-16
5
-24
-7
-4
-1
-1
6
21
31
12
3
1
0
2
-15
-59
-16
-52
-16
-11
-9
-5
2
15
-34
13
-3
1
2
2
1
-4
26
8
8
4
3
0
6
6
13
4
-1
-1
0
2
0
13
78
24
4
-1
1
1
1
6
-66
5
2
-1
-2
-2
-5
-14
3
5
3
4
-1
2
-2
20
-38
-6
-10
-7
-4
-5
4
11
84
33
7
3
2
2
-14
-16
-10
-34
-9
-6
-4
-5
6
23
-8
19
5
1
2
3
-2
-18
0
-28
0
1
1
-2
-11
-51
-43
0
-3
-1
-3
-5
8
10
10
23
14
4
2
3
1
20
-65
-40
-12
-3
-2
-1
-12
-27
24
8
-5
-4
-5
-2
10
22
-22
-13
1
2
0
2
5
17
-7
21
6
3
2
4
-6
-21
-6
-18
-3
-3
-2
-5
2
7
2
9
3
0
0
-1
6
27
31
12
0
2
3
1
-2
1
-5
-5
1
-1
-2
-6
4
-12
20
5
0
0
0
1
0
25
-3
11
-2
-1
0
-1
-3
-3
13
-9
-8
-2
0
1
-7
-13
20
-9
-7
-4
0
-2
-4
-15
8
20
4
1
-1
-3
0
-20
35
-6
-2
-3
-3
-1
4
9
-49
5
3
3
-1
1
0
-5
22
11
-1
-4
-1
-3
0
47
23
1
-1
-2
1
-3
-7
-39
-79
-10
-1
2
-1
1
-2
5
49
17
5
2
0
-3
0
-11
41
9
-1
-1
-4
2
-5
-6
23
-53
-16
-6
-3
-4
-1
4
-39
32
1
1
-1
3
-8
1
-25
0
-2
-5
-2
-2
-2
-14
20
-13
-1
0
-3
2
2
-33
-17
15
7
1
0
1
2
28
-8
-22
-7
-3
-1
-1
0
-45
-20
-10
-2
0
1
0
3
1
11
30
9
5
3
0
-12
-38
-41
-34
-9
-6
-4
-7
0
18
25
7
2
0
2
-2
4
12
12
7
8
3
1
5
-12
-27
-108
-47
-15
-5
-4
-7
0
0
19
10
1
2
-1
3
4
13
17
30
9
0
2
-1
-8
-9
55
-8
-4
-5
-3
-2
2
35
3
-20
-3
-2
-1
-3
3
12
-15
12
0
-1
-1
1
0
-30
-6
-13
-2
-1
-1
0
5
40
28
2
0
-1
-1
-4
-6
-16
-21
-11
-2
-1
-2
-1
0
-2
-10
11
0
1
0
-1
-7
-14
32
-21
-7
-4
-3
-5
-1
-27
-97
-5
-4
-1
-1
0
7
17
95
19
-2
-2
1
3
6
17
-51
-2
-2
0
2
1
-2
32
-55
-20
2
3
0
1
-7
-32
-26
-5
-1
-3
-3
0
2
12
8
25
9
4
5
1
-6
-1
-14
-3
-9
-6
-5
-1
7
11
2
6
8
4
3
3
-5
1
10
0
-8
-4
-3
-4
-2
12
-15
-7
-4
-4
-1
-3
-8
-36
41
-3
-2
0
-1
-2
-2
-56
-95
-24
5
-1
-2
-5
-5
28
55
7
-5
-3
-3
0
3
-15
20
18
4
0
0
1
6
2
-2
-10
-5
-3
-3
-1
-11
-24
94
-17
-17
-8
-6
-3
5
2
4
4
3
1
3
-1
1
-1
-9
-14
-1
-2
1
-1
2
-12
-2
32
13
5
3
2
1
10
21
10
1
2
0
1
1
18
19
-1
-2
-2
0
2
0
-12
15
11
1
0
0
0
-6
-11
-85
-23
-3
-3
-1
-3
1
25
33
26
3
-3
1
0
-4
-24
-14
-11
-8
-3
-1
1
-2
24
10
-5
-9
-5
-4
-2
-3
23
25
6
2
1
1
-2
-7
-45
31
9
5
-2
-2
-6
6
17
-22
9
6
3
2
0
-3
-15
-21
-27
-6
-2
-3
-2
-5
2
-3
-12
-11
-4
-1
0
0
13
7
-6
4
3
0
1
0
11
33
1
0
0
0
-2
2
32
-2
25
9
2
1
2
-8
-47
16
-13
-5
-5
-3
-4
4
-5
-16
-17
-2
1
0
2
4
9
12
16
10
4
0
2
-7
-20
9
-2
-12
-5
-4
-2
1
57
-29
10
10
3
-1
-2
-1
7
-4
-35
-15
-7
-3
-1
1
-22
-16
-10
0
1
-4
-3
-4
-7
-44
-21
-5
-2
-2
-3
4
-1
18
11
-1
2
0
3
-6
-10
-21
13
3
-2
-2
-1
-1
19
-7
-10
-8
-2
-1
-2
-5
-7
6
0
-1
2
1
-1
11
13
41
24
13
5
4
2
-5
-8
24
-2
-13
-8
-3
-6
-1
43
15
-21
-10
-3
-2
-2
-4
-55
-55
-15
3
-1
-3
-3
-6
-38
-32
-3
-2
-3
-4
0
0
6
45
20
-2
2
0
0
-2
1
-1
6
2
0
0
-1
1
-4
22
7
0
1
1
-1
4
16
26
-3
-2
-1
-1
-2
0
17
2
6
-2
-2
-1
-1
-2
-30
-65
-23
-5
-3
-5
-1
8
39
31
5
5
5
3
3
-4
-46
-41
22
6
1
0
-2
3
26
74
28
3
4
2
2
-5
8
8
5
-6
-4
-2
1
5
15
41
4
-6
-4
-2
1
-3
-2
-26
2
1
-1
0
-1
2
7
-42
-5
1
0
1
-2
-3
-28
-37
-4
6
2
0
-4
-5
-22
-34
-28
-5
-3
-3
-3
-2
21
42
7
-3
0
-1
-1
4
-14
-81
-6
9
3
3
0
-1
-7
28
-12
-3
-1
0
3
-2
-8
-70
2
0
0
-3
3
0
14
50
8
-3
-3
0
0
-2
5
-14
8
-2
-1
-2
0
-1
6
-23
-5
4
1
-2
-1
-1
-10
41
14
-1
-1
-1
-1
2
2
-40
3
4
0
1
1
-3
-2
30
1
-3
-1
-1
1
0
-30
15
16
4
1
1
0
0
9
40
-12
-4
-3
-1
-2
-5
-1
-34
-34
-9
-2
-3
-3
-12
-55
-104
-40
-9
-8
-5
-5
-2
-15
25
13
-6
-3
-1
1
-2
2
18
9
7
2
1
0
1
2
-25
-31
-10
-5
-2
-1
0
-1
16
11
2
0
-2
0
-3
11
-14
-22
-10
-1
2
0
-3
-5
-16
1
-4
-3
-1
-2
3
14
72
10
4
1
2
0
-3
13
27
-2
-4
-6
-5
-3
-2
-2
-56
-25
-2
-2
-4
-3
6
31
65
28
7
2
1
1
-10
-33
-50
-64
-22
-7
-5
-4
5
8
1
20
12
5
3
4
-1
-2
34
30
1
-1
0
-2
-1
7
-21
-1
1
0
1
2
0
6
8
14
2
-3
-1
-1
-1
0
6
-6
-3
2
2
0
0
5
-9
-16
-2
0
-1
-1
-3
-35
-91
-32
-7
-5
-5
-5
0
-13
-24
21
0
-2
-3
1
1
12
-3
-1
-2
-1
-3
-2
-1
-4
13
2
1
-2
0
2
1
5
-16
-9
-1
1
0
0
-1
2
6
1
3
4
3
-1
-1
5
17
4
-4
-1
-2
2
1
-5
6
8
1
-1
-1
0
1
5
20
-10
-3
-2
1
0
-2
-3
-5
-16
-5
-5
-3
-1
-1
9
-14
0
-2
-2
-2
-2
2
5
26
2
-1
1
2
1
-3
-10
-10
-11
-2
-2
-1
-4
4
8
36
18
6
2
0
1
-3
-2
20
-15
-8
-2
-2
0
-3
-8
5
-9
-3
-3
-3
-4
-4
1
11
3
-1
0
-2
-1
3
2
-1
4
5
3
1
-2
-2
-7
-52
-4
1
-1
0
0
-1
2
24
9
0
0
-3
1
1
5
12
7
1
1
0
2
2
6
22
9
1
0
3
-1
0
6
8
0
-3
-3
0
0
-2
0
-13
-6
-3
-1
0
-3
0
2
-3
4
0
1
-1
-1
-1
2
-1
2
-1
-2
-2
-1
0
0
4
4
2
0
0
-1
2
7
22
8
0
0
-1
-1
-5
-2
0
-14
-10
-5
-6
-2
0
2
16
2
-7
-4
-3
-3
3
3
9
4
5
5
3
-1
3
-1
-25
11
11
6
2
1
-2
5
17
-2
-4
-4
-3
-3
0
1
23
-4
-2
-2
0
-2
-1
-2
31
0
-5
-1
-1
0
-3
-6
-4
5
-1
-5
-3
-2
-2
0
-12
-1
-2
-2
0
0
1
-3
-12
-1
4
-1
0
1
1
5
12
0
1
-1
2
0
-1
0
19
-7
-1
-1
-1
0
0
5
-1
0
-1
-2
-1
0
-2
-5
-7
2
-2
-2
-3
-1
0
-1
-35
0
0
0
-2
-4
-3
-3
-7
-11
-3
-2
-1
-2
-3
-2
-10
2
3
1
1
1
2
3
5
6
4
3
2
0
-1
1
15
2
-5
-6
-2
-3
-1
-6
12
-12
-7
-3
-2
-1
0
-4
0
9
4
1
-2
-2
-1
-3
-13
-6
-3
-1
2
-2
-2
0
4
-5
0
-2
-2
0
-3
-3
-1
3
-2
0
0
0
0
1
13
8
2
2
0
3
-2
1
-7
-1
-2
-1
-3
-1
-1
0
-2
-1
-2
-1
-2
-2
2
0
-1
-1
-2
0
-2
0
-1
0
-1
2
2
2
3
-2
-5
-3
-12
-6
-2
0
0
-1
-3
-4
-19
2
-1
1
-4
-1
2
2
-10
-2
3
1
1
-1
5
1
1
-5
2
0
-1
3
-4
-9
4
-1
-9
-5
-2
-4
-2
1
4
3
3
1
0
0
-2
1
-2
2
2
-1
0
-1
0
-1
-5
-3
0
-1
0
-1
0
2
-2
1
-3
-2
-1
-2
1
-1
0
-1
-3
-1
1
0
-2
-2
-1
-1
1
2
1
-1
-3
-4
6
0
-2
0
0
-4
1
-1
4
4
4
-1
3
2
-2
-3
3
-6
-5
-3
-6
-2
2
0
4
4
-2
-1
0
0
-3
-3
-6
1
-3
0
0
-4
-2
-2
8
2
-1
-2
-2
0
-1
-2
1
0
1
-1
0
0
-1
-1
-5
-6
-3
-2
-3
-1
2
0
1
-3
0
-3
-6
2
-2
2
6
12
3
-2
2
0
-3
-1
8
-5
-6
-3
-2
5
-2
0
-4
-2
-1
-2
-3
-4
5
-3
-10
-1
-1
0
-2
0
4
2
-5
-8
4
1
1
0
1
0
9
1
1
0
-3
1
-3
-1
-4
2
-4
-4
0
-1
-3
-1
-5
0
-6
-4
-3
0
-2
2
3
-4
-1
0
-1
0
1
1
-7
4
5
5
2
-5
-4
-14
-21
-8
-4
-3
-3
-1
-2
1
7
0
1
-2
-1
-1
-1
-1
-1
4
-4
0
0
-1
0
-3
-10
-13
-5
-4
5
-2
1
4
14
7
-4
-5
-8
-2
-3
-2
-5
1
3
4
3
1
0
-1
2
3
2
-3
-5
-2
0
0
-5
-3
0
2
-5
-1
1
1
-8
-2
2
1
0
1
-3
-2
8
-3
-6
-4
-3
-2
-1
-3
-5
-3
-4
-1
-4
1
5
5
-11
8
8
2
5
1
-3
-3
-21
-5
-2
-3
0
-1
-5
4
46
2
-5
0
-3
-2
-1
-8
-31
-7
-2
-1
0
-2
0
1
20
-1
-4
-5
-1
-2
3
5
2
5
3
3
3
2
0
2
-16
0
4
0
3
0
0
0
10
1
1
2
-1
-1
-3
-2
-6
-5
-2
-1
-2
-2
-1
2
4
-1
0
-1
0
-2
-1
-4
-8
1
1
-2
0
0
1
2
4
2
-2
0
-1
0
-1
-4
-12
-3
-3
-1
-2
1
-1
1
12
-4
-3
-2
1
0
-2
-4
-11
-3
-6
-4
-3
-1
3
2
3
3
2
1
0
-2
-2
-4
2
1
-2
-3
0
-2
-1
0
24
1
1
-1
1
1
-5
-2
-49
-5
-6
-4
-3
-4
-3
-9
-1
-8
4
1
0
0
0
0
15
-1
1
0
2
0
1
0
2
8
2
2
2
1
-3
-5
2
-6
-5
-3
0
0
0
5
5
-1
-5
-3
0
-2
0
-1
-7
1
1
2
-1
1
1
2
-1
-1
-1
0
-1
-2
3
2
-1
4
3
1
2
0
-2
-2
-6
-1
-1
-2
-1
-2
-1
1
7
-5
-1
-1
-1
-3
1
-2
-4
0
1
1
-1
-2
1
0
1
8
5
3
1
1
-3
-5
-4
0
-6
-3
-2
0
-1
-2
-5
-2
-6
-4
-1
-2
-2
-1
2
-4
2
1
0
0
-1
-3
-10
-3
-3
-1
-1
0
-1
1
11
2
0
0
0
-2
-2
-3
3
2
-1
1
-1
0
2
2
-5
-2
4
0
3
-3
-3
-8
-20
-6
-2
-2
-3
-3
0
5
3
-2
-3
-2
-1
0
-5
-5
-1
-3
-4
-4
-4
-2
-2
-1
24
-4
-4
-3
-3
0
-2
-3
3
-5
-1
0
-1
-1
-2
0
7
5
2
1
-1
-1
-1
1
-9
-6
3
2
2
-1
-2
-1
-10
2
-1
-1
-1
-2
3
6
-2
6
1
0
1
2
-3
-8
4
-7
-8
-5
-3
-3
0
-1
-2
-10
0
0
2
-1
-3
-7
-16
-3
-5
-4
-1
-1
-1
4
12
2
-2
1
2
-1
0
3
-2
6
2
-1
-1
1
1
1
-1
5
4
2
-1
0
-4
-3
11
-5
-4
-2
-2
-1
1
0
-3
2
2
1
0
0
-1
-3
20
-2
-2
0
-2
-1
-1
-2
-33
-5
-5
-3
-3
1
-1
1
17
5
-4
-3
-3
0
-1
0
19
-2
1
0
0
-2
-2
-1
-18
5
2
1
-2
0
-2
-2
-22
-1
1
-2
0
1
0
8
6
-4
-2
0
0
-3
-3
-4
-2
-5
-5
-4
-2
-1
-2
-4
-24
-3
-1
-2
-2
-2
0
2
14
4
-1
-2
0
0
-1
-6
-26
-10
5
4
0
1
1
1
36
-5
4
0
1
-1
-1
-2
-14
6
-1
0
0
-2
-1
-6
16
-4
-7
-5
-2
0
-2
-1
-40
-1
-5
-1
-1
0
1
-2
39
3
0
1
0
-1
-4
-4
-32
-7
-4
-5
-2
-2
0
7
18
13
5
1
3
0
-1
-6
-14
-13
-5
-2
-1
-3
4
3
-6
3
4
2
0
0
-6
-5
15
-12
-8
-7
-2
-3
-1
-1
-48
6
-1
-1
-3
-1
2
2
26
-1
3
1
0
0
-3
1
54
8
-5
-2
-2
-1
0
-5
-31
-15
-2
-3
0
2
-6
-9
33
-4
-7
-2
-3
-3
-3
-8
26
10
5
0
0
1
-1
5
5
10
2
1
0
-1
5
5
-43
-3
7
4
2
0
-2
-2
-24
-11
-6
-4
-1
-1
3
7
53
33
3
0
1
2
1
1
-40
-8
-2
-1
-1
0
-4
-7
20
2
-4
-2
-4
-2
-1
-10
-46
7
9
2
2
-2
0
10
-29
-25
-8
-4
-3
2
-1
8
55
12
-5
-3
-1
-1
7
15
-20
15
4
4
2
0
-4
-17
46
5
0
-1
-1
-3
0
6
-9
6
6
2
1
-2
-2
-4
-55
-8
-4
-4
-1
1
5
12
21
-15
3
6
2
1
-3
8
3
17
-3
1
0
-1
1
-3
70
27
12
2
1
2
-6
-17
-73
-11
-10
-7
-3
-4
-6
9
72
5
-11
-8
-3
-4
12
39
18
6
11
8
6
2
-10
-22
10
-1
-12
-9
-8
-6
-9
-14
-24
-32
-4
0
-2
-3
5
20
5
8
2
0
2
3
-8
-35
72
16
-4
-2
-4
-4
6
41
32
25
4
1
2
2
6
0
-31
-8
6
0
-1
1
0
17
28
21
-1
2
0
-2
-4
-44
-99
-68
-3
-2
-2
-2
-5
-7
-88
-26
-11
-6
-3
1
-8
-23
4
34
-10
-6
-4
-3
-1
-19
-5
1
3
5
2
1
-4
39
39
40
4
0
-1
1
16
80
-57
-80
-3
4
5
-2
-10
-34
56
-5
-16
-7
-5
-1
-5
18
1
-1
0
-3
-3
-2
2
-61
-31
-15
-8
-1
-2
-3
-13
-36
-56
1
3
1
-1
3
-1
-39
-11
26
22
5
5
-3
1
-11
-59
-74
-13
-4
-2
0
9
29
53
-2
4
5
3
3
-14
-69
-87
18
-18
-11
-8
-5
21
72
58
7
-5
4
3
0
-20
-72
13
30
-3
-5
-4
-3
9
50
-86
-53
11
6
3
0
-1
16
24
17
-8
-5
-4
1
-2
-33
7
-6
-8
-3
-2
0
14
42
19
15
27
13
7
2
-7
-6
-49
-54
-20
-8
-3
-5
1
16
115
58
27
6
5
-1
0
69
38
-11
-9
-6
-2
-5
-8
18
59
4
-11
-6
-6
0
1
-59
-53
-1
-2
-1
2
2
-15
-69
-25
-38
-9
-4
-8
-5
-3
-17
-82
-50
-14
-3
-1
-1
24
69
62
53
28
9
9
1
-20
-44
33
3
-15
-12
-8
-8
-3
4
-7
-16
-15
-3
-3
1
5
-4
0
4
12
4
0
4
8
45
7
38
-2
-2
-2
-3
-9
-60
23
-51
0
-1
-3
1
-8
50
57
-34
-39
-18
-8
-8
-10
-28
-68
-11
4
0
-3
1
3
-21
1
-6
6
2
1
1
10
59
73
112
21
4
3
1
-2
-30
-36
-81
-18
-2
-2
-3
3
10
-74
0
23
10
4
3
-7
-23
-34
-21
-21
-10
-4
-6
1
-23
50
26
5
3
2
-1
0
-43
34
14
6
0
-3
-2
5
-5
-14
21
-3
-2
-1
3
3
-31
28
-11
9
6
2
2
10
24
78
22
13
2
4
3
-17
-33
-33
-69
-23
-9
-6
-7
-3
-10
-4
-27
-9
-4
-2
-2
0
21
-22
9
-3
-3
1
3
-4
9
-40
-16
-20
-11
-7
-4
15
12
-15
21
21
11
7
3
13
22
37
5
17
8
4
-1
-30
-19
28
-16
-36
-16
-12
-8
0
22
-9
28
6
1
0
3
11
28
84
55
16
5
4
1
-24
-73
-33
-44
-13
-6
-5
-6
3
3
21
29
7
3
-2
1
-1
10
4
-19
-13
-6
-3
-1
0
9
79
60
14
2
1
3
-3
-14
-22
7
-1
-1
0
-3
-3
-18
-77
-30
-8
-3
-1
-2
2
17
-56
-19
-7
-1
-2
1
14
34
3
31
24
10
6
5
-10
18
-6
-2
-14
-9
-6
-8
3
-21
-35
-17
10
3
2
1
-5
12
35
-5
3
2
0
-2
1
-15
-57
32
13
5
1
3
12
81
82
45
5
3
4
6
-14
-14
104
-1
-15
-10
-4
-5
-2
23
-20
-4
-2
-1
-1
-2
4
19
53
10
2
0
2
1
-2
11
-27
-12
-5
-1
-1
-1
-1
-57
-27
-8
-5
-2
0
-3
-7
-14
-64
-47
-15
-5
-3
-2
-10
-13
-32
-21
-12
-4
-5
0
10
56
45
18
0
1
3
4
5
-12
-21
-10
2
3
1
-1
-7
7
35
13
-2
-2
-4
-4
1
-26
-16
6
-1
1
1
1
6
-7
39
-9
0
2
0
3
-4
9
-7
13
6
-1
-2
-5
0
-36
-27
-42
-10
-4
-2
-2
-6
-1
20
11
2
2
3
0
-2
-5
14
10
2
0
-3
-2
-3
8
-35
-25
-6
-4
-3
-2
2
-12
15
9
2
1
-3
0
-2
-1
-89
-18
-5
-4
-3
-2
-1
-13
41
8
10
2
1
-3
3
28
-46
0
0
-1
-1
5
-18
-76
-3
-32
-8
-5
-4
0
4
49
37
2
2
-2
0
-5
5
5
40
25
-2
-1
0
-1
1
45
-91
-40
-1
-1
0
-2
-1
-10
79
66
17
6
5
3
0
-9
-21
-4
0
-2
-2
1
-13
-27
0
-8
-5
-4
-4
-3
6
-22
-6
19
7
3
2
5
19
101
27
41
12
8
6
2
-12
-74
-24
-50
-22
-12
-7
-8
-4
-8
-59
7
-1
-4
-4
-4
7
3
35
-26
-1
2
2
4
-3
23
22
29
-2
-3
-4
0
-1
-24
97
-18
-1
2
0
-2
-1
20
-2
-15
-5
-3
0
-1
1
-20
83
32
11
4
2
-1
-1
12
-37
-73
-18
-9
-6
-5
4
48
9
42
9
4
4
2
-8
-28
-39
14
5
2
-1
5
-5
7
52
7
-6
-2
-3
-3
3
-49
-40
3
3
-1
2
-2
5
12
-68
-24
1
-2
-1
2
-1
9
-10
-1
1
-2
-3
-3
-10
-15
-50
2
-8
-3
-2
-2
2
-1
-1
9
2
1
1
1
1
12
-17
-9
2
-1
1
-3
11
17
7
26
11
6
6
2
-11
-43
19
-4
-8
-5
-6
-3
0
-4
-14
3
1
1
-1
-1
-3
-13
66
13
5
3
-1
1
-3
14
-23
-26
-14
-6
-6
1
3
-6
11
16
6
3
1
1
-3
26
76
29
1
-3
-2
-3
-2
-38
-46
-36
-9
-3
-3
1
4
26
55
13
7
5
4
-2
1
-16
41
1
7
2
2
-2
-3
4
-23
4
-3
-5
-3
-2
5
27
-40
2
3
1
2
1
-3
-40
36
-9
-4
-4
-2
-4
5
11
22
17
-1
-1
0
0
0
-11
21
-18
-3
-1
1
0
-6
14
7
5
-2
0
-2
-4
7
23
11
-6
3
1
0
1
0
-31
-25
1
-1
0
0
-2
-1
-2
-16
-16
-3
-2
-1
-2
2
14
47
22
-1
-1
-1
1
-3
-13
33
17
4
1
1
-1
-9
-16
-6
-44
-11
-6
-5
-5
1
17
-20
17
-5
-3
-4
0
3
9
60
24
4
1
1
0
-14
-27
1
-35
-14
-7
-5
-7
8
17
13
1
9
5
4
0
-9
-36
56
2
1
0
-2
0
1
2
-27
-5
-8
-5
0
-3
2
0
-20
11
2
-1
-3
1
-2
-12
-61
-6
-2
-1
1
1
5
28
41
15
6
-1
1
-1
1
-19
-36
-36
-5
-3
-3
0
-2
-13
-32
-1
-8
-5
-4
-2
-2
13
-12
7
0
-2
-2
0
15
34
29
7
14
9
8
6
-16
-31
-89
-46
-13
-7
-8
-8
-3
-4
64
23
-8
-5
-3
-2
1
15
53
27
7
1
1
1
-2
-17
-36
-9
-3
-1
-1
-1
2
7
40
-2
7
3
2
2
-5
-49
-63
1
-1
0
-1
-1
1
7
4
7
3
-3
-3
-2
-4
43
41
-23
-9
-4
-3
-4
-6
-56
52
33
3
1
1
-3
3
14
30
-8
-4
-2
1
-1
6
40
55
8
-2
-2
0
3
-5
-28
-114
-31
-4
-2
-2
-3
3
43
32
33
5
3
-1
3
14
15
76
39
26
13
10
6
-22
-41
-64
-57
-30
-14
-13
-8
3
26
63
30
-1
-1
1
2
5
3
-34
-4
0
-1
2
1
-5
14
-29
-4
6
2
1
0
5
30
-19
15
10
4
4
-1
-3
-26
-55
-26
-3
0
-2
-1
2
46
49
51
3
2
1
-1
-2
-5
-70
-25
-13
-7
-7
-3
0
-7
14
10
4
-1
0
-1
-3
-24
-26
-21
-5
-4
-2
-3
5
6
-62
-12
0
-1
0
1
1
12
-45
-16
4
1
2
3
8
15
69
16
10
5
6
1
-17
-33
5
-54
-32
-20
-11
-9
-2
-24
19
-19
-4
-3
0
-3
1
11
-5
5
0
-1
-1
-2
0
19
23
-6
-4
-2
-2
-1
10
25
-25
26
15
9
5
1
-5
-17
24
-4
-10
-6
-6
0
-13
-44
-33
-18
-15
-7
-6
-3
-2
17
-5
-18
-3
2
-1
-1
-6
-66
-33
11
6
4
1
0
0
19
-18
-4
5
2
1
1
3
-2
2
3
1
1
0
0
-1
-24
-65
2
0
0
-1
1
-5
0
10
-27
-1
-3
0
-2
-3
-3
-24
8
-3
-1
-4
0
2
5
96
-1
8
5
3
1
-6
-56
-75
-11
-4
-2
0
1
-1
-14
66
30
3
2
-2
0
1
1
-6
-7
-2
1
0
1
-5
-6
33
1
-11
-5
-3
-5
-3
-36
8
-7
-4
-2
-3
-1
10
33
46
22
8
2
2
3
0
1
-47
-11
-6
-2
-2
-2
3
-8
25
24
9
4
0
-3
-4
15
-49
-42
-13
-4
-3
-2
4
-11
-10
49
13
6
1
2
-10
-1
-15
-21
-8
-4
-1
-2
1
-16
-9
-24
-7
-5
-1
-1
-2
-13
-13
11
0
-3
-1
-5
1
8
-4
-13
-3
-2
1
-2
2
-6
26
-7
0
-2
-3
-1
-1
4
-26
7
1
-3
-1
1
5
21
-3
-1
4
4
3
1
-8
-12
-55
-3
-5
-4
-4
-1
2
12
-63
-14
-1
2
1
-1
5
29
-1
-2
-5
-2
-1
1
1
21
-34
-41
-11
-6
-4
-1
4
15
56
2
-4
-3
-3
1
-4
-9
67
1
-3
-4
-3
-1
4
-2
-34
3
7
4
1
4
-1
4
5
12
-1
0
-2
0
5
14
20
-2
1
4
2
-4
-7
-35
-18
-4
-3
-4
-3
-4
-1
7
38
0
-4
-1
-1
-4
-4
7
-3
16
8
0
1
-2
1
38
33
10
1
2
0
2
-7
0
-43
0
-8
-6
-5
-4
0
28
27
-4
-2
-3
-3
-2
-3
-13
35
-9
-3
-3
0
2
-1
-8
-11
-4
4
2
1
0
5
0
1
4
10
6
2
0
-2
2
-3
10
-9
-2
-1
-4
-7
2
59
-1
-11
-6
-5
-5
0
-2
9
6
4
-1
1
1
13
65
-1
35
10
2
3
2
-5
-18
-69
-31
-1
-1
0
0
-15
1
-4
-25
-16
-6
-6
-1
-7
-32
-20
-3
-8
-1
-2
-2
4
15
47
3
-2
0
1
-1
1
-10
-41
12
7
0
0
-1
9
0
-10
11
9
6
5
0
-4
13
4
-9
-1
-1
2
-1
-5
-21
34
-8
-4
-2
-1
0
-2
-11
-41
-27
-7
-3
-4
-3
0
-15
27
14
-2
-3
-4
0
4
-8
-16
9
2
2
-1
-2
0
12
30
29
8
4
4
2
0
-10
-54
-34
-13
-3
-1
1
-3
-13
-10
20
4
0
-3
0
3
30
17
14
4
2
1
1
-3
-3
2
-21
-7
-2
-2
-2
0
1
-12
13
6
0
1
0
-2
-8
24
18
9
1
2
0
3
-26
-66
19
4
0
1
1
-8
-18
48
-33
-16
-8
-7
-5
2
19
91
17
4
2
2
1
0
-13
-28
13
-1
-1
0
2
7
-5
12
14
8
2
1
1
-9
-46
24
17
8
0
-2
-2
-3
9
117
-24
-5
-3
-1
0
-3
15
22
-17
-2
-1
0
-2
-5
-12
-19
-3
-6
-4
-2
0
6
19
-44
-11
0
2
3
-2
-1
11
-39
24
5
1
-3
0
-1
1
11
12
2
2
0
-2
-4
17
4
-18
-7
-4
-4
-4
-3
-20
-5
15
2
1
1
0
0
-15
-68
-25
-2
1
0
-3
7
25
72
10
-2
-1
0
0
-9
-8
-47
-6
-12
-8
-8
-3
1
9
65
4
2
1
1
3
-10
-60
-16
-4
-2
-3
-3
-4
0
-7
6
2
2
1
1
0
5
15
51
-30
-4
0
-2
0
4
-21
-43
20
8
3
2
5
-2
30
21
-17
-14
-8
-4
-5
-7
-42
-49
-3
4
2
0
0
1
-10
-22
-15
-1
0
2
-4
-1
8
-45
7
1
1
-3
0
4
3
-15
11
4
3
2
3
2
12
-29
-10
-4
-4
-3
-1
0
11
21
6
3
2
1
0
1
10
44
13
7
1
2
-1
-6
15
-8
-11
-12
-5
-4
-6
2
-2
4
14
4
1
-2
2
0
14
13
-3
6
3
3
2
-2
0
53
-13
-5
-1
-2
0
1
-3
49
17
5
2
1
0
3
18
54
24
4
1
2
-3
-2
-2
29
9
0
0
-2
-1
-5
-15
-50
-21
-9
-5
-2
-2
-1
-8
-29
7
1
-3
-2
-2
2
9
16
2
2
1
-1
-2
-9
-22
-85
-40
-10
-2
-1
-4
0
6
43
13
-3
-4
-2
-2
0
-8
-55
-22
-3
-1
-1
1
-3
-2
-11
-8
-3
-1
-2
0
-1
8
25
11
0
-1
-1
0
4
5
-25
-14
-4
-1
1
0
1
4
57
22
7
3
0
0
3
17
-18
-5
-3
-4
-4
-1
-4
-15
-39
-14
-5
-3
-1
-1
-4
-2
-5
-4
-1
-1
-1
-1
1
-1
20
14
6
1
1
2
2
4
24
15
5
2
4
0
-2
1
23
-10
-6
-3
-3
-2
-3
-10
-37
-7
-7
-6
-6
-3
-3
-2
13
11
1
-1
0
1
0
-1
-22
-10
-2
-2
-1
0
1
5
18
8
1
-1
1
1
3
1
-8
-8
1
1
0
-2
0
1
-17
-6
-1
-2
4
0
-4
-14
17
-4
-5
-5
-7
-3
-2
5
15
3
1
0
0
0
1
1
-10
-2
-1
0
2
-1
-2
-4
-9
-3
-4
-2
-1
-2
-1
0
-14
-9
-4
-4
-2
-1
-1
1
-1
3
1
-1
-2
0
-2
1
15
-2
3
5
-1
-2
2
4
23
20
9
4
2
1
-1
-19
-73
-43
-6
0
0
-2
-5
0
9
12
-8
-5
-7
0
-1
-2
4
8
-2
-4
4
0
-3
-7
5
-6
-5
-5
-8
-1
3
7
1
1
9
5
6
0
-2
-10
-43
-19
0
-10
-4
-2
2
1
-9
7
-2
-12
-21
7
-4
-3
2
-1
5
26
27
-7
1
4
27
5
-1
4
2
1
-2
4
-46
-6
-2
7
6
-2
-3
-3
31
-2
-4
-5
-1
0
-2
-4
9
0
-6
-13
-15
-3
-3
-2
-19
-7
-3
-2
0
1
4
4
24
14
4
0
3
3
0
2
-2
-3
3
2
-1
5
-4
-6
-23
-6
-3
-2
-8
-10
-3
-6
9
4
-6
-2
1
-4
3
5
14
-1
2
-2
-4
1
-1
-2
-11
8
-1
2
5
-3
4
5
8
-11
-3
0
0
3
-1
4
12
10
1
-3
4
-1
-3
-5
-43
-15
-4
-3
-8
-3
-2
-1
8
7
2
7
4
-2
-1
0
-12
-2
-2
-2
-7
3
-1
1
-11
-10
-1
-2
-2
1
1
-1
31
11
3
3
3
0
0
2
-3
-7
-2
-2
5
-3
-1
-3
-18
-5
-3
-5
-7
2
0
-1
0
-2
2
-1
4
0
-1
-2
21
9
0
2
-4
-2
0
1
-16
-6
-3
-3
-4
-5
0
1
8
1
-2
-3
4
1
-2
-1
6
7
1
0
-4
1
-1
1
18
-8
-7
-5
1
-5
1
0
-10
-3
-2
-7
-3
0
-4
-1
11
3
3
6
-11
6
0
2
4
3
3
5
8
-9
-3
3
1
4
0
4
5
-1
-2
-12
-19
-10
-1
-2
-4
-1
-2
-3
12
-2
-4
-6
7
1
0
3
-26
10
2
-1
-13
2
-5
-10
20
-5
-3
4
3
2
-5
1
-14
-6
-1
1
6
-3
1
1
-1
2
2
1
-3
-3
-1
-3
5
-6
-4
-5
-6
-1
1
-1
0
1
1
-4
-2
-1
2
2
-2
1
-1
-2
-1
2
0
-4
-1
0
-2
-6
-4
-2
-1
-4
-4
-10
-3
0
1
-3
-2
0
-6
6
1
2
-2
2
-1
1
4
2
2
4
8
-2
-2
2
-3
2
-3
-3
-7
-2
-2
-1
-7
-3
-4
-3
1
-1
-2
-1
-3
-2
0
-1
-5
-1
-1
0
-2
-1
0
1
-7
-2
3
0
7
3
2
1
3
-3
1
-2
15
-4
-7
-9
-10
0
-3
-6
-22
-3
-4
-2
8
-1
-2
0
-10
-12
-4
2
-9
0
0
1
6
3
5
0
3
0
-3
4
18
4
3
2
3
0
-2
-8
-1
-12
-4
-7
-5
-3
2
5
5
5
0
2
6
0
-3
-8
-25
6
0
-3
5
1
-4
3
17
6
-4
-5
-7
-1
4
5
0
4
1
0
-4
-2
-2
1
-17
-3
2
2
1
-2
1
-4
18
-10
-5
-2
0
-1
2
3
-18
1
0
-3
-4
0
-1
-10
-2
-1
-3
0
2
1
-7
-4
12
2
1
-2
-6
-2
0
13
-1
4
-1
1
3
0
1
-6
-9
-5
-2
-13
-13
-2
-2
1
4
5
2
18
4
0
10
2
1
-1
0
1
-1
0
-11
-7
-17
-6
-2
6
7
-1
-2
5
44
7
3
0
7
-1
-7
-29
-55
-18
-8
-15
-10
-3
-2
-4
5
-1
-5
-5
-4
-2
2
0
-1
3
-1
-1
-2
-4
0
1
8
-4
0
5
1
-1
0
7
23
4
4
1
0
-2
-4
-5
-16
0
0
0
3
0
1
-2
-40
-17
-3
-7
-3
-2
-5
-11
-4
0
-4
2
-1
1
2
12
14
8
0
-1
-4
0
-2
0
12
-1
-2
-3
-3
1
0
6
11
2
2
1
2
0
1
-1
-28
-5
-1
3
5
2
0
4
7
5
2
-2
-1
-1
2
4
23
3
-1
-4
0
-3
-1
-5
-5
-3
-1
-2
-7
-1
1
-3
-17
-4
-3
1
1
-2
-1
3
10
4
3
-2
1
1
-1
-4
-8
3
2
1
1
0
0
-3
1
0
-2
-2
-7
0
-3
-5
-17
-6
-4
0
6
-2
1
9
23
3
-4
-2
-7
1
1
4
16
3
4
1
4
-1
-4
-12
-32
-12
-8
-3
-5
-2
-3
-3
-29
-5
1
-1
-3
1
-3
-3
9
3
-2
-5
-1
-1
0
3
9
2
-2
-3
1
-2
0
-2
12
-6
-5
-4
0
-2
4
0
-10
-2
2
3
0
0
-3
-4
5
-11
-6
-6
-2
-3
-3
-2
-27
10
-1
-1
0
1
1
3
11
3
4
1
-1
-2
-4
-7
4
-6
-5
0
-5
-3
1
1
-5
-7
-2
2
2
-1
2
0
11
1
2
-1
0
-1
0
5
12
8
1
4
10
1
0
4
6
-5
-1
3
-7
0
-1
-5
-10
-3
0
1
1
-1
-4
-3
-15
-7
-6
-2
-1
-2
1
-1
10
1
0
1
1
0
2
5
11
4
3
1
3
1
1
1
1
2
0
0
0
-1
-3
-13
-31
-11
-3
-1
-6
-1
-4
-1
-5
1
-4
-2
-1
2
-1
0
-7
-1
3
-1
1
-3
-2
0
8
6
-3
-3
-4
0
2
4
18
2
5
6
3
0
0
-1
-6
-6
0
-1
-1
-2
-3
1
11
2
-4
-3
0
-1
0
2
23
5
0
0
0
-1
-2
0
-30
-10
-4
-3
-3
0
0
-1
4
-2
-1
-2
-1
-1
3
5
13
7
4
3
3
0
-5
-11
-70
-8
-5
-4
-4
-2
-2
5
7
4
-3
-1
-2
0
2
1
31
4
3
0
-2
1
-3
-3
-38
-7
-5
-2
-1
-1
0
4
19
3
3
2
2
0
1
-4
-29
-9
-2
2
1
0
1
-1
0
3
0
-2
-3
-1
1
1
22
4
1
-1
1
-1
6
12
20
3
3
0
-1
0
-16
-28
14
-28
-19
-10
-9
-6
-2
4
48
5
0
-2
-3
-2
0
-1
-27
-10
1
2
-1
1
2
9
12
10
4
2
2
0
10
16
41
18
10
5
6
-1
-4
-18
-109
-15
-6
-5
-3
0
-7
-8
44
-4
-22
-13
-8
-4
-3
-10
-3
4
14
9
3
2
0
3
-45
-7
6
0
-2
1
1
26
64
18
-1
1
2
0
-7
-23
-45
-33
-9
-4
-2
-5
2
9
44
16
-1
-1
0
2
-5
-10
-20
-15
-3
-2
-3
-4
5
11
-29
2
5
2
2
-2
0
5
-16
-6
-2
-1
1
-4
-10
-23
-21
10
-19
-10
-7
-5
-2
-9
-24
0
6
1
-1
0
2
3
-24
9
2
0
-4
0
3
11
-36
-15
3
1
0
-1
1
-11
6
-12
-1
0
1
1
1
6
-9
1
-1
-1
1
-2
-2
-2
11
-18
-17
-6
-2
-3
0
0
-7
28
11
-2
-1
-2
5
56
35
2
4
5
5
5
5
-44
47
8
23
13
9
2
-16
28
-31
14
-21
-12
-10
-7
-14
-49
-47
-17
-7
-7
-7
0
14
71
63
13
-9
-1
3
0
-7
-60
-45
-1
11
2
0
-1
2
33
127
28
12
6
3
3
11
12
42
62
17
11
7
8
-7
-19
100
-31
-15
-9
-6
-6
15
73
103
74
21
8
7
2
-21
-56
1
-16
-26
-14
-12
-9
7
54
65
4
-11
-5
0
6
0
-52
38
-3
27
8
1
-2
0
11
-55
-6
-11
-2
-3
-3
13
26
24
-8
17
8
5
1
-11
11
58
33
5
-2
1
-5
-10
-50
-17
-38
-15
-7
-6
-2
11
32
64
47
1
-2
0
3
-21
-62
35
-2
-36
-19
-12
-12
4
35
38
4
12
7
3
-1
-26
-74
-113
-6
-5
-8
-7
-7
-2
52
47
-64
-23
-17
-8
0
9
5
-73
-36
-4
0
1
6
5
1
101
9
9
12
5
0
27
113
-8
82
29
14
10
1
-44
-99
-1
-99
-62
-28
-19
-16
0
42
28
33
2
0
0
9
-6
-28
-44
-58
1
-5
-4
-2
10
3
41
24
20
11
5
5
21
38
-48
23
22
16
10
7
6
-11
-107
-103
-4
0
1
-5
-10
-31
23
74
-28
-14
-10
-5
3
-14
73
-29
4
2
2
1
7
21
61
-15
-14
-1
3
-2
-16
-25
-54
-8
0
-3
-5
-7
16
-25
-53
0
35
17
8
6
-17
16
-1
31
-17
-15
-9
-9
17
74
107
102
31
15
7
13
-4
7
127
-13
6
0
1
-7
-2
11
-89
-90
-43
-15
-7
-2
-9
-20
-27
-53
2
4
3
-1
-26
-75
-41
61
7
-4
-9
-6
16
38
59
70
30
16
11
12
-4
0
-52
-51
-8
-8
-3
-3
-4
-37
3
-15
-24
-11
-6
-1
20
59
-48
42
23
13
10
9
-7
63
-26
-72
-16
-5
-1
-11
0
16
-10
22
7
5
1
2
-8
-13
-40
8
-12
-6
-6
-4
5
-13
-21
-18
10
2
2
0
8
-5
-25
36
5
-1
-1
4
3
-20
30
39
30
15
6
2
6
-4
80
-7
-10
0
3
-6
-3
3
16
58
9
4
-1
-3
-5
-19
-13
14
-1
-2
-2
4
-7
-47
36
-9
-3
2
0
1
10
0
5
0
9
4
2
5
-17
-1
-48
-33
-26
-12
-7
-7
26
67
122
87
36
17
13
12
-15
-4
41
-13
-30
-16
-11
-9
13
41
17
-30
-2
0
0
1
-11
-38
-14
-73
-15
-8
-7
-9
11
1
-35
45
7
4
2
-1
3
-3
-22
-7
15
7
3
3
-4
3
26
43
0
-4
-5
2
4
-10
-53
-71
-19
-5
0
0
-17
-39
58
-55
-22
-12
-11
-11
2
22
87
27
4
-1
-2
1
-13
-62
3
-25
-11
-4
-3
-2
-3
-17
-34
11
0
-3
-6
-2
4
7
47
-6
8
6
5
3
6
-13
39
-34
-7
-5
-1
-10
-7
3
-33
29
-6
-5
-5
0
6
-2
57
18
4
1
2
2
0
-3
4
-48
-10
-4
1
0
-6
28
2
-27
-17
-10
-6
-4
0
2
39
54
13
4
0
4
2
35
-16
-17
0
0
1
-1
-22
-86
-56
-13
-16
-10
-8
-7
5
-4
-53
13
14
9
6
4
8
105
-81
-7
-4
-2
-1
0
-8
-61
-13
-51
-24
-11
-9
-6
13
20
16
57
19
4
2
5
-12
-31
16
14
-9
-7
-6
-1
-7
-47
-19
-25
-1
1
-1
-4
2
34
-24
-36
-6
-3
-1
0
4
1
-9
17
15
5
1
0
-9
-76
-4
3
-5
-5
-3
0
6
5
-44
33
16
5
2
2
-2
-1
46
6
-8
-4
-3
-4
-6
-27
11
-12
1
2
2
0
14
63
48
32
16
9
8
5
-21
-49
-98
-100
-22
-12
-12
-7
-2
-29
58
14
0
0
-1
1
3
8
4
-33
-17
-7
-3
-3
-5
-3
63
27
7
2
1
-2
5
20
3
-5
16
8
6
3
-6
16
6
9
3
0
0
-3
-11
-53
2
3
-16
-6
-5
-5
3
46
-72
3
4
0
-1
-1
12
30
55
38
18
9
6
2
-12
-83
-48
-32
-18
-8
-4
-1
-3
-6
2
-23
-7
-3
-2
-2
12
37
62
34
3
3
3
4
-5
-6
-12
-25
-8
-4
0
-3
2
49
113
27
9
0
1
-4
-10
-23
-85
-33
-5
-3
-1
-3
-10
1
20
-12
-8
-5
-4
-2
3
23
-17
-24
-8
-3
-3
0
7
14
8
37
11
7
6
5
-18
-43
10
-62
-23
-13
-9
-7
-10
-16
54
21
0
-2
-2
-3
12
31
42
25
13
8
9
2
-16
-71
-96
-40
-16
-8
-7
-3
10
28
47
38
24
10
4
7
2
24
-40
-8
0
-1
0
-1
-5
-5
-6
-25
-15
-6
-3
-2
10
27
16
10
10
5
3
-2
7
45
-32
40
6
3
-1
0
-3
-24
-42
-5
1
-3
-4
-2
-3
-29
-9
19
4
0
1
-2
2
47
-13
-7
3
2
2
2
-2
1
30
20
-4
-6
-1
-1
-5
-3
53
-15
-14
-10
-8
-5
-4
-52
-53
-42
-15
-5
-6
-2
4
5
7
3
6
3
2
0
12
46
11
50
15
7
5
6
-6
-6
14
-22
-11
-5
-2
-3
5
20
88
35
5
-3
-2
-1
-6
-38
17
-30
-14
-8
-7
-6
-3
2
-8
23
3
0
-2
-3
6
32
-60
-17
0
0
0
3
-9
4
-16
6
-8
-5
-6
0
3
16
47
37
13
5
4
2
7
-13
21
16
4
4
2
-1
3
8
-42
-29
-3
-1
-2
-1
7
-4
-15
17
3
1
1
1
-11
11
9
-16
-5
-4
-4
-2
-7
-26
25
-42
-9
-3
-2
0
5
-11
40
39
9
8
7
2
4
-33
-60
-18
5
-1
1
1
1
14
-24
13
-2
-2
-1
-2
4
-14
-38
15
11
7
6
5
-5
21
20
-18
-5
-4
-3
-3
-7
4
48
14
-6
-6
-1
-4
2
-11
-30
12
-2
-1
0
0
5
40
75
6
9
5
1
-1
-9
-68
0
8
-10
-7
-5
-2
-4
-11
-77
-63
-4
2
-2
-3
5
7
46
56
18
6
3
6
-10
-23
-15
-27
-16
-7
-3
-2
-2
16
-28
-22
-11
1
0
0
-4
4
35
10
4
0
0
-1
-3
19
43
2
0
3
3
0
1
-13
-22
4
7
1
1
-2
2
6
-26
-8
1
-1
0
0
2
-1
-20
0
-2
-1
0
2
-3
-19
-56
-33
-13
-7
-7
-2
5
13
16
6
5
1
1
1
1
-11
-43
-20
-2
-2
-1
-3
-13
10
89
5
-11
-6
-5
-3
-2
-11
0
-13
-3
-4
0
-2
-4
8
2
-15
-7
-3
-3
-2
15
45
87
43
20
9
7
3
0
15
-10
-13
-5
-3
-2
-3
-6
-22
-3
-33
-6
1
1
0
-10
-20
-16
22
2
-3
-2
-1
-6
-19
-16
6
1
0
-1
-1
0
13
24
11
-4
-1
1
-1
10
-5
59
25
14
5
2
2
-8
-45
-5
-20
-9
-7
-5
-4
-12
1
20
6
-5
-4
-3
-2
1
15
-20
-2
-5
-2
-1
-2
-1
9
-83
-12
-1
-2
-2
-2
4
-12
-79
-33
5
2
1
0
5
19
25
16
0
0
-1
-1
0
-3
13
17
1
-1
-1
0
-1
13
-23
8
-5
-4
-4
-5
-4
-4
-28
-19
-9
-4
-4
-2
-1
-15
-12
0
-1
-1
-2
-2
1
20
-51
-20
3
0
0
-2
8
8
94
30
28
12
5
2
-14
-51
-18
2
-12
-7
-6
-3
-3
20
14
14
5
-1
-1
1
4
-19
-11
20
14
7
3
4
-2
45
33
-4
-13
-4
-1
-7
9
19
-26
-9
4
1
3
0
0
-18
-30
-51
-7
-4
-3
-1
-11
-16
-3
-1
-15
-7
-4
-2
-10
-17
-12
-1
-8
-5
-3
-1
5
48
39
23
6
4
1
3
12
10
52
-8
12
8
4
1
-12
-20
-45
-23
-16
-9
-8
-3
-4
-8
-15
3
-7
-7
-6
-3
-2
2
-1
-16
-6
0
1
0
-2
2
21
-4
2
1
0
-2
8
18
88
17
8
6
2
2
-2
-25
1
-18
-3
0
-1
0
-6
31
42
5
-14
-7
-4
-4
-9
-34
-48
-2
-8
-4
-2
-1
3
4
-28
-1
3
3
3
1
7
37
64
30
9
5
4
3
-7
-27
-68
10
-3
-4
-4
-4
-10
-33
-17
-25
-15
-10
-8
-3
-2
7
19
17
4
1
1
-3
0
0
-16
-9
-5
-2
-2
1
2
-27
-46
-17
4
1
-1
0
4
22
48
33
1
0
1
-2
-2
-25
-22
-21
-3
-3
-1
0
7
0
-11
-6
10
5
3
-1
2
4
27
20
6
1
0
3
-4
-8
-27
-7
-2
-1
-3
0
-4
-16
-72
-9
-2
0
-2
-1
0
-36
44
2
-7
-2
-1
-3
1
16
-1
-23
-2
0
-1
-1
-2
-12
-20
14
1
-1
-2
-3
3
1
81
14
-1
-2
-1
0
-6
-6
-58
-13
0
0
-2
-2
7
25
33
14
1
2
2
2
-10
-20
-29
-26
-6
-3
-3
-3
-3
-8
-7
-13
-7
-4
-5
-1
-5
-10
-12
-6
-7
-6
-3
-2
2
39
-11
13
2
0
-1
-1
7
28
-25
-9
6
3
1
1
-8
-36
14
3
-2
-2
-1
-1
-4
7
-26
-34
-12
-6
-4
-3
-2
-16
-10
1
2
0
1
-1
-6
-26
8
21
-5
-3
-1
-3
3
19
26
30
6
3
2
0
-2
-10
-85
-45
-7
-3
-2
-2
-1
-23
-46
-9
0
0
-1
1
2
12
11
-7
-6
-4
-2
-1
1
-5
15
11
7
5
4
-3
2
24
30
31
7
3
3
0
2
-16
5
-18
2
2
0
-1
0
8
10
6
2
-1
0
2
15
36
-7
11
6
0
1
0
-9
-10
5
6
-10
-6
-6
-1
-1
14
33
9
-2
-2
-1
0
3
-14
44
-3
-4
2
-2
0
2
7
-38
-13
-8
-3
-2
-2
-1
6
53
8
-2
-4
-3
-2
0
-27
29
18
10
3
3
0
-6
28
-30
-23
-9
-5
-1
-3
3
27
30
-1
-1
2
3
0
-4
-34
-93
-12
-6
-4
-2
-2
-17
-48
4
-23
-21
-11
-8
-9
4
44
61
14
9
5
3
3
-5
0
-23
-22
-1
-5
-5
0
1
-10
30
20
5
2
2
3
6
25
20
10
5
4
2
2
0
-23
-37
3
4
-1
-1
-2
0
11
-17
-29
-2
-1
-1
-2
-1
28
-12
2
0
2
3
0
-6
0
26
-12
-8
-4
-3
-2
2
-15
-8
10
-2
-1
0
1
2
-2
66
9
3
1
1
3
0
36
0
-18
1
1
-1
-2
-2
-4
8
-4
-9
-5
-4
0
-6
-15
-26
-6
-5
-2
-3
-2
-6
25
99
8
-3
-4
-2
-4
2
-16
-19
-19
-2
1
-1
2
2
6
83
15
5
2
2
2
1
0
-75
-17
-1
-1
-1
-2
-6
-13
-16
9
-2
-3
-4
1
2
0
8
17
3
1
0
2
-1
9
-1
-9
-2
0
0
-2
4
-12
8
13
5
3
2
1
1
-24
-25
5
5
4
3
-1
-6
-15
26
8
-4
-5
-4
-3
4
8
-24
15
8
0
1
-2
3
22
69
-7
-5
-1
0
0
-11
-70
-128
-8
0
-2
-4
-1
5
12
56
31
11
4
0
1
7
6
23
7
6
3
4
0
-9
-31
-27
-13
-4
-3
-1
-3
-1
-25
36
8
2
-2
-1
-1
2
25
-38
-17
2
1
2
0
-4
1
-42
13
3
1
-1
0
-4
17
-97
4
-1
0
0
-4
-6
-10
10
-13
-10
-6
-4
-2
1
-9
-23
-3
0
0
-1
1
1
4
30
-11
-5
-7
-5
-2
3
8
43
5
-1
0
1
0
-6
10
4
-22
-5
-1
-2
-4
-4
-15
-13
-1
-5
-2
-3
-2
2
-1
-53
-6
1
2
1
2
-1
-30
-40
20
-1
-7
-2
-3
1
26
-62
-21
3
3
1
-1
-7
-22
21
-2
-2
0
1
-1
0
9
0
-9
-2
-1
-3
1
-3
-18
38
-5
1
-1
-1
-4
7
82
61
29
2
1
2
1
-4
-10
16
-8
-8
-6
-6
0
-3
-7
41
-7
2
0
-2
-2
4
16
28
-11
1
1
1
1
5
13
28
0
1
1
0
0
-4
-4
35
10
-4
-1
-1
-1
2
6
-34
-10
-3
-2
-2
-1
0
-9
7
-9
-3
-1
-2
0
-5
-19
56
17
-4
-3
-4
-3
4
30
31
24
13
6
4
0
-2
-5
-73
-46
-16
-5
-3
-4
-2
-5
-18
17
9
2
-3
0
-3
-17
2
-11
-7
-5
-4
-3
2
-10
-25
2
0
-3
-1
1
-1
17
21
18
-1
-1
3
-3
-2
9
27
-2
1
1
1
0
-3
-10
-55
-9
6
5
2
0
1
11
26
3
2
0
1
-2
4
8
23
60
3
2
2
1
-7
1
-84
-78
-18
-8
-3
-5
-3
-17
-33
3
-6
-6
-5
-3
1
-9
-57
-32
-1
2
2
1
-5
19
-31
-14
2
3
3
1
6
13
39
27
3
-1
-1
1
5
7
6
5
1
-1
2
1
-11
-60
-45
-48
-17
-7
-4
-7
-2
9
-15
-7
-3
-3
-5
-3
0
-1
9
-2
-1
1
2
-1
-6
-17
3
9
3
0
-2
0
3
11
26
25
6
3
0
0
-4
-14
-28
-18
-5
-2
-3
-1
-4
-3
0
4
-3
-1
-1
0
3
-5
3
4
-4
-2
-1
0
1
12
10
6
-2
-1
0
-2
3
-17
17
8
12
7
4
1
0
-3
18
4
4
-1
0
0
1
7
12
5
-2
-3
0
-2
-5
-17
-39
4
-3
-6
-3
0
-1
-13
10
-8
-6
-2
-3
-2
-4
-8
-15
9
-4
-2
-4
-2
3
22
-7
-19
-2
-1
-1
-3
-3
-16
-38
0
3
1
0
0
4
0
-4
0
-2
-2
0
1
0
-21
20
0
1
-1
-1
0
-1
-15
-20
-5
-1
-2
-3
1
0
17
54
-3
-8
-4
-3
-3
-2
-6
12
9
1
0
0
0
6
24
16
7
6
4
2
2
-6
-12
-4
-10
-6
-3
-2
-1
2
6
5
1
1
0
-1
-3
1
2
32
5
3
1
0
0
0
2
-34
-18
-6
-3
-4
-1
-2
-1
21
20
1
3
-1
2
0
8
24
3
2
1
2
-1
-4
-16
-15
1
0
-1
0
-1
-1
4
12
4
-1
0
2
-1
0
-3
-6
-9
-1
-2
2
-1
2
9
14
13
-2
1
0
1
-1
0
2
-7
9
5
0
-1
6
12
89
34
12
7
4
3
-12
-24
-97
-44
-22
-8
-6
-2
0
6
57
9
-2
-2
0
0
1
1
14
2
-5
-5
-2
-2
0
4
11
7
3
0
1
-1
7
10
13
11
11
5
2
-1
-1
3
-28
-7
0
0
1
0
-7
-11
23
-11
-13
-7
-6
-2
1
2
-23
4
1
0
1
-1
-1
-1
22
-3
-3
-2
5
0
2
2
0
6
2
1
-4
-2
-3
3
10
-2
3
2
-1
-1
0
0
-6
-3
-4
-4
-2
0
1
4
17
14
1
-2
-4
0
0
2
9
4
3
2
5
0
1
-4
-26
-10
-3
-4
-3
-2
-3
-3
-13
-6
-3
0
1
0
1
2
15
9
4
3
1
-2
-3
2
-2
-1
0
-2
-2
0
-2
0
3
3
-2
-3
-2
-1
-3
-2
-37
-7
0
-3
-3
-2
-1
-1
19
-2
-2
-1
0
-1
-1
-1
6
-7
-4
-4
1
0
1
-1
-10
0
-1
2
2
-2
-3
-3
10
0
1
-1
-5
0
1
2
-10
0
3
2
0
0
2
-1
17
5
2
4
-9
3
-3
-4
-69
-7
-4
-3
7
-10
2
0
-4
-3
-7
-3
-9
-2
4
5
33
-1
7
8
9
-1
-8
-4
-30
2
-8
-5
-3
-3
1
2
20
15
10
3
2
14
-2
-4
-10
-5
1
1
3
7
-2
1
-13
2
0
-3
-5
-29
0
-4
-1
-8
-3
-1
0
-1
-1
0
8
0
-4
-5
0
-2
0
-1
-28
2
-1
0
-2
1
-1
-5
7
-2
-2
0
2
9
-3
0
1
-4
1
1
-2
-6
-1
-1
4
3
-1
-2
-4
-1
-2
-2
18
-4
-2
-2
-1
-4
-1
-3
-28
3
-1
0
0
5
-1
-1
-9
0
1
2
7
-3
0
1
-2
-6
-1
0
2
2
-1
-2
15
0
1
-5
-4
-3
-1
2
7
1
1
2
4
1
3
2
8
5
3
3
2
5
-2
3
-17
-8
-7
-3
-5
-3
-6
-12
8
2
-6
-2
-1
-4
-2
-1
-11
-6
0
-3
-4
0
0
0
12
2
2
-1
-2
1
2
3
7
4
1
1
-1
-1
0
0
6
0
3
0
1
-1
1
-2
-23
-4
-7
-4
-2
4
1
-3
-3
1
6
-2
0
-2
1
1
38
-1
0
-2
1
-2
-2
-1
-34
-2
-5
-1
-3
-1
-1
-1
19
2
1
1
-2
2
-1
2
-10
-5
-4
-2
-1
-1
0
-3
7
2
-4
-1
0
-1
0
0
12
2
3
1
2
-1
1
1
2
1
-1
0
-3
-2
0
-5
-2
-7
-8
-8
-4
-3
-2
-5
-7
3
1
1
-3
1
-1
0
5
2
0
-3
4
1
-2
-2
-9
5
1
5
3
2
0
-6
-15
-11
1
1
1
1
1
1
13
1
-2
-1
0
-4
-1
4
2
-3
-2
-3
-2
-4
1
0
9
3
1
-4
-1
1
-1
1
13
2
-2
0
1
-2
3
2
-9
6
1
-1
-2
2
-2
-4
-24
-14
-4
1
0
0
-2
-1
20
3
5
-1
-1
2
0
-2
0
3
-1
-4
-3
-1
-1
-1
2
-2
0
0
0
-2
2
-1
-13
4
-2
0
-1
1
3
2
4
-1
-2
2
0
0
-2
-1
-16
-4
2
5
3
0
-4
-5
16
0
-6
-3
-6
-3
1
4
12
3
-3
-1
0
-1
-1
-1
-3
-3
-3
-2
-2
-2
0
1
0
2
-1
-4
-3
1
-1
-2
2
1
2
-1
4
1
-1
-1
2
-3
-1
-1
-3
-1
0
1
6
4
-2
-1
-4
-2
-3
-2
5
-4
-4
-1
-3
-3
-1
-4
-29
-2
0
1
-1
0
-1
-5
-6
-13
-2
-2
0
-4
-2
-4
-16
3
-2
-2
-5
-2
4
2
7
4
-1
0
0
-1
-4
0
-6
-4
2
1
-1
-1
-1
3
17
7
4
1
0
1
-5
-6
-2
-6
-6
-2
-2
-3
-2
0
-2
-4
-4
-2
-3
0
2
3
-3
3
0
-1
0
-2
2
-1
18
-8
-3
-2
-2
-1
-1
0
14
-1
-2
-1
-1
-2
-3
-5
-14
-1
2
-1
-1
-1
1
-2
-10
-4
3
0
-1
-1
-2
0
-2
1
1
0
1
-1
1
-1
10
1
-4
-3
1
-1
-2
1
-11
-10
-3
-2
-1
-1
-1
-2
0
4
0
-2
-1
-2
-1
0
-7
4
1
-1
-1
-3
0
-6
-13
-2
1
-2
-2
-2
1
6
36
9
1
0
2
0
-2
-7
-51
-11
-2
-1
-1
0
-1
-2
-4
-1
-5
-3
-2
0
1
4
7
-2
-2
-2
-4
1
-1
-2
-2
1
3
1
5
-1
-1
0
17
-2
-1
0
-7
-1
-2
-2
-3
-2
-3
-3
-2
-1
-2
-4
-21
-8
2
1
1
-1
0
-3
3
1
-3
-4
-1
-3
0
-1
12
3
-3
-1
-1
-2
1
-1
-3
0
0
-2
0
0
0
0
14
1
0
-2
0
0
-1
-3
-11
-4
-3
-3
-5
-2
-4
-3
8
1
1
1
3
-2
2
1
6
3
1
3
1
-1
-2
-2
-10
-6
-2
-1
-1
-2
0
-1
-5
4
1
0
-1
0
-1
-1
10
-3
-7
-7
0
-1
0
1
4
0
-2
-1
-2
0
-1
-3
-11
0
1
-1
-2
0
0
0
-7
0
1
1
-7
-1
-1
0
6
-1
2
2
5
-2
-3
-3
-5
-5
0
-1
-2
-1
0
2
11
4
-2
-3
-2
-2
-1
-1
8
-2
-3
-2
-1
-1
-1
-2
-20
1
0
0
0
-1
-2
0
10
0
-4
-3
-1
-1
-2
-2
-6
-2
1
1
-2
-2
1
3
-2
3
4
3
4
-1
-1
-4
-3
-6
-5
-3
-2
-1
0
0
-5
-1
0
0
0
-2
-1
1
9
-3
-1
1
-1
-1
0
-1
2
2
-2
-1
0
-1
-1
0
4
6
1
-1
1
0
-2
-5
-24
-14
-4
-2
-3
0
-2
0
3
-1
-3
-3
0
0
-3
-1
-6
-2
-1
0
-1
-3
0
3
12
0
-1
-2
-2
-1
-3
-1
5
2
1
2
1
0
-1
-3
-26
1
4
1
1
-1
-1
-4
-4
-8
-5
-2
-3
0
-1
2
9
0
-1
0
-2
0
-1
-2
3
0
-2
-1
-1
-1
-1
1
4
-2
0
-2
0
1
-1
-5
-2
-1
1
-1
-1
0
-1
-2
-8
-7
-2
-1
-1
-1
-1
2
14
0
-1
-3
-2
-1
0
2
-10
3
-1
0
1
-1
1
-4
-3
-3
-4
-4
-2
-1
1
-2
-5
-1
2
2
1
0
-3
-1
-6
4
2
1
1
-2
-1
1
2
-1
-2
0
-1
-1
0
2
8
0
-1
-1
0
-1
-3
-4
-25
-7
-1
-2
0
2
0
3
12
-2
1
-3
1
1
-2
-5
-28
0
-5
-1
0
1
-2
-1
-13
-4
-1
1
-2
0
0
0
18
3
1
0
-1
-1
0
-4
-36
-9
0
0
-1
1
-1
1
0
-1
0
0
1
-1
1
-2
8
1
-1
-3
-1
-2
-1
1
0
-2
0
1
1
0
-1
-1
10
0
-1
-1
-2
-1
-1
-4
17
-3
-4
-2
-1
-3
-3
-1
-13
2
-1
0
0
1
-2
0
9
1
-3
-4
-4
-1
0
0
9
1
0
0
0
-1
0
1
-9
0
1
-2
-3
-1
-3
1
7
-5
0
-2
1
-2
-3
2
-6
5
0
0
-2
2
-3
-8
-41
-8
-1
0
-1
-1
1
-1
20
0
-3
1
-3
-1
1
2
3
-2
-1
-2
0
0
2
4
4
-1
0
-1
-1
-3
-1
0
2
4
3
1
1
-1