2
-2
-6
-2
0
-2
-4
0
0
3
24
3
-2
-1
2
2
0
-1
-11
-9
-1
-2
-2
-2
1
-2
-5
0
-1
0
1
0
-3
0
7
-1
-5
-2
-3
-2
-2
-1
-21
-2
-2
-3
0
0
0
1
12
0
0
-1
-3
-2
-3
-1
-14
-3
0
-3
-3
-2
-1
0
5
-1
1
2
4
-2
-1
0
0
0
0
-1
-1
1
0
0
-6
1
1
-1
-5
-1
-1
2
14
2
-1
-2
0
-2
-1
1
-7
-1
-4
-2
0
0
-2
-5
-13
-2
2
0
-1
-1
0
0
0
1
2
2
-1
1
-2
0
1
-2
0
-1
-1
-2
-3
0
-4
-6
-4
-2
-7
-1
1
1
4
0
-2
0
0
0
-1
-3
0
-6
-2
1
-2
0
0
0
-5
4
1
-2
-1
0
1
0
-2
-4
-1
-1
-1
-1
-1
-4
-15
-4
-2
-1
1
-1
0
2
13
6
2
2
-4
-1
0
-2
-11
-4
-2
-2
1
0
0
2
2
0
1
0
-3
0
-1
-2
-21
-2
-3
-3
-4
-3
-1
-2
0
-2
-2
-1
1
-1
-3
0
16
-2
-1
-3
-1
-1
0
-2
-9
3
-2
-5
-3
-3
-2
0
12
3
0
1
1
-2
-1
-5
-26
-7
2
1
-2
-1
-2
0
2
3
-2
0
-1
-1
-1
0
11
4
4
-1
3
0
-1
0
-4
-4
-3
-5
-3
0
-1
-1
11
3
-3
-2
-3
-1
0
-2
-9
-2
1
0
3
-1
-1
-3
-1
-1
1
1
1
-1
-2
-1
-1
0
-4
-3
-2
-3
0
0
0
-2
-4
-2
-3
1
0
-1
0
-1
0
0
-2
0
-2
-1
18
3
-2
-1
0
-2
-1
-1
-13
-5
-2
-2
0
1
-2
-1
-7
-2
-1
-1
0
1
-1
1
-2
0
1
1
0
0
-2
-1
2
-3
0
1
-1
2
0
1
1
4
2
1
0
-1
-3
-3
1
-3
-4
-3
0
-4
-2
0
-7
0
-6
-3
-4
-1
1
-1
-6
-3
2
1
2
0
0
-1
6
-7
1
0
-2
2
1
-1
-2
8
4
2
1
-3
0
-5
-3
-8
-1
-3
2
-2
0
-1
2
0
-3
-1
-5
-2
-1
1
-14
-4
-3
-1
-1
-1
1
-2
11
1
1
0
2
0
-1
-4
-7
-6
-2
-2
3
1
-2
-2
-8
-3
0
-2
-4
1
0
0
3
6
0
-2
-1
-1
-1
1
-5
-1
0
0
-1
-3
-1
1
1
4
3
0
-3
-2
0
-4
-10
-5
-2
-2
6
-2
-2
-3
10
-2
1
1
-2
-2
-1
1
-5
4
0
-1
-1
2
-1
2
30
1
-2
0
-3
-2
1
-3
-46
-6
-1
-2
-2
-1
0
2
5
1
2
2
-1
1
-5
-2
23
-9
-5
-5
-1
-2
1
1
9
8
1
1
0
0
-1
1
-10
-4
0
-1
-2
-1
-1
-2
4
-1
-4
0
0
-2
-1
-2
-7
-1
1
-1
-6
-1
0
0
-5
2
1
1
-1
0
-3
0
15
4
2
3
1
-1
0
-1
-15
-3
0
2
2
1
3
1
7
3
-1
-1
-4
-1
-1
0
-12
-6
-5
-5
-2
-2
0
-1
9
2
-2
-1
-2
-2
-1
-4
-2
-9
0
-1
1
-2
-1
0
-9
8
1
0
3
-1
-2
-3
-4
-1
1
-1
-1
-2
-2
0
1
0
-2
0
-1
1
-1
0
4
2
-3
-4
-3
-2
-1
-2
-19
1
0
-1
2
0
1
2
2
-4
-2
-2
-3
-2
-2
-2
10
0
-4
-2
-2
0
-3
1
6
0
-2
-2
-3
-3
-1
0
-11
-10
-4
0
1
-1
1
-2
-10
3
-1
1
-2
0
-1
0
0
-4
1
0
-3
-1
0
-2
7
3
0
0
3
-1
-1
1
-1
3
-1
-2
-1
-2
-1
-2
6
-3
-3
-1
-1
0
0
-3
6
-3
0
-1
-2
-3
-3
-1
-1
4
-1
-4
-6
0
0
0
0
2
3
2
1
-1
0
-3
-19
-4
1
0
6
1
0
2
17
5
-2
-1
-5
-1
-1
-3
-5
1
-1
0
0
0
0
-4
-3
-5
-2
-1
-4
0
-2
2
5
2
-1
-2
0
-1
0
-2
-14
-4
0
-2
2
0
0
-1
-8
-2
-2
-4
-2
0
-3
0
23
-5
-4
-1
0
0
0
0
-14
2
3
2
-1
1
0
3
14
4
0
-1
2
-1
0
1
-1
0
-2
-2
-4
1
-1
0
-8
-3
1
0
2
-1
-3
-2
-2
-2
-3
-1
-3
-3
-1
-3
-8
-3
1
0
-1
0
-1
-2
-2
-2
-3
-2
-4
-4
0
3
4
2
-2
-5
2
-1
0
-3
1
-2
0
1
-1
-2
-1
-2
-6
-3
-2
-1
-1
-2
-1
-3
2
2
0
1
-1
-2
-2
-3
-5
-4
-1
-4
-3
-1
0
-1
-1
0
-1
0
4
-2
-2
-2
3
-3
-1
0
-5
-2
0
1
-3
3
0
0
0
0
-2
-3
3
-4
-3
-2
-3
0
-1
0
-10
-7
-5
-4
-2
3
-1
-2
6
4
0
-2
1
3
0
0
-7
-8
-1
1
2
-1
1
-3
-6
1
-1
0
-2
-1
-1
-1
7
2
0
0
-3
-3
-1
-1
4
1
-3
-2
0
-1
-1
0
2
-4
0
-2
0
-3
-1
0
-1
3
3
-1
1
1
-1
-2
-2
5
1
1
-2
-1
-1
0
-15
-9
-1
-1
0
0
-1
-4
-1
-1
-1
-2
1
0
-2
-1
-2
-6
-3
-3
-4
-2
-2
-2
-10
3
-1
-2
-2
-3
-1
0
9
1
1
4
2
-2
-1
-2
-1
-1
0
0
0
1
-1
0
0
-1
-2
-1
-2
0
0
-1
3
-2
-3
-4
-5
0
-1
-2
-8
2
-2
-1
1
0
0
2
-3
-3
-1
0
0
0
1
-1
8
-2
2
1
-1
-3
-4
-3
1
-5
-4
-5
-3
-1
1
0
-12
4
-1
-1
-1
1
-2
-1
-1
1
1
0
-1
-2
0
1
-1
3
-2
0
-2
0
1
-4
-6
-7
-2
1
-1
1
0
-1
4
-5
-2
-4
-2
0
0
-2
-2
0
2
-1
-1
-1
-3
-3
-7
0
0
0
1
2
-2
1
2
0
1
1
2
1
0
1
-2
0
7
4
8
0
0
1
4
-1
1
1
-5
0
2
6
6
-2
-1
0
0
-1
3
2
4
-1
2
-2
3
-1
-2
-1
0
-1
-2
1
-3
-2
0
1
-1
1
-1
-1
1
0
-1
-1
-4
-1
0
1
-1
-1
0
1
-5
-2
-2
-1
-3
0
0
1
-3
-6
1
-1
0
-1
-1
-1
1
4
-1
-4
1
1
-1
-2
4
4
0
-1
-1
0
0
1
-5
-2
0
0
-1
0
0
-3
-9
-5
1
0
-2
-2
-1
-1
5
-4
-4
0
-3
-4
-1
-2
5
0
-3
-3
1
-2
-1
-2
3
-4
0
-1
-3
-4
-3
-2
-4
0
-6
-6
-3
-2
-4
-2
6
5
2
0
0
-1
-1
-3
-10
-4
-4
-3
-1
-1
-1
-2
-3
-1
-3
0
0
-1
0
-1
-8
-2
-2
0
-3
-1
-2
-2
1
-3
-4
-1
-1
-1
-1
-2
-1
-1
-2
0
0
0
-2
-1
1
2
0
-1
0
1
2
2
1
-3
-10
-4
0
0
2
-3
-7
-9
10
2
-2
-1
0
0
-3
13
5
2
0
-2
1
1
2
0
-2
-3
-2
-1
-11
-3
8
-2
-3
-1
-3
-2
-3
-1
-11
-6
-7
-7
-2
-2
-1
-1
9
-3
-1
0
0
-2
1
0
-5
4
4
1
6
3
8
4
6
-4
-9
-2
-1
1
-3
0
3
0
7
2
-2
1
3
0
-11
1
1
0
-1
-1
-3
0
2
2
-4
-1
-1
-1
0
0
4
-7
-3
-4
0
-1
-9
-6
-1
-5
-5
-1
-1
-5
3
-7
-6
2
3
0
-4
-4
1
5
9
3
0
3
-2
0
23
5
-11
6
10
6
7
10
11
6
0
16
-7
-5
-2
7
-55
-3
-7
-16
-10
-4
-2
0
18
-9
8
12
7
2
-4
-10
-15
17
-26
-23
3
3
1
-4
-24
-5
0
31
12
10
8
5
35
-12
13
3
-12
-6
1
1
-16
-4
-1
-24
4
-3
-3
4
-61
-24
-16
-28
-12
-15
-22
-13
41
-4
19
-23
-6
-5
-8
-13
3
31
12
-8
-15
-4
-8
-25
3
-1
-36
-2
11
16
10
9
10
41
-5
62
23
21
39
49
53
-12
-2
-5
9
11
30
39
-59
-61
13
-1
-23
-31
-43
-50
49
-1
-20
-88
-21
-5
-19
-42
-122
-57
22
24
-5
-25
-40
-66
70
2
-1
45
-7
2
11
9
94
33
-76
-36
22
19
26
44
-93
0
63
32
-4
-17
-10
-17
127
68
-22
-20
-20
-6
-16
34
-81
-46
-39
-6
-15
-9
5
-33
-25
-37
41
-15
12
4
-13
-1
56
15
14
34
-8
0
25
26
2
39
-14
-27
-1
8
12
11
83
11
37
-25
9
-11
-56
-29
31
75
-29
84
13
22
25
31
41
-93
15
-35
-4
-26
-29
3
19
-3
27
-42
-21
-20
-22
-60
-77
32
42
10
-11
-3
19
-5
35
-56
-82
-10
27
6
7
5
-24
-15
34
39
7
19
6
15
41
-51
-60
11
-5
11
18
20
-6
-16
13
-3
-20
-18
-32
-25
90
27
44
-66
-15
-13
1
26
-101
-9
-50
24
0
-2
29
-3
-3
-42
27
17
-2
-20
-9
8
11
33
-49
-7
6
10
-32
19
10
18
22
31
2
18
17
-16
19
20
-23
-23
3
13
34
10
-22
-5
28
-10
20
29
31
25
-57
78
-25
-16
25
19
14
15
-11
-15
46
-8
-6
-9
-3
-14
-74
-14
-6
-7
-1
3
4
-10
12
3
-10
35
-16
-20
-27
-11
18
49
26
-1
-7
-10
16
10
-62
9
2
-6
-7
7
4
-6
-14
-26
-29
12
9
-7
-10
-7
38
11
41
40
17
-2
21
15
11
-32
-9
-28
-25
-19
-35
-11
-80
-23
-2
0
3
-14
-23
-12
77
46
2
11
-10
8
19
37
-4
29
6
-29
7
34
11
-17
-1
27
36
27
10
13
37
4
62
75
38
9
-2
-12
-21
-14
-24
-14
-20
-17
-16
-13
-21
4
-49
-39
-10
0
-3
-14
-7
-14
-13
-75
5
5
6
-2
-8
-32
-22
-45
31
-23
-11
-6
0
-4
-88
20
-31
-25
-3
-4
-22
-7
44
42
34
39
6
0
11
0
35
64
-82
-4
-1
-7
-11
40
-15
-4
17
2
0
10
28
-11
65
17
-10
22
9
3
1
-12
-22
24
17
-11
2
5
-15
11
-48
-23
-5
-5
0
-13
16
-7
-68
11
17
11
-8
0
-26
1
92
43
-61
-38
-15
2
14
25
-100
-62
18
-33
12
3
-2
-40
-7
28
5
33
-1
-1
1
6
22
-45
-8
-2
0
-15
18
8
15
38
36
32
4
1
-44
-20
-28
-32
-34
-40
-18
10
-7
-24
-54
39
19
32
21
23
7
10
31
-26
-41
14
3
-3
10
17
8
22
58
-7
-13
-9
14
0
-17
36
-54
-3
10
-4
-11
6
-17
-48
8
13
-9
-1
3
-10
-5
33
-32
-3
1
2
0
4
2
-65
5
26
2
-3
6
4
26
-5
26
-8
-14
-13
-13
42
87
-2
14
12
9
6
17
-27
-54
-43
-7
10
-8
-11
-15
-11
88
10
32
11
-2
2
-1
15
-53
-33
31
12
-10
2
18
7
16
26
-39
-49
-12
-2
-8
-17
6
30
-15
0
14
12
2
-10
29
11
11
0
0
2
-15
14
0
16
-13
6
3
-4
21
7
4
-25
22
29
-6
-7
-4
7
-42
-14
-6
9
-11
-3
0
-12
9
15
-65
-31
-1
-1
3
4
54
17
5
22
2
-4
-11
14
-23
-21
-20
-8
-16
-11
-11
-21
25
30
12
-29
1
8
-5
15
-59
3
29
20
12
4
10
-14
0
-31
-15
7
9
7
-6
-8
-9
17
-14
-37
2
-6
26
11
-35
-19
3
12
-5
-1
-25
-3
37
-8
33
3
12
0
-13
-7
-2
62
-30
3
3
-4
2
-9
-38
-111
-11
-45
-13
-6
-23
8
73
30
0
-9
-4
3
43
4
26
14
12
14
-2
-9
-30
-16
-6
52
18
9
-8
-2
-11
-13
-6
22
-35
21
10
0
12
23
39
-47
21
0
2
0
-7
14
-92
0
-13
24
-1
-2
5
-25
35
-19
-8
5
1
5
16
17
-16
19
9
5
3
11
3
1
21
11
-6
4
-4
-14
-5
13
-67
-12
-13
-26
0
-6
-26
-18
7
-69
0
3
-2
2
12
-13
-44
31
5
4
4
5
-1
8
84
40
9
-7
-1
6
14
17
-7
-38
-16
-22
1
0
16
8
4
-4
1
-5
-5
-12
-26
-17
11
11
24
-16
0
7
-9
-29
-16
-12
-17
30
2
3
9
11
-27
-2
6
-54
3
-6
-3
-20
-49
-25
-16
-15
3
2
-1
-8
44
-37
-51
35
-1
-1
1
16
-41
28
10
16
4
-10
-3
4
-29
31
2
-2
-7
12
12
4
19
26
32
8
5
2
-11
2
-28
16
17
-28
-4
-9
4
-20
-4
-24
-16
-27
3
10
-8
-12
-22
-7
11
12
19
7
0
24
78
15
-35
-2
-5
-8
5
-4
-15
-31
36
-4
-5
-1
-3
14
-38
27
0
2
-3
2
0
-17
23
-1
-21
-5
-6
-9
10
10
6
17
-15
-11
-6
6
11
29
15
-8
21
-8
-3
-6
-25
-30
-22
44
17
-13
1
3
-1
-22
-10
-3
-12
3
-4
-1
-5
-7
-5
-44
-16
5
-8
-16
6
9
19
20
26
18
3
6
-1
0
-7
2
-53
1
-4
5
10
15
44
1
43
-5
-10
-5
-14
-29
-18
-40
-9
-15
-2
-9
-15
-10
8
9
3
-8
-7
-15
4
28
-38
26
-4
13
13
19
-18
-7
38
-46
20
30
-2
5
13
-4
38
9
4
3
-2
1
14
-5
-31
-37
8
2
7
2
-3
-2
3
-18
-23
-8
-4
-12
-1
5
25
-24
3
28
-10
0
-17
20
5
4
12
-10
2
1
-9
-18
55
25
0
0
-7
-8
21
5
-52
-58
-22
-28
-5
0
-13
-9
26
8
5
-8
2
4
-2
15
-46
-3
27
-2
-6
-3
-4
-21
-13
2
-20
-27
4
2
20
4
60
12
14
2
-14
-3
-11
0
-46
-1
-1
-19
7
0
-2
0
-26
-22
-36
13
3
-3
-1
7
30
17
-24
-6
1
12
0
2
-57
-2
20
20
-2
-5
18
-3
23
-4
1
14
5
-1
-8
-16
-25
34
23
-3
2
-4
-14
3
-3
-27
-18
-14
-8
-5
-5
4
-1
6
12
11
-1
-9
-10
-2
19
46
-20
-1
2
12
1
0
-5
6
22
-1
2
2
9
2
-55
-7
2
10
1
8
-20
-29
23
-2
5
-16
-3
-2
14
8
-39
25
2
16
5
-5
6
6
47
-15
-18
-1
-3
6
3
9
10
5
-10
-14
-5
-2
-1
-1
33
34
14
8
-7
-9
-2
-9
-37
-25
-12
-11
8
-3
-8
9
-66
14
-17
-30
2
2
1
-32
25
29
-10
31
11
9
4
12
-32
-19
19
-21
0
-10
-2
4
-49
23
-9
12
-2
1
20
-10
10
9
11
5
-12
2
-7
10
24
-18
4
25
6
-3
-10
2
8
9
-11
-10
12
1
14
12
12
33
-16
5
-6
-3
-12
-12
14
2
25
4
-1
10
5
11
-39
-16
-9
-46
5
5
6
-18
41
-28
-3
24
-3
-5
5
-1
-5
2
4
-22
-16
-8
-3
8
8
-18
-9
3
-1
-7
-10
-1
20
1
11
-2
3
-4
3
-2
-16
3
-15
-12
1
2
-3
-2
33
-9
11
-6
-11
-3
-5
6
-16
6
1
25
16
1
17
8
-25
-42
20
39
0
-3
-19
-42
-4
-5
-6
-13
-2
-3
-6
-11
31
21
21
19
6
-2
8
5
-8
-32
-30
-12
-6
-6
-26
6
-11
12
7
-7
-11
-4
7
18
-15
1
3
9
4
-4
-12
-11
11
-15
4
15
-17
2
6
-9
38
23
15
31
-3
3
10
6
54
2
-20
-14
1
1
-5
26
-3
-19
-2
-9
0
7
2
9
-95
-34
-13
5
3
-23
-9
-13
-4
51
10
13
-5
3
2
-17
26
-40
1
-19
-14
1
0
20
-22
5
0
17
-5
-6
-11
1
-66
13
-23
-22
-2
11
9
-4
55
-5
-11
-22
-6
-9
-4
-21
-10
-3
-11
20
8
1
15
9
12
-6
-2
13
3
3
-5
4
22
-12
-18
-6
-4
-10
-3
4
-33
-6
15
1
6
11
-3
-14
-47
8
-18
-29
-3
-9
-5
-7
-21
-10
13
7
3
6
19
-13
76
2
22
-10
4
7
-11
-15
-11
-1
-17
7
-10
-13
19
3
5
3
13
-2
-4
-2
-29
-8
-14
5
8
16
7
3
-11
-11
36
-1
-2
32
8
-2
13
15
45
17
21
-23
-5
1
3
33
3
32
3
0
3
-3
-4
-11
-5
-45
-16
-14
-4
-4
3
7
-23
4
-4
0
0
6
-15
-9
-6
-39
12
8
-9
-3
12
-9
-44
19
-8
-12
-4
0
5
12
-24
21
-26
-17
1
0
-13
-6
29
-14
0
-40
5
0
0
-10
-12
24
-7
3
3
-10
-18
-6
-28
-12
30
24
1
18
11
31
-9
11
-7
-19
-20
-2
28
-30
-25
-5
-27
2
0
0
-8
-34
25
12
8
-25
5
-4
-7
-2
-1
-28
4
0
-10
-3
-4
7
21
-2
-11
-1
-4
-1
-12
0
5
-11
11
12
-5
0
6
12
30
9
10
3
9
6
-3
0
-12
32
-17
-4
1
-6
2
-13
-34
21
-15
24
-3
-10
-2
40
21
-35
6
-27
-10
1
1
4
-92
-30
-27
19
3
-3
-13
-18
75
28
10
21
1
7
11
3
-19
-35
23
-28
-3
0
14
1
-41
1
29
14
5
0
-27
-13
-5
-27
-14
10
-2
4
20
30
29
4
-15
-11
-8
-22
3
2
22
9
10
-20
7
25
-10
-7
-50
8
2
3
2
1
14
9
43
-1
2
-3
5
-3
-6
11
-6
-20
-11
9
-9
-3
-7
-24
28
-2
-15
-11
0
-8
-8
14
60
-8
2
-7
4
6
20
29
-85
24
6
-27
-1
4
-22
-21
31
-5
-14
16
4
-4
1
-1
-1
9
16
11
0
-9
7
25
-27
-19
-11
4
-1
3
-18
-32
44
4
-3
8
-8
0
11
-4
6
2
17
-17
2
4
0
-15
-12
4
-9
3
-2
4
-2
-5
22
-22
-19
2
2
-14
2
15
18
11
-11
-2
1
-3
3
10
-37
15
0
2
-14
-2
-13
-36
5
-24
24
3
4
-3
-20
-10
45
28
-19
13
-8
5
27
18
-40
-28
0
-10
5
-3
-9
10
-9
-24
-10
-3
3
0
6
9
9
27
6
11
-6
-8
-3
-17
23
22
9
-9
-12
0
-1
1
-6
-28
-10
4
0
1
7
19
-21
6
9
-7
-1
-4
-28
6
34
8
-3
3
6
4
-2
-19
-46
18
16
-1
-1
3
8
1
19
5
-9
-37
-4
-1
6
-8
-47
-17
0
-26
3
-1
-5
1
19
4
1
10
0
-5
10
27
17
32
-11
0
0
0
-6
-30
-34
-7
-5
1
1
-5
-11
-13
5
6
21
-5
2
12
20
3
-29
7
-12
2
-2
3
-3
-27
7
-33
-7
-21
3
-5
-13
7
-3
-9
-3
-16
-5
-7
-6
-7
-30
1
9
-6
0
-1
1
3
26
-3
-17
0
-7
-4
-3
-10
-18
-5
-3
-34
1
3
7
-1
72
30
-8
24
-9
3
6
2
-60
9
2
9
6
-7
-4
9
3
-27
14
-2
2
-13
-21
1
-8
-2
-5
-24
-4
10
16
23
-33
6
10
-17
-3
15
-8
-6
51
-5
-9
-63
-8
-1
17
-9
-4
16
4
2
5
-2
-16
-28
-25
-12
-2
14
0
-13
-14
-8
1
12
15
25
3
-4
10
11
2
-29
-27
28
2
-6
-20
13
-6
-15
-27
-6
-3
5
14
16
2
7
18
11
1
-3
-22
-17
15
13
-1
18
1
2
2
11
0
1
10
34
-1
-3
26
3
-10
10
21
4
-16
-8
-19
-6
-12
-1
-26
19
-1
1
0
1
-9
5
28
8
4
-5
1
8
19
-2
-6
15
-6
-7
-9
-22
-10
6
-5
-8
-2
9
23
34
18
6
13
1
-7
-1
1
-28
-14
-12
-23
0
9
-4
-16
-17
-3
11
9
5
-4
-1
6
26
1
-25
-17
-12
-1
3
-5
-9
-19
0
-1
13
0
-11
5
12
21
-6
-2
-38
-10
1
-2
-7
-27
8
8
23
6
5
-4
-1
-3
-6
-1
34
16
13
7
10
17
14
18
9
5
-3
-7
6
17
4
-4
-22
-13
-3
1
1
21
-5
-14
-9
3
-3
0
-15
-16
-10
14
-1
-7
-5
3
-6
-25
-13
-3
10
2
3
14
19
22
7
-11
3
-7
-2
3
-9
14
9
-10
-35
4
7
-3
0
-6
1
-1
10
4
-11
-20
-14
-9
-8
5
-4
-1
-3
7
-11
-25
-5
4
12
-7
-2
-2
-3
7
-14
-23
-32
-1
2
-8
0
-3
18
13
-14
0
-7
1
6
-20
-31
-25
-6
-2
1
-10
5
75
-2
13
9
4
-2
2
-4
29
-17
-20
28
-3
0
3
8
-12
-41
11
-26
-6
3
6
-6
20
10
4
-21
2
-4
6
12
-8
-13
-14
2
3
-5
-10
-8
3
17
9
11
-4
3
-3
-10
46
15
12
14
3
4
-5
-7
19
10
-12
6
-4
-8
14
24
-15
-9
-5
-17
-5
8
-11
6
-35
-17
8
-15
6
-4
-7
-22
-35
-2
-1
10
-4
-8
9
10
4
35
7
-27
-4
16
-4
-2
-28
15
5
5
1
-2
-1
1
-10
13
21
-5
-9
0
13
-1
2
-21
-33
-13
-1
2
0
-6
41
-25
-2
0
1
-2
-6
-1
-13
1
1
5
2
1
9
4
17
6
-5
7
-4
-2
-7
3
-22
24
20
-6
6
5
1
0
-1
-14
-7
-20
-8
-5
-4
-14
-2
-9
-24
33
2
-3
-1
1
-25
7
2
7
-2
-4
2
12
2
4
-2
4
-5
-11
-2
1
-1
2
13
-5
-1
4
-15
-25
-10
1
3
-17
10
5
11
-2
-16
7
1
22
5
2
-10
-12
69
-10
-18
4
-8
-2
1
24
-63
6
13
2
-3
-11
-1
-10
4
-10
12
23
10
0
12
12
-9
-15
-30
-14
-1
5
-3
-3
-11
17
13
-7
-9
-4
0
4
14
-16
-16
23
-4
-1
4
-4
-30
-5
9
-28
-2
-3
-11
-1
10
12
-3
3
2
-1
4
2
-30
-17
-15
1
-2
0
15
3
-2
7
4
-3
-1
4
-27
-1
-27
7
-12
-7
-5
-6
4
-10
43
-15
10
-10
-1
7
16
17
-3
3
-8
8
2
-15
-46
-47
-12
-1
6
-2
-10
19
32
-11
12
-12
0
2
16
2
6
-3
-13
1
26
15
-2
-5
-10
0
72
17
-33
6
1
3
24
19
-16
-17
-8
-22
3
-4
0
16
-29
-13
2
-4
-8
-8
-27
-29
29
7
21
11
0
3
25
33
-10
6
-9
-22
2
4
-20
-36
16
9
-22
21
-1
-5
4
17
21
16
-1
3
-1
0
10
-6
-19
-36
5
-26
-5
-10
-13
-7
-1
-17
-5
-11
-4
1
-7
-11
-9
-1
31
-8
5
-8
-11
-7
-27
6
-25
5
-4
3
0
14
49
20
15
-1
2
-5
-4
-8
-13
11
18
12
-1
4
7
1
36
-4
-17
-19
-4
-4
-12
-5
7
-13
8
3
4
-1
-1
-13
46
9
-20
-6
-2
-3
8
9
-22
1
13
-29
9
7
6
20
-49
11
1
26
0
-10
-16
-4
12
-9
8
16
24
11
-2
-16
-36
4
-44
-16
-4
1
8
7
-7
-9
18
4
-4
-4
-11
-1
77
5
-5
1
-6
-4
5
25
-23
0
8
-38
-1
0
-4
3
-48
-26
-21
26
0
3
-9
-16
4
18
15
-31
-2
-1
14
17
-11
-2
-6
0
4
-6
-10
-19
20
2
-3
13
-9
6
8
4
37
15
23
25
6
0
-9
-4
-21
-10
-17
-16
-11
-2
7
-5
-7
-10
-7
3
0
-5
-5
3
-22
1
7
-22
-11
-5
4
-13
-23
2
3
10
2
-2
-8
1
14
-7
7
2
3
-2
-9
-2
-7
6
4
3
4
7
12
8
4
-2
-6
3
-11
-9
0
-8
-18
-4
14
-20
-3
1
-20
-19
7
-12
-13
13
0
1
-1
-1
12
12
1
5
1
0
5
7
19
4
-4
-2
-1
2
6
8
-14
-8
13
1
2
0
4
3
-6
-11
-6
0
1
1
-2
-5
-14
-8
0
-1
-4
-5
3
-5
8
4
-5
4
-5
-6
-15
7
1
7
4
-6
-2
-5
-6
-7
-12
6
2
4
-1
-1
-6
3
-13
4
-4
1
0
3
6
-13
-2
-2
1
7
-3
-3
-1
-1
5
6
-10
-14
-2
-8
13
0
-3
-9
-6
1
-4
0
-27
-1
1
1
2
2
3
9
8
1
2
13
3
6
3
3
3
8
-8
5
4
-1
0
2
-3
0
-3
0
-8
3
-2
-5
10
4
2
-5
-3
-4
-3
-6
-7
2
-3
-9
-1
0
-6
-8
-10
6
-6
-14
-11
-8
-2
10
20
-4
0
-44
8
2
5
3
1
3
-1
-39
-3
1
0
2
-1
1
-1
-18
-4
-2
-2
-2
6
-2
-3
2
2
-2
-4
-8
-8
-6
4
36
6
3
1
2
-1
-2
-5
22
0
0
3
0
0
-3
1
4
0
2
0
-4
3
1
1
8
-3
-6
-6
-12
-14
-1
-2
14
7
5
6
21
12
11
-12
7
2
-7
-1
-1
2
-3
-1
-5
-33
-9
-9
1
-5
3
-2
-6
-13
-1
-3
-2
-5
6
-1
3
-6
0
0
-7
3
7
0
5
-12
0
0
0
5
0
-2
-4
15
-1
1
-2
-12
-6
-3
-1
23
-3
-1
-2
3
-6
0
-2
-1
13
-1
-2
4
-7
4
8
30
22
0
-11
-6
0
-1
-2
-13
-20
-5
12
5
-6
-7
-21
-43
-11
-6
5
-19
-3
0
3
9
-5
0
1
5
1
5
2
8
-1
2
-6
-4
-1
4
6
29
15
4
1
0
4
7
5
4
0
8
-12
-6
-3
-4
-6
-5
-7
-4
6
10
-2
-5
-6
-29
11
-4
-4
-34
-4
13
-1
-12
6
-5
-7
34
10
-11
-3
41
3
1
24
16
-15
-3
3
-21
2
-2
-4
-6
-2
-4
-8
-30
-9
-3
-2
-2
2
-4
5
17
8
3
-6
-7
2
11
14
34
12
11
-3
9
2
-6
-18
-59
-22
-14
-11
-30
-3
-1
1
43
2
-4
-2
11
-5
-2
-6
-39
-4
2
4
-6
1
1
1
-12
-2
-2
-6
3
2
6
15
77
18
8
-11
8
2
3
5
-69
-8
3
11
-2
4
-3
-3
-30
-24
2
5
-9
-2
2
-4
-4
10
-2
6
12
1
-18
-1
7
11
-10
3
-6
-17
-15
-19
-51
-19
-12
-11
-17
-2
9
8
33
-14
-5
-9
14
0
0
-10
-24
-13
7
2
-5
3
10
14
54
18
9
-10
-14
3
5
11
60
0
-1
-3
29
0
-13
-19
-83
-24
-7
4
-17
-3
0
6
25
3
0
12
1
-1
2
-5
-35
-12
-1
0
11
0
8
6
23
13
8
-4
-3
-1
-12
-3
50
17
-11
2
-12
-3
-5
-2
11
-8
-8
-6
-5
-2
1
0
-50
-21
-1
-4
2
1
2
-2
31
-2
-1
-8
-7
-1
6
1
-6
20
14
12
-18
2
-3
0
10
-21
-11
-32
19
0
-10
-22
-31
-3
-3
37
13
6
5
-1
-24
0
-3
-1
3
6
-9
0
23
10
0
2
8
-8
0
-3
-62
4
-2
-4
-5
1
8
8
32
-4
8
-17
-14
-3
-5
-21
-70
-12
-8
4
2
-5
-3
11
26
-8
-11
-6
6
0
-1
-6
-44
-3
2
6
-13
-4
1
-2
20
-3
-2
-1
4
-2
2
6
19
14
4
-1
-1
-2
5
0
7
-7
3
-4
3
-1
-5
-1
-23
2
-6
-5
-12
1
2
7
1
0
-3
-10
-3
2
0
6
51
5
5
20
10
2
-4
-14
-57
-11
-6
-14
-23
-3
1
-6
39
9
-1
14
10
-7
-5
-3
-9
-6
-7
-2
7
-6
-1
4
14
3
5
1
8
-3
2
-9
5
-5
-4
-9
-7
-10
2
5
21
21
5
2
1
-2
2
-9
8
-11
-9
-8
-10
7
-9
0
68
7
-2
1
-3
-6
2
1
51
15
8
11
17
1
-9
-14
-54
-20
-9
-14
-8
1
7
11
19
15
5
2
-5
0
-7
-5
-34
-16
-4
0
-3
-2
4
3
14
11
6
-4
1
3
1
6
29
5
4
3
3
-2
-4
1
18
1
-3
-1
0
-2
2
-4
-31
-6
-2
-3
-10
0
-1
-4
-14
-4
-5
-6
8
2
4
6
10
-5
5
14
-8
3
-9
-14
18
11
-4
-2
-3
-5
-1
-6
-65
-32
-7
-5
-9
-4
0
5
0
-1
-2
-4
6
-1
2
4
17
9
4
-1
4
3
10
12
-32
5
17
7
4
2
-13
-17
8
-5
-15
-9
-7
-6
-5
-7
-11
-6
-6
3
-1
3
-1
-4
-4
1
-4
-2
-3
2
0
7
-1
-7
4
0
3
-1
3
1
5
16
8
2
3
1
0
-7
-33
-11
0
-18
-16
-3
-5
-4
24
1
-2
24
13
-4
10
9
14
-1
-1
0
14
-1
1
-1
-34
-16
-1
6
6
5
-5
2
6
8
-4
-12
4
0
-1
-4
11
-4
-2
5
-23
0
-5
-10
-17
-3
-3
-1
1
2
4
5
26
8
4
4
6
-3
3
2
-13
-5
-2
1
0
-2
-2
-7
-34
-5
-2
-14
-8
-1
-2
4
-9
3
0
5
7
2
1
1
-20
2
1
-2
-5
-2
-5
-6
45
7
-1
1
-4
-7
-1
-4
-42
-7
-8
-9
-1
-2
-3
-4
19
0
-7
-7
-1
-1
3
13
44
20
7
14
3
0
4
-3
-26
-18
9
9
9
1
-4
-3
-30
4
-9
-7
4
-2
-5
-3
21
-1
-3
-2
-11
-2
0
-7
-12
-11
-6
-9
3
0
2
6
14
11
0
1
-3
0
3
8
39
9
6
9
-2
1
-5
-5
-40
-17
-2
-6
-4
-2
-4
-4
12
7
-1
-11
-13
-4
2
3
7
2
0
13
25
4
-3
-2
3
-14
-7
-15
10
-1
5
4
-2
2
1
7
-34
-4
1
-2
21
3
3
3
5
1
-3
-5
-27
-4
-7
-6
-9
-5
0
-2
6
-3
-3
-12
-1
-4
-1
0
7
10
10
13
15
-3
1
2
-2
1
7
0
-3
-2
-4
-5
-45
-14
-6
-4
-14
-1
0
-3
31
8
-1
-3
-2
-1
-3
-2
-16
-8
-4
-7
0
2
1
1
33
3
-3
-1
1
2
-1
6
20
8
1
1
4
1
-3
-3
-40
-17
-5
0
-4
-4
-1
-6
-10
1
-2
-1
3
-2
-1
4
21
13
2
0
3
-1
0
0
-29
-1
6
3
1
2
0
4
56
12
-2
-3
-5
0
-6
-8
-27
-18
-9
-7
-7
-1
2
1
-18
-4
-4
-3
11
3
0
0
23
6
3
3
-9
-1
3
3
-1
0
4
1
-4
-1
1
0
-8
6
0
-2
9
-2
-1
-2
-9
0
-4
-10
-12
-1
-2
-4
33
-13
-5
7
13
-4
-2
-5
-26
-2
0
1
2
-3
1
-1
-3
-7
2
1
3
-2
-5
-6
-24
-5
-6
-3
-5
-4
1
7
15
16
8
1
-3
0
1
2
4
-4
0
-1
-1
4
-1
-5
-21
-10
-4
-4
1
-2
1
3
-5
5
0
0
0
-3
-2
-2
11
-15
-3
-6
-4
-2
-2
-1
-14
10
4
4
3
-3
3
-1
-3
-6
3
-1
-1
-1
4
4
1
5
-3
2
3
1
-9
-1
-3
9
-4
-5
-3
2
-7
-5
5
-6
0
-1
-4
0
-1
-4
8
3
-5
-2
0
-1
-2
-4
-9
-12
-1
2
0
-3
5
-2
-7
3
0
-1
-2
-3
11
4
-10
-4
-2
-3
0
4
-9
-1
6
2
0
-1
2
3
-6
-6
-2
-11
-3
-1
-2
-1
-8
5
4
11
1
0
-3
-1
-3
0
-4
-10
9
2
-1
-2
24
-4
6
8
-3
-1
1
-2
-8
1
-6
2
-4
-4
-2
0
2
-1
-5
0
-2
-1
0
0
-16
-4
-7
-15
-1
0
0
-4
-12
-1
13
3
0
0
-1
-4
4
-7
-2
-9
-3
-1
-2
-4
2
-4
-7
2
-4
-3
-3
-1
-3
4
17
3
0
0
-1
3
-8
2
-27
-6
-4
-2
-2
4
6
3
6
6
3
1
0
1
-3
1
0
-9
-3
-1
0
-1
7
-2
3
8
0
1
-2
-2
16
1
3
4
2
3
2
5
9
7
-5
1
0
2
1
4
-4
-4
-2
-6
5
1
1
-1
-22
-9
8
6
-6
-4
-5
-6
8
5
4
-1
-1
-1
3
-2
26
-2
-10
-2
0
2
0
4
-15
9
7
1
-3
-3
-2
-3
-16
-11
-1
-12
-3
-4
-4
-5
-6
-6
0
0
-6
-4
-8
-9
-21
-10
-2
-10
-7
-4
-1
2
31
14
-12
16
9
6
2
4
21
6
-7
-6
-3
2
3
9
-4
-6
-1
1
-1
0
0
0
-35
0
-1
-9
-4
-2
-3
-10
-34
-24
-2
16
7
1
0
-6
-42
-5
-20
-2
-1
0
4
5
41
-1
18
-18
0
-2
-10
-10
-60
0
6
20
-4
-4
8
-5
38
3
-3
-1
-1
1
-6
10
-6
-12
0
-5
-3
-10
-18
-2
22
10
-1
7
6
4
3
6
15
-3
-19
-25
-15
-9
-3
-5
-78
4
18
11
9
8
8
-7
39
-4
-49
-24
17
5
4
-1
35
-11
-14
-21
-25
-12
-8
8
74
7
32
15
20
-1
7
-12
-44
-15
-14
-8
-10
-1
-3
-9
-9
31
-6
-28
-19
-6
-17
-29
-70
-59
9
27
2
-2
14
-4
40
73
-26
9
-11
-3
-11
-3
86
-23
19
29
17
-9
-20
19
41
15
15
15
4
7
10
-3
33
-4
-11
2
-19
-6
-6
-6
-23
43
-3
-21
11
5
13
28
-118
40
41
-15
1
-7
-9
-35
11
-5
-42
4
-4
1
9
13
37
-47
19
32
5
-9
-4
4
-2
9
-14
-19
-17
-9
-31
-14
56
31
-34
-5
-3
11
16
7
-79
-52
8
15
8
7
5
6
-65
59
41
17
8
0
29
18
-5
-20
9
-3
10
17
4
2
62
39
-31
20
-15
-9
-13
6
67
19
32
10
-4
-11
14
10
31
-41
-40
-37
-12
-22
-80
-19
-116
-66
19
33
6
10
13
-48
43
-35
-17
-78
-23
12
27
28
-31
66
-6
17
10
6
8
-34
-48
-41
-21
-25
13
-3
8
3
-5
14
31
1
-2
-8
-7
0
43
-35
5
-6
-23
-17
-3
12
-77
31
-40
-11
4
-2
-2
6
-10
13
26
-7
8
5
15
5
-20
24
35
-18
-8
0
-15
-7
10
20
-1
9
25
8
1
3
20
-29
37
24
-8
-10
19
19
-14
34
-19
-29
-16
14
-20
-7
-30
18
-4
9
10
-8
-13
-6
59
-8
-8
-10
-8
-4
-19
-18
110
-59
18
13
0
3
0
33
-98
12
27
13
-10
9
22
-24
38
-15
-38
-24
-8
-1
11
7
-55
10
28
19
6
-7
-6
-1
8
-16
-3
-15
-10
5
-7
2
35
56
-18
45
13
3
17
18
7
-85
-16
-36
3
-4
-14
13
-74
59
26
48
-7
-8
1
-27
-34
-41
-38
-1
5
5
9
10
-22
2
32
-29
-3
-11
-26
-29
10
-33
-26
-14
-4
2
5
4
36
-13
44
28
5
6
11
16
-60
-37
-47
-17
-1
-1
-7
-17
87
37
-27
7
7
-1
-6
32
-50
34
14
11
2
-1
1
-6
-42
12
-11
-10
0
-14
-19
-14
8
72
20
-12
-11
6
3
-7
-30
-47
7
-2
-1
10
29
6
94
32
-7
9
4
7
-1
21
-22
-81
-27
2
-8
-2
10
10
6
44
20
17
11
2
-12
-14
0
-14
24
1
-5
-14
-10
-7
33
22
26
25
-4
0
5
21
-23
0
-33
-42
3
4
2
-9
-39
-21
30
-15
-6
-4
-10
-3
-38
1
-15
-14
8
3
4
-17
20
-16
-17
19
-2
-5
6
5
10
23
40
0
-1
-1
-3
-2
15
-6
3
9
5
2
4
1
44
4
-17
7
4
-2
-6
0
6
8
38
3
-3
-5
-5
-10
-45
-10
-88
-37
6
10
10
-9
6
-9
18
-2
-14
-26
-25
-8
51
12
1
9
-3
14
9
17
-32
-19
-10
-2
6
5
8
5
89
-10
17
-7
-7
-7
7
0
-25
-3
18
5
-3
-3
6
4
26
1
-45
-30
-4
-4
-10
-16
-55
-40
-16
0
7
5
0
-10
36
31
18
10
3
2
1
0
7
24
44
8
-2
1
-4
0
-14
-26
-39
11
1
-1
11
15
-20
-11
-31
-24
-9
-2
2
-1
-23
9
-14
1
17
7
1
12
-14
0
8
9
-7
-5
-13
-24
-26
-12
24
-11
6
8
6
-12
28
24
13
-1
0
5
8
14
-41
-10
19
8
-6
-9
-3
-2
45
-6
-28
-5
1
-3
-19
10
6
34
11
4
0
-1
0
-10
-16
-6
-22
-19
0
-2
3
-11
18
-14
-5
-14
-5
3
1
14
0
2
6
-4
-9
-5
22
-24
-2
14
8
13
0
-2
-20
15
-11
-8
-2
3
-10
-10
-14
-12
-34
-8
-19
-12
5
2
-1
-12
-4
30
-12
16
15
4
10
9
46
-27
-10
-16
-12
-8
-3
6
-9
-4
24
19
3
0
9
-3
22
3
-11
-21
-5
7
-18
-4
-16
8
-19
-5
8
1
7
2
52
39
-12
6
7
3
3
0
5
-15
11
-9
-2
0
-7
-5
-71
-4
2
4
-5
-4
7
-10
-24
-6
-2
5
-5
4
-3
6
-82
-18
5
-3
2
-1
4
1
-16
17
-10
6
-2
-5
-5
-7
9
-15
-4
-6
5
-7
3
5
-6
-36
16
12
-5
14
2
-10
36
14
1
-6
-9
-1
4
-3
38
-2
7
10
6
-1
2
2
7
10
17
10
-4
-5
-4
8
-37
-3
-27
-8
-3
-2
1
-11
15
7
37
-3
-14
-1
-10
-8
15
30
-18
1
6
0
11
8
31
-18
-15
13
-4
0
-21
1
24
-11
-18
-1
-7
-6
-1
11
-26
0
3
-5
1
2
4
16
7
-12
-26
-15
-6
-2
-2
8
4
-8
26
-2
15
2
7
4
-2
7
-22
-19
-10
-5
-9
-6
-107
-4
-1
-6
10
-3
0
-25
39
-7
11
22
0
1
4
14
-17
-42
-5
-21
-9
-8
-3
-12
5
8
1
-29
5
3
0
5
-12
-26
-17
15
12
1
5
17
-24
34
2
-23
-2
-7
-21
-32
32
2
4
13
-3
3
6
6
-6
19
4
11
6
7
4
-9
39
5
-3
-1
-13
6
-5
13
36
-13
1
-3
13
1
11
14
3
10
-3
13
-4
-5
0
-5
33
4
0
-18
0
-9
-22
-5
3
27
8
38
-1
1
14
4
-43
-31
-29
5
-2
0
-7
-8
-16
10
7
1
-5
0
-10
4
1
-8
-2
-3
-2
-2
9
12
-21
-2
15
19
7
-4
-1
-5
-4
15
15
-8
3
6
8
6
14
-1
-6
17
6
-1
3
2
-42
38
12
-17
-9
-10
-9
1
-18
-2
-8
-11
-5
-9
-1
-21
-5
-26
1
2
-4
1
-7
9
5
30
25
9
-8
-5
-8
-16
-4
-50
-2
-10
3
-1
13
4
68
-8
-19
-18
-13
0
-18
-6
11
8
14
14
5
3
9
-2
0
2
-14
-7
3
7
12
11
40
5
29
-8
1
-4
-12
3
-30
23
-13
1
2
-2
8
-8
-19
-44
-20
-26
-15
-3
-8
-8
0
3
-3
-54
5
1
2
-14
14
1
-2
1
10
1
17
27
39
13
30
1
5
1
-10
-14
11
17
-19
-26
-10
-3
-4
1
31
-3
-4
41
8
4
8
2
-58
0
9
-2
-2
-2
-17
-16
-26
-5
-28
-7
-3
-2
17
16
34
-29
-1
13
1
-3
2
0
-55
22
18
-6
-8
-5
-9
-2
44
2
-25
14
0
4
-10
-5
-17
-18
21
9
3
4
6
5
-46
8
9
14
-5
-4
-4
-2
39
7
-18
3
-3
-10
4
-8
81
40
13
18
3
15
-2
3
-22
-81
-1
-22
-3
-4
-6
8
16
20
5
8
1
1
7
4
-5
-39
-10
-4
4
0
-2
-2
-33
3
-6
12
-4
-3
-6
-11
-32
14
-8
-6
-4
-5
2
7
44
28
9
-2
-2
-1
-1
2
-42
-35
-31
-23
-11
0
-2
-4
5
-35
43
6
-1
-7
0
9
8
18
-11
4
2
2
-9
-20
0
6
-3
13
2
-4
15
-7
-15
3
2
-2
0
10
-6
-8
-39
8
10
-8
-14
-6
-1
6
61
4
14
18
5
1
3
-1
-20
27
-14
-38
-5
-9
-9
-6
-7
-18
0
-2
-8
-9
-4
5
-32
-12
-21
-18
-4
2
5
-8
37
20
15
2
3
9
1
4
-28
-10
5
15
-2
-8
-7
3
17
6
7
4
3
7
12
7
2
17
-9
7
-4
-5
2
3
-7
-48
-21
13
3
-1
-12
3
-8
11
3
-26
8
5
-8
-7
-26
-2
24
12
-4
-5
-1
-2
25
-23
-28
-6
-6
-7
3
-11
-10
24
-18
2
-5
-1
-6
14
-29
-9
8
-2
-3
0
8
-4
24
-7
18
5
-3
-1
-21
-5
19
-7
4
29
17
6
4
-18
-1
32
4
-22
-2
-5
2
6
6
-32
-12
19
2
0
10
15
30
35
-3
-19
0
1
-3
-6
14
-27
12
5
2
7
10
6
-33
1
-13
-4
0
-4
2
-5
-24
9
34
-24
-3
0
-16
-13
32
13
-53
31
7
14
19
21
-64
-15
-9
-17
-6
-10
-23
-12
-21
-23
17
5
-4
-1
9
1
0
5
-32
-9
-6
4
10
-12
-31
3
0
-6
-1
-6
-11
14
-9
6
22
-9
6
8
-7
-13
55
4
-3
-5
1
-8
2
8
-72
-2
-4
20
4
-2
3
0
12
-14
6
-25
-7
-9
-1
-9
23
11
14
-5
-6
4
-3
13
-32
4
-22
-16
-1
-4
-16
-3
72
10
-17
-44
-3
-8
4
-1
-101
-17
20
-50
5
9
13
-16
41
5
-4
-63
-1
-2
3
18
-29
3
11
-15
-7
1
5
-16
-12
-5
-20
36
3
6
8
20
32
-4
7
34
-9
-12
-26
-22
13
40
3
17
-7
-8
-5
10
-4
3
13
27
4
3
-1
-19
-43
-4
0
39
7
-1
-4
-1
30
-55
-14
21
-8
-3
4
2
14
5
7
39
7
2
16
14
5
-8
8
20
-1
-5
-27
3
-52
-2
1
15
-9
-2
-6
-6
59
31
4
-13
-8
-2
18
17
-57
-30
-26
-5
-4
-6
-18
-35
-42
-11
-37
-12
-6
-2
7
8
90
3
42
1
-12
1
-16
-29
9
10
-35
3
19
11
10
13
-9
-17
-9
-2
-7
-11
-7
7
-12
11
32
8
10
3
4
-13
21
-40
-24
12
5
-1
-6
18
15
34
20
-6
-8
2
-7
-1
-5
-26
-12
6
-4
2
5
3
-19
14
-25
-47
-7
-7
11
-1
-6
-32
23
38
10
3
8
-1
-3
7
9
13
-7
-8
-11
6
-63
-7
13
31
14
2
4
-15
19
3
1
8
-7
-2
-4
-4
-43
-13
-25
-10
1
10
9
8
-11
-9
-14
-16
-13
-10
-4
-23
41
24
4
-4
5
11
13
22
-48
-14
7
-12
-7
-7
-12
-18
77
2
13
-1
-15
-12
-10
0
-31
-22
-4
25
20
1
-2
-23
25
39
4
2
-2
4
2
2
56
3
7
6
8
9
7
22
-64
10
31
6
19
11
5
5
24
16
-11
-2
-9
-5
-9
-4
-21
-51
-6
-10
-9
-22
-10
-22
-18
-45
3
15
5
19
6
3
39
42
-10
-29
-3
-1
16
43
-49
-18
11
2
-4
-7
-9
-39
-15
14
-19
5
3
4
-2
-9
67
29
7
-17
0
-9
-4
8
28
-16
-1
8
-6
-6
-8
0
-7
12
5
-4
-9
5
10
23
14
-4
-31
-20
2
-5
1
1
-9
-13
-13
8
1
-6
-5
-3
-39
24
14
-19
-6
6
6
-18
-9
15
4
-3
7
0
0
12
59
-56
-11
6
-6
-1
-8
9
-45
10
-4
0
-7
-5
-3
-6
5
13
12
-10
-2
-3
-5
-4
-25
8
3
3
0
5
-3
7
0
-5
6
-14
-3
3
7
8
23
11
14
25
4
5
-6
-13
44
1
-28
17
-8
-8
-8
-5
-67
-41
3
-35
-9
-8
-4
-18
11
10
14
36
3
-3
5
-6
70
30
-5
2
-1
-6
5
16
-20
-7
30
-9
0
6
-3
-8
51
15
-7
3
0
1
5
26
-85
29
9
-6
1
-4
5
-11
-14
-15
-9
-1
-10
-10
-35
-9
-7
1
-20
-4
3
8
5
-5
-7
-4
-6
5
4
1
19
6
25
14
9
-18
-2
8
-5
2
-18
-7
5
-2
-4
-7
9
-5
14
-7
-10
-6
-1
-3
-12
-10
-1
-5
6
2
1
-4
-6
0
20
-4
-8
1
-2
-3
-3
-3
-14
-1
0
-2
-1
6
13
1
-12
-11
-13
-9
-4
-9
-11
0
15
3
2
14
1
-1
0
1
-7
4
-2
-7
-2
-110
-5
1
-3
-11
-8
-5
2
-120
10
0
14
5
1
1
0
-62
0
-4
-9
7
1
-1
2
8
-14
-3
-12
-15
0
-9
-4
75
-8
1
-21
-1
-1
-6
-2
94
5
1
10
17
-1
-2
0
78
4
4
-4
-16
5
-2
2
71
3
2
1
-2
-4
-3
2
73
-3
0
-1
0
2
-7
-3
55
1
-3
-9
-1
-3
-2
-2
39
-5
-2
3
0
-8
0
1
22
-2
3
4
9
3
-1
0
22
-4
0
-9
-4
-3
-1
1
27
1
0
-12
-1
-2
-6
-2
11
-4
-2
0
3
1
-3
-1
-6
0
-1
6
0
2
1
-3
2
3
-1
-11
4
-2
-1
1
8
4
-6
-4
-3
-5
-6
-3
0
-5
-2
5
1
-5
-5
-3
-16
-4
1
2
6
2
0
-2
-1
-1
5
-4
-1
8
2
2
5
-1
1
-2
1
12
4
1
-3
0
-3
3
-1
-1
7
-1
-6
3
-3
-1
4
-9
12
-1
3
1
0
-5
-3
6
11
-2
-4
-6
-1
2
-3
-15
9
-1
-4
-6
-3
0
4
11
15
-1
-5
3
1
6
0
-19
3
3
-3
-2
2
1
2
12
4
1
2
7
2
-2
3
16
5
-1
-6
0
3
3
-3
-16
-6
-1
-6
-4
1
2
2
6
1
2
-10
0
0
-2
0
4
0
0
-3
-3
1
-2
-3
-19
-6
-1
-5
2
2
1
4
-1
0
1
-4
6
3
1
3
-5
-6
0
-5
-1
0
1
13
32
5
1
-15
-12
2
-1
-11
-28
-6
-3
2
10
3
-4
-9
6
-9
-7
-8
-18
-1
3
-9
-1
7
3
7
18
8
-1
-25
8
-12
-3
-6
-8
-1
0
-12
17
7
0
3
9
0
2
-16
-32
-7
0
-2
-10
-2
-1
-10
-2
0
1
0
-4
-4
-1
-8
-9
-2
-1
-1
2
-3
-1
-6
8
1
1
-10
-2
-2
4
-2
12
2
3
0
2
1
3
3
6
-7
-6
-12
-2
0
2
0
-22
1
-2
-5
-6
-2
1
-3
-13
-14
-3
2
0
2
-1
9
21
6
6
10
10
-2
-4
1
-19
-13
-2
-3
-2
-12
-12
-13
-41
0
-4
8
2
-10
-10
-10
-41
-32
-17
-11
-10
-16
-4
10
12
-2
-1
-4
-4
-6
0
5
28
-4
9
-3
4
-3
-2
9
-21
-4
-1
1
-3
-8
-10
-14
-60
-3
-12
-13
2
0
-5
-3
-7
-6
-9
2
0
0
-1
9
14
9
-2
4
-12
-1
3
5
-15
-22
1
-7
5
0
8
29
77
37
18
8
0
-1
-1
-16
-81
-35
-7
-31
-16
-5
-3
11
74
20
6
34
25
-3
-8
-21
-51
-4
-12
1
1
3
-1
4
-15
-15
-2
-11
-5
2
1
1
43
1
-5
-20
7
4
-1
5
12
5
4
16
-20
3
1
7
-15
-5
3
5
10
2
13
3
-37
4
10
0
-7
0
-8
-1
50
-6
-11
4
5
-6
0
-13
-47
4
-2
-18
5
-6
2
19
71
19
8
9
-13
-5
1
6
19
31
13
5
3
3
-9
-22
20
-28
-12
-7
-4
-9
1
2
12
-16
-9
-18
-12
-6
-1
-9
18
11
-5
-13
12
-2
8
11
31
16
10
15
5
-3
10
-1
-12
6
6
11
12
-3
1
-9
-7
-8
-8
-3
-1
-2
10
13
40
14
5
-7
-6
1
-1
-10
-37
-21
-10
-9
-6
-2
-5
-18
-72
-23
-6
-2
-2
4
-5
1
9
-4
-5
5
7
6
-3
2
11
-2
4
4
2
5
-12
-4
32
-12
-5
-2
-16
-4
-2
11
10
36
11
7
3
2
-6
-5
-25
-5
-3
-10
-13
-4
-8
-8
-16
-23
-7
0
-1
-5
-11
-5
-19
-3
-4
-8
7
-1
-2
-2
-24
-5
59
4
-4
-2
-2
1
18
9
66
-2
-2
0
-2
-7
-18
-21
19
-5
-5
-1
5
-2
30
-4
1
-1
12
-1
6
4
-15
-1
-37
2
1
2
7
3
-1
5
-38
-1
-3
-1
1
-7
-25
9
-31
-5
0
-1
-3
-2
8
6
-22
-7
-6
2
1
10
17
14
-12
4
-2
0
-4
-11
-27
-20
-17
-2
9
-2
-3
3
11
3
-12
-3
0
-4
-3
0
-4
-6
-9
1
-8
-1
0
3
19
21
5
-2
9
3
-1
-3
-33
-3
-1
-8
-17
1
5
4
16
3
5
5
7
5
-3
-14
-4
-8
-2
-7
-14
-4
5
10
18
-9
8
10
-1
-2
-2
-10
-26
5
-13
-4
-6
-1
0
0
24
13
0
0
-3
2
4
3
-33
-1
6
0
-2
2
2
1
8
-4
-2
-1
-3
2
5
4
8
-4
-1
0
1
1
-4
-10
-22
-5
7
1
6
-1
-6
-7
-21
1
1
1
-8
-2
-5
-1
-14
-2
-1
-2
-4
-3
-4
1
11
-2
0
-4
10
2
-1
1
-14
-3
1
3
-9
0
-4
3
18
4
-2
5
1
0
-6
-1
4
3
-5
-5
0
-2
-3
-1
9
2
2
3
4
2
-6
7
-2
-7
0
-2
2
4
-7
-9
2
-10
-3
-8
-3
-2
-5
3
20
7
0
-3
-9
0
-4
0
-12
2
1
0
6
0
-3
4
-2
-2
0
-2
21
2
-1
-3
17
-2
5
7
-18
-2
-2
-3
-1
6
1
6
-2
0
0
-4
-10
-7
-3
-2
-7
0
3
0
-3
2
1
1
-3
-3
6
16
26
7
4
-6
6
-1
2
-14
-33
-16
-8
-7
-1
-4
-4
-18
-25
-23
-5
-4
-7
-1
1
-2
8
8
0
-7
0
-1
0
8
64
6
1
7
14
2
0
1
-68
-10
-1
2
-8
1
-1
4
22
4
-3
1
1
2
-1
-4
-12
-6
1
0
-7
-1
0
-1
11
2
0
-4
-3
-4
-2
3
23
7
-3
-3
8
0
-4
-4
-29
-5
-1
-5
3
-4
-1
-2
4
-3
-7
-3
-20
-4
-1
-2
-31
-1
5
-3
-4
-5
-1
5
50
2
-1
0
7
-1
2
-1
-7
2
-1
-5
0
-2
2
0
18
-5
2
9
5
-2
1
-1
-2
-3
-3
0
10
3
-4
-5
-1
-2
0
-2
3
-1
-3
-1
-5
1
-5
-2
-3
-2
0
-6
-12
2
-2
-7
-1
-1
-5
3
18
-1
1
0
0
1
0
6
-1
7
1
-2
0
1
-2
-1
8
-2
-3
-2
-6
1
3
0
1
5
1
0
-1
-2
2
-9
-24
-2
2
0
1
0
1
1
-2
1
-1
0
-3
-3
2
14
22
2
1
-2
-1
0
-1
0
-19
1
-2
1
-1
2
1
3
0
-6
5
0
2
2
-1
-9
-5
-1
-1
-2
0
0
3
-1
17
11
6
2
-1
0
1
-5
-12
-4
0
-3
-1
-1
-2
-4
23
0
-7
-2
-1
-2
4
2
12
2
-2
-2
-4
-2
5
-1
-1
1
-2
1
1
0
-1
-3
-1
-2
-2
-2
-2
-1
-8
-3
-9
-3
-1
-3
-2
-2
-4
0
-2
-2
0
-3
-2
-2
-6
-4
-3
-1
-2
2
3
1
-2
0
-2
-10
-6
-3
-1
0
1
0
-12
11
4
2
-2
-1
-2
0
7
5
0
-1
0
1
2
2
-9
-5
-3
1
0
0
-1
1
2
-15
-5
-1
-1
-2
-5
-4
7
-3
-4
-1
1
0
-5
-4
-27
1
-1
-1
0
-1
9
-1
-1
-3
1
-1
-3
-1
-5
2
3
2
0
0
1
-4
4
-4
-12
-8
-6
-4
0
-3
4
1
9
-1
2
-6
-2
1
0
1
0
-1
-1
-1
-2
-3
2
-1
3
6
4
3
0
1
2
2
-7
-8
-4
-1
0
0
3
0
5
5
3
1
0
0
-2
-2
4
2
0
-1
-2
-1
1
1
1
1
1
2
-1
2
-2
0
-8
5
0
0
-1
2
7
-4
-4
-12
-6
0
0
2
-3
-5
2
6
0
-2
-2
-2
-10
-4
-8
-1
4
2
-2
-3
-6
-2
-5
-6
-4
-2
-1
1
-1
0
7
-7
0
-1
-1
0
1
2
0
2
0
1
1
2
2
-2
-7
-1
1
0
0
-1
2
2
0
-2
-2
-1
2
-3
0
1
3
4
5
0
5
-6
-11
0
0
1
3
0
5
-3
7
-6
-2
1
-3
-2
0
4
0
-2
-1
-11
-5
-4
-6
-4
4
-2
8
3
-1
-3
-5
-3
-1
1
-6
-6
-4
-1
-4
-5
-28
-3
-8
11
-4
-4
-4
-2
-4
-7
-4
-7
-1
-2
-2
1
0
-2
-18
-3
-3
-1
-2
-2
3
2
8
-5
0
1
-2
0
12
0
5
-1
-3
-3
-2
0
10
0
2
3
1
3
0
1
-9
-2
7
-1
-3
-1
-1
2
-3
-5
-6
-4
-2
-1
0
-2
-5
-7
-6
-1
1
-1
0
-2
14
1
-1
7
-5
0
5
3
-13
2
-1
-6
1
-2
-1
-2
9
-3
2
5
-2
-3
-1
2
-27
-7
-2
-3
-1
-2
-4
-2
-4
3
3
-6
-1
-3
-2
-8
-18
6
0
0
-5
-3
-1
-3
20
-9
-3
-8
-5
-2
-1
0
6
10
1
9
1
3
5
3
-22
-13
-10
5
8
3
1
0
-37
-7
2
4
-6
0
-2
-5
-28
-5
-1
-7
3
-6
-8
-9
34
1
-6
-18
-6
-4
-1
-1
29
6
15
12
-3
-1
3
10
20
-6
-4
-6
-7
-2
2
8
-37
-4
30
10
6
2
-2
-11
34
0
-24
9
-9
0
3
-1
-78
1
-4
-1
16
4
-5
8
61
-2
12
-5
-5
-9
-9
-8
-43
5
-18
12
-1
1
4
2
29
18
23
2
0
1
5
11
17
-12
17
-8
-8
-2
-2
-5
-34
-1
21
4
-4
-1
-2
-3
30
-2
-33
-15
-1
-1
-1
0
-6
-18
36
38
5
-1
1
-3
-15
-28
-30
-20
-10
-12
-8
-5
55
21
12
12
11
11
3
2
-70
31
3
0
-5
1
-4
-1
33
-41
-18
-55
8
4
2
4
-63
17
12
11
6
-3
4
-25
18
-12
12
-6
-17
-9
-11
-2
11
5
-34
-9
6
-1
1
-3
78
-9
2
5
6
2
0
10
-41
19
15
-10
2
0
-5
-17
-2
15
-15
-4
6
3
11
17
6
4
-13
-19
-7
-5
0
1
-57
-22
10
6
3
-10
-7
-10
-2
-6
11
3
-13
-3
-4
9
63
11
-27
22
15
3
5
-1
-25
38
-1
-25
-6
-1
-1
9
-58
-6
-27
-25
-14
-4
0
-8
-3
21
19
23
6
-3
9
-6
-51
-7
17
-5
-3
6
-15
-9
-12
-29
-21
6
0
-11
-5
19
-128
4
-9
-4
1
11
-3
-40
127
12
4
-5
-13
4
2
27
-43
-55
-6
20
7
5
5
9
3
-5
46
2
-4
-8
-7
-13
-41
50
-3
3
6
-6
7
5
3
-17
-9
-3
-6
-4
-10
0
55
30
-33
3
-2
-4
-4
0
-52
-22
6
-1
-2
5
9
-16
13
19
10
-13
-2
5
-12
17
-67
-13
-54
-3
-3
5
9
-12
-22
11
-12
-20
-7
-4
0
-2
-31
-35
18
24
3
2
4
-4
-36
50
23
21
-3
1
2
-12
28
28
-16
-11
7
3
-4
5
-11
-50
-17
-23
-6
-13
-10
5
60
21
-8
38
7
18
23
11
69
35
45
-17
6
-4
-3
-4
-18
-36
-16
16
4
-8
-23
-7
-4
28
-2
13
-6
0
25
10
122
34
2
-27
-7
-1
-14
-2
-24
-9
-1
53
-1
2
-3
3
0
-20
1
-27
-11
-10
-1
-12
18
1
28
14
4
2
-13
2
11
-25
-43
0
-1
3
-11
2
47
29
11
0
-3
-2
1
3
83
-2
-4
15
0
-3
6
12
-104
12
5
-15
3
7
7
-22
89
-11
16
-2
-4
-10
-3
28
-32
-19
-1
1
-5
-6
-4
-11
-18
5
-3
16
3
1
2
4
37
-42
-34
-8
0
-6
-6
6
-21
29
43
-11
2
7
16
-1
23
-31
-25
6
9
7
8
10
-52
-27
-4
-17
2
-1
-6
-19
17
25
-16
28
-2
10
4
14
-16
10
20
-11
-1
-24
-24
-13
0
-18
-30
8
-3
-5
0
0
-27
22
36
-18
-7
13
9
-7
-12
1
-14
4
20
9
-1
1
-69
-25
-28
15
-7
-1
0
9
-80
-8
22
-36
-11
-11
-7
-16
32
-4
-4
22
8
0
3
5
-28
10
-6
-11
-8
-7
-2
-15
13
0
13
8
2
6
6
5
2
24
-8
-8
-3
-2
0
18
20
-2
5
-8
-4
-8
10
7
-33
-50
-7
-28
-8
0
-21
-17
42
28
-8
26
14
11
4
8
-11
-7
8
-7
0
-5
5
3
89
-7
-2
-12
0
-2
5
-1
-25
16
39
2
1
1
5
-6
66
-33
-36
2
-2
-4
-5
12
72
35
21
-23
-4
-3
12
15
-107
-34
-2
-4
-3
4
-16
-15
-43
12
4
23
-11
-5
7
-3
50
-12
-7
-23
-3
3
3
-4
3
-18
-16
3
9
3
-6
-17
-59
-7
-3
-18
-14
-9
-7
-8
58
-7
-7
-54
12
4
3
7
-54
34
31
6
0
1
-6
-10
31
-14
-17
0
-4
-1
-5
2
1
17
-6
6
-7
1
-3
-5
17
-16
-9
-12
3
-2
-1
5
-38
18
22
25
8
2
14
-3
21
-20
-16
-11
-6
-3
-12
1
-10
2
-2
16
4
3
-2
-2
35
31
33
8
-7
-19
-4
2
13
-40
-16
-19
-7
4
3
-2
46
6
-1
-7
-6
7
-6
1
18
31
16
10
3
2
10
5
-61
-9
-17
0
3
2
4
5
-5
-29
3
-17
-4
-14
-8
-16
-14
-7
2
-4
-4
-4
-1
2
67
21
-20
-4
13
9
3
22
3
18
-6
14
-6
-5
-1
-9
-8
-30
-23
-24
2
1
-4
-9
7
5
-1
1
-14
-1
3
6
11
-1
10
15
11
1
2
0
-54
12
20
14
0
2
6
-6
-20
3
13
9
-8
-3
-5
-8
43
-54
-46
-22
-6
-7
-10
0
-15
-33
28
3
-6
-12
-4
-3
-9
-7
-48
5
-1
5
-1
-2
25
1
3
-8
-5
-6
-1
-1
19
18
8
5
1
3
-6
2
-63
7
-14
4
3
5
11
-9
15
-20
6
-23
-4
-3
-11
10
-42
32
-4
14
1
3
-3
-20
-17
-2
17
36
7
-3
4
-4
-28
-4
8
-18
-9
1
2
-5
127
-11
29
-4
1
-4
-5
15
-46
31
-10
-10
-2
-2
-2
-4
-81
-22
-25
16
5
-2
-3
-12
101
29
1
2
6
1
-2
17
-13
-24
-11
-14
-9
-8
0
-8
-1
-40
14
25
0
1
0
4
-66
13
9
9
4
2
0
-11
65
14
16
8
-3
-3
2
16
-36
-24
-28
-16
-4
-6
-15
-8
2
-2
4
-6
-1
0
2
5
6
7
1
16
3
10
5
2
-20
11
-2
11
-1
-5
-10
-6
41
41
16
26
5
8
17
16
-58
-50
-8
-22
-2
-5
-8
-19
7
1
12
-7
-1
-7
-1
-4
-3
9
0
4
2
1
-6
-3
-45
-1
-1
3
-4
-2
-7
-18
53
10
-12
1
-1
-3
-3
21
-17
-2
-1
-11
7
2
0
-6
34
-32
-9
-17
-10
-1
14
18
-11
6
6
25
5
-2
-14
-29
17
-15
-52
-30
8
3
-2
2
18
16
30
21
1
0
-2
8
-27
-12
-18
-21
-14
-8
-2
-2
-27
0
13
-12
2
1
0
1
-79
-17
7
30
7
8
17
3
6
-8
-1
-1
-8
-2
-4
-5
20
2
5
-13
6
-1
-2
-2
-21
5
8
2
-4
0
-2
4
0
5
12
-17
-10
-15
-6
-3
54
-3
-45
-8
-3
9
-1
3
-48
-38
3
4
-6
2
11
6
37
31
10
-5
-6
-3
-16
-19
81
-8
13
2
-2
-6
-2
17
-6
-3
14
0
2
-3
-1
-2
-18
15
-29
-12
-10
-6
-12
-8
-15
-7
-6
-9
-3
3
13
8
13
28
8
-4
6
-1
-6
-2
-25
-22
-16
-6
-2
-4
0
-2
-29
49
2
-5
-3
1
-5
-14
57
-40
-17
3
7
6
14
32
-29
25
19
11
-4
-1
1
-9
-65
-42
-5
-19
0
-5
3
-5
5
-7
-3
10
1
-2
-11
-5
-21
33
2
0
-7
-11
3
1
-6
-12
-8
-1
0
4
-18
-9
11
12
19
-9
5
9
13
3
-8
-23
1
26
7
-2
-2
-2
-2
6
1
-20
-7
-5
1
-4
78
13
5
1
2
10
-5
4
-18
1
12
-1
-6
-7
4
-5
17
-6
-9
5
-1
5
4
-1
-16
-63
-13
-39
5
-1
-3
2
7
20
-1
31
2
-2
5
3
-21
6
-12
-14
-14
-6
-10
-11
63
-2
5
6
8
3
10
8
-16
3
1
14
-1
-3
-4
-5
-15
-6
5
1
4
5
8
2
-1
1
-27
-2
4
-2
-4
1
9
0
-3
0
-3
-6
-11
-3
-11
3
14
-1
-5
2
5
-2
-18
-17
8
-3
-5
0
1
-10
50
47
14
20
-3
-6
-8
1
-27
2
-13
-14
1
4
0
-4
-12
-28
-19
1
-2
-3
-4
-6
-30
3
-8
5
-6
-4
5
-2
32
5
-4
-5
1
0
5
10
-33
5
-5
-9
3
0
-3
-1
15
-2
5
2
-7
-6
-7
-7
25
11
-16
-42
2
5
1
7
-35
-9
-11
-9
0
-1
-5
3
-12
3
0
7
-1
-7
-6
-8
12
29
11
15
-1
9
12
13
-72
-11
-10
-5
-1
0
6
-10
66
-23
-2
-1
-2
-2
-7
7
-27
-16
1
-20
1
1
5
4
-7
3
6
9
-3
-1
1
-7
5
-1
-14
0
-1
1
-5
-1
-26
11
-8
-48
4
5
8
7
21
-14
6
27
7
-2
-2
5
3
19
-6
14
4
-3
-9
-10
-17
-5
28
-9
-6
-4
8
4
-6
3
-14
-2
-3
-2
-4
3
-38
-23
-11
-18
-7
-4
-14
-12
0
-1
-3
-15
0
1
1
1
-16
1
-1
33
1
-1
-3
-3
3
5
23
10
3
2
11
0
29
1
-2
-2
-2
4
-3
-6
24
12
7
13
4
5
2
5
11
-14
-29
-31
-11
-13
-13
2
-51
-24
0
-1
-3
8
13
-3
-13
6
4
-4
0
-2
-3
-17
54
13
-9
-2
2
2
0
5
13
-14
15
14
-11
-13
6
-1
2
-10
3
9
12
13
-3
-3
-1
10
-10
-22
-7
-1
2
4
-13
-12
5
11
-13
-8
-8
1
-10
29
-5
4
8
6
4
3
-13
-11
5
4
0
-8
-5
-13
21
46
5
14
3
4
8
-1
26
-28
-15
-14
-11
-7
-2
-6
35
-6
7
2
3
4
-3
6
5
10
13
16
1
-2
-4
-13
26
13
-8
-14
-2
-4
5
2
22
3
4
-3
5
1
-20
2
-31
-25
-21
-8
2
0
6
-4
34
-15
-6
4
0
-1
-2
-1
-23
-16
7
14
-4
-8
-2
2
-11
15
8
-5
1
7
7
6
-32
38
-8
-9
5
-1
-5
-13
-20
-19
7
-12
-3
4
6
13
-53
-11
1
10
-5
-4
2
-10
-19
-6
15
-9
-2
-3
-2
-2
-43
7
16
7
1
3
0
0
48
1
-44
-1
-8
-7
-6
-8
-22
-1
-5
-3
1
-3
-4
0
-99
-5
21
-45
-6
-1
2
-1
107
-10
-13
12
-7
-1
0
11
-40
30
6
7
1
-2
-1
-1
35
-1
-10
-10
-3
-3
-1
7
-46
1
3
16
-1
10
-7
-10
7
-2
8
4
2
1
6
21
4
-2
-6
11
-7
-14
-20
-43
33
52
1
18
11
7
14
18
-65
-68
-2
3
1
-5
0
-12
18
-32
2
7
-1
-3
-18
-11
4
6
18
9
5
5
7
16
22
15
12
-9
-4
7
-1
-1
26
-12
-20
1
-1
-7
4
-1
-41
-3
12
-15
-4
-5
-11
-28
-2
0
-17
5
-3
-4
18
14
-20
-9
14
11
1
7
-6
-17
16
30
-28
-23
3
3
-2
1
1
-21
11
23
-7
-4
-4
-2
-54
21
-30
-26
-7
-2
-9
1
-12
-20
-2
3
1
1
7
6
27
13
0
5
-6
-8
0
7
-53
12
-6
-2
-5
-4
-3
-15
36
6
14
-3
1
-3
-3
7
-28
-28
8
-4
-2
-3
-3
-7
-8
-27
-30
1
7
-6
-11
1
18
20
12
-2
-5
2
23
15
-48
21
5
7
0
0
-15
-3
78
-39
-15
-38
-10
-1
-8
8
4
-2
24
26
4
-9
-1
9
73
17
-3
-5
7
10
7
6
-59
-33
4
-11
-3
-2
2
-11
-66
13
-17
12
0
-2
2
-8
79
30
23
14
-9
-5
-5
0
-19
-35
-22
-1
-1
-4
-5
5
36
-7
11
-3
9
6
9
8
-8
13
4
-6
3
-1
-8
-2
-14
-36
-17
6
-1
0
5
-14
47
35
3
-15
-12
-9
-5
13
3
-2
5
10
1
0
-4
-15
-11
-7
16
0
-3
-5
6
5
5
26
-8
-6
9
8
2
-1
-49
-7
-12
9
4
-1
-1
-6
18
-10
-5
-4
-3
7
0
5
29
5
11
-3
5
3
1
4
-2
7
15
7
0
-1
2
-4
-9
-9
-23
-11
-4
-7
-11
-9
16
3
9
5
-3
-7
2
2
36
1
-4
5
3
6
6
7
-33
1
-2
-15
-2
1
-2
-1
-12
1
9
3
-3
2
-2
-3
6
-4
-3
-2
3
0
-3
2
-5
-2
-4
17
-3
-6
-9
-3
-11
14
-1
18
3
3
9
-2
10
5
7
10
4
13
3
3
4
-2
-6
4
-8
-4
-2
2
-8
-2
-5
-7
-4
-4
-1
-3
2
-2
-2
-8
-2
-3
-2
0
-19
-1
3
-6
0
-3
-5
-6
9
2
11
-7
-2
-3
3
4
-16
-10
-9
-10
-2
-5
-5
-2
-2
-2
-1
-9
1
1
3
-1
-7
5
2
-5
2
4
2
-1
-2
-2
2
-5
0
-8
-8
-1
-8
-2
0
-5
0
3
1
1
7
5
-4
-4
1
3
2
1
-3
-2
-2
-6
0
0
-2
-3
5
2
-2
1
1
-1
-2
-1
-11
-4
-6
-2
-2
-2
-5
-2
2
1
4
-3
-1
-3
2
0
-4
-6
-11
2
1
2
11
1
-1
0
0
3
2
2
-10
0
-4
-3
-4
-1
-4
-9
-7
-1
-4
3
13
4
1
17
10
1
-4
0
14
-1
-2
-3
-7
-1
1
1
-14
3
-3
2
3
1
-3
-9
-14
-10
-3
-3
-2
0
-2
-2
-30
-6
-2
-9
4
1
-5
5
24
6
-2
-2
-15
-2
1
-3
10
-3
-1
6
6
2
1
4
29
8
3
-1
-6
-1
2
1
4
4
-1
-4
7
-2
3
-2
-28
-3
1
5
-2
1
-2
-4
-5
-3
-6
-5
-1
-1
2
6
-5
-2
-2
0
-2
-2
-3
-10
7
-7
-1
6
1
2
3
1
0
-1
-2
-5
1
-4
3
2
13
2
6
-1
10
1
-3
6
55
13
-1
-3
-15
-3
1
8
-25
4
1
2
0
3
1
-16
-18
-8
-10
-12
-6
-3
1
-3
-20
-14
2
17
4
0
2
-7
-8
1
-7
-6
20
4
-4
13
54
6
4
-2
-29
-1
3
9
-7
9
8
4
15
-10
-9
-14
-15
-10
-10
-4
-1
-4
-3
-9
-60
-6
-5
4
6
-4
2
-3
-24
-1
-2
0
-4
-1
-2
4
1
-5
-3
-8
-6
3
1
7
38
7
-2
-11
-15
-1
-1
0
-11
5
2
2
7
1
1
-2
14
0
0
4
-11
-3
0
5
25
-1
3
-14
1
1
2
-10
-60
-1
5
29
22
2
-6
-2
-13
-10
-7
-5
16
4
3
8
36
15
5
13
-17
-2
1
2
-7
1
5
7
-2
1
-4
-6
26
2
-13
-22
-13
-4
-2
-4
-7
1
2
-3
-3
-1
0
-7
-15
-3
3
-6
4
-2
-6
6
81
9
-4
-7
3
-4
1
13
-24
17
-2
-4
-7
2
1
3
-52
-2
0
-19
-37
1
-5
4
20
-11
-4
14
36
-8
-8
-11
66
-5
-7
-6
-14
-1
0
1
46
13
5
15
6
-2
0
4
9
-2
3
15
9
-2
5
4
-4
-3
-3
-13
-11
2
1
-1
-44
3
1
-4
8
0
-2
-4
8
-9
-1
-6
-1
-4
4
3
11
2
5
0
-13
-2
-14
-26
-18
-13
-15
-19
6
-2
0
-4
-43
-8
-2
0
-12
-2
3
14
33
24
10
2
2
1
1
-1
-10
-12
5
19
7
2
-4
-4
-34
-16
-5
-7
-2
-1
7
-20
-77
-3
-7
-19
-15
8
-11
2
48
13
-3
20
-3
-11
-10
-13
-12
4
-8
-6
4
-8
1
1
27
0
0
5
0
1
2
9
0
0
3
8
4
0
4
-1
-2
-14
-1
-18
-5
0
-2
4
40
11
-1
-3
-1
-2
-1
-11
-49
-16
-2
-11
-8
-1
0
3
49
7
1
14
19
0
0
-13
-78
-23
-3
-5
-6
1
-9
-14
-27
-8
-10
-3
0
-5
5
-7
12
8
-3
-11
-9
2
0
6
-11
-9
1
1
9
-3
-1
-2
3
-2
0
12
1
1
1
2
-20
-5
7
3
-5
-1
-1
0
18
5
4
2
4
-2
-4
-1
-14
5
-3
0
-3
-2
3
-4
-26
-13
-1
-16
1
2
-5
-14
-27
-8
-8
-3
7
-1
0
4
-12
1
0
5
-10
2
2
2
34
8
2
4
4
-2
2
4
-13
-1
2
0
-5
5
2
7
34
-7
1
0
0
0
0
6
32
4
3
0
6
-4
-7
-9
4
2
-6
3
0
-2
1
2
-3
5
2
-12
-1
2
1
6
33
6
4
11
9
1
2
4
7
2
-4
3
-2
-1
-2
0
-5
-17
-6
-5
-5
-2
-4
-7
-66
-3
2
-10
2
-3
-1
0
28
-1
8
5
-2
0
0
3
-16
2
0
0
5
1
3
1
-3
-3
0
0
1
3
-5
-7
18
-5
-13
-6
-2
-2
1
6
33
5
2
2
-11
1
1
-7
-30
11
5
-1
1
2
-3
-4
-18
-7
-3
1
0
-2
1
3
16
-2
0
-1
-1
-3
3
6
-18
1
1
-10
-1
0
-5
-7
0
-3
-4
-4
-2
-1
1
-1
-1
-2
3
9
3
-1
-6
-4
5
-11
-7
-7
0
0
-5
-9
-33
-12
-11
-4
-4
1
4
2
4
4
2
0
-4
-2
-1
4
4
9
5
7
1
-3
-3
-2
10
-17
-6
-1
-4
-2
1
0
21
8
-3
-6
-1
-1
-2
-1
-26
-7
-6
-6
4
2
-3
-4
7
-1
4
0
-17
-2
1
2
3
10
5
9
7
1
-4
1
13
-2
1
-1
-2
-1
0
2
-11
1
2
1
1
-2
1
1
-7
-2
-3
-5
-1
0
-3
-4
14
2
-5
-9
-5
-2
1
0
-13
-3
-4
-6
2
-3
2
9
35
4
7
11
0
0
-3
-8
-77
-13
-2
-5
0
1
1
5
49
8
0
1
-4
1
-5
-15
-52
-21
-8
-3
0
0
-1
4
22
8
1
-5
-4
-2
-1
-3
-5
-5
-2
-2
1
-1
2
3
-1
2
3
0
0
-1
1
2
2
4
-2
0
-2
0
-1
-4
-1
-1
-2
-3
-8
-2
5
15
12
16
4
0
11
1
-5
-26
-46
-36
-12
-13
-8
-7
-3
0
29
9
0
8
1
-4
-3
-4
-22
-2
-3
-3
-1
-3
-3
2
31
3
0
0
2
0
6
11
-1
7
5
0
3
4
1
-3
-4
0
-1
-3
-5
2
-1
-4
13
-7
0
0
4
-1
2
-2
-10
-2
-2
0
-6
-1
-1
3
7
12
6
6
0
0
-2
-2
-6
-3
-2
-2
-2
-2
1
1
-2
-1
-7
-3
-1
0
-3
-6
3
-6
1
1
1
-2
-3
-2
-18
-4
0
2
-2
-1
1
3
26
5
5
1
3
-1
0
1
-15
-6
2
-2
-1
3
-5
-3
7
2
-5
0
0
1
-2
0
-11
-6
-5
-1
-4
-1
0
2
6
-3
0
-1
0
-2
-1
0
-23
-10
-13
-7
-4
-3
0
-5
-1
-1
4
-1
-4
-2
-5
4
-6
15
8
5
4
-1
-2
-4
4
-3
1
-2
-1
-1
-2
-6
-12
-4
-2
2
-3
-1
-2
-1
17
0
-6
-2
-2
-2
4
4
3
-4
-6
-3
0
0
3
2
-1
12
3
-1
1
0
-6
-4
10
5
-1
0
1
-1
3
-1
-24
-20
2
0
-1
-1
6
3
7
6
1
0
-1
0
-19
-6
-4
-2
-2
0
-3
0
-4
-4
10
2
1
-3
0
-2
-2
-2
-1
2
2
1
-1
-1
6
-2
-14
-8
-6
1
-1
-2
4
4
2
4
3
1
2
1
-3
3
3
1
-4
-4
-3
-2
-3
-4
-3
-6
-7
-4
-3
-4
-4
-5
7
4
3
0
-1
-2
3
-2
2
2
-5
-2
-1
-1
10
-1
-7
-7
0
0
0
1
-8
0
-2
6
-1
-1
0
-2
-4
5
7
-1
-3
-1
-1
0
-1
0
0
-3
-4
-2
-3
-1
-1
0
-9
3
1
0
-2
0
-8
0
3
-1
2
1
0
0
-13
-7
-2
15
9
2
0
-1
1
-4
-1
-20
-4
0
-1
-2
1
3
7
6
4
0
2
1
11
-4
-7
0
-8
-5
-3
0
1
9
-5
-6
-1
-2
1
0
-2
12
-16
0
-1
-1
0
2
19
-8
-4
9
2
3
2
2
8
-12
8
-6
-4
-3
-3
-1
-16
3
17
-2
0
-3
-3
-5
-10
-8
-4
-9
0
-2
-2
-7
-15
-7
-8
-7
-6
-4
-2
-3
5
14
11
10
5
2
0
2
16
-2
-20
-5
-1
1
-1
2
5
15
7
11
4
3
8
6
-4
-6
-1
-10
-7
-1
-4
-5
-8
-4
-5
3
-3
-1
-3
-8
-21
-20
8
-5
-6
-6
-1
-10
-21
-4
-3
5
0
-3
-5
-6
0
-3
2
-16
-6
-4
-2
-4
18
-2
-10
19
4
3
1
3
16
15
-8
-2
3
6
6
6
-4
-5
6
3
-1
-1
3
8
57
8
9
10
-2
2
1
0
26
-6
-4
-19
6
0
0
4
-3
-3
9
-6
-4
-2
-9
-1
-23
-4
-13
3
3
-5
-6
-8
-37
-11
8
-10
2
0
-2
-5
-20
30
3
6
4
3
4
1
-20
-13
6
2
-4
-4
2
-2
53
-2
-29
1
-6
0
-3
4
-66
-5
-13
18
-6
-6
-3
-8
45
6
-19
-16
-7
0
0
11
46
3
36
4
18
2
-1
3
-48
4
-7
0
1
1
-1
-9
30
-18
-1
9
-4
-7
4
14
23
6
-8
-22
-6
5
-4
-17
18
11
-8
0
-23
-15
-5
1
38
-58
18
12
24
13
12
11
-42
-21
-3
-4
-2
-5
-7
-27
74
-7
0
30
-1
2
7
21
-91
10
31
-61
-2
4
-2
-17
-63
35
4
45
-4
-4
-2
-18
-3
-24
-9
-15
13
9
9
21
-35
4
27
11
6
1
-2
-5
26
-36
-29
30
-7
0
-3
7
28
21
17
27
7
5
2
3
44
20
39
-14
-5
-4
3
10
-55
3
23
14
-5
-8
-6
-16
-2
17
-90
-10
-4
-1
-3
5
26
12
-17
-42
-7
-9
-5
-2
59
-23
10
35
-8
3
-3
-16
-41
-11
-27
-46
3
-6
0
7
-29
-29
23
6
-6
-4
-4
-13
34
37
-17
-7
-2
-1
-8
3
-42
39
-9
14
19
11
11
21
45
-55
7
-21
-19
-16
-9
-10
-50
29
28
26
2
10
5
-5
88
-52
-25
-63
-9
0
6
27
-104
9
-5
4
-1
-16
-14
-32
-26
-2
-29
-12
-10
-2
-12
4
79
4
26
16
2
4
5
-6
-28
18
30
16
6
7
4
-13
18
19
-9
-18
5
6
7
5
7
-3
-22
-12
-17
-16
1
-5
21
-28
-13
-15
-12
-11
-27
-4
-10
11
30
6
2
0
-4
0
-46
19
-52
8
-2
2
4
-12
-68
-28
18
11
8
9
6
-4
53
-27
-16
1
6
2
5
11
-59
-43
10
-22
-18
-10
5
-6
19
38
17
4
-2
-1
-9
2
-36
8
6
0
5
2
9
0
21
4
34
-18
-9
-7
-6
5
-45
-11
-39
12
8
-4
-1
-17
-28
-15
-2
-9
-7
2
-1
16
35
23
16
22
13
7
9
7
-47
-3
-20
12
2
8
5
-9
41
18
20
-22
-14
-7
-7
-1
38
4
0
-14
-5
1
-7
8
-22
3
-11
4
-6
-4
2
2
-37
6
-9
18
10
0
1
-5
0
13
3
13
-4
1
3
19
27
-9
26
6
8
1
-6
-20
-7
22
-35
14
1
3
-3
-8
-32
8
-6
-3
2
-13
1
5
9
-30
1
22
-3
-4
-7
-9
-73
-8
-17
-41
-5
-1
-3
2
0
57
24
21
5
-4
3
-3
12
26
11
-7
3
11
6
9
-63
-22
-2
17
-2
0
-3
-7
28
-12
6
-9
2
-3
3
-5
8
-21
5
8
-5
-22
-24
-5
15
26
-4
11
4
30
27
9
49
1
-2
-10
5
1
-20
20
-31
1
0
-15
-1
7
14
-26
-19
-18
-8
-1
-6
5
9
0
31
-16
18
-25
1
-8
-3
2
-14
10
-16
11
1
-3
3
4
22
-4
-22
16
0
-4
-6
8
-11
-17
22
-31
3
2
2
3
0
3
-34
-4
-1
-7
-3
-2
-5
16
24
-3
-4
7
6
-8
92
25
-2
17
4
-2
-1
28
-74
-33
-28
-15
-15
-9
-4
-11
-5
-9
17
-5
1
1
-5
-17
-52
-8
-3
-8
3
-7
-3
-17
-6
-14
3
-2
-8
-2
9
-6
71
-19
-15
29
6
1
-5
24
-14
14
-2
10
1
1
-9
8
-15
0
2
-7
-2
3
1
-24
21
-8
24
18
-10
-5
0
5
-52
21
-19
-22
20
9
19
9
-40
-42
-12
2
2
-9
-5
-2
14
14
4
-3
-6
-8
4
-6
-55
-11
-19
15
7
6
-4
1
76
14
17
-3
1
3
-3
-3
37
-8
-16
0
-1
-4
0
8
-44
-21
14
-4
-3
-2
-5
8
-33
-6
-7
1
-6
-5
-5
-12
21
-5
-9
-10
-6
2
-5
1
-7
21
4
7
2
2
-3
-4
44
-5
-10
-16
-6
-3
8
1
-35
-1
-8
-19
-2
-5
-12
-6
23
4
14
-17
-2
-4
-6
-4
0
-8
-13
-2
-7
-14
9
2
7
10
1
0
0
23
-4
10
22
7
4
-3
0
-13
-5
13
8
6
11
11
1
21
11
10
-53
-10
13
17
7
8
4
-9
-12
13
8
-8
-7
-9
-2
4
14
-4
-2
-11
-1
-2
0
3
-30
23
4
36
2
-7
-1
-12
17
-30
-14
6
-6
1
10
19
-23
2
-20
-10
2
-1
-4
-5
18
-5
-17
-15
-6
-1
-4
-1
-14
-9
15
-7
-6
-2
-11
-10
12
7
6
2
6
1
-2
-1
49
-28
14
2
3
-4
0
5
-35
8
17
-9
-7
-5
3
-10
-9
1
-18
9
0
3
2
-1
-28
5
24
-13
-2
-2
-12
-20
37
-10
-30
-2
1
-2
13
11
4
-1
6
-2
3
-6
-14
-5
-28
3
4
-15
-11
-6
-21
-26
14
-12
3
-6
-1
-9
-12
0
-46
3
-10
9
2
12
15
1
27
22
3
1
3
6
22
-6
-33
-5
19
19
9
5
-10
-11
19
13
-6
-17
-14
-7
-8
0
-11
11
0
12
6
-4
-10
-7
-32
-18
9
-2
1
2
2
3
16
-9
2
5
-4
0
5
7
-26
-11
0
2
2
0
2
-12
10
6
-14
-13
-8
-4
-4
2
18
-6
3
7
1
5
2
8
20
-3
5
3
6
0
4
-2
29
35
8
1
-7
-4
-4
4
-15
11
5
5
4
0
-3
0
-8
-11
16
8
-2
3
0
-10
26
-19
-50
-12
-10
-4
5
12
-40
5
0
2
6
3
9
3
-25
-31
-4
-5
-4
-4
-15
2
-12
23
7
-4
0
-15
-12
-8
8
-6
7
-6
4
11
6
-18
18
14
-8
0
-1
6
10
10
57
-4
-2
0
0
2
-4
-5
-15
7
21
28
2
1
2
0
-41
-11
-17
-7
4
-10
-8
6
-19
-12
-13
4
-6
-4
-2
1
15
12
4
1
-8
-1
-4
-5
-8
0
-12
8
10
9
5
7
34
21
35
0
-3
-8
-11
-2
-3
-24
-15
-12
-1
-1
-4
2
14
-13
-12
-12
-6
5
14
1
-26
-12
-12
-8
-3
0
-14
-6
3
-10
4
0
-4
-5
-5
6
-18
16
10
-4
4
6
1
2
-44
14
28
14
-5
-16
-4
-9
28
-19
-8
4
-2
4
5
4
-21
12
7
-7
0
-2
0
-6
10
20
-7
3
-5
-10
0
2
58
-17
3
-6
2
-6
-14
14
-7
-9
-4
0
-1
3
11
4
-25
-9
-19
5
-5
-1
-4
-4
48
-2
7
3
-5
-1
-2
2
-36
28
0
1
12
3
4
-12
-20
-41
1
-8
-9
-6
-9
3
16
25
-14
5
4
4
12
8
-12
-19
12
-4
1
-4
-8
-5
-24
-3
23
-5
-2
-4
-1
-3
72
-12
-29
-3
2
-4
-7
5
-38
19
10
-1
0
1
10
-7
34
9
12
8
0
-4
-6
-9
7
0
-10
12
-2
4
5
4
13
9
19
-1
-2
7
0
-10
-12
-6
-15
0
-4
-3
4
9
8
-18
9
-24
-10
-8
-24
-8
15
-7
-13
29
5
1
13
3
3
14
-4
-10
-4
-3
-4
-2
79
6
20
9
-2
-2
0
9
-51
30
-15
-4
4
0
9
-9
-66
-29
-21
-17
-5
-8
-20
-8
69
-1
-1
-1
0
8
9
7
-18
5
13
-3
-1
-1
-4
1
11
-7
2
12
5
9
9
11
-4
2
11
-9
-4
-11
0
-14
-37
5
-24
-23
-1
2
-9
8
-4
-23
-3
8
5
5
-6
-5
-1
16
1
6
-2
0
6
-5
16
-5
-9
-7
3
5
6
15
-51
-5
8
12
-3
-12
-9
-26
4
-3
-11
-1
-4
-4
4
-1
-5
1
11
-3
2
-1
-13
2
22
6
-30
-9
4
0
4
6
3
3
16
-3
-9
-12
-19
-7
5
-6
-1
-15
3
9
16
9
-46
13
-13
2
-1
-2
7
-14
5
-18
20
-6
-3
-3
-6
-7
11
18
-3
-4
3
4
12
5
-1
2
-13
16
1
-2
-12
-8
-28
-19
-1
-9
-4
-7
-2
-1
-19
8
-18
-2
-4
0
0
-5
-15
13
-21
6
0
5
-5
-1
52
13
26
9
1
0
7
12
7
0
2
-9
4
3
4
-8
7
-3
-15
-15
-9
-2
-8
-4
5
-6
-4
19
6
-2
7
13
-2
-8
-6
-15
-4
-2
-4
-12
-1
-3
-2
13
0
4
1
2
-32
3
11
25
-8
-4
6
3
28
-4
-11
-68
12
5
-2
12
-20
-3
-4
-2
-3
-1
-5
-6
20
3
1
2
-3
-1
1
3
23
9
12
-7
-6
-1
7
3
-28
-6
1
14
-3
-13
-15
-6
11
-14
1
-3
3
16
9
4
-11
21
6
-8
3
5
5
1
-38
-10
-7
3
5
1
-11
-12
59
12
2
9
-9
-7
4
7
-13
-14
-8
-11
-1
-13
-15
-7
26
-11
6
2
-7
6
2
0
-5
8
-5
13
9
7
0
-9
10
12
-9
-33
0
1
23
12
-19
-14
6
-7
-4
-6
-15
-8
-17
-28
-6
5
-5
-8
-5
5
4
9
1
-12
-1
0
5
4
-39
-7
11
14
1
7
-5
-11
-12
13
-28
9
-3
-7
4
12
23
22
6
-8
10
6
4
-10
-34
-23
-23
-12
-3
-7
-20
-14
8
1
3
16
0
2
13
-1
12
13
3
-2
-2
3
-10
8
3
-29
6
1
-6
-11
-1
-5
-1
11
14
10
-1
1
3
0
42
12
-20
3
-4
8
4
1
-1
-22
-2
-25
-2
-6
-6
-5
-10
-8
-12
10
-4
-7
2
-1
64
19
27
-2
3
2
-10
7
-76
-3
-34
-11
-3
-9
-1
-4
-50
-9
24
22
-6
-2
-1
-9
5
-19
-25
-28
3
7
14
13
12
-16
21
8
6
0
-2
-10
1
10
16
12
-1
4
-4
1
-1
11
-27
17
0
-4
-9
-6
26
0
1
-14
-3
-2
-2
3
-4
9
13
-3
0
-4
3
4
-2
-1
13
-13
-5
0
5
-7
-6
-9
-50
-18
-4
0
-1
-4
10
19
12
5
5
2
-4
3
8
-1
-1
2
-5
1
5
0
-2
-29
21
4
1
-6
-8
-5
1
8
5
0
-3
1
5
8
-19
20
17
14
-3
-1
-4
-4
-7
1
-7
-19
17
5
5
7
-39
-13
-13
5
-2
-7
-5
-13
94
-10
-26
-8
-1
1
8
15
-72
-6
1
-2
-4
0
-11
-1
-13
9
37
1
-4
-3
-6
-19
-7
8
32
37
5
-2
-5
6
-50
-1
3
0
1
-10
5
-19
6
-4
-24
-19
-8
3
-18
-15
-13
18
15
-4
-6
0
10
11
18
-18
7
11
4
11
21
-2
-24
19
-13
6
0
-1
-17
-7
48
-3
-1
10
-1
-14
-7
7
-15
-11
-9
-7
0
6
0
2
6
-5
-26
-22
-4
0
-9
0
28
-12
35
-8
3
-3
4
1
46
-1
-3
9
0
-5
-3
-7
25
-1
-15
3
-6
-2
7
8
-12
-2
-11
-14
-7
3
-3
-3
-17
15
23
5
-3
4
7
-9
-24
-13
6
5
3
5
2
3
14
-1
-24
-12
-4
-8
-2
4
-27
12
6
13
2
3
-1
-2
8
-13
-11
-11
4
2
2
4
-15
-13
3
3
-2
-8
-6
0
-8
4
-6
-4
-5
3
-7
-5
20
-5
-19
-2
1
0
2
-5
-7
15
26
-1
-1
-2
-4
6
-4
-10
-17
-10
-2
2
8
2
3
5
-19
-1
-4
-9
-7
-5
17
-13
8
2
0
1
0
3
-42
7
-7
-10
-7
-2
4
-7
-8
3
0
8
1
1
2
5
-17
-3
14
12
9
8
-4
2
12
17
-11
-10
1
1
-3
1
13
-27
-12
0
-3
-5
-1
1
5
3
3
5
-5
-1
3
0
-7
-6
-3
-13
-5
-5
9
0
-3
6
-4
-3
0
3
-5
-1
-3
-11
0
0
0
0
-5
-2
-4
2
2
-9
-2
-1
0
-3
7
3
4
4
-3
-1
1
-1
-3
-5
-1
4
1
-8
3
0
-3
0
7
0
0
-1
-4
2
-4
1
-6
-1
3
3
-3
-3
5
-6
-10
-5
-5
-8
-6
1
-2
3
1
0
-3
-2
9
-2
-2
1
6
0
1
5
-2
-1
0
1
-5
0
0
-1
2
1
-3
0
-1
2
-1
1
2
0
2
-5
-4
-3
-2
-7
-5
-2
-4
0
1
-4
-3
-3
2
0
-2
1
-7
-3
-2
-3
-2
-3
-5
0
7
-1
-1
-1
3
-3
-3
-7
-12
0
0
-2
-15
-2
4
2
-1
2
2
3
5
2
-2
1
1
0
3
3
0
-1
-4
-5
-8
0
-2
-4
-9
-1
1
-1
11
-2
-2
-3
8
0
1
4
4
-1
1
9
-1
3
0
2
7
0
-2
0
-4
-1
-1
-6
-26
-4
-1
3
5
-1
0
-1
-16
0
-4
-7
-9
1
0
0
10
2
1
-3
-6
-2
-2
-1
-26
-1
0
4
8
-1
1
0
37
3
0
3
2
0
2
4
4
-4
1
0
0
-2
-3
-9
-25
-7
-4
-7
4
0
-2
4
28
12
-1
-1
-16
-1
2
4
0
4
3
2
4
0
0
0
11
1
0
5
-1
0
1
6
5
0
0
-7
-6
-1
1
-5
-76
-13
3
-2
9
2
-3
-1
68
19
0
7
-17
1
-2
-6
-1
-1
-6
1
4
5
-1
-6
-34
-14
-6
4
5
-7
-2
4
32
-1
0
-2
2
0
1
-4
-47
-14
0
-5
-2
-2
5
2
23
11
5
-5
2
0
3
10
27
14
1
-16
0
2
-4
-8
8
-8
-1
17
0
-2
3
-1
29
3
-3
-7
0
2
1
10
-2
-1
4
1
-4
-3
-8
-10
3
3
-7
15
6
0
0
-4
-32
-8
-2
-8
-4
1
-2
-5
-63
-3
5
7
7
-1
-5
-12
-14
-15
-13
-8
-6
-1
6
16
18
9
6
-3
1
-1
-1
-6
-21
-5
-7
-11
19
0
-3
-5
-5
0
1
9
-24
-1
-1
0
9
2
5
0
2
-1
0
2
-11
-7
1
-6
-13
1
5
8
67
11
0
-7
5
3
3
9
-20
1
7
11
15
-4
-6
-8
16
-1
-6
3
-5
-5
-1
0
39
12
-6
-4
-1
-5
1
-6
-49
-5
-5
-22
-11
-4
-1
3
-44
-8
-7
-1
12
-4
3
-1
-33
-10
6
17
-15
0
-2
5
29
31
8
2
6
3
-12
-16
12
-43
-23
-24
-10
-8
4
4
94
-2
8
8
9
2
-4
-9
-96
-19
-3
20
19
1
-3
3
18
13
1
14
11
-1
0
5
29
22
8
-1
-15
0
0
-2
-24
-2
-4
-17
-9
-1
2
15
41
-1
-2
-6
10
0
3
-9
-62
-12
3
8
-6
-1
2
2
26
0
-2
-1
4
0
-9
-27
-63
-26
-11
-5
-5
-2
-2
-10
-29
-1
-2
-7
-4
-1
-7
-9
-66
-32
-13
-13
-6
-4
0
-3
-29
-16
3
10
-18
0
1
11
57
11
-1
-7
15
-1
-2
2
8
-3
0
-13
-10
-4
10
11
8
0
9
0
-4
8
-18
-23
-42
-29
-8
7
-1
-10
-2
5
54
7
-3
-7
2
0
-3
0
2
12
1
-8
-3
-5
-6
-12
10
-41
-10
-13
-9
-3
9
21
64
51
12
24
18
9
-5
-3
-41
0
-2
0
-9
0
-3
1
92
10
-8
-6
2
-2
5
3
-15
0
3
-4
1
-3
-5
-16
-5
-20
-6
-11
-13
-3
-3
-1
8
8
-2
0
-3
1
8
7
43
17
13
13
12
4
-6
-9
-70
-34
-11
-3
-9
-2
3
6
8
16
0
0
4
5
0
0
-28
-5
-5
2
2
-1
-1
-4
-47
-10
-2
-14
-8
0
0
1
60
9
4
11
1
-2
0
6
14
11
0
1
-2
-4
-1
-7
-41
-10
-2
-10
-1
-4
1
1
2
3
-2
0
3
-1
-2
-9
17
8
-5
-3
4
0
2
6
-17
-3
2
3
2
-3
-2
-2
-14
6
-2
-9
-11
0
-4
-4
-41
-11
0
13
12
3
0
1
44
18
2
0
-5
-2
-1
-3
17
0
1
-1
1
0
-3
-9
-29
-15
-6
-7
-6
-1
1
-1
9
6
-1
1
-6
-2
-1
4
-4
-9
-4
-9
7
1
-2
-3
-23
8
-4
-8
7
0
1
2
25
10
5
17
-14
1
1
5
-2
-6
-5
-10
-3
-2
-3
-5
25
-7
4
11
-1
-2
3
8
-16
11
6
3
1
1
-2
-8
-7
5
1
-4
0
0
-4
-8
7
-8
-6
-6
-6
-2
2
0
-7
6
-2
-1
-1
0
1
3
13
-6
-3
-1
-7
-2
3
7
9
14
3
2
4
-1
-4
-3
23
-10
-7
-6
-11
-2
-2
-2
-25
-2
-1
-5
6
-2
0
0
-8
1
0
-3
-6
-1
2
2
1
-3
2
6
-5
-3
-1
3
20
9
3
1
2
-1
-3
-7
-6
-3
-4
-4
-3
-1
0
-4
-43
-1
2
-3
-7
0
-3
1
30
-7
-5
4
2
3
0
3
7
4
0
0
-2
0
-2
-3
6
5
-1
0
-2
3
0
5
12
3
-2
0
5
-1
-4
-15
19
-15
-2
-7
0
-3
1
-6
-60
-2
-2
1
-1
0
2
11
45
23
2
2
3
0
-3
-6
-48
-25
-8
-1
1
-1
3
9
14
-1
2
-2
1
0
-3
-6
2
7
-3
-1
-4
-2
-1
-5
-7
0
1
-1
6
0
-2
-5
-1
-8
-4
4
-3
0
2
4
5
11
7
-2
2
-2
-1
-4
-1
-3
-4
-11
-5
-2
-3
-1
-16
-1
-3
1
-5
-4
3
6
36
10
5
9
-3
2
-3
-7
-34
-7
-5
-3
18
0
1
2
14
-1
-2
3
-8
2
0
0
-10
-4
-4
-9
0
0
-1
3
33
6
4
3
-7
-2
-4
-7
-25
-17
-5
1
-1
0
-1
2
-1
-1
1
-5
0
-2
0
-5
-16
-4
-2
0
-3
0
1
3
13
8
0
-2
2
0
-2
-5
-8
-4
-8
-8
-8
-3
-1
1
-22
-4
0
0
0
-1
0
4
-12
0
-3
0
-2
2
-1
-1
11
9
12
4
5
1
-1
1
9
10
-2
-4
-4
-1
-2
-8
-18
-8
1
0
-2
-3
0
1
5
-2
-3
2
0
-3
-1
-3
2
4
-2
-6
-1
-2
0
3
-7
-6
-1
-1
-1
1
-3
-6
-17
8
0
-1
2
0
-1
0
21
-6
0
-1
0
-2
-1
-4
-6
-9
-2
1
2
0
-1
1
-5
-1
-1
0
-4
1
1
1
15
-1
-2
-1
1
0
-1
-4
-10
-2
0
-2
-3
-2
-2
-3
3
-1
-6
-5
-1
-2
0
2
-1
4
7
2
0
-1
0
0
9
5
2
1
1
0
-2
0
13
3
0
-1
-1
-1
-4
-3
-13
-7
-5
-2
-1
-1
-1
-1
5
-1
-2
-2
-1
-1
-1
-1
-8
-10
-3
-3
0
0
1
3
9
2
1
1
-1
0
1
1
-7
0
-1
-1
-2
0
2
-2
6
1
-2
-4
-2
0
-7
-1
3
3
2
3
1
-2
-3
2
-2
0
2
0
1
-2
-4
-7
1
-7
-1
1
-1
-4
-1
-1
-2
-3
-5
-1
-3
-1
16
2
15
0
-3
-5
-2
1
-8
2
-20
-4
-4
-1
-1
0
-1
-6
-2
0
-1
-1
-1
0
-1
0
15
3
2
-1
-1
-1
-6
-2
-10
0
2
-1
1
-3
-1
-6
4
-1
1
-1
-1
-2
1
2
-1
-6
-4
-1
2
-1
-4
-2
-10
3
-1
2
4
-2
8
4
14
-2
-4
-2
-2
-2
-15
4
-4
3
0
0
-5
-3
7
-2
-1
-1
-4
-2
-1
-2
-14
-2
8
-10
-6
-1
0
-2
-5
-1
-3
-1
4
0
0
-4
0
-6
-2
6
3
0
2
0
-8
2
3
5
3
0
1
4
6
4
2
3
-2
-2
0
-2
4
1
-5
-9
-6
0
0
3
-2
-3
6
3
0
-2
-3
-3
-8
1
-3
-9
-2
-3
-4
-3
3
-2
-5
-5
-4
-3
-2
1
6
3
-5
12
3
2
2
5
10
2
2
0
4
5
6
7
13
8
4
6
1
1
1
1
-25
-5
-5
-8
-2
-1
-2
-2
-26
-5
2
-2
-2
-2
-5
1
-2
-12
-8
-10
-9
-11
-8
-16
1
-9
6
2
4
1
1
-4
23
9
7
3
-1
0
1
-4
15
10
0
10
-3
-1
1
2
-16
-12
-8
-26
0
1
5
5
-19
0
5
2
-3
-4
-2
-8
-28
-8
1
7
4
3
5
-2
32
-1
-6
1
3
6
2
3
-6
8
13
5
-8
-8
-3
5
24
-19
-44
-27
-1
-4
-3
-2
-5
3
19
19
0
-1
-7
-4
-43
1
-1
-30
-6
-2
-4
-9
11
-3
-20
13
-4
-1
1
-2
8
13
16
23
8
5
9
19
-13
3
4
-3
-1
-5
-3
-12
-16
-25
4
-4
-1
-4
-4
-1
100
26
-22
-6
2
5
10
15
-25
-17
-2
-3
-14
-4
-10
-13
-29
-13
-11
-3
14
6
-1
-1
35
-24
5
-2
-7
-4
-4
-13
-28
25
11
9
9
2
7
1
13
3
-13
-17
-2
7
3
11
-55
-14
24
1
-2
-7
-10
-6
-31
43
22
5
6
-1
-1
-22
8
-55
-46
-22
-14
-3
-1
6
-10
50
-12
0
-5
-8
-5
-9
31
6
9
-15
1
5
3
0
71
-6
-45
8
1
1
-2
26
-43
-13
24
30
1
-1
6
1
-45
9
1
-19
0
-4
-4
-16
86
-16
-3
5
-1
5
5
12
-46
23
-14
11
-16
-4
-4
-7
33
-13
-4
-3
19
9
3
16
13
-33
-2
-15
0
-5
3
3
45
72
0
19
-4
-10
-16
-11
-59
-17
88
26
1
12
9
-4
-78
-34
-89
-32
0
4
-11
6
14
32
30
17
-8
-3
-11
-11
-6
-23
8
-6
-2
1
18
16
28
5
19
3
10
1
1
-5
111
37
25
9
-13
-13
0
9
-31
-30
-8
9
0
-5
-9
1
-65
8
-39
-9
-6
-14
1
-17
-55
-28
-17
-19
-3
2
-13
-10
42
65
38
17
2
3
3
-10
-19
-50
4
-1
1
0
0
-6
-7
2
3
42
9
16
6
9
47
-56
-6
-45
4
0
0
11
-83
-21
-42
-22
-3
-6
-16
-20
119
-15
-4
20
10
7
17
26
-89
15
14
-21
-5
-6
-13
-14
60
7
-43
-3
1
1
4
4
-24
26
28
1
2
5
-5
2
0
-15
-18
-6
4
4
-4
1
-8
-50
38
-11
-15
-9
-2
-9
25
72
-63
-7
1
-1
4
9
-27
-50
22
0
-9
-19
-13
-19
8
-1
-12
3
-8
12
21
15
5
-18
-40
-3
2
-10
-5
4
17
-10
41
3
-3
3
-4
-8
-3
5
12
21
-1
17
10
2
18
9
20
-17
4
-1
-9
0
8
9
-33
3
6
1
9
14
3
-46
1
-14
-10
-12
-15
-10
-22
-12
27
-14
-8
-7
-4
-22
-59
-13
-7
22
1
-1
-3
1
95
70
-17
-1
9
13
4
21
-35
31
-10
37
-6
-4
3
-1
50
19
19
-44
4
6
2
4
-67
30
0
18
6
-1
-2
-18
-5
-88
2
-9
-12
-6
-2
4
-24
23
3
2
0
-6
-1
0
48
25
20
22
-3
-6
-3
-1
50
21
-19
-4
-6
-5
-2
6
0
27
-13
-18
-3
-2
-13
-16
-44
-30
5
9
3
2
9
-7
-4
7
38
20
4
-3
-4
1
-46
-18
-68
-19
-3
-1
-5
-4
68
-18
25
16
1
2
-2
2
79
12
12
-15
-7
-4
9
49
-108
13
-25
15
-5
-9
-5
-25
3
-11
28
-22
-9
-1
1
-18
-90
41
7
3
2
-1
-7
-26
-7
1
5
-13
1
-1
1
3
-58
-38
-20
0
3
5
4
11
-37
45
26
17
0
-1
-5
-1
71
-47
-10
-9
-18
-4
11
30
-18
4
-33
-29
0
-8
-11
-17
-6
-10
-6
-9
2
3
-1
14
34
32
22
11
3
-8
8
24
-59
-23
2
-14
-2
12
-7
-24
-29
17
5
10
6
4
14
-13
59
-10
-17
7
-5
0
-7
0
30
-27
40
-10
-12
-6
-12
2
-56
-26
-33
19
17
-1
6
-9
44
1
-14
9
-7
-12
-13
11
-37
1
-12
4
1
4
9
-4
117
-39
2
-9
-1
7
-2
11
-33
8
22
-18
0
-2
-11
-19
-21
3
15
7
6
-6
31
-4
60
23
-1
23
-2
0
-26
-6
-51
-6
2
12
0
6
-7
3
-1
-11
-27
1
-4
-2
1
8
23
0
-4
2
-2
0
-13
1
-14
1
23
-14
0
-9
5
0
-4
27
4
-8
-2
2
12
-10
-39
33
-2
-20
-3
0
-10
-18
-59
-31
-4
13
2
-3
4
0
14
-4
6
-20
-1
2
5
7
-13
-3
-32
-11
1
-1
-12
-8
-16
-6
11
-3
-1
-8
6
21
20
10
-5
-11
-7
1
-8
-7
-63
-23
-3
-18
1
-4
3
6
-24
18
2
6
5
-2
21
-9
53
12
-2
14
0
0
-25
-1
-54
-5
9
0
0
6
-1
19
8
-11
3
-3
0
6
1
-21
1
11
0
-13
2
-6
3
-4
47
-14
-8
19
-1
0
10
12
13
-7
11
-24
0
0
-12
-10
-35
-4
4
21
5
-4
0
-2
79
-24
-23
-5
-16
-7
-10
18
-21
40
15
-19
9
0
9
3
-47
-37
-9
-3
-6
-3
-6
-29
14
-1
15
-5
-7
-6
-5
2
-13
10
-12
10
-1
-3
-6
-10
13
-15
14
10
-1
1
1
1
26
36
-2
3
2
0
-3
9
-21
-30
-33
-7
-5
-5
0
-10
-3
-9
26
11
6
-6
-8
6
14
-14
-11
-18
-8
-4
3
-5
-2
37
3
12
6
4
12
23
22
-8
8
13
1
11
-6
-17
-47
-2
3
-9
-1
-5
3
-12
34
16
0
11
1
-1
-8
19
-13
-33
-1
-21
-10
-5
0
-12
15
-13
-16
-7
-5
-4
1
11
-9
23
20
7
-1
-2
15
6
15
11
-10
-9
-5
1
-11
3
38
0
24
23
11
0
-15
-12
-1
24
-8
-9
5
0
9
7
-42
-15
2
-24
1
1
-8
-7
5
-4
-19
8
-10
-6
7
14
-23
-6
-10
-13
-1
1
-10
-20
-43
18
2
-12
2
-3
-3
-17
-23
-21
-8
-2
1
-2
-7
5
46
15
6
11
0
5
14
2
-32
-22
-15
-7
-4
-1
-2
1
41
8
23
10
-1
-7
-1
2
-10
12
-15
8
-1
3
0
4
-19
1
5
-2
-3
3
-11
-1
-31
-3
-3
-26
-1
2
19
-15
56
11
-17
7
-1
-4
-14
9
-13
-14
8
1
-1
-1
-2
-1
-29
4
7
6
-3
-2
10
-9
20
4
10
4
4
-3
-7
6
-4
-13
2
-4
-7
6
8
-8
3
-9
-48
-19
0
1
-6
2
-16
7
6
19
0
-5
4
-6
0
-3
-6
18
0
3
0
3
12
1
0
-1
6
1
2
32
12
23
12
18
0
3
3
-32
34
18
0
-8
-2
-4
0
3
-71
-22
10
-3
-9
-6
-13
-19
-4
0
-13
14
2
-2
6
-1
62
9
10
8
-1
-1
1
13
-18
-31
-19
-25
-7
-15
-7
14
15
13
-2
9
0
6
-9
-3
-42
3
1
-17
-2
8
14
5
26
2
-4
0
0
1
-11
-27
18
-15
6
0
9
4
8
10
0
-1
2
4
-6
-14
-12
-9
-3
5
-2
-4
-9
-5
-2
-4
-74
-18
0
18
6
3
8
-9
42
-2
-2
4
-2
-4
-16
6
0
4
6
-1
-5
1
6
2
9
-11
-21
9
4
5
8
0
-20
14
13
-1
-8
-6
-19
-1
11
7
4
8
5
4
9
2
22
-6
12
4
4
2
1
-4
-49
-7
-7
-10
-9
-7
-13
-15
-4
14
1
-12
-3
-3
2
6
-9
-1
5
11
3
1
-8
20
46
-8
-9
-13
-4
-12
-13
-22
20
1
12
-20
-4
0
1
-4
3
-6
14
0
6
11
8
13
-67
13
-9
-4
1
7
-4
-31
14
-8
-18
4
2
5
15
20
-4
-19
-6
14
-1
-7
-8
-6
35
-13
12
7
4
-2
4
18
-21
4
-15
-17
-4
0
-3
-22
10
8
6
5
-1
0
5
17
3
-5
-7
-6
-4
-2
4
-7
26
-5
12
12
8
0
-7
1
40
9
3
1
-2
0
9
-1
-27
-14
11
10
-3
0
-4
-7
23
21
2
22
6
4
1
2
-25
4
3
-5
-5
-4
-2
5
-16
-12
-11
-2
3
1
-8
-7
2
34
10
9
-3
4
4
18
77
-9
1
-1
-2
-5
-3
10
-58
-21
-10
-37
-5
-3
-15
-38
-40
-21
1
-2
-2
0
4
-9
22
7
-11
-12
2
5
4
5
23
2
2
9
2
0
0
14
-18
0
-5
-9
-3
-4
9
7
29
4
12
-15
-7
4
-3
-4
-17
18
-2
-2
4
1
3
3
-2
-26
-3
1
-1
-2
-2
1
4
-8
0
-7
-4
-4
-11
-6
-27
4
7
22
-2
1
-3
-12
46
-16
-38
14
9
4
7
24
-43
25
16
-10
0
-4
-15
-13
10
-13
-2
-4
-6
0
10
1
45
22
-3
8
0
-1
16
27
-66
-40
-11
-6
-4
-7
-11
-41
17
18
2
-14
2
2
-15
-4
27
24
-7
9
-2
-6
-1
15
22
0
-1
-11
0
-4
-3
-6
17
-7
27
0
-6
-4
-4
8
-32
-18
-32
-5
1
2
3
-6
0
3
14
3
-10
-3
18
12
-12
-5
-8
24
12
6
-9
-11
28
18
1
-27
-3
0
-4
3
-22
-21
-15
22
-9
-5
4
0
-1
6
0
4
7
4
-14
-9
42
13
-5
-8
-6
-6
6
14
-86
-13
11
-2
1
1
-6
-19
30
-9
1
-7
2
6
5
3
-23
-5
-18
2
-1
-4
8
-1
-7
-1
20
-10
-4
-1
-5
-8
10
-13
-24
-1
-3
1
2
-5
-21
15
15
-10
2
-2
-2
-5
20
6
-8
1
-2
-8
-15
-2
-36
-27
-7
-23
-4
8
3
-16
24
20
-10
21
7
8
6
24
-25
17
-2
11
2
-1
16
13
-25
-16
13
10
-3
-3
-15
-24
-62
-34
7
-51
-1
-8
-5
-5
-19
-3
-3
-2
0
2
7
1
38
5
-12
-11
-1
-3
0
14
7
12
20
7
-3
-1
0
10
-10
-14
12
11
0
-1
-3
-6
5
8
-8
10
-1
-2
2
-6
32
-25
5
-15
-2
-1
-10
10
-2
-16
-17
-20
-6
0
7
4
6
9
8
26
3
-3
-8
-13
18
-6
4
26
-1
-5
7
10
7
26
6
-25
-1
0
-17
-22
-5
-8
4
-4
1
2
-5
2
19
8
5
3
-1
-10
9
3
-6
12
3
3
0
11
9
22
-35
-20
-6
-6
-6
-5
-6
-25
9
-6
-2
-7
2
3
8
-2
-33
10
-15
1
-1
-5
-15
6
40
2
12
-11
-2
-2
5
-6
-20
22
16
9
3
0
7
20
-2
-16
-19
-11
4
2
-9
-18
-27
-14
18
4
-4
-6
1
-5
4
0
-3
4
4
-6
-17
-11
8
-9
-14
-2
-2
-1
8
12
6
32
-1
1
-1
-1
-2
-16
26
-8
5
15
2
5
5
12
-49
-7
-18
-24
5
-3
-15
-10
-2
-21
4
-2
-3
-1
2
2
7
23
-12
-1
-1
-2
9
3
15
-43
-2
-11
-8
-1
-10
-8
-32
15
12
-5
-5
4
2
-10
46
-3
0
8
-2
-14
-15
0
21
20
5
4
-1
-4
5
17
-45
-6
-25
6
2
18
25
9
26
6
13
4
0
1
1
-20
6
7
-6
-8
-1
0
-8
-11
1
-13
11
15
0
-2
-5
10
-19
14
0
-41
-1
-6
-3
-3
15
-5
-21
19
1
-1
8
17
1
4
5
2
-9
-3
-5
-6
-6
-26
-6
1
8
2
4
1
49
26
-15
0
-2
-5
-6
9
-74
-17
1
-2
-2
0
-2
-7
-19
-13
1
-2
-1
-2
-4
-24
23
-5
-3
-4
-4
1
-5
16
1
3
-7
-2
-5
-4
1
-7
20
3
13
1
-2
-3
-7
-1
-4
12
4
10
-1
-1
19
21
-38
-5
-15
-10
1
0
-12
-13
13
0
-21
-1
2
2
-2
-9
23
3
6
-3
-1
1
-4
3
-26
-7
-7
12
8
8
12
10
-39
13
5
-15
-4
-4
1
-7
3
-22
-4
8
-6
-8
-4
7
16
-2
5
7
-2
-9
-4
5
-17
-2
-3
-8
-1
-2
-6
-15
8
1
9
-2
-3
-4
-2
-10
-1
12
-7
8
3
12
5
4
-10
7
3
-10
-5
-2
20
8
17
0
0
-1
-3
-3
-21
3
-3
-6
-2
13
4
-1
-9
-6
-31
-5
20
1
2
2
1
2
20
-7
-15
3
-3
-1
-5
-2
1
5
1
-23
0
0
6
-1
-5
-8
-24
4
-3
0
8
5
15
0
-4
-3
-3
-3
-6
-2
5
4
2
-1
1
0
-8
-1
2
-4
10
-4
-4
-4
9
-4
1
-1
3
-5
-2
-1
-4
1
23
13
1
3
4
1
1
-1
-12
-18
-3
-7
-2
-2
-7
-4
-11
2
-9
1
-1
3
3
-2
22
3
4
2
1
2
4
3
-2
-5
2
3
-2
-9
4
1
5
4
2
-9
-3
2
-8
-2
-1
-2
3
5
2
2
2
1
6
2
2
1
0
0
-1
0
-5
-2
-6
-3
-2
-4
1
-5
1
-2
-5
-1
1
-2
-7
0
-4
1
4
2
0
-2
-7
-3
-4
-2
1
-1
0
0
0
-1
-4
4
7
2
1
-1
5
0
0
-7
-18
-8
-5
-8
1
0
2
4
-1
6
-2
-11
-6
-3
-2
-6
5
-1
1
11
5
1
0
0
2
-2
-1
2
0
-2
6
4
2
1
-1
4
4
0
-4
0
1
2
-1
-4
-2
0
1
-7
-6
0
2
-4
8
2
-1
-2
-6
-2
-3
0
-15
-1
3
2
5
0
-2
-5
-2
-2
-2
7
22
4
1
4
1
-1
-4
-6
-5
-9
-3
0
3
-2
1
1
-13
4
-2
-23
-6
-1
1
2
23
5
7
25
5
1
-6
-2
4
-4
2
13
4
-2
2
0
8
-3
-2
-3
7
3
-7
-6
-28
-3
-3
4
-19
2
3
-7
-20
-6
-9
-16
-3
-12
-4
-3
16
-3
-6
-4
2
-2
3
8
-7
2
2
6
2
-1
-3
-4
21
-1
-4
-6
-3
-1
3
9
40
15
7
-5
3
6
-1
-9
-33
-1
5
9
6
3
-2
-2
22
-10
-12
-18
-13
-2
8
3
-53
-8
4
5
3
2
-4
-5
-13
-9
-6
9
-14
-1
0
0
1
-4
3
15
9
-3
-1
9
58
8
3
0
1
-2
3
5
-17
6
4
0
11
-3
-3
-12
-8
-7
-8
-13
-20
-1
1
6
-5
8
1
-3
3
2
-5
-17
-60
-16
-5
3
0
-1
-2
7
30
-2
-2
-3
-1
-3
1
2
27
3
3
-3
19
-4
-5
-11
-30
-3
-4
-10
-14
-4
5
8
9
24
4
8
-17
3
2
2
-8
-13
0
21
24
4
-12
-15
-52
-25
-14
1
-8
1
2
5
25
4
3
2
-1
2
0
3
51
18
4
-12
1
-1
-4
0
-28
-12
-3
3
-8
-1
1
-7
-37
-10
-5
-11
-8
0
6
11
60
20
5
-6
-9
-1
1
0
-76
-4
0
-16
26
-5
-18
-23
77
-27
-17
9
-5
-3
8
15
65
22
3
-5
-10
6
13
12
-36
-4
2
16
12
4
15
8
-16
-6
22
12
6
-2
-42
-46
69
-5
-39
-23
-18
-14
4
15
27
31
15
10
25
-7
2
-8
93
-19
-5
-2
-14
4
-1
0
-25
-4
-3
-5
-18
3
20
19
-15
17
19
-6
3
5
-8
-11
20
-1
-5
6
5
7
-4
21
84
46
3
-6
-18
-4
3
-8
-4
-13
-9
-30
2
7
-9
-21
-88
-43
-7
9
14
-3
3
3
15
-4
5
26
8
-1
16
3
-19
2
8
9
-1
0
-21
-18
-31
-45
-15
9
14
-10
12
19
13
24
11
-9
-13
6
-2
6
-14
14
-1
-18
-8
-2
-16
-18
-61
-25
-11
-3
9
-4
-2
0
-16
1
1
2
-15
7
8
5
29
27
8
-8
4
-7
-1
-10
-67
-30
-2
3
0
13
-2
-5
4
0
-5
-2
0
-19
8
10
-4
-10
-1
-11
-25
1
-21
-5
8
9
5
6
3
-14
-2
0
27
4
-6
0
10
0
9
-5
-47
0
3
-6
11
8
-7
12
26
27
0
-2
-12
-6
10
16
18
2
4
14
-4
0
0
-8
-21
-8
1
-7
-7
2
-3
-5
-38
-17
-3
-5
-5
3
-2
-7
31
10
0
9
6
-5
4
14
44
-5
4
-2
5
6
-2
-11
-43
4
-3
-3
-10
-18
-4
-1
-7
3
-7
-8
0
0
3
-4
32
3
4
7
-3
-2
2
-1
3
17
-5
-8
3
1
5
12
39
1
9
14
5
7
-11
-24
-82
-33
-12
-7
-4
-3
14
13
60
13
-5
2
2
-3
1
-22
-53
-8
-1
-6
-5
3
-11
1
-15
-7
-5
-8
-15
-6
-11
10
43
18
3
-1
-1
11
-5
-14
-62
-13
-3
3
8
-2
6
1
6
3
-3
-6
-10
-3
5
16
62
7
2
-5
-3
0
-2
-7
-81
-12
2
-3
3
8
-14
-13
8
-8
-10
0
8
-5
-4
17
-9
8
6
8
-2
-8
0
-11
-64
-50
-10
-7
23
9
-28
-13
54
31
-4
4
-35
-24
11
7
-2
6
6
4
6
3
-2
-4
-7
-5
-5
-11
4
1
5
9
53
11
7
6
7
-5
7
4
-9
-11
-3
-9
-1
0
-3
-6
21
4
-1
0
0
3
-1
6
45
2
6
8
1
1
-1
6
23
24
-3
-11
-12
9
1
1
34
-5
1
2
10
-12
-6
-17
-87
-20
-4
1
-9
0
0
3
37
-6
0
-4
-6
4
-4
-5
6
2
-4
-2
-1
-7
9
5
20
2
1
-2
8
2
-8
0
21
4
-7
-4
21
3
18
-13
-68
-9
4
8
-29
-5
-5
1
-19
1
-4
0
12
-6
-6
1
45
-1
1
-3
-6
-2
-6
-4
1
-6
-4
-10
-14
0
5
-7
-65
-6
-3
12
30
13
0
-7
14
7
0
-3
-13
-18
9
9
22
7
6
4
21
4
4
2
5
1
3
4
-16
-1
-6
2
-12
-5
-3
-5
-4
-6
-1
0
30
6
-3
-6
-8
2
-2
-8
-35
-5
-5
-6
-1
2
-3
-2
-2
1
-1
2
-4
-2
0
0
28
7
2
-1
1
2
6
11
27
9
11
3
4
1
-6
-12
-29
-21
-12
-8
-10
0
-1
-1
5
13
0
4
-1
1
-2
-3
11
2
-3
-5
7
-4
2
2
11
1
1
1
-10
2
2
5
-6
6
2
5
1
-1
1
1
-12
-9
-3
-1
0
-2
-3
1
22
5
1
-9
-1
-1
-5
-15
-56
-11
-4
-9
-7
-2
3
2
14
6
3
7
7
1
-3
1
-1
-3
-4
-1
1
-5
2
5
0
-7
0
-2
-4
-1
-2
-1
1
10
5
2
3
2
0
0
-4
-7
1
0
-3
2
-1
1
15
9
1
0
1
-1
-2
-6
-1
10
-4
-4
1
-2
3
-3
-19
-24
-7
0
-1
1
1
0
7
-7
-3
-4
-3
-2
0
2
19
1
0
-2
-2
-1
-3
0
-36
0
-4
0
-3
-3
-3
-4
-11
-25
-1
-2
0
1
1
3
6
19
7
0
0
1
-4
2
-3
4
-1
0
2
0
-3
2
38
3
1
-1
-4
-3
0
-2
-20
-6
-9
-4
-2
-3
-4
-2
-15
1
0
-1
1
0
2
-1
-1
-8
2
-1
-2
-2
-2
-1
-14
3
0
-3
-1
0
1
1
5
-9
-1
-1
2
-1
-2
0
-6
-5
-3
-2
-2
-2
2
-1
8
-9
-1
1
0
-1
8
2
9
5
-3
0
-2
0
2
-2
-6
15
9
2
0
1
-16
-4
-4
-2
-6
-4
-2
-3
-7
0
7
1
-2
-2
-3
-4
-2
-9
0
-8
-3
1
1
-1
-4
-2
-4
4
-5
-1
-1
1
7
4
-3
-6
5
2
-1
2
6
2
-1
12
1
3
1
2
-4
2
-2
-4
-2
-2
-2
-1
0
0
-3
6
-1
-3
-4
0
3
-1
3
3
0
-1
-1
-1
-2
-1
0
-10
-4
-4
-1
-1
6
0
1
-1
3
2
2
0
-4
2
-2
1
0
0
2
0
4
3
12
5
1
2
-1
2
0
-4
-5
-4
-6
-3
-1
1
0
-1
-1
6
2
3
-3
-4
-1
-8
-2
-11
1
3
-2
-6
-4
-2
-5
-9
-2
1
-3
-1
-4
0
9
3
1
-1
-1
-1
-2
2
-17
-7
-4
-1
0
1
11
4
4
15
2
-1
-1
3
-2
-2
1
-5
-5
-1
-3
-1
2
5
-2
-5
0
-2
-2
-4
-10
-3
3
-4
0
-2
0
0
1
-8
-6
-8
-6
-6
-3
-2
3
1
-5
4
2
-1
2
0
-15
-12
-1
5
-1
0
2
-6
5
7
0
-10
-1
-3
-2
-1
-5
-1
-3
-3
-4
-2
2
0
10
-5
2
8
1
-1
-2
1
0
12
-3
0
3
3
3
3
5
-4
-1
-9
-4
-6
-7
-9
1
4
14
-1
2
-2
-1
-5
-9
-8
3
-2
-5
-4
-2
-2
14
-2
-5
3
-1
-1
0
0
1
2
7
17
7
4
3
5
-9
3
-10
-21
-3
-1
-1
-2
15
5
-7
0
-2
-5
-1
-1
18
-6
3
6
3
3
-2
0
-49
-9
2
-3
-8
-5
-1
-4
15
-3
-7
1
3
0
-4
2
7
11
1
-2
0
3
4
4
-26
-20
-3
-19
-9
-8
-13
-6
5
3
13
-1
-4
-2
1
0
-42
-4
-7
10
3
1
0
-1
8
10
-17
5
-5
3
7
3
18
-7
10
-17
11
0
0
-7
-33
-5
7
8
-1
-3
-6
-3
54
5
-2
3
-7
-5
2
5
-52
-22
-26
-20
-7
-12
-10
-8
-25
-13
-32
-3
-4
0
5
-2
39
22
9
2
3
-1
4
6
-24
19
23
6
2
4
5
0
38
-42
-61
-18
-9
-6
-6
-8
49
9
39
12
0
-2
8
11
-29
-12
-39
-16
-1
2
3
-10
-47
27
11
28
6
3
2
7
71
22
30
-12
15
6
5
1
15
-17
-24
8
-15
-14
-6
5
-13
-40
11
-15
-6
-11
-16
-23
-24
-3
-5
11
6
5
13
3
32
12
28
3
-16
0
3
4
20
21
-5
-9
6
10
3
10
15
-12
6
-1
7
-8
-1
-1
48
7
12
16
-8
-3
-11
-7
-69
-20
-20
13
13
4
9
4
-82
11
13
2
-6
-4
-1
2
-68
-38
-32
-6
-6
-3
0
1
77
-4
-10
-41
-10
3
0
-7
-7
32
41
22
5
5
-4
-5
7
3
8
12
4
6
0
-1
63
31
27
15
7
8
-5
18
-29
-29
-7
2
-4
-8
0
-3
-41
-5
-3
5
-4
0
-3
-14
10
4
8
-1
-5
-3
-5
1
10
-2
-15
-18
-3
-4
0
4
30
-17
4
1
-4
-4
-11
-5
-55
24
26
-5
-1
-6
-4
-8
-6
-30
12
8
-1
1
3
-2
9
0
-24
13
-5
-10
-1
4
6
1
-2
-32
4
9
-13
-8
-3
9
-33
5
-1
-6
8
17
-75
11
5
-6
-2
-1
0
-20
67
24
26
8
8
9
15
37
-31
-44
-29
-11
-4
-6
-1
-5
44
6
15
-3
-4
-2
-12
-19
1
4
-4
-6
16
8
3
9
-33
21
7
6
-10
1
-5
-11
1
5
-14
8
-3
7
5
2
12
-5
27
-10
1
4
4
9
11
6
-64
0
-6
-3
-13
-2
-18
-22
13
-45
1
0
-7
-22
-31
7
16
37
4
-9
-7
1
16
14
-47
-13
-1
15
23
13
-7
-16
3
-3
5
1
-5
-2
-1
28
16
17
-1
3
-5
-14
-4
-4
-1
-20
3
-5
8
11
17
-30
-9
-7
-11
1
-23
-3
26
27
4
3
15
8
11
-2
22
24
-7
16
-1
2
3
3
-28
8
14
-19
-6
-1
-11
-12
-49
-7
-11
-2
0
-3
-7
2
14
-10
1
-2
-11
-6
-3
-9
-34
-4
2
-8
-2
2
3
-1
-10
-32
12
21
8
5
0
-5
-2
11
26
-15
-1
-6
-3
0
46
-6
-31
1
-2
-2
-3
-7
46
15
6
8
2
-2
-2
-5
-35
17
-9
-7
-9
-9
6
3
-28
-14
-14
4
2
7
-4
-10
-23
-9
9
-24
-8
-4
-3
0
17
28
-10
25
3
-1
6
3
80
-8
-21
-10
-1
-6
1
18
-43
1
15
-6
1
-9
-10
-3
-10
-16
6
-19
-7
2
-4
-14
-13
2
1
-1
-2
-6
18
-4
-20
15
-5
14
3
5
-14
-4
20
-9
-7
-5
-2
-8
9
4
-2
-9
32
4
-6
-5
-9
14
-82
-23
0
-10
-12
-3
-6
-13
71
0
-39
-13
29
11
16
10
-10
2
14
15
4
-1
0
-9
-23
22
-25
23
1
-3
-2
-3
56
2
24
3
-6
-1
-5
5
-53
-5
1
-15
-15
-7
-3
-5
81
-14
4
-26
6
1
-4
-3
-20
4
28
3
0
-3
2
-3
-13
-17
-24
1
1
-5
-3
-5
55
15
2
14
-2
2
1
8
-77
-2
-1
3
2
1
-7
-6
20
-15
4
-17
-6
-3
2
7
6
2
-14
-8
-2
-6
-2
1
12
4
7
2
-2
8
-6
-2
-68
6
1
4
0
4
12
-1
27
11
-8
10
-1
-1
-1
-3
23
-8
2
-3
3
2
-7
5
0
16
15
13
-2
-6
5
-1
-43
4
-10
-5
-7
-5
-7
-12
-34
-18
-6
9
12
4
-2
1
42
8
23
-6
5
6
10
12
-51
-24
-44
-9
-8
-4
-5
-11
42
0
31
11
-4
-2
-3
5
2
12
-22
-1
1
-3
4
4
-1
-3
-2
-2
-5
-4
-4
-3
0
-8
10
4
-8
-5
-6
-4
30
-3
0
2
4
2
1
5
-25
16
-1
-9
-3
-2
3
-3
11
-12
-13
15
4
5
11
2
-45
-3
24
-4
-5
-5
-14
-9
22
-3
-18
3
-2
-6
3
8
13
11
10
7
1
4
3
-4
-27
-9
-11
-6
-1
-11
-19
-1
-8
-2
14
-4
-5
12
7
-2
22
2
-7
-5
1
8
13
0
31
0
-29
6
6
4
4
5
-32
-10
2
8
-2
2
1
1
15
9
11
-20
-4
-12
-12
-1
-15
20
-27
6
-5
-7
-11
-4
34
-40
7
1
-4
1
7
4
11
-11
-24
-9
6
1
-3
-5
-27
4
37
-2
-4
-2
0
-7
16
-6
-10
10
1
2
-3
0
17
2
-32
-8
-7
-8
-3
10
25
-3
8
-15
1
4
-5
-4
10
3
-21
1
0
-1
2
2
3
-1
21
19
6
-2
18
2
-35
8
-15
-7
-4
1
-19
-7
-22
8
-1
5
-3
-3
3
4
-8
-20
6
-17
-2
5
7
-4
9
-13
-1
-4
-1
-8
-11
-1
0
8
15
5
-4
-8
4
4
18
-18
2
1
-4
5
-1
6
-15
2
-5
2
-2
-6
-2
-21
8
-7
-17
-9
-7
-4
-4
3
-9
10
0
8
7
7
8
-8
-9
3
-8
5
1
0
-8
-2
-5
4
3
12
13
4
5
5
68
-13
-9
-24
-5
-2
-7
11
-72
18
27
-1
-5
-6
0
-2
19
-25
-4
11
0
1
3
-9
-4
1
-32
0
-2
-1
-2
0
1
3
24
8
-7
-4
-11
-5
22
-20
-16
-14
-7
-4
4
3
0
18
12
3
1
3
4
6
-45
8
14
-16
4
0
-10
-5
66
0
-32
11
7
2
12
24
-17
4
19
8
-4
-4
-12
-16
-24
-3
14
-7
-5
-10
3
-5
25
1
-26
8
5
5
-2
7
-46
11
13
-3
-5
-9
-14
-10
39
4
-19
-19
-4
8
7
5
-23
-7
-12
4
-1
-1
1
7
-45
-12
19
-10
-5
-9
-3
-19
-54
-11
-2
-2
8
10
4
-6
94
-7
19
5
3
1
14
14
-39
10
-10
-7
-1
6
-10
-9
45
-4
5
9
-7
-4
2
8
-36
-5
-20
18
2
0
-1
-4
-36
-6
-7
-30
-6
-5
-8
-6
15
-13
-8
0
3
2
9
2
-20
20
13
-3
-3
-5
-19
4
-11
-19
2
-18
-4
0
1
-9
27
9
0
10
0
-2
-6
3
-32
5
6
-10
2
2
6
-8
-35
-8
-11
19
6
7
8
8
17
3
19
-7
-3
-5
1
-3
32
4
-1
6
-1
-3
-10
1
4
1
-6
-4
-2
0
-6
1
5
6
-11
-11
-5
-2
11
4
-16
17
4
1
-2
2
1
-6
23
-11
3
1
-2
-2
-4
-4
-24
-14
0
9
11
-1
-2
-6
38
3
8
2
-9
-7
1
7
-2
-2
-1
-2
-7
-9
-11
0
-38
-16
-4
-13
-2
5
3
-5
-16
4
-4
-16
-5
-5
-1
-4
11
4
-26
9
7
7
20
3
-34
3
30
1
0
6
-15
-2
-8
-14
-6
10
-1
-7
-6
1
7
-5
3
-15
-7
-6
-7
-5
26
3
11
8
3
-1
-4
0
1
-1
-29
-14
-1
-3
5
-1
-43
-5
6
9
5
-2
1
1
4
5
-7
-2
-2
5
3
6
21
0
8
1
-1
-4
-3
-11
39
-12
11
-1
-2
3
7
7
-57
3
-27
-9
0
-1
-8
-2
41
-5
-1
9
-2
-5
-7
-10
31
-6
2
-1
-1
-1
-4
6
-46
12
33
2
9
4
11
-6
-24
15
-10
9
2
1
5
0
36
21
32
10
-2
1
2
-8
-14
-2
-30
-12
-7
-5
-4
3
11
-27
-13
-11
-8
-8
-8
0
-3
9
16
19
1
4
1
-9
-16
3
-21
3
1
-3
-12
4
11
-1
25
-17
-1
0
1
10
11
17
-8
11
3
-1
3
-5
-33
-9
-2
5
1
-3
3
-11
1
-10
2
-3
-7
-1
-2
2
-7
-6
-35
-10
1
-4
-6
-2
25
4
4
1
1
3
6
2
-1
3
12
2
0
1
-1
-9
22
15
1
-5
-1
0
6
4
-43
-10
-2
10
-2
-2
-4
-5
36
-4
-12
4
-2
-3
-1
12
56
-4
12
2
3
-2
-4
1
-13
-10
5
-2
0
1
3
-5
-4
7
-16
-3
-5
-4
6
7
18
0
24
-4
-11
-5
-11
-3
-21
-12
-17
3
1
2
-1
-1
-13
-22
-13
-4
0
-1
-4
-3
51
7
28
16
2
3
4
-2
-19
24
-53
-24
-5
-2
-1
-2
7
-5
13
-9
0
-3
4
3
-3
14
9
8
4
2
-1
-1
4
-21
-3
-5
-6
-6
-5
-6
17
-1
-4
-16
9
6
9
12
-8
7
11
-2
-4
-7
-11
-16
-7
0
-11
-7
-3
-1
2
-5
9
-11
16
16
-1
1
-1
0
-31
-17
-10
7
3
-1
-4
-6
-4
6
-15
-13
0
1
2
8
6
0
-6
-5
-7
-3
0
1
-18
-3
1
-10
-1
2
1
-4
-23
-10
3
-8
0
1
-2
-9
55
0
16
13
0
-2
-2
-3
19
0
4
-1
0
0
14
7
-1
15
4
-13
-5
-4
-19
-1
-31
-23
4
-7
-5
0
-3
-13
-9
9
-2
-6
0
4
5
6
44
1
-2
2
3
3
3
13
-32
-1
10
7
4
-4
-1
-7
4
16
0
9
-3
-1
3
3
-23
-13
8
3
-4
1
-13
-5
-24
-15
-26
-7
-5
0
6
-2
20
-5
13
-6
3
4
8
8
12
14
16
14
-2
-6
-6
-2
-40
-24
-25
18
-1
-4
2
-16
32
-6
6
-11
-2
-4
-8
-4
0
-9
-3
-5
-7
-4
-3
-1
10
8
1
10
0
-3
-2
0
22
18
-2
-11
0
6
0
12
-83
16
4
4
6
-1
3
-7
5
-20
-20
11
2
-2
-6
1
6
-6
11
-13
-9
-3
-7
-7
2
9
13
-1
-2
-2
2
4
40
20
5
10
2
-3
-13
-9
-40
-23
8
-22
1
6
30
10
-33
3
9
17
7
12
-5
-13
13
-2
-46
-14
-4
-5
-2
0
-11
0
3
-12
-8
-4
-2
-2
23
28
-1
20
3
-2
-3
2
-15
-43
-12
4
-8
-2
0
8
-24
-6
-5
-12
4
-2
2
1
-16
-8
6
8
4
-1
-10
-7
11
23
12
5
0
-3
-1
2
32
0
4
-5
3
2
3
7
-40
-12
2
-9
-9
-6
-2
-6
-37
0
-24
-18
3
-1
6
-1
1
4
0
3
1
1
-15
-10
-3
19
0
1
-1
-2
5
12
-4
-19
-7
-10
-2
-6
-3
-6
14
-1
9
1
0
-3
2
1
-7
3
-4
-5
-3
4
-6
-3
-25
16
3
-3
0
1
3
-4
27
16
8
13
1
5
5
5
-9
-18
-6
-6
-3
4
-3
2
-24
-7
-6
12
0
-6
-6
-5
62
3
-9
-1
-6
-4
1
3
-35
13
21
-9
-3
0
3
-7
7
-16
-13
4
3
0
-9
1
-23
20
21
-12
-5
0
2
-8
0
-28
-51
-12
1
-4
-9
-7
6
-6
2
0
-4
-1
2
2
1
19
-1
2
-5
-2
-3
4
-25
-19
-19
2
7
1
0
-10
6
0
25
-3
-1
-3
5
7
-8
3
10
12
7
4
-2
-2
59
-2
9
-10
-5
-2
1
8
-2
0
-24
-2
-8
-7
2
-1
-40
7
3
1
3
-10
2
-13
12
6
-10
20
7
9
-13
-3
-7
14
31
9
-3
4
9
10
-30
-40
-5
-15
-4
-2
-2
-8
38
1
10
-5
-4
-2
-7
1
24
11
9
-1
1
-3
6
11
12
8
5
2
0
-2
-6
-7
7
5
-2
-10
-1
0
-1
-2
-27
-4
-33
0
-4
-3
-5
-8
1
-18
9
-3
-4
-3
3
0
-7
9
-37
-6
4
3
-3
-1
29
-11
21
-9
-6
-4
1
13
-20
-8
0
-1
-1
3
-3
-11
-31
11
9
1
-6
-7
-3
-10
-7
-8
0
6
3
-2
2
-4
8
-3
-8
0
-2
1
-8
0
-9
1
2
6
11
10
4
3
44
-7
-5
-8
-7
-7
-6
7
-10
-1
5
-1
-3
-5
-7
-3
-18
6
-26
4
-2
5
19
-1
35
0
14
-5
1
3
1
5
5
-4
-4
0
1
-1
5
-1
-4
-4
1
3
-2
-2
-6
-1
16
5
2
0
-1
-5
-11
-2
-22
0
-1
-1
-4
-8
-5
-2
7
-2
-7
2
5
15
10
1
-12
1
12
-3
-3
-2
-1
0
18
-3
-22
-5
0
2
-3
-1
-10
-4
-6
-2
-4
-6
-3
-2
-2
2
-6
-5
-6
-9
-8
-4
2
-7
6
1
-1
-1
1
1
0
9
9
4
6
0
0
0
3
2
7
4
-1
-3
2
3
6
-4
-3
1
-2
3
4
1
-9
-5
-9
-6
0
0
0
-3
3
5
6
1
0
-5
0
-1
-9
-1
1
-1
-2
-3
0
-5
9
1
-4
-2
1
-7
-4
0
-8
-7
-2
2
-2
8
4
-3
0
2
0
1
-1
-4
-7
-1
2
0
1
3
-2
1
6
1
-1
0
-5
-3
-1
-4
-3
-2
1
2
3
-1
3
-2
2
-1
1
-3
-5
-1
1
1
2
-1
-1
-1
4
0
-1
4
-3
1
1
2
0
-1
0
-1
-1
-1
-6
-6
-14
-2
-1
-1
3
-1
5
5
13
0
1
1
-8
1
-4
-3
-24
-5
-2
-1
-1
0
-1
0
10
1
-1
-1
-1
-1
2
0
3
2
-1
-1
0
1
-2
-1
-3
-6
-2
0
3
2
1
9
46
6
-1
-3
-3
1
-3
-6
-48
-7
-3
3
1
0
-9
-6
-7
-1
-4
-10
-6
-1
2
3
21
6
1
-2
-13
-5
2
-3
-36
-4
9
27
20
2
5
3
42
-3
-2
-5
-4
-3
3
1
-9
3
-4
-4
6
-3
0
-5
-39
-13
-5
0
2
0
-1
-1
51
7
-8
-8
-10
0
4
4
3
3
3
3
1
1
0
-8
-17
-8
-2
-2
1
0
3
4
-8
3
4
-2
6
-1
4
3
-2
-1
4
-8
-7
-2
3
1
25
11
4
5
4
3
-5
-5
10
-3
-11
9
-19
-2
-5
3
0
1
-4
7
11
2
-2
-1
-14
-1
1
2
3
1
2
0
8
5
0
-13
-4
-2
7
6
-10
2
11
6
11
4
-2
-10
-2
-9
-1
3
-5
-3
-4
3
13
2
-3
-4
-1
-1
-3
-5
-32
-20
-10
-7
-4
0
-6
0
15
0
-5
-4
-23
-4
-1
2
-8
9
-1
-8
-1
1
1
-7
-1
-8
-4
-5
0
-1
0
4
19
0
-2
-14
-4
-3
2
-4
-8
2
6
15
18
0
-5
3
13
2
-7
-9
-26
-4
0
-8
-58
-10
0
14
12
3
-4
-3
17
-3
2
19
15
0
3
10
30
-1
-1
-24
-6
-3
3
-4
35
-11
0
-4
-14
1
-3
-6
-77
0
-2
17
3
-3
-5
-6
1
-10
-7
3
-6
-4
3
9
22
17
7
2
5
1
-3
-13
-45
-38
-11
-11
0
-4
-8
-8
7
-16
-12
-25
-24
-3
4
6
-2
13
4
4
3
0
0
-7
-19
-5
5
-3
-9
-1
-5
-5
1
9
-5
-15
11
-2
-1
12
54
20
10
20
3
-1
-3
-11
-45
-23
-4
-3
3
0
1
7
35
-1
-3
-8
-22
-1
0
-1
22
4
2
16
31
2
1
-5
-26
-2
1
-8
-4
-2
2
14
-2
26
7
3
-8
1
-9
-13
8
-8
-10
-10
18
-4
5
11
-21
15
6
7
-24
0
4
1
77
2
1
-27
1
0
-4
-8
-60
-23
-7
18
-5
-5
-5
-12
-24
-6
-1
9
3
-1
-2
2
12
-10
-4
3
10
0
0
5
-26
9
-5
-13
-6
3
3
-3
-27
1
5
3
6
2
-1
-2
16
-2
-2
-3
3
1
4
2
-7
6
4
12
4
-3
5
11
-18
-3
3
-6
-9
-2
-6
-11
19
9
-10
-14
-2
-4
-7
-3
5
-10
-3
3
5
-3
2
2
-30
-4
-1
-8
-18
1
2
3
32
-1
3
8
9
1
1
6
8
-4
-1
-3
-4
-3
3
2
-12
4
4
5
1
1
-1
-7
51
11
0
-10
17
-4
-6
-19
-57
-12
-8
-10
-38
-6
-3
-5
12
-10
-2
5
8
3
2
8
16
8
1
-2
-5
-1
0
6
14
6
3
-1
8
0
0
0
22
-2
-2
4
10
0
0
-4
-1
4
4
-7
-6
-1
3
9
-1
4
3
0
8
1
-7
-12
-26
-6
-5
-6
-4
-2
-5
-10
-11
0
-4
11
-2
0
2
8
21
4
-5
-8
0
-1
-2
-3
3
-10
-7
1
-12
-2
1
6
-5
0
7
7
2
-1
1
-2
13
4
-4
-5
-4
-1
-1
-2
13
5
0
-4
1
-1
-1
-8
-43
-16
-2
-3
5
-1
0
5
-1
4
-2
1
-5
-1
2
7
23
1
-1
-2
-1
-2
-3
-4
-14
6
1
-1
-7
1
-2
-4
24
3
-2
-1
-7
1
-1
-3
-21
-12
0
10
8
1
-3
2
22
1
0
-3
10
0
-2
-5
-38
-8
3
2
4
-1
-3
-4
-26
-10
-3
-5
-8
-1
-1
1
28
5
-1
-2
0
0
-1
-1
27
0
-1
2
2
-1
-2
6
11
0
-2
-9
-9
-1
-5
-9
-22
3
-3
-8
0
-1
-3
-10
-21
-19
-9
-3
-12
0
1
0
-9
2
-1
10
19
3
1
3
6
-1
4
10
-3
-1
3
6
22
5
7
2
3
1
-2
4
-1
10
2
-11
5
-1
0
-1
-14
-3
-2
1
1
-1
1
-4
9
1
-4
-1
-12
-1
1
5
-3
3
0
8
8
3
3
4
18
7
2
2
-1
2
-4
-12
-31
-13
-3
-3
-2
-1
-2
2
32
7
-5
-6
1
-3
0
-1
-13
-3
-4
-5
-6
-4
0
0
3
-1
-2
1
-6
-3
2
5
9
4
1
-4
-2
-2
1
3
3
-1
6
0
4
1
0
-3
4
9
3
-2
1
0
-8
-12
-1
-1
-11
-8
-8
-2
1
4
-14
-4
1
-5
8
-1
0
5
56
14
3
1
-13
-2
0
-3
-51
-13
-3
-5
-12
-2
-1
1
-21
-12
-1
4
13
1
-3
0
4
1
-1
-2
1
-1
0
1
4
1
-1
-3
4
2
-1
0
14
8
0
-1
-2
-1
2
0
-2
6
2
0
-5
0
-2
-7
-15
-4
0
-4
-5
-3
1
-4
-29
-7
-4
-2
0
-1
-2
-3
11
-3
-6
-1
4
-2
0
-3
-11
-4
1
-1
1
0
-2
6
20
7
-1
0
-2
1
-1
-2
3
-1
1
-1
1
0
1
-1
6
0
-1
3
2
0
-5
-3
-18
-8
-5
-3
-1
-3
0
5
19
7
1
0
-8
-2
-3
-8
-21
-11
-4
-2
2
1
-2
3
18
4
0
0
2
1
3
4
17
6
6
2
1
1
-3
-4
0
-9
-4
-9
-2
-3
-2
-4
-23
-6
-3
2
-8
-3
-1
-3
-34
-5
-3
0
7
0
0
1
24
3
0
-1
-2
-1
-2
-3
-16
-7
-1
-1
0
0
1
0
1
-3
-6
-7
1
-2
0
-2
11
4
8
1
-2
-1
-1
4
-9
4
1
1
-1
-2
0
-5
4
-1
-2
-1
-1
-1
-2
-1
-27
-5
-3
-3
0
1
1
1
6
10
-1
2
-2
0
0
-5
-5
-20
-6
-5
-2
-2
-2
1
-12
-3
0
5
-3
-1
-2
-3
6
0
12
2
1
0
-3
2
2
3
-6
-4
0
-1
4
3
3
-5
5
-1
-1
0
-2
0
-1
8
1
0
-2
-2
0
-2
-1
-1
-5
-1
4
2
-3
-4
-5
-14
-4
-2
-4
-4
-1
1
8
9
-1
-2
-2
0
2
0
-8
-13
-6
-3
-2
-1
-4
-5
-1
2
-3
-3
1
-1
-1
1
5
1
1
0
-1
1
2
1
2
-6
-7
1
-2
1
1
-1
2
6
5
0
-1
0
-8
2
0
6
-2
-1
0
-2
-2
-4
0
-3
-2
-1
0
-3
-2
-4
-19
-5
-1
1
0
0
3
2
12
6
-1
0
0
2
3
0
-5
-1
-2
-3
-1
-1
-1
3
10
-1
-4
-1
-2
-3
-1
-2
-2
3
7
2
-2
-2
1
-1
-11
-2
-4
-2
-1
-1
2
0
7
-8
-2
-1
-1
-1
-3
-2
-5
6
2
-1
0
0
6
0
7
6
-2
1
0
1
-23
-2
1
3
-1
-1
0
-2
2
-5
-9
-12
2
-1
-1
0
-1
-4
-4
-7
-7
-4
-2
-3
3
1
7
2
5
1
0
-1
12
-2
-9
3
1
-1
-1
1
13
5
8
6
1
1
1
0
5
-1
-1
3
3
0
0
0
14
-4
-2
9
1
-3
-4
-5
-20
-2
2
-6
-1
-3
-1
-4
-15
0
0
10
-3
-2
-1
-3
3
4
12
2
2
2
-1
3
-17
-8
-29
-5
-2
0
0
-1
11
2
3
-4
-1
1
1
-1
-5
-5
-16
-11
-4
1
0
1
2
0
5
6
1
0
-7
-1
0
4
5
-7
-5
-1
0
1
2
-2
-1
-3
-1
1
-1
-3
14
7
8
-5
-4
-2
0
0
-14
-2
-11
6
4
0
2
4
-10
-8
8
0
-3
-2
1
0
7
7
-10
-8
-4
0
0
2
-11
-7
7
13
7
0
-2
0
-5
1
-12
-8
-4
-2
3
-3
-1
-9
1
2
-3
-1
-3
-2
24
-5
2
-7
-6
-4
-6
1
-12
2
0
-11
-5
-2
-3
-9
0
1
-16
3
0
0
3
2
32
8
32
3
3
-4
-5
-1
-48
-4
-13
0
-1
-2
1
1
55
-3
2
2
-8
-2
2
6
-4
-3
-4
-11
2
-1
-6
-8
-16
-10
0
-11
0
-3
2
3
-11
10
-3
15
9
0
-2
-1
56
19
22
10
-1
0
2
7
-55
-13
12
-9
-2
1
2
-10
-20
-8
-34
-1
1
5
6
0
12
3
-3
-7
-2
-5
-7
-12
-86
-3
3
-6
-3
2
0
1
58
16
-4
6
7
4
9
8
33
-23
-6
-9
-12
-7
-11
-9
55
4
6
-10
1
1
-3
-2
-28
-19
-16
1
6
-2
-5
-10
-3
9
19
2
-10
-9
-5
-3
-13
22
14
5
6
15
8
9
12
-22
-23
-9
-8
-8
-3
-19
14
-7
-9
-15
-2
6
-10
-2
23
-18
-16
2
-13
-9
-5
8
11
5
18
2
2
-3
1
-4
21
24
27
28
12
8
10
9
-23
-11
-6
-8
9
2
5
-9
-24
-30
-30
-30
3
-4
1
2
57
27
42
-3
-16
-9
-7
0
5
-7
-1
5
16
5
1
8
-21
-16
-39
13
-9
-8
-8
-6
10
0
-5
-9
-10
-1
9
11
-44
29
12
-13
10
1
-14
-16
-22
17
17
13
-1
-1
6
18
81
13
5
6
4
-5
-2
15
-50
6
15
-4
-4
-7
4
-21
-73
-20
-23
10
3
14
11
-10
4
-6
8
-8
-7
10
0
2
-15
1
4
7
-2
-4
-3
-6
71
16
-2
7
0
-5
-7
13
-78
-22
-18
-3
-4
-12
7
-5
-13
-9
-14
1
-8
-8
-2
-6
-38
-16
-10
-25
-6
-5
-1
1
65
31
33
-19
-3
-8
-14
-6
-40
5
-36
19
3
-1
-7
0
1
-40
1
-20
-6
-9
-3
-5
-6
25
8
13
2
-9
10
-8
16
3
29
26
0
-1
12
3
74
12
-10
-4
11
-6
-7
7
-14
-16
-35
-27
-18
-15
-7
0
11
21
15
-8
-1
-4
-2
5
-53
-49
-9
5
6
1
4
-8
2
12
-1
10
-3
-26
-9
5
-17
8
-7
1
2
2
3
-9
2
-14
6
-12
-7
-2
-1
-6
-44
29
-9
16
14
18
7
12
9
0
29
2
-6
2
-9
3
-46
-3
-3
-5
-2
8
1
-13
14
16
-13
9
5
21
5
11
-17
-13
24
-17
-8
4
-11
-20
55
-1
2
-8
-3
8
7
11
25
-20
-19
-4
-3
1
0
4
1
6
19
15
3
7
-2
1
19
-5
-23
4
2
10
-11
-6
-5
5
-10
-8
-2
6
8
14
8
27
36
4
-1
-1
-4
-5
-33
-1
-12
-5
-9
-3
-2
-12
-51
-2
-23
-2
-2
-2
-4
1
11
-7
-16
-19
-4
2
8
5
-13
-11
-12
1
15
11
1
-3
12
-9
12
6
-1
-3
-7
1
-63
8
11
6
-2
-5
-2
-7
16
4
17
11
-3
4
0
-5
12
-7
-26
-18
-3
-3
-3
5
-9
-24
-1
-22
0
-6
-10
-9
23
-6
-12
6
-1
-5
5
8
9
13
21
1
-1
-7
-4
-8
11
14
-3
15
-1
14
4
6
-12
-10
-11
-9
2
-2
0
-2
12
-2
-10
-13
-5
-4
5
-5
-11
-10
8
8
7
12
3
8
-1
17
-10
13
0
1
1
0
0
6
7
-2
-5
0
-3
1
-9
2
-3
-2
-2
-2
-3
3
-6
-22
-15
-3
-4
-2
0
-13
30
-11
-11
11
-4
-8
-8
3
21
17
27
-22
-6
-3
7
6
4
-9
-13
-8
4
1
-6
0
-51
-12
3
6
-5
-2
-3
-9
-16
-4
1
12
5
0
3
2
-21
15
12
3
0
-3
4
-2
-8
-17
6
-14
-7
-3
-6
-7
30
-3
-17
-18
-2
-1
5
16
-22
-7
4
-7
1
-3
-1
-10
21
-5
-25
8
4
1
3
3
2
12
20
-4
-3
-3
-6
-1
-7
-2
2
-12
-2
-2
1
-7
-4
3
4
-6
0
-4
-5
10
6
-6
13
21
6
5
11
-17
17
-12
-10
-17
-9
-7
-21
1
23
1
-6
-3
0
2
4
-3
0
5
-7
-2
-4
-6
-5
-3
-18
-3
10
8
1
1
2
4
5
-2
-18
7
4
6
13
5
10
2
3
0
-2
-6
-2
-2
24
-5
18
-7
-6
-9
-13
0
-31
-7
-18
5
-2
-1
3
3
29
-2
0
11
0
2
-8
-2
-16
9
-4
-7
3
1
-3
-4
13
-8
4
5
-3
1
8
2
-29
-2
-14
-16
-1
-7
-6
-1
24
-3
3
-7
-1
-3
4
4
-14
1
1
15
3
2
1
-4
-31
-1
7
6
-6
-4
-3
-11
22
1
11
6
0
-1
0
7
-13
21
1
-6
1
5
8
-7
-20
-25
-25
4
-5
-7
-3
2
-3
7
21
9
5
-1
-7
-6
16
1
-17
-9
-4
-8
-7
-2
-40
-6
9
18
2
0
3
-6
60
5
9
2
1
12
2
14
-7
9
-3
-6
-2
-11
-3
-2
7
-13
9
11
0
5
3
1
-12
18
0
-4
-3
3
10
-3
-19
-29
-6
-23
-2
-4
-5
-8
12
3
7
1
3
0
2
5
17
6
-2
8
4
0
-2
6
7
-2
-6
-8
-6
-7
-4
0
-38
2
8
3
-7
-3
-6
-4
7
-7
-19
-7
-2
4
6
1
21
-8
2
13
3
-6
-7
-5
-1
-1
16
6
7
5
2
-2
-37
-3
-6
10
-5
-4
-1
-1
34
11
1
-14
-1
2
7
-1
-59
-14
6
-5
-3
-1
-10
-1
17
-9
-10
1
2
-1
-6
2
2
8
-4
6
0
-2
-5
-3
-36
-5
-8
-1
-7
-5
0
-4
-13
5
-6
-11
-3
-2
5
-4
9
2
-3
9
4
1
-2
6
11
4
6
-7
-3
-3
-1
-3
-8
-13
3
1
1
1
1
-1
-8
20
1
-1
0
1
-3
-3
30
-30
-28
-17
-9
-6
0
3
13
4
6
13
4
0
5
-1
36
-3
2
8
-7
-3
-8
0
-6
21
20
-11
2
4
5
-1
-11
-2
-12
2
-1
-2
4
7
-16
-8
2
6
-4
-5
-12
-13
-16
7
0
-11
0
0
4
0
38
-7
-17
3
9
11
6
-3
-17
14
30
4
0
0
-3
-7
16
-9
-1
-14
-4
-4
0
8
-63
-11
-2
17
-1
-1
-5
-11
45
15
0
-22
-11
-3
-3
2
14
-2
-4
1
7
0
2
-1
-4
6
10
1
-3
-5
-2
-4
-29
-5
2
-7
4
1
-2
2
-7
-19
-20
16
-2
-5
0
-1
8
6
-11
3
-5
0
-2
-1
-4
12
6
-6
10
3
7
5
25
13
21
10
1
-12
5
3
-43
-29
-17
-10
-4
4
-15
-1
-16
-2
12
0
-4
0
3
-6
40
8
5
8
6
6
8
2
-15
2
-13
-1
-4
1
-3
5
-34
4
8
0
-1
-6
1
-8
-35
4
-5
-1
3
-4
-2
2
-2
-1
-14
6
1
2
-7
-1
4
-1
3
-13
-3
-1
4
-1
20
-5
1
5
-4
-4
-3
-3
-14
-25
-11
-3
3
1
-2
0
-7
28
6
-2
0
-2
5
0
15
-5
-4
5
2
1
-7
-1
-12
-18
-21
-5
-7
-6
-3
-6
11
18
5
7
-1
-1
-7
1
-12
-13
10
-9
-5
-3
3
-1
21
-4
-19
9
5
6
5
4
-23
-5
1
-7
0
-1
-9
-5
3
11
18
3
0
-6
3
3
25
-9
-9
0
0
1
-10
-5
-4
-1
-7
-3
-3
1
2
3
35
-10
-13
-3
0
3
4
-1
22
-9
-10
-10
-4
-4
3
3
-22
2
-4
6
-1
-4
-5
-10
2
9
8
-7
1
7
2
-3
27
4
-5
8
0
-4
3
6
-10
-1
-6
1
1
-2
4
-3
5
3
-7
-9
-9
-4
-16
1
9
-18
-5
-7
-2
-2
1
-2
-15
-3
16
4
1
-5
0
-4
16
-3
-6
3
-7
1
-2
-1
-8
4
-3
-2
-4
-4
2
3
-6
-2
-11
6
1
1
0
2
-13
8
8
-12
-8
-3
0
0
-5
-8
-3
-6
-1
1
1
-4
-26
4
-1
20
5
2
0
5
34
-4
11
-2
-3
-6
-4
0
3
10
-18
-3
2
3
2
4
-12
31
-2
-2
-3
-1
-6
-5
9
-14
-7
-11
-2
-1
2
2
-33
-3
22
0
2
-2
3
-6
56
-2
-8
10
4
1
-3
12
-6
-5
11
2
-1
2
5
-12
11
-7
-3
-27
-5
-1
-3
0
6
12
4
6
-1
-5
-5
3
-17
-5
8
1
8
6
11
1
-55
6
-6
7
1
1
-3
0
72
-16
-1
-3
-2
-3
-4
4
-16
8
-6
-1
-7
-2
-1
-9
-7
5
6
-1
-4
-2
-7
-3
-28
0
-2
-4
0
1
-2
1
-9
7
-2
6
4
2
6
-2
-43
7
-9
-1
3
3
-7
-4
-7
-2
7
5
-4
-3
13
1
7
-12
5
-13
-1
-3
-11
-6
8
13
1
6
3
-3
1
-1
-15
-11
1
-4
0
3
-3
-1
2
-16
-7
-3
-4
1
-1
-6
38
3
10
3
-5
-5
0
7
-26
5
-8
1
0
-4
8
-4
35
0
-15
2
6
7
-8
-4
-10
6
11
6
-1
-4
-2
6
27
-4
1
-5
-1
0
-1
3
-46
-3
-4
11
5
2
-5
-6
7
-19
-9
-3
-3
-1
21
6
12
25
16
-2
-7
-1
-14
-2
-7
-15
-14
-7
11
4
-1
-11
5
15
10
-2
1
7
7
3
13
-8
-11
-1
-6
-9
-8
2
39
4
-1
3
0
3
10
2
-15
-7
5
3
-5
-6
-9
-1
-18
-10
2
-3
-5
1
-1
-9
5
8
0
4
3
0
-6
2
27
-3
-25
0
6
1
7
5
-25
9
3
4
0
-4
-7
1
6
-21
-4
-7
-5
-7
-8
-5
2
2
3
-7
-7
-4
-7
3
-51
-3
5
-10
-2
3
-3
-9
-5
10
-7
6
-5
-3
-3
-6
-34
-17
-5
-17
1
-1
-2
-9
30
-10
3
0
-2
1
9
3
8
32
13
-2
-5
-2
-6
-2
20
-22
-15
20
9
8
7
-2
-1
7
3
-6
-6
-3
-2
4
-3
17
-2
4
3
-2
0
-2
-26
-16
-20
-10
-1
-2
-6
-4
25
2
17
-13
-1
2
1
5
-9
3
4
-5
-3
-3
3
0
-25
-1
-17
6
1
-2
0
-5
-18
-13
1
-1
-6
-11
-10
-7
33
-7
-14
-5
-3
6
2
7
-20
-1
8
-11
-7
-1
0
1
-11
14
2
3
7
4
1
-9
-1
-11
-3
7
1
-7
-1
-5
-19
3
-4
4
-2
-7
-5
-2
13
-1
-9
-4
-6
-3
-17
6
-7
-3
16
-2
-2
2
12
0
9
-5
-5
-2
3
4
5
2
-4
12
-2
6
5
-5
-1
0
30
-4
4
3
-1
2
1
-2
2
-5
-4
-11
-7
-4
-10
-4
-11
-6
1
5
1
1
0
-1
10
7
-3
-13
-8
-1
6
2
-8
-7
-6
9
3
-1
-1
-4
-2
-3
-2
-5
-3
0
-5
-2
3
-1
2
-7
-1
0
5
3
21
-1
3
5
-1
-5
-4
-1
-6
2
-7
3
3
-4
6
-2
-9
-13
-1
4
-1
0
-5
-2
-5
4
4
-3
-3
0
-3
1
0
-4
-5
-4
-1
6
-2
-4
4
1
-6
4
3
4
3
-1
0
-1
-3
-2
1
-4
5
2
6
-1
1
-1
1
-3
-4
-1
-7
-5
0
-4
-4
-3
-2
-3
4
1
-6
4
-4
-2
-4
-1
-3
0
-2
-3
-4
-1
6
1
-3
1
5
2
4
7
-1
-1
-5
-2
1
-2
0
-2
3
-1
-1
3
2
3
-1
0
-1
0
1
2
1
-5
-5
-4
-6
0
1
0
-3
-2
-1
-3
0
-1
-5
-3
-2
-4
-2
-9
-5
-3
4
0
1
2
0
2
10
-1
-1
0
-1
-2
1
1
-7
-2
-2
-2
-3
-2
-3
-7
0
-1
-1
0
4
-1
0
3
-5
1
2
1
2
5
2
-4
-3
0
-1
1
0
4
-3
-4
5
-2
-1
-3
-2
6
-3
5
-7
-2
0
-3
-1
3
0
-3
0
-2
-1
-2
-4
2
-1
1
1
0
-2
-1
-1
7
0
2
0
-1
1
-1
-5
0
-4
-4
-3
-1
-4
4
8
3
2
6
1
0
2
-3
0
4
1
2
-2
0
-1
-2
-2
-5
-3
-1
-5
-1
1
4
-9
-4
0
-6
7
1
-3
-12
-33
-6
-2
2
-6
-2
-2
6
31
1
-2
0
-10
0
0
0
-4
-4
-2
-4
-7
-1
-2
-4
7
5
1
0
0
-1
2
8
20
3
3
-4
-2
2
-1
-4
-19
-6
1
3
3
-1
0
-9
-25
-7
-2
-1
7
0
-1
6
29
-14
-1
-1
4
-1
-3
-10
-36
-3
-4
9
-3
-2
-2
1
19
2
-2
-1
-3
0
2
4
11
2
3
0
1
2
1
-1
3
1
0
-1
8
1
0
1
12
0
1
1
-12
-3
1
1
7
1
2
-2
-2
-2
-2
-2
-6
-8
-5
2
4
0
-1
3
-18
4
3
0
1
0
-7
-10
2
-12
-10
-12
-1
0
-4
-3
-14
5
3
8
7
1
2
8
46
6
4
0
-3
-1
1
1
-3
-9
2
0
-14
-3
7
5
-12
11
6
-4
18
0
-5
-8
-12
-22
-14
6
-2
-3
0
1
-14
7
-2
-4
-4
0
-8
-16
-11
-5
-11
2
-4
-1
3
8
24
5
3
-6
-1
0
5
0
-8
-1
3
-9
4
1
2
5
18
3
5
3
-7
-2
2
6
24
14
7
11
2
1
0
-3
-23
-7
-5
6
5
-1
2
7
40
6
-3
-9
17
2
3
-5
-44
-3
3
4
-15
-3
-7
-17
-32
-13
-9
-3
-14
-6
-3
5
7
2
3
4
-1
0
3
1
0
0
3
0
-1
-3
-4
0
-16
-18
-15
-8
8
2
-3
-8
-25
-6
2
-3
-4
-4
10
10
41
0
4
-5
3
19
-5
-12
-15
13
-7
0
-9
-6
-12
-15
-12
-22
-9
-5
-5
-17
1
5
11
-12
-11
-6
-5
-3
5
3
25
-3
7
8
5
-7
11
5
1
6
12
11
18
15
2
10
54
22
9
-8
-14
16
-7
-15
-70
-18
-11
6
2
-14
-7
2
74
18
-8
-11
-11
-2
-1
-1
-33
-29
5
6
-2
-5
2
-3
-38
0
-3
-3
7
1
-2
5
21
-2
-4
-13
-6
5
3
1
9
8
8
8
-6
-2
-2
-1
-20
8
-3
-9
-8
0
-11
-9
11
-13
-12
2
6
-11
-2
-10
-43
-8
-4
-16
-6
7
-2
8
61
22
3
16
17
-2
-1
-4
-71
-29
-3
-7
-21
-5
-8
-3
66
3
5
5
9
-2
7
4
25
14
2
4
4
8
-15
-15
-52
-19
-11
-9
2
-18
4
8
42
5
-1
-7
-9
0
2
4
-28
13
5
4
-3
0
-1
6
17
-13
0
4
3
0
-2
-3
-18
-6
-3
-7
-4
10
2
-8
-16
-9
-10
-10
-2
-17
1
-6
-22
-3
-4
0
-6
-6
9
13
48
25
15
13
10
3
0
-8
-34
-20
-3
-4
-9
3
-6
-7
-47
-15
-3
-6
6
0
0
-8
-8
6
-3
7
7
5
1
8
45
21
3
0
-8
-3
-7
-16
-8
-23
-9
-4
-2
-6
-5
0
30
13
2
2
-9
3
5
2
-15
-7
2
-4
4
1
-2
-5
-24
1
-2
0
2
2
3
4
8
4
2
-3
3
-1
-5
-3
28
-7
-8
-3
-6
-2
-3
-8
-18
-1
3
3
-13
1
-3
-1
-6
4
1
6
10
-2
0
7
-10
-3
-3
-3
-8
1
2
1
20
8
3
6
9
4
1
1
8
0
0
-8
-2
-2
-3
-5
14
-10
-5
-4
-6
-3
0
-4
-12
4
-1
-7
6
1
-1
7
12
13
5
10
-5
2
1
2
14
8
-2
0
11
3
-2
-3
-27
-7
-3
-4
-14
-4
7
-4
-4
5
2
1
2
2
-5
1
6
-3
-1
-1
-1
-6
1
3
31
-2
1
2
2
-5
-4
-4
0
2
-2
-10
-4
-3
-1
6
-17
17
2
2
-2
-1
1
-4
35
3
0
-1
-8
2
0
-1
-11
-13
-6
-3
10
-1
0
-4
17
3
2
-1
-2
-2
-6
-6
-14
-24
-8
1
0
-1
-1
-1
9
6
-1
-1
3
-1
2
5
29
2
0
-15
-7
1
2
-1
-35
-6
1
15
23
3
-1
-6
-47
-6
2
2
-12
-6
-6
-6
-6
-14
-7
-1
9
1
1
0
-6
7
0
-3
-5
0
0
-1
0
-7
0
-3
1
0
1
2
7
3
-1
-1
3
-5
-4
0
15
12
-3
-5
-5
-1
3
-5
-62
-16
3
2
8
-1
-1
1
20
6
4
2
-6
0
-2
1
9
-1
-2
1
1
2
4
0
-13
-2
-1
-3
-1
1
0
4
37
16
2
1
-1
-3
-4
-9
-66
-38
-9
-10
-5
-3
-1
1
-2
3
2
1
2
1
-7
-4
-3
1
-7
-6
-3
-2
0
-1
4
3
-1
0
-4
2
-1
4
28
13
1
0
2
-2
-1
0
20
-2
0
0
-1
0
0
3
-1
-9
3
1
0
1
0
-3
-12
-3
-6
-2
-6
-3
-3
-7
-6
2
-4
-2
-2
-1
-1
1
0
1
0
-1
4
0
0
1
-7
-5
2
1
-1
-2
-2
0
19
-2
0
-2
-4
0
-2
0
-14
-3
-8
-13
-4
2
-2
-6
-21
-3
-1
5
-6
1
1
-1
-8
-3
-3
1
0
-1
-2
-1
7
-9
0
2
-1
1
1
3
22
12
8
-2
0
-3
-4
-1
8
-2
-4
-4
3
-2
-1
0
-23
6
2
1
-5
-3
-2
-3
-17
-7
-5
-1
-2
0
2
3
17
-5
-4
-1
0
-3
-1
1
36
15
5
-1
3
-2
0
0
-60
-2
4
1
2
2
-4
-6
-11
6
-1
0
-3
0
-1
-3
17
-10
-3
0
-1
-1
-2
-1
-6
-6
-1
-1
-5
-2
3
0
18
-1
-4
-2
1
-1
-2
5
-21
-1
-3
0
-2
-2
0
0
-12
10
11
5
4
2
0
-1
-2
-8
-1
-2
-5
-2
12
1
22
22
9
1
1
0
-14
0
-6
-5
-2
0
-1
-3
-8
-2
6
-6
-9
-4
-1
-2
3
-2
-9
1
-4
-2
-1
-2
-10
-8
-4
-7
-4
-3
-2
-1
12
-3
3
2
2
-2
0
1
1
1
-4
-4
-4
-3
-1
-3
0
-5
-10
1
-3
0
0
-2
-6
0
1
-3
0
-1
-2
-2
-5
2
6
1
0
1
-1
-1
3
0
2
-1
1
0
-1
2
2
-2
-10
6
-2
-2
1
1
-6
-1
1
-7
-3
-3
-1
-2
0
-2
5
1
2
3
0
-1
5
2
-5
-1
-3
1
-1
0
5
1
0
-6
1
-3
-3
0
-2
-2
5
6
3
1
1
0
-4
-5
-11
-4
-2
-3
-1
-2
-2
-2
4
5
-1
-1
-1
-3
3
-2
4
-8
-5
0
-1
0
2
6
-2
-5
-7
-3
-3
1
3
-3
10
-2
1
0
0
0
2
-3
-15
2
2
0
-1
-1
1
2
-17
-7
-4
-5
1
3
-15
1
1
6
2
1
1
-4
10
0
8
-5
-3
0
-1
0
5
4
5
11
4
1
1
-2
-44
-3
0
-10
-5
-3
-6
-4
5
-12
-1
-5
-3
-1
0
-8
-17
-1
-4
3
0
2
0
0
-2
3
9
4
3
2
3
7
11
-8
-6
4
1
1
0
-4
2
6
5
-8
-5
-4
-3
-1
27
7
2
1
2
1
1
1
-18
-12
-8
-8
-5
-4
0
-4
-7
-2
-5
0
-1
-3
-9
2
0
-2
-2
-2
-1
0
2
-1
-6
0
-2
8
0
-4
-2
-4
6
4
-10
-7
-4
-3
-5
0
11
3
1
1
1
2
4
2
-1
7
4
6
0
2
4
3
-22
-12
-4
-5
0
-1
-3
-4
-29
-5
3
-6
0
-3
-1
-5
18
-9
3
-6
-5
-2
3
-1
31
15
9
3
1
-3
-2
9
-9
5
-15
-4
-3
-2
3
-2
-60
-11
1
-12
6
0
-8
-9
7
-7
4
21
4
1
0
2
44
-5
-47
-5
0
3
4
4
45
10
29
-3
-5
-2
-1
2
5
14
13
10
-2
1
11
8
-14
-4
1
7
-1
-1
-12
-13
-53
-12
0
-2
-3
-4
-1
-1
10
4
3
-2
0
-3
-3
-4
-21
-26
-24
-16
-5
1
-9
-10
27
6
-1
4
3
3
7
6
25
4
19
-8
0
0
-5
1
-5
-13
-4
3
-6
-2
-3
-1
42
14
32
3
5
1
7
7
-78
11
-37
-11
-6
2
3
0
60
-15
19
0
0
-1
-1
1
-39
20
39
32
10
5
3
1
50
-9
-60
0
-4
-4
1
5
-4
6
26
9
5
0
-4
-9
23
-11
-24
-41
-18
-9
-5
3
4
15
-11
28
16
1
-7
-8
7
8
-1
14
-12
0
-6
8
18
3
-1
-28
12
2
9
-4
-24
1
-28
11
-5
-1
5
6
31
-6
5
-10
1
-2
-5
3
-13
8
1
-24
-3
-1
-5
-7
21
-1
1
-4
-4
-4
0
1
-66
-6
-7
4
16
2
5
-1
-22
11
-8
-10
-8
-2
-6
-6
-50
-25
3
14
1
0
4
-2
6
-17
-17
-34
-12
-6
-9
-2
19
-9
13
26
9
6
11
5
-10
13
12
-9
-12
-7
3
-1
0
9
4
8
8
-2
7
-4
-18
-5
-5
-7
0
2
-12
0
-5
-1
-22
1
-6
-1
-11
-15
-16
-13
12
-10
6
8
8
10
-3
-4
-9
20
2
4
2
-8
35
-1
-30
-18
-14
-15
-4
13
-54
-1
27
0
-1
-8
-6
-20
25
-3
-25
-12
-5
7
2
12
24
-4
-3
8
6
-3
-3
1
9
3
3
14
-3
-12
-5
-6
10
19
19
20
2
19
11
3
3
-16
2
-6
3
12
15
10
0
-1
-7
50
11
1
-5
-17
0
15
16
32
-1
-3
7
9
-72
13
32
10
1
-23
-17
-12
-1
-27
-48
-16
-14
-20
-2
-5
-21
-5
12
-27
-2
-2
2
0
20
0
10
13
-9
-13
-5
5
-9
1
-11
-44
-2
0
-7
4
11
-11
-9
8
5
5
-3
-6
8
14
33
-15
-8
-9
-7
0
-14
-6
-3
9
3
6
2
-9
44
3
-15
-6
-2
7
3
12
-7
-10
-5
-13
-2
-4
-3
-2
23
-5
-14
-5
3
-6
-6
1
-41
9
23
-9
3
-1
-7
-10
30
-4
-5
4
0
8
2
1
-23
-6
-6
-4
1
2
-1
-5
1
4
4
-5
-5
5
-1
6
63
12
4
6
1
10
-2
6
-28
-13
-7
-12
1
6
-2
-6
-22
-8
6
-16
-6
-3
-11
-6
5
0
1
11
3
4
2
0
-16
-17
-19
-16
-5
-2
2
-1
13
-9
-3
3
0
-4
-5
-3
-2
23
8
11
5
4
2
-7
19
-2
7
-2
1
2
3
6
-47
-12
3
-10
0
3
-1
-7
52
-3
-19
25
0
-2
-1
-4
1
0
-2
37
-12
-5
-1
-2
11
12
-11
-38
-1
-3
-10
-2
-20
-4
-2
22
8
5
3
-2
-31
-27
6
2
-2
-2
3
1
11
10
-19
2
5
-2
-6
0
-14
0
-2
-5
-4
1
-4
-6
21
12
-2
-1
4
4
11
15
-3
10
8
-13
-3
-7
-5
-5
-21
-3
8
-1
2
-2
-1
0
25
14
-15
-6
0
7
6
4
-57
-27
-15
-28
-11
-20
-10
-13
4
-13
-11
2
0
8
-1
2
2
-2
17
1
0
3
-2
-1
-30
-1
-9
-16
-6
2
5
-3
54
14
29
16
3
6
5
16
75
17
-20
8
4
-6
0
0
-19
-17
-4
-24
-9
-7
0
-2
-6
17
28
13
7
2
-1
-8
-1
-4
1
17
9
8
7
1
-30
8
-23
-10
-6
-9
-7
2
14
-13
-1
-14
-1
0
-3
-2
-10
-17
15
10
-2
-4
-1
2
18
5
11
-1
-6
-3
-2
-6
-65
7
-9
-1
0
8
7
-5
84
16
3
-4
1
-2
7
16
-19
-25
-7
-9
-7
-10
-13
-3
22
-4
-11
-11
1
11
2
2
-57
-2
26
-2
0
-6
-3
-5
-14
-6
-26
8
1
-4
-8
-2
5
3
15
3
-2
-3
0
1
11
6
9
-3
5
6
1
0
-45
-6
-2
2
-4
-2
-2
-11
34
10
-1
-1
1
-2
4
5
41
-7
1
-3
-6
-6
-3
5
-35
-1
-6
-7
-2
2
-3
-8
25
17
17
10
-6
-4
0
5
-124
-12
-12
3
12
10
5
-10
3
-1
-14
4
0
1
3
2
-8
2
-7
-2
5
-3
-1
-7
55
-14
31
2
-3
-3
-6
1
-1
15
1
-12
-10
-5
-10
-8
-2
-4
-18
0
-3
-1
-4
4
-28
-9
0
-3
1
-6
-8
-4
4
-3
-4
5
2
-2
6
1
45
17
7
12
3
7
-1
8
-56
-6
2
-1
-3
10
1
-6
10
-6
1
-17
-11
-4
-1
-4
5
13
-6
11
2
-1
-1
-2
-8
-15
1
-7
-3
-4
-4
16
20
16
-11
-5
-1
-4
13
-11
-77
-5
20
12
0
0
-10
-19
71
1
-2
-7
2
4
11
15
-4
-39
-27
-7
-5
-4
-7
-5
13
6
5
22
-1
-1
-1
3
-1
-12
-11
-25
-2
-4
-7
-1
-36
6
-11
-3
-6
-2
-3
-10
25
0
3
-7
5
1
7
5
8
0
19
-5
0
0
-5
-1
-21
5
-2
16
-6
-10
-8
-10
-46
3
12
-9
-1
5
2
-1
42
-3
16
-5
10
5
8
1
29
16
-20
8
7
-5
-7
-1
-25
-28
4
-2
-2
2
5
7
-7
-1
-10
1
-7
-8
-6
1
-20
-12
12
-10
-6
-2
-4
-16
-27
0
-5
11
3
3
0
-4
88
15
-12
23
0
-5
-5
11
-22
-20
4
-10
2
3
1
0
-11
-11
10
0
-7
4
12
6
-56
35
18
0
7
2
4
-15
81
-3
-19
-11
-3
4
4
19
15
3
8
-2
-4
-5
0
-6
-41
-1
-12
0
-4
-6
-12
-9
-18
-13
11
1
8
5
-7
3
25
16
-5
11
4
1
13
14
-13
-9
-15
-27
-6
-5
-7
-14
-2
17
18
9
1
-3
3
-4
26
-16
-2
-7
-1
4
4
5
5
18
-1
18
-2
1
-11
-8
32
-13
-4
6
4
1
2
11
-67
17
6
-4
-7
-4
-6
-12
-56
-40
-20
-11
-4
-8
1
0
-6
-12
6
10
5
2
2
-5
-29
1
6
13
7
2
-4
-7
71
-11
-37
-15
-17
-12
-2
5
53
21
21
-12
-2
-2
1
14
-36
0
9
-11
0
-5
-11
-1
-39
-20
13
0
-5
-11
-13
-16
-23
-3
-16
7
3
8
10
-5
53
3
-8
3
-6
-1
-4
1
-49
-7
8
-8
-1
6
9
4
-5
18
1
3
2
2
3
7
27
20
31
27
12
-1
-7
-6
-42
-20
-17
7
-7
-2
7
-3
27
8
-5
-7
2
-2
-8
-5
-3
-10
-30
-7
-2
1
8
10
16
3
1
-16
5
2
2
3
2
3
10
3
-3
-3
-3
0
12
-3
-5
-10
-2
2
7
-4
3
-12
-11
5
-1
1
0
-1
6
11
-9
2
-6
-6
-12
-7
-44
-36
15
-10
-2
-2
-8
0
9
8
-5
-7
-6
-4
3
1
22
5
7
-1
3
4
-2
-3
-52
6
5
0
4
-2
4
8
-8
2
-11
9
-1
-2
-1
-10
-1
-11
18
1
-5
2
-7
-2
9
16
-2
-8
2
-1
11
4
-3
-16
0
9
-2
-4
-19
-3
7
-6
-11
-9
-6
-6
1
0
-25
-1
3
22
-3
-1
-1
-2
34
13
15
-3
2
5
2
0
16
3
3
0
5
-1
4
3
3
13
-22
-13
-8
-4
-3
3
7
5
1
3
2
6
7
-2
-14
-10
7
9
-5
-9
-15
-11
27
12
1
-2
1
4
8
8
31
4
13
-3
4
2
-2
2
-51
-16
-9
-13
-9
-16
-2
-11
30
-2
14
0
-1
5
-9
-2
-31
3
-15
-9
2
4
6
-9
-5
5
-8
-1
-6
-2
1
-3
30
-17
-25
-1
1
-1
0
7
-6
-3
6
-6
2
-3
-9
3
5
14
21
12
-4
-4
-2
-3
31
-1
-13
-3
1
2
0
9
-44
2
-4
-17
-10
-4
-6
-21
-32
-24
-9
-1
-2
-1
1
0
32
9
11
-1
4
0
-1
10
-31
13
14
-1
-2
-3
2
-2
12
-2
-32
15
10
7
6
5
-6
0
-4
-18
-6
-3
2
4
-4
3
0
-4
-9
-5
-3
-4
11
-4
12
7
2
-4
-15
-1
-8
-1
5
-3
-5
0
-3
-3
-16
2
12
10
7
14
8
-2
-24
6
-29
1
-4
0
3
7
-30
-17
0
5
-2
-4
-2
-9
18
20
-1
-13
-2
-6
-16
1
30
16
0
6
2
-2
9
-1
-31
-32
5
0
-3
-5
6
-6
-11
3
7
0
-5
6
-18
0
39
-14
-20
8
3
2
8
4
-1
9
10
-3
-4
-9
-3
-3
29
4
3
2
3
1
1
-1
2
23
-17
5
-3
0
5
-3
4
-15
35
-11
-4
0
1
2
-22
-19
-52
-3
-3
-9
-7
-1
1
-10
-5
-3
-2
2
6
0
0
3
24
8
7
12
-5
-13
19
32
21
4
5
3
5
5
-4
-2
-20
-3
1
-1
-1
10
-65
-42
-14
18
-4
-7
-9
-9
8
9
-24
-19
-4
-11
-1
1
11
-5
16
-25
-11
-3
7
-8
3
17
9
20
0
0
-5
-7
13
-11
-17
-7
0
4
0
9
-19
-28
14
-3
-3
-4
4
-3
-9
13
-3
8
2
-3
-11
-2
-33
4
21
8
-2
1
-3
-5
33
11
-6
-6
-2
3
4
2
21
-8
-11
-3
-3
-4
-4
-8
-4
-4
-11
-5
8
-2
-2
-2
26
0
-7
-10
-7
-3
4
-1
-30
-9
9
1
7
1
-14
-1
-4
21
11
-4
4
2
12
5
-40
-24
-42
7
1
2
1
-5
64
-23
-12
-9
-7
-6
-9
10
36
26
33
-4
-2
-8
-11
-5
-47
9
-3
5
4
0
-2
-10
-11
-4
7
10
-1
5
5
3
-23
12
-9
6
5
4
13
5
-4
5
-11
-19
-8
-10
-6
-7
36
12
17
3
4
1
-1
9
-24
-4
-4
13
5
1
4
-13
-3
-6
-2
-10
-6
-4
-6
-1
-14
-6
-4
1
-2
3
7
8
70
-13
6
6
-6
-3
-11
2
-46
0
17
-15
-2
-8
-9
1
-5
-10
1
-8
-3
8
3
-3
4
-13
-27
21
6
3
11
-5
8
-7
-20
-6
-5
-3
-8
2
4
6
7
-9
-4
-2
4
5
-9
10
-12
14
8
-4
-12
-6
-1
-5
21
-9
-5
-2
-3
0
14
-4
3
3
4
4
4
0
-24
6
0
8
3
0
-1
0
52
19
9
-4
0
2
4
10
-38
-25
-12
7
-5
-6
-4
-9
8
-6
2
-3
0
-5
2
2
-15
-12
-27
-14
-3
-2
-9
-10
3
6
4
5
-3
3
5
6
13
14
3
8
6
6
-1
3
-47
-19
-7
-8
-6
-5
3
-4
16
2
7
-11
-2
-2
5
9
8
-11
-9
8
-5
-5
-14
-13
1
0
-2
-13
-4
-3
-1
-4
24
10
9
7
2
-9
-8
3
12
8
-6
-6
-1
13
10
0
-23
-12
6
-8
-1
-2
4
-3
2
-5
0
-5
-1
1
-2
-1
2
2
-8
2
1
1
4
2
19
4
8
7
-1
-8
-6
-1
-13
-6
-11
-5
1
2
-4
-4
22
12
16
0
2
0
2
0
14
-13
-15
-12
-4
-2
1
2
8
2
6
2
-4
-4
-3
-2
0
3
10
4
0
-6
9
-1
2
3
-5
0
0
4
-14
-3
-14
4
-4
0
2
10
-3
1
8
-6
-3
-4
3
3
11
2
1
0
6
-1
1
-1
4
2
-2
1
-9
-1
-1
-2
-1
-3
-8
-3
0
-3
-3
-2
0
-4
8
0
0
0
-3
-3
-7
-3
-7
-4
-5
-1
-2
-3
-5
0
2
2
-5
1
-3
-6
0
1
-6
-1
-2
-1
2
3
3
-2
4
-1
0
4
3
-1
-3
0
-7
-2
3
-1
0
-1
0
-2
0
-1
-5
-3
-1
0
-6
-1
-4
2
1
0
0
-1
3
1
0
-3
-8
-2
-2
-3
-2
-1
-5
-4
0
-1
-1
-1
-3
0
0
3
2
-3
-1
-1
7
-1
-4
-3
-5
-4
0
3
-2
-1
3
2
4
1
1
-3
-1
-1
-1
-3
-11
-1
1
0
-4
1
-1
0
2
-1
-2
-12
5
-1
-4
-2
-3
-5
-3
9
1
-3
3
7
9
3
1
-1
-3
1
-2
-9
-9
-2
-2
-3
-1
-2
1
3
-6
1
1
3
0
-1
-6
-10
-14
-9
-3
-7
0
-1
-1
-5
12
4
-3
-3
-5
0
-2
2
-22
-4
-1
2
0
0
0
-4
1
3
-1
-3
4
1
0
1
2
-1
-4
-4
-5
-1
2
1
0
0
4
6
-1
-1
-2
6
12
1
2
4
2
-1
1
9
35
5
1
1
0
-1
-6
-16
-37
-18
-6
-3
2
-3
2
0
-6
3
-1
-5
-7
0
-7
-13
-31
-7
-7
5
-3
-3
2
5
24
7
1
0
-6
0
3
10
19
6
4
4
8
4
2
-4
-14
0
-1
-6
-2
-1
2
0
9
-5
2
-3
3
0
0
-1
-6
1
2
9
-5
-1
2
6
18
-1
-3
-5
6
1
-1
-7
-22
-3
-3
1
-14
-1
-2
-4
24
2
-3
2
-1
0
0
-2
-24
-2
-1
-12
-2
-1
-1
3
25
8
5
-1
3
-1
-4
1
-11
-13
-7
-4
-8
-1
3
4
-6
8
4
1
8
-1
-5
-9
10
-16
-8
2
0
-1
-3
-1
-9
4
3
0
-7
-1
0
1
1
-11
-4
-5
2
1
-3
-2
-2
10
-2
-4
-6
-1
-2
0
0
-3
-4
-3
-3
0
3
9
37
18
5
-5
0
-1
2
-5
-29
-1
2
1
-2
1
1
10
23
8
7
8
6
-3
-5
-8
-14
-12
-12
-10
-2
-4
-4
-9
8
0
-10
-7
-5
1
0
5
-28
-4
5
22
16
2
1
12
56
21
10
0
-3
-1
7
-5
-53
-12
3
3
3
-3
-4
-5
-41
-10
-5
-6
-10
-1
-2
1
40
6
-4
-5
5
0
-6
-8
-7
-4
-8
-8
-6
-2
2
13
12
14
9
5
1
0
-1
-4
-11
-15
-3
2
14
0
0
1
4
-3
-3
-2
-21
-2
2
0
-20
2
0
5
2
1
-2
-1
84
19
2
3
-5
2
6
12
-12
3
3
-4
-4
-3
-4
-16
-50
-9
2
4
5
-2
-10
-24
-27
-43
-19
-13
-1
-2
1
13
38
19
-3
-2
-17
1
-2
-8
8
4
6
10
12
0
-3
14
124
27
-2
-6
11
-2
1
-10
-107
-32
-2
-9
-16
-3
-9
-10
-36
-25
-5
4
12
-4
1
3
60
28
4
-1
-13
-1
1
-2
-10
-1
0
-8
13
2
15
10
48
12
6
4
-8
12
-6
1
-9
-4
-1
-2
6
-7
-6
-7
-45
-9
-5
10
3
-3
-3
-3
-12
-6
1
-4
-10
-4
4
7
37
3
-2
-1
8
7
4
-1
-49
-11
2
2
8
-1
-1
6
-9
7
4
3
-12
-1
3
0
4
0
-2
-1
11
-3
-7
5
50
25
-3
-2
-3
-6
2
-8
0
-6
-4
-9
-9
5
1
8
5
2
3
5
11
0
-7
-16
-14
-15
-10
-9
-17
-1
4
2
21
10
4
-2
7
1
-2
-3
-29
-7
1
6
0
-3
-2
0
10
-10
-3
-5
-9
0
2
6
9
7
2
3
-2
1
-4
-3
-20
-6
0
-1
1
-5
1
2
31
2
0
-1
5
3
-4
-8
-14
-10
-4
-5
-7
-3
2
5
9
7
2
1
-5
-1
-2
-6
19
5
-2
0
11
-2
-1
1
-12
6
1
-2
-8
0
-1
-4
-13
-9
-3
3
-9
0
-2
-2
-6
2
-2
-4
21
3
1
4
20
9
12
18
2
1
-4
-6
-28
-8
-4
-1
-6
-3
3
-1
17
-9
-8
-3
0
-4
5
0
2
13
5
3
1
4
-3
0
-4
-14
-7
-9
-10
-5
2
1
-6
-10
-4
-6
1
0
-2
-2
17
13
10
1
6
1
-4
0
-15
6
-5
-5
-13
0
1
-2
-30
-12
-3
-4
0
-3
-1
-3
10
-1
2
2
0
-2
1
1
-2
-8
1
-1
5
2
3
3
2
-2
6
3
-5
-1
1
5
-41
12
2
-4
-10
-2
-7
-17
3
-12
-14
-5
4
-5
-3
-4
-24
-17
-8
-3
-6
-2
-1
3
21
5
1
2
4
-3
-4
-3
-3
-7
-4
-5
-6
-4
4
7
9
10
9
2
-2
0
-2
-2
0
6
0
-6
4
0
-2
-3
-15
-10
-5
2
-5
-2
0
2
14
5
0
-2
3
0
-1
-2
-6
-3
-3
-2
5
-1
2
4
24
13
1
-1
-8
-1
-5
-11
-38
-27
-12
-3
0
-1
-3
-3
-7
-6
0
-1
-1
0
0
-1
7
10
6
3
-1
0
0
0
-8
-12
-1
-1
2
-1
1
4
5
9
-1
-10
-4
-2
0
-6
-20
-9
-3
10
0
-1
-1
2
-3
0
0
-3
-2
0
-3
-3
17
9
1
3
5
0
-4
-2
21
-9
-6
-3
-4
-4
-4
-3
-13
0
-3
-3
-1
-2
2
4
-12
1
6
1
0
1
-1
1
8
5
-2
-2
-1
0
0
-3
-15
-2
2
1
-1
0
0
-2
14
-5
-3
-4
-3
-1
0
3
13
2
-3
-2
0
1
-1
-1
-26
-7
-3
-4
0
-2
-1
-3
11
4
-2
1
-11
-4
-1
0
1
-2
4
5
2
1
0
1
0
1
2
-2
1
-1
-4
-5
-14
-8
-7
-6
-3
-1
0
0
-8
3
-3
-2
4
-3
0
-3
17
-2
-1
-1
-2
-1
1
0
-3
6
0
0
-3
1
-1
0
14
2
-1
0
2
-2
1
0
-20
-4
2
3
3
1
-1
0
2
4
-5
-7
-4
-1
-3
-2
1
-15
-1
2
2
-1
1
4
15
5
2
1
1
1
-3
-3
-16
-1
-3
2
0
0
-2
-1
-14
-15
-1
-2
1
1
-2
1
16
4
-6
-4
-2
-2
1
2
3
-2
1
-1
-1
0
1
-1
-10
-1
2
-1
-1
-1
-2
-1
3
5
0
-1
0
-2
2
-1
1
-1
0
-1
-1
-1
-5
-4
-15
-5
-3
-2
-5
0
4
2
15
-3
-3
0
0
-1
-3
1
-3
2
4
0
-1
-2
3
2
-2
3
2
1
0
-1
-4
0
-6
-1
-6
-4
-1
-2
-10
-2
-2
-11
-4
-3
-1
-3
4
-1
4
-16
-9
-3
-1
0
-4
-6
-6
4
6
3
-1
0
1
-1
-7
13
4
1
-1
1
-1
1
2
-3
-1
0
0
0
5
-5
3
10
4
0
-1
-4
3
0
-6
-14
-12
-5
-3
-5
4
0
-1
-10
2
2
1
-1
-14
2
8
8
1
1
-1
-1
-3
0
-19
-4
-6
-2
0
-1
2
-1
7
8
5
0
-1
1
-6
-2
-6
-3
-4
-3
-2
-2
3
-10
-11
-10
-3
-1
-2
2
-5
-1
3
3
1
-1
1
1
-5
2
7
-6
-3
-2
-5
-6
-3
-3
-12
-7
-5
0
-1
2
5
4
6
16
1
0
1
0
1
-3
4
1
-1
-1
0
-3
-1
-1
-4
-2
1
1
-6
-3
7
6
-18
-10
-4
-2
-1
-2
3
-1
9
15
6
-1
0
-1
4
-6
-2
-9
3
4
0
-1
-19
-7
4
-1
-9
-3
4
-2
10
-3
-1
-9
-4
-5
-7
-3
-7
6
0
0
-6
-1
-1
1
-3
-3
-1
3
7
2
2
-1
6
-3
0
-8
-4
-2
0
-2
-13
-5
8
6
2
0
3
-1
21
6
-3
-2
0
0
-1
0
-14
1
6
4
-3
-1
-1
1
-6
-3
-9
-3
-1
3
3
4
4
-4
-4
5
5
2
1
-1
-16
-1
-4
-14
2
-2
-4
0
6
-3
-17
9
-6
-7
-2
-3
0
6
4
-4
-7
-5
-3
-3
-20
-10
1
-4
-10
0
-4
-3
9
3
-2
-3
7
4
6
4
12
11
-6
-1
3
-3
-1
5
-15
-12
21
5
-1
-7
-10
-7
14
0
3
5
2
3
-1
9
-35
-13
2
-19
-2
2
-2
-16
-21
6
16
19
-4
-1
-2
0
36
17
-5
17
7
1
4
7
-11
19
-11
-5
5
-1
3
6
23
-5
11
0
-2
-1
1
-2
-57
-11
4
7
-2
0
-1
-14
32
-1
-16
-27
0
-1
1
8
-3
-7
13
-5
-7
-7
-8
-12
41
8
-21
-6
-7
3
3
4
-47
-2
-4
20
5
1
-5
-9
9
11
44
11
4
-1
1
-4
-29
-10
-39
-10
-10
-8
-6
-9
-1
-3
6
-5
-3
3
3
13
0
-2
15
-10
-9
-3
1
1
9
4
-38
12
1
4
-4
-4
-25
-2
-42
-22
14
-1
4
3
6
-12
9
9
-6
-5
-3
-6
-18
2
-5
-19
-17
1
1
-1
47
-5
-9
22
28
3
1
-3
60
23
38
-13
-5
0
1
9
-40
10
3
11
-8
-2
-6
-2
29
-4
-22
-28
2
-4
-1
18
-28
-10
-8
1
-11
-7
-2
-4
52
17
1
33
7
0
-6
-1
7
-5
4
-12
-4
3
5
8
4
3
11
6
4
1
-6
-17
-14
-13
-15
-30
-14
-6
4
8
-2
36
13
8
6
9
4
-4
-20
-24
-17
9
-5
-3
-4
-3
36
-7
27
-12
4
2
-8
4
45
5
-12
-14
-2
3
5
2
25
-21
33
2
-1
3
10
4
25
20
11
12
8
4
4
3
-14
17
-8
-3
-3
-2
0
-7
-83
-53
-30
-4
-10
-5
-5
-10
-9
-33
-16
-5
-19
-13
-4
11
13
8
19
21
10
1
-2
-3
-13
-13
-13
-1
6
-1
0
1
-8
13
42
-10
0
5
5
4
-32
-4
2
10
7
6
8
-9
-28
4
-30
5
-2
-6
-6
4
29
-17
10
6
-1
-3
-3
-5
37
-2
-3
-3
-8
-5
-11
6
-28
2
11
-8
-2
-5
-5
-14
-35
-5
11
-6
1
-3
-8
-6
21
5
-10
17
1
9
5
8
-23
8
2
-5
-2
18
11
-7
61
-11
15
5
2
4
-2
2
1
22
-7
-16
4
-5
-8
-9
27
-28
-48
-2
-7
-12
-5
-2
-24
6
10
1
-3
0
-6
-1
-28
-8
11
-33
0
0
5
0
-19
14
14
10
-1
-1
4
-6
28
-15
-4
-7
-5
-3
-4
0
54
37
11
-4
-3
-2
-3
1
-13
1
-28
13
8
2
0
-9
-19
0
9
3
1
0
6
5
-56
-5
-23
-4
-3
0
-3
-2
76
6
-11
-3
-5
-9
5
5
-13
26
51
15
4
5
-2
0
-1
-22
-14
-6
4
-6
-7
-13
22
25
9
1
-1
11
10
1
-28
-9
17
18
3
-1
9
2
-8
-7
-16
-1
-1
6
-8
6
-57
-32
2
-20
-9
-5
-4
-17
51
6
4
12
6
3
2
5
-16
12
10
-7
-3
-6
7
-6
38
-17
-10
-10
0
-4
-16
6
36
14
9
13
-3
0
-4
2
-30
-7
-20
-21
-6
-4
-3
4
-69
-8
3
33
0
-1
-2
-7
16
-6
-41
-6
-8
-5
-2
-3
28
11
-11
7
3
1
0
4
-19
3
-4
-20
-2
-2
-2
-1
-12
-9
8
-6
-3
-3
-8
1
-29
6
17
8
-6
-3
4
1
51
4
-8
-3
-3
-1
-2
5
8
6
7
1
-1
-2
6
3
-35
-8
19
3
6
0
-6
-3
-32
-19
-57
-6
0
-2
-3
-25
41
23
23
-13
-8
0
6
20
-2
-4
-6
-4
-1
-5
8
5
53
3
-1
-3
-2
3
-4
-8
-5
1
15
7
-2
-2
-7
2
-30
-21
-3
0
2
6
8
-4
-42
-7
-2
4
7
4
-4
-9
3
-17
-8
-7
-9
-7
-7
2
4
6
10
-18
5
-3
-1
-4
-16
4
-11
10
-3
1
6
6
12
5
40
3
-2
-2
-7
-2
-18
-4
-43
3
0
-1
-2
3
-12
-7
-17
-9
-5
-3
-1
0
-5
-14
-5
-17
-6
0
-4
-10
-3
10
9
12
7
2
7
5
-1
14
16
-1
1
0
-5
-1
20
14
-2
0
-6
-1
6
4
-44
-15
-12
9
4
-1
-3
-6
-3
3
-1
-18
-2
-3
-10
-9
6
5
-7
8
0
0
1
6
-33
-12
9
-6
-4
-5
12
-5
3
12
2
6
0
-4
-11
-9
-4
-2
5
-8
-3
2
1
-2
9
-8
6
5
3
2
-1
8
12
12
18
-3
0
2
2
5
13
-9
-21
6
2
0
2
2
-16
-11
-14
-9
-2
-2
1
-2
24
2
11
3
3
0
-4
1
-30
7
-4
6
-5
-4
-3
-3
51
-8
-4
-19
-4
-4
-5
-3
22
0
1
4
1
4
9
1
7
-10
-9
-16
-6
-11
-21
-3
-6
-13
18
-7
-3
-3
-2
-4
-7
0
-10
3
4
5
-2
-4
-11
23
-2
6
5
3
4
-1
10
-12
-30
-21
-7
-1
6
-4
25
-7
16
8
2
-9
-4
1
-40
-8
-11
-14
-5
-13
-2
-2
-13
1
30
6
-7
-8
0
1
-14
3
-26
13
6
-2
6
9
-44
-3
5
2
1
5
-1
-9
29
-3
-2
3
4
8
5
8
39
8
16
3
2
-2
-5
4
-73
8
-1
3
2
4
-2
-20
29
-24
-21
-16
-6
2
5
5
-4
10
11
4
-2
-3
-9
-2
4
-14
-5
8
0
3
1
3
16
5
16
-10
-1
2
0
2
1
18
-28
11
7
3
-5
7
-34
3
32
3
0
1
11
-2
39
-1
-21
-9
-4
-7
-13
1
-5
3
-4
2
0
-3
6
-7
-3
2
12
2
-3
4
-8
-1
2
3
2
-6
-4
0
3
5
-20
13
-16
5
2
1
3
0
-20
-19
-2
-3
-3
-8
2
-3
34
2
3
-1
2
7
3
6
-2
6
-17
-12
-3
-3
4
-1
-25
-2
14
6
-2
0
-5
-11
-15
11
-3
4
2
4
1
4
17
-7
1
1
0
-1
0
1
-1
-1
2
3
1
-1
1
7
-14
9
-14
-9
-1
-2
3
-16
19
-22
-5
-5
-2
2
-4
-2
-14
9
15
6
0
-4
-4
-1
-1
-7
2
-1
-2
-2
0
-5
7
4
-9
-9
-7
-6
-9
-1
3
20
28
4
3
3
0
13
-15
-23
-15
7
4
-4
0
-4
25
-5
-13
-5
-1
-3
-1
-4
-9
-10
10
0
0
0
-1
-1
3
9
6
3
2
0
3
-5
2
10
-15
3
-3
0
0
2
15
5
12
2
1
1
-5
7
-33
-11
7
0
-5
-7
-6
-12
1
5
2
10
3
6
9
2
-14
0
-14
-17
-3
-1
-7
-4
-5
-1
12
2
1
1
7
1
21
-5
-12
-3
-10
-8
-3
2
-21
2
3
-21
-4
3
3
-4
8
-6
-9
11
1
2
7
0
-4
0
-14
7
1
0
-7
-5
5
-8
8
-4
2
-1
2
6
-10
18
-1
7
-2
-4
-3
-6
76
-15
3
-5
-6
-4
3
15
-16
-13
9
-4
-4
-3
-14
-13
6
2
5
1
6
2
3
8
6
-4
-23
24
2
-1
-1
-12
-36
-2
5
-8
2
5
1
-2
40
25
4
3
-2
-4
-1
2
-33
-21
9
0
-2
-1
-1
-7
15
-9
15
-10
-6
-3
-4
4
-22
15
-10
2
2
-4
0
-2
-11
-18
-15
5
-4
-4
3
-3
14
17
1
-1
2
2
-5
2
-6
-11
-8
-14
-2
0
-5
-1
-35
0
1
19
6
-2
6
3
0
3
0
-29
1
1
3
2
-12
2
-9
-4
-4
0
-3
-7
-16
-5
-20
1
-2
-3
-1
-2
29
5
20
-19
-4
2
-2
-5
-24
9
-12
12
-2
-1
0
0
13
-13
-15
-3
-1
2
7
-3
4
-1
12
-10
1
-4
-8
1
-39
-19
-16
10
0
-4
4
-5
12
3
-19
-4
3
3
-8
3
45
4
4
2
-4
-1
-5
10
-23
-14
-2
-3
-4
-1
0
-4
8
5
7
-11
-6
-8
-6
-7
-3
-9
-8
16
2
2
6
0
1
8
-1
-7
7
7
4
6
-6
0
32
4
4
0
0
2
16
9
-7
3
-4
-4
-8
-5
-30
-24
-4
-6
-5
-4
-3
3
7
9
-4
0
-4
1
1
-2
11
8
-7
4
-1
0
2
10
10
-8
12
5
-1
-3
1
-4
-7
-7
10
-6
0
1
0
-2
-3
6
-6
9
3
3
1
-7
-31
-7
-7
3
1
-1
3
-5
30
0
-4
-8
-3
-2
-4
0
-5
6
-8
-4
1
2
3
-5
-10
-14
8
6
0
-6
-4
-5
-15
4
-7
-1
-8
-2
-7
-4
-19
1
1
-12
-7
0
-3
4
17
9
15
23
7
0
5
2
-39
-11
-23
-3
1
-2
0
-5
31
-12
-5
-3
-1
-1
-1
-1
-11
19
7
4
3
4
-1
-1
8
12
7
-3
0
-1
-2
-8
19
-2
6
-3
-6
-5
-1
1
-12
-5
-37
-7
-2
-3
-3
-2
7
-6
18
2
-3
-1
0
4
-4
-9
-8
3
3
0
2
2
34
13
16
15
-1
-2
-4
5
-7
-8
-1
-24
-3
-3
-9
-8
1
-4
-6
14
3
3
1
-1
-3
-1
4
-3
-1
-2
-1
-2
-10
-1
4
1
-2
-3
8
6
-5
1
5
-1
7
4
-5
8
-17
2
-10
-8
-4
2
0
-9
23
-11
4
-4
-5
-6
4
1
-3
-8
-15
-4
-7
-7
-12
-2
8
0
1
-5
-2
1
4
0
-2
0
-4
-6
1
-1
-2
6
-37
-3
1
7
0
1
-2
-6
-19
-3
-8
-16
-3
-2
1
-3
22
7
-1
8
-2
-1
3
1
-2
4
11
5
2
0
0
-3
-8
-6
-14
-7
-5
-4
-3
3
-16
-10
2
5
3
0
2
5
19
13
8
-5
-5
-6
-3
-8
-36
-13
-2
2
2
0
-6
0
-8
4
3
8
-3
-4
-3
-1
28
2
-5
-2
6
8
5
-7
11
7
-4
5
1
2
7
-2
9
-6
7
-10
-4
-4
3
9
17
4
3
4
-4
0
-5
-6
-42
4
-3
-9
-1
-1
-5
-7
-10
-6
-3
-1
0
-2
1
-2
18
10
4
-3
-1
-2
1
-4
-17
-14
-15
-1
-1
3
2
0
23
2
-4
0
4
-1
0
-2
10
-8
-1
3
-3
-5
-9
4
-9
3
8
5
-3
-2
6
1
32
0
-21
-10
2
3
-6
-2
-7
-7
8
-17
-6
-5
-10
5
-11
-6
2
10
-2
-2
2
-11
8
-4
-4
5
2
3
-4
7
-2
0
-7
-1
-1
1
7
4
-2
12
5
-26
-4
-1
-1
-5
-10
-21
-4
5
2
0
-2
3
-3
0
-8
-21
-9
-6
2
-8
-14
6
28
0
6
0
-5
3
-3
-19
-32
0
-2
-6
-6
0
8
10
15
1
2
4
5
4
14
-1
-2
-8
0
-1
-3
-13
12
12
2
0
5
2
1
-1
-35
-14
-4
-1
-5
-2
6
1
9
-1
-9
-13
-8
-3
-4
4
-41
-8
2
7
-3
-5
-9
-8
10
1
-7
0
-2
-3
-5
-7
11
22
27
4
-1
2
8
10
0
-11
-12
4
7
3
-4
2
-11
12
-11
-7
-3
-6
-3
2
11
-14
10
7
-3
-4
-9
-4
4
-4
3
-1
-2
2
12
-3
-5
-9
-5
2
-4
-5
-5
-1
16
-1
0
6
1
0
-1
1
-17
-6
-9
-13
-10
-5
-7
-9
-7
7
-9
30
8
2
0
12
34
0
0
-5
-1
2
6
-3
-31
-12
-10
-1
-1
-2
-4
-8
-14
-3
-8
-6
-7
-4
1
0
6
6
11
-2
-3
-1
-7
-3
-37
2
1
-1
-3
-3
4
-2
19
4
9
5
4
1
2
4
-9
-7
-10
-3
0
3
-1
1
2
-2
7
3
0
1
-3
-1
-3
12
4
0
1
0
-1
0
13
-1
-4
0
-3
-3
-1
0
-11
-7
-5
-3
-2
-2
5
0
-2
-12
-2
0
0
-1
-8
-4
6
4
-7
-3
-4
0
0
-4
-5
4
7
3
1
-2
1
1
11
0
2
0
-1
2
10
7
5
1
4
3
0
-3
-8
-6
-18
-3
-1
-4
3
2
-2
-2
-7
-9
-6
4
0
1
-6
0
17
12
1
1
-4
-3
1
3
9
-7
-1
-13
-1
1
4
-1
17
-6
-2
6
-2
-1
3
3
0
0
-8
0
-1
0
-5
0
3
-1
2
-1
-3
-7
-5
-4
-6
2
-9
0
-4
3
-1
-1
0
3
3
1
-2
0
-3
-3
6
1
1
-2
-2
4
7
3
-5
0
1
-2
1
3
-3
-1
3
3
2
1
2
1
-2
1
-6
2
0
-3
-1
-4
0
0
5
-1
-2
1
-2
-3
-3
-1
-6
1
2
-4
-2
-3
-2
-1
-3
-1
0
5
0
-5
2
-2
-3
-4
-10
-2
-3
-1
-7
0
-4
1
-4
-6
-2
-1
3
-2
1
-2
-4
0
-1
2
-2
0
0
2
8
1
0
-1
-1
-2
-2
-3
-4
3
-1
-7
18
0
1
-1
-4
4
0
1
-20
-3
-4
1
4
-1
2
2
5
1
0
-1
-5
-1
-4
3
-2
2
-5
5
9
-3
2
6
4
1
2
-2
7
1
-1
-2
6
-1
1
1
19
5
-1
-3
-2
-3
-3
-4
-35
-4
-2
-6
-7
-1
-5
-9
-16
-9
-6
1
0
1
1
1
7
1
-1
0
3
-2
0
-1
5
4
4
2
-3
-1
2
4
21
4
0
-1
2
0
2
2
2
3
2
0
-7
0
3
-2
-7
-1
1
2
7
2
0
1
19
-2
-1
-1
-4
-3
-1
-2
6
1
1
4
-2
-2
-3
-4
-29
-8
-3
-3
-9
-1
-3
-6
-14
-1
-7
-6
5
3
2
4
2
0
3
2
0
0
3
4
6
12
4
-6
12
-2
-5
-15
9
-24
-7
3
-14
-7
-3
-4
3
-1
-3
1
13
0
-6
-6
4
-3
-6
-3
-8
-1
-3
0
-13
-1
-5
-3
-6
0
2
7
5
9
3
-4
1
3
3
3
0
-5
6
-2
-4
-1
2
-2
-3
3
-1
-8
2
-1
0
-1
13
-6
-1
12
-7
-2
-1
-1
-14
0
-5
-1
2
-2
-8
-9
-21
-15
-3
6
-3
0
1
4
18
7
3
-3
4
0
0
1
-2
-5
-3
-12
-5
-1
-1
2
23
12
6
12
13
0
-1
1
11
5
-2
-6
-9
-1
-1
-9
-59
-11
-4
-3
2
6
-5
-13
0
-8
-6
8
8
6
2
9
-9
-1
0
-3
7
9
1
4
12
5
4
-1
-20
2
2
1
3
-2
2
-14
-9
-3
0
-3
-21
-1
1
8
4
-5
-1
8
21
3
2
5
3
-3
-5
-10
-59
-21
-9
-3
6
-4
-4
-6
-18
-20
-14
-8
-4
-5
-5
-11
-23
0
-8
-12
-9
-8
-1
1
18
6
1
-2
-8
-5
2
10
31
17
10
3
0
1
8
11
4
15
13
6
3
1
-5
-16
-40
-15
-6
-8
18
-3
-1
2
49
15
1
8
-27
-6
6
6
-20
3
4
5
16
-1
-8
-4
-38
0
-13
-18
-17
0
-1
9
85
11
4
18
2
-2
-7
-27
-127
-33
-11
-15
6
-1
5
7
80
2
3
-3
-16
3
-1
-3
-22
0
5
28
25
3
0
10
-21
6
0
-7
-7
5
2
4
-4
7
1
-4
1
-2
-1
4
1
9
0
-6
0
-7
-1
-12
13
-11
-5
-10
-10
-10
3
2
-40
-10
-2
-6
10
-7
-1
-2
61
16
2
14
-5
-2
-7
0
-18
-1
-5
-4
1
-7
-1
10
34
14
3
-5
-4
1
-1
-6
-41
-6
2
-1
-5
-1
4
8
45
12
6
0
3
2
-5
-19
-51
-27
-13
-7
2
1
-2
4
61
14
0
3
-4
-1
4
-1
-37
-21
2
3
5
5
-1
7
6
12
2
-5
0
2
0
-9
-22
9
-3
-7
-8
0
1
5
-4
-14
10
23
3
1
1
3
77
21
1
-5
4
-1
0
-2
-40
-11
-3
-8
6
0
-5
1
33
11
-6
-5
-7
-2
4
-5
-24
-9
-2
4
6
5
6
10
37
14
8
2
-8
-1
-7
-6
39
0
-8
-2
-1
0
5
6
-3
-1
-2
-5
7
2
-4
-11
-34
-14
-6
-10
-3
-3
-11
0
47
2
-5
7
-8
-4
0
-3
-51
-17
-2
-8
0
-3
0
2
0
-1
-1
9
0
0
3
-2
12
20
1
-5
0
-1
0
-6
8
-5
-4
-8
-4
-1
-1
-4
-1
-16
-6
-2
3
-4
1
0
34
-1
2
1
8
1
-2
-2
-38
4
8
10
6
-3
-5
1
20
-4
-5
-9
-2
-1
2
-4
-19
-7
-2
-4
-9
3
2
-1
8
3
0
2
4
2
-1
-2
-35
-22
-10
-11
-5
-1
-3
-3
-23
14
8
2
0
1
2
10
19
-4
-2
6
2
1
-2
-3
-14
-5
3
3
-4
-2
-2
1
23
10
-2
1
-4
-3
2
1
-24
-17
-4
-3
9
-2
0
-13
-71
-14
-4
-6
-12
2
-4
4
50
8
0
4
1
-3
3
1
7
2
-4
-2
-2
-3
3
0
-18
3
4
3
-1
0
-2
-5
52
11
-1
-13
-1
-2
1
-2
-28
-15
3
8
-7
1
-5
1
25
0
-4
-4
-3
-1
-1
-6
-26
-10
-6
-1
-7
-2
2
2
6
-1
-1
0
0
1
1
-2
-18
7
1
-5
-1
1
4
8
44
1
7
6
7
3
-6
-11
-10
5
-3
-7
-5
-3
4
3
-18
6
0
-1
8
5
-9
-5
-11
-14
-5
1
2
-9
0
0
18
-7
-1
2
-4
-2
1
3
-7
7
6
1
-2
0
-1
0
12
5
5
-1
0
1
2
-3
-17
-7
-8
-15
-6
0
0
-3
-2
5
3
3
-4
-1
2
3
32
0
2
1
4
1
-2
2
-1
-6
-5
-1
5
-2
2
3
2
1
-3
0
-3
1
-2
-3
-20
-5
-5
-6
1
-3
3
-3
-5
5
-4
-1
-3
0
-1
-5
-16
-8
-2
-5
0
-3
-3
0
17
3
-2
3
2
0
-4
-3
-26
-2
-3
-5
2
-1
0
7
17
-1
1
3
0
1
-1
2
7
4
4
0
-7
-1
-1
-1
-23
9
-1
1
17
-1
-6
-2
4
-14
0
4
-12
0
-2
-1
-15
-3
-6
-2
-5
0
-3
0
8
4
-1
-4
-6
-3
1
0
25
-8
-4
-2
-4
-1
1
2
-26
2
1
1
2
1
-2
-8
-13
-8
-2
-6
-2
0
-1
3
17
4
2
4
-2
-3
-1
-2
-3
7
-1
1
0
-1
-3
-2
11
-6
1
-2
3
-3
-1
1
6
-5
-2
2
-6
-3
-1
0
5
3
0
1
0
0
-1
-4
-15
-8
-3
-2
-3
-1
-3
-3
-6
-1
-4
-6
-4
-3
1
0
6
0
5
2
3
1
1
1
-8
10
4
2
-1
-2
-2
-1
-5
-1
4
-2
-3
0
-1
-4
-1
6
-5
-2
0
1
-1
1
5
-2
-2
-2
-1
0
1
0
-5
-8
-3
-1
0
-2
3
-1
0
7
2
0
-3
0
-3
3
25
20
0
0
4
-2
-5
-8
-47
-20
-6
-3
-4
-1
-2
-2
-10
3
-3
-3
-2
-3
-2
-1
7
6
-1
0
-1
-1
0
0
-7
-12
-1
-2
0
-1
-2
-4
-4
2
0
-2
-3
0
0
-3
6
14
3
1
-2
0
0
2
-7
-7
0
1
0
0
1
-3
2
1
1
1
-1
0
-2
4
17
4
0
1
1
-2
5
-2
-4
-16
-6
-2
-1
-1
-7
-2
0
10
1
-3
0
-3
-3
-5
-4
-8
-1
0
0
-1
2
-2
6
-3
-4
-4
0
0
-10
0
4
4
-3
0
0
-1
8
0
-6
1
1
-1
0
1
-4
0
-6
0
0
0
2
0
-2
1
7
2
-2
-3
-2
-1
7
3
5
-3
4
5
2
-3
-2
-2
-3
-5
0
-1
-2
-1
2
-3
-7
-4
-4
-1
-2
-1
-4
3
8
6
-2
-2
0
-1
-10
-2
4
-11
-2
-1
-2
0
5
-6
0
-7
2
1
-1
-2
2
1
4
0
-7
-1
0
-1
2
1
5
7
5
3
-1
3
-2
1
-6
-1
-3
-3
-3
-2
-21
2
-6
-8
-2
0
-2
1
16
-9
1
-10
-1
-3
-1
0
-5
2
6
2
-1
-3
0
-4
-1
0
10
-1
4
3
1
-3
0
-6
-6
-1
-6
-2
-3
1
-4
3
-5
4
3
0
0
-1
-2
2
0
-3
-6
-2
-3
-2
7
-5
6
-9
2
2
1
2
2
7
-2
10
-1
1
0
2
-5
-1
-5
-5
-1
1
0
1
-6
-6
1
-4
-1
-2
-2
-2
-4
4
-4
0
-3
-2
3
0
7
3
-3
10
1
1
5
1
6
-2
-14
-14
0
0
-6
-2
-5
-18
7
-8
-4
-3
-9
-10
3
-1
-2
2
-1
-2
-4
-4
22
-1
5
-3
-2
-3
-2
2
2
6
-4
8
0
-1
4
-1
-15
-2
-7
0
-2
1
2
-3
-6
-13
4
-5
-2
-3
-2
0
5
5
-10
-4
2
3
4
-2
-3
-2
8
7
-2
-4
-1
0
23
6
-1
-3
-1
-2
-2
3
-21
-1
-17
-5
-7
-5
-1
-3
20
5
1
3
0
-1
3
7
-9
-11
-10
-5
-1
2
-2
-3
2
10
4
0
6
2
2
1
-34
-3
17
-5
-2
-1
-2
-9
5
-4
1
-12
-2
-5
0
-2
-4
-7
-7
-3
-1
-2
-5
-3
10
14
-7
13
2
2
4
4
-48
4
-17
-4
1
3
3
-5
-28
-32
2
-13
-6
-6
-8
5
0
12
12
7
3
-1
1
-8
-8
4
-4
4
2
3
1
4
20
-6
-8
-6
-6
1
6
7
-47
-2
-36
7
2
2
-1
-14
22
7
37
8
-13
-1
8
10
-7
-21
-7
5
17
-3
-3
0
12
19
22
15
4
3
-2
9
-9
2
-44
1
-1
0
1
-7
71
-15
7
-31
-12
3
6
10
-48
17
17
39
12
2
3
-2
90
-4
7
-13
-12
-12
-7
2
-2
-3
53
20
15
0
-7
-10
-51
-1
-41
8
19
1
-1
-3
-16
1
40
-19
-17
-3
0
-7
68
20
-72
7
12
3
7
26
-43
27
35
-14
-22
-10
-9
-13
31
-34
-28
31
2
0
0
4
-2
13
40
2
0
-7
-6
10
-106
3
30
11
4
8
8
-12
-22
-11
-41
-15
-14
-5
1
-3
-2
7
-14
-29
3
-2
-7
-5
-24
4
-15
-4
-6
-1
2
-2
111
8
-6
1
-2
-1
-5
6
53
0
29
-13
5
4
2
13
-67
70
-2
9
-2
-4
-5
-16
-8
-90
-43
-4
-6
0
0
5
-87
7
45
-17
-2
6
-6
-27
39
1
-9
-7
13
10
15
0
72
-37
-51
-7
-9
0
-4
4
-12
47
9
-7
-6
-6
1
-5
-25
4
4
-7
-4
-7
-7
-1
-53
8
17
38
27
12
-2
-2
2
34
40
39
-1
-4
1
11
27
-70
-34
-61
-15
-7
-12
-16
26
-29
-28
17
-7
-7
4
-3
61
47
47
-14
-27
-3
1
9
15
-4
-12
8
24
0
-4
-4
49
6
17
23
10
3
5
13
-36
-12
-10
-5
-6
0
-5
-10
-7
13
-1
4
4
11
5
4
47
-6
2
-12
-5
-1
-7
-5
0
3
-6
-7
-11
-4
-8
2
8
0
40
1
0
-12
5
3
-38
-8
-60
-8
1
1
-3
-6
-6
2
5
-51
-25
-9
-7
-12
-73
36
2
37
17
7
7
-2
19
16
-11
21
1
-2
-2
6
8
-33
-14
2
-4
-7
-3
3
-18
2
31
-20
4
3
-5
4
51
-9
-25
-18
-11
-6
-3
-1
-3
-13
-4
8
-1
-3
-5
-4
-24
-20
-53
-3
-2
-1
0
-6
-24
-10
21
13
-7
-4
8
5
-36
9
26
-3
8
2
-11
-12
36
-6
-10
-5
-1
1
2
2
-2
11
30
-20
0
-13
-15
8
-3
10
9
3
-5
7
18
9
9
-37
-3
-1
3
6
7
5
32
38
5
2
4
6
9
5
41
29
-5
-6
-8
-2
-5
4
-54
-59
21
3
-4
-10
-13
-22
-30
2
-36
1
1
0
-2
-12
46
-5
8
4
-4
-1
-11
16
-83
-11
-21
1
-9
-12
-8
-25
43
3
-2
-12
16
8
11
9
-17
20
27
21
-4
5
2
-1
36
-1
-4
-21
18
0
1
-2
45
-21
-9
17
-2
-3
3
12
-34
-9
-4
19
-4
-1
-12
-9
16
-2
-57
-28
-9
-3
3
1
-65
4
34
-4
0
-4
0
-6
-20
-15
18
-9
-2
0
-4
-9
-59
-4
-14
-9
1
-1
-7
-11
104
20
12
11
5
-2
4
12
-38
-13
-10
-11
-8
-2
5
-4
13
-3
7
4
4
11
-3
-4
-5
15
9
6
-1
-1
6
25
-50
-11
16
-9
1
-1
-6
-12
-19
-3
-40
-7
3
4
0
-7
18
-1
-3
5
0
-6
-2
-7
13
6
-4
11
6
2
-1
6
49
30
21
10
-10
-2
6
10
-33
-30
-19
-47
5
3
-3
-6
-13
1
20
17
13
2
8
-2
1
-3
-56
0
5
0
-10
-4
-25
2
27
13
-4
-6
-3
-7
-33
-26
-55
-32
-9
-1
-4
1
19
0
-7
13
2
2
1
2
4
-4
16
-18
-11
-8
4
-7
-50
17
0
-4
6
5
2
-3
32
1
9
9
-4
-1
-10
8
-70
7
0
-1
0
-3
-3
-14
75
-1
-24
-30
-9
-5
-1
-1
-14
-4
8
7
1
0
-1
0
25
22
-1
28
0
0
14
10
9
-54
-7
-17
-5
-2
-16
-6
-44
3
23
14
-1
0
7
-8
1
-8
-23
14
-3
-6
-4
4
37
-2
10
-11
1
7
-9
-9
7
2
22
4
-3
-3
-3
-2
39
2
3
19
3
3
3
7
19
0
-28
-23
-3
-1
2
-3
-27
6
26
33
1
-8
-9
-5
23
-5
7
-3
-4
-2
3
14
-57
-22
6
-25
5
3
0
-7
-11
-8
-55
1
-8
-4
-1
-7
22
7
1
2
-9
-2
-4
8
13
-2
-18
-10
-1
1
1
1
-20
12
32
6
1
-6
-1
-2
-6
-12
19
9
5
2
1
0
-71
0
7
-2
-1
1
-2
-17
58
1
-3
15
-3
-2
10
17
-33
39
-43
8
4
-2
4
4
49
-39
19
-31
6
-4
-24
-12
-28
-5
-9
5
-4
-10
-2
-10
6
26
26
13
-3
1
-2
-6
48
-29
-2
-28
-1
4
7
13
-44
9
-8
-12
-6
-3
-3
-5
13
14
-3
10
6
1
-4
3
-16
-1
4
-5
-2
-11
14
4
-10
-6
-3
-8
-5
4
-27
-16
3
17
9
-3
-6
-4
0
-3
25
-9
19
-11
1
8
15
12
-23
-3
-50
-3
-2
-7
-8
-1
-31
3
16
11
-6
7
13
-15
39
41
11
15
7
0
6
12
-16
-43
5
-7
-7
-6
-12
2
-45
-19
17
-6
3
1
3
5
-11
4
-21
-6
-6
-5
-3
-7
-22
-16
29
9
-5
-4
-4
1
29
21
-85
-27
-2
-5
9
-8
25
18
40
9
2
3
-19
-4
-21
-16
30
12
5
2
1
0
-6
0
-6
9
-6
6
10
6
26
-3
3
1
-1
-9
-8
2
-8
-10
-17
-4
6
2
4
5
20
8
11
2
3
-3
2
-13
41
-5
-9
-4
0
4
0
0
-54
-12
28
-2
-3
-5
6
-6
49
-6
-58
-20
-15
-4
-14
-2
-47
-13
4
5
0
1
4
6
49
5
-30
-8
4
2
11
20
2
-4
34
9
3
13
8
-16
-10
19
20
3
2
3
3
-11
29
-11
-16
-14
-4
-8
-6
10
-47
15
15
23
1
1
1
1
-43
-8
-13
0
-3
-6
-6
0
50
19
8
-2
3
4
12
11
-33
-19
-12
-15
-1
-3
-9
-10
-54
-3
-19
7
-4
-6
-6
-14
1
1
18
4
-3
3
3
9
-19
-6
-10
-4
-3
-1
1
-8
86
21
-2
1
-3
-1
-1
19
-8
9
24
-12
3
0
3
-2
-79
12
7
32
5
2
-2
-11
56
-11
-9
-19
-5
-5
-3
11
-12
5
12
9
0
-5
4
6
12
8
-20
-21
-3
-3
-4
-12
52
8
1
3
-10
-13
-2
11
-62
-16
-1
7
2
10
-11
-12
-16
11
10
9
-4
-5
-1
-22
50
-4
-5
-5
3
0
2
12
-53
-11
1
-13
-3
-2
-7
-16
18
3
6
10
1
-4
4
-2
-27
2
2
-11
0
6
1
0
56
-12
-8
3
-7
-8
-12
1
34
11
4
1
8
0
0
9
-28
1
-2
4
0
1
6
5
-9
-9
4
6
-1
-1
-4
1
-15
0
5
13
2
2
6
-4
31
0
3
-7
-5
-6
-6
1
18
22
10
0
-7
-4
-5
-10
35
-19
16
21
19
7
9
8
-96
12
-27
-15
-7
-2
-6
-6
-57
-25
-31
-15
-3
0
2
-7
40
8
2
-6
1
-5
1
25
-27
-16
0
0
-11
-5
-5
-11
13
-3
23
-3
2
0
-6
3
-20
8
9
9
-1
4
-3
5
-44
8
-11
-2
-6
-2
6
-7
43
10
6
5
5
2
6
14
-2
-11
-25
2
3
1
2
-3
30
-7
-16
-8
-8
-4
-2
4
-14
-12
17
-11
-1
-3
1
-11
8
14
-5
4
-5
-2
-9
1
-27
-12
3
-5
-1
0
5
-11
22
5
-14
9
0
-3
-3
0
53
5
16
5
5
2
0
1
15
8
-34
-19
-6
1
4
9
-64
-11
-1
-4
-4
-6
-9
-13
-31
3
15
-6
-1
-2
3
3
-23
-19
-14
26
2
-1
-4
-6
17
-1
-6
-10
-6
0
-6
-13
14
5
14
-10
3
-2
-4
-2
19
-3
-7
2
1
2
3
6
-8
4
3
-8
0
-3
2
-1
-19
-9
0
2
-4
-7
-5
-1
18
-14
-29
1
-4
1
4
8
-1
-6
-11
-8
0
2
-8
-4
21
4
13
6
3
4
2
-7
13
20
-7
11
-8
-6
-4
1
30
-53
16
-8
10
2
-1
-1
27
15
-12
-1
-7
-3
2
13
-64
-24
-20
-16
-5
-1
2
-12
13
15
-10
-9
-1
0
-5
-8
-14
5
-5
17
-4
3
3
9
-5
11
19
-3
1
0
5
-8
14
-17
-3
-9
1
0
1
-3
-26
-3
-12
12
6
-8
-18
-10
19
20
40
-4
-5
13
18
2
28
-18
-42
-11
-2
-1
-3
0
-20
2
13
12
3
5
9
8
-17
8
16
-15
-3
-4
-1
4
14
-2
-19
13
-2
-9
-10
-5
-47
7
41
-5
3
3
1
-4
28
-17
-38
-8
-2
-1
-1
-2
-19
-11
-4
-3
-4
-3
-9
-6
15
18
9
-10
-1
-1
1
6
-2
-11
9
10
1
-1
-4
-3
-4
7
-8
3
-7
-8
-18
-1
-5
3
7
-18
4
6
12
5
8
14
32
-6
-5
-8
-1
-21
9
-5
-23
11
2
0
-6
-3
-15
13
13
4
1
1
5
1
-10
-4
-9
0
-5
-3
1
4
12
-11
-9
-4
-2
-2
-5
3
7
12
30
-1
4
5
5
4
-31
-10
-23
-10
-5
-4
-2
-7
71
14
7
22
3
8
15
7
-68
-12
-15
-6
-1
-5
-21
-5
-7
-10
4
6
-1
-2
-8
4
2
16
16
2
-3
1
-7
-23
-6
-6
-15
-5
-3
-5
11
1
11
3
-29
8
0
-1
-6
-1
5
-10
-6
-4
1
-1
-6
0
2
22
33
-10
-2
6
9
20
-14
-21
-13
13
-1
-3
-12
-8
-8
17
9
1
-2
0
7
-3
-17
3
11
6
-1
2
4
-8
20
0
-30
-11
-3
-5
-7
1
-39
-27
12
5
0
-3
1
-9
12
20
-5
-2
0
2
-4
0
79
19
-7
-2
-1
-1
6
10
-23
-34
1
1
-3
-4
-4
7
-13
-8
-13
-4
-3
0
-3
-12
-17
-6
4
5
3
-1
2
-3
1
7
-14
-3
-2
1
2
-1
0
-11
-10
-4
-3
-6
-5
-3
-21
-8
-22
-10
4
2
-3
4
11
15
24
8
4
2
11
2
-30
-18
12
0
-4
-2
-9
-7
-12
-9
-18
-3
-3
-4
7
3
-12
15
6
-3
-3
-1
-9
-8
-2
-9
-16
-5
-2
1
8
10
15
1
2
2
6
-1
1
-2
5
4
2
3
0
-1
-8
-2
-2
0
9
-6
-5
-6
1
6
-29
-14
-15
-6
-2
6
-3
-1
10
9
-6
1
-4
1
11
5
-3
-11
20
4
-3
1
-1
-7
35
7
-7
3
6
3
0
-7
14
-22
-6
8
-1
-7
-5
2
-14
-9
-11
-13
-5
-3
-4
-4
7
20
-4
16
3
0
-4
1
-17
5
16
1
-2
3
5
5
0
-2
-3
-10
-3
-1
1
-4
1
0
1
1
-1
-1
-1
0
-3
3
3
-5
-1
-3
0
-2
-7
-7
7
5
0
3
-3
-2
30
16
-2
-3
-1
-3
-2
0
-19
0
11
-3
-2
-7
-15
-4
-6
-4
0
-6
-2
4
3
-5
6
0
3
5
2
4
7
3
-1
-4
3
-2
-2
-3
1
-2
5
1
-9
-4
-2
5
6
0
0
3
1
4
0
-1
-6
1
-5
5
-3
-1
0
-1
-2
0
4
-14
-5
-7
-6
-4
-4
-1
-8
-1
0
5
5
-1
-1
-3
-1
-3
-7
-4
2
0
10
4
-1
1
6
0
-2
-2
-8
0
-3
-1
3
-3
-3
0
4
-2
-5
-2
-1
2
-3
-3
-3
-4
-1
3
4
1
2
8
-2
-1
-4
-5
-12
-7
-2
-5
3
-2
-3
-2
3
-4
-5
-3
-7
-2
4
-1
0
5
-2
-4
3
0
6
5
6
-1
1
11
0
-1
-9
-2
-9
0
-3
-4
-2
0
-2
-5
-9
1
-1
-9
-10
1
-2
-4
-2
-5
1
15
12
-2
-2
-2
-4
-5
-2
-4
-1
-2
-5
2
9
7
3
5
0
0
0
3
1
0
1
-1
2
0
-1
0
3
-1
-1
-10
-7
1
1
-1
-3
2
-3
-4
-4
-4
-1
-2
11
-3
-3
-2
3
-2
2
-1
-16
-4
-2
-4
-5
-2
-3
1
-15
-1
0
1
-3
-1
-2
-3
-4
-5
-3
0
0
2
3
-1
8
1
1
-8
19
3
-3
0
22
2
2
12
-18
-1
3
10
37
5
3
-1
6
-1
-3
-14
-46
-13
-6
-7
-11
-1
-2
-2
0
6
-1
2
-3
0
0
-1
7
0
0
0
5
1
-1
-3
-26
-5
-1
-7
-6
2
1
5
24
3
1
6
4
1
-3
3
-2
-3
-2
5
4
-4
-2
-4
-8
1
3
5
6
-4
-2
0
10
4
-1
-3
-4
-2
0
-1
13
-1
0
-9
-2
-1
1
-6
-28
-10
-3
-2
-12
0
6
4
34
6
3
-1
5
1
0
-7
-22
6
-3
0
-3
0
-3
-5
-41
-13
-7
-3
-6
3
1
5
7
-3
-3
3
-3
0
2
-4
-21
-2
2
-3
6
-2
1
0
18
0
3
-4
-6
-2
4
7
52
14
8
-5
13
-1
-3
0
-3
-3
-2
8
-27
0
-7
-11
-47
-3
-8
0
12
3
0
-6
-23
-4
-5
0
2
-1
0
4
13
1
1
0
2
-1
6
10
35
4
5
-10
-7
0
2
-6
-18
4
0
-8
6
1
-2
-1
25
0
-2
12
-3
-5
-1
-2
-14
-12
-4
7
-5
0
-2
-3
-13
-2
-3
-9
15
-2
4
9
30
8
4
2
-18
-5
-2
-1
-44
-9
0
-2
-3
-2
-10
-18
-29
-11
-18
-8
-1
-1
-3
0
-4
-4
-2
7
-2
1
-3
-10
-18
-9
-6
-2
7
0
5
21
56
23
10
-3
2
1
-1
-11
-50
-7
0
-3
-6
-2
-2
-6
-5
-12
-3
-6
12
2
3
9
38
8
3
7
-15
-2
-3
-16
-60
-19
-5
-4
-6
-4
-4
5
28
15
-6
-14
-22
-2
1
-9
-43
6
1
1
26
2
0
4
3
-7
1
11
1
3
4
2
-8
-12
2
-3
8
0
8
14
75
2
6
-7
-12
-2
-8
-16
-69
-25
-4
4
-19
-5
-3
-17
24
5
-15
-12
3
-6
-3
2
8
1
-2
4
-7
-1
7
10
22
8
10
-2
8
0
4
6
54
-6
6
1
-5
-1
-15
-17
-41
-12
-13
-9
0
-6
-4
-6
-4
-6
-4
-2
0
-1
-4
2
-10
15
3
4
6
-1
4
7
14
13
6
-4
-3
2
0
10
30
-3
-4
-3
-13
0
-5
-17
13
7
-3
3
12
-5
-4
-11
-82
-35
-6
7
-1
-1
5
14
4
24
6
6
11
0
-4
-6
35
-9
-5
-6
-12
-4
-1
-2
-11
0
-2
-7
-7
-1
3
1
-17
19
5
0
10
1
-9
-6
46
-16
-13
-6
-9
-4
4
5
-40
-7
9
9
5
0
-3
4
11
4
-1
2
-6
0
-3
-6
2
5
-4
-2
3
-3
-1
-2
-3
-5
-5
-7
-9
0
7
12
11
16
9
2
3
3
4
8
-14
-15
4
5
8
2
-10
-16
20
-13
-13
-11
-12
-3
-5
-5
-20
-16
-13
-4
-4
-3
0
2
-9
3
9
5
12
3
0
2
27
7
1
0
0
2
4
5
-6
0
6
5
7
1
-5
-6
18
9
-1
-3
1
-2
-3
-2
-12
-3
-4
-8
-7
-3
-2
-1
1
-3
-8
-1
-5
0
4
9
68
8
5
8
3
1
-4
-6
-39
1
-2
2
5
0
0
4
24
10
2
-4
-3
0
1
4
10
-7
-3
-4
0
-1
-4
-13
-22
-4
-3
1
-2
-1
-1
1
19
8
1
-2
-6
-2
4
9
-5
-4
2
2
6
1
3
-4
4
2
-6
-10
-6
-5
7
-4
8
-21
-4
3
-2
1
8
-2
-48
-5
1
3
0
0
1
-5
-57
-2
-2
-3
-2
0
-2
4
28
11
3
3
1
0
-6
2
-20
-13
-3
-3
4
0
-10
-3
29
18
-4
-7
-4
-2
-4
-1
-7
-8
0
1
-6
0
-7
-5
-17
0
-1
-2
6
0
0
7
10
9
4
1
-7
-2
0
0
-11
-12
2
-11
-21
-3
-6
-4
4
2
-5
7
28
2
-3
-1
-2
-8
2
7
-3
2
-1
2
15
12
-1
0
4
0
0
2
-1
-4
-1
4
-2
-1
-2
-3
-5
-2
-3
-9
-6
-1
-3
-3
-9
4
-1
-3
-2
1
-1
-4
9
-9
-4
3
-1
-1
1
-2
-15
0
-1
-3
1
-1
-2
-9
-34
-12
-5
-3
-6
-3
0
-1
-25
-2
-2
0
5
-1
-2
3
25
8
-3
-8
-11
-3
3
3
29
12
3
1
-1
1
0
-3
-11
-4
8
6
2
2
-1
1
16
-8
-9
-4
-5
-2
-1
-5
-21
5
9
2
2
-2
-1
-2
-1
0
1
2
7
-1
0
1
34
-1
-3
-2
0
0
2
-1
-36
3
0
-1
-10
1
-2
-4
1
-8
-8
-5
2
-2
2
1
-14
-3
-2
-2
-13
1
-3
-5
-2
-2
-3
6
13
-2
-1
-1
11
-5
0
2
8
0
1
1
-13
3
1
1
22
3
-1
-1
11
3
3
5
-23
-3
4
5
6
2
1
-3
-7
0
-4
-5
-4
-7
-4
-5
1
-2
-2
4
21
14
3
4
-9
-1
-2
-2
-16
-12
-1
0
8
0
1
3
6
4
-3
-5
-3
-1
1
-2
10
2
4
1
-1
0
0
7
10
7
6
-2
-2
-3
-5
-10
-20
-17
-8
-4
10
1
-2
3
21
3
1
-1
-8
-2
1
4
-25
3
1
0
-2
0
-5
-8
3
-4
-4
-3
-5
1
-3
1
-8
6
-1
-1
8
0
0
-1
-2
3
0
2
-6
-1
-1
0
24
-1
0
0
-1
-1
3
2
-9
-10
-1
-1
-1
0
1
5
26
6
-2
-1
2
-2
-3
-9
-17
-1
-4
-2
7
0
-1
0
-4
-1
0
0
-4
-2
-1
-3
-9
-4
-2
-3
4
-2
0
-1
0
-2
0
0
-3
-2
-2
1
-1
-3
-2
-8
1
-4
2
1
34
13
5
10
0
0
-5
-14
-73
-21
-7
-2
-2
-1
-1
2
9
7
0
-3
3
-2
-1
1
5
-7
-3
-4
-10
0
0
-2
-2
0
0
-1
3
-2
-1
2
-3
6
-1
-2
-5
1
1
-2
-4
-3
0
0
-1
-3
-2
-1
8
-2
-3
-2
-8
-1
-3
-10
-37
-7
-7
-6
-2
-1
2
5
30
1
2
0
-1
-1
-1
-3
-17
3
4
1
3
-3
1
4
32
9
6
4
5
-1
-4
-9
-16
-17
-8
-6
-8
-3
1
3
9
5
0
4
8
1
-1
0
-8
-3
-5
-3
1
2
-2
-3
-5
-10
-6
-2
2
0
0
1
7
4
3
1
-5
1
1
3
3
-3
2
-3
-1
-4
-2
-3
30
-2
-3
0
2
-2
-1
-2
-39
-1
-2
-3
4
0
-1
-4
-9
1
-3
-3
-5
-1
0
1
12
-5
-2
3
3
1
-1
4
22
1
1
3
2
0
-1
2
-9
5
4
2
-3
0
-1
-3
21
-7
-1
-5
-2
-1
0
-1
0
6
-5
-5
-6
-2
-1
-8
-25
-10
2
1
-4
1
-4
-2
4
0
-5
-3
-5
-1
0
1
-14
-1
1
-2
5
1
-1
3
17
0
-3
0
-1
-2
1
0
-8
-2
0
0
2
1
0
2
6
3
1
3
-1
-1
0
0
-7
-1
0
-2
-2
-1
-1
-1
-5
1
1
0
4
-1
-2
0
4
1
-2
-1
-5
-1
-2
-1
7
5
2
0
3
0
1
2
0
-1
-3
6
0
-2
2
-2
5
2
1
-1
0
-2
-3
-4
-17
-5
-4
-5
-2
0
1
1
26
5
-1
-1
-3
-1
-2
2
-25
0
-1
-6
5
0
-2
-2
18
2
3
0
-3
-2
0
2
-16
-4
2
2
1
-1
1
-7
-27
-8
-2
-1
-5
-1
-2
1
40
7
-1
0
3
1
-1
0
-19
-3
-1
-3
-6
0
-1
-1
4
5
-3
-2
-2
-1
0
-2
-2
-8
-3
-2
-1
-1
-1
1
3
-2
-1
0
0
-1
-1
-5
-7
-5
-3
-2
-6
1
0
1
-15
0
4
5
5
0
-1
0
14
-1
-1
-3
-1
-2
2
3
12
0
0
-2
3
-3
-1
-2
-38
-7
-2
-1
-3
-1
-2
1
27
6
-3
-3
-5
-1
-3
-2
-20
-8
-1
-3
-16
-3
-4
-3
2
-4
-3
4
4
1
-1
0
5
4
2
-3
4
-1
1
0
-3
1
0
1
3
0
0
-3
1
1
-1
4
8
-1
-1
2
5
5
2
-2
-5
-1
-2
-4
0
-3
-6
-4
-8
-2
0
-3
0
-9
-3
-2
0
0
-3
-2
-4
-5
-5
-5
-7
-2
1
2
7
2
1
-2
-3
-1
0
-1
-13
1
1
4
2
1
-1
-3
5
5
1
-2
-2
0
-4
-2
-6
-4
-1
1
4
0
-2
-5
-13
-5
-4
-5
-5
-4
0
-1
2
-1
0
-2
12
1
1
1
20
6
0
2
-17
-5
1
-1
-24
-4
2
1
0
1
-5
-8
0
-5
-3
-1
1
0
-2
2
-14
1
1
-3
-2
0
-2
-2
0
0
-2
-1
2
-2
1
3
20
1
-1
0
3
0
2
0
-11
-5
-2
-2
-4
-1