-0.5651675001603089
-0.0026015291925457714
1.2388163041455214
-0.5651675001603089
-0.0026015291925457714
1.2388163041455214
-0.5678301616016126
-0.0020640378811376267
1.2384405411704338
-0.5678301616016126
-0.0020640378811376267
1.2384405411704338
-0.5678301616016126
-0.0020640378811376267
1.2384405411704338
-0.5678301616016126
-0.0020640378811376267
1.2384405411704338
-0.5691546867614666
-0.0012639205593598032
1.2385031218746765
-0.5691546867614666
-0.0012639205593598032
1.2385031218746765
-0.5691546867614666
-0.0012639205593598032
1.2385031218746765
-0.5691546867614666
-0.0012639205593598032
1.2385031218746765
-0.568621831340137
5.36421306160181E-6
1.2387972902315123
-0.568621831340137
5.36421306160181E-6
1.2387972902315123
-0.568621831340137
5.36421306160181E-6
1.2387972902315123
-0.568621831340137
5.36421306160181E-6
1.2387972902315123
-0.5673240851092968
0.0011609077400549475
1.238904231099656
-0.5673240851092968
0.0011609077400549475
1.238904231099656
-0.5673240851092968
0.0011609077400549475
1.238904231099656
-0.5673240851092968
0.0011609077400549475
1.238904231099656
-0.5672838357385086
0.001276225532586046
1.238944480470444
-0.5672838357385086
0.001276225532586046
1.238944480470444
-0.5672838357385086
0.001276225532586046
1.238944480470444
-0.5672838357385086
0.001276225532586046
1.238944480470444
-0.5675352038889311
0.0011256152482218807
1.238884716519986
-0.5675352038889311
0.0011256152482218807
1.238884716519986
-0.5675352038889311
0.0011256152482218807
1.238884716519986
-0.5675352038889311
0.0011256152482218807
1.238884716519986
-0.5669870235864335
5.068680322105504E-4
1.2386367958774291
-0.5669870235864335
5.068680322105504E-4
1.2386367958774291
-0.5669870235864335
5.068680322105504E-4
1.2386367958774291
-0.5669870235864335
5.068680322105504E-4
1.2386367958774291
-0.5666012667831786
-0.0011473535971267493
1.2386900459209191
-0.5666012667831786
-0.0011473535971267493
1.2386900459209191
-0.5666012667831786
-0.0011473535971267493
1.2386900459209191
-0.5666012667831786
-0.0011473535971267493
1.2386900459209191
-0.5667377057516465
-0.003130615121959901
1.2385286328774276
-0.5667377057516465
-0.003130615121959901
1.2385286328774276
-0.5667377057516465
-0.003130615121959901
1.2385286328774276
-0.5667377057516465
-0.003130615121959901
1.2385286328774276
-0.5673514420526775
-0.004917394394817354
1.2383852294780704
-0.5673514420526775
-0.004917394394817354
1.2383852294780704
-0.5673514420526775
-0.004917394394817354
1.2383852294780704
-0.5673514420526775
-0.004917394394817354
1.2383852294780704
-0.5679758800340495
-0.006779912774909469
1.2379841029616312
-0.5679758800340495
-0.006779912774909469
1.2379841029616312
-0.5679758800340495
-0.006779912774909469
1.2379841029616312
-0.5679758800340495
-0.006779912774909469
1.2379841029616312
-0.5689431652509246
-0.008379097365743276
1.2371239377985814
-0.5689431652509246
-0.008379097365743276
1.2371239377985814
-0.5689431652509246
-0.008379097365743276
1.2371239377985814
-0.5689431652509246
-0.008379097365743276
1.2371239377985814
-0.5697236695101064
-0.00965585333465471
1.2366582045756391
-0.5697236695101064
-0.00965585333465471
1.2366582045756391
-0.5697236695101064
-0.00965585333465471
1.2366582045756391
-0.5697236695101064
-0.00965585333465471
1.2366582045756391
-0.5703864196557089
-0.010790659424447136
1.2365793571209172
-0.5703864196557089
-0.010790659424447136
1.2365793571209172
-0.5703864196557089
-0.010790659424447136
1.2365793571209172
-0.5703864196557089
-0.010790659424447136
1.2365793571209172
-0.5708652565654417
-0.011725911513136815
1.2364716979045536
-0.5708652565654417
-0.011725911513136815
1.2364716979045536
-0.5708652565654417
-0.011725911513136815
1.2364716979045536
-0.5708652565654417
-0.011725911513136815
1.2364716979045536
-0.5713803687335834
-0.012450024072602359
1.236480070043506
-0.5713803687335834
-0.012450024072602359
1.236480070043506
-0.5713803687335834
-0.012450024072602359
1.236480070043506
-0.5713803687335834
-0.012450024072602359
1.236480070043506
-0.5720544401276054
-0.012731516162024158
1.2365371532019824
-0.5720544401276054
-0.012731516162024158
1.2365371532019824
-0.5720544401276054
-0.012731516162024158
1.2365371532019824
-0.5720544401276054
-0.012731516162024158
1.2365371532019824
-0.5714167230246715
-0.013246327782044912
1.2368915981464454
-0.5714167230246715
-0.013246327782044912
1.2368915981464454
-0.5714167230246715
-0.013246327782044912
1.2368915981464454
-0.5714167230246715
-0.013246327782044912
1.2368915981464454
-0.5701901056764589
-0.013335863076843474
1.2374279481571349
-0.5701901056764589
-0.013335863076843474
1.2374279481571349
-0.5701901056764589
-0.013335863076843474
1.2374279481571349
-0.5701901056764589
-0.013335863076843474
1.2374279481571349
-0.5690819204149291
-0.013732468746122604
1.2382319881789683
-0.5690819204149291
-0.013732468746122604
1.2382319881789683
-0.5690819204149291
-0.013732468746122604
1.2382319881789683
-0.5690819204149291
-0.013732468746122604
1.2382319881789683
-0.5687850389391125
-0.013737564903263732
1.238970657523134
-0.5687850389391125
-0.013737564903263732
1.238970657523134
-0.5687850389391125
-0.013737564903263732
1.238970657523134
-0.5687850389391125
-0.013737564903263732
1.238970657523134
-0.5681639862066125
-0.013891024816270591
1.2399574989045832
-0.5681639862066125
-0.013891024816270591
1.2399574989045832
-0.5681639862066125
-0.013891024816270591
1.2399574989045832
-0.5681639862066125
-0.013891024816270591
1.2399574989045832
-0.5678853024306526
-0.013801688955986265
1.2410232440805458
-0.5678853024306526
-0.013801688955986265
1.2410232440805458
-0.5678853024306526
-0.013801688955986265
1.2410232440805458
-0.5678853024306526
-0.013801688955986265
1.2410232440805458
-0.5681697576321691
-0.01347334575690132
1.241387785835768
-0.5681697576321691
-0.01347334575690132
1.241387785835768
-0.5681697576321691
-0.01347334575690132
1.241387785835768
-0.5681697576321691
-0.01347334575690132
1.241387785835768
-0.5692314288576592
-0.013230347555125945
1.241264773818318
-0.5692314288576592
-0.013230347555125945
1.241264773818318
-0.5692314288576592
-0.013230347555125945
1.241264773818318
-0.5692314288576592
-0.013230347555125945
1.241264773818318
-0.5702291539815272
-0.013238306184778226
1.241495603251267
-0.5702291539815272
-0.013238306184778226
1.241495603251267
-0.5702291539815272
-0.013238306184778226
1.241495603251267
-0.5702291539815272
-0.013238306184778226
1.241495603251267
-0.5701339914300003
-0.013306625861077634
1.2415149410195423
-0.5701339914300003
-0.013306625861077634
1.2415149410195423
-0.5701339914300003
-0.013306625861077634
1.2415149410195423
-0.5701339914300003
-0.013306625861077634
1.2415149410195423
-0.5694505377851091
-0.019339837541211
1.24231519252975
-0.5694505377851091
-0.019339837541211
1.24231519252975
-0.5694505377851091
-0.019339837541211
1.24231519252975
-0.5694505377851091
-0.019339837541211
1.24231519252975
-0.5720188750582671
-0.008824396497657837
1.2414226824397043
-0.5720188750582671
-0.008824396497657837
1.2414226824397043
-0.5720188750582671
-0.008824396497657837
1.2414226824397043
-0.5720188750582671
-0.008824396497657837
1.2414226824397043
-0.5742604804160396
-0.011857369654216837
1.24228399159976
-0.5742604804160396
-0.011857369654216837
1.24228399159976
-0.5742604804160396
-0.011857369654216837
1.24228399159976
-0.5742604804160396
-0.011857369654216837
1.24228399159976
-0.572325364635173
-0.023056274192358502
1.2440290960535387
-0.572325364635173
-0.023056274192358502
1.2440290960535387
-0.572325364635173
-0.023056274192358502
1.2440290960535387
-0.572325364635173
-0.023056274192358502
1.2440290960535387
-0.5681470965444095
-0.035163387077379794
1.245680853321883
-0.5681470965444095
-0.035163387077379794
1.245680853321883
-0.5681470965444095
-0.035163387077379794
1.245680853321883
-0.5681470965444095
-0.035163387077379794
1.245680853321883
-0.5630959360793691
-0.04624626848504447
1.2471690004940548
-0.5630959360793691
-0.04624626848504447
1.2471690004940548
-0.5630959360793691
-0.04624626848504447
1.2471690004940548
-0.5630959360793691
-0.04624626848504447
1.2471690004940548
-0.5581979058307693
-0.05639937228421526
1.248160348254926
-0.5581979058307693
-0.05639937228421526
1.248160348254926
-0.5581979058307693
-0.05639937228421526
1.248160348254926
-0.5581979058307693
-0.05639937228421526
1.248160348254926
-0.5538268331370301
-0.06523938261994311
1.2492468359072488
-0.5538268331370301
-0.06523938261994311
1.2492468359072488
-0.5538268331370301
-0.06523938261994311
1.2492468359072488
-0.5538268331370301
-0.06523938261994311
1.2492468359072488
-0.5492867548355357
-0.07344302458580716
1.2502109969953576
-0.5492867548355357
-0.07344302458580716
1.2502109969953576
-0.5492867548355357
-0.07344302458580716
1.2502109969953576
-0.5492867548355357
-0.07344302458580716
1.2502109969953576
-0.5443052747495486
-0.08117429012157565
1.2512659394061578
-0.5443052747495486
-0.08117429012157565
1.2512659394061578
-0.5443052747495486
-0.08117429012157565
1.2512659394061578
-0.5443052747495486
-0.08117429012157565
1.2512659394061578
-0.5401409623294715
-0.08824498553057311
1.251929879082414
-0.5401409623294715
-0.08824498553057311
1.251929879082414
-0.5401409623294715
-0.08824498553057311
1.251929879082414
-0.5401409623294715
-0.08824498553057311
1.251929879082414
-0.5361921283436616
-0.0950864197190955
1.2522316396656936
-0.5361921283436616
-0.0950864197190955
1.2522316396656936
-0.5361921283436616
-0.0950864197190955
1.2522316396656936
-0.5361921283436616
-0.0950864197190955
1.2522316396656936
-0.532695698217369
-0.10164890447007803
1.252496770985053
-0.532695698217369
-0.10164890447007803
1.252496770985053
-0.532695698217369
-0.10164890447007803
1.252496770985053
-0.532695698217369
-0.10164890447007803
1.252496770985053
-0.5287932683377794
-0.10784660952105275
1.2528234647430962
-0.5287932683377794
-0.10784660952105275
1.2528234647430962
-0.5287932683377794
-0.10784660952105275
1.2528234647430962
-0.5287932683377794
-0.10784660952105275
1.2528234647430962
-0.5284477493254738
-0.10516869446808595
1.2531243930853193
-0.5284477493254738
-0.10516869446808595
1.2531243930853193
-0.5284477493254738
-0.10516869446808595
1.2531243930853193
-0.5284477493254738
-0.10516869446808595
1.2531243930853193
-0.5285672603712797
-0.10262915754228398
1.252898568089881
-0.5285672603712797
-0.10262915754228398
1.252898568089881
-0.5285672603712797
-0.10262915754228398
1.252898568089881
-0.5285672603712797
-0.10262915754228398
1.252898568089881
-0.5299503072610325
-0.10004628876608833
1.2523142639252731
-0.5299503072610325
-0.10004628876608833
1.2523142639252731
-0.5299503072610325
-0.10004628876608833
1.2523142639252731
-0.5299503072610325
-0.10004628876608833
1.2523142639252731
-0.5326867271588724
-0.09725439111921957
1.252342188563245
-0.5326867271588724
-0.09725439111921957
1.252342188563245
-0.5326867271588724
-0.09725439111921957
1.252342188563245
-0.5326867271588724
-0.09725439111921957
1.252342188563245
-0.5350961010403944
-0.09410113399112251
1.2531291944657998
-0.5350961010403944
-0.09410113399112251
1.2531291944657998
-0.5350961010403944
-0.09410113399112251
1.2531291944657998
-0.5350961010403944
-0.09410113399112251
1.2531291944657998
-0.5382727017669909
-0.08980224394593803
1.2548970506526897
-0.5382727017669909
-0.08980224394593803
1.2548970506526897
-0.5382727017669909
-0.08980224394593803
1.2548970506526897
-0.5382727017669909
-0.08980224394593803
1.2548970506526897
-0.5411940388125622
-0.08469078755664898
1.2574321440846687
-0.5411940388125622
-0.08469078755664898
1.2574321440846687
-0.5411940388125622
-0.08469078755664898
1.2574321440846687
-0.5411940388125622
-0.08469078755664898
1.2574321440846687
-0.5474217876209525
-0.07888504040959839
1.2589107521591099
-0.5474217876209525
-0.07888504040959839
1.2589107521591099
-0.5474217876209525
-0.07888504040959839
1.2589107521591099
-0.5474217876209525
-0.07888504040959839
1.2589107521591099
-0.5468804075953371
-0.07465928640114437
1.255931805196773
-0.5468804075953371
-0.07465928640114437
1.255931805196773
-0.5468804075953371
-0.07465928640114437
1.255931805196773
-0.5468804075953371
-0.07465928640114437
1.255931805196773
-0.5274935984049315
-0.07204480815768702
1.2604615998347803
-0.5274935984049315
-0.07204480815768702
1.2604615998347803
-0.5274935984049315
-0.07204480815768702
1.2604615998347803
-0.5274935984049315
-0.07204480815768702
1.2604615998347803
-0.5046029315304421
-0.07381127400355526
1.266075063618205
-0.5046029315304421
-0.07381127400355526
1.266075063618205
-0.5046029315304421
-0.07381127400355526
1.266075063618205
-0.5046029315304421
-0.07381127400355526
1.266075063618205
-0.46812673176921954
-0.07650784161482357
1.2594646903817948
-0.46812673176921954
-0.07650784161482357
1.2594646903817948
-0.46812673176921954
-0.07650784161482357
1.2594646903817948
-0.46812673176921954
-0.07650784161482357
1.2594646903817948
-0.4685517104084299
-0.07062626449893597
1.261419092007879
-0.4685517104084299
-0.07062626449893597
1.261419092007879
-0.4685517104084299
-0.07062626449893597
1.261419092007879
-0.4685517104084299
-0.07062626449893597
1.261419092007879
-0.49052886263866746
-0.06800078769481724
1.270361597234472
-0.49052886263866746
-0.06800078769481724
1.270361597234472
-0.49052886263866746
-0.06800078769481724
1.270361597234472
-0.49052886263866746
-0.06800078769481724
1.270361597234472
-0.50122766797556
-0.07323880788178627
1.276506826468979
-0.50122766797556
-0.07323880788178627
1.276506826468979
-0.50122766797556
-0.07323880788178627
1.276506826468979
-0.50122766797556
-0.07323880788178627
1.276506826468979
-0.4937266117787317
-0.0739936702989485
1.275978628347968
-0.4937266117787317
-0.0739936702989485
1.275978628347968
-0.4937266117787317
-0.0739936702989485
1.275978628347968
-0.4937266117787317
-0.0739936702989485
1.275978628347968
-0.47910822657625773
-0.07353979473009767
1.276856053350106
-0.47910822657625773
-0.07353979473009767
1.276856053350106
-0.47910822657625773
-0.07353979473009767
1.276856053350106
-0.47910822657625773
-0.07353979473009767
1.276856053350106
-0.4728365009648196
-0.07796238008551787
1.2814930869542556
-0.4728365009648196
-0.07796238008551787
1.2814930869542556
-0.4728365009648196
-0.07796238008551787
1.2814930869542556
-0.4728365009648196
-0.07796238008551787
1.2814930869542556
-0.4745734482018458
-0.08055145740244615
1.285528919731214
-0.4745734482018458
-0.08055145740244615
1.285528919731214
-0.4745734482018458
-0.08055145740244615
1.285528919731214
-0.4745734482018458
-0.08055145740244615
1.285528919731214
-0.47418877677361415
-0.08223713716828347
1.2871772278813234
-0.47418877677361415
-0.08223713716828347
1.2871772278813234
-0.47418877677361415
-0.08223713716828347
1.2871772278813234
-0.47418877677361415
-0.08223713716828347
1.2871772278813234
-0.4752820935049635
-0.08272997880440121
1.2876689687986584
-0.4752820935049635
-0.08272997880440121
1.2876689687986584
-0.4752820935049635
-0.08272997880440121
1.2876689687986584
-0.4752820935049635
-0.08272997880440121
1.2876689687986584
-0.47408469334814607
-0.08103977084358033
1.2886936259737016
-0.47408469334814607
-0.08103977084358033
1.2886936259737016
-0.47408469334814607
-0.08103977084358033
1.2886936259737016
-0.47408469334814607
-0.08103977084358033
1.2886936259737016
-0.46938232441335487
-0.07927798824963682
1.289688542590149
-0.46938232441335487
-0.07927798824963682
1.289688542590149
-0.46938232441335487
-0.07927798824963682
1.289688542590149
-0.46938232441335487
-0.07927798824963682
1.289688542590149
-0.46692776396634394
-0.07674554587312747
1.2886365535885902
-0.46692776396634394
-0.07674554587312747
1.2886365535885902
-0.46692776396634394
-0.07674554587312747
1.2886365535885902
-0.46692776396634394
-0.07674554587312747
1.2886365535885902
-0.4667563310864735
-0.07523062196303858
1.2873912162077117
-0.4667563310864735
-0.07523062196303858
1.2873912162077117
-0.4667563310864735
-0.07523062196303858
1.2873912162077117
-0.4667563310864735
-0.07523062196303858
1.2873912162077117
-0.46654038604258974
-0.07269531330316222
1.2866305930552797
-0.46654038604258974
-0.07269531330316222
1.2866305930552797
-0.46654038604258974
-0.07269531330316222
1.2866305930552797
-0.46654038604258974
-0.07269531330316222
1.2866305930552797
-0.464209411123199
-0.07085735893957006
1.2857340467874832
-0.464209411123199
-0.07085735893957006
1.2857340467874832
-0.464209411123199
-0.07085735893957006
1.2857340467874832
-0.464209411123199
-0.07085735893957006
1.2857340467874832
-0.4620839220852381
-0.07062784495955825
1.2846012425301268
-0.4620839220852381
-0.07062784495955825
1.2846012425301268
-0.4620839220852381
-0.07062784495955825
1.2846012425301268
-0.4620839220852381
-0.07062784495955825
1.2846012425301268
-0.4616789315012805
-0.07028133957585461
1.2831756731161859
-0.4616789315012805
-0.07028133957585461
1.2831756731161859
-0.4616789315012805
-0.07028133957585461
1.2831756731161859
-0.4616789315012805
-0.07028133957585461
1.2831756731161859
-0.4607015309007346
-0.07014898499113262
1.2819819011758122
-0.4607015309007346
-0.07014898499113262
1.2819819011758122
-0.4607015309007346
-0.07014898499113262
1.2819819011758122
-0.4607015309007346
-0.07014898499113262
1.2819819011758122
-0.46048226755134763
-0.06918107330032247
1.281395955111108
-0.46048226755134763
-0.06918107330032247
1.281395955111108
-0.46048226755134763
-0.06918107330032247
1.281395955111108
-0.46048226755134763
-0.06918107330032247
1.281395955111108
-0.45910778518010137
-0.06874304517221969
1.280845537786048
-0.45910778518010137
-0.06874304517221969
1.280845537786048
-0.45910778518010137
-0.06874304517221969
1.280845537786048
-0.45910778518010137
-0.06874304517221969
1.280845537786048
-0.4573318991783341
-0.06919855358030487
1.2804155392140006
-0.4573318991783341
-0.06919855358030487
1.2804155392140006
-0.4573318991783341
-0.06919855358030487
1.2804155392140006
-0.4573318991783341
-0.06919855358030487
1.2804155392140006
-0.45511832046148015
-0.07021973223685349
1.2795743597493103
-0.45511832046148015
-0.07021973223685349
1.2795743597493103
-0.45511832046148015
-0.07021973223685349
1.2795743597493103
-0.45511832046148015
-0.07021973223685349
1.2795743597493103
-0.4526417995682436
-0.07128763105516747
1.2787322623143296
-0.4526417995682436
-0.07128763105516747
1.2787322623143296
-0.4526417995682436
-0.07128763105516747
1.2787322623143296
-0.4526417995682436
-0.07128763105516747
1.2787322623143296
-0.4509379114533265
-0.07189637030142772
1.2780609266487424
-0.4509379114533265
-0.07189637030142772
1.2780609266487424
-0.4509379114533265
-0.07189637030142772
1.2780609266487424
-0.4509379114533265
-0.07189637030142772
1.2780609266487424
-0.4493289438838032
-0.07261691415612335
1.2781182900956503
-0.4493289438838032
-0.07261691415612335
1.2781182900956503
-0.4493289438838032
-0.07261691415612335
1.2781182900956503
-0.4493289438838032
-0.07261691415612335
1.2781182900956503
-0.4473518710141048
-0.07393567529750611
1.2780476112650436
-0.4473518710141048
-0.07393567529750611
1.2780476112650436
-0.4473518710141048
-0.07393567529750611
1.2780476112650436
-0.4473518710141048
-0.07393567529750611
1.2780476112650436
-0.4442988607901017
-0.07512039592403409
1.2770539365266238
-0.4442988607901017
-0.07512039592403409
1.2770539365266238
-0.4442988607901017
-0.07512039592403409
1.2770539365266238
-0.4442988607901017
-0.07512039592403409
1.2770539365266238
-0.44298670848549415
-0.0755229957021548
1.2759695187227607
-0.44298670848549415
-0.0755229957021548
1.2759695187227607
-0.44298670848549415
-0.0755229957021548
1.2759695187227607
-0.44298670848549415
-0.0755229957021548
1.2759695187227607
-0.4416744290508864
-0.07598477626629004
1.2746220342988475
-0.4416744290508864
-0.07598477626629004
1.2746220342988475
-0.4416744290508864
-0.07598477626629004
1.2746220342988475
-0.4416744290508864
-0.07598477626629004
1.2746220342988475
-0.4403132209310007
-0.07652959475867747
1.272867673767677
-0.4403132209310007
-0.07652959475867747
1.272867673767677
-0.4403132209310007
-0.07652959475867747
1.272867673767677
-0.4403132209310007
-0.07652959475867747
1.272867673767677
-0.44172271027444043
-0.07610781053923968
1.2706201325310504
-0.44172271027444043
-0.07610781053923968
1.2706201325310504
-0.44172271027444043
-0.07610781053923968
1.2706201325310504
-0.44172271027444043
-0.07610781053923968
1.2706201325310504
-0.4421891559935499
-0.07534088977006018
1.2688367258383035
-0.4421891559935499
-0.07534088977006018
1.2688367258383035
-0.4421891559935499
-0.07534088977006018
1.2688367258383035
-0.4421891559935499
-0.07534088977006018
1.2688367258383035
-0.44145058888602123
-0.07417945023731266
1.2671482065258253
-0.44145058888602123
-0.07417945023731266
1.2671482065258253
-0.44145058888602123
-0.07417945023731266
1.2671482065258253
-0.44145058888602123
-0.07417945023731266
1.2671482065258253
-0.44120262169091806
-0.07337401666791164
1.265807613965419
-0.44120262169091806
-0.07337401666791164
1.265807613965419
-0.44120262169091806
-0.07337401666791164
1.265807613965419
-0.44120262169091806
-0.07337401666791164
1.265807613965419
-0.4415546538077614
-0.07218974739476335
1.2642019256455905
-0.4415546538077614
-0.07218974739476335
1.2642019256455905
-0.4415546538077614
-0.07218974739476335
1.2642019256455905
-0.4415546538077614
-0.07218974739476335
1.2642019256455905
-0.4406326004317552
-0.07057293094383814
1.2624067342193237
-0.4406326004317552
-0.07057293094383814
1.2624067342193237
-0.4406326004317552
-0.07057293094383814
1.2624067342193237
-0.4406326004317552
-0.07057293094383814
1.2624067342193237
-0.43934985112419683
-0.07016812800927016
1.2605220280846616
-0.43934985112419683
-0.07016812800927016
1.2605220280846616
-0.43934985112419683
-0.07016812800927016
1.2605220280846616
-0.43934985112419683
-0.07016812800927016
1.2605220280846616
-0.4377681619349452
-0.06973527980288052
1.2589263426058892
-0.4377681619349452
-0.06973527980288052
1.2589263426058892
-0.4377681619349452
-0.06973527980288052
1.2589263426058892
-0.4377681619349452
-0.06973527980288052
1.2589263426058892
-0.4359715094439602
-0.06926168475478801
1.257737112655285
-0.4359715094439602
-0.06926168475478801
1.257737112655285
-0.4359715094439602
-0.06926168475478801
1.257737112655285
-0.4359715094439602
-0.06926168475478801
1.257737112655285
-0.4338382424603465
-0.06917691072573283
1.2565500635503284
-0.4338382424603465
-0.06917691072573283
1.2565500635503284
-0.4338382424603465
-0.06917691072573283
1.2565500635503284
-0.4338382424603465
-0.06917691072573283
1.2565500635503284
-0.4336159417793552
-0.06882997076618567
1.2559420828074213
-0.4336159417793552
-0.06882997076618567
1.2559420828074213
-0.4336159417793552
-0.06882997076618567
1.2559420828074213
-0.4336159417793552
-0.06882997076618567
1.2559420828074213
-0.4327868259906795
-0.06835910522588155
1.255038059530992
-0.4327868259906795
-0.06835910522588155
1.255038059530992
-0.4327868259906795
-0.06835910522588155
1.255038059530992
-0.4327868259906795
-0.06835910522588155
1.255038059530992
-0.4323894957449939
-0.06752158147437985
1.2544908200752598
-0.4323894957449939
-0.06752158147437985
1.2544908200752598
-0.4323894957449939
-0.06752158147437985
1.2544908200752598
-0.4323894957449939
-0.06752158147437985
1.2544908200752598
-0.43122345106318355
-0.06697619966349232
1.2544608836808624
-0.43122345106318355
-0.06697619966349232
1.2544608836808624
-0.43122345106318355
-0.06697619966349232
1.2544608836808624
-0.43122345106318355
-0.06697619966349232
1.2544608836808624
-0.42984699832020146
-0.06598818094007433
1.254254914351735
-0.42984699832020146
-0.06598818094007433
1.254254914351735
-0.42984699832020146
-0.06598818094007433
1.254254914351735
-0.42984699832020146
-0.06598818094007433
1.254254914351735
-0.42988573017488285
-0.06563151312625573
1.2542800499874516
-0.42988573017488285
-0.06563151312625573
1.2542800499874516
-0.42988573017488285
-0.06563151312625573
1.2542800499874516
-0.42988573017488285
-0.06563151312625573
1.2542800499874516
-0.4295929745509199
-0.06472387960824869
1.2545222415733666
-0.4295929745509199
-0.06472387960824869
1.2545222415733666
-0.4295929745509199
-0.06472387960824869
1.2545222415733666
-0.4295929745509199
-0.06472387960824869
1.2545222415733666
-0.4282468848850476
-0.06407122314783399
1.254843051862325
-0.4282468848850476
-0.06407122314783399
1.254843051862325
-0.4282468848850476
-0.06407122314783399
1.254843051862325
-0.4282468848850476
-0.06407122314783399
1.254843051862325
-0.42761527858454124
-0.06349616182293184
1.2553505742071844
-0.42761527858454124
-0.06349616182293184
1.2553505742071844
-0.42761527858454124
-0.06349616182293184
1.2553505742071844
-0.42761527858454124
-0.06349616182293184
1.2553505742071844
-0.4271816378084641
-0.06334087260266658
1.2561303771940864
-0.4271816378084641
-0.06334087260266658
1.2561303771940864
-0.4271816378084641
-0.06334087260266658
1.2561303771940864
-0.4271816378084641
-0.06334087260266658
1.2561303771940864
-0.4279391714332809
-0.06321770133091417
1.2572476654730251
-0.4279391714332809
-0.06321770133091417
1.2572476654730251
-0.4279391714332809
-0.06321770133091417
1.2572476654730251
-0.4279391714332809
-0.06321770133091417
1.2572476654730251
-0.42786007900574297
-0.0629837104248412
1.2586467428559123
-0.42786007900574297
-0.0629837104248412
1.2586467428559123
-0.42786007900574297
-0.0629837104248412
1.2586467428559123
-0.42786007900574297
-0.0629837104248412
1.2586467428559123
-0.4268022996609089
-0.0629332892220186
1.259704522200746
-0.4268022996609089
-0.0629332892220186
1.259704522200746
-0.4268022996609089
-0.0629332892220186
1.259704522200746
-0.4268022996609089
-0.0629332892220186
1.259704522200746
-0.4265942001905538
-0.06258993767411973
1.2606981663456482
-0.4265942001905538
-0.06258993767411973
1.2606981663456482
-0.4265942001905538
-0.06258993767411973
1.2606981663456482
-0.4265942001905538
-0.06258993767411973
1.2606981663456482
-0.42794105325931003
-0.061908030999253995
1.2615391352113887
-0.42794105325931003
-0.061908030999253995
1.2615391352113887
-0.42794105325931003
-0.061908030999253995
1.2615391352113887
-0.42794105325931003
-0.061908030999253995
1.2615391352113887
-0.4285956165146451
-0.061638486449669454
1.2620250015104917
-0.4285956165146451
-0.061638486449669454
1.2620250015104917
-0.4285956165146451
-0.061638486449669454
1.2620250015104917
-0.4285956165146451
-0.061638486449669454
1.2620250015104917
-0.4290970143148993
-0.060712291174792016
1.2625370711335882
-0.4290970143148993
-0.060712291174792016
1.2625370711335882
-0.4290970143148993
-0.060712291174792016
1.2625370711335882
-0.4290970143148993
-0.060712291174792016
1.2625370711335882
-0.4303977542101651
-0.05982443110853413
1.2630539330540445
-0.4303977542101651
-0.05982443110853413
1.2630539330540445
-0.4303977542101651
-0.05982443110853413
1.2630539330540445
-0.4303977542101651
-0.05982443110853413
1.2630539330540445
-0.4328641388487126
-0.05941696810804847
1.2638579048268186
-0.4328641388487126
-0.05941696810804847
1.2638579048268186
-0.4328641388487126
-0.05941696810804847
1.2638579048268186
-0.4328641388487126
-0.05941696810804847
1.2638579048268186
-0.4348410082029568
-0.05874373192944576
1.2646887132287767
-0.4348410082029568
-0.05874373192944576
1.2646887132287767
-0.4348410082029568
-0.05874373192944576
1.2646887132287767
-0.4348410082029568
-0.05874373192944576
1.2646887132287767
-0.434611673401643
-0.05787311821332344
1.265215813837336
-0.434611673401643
-0.05787311821332344
1.265215813837336
-0.434611673401643
-0.05787311821332344
1.265215813837336
-0.434611673401643
-0.05787311821332344
1.265215813837336
-0.43446931765794006
-0.057681829745749515
1.2651692385131657
-0.43446931765794006
-0.057681829745749515
1.2651692385131657
-0.43446931765794006
-0.057681829745749515
1.2651692385131657
-0.43446931765794006
-0.057681829745749515
1.2651692385131657
-0.43593160754730786
-0.057317866311960036
1.2646541555576098
-0.43593160754730786
-0.057317866311960036
1.2646541555576098
-0.43593160754730786
-0.057317866311960036
1.2646541555576098
-0.43593160754730786
-0.057317866311960036
1.2646541555576098
-0.43582766786915894
-0.057484447027135725
1.2642373200625934
-0.43582766786915894
-0.057484447027135725
1.2642373200625934
-0.43582766786915894
-0.057484447027135725
1.2642373200625934
-0.43582766786915894
-0.057484447027135725
1.2642373200625934
-0.43593696496718404
-0.057938011458127936
1.2638905222717947
-0.43593696496718404
-0.057938011458127936
1.2638905222717947
-0.43593696496718404
-0.057938011458127936
1.2638905222717947
-0.43593696496718404
-0.057938011458127936
1.2638905222717947
-0.43614415488844027
-0.05838012687540073
1.2632681983067813
-0.43614415488844027
-0.05838012687540073
1.2632681983067813
-0.43614415488844027
-0.05838012687540073
1.2632681983067813
-0.43614415488844027
-0.05838012687540073
1.2632681983067813
-0.43748417285940366
-0.057907845835600054
1.2631477249543415
-0.43748417285940366
-0.057907845835600054
1.2631477249543415
-0.43748417285940366
-0.057907845835600054
1.2631477249543415
-0.43748417285940366
-0.057907845835600054
1.2631477249543415
-0.4400170204123937
-0.05780954453596856
1.2630165342774617
-0.4400170204123937
-0.05780954453596856
1.2630165342774617
-0.4400170204123937
-0.05780954453596856
1.2630165342774617
-0.4400170204123937
-0.05780954453596856
1.2630165342774617
-0.4415962594746142
-0.05730449357483303
1.262821283485878
-0.4415962594746142
-0.05730449357483303
1.262821283485878
-0.4415962594746142
-0.05730449357483303
1.262821283485878
-0.4415962594746142
-0.05730449357483303
1.262821283485878
-0.441910710118309
-0.05648352394765186
1.262719426171824
-0.441910710118309
-0.05648352394765186
1.262719426171824
-0.441910710118309
-0.05648352394765186
1.262719426171824
-0.441910710118309
-0.05648352394765186
1.262719426171824
-0.4419468180244653
-0.055624862769755236
1.262978409664435
-0.4419468180244653
-0.055624862769755236
1.262978409664435
-0.4419468180244653
-0.055624862769755236
1.262978409664435
-0.4419468180244653
-0.055624862769755236
1.262978409664435
-0.44274719552964026
-0.05500797929848669
1.2631108635317148
-0.44274719552964026
-0.05500797929848669
1.2631108635317148
-0.44274719552964026
-0.05500797929848669
1.2631108635317148
-0.44274719552964026
-0.05500797929848669
1.2631108635317148
-0.44385132391475723
-0.05419756979710995
1.2639069075733904
-0.44385132391475723
-0.05419756979710995
1.2639069075733904
-0.44385132391475723
-0.05419756979710995
1.2639069075733904
-0.44385132391475723
-0.05419756979710995
1.2639069075733904
-0.4435902406857443
-0.05343497297577627
1.263930277155311
-0.4435902406857443
-0.05343497297577627
1.263930277155311
-0.4435902406857443
-0.05343497297577627
1.263930277155311
-0.4435902406857443
-0.05343497297577627
1.263930277155311
-0.4430480778175466
-0.053005671742759296
1.2634687678551448
-0.4430480778175466
-0.053005671742759296
1.2634687678551448
-0.4430480778175466
-0.053005671742759296
1.2634687678551448
-0.4430480778175466
-0.053005671742759296
1.2634687678551448
-0.4430728901768797
-0.052839150615379735
1.2634319279128594
-0.4430728901768797
-0.052839150615379735
1.2634319279128594
-0.4430728901768797
-0.052839150615379735
1.2634319279128594
-0.4430728901768797
-0.052839150615379735
1.2634319279128594
-0.44363922348797336
-0.05266434706716874
1.2630305208718573
-0.44363922348797336
-0.05266434706716874
1.2630305208718573
-0.44363922348797336
-0.05266434706716874
1.2630305208718573
-0.44363922348797336
-0.05266434706716874
1.2630305208718573
-0.4450753854667959
-0.05212167551501494
1.2628910433686467
-0.4450753854667959
-0.05212167551501494
1.2628910433686467
-0.4450753854667959
-0.05212167551501494
1.2628910433686467
-0.4450753854667959
-0.05212167551501494
1.2628910433686467
-0.4465727848790275
-0.051056221315518395
1.2627351232255126
-0.4465727848790275
-0.051056221315518395
1.2627351232255126
-0.4465727848790275
-0.051056221315518395
1.2627351232255126
-0.4465727848790275
-0.051056221315518395
1.2627351232255126
-0.4459261656350517
-0.05007934398616817
1.2622480140167498
-0.4459261656350517
-0.05007934398616817
1.2622480140167498
-0.4459261656350517
-0.05007934398616817
1.2622480140167498
-0.4459261656350517
-0.05007934398616817
1.2622480140167498
-0.4459243582029231
-0.048926306345789435
1.261811580285216
-0.4459243582029231
-0.048926306345789435
1.261811580285216
-0.4459243582029231
-0.048926306345789435
1.261811580285216
-0.4459243582029231
-0.048926306345789435
1.261811580285216
-0.44721189779078296
-0.04807170441118346
1.262146506794803
-0.44721189779078296
-0.04807170441118346
1.262146506794803
-0.44721189779078296
-0.04807170441118346
1.262146506794803
-0.44721189779078296
-0.04807170441118346
1.262146506794803
-0.4476746147514706
-0.047344254772038775
1.2625170267799213
-0.4476746147514706
-0.047344254772038775
1.2625170267799213
-0.4476746147514706
-0.047344254772038775
1.2625170267799213
-0.4476746147514706
-0.047344254772038775
1.2625170267799213
-0.44716665131062605
-0.04649822629707524
1.2623400328434367
-0.44716665131062605
-0.04649822629707524
1.2623400328434367
-0.44716665131062605
-0.04649822629707524
1.2623400328434367
-0.44716665131062605
-0.04649822629707524
1.2623400328434367
-0.4480258585286985
-0.04616703405493738
1.2624322691290384
-0.4480258585286985
-0.04616703405493738
1.2624322691290384
-0.4480258585286985
-0.04616703405493738
1.2624322691290384
-0.4480258585286985
-0.04616703405493738
1.2624322691290384
-0.44992752080672305
-0.046552546802500074
1.2628602529561674
-0.44992752080672305
-0.046552546802500074
1.2628602529561674
-0.44992752080672305
-0.046552546802500074
1.2628602529561674
-0.44992752080672305
-0.046552546802500074
1.2628602529561674
-0.45011958630171334
-0.04705986034042553
1.2635058554340843
-0.45011958630171334
-0.04705986034042553
1.2635058554340843
-0.45011958630171334
-0.04705986034042553
1.2635058554340843
-0.45011958630171334
-0.04705986034042553
1.2635058554340843
-0.4493970551660695
-0.04767447403324829
1.2638314543893205
-0.4493970551660695
-0.04767447403324829
1.2638314543893205
-0.4493970551660695
-0.04767447403324829
1.2638314543893205
-0.4493970551660695
-0.04767447403324829
1.2638314543893205
-0.4480172469949374
-0.049098111234868125
1.2640759838251585
-0.4480172469949374
-0.049098111234868125
1.2640759838251585
-0.4480172469949374
-0.049098111234868125
1.2640759838251585
-0.4480172469949374
-0.049098111234868125
1.2640759838251585
-0.44891933611611484
-0.05027882848502696
1.2642395081374453
-0.44891933611611484
-0.05027882848502696
1.2642395081374453
-0.44891933611611484
-0.05027882848502696
1.2642395081374453
-0.44891933611611484
-0.05027882848502696
1.2642395081374453
-0.45044103236267863
-0.05144899433992412
1.264491923719583
-0.45044103236267863
-0.05144899433992412
1.264491923719583
-0.45044103236267863
-0.05144899433992412
1.264491923719583
-0.45044103236267863
-0.05144899433992412
1.264491923719583
-0.450950545155796
-0.05229428246710636
1.2646716741629158
-0.450950545155796
-0.05229428246710636
1.2646716741629158
-0.450950545155796
-0.05229428246710636
1.2646716741629158
-0.450950545155796
-0.05229428246710636
1.2646716741629158
-0.4513870248938052
-0.05348586418796724
1.2648559626885905
-0.4513870248938052
-0.05348586418796724
1.2648559626885905
-0.4513870248938052
-0.05348586418796724
1.2648559626885905
-0.4513870248938052
-0.05348586418796724
1.2648559626885905
-0.45166754431004513
-0.05461524192675791
1.2651969569540922
-0.45166754431004513
-0.05461524192675791
1.2651969569540922
-0.45166754431004513
-0.05461524192675791
1.2651969569540922
-0.45166754431004513
-0.05461524192675791
1.2651969569540922
-0.45067776753732347
-0.055306917554066366
1.2661564853878347
-0.45067776753732347
-0.055306917554066366
1.2661564853878347
-0.45067776753732347
-0.055306917554066366
1.2661564853878347
-0.45067776753732347
-0.055306917554066366
1.2661564853878347
-0.4495860107485728
-0.055292255450471554
1.2677796477298693
-0.4495860107485728
-0.055292255450471554
1.2677796477298693
-0.4495860107485728
-0.055292255450471554
1.2677796477298693
-0.4495860107485728
-0.055292255450471554
1.2677796477298693
-0.45002668185103567
-0.05509628445997232
1.270077617332429
-0.45002668185103567
-0.05509628445997232
1.270077617332429
-0.45002668185103567
-0.05509628445997232
1.270077617332429
-0.45002668185103567
-0.05509628445997232
1.270077617332429
-0.4503000216984644
-0.05502829819479136
1.2724738105888986
-0.4503000216984644
-0.05502829819479136
1.2724738105888986
-0.4503000216984644
-0.05502829819479136
1.2724738105888986
-0.4503000216984644
-0.05502829819479136
1.2724738105888986
-0.45059337657437604
-0.05480025324984958
1.274032715517453
-0.45059337657437604
-0.05480025324984958
1.274032715517453
-0.45059337657437604
-0.05480025324984958
1.274032715517453
-0.45059337657437604
-0.05480025324984958
1.274032715517453
-0.4505630720926521
-0.05306011322656824
1.2741852005014396
-0.4505630720926521
-0.05306011322656824
1.2741852005014396
-0.4505630720926521
-0.05306011322656824
1.2741852005014396
-0.4505630720926521
-0.05306011322656824
1.2741852005014396
-0.453435770675245
-0.04933832079517705
1.2728732429046818
-0.453435770675245
-0.04933832079517705
1.2728732429046818
-0.453435770675245
-0.04933832079517705
1.2728732429046818
-0.453435770675245
-0.04933832079517705
1.2728732429046818
-0.4593243174382193
-0.044110281246281836
1.2719627004675484
-0.4593243174382193
-0.044110281246281836
1.2719627004675484
-0.4593243174382193
-0.044110281246281836
1.2719627004675484
-0.4593243174382193
-0.044110281246281836
1.2719627004675484
-0.46663848387704704
-0.0360299863474738
1.2707688397914867
-0.46663848387704704
-0.0360299863474738
1.2707688397914867
-0.46663848387704704
-0.0360299863474738
1.2707688397914867
-0.46663848387704704
-0.0360299863474738
1.2707688397914867
-0.46719815998836656
-0.02701776275882564
1.2694373440204378
-0.46719815998836656
-0.02701776275882564
1.2694373440204378
-0.46719815998836656
-0.02701776275882564
1.2694373440204378
-0.46719815998836656
-0.02701776275882564
1.2694373440204378
-0.4664623533758965
-0.017127075713194835
1.2679340295524983
-0.4664623533758965
-0.017127075713194835
1.2679340295524983
-0.4664623533758965
-0.017127075713194835
1.2679340295524983
-0.4664623533758965
-0.017127075713194835
1.2679340295524983
-0.46221176315875595
-0.0091343246532597
1.2667302586245444
-0.46221176315875595
-0.0091343246532597
1.2667302586245444
-0.46221176315875595
-0.0091343246532597
1.2667302586245444
-0.46221176315875595
-0.0091343246532597
1.2667302586245444
-0.4567493854922038
-0.003123598592998547
1.2650446606775574
-0.4567493854922038
-0.003123598592998547
1.2650446606775574
-0.4567493854922038
-0.003123598592998547
1.2650446606775574
-0.4567493854922038
-0.003123598592998547
1.2650446606775574
-0.45562373742113965
0.004162098291495741
1.2605245699330998
-0.45562373742113965
0.004162098291495741
1.2605245699330998
-0.45562373742113965
0.004162098291495741
1.2605245699330998
-0.45562373742113965
0.004162098291495741
1.2605245699330998
-0.4604491665957759
0.011375856860963152
1.2577560734217608
-0.4604491665957759
0.011375856860963152
1.2577560734217608
-0.4604491665957759
0.011375856860963152
1.2577560734217608
-0.4604491665957759
0.011375856860963152
1.2577560734217608
-0.4600154469236158
0.015981546011177756
1.256403729663551
-0.4600154469236158
0.015981546011177756
1.256403729663551
-0.4600154469236158
0.015981546011177756
1.256403729663551
-0.4600154469236158
0.015981546011177756
1.256403729663551
-0.47279777316300264
0.021203920666259635
1.2542937265091165
-0.47279777316300264
0.021203920666259635
1.2542937265091165
-0.47279777316300264
0.021203920666259635
1.2542937265091165
-0.47279777316300264
0.021203920666259635
1.2542937265091165
-0.48245347163073715
0.024924700329216672
1.2499167796785269
-0.48245347163073715
0.024924700329216672
1.2499167796785269
-0.48245347163073715
0.024924700329216672
1.2499167796785269
-0.48245347163073715
0.024924700329216672
1.2499167796785269
-0.4865675322497801
0.027537485479210016
1.2467068036319224
-0.4865675322497801
0.027537485479210016
1.2467068036319224
-0.4865675322497801
0.027537485479210016
1.2467068036319224
-0.4865675322497801
0.027537485479210016
1.2467068036319224
-0.4815138727882985
0.02967966136790215
1.243309000556506
-0.4815138727882985
0.02967966136790215
1.243309000556506
-0.4815138727882985
0.02967966136790215
1.243309000556506
-0.4815138727882985
0.02967966136790215
1.243309000556506
-0.4756139631017113
0.030941495174109806
1.2400806669419668
-0.4756139631017113
0.030941495174109806
1.2400806669419668
-0.4756139631017113
0.030941495174109806
1.2400806669419668
-0.4756139631017113
0.030941495174109806
1.2400806669419668
-0.4733343703329492
0.030907159440996923
1.2372483762787152
-0.4733343703329492
0.030907159440996923
1.2372483762787152
-0.4733343703329492
0.030907159440996923
1.2372483762787152
-0.4733343703329492
0.030907159440996923
1.2372483762787152
-0.47289243122676533
0.02909496637739676
1.2331230368831332
-0.47289243122676533
0.02909496637739676
1.2331230368831332
-0.47289243122676533
0.02909496637739676
1.2331230368831332
-0.47289243122676533
0.02909496637739676
1.2331230368831332
-0.47641128242817626
0.02577643832726843
1.2307640546101675
-0.47641128242817626
0.02577643832726843
1.2307640546101675
-0.47641128242817626
0.02577643832726843
1.2307640546101675
-0.47641128242817626
0.02577643832726843
1.2307640546101675
-0.4793230834375009
0.020690329740385073
1.2304176927944843
-0.4793230834375009
0.020690329740385073
1.2304176927944843
-0.4793230834375009
0.020690329740385073
1.2304176927944843
-0.4793230834375009
0.020690329740385073
1.2304176927944843
-0.47917169082815314
0.01264300244999941
1.2306034614624626
-0.47917169082815314
0.01264300244999941
1.2306034614624626
-0.47917169082815314
0.01264300244999941
1.2306034614624626
-0.47917169082815314
0.01264300244999941
1.2306034614624626
-0.476584610994664
0.004005981919415982
1.2292160984835805
-0.476584610994664
0.004005981919415982
1.2292160984835805
-0.476584610994664
0.004005981919415982
1.2292160984835805
-0.476584610994664
0.004005981919415982
1.2292160984835805
-0.4782021775761636
-0.003824166629239865
1.2270881092186703
-0.4782021775761636
-0.003824166629239865
1.2270881092186703
-0.4782021775761636
-0.003824166629239865
1.2270881092186703
-0.4782021775761636
-0.003824166629239865
1.2270881092186703
-0.48006283638670233
-0.012327967519333414
1.227197563459022
-0.48006283638670233
-0.012327967519333414
1.227197563459022
-0.48006283638670233
-0.012327967519333414
1.227197563459022
-0.48006283638670233
-0.012327967519333414
1.227197563459022
-0.4835189551828164
-0.021111622417903837
1.2298612231799841
-0.4835189551828164
-0.021111622417903837
1.2298612231799841
-0.4835189551828164
-0.021111622417903837
1.2298612231799841
-0.4835189551828164
-0.021111622417903837
1.2298612231799841
-0.48566259217061836
-0.02808740601890702
1.2305120497378723
-0.48566259217061836
-0.02808740601890702
1.2305120497378723
-0.48566259217061836
-0.02808740601890702
1.2305120497378723
-0.48566259217061836
-0.02808740601890702
1.2305120497378723
-0.48836815999141236
-0.03210276073960532
1.2289873466183465
-0.48836815999141236
-0.03210276073960532
1.2289873466183465
-0.48836815999141236
-0.03210276073960532
1.2289873466183465
-0.48836815999141236
-0.03210276073960532
1.2289873466183465
-0.48745019724544786
-0.03560119511532592
1.2280589057087725
-0.48745019724544786
-0.03560119511532592
1.2280589057087725
-0.48745019724544786
-0.03560119511532592
1.2280589057087725
-0.48745019724544786
-0.03560119511532592
1.2280589057087725
-0.48494793945977616
-0.03890561444495642
1.229303863839025
-0.48494793945977616
-0.03890561444495642
1.229303863839025
-0.48494793945977616
-0.03890561444495642
1.229303863839025
-0.48494793945977616
-0.03890561444495642
1.229303863839025
-0.48447198128735813
-0.04081883036531331
1.2324869404130747
-0.48447198128735813
-0.04081883036531331
1.2324869404130747
-0.48447198128735813
-0.04081883036531331
1.2324869404130747
-0.48447198128735813
-0.04081883036531331
1.2324869404130747
-0.48644441394521043
-0.04125925410888081
1.2339067885020112
-0.48644441394521043
-0.04125925410888081
1.2339067885020112
-0.48644441394521043
-0.04125925410888081
1.2339067885020112
-0.48644441394521043
-0.04125925410888081
1.2339067885020112
-0.4900801525897898
-0.03965081648686452
1.23315208080499
-0.4900801525897898
-0.03965081648686452
1.23315208080499
-0.4900801525897898
-0.03965081648686452
1.23315208080499
-0.4900801525897898
-0.03965081648686452
1.23315208080499
-0.49122894290266894
-0.03664304055525528
1.231937600138569
-0.49122894290266894
-0.03664304055525528
1.231937600138569
-0.49122894290266894
-0.03664304055525528
1.231937600138569
-0.49122894290266894
-0.03664304055525528
1.231937600138569
-0.48736825398719336
-0.0332853737992231
1.2321913635087356
-0.48736825398719336
-0.0332853737992231
1.2321913635087356
-0.48736825398719336
-0.0332853737992231
1.2321913635087356
-0.48736825398719336
-0.0332853737992231
1.2321913635087356
-0.48313371073014055
-0.02871836645033474
1.2334412212249466
-0.48313371073014055
-0.02871836645033474
1.2334412212249466
-0.48313371073014055
-0.02871836645033474
1.2334412212249466
-0.48313371073014055
-0.02871836645033474
1.2334412212249466
-0.4829762163693027
-0.02289592034708847
1.2350015261878404
-0.4829762163693027
-0.02289592034708847
1.2350015261878404
-0.4829762163693027
-0.02289592034708847
1.2350015261878404
-0.4829762163693027
-0.02289592034708847
1.2350015261878404
-0.48626677113082295
-0.016021054178899832
1.235203708219843
-0.48626677113082295
-0.016021054178899832
1.235203708219843
-0.48626677113082295
-0.016021054178899832
1.235203708219843
-0.48626677113082295
-0.016021054178899832
1.235203708219843
-0.4880845599674792
-0.00866440426100494
1.2348326394232694
-0.4880845599674792
-0.00866440426100494
1.2348326394232694
-0.4880845599674792
-0.00866440426100494
1.2348326394232694
-0.4880845599674792
-0.00866440426100494
1.2348326394232694
-0.4873862826671193
-0.0011344873014197563
1.2341718187908342
-0.4873862826671193
-0.0011344873014197563
1.2341718187908342
-0.4873862826671193
-0.0011344873014197563
1.2341718187908342
-0.4873862826671193
-0.0011344873014197563
1.2341718187908342
-0.487525192080458
0.004954565332752172
1.235903617195555
-0.487525192080458
0.004954565332752172
1.235903617195555
-0.487525192080458
0.004954565332752172
1.235903617195555
-0.487525192080458
0.004954565332752172
1.235903617195555
-0.48729313689546144
0.010062657546702632
1.2385093071716817
-0.48729313689546144
0.010062657546702632
1.2385093071716817
-0.48729313689546144
0.010062657546702632
1.2385093071716817
-0.48729313689546144
0.010062657546702632
1.2385093071716817
-0.4869753844036735
0.01566739520332825
1.2420022530758343
-0.4869753844036735
0.01566739520332825
1.2420022530758343
-0.4869753844036735
0.01566739520332825
1.2420022530758343
-0.4869753844036735
0.01566739520332825
1.2420022530758343
-0.4881432039365007
0.02085586028353611
1.2451471211691338
-0.4881432039365007
0.02085586028353611
1.2451471211691338
-0.4881432039365007
0.02085586028353611
1.2451471211691338
-0.4881432039365007
0.02085586028353611
1.2451471211691338
-0.4933686294684288
0.025321846749052745
1.2472638126023994
-0.4933686294684288
0.025321846749052745
1.2472638126023994
-0.4933686294684288
0.025321846749052745
1.2472638126023994
-0.4933686294684288
0.025321846749052745
1.2472638126023994
-0.49309409013664784
0.02911988344125146
1.2489308129448011
-0.49309409013664784
0.02911988344125146
1.2489308129448011
-0.49309409013664784
0.02911988344125146
1.2489308129448011
-0.49309409013664784
0.02911988344125146
1.2489308129448011
-0.4916866002453021
0.03220585511708578
1.2528145631704655
-0.4916866002453021
0.03220585511708578
1.2528145631704655
-0.4916866002453021
0.03220585511708578
1.2528145631704655
-0.4916866002453021
0.03220585511708578
1.2528145631704655
-0.4938831963004554
0.03553989497406779
1.2570656227227812
-0.4938831963004554
0.03553989497406779
1.2570656227227812
-0.4938831963004554
0.03553989497406779
1.2570656227227812
-0.4938831963004554
0.03553989497406779
1.2570656227227812
-0.48530401352420105
0.037308662885103
1.2592773459483455
-0.48530401352420105
0.037308662885103
1.2592773459483455
-0.48530401352420105
0.037308662885103
1.2592773459483455
-0.48530401352420105
0.037308662885103
1.2592773459483455
-0.4781585184361786
0.03624293970604985
1.2645462848909945
-0.4781585184361786
0.03624293970604985
1.2645462848909945
-0.4781585184361786
0.03624293970604985
1.2645462848909945
-0.4781585184361786
0.03624293970604985
1.2645462848909945
-0.47053381738960753
0.03400946906023747
1.2681028303548665
-0.47053381738960753
0.03400946906023747
1.2681028303548665
-0.47053381738960753
0.03400946906023747
1.2681028303548665
-0.47053381738960753
0.03400946906023747
1.2681028303548665
-0.4528741843402835
0.021137849023815596
1.2713086984703788
-0.4528741843402835
0.021137849023815596
1.2713086984703788
-0.4528741843402835
0.021137849023815596
1.2713086984703788
-0.4528741843402835
0.021137849023815596
1.2713086984703788
-0.4405647628593434
0.00733211921330335
1.2786305784549403
-0.4405647628593434
0.00733211921330335
1.2786305784549403
-0.4405647628593434
0.00733211921330335
1.2786305784549403
-0.4405647628593434
0.00733211921330335
1.2786305784549403
-0.4521395770542782
-0.005693129254641233
1.2877354895549011
-0.4521395770542782
-0.005693129254641233
1.2877354895549011
-0.4521395770542782
-0.005693129254641233
1.2877354895549011
-0.4521395770542782
-0.005693129254641233
1.2877354895549011
-0.4678606751901679
-0.017560168038957737
1.2947256264093716
-0.4678606751901679
-0.017560168038957737
1.2947256264093716
-0.4678606751901679
-0.017560168038957737
1.2947256264093716
-0.4678606751901679
-0.017560168038957737
1.2947256264093716
-0.46000598513236013
-0.03052110429761654
1.2991894515769937
-0.46000598513236013
-0.03052110429761654
1.2991894515769937
-0.46000598513236013
-0.03052110429761654
1.2991894515769937
-0.46000598513236013
-0.03052110429761654
1.2991894515769937
-0.44046283797652885
-0.04040178096675555
1.2986501676962707
-0.44046283797652885
-0.04040178096675555
1.2986501676962707
-0.44046283797652885
-0.04040178096675555
1.2986501676962707
-0.44046283797652885
-0.04040178096675555
1.2986501676962707
-0.43912264902077247
-0.04801925514447783
1.29569339989607
-0.43912264902077247
-0.04801925514447783
1.29569339989607
-0.43912264902077247
-0.04801925514447783
1.29569339989607
-0.43912264902077247
-0.04801925514447783
1.29569339989607
-0.45300475145789043
-0.05600302696545863
1.2957011288051317
-0.45300475145789043
-0.05600302696545863
1.2957011288051317
-0.45300475145789043
-0.05600302696545863
1.2957011288051317
-0.45300475145789043
-0.05600302696545863
1.2957011288051317
-0.458153510025862
-0.06110411532564069
1.2950593917896227
-0.458153510025862
-0.06110411532564069
1.2950593917896227
-0.458153510025862
-0.06110411532564069
1.2950593917896227
-0.458153510025862
-0.06110411532564069
1.2950593917896227
-0.4548525655329723
-0.06172700362694232
1.2918906309978553
-0.4548525655329723
-0.06172700362694232
1.2918906309978553
-0.4548525655329723
-0.06172700362694232
1.2918906309978553
-0.4548525655329723
-0.06172700362694232
1.2918906309978553
-0.4513188974760528
-0.05927209518916463
1.288309451084293
-0.4513188974760528
-0.05927209518916463
1.288309451084293
-0.4513188974760528
-0.05927209518916463
1.288309451084293
-0.4513188974760528
-0.05927209518916463
1.288309451084293
-0.45492237371806266
-0.05526053143141736
1.2871120492861483
-0.45492237371806266
-0.05526053143141736
1.2871120492861483
-0.45492237371806266
-0.05526053143141736
1.2871120492861483
-0.45492237371806266
-0.05526053143141736
1.2871120492861483
-0.4581373136720894
-0.0495331925576852
1.2864923286385674
-0.4581373136720894
-0.0495331925576852
1.2864923286385674
-0.4581373136720894
-0.0495331925576852
1.2864923286385674
-0.4581373136720894
-0.0495331925576852
1.2864923286385674
-0.45634005266890143
-0.04261904521665211
1.2839400713786895
-0.45634005266890143
-0.04261904521665211
1.2839400713786895
-0.45634005266890143
-0.04261904521665211
1.2839400713786895
-0.45634005266890143
-0.04261904521665211
1.2839400713786895
-0.454921232259515
-0.03589382754933174
1.2807997059720004
-0.454921232259515
-0.03589382754933174
1.2807997059720004
-0.454921232259515
-0.03589382754933174
1.2807997059720004
-0.454921232259515
-0.03589382754933174
1.2807997059720004
-0.4576044339607135
-0.03091960858018609
1.2800641488196336
-0.4576044339607135
-0.03091960858018609
1.2800641488196336
-0.4576044339607135
-0.03091960858018609
1.2800641488196336
-0.4576044339607135
-0.03091960858018609
1.2800641488196336
-0.4598077263533143
-0.026735707380740836
1.2802209145867982
-0.4598077263533143
-0.026735707380740836
1.2802209145867982
-0.4598077263533143
-0.026735707380740836
1.2802209145867982
-0.4598077263533143
-0.026735707380740836
1.2802209145867982
-0.4583781335476421
-0.021740988548808907
1.279990633437254
-0.4583781335476421
-0.021740988548808907
1.279990633437254
-0.4583781335476421
-0.021740988548808907
1.279990633437254
-0.4583781335476421
-0.021740988548808907
1.279990633437254
-0.45807061680936373
-0.015521466595270181
1.2788131145408863
-0.45807061680936373
-0.015521466595270181
1.2788131145408863
-0.45807061680936373
-0.015521466595270181
1.2788131145408863
-0.45807061680936373
-0.015521466595270181
1.2788131145408863
-0.45846175259988015
-0.010293957895230398
1.2792006682075545
-0.45846175259988015
-0.010293957895230398
1.2792006682075545
-0.45846175259988015
-0.010293957895230398
1.2792006682075545
-0.45846175259988015
-0.010293957895230398
1.2792006682075545
-0.45830329375877116
-0.00621479736534385
1.2797030304774604
-0.45830329375877116
-0.00621479736534385
1.2797030304774604
-0.45830329375877116
-0.00621479736534385
1.2797030304774604
-0.45830329375877116
-0.00621479736534385
1.2797030304774604
-0.45730789249544235
-0.0027473891955135717
1.27972065205027
-0.45730789249544235
-0.0027473891955135717
1.27972065205027
-0.45730789249544235
-0.0027473891955135717
1.27972065205027
-0.45730789249544235
-0.0027473891955135717
1.27972065205027
-0.45802236187000367
-1.7128646976343653E-5
1.2784327929252928
-0.45802236187000367
-1.7128646976343653E-5
1.2784327929252928
-0.45802236187000367
-1.7128646976343653E-5
1.2784327929252928
-0.45802236187000367
-1.7128646976343653E-5
1.2784327929252928
-0.46022924361334905
7.531028166149512E-4
1.2773726213341303
-0.46022924361334905
7.531028166149512E-4
1.2773726213341303
-0.46022924361334905
7.531028166149512E-4
1.2773726213341303
-0.46022924361334905
7.531028166149512E-4
1.2773726213341303
-0.46253518934026516
0.0011767185490870271
1.277194219351522
-0.46253518934026516
0.0011767185490870271
1.277194219351522
-0.46253518934026516
0.0011767185490870271
1.277194219351522
-0.46253518934026516
0.0011767185490870271
1.277194219351522
-0.46329072136415894
7.101029566131909E-4
1.2768262737552498
-0.46329072136415894
7.101029566131909E-4
1.2768262737552498
-0.46329072136415894
7.101029566131909E-4
1.2768262737552498
-0.46329072136415894
7.101029566131909E-4
1.2768262737552498
-0.46341957162225395
-8.481078458711654E-4
1.2763913499269681
-0.46341957162225395
-8.481078458711654E-4
1.2763913499269681
-0.46341957162225395
-8.481078458711654E-4
1.2763913499269681
-0.46341957162225395
-8.481078458711654E-4
1.2763913499269681
-0.46433914541706245
-0.0037775217938352925
1.276330434502697
-0.46433914541706245
-0.0037775217938352925
1.276330434502697
-0.46433914541706245
-0.0037775217938352925
1.276330434502697
-0.46433914541706245
-0.0037775217938352925
1.276330434502697
-0.4651261257996603
-0.007475861946789548
1.2767301152856212
-0.4651261257996603
-0.007475861946789548
1.2767301152856212
-0.4651261257996603
-0.007475861946789548
1.2767301152856212
-0.4651261257996603
-0.007475861946789548
1.2767301152856212
-0.46424282488279794
-0.011606061445927759
1.2772773906055979
-0.46424282488279794
-0.011606061445927759
1.2772773906055979
-0.46424282488279794
-0.011606061445927759
1.2772773906055979
-0.46424282488279794
-0.011606061445927759
1.2772773906055979
-0.4638505418002051
-0.015897645198765284
1.2782139676971078
-0.4638505418002051
-0.015897645198765284
1.2782139676971078
-0.4638505418002051
-0.015897645198765284
1.2782139676971078
-0.4638505418002051
-0.015897645198765284
1.2782139676971078
-0.4632727701688239
-0.020432809780022595
1.2787526152290591
-0.4632727701688239
-0.020432809780022595
1.2787526152290591
-0.4632727701688239
-0.020432809780022595
1.2787526152290591
-0.4632727701688239
-0.020432809780022595
1.2787526152290591
-0.4628163374210264
-0.0248319181827874
1.2788064481194528
-0.4628163374210264
-0.0248319181827874
1.2788064481194528
-0.4628163374210264
-0.0248319181827874
1.2788064481194528
-0.4628163374210264
-0.0248319181827874
1.2788064481194528
-0.4638493359845393
-0.029393169574428175
1.279493917535311
-0.4638493359845393
-0.029393169574428175
1.279493917535311
-0.4638493359845393
-0.029393169574428175
1.279493917535311
-0.4638493359845393
-0.029393169574428175
1.279493917535311
-0.46516191766481624
-0.0333359384499356
1.2799438636317975
-0.46516191766481624
-0.0333359384499356
1.2799438636317975
-0.46516191766481624
-0.0333359384499356
1.2799438636317975
-0.46516191766481624
-0.0333359384499356
1.2799438636317975
-0.46686209572051474
-0.03646205038108906
1.279936097092682
-0.46686209572051474
-0.03646205038108906
1.279936097092682
-0.46686209572051474
-0.03646205038108906
1.279936097092682
-0.46686209572051474
-0.03646205038108906
1.279936097092682
-0.46800538704137723
-0.03855061170248703
1.2794246423018134
-0.46800538704137723
-0.03855061170248703
1.2794246423018134
-0.46800538704137723
-0.03855061170248703
1.2794246423018134
-0.46800538704137723
-0.03855061170248703
1.2794246423018134
-0.4677236613371676
-0.039965997878240844
1.2789532061504818
-0.4677236613371676
-0.039965997878240844
1.2789532061504818
-0.4677236613371676
-0.039965997878240844
1.2789532061504818
-0.4677236613371676
-0.039965997878240844
1.2789532061504818
-0.46878756492949514
-0.04026768132274255
1.2783668361716283
-0.46878756492949514
-0.04026768132274255
1.2783668361716283
-0.46878756492949514
-0.04026768132274255
1.2783668361716283
-0.46878756492949514
-0.04026768132274255
1.2783668361716283
-0.4692592754083153
-0.040013956025214834
1.277864093979506
-0.4692592754083153
-0.040013956025214834
1.277864093979506
-0.4692592754083153
-0.040013956025214834
1.277864093979506
-0.4692592754083153
-0.040013956025214834
1.277864093979506
-0.4702371639997531
-0.038417136967757955
1.2769220610994856
-0.4702371639997531
-0.038417136967757955
1.2769220610994856
-0.4702371639997531
-0.038417136967757955
1.2769220610994856
-0.4702371639997531
-0.038417136967757955
1.2769220610994856
-0.47014359306561465
-0.03596346989612272
1.2762579650878776
-0.47014359306561465
-0.03596346989612272
1.2762579650878776
-0.47014359306561465
-0.03596346989612272
1.2762579650878776
-0.47014359306561465
-0.03596346989612272
1.2762579650878776
-0.46934277274222547
-0.03339007975365726
1.276382862808208
-0.46934277274222547
-0.03339007975365726
1.276382862808208
-0.46934277274222547
-0.03339007975365726
1.276382862808208
-0.46934277274222547
-0.03339007975365726
1.276382862808208
-0.4694742538705852
-0.03073941093665246
1.2759266275256864
-0.4694742538705852
-0.03073941093665246
1.2759266275256864
-0.4694742538705852
-0.03073941093665246
1.2759266275256864
-0.4694742538705852
-0.03073941093665246
1.2759266275256864
-0.470867660648891
-0.027300797175433583
1.2754485534709898
-0.470867660648891
-0.027300797175433583
1.2754485534709898
-0.470867660648891
-0.027300797175433583
1.2754485534709898
-0.470867660648891
-0.027300797175433583
1.2754485534709898
-0.470956925401005
-0.02369296032604363
1.2752117553908826
-0.470956925401005
-0.02369296032604363
1.2752117553908826
-0.470956925401005
-0.02369296032604363
1.2752117553908826
-0.470956925401005
-0.02369296032604363
1.2752117553908826
-0.470769697800258
-0.020108008667904253
1.2750782667886649
-0.470769697800258
-0.020108008667904253
1.2750782667886649
-0.470769697800258
-0.020108008667904253
1.2750782667886649
-0.470769697800258
-0.020108008667904253
1.2750782667886649
-0.4712220302282494
-0.01693659960106646
1.2751248562007613
-0.4712220302282494
-0.01693659960106646
1.2751248562007613
-0.4712220302282494
-0.01693659960106646
1.2751248562007613
-0.4712220302282494
-0.01693659960106646
1.2751248562007613
-0.4725280012803702
-0.014273613717115996
1.2750701301437788
-0.4725280012803702
-0.014273613717115996
1.2750701301437788
-0.4725280012803702
-0.014273613717115996
1.2750701301437788
-0.4725280012803702
-0.014273613717115996
1.2750701301437788
-0.4729189194982989
-0.012660857519638523
1.2753122254732943
-0.4729189194982989
-0.012660857519638523
1.2753122254732943
-0.4729189194982989
-0.012660857519638523
1.2753122254732943
-0.4729189194982989
-0.012660857519638523
1.2753122254732943
-0.47359049626996813
-0.01172807833204242
1.2758686662155665
-0.47359049626996813
-0.01172807833204242
1.2758686662155665
-0.47359049626996813
-0.01172807833204242
1.2758686662155665
-0.47359049626996813
-0.01172807833204242
1.2758686662155665
-0.47489345012683526
-0.011247873338428105
1.2764367779656407
-0.47489345012683526
-0.011247873338428105
1.2764367779656407
-0.47489345012683526
-0.011247873338428105
1.2764367779656407
-0.47489345012683526
-0.011247873338428105
1.2764367779656407
-0.4755841702432652
-0.011334433345734356
1.2772392612233032
-0.4755841702432652
-0.011334433345734356
1.2772392612233032
-0.4755841702432652
-0.011334433345734356
1.2772392612233032
-0.4755841702432652
-0.011334433345734356
1.2772392612233032
-0.4752462537409052
-0.012219133591881764
1.277829079995839
-0.4752462537409052
-0.012219133591881764
1.277829079995839
-0.4752462537409052
-0.012219133591881764
1.277829079995839
-0.4752462537409052
-0.012219133591881764
1.277829079995839
-0.4761590749170353
-0.013944028245101112
1.278302170831799
-0.4761590749170353
-0.013944028245101112
1.278302170831799
-0.4761590749170353
-0.013944028245101112
1.278302170831799
-0.4761590749170353
-0.013944028245101112
1.278302170831799
-0.47718941346634414
-0.016617674506460702
1.2790087006910111
-0.47718941346634414
-0.016617674506460702
1.2790087006910111
-0.47718941346634414
-0.016617674506460702
1.2790087006910111
-0.47718941346634414
-0.016617674506460702
1.2790087006910111
-0.47966232622076077
-0.01998828274702126
1.2795742166421873
-0.47966232622076077
-0.01998828274702126
1.2795742166421873
-0.47966232622076077
-0.01998828274702126
1.2795742166421873
-0.47966232622076077
-0.01998828274702126
1.2795742166421873
-0.47914488029321023
-0.023997541373304752
1.2801218445928544
-0.47914488029321023
-0.023997541373304752
1.2801218445928544
-0.47914488029321023
-0.023997541373304752
1.2801218445928544
-0.47914488029321023
-0.023997541373304752
1.2801218445928544
-0.4787646622049135
-0.027943860207818295
1.2806277658546263
-0.4787646622049135
-0.027943860207818295
1.2806277658546263
-0.4787646622049135
-0.027943860207818295
1.2806277658546263
-0.4787646622049135
-0.027943860207818295
1.2806277658546263
-0.4789002846945789
-0.03242822245757469
1.2810964846618937
-0.4789002846945789
-0.03242822245757469
1.2810964846618937
-0.4789002846945789
-0.03242822245757469
1.2810964846618937
-0.4789002846945789
-0.03242822245757469
1.2810964846618937
-0.47895199356214335
-0.03779123438729794
1.281576724818433
-0.47895199356214335
-0.03779123438729794
1.281576724818433
-0.47895199356214335
-0.03779123438729794
1.281576724818433
-0.47895199356214335
-0.03779123438729794
1.281576724818433
-0.4794254314567402
-0.04332029965491797
1.282006380068699
-0.4794254314567402
-0.04332029965491797
1.282006380068699
-0.4794254314567402
-0.04332029965491797
1.282006380068699
-0.4794254314567402
-0.04332029965491797
1.282006380068699
-0.4797230723407235
-0.048273304202859885
1.2821174774107564
-0.4797230723407235
-0.048273304202859885
1.2821174774107564
-0.4797230723407235
-0.048273304202859885
1.2821174774107564
-0.4797230723407235
-0.048273304202859885
1.2821174774107564
-0.480116003337486
-0.053154801547171636
1.2822152354993026
-0.480116003337486
-0.053154801547171636
1.2822152354993026
-0.480116003337486
-0.053154801547171636
1.2822152354993026
-0.480116003337486
-0.053154801547171636
1.2822152354993026
-0.48071733671972205
-0.05722057066053378
1.28247283059846
-0.48071733671972205
-0.05722057066053378
1.28247283059846
-0.48071733671972205
-0.05722057066053378
1.28247283059846
-0.48071733671972205
-0.05722057066053378
1.28247283059846
-0.480959081290483
-0.059899334047523144
1.2830363128299367
-0.480959081290483
-0.059899334047523144
1.2830363128299367
-0.480959081290483
-0.059899334047523144
1.2830363128299367
-0.480959081290483
-0.059899334047523144
1.2830363128299367
-0.4804582024698785
-0.06173469024421401
1.2836461701099986
-0.4804582024698785
-0.06173469024421401
1.2836461701099986
-0.4804582024698785
-0.06173469024421401
1.2836461701099986
-0.4804582024698785
-0.06173469024421401
1.2836461701099986
-0.48112574611955367
-0.06206328243842403
1.2841748137322782
-0.48112574611955367
-0.06206328243842403
1.2841748137322782
-0.48112574611955367
-0.06206328243842403
1.2841748137322782
-0.48112574611955367
-0.06206328243842403
1.2841748137322782
-0.4816995247610645
-0.06108682574754512
1.2844810875681614
-0.4816995247610645
-0.06108682574754512
1.2844810875681614
-0.4816995247610645
-0.06108682574754512
1.2844810875681614
-0.4816995247610645
-0.06108682574754512
1.2844810875681614
-0.4828027200892469
-0.058326387775432094
1.28541920483223
-0.4828027200892469
-0.058326387775432094
1.28541920483223
-0.4828027200892469
-0.058326387775432094
1.28541920483223
-0.4828027200892469
-0.058326387775432094
1.28541920483223
-0.4845423960339657
-0.05347636431352042
1.2871891096126193
-0.4845423960339657
-0.05347636431352042
1.2871891096126193
-0.4845423960339657
-0.05347636431352042
1.2871891096126193
-0.4845423960339657
-0.05347636431352042
1.2871891096126193
-0.4853470995004105
-0.047938947790725925
1.2886329691358651
-0.4853470995004105
-0.047938947790725925
1.2886329691358651
-0.4853470995004105
-0.047938947790725925
1.2886329691358651
-0.4853470995004105
-0.047938947790725925
1.2886329691358651
-0.48596100592135066
-0.04151253026710097
1.2884886736503902
-0.48596100592135066
-0.04151253026710097
1.2884886736503902
-0.48596100592135066
-0.04151253026710097
1.2884886736503902
-0.48596100592135066
-0.04151253026710097
1.2884886736503902
-0.4872822514828825
-0.034067512629643
1.287797582338112
-0.4872822514828825
-0.034067512629643
1.287797582338112
-0.4872822514828825
-0.034067512629643
1.287797582338112
-0.4872822514828825
-0.034067512629643
1.287797582338112
-0.4883381304538217
-0.026456333834478128
1.28725319057957
-0.4883381304538217
-0.026456333834478128
1.28725319057957
-0.4883381304538217
-0.026456333834478128
1.28725319057957
-0.4883381304538217
-0.026456333834478128
1.28725319057957
-0.48999904405370737
-0.018024264706084318
1.2863749252531091
-0.48999904405370737
-0.018024264706084318
1.2863749252531091
-0.48999904405370737
-0.018024264706084318
1.2863749252531091
-0.48999904405370737
-0.018024264706084318
1.2863749252531091
-0.4933429485304972
-0.007931343996432284
1.285197871712655
-0.4933429485304972
-0.007931343996432284
1.285197871712655
-0.4933429485304972
-0.007931343996432284
1.285197871712655
-0.4933429485304972
-0.007931343996432284
1.285197871712655
-0.4943191886988296
0.0029667385510256643
1.284390425643621
-0.4943191886988296
0.0029667385510256643
1.284390425643621
-0.4943191886988296
0.0029667385510256643
1.284390425643621
-0.4943191886988296
0.0029667385510256643
1.284390425643621
-0.49115848969136594
0.013533360935355352
1.2827544367536015
-0.49115848969136594
0.013533360935355352
1.2827544367536015
-0.49115848969136594
0.013533360935355352
1.2827544367536015
-0.49115848969136594
0.013533360935355352
1.2827544367536015
-0.4887836815031215
0.025033797483506454
1.2795260852876464
-0.4887836815031215
0.025033797483506454
1.2795260852876464
-0.4887836815031215
0.025033797483506454
1.2795260852876464
-0.4887836815031215
0.025033797483506454
1.2795260852876464
-0.4912003816525892
0.0363879510279317
1.2766216000952306
-0.4912003816525892
0.0363879510279317
1.2766216000952306
-0.4912003816525892
0.0363879510279317
1.2766216000952306
-0.4912003816525892
0.0363879510279317
1.2766216000952306
-0.4921660759182463
0.04503151723388351
1.2746574411789402
-0.4921660759182463
0.04503151723388351
1.2746574411789402
-0.4921660759182463
0.04503151723388351
1.2746574411789402
-0.4921660759182463
0.04503151723388351
1.2746574411789402
-0.4889501309563386
0.052296766918553866
1.2722920657623453
-0.4889501309563386
0.052296766918553866
1.2722920657623453
-0.4889501309563386
0.052296766918553866
1.2722920657623453
-0.4889501309563386
0.052296766918553866
1.2722920657623453
-0.49153586337502125
0.05786910930953735
1.2697128719860646
-0.49153586337502125
0.05786910930953735
1.2697128719860646
-0.49153586337502125
0.05786910930953735
1.2697128719860646
-0.49153586337502125
0.05786910930953735
1.2697128719860646
-0.4956198148463181
0.059670931962712025
1.2669879037829916
-0.4956198148463181
0.059670931962712025
1.2669879037829916
-0.4956198148463181
0.059670931962712025
1.2669879037829916
-0.4956198148463181
0.059670931962712025
1.2669879037829916
-0.49368017191224983
0.0608890582115217
1.2624114638565658
-0.49368017191224983
0.0608890582115217
1.2624114638565658
-0.49368017191224983
0.0608890582115217
1.2624114638565658
-0.49368017191224983
0.0608890582115217
1.2624114638565658
-0.4958273295785974
0.06338487209982456
1.2584561598990436
-0.4958273295785974
0.06338487209982456
1.2584561598990436
-0.4958273295785974
0.06338487209982456
1.2584561598990436
-0.4958273295785974
0.06338487209982456
1.2584561598990436
-0.5003008466269415
0.06261666118848186
1.2533769487664042
-0.5003008466269415
0.06261666118848186
1.2533769487664042
-0.5003008466269415
0.06261666118848186
1.2533769487664042
-0.5003008466269415
0.06261666118848186
1.2533769487664042
-0.5096319057931787
0.05803721366085476
1.2509325808242528
-0.5096319057931787
0.05803721366085476
1.2509325808242528
-0.5096319057931787
0.05803721366085476
1.2509325808242528
-0.5096319057931787
0.05803721366085476
1.2509325808242528
-0.519120926024108
0.0516551622111273
1.249454956262832
-0.519120926024108
0.0516551622111273
1.249454956262832
-0.519120926024108
0.0516551622111273
1.249454956262832
-0.519120926024108
0.0516551622111273
1.249454956262832
-0.5240036147051912
0.04355170356939782
1.2467017290817473
-0.5240036147051912
0.04355170356939782
1.2467017290817473
-0.5240036147051912
0.04355170356939782
1.2467017290817473
-0.5240036147051912
0.04355170356939782
1.2467017290817473
-0.5241763475559752
0.033688779222746185
1.2431274281516993
-0.5241763475559752
0.033688779222746185
1.2431274281516993
-0.5241763475559752
0.033688779222746185
1.2431274281516993
-0.5241763475559752
0.033688779222746185
1.2431274281516993
-0.5229920009681479
0.02226702563720866
1.2396664273447477
-0.5229920009681479
0.02226702563720866
1.2396664273447477
-0.5229920009681479
0.02226702563720866
1.2396664273447477
-0.5229920009681479
0.02226702563720866
1.2396664273447477
-0.5198629645629447
0.00955671669954077
1.2376196413508076
-0.5198629645629447
0.00955671669954077
1.2376196413508076
-0.5198629645629447
0.00955671669954077
1.2376196413508076
-0.5198629645629447
0.00955671669954077
1.2376196413508076
-0.5178946505629263
-0.003919490791880355
1.2371185921800856
-0.5178946505629263
-0.003919490791880355
1.2371185921800856
-0.5178946505629263
-0.003919490791880355
1.2371185921800856
-0.5178946505629263
-0.003919490791880355
1.2371185921800856
-0.5181889956821678
-0.01769844247812619
1.2375855707112244
-0.5181889956821678
-0.01769844247812619
1.2375855707112244
-0.5181889956821678
-0.01769844247812619
1.2375855707112244
-0.5181889956821678
-0.01769844247812619
1.2375855707112244
-0.5187517239268578
-0.03118343138835981
1.2379532004148615
-0.5187517239268578
-0.03118343138835981
1.2379532004148615
-0.5187517239268578
-0.03118343138835981
1.2379532004148615
-0.5187517239268578
-0.03118343138835981
1.2379532004148615
-0.5196481826829662
-0.04087266877690758
1.2364893608150285
-0.5196481826829662
-0.04087266877690758
1.2364893608150285
-0.5196481826829662
-0.04087266877690758
1.2364893608150285
-0.5196481826829662
-0.04087266877690758
1.2364893608150285
-0.5205301529200012
-0.048967020919475454
1.235239819642906
-0.5205301529200012
-0.048967020919475454
1.235239819642906
-0.5205301529200012
-0.048967020919475454
1.235239819642906
-0.5205301529200012
-0.048967020919475454
1.235239819642906
-0.5193015440847247
-0.05547298988378577
1.2351463080854044
-0.5193015440847247
-0.05547298988378577
1.2351463080854044
-0.5193015440847247
-0.05547298988378577
1.2351463080854044
-0.5193015440847247
-0.05547298988378577
1.2351463080854044
-0.5175423278643011
-0.059631874211553325
1.2353473741638064
-0.5175423278643011
-0.059631874211553325
1.2353473741638064
-0.5175423278643011
-0.059631874211553325
1.2353473741638064
-0.5175423278643011
-0.059631874211553325
1.2353473741638064
-0.516347797102654
-0.060869833947137776
1.2343330056689963
-0.516347797102654
-0.060869833947137776
1.2343330056689963
-0.516347797102654
-0.060869833947137776
1.2343330056689963
-0.516347797102654
-0.060869833947137776
1.2343330056689963
-0.5166334973509267
-0.05941444418961135
1.2318567627944665
-0.5166334973509267
-0.05941444418961135
1.2318567627944665
-0.5166334973509267
-0.05941444418961135
1.2318567627944665
-0.5166334973509267
-0.05941444418961135
1.2318567627944665
-0.5164195304716539
-0.05694797693230657
1.2311258858357703
-0.5164195304716539
-0.05694797693230657
1.2311258858357703
-0.5164195304716539
-0.05694797693230657
1.2311258858357703
-0.5164195304716539
-0.05694797693230657
1.2311258858357703
-0.5140982967451105
-0.05489435059349734
1.2321821365252745
-0.5140982967451105
-0.05489435059349734
1.2321821365252745
-0.5140982967451105
-0.05489435059349734
1.2321821365252745
-0.5140982967451105
-0.05489435059349734
1.2321821365252745
-0.5123206724447649
-0.05282390857029562
1.2336771282075185
-0.5123206724447649
-0.05282390857029562
1.2336771282075185
-0.5123206724447649
-0.05282390857029562
1.2336771282075185
-0.5123206724447649
-0.05282390857029562
1.2336771282075185
-0.5130634585757429
-0.04949800609862314
1.2330732277608012
-0.5130634585757429
-0.04949800609862314
1.2330732277608012
-0.5130634585757429
-0.04949800609862314
1.2330732277608012
-0.5130634585757429
-0.04949800609862314
1.2330732277608012
-0.5162434623220326
-0.04480746364952331
1.2310592281609614
-0.5162434623220326
-0.04480746364952331
1.2310592281609614
-0.5162434623220326
-0.04480746364952331
1.2310592281609614
-0.5162434623220326
-0.04480746364952331
1.2310592281609614
-0.5169971327373332
-0.03814355924833613
1.230752511117168
-0.5169971327373332
-0.03814355924833613
1.230752511117168
-0.5169971327373332
-0.03814355924833613
1.230752511117168
-0.5169971327373332
-0.03814355924833613
1.230752511117168
-0.5130013852027572
-0.03033959605546771
1.2322739614563325
-0.5130013852027572
-0.03033959605546771
1.2322739614563325
-0.5130013852027572
-0.03033959605546771
1.2322739614563325
-0.5130013852027572
-0.03033959605546771
1.2322739614563325
-0.5104440219771169
-0.0216917404575376
1.2349251168619002
-0.5104440219771169
-0.0216917404575376
1.2349251168619002
-0.5104440219771169
-0.0216917404575376
1.2349251168619002
-0.5104440219771169
-0.0216917404575376
1.2349251168619002
-0.5113743518314968
-0.012261804682255635
1.2376910535298646
-0.5113743518314968
-0.012261804682255635
1.2376910535298646
-0.5113743518314968
-0.012261804682255635
1.2376910535298646
-0.5113743518314968
-0.012261804682255635
1.2376910535298646
-0.5136466192949123
-0.0029064341757878086
1.240660747263516
-0.5136466192949123
-0.0029064341757878086
1.240660747263516
-0.5136466192949123
-0.0029064341757878086
1.240660747263516
-0.5136466192949123
-0.0029064341757878086
1.240660747263516
-0.5153460485384106
0.005330326051302275
1.2431296786370494
-0.5153460485384106
0.005330326051302275
1.2431296786370494
-0.5153460485384106
0.005330326051302275
1.2431296786370494
-0.5153460485384106
0.005330326051302275
1.2431296786370494
-0.5199068114212994
0.013769814398722283
1.2450151002114302
-0.5199068114212994
0.013769814398722283
1.2450151002114302
-0.5199068114212994
0.013769814398722283
1.2450151002114302
-0.5199068114212994
0.013769814398722283
1.2450151002114302
-0.5212927213289825
0.0222524008236421
1.2457404011352375
-0.5212927213289825
0.0222524008236421
1.2457404011352375
-0.5212927213289825
0.0222524008236421
1.2457404011352375
-0.5212927213289825
0.0222524008236421
1.2457404011352375
-0.5190392012241296
0.02955029529297718
1.246616642904668
-0.5190392012241296
0.02955029529297718
1.246616642904668
-0.5190392012241296
0.02955029529297718
1.246616642904668
-0.5190392012241296
0.02955029529297718
1.246616642904668
-0.517664910597973
0.03601010766364817
1.2483171437181237
-0.517664910597973
0.03601010766364817
1.2483171437181237
-0.517664910597973
0.03601010766364817
1.2483171437181237
-0.517664910597973
0.03601010766364817
1.2483171437181237
-0.5183052644524785
0.04194506483459052
1.2495818106773815
-0.5183052644524785
0.04194506483459052
1.2495818106773815
-0.5183052644524785
0.04194506483459052
1.2495818106773815
-0.5183052644524785
0.04194506483459052
1.2495818106773815
-0.5198357327505928
0.04623176739495598
1.2509528493361488
-0.5198357327505928
0.04623176739495598
1.2509528493361488
-0.5198357327505928
0.04623176739495598
1.2509528493361488
-0.5198357327505928
0.04623176739495598
1.2509528493361488
-0.5270508183972813
0.050079226277008185
1.2525955755875124
-0.5270508183972813
0.050079226277008185
1.2525955755875124
-0.5270508183972813
0.050079226277008185
1.2525955755875124
-0.5270508183972813
0.050079226277008185
1.2525955755875124
-0.5291426688773284
0.051163279586114635
1.2537826794030966
-0.5291426688773284
0.051163279586114635
1.2537826794030966
-0.5291426688773284
0.051163279586114635
1.2537826794030966
-0.5291426688773284
0.051163279586114635
1.2537826794030966
-0.523624282718738
0.050987671197798824
1.2574591690676362
-0.523624282718738
0.050987671197798824
1.2574591690676362
-0.523624282718738
0.050987671197798824
1.2574591690676362
-0.523624282718738
0.050987671197798824
1.2574591690676362
-0.5180000803445481
0.05029782169414437
1.2629865673745395
-0.5180000803445481
0.05029782169414437
1.2629865673745395
-0.5180000803445481
0.05029782169414437
1.2629865673745395
-0.5180000803445481
0.05029782169414437
1.2629865673745395
-0.5100588139425067
0.0488671273591667
1.2647962404207767
-0.5100588139425067
0.0488671273591667
1.2647962404207767
-0.5100588139425067
0.0488671273591667
1.2647962404207767
-0.5100588139425067
0.0488671273591667
1.2647962404207767
-0.5114300450920247
0.047894793819272016
1.264962638130187
-0.5114300450920247
0.047894793819272016
1.264962638130187
-0.5114300450920247
0.047894793819272016
1.264962638130187
-0.5114300450920247
0.047894793819272016
1.264962638130187
-0.5196130835003433
0.04346189663285567
1.2671601347441759
-0.5196130835003433
0.04346189663285567
1.2671601347441759
-0.5196130835003433
0.04346189663285567
1.2671601347441759
-0.5196130835003433
0.04346189663285567
1.2671601347441759
-0.5150781198192339
0.04056829472391062
1.2777801801009292
-0.5150781198192339
0.04056829472391062
1.2777801801009292
-0.5150781198192339
0.04056829472391062
1.2777801801009292
-0.5150781198192339
0.04056829472391062
1.2777801801009292
-0.49339282212397867
0.03173647930567136
1.2895591956812151
-0.49339282212397867
0.03173647930567136
1.2895591956812151
-0.49339282212397867
0.03173647930567136
1.2895591956812151
-0.49339282212397867
0.03173647930567136
1.2895591956812151
-0.4545844393548645
0.017963306853851484
1.2932718008813557
-0.4545844393548645
0.017963306853851484
1.2932718008813557
-0.4545844393548645
0.017963306853851484
1.2932718008813557
-0.4545844393548645
0.017963306853851484
1.2932718008813557
-0.45402946587530985
0.0067264570651832355
1.2946441638772437
-0.45402946587530985
0.0067264570651832355
1.2946441638772437
-0.45402946587530985
0.0067264570651832355
1.2946441638772437
-0.45402946587530985
0.0067264570651832355
1.2946441638772437
-0.47045617231992776
-0.00297676956715346
1.3013977263626013
-0.47045617231992776
-0.00297676956715346
1.3013977263626013
-0.47045617231992776
-0.00297676956715346
1.3013977263626013
-0.47045617231992776
-0.00297676956715346
1.3013977263626013
-0.48179444805986993
-0.013241412101702476
1.3089345491799214
-0.48179444805986993
-0.013241412101702476
1.3089345491799214
-0.48179444805986993
-0.013241412101702476
1.3089345491799214
-0.48179444805986993
-0.013241412101702476
1.3089345491799214
-0.47779159032851626
-0.019158800364442452
1.3096608170902582
-0.47779159032851626
-0.019158800364442452
1.3096608170902582
-0.47779159032851626
-0.019158800364442452
1.3096608170902582
-0.47779159032851626
-0.019158800364442452
1.3096608170902582
-0.46499168841679533
-0.02150255122383619
1.3069218353155698
-0.46499168841679533
-0.02150255122383619
1.3069218353155698
-0.46499168841679533
-0.02150255122383619
1.3069218353155698
-0.46499168841679533
-0.02150255122383619
1.3069218353155698
-0.4618273306394701
-0.024046351816377123
1.3056981512739063
-0.4618273306394701
-0.024046351816377123
1.3056981512739063
-0.4618273306394701
-0.024046351816377123
1.3056981512739063
-0.4618273306394701
-0.024046351816377123
1.3056981512739063
-0.47196750535692344
-0.024689062503967844
1.3043145479821636
-0.47196750535692344
-0.024689062503967844
1.3043145479821636
-0.47196750535692344
-0.024689062503967844
1.3043145479821636
-0.47196750535692344
-0.024689062503967844
1.3043145479821636
-0.4777909935315654
-0.022966493121378863
1.3021696083111687
-0.4777909935315654
-0.022966493121378863
1.3021696083111687
-0.4777909935315654
-0.022966493121378863
1.3021696083111687
-0.4777909935315654
-0.022966493121378863
1.3021696083111687
-0.4765210268618704
-0.018872497600319327
1.2995000157800358
-0.4765210268618704
-0.018872497600319327
1.2995000157800358
-0.4765210268618704
-0.018872497600319327
1.2995000157800358
-0.4765210268618704
-0.018872497600319327
1.2995000157800358
-0.4778951461963909
-0.013787364156398925
1.2972458911095157
-0.4778951461963909
-0.013787364156398925
1.2972458911095157
-0.4778951461963909
-0.013787364156398925
1.2972458911095157
-0.4778951461963909
-0.013787364156398925
1.2972458911095157
-0.47938928392635183
-0.010122478938631548
1.2965883217061778
-0.47938928392635183
-0.010122478938631548
1.2965883217061778
-0.47938928392635183
-0.010122478938631548
1.2965883217061778
-0.47938928392635183
-0.010122478938631548
1.2965883217061778
-0.4805905837890299
-0.005677559899242188
1.295632633345483
-0.4805905837890299
-0.005677559899242188
1.295632633345483
-0.4805905837890299
-0.005677559899242188
1.295632633345483
-0.4805905837890299
-0.005677559899242188
1.295632633345483
-0.4785032867596396
-8.976550811494585E-4
1.2938299402986282
-0.4785032867596396
-8.976550811494585E-4
1.2938299402986282
-0.4785032867596396
-8.976550811494585E-4
1.2938299402986282
-0.4785032867596396
-8.976550811494585E-4
1.2938299402986282
-0.4777268361899516
0.0029341134451397327
1.2932729713668083
-0.4777268361899516
0.0029341134451397327
1.2932729713668083
-0.4777268361899516
0.0029341134451397327
1.2932729713668083
-0.4777268361899516
0.0029341134451397327
1.2932729713668083
-0.4800423086768596
0.0060536362897728405
1.2937648145701455
-0.4800423086768596
0.0060536362897728405
1.2937648145701455
-0.4800423086768596
0.0060536362897728405
1.2937648145701455
-0.4800423086768596
0.0060536362897728405
1.2937648145701455
-0.4815223308424605
0.008654236078533288
1.2946059382474808
-0.4815223308424605
0.008654236078533288
1.2946059382474808
-0.4815223308424605
0.008654236078533288
1.2946059382474808
-0.4815223308424605
0.008654236078533288
1.2946059382474808
-0.48177544691579766
0.011517828520574792
1.2939772030568952
-0.48177544691579766
0.011517828520574792
1.2939772030568952
-0.48177544691579766
0.011517828520574792
1.2939772030568952
-0.48177544691579766
0.011517828520574792
1.2939772030568952
-0.47930247724644853
0.013619687121380774
1.293475617528253
-0.47930247724644853
0.013619687121380774
1.293475617528253
-0.47930247724644853
0.013619687121380774
1.293475617528253
-0.47930247724644853
0.013619687121380774
1.293475617528253
-0.4791909638815172
0.014835158284295186
1.2943359343706282
-0.4791909638815172
0.014835158284295186
1.2943359343706282
-0.4791909638815172
0.014835158284295186
1.2943359343706282
-0.4791909638815172
0.014835158284295186
1.2943359343706282
-0.4798998458185226
0.015297430649862092
1.2959020526961393
-0.4798998458185226
0.015297430649862092
1.2959020526961393
-0.4798998458185226
0.015297430649862092
1.2959020526961393
-0.4798998458185226
0.015297430649862092
1.2959020526961393
-0.4814271348210126
0.015526248101248771
1.296590034844285
-0.4814271348210126
0.015526248101248771
1.296590034844285
-0.4814271348210126
0.015526248101248771
1.296590034844285
-0.4814271348210126
0.015526248101248771
1.296590034844285
-0.4843795851174978
0.015310571446682908
1.2962468436054353
-0.4843795851174978
0.015310571446682908
1.2962468436054353
-0.4843795851174978
0.015310571446682908
1.2962468436054353
-0.4843795851174978
0.015310571446682908
1.2962468436054353
-0.4837742691442431
0.013701655798104
1.2966727269066094
-0.4837742691442431
0.013701655798104
1.2966727269066094
-0.4837742691442431
0.013701655798104
1.2966727269066094
-0.4837742691442431
0.013701655798104
1.2966727269066094
-0.48273820074748436
0.01094784106584135
1.2969537829529272
-0.48273820074748436
0.01094784106584135
1.2969537829529272
-0.48273820074748436
0.01094784106584135
1.2969537829529272
-0.48273820074748436
0.01094784106584135
1.2969537829529272
-0.4831131672862066
0.007851800304056725
1.297338030187274
-0.4831131672862066
0.007851800304056725
1.297338030187274
-0.4831131672862066
0.007851800304056725
1.297338030187274
-0.4831131672862066
0.007851800304056725
1.297338030187274
-0.4849882809946547
0.003812298154864405
1.2969237372392701
-0.4849882809946547
0.003812298154864405
1.2969237372392701
-0.4849882809946547
0.003812298154864405
1.2969237372392701
-0.4849882809946547
0.003812298154864405
1.2969237372392701
-0.48405094744320143
-6.827761992847781E-4
1.2956450832770434
-0.48405094744320143
-6.827761992847781E-4
1.2956450832770434
-0.48405094744320143
-6.827761992847781E-4
1.2956450832770434
-0.48405094744320143
-6.827761992847781E-4
1.2956450832770434
-0.48451214685342736
-0.005756501082440599
1.296069774593332
-0.48451214685342736
-0.005756501082440599
1.296069774593332
-0.48451214685342736
-0.005756501082440599
1.296069774593332
-0.48451214685342736
-0.005756501082440599
1.296069774593332
-0.4850309823817042
-0.011639785906342588
1.2961690608679444
-0.4850309823817042
-0.011639785906342588
1.2961690608679444
-0.4850309823817042
-0.011639785906342588
1.2961690608679444
-0.4850309823817042
-0.011639785906342588
1.2961690608679444
-0.4851287609942629
-0.01653486331317509
1.2952938794565927
-0.4851287609942629
-0.01653486331317509
1.2952938794565927
-0.4851287609942629
-0.01653486331317509
1.2952938794565927
-0.4851287609942629
-0.01653486331317509
1.2952938794565927
-0.485200559716169
-0.01943886645746589
1.2941268942330102
-0.485200559716169
-0.01943886645746589
1.2941268942330102
-0.485200559716169
-0.01943886645746589
1.2941268942330102
-0.485200559716169
-0.01943886645746589
1.2941268942330102
-0.4861237910944615
-0.021300957521496185
1.2940199582978313
-0.4861237910944615
-0.021300957521496185
1.2940199582978313
-0.4861237910944615
-0.021300957521496185
1.2940199582978313
-0.4861237910944615
-0.021300957521496185
1.2940199582978313
-0.48760397459848054
-0.02148533829531448
1.2944853900308961
-0.48760397459848054
-0.02148533829531448
1.2944853900308961
-0.48760397459848054
-0.02148533829531448
1.2944853900308961
-0.48760397459848054
-0.02148533829531448
1.2944853900308961
-0.4879907533812895
-0.02003851004991836
1.29402901197748
-0.4879907533812895
-0.02003851004991836
1.29402901197748
-0.4879907533812895
-0.02003851004991836
1.29402901197748
-0.4879907533812895
-0.02003851004991836
1.29402901197748
-0.48725468898530455
-0.01706100566943698
1.2929537478802742
-0.48725468898530455
-0.01706100566943698
1.2929537478802742
-0.48725468898530455
-0.01706100566943698
1.2929537478802742
-0.48725468898530455
-0.01706100566943698
1.2929537478802742
-0.48643874378414537
-0.013479877216530902
1.2920827222147966
-0.48643874378414537
-0.013479877216530902
1.2920827222147966
-0.48643874378414537
-0.013479877216530902
1.2920827222147966
-0.48643874378414537
-0.013479877216530902
1.2920827222147966
-0.4871360998701507
-0.009835038630999122
1.2912574895186475
-0.4871360998701507
-0.009835038630999122
1.2912574895186475
-0.4871360998701507
-0.009835038630999122
1.2912574895186475
-0.4871360998701507
-0.009835038630999122
1.2912574895186475
-0.4876535784596735
-0.006292405416965872
1.2906305432375713
-0.4876535784596735
-0.006292405416965872
1.2906305432375713
-0.4876535784596735
-0.006292405416965872
1.2906305432375713
-0.4876535784596735
-0.006292405416965872
1.2906305432375713
-0.48829129073083727
-0.0025129655272456584
1.2899428746262092
-0.48829129073083727
-0.0025129655272456584
1.2899428746262092
-0.48829129073083727
-0.0025129655272456584
1.2899428746262092
-0.48829129073083727
-0.0025129655272456584
1.2899428746262092
-0.48863487837757147
0.001709569361405832
1.2894191132488861
-0.48863487837757147
0.001709569361405832
1.2894191132488861
-0.48863487837757147
0.001709569361405832
1.2894191132488861
-0.48863487837757147
0.001709569361405832
1.2894191132488861
-0.4892517536726793
0.005914448471711864
1.2893254160369547
-0.4892517536726793
0.005914448471711864
1.2893254160369547
-0.4892517536726793
0.005914448471711864
1.2893254160369547
-0.4892517536726793
0.005914448471711864
1.2893254160369547
-0.48901935908504385
0.010704221674779982
1.2896658657650288
-0.48901935908504385
0.010704221674779982
1.2896658657650288
-0.48901935908504385
0.010704221674779982
1.2896658657650288
-0.48901935908504385
0.010704221674779982
1.2896658657650288
-0.4885345218016884
0.015676915874278358
1.2902404633709463
-0.4885345218016884
0.015676915874278358
1.2902404633709463
-0.4885345218016884
0.015676915874278358
1.2902404633709463
-0.4885345218016884
0.015676915874278358
1.2902404633709463
-0.48841134394823243
0.019922173268439494
1.2906178459941549
-0.48841134394823243
0.019922173268439494
1.2906178459941549
-0.48841134394823243
0.019922173268439494
1.2906178459941549
-0.48841134394823243
0.019922173268439494
1.2906178459941549
-0.487119573212462
0.022915496950514036
1.2907415360122232
-0.487119573212462
0.022915496950514036
1.2907415360122232
-0.487119573212462
0.022915496950514036
1.2907415360122232
-0.487119573212462
0.022915496950514036
1.2907415360122232
-0.4874917042933457
0.02438415782324238
1.2910766143370824
-0.4874917042933457
0.02438415782324238
1.2910766143370824
-0.4874917042933457
0.02438415782324238
1.2910766143370824
-0.4874917042933457
0.02438415782324238
1.2910766143370824
-0.4884724942828512
0.024498533761793985
1.291716164974142
-0.4884724942828512
0.024498533761793985
1.291716164974142
-0.4884724942828512
0.024498533761793985
1.291716164974142
-0.4884724942828512
0.024498533761793985
1.291716164974142
-0.4880152998426636
0.02341922931932834
1.2925438362538213
-0.4880152998426636
0.02341922931932834
1.2925438362538213
-0.4880152998426636
0.02341922931932834
1.2925438362538213
-0.4880152998426636
0.02341922931932834
1.2925438362538213
-0.4879037807545898
0.02125822854490089
1.2924541807210894
-0.4879037807545898
0.02125822854490089
1.2924541807210894
-0.4879037807545898
0.02125822854490089
1.2924541807210894
-0.4879037807545898
0.02125822854490089
1.2924541807210894
-0.4882813631576356
0.018350930307871972
1.2921927340195831
-0.4882813631576356
0.018350930307871972
1.2921927340195831
-0.4882813631576356
0.018350930307871972
1.2921927340195831
-0.4882813631576356
0.018350930307871972
1.2921927340195831
-0.49027092913755693
0.014773938423243793
1.2926427623829029
-0.49027092913755693
0.014773938423243793
1.2926427623829029
-0.49027092913755693
0.014773938423243793
1.2926427623829029
-0.49027092913755693
0.014773938423243793
1.2926427623829029
-0.4911797852230813
0.010566942492722317
1.2932128950640585
-0.4911797852230813
0.010566942492722317
1.2932128950640585
-0.4911797852230813
0.010566942492722317
1.2932128950640585
-0.4911797852230813
0.010566942492722317
1.2932128950640585
-0.4916751359118515
0.006566675478483484
1.2940131575636455
-0.4916751359118515
0.006566675478483484
1.2940131575636455
-0.4916751359118515
0.006566675478483484
1.2940131575636455
-0.4916751359118515
0.006566675478483484
1.2940131575636455
-0.4920274847064684
0.0021219280931843816
1.2947509794171392
-0.4920274847064684
0.0021219280931843816
1.2947509794171392
-0.4920274847064684
0.0021219280931843816
1.2947509794171392
-0.4920274847064684
0.0021219280931843816
1.2947509794171392
-0.49289259966331195
-0.002308141213006312
1.295839987750751
-0.49289259966331195
-0.002308141213006312
1.295839987750751
-0.49289259966331195
-0.002308141213006312
1.295839987750751
-0.49289259966331195
-0.002308141213006312
1.295839987750751
-0.4927244434665226
-0.006446279877803563
1.2968044727652128
-0.4927244434665226
-0.006446279877803563
1.2968044727652128
-0.4927244434665226
-0.006446279877803563
1.2968044727652128
-0.4927244434665226
-0.006446279877803563
1.2968044727652128
-0.491420122737706
-0.010703913434678683
1.2970107624875256
-0.491420122737706
-0.010703913434678683
1.2970107624875256
-0.491420122737706
-0.010703913434678683
1.2970107624875256
-0.491420122737706
-0.010703913434678683
1.2970107624875256
-0.4910921737452436
-0.015075295855547247
1.2969464157787347
-0.4910921737452436
-0.015075295855547247
1.2969464157787347
-0.4910921737452436
-0.015075295855547247
1.2969464157787347
-0.4910921737452436
-0.015075295855547247
1.2969464157787347
-0.49297483578075724
-0.018548603384100946
1.2963265410575093
-0.49297483578075724
-0.018548603384100946
1.2963265410575093
-0.49297483578075724
-0.018548603384100946
1.2963265410575093
-0.49297483578075724
-0.018548603384100946
1.2963265410575093
-0.4936220064203598
-0.02117561772824445
1.2958875329396171
-0.4936220064203598
-0.02117561772824445
1.2958875329396171
-0.4936220064203598
-0.02117561772824445
1.2958875329396171
-0.4936220064203598
-0.02117561772824445
1.2958875329396171
-0.49203780633068833
-0.023007000130846805
1.2959262721281413
-0.49203780633068833
-0.023007000130846805
1.2959262721281413
-0.49203780633068833
-0.023007000130846805
1.2959262721281413
-0.49203780633068833
-0.023007000130846805
1.2959262721281413
-0.4896453246526761
-0.02481148716533403
1.2952648424095672
-0.4896453246526761
-0.02481148716533403
1.2952648424095672
-0.4896453246526761
-0.02481148716533403
1.2952648424095672
-0.4896453246526761
-0.02481148716533403
1.2952648424095672
-0.4910184559139919
-0.025362503770671656
1.2945656018888505
-0.4910184559139919
-0.025362503770671656
1.2945656018888505
-0.4910184559139919
-0.025362503770671656
1.2945656018888505
-0.4910184559139919
-0.025362503770671656
1.2945656018888505
-0.4930236780797411
-0.024585886317965846
1.2941457316245817
-0.4930236780797411
-0.024585886317965846
1.2941457316245817
-0.4930236780797411
-0.024585886317965846
1.2941457316245817
-0.4930236780797411
-0.024585886317965846
1.2941457316245817
-0.4923885710454274
-0.02198268691375526
1.2937851522625996
-0.4923885710454274
-0.02198268691375526
1.2937851522625996
-0.4923885710454274
-0.02198268691375526
1.2937851522625996
-0.4923885710454274
-0.02198268691375526
1.2937851522625996
-0.49054280113255466
-0.017921739303346722
1.2935269209807454
-0.49054280113255466
-0.017921739303346722
1.2935269209807454
-0.49054280113255466
-0.017921739303346722
1.2935269209807454
-0.49054280113255466
-0.017921739303346722
1.2935269209807454
-0.4903234760369097
-0.012480690410440592
1.2925408000677432
-0.4903234760369097
-0.012480690410440592
1.2925408000677432
-0.4903234760369097
-0.012480690410440592
1.2925408000677432
-0.4903234760369097
-0.012480690410440592
1.2925408000677432
-0.49153281992861403
-0.0053372517953834755
1.2916130852378578
-0.49153281992861403
-0.0053372517953834755
1.2916130852378578
-0.49153281992861403
-0.0053372517953834755
1.2916130852378578
-0.49153281992861403
-0.0053372517953834755
1.2916130852378578
-0.494025345854712
0.003210525914667976
1.2905483443890646
-0.494025345854712
0.003210525914667976
1.2905483443890646
-0.494025345854712
0.003210525914667976
1.2905483443890646
-0.494025345854712
0.003210525914667976
1.2905483443890646
-0.49639602096941915
0.012812566220975609
1.290353897212011
-0.49639602096941915
0.012812566220975609
1.290353897212011
-0.49639602096941915
0.012812566220975609
1.290353897212011
-0.49639602096941915
0.012812566220975609
1.290353897212011
-0.4976182181096925
0.021477403278913794
1.2904372535745856
-0.4976182181096925
0.021477403278913794
1.2904372535745856
-0.4976182181096925
0.021477403278913794
1.2904372535745856
-0.4976182181096925
0.021477403278913794
1.2904372535745856
-0.49811792375558656
0.02836088650087008
1.2894623947326325
-0.49811792375558656
0.02836088650087008
1.2894623947326325
-0.49811792375558656
0.02836088650087008
1.2894623947326325
-0.49811792375558656
0.02836088650087008
1.2894623947326325
-0.5003802356940249
0.03435863337290064
1.2873442878215795
-0.5003802356940249
0.03435863337290064
1.2873442878215795
-0.5003802356940249
0.03435863337290064
1.2873442878215795
-0.5003802356940249
0.03435863337290064
1.2873442878215795
-0.5041123385484925
0.04043671678684758
1.284933298894332
-0.5041123385484925
0.04043671678684758
1.284933298894332
-0.5041123385484925
0.04043671678684758
1.284933298894332
-0.5041123385484925
0.04043671678684758
1.284933298894332
-0.5071574867909119
0.04665141629424998
1.2826798996228599
-0.5071574867909119
0.04665141629424998
1.2826798996228599
-0.5071574867909119
0.04665141629424998
1.2826798996228599
-0.5071574867909119
0.04665141629424998
1.2826798996228599
-0.5099128942196653
0.05317525056394276
1.2800802352117233
-0.5099128942196653
0.05317525056394276
1.2800802352117233
-0.5099128942196653
0.05317525056394276
1.2800802352117233
-0.5099128942196653
0.05317525056394276
1.2800802352117233
-0.5103911297206871
0.059479001783566625
1.2767560891839678
-0.5103911297206871
0.059479001783566625
1.2767560891839678
-0.5103911297206871
0.059479001783566625
1.2767560891839678
-0.5103911297206871
0.059479001783566625
1.2767560891839678
-0.5116684882610756
0.06437728219292886
1.273642037293904
-0.5116684882610756
0.06437728219292886
1.273642037293904
-0.5116684882610756
0.06437728219292886
1.273642037293904
-0.5116684882610756
0.06437728219292886
1.273642037293904
-0.5131286950557519
0.06787181082055387
1.2711597408798534
-0.5131286950557519
0.06787181082055387
1.2711597408798534
-0.5131286950557519
0.06787181082055387
1.2711597408798534
-0.5131286950557519
0.06787181082055387
1.2711597408798534
-0.5088906404969116
0.06722562023620386
1.2684013472905602
-0.5088906404969116
0.06722562023620386
1.2684013472905602
-0.5088906404969116
0.06722562023620386
1.2684013472905602
-0.5088906404969116
0.06722562023620386
1.2684013472905602
-0.5066859450684087
0.06525505624934683
1.2633145408893718
-0.5066859450684087
0.06525505624934683
1.2633145408893718
-0.5066859450684087
0.06525505624934683
1.2633145408893718
-0.5066859450684087
0.06525505624934683
1.2633145408893718
-0.5116541830954222
0.06372217782090757
1.2559645437750067
-0.5116541830954222
0.06372217782090757
1.2559645437750067
-0.5116541830954222
0.06372217782090757
1.2559645437750067
-0.5116541830954222
0.06372217782090757
1.2559645437750067
-0.5162146972916202
0.06142352804237691
1.2525434131505597
-0.5162146972916202
0.06142352804237691
1.2525434131505597
-0.5162146972916202
0.06142352804237691
1.2525434131505597
-0.5162146972916202
0.06142352804237691
1.2525434131505597
-0.5262720409031422
0.05568254424899249
1.2513848148003728
-0.5262720409031422
0.05568254424899249
1.2513848148003728
-0.5262720409031422
0.05568254424899249
1.2513848148003728
-0.5262720409031422
0.05568254424899249
1.2513848148003728
-0.5368059536555709
0.04956181503520402
1.2505224505346821
-0.5368059536555709
0.04956181503520402
1.2505224505346821
-0.5368059536555709
0.04956181503520402
1.2505224505346821
-0.5368059536555709
0.04956181503520402
1.2505224505346821
-0.5452682107682724
0.04194122294299053
1.24710402313588
-0.5452682107682724
0.04194122294299053
1.24710402313588
-0.5452682107682724
0.04194122294299053
1.24710402313588
-0.5452682107682724
0.04194122294299053
1.24710402313588
-0.5480476945265318
0.03505764701114002
1.2422454895073205
-0.5480476945265318
0.03505764701114002
1.2422454895073205
-0.5480476945265318
0.03505764701114002
1.2422454895073205
-0.5480476945265318
0.03505764701114002
1.2422454895073205
-0.5344470262398843
0.02895673082982849
1.2398099269749205
-0.5344470262398843
0.02895673082982849
1.2398099269749205
-0.5344470262398843
0.02895673082982849
1.2398099269749205
-0.5344470262398843
0.02895673082982849
1.2398099269749205
-0.5250503736882532
0.021472086332624877
1.2393132180542152
-0.5250503736882532
0.021472086332624877
1.2393132180542152
-0.5250503736882532
0.021472086332624877
1.2393132180542152
-0.5250503736882532
0.021472086332624877
1.2393132180542152
-0.5206263466773327
0.010541783118899042
1.2397762698105885
-0.5206263466773327
0.010541783118899042
1.2397762698105885
-0.5206263466773327
0.010541783118899042
1.2397762698105885
-0.5206263466773327
0.010541783118899042
1.2397762698105885
-0.5253100189088669
-0.002083528571882497
1.239854273150905
-0.5253100189088669
-0.002083528571882497
1.239854273150905
-0.5253100189088669
-0.002083528571882497
1.239854273150905
-0.5253100189088669
-0.002083528571882497
1.239854273150905
-0.5270556447072945
-0.013732758202264253
1.2387365600049294
-0.5270556447072945
-0.013732758202264253
1.2387365600049294
-0.5270556447072945
-0.013732758202264253
1.2387365600049294
-0.5270556447072945
-0.013732758202264253
1.2387365600049294
-0.5264495519720023
-0.023947912720803575
1.2387810634866623
-0.5264495519720023
-0.023947912720803575
1.2387810634866623
-0.5264495519720023
-0.023947912720803575
1.2387810634866623
-0.5264495519720023
-0.023947912720803575
1.2387810634866623
-0.523657743622819
-0.031502042861041246
1.2388921340902432
-0.523657743622819
-0.031502042861041246
1.2388921340902432
-0.523657743622819
-0.031502042861041246
1.2388921340902432
-0.523657743622819
-0.031502042861041246
1.2388921340902432
-0.5218966933292115
-0.037018716326352744
1.2381192170684079
-0.5218966933292115
-0.037018716326352744
1.2381192170684079
-0.5218966933292115
-0.037018716326352744
1.2381192170684079
-0.5218966933292115
-0.037018716326352744
1.2381192170684079
-0.5200834992851212
-0.04132556825724462
1.237778841057971
-0.5200834992851212
-0.04132556825724462
1.237778841057971
-0.5200834992851212
-0.04132556825724462
1.237778841057971
-0.5200834992851212
-0.04132556825724462
1.237778841057971
-0.5210881759849515
-0.04308607427846813
1.2379300691180863
-0.5210881759849515
-0.04308607427846813
1.2379300691180863
-0.5210881759849515
-0.04308607427846813
1.2379300691180863
-0.5210881759849515
-0.04308607427846813
1.2379300691180863
-0.5237819131550359
-0.042186709929763214
1.2376285732068402
-0.5237819131550359
-0.042186709929763214
1.2376285732068402
-0.5237819131550359
-0.042186709929763214
1.2376285732068402
-0.5237819131550359
-0.042186709929763214
1.2376285732068402
-0.5256939004755175
-0.04038743901750692
1.237478510947029
-0.5256939004755175
-0.04038743901750692
1.237478510947029
-0.5256939004755175
-0.04038743901750692
1.237478510947029
-0.5256939004755175
-0.04038743901750692
1.237478510947029
-0.5261503703217408
-0.03773903236769455
1.2368476577773886
-0.5261503703217408
-0.03773903236769455
1.2368476577773886
-0.5261503703217408
-0.03773903236769455
1.2368476577773886
-0.5261503703217408
-0.03773903236769455
1.2368476577773886
-0.5246038617203082
-0.034007395831162496
1.2362582380622342
-0.5246038617203082
-0.034007395831162496
1.2362582380622342
-0.5246038617203082
-0.034007395831162496
1.2362582380622342
-0.5246038617203082
-0.034007395831162496
1.2362582380622342
-0.5217973072774875
-0.029420120957510336
1.2370293263635317
-0.5217973072774875
-0.029420120957510336
1.2370293263635317
-0.5217973072774875
-0.029420120957510336
1.2370293263635317
-0.5217973072774875
-0.029420120957510336
1.2370293263635317
-0.5210363580628564
-0.023841686718683697
1.2391001388115428
-0.5210363580628564
-0.023841686718683697
1.2391001388115428
-0.5210363580628564
-0.023841686718683697
1.2391001388115428
-0.5210363580628564
-0.023841686718683697
1.2391001388115428
-0.5212062941961377
-0.017525466233307842
1.2401498014928931
-0.5212062941961377
-0.017525466233307842
1.2401498014928931
-0.5212062941961377
-0.017525466233307842
1.2401498014928931
-0.5212062941961377
-0.017525466233307842
1.2401498014928931
-0.5217401173764334
-0.010883531194048796
1.2402761151050967
-0.5217401173764334
-0.010883531194048796
1.2402761151050967
-0.5217401173764334
-0.010883531194048796
1.2402761151050967
-0.5217401173764334
-0.010883531194048796
1.2402761151050967
-0.5180772380566099
-0.0038344048921929576
1.2392690422601202
-0.5180772380566099
-0.0038344048921929576
1.2392690422601202
-0.5180772380566099
-0.0038344048921929576
1.2392690422601202
-0.5180772380566099
-0.0038344048921929576
1.2392690422601202
-0.5162743587531837
0.0032824473196835175
1.2393681399871805
-0.5162743587531837
0.0032824473196835175
1.2393681399871805
-0.5162743587531837
0.0032824473196835175
1.2393681399871805
-0.5162743587531837
0.0032824473196835175
1.2393681399871805
-0.5184014349185636
0.009689553320349395
1.2402785474565168
-0.5184014349185636
0.009689553320349395
1.2402785474565168
-0.5184014349185636
0.009689553320349395
1.2402785474565168
-0.5184014349185636
0.009689553320349395
1.2402785474565168
-0.5194583380344366
0.01616542413026469
1.2424875223776564
-0.5194583380344366
0.01616542413026469
1.2424875223776564
-0.5194583380344366
0.01616542413026469
1.2424875223776564
-0.5194583380344366
0.01616542413026469
1.2424875223776564
-0.5169908286518855
0.023421440436784412
1.245476427290214
-0.5169908286518855
0.023421440436784412
1.245476427290214
-0.5169908286518855
0.023421440436784412
1.245476427290214
-0.5169908286518855
0.023421440436784412
1.245476427290214
-0.5156269031682321
0.029953390130466266
1.250241512716525
-0.5156269031682321
0.029953390130466266
1.250241512716525
-0.5156269031682321
0.029953390130466266
1.250241512716525
-0.5156269031682321
0.029953390130466266
1.250241512716525
-0.5172962232951563
0.035851338259816824
1.2537234582032166
-0.5172962232951563
0.035851338259816824
1.2537234582032166
-0.5172962232951563
0.035851338259816824
1.2537234582032166
-0.5172962232951563
0.035851338259816824
1.2537234582032166
-0.5182401315991289
0.04079861672813869
1.2545116413166049
-0.5182401315991289
0.04079861672813869
1.2545116413166049
-0.5182401315991289
0.04079861672813869
1.2545116413166049
-0.5182401315991289
0.04079861672813869
1.2545116413166049
-0.5162294444280663
0.04457565882149881
1.2521730662500163
-0.5162294444280663
0.04457565882149881
1.2521730662500163
-0.5162294444280663
0.04457565882149881
1.2521730662500163
-0.5162294444280663
0.04457565882149881
1.2521730662500163
-0.5160248478339762
0.04861053245007541
1.2515674892499322
-0.5160248478339762
0.04861053245007541
1.2515674892499322
-0.5160248478339762
0.04861053245007541
1.2515674892499322
-0.5160248478339762
0.04861053245007541
1.2515674892499322
-0.5165575629401518
0.05091833796530106
1.2534420217029463
-0.5165575629401518
0.05091833796530106
1.2534420217029463
-0.5165575629401518
0.05091833796530106
1.2534420217029463
-0.5165575629401518
0.05091833796530106
1.2534420217029463
-0.5137653602602343
0.05241293045540017
1.2571971221717555
-0.5137653602602343
0.05241293045540017
1.2571971221717555
-0.5137653602602343
0.05241293045540017
1.2571971221717555
-0.5137653602602343
0.05241293045540017
1.2571971221717555
-0.5081764780763707
0.05261111465840872
1.2603163413643972
-0.5081764780763707
0.05261111465840872
1.2603163413643972
-0.5081764780763707
0.05261111465840872
1.2603163413643972
-0.5081764780763707
0.05261111465840872
1.2603163413643972
-0.5018564292706372
0.051330770267855326
1.2600764417890957
-0.5018564292706372
0.051330770267855326
1.2600764417890957
-0.5018564292706372
0.051330770267855326
1.2600764417890957
-0.5018564292706372
0.051330770267855326
1.2600764417890957
-0.50218406260966
0.04927995131692072
1.2578965374942879
-0.50218406260966
0.04927995131692072
1.2578965374942879
-0.50218406260966
0.04927995131692072
1.2578965374942879
-0.50218406260966
0.04927995131692072
1.2578965374942879
-0.506793801091981
0.04576479036538097
1.2599636402566246
-0.506793801091981
0.04576479036538097
1.2599636402566246
-0.506793801091981
0.04576479036538097
1.2599636402566246
-0.506793801091981
0.04576479036538097
1.2599636402566246
-0.5056394942490698
0.0413087485808903
1.2701247485437535
-0.5056394942490698
0.0413087485808903
1.2701247485437535
-0.5056394942490698
0.0413087485808903
1.2701247485437535
-0.5056394942490698
0.0413087485808903
1.2701247485437535
-0.475627145610592
0.029379295177312425
1.2792772153522003
-0.475627145610592
0.029379295177312425
1.2792772153522003
-0.475627145610592
0.029379295177312425
1.2792772153522003
-0.475627145610592
0.029379295177312425
1.2792772153522003
-0.44211703245779116
0.013192212220237483
1.2814601900445228
-0.44211703245779116
0.013192212220237483
1.2814601900445228
-0.44211703245779116
0.013192212220237483
1.2814601900445228
-0.44211703245779116
0.013192212220237483
1.2814601900445228
-0.45206051382961343
-9.863627726776259E-5
1.2843946409656828
-0.45206051382961343
-9.863627726776259E-5
1.2843946409656828
-0.45206051382961343
-9.863627726776259E-5
1.2843946409656828
-0.45206051382961343
-9.863627726776259E-5
1.2843946409656828
-0.4757722226764268
-0.013150538922734585
1.2927533310145944
-0.4757722226764268
-0.013150538922734585
1.2927533310145944
-0.4757722226764268
-0.013150538922734585
1.2927533310145944
-0.4757722226764268
-0.013150538922734585
1.2927533310145944
-0.48265496613835324
-0.028014999465701237
1.3000582119137682
-0.48265496613835324
-0.028014999465701237
1.3000582119137682
-0.48265496613835324
-0.028014999465701237
1.3000582119137682
-0.48265496613835324
-0.028014999465701237
1.3000582119137682
-0.4723662447838343
-0.03511551778556119
1.3010549307007162
-0.4723662447838343
-0.03511551778556119
1.3010549307007162
-0.4723662447838343
-0.03511551778556119
1.3010549307007162
-0.4723662447838343
-0.03511551778556119
1.3010549307007162
-0.4570095046079265
-0.03843480982616718
1.2987246702788537
-0.4570095046079265
-0.03843480982616718
1.2987246702788537
-0.4570095046079265
-0.03843480982616718
1.2987246702788537
-0.4570095046079265
-0.03843480982616718
1.2987246702788537
-0.4556666405800986
-0.04183055252448021
1.296401562543397
-0.4556666405800986
-0.04183055252448021
1.296401562543397
-0.4556666405800986
-0.04183055252448021
1.296401562543397
-0.4556666405800986
-0.04183055252448021
1.296401562543397
-0.4705220249925648
-0.04298178459402719
1.294870656410628
-0.4705220249925648
-0.04298178459402719
1.294870656410628
-0.4705220249925648
-0.04298178459402719
1.294870656410628
-0.4705220249925648
-0.04298178459402719
1.294870656410628
-0.4750038596148584
-0.04124585037143692
1.2925158302803101
-0.4750038596148584
-0.04124585037143692
1.2925158302803101
-0.4750038596148584
-0.04124585037143692
1.2925158302803101
-0.4750038596148584
-0.04124585037143692
1.2925158302803101
-0.4710848720184574
-0.03796815589090382
1.2892853073859238
-0.4710848720184574
-0.03796815589090382
1.2892853073859238
-0.4710848720184574
-0.03796815589090382
1.2892853073859238
-0.4710848720184574
-0.03796815589090382
1.2892853073859238
-0.4708238430738441
-0.034415733236893516
1.2856661477346678
-0.4708238430738441
-0.034415733236893516
1.2856661477346678
-0.4708238430738441
-0.034415733236893516
1.2856661477346678
-0.4708238430738441
-0.034415733236893516
1.2856661477346678
-0.4776110761111512
-0.030898617140368276
1.2843480122066646
-0.4776110761111512
-0.030898617140368276
1.2843480122066646
-0.4776110761111512
-0.030898617140368276
1.2843480122066646
-0.4776110761111512
-0.030898617140368276
1.2843480122066646
-0.4812759992953032
-0.026604202793466477
1.2843049250383445
-0.4812759992953032
-0.026604202793466477
1.2843049250383445
-0.4812759992953032
-0.026604202793466477
1.2843049250383445
-0.4812759992953032
-0.026604202793466477
1.2843049250383445
-0.47998622517591877
-0.021869021625558295
1.283808090943193
-0.47998622517591877
-0.021869021625558295
1.283808090943193
-0.47998622517591877
-0.021869021625558295
1.283808090943193
-0.47998622517591877
-0.021869021625558295
1.283808090943193
-0.4769287596764562
-0.01704238627703931
1.2826278185714257
-0.4769287596764562
-0.01704238627703931
1.2826278185714257
-0.4769287596764562
-0.01704238627703931
1.2826278185714257
-0.4769287596764562
-0.01704238627703931
1.2826278185714257
-0.47784325907271435
-0.013219591746752414
1.2826587681044552
-0.47784325907271435
-0.013219591746752414
1.2826587681044552
-0.47784325907271435
-0.013219591746752414
1.2826587681044552
-0.47784325907271435
-0.013219591746752414
1.2826587681044552
-0.48108053802484124
-0.00988315090117921
1.2831925133326005
-0.48108053802484124
-0.00988315090117921
1.2831925133326005
-0.48108053802484124
-0.00988315090117921
1.2831925133326005
-0.48108053802484124
-0.00988315090117921
1.2831925133326005
-0.4836696268908534
-0.006324718098328217
1.283482841854983
-0.4836696268908534
-0.006324718098328217
1.283482841854983
-0.4836696268908534
-0.006324718098328217
1.283482841854983
-0.4836696268908534
-0.006324718098328217
1.283482841854983
-0.48302336346813013
-0.0028870116753995745
1.28283542888984
-0.48302336346813013
-0.0028870116753995745
1.28283542888984
-0.48302336346813013
-0.0028870116753995745
1.28283542888984
-0.48302336346813013
-0.0028870116753995745
1.28283542888984
-0.4820033458964119
-0.0010271268730969044
1.2832322944011028
-0.4820033458964119
-0.0010271268730969044
1.2832322944011028
-0.4820033458964119
-0.0010271268730969044
1.2832322944011028
-0.4820033458964119
-0.0010271268730969044
1.2832322944011028
-0.4817087794489512
-2.920128711183465E-4
1.2845851621597362
-0.4817087794489512
-2.920128711183465E-4
1.2845851621597362
-0.4817087794489512
-2.920128711183465E-4
1.2845851621597362
-0.4817087794489512
-2.920128711183465E-4
1.2845851621597362
-0.481401191647851
-2.314963397330629E-4
1.2857518676089827
-0.481401191647851
-2.314963397330629E-4
1.2857518676089827
-0.481401191647851
-2.314963397330629E-4
1.2857518676089827
-0.481401191647851
-2.314963397330629E-4
1.2857518676089827
-0.48328415048420076
-2.2683018983152633E-4
1.28577579655273
-0.48328415048420076
-2.2683018983152633E-4
1.28577579655273
-0.48328415048420076
-2.2683018983152633E-4
1.28577579655273
-0.48328415048420076
-2.2683018983152633E-4
1.28577579655273
-0.4841836726116975
-8.83700453365154E-4
1.285460203237022
-0.4841836726116975
-8.83700453365154E-4
1.285460203237022
-0.4841836726116975
-8.83700453365154E-4
1.285460203237022
-0.4841836726116975
-8.83700453365154E-4
1.285460203237022
-0.48317534381133825
-0.0034886360575904865
1.2855989496052564
-0.48317534381133825
-0.0034886360575904865
1.2855989496052564
-0.48317534381133825
-0.0034886360575904865
1.2855989496052564
-0.48317534381133825
-0.0034886360575904865
1.2855989496052564
-0.4827340882435037
-0.006702927573302212
1.2854088942136976
-0.4827340882435037
-0.006702927573302212
1.2854088942136976
-0.4827340882435037
-0.006702927573302212
1.2854088942136976
-0.4827340882435037
-0.006702927573302212
1.2854088942136976
-0.48319296283596214
-0.00968663670249167
1.2852405247953416
-0.48319296283596214
-0.00968663670249167
1.2852405247953416
-0.48319296283596214
-0.00968663670249167
1.2852405247953416
-0.48319296283596214
-0.00968663670249167
1.2852405247953416
-0.4834417466654317
-0.013825415383403867
1.2849794530978211
-0.4834417466654317
-0.013825415383403867
1.2849794530978211
-0.4834417466654317
-0.013825415383403867
1.2849794530978211
-0.4834417466654317
-0.013825415383403867
1.2849794530978211
-0.48346477127972515
-0.01795355418143425
1.2853688650138957
-0.48346477127972515
-0.01795355418143425
1.2853688650138957
-0.48346477127972515
-0.01795355418143425
1.2853688650138957
-0.48346477127972515
-0.01795355418143425
1.2853688650138957
-0.48284124993897504
-0.02234998023572364
1.2860936640887486
-0.48284124993897504
-0.02234998023572364
1.2860936640887486
-0.48284124993897504
-0.02234998023572364
1.2860936640887486
-0.48284124993897504
-0.02234998023572364
1.2860936640887486
-0.4804618183498443
-0.02632514082611102
1.2867647122203727
-0.4804618183498443
-0.02632514082611102
1.2867647122203727
-0.4804618183498443
-0.02632514082611102
1.2867647122203727
-0.4804618183498443
-0.02632514082611102
1.2867647122203727
-0.47916445252560985
-0.029185314449035854
1.2867677245091123
-0.47916445252560985
-0.029185314449035854
1.2867677245091123
-0.47916445252560985
-0.029185314449035854
1.2867677245091123
-0.47916445252560985
-0.029185314449035854
1.2867677245091123
-0.4811259294587395
-0.031960045870926664
1.2861445257971789
-0.4811259294587395
-0.031960045870926664
1.2861445257971789
-0.4811259294587395
-0.031960045870926664
1.2861445257971789
-0.4811259294587395
-0.031960045870926664
1.2861445257971789
-0.48335320284289635
-0.03405469372857839
1.2855395608353035
-0.48335320284289635
-0.03405469372857839
1.2855395608353035
-0.48335320284289635
-0.03405469372857839
1.2855395608353035
-0.48335320284289635
-0.03405469372857839
1.2855395608353035
-0.48304157216383553
-0.03449585513449439
1.2846621820406687
-0.48304157216383553
-0.03449585513449439
1.2846621820406687
-0.48304157216383553
-0.03449585513449439
1.2846621820406687
-0.48304157216383553
-0.03449585513449439
1.2846621820406687
-0.48155317909485684
-0.03307309844991596
1.283357483438774
-0.48155317909485684
-0.03307309844991596
1.283357483438774
-0.48155317909485684
-0.03307309844991596
1.283357483438774
-0.48155317909485684
-0.03307309844991596
1.283357483438774
-0.4804076549433051
-0.030514899947673924
1.2824862052394583
-0.4804076549433051
-0.030514899947673924
1.2824862052394583
-0.4804076549433051
-0.030514899947673924
1.2824862052394583
-0.4804076549433051
-0.030514899947673924
1.2824862052394583
-0.47911516400874604
-0.02818992177671957
1.2824022250362734
-0.47911516400874604
-0.02818992177671957
1.2824022250362734
-0.47911516400874604
-0.02818992177671957
1.2824022250362734
-0.47911516400874604
-0.02818992177671957
1.2824022250362734
-0.4779971730725445
-0.02550972820872438
1.28203522689981
-0.4779971730725445
-0.02550972820872438
1.28203522689981
-0.4779971730725445
-0.02550972820872438
1.28203522689981
-0.4779971730725445
-0.02550972820872438
1.28203522689981
-0.47744962183781836
-0.022994882689175117
1.2817185025016626
-0.47744962183781836
-0.022994882689175117
1.2817185025016626
-0.47744962183781836
-0.022994882689175117
1.2817185025016626
-0.47744962183781836
-0.022994882689175117
1.2817185025016626
-0.4767371106629467
-0.020012984314236235
1.2813627422961904
-0.4767371106629467
-0.020012984314236235
1.2813627422961904
-0.4767371106629467
-0.020012984314236235
1.2813627422961904
-0.4767371106629467
-0.020012984314236235
1.2813627422961904
-0.4751468646874472
-0.016097392877638318
1.2810029186337781
-0.4751468646874472
-0.016097392877638318
1.2810029186337781
-0.4751468646874472
-0.016097392877638318
1.2810029186337781
-0.4751468646874472
-0.016097392877638318
1.2810029186337781
-0.4740705046486371
-0.01172975100991782
1.2809698239059262
-0.4740705046486371
-0.01172975100991782
1.2809698239059262
-0.4740705046486371
-0.01172975100991782
1.2809698239059262
-0.4740705046486371
-0.01172975100991782
1.2809698239059262
