2
1
3
0
1
2
2
3
1
1
4
0
1
1
1
2
1
1
5
0
1
1
1
2
1
1
5
1
1
1
1
2
1
1
5
1
1
1
1
2
1
1
6
1
1
1
1
1
1
1
6
1
2
2
1
1
1
1
5
1
2
2
1
1
1
1
8
1
2
2
2
1
1
1
7
1
2
1
2
2
1
1
7
1
2
2
2
2
1
1
7
1
2
1
2
2
1
1
7
1
2
1
2
2
1
1
7
1
2
2
2
2
1
1
7
1
2
2
3
2
1
1
7
2
2
1
3
2
1
1
7
2
2
1
3
2
1
1
7
2
2
2
3
2
1
1
7
2
2
2
3
1
1
1
8
2
2
2
3
1
1
2
10
2
2
2
3
1
1
2
11
2
2
2
3
1
1
2
10
2
2
2
3
1
1
2
10
2
2
2
3
1
1
2
10
2
2
2
3
1
1
2
10
2
2
2
3
1
1
2
10
2
2
2
3
1
1
1
10
2
2
2
3
1
1
1
10
2
2
2
3
1
1
1
11
2
2
2
3
1
1
2
11
2
2
2
3
1
1
2
10
2
2
2
3
1
1
2
10
2
2
2
3
1
1
2
10
2
2
2
3
1
1
2
10
2
2
2
3
1
1
2
10
2
2
2
3
1
1
2
10
2
2
2
3
1
1
2
11
2
2
2
3
1
1
2
10
2
2
2
3
1
1
2
10
2
2
2
3
1
1
2
10
3
2
2
3
1
1
1
10
3
2
2
3
1
1
1
10
3
2
2
3
1
1
2
10
3
2
2
3
1
1
2
10
3
2
2
3
1
1
2
10
3
2
2
3
1
1
2
10
3
2
2
3
1
1
2
10
3
2
2
3
1
1
2
10
3
2
2
3
1
1
2
10
3
2
2
3
1
1
2
10
3
2
2
3
1
1
2
10
3
2
2
3
1
1
2
10
3
2
2
3
1
1
2
10
3
2
2
3
1
1
1
10
3
2
2
3
1
1
1
10
3
2
2
3
1
1
1
10
3
2
2
3
1
1
1
10
3
2
2
3
1
1
1
10
3
2
2
3
1
1
1
10
3
2
2
3
1
1
1
10
3
2
2
3
1
1
1
10
3
2
2
3
1
1
1
10
3
2
2
3
1
1
1
10
3
2
2
3
1
1
1
10
3
2
2
3
1
1
1
10
3
2
2
3
1
1
1
10
3
2
2
3
1
1
1
10
3
2
2
3
1
1
1
10
3
2
2
3
1
1
1
10
3
2
2
3
1
1
1
9
3
2
2
3
1
1
1
8
3
2
2
2
1
1
1
8
3
2
2
2
1
1
1
8
3
2
2
2
1
1
1
8
3
2
2
2
1
1
1
8
3
2
2
2
1
1
1
8
3
2
2
2
1
1
1
8
3
2
2
2
1
1
1
8
3
2
2
2
1
1
1
7
3
2
2
2
1
1
1
7
3
2
2
3
1
1
1
7
3
2
2
3
1
1
1
7
3
2
2
3
1
1
1
7
3
2
2
3
1
1
1
7
3
2
2
3
1
1
1
7
3
2
2
3
1
1
1
7
3
2
2
3
1
1
1
6
3
2
2
3
1
1
1
6
3
2
2
3
1
1
1
6
3
2
2
3
1
1
1
6
3
2
2
3
1
1
1
6
3
2
2
3
1
1
1
6
3
2
2
3
1
1
1
6
3
2
2
3
1
1
1
6
3
2
2
3
1
1
1
6
3
2
2
3
1
1
1
6
3
2
2
3
1
1
1
6
3
2
2
2
1
1
1
5
3
2
2
3
1
1
1
5
3
2
2
3
1
1
1
5
3
2
2
3
1
1
1
5
3
2
2
3
1
1
1
6
3
2
2
3
1
1
1
6
3
2
2
3
1
1
1
6
3
2
2
3
1
1
1
6
3
2
2
3
1
1
1
6
3
2
2
3
1
1
1
6
3
2
2
3
1
1
1
6
3
2
2
3
1
1
1
6
3
2
2
3
1
1
1
6
3
2
2
3
1
1
1
6
3
2
2
3
1
1
1
6
3
2
2
3
1
1
1
7
3
2
2
3
1
1
1
7
3
2
2
3
1
1
1
7
3
2
2
3
1
1
1
7
2
2
2
3
1
1
1
7
2
2
2
3
1
1
1
7
2
2
2
3
1
1
1
7
2
2
2
3
1
1
1
7
2
2
2
3
1
1
1
7
2
2
2
3
1
1
1
7
2
2
2
3
1
1
1
7
2
2
2
3
1
1
1
7
2
2
2
3
1
1
1
7
2
2
2
3
1
1
1
7
2
2
2
3
1
1
1
7
2
2
2
3
1
1
1
7
2
2
2
3
1
1
1
7
2
2
1
3
1
1
1
8
2
1
1
3
1
1
1
8
2
1
1
3
1
1
1
8
2
2
2
3
1
1
1
8
2
1
2
3
1
1
1
8
2
1
2
3
1
1
1
8
3
1
2
3
1
1
1
8
3
1
2
3
1
1
1
8
3
1
2
3
1
1
1
8
3
2
2
3
1
1
1
8
3
2
2
3
1
1
1
8
3
2
2
3
1
1
1
8
3
2
2
3
1
1
1
8
3
2
2
3
1
1
1
9
3
2
2
3
1
1
1
9
3
2
2
3
1
1
1
10
3
2
2
3
1
1
1
10
3
2
2
3
1
1
1
10
3
2
2
3
1
1
1
10
3
2
2
3
1
1
1
11
3
2
2
3
1
1
1
11
3
2
2
3
1
1
1
11
3
2
2
3
1
1
1
11
3
2
2
3
1
1
1
11
3
2
2
3
1
1
1
11
3
2
2
3
1
1
1
12
3
2
2
3
1
1
1
12
3
2
2
3
1
1
1
12
3
2
2
3
1
1
1
13
3
2
2
3
1
1
1
14
3
2
2
3
1
1
1
15
3
2
2
3
1
1
2
15
3
2
2
3
1
1
2
15
3
2
2
3
1
1
2
14
3
2
2
3
1
1
2
14
3
2
2
2
1
1
2
14
3
2
2
2
1
1
2
14
3
2
2
2
1
1
2
14
3
2
2
2
1
1
2
15
3
2
2
2
1
1
2
15
3
2
2
2
1
1
2
16
4
2
2
2
1
1
2
16
4
2
3
2
1
1
2
16
4
2
3
2
1
1
2
16
4
2
3
3
1
1
2
16
4
2
3
3
1
1
2
16
4
2
3
4
1
1
2
16
4
2
3
6
1
1
2
16
4
2
3
6
1
1
2
16
4
2
3
6
1
1
2
16
4
2
3
6
1
1
2
17
4
2
4
7
1
1
2
16
4
2
4
7
1
2
2
16
4
2
6
7
4
2
2
16
4
2
6
7
4
2
3
16
4
2
6
7
4
2
3
16
4
2
6
7
5
2
3
16
4
2
6
8
5
2
3
16
4
2
6
8
5
2
3
16
4
2
6
8
5
2
3
16
4
2
6
9
5
3
3
16
4
2
6
9
5
4
3
16
4
2
6
9
5
4
3
16
4
2
8
10
5
4
3
16
4
2
11
10
6
5
3
16
4
2
11
10
11
8
4
15
4
2
11
13
11
8
4
15
4
2
11
13
11
9
4
16
4
2
12
14
18
9
5
16
4
2
12
14
23
9
5
15
4
2
12
14
26
11
5
15
4
2
12
15
28
12
6
16
4
3
13
15
28
12
6
15
4
3
14
16
33
13
6
16
4
3
14
17
37
16
6
16
4
3
16
19
38
16
6
15
5
3
16
20
38
16
6
15
5
3
16
20
38
18
6
15
5
4
18
20
38
20
6
14
5
4
18
23
39
20
7
14
5
4
20
25
42
24
7
13
5
4
20
25
43
25
7
13
6
4
20
25
44
25
8
14
6
4
20
25
44
25
8
14
6
5
23
31
47
25
9
14
7
5
24
31
47
29
9
15
7
5
26
35
47
31
9
15
7
5
26
35
49
32
9
15
8
5
32
35
49
32
10
15
8
5
32
36
52
36
11
15
9
5
33
37
54
40
11
14
10
5
36
37
56
41
11
14
10
5
38
38
56
44
11
14
10
6
39
38
58
44
12
15
10
6
39
38
59
44
12
15
10
6
41
40
59
46
12
15
10
6
41
40
59
46
12
15
10
7
43
40
59
46
12
15
10
7
43
40
59
46
13
17
10
7
43
41
60
46
13
18
10
7
44
41
60
47
13
17
10
7
45
41
61
50
13
17
10
7
45
41
61
52
13
17
10
7
45
42
61
53
14
18
10
7
45
42
62
54
15
18
11
7
45
42
63
54
15
19
11
7
48
43
63
54
15
19
11
7
49
46
63
55
15
19
11
7
50
46
65
55
15
19
11
7
50
46
66
55
15
19
11
7
50
47
66
55
15
19
11
8
51
47
67
55
15
19
11
8
51
48
67
55
16
20
11
8
51
48
68
56
16
20
11
8
51
48
69
56
16
21
11
8
51
48
70
56
16
21
11
8
51
47
70
55
16
21
11
8
51
47
70
56
16
22
11
8
52
47
69
57
16
23
11
8
52
48
68
57
16
23
11
8
52
48
67
57
18
23
11
8
53
48
66
57
17
23
11
8
53
48
67
57
17
23
11
8
53
48
65
58
18
23
11
8
53
49
63
57
18
23
11
8
53
48
63
57
18
23
11
8
54
48
63
57
18
23
11
8
54
48
63
57
19
23
11
8
54
48
63
57
20
23
11
8
54
47
63
57
20
23
11
8
53
47
61
55
20
23
11
8
53
47
62
55
20
23
11
7
54
47
62
55
19
23
11
7
54
47
63
55
19
24
11
7
52
44
60
56
20
24
11
7
53
44
61
54
20
23
11
7
52
41
61
53
20
23
10
7
51
41
62
53
20
23
10
7
48
41
62
53
20
24
10
7
48
41
60
51
20
24
9
7
48
40
58
48
21
24
8
7
45
40
57
47
20
24
8
7
44
40
58
46
20
24
8
7
43
40
56
48
20
24
8
7
43
39
55
48
20
24
8
7
42
38
55
46
20
24
8
6
41
38
55
46
20
23
8
6
39
37
55
46
20
23
9
6
40
39
56
46
21
22
9
8
43
43
56
46
20
22
9
8
42
42
57
46
20
22
9
8
41
42
55
42
20
22
9
8
41
42
55
40
20
22
9
8
41
41
55
38
20
21
9
8
41
41
55
38
19
21
9
8
41
41
54
38
20
21
9
8
38
41
55
38
20
20
9
8
37
38
55
37
20
21
9
8
36
38
53
37
20
21
9
8
36
38
52
37
20
21
9
8
36
37
52
37
20
21
9
8
35
37
51
37
20
22
9
8
35
36
50
38
20
23
9
8
35
35
49
37
20
23
9
8
34
35
48
37
20
21
9
8
34
35
45
37
20
21
9
8
34
36
46
37
20
21
9
8
34
36
46
36
20
21
9
8
33
36
45
35
20
20
9
8
33
34
44
34
20
20
9
8
32
34
46
34
19
20
9
8
31
34
45
34
19
19
9
8
31
34
43
33
19
19
9
8
32
34
44
32
19
19
9
8
31
32
43
32
18
19
9
8
31
32
43
32
18
19
9
8
29
33
43
31
18
19
9
8
29
33
43
31
17
19
8
8
29
32
43
31
17
19
8
8
29
31
43
31
17
19
8
8
29
31
44
31
17
19
8
8
28
31
41
31
17
20
8
8
28
31
41
30
17
20
8
8
29
32
40
30
17
18
8
8
29
32
40
29
16
18
8
8
27
32
39
29
16
18
8
8
27
32
39
29
16
19
8
8
27
32
36
29
16
19
8
8
27
32
36
28
15
18
7
7
27
31
37
28
15
18
8
7
27
31
37
28
14
18
7
7
28
32
37
28
14
18
7
7
28
31
34
25
14
18
7
7
28
31
34
24
14
17
8
7
28
31
34
24
14
17
8
7
28
31
34
24
14
17
8
7
28
31
36
23
14
17
8
7
28
31
36
24
14
18
8
7
27
29
35
22
13
17
7
5
23
23
35
23
13
17
7
5
22
23
33
23
13
18
7
5
22
23
35
23
13
18
6
5
22
23
35
23
13
18
7
5
22
22
34
24
13
18
6
5
22
22
34
24
14
18
7
5
22
22
33
24
13
19
6
5
22
21
32
24
13
19
6
5
21
21
32
24
13
19
6
5
21
22
32
23
13
19
6
4
21
22
35
23
13
18
6
4
20
22
36
23
13
18
6
4
20
22
36
22
12
17
6
4
20
22
36
22
12
15
6
4
20
22
36
22
12
15
6
4
19
22
36
22
12
15
6
4
19
22
38
23
12
15
7
4
19
21
38
23
12
16
7
4
19
21
38
23
12
16
7
3
19
21
38
23
12
17
7
3
19
21
38
23
12
17
7
4
19
21
37
23
12
17
7
4
20
21
37
23
12
17
7
4
20
22
37
23
12
17
7
4
18
22
38
23
13
16
7
4
17
22
39
23
13
16
7
4
17
22
38
23
13
17
7
4
18
21
38
24
13
17
7
4
19
22
38
24
13
17
7
4
19
21
38
24
13
17
7
4
19
22
38
24
13
17
7
4
19
22
37
24
13
17
7
4
20
21
38
24
13
17
7
4
19
21
37
24
13
17
7
4
18
19
38
25
13
17
7
4
19
19
38
25
13
17
7
4
19
19
39
25
13
18
7
4
18
19
39
25
13
18
7
4
18
20
39
25
13
18
7
3
18
19
39
25
13
18
7
3
18
19
38
26
13
17
7
3
18
19
38
25
13
17
7
4
17
19
37
25
13
17
7
4
17
19
37
25
13
17
7
4
17
19
38
25
12
17
7
4
16
20
38
24
12
17
7
4
16
19
38
25
12
17
7
4
16
19
36
25
12
17
7
4
16
19
36
25
12
17
7
4
16
19
36
25
12
17
7
4
16
19
37
24
12
17
7
4
16
19
39
24
12
16
7
3
16
19
37
24
12
16
7
3
16
19
37
27
12
16
7
3
16
19
37
26
12
16
7
3
16
19
37
26
11
16
6
4
16
19
37
26
11
15
7
4
17
18
37
25
11
15
7
4
17
18
37
25
11
15
6
4
17
18
36
26
11
15
6
4
17
17
34
26
11
15
6
4
17
18
33
25
11
15
6
4
17
18
33
25
11
15
6
3
17
18
33
25
11
15
6
3
17
17
33
26
11
15
6
3
17
17
33
26
11
15
6
3
17
17
31
25
11
16
6
3
17
18
31
26
11
15
6
3
17
18
31
27
11
14
6
3
16
20
32
28
11
14
6
3
16
20
32
28
11
15
5
3
16
21
32
28
11
14
5
3
16
21
32
28
11
14
5
3
16
20
33
28
11
15
5
3
16
20
31
28
10
15
5
3
16
19
31
28
10
15
5
3
16
19
31
28
10
15
5
3
16
19
31
28
9
15
5
2
14
19
31
28
9
15
5
3
14
19
31
28
9
15
5
3
15
19
31
28
10
15
5
3
15
19
31
28
10
15
6
3
15
19
32
28
10
14
5
3
15
19
32
29
10
14
5
2
15
19
33
28
10
14
5
2
15
18
33
28
11
14
5
2
15
18
31
28
11
13
5
2
15
18
31
28
11
12
5
2
15
17
30
29
11
12
5
2
15
17
30
29
11
14
6
3
15
17
31
28
12
15
6
3
16
18
31
28
12
15
6
3
16
18
31
28
12
15
6
3
15
18
31
28
12
15
5
3
15
19
30
28
13
15
6
3
15
18
30
28
13
15
6
3
15
18
30
28
13
15
6
3
15
18
30
28
13
15
6
3
15
18
30
28
13
15
6
3
14
18
30
28
13
15
6
3
14
19
30
28
13
15
6
3
14
19
27
28
14
16
6
3
15
19
28
28
14
16
6
3
15
19
28
26
14
16
6
3
14
19
29
26
14
16
6
3
14
19
29
26
14
16
6
3
15
20
29
26
14
16
6
3
15
20
29
26
14
16
6
3
16
21
29
26
14
16
6
3
16
20
29
25
14
16
6
3
16
21
29
26
14
17
6
3
16
20
29
25
14
17
6
3
16
20
30
25
14
18
6
3
16
20
31
25
14
18
6
3
16
20
31
25
14
18
6
3
16
20
31
26
14
17
6
3
16
20
32
26
14
17
6
3
16
20
33
27
14
17
6
3
17
20
32
26
14
17
6
4
17
18
32
25
14
17
6
4
17
17
32
25
14
18
6
4
17
17
32
25
14
18
6
4
17
17
31
25
14
18
6
4
17
17
31
25
14
18
6
4
17
17
31
26
14
17
6
4
17
17
31
25
14
18
6
4
17
18
31
25
14
18
6
4
17
18
31
25
14
18
6
4
18
18
33
25
14
18
6
4
18
17
33
25
14
18
6
4
17
18
33
25
13
18
6
4
17
18
33
25
13
18
5
4
17
18
32
27
13
18
5
4
17
19
32
27
13
18
5
4
20
19
31
26
13
18
6
4
20
19
32
27
13
18
6
4
20
19
31
27
13
18
6
4
20
19
31
27
13
18
6
4
20
19
34
26
13
18
6
4
20
20
34
26
12
17
6
4
20
20
34
26
12
16
6
4
20
19
34
25
11
16
6
4
20
20
34
26
11
16
6
4
21
19
35
27
12
16
6
4
21
19
35
27
12
15
6
4
21
19
35
26
12
15
6
4
21
19
37
26
12
16
6
4
21
20
38
26
12
17
6
4
21
20
37
26
11
16
6
4
22
20
37
26
11
16
6
4
22
19
36
26
11
16
6
4
22
19
36
28
10
16
6
4
21
19
37
28
12
16
6
4
21
19
37
28
12
16
6
5
22
19
37
29
12
16
6
4
22
18
37
29
11
16
6
5
22
18
38
31
11
16
6
5
22
18
39
32
11
16
6
4
20
18
39
32
12
16
6
5
21
18
40
32
12
16
6
5
21
18
40
31
12
16
6
4
20
18
40
31
12
17
6
4
20
18
39
32
11
16
6
4
20
18
38
32
11
16
6
4
20
18
39
32
12
16
6
4
20
18
39
31
12
17
6
5
21
19
37
31
12
17
6
5
21
20
37
30
11
17
5
4
20
20
37
31
11
17
5
5
20
20
37
31
11
17
5
5
21
20
38
31
12
16
5
5
21
20
37
31
12
16
5
5
21
20
37
31
12
16
5
4
21
20
37
31
12
16
5
4
21
20
37
31
12
16
5
4
21
20
37
31
12
16
5
4
21
19
37
31
12
16
5
4
21
20
37
31
12
16
5
4
20
20
35
31
12
15
5
4
20
20
35
31
12
16
5
4
20
20
35
31
12
15
5
4
20
20
35
31
12
15
6
4
20
20
35
29
12
15
6
4
20
18
35
29
12
15
6
4
17
18
36
29
12
15
6
4
17
18
36
29
12
15
5
4
17
18
36
29
12
15
5
4
17
18
36
28
12
15
5
4
16
17
34
28
12
15
5
4
16
17
33
28
12
15
5
4
16
17
33
28
12
15
5
4
16
17
33
28
12
14
5
4
16
16
32
27
11
14
5
4
15
16
32
26
11
14
5
4
15
16
32
26
10
14
5
4
15
16
32
26
10
14
5
3
15
16
30
26
10
14
5
3
15
15
28
26
10
13
5
3
15
15
28
26
10
13
5
3
14
15
28
26
10
13
5
3
14
15
28
25
10
13
5
3
14
14
28
24
10
13
5
3
14
14
27
24
9
12
5
3
13
14
27
23
8
12
4
3
13
14
24
22
8
12
4
3
13
14
24
22
8
12
4
3
13
14
21
19
8
12
4
3
12
13
20
18
8
12
5
3
12
13
20
18
7
11
6
3
11
13
18
18
7
12
6
3
11
13
18
18
7
11
6
3
11
13
18
18
7
10
6
3
11
13
18
17
7
10
6
3
11
13
18
17
7
10
6
3
11
12
16
16
7
10
6
3
11
12
16
16
6
9
6
3
9
11
16
16
6
8
6
3
8
8
15
14
6
8
6
3
8
8
14
12
6
7
6
3
8
8
14
11
6
8
6
3
8
7
14
11
5
7
6
3
7
7
14
11
5
7
6
3
6
7
14
10
4
7
6
3
5
7
13
9
4
7
6
3
5
7
13
9
4
7
7
3
5
7
13
9
4
6
6
3
5
7
13
9
4
6
7
3
4
6
13
8
4
6
7
3
4
6
13
8
4
6
7
3
3
4
13
7
4
6
7
3
3
4
11
6
4
7
7
3
3
4
10
4
2
6
7
3
3
3
9
4
2
6
7
3
3
3
9
3
2
6
7
3
3
3
5
3
2
6
7
3
3
3
4
3
2
7
7
3
3
3
3
2
2
8
7
3
3
3
3
2
2
8
7
3
3
3
3
2
2
8
7
3
3
3
3
2
2
9
7
4
3
3
3
2
3
11
7
4
3
2
3
2
3
11
7
4
2
2
3
2
3
11
7
4
2
2
2
2
4
11
7
4
2
2
2
2
4
12
7
4
2
2
2
2
4
13
7
4
2
2
2
2
4
13
7
4
3
2
2
2
4
13
7
4
2
2
2
2
4
14
7
4
2
2
2
2
4
14
8
4
2
2
2
2
5
14
8
4
2
2
1
2
5
14
8
4
2
2
1
2
5
14
8
4
2
2
1
2
5
14
8
4
2
2
1
2
5
15
8
4
2
2
1
2
5
16
8
5
2
2
1
2
5
17
8
4
2
2
1
2
5
17
7
5
2
2
1
2
5
17
7
5
2
2
1
2
5
17
7
5
2
2
1
2
5
19
7
5
2
2
1
2
5
19
7
5
2
2
1
2
5
19
7
5
3
2
1
2
5
19
6
5
3
3
1
2
5
19
6
5
3
3
1
2
5
19
6
5
3
4
1
2
5
20
6
5
3
4
1
2
5
20
6
5
3
4
2
2
6
21
6
5
3
4
2
2
6
22
6
5
3
4
2
2
6
22
6
5
3
4
2
2
6
22
7
5
3
4
2
2
6
22
7
5
3
4
2
2
6
22
6
5
3
4
2
2
6
22
6
5
3
4
1
2
6
22
6
5
3
4
1
2
6
22
6
5
3
4
2
2
6
23
6
5
3
4
2
2
6
23
6
5
3
4
2
2
6
22
6
5
3
4
2
2
6
23
6
5
3
4
2
2
6
23
6
5
3
4
2
3
6
23
6
5
3
4
2
3
6
24
6
5
3
4
2
3
6
24
6
5
3
4
2
3
6
24
6
5
3
4
2
2
6
23
6
5
3
4
2
2
6
24
6
5
3
4
2
3
6
24
6
5
3
4
2
3
5
24
6
4
3
4
1
2
5
23
6
4
3
4
1
2
5
23
6
4
3
4
1
2
5
23
6
4
3
4
1
2
5
23
6
4
3
4
1
2
5
23
6
4
3
4
1
2
5
23
6
4
3
4
1
2
5
23
6
4
3
4
1
3
5
23
6
4
3
4
1
3
5
23
6
4
3
4
1
3
4
24
6
4
3
4
1
2
4
24
6
4
3
4
1
3
5
24
6
4
3
4
1
3
4
24
6
4
3
4
1
2
4
23
6
4
3
4
1
2
4
23
6
4
3
4
1
2
4
22
6
4
3
4
1
2
4
22
6
4
3
4
1
2
4
22
6
4
3
4
1
2
4
22
6
4
3
4
1
2
4
22
6
4
3
5
1
2
4
20
6
4
3
5
1
2
4
20
6
4
3
5
1
2
4
20
5
4
3
5
1
2
4
20
5
4
3
4
1
2
4
20
5
4
3
4
1
2
4
20
5
4
3
4
1
2
4
19
5
4
3
4
1
2
4
19
5
4
3
4
1
2
4
17
5
4
3
4
1
2
4
17
5
4
3
4
1
2
4
17
5
4
3
4
1
2
4
17
5
4
3
4
1
2
4
17
5
4
3
4
1
2
4
17
5
4
3
4
1
2
4
17
5
4
3
4
1
2
4
17
5
4
3
4
1
2
4
17
5
4
3
4
1
2
4
16
5
4
3
4
1
2
4
16
5
4
3
4
1
2
4
17
5
4
3
4
1
2
4
16
5
4
3
4
1
2
4
16
5
4
3
4
1
2
4
15
5
4
3
4
1
2
4
15
5
4
3
4
1
2
4
15
5
4
3
4
1
2
5
15
5
4
3
4
1
2
5
15
5
4
3
4
1
2
5
15
5
4
3
4
1
2
5
14
5
4
3
4
1
2
5
14
5
4
3
4
1
2
5
15
5
4
3
4
1
2
5
14
5
4
3
4
1
2
5
14
5
4
3
4
1
2
5
14
5
4
3
4
1
2
5
14
5
4
3
4
1
2
4
13
5
4
3
4
1
1
4
12
5
4
3
4
1
1
4
11
5
4
3
4
1
1
4
11
5
4
3
4
1
1
4
10
5
4
3
4
1
1
4
10
5
4
3
4
1
1
4
10
5
3
3
4
1
1
4
10
5
3
3
4
1
1
4
10
5
3
3
4
1
1
4
10
5
3
3
4
1
1
4
10
5
3
4
4
1
1
4
10
5
3
5
4
2
1
4
10
4
3
5
5
3
1
4
10
4
3
5
4
3
2
4
10
4
3
5
4
3
2
4
10
4
3
5
4
3
2
4
10
4
3
5
4
3
2
4
9
4
3
5
4
3
2
4
9
4
3
6
4
3
2
4
9
4
3
6
4
3
2
4
9
4
3
6
4
3
2
4
9
4
3
6
5
4
2
4
9
4
3
6
5
5
4
4
9
4
3
7
5
7
5
4
9
4
3
7
5
8
5
3
9
4
3
7
6
9
5
3
9
4
3
7
6
9
5
3
8
4
3
7
6
10
6
3
8
4
3
8
6
10
6
4
8
4
3
8
6
10
6
4
8
4
3
8
7
11
7
4
8
4
3
8
7
11
7
4
8
4
3
8
7
11
7
4
8
4
2
8
8
11
7
3
7
4
2
8
9
11
8
4
7
4
2
8
10
12
9
4
7
4
2
8
11
12
10
4
7
4
2
9
13
13
10
4
7
4
2
10
13
16
11
4
6
4
2
10
14
21
16
4
6
4
2
11
14
24
16
4
6
4
2
11
14
24
18
4
6
4
2
12
16
28
19
5
6
5
2
12
16
28
19
4
7
5
3
16
16
28
21
5
6
4
3
16
17
28
21
5
6
5
3
17
18
31
21
5
6
5
3
18
19
31
23
5
6
5
3
18
19
34
24
6
6
5
4
23
22
34
24
6
7
5
5
26
23
34
25
6
7
5
5
26
23
35
25
6
7
5
5
27
23
35
25
7
7
5
5
28
24
35
27
7
8
6
6
29
25
35
27
7
8
6
6
29
25
36
29
7
8
6
6
30
25
36
29
7
8
6
6
30
26
37
30
7
8
6
6
31
26
38
35
8
8
6
6
31
26
41
35
8
9
6
6
31
26
44
35
9
11
6
6
31
28
45
38
9
11
6
6
33
30
45
40
11
16
7
6
37
31
45
41
11
17
7
7
37
31
45
42
13
18
9
7
39
32
45
42
13
18
9
7
41
32
46
42
14
18
9
8
42
32
48
44
15
21
9
8
42
32
51
45
15
21
9
8
42
33
51
45
16
21
9
8
42
33
52
46
16
21
9
8
44
33
53
46
16
21
9
9
47
35
53
46
17
21
9
9
47
36
53
46
17
21
10
9
47
39
53
46
17
21
10
9
48
40
53
46
17
21
10
9
49
40
53
47
17
21
10
9
49
40
53
47
18
22
10
9
49
40
53
47
18
22
10
9
49
41
53
47
17
23
10
9
49
41
53
47
18
25
10
9
50
41
53
48
18
26
11
9
50
41
53
48
18
26
11
9
50
41
54
48
18
26
11
9
50
41
54
49
18
26
11
9
50
42
55
48
18
27
11
9
51
42
55
48
18
27
11
9
51
41
55
49
19
27
11
9
51
41
54
49
19
27
11
9
51
41
53
48
19
27
11
9
51
41
51
48
19
27
12
9
52
41
52
47
19
27
11
9
52
41
50
47
18
27
12
9
52
42
50
47
18
27
12
9
51
42
51
47
18
27
12
9
51
41
51
47
18
27
11
9
50
41
49
48
18
28
12
9
50
41
49
48
19
28
12
9
50
42
48
48
19
28
12
9
48
40
48
48
19
28
12
9
47
40
48
48
19
28
12
9
47
40
48
49
19
28
12
9
46
39
48
49
19
28
12
8
46
39
48
48
19
27
12
8
45
38
48
48
19
27
12
8
45
39
48
47
19
27
12
8
44
39
48
48
19
27
12
8
44
39
48
48
19
27
12
8
44
39
47
44
19
27
12
8
44
39
47
44
19
27
12
8
44
39
44
44
19
27
12
8
44
38
46
42
19
27
12
8
42
36
46
41
19
25
12
8
40
36
46
39
19
25
12
8
39
36
46
40
18
24
11
8
38
35
46
40
18
24
11
8
36
35
47
39
17
24
11
7
35
36
47
37
16
22
11
7
35
36
44
36
16
23
11
7
35
35
44
37
15
23
11
7
35
36
44
36
15
23
11
6
33
35
42
36
15
23
11
6
29
33
41
36
15
23
11
6
28
33
42
36
15
23
11
6
29
29
42
36
15
26
11
6
26
29
43
35
15
26
11
6
25
29
44
34
15
26
11
6
24
28
44
34
14
26
11
6
24
27
44
34
14
27
10
6
24
27
45
35
14
26
10
6
24
27
45
36
14
24
10
6
24
27
46
34
14
23
9
5
23
27
47
34
14
24
9
5
23
28
47
34
14
24
9
5
23
27
46
34
14
23
9
5
22
25
45
34
14
23
9
5
21
25
45
34
14
23
9
5
20
25
45
33
14
23
9
5
20
25
45
32
14
23
9
5
20
25
45
32
14
23
9
5
19
26
45
32
13
24
9
5
19
25
47
33
14
24
9
5
18
25
46
32
14
24
8
5
18
24
46
32
14
24
8
5
18
24
46
31
13
24
9
5
19
24
47
32
14
24
9
5
19
24
47
32
14
23
9
5
19
22
47
30
13
24
8
5
18
22
47
30
13
24
8
5
19
22
48
30
13
24
8
5
19
22
49
29
13
24
8
5
19
22
49
28
13
24
8
5
19
22
49
28
13
24
8
5
19
22
49
28
12
24
8
5
19
23
49
28
12
25
8
5
20
23
48
30
12
26
8
5
20
22
47
29
12
26
8
5
20
22
47
30
12
26
8
5
19
22
47
30
12
26
8
5
20
22
45
29
12
27
8
5
19
22
46
29
12
27
8
5
19
21
43
29
12
26
8
5
18
21
43
29
10
25
7
4
18
20
43
30
10
25
7
4
19
20
43
29
10
25
7
4
19
21
43
29
10
25
7
4
19
21
41
29
10
25
7
4
19
19
39
29
10
25
7
4
19
19
39
29
9
24
7
4
19
19
39
28
9
24
7
4
19
20
40
28
9
24
7
4
19
19
40
28
9
24
7
4
19
19
40
28
9
24
7
4
19
19
40
28
9
24
7
4
19
20
39
28
9
21
7
4
19
19
38
29
9
21
7
4
19
19
36
28
9
20
7
4
19
19
36
28
9
20
7
4
19
19
37
28
9
20
7
4
19
19
36
27
10
19
7
4
19
18
35
27
10
19
7
4
19
18
35
26
10
19
7
4
19
19
33
26
10
18
7
4
19
18
33
27
10
18
7
4
20
18
33
27
10
18
7
4
19
18
33
27
10
18
7
4
19
18
33
27
10
18
6
4
19
18
34
27
10
18
6
4
21
18
34
28
10
18
6
4
23
18
34
28
10
18
6
4
23
17
34
28
10
17
6
4
22
17
32
27
10
17
6
4
22
17
32
28
10
17
6
4
22
17
32
27
11
17
6
4
22
17
31
27
11
17
5
4
22
17
31
25
11
17
5
3
22
17
31
27
11
17
5
3
22
17
32
27
11
16
5
3
22
17
32
27
11
16
5
3
21
17
29
27
11
17
5
3
21
18
30
27
11
17
5
3
22
18
30
26
11
17
5
3
21
18
30
26
11
17
5
3
21
18
30
27
11
16
5
3
21
16
29
26
11
15
5
3
20
16
29
25
11
13
5
3
20
16
29
24
11
13
5
3
20
16
29
23
11
13
5
3
21
16
30
24
11
12
5
3
21
16
30
24
11
12
5
3
21
16
29
23
11
12
5
3
21
17
29
24
11
12
4
3
21
17
29
23
11
12
5
3
21
17
28
22
12
12
5
3
19
17
28
21
12
12
5
3
19
16
28
21
12
12
5
3
20
17
28
21
12
12
5
3
20
17
28
21
12
12
5
3
20
16
28
22
12
12
5
3
20
16
28
22
11
12
5
3
20
16
28
22
12
12
5
4
20
16
28
23
12
12
5
3
21
17
27
24
12
12
5
3
21
17
27
24
12
12
5
3
21
16
28
24
12
12
5
3
21
16
28
23
12
11
5
3
21
16
28
24
12
11
5
3
21
16
28
24
12
11
5
3
21
16
27
24
12
11
5
3
21
18
28
24
11
11
5
3
21
18
28
24
11
11
5
3
20
17
28
24
11
11
5
3
20
17
28
24
11
11
5
3
20
17
28
24
11
11
6
4
20
17
28
24
11
11
6
3
20
17
28
24
11
11
6
4
20
17
28
24
11
11
6
4
20
16
28
24
11
11
6
4
18
16
29
23
11
11
6
3
16
16
29
23
11
11
6
3
16
17
28
23
11
11
6
3
16
16
28
23
11
11
6
3
16
16
29
23
11
10
5
3
16
17
29
23
10
10
5
3
16
16
29
23
10
10
6
3
16
16
30
23
10
10
6
3
16
16
30
22
10
11
5
3
16
16
30
22
10
10
5
3
16
16
30
22
10
11
6
3
16
16
29
22
10
9
5
3
15
15
27
22
10
9
5
3
15
15
27
22
10
9
5
3
15
15
27
22
9
9
5
3
16
15
27
22
9
9
5
3
15
16
27
22
9
9
5
3
16
15
27
21
9
9
5
3
15
15
27
21
9
10
6
3
15
15
28
21
9
10
6
3
15
16
28
21
9
10
5
3
15
15
27
21
9
10
5
3
15
15
27
21
9
10
5
3
15
15
27
22
9
9
5
3
15
15
27
22
9
9
5
3
15
15
27
22
9
9
6
3
15
14
27
22
9
9
5
3
14
14
27
22
9
9
5
3
14
14
26
22
9
9
5
3
14
15
27
22
9
9
6
3
13
15
27
21
9
9
6
3
13
15
27
21
9
9
5
3
12
15
26
20
9
9
5
3
12
16
26
19
9
9
5
3
11
15
27
20
9
9
5
3
11
15
26
20
9
9
5
3
11
15
26
20
9
9
5
3
11
15
26
21
9
9
6
3
11
15
27
20
8
9
6
3
11
15
27
21
8
9
6
3
11
15
26
20
9
9
6
3
11
13
25
20
9
9
6
3
11
13
25
20
9
9
6
3
11
13
26
19
9
9
6
3
11
13
26
19
9
9
6
3
11
13
26
19
9
9
5
2
12
13
25
19
9
9
5
2
12
13
25
19
9
9
5
2
12
13
25
20
9
9
5
2
12
13
23
20
9
9
5
2
12
14
22
20
9
10
5
2
12
13
22
21
9
10
5
3
13
13
22
21
9
9
5
3
13
13
23
20
9
10
5
3
13
13
22
20
9
10
5
3
13
13
22
21
9
10
6
4
13
13
22
21
9
9
5
4
13
13
21
21
9
10
5
4
13
13
20
21
9
9
5
4
13
13
20
21
9
9
5
4
13
13
20
25
9
9
6
4
14
13
20
24
9
9
6
4
14
13
20
27
9
9
6
4
14
14
22
27
9
9
6
4
13
13
23
27
10
9
6
4
13
13
23
28
10
9
6
4
14
13
23
28
10
9
6
4
14
14
24
28
10
9
6
4
14
14
24
29
10
8
6
4
13
15
23
29
10
8
6
4
13
15
28
28
10
8
6
4
13
15
28
28
10
8
6
4
13
15
28
28
9
8
6
4
13
15
29
28
9
8
6
4
13
15
29
28
9
8
6
4
13
16
29
28
10
8
6
4
14
16
29
28
10
8
6
4
14
16
29
28
9
8
6
4
14
16
29
28
10
8
7
4
14
15
29
27
10
8
7
4
14
15
29
27
10
9
7
4
14
16
29
27
10
8
7
4
14
16
29
28
10
9
7
4
14
15
29
28
10
8
7
4
14
15
29
27
9
8
7
4
14
15
29
27
9
8
7
4
15
15
29
27
9
8
7
4
15
15
30
28
9
8
7
4
15
15
30
28
9
8
7
4
15
15
30
28
9
9
7
4
15
15
30
29
9
9
6
4
15
15
30
29
9
9
7
4
15
15
32
29
9
9
7
4
15
15
31
29
9
9
7
4
15
15
31
29
9
9
7
4
15
15
31
30
9
9
7
4
15
15
31
30
8
9
7
4
15
15
31
30
8
9
7
4
15
15
32
30
8
9
7
4
15
15
33
29
8
9
7
4
14
15
33
30
8
9
7
4
14
15
33
29
8
9
7
4
13
15
33
29
8
9
7
4
13
15
33
29
8
9
6
4
13
15
33
29
8
9
6
4
13
15
33
29
8
9
6
3
13
15
33
29
8
9
6
3
13
15
32
28
8
9
6
3
13
15
32
28
8
8
6
3
13
15
32
28
7
8
6
3
13
15
32
25
7
8
6
3
13
15
32
25
7
8
6
3
13
15
33
23
7
9
6
3
13
14
31
23
7
9
6
3
13
14
30
22
6
8
5
3
12
14
30
21
6
8
5
3
12
14
30
21
6
8
5
3
12
13
29
21
6
8
5
3
12
13
29
20
6
8
5
3
11
12
29
20
6
8
5
3
11
12
24
20
6
8
5
3
11
12
24
20
6
8
5
3
11
12
24
19
6
8
5
3
11
11
24
19
6
8
4
3
11
11
23
19
5
8
4
3
11
10
23
19
5
8
4
3
10
10
23
19
5
8
4
3
10
10
23
19
5
8
4
3
10
10
23
19
5
8
3
3
10
9
22
19
5
8
3
3
10
9
22
19
4
8
3
2
9
8
21
19
4
8
3
2
9
8
21
18
4
8
4
2
9
8
21
18
4
8
4
2
9
8
21
18
4
8
4
2
8
8
21
18
4
8
4
2
8
8
20
17
4
7
4
2
8
8
20
16
4
7
5
2
7
8
19
15
4
7
5
2
7
8
19
15
3
7
5
2
7
8
18
13
3
7
5
2
7
8
18
12
3
6
5
2
7
8
16
12
3
6
5
3
7
8
16
12
2
5
5
3
7
7
16
12
2
5
6
3
6
6
15
8
2
5
6
3
6
6
15
8
2
5
7
3
5
6
15
8
2
5
7
3
5
6
14
8
2
5
7
3
5
6
10
8
2
5
7
3
5
6
9
6
2
5
7
3
5
6
8
6
2
5
7
3
5
5
8
6
2
5
7
3
5
4
8
6
2
6
8
3
4
4
7
5
2
5
8
3
4
4
7
5
2
5
9
3
4
4
6
5
2
7
9
3
3
3
6
5
2
9
9
3
3
3
6
5
2
10
10
3
3
3
5
4
2
10
12
3
3
3
5
4
2
10
12
3
3
3
5
4
2
11
12
3
3
3
4
4
3
11
12
3
3
3
4
3
3
12
12
3
3
3
4
3
3
12
12
3
3
3
4
3
3
14
12
3
3
3
3
3
3
14
12
3
3
2
3
3
3
14
13
3
3
2
3
4
3
17
13
4
3
2
2
4
4
19
13
5
4
3
2
4
5
21
13
5
4
3
2
4
5
21
13
5
3
3
2
4
5
21
14
5
3
3
2
4
5
21
14
5
3
3
2
4
5
21
14
6
3
3
2
4
5
22
14
6
3
3
2
4
5
22
14
6
3
3
2
4
5
22
14
6
3
2
2
4
5
22
14
6
3
2
2
4
6
24
14
6
3
3
2
4
6
25
14
6
3
3
2
4
6
25
14
6
3
3
2
4
6
25
14
6
3
3
2
4
6
25
14
6
3
3
2
4
6
25
14
6
3
3
2
4
6
26
14
6
3
3
2
4
6
27
15
6
3
3
2
4
6
27
14
6
3
3
2
4
6
27
14
6
3
3
2
4
6
28
15
6
4
3
2
4
6
28
15
6
4
4
2
4
6
29
15
6
4
4
2
4
6
29
15
6
5
4
2
4
6
29
15
6
5
4
2
4
6
29
15
6
5
4
2
4
6
29
15
6
5
4
2
4
6
29
14
6
5
4
2
4
6
29
14
6
5
4
2
4
6
29
14
6
5
4
2
4
7
29
15
6
5
4
2
4
7
29
14
6
5
4
2
4
7
29
14
6
5
4
2
4
7
29
14
6
5
4
2
4
7
29
14
6
5
4
2
4
7
29
14
6
5
4
2
4
7
29
13
6
5
4
2
4
7
29
13
6
5
4
2
4
7
29
13
6
5
4
2
4
6
28
13
6
5
4
3
4
6
28
11
6
5
4
3
4
6
28
10
6
5
4
3
4
6
28
10
6
5
4
3
4
6
28
10
6
5
4
3
4
6
28
10
6
5
4
3
4
6
28
10
6
5
4
3
4
6
28
10
6
5
4
3
4
6
28
10
6
5
4
3
4
6
27
10
6
5
4
3
3
6
26
10
6
5
4
3
3
6
24
9
5
4
4
3
3
5
23
10
5
4
4
3
3
5
23
10
5
4
4
3
3
5
23
9
5
4
4
3
2
5
25
9
5
5
4
3
2
5
25
9
5
4
4
3
2
5
25
9
5
5
4
3
2
5
25
9
4
5
4
3
2
5
25
9
4
5
4
3
2
5
25
9
4
5
4
3
2
4
24
9
4
5
3
3
2
5
24
9
4
5
3
3
2
5
24
9
4
5
3
3
2
5
24
9
4
5
3
3
2
5
24
9
4
5
3
3
2
5
23
9
4
5
3
3
2
5
23
9
4
5
3
3
2
5
22
8
4
4
3
3
2
5
22
8
4
4
3
3
2
5
22
8
4
4
3
3
2
4
21
8
4
3
3
3
2
4
21
7
4
3
3
2
2
4
20
7
4
3
3
2
2
4
20
7
4
3
3
2
2
4
20
6
3
3
3
2
2
4
20
6
3
3
3
2
2
4
20
6
3
3
3
2
2
4
20
6
3
3
3
2
2
4
20
6
3
3
3
2
2
4
21
6
3
3
3
2
2
4
21
6
3
3
3
2
2
4
21
6
3
3
3
2
2
4
21
5
3
3
3
2
2
4
21
5
3
3
3
2
2
4
20
5
3
3
4
2
2
4
20
5
3
3
4
2
2
4
20
5
3
3
4
2
2
4
20
5
3
3
4
2
2
4
20
5
3
3
4
2
2
4
20
5
3
3
4
2
2
4
20
5
3
3
4
2
2
4
20
5
3
3
4
2
2
4
20
5
3
3
4
2
2
4
20
5
3
3
4
2
2
4
20
5
3
3
4
2
2
4
18
5
3
3
4
2
2
4
18
5
2
3
4
2
2
4
18
5
2
3
4
2
2
4
18
5
2
3
4
2
2
4
18
5
2
3
4
2
2
4
18
5
2
3
4
2
2
4
18
5
2
3
5
2
2
4
18
5
2
3
5
2
2
4
17
4
2
3
5
2
2
3
13
3
2
3
5
2
2
3
13
3
2
3
5
2
2
3
13
3
2
3
5
2
2
3
13
3
2
3
5
2
2
4
13
3
2
3
5
2
2
4
13
3
2
3
5
3
2
4
11
2
2
3
5
3
2
3
10
2
2
3
5
3
2
3
10
2
2
3
5
4
4
3
9
2
2
3
6
4
5
3
9
2
2
3
6
7
5
3
9
2
2
3
6
7
6
3
9
2
2
4
6
14
6
3
9
2
2
5
6
19
6
3
9
2
2
7
8
19
6
3
9
3
2
7
9
19
7
3
9
3
2
10
9
20
7
3
9
3
2
10
9
20
7
3
9
3
2
10
10
20
9
3
9
3
2
11
11
20
10
4
9
3
2
12
11
21
12
5
9
3
2
12
11
21
12
5
9
3
2
12
11
21
13
5
9
3
2
12
12
22
13
5
8
3
2
12
14
22
18
5
6
3
2
12
15
23
18
5
6
4
2
13
16
24
19
5
6
5
2
14
16
27
19
5
7
5
2
14
16
29
19
5
7
5
3
14
16
30
19
6
7
5
3
14
17
33
21
6
7
5
3
16
17
34
21
6
7
5
4
19
19
35
22
7
8
5
4
19
20
36
22
7
8
5
4
19
20
39
23
7
8
6
4
19
20
40
23
7
8
7
4
21
20
44
23
7
8
7
4
22
21
44
23
7
8
7
4
22
24
46
23
7
9
8
5
22
24
46
24
8
9
8
5
24
25
47
26
8
9
8
6
24
26
48
29
8
9
9
6
25
26
49
29
8
9
9
6
25
26
49
31
8
9
9
6
26
26
49
36
8
10
9
6
27
27
51
39
9
10
10
6
28
27
51
40
11
11
10
6
28
28
51
41
11
11
10
6
29
28
51
41
12
11
10
6
32
29
53
41
12
11
10
6
36
31
53
41
12
17
10
6
37
33
54
41
12
19
10
6
38
33
54
42
12
19
11
6
38
33
55
42
12
19
11
7
39
33
55
42
12
20
11
7
40
34
56
46
13
20
11
7
40
34
56
46
13
20
11
7
40
35
56
46
13
20
11
7
40
35
56
48
13
20
11
7
41
35
57
49
13
20
11
7
42
36
56
49
13
21
11
7
42
36
56
49
13
21
11
7
42
38
55
49
13
21
11
7
44
41
55
49
13
21
11
7
44
40
56
51
13
22
11
7
44
41
57
51
13
22
11
7
44
41
57
51
14
22
11
7
44
42
57
51
14
22
11
7
44
42
57
51
14
23
11
7
44
42
57
52
14
23
11
7
44
42
57
52
14
23
11
7
44
42
58
52
14
23
11
7
45
42
59
52
14
23
11
7
45
42
59
53
14
23
11
7
45
41
60
52
14
24
11
7
45
41
59
51
14
24
11
7
45
41
59
51
14
24
11
7
45
41
58
51
14
24
11
7
45
41
57
51
14
24
11
7
45
41
57
51
14
24
11
7
46
41
55
51
14
24
10
7
45
41
56
52
14
25
10
7
44
40
56
52
14
25
10
7
45
41
56
52
14
25
11
7
45
42
55
51
14
25
10
7
45
42
55
52
15
25
10
7
44
42
52
52
15
25
10
7
44
41
52
52
15
25
10
7
44
40
52
53
15
26
9
6
44
40
52
53
15
26
9
6
43
39
51
55
15
26
9
6
43
39
51
54
15
27
9
6
43
39
50
54
16
27
9
6
43
40
50
52
16
27
9
6
43
40
50
50
16
27
9
6
42
40
48
48
15
27
8
6
42
40
48
47
15
26
8
6
42
39
49
46
15
26
8
6
42
39
50
46
16
26
8
6
40
39
49
46
16
27
8
6
36
37
49
47
15
24
8
6
35
36
47
47
15
22
8
6
34
36
48
47
15
22
8
6
34
36
47
47
15
22
8
6
33
37
47
47
15
22
7
6
32
35
47
43
15
22
8
6
32
35
47
44
16
23
8
6
32
35
48
44
16
24
9
6
32
35
48
42
17
24
9
6
31
35
47
41
17
24
9
6
31
35
48
41
17
23
9
6
31
36
48
41
17
24
9
6
31
33
48
41
17
24
9
6
28
30
46
40
17
24
9
6
28
30
47
39
17
24
9
6
28
29
45
38
17
24
9
6
28
29
45
38
17
24
9
6
27
27
46
38
17
23
9
6
26
26
46
38
17
22
9
6
26
26
46
37
17
22
9
6
26
26
46
37
17
22
9
6
26
26
46
38
17
22
9
6
27
26
44
39
17
22
9
6
27
27
43
38
17
22
9
6
28
27
44
38
17
22
9
6
29
27
44
38
17
25
9
6
28
27
44
38
17
25
9
6
27
27
44
38
17
25
9
6
27
27
44
38
17
26
9
6
27
27
43
38
17
25
9
6
27
26
43
37
18
25
10
6
27
27
42
36
18
25
10
6
26
26
42
36
18
24
10
6
25
24
42
36
18
25
10
6
25
23
40
37
18
25
10
6
25
24
40
36
17
25
9
6
25
23
40
36
17
25
9
6
25
24
39
36
17
24
9
6
25
24
38
35
17
24
9
6
25
24
38
33
17
24
9
6
25
24
37
29
17
24
9
6
25
24
37
29
17
23
9
5
25
24
37
29
16
23
9
5
24
22
37
30
16
23
9
5
24
22
37
29
16
23
9
6
25
21
37
31
16
23
9
5
25
22
37
31
16
23
9
5
25
22
36
30
15
23
9
5
25
22
35
30
15
22
9
5
25
22
34
30
14
21
9
5
25
22
34
29
14
21
9
5
25
21
35
29
15
22
9
5
25
21
35
29
14
22
9
5
25
21
36
33
15
22
9
5
25
20
36
32
15
22
9
5
25
20
35
33
15
21
9
5
25
20
35
32
15
21
9
5
25
21
34
32
14
20
8
5
25
20
34
32
14
19
8
5
25
20
34
32
14
19
7
4
23
19
34
32
14
19
7
4
23
18
34
32
13
19
7
4
23
18
34
32
13
19
7
4
23
19
34
32
14
18
7
4
23
19
33
32
14
19
7
4
23
19
33
32
14
19
7
4
23
19
33
32
13
19
7
4
23
19
32
32
13
19
7
4
23
19
31
32
13
18
7
4
23
19
31
32
13
18
7
4
24
19
31
31
13
18
7
4
24
20
30
30
13
18
7
4
22
19
30
29
12
18
7
4
22
18
30
28
12
18
7
4
22
18
28
28
12
18
7
4
21
19
29
29
12
14
7
4
21
19
29
29
12
14
7
4
21
19
32
29
13
14
7
4
21
19
32
29
13
13
7
4
21
19
32
29
13
13
7
4
21
19
32
29
12
12
6
4
21
19
32
29
12
13
6
4
21
19
32
28
12
12
6
4
21
19
32
29
12
12
6
4
21
19
32
28
12
12
6
4
21
19
31
28
12
12
6
4
21
19
31
29
12
12
6
4
20
19
31
29
12
12
6
4
20
18
31
29
12
12
6
4
20
18
31
29
12
12
6
4
20
18
31
29
12
12
6
4
20
18
31
29
12
12
6
4
21
18
31
29
12
12
6
4
21
18
31
27
12
12
6
4
21
19
31
27
12
12
6
4
20
19
31
25
11
12
5
4
17
17
31
26
11
12
5
3
18
17
31
27
11
13
5
3
18
17
32
27
11
13
5
3
17
17
32
27
12
13
5
4
17
17
32
27
12
13
5
4
17
17
32
27
12
13
5
4
19
19
31
27
12
13
5
4
19
19
30
22
12
13
5
4
19
19
30
22
11
13
5
4
19
19
31
22
11
14
5
4
20
19
31
22
11
14
5
4
20
18
31
22
11
14
5
4
20
18
30
23
11
14
5
4
20
18
30
23
11
14
5
4
20
18
30
23
11
14
5
4
20
18
30
23
11
14
5
4
20
18
29
23
11
14
5
4
20
16
29
23
10
14
5
4
21
16
31
23
10
13
5
4
21
17
31
24
10
14
5
4
21
17
31
23
11
14
5
4
21
17
31
24
11
14
5
4
24
19
31
24
11
14
5
4
24
19
31
24
11
14
5
4
24
18
32
24
11
14
5
4
24
18
32
23
11
15
6
4
24
18
31
23
11
15
6
4
23
18
31
23
11
15
6
4
22
18
31
23
10
15
6
4
22
18
30
23
10
15
6
4
22
18
31
23
10
15
5
4
22
18
27
24
10
15
5
4
22
18
28
24
10
15
5
4
22
18
28
24
10
15
5
4
22
18
28
25
10
15
5
4
22
18
28
25
10
15
5
4
22
18
28
25
10
15
5
4
22
18
27
24
10
14
5
4
22
18
26
24
10
14
5
4
22
18
27
24
10
14
5
4
22
18
26
23
10
14
5
4
22
18
26
23
10
13
5
4
22
18
27
23
10
13
5
4
22
18
27
23
10
13
5
4
22
18
27
23
10
13
5
4
22
18
27
23
10
14
5
4
22
18
27
23
10
14
5
4
22
18
27
24
12
14
5
4
22
18
27
23
11
14
5
4
22
18
27
23
11
14
5
4
22
18
27
22
11
13
5
4
21
17
27
22
11
13
5
4
21
17
25
22
11
13
6
4
21
17
26
22
11
13
5
4
21
17
27
23
12
13
5
4
21
17
26
22
12
13
5
4
20
16
26
23
12
13
5
4
20
16
25
23
12
13
5
4
19
16
26
23
12
13
5
4
20
16
26
24
12
12
5
4
19
16
26
25
12
12
5
4
19
16
26
25
12
12
5
4
19
17
26
24
12
12
5
4
19
17
26
23
12
12
5
4
20
17
25
23
12
12
6
4
20
17
25
23
12
12
6
4
20
17
25
23
12
12
6
4
19
17
26
23
12
12
5
4
19
17
25
23
12
12
5
4
19
17
25
23
12
11
6
4
19
17
26
23
11
11
6
4
18
16
26
22
11
11
6
3
13
14
26
22
11
11
5
4
13
15
26
22
11
11
5
3
13
15
25
23
11
11
5
4
13
15
26
23
12
9
5
3
13
15
26
23
13
9
5
3
13
15
26
23
12
10
5
3
13
15
26
23
13
12
5
3
13
15
27
22
13
12
5
3
13
15
26
22
13
12
5
3
13
15
26
22
13
12
5
3
13
15
27
22
12
12
5
3
13
14
27
22
13
12
5
3
13
14
27
21
13
13
4
3
13
14
27
21
13
13
4
3
13
14
28
22
13
13
4
3
13
14
28
22
13
13
4
3
13
14
28
22
13
13
4
3
13
14
27
23
13
13
4
3
13
14
27
23
13
13
4
3
12
14
27
23
13
13
4
3
14
15
28
23
13
13
4
3
17
16
27
23
13
13
4
3
17
16
27
22
13
13
4
3
17
16
27
23
13
13
4
3
17
17
27
23
12
13
4
3
19
17
27
23
11
13
4
3
19
17
27
23
11
13
4
3
19
17
27
23
11
14
4
3
19
17
27
22
11
14
4
3
19
17
27
22
11
14
4
3
19
18
27
22
12
13
5
3
19
18
26
22
11
13
5
3
21
18
26
21
11
13
5
3
21
19
26
21
11
13
5
3
21
18
26
21
11
13
5
3
21
18
26
22
11
13
5
3
21
18
26
22
11
13
5
3
21
18
26
20
11
13
5
3
20
18
25
19
11
13
5
3
20
18
25
19
11
13
5
3
21
17
26
19
11
14
5
3
21
17
27
20
11
14
5
3
20
17
27
20
11
14
5
3
20
17
27
20
11
14
5
3
20
17
27
20
11
15
5
3
20
17
26
19
11
15
5
3
20
17
25
19
12
14
5
3
20
17
26
19
12
14
5
3
20
17
25
19
13
15
5
3
20
17
25
19
12
15
5
3
20
17
25
20
12
15
5
3
20
17
25
20
12
15
5
3
20
17
25
20
12
15
5
3
20
17
24
20
11
15
5
3
20
17
24
19
11
15
5
3
20
17
24
19
11
14
5
3
20
17
24
19
10
13
5
3
20
17
23
19
10
13
5
3
20
16
23
19
10
12
5
3
20
16
22
18
10
12
5
3
20
16
21
18
10
12
5
3
20
16
21
19
10
12
5
3
20
16
22
18
10
12
5
3
20
16
21
18
10
12
5
3
20
16
20
17
10
12
5
3
20
15
20
17
10
12
5
3
20
15
20
17
10
12
5
3
20
15
20
16
10
12
5
3
20
15
20
16
9
12
5
3
20
14
20
16
9
12
5
3
19
14
19
16
9
12
5
3
16
12
19
15
9
11
5
3
16
12
19
15
9
11
5
3
15
12
18
15
9
11
5
3
15
11
18
15
9
11
5
3
13
10
18
15
9
11
4
3
13
10
18
14
9
11
4
3
13
10
17
14
9
10
4
3
13
10
17
14
9
10
4
3
13
10
16
14
8
10
4
3
13
9
16
14
8
10
4
3
12
8
16
14
8
10
4
3
9
7
16
14
8
10
4
3
9
7
16
14
8
10
4
3
9
7
16
14
8
10
4
2
8
7
16
13
7
10
4
2
8
7
15
12
7
10
4
3
8
7
15
12
7
10
4
3
8
6
15
12
7
10
4
3
8
6
15
12
7
10
4
3
7
6
13
11
6
9
3
3
7
6
12
10
6
9
3
3
7
5
12
10
6
9
3
3
7
5
11
9
6
8
3
3
6
5
11
9
6
8
3
3
6
5
11
9
6
7
3
3
6
5
10
9
5
8
3
3
6
5
7
8
4
8
4
3
6
5
6
8
3
7
4
3
5
5
6
7
3
8
4
3
5
4
6
4
3
8
4
3
4
4
6
4
3
8
4
3
4
4
6
4
3
8
4
4
4
4
5
3
3
8
4
4
3
3
5
2
3
8
4
4
3
3
4
2
3
9
4
4
3
3
4
2
3
10
4
4
3
3
4
2
3
11
4
4
3
3
4
2
3
11
4
4
3
3
4
2
3
11
4
4
3
3
3
2
3
11
4
4
3
3
3
2
3
11
5
4
3
3
3
2
3
12
5
4
3
3
3
2
3
12
5
4
3
3
3
2
3
15
5
4
3
2
3
2
4
16
5
4
3
2
3
2
4
17
5
4
3
2
3
2
4
17
5
4
3
2
2
2
4
19
5
4
3
2
2
2
4
20
5
4
3
2
2
2
4
20
6
4
3
2
2
2
5
20
6
5
3
2
2
2
5
21
6
5
3
2
2
2
5
21
6
5
3
3
2
2
5
21
6
5
3
3
2
2
5
21
7
5
3
3
2
2
5
22
7
5
3
3
2
2
5
22
7
5
3
3
2
2
5
22
7
5
3
3
2
2
5
22
8
5
3
3
2
2
6
22
8
5
3
3
2
2
6
22
8
5
3
3
2
2
6
22
8
5
3
3
2
2
6
22
8
5
3
3
2
2
6
23
8
5
4
3
2
2
6
23
8
5
4
4
2
2
6
23
8
5
4
4
2
3
6
24
9
5
4
4
2
3
7
24
9
6
4
4
2
3
7
24
9
6
5
4
2
3
7
24
9
6
5
4
2
3
7
25
9
6
5
4
2
3
7
25
9
6
5
4
2
3
7
25
9
6
5
4
2
3
7
25
9
6
5
5
2
3
7
25
9
6
5
5
2
3
7
25
9
6
6
5
2
3
7
25
9
6
6
5
2
3
7
25
9
6
6
5
2
3
7
25
9
6
6
5
2
3
7
25
9
6
6
5
2
3
7
25
9
6
6
5
2
3
7
25
9
6
6
5
2
3
7
26
9
6
6
5
2
3
7
26
9
6
6
5
2
3
7
25
9
6
6
5
2
3
7
25
9
6
6
5
2
3
7
25
9
6
6
5
2
3
7
25
9
6
6
5
2
3
7
25
9
6
6
5
2
3
7
25
9
6
6
5
2
3
7
25
9
6
6
5
2
3
7
25
9
6
6
5
2
3
7
25
9
6
6
5
2
3
7
24
9
6
6
5
2
3
7
23
9
6
6
5
2
3
7
22
9
6
6
5
2
3
7
22
9
6
6
5
2
3
6
21
9
6
6
5
2
3
6
20
9
6
6
5
2
3
6
20
9
6
6
5
2
3
5
20
9
6
6
6
2
3
5
19
8
6
6
6
2
3
5
19
8
6
6
6
2
3
5
19
8
6
6
6
2
3
5
19
8
6
6
6
2
3
5
18
8
6
6
6
2
3
6
18
8
6
6
6
2
3
6
18
7
6
6
6
2
3
6
18
7
6
6
6
2
3
5
18
7
6
6
6
2
3
6
19
7
6
6
6
2
3
6
19
7
6
6
6
2
3
6
19
7
6
6
6
2
3
6
19
7
6
6
6
2
3
6
18
7
6
6
5
2
3
6
18
7
6
6
5
2
2
5
18
6
5
6
5
2
2
4
18
5
4
5
5
2
2
4
18
5
4
5
5
2
2
4
18
5
4
5
5
2
2
4
17
5
4
5
5
2
1
4
16
4
4
5
5
2
1
4
16
4
4
5
5
2
1
4
16
4
4
5
5
2
1
4
17
4
4
4
5
2
1
4
19
5
4
4
5
2
1
4
19
5
4
4
5
2
1
4
19
5
4
4
5
2
1
4
19
5
4
4
5
2
1
4
19
5
4
4
5
2
1
4
19
5
4
4
5
2
1
4
19
4
4
4
5
2
1
4
19
4
4
4
5
2
1
4
19
4
4
4
5
2
1
4
19
4
4
4
5
2
1
4
18
4
4
4
5
2
1
4
18
4
4
4
5
2
1
4
18
4
4
4
6
2
1
4
18
4
3
4
6
2
1
4
18
4
3
4
6
2
1
3
18
4
3
4
6
2
1
3
18
4
3
4
6
2
1
3
18
4
3
4
6
2
1
3
17
3
3
4
7
2
1
3
17
3
3
4
7
2
1
3
17
3
3
4
7
2
1
4
17
3
3
3
7
2
1
3
17
3
3
3
7
2
1
3
17
3
3
3
7
2
1
3
17
3
3
3
6
2
1
3
17
3
3
4
6
2
2
3
17
3
3
4
6
3
2
3
17
3
3
4
6
3
2
3
16
3
3
4
6
3
2
3
16
3
3
4
6
3
3
3
16
3
3
4
6
4
4
3
16
3
3
4
6
4
4
3
16
3
3
4
6
5
4
3
15
3
3
4
6
5
4
3
15
3
3
4
6
6
4
3
14
3
3
4
6
6
5
3
14
3
3
4
6
6
5
3
14
3
3
4
6
6
5
3
14
3
3
5
6
6
5
3
14
3
3
6
6
6
5
3
14
3
3
6
6
7
6
3
13
3
3
6
6
8
6
3
13
3
3
6
6
9
7
3
13
3
3
7
6
9
8
3
13
3
3
7
6
9
8
3
12
3
3
7
6
9
8
4
12
3
3
7
7
9
8
4
12
3
3
7
8
10
8
3
12
3
3
8
8
10
9
3
11
3
3
8
9
12
9
4
8
2
3
8
9
12
11
5
9
2
3
9
9
12
12
5
9
3
3
9
9
13
12
5
9
3
3
9
10
14
13
5
9
3
3
9
11
15
13
5
8
3
3
9
12
16
13
6
8
3
3
9
12
16
13
7
8
4
3
9
12
16
16
7
8
4
3
11
12
16
20
7
8
4
3
11
12
16
21
7
8
4
3
11
12
18
21
7
9
4
3
11
12
18
21
8
10
4
3
12
12
18
22
8
10
4
3
14
12
19
24
9
10
4
3
16
12
21
25
9
10
4
3
17
13
22
25
9
10
4
3
21
13
22
25
9
10
4
3
21
13
24
25
9
10
5
3
21
15
24
27
9
11
5
3
21
18
28
27
9
10
5
3
22
18
28
27
9
10
5
4
24
19
28
27
9
10
5
4
26
19
34
28
9
10
5
4
26
20
35
28
10
10
5
4
26
20
35
29
10
10
6
4
27
20
36
30
10
11
6
4
27
20
37
34
10
11
6
5
28
20
41
38
10
11
6
4
29
21
41
40
10
11
7
5
29
21
41
41
11
12
7
5
30
21
41
41
11
12
8
5
30
22
43
41
11
12
8
5
30
22
46
41
13
14
8
5
31
22
46
45
13
14
8
5
31
27
46
45
13
15
9
5
31
27
49
46
13
15
9
5
32
28
50
46
13
15
9
5
34
29
51
47
13
15
9
5
34
29
52
47
14
15
9
5
34
29
53
47
14
15
9
5
34
30
54
48
14
15
9
5
34
30
55
48
14
15
9
5
35
31
55
48
15
16
9
5
35
31
56
48
15
16
9
5
35
31
56
48
15
16
9
5
35
31
56
49
15
16
9
6
36
31
56
49
15
16
9
5
37
31
56
49
15
17
9
6
37
32
57
49
17
23
10
6
37
32
56
49
16
23
10
6
37
32
58
49
16
22
10
6
37
32
58
48
16
23
10
6
37
32
58
49
16
23
10
6
37
33
58
49
16
23
10
6
37
32
57
49
16
23
10
6
39
33
57
49
16
23
10
6
39
33
57
49
16
23
10
6
39
33
58
48
16
24
10
6
39
33
57
47
16
24
10
6
39
33
58
47
16
24
10
6
40
33
58
47
16
24
10
6
40
34
59
47
15
23
10
6
40
34
59
48
16
23
10
7
40
34
59
47
16
23
10
7
39
34
58
47
16
23
10
7
39
34
58
47
16
23
10
6
37
34
58
47
16
23
10
6
37
34
58
49
16
23
10
7
38
34
58
49
16
23
10
7
38
32
56
49
16
23
10
7
38
32
57
50
17
24
10
7
37
32
57
50
16
24
10
6
36
32
54
50
16
24
10
6
36
31
53
49
16
24
10
6
36
31
53
49
16
24
9
6
35
31
53
49
17
24
9
6
36
31
52
45
17
24
9
6
35
31
49
43
16
24
9
6
35
31
49
41
16
24
9
6
34
30
49
41
16
24
9
6
34
30
49
40
16
24
8
6
34
30
47
40
16
24
8
6
34
30
45
40
14
22
8
6
33
30
45
36
14
22
8
6
33
26
45
37
15
22
7
6
32
25
42
37
14
22
7
6
32
25
42
37
15
22
7
6
30
24
41
36
14
22
7
6
29
24
40
36
14
22
7
6
30
24
39
35
15
22
7
6
29
23
37
34
14
22
7
6
29
23
35
34
14
22
7
6
29
21
36
34
14
23
7
6
29
21
35
34
14
23
7
6
29
21
35
34
14
23
7
6
29
21
35
34
14
23
7
6
29
21
35
33
14
23
7
6
27
21
35
33
14
22
7
6
27
20
34
34
13
17
7
6
27
19
34
34
13
17
6
6
27
19
31
34
13
17
7
6
27
19
32
34
12
15
7
5
27
19
32
33
12
15
7
5
27
18
31
33
12
15
7
5
26
18
31
34
12
16
7
5
24
17
31
34
12
15
7
5
24
17
31
33
12
15
6
5
23
17
31
32
12
15
6
5
23
17
31
32
12
15
6
5
23
16
30
32
12
15
6
5
23
16
29
32
12
15
6
5
21
16
30
31
13
15
6
5
21
15
30
30
12
15
6
4
21
16
29
29
12
15
5
4
21
15
29
29
12
14
5
4
20
15
29
29
12
14
5
4
20
15
29
29
12
14
5
4
20
15
28
26
12
14
5
4
17
14
28
24
11
14
5
4
17
13
27
24
11
14
5
4
17
13
27
22
11
13
5
4
17
13
25
22
10
13
5
4
18
14
27
24
11
13
5
4
18
15
27
23
11
13
5
4
17
15
28
23
11
13
5
4
17
15
28
23
10
13
5
3
16
15
27
23
10
12
5
3
16
16
27
23
10
12
5
3
16
15
26
23
10
12
5
3
16
15
26
22
10
12
5
3
16
15
27
23
10
12
5
3
16
16
27
23
10
12
5
3
17
16
27
22
10
12
5
3
18
17
28
22
10
12
5
3
18
17
27
19
10
12
5
3
18
17
27
19
10
12
5
3
18
17
27
19
10
12
5
3
18
17
27
19
10
12
5
3
18
17
27
19
10
12
5
3
18
17
27
19
9
13
5
3
18
17
27
19
9
13
5
3
18
17
27
19
8
13
5
3
18
18
26
18
9
12
5
3
18
18
26
18
9
12
5
3
18
18
26
18
9
12
5
3
18
18
26
18
9
12
4
3
17
18
27
18
8
11
4
3
17
18
27
18
8
10
4
3
17
18
29
17
8
10
4
3
17
18
30
18
8
10
5
3
17
18
30
18
8
10
4
3
17
19
29
18
8
10
4
3
17
18
29
17
8
10
4
3
17
18
29
17
8
10
4
3
17
18
29
17
8
10
4
3
17
18
29
17
8
10
4
3
17
19
29
17
8
10
4
2
17
19
29
17
8
10
4
2
17
19
29
17
7
10
4
2
17
19
29
18
7
10
4
2
16
19
29
17
7
10
4
2
16
19
27
17
7
10
4
2
16
18
27
17
7
10
4
2
16
18
27
17
7
10
4
2
16
18
27
17
8
10
4
2
16
19
27
17
8
10
4
2
16
18
27
18
8
10
4
2
16
19
27
18
8
11
4
2
18
20
27
18
8
11
4
2
17
21
27
18
8
11
4
2
17
21
27
18
8
11
4
2
17
20
28
18
8
11
4
2
16
20
26
16
7
10
4
2
16
19
26
16
7
10
4
2
16
19
26
16
7
10
4
2
16
19
26
17
8
10
4
2
16
19
26
17
8
10
4
2
16
18
26
17
8
10
4
2
16
19
26
17
8
10
4
2
16
19
26
17
8
10
4
3
16
20
25
18
8
10
4
3
16
20
25
18
8
10
4
3
15
20
25
18
8
10
4
3
14
19
24
18
8
10
4
3
14
19
24
18
8
10
4
3
14
19
24
17
8
10
4
3
14
19
23
17
8
10
4
2
13
19
23
17
8
10
4
3
13
19
24
17
8
10
4
3
14
18
24
17
8
9
4
2
14
18
24
17
8
9
4
2
13
18
24
17
8
9
4
3
13
18
24
17
8
9
4
3
13
18
24
17
8
9
4
3
16
18
24
17
8
9
4
3
17
18
24
18
8
9
5
3
17
18
23
20
8
9
5
3
17
18
23
20
8
9
5
3
16
18
21
20
8
9
5
3
16
18
20
19
8
9
5
3
16
18
20
19
8
9
5
3
16
17
20
19
8
9
5
3
16
17
21
19
9
9
5
3
16
18
22
19
8
9
5
3
16
18
23
19
8
9
5
3
17
18
23
19
8
9
5
3
16
17
22
20
8
9
5
3
16
17
24
20
8
9
5
3
16
17
24
20
8
9
4
3
16
17
24
20
8
9
4
3
16
17
24
20
8
9
4
3
16
17
24
20
9
9
5
3
16
17
24
19
9
9
5
3
16
17
26
20
9
9
5
3
16
18
26
20
9
9
5
3
17
18
26
20
9
9
5
3
17
18
26
19
9
9
5
3
17
18
27
19
9
9
5
3
16
16
28
18
8
9
5
3
16
16
28
18
8
9
5
3
16
16
28
19
8
9
5
3
16
16
27
19
8
9
5
3
17
16
27
19
8
9
5
3
17
16
27
19
8
9
5
3
17
16
27
19
8
9
5
3
17
16
28
18
8
9
5
3
17
16
28
18
8
8
5
3
16
16
28
17
8
8
4
3
16
15
27
17
9
8
4
3
16
15
28
18
9
8
4
3
16
14
28
17
9
8
4
3
17
14
27
17
9
8
4
3
17
14
27
17
9
8
4
3
17
14
27
17
9
8
4
3
17
14
28
17
9
8
4
3
17
14
29
17
9
8
4
3
17
14
29
17
8
8
4
3
17
14
29
17
8
8
4
3
17
14
28
17
8
8
4
3
16
14
28
17
8
8
4
3
16
14
28
17
8
8
4
3
16
14
28
17
8
8
4
3
16
13
28
17
8
8
4
3
16
13
28
17
8
8
4
3
12
14
28
17
8
8
5
2
12
14
27
17
8
8
4
2
12
14
27
13
8
8
4
2
12
14
27
13
8
8
4
2
12
14
27
13
8
8
4
2
12
14
29
13
8
8
4
2
12
14
29
13
8
8
4
2
12
14
29
13
8
8
4
2
12
14
28
13
8
8
4
2
12
13
27
13
8
8
4
2
12
14
27
13
8
8
4
2
11
14
27
12
8
8
4
2
11
14
28
12
8
8
4
2
12
14
27
11
8
8
4
2
12
14
27
11
8
8
4
3
12
14
27
11
8
8
4
2
12
14
27
12
8
9
4
2
12
14
27
12
7
8
4
3
12
14
27
13
7
8
4
3
12
14
26
13
7
8
4
3
12
13
26
12
7
8
4
3
11
13
26
12
7
8
4
3
11
14
26
12
7
8
4
3
11
14
26
12
7
8
4
3
11
14
24
12
7
9
4
3
10
14
24
13
7
9
4
3
10
14
24
13
7
9
4
3
10
14
24
14
7
9
4
2
9
14
24
14
7
9
4
2
9
14
24
14
7
9
4
2
9
14
24
15
7
9
4
2
9
14
24
15
7
9
4
2
9
14
24
15
7
9
4
2
10
14
24
15
7
9
4
2
10
14
24
15
6
9
4
2
10
14
25
15
6
9
4
2
10
14
25
15
6
9
4
2
9
14
25
16
7
9
4
2
9
14
25
16
7
9
4
2
9
14
25
16
7
9
4
2
10
14
23
16
6
9
4
2
10
14
22
16
7
9
4
2
10
14
22
16
7
9
4
2
10
14
22
16
7
9
4
2
10
14
23
16
7
9
4
2
10
14
23
16
7
9
4
2
10
14
22
16
7
9
4
2
10
14
22
16
7
9
4
2
10
14
22
16
7
9
4
2
11
14
23
16
7
9
4
2
11
14
23
16
7
9
4
2
11
13
23
16
7
9
4
2
11
13
23
16
7
9
4
2
11
13
22
16
7
9
4
2
11
13
22
16
7
9
4
2
11
13
21
16
7
10
4
2
11
14
21
17
7
10
4
2
11
14
21
17
7
10
4
2
11
13
21
18
7
9
4
2
12
13
22
18
7
9
4
2
12
13
22
18
7
10
4
2
12
13
21
18
7
10
4
2
12
13
21
18
7
10
4
2
12
13
21
18
8
10
3
2
12
13
21
19
8
9
3
2
12
13
21
19
8
9
3
2
12
12
21
18
8
9
3
2
12
12
20
18
8
9
3
2
12
12
20
18
7
9
3
2
12
12
19
18
7
9
3
2
12
12
19
18
8
9
3
2
13
12
18
17
7
9
3
2
13
11
19
17
7
9
3
2
13
11
19
17
7
8
3
2
13
11
19
17
7
8
3
2
13
11
20
17
7
8
3
2
13
11
21
17
8
8
3
2
13
11
21
16
8
8
3
2
13
11
21
16
7
7
3
2
13
12
21
15
7
7
3
2
13
11
21
15
7
7
3
2
13
12
20
15
7
7
3
2
13
12
21
15
8
7
3
2
13
12
20
15
8
7
3
2
13
11
20
15
8
7
3
2
12
11
20
14
8
7
3
2
13
11
20
14
8
7
3
2
12
11
19
14
8
6
3
2
12
11
19
14
7
7
3
2
12
11
19
14
8
7
3
2
12
11
19
14
8
7
3
2
12
11
19
14
7
7
3
2
12
11
19
13
7
7
3
2
12
11
19
13
7
7
3
2
12
10
18
13
7
7
3
2
12
10
19
15
7
7
3
2
12
10
19
16
7
6
3
2
12
10
19
16
7
6
3
2
12
10
19
16
7
6
3
2
11
10
19
16
7
6
3
2
11
10
18
16
7
6
3
2
11
10
18
16
6
6
3
2
11
10
18
16
6
6
3
2
11
10
18
15
6
6
3
2
11
10
18
15
6
6
3
2
11
10
18
15
6
6
3
2
11
10
18
15
6
5
3
2
11
10
18
15
6
5
3
2
11
10
18
12
6
5
3
2
10
9
16
12
6
5
3
2
10
9
16
12
6
5
3
2
10
9
16
12
5
5
3
2
9
9
16
12
5
5
3
2
9
9
16
12
5
5
3
2
9
9
16
11
5
5
3
2
9
9
15
11
5
5
3
2
9
9
14
11
5
5
3
2
8
9
14
11
5
5
3
2
8
8
14
11
5
5
3
2
8
8
14
11
5
5
3
2
7
8
14
11
4
4
3
2
6
8
14
11
4
4
3
2
6
8
13
11
4
4
3
2
6
8
12
11
4
4
3
2
6
7
12
11
4
4
3
2
6
7
10
10
4
4
3
2
6
7
9
10
4
4
3
2
6
7
9
10
4
4
3
2
6
6
9
10
4
4
3
2
5
6
8
10
4
4
3
2
5
6
8
10
4
4
3
2
5
6
8
10
4
4
4
2
5
5
8
10
4
4
4
2
5
5
7
10
3
4
4
2
5
5
7
10
2
4
4
2
5
5
7
10
2
4
5
3
4
5
7
10
3
4
5
3
4
4
7
10
2
4
5
3
4
4
7
9
2
3
5
3
4
4
7
9
3
3
5
3
4
4
6
9
2
3
5
3
4
4
6
9
2
3
6
3
3
4
6
9
3
3
6
3
3
4
6
9
3
4
6
3
3
4
5
9
3
5
6
3
3
4
4
5
3
5
6
3
3
4
4
3
3
5
7
3
3
4
4
3
3
5
7
3
3
4
4
2
3
6
7
3
3
3
3
2
3
6
7
4
3
3
3
2
3
6
7
4
3
3
3
2
3
7
7
4
3
3
3
2
3
7
8
4
2
3
3
2
3
7
8
4
2
2
3
2
3
8
8
4
2
2
3
2
3
8
8
4
2
2
3
2
4
8
8
4
2
2
3
2
4
9
8
4
2
2
3
2
4
9
8
4
2
2
3
2
4
10
8
4
2
2
2
2
4
11
8
4
2
2
2
2
4
12
9
4
2
2
2
2
5
13
9
5
2
2
2
2
5
15
9
5
2
2
2
2
5
15
9
5
2
2
2
2
6
16
10
5
2
2
2
2
6
16
10
5
2
2
2
2
6
16
10
5
2
2
2
2
6
16
10
5
2
2
2
2
6
16
10
5
2
2
2
2
6
16
10
5
2
2
2
2
6
16
10
5
2
2
2
2
6
17
10
5
2
2
2
2
6
17
10
5
2
2
2
3
6
18
10
5
2
2
2
3
7
18
10
5
3
2
2
3
7
19
10
5
3
3
2
3
7
19
10
5
3
3
2
3
7
20
10
5
3
3
2
3
7
20
10
5
3
3
2
3
7
20
10
5
3
3
2
3
8
20
10
5
3
3
2
3
8
20
10
5
3
3
2
3
8
20
10
5
3
3
2
3
8
20
10
5
3
3
2
3
8
21
10
5
3
4
2
3
8
21
10
5
4
4
2
3
8
21
10
5
4
4
2
3
8
21
10
5
4
4
2
3
8
21
10
5
4
4
2
3
8
21
10
5
4
4
2
3
8
21
10
5
4
4
2
3
8
22
10
5
4
4
2
3
8
21
10
5
4
4
2
3
8
21
9
5
4
4
2
3
8
21
9
5
4
4
2
3
8
21
9
5
4
5
2
3
8
21
9
5
4
5
2
3
8
21
9
5
4
5
2
3
8
21
9
4
4
5
2
3
8
21
9
4
4
5
2
3
8
21
9
4
4
5
2
3
9
22
8
4
4
5
2
3
9
22
8
4
4
5
2
3
9
21
8
4
4
6
2
3
9
21
8
4
4
7
2
3
9
21
8
4
4
7
2
3
9
21
8
4
4
7
2
3
9
21
8
4
4
7
2
3
9
20
8
4
4
7
2
3
9
20
8
4
4
7
2
3
8
20
8
4
4
7
2
3
8
19
7
4
4
7
2
3
8
18
7
4
4
7
2
3
8
18
7
4
4
7
2
3
8
17
7
4
4
7
2
3
8
17
7
4
4
7
2
3
8
17
7
4
4
7
2
3
8
18
7
4
4
7
2
3
8
18
7
4
4
7
2
3
8
18
7
4
4
7
2
3
8
18
7
4
4
7
2
3
8
18
7
4
4
7
2
3
8
17
7
4
5
7
2
2
7
16
6
4
5
7
2
2
7
16
6
3
5
7
2
2
7
15
6
3
4
7
2
2
7
15
6
3
4
7
2
2
6
14
6
3
4
7
2
2
7
14
6
3
4
7
2
2
6
14
6
3
5
7
2
2
6
14
6
3
4
7
2
2
6
15
6
3
4
7
2
2
5
14
6
3
4
7
2
2
5
16
6
3
4
7
2
2
5
16
5
3
4
7
2
2
5
16
5
3
4
7
2
2
5
16
5
3
4
7
2
2
5
16
5
3
3
7
2
2
5
15
5
3
3
7
2
2
5
15
5
3
3
7
2
2
5
15
5
3
3
7
2
2
5
15
5
3
3
7
2
2
5
15
5
3
3
7
1
2
5
15
5
3
3
7
2
2
5
15
5
3
4
7
2
2
5
15
5
3
4
7
2
2
5
15
5
3
4
7
2
2
5
15
5
3
4
7
2
2
5
15
5
3
4
7
1
2
5
15
5
3
4
7
1
2
5
15
5
3
4
7
1
2
4
14
5
3
3
7
1
2
4
14
5
3
3
7
1
2
4
14
5
3
3
6
1
2
4
14
5
3
3
5
1
2
4
14
5
3
3
4
2
2
5
14
5
3
3
5
1
2
5
14
5
3
3
5
1
2
4
14
5
3
3
5
1
2
5
14
5
3
3
5
1
2
4
14
5
3
3
5
1
2
4
14
5
3
3
5
1
2
4
14
5
3
3
5
1
2
4
14
5
3
3
5
1
2
4
14
5
3
3
5
1
2
4
14
4
3
3
5
2
3
4
13
4
3
3
5
3
3
4
13
4
2
4
5
3
3
4
12
4
2
4
5
3
3
4
12
4
2
4
5
3
4
4
12
4
2
4
5
4
4
4
12
4
2
4
6
6
4
4
12
3
2
5
7
6
4
4
12
3
2
4
7
6
4
4
12
3
2
4
7
6
5
4
12
3
2
4
8
6
5
4
12
3
2
5
10
6
5
4
12
3
2
5
10
6
5
4
12
3
2
5
10
7
5
4
11
3
2
6
10
7
5
4
11
3
2
6
10
8
6
4
11
3
2
6
10
8
6
4
11
3
2
6
10
8
6
4
8
2
2
6
10
9
6
4
8
3
2
6
10
9
7
4
8
3
2
6
10
10
7
4
8
3
2
8
11
10
7
4
8
3
2
8
11
10
7
4
8
3
2
9
11
10
8
4
8
3
2
9
11
14
9
4
7
3
2
9
11
14
10
4
7
3
2
9
11
14
10
4
7
3
2
9
11
15
10
4
7
3
2
10
12
15
10
4
7
3
2
10
12
16
11
4
7
3
2
10
13
17
11
4
7
3
2
11
13
17
11
4
6
3
2
11
13
18
11
4
6
3
2
11
13
20
12
4
6
3
3
11
14
20
12
4
6
4
3
11
15
25
13
4
6
4
3
12
15
26
14
5
6
4
3
12
19
27
14
6
6
4
3
12
20
28
14
6
6
4
3
13
20
28
15
6
6
4
3
14
20
31
22
7
7
4
3
14
21
32
23
7
7
5
3
14
23
33
26
7
8
5
3
15
23
35
26
7
8
5
3
16
23
36
28
7
8
6
4
16
24
36
29
7
8
6
4
20
26
37
30
7
8
6
4
20
27
37
30
8
8
6
4
25
27
40
31
8
9
6
5
28
29
40
31
8
11
7
5
29
30
40
31
8
11
7
5
29
30
41
31
8
11
7
5
31
30
41
31
8
13
7
5
31
30
44
32
8
13
8
5
32
30
46
32
8
15
8
5
33
30
46
32
8
15
8
5
33
31
46
33
9
15
8
5
36
30
47
33
10
15
9
6
36
30
48
36
11
17
9
6
36
31
49
36
11
19
9
6
36
31
51
39
11
19
9
6
37
31
52
39
11
19
9
6
38
33
52
40
11
20
9
6
38
33
52
40
12
21
9
6
38
35
52
41
12
21
9
7
39
38
51
41
12
21
10
7
39
38
51
41
12
21
10
7
40
38
52
41
12
21
10
7
40
39
54
41
12
21
10
7
40
40
54
41
12
21
10
7
40
40
54
41
12
21
10
7
40
40
54
42
12
21
10
7
40
40
55
42
13
22
10
8
42
40
55
42
13
23
10
8
44
41
55
42
13
23
10
8
44
42
55
43
13
23
10
8
44
42
55
43
13
24
10
8
44
42
55
43
13
24
10
8
44
42
55
43
13
24
10
8
44
42
55
43
13
25
10
8
44
42
55
43
13
25
10
8
45
44
55
44
13
25
10
8
46
45
54
45
13
25
10
8
46
45
54
46
13
25
11
8
46
45
55
46
14
25
11
8
47
44
53
46
14
25
10
8
47
44
53
46
13
25
10
8
47
43
53
46
13
25
10
8
50
43
54
46
13
25
10
8
49
43
55
46
13
25
10
8
49
43
54
43
12
25
10
8
49
43
53
43
13
25
10
8
49
42
53
41
12
25
10
8
49
42
51
42
12
25
10
8
50
42
51
42
12
25
10
8
50
42
51
42
13
26
10
8
48
40
51
41
13
26
10
8
48
41
51
41
13
27
10
8
47
40
49
41
13
26
9
7
45
40
51
41
13
26
9
7
45
39
51
41
13
26
9
7
45
40
51
41
13
26
9
7
44
40
50
41
13
25
9
7
44
39
48
41
13
25
9
7
43
40
47
41
13
24
9
7
43
40
46
41
13
24
9
8
42
40
46
41
13
24
9
8
40
40
46
41
12
24
8
7
41
41
45
38
11
22
8
7
41
40
44
38
11
21
8
7
41
40
42
36
10
21
8
7
40
40
41
36
10
21
8
7
40
38
41
35
10
20
8
7
40
38
42
36
10
20
8
7
40
37
42
36
10
20
8
6
39
34
42
36
10
20
8
6
39
34
42
36
10
20
8
6
38
33
42
36
10
20
8
6
38
33
39
36
10
20
7
6
38
32
39
36
10
19
7
6
38
32
39
36
10
19
7
6
38
32
39
36
10
19
7
6
38
32
38
36
9
19
7
5
35
31
38
35
9
17
7
5
33
30
37
35
9
17
7
5
33
30
37
36
9
17
7
5
33
30
39
36
9
16
7
5
33
30
39
36
9
15
7
5
33
29
38
36
9
15
7
5
33
29
38
36
9
15
7
5
33
29
38
35
9
15
7
5
31
26
38
33
9
15
7
5
31
25
39
33
9
15
7
5
31
25
39
31
9
15
7
5
31
26
37
31
9
15
7
5
30
26
37
30
9
15
7
5
29
26
37
30
9
15
7
5
29
26
37
31
9
15
7
4
25
25
33
30
9
15
7
4
25
25
34
30
9
15
7
4
25
26
34
30
9
15
7
4
24
25
34
30
9
15
7
4
24
25
33
30
9
15
7
4
23
25
33
29
9
15
7
4
23
25
33
26
9
15
7
4
22
25
32
26
8
14
7
4
22
25
32
27
8
12
7
4
23
24
32
27
8
12
7
4
21
24
32
27
8
12
7
4
21
24
28
27
8
11
7
4
21
24
28
26
8
11
7
4
20
22
28
26
8
11
6
4
20
22
28
26
8
11
6
4
20
22
28
26
8
11
6
4
20
22
28
25
8
11
6
4
20
22
28
25
8
11
6
4
20
22
28
25
8
11
6
4
20
22
27
24
8
11
6
4
18
21
31
24
8
12
6
4
18
21
32
24
8
12
6
4
18
21
31
23
8
12
6
4
18
20
31
22
7
12
6
4
18
20
31
22
7
12
6
4
18
20
31
21
7
12
6
4
18
20
31
21
7
12
6
4
18
20
31
21
7
12
6
4
18
20
30
21
7
12
6
4
18
20
30
19
7
12
6
4
18
20
30
19
8
13
6
4
18
20
29
19
8
13
6
4
18
20
30
19
8
13
6
4
18
20
30
19
8
13
6
4
18
20
29
19
8
13
6
4
18
20
30
19
8
13
6
4
18
20
30
18
7
13
6
4
18
20
30
16
7
13
5
4
18
20
28
16
7
13
5
4
17
19
28
16
8
13
5
4
17
19
28
16
8
13
6
4
17
19
29
16
8
14
6
4
18
19
30
16
8
14
6
4
17
19
30
16
8
14
6
4
17
18
30
16
8
13
6
4
17
18
30
16
8
13
5
4
16
17
29
15
8
13
5
4
16
17
29
15
8
13
5
4
16
16
29
15
8
13
6
4
16
16
29
15
8
13
6
4
16
16
29
15
8
13
5
4
16
16
28
15
8
13
5
4
16
16
28
15
8
13
5
4
16
16
28
15
8
13
6
4
16
16
29
14
8
14
6
4
16
16
29
14
8
13
6
4
16
16
29
14
8
13
6
4
16
14
29
14
8
13
5
4
15
14
29
13
8
12
5
4
15
14
29
13
8
12
5
4
15
14
29
13
8
13
5
4
15
14
29
13
8
13
5
4
15
14
29
13
8
13
5
3
14
14
30
13
8
13
5
3
14
14
30
13
8
13
5
3
14
14
30
13
8
13
5
3
14
14
30
13
7
13
5
3
14
14
30
13
7
13
5
3
14
13
30
12
7
12
5
3
14
13
30
12
7
12
5
3
14
12
26
12
7
12
5
3
14
11
25
13
8
12
5
3
14
10
25
13
8
11
5
3
14
10
25
13
8
11
5
3
13
10
25
13
8
11
5
3
13
10
24
13
8
11
5
3
13
10
25
13
8
11
5
3
13
10
25
13
8
11
5
3
13
10
25
14
8
12
5
3
13
11
25
14
8
12
5
3
14
11
25
14
7
12
5
3
14
11
25
13
7
12
5
3
14
11
25
13
7
12
5
3
13
11
25
13
7
12
5
3
12
10
26
13
8
12
5
3
12
11
26
14
8
12
5
3
12
11
25
14
8
12
5
3
12
11
25
13
8
12
5
3
12
11
25
14
8
12
5
3
12
11
25
14
8
12
5
3
12
11
25
14
8
12
5
3
12
11
25
15
7
12
5
3
12
11
23
15
7
12
5
3
12
11
23
15
7
12
5
3
13
11
23
15
7
12
5
3
13
11
23
15
7
12
5
3
13
11
23
16
7
12
5
3
13
12
24
16
7
12
5
3
13
11
23
16
7
12
5
3
13
11
24
16
7
12
5
3
13
11
24
16
7
11
5
3
13
11
24
16
7
11
5
3
13
11
23
16
7
11
5
3
13
12
23
16
7
11
5
3
13
12
22
16
7
11
4
3
13
11
22
17
7
11
4
3
12
11
21
17
7
11
5
3
12
11
21
17
7
11
5
3
13
11
21
17
7
11
5
3
13
11
21
17
7
11
5
3
13
11
21
17
7
11
5
3
12
11
21
17
7
11
5
3
12
11
20
17
7
10
5
3
13
11
22
18
7
10
5
3
13
11
22
18
7
10
5
3
13
12
22
18
7
10
5
3
13
11
22
18
7
10
5
3
13
11
22
18
7
10
5
3
13
11
22
19
7
10
5
3
13
11
22
19
7
10
5
3
13
12
22
19
8
10
5
3
13
12
22
19
7
10
5
3
14
13
22
18
8
10
5
3
14
13
23
18
7
10
5
3
14
14
23
18
7
10
4
3
14
14
23
18
7
10
5
3
14
14
22
18
7
10
4
3
13
14
22
18
7
10
4
3
13
14
22
18
7
10
4
3
13
13
22
18
7
10
4
3
12
13
22
17
7
9
4
2
12
13
22
17
7
9
4
2
12
13
22
17
7
9
4
2
12
14
22
18
7
9
4
3
13
14
21
18
7
8
4
3
14
13
22
17
7
8
4
3
14
13
22
18
7
8
4
3
14
13
22
18
7
8
4
3
14
13
22
17
7
8
4
3
14
14
22
17
6
8
4
3
14
14
22
17
6
8
4
3
14
14
22
17
6
8
4
3
14
14
22
17
6
8
4
3
14
14
22
17
6
7
4
3
14
14
22
17
6
7
4
3
14
14
22
17
6
7
4
3
14
14
21
17
6
8
4
3
13
14
21
16
6
8
4
3
13
14
21
16
6
8
4
3
13
13
20
20
7
8
4
3
13
13
21
20
7
8
4
3
13
13
21
20
7
8
4
3
13
13
21
20
6
8
4
3
13
13
21
20
6
8
4
3
13
14
21
22
6
8
4
3
13
14
21
22
6
8
4
3
13
13
21
22
6
8
4
3
14
14
21
21
6
8
4
3
13
15
21
21
6
8
4
3
14
15
22
21
6
8
4
3
14
15
22
21
6
8
4
3
13
15
22
21
6
8
4
3
13
15
22
21
6
8
4
3
13
15
21
21
6
8
4
3
13
15
20
21
6
8
4
2
13
14
19
21
6
8
4
3
13
15
20
20
6
8
4
3
13
15
20
20
6
8
4
3
13
15
21
20
6
8
4
3
13
15
21
20
6
8
4
3
12
15
21
20
6
9
4
3
13
15
21
20
6
9
4
3
13
14
21
21
5
9
4
3
13
14
20
21
5
9
4
3
13
14
19
21
5
9
4
3
13
14
20
21
5
9
4
3
13
14
20
21
5
9
4
3
13
14
20
21
5
8
4
3
13
14
20
22
6
8
4
3
13
14
20
22
6
8
4
3
13
14
20
22
6
8
4
3
13
14
20
22
6
8
4
3
13
14
20
22
6
8
4
3
13
13
20
22
6
8
4
3
12
13
20
22
6
8
4
2
10
13
19
22
6
8
4
3
10
13
19
21
6
8
4
2
10
13
18
21
6
8
4
2
10
13
18
21
6
8
4
2
10
13
18
21
6
8
4
2
10
13
18
21
6
8
4
3
9
13
18
21
6
9
4
3
9
13
18
21
6
9
4
2
9
13
19
21
6
9
4
3
9
13
19
21
7
9
4
2
9
13
18
21
7
9
4
2
9
13
18
21
6
8
4
2
9
13
18
21
6
8
4
2
9
13
18
21
6
8
4
2
9
13
18
17
6
8
4
2
9
13
17
17
6
8
4
2
9
13
17
17
6
8
4
2
9
13
17
17
6
8
4
2
9
13
17
16
6
8
4
2
9
12
17
14
6
8
4
2
9
12
16
14
6
7
4
2
9
12
16
14
6
7
4
2
8
12
16
14
6
7
4
2
8
11
16
14
6
7
4
2
8
11
15
13
6
7
4
2
8
11
15
13
6
7
4
2
8
11
15
13
6
7
4
2
8
10
14
13
6
7
3
2
8
10
14
13
6
7
4
3
8
10
14
13
6
7
3
2
7
10
14
13
6
7
3
2
7
10
13
13
6
7
3
2
7
10
12
13
6
6
3
2
7
9
11
12
6
6
3
2
7
9
11
12
6
6
3
2
7
8
11
12
6
6
3
2
7
8
11
11
6
6
3
2
6
8
11
11
6
6
3
2
6
8
11
11
6
6
3
2
6
7
11
10
6
6
3
2
5
7
11
10
6
6
3
2
5
6
10
10
6
5
3
2
5
6
10
10
6
5
3
3
5
6
10
8
5
5
3
3
5
6
10
7
5
5
3
3
5
6
9
7
5
5
3
3
4
6
9
7
5
5
3
3
4
6
9
6
5
5
3
3
4
6
9
6
4
5
3
3
4
6
9
6
4
5
3
3
4
6
8
6
4
5
3
3
4
5
8
6
4
5
3
3
4
5
8
6
4
5
3
3
4
5
8
6
4
5
3
3
4
5
8
6
4
5
4
3
4
5
8
5
4
5
4
4
3
4
6
5
4
4
4
4
3
4
6
4
4
4
4
4
3
4
4
4
3
4
4
4
3
4
4
4
3
4
4
4
3
4
3
3
3
5
4
4
3
4
3
3
3
5
4
4
3
3
3
3
3
5
4
4
2
3
3
3
3
6
4
4
2
3
3
3
4
6
5
4
2
3
3
2
4
11
5
4
2
3
3
2
4
11
5
4
2
3
3
2
4
11
5
4
2
2
2
2
5
11
5
4
2
2
2
2
5
11
5
4
2
2
2
2
5
11
5
4
2
2
2
2
5
11
6
4
2
2
2
2
5
11
6
4
2
2
2
2
5
12
6
4
2
2
2
2
5
13
6
4
2
2
2
2
5
13
6
4
2
2
2
2
5
14
6
4
2
2
2
2
5
15
6
4
2
2
2
2
5
15
6
4
2
2
2
2
5
15
6
4
2
2
1
2
5
15
6
4
2
2
1
2
5
15
6
4
2
2
1
2
5
15
6
4
2
2
2
2
5
16
6
4
2
2
1
2
5
16
6
4
2
2
1
2
5
16
6
5
3
2
2
2
5
18
6
5
3
2
2
2
5
18
6
5
3
2
2
2
6
22
6
5
3
2
2
2
6
22
7
5
3
3
2
3
6
23
7
5
3
3
2
2
6
24
7
5
3
3
2
3
6
24
7
5
3
3
2
2
6
24
8
5
3
3
2
3
6
24
8
5
3
3
2
3
7
24
8
5
3
3
2
3
7
25
8
5
3
3
2
3
7
25
8
5
3
3
2
3
7
25
8
5
3
3
2
3
7
25
8
5
3
3
2
3
7
25
8
5
3
3
2
3
7
25
8
5
4
3
2
3
7
25
8
5
4
3
2
3
7
26
8
6
4
3
2
3
7
27
8
6
4
3
2
3
7
27
9
6
5
4
2
3
7
27
9
6
5
4
2
3
7
27
9
6
5
4
2
3
7
27
9
6
5
4
2
3
7
27
9
6
5
4
2
3
7
27
9
6
5
4
2
3
7
28
9
6
5
4
2
3
7
28
9
6
5
4
2
3
7
28
9
6
5
4
2
3
7
28
9
6
5
4
2
3
7
27
9
6
5
4
2
3
7
27
9
6
5
4
2
3
6
28
9
6
5
4
2
3
6
27
9
6
5
4
2
3
6
28
8
6
5
4
2
3
6
28
8
6
5
4
2
3
6
28
8
6
5
4
2
3
6
28
8
6
5
4
2
3
6
28
8
6
5
4
2
3
6
28
8
6
5
4
2
3
6
27
8
6
5
4
2
3
6
27
8
6
5
4
2
3
6
27
8
6
5
4
2
3
6
27
8
6
5
4
2
3
6
27
8
6
5
5
2
3
6
27
8
6
5
5
2
3
6
27
8
6
5
5
2
3
6
27
8
6
5
5
2
3
6
27
8
6
5
5
2
3
6
27
8
6
5
5
2
3
6
27
8
6
5
5
2
3
6
26
8
6
5
5
2
3
6
26
8
6
5
5
2
2
6
23
8
6
5
5
2
2
6
23
8
6
5
5
2
2
6
23
8
6
5
5
2
2
6
22
8
6
5
5
2
2
6
22
8
6
5
5
2
2
5
22
7
5
5
5
2
2
5
21
7
5
5
5
2
2
5
22
7
5
5
5
2
2
4
21
7
5
5
5
2
2
4
21
7
5
5
5
2
2
4
21
7
5
5
5
2
2
4
22
7
5
5
5
2
2
4
22
7
5
5
5
1
2
4
22
7
5
5
5
1
2
4
21
7
5
5
5
1
2
4
20
6
4
4
5
1
1
4
19
6
4
4
5
1
1
4
19
5
4
4
5
1
1
4
19
5
4
4
5
1
2
4
19
5
4
4
5
1
2
4
19
5
4
4
5
1
1
4
19
5
4
4
5
1
1
4
19
5
4
4
5
1
1
4
19
5
4
4
5
1
1
4
18
5
4
4
5
1
1
4
18
5
4
4
5
1
1
4
17
5
4
4
6
1
1
4
17
5
4
4
6
1
1
4
16
5
4
4
6
1
1
4
15
4
4
4
6
1
1
4
15
4
4
4
6
1
1
3
15
4
4
4
6
1
1
3
15
4
4
4
6
1
1
3
15
4
4
4
6
1
1
3
14
4
4
5
6
1
1
3
14
4
4
5
6
1
1
3
14
4
4
5
6
1
1
3
14
4
4
5
5
1
1
3
14
4
4
5
5
1
1
3
14
4
4
5
5
1
1
3
13
4
4
5
5
1
1
3
13
4
4
5
5
1
1
3
13
4
4
5
5
1
1
3
13
4
4
5
5
1
1
3
13
4
4
5
7
1
1
3
13
4
4
6
7
1
1
3
12
4
3
6
7
2
1
3
12
4
3
6
7
2
1
3
12
4
3
6
7
2
2
3
11
3
3
6
7
2
2
3
10
3
3
6
7
2
2
3
9
3
3
6
8
4
3
3
8
3
3
6
7
4
3
3
8
3
3
6
8
5
3
3
8
3
3
6
8
5
3
3
8
3
3
7
8
5
3
3
8
3
3
6
8
5
5
3
8
3
3
6
8
6
5
3
8
3
3
7
10
8
5
3
7
3
3
7
10
12
6
3
7
3
3
8
11
12
6
3
6
3
3
8
11
13
6
3
6
3
3
8
11
13
6
3
6
3
3
8
11
14
6
3
6
3
3
8
11
14
6
3
6
3
3
8
11
17
6
3
6
3
3
8
11
19
7
3
6
3
3
8
12
19
7
3
4
3
3
8
13
19
7
3
4
3
2
8
14
21
7
3
4
3
2
8
14
22
7
3
4
3
2
10
15
22
7
3
4
3
3
11
16
23
7
3
4
4
3
13
18
26
10
3
4
4
3
15
19
27
10
3
4
4
3
15
19
27
14
3
4
4
3
16
19
28
14
4
4
4
3
17
19
30
15
5
4
5
4
18
19
30
15
5
4
5
4
19
19
31
16
5
4
5
4
19
20
32
17
5
5
5
4
21
24
32
24
5
5
5
4
25
25
32
24
6
5
5
4
27
25
35
25
7
6
5
4
28
25
36
26
8
6
6
4
29
27
37
28
8
6
6
4
30
28
41
28
8
6
6
4
32
29
43
28
8
6
6
4
33
31
43
28
8
6
6
4
33
31
44
28
8
6
6
4
33
32
45
29
8
6
7
4
34
32
46
31
9
6
7
5
35
34
46
31
9
7
8
5
35
34
46
32
10
9
8
5
35
34
48
32
10
10
8
5
35
34
49
32
12
11
9
5
35
34
50
32
13
11
9
5
36
34
50
32
13
11
9
5
36
34
51
32
13
11
9
5
36
34
51
32
13
11
9
5
39
35
51
32
14
13
10
5
41
37
51
32
14
14
10
5
42
37
52
32
15
14
10
6
44
37
54
34
15
14
11
6
45
38
55
34
15
14
11
6
45
38
55
34
15
15
11
6
45
38
55
35
15
15
11
6
45
38
55
35
15
15
11
6
45
38
55
35
15
15
11
7
46
38
55
36
15
15
11
7
46
39
55
36
15
15
11
7
47
39
55
36
15
16
11
7
47
40
56
37
15
16
11
7
48
40
56
37
15
16
11
7
49
40
56
37
16
16
11
7
49
41
56
40
16
16
11
7
49
41
55
40
15
16
11
7
50
41
55
41
15
17
11
7
50
42
56
42
15
17
11
7
50
42
56
42
16
17
11
7
51
42
56
42
16
17
11
7
51
42
56
43
16
17
11
7
50
42
55
43
16
17
11
7
50
41
54
43
16
17
11
7
50
42
53
43
16
17
11
7
50
42
53
42
16
17
11
7
50
42
53
42
16
17
11
7
50
42
53
42
15
17
10
7
49
42
53
42
15
17
10
7
49
42
53
42
15
17
10
7
49
42
52
42
15
17
11
6
48
40
53
38
15
17
11
6
46
40
53
38
15
17
11
6
45
39
51
38
14
17
11
6
45
39
50
37
14
17
10
6
44
38
50
37
14
17
10
6
44
38
47
37
14
17
10
6
42
37
45
38
14
17
10
6
41
36
45
37
14
17
10
6
41
35
46
37
14
17
10
6
41
35
45
36
14
17
9
6
41
35
44
35
14
17
9
6
41
33
44
35
14
17
9
6
40
33
44
35
14
16
9
6
40
33
43
35
13
15
9
6
40
33
42
35
12
15
8
6
40
33
42
35
11
15
8
6
39
33
41
35
10
15
8
6
39
33
41
35
10
15
8
6
39
33
41
35
10
15
8
5
36
32
40
34
9
13
7
5
34
30
40
34
9
13
7
5
33
29
39
34
9
12
7
5
30
29
36
33
9
12
5
5
30
29
35
33
9
12
5
4
29
29
37
33
9
11
5
4
29
29
35
32
9
11
5
4
29
28
35
32
9
11
5
4
29
29
36
32
9
11
5
4
28
29
35
31
9
11
5
4
28
28
35
31
9
11
5
4
27
28
35
31
9
11
5
4
27
26
34
30
8
11
5
4
25
25
34
30
8
11
5
4
24
26
34
30
8
11
5
4
24
26
33
26
8
11
5
4
24
26
33
25
8
11
5
4
22
25
33
25
8
10
5
4
26
25
31
24
8
10
5
4
26
25
30
23
8
10
5
4
25
24
31
23
8
10
5
4
25
24
32
22
8
10
5
4
25
24
32
21
8
10
5
4
25
24
31
20
8
10
5
4
24
22
32
20
8
10
5
4
24
21
33
20
8
9
5
4
25
22
34
21
8
9
5
4
25
21
32
21
8
9
5
4
25
20
32
20
8
9
6
4
26
21
32
20
8
9
6
4
26
21
32
20
8
9
6
4
26
20
32
20
8
9
6
4
26
20
32
20
8
10
6
4
26
21
32
20
8
10
6
5
26
21
32
20
8
10
6
5
27
21
30
18
8
10
6
4
27
20
30
17
7
10
6
5
29
22
30
17
7
10
7
5
29
22
30
16
7
10
6
5
29
22
29
17
8
10
7
5
29
22
29
17
8
10
7
5
29
22
29
17
8
10
7
5
28
22
29
17
7
10
6
5
28
21
28
17
7
10
7
5
29
22
27
17
7
10
7
5
29
22
27
17
7
10
6
5
29
23
26
17
7
10
6
5
29
23
26
17
7
10
6
5
29
23
26
17
7
10
6
5
29
23
26
17
7
10
6
5
30
23
26
18
7
10
6
5
30
23
27
18
6
10
6
5
30
23
27
18
6
10
6
5
30
23
27
18
6
10
6
5
30
23
28
17
6
10
6
5
30
23
26
17
6
10
6
5
31
25
26
17
6
10
6
5
31
24
26
17
6
10
6
5
31
24
24
17
6
10
6
5
31
24
24
17
6
10
6
5
31
24
24
17
6
10
6
5
30
24
24
17
6
10
6
5
31
24
24
17
7
10
6
5
31
24
24
17
7
11
6
5
31
24
24
17
6
10
6
5
31
25
24
17
6
10
6
5
32
26
24
17
6
10
7
5
32
26
24
18
6
10
6
5
31
28
24
17
6
10
6
5
31
28
25
17
6
10
6
5
32
28
24
18
6
10
6
5
34
28
23
18
6
10
6
5
34
28
23
18
6
10
6
5
34
28
24
18
6
10
6
5
35
29
23
18
6
10
7
5
35
29
21
18
6
10
7
5
35
29
20
17
6
10
7
5
35
29
20
17
6
10
7
5
35
29
23
18
6
10
7
5
35
29
23
18
6
10
6
5
37
29
22
17
6
10
6
5
37
29
22
18
6
10
5
5
37
29
23
19
6
10
6
5
37
30
23
19
6
10
6
5
38
30
23
19
6
10
5
5
37
30
23
19
6
10
6
5
37
29
23
20
6
10
6
5
35
28
23
20
6
9
5
5
36
28
23
20
6
10
5
5
36
28
25
20
5
9
5
5
36
28
24
19
6
10
5
5
36
28
24
20
6
9
5
5
36
28
24
19
6
9
5
5
37
28
24
20
6
9
5
5
37
28
25
21
6
9
5
5
36
28
28
22
6
9
5
5
37
28
28
22
6
9
5
6
37
27
28
22
6
9
6
6
37
27
29
22
6
9
6
6
37
27
29
22
6
10
6
6
37
27
29
22
6
10
6
6
37
27
29
22
6
10
6
6
37
27
28
22
6
10
6
6
37
27
28
22
6
10
6
6
37
27
28
22
6
10
6
6
37
27
28
22
6
10
7
6
36
26
29
23
6
10
7
6
36
26
29
23
6
10
7
6
36
26
29
23
6
10
7
6
36
26
30
23
6
10
7
6
36
26
30
23
6
10
7
6
36
26
31
23
6
10
7
6
36
26
31
23
6
9
7
6
36
26
31
23
6
9
7
6
36
25
31
23
6
9
7
6
35
24
30
24
6
9
7
6
35
23
30
23
6
9
6
6
35
23
32
23
6
9
6
5
32
18
32
23
6
9
6
5
32
18
32
23
6
9
6
5
30
18
32
22
6
9
6
5
28
18
32
22
6
9
6
5
28
18
32
22
6
9
6
5
28
18
32
22
7
10
6
5
28
17
32
22
7
9
6
5
28
17
32
22
7
9
6
5
27
17
34
22
7
9
6
5
26
17
34
22
6
9
6
4
26
17
32
22
6
10
6
4
25
16
32
22
6
9
6
4
22
16
32
22
6
9
6
4
22
16
32
21
6
9
6
4
22
16
32
21
6
10
6
4
21
15
31
20
6
9
6
4
21
17
31
21
7
9
6
4
21
17
32
20
6
9
6
4
20
17
32
20
6
9
6
4
20
17
32
20
6
9
6
4
20
17
31
20
6
9
6
4
20
18
30
20
6
9
6
4
20
18
30
20
6
9
6
4
22
18
31
20
6
9
6
4
22
18
32
20
6
8
6
4
21
18
32
20
6
9
6
3
21
18
31
19
6
8
6
3
21
18
30
18
6
9
6
3
19
18
31
18
6
8
6
3
19
18
31
18
6
8
5
3
19
18
31
18
6
8
5
3
19
18
30
17
6
8
5
3
19
18
30
17
6
8
5
3
18
18
30
17
6
8
5
3
19
18
30
17
6
8
5
3
19
17
30
17
5
8
5
2
18
17
30
17
5
8
5
3
18
17
31
17
5
8
5
3
18
17
30
16
5
8
5
3
19
17
30
16
5
8
4
3
19
17
30
16
5
8
4
2
19
17
30
16
5
8
4
2
20
17
30
16
5
8
4
2
20
16
29
16
5
8
4
3
20
16
29
16
5
8
4
3
20
16
29
17
5
8
4
3
20
17
29
16
5
8
4
3
20
16
29
15
5
7
4
3
20
16
29
15
5
7
4
3
20
16
27
15
5
7
4
3
20
16
27
15
5
7
4
3
20
16
27
15
5
7
4
3
20
16
27
15
5
7
4
3
20
16
26
15
5
7
4
3
19
16
26
15
5
7
4
3
19
16
26
15
5
6
4
3
19
16
26
16
5
6
4
3
19
16
26
15
5
6
4
3
19
16
24
15
5
6
4
3
19
16
24
15
5
6
4
3
19
15
24
15
5
6
4
3
19
16
23
15
5
6
4
3
21
16
23
16
5
6
4
3
21
16
23
16
5
6
4
3
21
16
23
16
5
6
3
3
21
16
23
16
5
6
3
3
21
14
23
15
5
6
3
3
21
14
22
16
5
6
3
3
21
14
22
16
5
6
3
3
21
14
22
16
5
6
3
3
21
13
22
16
5
6
4
3
21
13
22
16
5
6
3
3
21
14
22
17
5
6
3
3
19
13
21
16
5
6
3
3
19
13
21
16
5
6
3
3
20
14
21
16
5
6
3
3
20
14
20
16
5
6
3
3
19
14
18
16
5
6
3
3
19
13
16
16
5
6
3
3
19
13
16
16
5
6
3
3
19
14
16
16
5
6
3
3
20
14
16
16
5
6
3
3
20
14
17
16
5
6
3
3
21
15
16
16
5
6
3
3
20
15
16
16
5
6
3
3
20
15
16
15
5
6
3
3
20
15
16
15
5
6
4
3
20
15
16
15
5
6
4
3
20
15
16
15
5
6
4
3
20
15
16
15
5
6
4
3
21
15
16
15
5
6
4
3
20
15
15
15
5
6
4
3
19
15
15
15
5
6
3
3
19
15
17
15
5
6
3
3
20
16
17
15
5
6
3
3
20
16
17
15
5
6
4
3
19
15
18
15
5
6
4
3
19
15
18
15
5
6
4
3
19
15
18
15
5
6
3
3
19
15
18
15
5
6
3
3
19
15
18
15
5
6
3
3
19
15
18
15
5
6
4
3
19
15
18
15
5
6
4
3
19
15
18
15
5
6
3
3
19
15
18
15
5
6
3
3
19
15
18
15
5
6
3
3
19
16
18
15
5
6
3
3
19
16
18
15
5
6
3
3
19
16
18
15
5
6
3
3
19
16
18
15
5
6
3
3
19
15
18
15
5
6
3
3
18
14
18
15
5
6
3
3
17
14
18
14
4
5
3
3
17
14
18
14
4
5
3
3
17
14
18
14
4
5
3
3
16
14
18
14
4
5
3
3
16
14
18
14
4
5
3
3
16
14
17
14
4
5
3
3
16
14
17
14
4
5
3
3
16
14
17
14
4
5
3
3
16
14
17
13
4
5
3
3
16
14
17
13
4
5
3
3
15
13
17
12
4
5
3
3
14
13
17
12
4
5
3
3
14
13
17
12
4
5
3
3
13
13
17
11
4
5
3
3
13
12
17
11
4
5
3
3
13
12
17
11
4
5
3
2
13
12
16
11
4
5
3
2
13
12
16
10
4
4
3
2
13
12
15
10
4
4
3
2
12
11
15
10
4
4
3
2
12
11
15
10
4
4
3
2
11
10
15
10
4
4
3
2
11
10
15
10
4
4
3
2
10
9
15
10
4
4
3
2
10
9
15
9
4
4
2
2
10
9
13
9
4
4
2
2
10
9
13
9
4
4
2
2
10
9
13
9
3
3
2
2
9
9
13
9
3
3
2
2
9
9
12
9
3
3
2
2
9
8
12
8
3
3
2
2
9
8
8
8
3
3
2
2
7
7
8
8
3
3
2
2
6
7
8
7
3
3
3
2
6
6
7
7
3
3
3
1
6
6
7
7
3
3
3
1
6
6
7
7
3
3
3
1
6
6
6
7
3
3
3
2
6
6
6
7
2
2
3
2
6
6
5
7
2
2
3
2
6
6
5
7
2
2
3
2
6
6
5
5
2
2
3
2
6
5
5
5
3
2
4
2
6
5
4
4
2
2
4
2
6
5
4
4
2
2
4
2
6
5
4
3
2
3
4
2
6
5
4
3
2
2
4
2
5
5
3
2
2
2
4
2
5
5
3
2
2
3
5
2
5
5
3
2
2
3
5
2
5
5
3
2
2
3
5
2
5
5
3
2
2
3
5
2
5
4
2
2
2
3
5
2
4
4
2
2
2
3
5
2
4
4
2
2
2
3
5
2
4
4
2
2
2
3
5
3
4
4
2
2
2
5
5
3
4
4
2
1
3
7
6
3
4
3
2
1
3
8
6
3
4
3
2
1
3
8
6
3
4
3
2
1
3
9
6
3
4
3
2
1
3
9
6
3
4
3
2
1
3
9
6
3
3
3
2
1
3
9
7
3
3
3
2
1
3
9
7
3
3
3
2
1
3
9
7
3
3
3
2
1
3
10
7
3
3
3
2
1
3
10
7
3
3
3
1
1
4
11
8
3
3
3
1
1
4
11
8
3
3
3
1
1
4
11
8
3
3
3
1
1
4
11
8
3
3
2
1
1
4
11
8
3
3
2
1
1
4
11
8
4
3
2
1
1
4
11
8
4
3
2
1
1
4
11
8
4
3
2
1
1
4
11
8
4
3
2
1
1
4
12
8
4
3
2
1
1
4
12
8
4
3
2
1
1
4
12
8
4
3
2
1
1
4
12
8
4
3
2
1
1
4
12
8
4
3
2
1
1
4
14
8
4
3
2
1
1
4
16
8
4
3
2
1
1
4
17
8
4
3
2
1
1
4
17
8
4
3
2
1
1
4
17
8
4
3
2
1
1
4
17
8
4
3
2
1
1
4
17
9
4
3
2
1
1
4
17
9
4
2
2
1
2
4
17
9
4
2
2
1
2
4
17
9
4
2
2
1
2
4
18
9
4
2
2
1
2
4
18
9
4
2
2
1
2
4
18
8
4
2
2
1
2
4
18
8
4
2
2
1
2
4
18
8
4
2
2
1
2
5
18
9
4
2
2
1
2
5
18
8
4
2
2
1
2
5
18
8
4
2
2
1
2
5
18
8
4
2
2
1
2
5
19
8
4
2
2
1
2
5
19
9
4
2
2
1
2
5
19
9
4
2
2
1
2
5
20
9
4
2
2
1
2
5
20
9
4
2
2
1
2
5
20
9
4
2
2
1
2
5
19
9
4
2
2
1
2
5
19
9
4
2
2
1
2
5
20
8
4
2
2
1
2
5
20
8
4
2
2
1
2
5
20
8
3
2
2
1
2
5
20
8
3
2
2
1
2
5
20
8
3
2
2
1
2
5
20
8
3
2
2
1
2
5
20
8
4
2
2
1
2
5
19
8
4
2
2
1
2
5
20
7
4
3
3
2
2
4
19
7
4
4
3
2
2
4
19
7
4
4
3
2
2
4
19
7
4
4
3
1
2
4
19
7
4
4
3
1
2
4
19
7
4
4
3
1
2
4
19
7
3
4
3
1
2
4
19
7
3
4
3
1
2
4
19
7
3
4
3
1
2
4
19
7
3
4
3
1
2
4
19
7
3
4
3
1
2
4
19
7
4
4
3
1
2
4
19
7
4
4
3
1
2
4
19
7
4
4
3
1
2
4
19
7
4
4
3
1
2
4
18
7
3
4
3
1
2
4
16
6
3
4
3
1
2
4
16
6
3
4
3
1
2
4
16
6
3
4
3
1
2
4
16
6
3
4
3
1
2
4
16
6
3
4
3
1
2
4
16
6
3
4
3
1
2
4
16
6
3
4
3
1
2
4
16
6
3
4
3
1
2
4
15
6
3
4
3
1
2
4
15
6
3
4
3
1
2
4
15
6
3
4
3
1
2
4
15
6
3
4
3
1
2
4
15
6
3
4
3
1
2
4
15
6
3
4
4
1
1
3
15
6
3
4
4
1
1
3
15
6
3
4
4
1
1
3
15
6
3
4
4
1
1
3
15
6
3
4
4
1
1
3
14
6
3
4
4
1
1
3
13
5
3
4
4
1
1
3
13
5
3
4
4
1
1
2
12
5
3
5
4
1
1
2
12
5
3
5
4
1
1
2
12
5
3
5
4
1
1
2
12
5
3
5
4
1
1
2
11
5
3
5
4
1
1
2
10
5
3
5
4
1
1
2
10
5
3
5
4
1
1
2
10
5
3
5
4
1
1
2
10
5
3
5
4
1
1
2
10
5
3
5
4
1
1
3
10
5
3
5
4
1
1
3
10
5
3
5
5
1
1
3
10
5
3
5
5
1
1
2
8
5
3
5
5
1
1
2
8
4
3
4
5
1
1
2
8
4
3
4
5
1
1
2
8
4
3
4
5
1
1
2
8
4
2
4
5
2
1
2
8
4
2
4
5
2
1
2
8
4
2
4
5
2
1
2
8
4
2
4
5
2
1
2
8
4
2
4
5
2
1
2
8
4
2
4
5
3
1
2
8
4
2
4
5
3
1
2
8
4
2
4
5
3
1
2
7
4
2
4
5
3
1
2
7
4
2
5
6
3
2
2
7
4
2
5
6
3
2
2
7
4
2
5
6
4
2
2
6
4
2
5
6
4
2
2
6
3
2
5
6
4
2
2
6
3
2
5
6
5
3
2
6
3
2
5
7
5
3
2
6
3
2
6
7
7
3
2
6
3
2
6
7
7
3
2
6
3
2
7
7
10
7
2
6
3
2
7
7
11
7
2
5
3
2
7
7
11
8
3
5
3
2
8
7
12
8
3
5
3
2
8
8
12
8
2
5
3
2
8
8
12
8
2
5
3
2
8
8
12
8
2
5
3
2
9
8
12
8
3
5
3
2
9
8
12
8
2
4
2
2
9
9
12
8
2
4
2
2
9
9
12
9
2
4
2
2
9
9
12
9
2
4
2
2
9
9
13
9
2
4
2
2
9
9
13
9
2
3
2
2
9
9
13
9
2
3
2
2
9
9
13
9
2
3
2
2
9
9
14
10
3
4
2
2
9
10
14
10
3
3
2
2
9
10
14
10
3
3
2
2
9
10
18
11
3
3
2
2
9
10
22
14
3
4
2
2
10
10
23
14
3
3
2
2
10
10
23
14
3
3
2
2
11
11
23
16
4
4
2
2
11
11
24
16
4
4
2
2
11
11
24
17
4
4
2
2
11
11
24
17
4
4
2
2
11
11
27
17
4
4
2
2
12
12
31
17
4
4
2
2
12
14
31
18
4
4
2
2
12
14
31
18
4
4
2
2
12
14
31
18
4
4
3
2
13
14
31
20
5
4
2
2
13
14
31
20
6
6
2
3
14
15
32
20
7
7
3
3
15
15
32
21
7
7
3
3
17
15
33
25
7
7
3
3
19
15
33
25
7
7
3
3
19
15
36
25
7
7
3
3
19
17
37
29
7
8
3
3
20
20
37
33
7
8
3
3
20
20
38
34
7
8
4
4
21
20
40
34
7
8
4
4
21
21
40
34
7
8
4
4
21
22
41
34
8
8
4
4
21
23
41
35
8
8
4
4
23
23
41
35
8
8
4
4
23
23
41
35
8
9
5
4
23
23
41
36
8
9
5
4
24
23
44
36
8
9
5
4
25
23
43
36
8
9
5
4
26
23
44
36
8
9
5
4
26
23
45
36
8
9
5
4
26
23
45
36
8
9
5
4
27
23
45
39
9
9
6
4
27
23
47
39
9
9
7
4
27
23
48
39
9
9
7
4
29
24
48
39
9
9
7
4
29
24
48
39
9
9
7
4
29
25
48
40
9
9
7
4
29
25
48
40
10
9
7
4
29
25
48
41
10
9
7
4
29
26
48
41
10
9
7
5
29
27
49
41
10
9
7
5
29
27
49
41
10
9
7
5
30
27
49
41
10
9
7
5
30
27
49
41
10
9
8
5
30
29
49
42
10
10
8
5
30
29
49
42
10
10
8
5
30
29
48
42
10
10
8
5
30
29
47
42
10
10
8
5
30
29
46
42
10
10
8
5
30
30
46
43
11
11
8
5
30
29
47
44
11
10
8
5
30
29
46
44
11
11
8
5
31
31
46
43
11
12
8
5
31
31
47
43
11
13
8
5
31
31
46
44
12
13
8
5
31
31
44
45
12
13
8
5
32
32
44
44
12
14
8
5
32
32
45
45
12
14
8
5
32
32
45
45
12
14
8
5
32
32
45
44
11
14
8
5
32
32
45
44
11
13
9
5
32
33
45
44
11
13
8
5
31
33
45
44
11
13
8
5
30
32
44
42
11
13
8
5
29
33
44
42
11
13
8
5
29
33
42
42
11
13
8
5
29
32
42
39
11
13
8
5
29
30
42
36
11
13
8
5
29
30
41
35
11
13
8
4
29
30
39
36
11
13
8
5
29
29
39
35
11
14
9
5
29
29
39
35
10
14
8
5
29
28
39
34
10
14
8
5
28
28
40
34
10
14
8
5
29
29
40
35
10
14
8
5
28
29
41
35
10
14
8
5
28
29
38
34
10
14
8
5
27
29
38
34
10
14
8
5
26
29
36
34
10
14
8
5
26
29
36
34
10
14
8
5
26
30
36
34
10
14
8
5
25
30
37
31
10
14
8
5
25
29
33
31
10
14
7
4
25
29
33
31
10
14
6
4
23
29
33
31
10
15
6
4
23
29
33
31
10
15
6
4
23
28
33
30
10
15
6
4
23
28
33
30
10
15
6
4
23
28
33
29
10
15
6
4
23
28
33
29
9
15
6
4
23
26
31
29
10
15
6
4
23
26
31
29
10
15
6
4
23
26
31
29
10
15
6
4
23
26
31
29
10
15
6
4
23
24
31
27
10
14
6
4
23
24
32
28
10
14
6
4
23
24
32
27
10
14
6
4
23
24
31
26
10
14
6
4
23
23
31
26
10
14
6
4
22
23
32
25
9
14
5
4
22
23
31
23
9
14
5
4
22
23
32
24
9
14
5
4
21
21
33
24
9
13
5
4
21
21
31
24
8
12
5
4
20
21
32
23
8
12
5
4
21
20
31
22
8
12
5
4
19
18
31
23
8
11
5
4
20
18
31
23
8
12
5
4
19
17
30
23
9
12
5
4
19
18
30
23
9
12
5
4
19
17
30
23
8
11
5
3
18
16
30
23
8
11
5
3
19
16
32
23
9
11
5
3
18
17
32
23
8
11
5
3
19
18
32
22
8
11
5
3
19
18
32
23
8
11
5
3
19
18
32
23
8
11
5
3
18
18
32
23
8
11
5
3
18
18
31
23
8
11
5
3
18
18
32
23
8
11
5
3
18
18
31
24
8
9
5
3
18
17
30
24
8
9
5
3
18
18
31
25
8
9
5
3
18
18
30
24
8
9
4
3
16
17
30
23
8
9
4
3
16
17
28
23
8
9
4
3
15
17
28
23
8
9
4
3
15
17
28
22
8
9
4
3
15
16
28
22
8
9
4
3
15
16
27
22
8
9
4
3
15
15
27
22
8
9
4
3
14
15
27
22
7
8
4
3
14
15
27
22
7
9
4
2
14
15
26
22
7
9
4
2
14
15
26
22
7
8
4
2
14
15
26
22
7
8
4
2
14
15
26
22
7
8
4
2
14
15
27
22
7
8
4
2
14
15
27
22
7
8
4
2
14
15
27
22
7
8
4
3
14
15
28
21
7
8
4
2
14
15
28
22
7
8
4
2
14
15
27
22
7
8
4
2
14
15
27
21
7
8
4
2
13
15
27
21
7
8
4
2
13
15
27
21
7
8
4
2
12
15
27
22
8
8
4
2
12
15
27
22
8
8
4
2
13
15
27
22
8
9
4
2
13
15
26
22
8
9
4
2
13
15
27
21
7
8
4
2
13
15
26
20
7
8
4
2
13
15
25
20
7
8
4
2
14
14
25
20
7
8
4
2
14
15
24
19
7
8
4
2
13
15
24
19
7
8
4
2
13
15
24
19
7
9
4
2
13
15
23
19
8
10
4
2
14
15
25
19
8
9
4
2
14
15
27
19
8
9
4
2
14
15
27
19
8
9
4
2
14
15
26
19
8
9
4
2
13
15
24
19
8
9
4
3
13
15
24
19
8
9
4
2
13
13
24
19
8
9
4
2
12
13
23
19
8
9
4
2
12
13
24
18
8
9
4
2
12
13
24
18
8
9
4
2
12
13
23
18
8
9
4
2
12
13
24
19
8
9
4
2
12
14
24
18
8
9
4
2
12
14
25
18
8
9
4
2
12
14
25
17
8
9
4
2
12
14
24
17
8
9
4
2
12
14
24
17
8
9
4
2
12
14
24
17
8
9
4
2
12
14
24
18
8
9
4
2
12
14
24
18
8
10
4
2
12
14
24
19
8
10
4
2
12
14
25
19
8
10
4
2
12
14
25
19
8
10
4
2
12
14
25
19
9
10
5
2
12
14
25
19
8
10
5
2
13
14
25
19
8
9
5
2
13
14
25
18
8
9
5
2
13
14
25
19
8
9
4
2
13
14
25
19
8
9
5
2
13
14
25
18
8
9
5
3
13
14
24
18
8
9
5
2
13
14
24
18
8
9
5
2
13
14
24
18
8
9
5
2
13
14
23
18
8
9
5
2
13
14
23
18
8
9
5
2
13
14
23
19
8
9
5
2
13
14
23
19
8
9
5
2
13
14
23
18
8
9
5
2
13
14
23
18
7
9
5
2
13
14
23
18
7
8
4
2
13
14
23
18
7
9
4
2
13
14
23
18
7
8
4
2
14
14
22
19
7
9
4
2
14
15
22
19
7
8
4
2
14
15
22
19
7
9
4
2
14
15
22
19
8
9
4
2
14
14
22
19
8
10
5
2
14
15
22
18
8
10
5
2
14
14
22
18
8
10
5
2
14
15
22
17
7
9
5
2
14
15
20
17
7
9
5
2
14
15
17
18
7
9
5
2
14
15
17
18
7
9
4
2
14
14
17
18
7
9
4
2
14
14
17
18
7
9
4
2
14
14
17
18
7
9
4
3
14
14
18
18
7
9
4
3
15
14
18
18
7
9
4
3
15
14
19
18
7
9
4
3
15
14
19
18
7
9
4
3
15
14
19
18
7
9
4
3
15
14
18
17
7
9
4
3
15
13
18
17
7
9
4
3
15
13
17
18
7
9
4
3
15
13
17
18
7
9
4
3
14
13
17
18
7
9
4
3
14
12
17
18
7
9
4
3
14
12
17
17
7
9
4
3
14
12
17
17
7
9
4
3
14
11
16
17
7
9
4
3
14
11
16
16
7
9
4
3
13
11
16
16
7
9
4
3
13
11
16
15
7
9
4
3
13
11
16
15
7
9
4
3
13
11
16
15
7
9
4
2
13
11
16
15
7
9
4
3
13
11
15
15
7
9
4
3
13
11
16
15
7
9
4
3
13
12
17
15
7
9
4
2
13
12
16
15
7
9
4
2
12
12
16
15
7
9
4
2
12
12
16
15
7
9
4
2
12
12
16
15
7
9
4
2
12
12
16
15
7
9
4
2
12
13
16
15
8
9
4
2
12
12
16
14
8
9
4
2
12
12
16
14
8
9
4
2
12
12
16
15
8
9
4
2
12
12
17
15
8
9
4
2
12
12
18
15
8
9
4
2
12
12
17
15
8
9
4
2
12
12
18
15
8
9
4
2
11
12
18
15
8
9
4
2
10
11
18
15
8
10
4
2
9
11
19
15
8
9
4
2
9
11
18
15
8
9
4
2
9
11
19
14
7
8
3
2
9
11
19
14
7
8
3
2
9
11
19
14
7
8
3
2
9
11
19
14
7
8
3
2
9
11
19
14
8
8
4
2
9
11
20
13
8
8
3
2
9
11
20
13
8
8
3
2
9
11
20
13
8
8
3
2
10
11
20
13
7
7
3
2
10
12
20
13
7
7
3
2
10
12
20
13
8
7
3
2
10
11
19
14
7
7
4
2
9
12
19
15
7
7
4
2
9
12
19
15
7
7
4
2
9
12
19
15
7
7
4
2
9
12
19
15
7
7
4
2
9
12
19
15
7
7
4
2
9
12
19
15
7
7
4
2
9
12
19
15
7
7
4
2
9
12
19
15
7
8
4
2
9
12
18
15
7
8
4
2
10
12
19
15
7
8
4
2
12
12
19
15
7
7
4
2
12
12
19
15
7
7
4
2
12
12
19
15
7
7
4
2
12
12
19
16
8
7
4
2
12
12
18
16
8
7
4
2
13
12
18
16
8
7
4
2
13
12
18
16
8
8
3
2
13
12
18
16
8
9
4
2
13
12
20
16
8
9
3
2
13
12
20
16
8
10
3
2
13
11
19
16
8
10
3
2
13
12
19
16
9
10
4
2
13
11
19
16
9
9
3
2
13
11
19
16
9
9
3
2
13
12
19
16
9
9
3
2
13
12
19
16
9
9
3
2
13
11
20
16
8
9
3
2
13
10
20
16
8
10
3
2
13
10
20
16
9
10
3
2
13
11
21
15
9
10
3
2
13
11
20
16
9
10
3
2
13
11
20
16
9
10
3
2
13
11
21
16
9
10
3
2
13
11
20
15
9
9
3
2
13
11
20
16
9
9
3
2
13
11
20
16
9
9
3
2
13
11
20
16
9
9
3
2
13
11
20
16
9
9
3
2
13
11
19
16
9
9
3
2
13
11
19
16
9
9
3
2
13
11
19
16
9
9
3
2
14
11
19
16
9
9
3
2
14
11
19
16
8
9
3
2
14
11
19
16
8
9
3
2
14
11
18
16
8
9
3
2
14
11
18
16
8
9
3
2
13
11
18
16
8
9
3
2
13
11
18
16
8
9
3
2
13
11
18
16
8
9
3
2
12
11
18
15
8
9
3
2
12
10
18
15
8
9
3
2
12
10
19
15
8
9
3
2
12
10
19
15
8
9
3
2
12
10
19
15
8
9
3
2
12
10
19
15
8
9
3
2
12
10
19
14
8
9
3
2
12
10
19
14
8
9
3
2
12
9
19
14
8
9
3
2
12
10
19
14
8
9
3
2
12
10
19
14
8
9
3
2
9
10
19
13
8
9
3
2
9
10
19
13
8
9
3
2
9
9
19
13
8
9
3
2
9
9
18
13
7
9
3
2
9
9
18
13
7
9
3
2
9
9
18
13
7
9
3
2
8
9
18
12
7
8
3
2
8
9
18
12
7
7
3
2
8
9
16
12
7
7
3
2
8
9
16
12
6
6
3
2
8
9
16
12
6
6
3
2
8
8
16
12
6
6
3
2
8
8
16
12
6
6
3
2
8
8
16
12
6
6
3
2
7
8
15
11
6
6
3
2
7
8
15
11
6
6
3
2
7
8
14
11
6
6
3
2
7
8
14
10
5
6
3
2
7
8
13
10
4
6
3
2
6
7
13
10
4
6
3
2
6
7
12
9
4
5
3
2
6
7
12
9
3
5
3
2
6
7
10
9
3
5
3
2
6
7
10
9
3
5
3
2
6
7
10
8
3
5
3
2
6
7
10
8
3
5
3
2
6
7
10
8
3
5
3
2
6
6
9
8
3
5
3
2
6
6
9
8
3
5
3
2
6
6
9
8
3
5
3
2
6
6
9
8
3
5
3
2
5
4
9
7
3
5
3
2
5
4
9
7
3
5
3
2
5
4
9
7
3
7
3
2
5
4
9
7
3
8
3
2
4
3
8
7
3
8
3
3
4
3
8
7
3
8
4
3
4
3
8
7
3
8
4
3
3
3
8
7
3
9
4
3
3
3
8
6
3
9
4
3
3
3
8
6
3
9
5
3
3
2
5
4
3
9
5
3
3
2
4
4
2
8
5
3
3
2
4
4
3
9
5
3
3
2
4
3
3
9
5
3
3
2
3
3
3
9
5
3
3
2
3
3
3
9
5
3
3
2
3
3
3
9
5
3
3
2
3
3
3
9
5
3
3
2
2
3
3
9
5
3
2
2
2
3
3
10
5
3
2
2
2
3
3
10
6
3
2
2
2
3
3
9
5
3
2
2
2
2
3
9
6
3
2
1
2
2
3
9
6
3
2
1
2
2
3
10
6
3
2
1
2
2
4
14
6
4
2
2
2
2
4
14
7
4
2
2
2
2
4
14
7
4
2
2
2
2
4
16
7
4
2
2
2
2
4
18
7
4
2
2
2
2
4
18
7
4
2
1
2
2
4
19
7
4
2
1
2
2
4
19
7
4
2
1
2
2
4
19
7
4
2
1
1
2
4
19
7
4
2
2
2
2
5
19
7
4
2
2
1
2
5
19
7
4
2
2
1
2
5
19
7
4
2
2
1
2
5
20
7
4
2
1
1
2
6
21
8
4
2
1
1
2
6
22
8
5
2
1
1
2
6
22
8
5
2
1
1
2
6
22
8
5
2
1
1
2
6
23
8
5
2
1
1
2
6
23
8
5
2
1
1
2
6
23
8
5
2
1
1
2
6
27
9
5
2
1
1
3
7
30
11
5
2
2
2
3
7
30
11
5
2
2
2
3
7
30
11
5
2
2
2
3
7
30
11
5
2
2
2
3
7
31
11
5
2
2
2
3
7
31
11
5
2
2
2
3
7
31
11
5
2
2
2
3
7
31
11
5
2
2
2
3
7
31
11
5
2
2
2
3
7
31
11
5
2
2
2
3
7
31
11
5
2
2
2
3
7
32
11
5
3
2
2
3
7
32
11
5
4
2
2
3
7
32
11
5
4
2
2
3
7
32
11
5
4
2
2
3
7
32
11
5
4
2
2
3
7
32
11
5
4
2
2
3
7
32
11
5
4
2
2
3
7
32
11
5
4
2
2
3
7
33
11
5
4
2
2
3
7
33
11
5
4
2
2
3
7
33
11
5
4
2
2
3
7
33
11
5
4
2
2
3
7
33
11
5
4
2
2
3
7
34
11
5
4
2
2
3
7
35
11
5
4
2
2
3
7
35
11
5
4
2
2
3
7
35
11
6
4
3
2
2
7
33
11
5
4
3
2
2
7
33
11
5
4
3
2
2
7
34
11
5
4
3
2
2
7
33
11
5
4
3
2
2
7
32
11
5
4
3
2
2
7
32
11
5
4
3
2
2
7
32
11
5
4
3
2
2
7
32
11
5
4
3
2
3
7
32
11
5
5
3
2
2
7
32
11
5
5
3
2
2
7
32
11
5
5
3
2
2
7
32
11
5
5
3
2
2
7
33
11
5
5
3
2
2
7
33
11
5
5
3
2
2
6
32
10
5
5
4
2
2
6
32
10
4
5
3
2
2
6
31
10
4
5
3
2
2
6
31
10
4
5
3
2
2
6
31
10
4
5
3
2
2
6
31
10
4
5
4
2
2
6
31
10
4
5
4
2
2
5
28
9
4
5
4
2
2
4
26
6
4
4
3
2
2
4
26
6
4
5
3
2
2
4
25
6
4
5
3
2
2
4
25
6
4
5
3
2
2
4
24
6
4
5
3
2
2
4
23
6
4
5
4
2
2
4
23
6
4
5
4
2
2
4
23
6
4
5
4
2
2
4
23
6
4
5
4
1
2
4
23
6
4
5
4
1
2
4
22
6
4
5
4
1
2
4
22
6
3
4
3
1
2
4
22
6
3
3
3
1
2
4
22
6
3
3
3
1
2
4
22
6
3
3
3
1
2
4
23
6
3
3
3
1
2
4
22
5
3
3
3
1
1
4
22
5
3
3
4
1
1
4
21
5
3
3
3
1
1
4
20
5
3
3
3
1
1
4
20
5
3
3
3
1
1
4
20
5
3
3
4
1
1
4
20
5
3
3
4
1
1
4
20
5
3
3
4
1
1
4
20
4
3
3
4
1
1
3
17
4
3
3
4
1
1
3
17
4
3
3
4
1
1
3
17
4
3
3
4
1
1
3
17
4
3
3
4
1
1
3
16
4
3
3
4
1
1
3
16
4
3
4
4
1
1
3
15
4
3
4
4
1
1
3
15
4
3
3
4
2
1
3
15
4
3
4
4
3
1
3
15
4
3
4
5
3
1
3
15
4
3
4
5
3
2
2
15
3
2
4
5
4
2
2
15
3
2
4
5
5
2
2
15
3
2
5
5
5
2
2
15
3
2
5
5
5
3
2
13
3
2
5
5
5
3
2
13
3
2
5
5
5
3
2
12
3
2
5
5
5
3
2
12
3
2
5
5
5
3
2
11
3
2
5
5
6
3
2
11
3
2
5
5
7
4
2
11
3
2
6
5
7
4
2
11
3
2
6
6
9
5
2
10
3
2
6
6
10
5
2
9
3
2
6
6
10
5
2
8
2
2
6
6
13
6
2
8
2
2
6
6
13
8
2
8
2
2
6
6
13
8
2
8
2
2
6
6
13
8
2
8
2
2
6
6
13
8
2
8
2
2
6
7
13
8
2
8
2
2
6
7
13
8
2
8
2
2
6
7
13
9
3
8
2
2
6
7
13
10
3
8
2
2
6
7
15
10
3
8
2
2
6
7
15
11
3
7
2
2
6
7
15
11
3
7
3
2
7
7
17
11
3
7
3
2
7
7
17
14
3
7
3
2
7
8
19
15
3
6
3
2
7
9
22
15
3
6
3
2
8
9
23
15
4
7
3
2
9
9
23
15
4
7
3
2
10
9
23
16
4
7
3
2
10
9
24
16
4
6
4
2
10
9
25
17
4
6
4
2
12
9
25
21
4
8
4
3
13
10
29
21
5
11
4
3
14
10
33
21
5
11
5
3
15
12
33
21
6
11
6
4
15
13
34
22
6
11
6
4
15
13
38
22
6
12
6
4
17
13
39
22
6
12
6
4
17
13
39
22
6
13
6
4
17
13
39
23
6
13
6
4
18
13
40
23
6
13
6
4
19
14
40
23
6
13
6
4
20
14
40
24
6
14
7
4
20
14
40
24
7
14
7
4
20
14
40
25
8
14
7
4
20
13
40
25
8
16
7
5
20
14
41
25
8
16
7
5
20
14
41
27
8
17
7
4
21
14
41
28
8
19
8
4
21
15
43
28
9
19
8
4
21
15
43
30
9
21
8
4
22
15
43
33
9
23
8
5
22
15
43
33
10
24
8
5
22
15
43
34
10
24
8
5
22
15
43
34
10
24
9
5
22
16
43
34
10
24
9
5
22
17
43
34
10
24
9
5
22
17
44
35
11
24
9
6
23
17
45
35
11
24
9
6
23
19
45
35
11
25
9
6
23
19
44
35
11
25
9
6
23
19
44
35
11
25
9
6
24
20
44
35
11
25
9
6
24
20
45
35
11
25
9
6
24
20
45
36
11
26
9
6
24
20
45
38
11
26
9
6
25
20
48
38
11
26
9
6
25
20
48
39
11
26
10
6
25
20
48
39
11
29
10
6
25
21
48
39
11
32
10
6
25
21
48
39
11
32
10
6
25
21
48
39
12
32
9
6
25
21
48
39
12
33
10
6
25
21
48
38
12
33
10
6
25
22
47
39
12
33
10
6
25
22
46
39
12
33
10
6
25
23
47
39
12
33
10
6
25
23
47
40
12
33
10
6
25
23
47
40
12
33
10
6
25
23
48
41
12
33
10
6
25
23
48
41
13
33
10
6
24
23
50
39
13
33
10
6
24
23
48
39
12
32
10
6
23
23
45
39
12
32
10
6
24
23
45
39
12
32
9
6
24
23
45
39
12
31
9
6
23
23
42
39
12
31
9
6
22
23
42
39
12
31
9
6
23
23
42
39
12
31
9
6
24
24
42
39
12
31
9
6
23
24
42
39
12
31
9
6
23
24
42
39
13
31
9
6
22
24
42
39
13
31
9
6
22
24
43
39
12
31
9
6
22
24
42
39
12
31
9
6
22
24
43
39
12
30
10
6
21
24
43
39
12
30
10
6
21
24
43
38
12
30
9
6
21
24
43
38
12
29
9
6
21
24
42
38
12
29
9
6
21
24
41
36
11
28
9
6
20
24
41
34
11
26
9
5
20
24
42
34
11
25
9
5
20
24
42
34
11
25
9
5
20
24
42
34
11
25
9
5
20
24
42
34
11
25
8
5
20
23
43
34
11
25
8
5
20
23
42
33
11
25
8
5
19
23
42
33
11
25
8
5
19
22
42
33
11
25
8
5
19
22
42
33
11
25
8
5
19
22
42
32
11
25
8
5
19
23
42
32
11
25
8
5
19
23
41
32
11
25
8
5
18
22
41
31
11
25
8
5
18
23
41
28
10
25
8
5
18
23
39
28
10
25
8
5
18
23
38
27
10
24
8
5
18
23
38
27
10
21
8
5
18
22
39
27
10
17
8
5
18
22
38
27
10
17
8
5
18
22
38
27
10
17
8
5
19
22
39
27
10
16
7
5
19
22
39
27
10
15
7
5
19
21
39
26
10
15
8
5
19
21
38
26
10
15
7
5
19
20
37
26
10
15
7
5
19
20
38
23
9
15
7
4
19
20
38
23
9
15
7
4
19
20
37
22
9
16
7
4
19
20
37
22
9
15
6
4
20
21
33
21
9
15
6
4
20
20
33
21
9
15
6
4
20
20
33
21
9
15
6
4
19
19
33
21
9
15
6
4
19
19
33
21
9
15
6
4
19
19
32
21
9
16
6
4
19
19
32
23
8
15
6
4
18
19
31
24
8
16
6
4
18
18
30
23
8
16
6
4
18
18
30
22
8
16
6
4
18
18
30
23
8
16
6
4
18
19
30
23
8
16
6
4
18
19
30
23
8
16
6
4
18
18
30
22
8
16
6
4
19
19
29
22
8
15
5
3
19
19
28
21
8
15
5
3
19
21
29
21
8
14
5
3
19
20
28
21
8
14
5
3
19
20
29
21
8
14
5
3
19
20
30
21
8
15
5
4
21
20
32
21
8
15
5
4
21
20
32
20
8
15
5
4
21
20
31
20
8
15
5
4
21
20
31
20
8
15
5
4
21
20
34
20
8
15
5
4
21
20
33
20
8
15
5
4
21
20
33
21
8
15
6
4
21
19
32
21
8
15
6
4
21
19
33
21
9
15
6
4
21
21
33
22
9
15
6
4
22
21
32
23
8
15
6
4
21
20
32
23
8
15
6
4
21
20
32
23
8
15
6
4
22
20
32
23
8
15
6
4
22
20
32
23
8
15
6
4
21
19
32
23
8
15
6
4
21
20
32
23
8
15
6
4
21
19
32
23
8
15
6
4
21
20
31
23
8
15
6
4
21
19
31
23
8
15
6
4
21
19
32
23
8
15
6
4
20
19
31
23
8
15
6
4
20
19
31
22
8
15
6
4
20
19
31
22
8
15
6
4
20
19
31
22
8
15
6
4
20
19
31
23
8
15
6
4
20
19
30
23
8
15
6
4
20
19
29
23
8
15
5
4
20
19
29
22
7
15
6
4
19
19
30
23
7
15
5
4
19
19
29
23
7
15
5
4
19
19
29
23
7
15
5
4
19
19
30
23
8
15
5
4
19
19
30
23
8
15
6
4
19
19
30
23
8
15
6
4
19
19
30
23
8
15
6
4
18
18
30
21
8
15
6
4
18
19
30
20
8
14
6
4
18
19
30
20
8
13
6
4
18
19
30
20
8
14
6
4
18
19
30
20
8
14
5
4
18
18
30
20
8
14
5
4
18
18
30
20
8
14
5
4
18
17
30
20
8
14
5
3
17
17
30
20
8
14
5
3
17
17
30
20
8
14
5
3
17
15
29
20
7
14
5
4
18
15
30
20
7
13
5
4
18
15
30
19
7
13
5
4
19
15
29
19
7
12
5
3
17
15
26
18
7
12
5
3
16
15
26
19
7
12
5
3
16
15
26
18
6
12
5
3
16
15
26
18
6
12
5
3
17
15
21
18
6
11
5
3
16
15
20
18
6
11
4
3
17
15
21
18
6
11
4
2
17
15
21
18
6
11
4
2
17
15
20
17
6
11
4
2
17
12
21
16
6
11
4
2
16
12
20
16
6
11
4
2
16
12
21
16
6
10
4
2
16
12
22
15
6
11
4
2
15
12
22
15
6
11
4
2
15
12
21
15
6
12
4
3
15
12
21
15
6
12
4
3
16
12
21
16
6
12
4
3
16
12
21
16
6
12
4
3
16
13
21
15
6
12
4
3
16
13
21
16
6
12
4
3
16
13
21
16
6
12
4
3
16
13
20
15
6
12
4
3
16
13
20
15
6
12
4
3
16
13
21
15
6
12
4
3
16
13
21
15
6
12
4
3
16
13
22
14
6
12
4
3
17
13
22
14
6
12
4
3
17
12
22
14
6
12
4
3
17
12
22
15
6
12
4
3
17
12
22
14
7
12
4
3
17
12
22
14
7
12
4
3
17
12
22
14
7
13
4
3
18
13
22
14
6
13
4
3
18
13
22
14
6
13
3
3
18
13
22
14
6
13
3
3
18
13
22
14
6
13
3
3
18
13
22
14
6
13
3
3
18
12
22
14
6
13
3
3
18
12
22
13
6
14
4
3
18
12
22
13
6
14
4
3
18
11
22
14
6
14
4
3
18
11
22
13
6
14
4
3
18
13
23
13
6
15
4
3
18
13
23
13
6
15
4
3
18
13
23
13
6
15
4
3
18
13
23
12
6
15
4
3
17
12
22
13
6
15
4
3
17
13
21
12
6
15
4
3
16
12
21
13
6
15
4
3
16
12
21
13
6
15
4
2
15
12
21
13
6
15
4
2
15
12
21
12
6
16
4
2
16
12
21
12
6
16
4
2
16
12
22
12
6
15
4
2
15
12
22
13
6
16
4
2
15
12
23
13
6
16
4
2
14
12
25
12
6
16
4
2
14
12
25
12
6
16
4
2
14
12
25
12
6
16
4
2
14
12
25
12
6
15
4
2
14
12
25
13
6
15
4
2
15
12
24
14
6
15
4
3
15
12
24
14
6
15
4
3
15
12
24
14
6
15
4
3
15
12
25
14
6
14
4
2
16
13
25
14
6
14
4
2
16
13
25
13
6
14
4
2
16
12
27
13
6
15
4
2
15
11
27
14
6
14
4
2
15
11
27
14
6
14
4
2
15
11
27
14
6
14
4
2
15
11
27
14
6
14
4
2
15
11
27
15
6
14
4
2
15
12
26
15
6
14
4
2
15
12
26
15
6
14
4
2
15
12
26
15
6
14
4
2
14
12
26
15
6
14
4
2
14
12
26
15
6
14
4
2
13
12
26
14
6
14
4
2
13
13
26
14
6
14
4
2
13
13
26
14
6
14
4
2
13
13
25
14
6
13
4
2
13
13
25
14
6
12
4
2
13
13
25
14
6
12
4
2
13
13
25
14
6
12
4
2
13
12
25
14
6
12
4
2
13
13
25
15
6
12
4
2
14
13
26
15
6
12
4
2
13
14
26
16
6
11
4
2
13
14
26
16
6
11
4
2
13
15
26
16
6
10
4
2
14
15
26
16
6
10
4
2
14
15
26
16
6
9
4
2
14
14
27
15
6
9
4
2
14
14
27
15
6
8
4
2
14
15
27
16
6
8
4
2
14
14
27
16
6
8
4
2
14
14
27
16
6
8
4
2
14
15
27
16
6
8
4
2
14
15
27
16
5
8
4
2
14
15
27
16
5
8
4
2
14
15
27
16
5
8
4
3
14
15
27
17
5
7
4
3
14
15
27
17
6
8
4
3
14
15
27
16
6
9
4
3
14
15
26
16
6
8
4
3
14
15
24
16
6
8
4
3
14
15
24
16
6
9
4
3
14
15
24
16
6
9
4
3
14
15
24
16
6
9
4
3
14
15
24
15
6
9
4
3
13
15
23
14
6
9
4
3
14
15
23
14
6
9
4
3
14
15
23
14
6
9
4
3
14
15
23
15
6
9
4
3
13
14
23
15
6
9
4
3
14
14
22
15
6
10
4
3
13
14
20
15
5
9
4
3
14
14
20
15
5
9
4
3
14
14
20
15
5
9
4
3
14
14
20
15
5
9
4
3
14
14
20
15
6
9
4
3
14
14
21
14
6
9
4
3
14
14
21
14
6
9
4
3
14
14
21
14
6
9
4
3
14
14
21
14
6
9
4
3
14
13
20
14
6
9
4
3
13
13
20
14
6
9
4
3
13
13
19
14
6
9
4
3
13
13
19
14
6
9
4
3
13
13
19
14
5
9
4
3
13
13
19
14
5
9
4
3
13
13
18
14
5
9
4
3
13
13
18
14
5
8
4
3
13
13
18
14
5
9
4
3
13
13
18
14
5
9
4
3
13
13
18
12
5
8
4
3
12
12
17
12
5
9
4
3
12
11
16
12
5
9
4
3
12
11
16
12
5
9
4
3
11
10
16
12
5
9
4
3
11
9
16
12
5
9
4
3
11
9
15
12
5
9
3
3
11
8
14
12
5
9
3
3
10
8
13
12
5
9
3
3
10
8
12
11
5
9
3
3
10
8
12
11
5
9
3
3
10
8
12
11
5
9
3
3
10
7
12
11
5
9
3
3
10
7
12
10
5
9
3
3
10
7
12
10
5
9
3
3
10
6
12
10
5
9
3
3
10
6
12
9
5
9
3
3
9
6
11
8
4
8
3
3
9
6
10
8
4
7
3
3
9
6
9
8
4
7
3
3
9
5
9
8
4
7
3
3
9
5
9
8
4
7
3
3
9
5
8
8
4
7
3
3
9
5
8
8
3
7
4
3
9
5
8
8
3
7
4
3
9
5
8
8
3
7
4
3
7
5
8
7
3
7
3
3
7
5
8
7
3
7
3
3
7
4
7
5
3
7
3
3
7
4
7
5
3
7
3
3
6
4
7
5
3
6
4
3
6
4
7
4
3
6
4
3
5
4
7
4
3
6
4
3
5
4
7
4
3
6
4
3
4
3
7
3
3
6
4
3
4
3
7
3
2
6
4
3
4
3
4
2
2
6
4
3
4
3
4
2
2
6
4
3
3
3
3
2
2
6
4
3
3
3
3
2
2
6
4
3
3
3
3
2
2
7
4
3
4
3
3
2
2
7
4
3
3
3
3
1
2
7
4
3
3
2
3
1
2
7
4
3
3
2
3
1
2
7
4
3
3
2
3
1
2
7
5
3
3
2
3
2
2
7
5
3
3
2
2
2
2
7
5
3
3
2
2
1
2
7
5
3
2
2
2
1
2
6
5
3
2
2
2
1
2
7
5
3
2
2
2
1
2
8
5
3
3
2
2
1
2
8
5
3
3
2
2
1
2
8
5
3
3
2
2
2
2
9
6
3
3
2
2
2
3
9
6
3
3
2
1
2
3
9
6
3
3
2
1
2
3
9
6
3
3
2
1
2
3
9
7
3
3
2
1
2
3
10
8
3
3
2
1
2
3
11
8
3
3
2
1
2
4
11
8
3
3
2
1
2
4
11
8
3
3
2
1
2
5
13
9
3
3
2
1
2
6
13
9
3
3
2
1
2
6
13
9
3
3
3
1
2
6
15
10
3
3
3
1
2
6
15
10
3
3
3
1
2
6
15
10
3
3
3
1
2
6
16
10
4
3
3
1
2
6
16
10
4
3
3
1
2
6
16
10
4
3
3
1
3
7
17
10
4
3
3
1
2
7
17
10
3
3
3
1
2
7
17
10
3
3
3
1
2
7
17
11
3
3
3
1
2
7
17
11
4
3
3
1
2
7
17
11
3
3
3
1
3
7
18
11
3
3
3
1
3
8
20
12
4
4
3
1
3
8
20
12
4
4
3
1
3
8
20
12
4
4
3
1
3
8
20
11
4
4
3
1
3
8
20
11
4
5
3
1
3
8
20
11
4
5
3
1
3
8
20
11
4
5
3
1
3
8
20
11
4
5
3
1
3
8
20
11
4
5
3
1
3
8
20
11
4
5
3
1
3
8
20
11
4
5
3
1
3
8
20
11
4
5
3
1
3
8
20
11
4
5
3
1
3
8
20
11
4
5
4
1
3
8
20
11
4
5
4
1
3
8
20
11
4
5
4
1
3
8
20
11
4
5
4
1
3
8
20
11
4
5
4
1
3
8
21
11
4
5
4
1
3
8
21
11
4
5
4
1
3
8
21
11
4
5
4
1
3
8
21
11
4
6
4
1
3
8
20
11
4
6
5
1
3
8
20
11
4
6
5
1
3
8
20
11
4
6
5
1
3
8
20
11
4
6
5
1
3
8
20
11
4
6
5
1
3
8
20
11
4
6
5
1
3
8
20
11
4
6
5
1
3
8
20
11
4
6
5
1
3
8
19
10
4
6
5
1
3
8
20
10
4
6
5
1
3
8
20
10
4
6
5
1
3
8
20
10
4
6
5
1
3
7
19
9
4
6
5
1
3
7
19
9
4
6
5
1
3
6
20
9
4
6
5
1
3
6
19
8
4
6
5
1
3
6
18
8
4
6
5
1
3
6
18
8
4
6
5
1
2
6
18
8
3
6
5
1
2
6
19
8
3
7
5
1
2
6
19
8
3
7
5
1
2
6
18
8
3
7
5
1
2
6
18
8
3
7
5
1
2
6
18
8
3
7
5
1
2
6
17
7
3
7
5
1
2
6
17
7
3
7
5
1
2
6
17
7
3
7
5
1
2
5
17
7
3
7
5
1
2
5
14
6
3
6
5
1
2
4
14
6
3
6
5
1
2
4
14
6
3
6
5
1
2
4
14
6
3
6
5
1
2
4
15
6
3
6
5
1
2
4
16
6
3
6
5
1
2
4
16
6
3
6
5
1
2
4
16
6
3
6
5
1
2
4
15
6
3
6
5
1
1
4
15
6
3
6
5
1
1
4
15
6
3
6
5
1
1
4
15
6
3
6
5
1
1
4
15
6
2
6
5
1
1
4
15
6
2
6
5
1
1
4
15
6
2
6
4
1
1
4
15
6
2
6
4
1
1
3
15
6
2
6
5
1
1
3
15
5
2
6
5
1
1
3
14
5
2
6
4
1
1
3
14
5
2
6
4
1
1
3
14
5
2
6
4
1
1
3
14
5
2
6
4
1
1
3
14
5
2
5
4
1
1
3
14
5
2
5
4
1
1
3
14
5
2
5
4
1
1
3
14
5
2
5
4
1
1
3
14
5
2
5
4
1
1
3
14
5
2
5
4
1
1
3
14
5
2
5
4
1
1
3
14
5
2
5
4
1
1
3
14
5
2
5
4
1
1
3
13
5
2
5
4
1
1
3
13
5
2
5
4
1
1
3
13
4
2
5
4
1
1
3
13
4
2
5
4
1
1
3
11
4
2
5
4
1
1
3
10
4
2
5
4
1
1
3
10
4
2
5
4
1
1
2
10
4
2
5
4
1
1
2
10
4
2
5
4
1
1
2
9
4
2
5
4
1
1
2
9
4
2
5
4
2
1
2
9
4
2
5
5
2
1
2
9
4
2
5
5
2
1
2
8
4
2
5
5
2
1
2
8
4
2
5
5
2
1
2
8
4
2
5
5
2
1
2
8
4
2
5
5
2
2
2
8
4
2
6
5
2
2
2
8
4
2
7
6
2
2
2
8
4
2
7
6
3
3
2
7
4
2
7
6
3
3
2
7
3
2
7
6
3
3
2
7
3
2
7
7
4
4
2
5
3
2
7
7
4
4
2
4
3
2
7
7
4
4
2
4
3
2
7
7
4
4
2
4
3
2
7
7
5
4
2
4
3
2
7
7
5
4
2
4
3
2
7
7
8
5
2
4
3
2
7
8
10
5
2
4
3
2
7
8
10
5
2
4
3
2
7
8
10
6
2
4
3
2
8
8
10
6
2
4
3
2
8
8
10
6
2
4
3
2
8
8
10
6
2
3
3
2
8
8
10
6
2
3
3
2
8
8
10
6
2
3
3
2
8
8
11
6
2
3
3
2
8
8
11
6
2
3
3
2
7
9
12
6
2
3
3
2
8
9
13
6
2
3
3
2
8
11
16
6
2
3
3
2
8
12
16
8
2
3
3
2
8
12
16
8
2
4
3
2
8
12
19
8
2
4
3
2
8
12
19
8
2
3
3
2
8
12
19
9
2
3
3
2
8
13
20
9
2
3
3
2
9
13
20
10
2
4
3
2
10
13
20
10
2
4
3
2
10
13
21
11
3
4
3
2
10
13
21
11
3
3
3
2
11
13
22
11
3
4
3
2
11
13
22
11
3
4
3
2
11
15
24
12
3
4
3
2
11
15
25
12
3
4
3
2
12
16
28
12
3
4
3
2
14
16
30
13
3
4
4
2
15
16
30
13
3
4
4
2
15
18
31
13
4
4
4
2
15
18
31
13
4
4
4
2
16
18
31
13
4
4
4
3
16
18
33
15
4
4
4
3
16
18
33
15
4
4
4
3
18
18
33
16
4
4
4
3
18
18
37
16
4
6
5
3
19
19
39
17
4
6
5
3
19
19
40
22
5
6
5
3
19
19
40
22
5
6
5
3
22
19
40
23
5
6
5
3
22
19
40
23
5
6
5
3
22
19
41
23
5
6
5
3
22
19
41
23
5
6
5
3
22
21
42
23
6
6
5
3
22
21
42
24
7
6
5
3
22
21
44
28
7
6
5
3
25
21
45
28
7
6
5
3
25
22
46
28
7
6
5
3
25
22
46
29
7
6
5
3
25
22
45
29
7
6
6
3
25
24
45
29
7
6
6
3
25
24
45
29
8
7
6
3
26
24
46
29
8
7
6
3
26
25
47
29
8
7
6
3
26
25
48
29
8
7
6
4
26
25
48
29
8
7
6
4
26
26
49
30
8
8
6
4
28
26
49
30
8
8
6
4
28
26
50
31
8
8
6
4
28
26
50
32
8
8
6
4
28
27
51
32
9
8
6
4
28
26
50
32
9
8
6
4
28
26
50
32
9
8
6
4
28
26
51
32
10
8
6
4
28
26
50
32
10
8
6
4
28
26
50
32
10
9
6
4
28
26
51
32
10
9
6
4
28
26
52
33
10
10
7
4
28
26
53
34
10
10
7
4
28
26
55
34
10
10
7
4
28
26
55
34
10
11
7
4
28
26
54
34
10
11
7
4
28
27
54
34
10
11
7
4
28
27
54
35
10
11
7
4
28
27
54
35
10
11
7
4
28
27
53
36
10
11
7
4
28
26
52
36
10
11
7
4
27
26
51
36
11
11
7
4
27
26
51
36
10
11
7
4
27
25
50
37
11
11
7
4
27
25
50
36
11
11
7
4
26
26
50
36
11
11
7
4
27
26
49
36
10
11
7
4
27
26
49
36
11
11
7
4
26
26
49
35
11
11
7
4
26
26
47
35
11
11
6
4
25
26
45
35
11
11
6
4
26
26
45
33
11
11
6
4
26
26
44
33
11
11
6
4
25
26
44
32
11
11
6
4
24
26
45
32
11
11
6
4
25
26
45
32
11
11
6
4
25
26
44
32
11
11
6
4
25
24
44
32
10
11
6
4
25
24
43
32
10
11
6
4
26
24
42
29
10
11
6
4
23
24
41
30
11
11
6
4
23
24
40
30
11
11
6
4
23
24
40
30
11
11
6
4
23
24
40
30
11
11
6
4
24
23
40
30
11
11
6
4
23
23
40
30
11
11
6
4
23
23
39
30
11
12
6
4
24
21
39
30
11
12
6
4
24
21
38
30
11
12
6
4
23
21
37
30
11
12
6
4
23
21
37
29
11
12
6
3
22
21
37
29
11
11
6
3
22
21
35
27
11
11
6
3
22
21
35
27
11
11
6
4
22
20
34
27
10
11
6
3
22
20
34
27
10
11
6
3
22
20
34
28
10
11
6
3
22
20
32
28
9
11
6
3
22
20
32
28
9
11
6
3
22
20
32
28
9
11
6
3
23
21
31
28
9
11
6
3
23
21
28
26
9
10
5
3
23
21
27
25
9
9
4
3
25
22
24
25
9
9
4
3
25
22
24
24
9
9
4
3
25
22
24
24
9
9
4
3
25
22
24
24
9
9
4
3
25
22
23
23
9
9
4
3
25
21
23
23
9
8
4
3
24
21
24
22
9
8
4
3
24
21
24
22
9
8
4
3
24
21
23
21
9
8
4
3
24
21
24
21
9
8
4
3
24
21
24
21
8
8
5
3
24
21
24
21
8
8
4
3
24
20
24
21
8
9
4
3
23
19
24
21
8
9
4
3
23
19
24
21
9
10
4
3
23
19
23
21
9
10
4
3
23
19
23
21
9
10
5
3
23
19
23
21
9
10
5
3
23
19
23
20
9
10
5
3
22
20
23
20
9
10
5
3
22
20
23
20
9
10
4
3
22
20
22
20
9
10
4
3
22
20
22
20
9
10
4
3
21
20
22
20
9
10
5
3
21
21
21
19
9
10
4
3
21
21
21
19
9
10
5
3
21
20
21
20
9
10
5
3
21
21
23
19
8
9
4
3
21
21
22
19
7
9
4
3
21
21
23
19
7
9
5
3
21
20
23
19
7
9
4
3
21
20
23
19
7
9
5
3
21
20
23
18
7
10
5
3
21
20
23
18
7
10
5
3
20
19
23
19
7
10
5
3
21
19
23
19
7
10
5
3
21
19
23
19
7
9
5
3
21
19
23
19
7
9
5
3
21
19
23
19
7
9
5
3
21
19
23
19
7
10
5
3
20
18
23
19
7
10
4
3
20
18
24
19
8
10
4
3
20
18
24
18
8
10
5
3
20
18
24
18
8
10
4
3
20
18
27
18
8
10
5
3
21
18
27
17
8
10
4
3
21
18
27
18
8
11
5
3
20
17
27
17
8
11
4
3
20
17
26
17
8
11
5
3
19
17
26
17
8
11
5
3
16
14
25
17
8
11
5
3
17
14
25
18
8
11
4
3
16
14
25
18
8
11
4
3
17
14
25
18
8
11
4
3
18
14
25
18
8
11
4
3
17
14
26
18
8
11
4
3
17
14
27
18
8
11
5
3
17
14
27
18
8
11
5
3
17
14
27
18
8
11
5
3
17
14
27
18
8
11
5
3
17
14
26
18
8
11
4
3
17
14
26
18
8
11
4
3
17
15
26
18
8
11
4
3
17
15
26
18
8
11
4
3
18
15
26
18
7
10
5
3
18
15
26
18
7
10
5
3
18
15
26
18
7
10
4
3
18
15
26
18
7
10
5
3
18
15
26
18
7
10
4
3
17
14
26
18
7
10
4
3
17
14
26
17
7
11
4
3
17
14
26
17
7
11
5
3
17
13
26
17
7
11
5
3
17
14
28
17
7
11
5
3
17
13
28
17
7
11
5
3
17
13
28
17
8
11
5
3
17
13
28
16
8
11
5
3
17
13
27
15
8
11
5
3
17
12
27
15
8
11
5
3
17
12
27
15
8
11
5
3
17
12
26
16
7
11
4
3
16
12
26
16
7
11
4
3
15
12
26
16
7
10
4
3
15
12
27
16
8
10
4
3
15
12
27
16
7
10
4
2
15
12
26
16
7
10
4
2
15
12
26
16
8
10
4
2
15
12
26
16
8
10
4
3
15
12
26
15
8
10
4
3
15
12
26
15
8
10
4
3
15
12
26
16
8
9
4
3
15
12
24
15
8
9
4
3
15
13
25
15
7
9
4
3
15
14
26
16
7
9
4
3
15
14
23
16
7
9
4
3
15
14
23
16
7
9
4
3
15
14
23
15
7
8
4
3
15
14
23
15
7
9
4
3
15
14
24
15
7
9
4
3
15
14
24
15
7
9
4
3
15
14
24
16
7
9
4
3
14
14
24
14
7
9
4
3
14
14
24
14
7
9
4
3
13
14
25
14
7
9
4
3
12
14
25
14
7
9
4
3
13
14
25
14
7
9
4
3
13
14
23
14
7
9
4
3
13
14
23
15
7
9
4
2
13
14
23
15
7
9
4
3
13
14
23
15
7
9
4
3
13
14
23
15
7
9
4
3
14
15
23
14
7
9
4
3
15
15
23
14
7
8
4
3
15
15
23
14
7
8
4
3
14
14
23
14
7
8
3
3
14
14
23
14
7
8
3
3
14
14
23
14
7
8
3
3
14
14
23
14
7
8
3
3
14
14
23
14
7
7
3
3
13
14
23
14
7
7
3
3
14
14
23
14
7
6
3
3
14
14
23
14
7
6
3
3
13
15
22
14
7
6
3
3
14
14
22
14
7
6
3
3
14
14
22
14
7
6
3
3
14
14
22
14
6
6
3
3
14
14
21
14
6
6
3
3
15
14
21
14
6
6
3
3
15
14
21
15
6
6
3
3
15
14
21
15
6
6
3
3
15
14
20
15
6
6
3
3
15
15
20
14
6
6
3
3
15
15
20
14
7
6
3
3
15
15
20
14
6
6
3
3
15
15
20
14
6
6
3
3
15
15
21
14
6
6
3
3
14
15
22
14
6
6
3
3
14
15
22
14
5
6
3
3
14
15
22
14
5
6
3
3
14
15
22
14
5
6
3
3
14
15
22
14
5
6
3
3
14
15
22
14
5
6
3
3
14
14
21
14
6
6
3
3
14
14
20
13
6
6
3
3
14
14
20
13
6
6
3
3
14
13
20
13
5
6
3
3
14
14
19
13
6
6
3
3
14
14
19
13
6
6
3
3
14
14
20
13
6
6
3
3
14
14
19
13
6
6
3
3
14
14
19
13
6
6
3
3
14
14
20
13
6
6
3
3
14
14
19
13
6
6
3
3
14
13
18
13
7
6
3
3
14
13
18
13
7
6
3
3
14
13
18
13
7
6
3
3
13
13
18
13
7
6
3
3
13
13
18
12
7
6
3
3
13
13
18
12
7
6
3
3
13
13
18
12
7
6
3
3
13
13
18
12
7
6
3
3
12
12
18
12
7
6
3
3
12
12
18
12
7
6
3
3
11
12
18
12
7
6
3
3
11
12
19
12
7
6
3
3
11
12
19
13
7
6
3
2
11
12
19
13
7
6
3
3
11
12
19
13
8
6
3
2
11
12
19
13
8
6
3
2
11
12
19
13
8
7
3
3
11
12
19
13
7
7
3
3
11
12
20
13
7
7
3
3
11
12
20
14
7
7
3
2
10
12
18
13
7
6
3
2
10
11
19
13
7
6
3
2
9
11
19
13
7
6
3
2
9
11
19
13
7
6
3
2
9
11
19
13
7
7
3
2
9
11
19
12
7
7
3
2
9
11
20
12
7
7
3
2
8
11
20
11
7
6
3
2
9
11
20
11
7
6
3
2
9
11
20
11
7
6
3
2
9
12
20
11
7
6
3
2
9
12
20
11
7
6
3
2
11
12
19
11
7
6
3
2
11
12
18
11
7
6
3
2
11
12
19
11
7
6
3
2
11
12
20
11
7
6
3
2
11
12
20
11
7
6
3
2
11
12
20
11
7
6
3
2
11
12
20
11
7
6
3
2
11
12
20
11
6
6
3
2
11
12
20
11
6
6
3
2
11
12
20
11
6
6
3
2
11
12
20
12
6
6
3
2
11
12
20
12
6
5
3
2
11
11
20
12
6
5
3
2
11
11
19
12
6
5
3
2
12
11
19
12
6
5
3
2
12
11
19
12
6
5
3
2
12
12
19
12
6
5
3
2
12
12
19
12
5
5
3
2
11
12
19
12
5
5
3
2
11
12
19
12
5
5
3
2
11
12
19
12
5
5
3
2
11
12
18
12
5
5
3
2
11
12
18
12
5
5
3
2
11
12
18
12
5
5
2
2
12
12
18
12
5
5
2
2
12
12
18
12
5
6
2
2
12
12
18
12
5
5
2
2
12
11
18
12
5
5
2
2
12
11
18
12
5
5
2
2
12
11
18
12
4
5
2
2
12
11
17
11
4
5
2
2
12
11
17
11
4
5
2
2
12
11
17
11
4
5
2
2
12
11
17
11
3
5
2
2
12
11
17
11
3
4
2
2
12
11
17
10
3
5
2
2
12
11
16
10
3
5
2
2
12
11
16
10
3
5
2
2
12
11
16
10
3
5
2
2
12
11
15
10
4
5
2
2
12
11
15
10
4
5
2
3
12
11
15
10
4
5
2
3
12
11
15
10
4
4
2
3
12
10
14
9
4
4
3
3
11
10
13
9
4
4
2
3
11
10
13
9
4
4
3
3
11
10
13
9
4
5
3
3
11
10
13
9
4
5
3
3
11
9
13
9
4
5
3
3
11
8
13
9
4
5
3
2
9
7
12
9
4
5
3
3
9
7
12
8
4
5
3
2
9
7
12
8
4
5
3
2
9
7
10
8
4
5
3
2
9
7
10
8
3
5
3
2
9
7
10
8
3
5
3
3
8
7
10
8
3
5
3
3
8
7
9
8
3
5
3
2
8
7
9
8
3
5
3
3
8
7
8
8
3
5
5
3
7
6
8
7
3
5
7
3
7
6
8
7
3
5
8
3
7
6
7
6
3
5
8
3
7
6
7
6
3
5
8
3
7
5
7
6
3
6
8
3
7
5
6
6
3
6
8
3
6
5
6
6
3
6
8
3
6
5
6
6
3
6
8
3
6
5
6
6
3
6
8
3
6
5
6
5
3
6
8
3
6
4
6
4
3
6
8
3
6
4
6
4
3
7
8
3
6
4
6
4
3
7
8
3
6
4
6
4
3
7
8
3
5
4
4
4
3
7
8
3
4
4
4
3
3
7
8
3
3
4
4
3
3
6
9
4
3
3
4
2
3
6
9
4
3
3
4
2
3
7
9
4
3
3
4
2
3
7
9
4
3
3
4
2
3
9
9
4
3
3
3
2
3
9
9
4
3
3
3
2
3
9
9
4
3
3
3
2
3
9
9
4
3
3
3
2
3
9
9
4
3
3
3
1
3
9
10
4
3
3
2
1
3
9
10
4
2
3
2
1
3
10
10
4
2
3
2
1
3
10
10
4
2
3
2
1
3
11
10
4
2
2
2
1
3
11
10
4
2
2
2
1
3
11
10
4
2
2
2
2
4
12
10
4
2
2
2
2
4
12
10
4
2
2
2
2
4
12
10
4
2
2
2
2
4
13
10
4
2
2
2
2
4
15
11
4
2
2
2
2
5
17
11
4
2
2
2
2
5
17
11
4
2
2
2
2
5
17
11
4
2
2
2
2
5
17
11
5
2
2
2
2
5
17
11
5
2
2
2
2
5
17
11
5
2
2
1
2
5
17
11
5
2
2
1
2
5
18
11
5
2
2
1
2
6
18
11
5
2
2
2
2
6
18
11
5
2
2
2
2
6
18
11
5
2
2
2
3
6
18
11
5
2
2
2
3
6
18
11
5
2
2
2
3
6
19
9
4
2
2
2
3
6
19
9
5
2
2
2
3
6
19
9
5
2
2
2
3
6
19
9
5
2
3
2
3
6
19
9
5
3
3
2
3
6
19
9
5
3
3
2
3
6
20
9
5
3
3
2
3
6
21
9
5
3
3
2
3
6
21
9
5
3
3
1
3
6
21
9
5
3
3
1
3
6
21
9
5
3
3
2
3
6
21
9
5
3
3
2
3
6
21
9
5
3
3
1
3
6
23
9
5
3
3
2
3
6
23
9
5
3
3
2
3
6
23
9
5
4
3
2
3
6
23
9
5
4
3
1
3
7
23
9
5
4
3
1
3
6
23
9
5
4
3
1
3
6
23
9
4
4
3
1
3
6
23
9
5
4
3
1
3
6
22
9
4
4
3
2
3
6
22
9
5
4
3
2
3
6
22
8
5
4
3
2
3
6
23
8
5
4
3
2
3
6
23
8
5
4
3
2
3
7
23
8
5
4
4
2
3
7
23
8
5
5
4
2
3
6
23
8
5
5
4
2
3
6
23
8
5
5
4
2
3
6
23
8
5
6
4
2
3
6
23
8
5
6
4
2
3
6
23
8
4
5
4
2
3
6
23
8
4
5
4
2
3
6
23
8
4
5
4
2
3
6
23
7
4
5
4
1
2
6
22
7
4
5
4
1
2
5
21
7
4
5
4
1
2
5
21
7
4
5
5
1
2
5
21
7
4
5
5
1
2
5
21
6
3
5
5
1
2
5
21
6
3
5
5
1
2
5
21
6
3
5
5
1
2
5
21
6
3
6
5
1
2
5
20
6
3
6
5
1
2
5
20
6
3
5
5
1
2
5
20
6
3
5
5
1
2
5
20
6
3
5
5
1
2
4
20
6
3
5
5
1
2
4
20
6
3
5
5
1
2
4
20
6
3
6
5
1
2
4
20
5
3
6
5
1
2
4
20
5
3
5
5
1
2
4
19
5
3
5
5
1
2
4
19
5
3
5
5
1
2
4
19
5
3
5
5
1
2
4
18
5
3
5
4
1
2
4
18
5
3
5
4
1
2
4
18
5
3
5
5
1
2
4
18
5
3
5
5
1
2
4
18
5
3
5
5
1
2
4
18
5
3
5
5
1
2
4
17
5
3
5
5
1
1
3
16
4
2
5
5
1
1
4
16
4
2
5
5
1
1
3
15
4
2
5
5
1
1
3
15
4
2
5
5
1
1
3
15
4
2
5
5
1
1
3
15
4
2
5
5
1
1
3
15
4
2
5
5
1
1
3
15
4
2
5
5
1
1
3
15
4
2
5
5
1
1
3
15
4
2
5
5
1
1
3
15
4
2
5
5
1
1
3
15
4
2
5
5
1
1
3
14
4
2
5
5
1
1
3
14
3
2
5
5
1
1
3
14
3
2
4
4
2
1
3
14
3
2
4
5
2
1
3
13
3
2
4
5
3
1
2
13
3
2
4
5
3
1
3
12
3
2
4
5
3
1
3
12
3
2
4
6
3
1
2
12
3
2
4
6
3
1
2
12
3
2
4
6
3
1
2
11
3
2
4
6
3
1
2
10
3
2
4
6
3
1
2
10
3
2
4
7
3
1
2
10
3
2
4
6
3
1
2
10
3
2
4
7
3
1
2
10
3
2
4
6
3
2
2
10
3
2
4
7
4
2
2
10
3
2
4
7
4
2
2
10
3
2
4
7
4
2
2
10
3
2
4
7
4
2
2
10
3
2
4
8
4
2
2
10
3
2
4
8
4
3
2
9
3
2
5
8
4
3
2
8
3
2
5
8
4
4
2
8
3
2
6
8
7
7
2
8
3
2
6
9
7
7
2
8
3
2
6
9
7
7
2
8
3
2
6
9
11
7
2
8
3
2
6
9
11
7
2
8
3
2
6
9
12
8
2
8
3
2
6
9
12
8
2
7
3
2
6
9
14
9
2
7
3
2
6
9
15
10
2
7
3
2
6
9
17
11
2
7
3
2
6
9
18
13
2
6
3
2
6
9
18
14
2
6
3
2
6
10
19
15
2
6
3
2
6
10
19
15
3
6
3
2
6
10
22
15
3
6
3
2
6
10
22
15
3
6
3
2
7
10
22
16
3
6
3
2
7
10
22
16
3
5
3
2
9
10
22
16
3
5
3
3
15
11
22
16
3
5
4
3
16
11
22
16
3
5
4
3
16
11
23
16
3
5
4
3
16
11
24
16
3
4
4
3
16
11
24
16
3
4
4
3
17
11
25
16
3
4
4
3
17
11
27
17
3
4
4
4
17
11
27
18
3
4
4
4
17
12
32
18
3
4
4
3
17
13
32
20
4
4
4
3
17
14
32
20
4
5
4
4
18
14
33
20
4
4
4
4
18
14
33
21
5
4
4
4
18
14
34
21
5
4
5
4
18
15
38
22
5
4
5
4
18
15
38
22
5
4
5
4
18
16
38
23
5
4
5
4
18
16
39
24
5
4
5
4
18
16
40
24
5
4
5
4
18
15
40
24
5
4
5
4
19
16
41
25
6
7
6
4
19
16
41
26
6
7
6
4
19
18
41
27
6
7
6
4
20
18
41
27
7
10
6
4
20
18
43
27
7
12
6
4
20
18
43
28
8
12
6
4
21
18
44
30
8
13
7
4
22
18
45
30
8
13
7
4
22
18
46
30
9
13
7
4
22
23
47
31
9
14
7
5
22
23
47
34
10
14
8
5
23
23
49
33
11
14
8
5
24
24
49
33
11
14
8
5
25
25
52
34
11
15
8
5
25
26
52
34
11
15
8
5
25
26
52
35
11
15
8
6
27
26
51
35
11
15
8
6
29
28
52
36
11
15
8
6
29
28
52
36
12
15
8
6
29
28
51
35
12
16
8
6
29
28
51
35
12
16
9
6
30
29
54
39
12
16
9
6
31
33
54
39
12
16
9
6
32
34
54
39
12
16
9
6
34
35
56
39
13
17
9
7
34
35
55
39
13
17
9
7
34
35
55
40
14
17
9
7
33
35
55
39
14
17
9
7
34
36
55
41
15
17
9
7
33
36
55
41
15
18
9
6
31
37
55
41
15
18
9
7
31
38
56
41
15
18
9
7
31
38
56
41
15
18
9
7
31
38
56
42
15
18
9
7
31
38
56
42
15
18
9
7
31
38
56
42
15
19
9
7
31
38
56
42
16
19
9
7
31
38
56
42
16
19
10
7
31
38
54
42
16
19
10
7
31
38
55
42
16
19
10
7
32
38
55
42
16
19
10
7
32
38
54
42
16
19
10
7
31
38
54
41
16
19
10
7
31
37
54
41
16
19
9
7
31
37
51
43
17
19
9
7
32
37
53
43
17
19
9
7
32
37
54
43
17
19
9
7
32
37
53
43
17
19
9
7
32
37
52
44
17
19
9
7
33
37
52
44
17
19
9
7
33
37
51
43
17
19
9
7
32
37
51
43
17
19
9
7
33
36
51
42
17
19
9
7
32
36
51
42
17
18
9
7
32
36
50
42
17
16
9
7
32
36
50
42
16
16
9
7
32
36
50
41
16
16
9
7
31
37
49
41
16
16
9
7
31
37
50
41
16
16
9
7
31
34
49
40
16
15
8
7
31
34
48
38
15
15
8
7
30
34
47
38
15
15
8
7
30
33
46
38
15
15
8
7
30
32
44
38
15
14
8
6
30
31
43
37
15
15
8
7
30
31
43
37
15
14
8
6
27
31
44
37
15
14
8
6
26
30
43
37
15
14
8
6
26
30
43
36
14
14
7
6
26
30
43
36
14
14
8
6
26
30
44
36
14
14
7
6
24
29
40
32
14
14
7
5
23
24
40
32
14
14
7
5
23
23
40
31
14
15
7
6
21
21
38
32
13
13
7
5
22
21
38
31
13
13
7
5
22
21
38
30
13
13
7
5
22
21
38
30
13
13
6
5
22
20
38
28
12
13
6
5
22
19
37
28
12
13
6
5
22
17
37
28
11
13
6
4
21
16
36
28
11
13
6
4
21
16
36
28
11
12
6
4
20
16
36
28
11
13
6
4
20
16
36
28
11
13
6
4
20
16
36
28
11
12
6
4
21
16
34
28
11
12
6
4
20
16
34
27
10
12
6
4
20
16
34
26
10
11
6
4
21
15
33
26
9
11
5
4
20
15
32
26
10
11
6
4
21
15
33
26
9
11
6
4
21
15
33
26
9
11
6
4
21
15
33
25
10
11
6
4
20
15
33
23
8
11
5
4
20
15
30
21
8
12
5
3
20
15
29
20
7
12
5
3
19
14
29
20
7
12
5
3
19
14
29
19
7
12
6
3
18
14
30
19
7
12
6
3
18
14
30
19
7
12
6
3
18
14
30
19
7
12
6
3
18
13
30
19
7
12
5
3
18
14
30
19
7
12
6
3
18
14
29
18
7
12
5
3
18
14
30
17
7
11
5
3
18
14
29
17
7
11
5
3
18
13
28
17
7
11
5
3
18
13
27
17
7
12
5
3
18
14
27
16
8
12
5
3
18
14
27
16
8
12
5
3
20
14
27
17
7
12
5
3
20
14
27
16
8
11
5
3
19
14
27
17
7
11
5
3
19
15
26
17
8
11
5
3
19
15
28
15
7
11
5
4
19
15
28
15
7
11
5
3
19
15
28
15
8
12
5
3
19
15
27
15
8
12
5
4
19
15
28
15
8
11
5
4
19
15
27
15
8
11
5
4
19
15
27
15
8
11
5
4
19
15
26
15
7
11
5
4
19
15
26
15
7
11
5
3
17
15
26
14
7
11
5
3
16
15
26
14
7
10
5
4
17
15
26
14
7
11
5
4
17
15
26
14
7
11
5
4
17
15
26
14
7
10
5
4
17
15
27
15
7
10
5
4
18
15
28
14
7
10
5
4
18
15
28
14
7
10
5
4
18
15
28
14
7
10
5
4
18
15
27
14
7
10
4
4
18
15
27
14
7
10
4
4
18
15
27
14
7
10
4
4
17
14
28
14
7
10
4
4
18
15
28
16
7
10
4
4
18
14
28
16
7
10
4
4
17
15
27
15
7
10
4
4
17
15
27
15
7
10
4
4
16
15
27
16
7
10
4
4
16
15
27
16
7
10
4
4
16
15
27
16
7
10
4
4
16
15
27
16
8
10
4
4
16
15
27
20
9
9
4
4
16
14
26
20
9
9
4
4
17
14
27
20
9
9
4
4
17
14
27
20
9
9
3
4
17
14
26
19
9
9
3
4
17
14
26
19
9
9
3
4
16
14
26
19
9
9
4
4
17
14
26
19
9
8
4
4
17
14
26
19
9
9
4
4
17
14
27
20
9
9
4
4
18
14
26
20
9
9
4
4
18
14
26
20
9
9
4
3
18
14
26
20
10
9
4
3
18
13
27
20
9
8
4
4
18
13
28
20
10
8
4
3
17
13
28
20
10
8
4
3
15
13
28
20
10
8
4
3
15
12
28
20
10
9
4
3
15
12
28
19
10
9
4
3
15
12
28
19
10
8
4
3
15
11
26
19
10
8
4
3
15
12
26
20
10
8
4
4
15
12
27
20
10
8
4
4
15
12
27
20
10
8
4
3
15
12
26
20
10
8
4
4
15
12
26
20
10
8
4
4
15
11
26
20
10
9
4
3
15
11
26
20
10
8
4
3
15
11
26
20
10
8
4
3
15
11
26
21
10
8
4
3
15
11
25
21
10
8
4
3
15
12
25
21
10
8
4
3
15
13
25
21
10
8
4
3
15
14
25
21
10
8
4
3
15
14
26
21
10
8
4
3
13
14
25
21
10
8
4
3
13
14
25
21
10
8
4
3
13
14
25
21
10
8
4
3
14
14
25
21
10
8
4
3
14
14
24
21
10
8
4
3
14
14
24
21
10
8
4
3
14
14
23
21
10
8
4
3
13
14
23
20
10
8
4
3
13
14
23
20
10
8
4
3
13
13
23
19
10
8
4
3
13
13
23
19
10
8
4
3
13
13
23
19
9
8
4
3
13
13
24
19
9
8
4
3
13
13
24
20
10
8
4
3
13
13
25
19
9
8
4
3
13
13
25
16
8
8
4
3
13
14
25
16
8
8
4
3
13
14
24
16
8
8
4
3
13
13
24
17
8
8
4
3
13
13
24
17
8
8
4
3
13
13
25
17
8
8
4
3
13
14
25
17
8
8
4
3
13
14
24
17
8
8
4
3
13
14
24
17
8
8
4
3
11
14
23
16
8
7
4
3
11
14
23
17
7
7
4
3
11
13
23
17
7
7
4
3
11
13
23
17
7
7
4
3
11
13
23
16
7
7
4
3
10
13
22
16
6
7
4
3
10
13
21
16
6
7
4
3
10
13
21
16
6
8
4
3
10
13
21
17
6
7
4
3
10
14
20
18
6
7
4
2
11
13
21
18
6
7
4
2
11
14
22
18
6
7
4
2
10
13
21
18
6
7
4
2
10
13
20
17
6
7
4
2
10
13
20
17
6
7
4
2
10
13
20
16
6
7
3
2
10
13
20
16
6
7
3
2
10
13
20
16
6
6
3
2
10
13
20
16
6
6
3
2
10
13
20
17
6
6
3
2
10
13
21
16
6
6
3
2
10
13
21
16
6
7
3
2
10
12
21
16
6
7
3
2
10
11
22
16
6
7
3
2
10
11
22
16
6
7
3
2
10
11
21
15
6
7
3
2
10
10
20
15
6
7
3
2
10
10
20
15
6
7
3
2
10
10
20
15
6
7
3
2
10
10
21
15
6
7
3
2
9
10
21
15
6
7
3
2
9
10
21
14
6
7
3
2
9
10
21
14
6
7
3
2
9
10
21
14
6
7
3
2
9
10
21
14
5
7
3
2
9
10
21
14
6
7
3
2
10
10
21
14
5
6
3
2
10
10
22
14
5
6
3
2
10
10
21
14
5
6
3
2
10
10
21
13
5
6
3
2
10
10
20
13
5
6
3
2
9
10
20
13
5
6
3
2
9
10
20
13
5
6
3
2
9
10
20
13
5
6
3
2
9
10
21
12
5
6
3
2
9
10
21
12
5
6
3
2
9
10
22
13
5
6
3
2
9
9
22
12
5
6
3
2
9
9
22
12
5
6
3
2
9
9
22
12
5
6
3
2
9
9
22
12
5
6
3
2
9
9
23
12
5
6
3
2
9
9
23
12
5
7
3
2
10
10
23
11
5
7
3
2
10
10
23
12
5
7
3
2
10
10
23
12
5
7
3
2
10
10
23
13
5
7
3
2
10
10
23
13
5
6
3
2
10
10
23
12
5
6
3
2
10
9
23
10
5
6
3
2
10
9
22
10
5
6
3
2
9
9
22
10
5
6
3
2
9
9
22
10
5
6
3
2
9
9
22
10
5
6
3
2
9
9
22
10
5
7
3
2
9
9
22
10
5
7
3
2
9
9
22
10
5
7
3
2
9
9
23
10
5
7
3
2
9
9
23
10
5
7
3
2
9
9
23
10
5
7
3
2
9
9
23
10
5
7
3
2
9
9
22
10
5
7
3
2
9
9
22
10
5
7
3
2
9
10
22
10
5
7
3
2
9
10
22
10
5
7
3
2
9
10
21
11
5
7
3
2
9
10
21
11
5
7
3
2
9
10
21
11
5
7
3
2
9
10
21
12
5
7
3
2
9
10
21
13
5
7
3
2
9
10
21
13
5
7
3
2
9
10
21
13
5
7
3
2
9
10
21
13
5
7
3
2
9
10
21
13
5
7
3
2
9
10
21
13
5
7
3
2
9
10
20
12
5
7
3
2
9
10
20
12
5
7
3
2
9
10
20
13
5
7
3
2
8
10
19
13
5
7
3
2
8
9
20
13
5
7
3
2
8
9
19
13
5
7
3
2
8
9
20
13
5
7
3
2
8
9
20
13
5
7
3
2
8
9
20
13
5
7
3
2
8
9
19
13
5
7
3
2
8
9
18
13
5
7
3
2
8
9
17
13
5
7
3
2
8
9
17
13
5
7
3
2
8
9
17
13
5
7
3
2
7
9
17
13
5
7
3
2
7
9
17
13
5
7
3
2
7
9
16
13
5
7
3
2
7
9
16
13
5
7
3
2
7
8
15
13
5
6
3
2
6
8
15
12
5
7
3
2
6
8
15
11
5
7
3
2
6
8
15
11
5
7
3
2
6
8
15
11
5
7
3
2
6
8
15
11
5
7
3
2
6
8
15
11
5
7
3
2
6
8
14
11
5
7
3
2
6
8
14
11
5
7
3
2
6
7
14
11
4
7
3
2
6
7
14
11
4
7
3
2
6
7
13
11
4
6
3
2
6
7
13
11
4
6
3
2
6
7
13
11
4
6
3
2
6
7
12
11
4
5
3
2
6
7
12
11
4
5
3
2
6
7
11
11
4
5
3
2
6
7
11
11
4
5
3
2
6
7
11
11
3
5
3
2
5
7
11
11
4
5
3
2
5
4
10
11
4
5
3
2
5
4
10
11
4
5
3
2
5
4
9
9
4
5
3
2
4
4
9
9
4
5
3
2
4
4
9
9
3
5
3
2
4
4
9
8
3
5
4
2
4
4
8
7
3
5
5
2
4
4
8
7
3
5
5
3
4
3
7
7
3
5
5
3
4
3
7
7
3
5
5
3
4
3
7
7
3
5
5
3
4
3
7
7
3
5
5
3
4
3
7
7
3
5
5
3
4
3
7
7
3
5
6
3
4
3
7
6
3
5
6
3
4
3
7
6
2
5
7
3
4
3
7
5
2
5
7
3
4
3
7
2
2
5
7
3
4
3
4
2
2
5
7
3
4
3
4
2
2
5
7
3
4
3
3
2
2
5
7
3
4
3
3
2
2
5
7
3
4
3
3
2
2
6
7
3
4
2
2
2
2
6
7
3
4
2
2
2
2
6
7
3
4
2
2
2
2
7
8
3
4
2
2
2
2
7
8
3
4
2
2
2
2
7
8
3
4
2
2
2
2
8
8
4
3
2
2
2
2
8
8
4
3
2
2
2
2
8
8
4
3
2
2
2
2
8
8
4
3
2
2
2
2
9
8
4
3
2
2
2
2
9
8
4
2
2
2
2
2
10
9
4
2
2
2
2
3
10
9
4
2
2
1
2
3
10
9
4
2
2
2
2
4
14
9
4
2
2
1
2
6
18
9
4
2
2
2
2
6
18
9
4
2
2
1
2
6
19
9
4
2
2
1
3
6
19
10
4
2
2
1
3
7
20
10
5
2
2
1
3
7
21
10
5
2
2
1
3
7
21
10
5
2
2
1
3
7
21
10
5
2
2
1
3
7
21
10
5
2
2
1
3
7
21
10
5
2
2
1
3
7
21
10
5
2
2
1
3
7
22
11
5
2
2
1
3
7
22
11
5
2
2
1
3
7
22
11
5
3
2
1
3
7
22
11
5
3
2
1
3
7
22
11
5
3
2
1
3
8
23
11
5
3
2
1
3
8
23
11
5
3
2
1
3
8
23
10
5
3
2
1
3
8
23
10
5
2
2
1
3
8
23
10
5
3
2
1
3
8
23
10
5
3
2
1
3
8
23
10
5
3
2
1
3
8
23
10
5
3
2
1
3
8
23
10
5
3
2
1
3
8
23
10
5
3
2
1
3
8
23
9
5
3
2
1
3
8
23
9
5
3
2
1
3
8
23
9
5
3
3
1
3
8
23
9
5
3
3
1
3
8
23
9
5
3
3
1
3
8
23
9
5
3
3
1
3
8
23
9
5
3
3
1
3
8
23
9
5
4
3
1
3
8
23
9
5
4
3
1
3
7
23
9
5
4
3
1
3
8
23
9
5
4
3
1
3
8
23
8
4
4
3
1
3
7
23
8
4
4
3
1
3
8
23
8
4
4
3
1
3
8
23
8
4
4
3
1
3
8
23
8
4
4
3
1
3
8
23
8
4
4
3
1
3
8
23
8
4
4
3
1
3
8
23
8
4
4
3
1
3
7
23
8
4
4
3
1
3
7
23
7
4
4
3
1
3
7
22
7
4
4
3
1
3
7
22
7
4
4
3
1
2
7
21
7
4
4
3
1
2
5
18
6
4
4
3
1
2
5
17
7
4
4
3
1
2
5
17
6
4
4
3
1
2
5
16
6
4
4
3
1
2
4
15
5
3
4
3
1
2
3
14
5
3
4
3
1
2
3
14
5
3
4
3
1
2
3
14
5
3
4
3
1
2
3
14
5
3
4
3
1
2
3
14
5
3
4
3
1
2
3
13
5
3
4
3
1
1
3
13
4
3
4
3
1
1
3
14
4
3
4
3
1
1
3
13
4
3
3
3
1
1
3
13
4
3
3
3
1
1
3
13
4
3
3
3
1
1
3
13
4
3
3
3
1
1
3
12
4
3
3
3
1
1
3
12
3
3
3
3
1
1
3
12
3
2
3
3
1
1
3
12
3
2
3
3
1
1
3
12
3
2
3
4
1
1
3
12
3
2
3
4
1
1
3
12
3
2
3
4
1
1
3
12
3
2
3
4
1
1
3
12
3
2
3
4
1
1
3
12
3
2
3
4
1
1
3
12
3
2
3
4
1
1
3
12
3
2
3
4
1
1
3
12
3
2
3
4
1
1
3
12
3
2
3
4
1
1
3
12
3
2
3
4
1
1
3
12
3
2
3
3
1
1
3
12
3
2
2
3
1
1
3
12
3
2
2
3
1
1
3
12
3
2
2
3
1
1
3
11
3
2
2
3
1
1
3
11
3
2
2
3
1
1
3
11
3
2
2
3
1
1
2
11
3
2
2
4
1
1
2
11
3
2
2
4
1
1
2
11
3
2
2
4
1
1
2
11
3
2
2
4
1
1
2
11
3
2
2
4
1
1
2
11
3
2
2
4
1
1
2
11
3
2
2
4
1
1
2
11
3
2
2
4
1
1
2
11
3
2
2
4
1
1
2
11
3
2
2
4
1
1
2
10
3
2
2
4
1
1
2
10
3
2
2
4
1
1
2
10
3
2
2
4
1
1
2
10
3
2
2
4
1