-2
-4
-18
-3
-1
-2
0
0
0
0
21
2
1
1
1
0
1
-1
2
-1
-1
-3
0
-2
2
2
3
2
-1
-1
0
0
-1
-2
-3
-3
-2
-1
0
-1
2
4
15
5
1
0
0
1
-3
-3
-29
-6
-1
-1
-3
-1
-1
-1
10
2
-1
0
0
0
1
4
3
1
1
1
0
1
-2
-1
3
2
-1
-1
-1
-2
-3
-5
-6
-3
-1
-1
0
0
-1
-2
1
-3
-4
-1
-1
-1
-1
-3
-4
-2
-1
-2
-1
-1
1
0
0
1
0
0
-1
0
2
0
2
1
-1
-1
-3
1
-6
0
-6
-1
0
0
0
0
-4
-5
2
-1
-2
-1
-1
-3
-2
0
-2
-3
-1
-2
-3
1
1
2
6
0
-1
0
0
1
-3
-5
-2
-6
-4
-3
-3
-1
0
0
4
1
2
0
0
-1
-2
-3
-5
-2
1
-1
1
0
-2
-2
-3
-3
-2
-2
-1
-2
1
2
14
4
2
1
1
-1
0
-3
-12
-2
-3
0
-1
-2
0
0
2
-4
-3
-1
1
-1
1
3
-2
1
-1
-1
-1
-1
-1
-3
-11
-3
-2
-1
-2
-1
-1
0
4
-1
-2
-1
0
2
1
-2
-6
1
-1
0
1
1
-5
-2
0
-3
-2
-1
-1
-1
6
-1
1
-1
-1
0
-2
-1
-1
-1
-10
-4
-1
0
-1
1
-1
1
3
0
0
0
0
-1
-2
0
1
-2
-2
-1
0
-1
-1
1
3
1
0
1
-1
-4
-2
-1
-3
0
-2
-2
-2
1
-1
-1
-6
-2
-1
-1
0
1
0
1
2
0
0
-1
-2
2
-5
-1
1
-3
-2
-2
-2
-3
4
-2
0
-3
0
-1
-2
-1
-2
-2
7
1
0
0
0
1
-1
-5
-35
-2
-1
-2
-1
-4
1
-1
11
0
-1
-1
0
1
-3
0
-2
1
-1
-1
-1
-1
-3
-4
-6
-4
-3
-2
-2
-2
1
1
9
3
1
3
2
-1
1
1
-5
-1
3
0
-1
-5
-6
3
-3
1
0
-1
0
-3
-3
1
3
2
-1
0
-2
-1
5
-5
-7
-4
-4
-2
-2
-2
-1
-5
-5
-4
-2
-2
-1
1
1
1
3
-1
-1
-1
-2
-2
-2
0
-11
-6
-1
0
-1
-2
-2
1
10
2
2
0
0
0
-1
-1
1
1
0
0
0
4
0
-1
2
-1
-2
-2
-1
1
0
0
-2
-1
0
0
-1
0
0
1
7
-1
-2
0
1
0
2
-1
-4
2
1
1
0
1
-3
-1
3
-1
0
0
-1
-4
1
0
-7
-1
-1
-1
-2
-1
-1
0
8
-1
1
0
-2
-2
-2
2
-4
2
0
0
0
0
0
-4
-3
-2
0
-1
0
0
0
-2
-2
-1
-1
-1
-1
-1
-2
0
7
3
0
-1
0
0
-2
-2
-8
-3
-3
-1
-3
-1
1
-1
-1
2
-1
1
-1
-2
-1
-4
-5
-2
-4
-2
-2
-6
-1
-1
2
-1
-2
-3
-3
-4
0
-1
-1
-1
0
0
-1
1
-7
0
-4
-1
-1
-1
0
0
13
1
12
-1
-1
-2
-2
0
-7
1
9
0
-1
0
0
-4
-2
-4
-19
-5
-3
-1
-1
0
-1
1
1
-3
-1
0
-2
-6
-5
-1
-2
1
1
0
0
2
-1
0
-3
-1
-1
0
-1
-4
8
1
9
1
0
-2
0
1
5
0
0
0
-1
-1
-1
14
1
0
-4
1
1
0
1
-2
-3
-1
10
-2
-1
-1
-2
1
-8
-8
-51
-6
-2
-1
-3
-4
-2
-2
13
0
-2
-1
-2
-7
-7
2
0
2
1
2
1
1
-7
-4
-8
-4
0
-3
-1
-5
14
4
12
4
0
0
2
8
0
-4
-7
-1
-1
-2
0
5
20
0
-6
-3
-1
0
-1
1
-36
-1
-2
-1
-2
-1
-1
-10
-12
0
10
-1
-1
-1
1
-17
25
5
-2
0
1
1
3
25
-29
-8
0
-2
-1
-2
-3
-24
3
-1
-8
-2
-3
-2
-2
4
1
1
9
-2
-1
-3
-2
-5
-10
2
-3
-2
-2
-1
1
-4
0
-1
-4
1
1
-3
0
-4
35
-6
-2
-1
-1
-2
-5
-8
-16
4
6
3
0
0
5
20
25
-7
-3
-4
-4
-3
3
32
-32
3
7
6
5
1
2
-6
-14
-14
-9
-7
-3
0
-12
-9
11
10
6
-2
-5
-6
-8
-36
-15
-10
-7
-2
-1
-3
-11
9
30
3
15
2
-1
-3
9
38
27
-16
-16
-2
1
1
4
12
-61
-22
-10
-2
0
1
-5
-36
-11
20
9
1
-1
0
9
35
50
14
2
-4
-2
-2
-1
-41
26
-6
0
7
5
4
-9
21
21
11
-8
-5
-3
-2
23
-23
-94
-19
10
6
2
-2
-9
5
34
-23
-15
-8
-5
-4
-9
14
84
27
0
-4
-1
-1
41
9
-32
7
9
3
3
-3
-27
-23
112
-20
-15
-3
-2
6
37
21
-128
-7
0
2
2
3
-13
-15
-78
6
-1
-2
-3
-1
-43
67
70
10
19
3
0
-1
5
64
-24
-6
-14
-1
2
-1
-25
-103
-62
11
-4
-4
-3
3
40
-19
-60
15
16
7
3
5
-19
31
-71
-38
-11
-8
-3
-3
-19
-74
59
2
-3
-13
-9
1
-23
81
-11
-9
-5
-1
-1
2
69
15
-55
31
6
0
0
-13
-50
-72
4
-9
15
0
2
1
63
-43
21
-7
-11
-5
-6
19
113
-26
-56
-11
1
-2
0
-6
-100
-22
-9
-13
0
-11
-13
-43
-22
6
-105
-27
11
6
-8
-15
-103
-20
15
9
-34
-2
12
-6
37
-32
79
-16
-11
1
10
47
119
38
-22
26
-1
10
10
-12
18
55
-15
24
1
3
-22
-6
-79
1
-83
-10
-13
-5
-8
-62
-81
-34
92
2
-6
8
-2
25
33
-12
32
-12
6
-2
18
10
12
12
-9
16
-20
2
-3
-7
61
87
36
8
13
4
12
2
-66
-31
-31
9
-1
-1
-6
8
67
-15
9
-1
1
2
-13
2
-4
-42
63
26
3
-4
7
-31
13
69
-20
-15
8
6
2
30
-11
-12
-14
-21
-12
-16
-18
-26
-74
-19
19
-15
-10
-2
2
7
-2
45
-39
1
-3
-13
-36
10
-47
-53
-76
10
40
11
22
-5
63
22
105
-2
-20
-5
6
-30
-60
-3
-25
-29
13
-1
14
28
-13
-42
-32
-7
-12
2
23
10
41
-12
-39
4
28
-2
-29
-18
-74
-17
-8
2
13
8
-16
28
39
-2
-5
-21
-34
-8
-7
-35
18
-31
46
5
17
5
22
38
32
44
-32
21
-4
5
5
-8
-46
11
111
23
17
5
-3
17
34
19
46
-21
-7
-3
-12
-13
-28
-7
127
3
14
9
8
-9
-77
69
47
-25
-40
-17
-17
-17
-69
26
-110
2
-2
-1
0
-21
-90
-15
90
38
24
0
-1
24
80
-8
-23
-25
-29
-1
15
30
-12
-68
9
10
17
2
17
2
-16
-14
-76
-27
-16
-7
-13
-54
-89
17
-42
11
10
6
0
14
-3
-12
-25
9
4
-3
-20
-7
7
15
-31
14
-2
8
32
32
119
-18
-32
-10
-4
6
14
-11
7
4
-53
9
6
-8
-24
-10
-25
-22
-36
-2
5
-7
-17
-33
-57
-7
-14
-11
6
-5
-22
7
90
14
-50
10
22
0
-10
-22
-62
-42
-16
-17
1
-5
42
57
75
25
100
2
-22
-12
-13
-10
-8
-35
61
5
-9
-1
-3
14
-30
-21
6
9
-15
-8
-10
-39
-51
39
73
33
21
16
14
6
16
-1
-14
-50
-4
-1
-6
15
36
-12
39
1
0
0
4
-12
-99
9
-42
-5
12
-4
-6
8
96
17
-27
-23
-14
-12
-26
-22
-88
-33
27
3
-13
-1
29
31
112
39
16
-4
35
6
-30
-50
-83
-4
-15
10
2
-9
0
45
74
9
-8
20
-19
-4
-22
-51
-69
17
-33
3
6
3
28
-7
61
22
-26
15
22
7
-3
20
-71
-45
16
9
0
5
24
-15
13
-34
11
18
-2
5
-9
29
73
15
9
8
1
-2
-27
-19
-18
12
22
-17
-17
-7
8
8
30
12
52
-12
-8
4
18
13
14
20
-25
-15
-23
0
8
13
-63
-33
50
21
10
1
-11
-10
28
47
-15
-10
-26
-2
10
-16
-20
-21
55
10
1
-4
-10
2
3
9
19
-42
-17
-15
-49
-1
-5
5
7
21
12
9
45
-32
4
-7
17
6
-3
0
-2
10
2
32
-21
10
27
7
0
17
-56
-4
-15
-5
-28
-1
20
5
71
4
3
-2
-4
2
-20
-35
-97
-23
-32
8
-6
-4
-16
36
122
29
-37
14
8
-3
1
-14
-26
3
-32
-28
4
1
-2
-11
-21
-12
14
-4
-2
-2
2
13
-9
-4
-53
-2
-2
6
21
-6
21
0
-16
-7
0
4
2
16
42
6
-9
10
25
-7
-36
-13
33
-4
-49
-14
-17
3
12
-1
-49
18
5
14
-2
2
18
4
10
-28
-18
-16
-7
-3
0
-7
-48
-35
1
16
2
6
13
-21
-55
-19
-46
-30
9
-3
-21
51
123
14
11
9
19
-6
-12
-4
-68
-1
18
-19
-16
-7
-4
-16
-20
38
31
14
14
4
12
10
60
-12
-65
-5
-1
-4
-9
-9
-79
-37
-2
11
-9
1
-3
1
49
1
33
-2
0
0
-1
-16
-20
-6
-15
1
-1
2
5
-8
-71
-30
-14
-2
1
-2
-4
6
-49
-4
11
-30
-13
-9
-5
8
83
-1
-46
15
-2
0
-12
-7
2
-8
5
16
6
0
9
-2
-33
33
75
-6
-8
-2
17
-6
2
22
-44
-3
-2
-8
-13
-6
-69
-7
66
-10
-2
6
-17
-4
-38
-20
41
-11
-19
-9
11
-1
-15
19
8
21
16
10
16
20
100
12
0
-18
3
4
10
13
-33
8
49
12
11
-1
-4
12
63
34
-43
-7
-4
-1
-9
-24
-7
1
-28
-21
-1
-6
-10
4
14
-26
16
-2
-2
-3
-12
5
50
13
17
4
-3
-2
14
-12
-47
-15
5
-10
4
-8
-34
5
65
7
-40
11
4
4
16
-5
-42
-52
-14
15
-8
11
14
-12
-28
7
-8
-7
7
2
-1
-2
-25
36
-29
-23
-16
-5
14
15
47
12
2
11
-9
-6
-23
-16
-38
17
66
22
10
7
17
-11
-64
-22
16
-25
-18
-3
10
55
80
-3
-11
8
19
9
-4
5
-9
4
43
1
2
-4
-5
-14
-63
-54
9
7
-2
-7
1
-6
33
19
-45
5
-3
-4
-13
-39
-31
13
-37
0
10
6
13
18
-20
-23
29
15
-20
0
14
16
73
39
-1
-37
-3
-6
-35
-3
-26
-25
45
9
-29
-1
19
-7
15
-6
-51
-12
-10
-7
-11
-24
-59
-14
7
23
6
4
0
18
20
15
-6
-36
7
-1
-9
-22
-34
-2
58
-4
-13
-14
-5
33
74
1
13
0
-2
1
-23
-12
-38
-6
-29
-9
9
8
22
3
-32
1
-51
10
0
-3
2
7
26
-2
-3
0
17
6
18
-15
-118
5
-2
9
-25
-3
-5
2
23
-13
6
-6
-4
-6
-28
7
24
-1
28
-4
1
3
24
21
-49
14
4
-3
-2
-6
-16
-24
-43
25
-43
-13
2
4
28
-9
22
-40
-37
-11
1
-9
-47
-34
-27
-3
14
10
-10
1
25
31
53
18
-37
2
-6
-5
4
-6
-27
-24
63
4
13
7
-30
14
-6
16
73
-5
3
-2
36
-1
80
3
-12
1
-5
-3
-30
-18
-31
1
-25
8
8
-2
5
-24
6
-5
42
-8
-1
-1
-20
33
103
25
-9
0
2
5
22
0
-37
0
-5
14
-2
8
41
-9
-47
7
-38
-22
-11
1
-25
-12
9
17
-53
3
2
-1
1
1
48
-23
33
-7
9
-6
-11
5
-27
-19
29
17
15
-3
-16
5
33
-15
-74
-16
-20
-4
-5
-13
-21
-28
51
19
23
2
13
-13
6
40
42
-25
-9
-2
0
-1
-27
9
28
2
8
-2
-17
-8
50
-5
-29
12
4
3
4
63
11
-35
36
13
22
1
25
-9
-17
8
-65
5
-4
-9
-48
-24
18
6
0
-5
-4
8
21
10
17
5
25
-7
-2
10
20
7
-1
13
16
12
-3
-4
16
7
0
28
-63
-22
14
-3
-9
-14
-64
1
3
20
-23
-10
-34
-17
62
-37
-23
-2
8
-3
-10
10
-33
7
-9
16
4
5
19
-1
11
-37
-2
7
-18
-7
-8
-10
11
14
-50
-5
2
-5
-21
-11
-17
-31
13
3
-6
-3
1
0
5
-3
8
-13
9
2
2
-6
-58
4
9
27
11
12
19
13
16
13
-46
-27
-19
7
32
2
24
-1
31
23
12
0
-16
-21
-6
2
-56
-22
-10
-11
-39
-8
37
-22
22
-12
-17
-7
23
-8
-56
-34
-26
14
0
-1
-22
-4
-39
-20
5
-22
5
1
21
-3
-5
-23
32
-4
5
-6
-14
15
47
51
71
25
5
-4
-5
-6
32
4
-10
6
-2
-8
-37
-13
-45
20
-9
11
7
7
25
16
21
1
-11
-18
-11
7
29
-26
-51
0
-24
21
9
-2
-2
2
-32
-1
-15
-3
5
12
9
20
14
22
-20
-1
7
-5
-32
-12
-76
-4
22
-38
-18
5
39
-2
-2
32
-53
15
-30
-8
-10
-2
1
4
59
-22
4
-8
-19
-9
58
-35
-5
12
-14
-5
-33
-21
35
8
-2
24
0
-14
13
12
-17
-2
-18
-6
0
17
18
39
-28
-13
-5
-13
-4
9
14
0
-3
10
-6
3
4
3
-26
2
1
-16
-32
18
5
13
38
-9
-31
6
23
-26
-30
0
4
-5
-43
-9
-27
8
8
-9
2
23
36
42
5
0
-11
-10
-5
-26
-5
-11
-41
12
2
-8
-47
-12
-1
5
18
-34
-6
-12
-3
-2
-43
-8
-6
-34
-27
-8
2
9
31
9
33
-10
-8
-9
10
16
47
16
-39
22
6
12
20
-11
4
-4
-6
-3
26
0
-48
-27
17
-15
13
24
10
14
16
13
38
-10
-18
-7
1
-3
52
16
41
22
8
8
-1
4
-9
15
-59
-26
11
-6
2
-1
0
13
18
30
-44
-27
1
-16
-9
-26
-45
13
-3
15
4
10
-17
-14
-83
-7
11
14
8
8
6
0
10
23
-24
-14
-3
0
-24
-4
23
22
63
-2
-2
-4
-1
-3
46
-20
41
-1
8
1
40
-28
8
40
-27
-24
-31
-10
-44
37
-1
-16
-23
-14
8
1
34
17
27
1
24
4
2
2
12
1
-81
-2
12
-2
13
-13
-49
-42
21
1
11
32
31
-6
-16
-4
13
6
28
-17
-20
1
44
45
2
-16
4
-5
3
-8
-32
-43
-69
-4
16
0
-6
-4
-19
23
32
-9
-19
4
-5
-6
0
-18
-15
-14
-4
21
20
28
26
-13
-19
5
7
4
-12
2
30
15
97
33
-4
6
-3
1
-12
37
-10
34
67
-16
2
-24
-20
-25
8
-14
-55
-24
6
21
32
-7
-48
-58
52
34
7
-16
-38
-37
-96
15
-27
-46
-33
-13
-56
19
48
2
-23
-22
-19
3
51
15
-39
-11
48
6
-14
-10
-9
-14
41
0
-1
31
14
5
-15
-13
-30
2
-26
8
15
12
44
9
-17
-23
-1
-24
-2
-5
-6
-12
-4
24
6
5
-5
-8
-27
5
-26
-28
-24
11
0
0
20
11
-52
-25
14
32
6
7
31
-4
69
26
35
-1
-12
-20
-89
-16
-74
-26
-21
37
9
-6
-32
-9
116
43
-10
-57
-5
11
76
59
2
4
-10
-3
12
38
32
7
-28
2
-30
-7
-1
-21
9
-21
-45
-20
57
37
-1
13
10
67
90
15
-21
20
-9
-1
-31
-32
-53
25
-8
5
13
-10
1
10
55
6
-35
-17
-6
-15
-62
-94
-44
9
-71
41
-5
-6
-18
37
28
5
14
-8
0
25
60
26
82
2
8
9
-18
4
61
41
-116
-49
-13
-13
55
16
41
-13
117
-3
-39
-65
-31
-46
-91
-75
-53
-47
-3
12
7
-13
-71
32
18
-3
13
20
0
-48
45
-90
-107
-15
33
-25
-27
54
46
125
38
22
0
9
10
67
121
-49
-47
-24
-1
-30
-16
-1
-19
-50
-2
-10
8
13
-27
-60
-128
-13
-16
-16
-27
1
-6
-19
23
48
-39
-7
-25
-10
26
39
81
20
-7
28
-3
22
34
32
82
10
-62
-24
-7
-10
-52
-11
-34
-73
-5
-26
19
1
-45
-27
-73
-21
-7
-2
-11
-8
-20
-33
28
21
12
13
7
14
8
-8
1
-10
-30
-24
-18
-26
6
43
8
0
45
15
36
10
-2
-4
-48
-9
8
-6
2
-22
9
-24
-118
2
15
-30
-22
34
8
-15
105
30
-33
2
62
16
1
19
43
-12
-24
-7
-51
1
3
7
-15
9
67
-20
11
-13
11
-26
-4
-35
-60
15
5
1
-17
10
-48
45
8
5
-1
-27
36
25
86
70
9
15
20
21
49
-13
-32
-29
1
-47
57
-11
-64
-17
-4
-24
37
30
-9
13
0
8
10
11
84
-14
12
-16
-14
9
4
1
-16
24
5
9
17
4
23
17
2
-3
-3
1
24
-6
-27
-31
-55
-15
26
-9
-10
-26
-102
-40
12
18
-11
8
-4
-3
36
40
22
0
-13
1
-13
23
54
-45
-51
-6
47
7
2
2
-41
3
22
12
-43
-23
11
-5
-47
-18
-35
-3
55
23
-18
13
64
31
44
7
39
-5
-22
19
33
44
-2
-18
-27
-5
-24
-18
-42
-16
-40
16
-13
-43
-5
-27
-13
-17
89
34
8
5
32
-13
-106
-5
-51
-14
17
18
11
44
127
14
28
33
-20
29
32
48
37
-4
-57
22
2
14
6
-19
-78
-16
-34
3
-41
-2
8
-30
-89
-9
52
6
-1
7
11
0
-27
-24
12
-4
-1
-10
-44
-21
52
36
29
-23
-12
-10
-13
-7
16
13
-81
3
-13
-26
16
-6
-19
10
19
-11
73
12
-24
-10
-10
-23
13
37
30
18
32
26
34
23
7
10
-11
-59
-50
-6
-12
-46
-31
-30
-30
-39
3
-26
-8
-8
-42
0
5
-6
3
47
31
49
30
19
12
27
7
-8
-46
-52
-90
-13
-48
41
4
34
79
76
127
41
-54
15
-13
16
17
-4
34
21
-44
-44
-9
-36
-63
-32
-28
-16
11
-3
-35
-23
22
22
32
17
57
18
9
-16
-76
-25
-77
-4
-6
-16
-25
7
62
-13
-8
-21
8
24
-10
2
27
24
-5
8
-22
-32
36
6
8
-13
63
4
31
-12
10
-26
-85
-18
-59
-25
5
16
-6
6
-66
-33
-42
-11
-8
-3
-28
17
108
67
24
-2
-3
12
18
24
5
8
43
-14
4
-7
-5
-12
27
5
16
0
-10
3
11
1
-10
-3
-8
-2
37
4
11
-13
-64
-41
-117
3
3
3
15
-30
-39
12
35
-7
-50
7
-43
26
64
-2
2
-28
-25
-7
-26
6
5
3
-19
-14
-56
-33
5
-16
-3
9
31
-10
5
-23
-27
-13
-45
-12
-6
-12
20
10
32
6
1
-25
-31
-12
13
13
-5
-46
-28
15
-5
-12
0
8
-5
23
34
-4
-15
6
-21
6
30
19
43
7
-43
-14
-4
12
26
26
-11
-24
28
3
28
-12
-31
-2
3
3
17
9
6
11
9
-21
-31
28
29
3
9
23
-21
-14
2
2
-20
4
-9
-37
-5
-2
19
2
25
-2
53
24
24
10
-16
0
-58
14
-61
-8
2
-20
-64
-31
62
33
0
5
2
9
27
0
6
5
-9
-17
-12
10
59
49
-1
-12
-46
1
47
11
39
-3
-92
-26
57
-1
-19
9
-32
-5
97
31
-34
-12
2
-28
-19
6
-16
-10
12
10
12
13
-32
-14
14
12
-26
1
-4
3
23
0
45
-4
-11
12
18
7
20
-4
-45
-3
-10
-10
0
1
-10
-8
-18
-17
36
31
11
-15
-2
-4
13
1
-4
-15
15
12
-9
2
28
-1
1
8
12
-6
1
-3
-69
-6
13
-1
-8
-2
-11
2
46
27
-9
5
-51
-17
9
-6
-10
-9
14
5
19
7
-7
-9
19
-13
-31
-41
-45
-19
-32
-21
-34
-15
-13
-1
7
-10
27
30
-61
-11
18
-1
37
25
25
-1
41
5
5
10
-8
-3
-27
-4
-16
7
15
-5
11
-14
20
-14
-91
2
38
21
0
24
-8
12
101
-8
-29
-28
-9
-1
9
-9
-39
-3
-9
-42
-5
11
30
14
36
6
9
25
11
-6
-32
-14
18
-11
-14
-14
-21
-25
-30
-25
-55
-3
7
14
-4
2
18
16
9
10
5
-16
10
10
11
-4
-12
-9
14
-2
-25
-5
-10
-10
-4
-16
0
-1
0
0
-4
-2
47
10
-1
-4
-8
-18
-12
8
-40
5
-17
2
-1
-9
-18
-5
8
-10
-16
-5
-7
-1
11
13
-11
-18
6
11
34
32
47
21
47
2
7
-10
-11
5
-2
-10
2
-25
-7
17
-8
-6
-9
2
37
12
29
1
4
-6
-9
3
-26
-6
-15
-14
-10
-4
-12
-13
-34
-2
-8
0
4
-3
-9
1
-2
-7
-2
5
-33
-12
2
-3
-2
6
0
1
0
3
8
-1
29
-9
-12
-9
-2
1
-6
-6
-30
-1
8
-6
-3
-2
-6
-7
14
14
2
-17
-3
2
3
1
-3
2
-13
0
1
2
2
0
26
8
-12
-3
-2
3
-4
2
-47
-9
-11
-6
-2
-6
-8
-8
15
3
6
6
7
4
3
-8
17
9
-3
4
-2
4
4
23
42
7
28
-5
-3
-1
-3
-9
-19
-8
3
2
-3
-2
-2
-3
-19
4
-8
9
-1
2
3
2
-5
-3
-1
1
-2
0
0
1
34
0
-2
2
1
-2
-2
0
6
4
4
2
-1
-5
-2
0
0
4
7
2
15
1
1
0
11
4
-10
-5
11
-1
0
-9
-15
-1
-1
-1
4
-2
-3
-1
7
0
-13
-5
16
0
1
2
-3
-4
-1
5
12
2
1
4
5
3
-1
-6
10
-3
-2
-6
-13
-6
-6
-1
5
-1
-1
-4
2
2
3
3
-11
-2
-1
1
2
0
6
2
-7
0
2
2
5
1
4
1
-15
-4
-4
-4
1
-1
-1
-2
-16
-2
-2
0
8
2
-4
-2
-6
-1
-2
0
-5
-2
1
-2
-5
-1
-1
3
2
-1
-6
-2
2
3
2
-6
-11
-4
-5
0
0
3
-2
1
2
1
1
1
4
-3
-3
1
1
1
-3
-1
1
-6
-4
-4
-5
-3
-1
-3
13
6
4
-3
-7
0
0
2
11
12
9
1
-4
2
0
0
-11
-8
-1
-1
-4
1
2
1
16
1
-5
-3
2
0
-3
-2
-12
-6
-5
-4
-3
-1
-1
1
-1
-8
-7
1
2
-1
-3
5
23
7
2
-1
0
0
-3
-6
-19
-4
2
-2
0
0
-3
0
38
22
5
1
1
-1
-4
-9
-66
-25
-4
-3
1
-1
1
2
-11
-10
-5
2
4
0
4
1
-2
9
6
2
3
1
0
-6
-6
-3
1
-2
-2
0
-1
-2
21
37
7
1
4
-1
-2
0
31
-8
-11
-5
0
-1
-1
-4
-32
-23
-10
-4
1
-1
-5
-4
-54
-7
-2
-2
0
-5
-2
1
30
-16
-9
-3
-1
-1
-5
-14
-7
-20
-5
-4
-2
-2
3
8
12
31
11
4
-1
3
1
0
28
0
3
-4
-6
1
-7
-8
-12
-9
-9
-4
1
-4
4
6
22
16
6
4
1
2
-9
-13
12
-20
-5
-2
-5
-3
-1
1
-20
-6
-1
-1
1
-3
2
6
31
12
-1
-1
-1
2
-3
-12
-62
-13
-3
-1
-4
-4
5
3
2
5
2
1
3
2
3
9
25
7
2
2
4
2
2
11
22
3
-4
0
0
1
-9
-17
-14
8
-5
-6
-4
-3
3
8
5
-1
2
0
-4
0
-1
-7
-25
-22
0
0
-1
-1
1
1
45
1
0
-2
-4
-2
-4
3
-7
-11
-7
-3
-4
-3
1
-1
15
0
1
1
0
1
-3
-2
19
8
-3
-3
-2
-3
2
-2
-17
-4
7
2
3
2
8
18
41
15
10
4
1
3
-6
-9
-34
-8
-9
-4
2
-1
2
3
6
-2
-5
2
-2
-4
-2
-3
-24
3
1
-1
2
1
-1
3
-13
-8
0
-2
0
-2
6
10
24
8
4
1
1
2
-10
-3
-44
-7
-1
-3
-3
-5
-2
-5
-22
-7
-3
-1
-3
-3
0
-1
-4
2
-1
-1
0
0
0
1
11
-7
-3
-2
-2
-4
-2
-5
-11
-1
-1
1
0
0
1
-1
-11
-5
-3
0
-2
1
4
9
40
17
8
5
6
4
-1
-6
-80
-8
-2
-1
-2
-9
2
1
-7
3
0
0
2
2
-4
-1
22
-8
-3
-5
-5
-7
-11
-16
-13
-14
-3
-5
-4
-10
7
3
9
0
-3
-1
0
5
-12
1
10
1
-2
-2
-1
1
5
2
-12
-3
-2
-2
-2
-1
2
-1
-5
0
-1
0
1
0
-7
-5
-1
5
2
-2
-1
-2
4
-1
-1
-2
-4
0
2
-2
3
0
3
3
0
0
1
10
1
3
-10
0
1
0
0
-2
-4
-3
3
-3
-3
-1
-2
-5
4
3
23
1
-3
1
0
-1
-3
1
-35
-2
4
2
1
0
0
-4
-8
2
4
-1
-4
-4
-3
1
2
6
0
1
3
2
-2
-6
22
-8
-6
-5
-5
-1
-4
4
-16
-1
-2
-1
0
-2
3
0
13
-3
-4
-4
-3
3
-5
0
11
8
-1
-1
1
-3
1
4
7
-10
3
1
-1
-2
-1
-3
-8
0
-4
-3
-3
1
-1
4
-7
4
1
1
3
2
-2
-5
-28
-3
-2
-2
0
1
1
0
-3
7
-2
-3
-2
-1
-5
-1
0
-15
-1
-3
-2
-5
-2
-1
-7
-2
-1
0
-1
1
7
7
17
1
0
-1
-3
-1
-2
-5
-10
2
0
-1
2
0
10
-3
2
2
1
-1
-1
-5
-4
-1
3
4
0
1
0
1
-1
-1
7
-3
-1
-1
-1
0
-4
-3
0
0
-2
-2
-3
-2
0
1
14
3
1
-1
-1
0
4
-4
-26
-3
-1
-1
0
-1
-2
1
26
6
2
0
-1
-8
3
3
-4
-3
0
0
-2
8
-3
-6
9
3
-3
1
1
1
0
1
4
-1
0
-1
-2
-3
-5
-5
-18
-5
-1
-1
-3
2
-6
0
-30
-2
-2
-1
0
0
9
-3
-18
-1
0
-1
1
-6
-5
-1
9
4
2
-1
1
-1
4
0
-4
-3
-1
2
2
-3
-1
2
17
-1
-2
0
-1
-2
-2
0
3
-8
-5
-2
-2
3
-6
6
3
8
6
0
0
-1
-4
-5
8
0
-1
-2
-4
-1
6
-4
-11
0
-4
-1
1
5
-15
-1
1
1
1
0
0
-4
2
-1
5
-1
-1
-1
-3
-1
-2
0
21
1
0
-1
0
2
3
-1
-9
-1
1
-1
-3
-3
5
6
15
4
0
1
2
16
-2
-11
-5
-5
-2
-4
-33
-17
-2
-3
-18
-5
-1
1
16
0
0
-2
2
0
-1
-1
28
8
-2
-1
14
2
-1
-2
8
-19
-6
-4
-11
-9
-5
-4
6
5
12
2
6
3
1
0
-15
-6
2
5
18
0
-1
-1
-4
11
-7
-10
-37
-5
-1
-1
-8
-11
8
3
-3
1
-3
0
-1
-1
-7
2
5
3
0
-1
-6
0
2
3
0
0
-1
0
0
0
-1
0
8
5
3
0
-3
3
0
1
-11
0
-2
0
2
5
-1
-1
-14
-4
-2
-2
1
1
0
-2
16
-2
-5
-3
-7
-5
1
3
-3
0
2
0
-3
-2
-3
-2
-15
3
5
2
6
1
-4
1
11
4
4
-3
2
5
-4
-9
-18
-4
-2
-4
-6
-9
0
1
11
1
-3
-3
-3
-4
1
0
20
-3
-11
-2
5
-2
6
2
0
-1
-1
0
-1
14
-19
-9
18
-8
4
-2
-7
-11
-14
-3
-9
-5
-4
-3
1
-1
10
-2
-32
1
-3
-1
-2
-12
-13
2
12
-6
-5
-3
3
0
42
-1
-9
2
4
2
1
36
-31
-5
2
-4
0
-2
-2
-1
9
0
9
2
1
-1
-13
-24
23
7
1
2
-6
-2
16
10
-14
-3
-6
1
3
-3
-20
37
2
-7
-9
-8
-14
-1
24
-29
9
3
5
0
-5
-14
-5
17
-19
-1
-3
-2
2
13
-17
-37
-4
3
-1
6
18
-2
24
0
-44
0
-6
5
18
8
-15
-14
35
0
11
-14
-46
-23
4
22
-24
-2
-2
4
-24
1
-6
-28
26
-1
-5
10
74
43
-4
14
9
0
5
6
12
-1
9
18
-66
-6
-4
0
30
-1
-33
-4
17
7
-5
-16
-47
-33
26
17
3
5
-8
-20
-98
-53
-22
-20
-5
-6
-5
-19
-12
-45
13
-45
49
6
4
-21
-96
14
15
0
-53
-15
-13
14
70
81
-25
42
10
16
1
44
98
54
-7
-28
15
-9
4
35
95
26
4
29
72
9
11
9
23
-36
-11
-77
-7
-45
-10
-43
-114
-55
9
35
52
-6
-13
-51
-36
-2
11
99
34
3
-4
8
20
-20
19
-78
-14
8
-2
-16
-73
9
-24
-43
-45
-16
-2
19
90
-3
-18
-38
-47
1
4
22
69
15
58
-55
122
-9
-1
5
-29
-39
-62
74
-62
-39
-1
-2
-36
68
63
-43
-11
9
5
-24
-31
-30
-80
28
-128
-38
-9
7
-19
7
-31
-70
52
5
-8
-5
51
14
72
48
10
-15
-6
-4
-30
-14
-33
38
-59
-16
-9
16
17
22
80
-60
34
3
-1
-15
-9
-24
-57
75
14
-20
-4
-15
-104
-58
-3
52
51
18
9
3
60
28
-12
-33
-1
23
-3
15
50
62
32
-4
15
2
6
6
-6
-11
-7
-40
-77
5
-7
-3
-48
-30
29
-31
6
-16
7
-11
9
19
19
57
38
25
11
3
-75
-57
-54
-63
98
18
5
0
34
7
14
18
-88
14
-2
-27
-32
-24
-84
-54
-92
-31
-10
19
56
63
43
-22
61
4
10
28
76
11
-25
73
23
-17
-14
-16
-75
-32
64
89
90
-26
14
-5
-10
14
2
-25
-91
19
10
-6
-27
-59
-63
47
-75
5
-26
-42
-96
27
20
-33
-56
-6
8
36
69
1
-77
-63
-1
3
3
21
44
86
87
36
66
8
-6
20
127
5
34
-2
21
-23
3
-20
-104
-98
-37
13
10
23
7
-12
-31
48
-42
-18
-81
6
-8
-7
91
25
21
-32
-41
-3
-3
13
-40
-23
-40
51
-24
12
3
1
32
35
-41
26
-92
-29
-15
-35
-110
-89
88
31
-33
5
-3
-7
-111
31
-26
15
-64
6
0
13
115
10
-12
-55
-36
-4
-9
-16
-39
-31
-34
-27
-92
-16
-12
-4
-37
-51
20
-56
-7
18
7
26
43
80
-17
23
69
4
19
31
69
11
-8
-3
28
-28
17
20
-35
24
37
85
-20
-25
-17
-21
2
-13
-42
-28
-62
-22
-3
-42
-50
-72
53
53
-26
5
-23
-63
-128
-52
-61
7
118
29
9
32
113
-30
33
84
11
11
15
-28
39
70
-86
-10
21
36
8
84
48
42
70
-10
-16
-4
3
26
96
69
61
33
-43
-4
0
-9
21
-13
3
-40
124
-30
-8
-28
-103
-62
67
37
81
33
16
-33
-69
-67
-114
3
2
12
1
20
65
37
-35
-1
-62
-4
-10
1
59
16
30
-57
2
23
-6
5
-17
22
-68
42
-92
-42
-3
-18
-53
-45
46
32
-17
13
4
2
-68
-22
-35
-10
91
8
-3
-16
44
34
107
-7
-28
19
18
16
-60
-75
1
-19
-64
8
5
0
98
78
-111
-29
-57
23
-24
6
-27
-13
-47
-13
-62
-2
15
4
70
61
7
19
6
-25
-19
-4
-80
40
55
-17
21
2
-17
-12
-35
14
-30
3
-9
-14
5
20
70
86
-37
-2
-60
-2
0
17
83
31
22
-22
82
-2
16
-14
-51
6
20
-29
16
-2
-9
-12
-16
-46
-39
-2
1
11
12
3
11
-108
-1
-10
72
9
-34
-9
-3
-39
-83
-72
-40
-9
5
18
29
22
29
-23
-4
12
-3
-4
39
-21
-7
60
110
-22
-2
-25
-62
-38
2
-32
-40
-11
7
-6
-74
-64
-24
-23
-11
4
-25
6
58
21
32
40
53
-24
-1
-3
-87
-31
-34
-25
46
3
-14
0
77
24
37
48
-13
0
2
-6
20
1
5
42
10
7
4
5
-16
-7
-22
-25
-12
-10
-2
-7
13
-14
-21
-52
-10
4
6
-8
-111
-56
42
27
-38
-15
-16
8
8
46
-71
-17
34
36
10
22
127
27
69
20
27
-1
4
-7
-59
-9
24
-21
-39
8
7
-22
-65
-13
30
-9
19
-2
2
11
28
6
-115
-16
15
9
-5
13
74
32
46
20
11
-10
-5
-8
-4
-23
29
-21
-91
-28
2
0
-11
8
14
27
-14
-9
27
6
-59
-1
69
-4
-33
4
-12
5
47
1
-18
5
-39
1
-15
-2
-15
22
-44
-10
42
17
2
-10
-39
-22
84
10
24
5
-4
-24
-68
-23
3
26
-5
-1
25
14
85
26
-19
-37
55
18
7
23
65
39
15
61
-36
-6
-13
-17
-48
-27
-72
-11
5
19
-2
-15
-52
-12
-14
0
0
23
5
19
-3
10
13
-5
50
9
19
18
77
-15
-39
34
20
-10
4
-2
-53
46
26
10
26
16
0
11
103
0
77
53
-11
3
6
-19
-63
-25
-74
-16
-59
22
-9
-6
-35
7
86
-28
-29
-22
-14
8
72
24
-55
2
84
-7
-7
-13
-85
-23
6
-3
-55
-10
-5
-12
-63
-8
13
3
1
6
1
8
97
17
-4
-9
-25
-13
3
-12
-79
-17
31
-14
28
5
1
25
90
17
-66
-6
-23
-11
2
1
-23
-28
-53
-17
28
10
0
7
6
21
62
6
11
35
-5
-14
-9
-4
29
1
-2
-50
-3
-20
-97
-16
1
16
23
1
-23
-13
0
-10
-60
-1
-35
-28
4
18
61
67
88
-16
38
5
-5
32
63
17
25
11
-109
5
6
6
-5
2
24
-10
-38
-1
1
-10
-44
-29
-31
-35
-54
-19
-3
-23
-85
-36
-65
-25
51
6
14
2
0
15
107
81
25
2
-4
2
32
10
5
27
1
-16
-5
-10
-14
-29
-71
-11
5
0
-3
-3
-15
31
44
5
-5
4
3
0
32
-32
-45
-38
-14
16
5
-5
-37
-29
-54
5
65
7
16
2
14
45
56
11
33
13
-8
7
54
26
28
26
-48
-2
14
12
51
-13
-96
-16
-36
-26
-19
1
-13
-2
53
-4
-17
6
-2
-8
-22
12
-50
-29
7
8
10
-3
-33
-9
26
-6
14
-21
-24
-11
-41
-7
47
13
7
-3
-4
4
40
-1
3
13
-62
-6
2
5
-1
-7
-22
21
-14
-11
-22
-12
-38
-25
-60
-22
68
16
23
-6
30
9
11
11
-24
-3
-32
-9
-52
-15
-52
-35
-53
0
-11
3
15
42
20
-16
7
-14
0
-7
30
7
-111
19
-37
-16
-4
3
-4
-13
18
-25
64
3
9
1
13
0
-30
-11
11
3
-4
6
9
0
119
25
0
-17
3
-1
-10
-23
-33
-9
9
-6
-7
-4
-6
5
-33
11
28
25
13
3
4
8
40
-43
38
-8
-7
6
10
-6
10
6
23
2
5
1
-1
-19
-3
-7
-10
2
-5
-5
-9
-9
-14
-9
9
9
3
-10
-33
28
102
19
-48
-22
6
0
7
-15
-35
8
-52
4
-22
-3
-24
-17
29
-46
14
-5
7
3
44
21
-54
-32
-6
-1
-27
-7
2
21
32
-13
35
18
7
5
-7
-16
4
15
-22
-21
-6
-4
-41
-38
-20
-7
-2
-30
-12
-3
11
14
41
31
18
14
15
7
47
10
-41
13
-7
-26
-1
-5
-19
-16
-14
-21
0
6
10
3
21
-10
-54
-10
-9
15
-6
-3
-32
-7
16
-20
4
11
11
-13
-74
-13
2
-3
31
0
-4
7
74
4
2
12
-34
13
17
7
-9
3
-21
20
-35
-24
3
0
52
43
20
11
0
-4
5
4
-6
-17
26
17
47
12
0
-4
-27
-18
-21
17
25
-2
10
-10
-34
4
-23
-2
30
3
-30
-6
-4
-16
33
31
15
8
10
3
7
14
2
27
40
-5
4
-1
17
1
26
1
24
-3
-2
-7
-50
-4
10
3
-22
23
14
-6
15
8
-59
2
-16
-35
-17
10
26
4
7
5
5
10
16
31
54
12
0
10
-2
-5
-7
3
11
22
-25
4
5
19
1
-6
-22
-30
-16
-17
8
-1
0
-8
-10
-35
-101
-4
26
-9
0
-18
-46
1
11
-19
-49
-13
-12
-14
-39
-16
34
-18
-18
-8
-9
-7
-23
4
-20
-25
16
7
0
0
45
34
64
2
16
-2
-6
16
67
15
6
29
22
20
12
13
26
-2
-25
13
12
-8
3
9
-25
-12
95
62
-47
1
5
-3
-13
4
-6
-20
-60
-3
-11
-11
-24
14
-10
-12
11
10
1
-4
66
3
4
-12
1
-8
-5
6
-36
-23
-10
-27
51
-7
-7
-12
-56
-9
-15
-24
-42
11
3
-10
-56
-39
-27
-2
-28
-19
-5
-21
48
35
62
9
-7
3
0
29
25
17
20
-32
-32
16
18
23
46
1
-26
8
16
-8
-12
-12
-32
-16
-52
-81
65
11
8
-7
-68
-4
54
25
-15
19
-1
-15
55
0
-23
9
46
-8
34
18
-43
-13
14
-5
-13
-17
15
10
54
27
35
25
44
-22
-4
4
9
2
-25
24
-7
1
-59
-21
-24
-21
-14
-3
-3
-9
-12
-12
12
1
-8
-11
1
16
1
-6
-23
33
13
20
-53
1
8
-9
-16
-17
-18
16
-16
-10
-13
7
-12
0
-29
1
41
-2
-15
9
36
2
-6
49
16
13
4
9
18
0
-33
-8
-15
-2
-6
-10
26
16
73
4
39
-5
25
15
-51
-11
-17
23
13
7
-15
-17
-14
-7
-44
12
-9
8
-1
-1
25
-3
-13
-17
3
-26
-3
4
-17
-15
-52
-1
32
9
10
-16
-34
-12
-40
1
-59
-20
-2
10
45
25
109
10
-13
-1
1
-1
6
11
-29
-42
-42
6
-9
-3
-24
-9
-33
-1
-28
-1
13
-4
5
7
-5
-28
-63
-1
-11
5
5
-26
-104
-31
-28
8
2
-2
-17
-4
106
-39
-31
-9
-3
-6
-34
-17
8
-25
-13
-2
15
7
28
26
-37
-14
-22
24
16
2
46
20
22
1
27
-3
-7
1
2
-31
-42
7
-27
11
4
8
-43
15
54
-18
-39
-7
-8
-11
12
-17
17
-13
-31
3
1
-13
-15
-3
-37
-27
14
-13
-1
10
4
-10
10
51
13
3
-20
-3
5
27
33
9
-28
-3
-2
-4
-1
-19
-20
2
6
-1
-9
-2
-26
-8
68
-34
4
-3
6
-12
-5
5
-42
6
25
-7
2
8
30
-7
-57
-24
43
3
-5
-8
-23
4
-29
29
12
-9
-8
-2
-27
-1
31
31
-14
-9
6
7
34
-2
0
-2
28
17
-6
13
52
8
-14
-40
50
-14
-2
-8
-56
4
23
4
11
-3
4
-1
25
-3
-32
15
-9
4
-12
-3
-12
-7
-54
4
25
-1
-22
2
-2
-1
21
20
-10
5
10
1
18
-2
18
-16
-41
-4
-7
-9
-14
-15
-12
1
-17
12
10
3
-30
-7
18
21
77
-3
-1
0
-19
-24
-67
-1
26
2
-3
1
29
15
34
25
93
5
13
11
35
28
31
12
0
4
-2
-2
12
-10
-13
-18
16
-2
8
1
-33
-18
-6
40
-48
2
6
-4
-22
9
42
-6
-3
-9
3
7
4
-13
-42
-6
-24
-15
-14
-8
14
24
42
-3
-38
17
3
-6
-10
-29
-37
14
35
-11
6
-6
-10
4
12
7
-5
-7
6
-4
-23
-8
-52
-28
51
-11
-11
7
31
16
-16
-33
-43
-2
21
-4
-1
6
33
-13
1
6
-10
2
7
-11
-57
-11
20
8
-15
-11
3
10
73
22
-49
1
8
9
-35
-11
22
-2
-20
-3
1
1
42
13
37
-55
29
5
1
5
-32
-17
22
-8
-38
25
10
-5
-5
14
-6
-17
31
-20
-11
2
18
9
50
37
-10
-11
-7
1
11
-1
-13
4
-31
-5
4
-5
-25
3
-6
-8
-13
0
-3
-3
-17
-23
-9
-24
-38
9
1
-4
21
15
-11
-15
4
-4
-17
-4
-44
-8
9
-31
3
-12
14
2
56
20
12
11
-1
-2
-16
11
13
0
-7
3
-46
3
-18
-9
-36
-32
-81
-55
-35
3
12
-1
17
27
85
33
-36
3
1
3
10
-10
-34
0
8
-19
-2
-13
-46
-8
10
-22
17
3
10
0
17
-19
-88
-4
3
-1
14
7
19
13
17
8
-40
8
-23
-3
-4
-2
48
25
-7
-17
14
-1
-9
-12
23
-5
61
6
9
2
-23
7
11
65
0
-6
6
-4
21
24
-52
41
19
1
-35
0
-12
-13
7
-42
-4
1
-5
8
43
28
-44
-3
40
-4
0
2
0
-1
92
18
-1
7
14
4
-3
-8
-3
-22
8
-8
12
1
3
-10
-7
26
-31
-3
-9
-11
-61
-15
-19
23
-10
-1
1
-10
14
-4
20
-15
37
5
-4
2
-24
23
10
15
21
4
7
4
46
1
-46
-6
-62
-8
4
6
10
-26
-63
-23
-5
-6
-17
-12
-21
33
105
28
23
-2
-3
-7
-37
-50
-66
-51
-27
-13
1
-5
-3
23
69
-6
41
19
17
4
48
-28
-1
-5
-31
2
10
5
-62
10
18
2
22
-9
-50
-2
60
41
6
42
-30
-6
5
9
35
13
-32
-14
-22
-2
-11
-3
-6
10
-17
19
-31
-10
-18
-17
-40
-57
-82
-12
-54
2
12
-2
-22
-4
47
-17
38
8
5
-3
-11
0
6
23
3
-12
-5
-5
4
-2
-9
3
7
-8
-8
-2
0
25
20
9
-22
2
-1
-3
9
10
-4
-1
29
6
0
0
-19
-12
12
-32
-21
4
-10
2
-4
4
31
-8
27
10
5
-8
16
3
-38
-3
-24
-11
12
21
47
-10
-12
-5
-12
8
1
1
-14
-11
-42
4
50
-2
-2
1
-43
19
62
11
-11
26
1
3
22
5
-4
-56
-4
-21
-10
-21
-6
-9
-33
21
-69
-17
-3
-5
-32
-16
-49
-18
-3
-2
-2
-3
14
3
47
19
-33
1
5
3
5
-17
-26
1
-23
1
3
4
-10
9
-48
-4
-30
-4
6
3
-27
-1
79
-1
28
3
3
1
32
6
-9
30
25
-7
-3
-2
30
25
23
-26
-6
1
5
4
-2
-39
6
-7
-8
-3
-13
-1
5
21
17
20
-67
-7
-3
-8
-15
5
-10
-13
-4
-2
-6
-2
-12
-11
3
22
11
5
0
-5
-27
-13
-37
-5
-20
0
2
0
22
5
6
-15
-10
-7
-6
-2
16
0
-12
-37
20
-6
3
2
-17
-11
14
22
47
2
1
4
6
5
-17
16
19
10
5
1
16
6
12
22
25
4
-3
-3
-17
-16
27
-16
0
1
19
-8
-40
-25
-65
-7
-48
-4
-7
14
17
21
-12
-25
21
2
2
3
39
21
96
3
9
-7
-22
-11
-4
12
-25
8
-2
-2
0
2
-18
-19
-21
-40
8
9
6
-4
5
-3
18
-2
6
-3
17
7
4
-12
-68
3
0
3
-42
-5
-8
2
5
-1
2
0
8
2
-15
5
28
19
11
-3
-15
-15
-3
-5
0
6
3
-7
-5
-12
1
-2
-32
-8
6
1
22
-1
-16
-26
-18
8
9
5
18
13
16
16
18
10
23
6
-8
13
9
13
30
19
17
9
33
-1
-16
-8
-20
4
11
-3
-17
5
6
-2
3
5
-10
-13
-12
-6
29
4
-22
-4
-9
4
-7
29
9
2
12
-10
-1
-12
-20
-12
-19
-9
-8
-7
11
4
-9
5
-15
1
-7
10
-4
0
18
-12
-9
4
12
7
6
5
-34
-17
-14
-13
10
2
7
5
47
-6
-15
-10
-10
1
-8
-12
-1
-1
8
-2
-6
-6
-2
-1
-6
11
29
17
13
5
6
0
-2
10
7
1
5
0
11
1
-25
3
0
-2
-18
-2
1
-1
20
-18
-21
0
6
1
5
9
27
3
-4
0
12
10
-1
-3
-49
-32
1
-1
-10
-1
-9
-24
-27
13
7
-3
-6
-4
0
0
20
13
-1
4
1
3
0
-1
5
1
-1
0
3
4
2
-4
17
-7
-5
1
-3
0
7
7
-12
0
2
-2
-11
3
-3
-6
-23
-18
-6
-2
-7
-1
-2
-4
-37
-2
-3
-1
-4
1
3
2
37
3
-5
-2
0
-1
0
0
-15
-4
1
1
-4
0
5
12
28
18
9
7
1
3
-3
-10
-31
-13
-1
1
-4
-2
-6
-12
9
-5
-6
-6
-3
-5
-1
-2
28
11
5
-1
0
0
0
1
-11
1
1
0
1
-1
-1
-2
-7
-6
0
0
4
2
2
5
5
1
-1
-3
2
-1
-1
-4
-10
-1
0
-1
-1
-1
8
1
-24
-3
1
0
1
3
-6
-5
-21
-3
-3
-4
1
-2
4
1
2
2
-4
-3
4
1
-1
4
3
-3
0
1
-3
-2
-3
-4
-14
-3
3
2
4
0
3
2
6
5
-1
-3
-1
1
-3
-1
41
-3
-2
-2
-1
2
-4
-6
-13
-12
-5
-2
-3
-2
-1
-2
16
9
-1
-1
1
0
-3
1
3
-4
1
0
2
-3
-1
2
12
8
1
-1
1
-1
5
16
31
-8
2
3
2
1
-13
-29
-37
-18
-8
-7
-5
-6
1
5
22
-2
1
2
4
1
5
3
12
21
-1
-2
2
0
-2
2
10
-18
-4
-3
-5
-2
6
13
32
0
3
1
2
3
-4
-2
9
17
4
-4
0
0
-4
-2
-16
-27
-6
-2
0
-3
2
3
4
11
4
-2
-2
-1
2
2
12
-2
-1
0
-3
-1
-1
4
21
5
-3
-3
-3
1
-5
-7
-39
-22
-10
-3
-1
-3
-2
-4
-24
7
-3
0
2
0
-3
-2
7
10
0
0
0
-2
4
5
-36
-2
2
0
0
0
0
2
19
-2
5
1
0
-2
-2
-7
-14
2
-3
-3
-3
1
-1
1
3
5
4
0
-1
0
0
-8
2
0
-2
0
-3
-1
-2
-4
-14
-9
-8
-1
-2
-1
-2
-9
-18
-2
-2
-1
0
1
3
10
5
5
0
2
-2
1
-3
0
12
-7
-4
-1
-8
0
5
0
4
3
-1
-2
-7
1
-3
-2
21
14
6
2
-4
-3
-2
-4
-19
-6
-4
-6
-4
-2
-3
-3
-9
-4
-3
-2
2
-2
2
-2
-33
4
1
-1
-1
1
5
11
30
4
4
2
7
2
2
3
-5
-1
1
0
2
-3
0
-7
-62
-1
-1
-3
3
-1
-10
-4
0
10
1
-1
0
-7
-2
-9
-26
-13
-5
0
0
0
1
1
7
-10
-5
0
-1
0
-3
-3
-11
0
1
1
0
-1
6
4
20
5
2
1
3
0
-8
2
1
-3
2
-1
0
-3
-1
2
0
2
-2
-2
0
0
-4
-5
25
6
-3
-1
-3
-6
-1
-6
26
-5
0
-1
1
-1
1
5
-15
-4
1
-2
-4
1
-5
-13
-3
-3
0
0
-2
0
3
8
30
4
2
1
-10
3
-4
-8
-32
-9
-4
-1
-5
-2
3
4
7
11
1
1
1
0
-4
-7
-29
-11
-3
-2
4
-1
1
1
16
1
-3
-2
-1
-1
-1
5
-2
1
1
1
6
-1
7
1
-11
-5
-2
-1
3
12
-4
1
15
1
1
0
-2
-7
-1
1
25
8
-1
-2
0
3
-7
-4
-8
-1
-1
-3
-3
-8
-6
-7
-5
-2
-5
-3
-1
-6
4
3
0
1
2
1
3
1
3
2
0
-6
2
1
4
1
0
-5
-1
-2
1
1
5
2
-2
-2
-6
5
1
-2
-2
-1
-2
-4
11
-6
-5
-4
-3
-5
-3
-3
-13
-6
-4
-3
3
-2
0
2
2
1
1
-2
-2
1
-3
-2
-2
-6
-2
-2
-2
-4
1
4
-3
5
2
-2
-3
4
-2
-3
-6
-2
0
-1
1
-1
-2
-3
0
-1
1
-1
-2
1
0
5
46
6
-3
0
1
-1
-4
0
-2
2
-1
-1
-2
-3
2
-1
-47
-6
2
-1
1
1
-4
-3
5
-1
-3
0
-1
-1
1
1
-10
-4
-2
-1
-3
-2
2
1
16
7
0
1
2
1
-1
-1
-11
-2
-3
-2
-2
-3
1
3
32
6
-3
-1
-5
3
-4
-12
-29
-12
-3
-3
-13
-3
0
-1
-23
-2
2
1
-6
1
-2
-2
0
-1
1
-1
-6
-1
0
3
10
2
1
-1
0
-3
1
1
-16
3
0
1
-3
-5
-5
-6
-6
-11
-7
-2
-11
-12
-2
-3
34
-1
-3
1
-5
-4
-2
-5
-37
-4
-1
-1
-4
0
2
2
6
-2
-2
-1
-4
0
-3
-4
6
0
0
-1
5
2
0
-1
-5
0
1
0
0
2
2
9
30
9
2
2
5
-2
-3
-7
-22
-5
-1
-2
6
-2
3
1
9
3
1
0
7
5
-5
-7
11
-11
-8
-3
7
-1
0
5
2
5
1
0
8
2
-5
0
1
-2
0
-2
6
-1
9
4
6
4
-1
0
2
-2
-1
3
-10
-2
0
-1
3
2
-2
-4
-3
-3
-2
-1
0
-1
3
3
23
5
2
0
3
0
-9
-4
-9
-10
-5
-2
1
-4
1
3
-23
4
1
1
1
1
-4
-13
-13
-16
-7
-4
-5
-4
2
3
-7
1
-3
0
1
1
-2
1
1
2
0
-1
-2
0
0
1
13
1
-1
-1
-1
-3
-1
1
-6
3
1
0
1
-1
1
-3
18
1
-2
-2
-2
10
-2
-6
-26
-7
-3
-1
-4
1
-3
-2
-2
-1
-4
-2
-4
0
-1
-11
-21
-4
-4
-2
-1
2
-2
1
-18
-4
-1
1
0
-4
1
3
9
8
1
1
-2
-1
0
-3
-4
0
3
-2
-3
0
0
2
11
2
2
-1
-3
-2
-1
-3
-18
0
-2
-2
-3
-1
-2
-5
16
0
1
1
-3
3
2
-1
-12
-3
1
1
-1
-1
0
4
23
1
-1
-2
-4
-1
-3
-1
7
0
0
-1
1
-1
0
3
10
6
0
0
0
1
-5
-3
-21
-7
-3
-2
-1
-1
0
0
15
-4
-1
0
-3
1
1
-4
18
-1
-2
-2
-3
2
-3
2
7
5
4
3
3
-4
-4
-1
-6
-4
-4
-3
-2
-2
-2
1
-18
0
-1
-1
-2
0
1
0
-4
-2
1
0
-1
-5
2
8
23
1
-2
-2
-2
5
-4
-13
11
-4
-5
-1
-2
-6
1
3
-11
-2
1
1
1
1
-3
-5
27
0
-2
-1
-2
-4
0
0
-5
-2
0
0
-1
-7
1
3
9
6
2
1
1
2
2
-1
-12
-2
-2
-1
0
2
-3
-3
3
0
-1
0
-2
-4
-7
-8
-12
-2
-3
-2
3
-1
0
-1
-4
-2
-3
-3
-3
-3
-5
-2
6
-1
0
-1
-2
-1
4
-1
-27
-2
0
-2
1
-7
-1
1
-23
-3
0
-2
-2
-1
-4
-5
4
-4
-5
0
-3
-3
3
2
10
2
1
0
-1
9
-5
-6
-15
-8
-6
-2
-3
-4
0
-4
-2
-3
2
0
-1
-1
5
6
-1
8
8
0
1
-1
-6
-6
-8
-5
-5
-1
-3
-9
-3
6
-6
4
2
0
-1
5
-3
-10
-21
-5
-2
0
0
1
1
0
-5
-3
-4
-2
-2
-2
-1
-3
3
0
0
-1
-1
-1
2
0
1
-1
1
1
1
2
-1
0
-2
1
-1
-3
-1
0
0
3
7
2
1
-2
0
-1
-1
1
-6
-1
0
0
-1
-12
-1
0
4
1
-2
-1
3
-1
0
0
-8
-1
0
-1
-3
1
2
-9
0
-6
-3
-2
-4
0
-8
-1
2
-1
-2
-2
-1
2
-1
6
22
6
3
1
1
-4
-20
-5
-44
-9
-5
-2
-2
-6
21
-2
2
-3
-4
2
2
24
-3
1
-8
0
1
0
-1
-12
3
-1
5
-2
1
-3
-1
18
-5
1
18
2
1
-1
1
-2
0
3
-4
1
1
2
2
6
-6
2
1
1
0
-2
-1
22
-8
0
-7
-2
-1
0
0
-10
-9
-2
14
-1
-4
-2
-2
7
9
4
-5
0
-1
-5
-10
-33
12
-14
2
3
3
5
3
5
-21
-4
-16
-9
-7
-3
-17
31
-22
5
14
8
3
-1
15
-14
20
9
3
3
2
2
3
3
-7
8
1
1
-4
-4
3
-24
28
1
-11
3
-3
-1
-2
-12
1
-11
-7
-5
1
0
-12
-10
-20
-1
31
5
4
6
3
50
12
1
-53
-18
-6
0
-2
0
1
3
2
1
0
-1
-17
-40
-8
27
-1
6
1
1
-12
-19
35
5
11
-8
-8
-6
42
-16
-32
-64
4
-9
-5
-3
-17
28
58
-24
-15
-2
-2
-9
16
-26
58
-46
7
-6
-10
-3
23
54
-29
31
-20
7
13
13
-71
-88
-49
-30
7
0
-5
-14
-49
93
55
26
-12
-8
-13
-5
60
35
11
-23
5
-17
0
-13
-23
56
76
0
0
14
-3
-7
41
25
-82
8
3
10
-5
-10
-80
-93
7
28
1
-1
7
5
37
11
92
54
15
5
39
11
52
3
-103
-23
2
7
0
5
-10
66
46
12
-4
-14
-49
10
-36
9
-109
-54
-12
-7
21
11
2
78
-2
15
-6
-2
7
3
29
-52
11
1
-9
-4
-14
-14
100
-93
111
38
24
31
78
-5
-49
22
-27
-9
-5
-6
-55
-18
7
-48
-30
-20
-4
-11
-66
-1
76
49
-36
-15
1
0
54
-54
-110
13
4
-15
-19
-29
-44
28
87
30
85
27
6
3
56
32
-128
41
-126
-9
0
42
52
-9
1
-16
80
0
-4
-3
-30
-33
29
3
104
17
8
18
46
39
-12
72
-100
-2
11
-15
-44
5
49
-46
-108
-11
4
-27
-91
-40
18
28
-66
-12
-4
4
11
23
7
-31
73
8
3
-4
26
-45
21
20
84
1
8
-8
-7
4
6
-7
-53
8
-4
-12
-69
-13
-40
12
-28
1
-9
-21
-35
21
-91
51
79
24
-13
44
85
67
127
-38
-103
13
4
13
-55
-20
-25
33
60
-3
6
18
52
42
-18
1
79
-4
0
-19
-56
-17
-47
59
-126
-10
12
-9
16
9
-24
-41
11
-5
8
-7
-8
-19
93
9
30
10
-3
-10
-40
-80
-118
-39
-103
30
8
9
22
81
31
-30
75
8
2
-6
-14
-14
56
11
4
3
0
11
18
-19
-110
-52
-51
-17
-16
-20
37
54
-12
-61
76
-31
6
0
8
4
95
40
-121
3
16
13
-62
-55
-52
-64
-37
-32
-27
-2
66
9
1
81
92
-10
-21
-22
-70
1
-109
-45
4
1
-22
15
122
52
-87
-14
-63
16
9
-10
-70
-27
71
36
5
6
18
9
-41
-34
-35
6
-29
2
18
17
48
-14
100
81
-5
-4
6
-13
-22
-15
-27
1
-90
-13
-17
-26
-104
-28
-21
-41
37
6
-2
3
69
54
83
-51
-40
-20
-10
3
-7
111
38
-14
31
20
4
26
96
33
28
24
-55
-6
3
-1
4
12
-21
-7
66
-21
-10
-12
-104
47
54
6
49
26
10
-19
-19
-47
-73
50
72
-1
0
9
-14
4
-32
-65
-32
5
-4
-14
-32
43
40
-12
-58
15
4
12
60
-35
-68
-31
63
-10
1
8
-52
-89
-31
-52
2
16
7
2
4
-128
23
24
53
-5
18
-4
33
-61
-35
65
16
17
-4
-17
-84
12
-53
-13
47
29
15
24
5
84
100
-12
-128
-22
0
18
62
30
34
-22
-11
-32
-25
-17
-8
24
35
-13
93
-1
1
-12
-20
-16
-106
67
-5
18
10
33
76
85
17
-22
-107
-18
11
-9
-89
43
74
30
25
19
12
12
38
16
23
-12
30
-39
-17
-16
-16
-95
-85
-24
-31
16
11
-37
-99
-18
-61
30
18
-12
-9
4
-46
36
91
15
-2
-16
16
17
109
6
-61
-36
-84
5
-15
-10
-24
1
-56
-47
-70
-14
-1
-3
22
-23
1
-25
6
5
-15
-19
-98
-30
-62
-2
-50
-5
-1
6
50
48
23
-19
-93
23
25
25
48
37
58
-9
15
10
-9
16
41
-5
-70
-2
35
-7
1
-10
-51
-13
-95
-51
4
-13
-16
-37
-103
-66
-14
-26
-14
-17
-20
-6
-49
-7
53
-8
-52
3
1
22
92
54
-31
2
53
6
3
11
51
-19
-43
10
-31
-11
10
17
61
46
-14
-73
9
1
-2
-12
-39
-16
7
0
49
-16
-10
-20
-50
-49
55
-28
1
-5
1
-7
-59
-22
-39
-16
40
13
-3
-5
35
1
-119
-11
-78
9
-36
6
52
20
49
20
26
-6
1
13
-8
-11
34
13
40
4
-4
-14
-53
-25
12
6
3
44
9
1
-42
23
-1
56
56
-61
-16
0
68
51
53
-25
2
-23
-4
9
74
-23
-76
-9
-83
7
-16
13
49
-7
81
-10
23
-16
4
-14
-106
-20
3
-24
-20
17
22
11
-5
-46
7
-13
-112
-4
-21
-44
-100
37
21
-16
-6
-9
4
-7
72
54
45
4
12
12
-12
24
35
-7
-21
40
37
3
18
-2
17
-11
17
19
10
-7
7
-10
-44
-34
-10
12
-14
2
-6
-12
-78
2
-44
24
22
26
8
10
58
38
71
13
5
-4
14
4
24
7
-101
2
75
9
2
12
24
-24
49
26
-21
0
-9
1
20
-13
-59
-3
15
-3
-5
-7
-32
-29
29
21
-2
8
7
0
-21
-2
-14
10
9
2
-8
1
-29
4
-11
-13
70
4
0
-17
47
14
102
74
40
-16
-11
7
-12
-11
15
23
-6
16
11
18
-1
15
16
-11
-66
-27
-2
-3
49
-31
-88
14
-14
-13
-29
-13
-52
-13
-21
-28
-52
-6
-2
-11
-12
38
27
-30
87
4
-2
9
55
11
34
31
94
15
17
3
-4
-24
-42
23
-29
-37
5
-1
-9
14
49
-11
-36
4
-7
0
-1
-8
-20
7
-45
-12
-21
-9
-28
-5
-30
-33
35
7
6
0
-19
49
23
-3
-22
8
17
-4
24
36
-27
34
7
-12
-18
-14
-35
-11
-37
3
-11
7
15
30
82
-5
2
5
-12
-8
0
-4
-3
-33
15
6
37
16
16
-5
-28
-39
-42
-14
-20
-6
0
-10
-44
-34
12
-19
-60
1
-6
-7
-1
3
1
-13
-48
0
-6
0
10
55
-55
-15
20
4
2
8
21
52
73
23
9
-13
0
3
21
36
-6
-5
-25
1
-8
-15
-50
-11
12
29
-11
-1
6
8
-19
-40
63
-12
-42
8
-1
6
45
-42
-10
7
52
7
14
5
3
-24
-25
-14
44
-14
-4
1
11
-13
-5
14
52
-2
-44
-1
10
-51
0
51
38
15
7
-11
-47
-6
15
-18
-9
-2
-4
-3
4
-4
18
13
19
6
12
4
-4
14
-8
-32
34
10
22
6
14
13
-27
48
0
-6
-1
2
-5
-13
-56
-14
-10
9
23
4
8
5
3
-25
-12
-11
-24
-10
-18
-9
26
-17
15
-3
-18
-8
2
-6
-2
14
-48
-2
-2
3
3
0
-75
-16
6
-5
4
-2
-6
-21
13
14
40
35
25
-6
-23
2
32
6
9
-34
-5
1
30
18
47
-11
-15
-21
3
-7
-21
-27
-46
-12
28
-3
-15
8
4
-5
-37
13
-42
6
-12
-5
3
11
-7
-24
-28
24
19
1
1
11
11
-19
5
-9
-8
-2
35
-2
0
-20
-60
-5
-16
-5
-14
-8
-62
18
22
-16
3
6
5
24
34
2
-42
1
2
2
-9
6
0
7
41
2
-2
0
-19
-7
74
10
-7
-3
-9
-6
7
-10
-29
-17
-18
5
-2
-12
-57
-6
-31
9
-16
5
3
6
48
5
68
-3
10
11
10
3
-14
10
-52
-8
-46
-2
-4
1
32
17
27
-39
-33
-8
-4
3
14
-7
-12
23
0
-10
2
-3
-35
-5
-37
0
-41
-8
-18
-8
-2
-6
15
-3
50
-2
-1
-4
-16
8
-37
22
-23
-7
-4
6
14
1
-11
13
2
3
14
0
6
-3
-52
4
18
12
7
6
0
1
60
34
-22
-4
3
-9
-16
-4
12
14
42
0
12
2
0
2
-38
-2
-32
-20
-21
-9
2
-7
-5
-18
13
6
2
-1
-7
-1
-35
22
80
6
-18
-3
-12
-18
20
26
0
8
9
-3
-1
0
43
6
14
3
9
8
14
-2
26
-3
-19
-12
-18
-3
-7
15
-10
-6
-1
22
19
17
39
23
76
-8
-27
4
10
-5
-8
-6
-2
-14
10
1
-10
0
-22
-7
-19
-48
12
-13
2
1
50
21
36
-15
-29
-3
1
8
-15
-23
-78
-4
-4
-11
-12
-5
-3
7
26
1
56
9
3
-7
-20
-7
16
-4
-43
8
8
-2
-14
0
24
30
-65
-1
-18
-9
1
12
21
19
6
-7
-3
1
-12
-1
-22
-44
19
8
-7
-16
-1
5
35
-12
-57
-32
-5
10
16
-9
-52
1
46
23
22
-5
-16
-12
44
24
2
-26
-21
-1
11
14
25
-10
-74
8
18
-3
-16
-3
-11
-37
22
8
0
-12
0
-27
-27
-14
43
-13
-16
-2
0
30
50
-10
36
8
12
14
26
-2
-17
20
-4
8
5
9
27
9
-36
6
-58
-6
0
3
-19
1
75
-10
3
-7
10
-5
-17
-18
-30
-8
-11
5
-3
-5
-14
-7
2
7
13
-7
-23
-7
4
0
-38
31
93
19
13
11
-4
-3
-62
8
-22
-35
-31
-10
0
-1
66
8
-50
-1
-1
1
-1
-16
-94
-30
24
-2
1
-1
11
25
90
27
51
26
-8
-3
-23
1
42
10
30
-15
14
8
9
6
10
-9
-48
1
2
2
25
-17
-45
-30
-78
-23
-13
-10
-19
-8
18
-44
20
30
12
2
-15
9
-22
-27
-9
-4
1
1
15
-8
-35
-8
-8
2
-5
1
-10
2
-27
50
13
-8
1
6
15
-7
-61
-8
-2
1
-2
0
16
42
43
7
3
14
13
2
-3
-17
-25
-20
5
-2
-29
-10
-13
4
61
6
0
-21
11
1
-2
4
32
4
-18
-13
-2
-1
-2
-25
-14
-7
-4
13
-6
-6
-30
-13
-23
22
70
-10
8
3
13
16
40
4
-48
-12
-12
-4
-10
-16
-53
-33
18
-5
-8
3
29
11
1
5
-83
-1
-1
3
9
17
32
-6
-28
6
13
-1
-8
-7
11
-15
30
15
-3
0
-12
-7
-40
7
-25
-10
8
-8
-16
-7
9
-2
-3
0
-4
6
5
2
-31
-8
20
-8
-5
-17
-7
-8
43
13
11
1
-2
3
-9
-21
49
-7
10
7
-4
1
6
34
-9
9
26
11
-5
2
32
14
-15
-10
-9
-7
8
3
-4
-9
-6
8
4
4
-7
-4
-3
-4
8
11
24
-8
-23
-7
-17
-7
18
17
-38
12
24
0
-11
-15
-16
6
22
-16
-29
-5
4
17
-9
-11
-96
1
6
0
5
4
47
-8
25
-20
-9
0
1
-13
-45
-17
29
0
3
-5
1
3
-32
-17
-71
34
22
5
-1
-4
5
-25
55
-6
1
2
4
21
6
49
17
-11
-21
-2
-5
-34
-61
-16
43
-9
19
-1
2
16
76
11
17
-9
16
2
-8
-3
16
42
23
3
-29
-5
8
-17
0
5
-18
17
14
-1
-16
29
66
-9
53
3
4
1
8
-6
-47
-7
5
4
-23
-3
12
7
30
-14
28
-5
14
3
5
6
-13
-16
-19
-7
-9
-1
-6
-20
-36
-2
-26
-7
-15
-5
-13
-5
-29
8
21
9
25
1
-12
0
4
-15
19
1
4
3
13
0
16
61
-45
13
-3
-9
-4
-12
-26
-11
-6
-14
-4
5
4
22
93
0
-76
-29
-15
-5
4
-16
-68
-16
-33
7
3
-10
-24
-17
-3
-36
23
-7
26
3
-2
14
-29
-5
0
0
13
4
9
-18
-44
-24
21
20
-37
-8
-14
9
22
15
-3
-10
19
6
7
-4
-43
-12
-21
8
10
8
24
-7
26
-2
-8
-8
-27
-5
-6
-8
-79
-10
8
-6
-8
-1
4
17
66
20
18
11
6
1
-11
3
-19
-6
78
5
-1
-2
-12
-27
-42
0
-46
-7
-21
-6
-17
10
31
16
24
23
7
4
18
-2
-65
38
54
-37
0
-2
5
15
33
-26
0
-10
-7
0
-2
3
2
4
37
8
-9
-5
-13
-27
34
38
0
-15
-28
-9
-21
2
-25
18
-24
9
-3
0
6
5
-29
-15
-34
-7
6
3
21
6
7
-8
22
11
11
6
-1
4
-10
-16
20
-10
13
1
-1
-1
14
-1
45
6
1
2
-4
7
23
27
-22
4
-10
0
9
0
7
2
-50
-11
-16
-11
-17
-4
-34
-10
27
4
17
-1
3
-14
-9
-10
2
22
16
10
-15
5
-14
-8
-30
-5
-7
-6
23
11
-3
27
29
6
3
4
5
2
-7
4
9
-11
14
5
-5
-9
39
-2
-52
18
7
-4
-9
-16
-64
-37
-24
-16
-2
-2
-7
12
76
-22
20
-3
-2
1
-18
-7
24
3
20
23
30
3
6
15
-22
-6
23
3
-10
-3
8
-10
0
24
2
-11
1
9
17
15
-2
8
6
-3
2
1
11
-4
-7
13
-4
4
16
-5
-29
-12
-16
-1
3
-4
-8
-3
2
3
67
1
10
-1
-12
-9
-16
-2
-4
2
18
5
-2
-1
-14
-11
-7
6
-75
-8
-15
4
23
9
9
-27
-5
-19
0
3
12
-8
17
7
-33
-11
-10
-15
-38
11
-56
-11
-10
10
1
8
30
0
50
58
62
-26
-32
2
5
-1
-62
4
-82
12
4
2
11
19
53
-4
4
-3
12
-5
-28
-25
14
-20
-42
-7
2
-6
2
5
8
4
25
13
12
3
-1
8
-23
-9
34
-14
-18
-4
1
-3
-10
4
9
-4
6
-3
-4
-23
-9
19
-34
3
-9
-4
-1
7
-52
-26
22
-16
-2
-3
-14
-5
44
-10
-27
12
12
2
-2
1
-39
8
7
6
1
5
5
-8
45
28
96
0
-4
-2
-12
8
16
13
-1
11
-2
1
31
-1
-44
12
-19
-29
-12
-6
-19
-7
-21
-3
-3
19
9
7
2
-8
6
-10
-26
-30
-2
6
23
16
-17
-22
15
0
-10
-9
-15
-12
41
5
39
6
4
4
6
6
-23
26
-38
12
4
1
-2
-6
-24
-11
-1
9
15
-11
-44
-27
-50
-5
-22
-8
-1
8
22
25
21
-12
8
-19
-22
-5
9
0
9
13
15
11
13
4
-6
2
-2
-3
-21
12
20
5
11
-4
-11
-11
7
-9
-10
-6
-11
-3
14
23
-39
23
20
4
-4
-1
-7
-36
15
-21
-31
-5
-1
-6
-7
-6
10
-20
-11
-12
-9
-9
6
-23
-28
22
22
7
10
30
67
3
-13
-31
-6
5
17
7
35
-9
-17
3
3
-2
-3
-10
-63
-18
-67
-2
-31
-10
1
-3
1
-43
-17
0
-5
-4
-18
-17
4
-23
4
2
6
-2
-3
5
-26
7
1
-7
5
-1
8
0
-7
1
17
-2
2
-1
-10
-5
51
16
-17
0
-19
-7
-16
-22
-100
0
9
17
3
5
22
32
77
13
25
-6
-1
3
2
-7
-44
-6
-19
4
17
9
-1
17
45
4
17
-5
7
-1
2
-19
-14
40
11
3
-13
-8
-12
-7
-31
4
5
10
18
3
3
1
23
1
-32
-26
-32
-2
1
0
-26
-19
-49
-8
-2
-7
-12
-15
-34
-15
-22
21
8
-1
-1
8
23
-26
-28
-8
9
7
13
18
52
37
27
15
36
0
5
-7
-4
2
-1
-10
-20
-1
-1
10
6
-6
-20
-9
-12
-6
-13
-7
0
13
6
14
-2
-1
-1
-9
-17
4
-13
-16
-7
-2
0
-9
-14
-5
-12
3
5
2
2
10
18
-10
25
-2
2
-1
-7
-10
0
2
7
-2
-10
-5
1
5
10
7
12
11
-18
1
3
-16
-33
7
-15
-3
-4
-6
-11
4
14
-10
22
4
1
0
-19
-7
33
0
51
-2
-1
2
24
-15
-4
31
2
-17
2
5
14
51
55
21
-8
4
17
5
-2
-12
-11
0
-6
-9
-13
0
-1
0
-24
-11
-3
4
14
-4
-14
-4
9
-16
16
7
-16
-5
0
-10
-7
-2
14
4
10
-2
-1
5
3
-3
3
-3
-26
-10
-1
-6
-16
5
-8
4
2
1
-1
4
6
-15
2
11
7
9
6
-2
-9
4
-1
-6
16
1
-1
-3
3
-4
-1
2
-14
3
0
-10
-23
-3
-4
-3
-10
-5
-4
-1
-3
-6
1
-1
-2
-5
0
0
-16
-7
5
-2
-4
4
0
-8
10
6
3
-3
16
2
4
5
9
-10
3
0
-12
-1
-4
-5
-16
-15
11
4
0
-4
-7
6
0
4
13
2
-7
-4
-1
-4
7
11
32
6
5
-3
2
-12
-17
-6
18
-9
0
2
-1
15
11
-25
-6
-2
-2
-6
-2
-3
12
5
-4
-3
-6
-3
2
-1
-10
-3
-22
-8
-4
-4
-4
-14
-43
-7
3
18
4
4
-1
11
64
-1
11
2
4
4
3
-3
-29
-6
13
-4
-5
-3
0
-2
4
-27
4
5
6
1
1
-1
-15
-3
-13
-10
5
-1
-3
-5
-27
-7
2
8
3
2
-2
-3
0
-3
-2
-13
-6
1
-3
-1
1
9
-3
-2
-9
-3
-1
1
0
6
-7
-2
-10
-3
-3
3
-5
-5
-13
-5
3
-4
-4
-5
1
-7
1
9
-6
-1
0
-1
-5
0
2
-4
7
2
3
4
10
6
-16
-5
-7
-3
-2
1
0
4
9
7
4
3
-2
-3
5
4
1
0
-8
-6
-6
-3
-2
0
-15
-10
0
-3
2
2
3
1
-5
4
1
0
3
-3
-11
1
-4
-23
-8
2
1
-4
-1
-3
-1
7
15
-1
0
-1
-2
-1
-6
-6
-2
-1
-5
0
3
-1
-3
-5
-9
-2
-4
-5
-5
-4
-2
3
4
-2
-1
-3
1
-2
-3
-1
-27
1
1
-1
2
2
1
3
1
-2
1
1
2
6
-1
-3
-12
-3
-3
-1
-4
2
-8
-6
-8
-5
-7
-1
-5
-1
2
3
5
1
1
3
0
4
0
-1
7
-2
1
2
-4
3
-5
-7
-3
-5
-2
-1
-4
-4
-4
5
1
-2
0
0
1
-1
-2
-1
0
2
0
-4
-5
0
4
9
18
9
0
0
2
3
-2
5
16
2
2
0
2
1
6
2
-36
0
1
-2
0
-1
-1
0
6
-3
-2
0
0
-1
-2
2
4
-4
-1
3
2
0
-3
-2
-1
1
1
-2
-3
-1
-2
4
15
4
0
-2
-3
-4
-2
-5
-8
-3
-2
1
2
-3
-6
-7
-10
0
-2
-2
-1
-4
1
-1
-1
0
1
0
1
-3
0
-2
2
-6
-3
-1
1
0
-4
-3
10
-1
0
-3
-1
-1
-1
0
7
-4
-3
-4
1
1
1
0
2
1
-3
-1
1
0
-2
3
-10
-6
-1
0
0
1
-4
-10
24
-1
-2
-2
1
-2
0
4
2
3
0
0
1
0
-1
-3
-22
-12
-2
0
-2
-2
2
9
31
4
-3
-1
2
1
-5
-14
4
3
-3
-2
-3
-1
-5
-7
-4
-6
-1
-1
2
-1
-2
0
-29
6
1
2
0
0
-1
-1
5
-13
1
0
2
-1
1
5
-18
12
3
1
0
1
-4
4
28
-6
-1
-4
-2
-1
1
-2
-47
-5
0
1
0
2
-5
-11
2
4
-2
-3
-6
-1
-1
8
12
-8
-5
-3
-1
-2
1
3
21
11
1
1
-1
-2
-3
-8
-24
10
-1
-2
-2
-2
3
7
20
-11
0
-2
1
0
-4
-5
-18
-10
-3
-1
-1
-1
0
-3
-35
-13
-3
-3
-2
-3
7
17
71
21
5
4
4
3
-12
-22
-60
-16
-2
-6
-6
-6
-4
-8
-16
-4
-2
-2
-4
-3
-1
-13
-12
4
4
1
0
3
-7
-1
-1
-5
-1
-2
0
-3
4
8
21
3
-1
-2
-3
-1
4
10
-4
2
-5
-2
2
-1
4
4
-18
-2
2
0
0
2
-4
0
45
1
-5
-1
-3
-2
-2
2
-54
-7
-2
0
0
-1
-1
1
20
1
-1
-4
-3
-2
-3
-7
1
7
0
-1
1
-1
0
5
9
-3
1
-2
-2
-2
3
0
24
11
5
4
3
2
0
5
5
8
5
0
-1
0
-2
-12
-3
-9
-5
-3
-2
-1
-6
-5
2
4
-5
-4
-3
-4
7
-1
-52
-9
2
-1
0
0
-3
7
17
-4
-4
-1
-1
-1
-2
-7
-4
-6
0
1
1
0
2
0
10
-3
4
1
0
1
0
-3
-15
-11
-10
-4
-3
-2
4
10
29
8
4
2
1
0
-6
-9
-71
-3
-6
-5
-4
-5
5
9
33
3
-5
-2
2
2
-8
-5
-7
4
3
2
0
-3
8
2
-23
-17
-7
-4
-1
1
-9
-4
30
8
2
1
-3
-6
-3
-16
-27
-8
-1
1
1
-3
0
3
36
12
5
2
0
3
0
0
11
-2
-1
0
-1
1
0
6
15
3
0
2
-2
-1
3
1
-54
-5
0
0
1
6
-4
-1
31
1
-4
1
-5
-6
-2
2
24
12
1
-1
-2
-1
0
-2
-1
-10
-4
-1
1
-4
2
1
17
4
7
2
1
16
-7
-6
-16
-1
-3
-4
-1
-3
4
0
-21
-4
3
-1
-3
3
0
11
22
2
-2
0
0
-1
-3
0
-7
-5
-4
-2
-3
-5
3
3
18
5
-2
-2
1
1
4
-3
-32
-11
0
0
5
1
-1
4
6
4
1
-2
-3
1
-1
-3
8
-1
-1
0
-3
-7
-2
-7
-28
-8
-2
-4
-9
1
-2
-5
-13
2
0
1
-3
-3
-3
-9
-7
-4
-4
-3
-9
4
-5
-4
-15
-6
-4
-4
-13
-3
4
4
3
5
2
1
-7
-1
-3
-1
-10
4
1
2
0
0
-2
-2
6
-5
-2
-3
7
-3
-2
-3
-5
1
1
-1
4
-5
1
1
12
3
1
3
4
2
-5
-6
-12
-4
-1
0
-1
-4
4
20
-3
9
2
3
3
4
-8
-23
-38
-9
-4
-4
2
-6
2
6
14
3
-5
-2
6
-1
-7
-10
27
-8
-5
-1
3
-3
3
5
-19
0
3
1
4
-1
-1
6
28
1
0
-1
2
-3
2
1
10
3
1
-1
4
-1
-9
-8
-21
-5
-3
-2
-1
-3
1
-3
2
-1
0
3
4
1
-4
-2
15
-7
-4
-3
0
-3
2
-5
-24
0
-1
-2
-2
5
3
10
12
5
1
-1
1
0
-5
-10
-12
-6
-2
-2
-4
-5
-2
-5
16
0
0
-2
1
-2
-1
1
-11
-6
-2
-3
-1
-6
1
-5
4
-5
0
0
-2
-6
1
0
-11
0
-2
-1
0
0
5
6
4
0
-2
-1
0
2
3
3
15
4
5
3
2
1
-7
-8
2
0
-4
-1
-3
-1
3
4
6
-2
0
-1
-1
-1
0
-15
-12
-1
-2
-1
-1
0
-3
-4
13
2
1
0
1
1
0
4
-22
-2
-2
-1
0
0
-2
0
35
5
1
-1
-1
-1
-3
3
-31
-10
-5
-2
-3
0
0
-2
14
0
0
-1
-1
-1
3
1
-21
-1
3
2
2
2
-1
-2
7
-1
-4
-3
-5
-3
3
13
22
6
3
0
-2
3
-2
-5
-16
-3
0
1
0
-1
-2
3
10
-1
-3
-3
-2
-4
3
3
-6
-3
-1
-2
-2
5
0
-7
-7
-2
-3
0
1
-2
-3
-7
-13
-6
-2
2
-2
-2
0
0
0
3
0
1
-1
3
6
0
18
9
3
1
-1
0
-5
-10
-34
-17
-5
-2
-5
-4
0
1
18
2
-2
-2
-3
-1
-1
-2
-23
0
0
-1
-5
-2
-6
-13
5
-4
-2
0
-4
-4
2
7
-4
5
4
2
1
2
-5
1
8
-1
-2
-4
0
-7
0
-6
13
1
0
-1
1
1
0
1
-45
-5
-2
-2
3
0
3
1
28
7
2
0
2
-2
-9
-4
-4
-3
-6
-5
-5
-5
-2
1
8
1
0
0
2
0
-1
2
-8
-2
-2
0
-2
-1
-3
3
7
-1
-3
-2
-2
-4
3
3
8
4
-1
-2
-1
3
3
1
-1
0
2
0
0
0
-1
2
4
-2
-1
0
1
3
-7
-7
0
-5
-2
-2
-4
-2
5
16
14
7
4
1
0
2
-5
-29
-9
-2
-3
-3
-5
-3
-2
-1
-12
-6
-1
-1
0
-2
5
8
-10
6
3
2
2
2
-2
-3
-19
-2
-3
-2
0
0
-1
3
16
-1
-1
-3
-2
-1
0
5
6
2
0
-1
-1
-2
0
-2
17
6
0
0
-2
-3
5
-5
-20
-9
-1
-2
-2
7
-8
-3
-11
0
0
1
0
-6
-1
-3
-5
-3
-2
-2
-1
0
3
10
6
5
0
-1
0
2
-1
1
8
1
-1
1
1
0
-2
0
2
-5
-3
-2
-3
1
-4
-5
7
-3
-2
-3
-2
-3
-1
-1
-6
-2
0
0
1
-1
2
-3
14
3
4
2
1
-1
-1
-3
-55
-11
-1
-1
0
1
-3
-1
25
1
-5
-2
-2
-3
2
-3
5
-2
-2
-1
-1
0
0
0
5
-2
3
1
-1
-1
2
7
18
7
7
1
0
-1
1
-2
-19
-4
-1
-3
0
-1
-5
-6
-22
-6
-4
-2
-4
0
-1
3
-9
-1
-4
-2
-2
-3
-1
-3
2
-1
-2
0
-1
1
0
1
9
1
1
0
1
2
0
-2
8
0
-1
-2
-2
-1
-11
-5
-4
-2
-1
0
-4
-8
2
5
-2
3
0
0
-1
7
15
3
-12
1
-1
1
2
6
-17
0
-14
-4
-5
-3
-1
-3
9
-5
15
3
0
-1
3
-2
-2
1
-2
-3
-1
-1
0
-4
-1
1
1
1
1
1
1
-1
-2
-6
-2
-2
0
-2
-1
1
-4
1
-4
0
-2
-1
0
-1
-21
2
15
2
-3
0
2
-21
35
-1
-11
1
1
-3
-2
20
20
2
1
-2
-1
-2
-3
16
-14
2
-5
0
-2
-3
0
-10
0
-2
17
5
0
0
1
4
-10
-3
-4
-4
1
2
-1
-11
0
1
0
1
-1
1
1
-7
23
-5
19
2
-3
-3
1
4
-34
-4
-28
-9
-3
-2
-1
18
-17
0
2
-1
-1
-3
-4
-12
8
-4
-5
-6
-1
-1
-1
-2
-9
0
3
3
3
4
0
-7
-3
3
6
-2
-4
-2
-1
1
16
-9
-6
-1
0
-2
-3
-9
-12
12
4
2
2
3
3
2
16
1
-8
-3
-5
-1
0
10
5
-3
2
1
-1
0
1
-10
-9
6
-5
-2
-7
-1
2
8
-5
-6
2
1
-1
-1
1
-4
0
-8
-12
1
3
0
-2
0
20
3
-3
-15
-4
-3
-2
-7
-15
-3
7
17
11
4
1
-4
-4
-12
-10
-2
-6
-4
-2
-6
9
18
1
-2
-4
-2
1
2
29
-1
11
3
-1
-2
-1
22
-85
8
0
2
2
2
0
-35
52
2
1
-3
-2
-2
-4
-10
8
-21
-2
-3
-1
-2
-3
12
-28
3
3
-3
-6
-3
-5
-2
13
0
-1
-6
-4
-2
-11
-2
17
4
-3
0
2
1
2
-5
-12
7
2
-1
-2
-3
-5
-35
-51
-14
0
-6
-4
-1
-7
-13
-20
0
0
-5
0
0
4
5
-1
16
6
4
1
2
-2
24
-13
4
1
2
2
0
6
6
-27
-7
3
5
4
-1
-10
-34
25
-3
-5
-3
-5
-8
-2
15
-22
-11
-2
-6
-7
-9
14
5
27
-4
-10
-9
1
10
-9
19
-8
7
1
1
4
-9
4
-23
74
1
-3
-1
0
2
34
12
-34
-22
-2
-2
4
2
-52
15
-22
-6
-4
1
-10
-11
19
-10
-17
-7
-8
-3
7
2
3
-19
-5
-6
-1
-3
-10
7
25
27
17
8
-1
-4
-6
-3
10
14
-88
-6
-2
0
-29
-7
-17
-5
48
23
8
4
41
-5
26
-24
0
-10
-9
-8
-27
-23
-70
-46
-40
4
4
12
49
49
44
-10
-38
-1
2
3
37
23
-19
-7
-13
-5
-5
1
-32
-14
-27
67
22
21
1
-7
-10
-17
75
-20
-13
-3
-6
-11
-35
-45
-76
-27
88
-2
-5
-8
-21
13
14
27
-55
-4
0
0
-3
15
-6
-67
-12
-13
0
7
11
-32
-56
20
-66
3
0
9
26
15
21
-29
44
-13
-1
-11
-3
4
10
-23
48
5
7
-3
-45
-18
27
3
14
10
6
-8
-12
1
29
25
55
-14
-1
6
18
-1
-86
23
90
-1
4
10
-12
-5
68
14
-15
-7
8
16
81
72
5
10
-32
-10
-6
0
38
13
33
9
-64
-19
-9
-2
-44
-38
-33
-10
-74
-8
18
-5
6
-22
-35
-10
36
4
2
-4
-34
-12
31
-11
-37
1
5
-6
-38
23
-8
-31
0
-11
-3
-1
9
-55
-53
35
-45
-13
-9
5
21
37
36
26
-35
26
12
8
5
-3
-18
3
-57
-45
-15
-2
51
28
-2
-25
127
22
-2
-12
-68
0
72
43
-3
23
1
10
13
-5
18
15
32
-29
-17
-12
43
-6
-74
-11
1
-1
9
4
-39
-1
17
3
-9
4
3
-3
-9
-26
-53
-1
35
17
-5
-16
-41
-3
22
-14
-19
-19
-7
4
-20
-28
-40
-22
-28
7
12
11
38
37
-41
21
-63
-1
-1
2
60
58
121
-13
28
10
-9
10
24
7
-61
-33
99
5
20
11
1
1
25
-3
4
17
-4
-5
-23
-54
-17
30
16
-14
-1
-8
-39
42
64
-5
45
21
-8
-32
-38
-7
-2
-10
-11
11
-8
-12
-98
-54
-21
27
-6
-2
-4
28
94
53
34
-41
61
8
4
13
-3
-27
-54
-44
-45
1
4
15
15
19
-38
11
-25
3
6
-2
4
12
74
23
-38
5
10
-12
-37
-34
-42
-44
41
-22
-16
-19
-23
-34
-45
-11
-9
1
-4
-7
-21
-12
-22
-31
-15
4
-10
2
14
2
18
7
-30
15
-4
-12
-10
1
-5
0
-16
5
8
5
3
42
84
-34
-45
-15
-9
2
0
-22
-21
6
-127
-19
1
4
40
34
-33
-51
105
-3
2
-11
-45
-25
-4
22
-48
-13
-21
-2
12
-13
-13
-23
8
6
8
19
52
2
40
-3
9
-3
-1
-3
5
-7
-55
33
1
12
0
10
-11
15
65
6
11
-4
7
-11
-36
-7
-69
44
-76
-33
-4
-11
-2
17
-16
-39
58
-1
0
3
16
7
105
15
6
-3
-22
-11
-23
-17
-64
15
7
3
6
3
9
-9
11
31
-5
15
18
14
20
-12
26
36
120
4
-16
-6
-18
18
60
54
-4
-11
14
1
-1
3
-28
50
-86
19
5
4
20
4
41
4
38
-30
-16
-9
-6
-19
-43
-9
-15
-9
-3
-5
-22
1
20
-2
20
-18
10
5
13
5
21
12
-9
23
-7
8
21
5
-39
1
52
8
-3
-21
-32
-20
39
41
-15
-2
-5
-3
-1
6
-15
35
-64
8
0
-1
12
13
47
-65
70
13
19
3
-3
-10
-53
-23
-44
-18
3
2
-7
-9
17
-22
28
15
-7
-3
1
-9
44
2
11
-28
-9
-5
-12
12
-11
-67
29
4
-26
-22
-22
4
10
-31
0
7
8
18
41
1
-91
16
-2
3
5
4
2
28
67
35
-16
17
4
1
0
-19
-103
1
-21
5
22
-4
-6
22
104
-27
-9
6
-15
-4
-26
-9
36
-4
61
-5
5
1
13
-16
-49
38
-12
7
-9
-1
-24
-7
20
2
-9
-32
4
7
23
11
14
27
-14
25
4
-1
-3
-7
-22
6
-68
-5
-11
-4
-9
-10
-21
-88
53
-9
16
0
0
-17
7
1
16
3
-4
-16
-14
-7
21
-10
13
-19
-4
-2
-34
4
-78
32
-34
16
11
8
34
-4
-6
-17
22
-3
-9
14
33
19
57
37
-39
15
2
6
-12
-25
4
-20
49
-17
-3
-16
3
26
11
5
30
-1
3
0
-8
12
-16
-13
102
14
-25
-4
-6
-9
-27
40
-6
0
-7
3
10
6
20
-7
1
-4
-14
-9
-16
-11
12
0
41
0
-4
-7
-29
-26
-39
-4
41
-7
-1
-5
7
2
-33
-17
6
-2
9
-1
-7
7
-39
18
23
5
-19
9
22
36
97
55
2
25
23
11
8
-13
-66
-4
-34
-14
-29
-13
4
-21
7
-1
8
7
1
6
-2
16
3
-32
-4
-5
11
12
32
14
24
-3
-29
-6
12
2
-17
-10
-1
47
-13
18
7
2
-24
-16
-47
3
-49
12
14
-4
-9
-5
-20
54
0
-19
-9
-6
6
-8
-12
-52
-2
-9
-18
-5
-6
-8
20
-3
31
7
4
4
-5
3
-49
11
-38
-14
0
2
5
20
63
-9
-17
-1
5
-4
-21
-30
-56
-9
9
2
-1
-2
15
25
-18
2
-42
4
-2
-5
-9
4
-23
5
-9
-24
0
10
10
-6
-10
6
-67
-1
3
7
35
-5
39
-13
28
2
-9
8
14
10
-1
6
17
9
17
4
2
5
49
-11
58
-13
-11
-5
-14
-1
4
17
-5
-4
2
-12
-28
-22
-35
-6
4
-14
-9
-15
-25
-11
-22
-36
-12
5
13
-1
3
-1
-13
0
-12
-7
-9
4
18
-4
-34
8
21
20
5
-2
-2
-9
17
-7
17
-11
-24
-10
-20
13
4
0
-13
-35
-8
5
25
4
66
15
-39
17
12
-1
15
15
-30
-13
6
-16
-17
-4
-24
-10
-33
21
-63
-11
5
0
-1
-12
24
-48
4
1
-1
-4
-18
13
15
-23
4
2
-3
-3
23
-2
-25
10
-10
13
16
5
5
0
-13
-3
5
-1
3
1
-9
-7
15
-11
-37
7
1
1
6
-6
-3
32
4
-37
-24
-6
-20
-2
19
3
19
13
2
-5
-15
6
17
-7
-35
-6
15
-2
5
-33
-76
18
-22
5
2
-5
1
36
34
-1
55
12
6
13
19
7
63
10
-35
11
4
1
1
-8
-7
-12
-13
-41
21
6
-1
-2
-46
2
-11
12
-37
-12
-17
-20
-23
-8
-51
-4
-6
-14
-35
-12
2
11
49
-6
-19
1
38
36
3
3
-38
3
-3
0
2
-7
-8
-27
4
0
13
4
-19
-5
-38
4
96
15
-1
1
22
1
-25
19
-6
-4
-6
3
-3
1
9
-11
60
1
-8
-7
-4
2
44
11
7
-9
4
-4
-2
-12
-10
24
-54
14
-6
2
-8
2
-24
-17
3
-9
11
4
-1
-1
-75
4
-17
17
-2
-1
8
10
16
-2
-18
-17
2
-8
-28
-7
23
-31
12
1
4
6
23
-7
-52
-15
-14
7
-5
7
6
1
-11
-51
-49
-18
-12
-7
-8
3
-24
-19
-22
-1
2
-1
7
-3
9
-5
17
5
5
-4
-2
-7
19
-17
-30
-18
-11
0
-29
-18
-21
4
44
12
11
4
15
14
48
21
31
0
-7
0
20
13
-1
-13
-45
-7
-4
-1
-16
-19
-41
-45
31
-6
12
1
8
7
31
22
25
3
-29
-3
-2
-2
-25
39
24
5
17
-2
5
15
11
0
-38
-18
-3
-2
-20
-26
-25
17
35
16
0
-3
-9
14
41
5
-36
-5
4
1
17
-1
-13
-13
8
-9
1
-4
-19
-15
-22
-18
9
3
5
12
40
25
42
-1
55
-6
6
1
-5
-9
10
11
-5
10
4
0
-10
-4
32
14
-19
2
-8
0
3
-13
-32
-1
30
-1
-2
-9
-18
5
28
-27
-84
-8
-4
-2
-1
-13
-37
-34
-31
11
1
-4
-2
16
-11
-16
41
-13
-9
3
5
-20
6
33
-30
8
-5
-5
-5
13
28
-21
-10
13
-1
2
11
-7
12
20
-10
-26
9
-1
-20
-8
5
-9
-32
5
-13
-3
3
-6
15
5
52
-13
0
-3
-4
13
-17
56
-51
-9
-2
3
10
0
-14
-10
-6
-1
-18
-7
-10
-13
-24
-16
5
4
13
-3
-18
13
22
31
-12
6
-19
-1
21
-11
-13
8
-66
-4
1
-1
18
22
7
-13
20
4
7
12
13
0
6
18
-13
-1
-8
1
-7
-10
-6
-12
36
8
7
-2
-20
-9
-1
8
5
0
9
-7
-15
1
56
19
18
4
-6
-7
0
-11
5
7
-39
8
12
4
4
22
6
-39
-19
7
-1
0
-1
-8
-60
-18
-26
-17
-5
1
0
-4
22
-3
-1
6
2
0
7
8
6
-7
2
-26
3
4
-1
-9
-17
-19
16
6
-1
0
7
-3
-13
19
63
10
6
-5
-10
-12
-9
27
24
-9
-14
-8
-21
-3
-34
34
8
9
-1
8
27
17
27
24
31
-10
-7
-4
-4
-8
24
-8
19
5
10
1
1
-2
-17
-9
45
9
3
6
6
4
40
0
-29
-12
-12
-7
-3
-6
27
21
-62
-2
5
0
-10
-13
-46
-7
8
13
4
-1
-10
11
11
-51
0
2
4
-3
1
0
-18
-1
-22
-3
-10
-5
4
-3
-17
-22
41
-1
2
0
-11
0
24
22
-13
-2
-4
-6
1
-10
-20
-14
4
-1
-6
5
6
0
10
-9
-40
-13
-9
-3
-3
-3
-3
-19
14
0
-4
-1
6
7
-20
-9
13
13
0
-4
-9
-12
-4
29
-30
-9
0
-2
-7
12
22
-34
23
13
12
1
-11
-19
-37
9
15
1
-1
4
24
24
47
11
-37
4
-3
4
5
6
27
7
30
-1
7
-3
-6
-17
-34
-4
-8
-2
-5
-4
-10
6
-10
38
-19
4
13
3
2
-4
-1
-14
30
-13
-11
3
6
-1
21
10
13
14
1
-4
-7
-6
7
13
-50
4
6
2
3
1
-17
-4
4
-3
2
-6
-11
-23
-12
-15
-1
-2
-3
-2
-2
17
32
15
-29
2
4
3
-1
-6
7
-10
5
-10
-7
0
9
15
30
-21
-60
-13
-9
-6
-5
-2
6
-56
42
6
1
-2
-8
-11
-37
3
-18
-7
-4
-3
6
8
16
19
83
1
-14
2
11
-3
6
4
18
1
2
-6
-10
-3
16
-11
-10
-5
-17
2
-4
3
-32
-16
10
14
8
1
7
4
5
5
10
11
10
-2
0
-16
-22
1
52
5
0
4
2
29
32
20
-4
4
-4
-13
-17
-15
-31
14
-7
8
0
9
18
1
44
10
-26
-15
-4
-2
-10
2
-7
-28
-9
-1
1
3
-1
4
-7
3
40
5
5
2
20
-3
1
-9
-6
-7
-9
-13
-23
-3
-15
17
63
-7
-11
2
16
-7
-33
-3
0
0
-2
3
-8
-8
-2
9
5
-12
-12
-8
-6
10
24
46
32
-2
5
0
-8
-21
-56
-8
23
20
10
6
3
7
17
-12
-43
-16
1
-1
3
16
68
9
-93
-8
-2
3
-2
-8
-2
-15
-41
0
-10
-2
4
1
-53
-7
-9
-6
4
-6
-10
-9
14
6
-3
19
4
3
4
2
-18
24
41
3
8
-9
-18
-14
-44
10
3
-9
12
3
-1
7
-12
-51
-20
-7
-21
-8
16
-14
-8
1
2
0
6
-2
1
3
-52
4
8
-1
-6
-1
-5
7
69
-6
11
9
5
4
-6
-20
-8
20
93
6
26
3
-5
1
28
54
-21
-7
-6
-3
3
33
21
7
-20
5
1
12
17
-9
-49
-25
-42
-8
0
3
7
13
52
2
-32
-13
3
0
-3
-3
-4
-3
-8
-8
-11
-10
-21
-18
4
3
43
-2
5
2
-8
0
10
-16
-19
-5
-10
-3
7
-17
-39
-34
-36
7
-8
-1
-7
21
-13
2
-23
-1
1
2
5
-13
25
23
-32
-20
-19
-9
2
10
1
-13
15
-4
-6
1
-11
-2
-30
1
4
5
1
3
9
-19
-4
-21
-35
5
9
5
5
15
-5
-9
48
26
8
1
0
-11
6
-22
-17
-29
-13
-7
-20
7
-6
1
-30
-7
5
1
18
9
19
22
12
9
6
8
4
-21
-37
-7
25
-2
5
2
10
9
37
2
25
2
-11
-2
-9
2
45
19
24
11
10
3
-18
-10
-19
-1
22
5
-6
-3
10
-7
-4
-16
24
-8
7
2
-14
7
5
17
-73
8
9
2
28
12
12
-2
-20
-10
-5
-2
1
1
-19
18
18
-9
-22
-8
-16
-13
4
3
5
4
-1
-5
-7
-7
-24
5
34
15
6
-4
-11
2
0
1
-12
-14
3
-3
4
9
20
-18
-24
-9
-38
-12
-9
-13
-44
21
-51
2
5
5
1
-7
34
-10
6
-2
-14
0
15
19
17
5
13
17
12
-1
1
-19
-39
-2
-9
-7
5
-5
-21
8
61
-2
30
-15
-8
1
16
9
-70
-39
21
5
9
3
5
5
62
4
52
-1
-14
0
-9
-1
-21
-8
3
-5
7
0
4
-2
-16
-28
-4
5
4
-1
-3
-12
-32
27
-4
4
4
-3
-3
-7
2
0
-32
-10
-4
-7
-20
0
-16
-18
5
0
4
4
17
-24
-67
5
-40
1
6
0
3
27
57
1
-14
-4
-23
-11
-16
-11
-32
3
5
-10
2
6
6
1
6
9
-10
-14
-8
-3
-18
1
-4
-2
-26
7
-1
-5
11
-12
-9
1
50
1
-2
0
-4
-5
-19
30
-50
-12
-1
1
-2
14
33
-26
-16
4
7
3
14
-2
-24
-11
-30
-9
-8
-1
-9
5
42
-9
60
11
4
-2
-8
18
34
-1
10
11
-6
0
6
-5
4
8
7
3
-2
1
4
12
-14
-4
19
-15
-4
-1
-9
-25
-30
1
-2
-4
-2
-1
0
-4
10
-3
-48
2
-17
-5
-3
-1
-1
-7
78
-5
2
-2
-4
-2
44
4
6
3
-2
0
-11
0
0
10
-32
-9
-1
-3
2
-22
-24
-3
0
6
6
1
2
25
53
-19
51
15
10
5
13
-6
-9
3
-16
-6
-8
4
2
6
-3
19
-9
-17
1
0
-5
-6
35
-40
0
-5
-4
-7
-9
-2
-34
-6
44
22
12
-1
-7
-7
-3
23
-20
-4
-15
-2
1
6
-10
-6
34
2
2
-3
1
0
-33
21
9
5
1
2
0
-7
20
11
-22
2
5
1
-3
-3
48
-5
8
-12
-4
-3
-2
5
-45
15
-13
-1
-13
-2
6
2
8
27
-21
9
7
-1
1
-4
-60
-20
13
11
9
2
0
13
65
4
-54
-25
1
-5
-7
-12
19
1
7
-2
10
4
3
1
-10
12
11
0
-2
1
0
4
21
6
-14
-7
-11
-4
-7
-1
1
-4
46
14
-1
0
4
-7
-2
3
-34
-8
-1
2
1
1
-4
-15
11
-1
11
3
-3
-7
-5
-21
-23
5
6
-2
-2
-9
-30
-12
18
10
-8
-4
-1
2
63
4
-15
-6
11
3
7
18
-36
-5
44
-1
15
-2
-3
-7
-2
9
-17
3
-22
-5
-4
6
-21
-7
0
-3
3
1
0
-5
-9
-13
-20
3
2
4
1
-5
-51
-37
-11
4
-10
-5
-2
0
39
7
-6
-6
-2
1
0
8
10
-24
-28
-5
5
-2
0
-8
-28
-9
-7
6
0
-1
-10
-8
-4
-11
19
-13
-12
0
5
2
-10
19
-14
-11
2
-1
3
-2
2
-1
29
17
3
4
-1
1
6
-1
15
-3
0
0
-1
-9
-16
-8
-65
-16
-6
-6
-6
2
59
5
-42
-2
3
2
-1
1
-41
7
-8
4
0
-4
-4
-2
-15
-12
-3
-6
7
2
1
-1
0
12
4
3
-6
3
2
2
2
7
-33
-10
-16
-6
-4
-11
-24
-11
-6
-1
17
1
-2
8
21
2
-5
0
-21
-3
1
3
8
-1
2
4
5
-2
0
-2
1
-11
2
-4
-2
1
-1
-3
4
-4
24
-6
-6
-4
-1
1
-18
-3
17
0
2
-4
-1
-4
0
8
8
-3
-3
1
0
-1
-9
5
2
1
12
4
0
3
2
6
0
-3
-11
-2
-1
-4
-7
1
-2
0
3
1
-2
3
17
4
2
3
-10
-2
1
2
-17
-8
0
-1
-3
-7
-7
-10
-8
0
-8
4
2
1
1
7
3
-4
-2
-1
-4
-3
1
5
21
-2
-17
3
6
2
-1
2
11
-5
16
-3
-1
2
0
-3
-30
4
-6
-3
4
-4
-4
-4
-5
-5
-7
-5
2
1
3
0
-5
3
6
3
-1
-2
-2
-5
-15
3
-1
-5
-1
0
-2
7
27
0
-5
-1
0
1
-2
-2
-7
3
1
3
1
-1
-2
-2
4
-3
7
0
-1
2
0
-2
-5
2
-1
-2
-4
0
-1
-3
7
-2
3
-3
2
0
0
-3
5
-1
-2
0
-4
1
-1
-2
2
4
3
0
-3
-2
1
0
-14
-10
1
-3
-5
-1
0
4
15
3
1
5
5
1
-1
-1
11
4
-4
-1
-1
-3
-2
-3
-5
-2
1
-6
2
-3
-2
-6
-3
2
-3
-8
1
-1
2
0
4
-2
-2
0
3
1
3
-1
0
0
3
-3
-9
-2
0
-2
3
-6
0
5
4
-1
-1
1
0
7
3
1
-1
-1
-2
-1
-1
5
-2
1
-6
-1
-1
3
1
3
7
-2
5
1
-1
2
-2
12
0
-1
1
-4
-3
1
-3
-5
12
-1
-7
-1
-3
0
2
0
-1
2
2
0
0
-1
-6
0
-4
0
4
-2
0
2
5
3
-1
-2
3
2
0
1
0
-2
1
0
-2
0
-2
-2
-3
1
2
-4
1
-3
-1
-3
-2
-3
-7
2
-13
-4
-3
-5
-2
-8
3
0
5
0
1
1
3
5
-4
3
12
2
0
0
0
-1
-1
4
30
2
1
-1
0
1
-4
-1
-22
-7
-4
-1
-1
-2
1
-1
3
2
-2
-2
-1
1
-2
-1
8
-3
-2
-1
-1
2
-2
-1
-26
1
0
0
0
-1
-1
0
9
-1
-3
-2
-1
-2
2
0
6
1
1
-3
-3
-1
-1
1
-3
-4
1
0
2
-2
0
0
-13
-5
3
0
-4
0
-4
-5
-4
4
2
-2
-3
-4
1
-4
14
-5
-1
-2
-2
2
-5
-3
11
0
-5
-3
0
-1
-3
-3
-6
2
-4
-2
0
-1
0
1
2
-2
3
0
1
3
3
2
14
5
0
2
3
1
-5
-9
0
-2
-2
-5
-3
-4
0
-1
0
1
-6
-3
-2
-3
-4
-5
4
-8
-4
-2
-2
-3
2
3
8
-10
0
0
-2
0
0
0
-38
-7
0
0
-1
0
-2
-5
-12
-2
-2
-2
-4
-1
0
7
29
8
4
4
2
1
1
-1
-28
6
0
1
0
2
-4
-6
-25
-9
3
0
-3
-1
1
3
23
8
-1
-1
1
0
0
-1
1
1
0
0
0
0
-1
2
-10
15
2
1
-1
-1
-3
-3
-7
3
4
1
1
-2
0
6
3
-3
0
-2
-1
-1
-6
-11
14
-8
-6
-5
-3
-4
-1
-1
-12
-12
-6
-2
0
0
-5
-5
-10
2
-5
-2
-3
-2
2
9
1
-1
2
1
1
0
-2
-5
-7
7
2
-2
0
-3
2
-4
-22
-3
7
-2
-1
0
-3
5
43
11
-7
-7
-4
-3
-4
-11
-33
-9
0
1
1
-4
3
6
-6
11
-3
0
2
1
-5
-9
14
-22
-4
0
0
-3
1
3
28
4
-1
1
-1
-1
0
-6
-29
-4
2
0
0
0
6
12
0
7
3
1
-1
1
-4
-2
-8
-7
-4
-2
-1
-3
-7
-21
-33
-32
-7
-4
-7
-6
1
2
44
11
-4
0
-1
1
-2
-6
-5
-13
3
0
-1
-1
9
22
22
10
-1
-1
-2
4
3
5
42
14
6
2
5
3
-8
-10
-29
-19
-8
-7
-5
-4
-7
-19
-9
-4
-8
-3
-3
-5
2
4
-15
3
-2
-1
-1
2
1
8
11
-11
-1
0
-3
-1
6
5
5
9
7
3
6
5
0
6
28
-1
-2
0
-1
-2
-2
-3
-7
1
-5
-1
-1
-6
5
5
-1
12
2
1
-2
3
3
-2
28
-5
-6
-2
0
1
-2
-2
-32
7
8
3
1
-2
-4
-7
-23
-9
-4
-2
-3
-2
-3
-2
-4
2
0
-2
-2
-2
0
-4
-15
-3
-3
-1
-3
0
2
11
15
4
2
0
0
0
2
-5
7
0
-3
-2
-1
-2
-14
-4
-18
-2
1
1
1
-1
2
9
-4
4
1
-1
-1
6
-6
-10
-5
-7
-4
-2
-2
0
-9
-1
4
2
-2
-2
0
0
21
0
-8
1
-1
0
-2
13
-8
1
6
0
-1
-1
-2
-9
-1
6
10
0
0
-1
1
16
-1
-3
-2
-1
0
0
0
-4
-1
-5
-10
6
-1
0
2
-1
-4
-4
4
-2
4
-1
-3
-4
7
1
-17
-7
-4
-2
0
-1
-6
0
20
6
-1
-1
0
-1
-1
6
-2
-5
-1
-3
0
-4
0
-7
-19
0
-1
2
1
-2
-5
-3
10
-2
-3
-1
-1
-6
2
-4
0
-3
-1
0
-2
1
-2
0
-4
2
-2
0
0
-9
4
8
-4
4
5
4
4
2
-2
-8
-28
-1
3
0
-1
-2
0
-3
22
1
-2
0
-1
0
-2
-6
16
-1
-3
-2
-2
-1
-1
1
-4
0
-4
-4
-1
-4
-4
-3
22
4
1
1
-2
3
-2
-4
-7
0
2
-1
-1
-1
-1
4
-22
-6
2
1
2
-1
1
1
16
0
0
0
-1
0
-5
-4
-25
-7
-5
-3
0
-4
5
1
2
-1
2
1
3
1
-2
2
5
1
-1
0
0
1
-6
-8
-7
-7
-3
0
-2
-3
5
2
-1
-3
-3
-2
0
-1
-1
1
-4
4
0
-3
-3
3
-4
2
-7
5
4
2
1
-9
4
8
19
1
1
-3
-3
1
-3
-8
1
0
-3
1
-1
-2
-3
-4
11
-2
-3
-1
-5
-3
0
-1
-9
-5
-1
0
0
1
-4
-6
-7
3
-2
-2
-1
-1
3
6
9
5
-3
0
0
-1
-2
0
1
-4
2
-1
0
-1
1
0
-3
17
1
-1
-1
-1
-5
-6
-11
-35
-4
-1
-1
-3
7
1
-4
0
-1
-2
-2
2
-6
-5
-13
-1
-4
1
0
-6
-12
1
11
-2
0
-1
1
-1
20
1
-1
8
-2
-2
-2
3
10
1
-9
-3
0
-2
-3
-4
5
-1
-7
-3
0
1
2
2
1
3
15
3
-1
0
-2
0
-10
-7
-3
5
-2
-1
-2
-5
-4
-3
-3
-7
-3
-1
-2
8
12
10
20
11
4
0
1
0
-22
-26
-31
-24
-6
-4
-3
-4
-3
-1
2
4
-3
0
-1
0
-3
5
-8
-1
0
0
0
-6
-4
2
7
4
-2
-1
-1
5
6
0
-2
-2
-1
-1
-2
1
-1
1
7
3
3
1
0
3
-6
0
-21
0
1
-2
-1
-6
2
1
8
-1
-1
-2
-2
-2
6
-3
3
-6
-5
-2
1
1
-6
0
-14
1
1
1
-1
-2
-2
0
6
3
1
2
-1
1
-3
-1
-5
-5
-1
2
-1
0
-3
-1
8
0
-1
0
-1
-4
8
1
-1
0
-4
-1
2
1
-3
-5
20
1
2
0
-1
1
-12
-7
-12
-6
-2
-1
-3
-9
2
1
11
3
0
0
1
1
-11
-3
-33
-9
-1
-2
-2
-8
-2
0
23
1
-4
-1
0
5
0
-3
-9
-3
-2
-2
-2
0
5
6
2
5
3
1
1
1
-1
-1
-2
4
0
-2
-1
0
2
2
0
-1
-1
0
-1
-4
-7
-10
-26
-3
-2
-1
1
-3
-2
1
-9
-1
-2
-2
-3
-2
1
-4
8
-2
-1
0
0
0
-3
-1
-10
-2
-1
-2
-2
-6
1
5
37
10
0
0
0
3
-1
-2
-34
-10
-2
-1
-1
0
1
0
12
0
-1
0
-2
-1
-2
-2
-2
0
1
0
-1
-2
-3
-2
-12
-2
-2
-2
-1
0
5
1
14
1
-1
-3
-1
-1
-3
-1
15
-1
1
-1
-2
0
-1
-2
-21
-5
-1
-1
1
-4
-2
-2
2
1
0
-1
0
-2
0
3
8
-1
-1
-2
0
1
-1
-6
-2
-1
-2
-4
-4
1
-2
-1
4
1
-1
0
1
1
3
-1
-11
-2
-1
-3
-4
1
0
1
4
0
1
3
0
-1
0
4
6
0
1
0
0
-1
1
-2
-3
-1
-3
-1
-1
1
1
1
-8
0
1
-1
2
-1
-3
-1
3
-1
1
1
-1
1
0
3
-8
-1
-3
-1
0
-1
-4
-3
-6
-4
1
1
0
-4
0
6
-5
1
2
1
0
-2
3
4
4
2
0
1
1
4
-1
-2
13
-2
-2
-3
-3
-1
-9
3
1
0
-1
-2
-3
-2
0
-6
-4
-8
-6
-4
-4
0
14
0
-2
0
1
-2
1
2
-4
-2
-5
0
2
0
1
-10
-1
2
2
-1
-1
1
1
8
-5
-12
-2
-1
1
-1
-1
-4
-19
3
1
-1
-1
0
1
11
21
1
5
2
-2
0
1
4
-34
0
2
1
2
2
-1
-8
22
-2
-10
-3
-3
0
-4
1
3
-2
-3
0
0
-1
-1
0
10
3
7
2
2
4
2
11
6
0
-1
0
3
1
3
-10
-16
-3
-4
0
-3
-3
-5
-4
14
6
2
-2
-3
1
0
-2
-7
-1
-5
1
-2
-4
-3
1
2
-13
-5
-3
-5
-4
1
14
-11
7
-1
-1
0
-2
-4
-29
27
11
4
-1
-1
-1
-11
6
-7
-3
-5
-3
-1
0
5
-32
52
-12
-1
0
-1
2
8
31
-48
14
3
3
3
3
7
-3
9
-12
-6
-7
-6
-3
1
-12
-13
14
3
2
2
0
-6
15
-2
-8
-4
-7
-5
-4
-5
-20
-11
10
3
9
11
4
6
-18
16
5
5
5
3
-3
1
-21
27
-30
-17
-9
-9
-2
-1
7
-49
22
1
-7
-10
-5
19
-24
95
-31
-6
-4
-9
-9
-31
7
-45
-7
-4
-3
-9
-1
7
-53
32
10
10
7
16
7
11
2
22
-25
-1
7
18
-2
-51
3
-26
-1
-12
-18
-26
5
55
80
44
13
-4
3
-5
-7
-8
5
-100
55
2
5
19
-6
20
-83
127
-17
3
9
11
13
-24
66
-74
4
10
-2
2
-12
-86
39
-78
-9
-2
-6
-43
-21
28
-1
-55
-22
-2
-5
4
4
24
-9
-86
11
4
10
4
12
8
-29
-66
-11
-8
-4
19
-5
2
-49
-35
-12
10
6
42
39
-45
-25
102
-6
-1
-4
0
-2
-7
-23
-41
9
0
-12
-50
-41
-26
-4
52
-22
-9
-10
-65
13
26
-22
26
-6
-10
2
70
-10
12
20
2
7
-2
1
0
37
20
18
82
-1
25
11
33
-36
-22
-16
45
25
3
9
-38
-18
11
4
6
3
-13
-6
-6
-27
15
42
-47
-13
-12
-17
-43
2
-73
9
43
-9
15
10
51
-14
68
-15
-107
-22
-47
-23
-49
-5
-12
33
40
0
13
16
43
50
66
2
-20
-20
-11
9
24
-11
-81
32
-116
-10
3
-7
-15
11
-33
51
-63
10
29
2
19
-8
84
-18
-72
4
0
-19
-83
5
-1
18
101
29
9
9
5
-22
-37
33
41
-5
-16
9
25
-6
-6
-9
23
-4
8
22
73
44
34
46
-49
-4
-1
-18
-45
-10
-18
6
65
38
17
-6
-71
-83
-1
66
72
13
-14
-4
26
76
-9
18
36
-1
-10
-2
35
-26
-7
-3
-28
-23
-15
-4
-36
20
41
-15
28
14
8
12
74
13
15
14
-13
5
1
0
4
-12
1
-18
100
36
4
6
-23
-16
-30
37
113
4
16
0
5
-24
-27
-36
32
-9
-1
-12
-38
21
24
-10
12
-8
-24
-10
-26
9
-14
5
10
16
16
9
30
18
36
-38
5
7
-3
-14
-54
-39
-73
-3
-67
-30
-3
14
49
27
14
-20
70
11
-4
-4
-6
5
93
31
-9
-25
-19
1
-48
19
-32
-21
-60
-11
28
19
117
34
-11
-37
-65
18
-5
-4
-25
1
-41
-63
-56
-13
0
-11
-26
-45
-1
-55
127
26
2
-20
-81
-20
-5
45
-24
-5
-11
-4
-5
-51
-27
11
-53
-15
0
7
55
42
58
23
-69
25
3
13
15
-4
-38
-6
-59
4
20
1
29
37
29
-22
9
2
-39
-24
-100
-42
-21
-6
36
-22
-9
10
17
9
15
-32
-69
-7
8
8
41
6
-44
12
-19
11
6
6
15
25
30
-2
30
-24
5
4
8
30
-25
39
45
-9
-32
-25
-50
-40
-22
34
-7
-15
-6
-16
-81
6
16
52
30
1
-7
5
45
12
48
-11
72
20
15
23
76
18
20
15
-69
-7
12
0
-36
-11
16
-13
-30
4
4
-13
-19
29
4
-30
-43
-22
-20
5
39
-53
10
-47
-21
-9
-4
0
-34
-22
20
-14
-25
11
27
11
33
64
36
3
-22
-5
-8
-15
-19
-53
-23
29
40
15
-14
-12
-52
-2
-73
11
13
1
15
10
48
19
29
-25
13
-35
-25
-1
14
-13
-28
-21
-12
10
13
0
-20
-21
-17
-15
-15
-47
-10
-13
-8
10
-6
37
32
8
3
3
-6
-12
11
58
72
22
10
-10
-36
-3
5
17
118
27
-2
19
57
23
45
28
-80
-15
4
14
39
-13
-70
-20
-31
10
9
2
-2
19
-12
8
-11
-9
-22
-15
-31
-32
50
22
-75
9
-5
-29
-98
7
-50
-66
28
-4
-2
1
59
6
52
-9
-16
14
-5
11
13
-12
-1
12
-55
7
-12
3
9
42
-41
-15
-9
-42
1
9
51
-2
-28
-13
66
3
15
-12
-37
-13
-5
36
-30
17
6
-8
-25
-6
-42
-1
-42
-3
3
-7
9
-19
72
22
25
2
14
6
-14
6
19
-24
1
-7
-6
-2
-10
-14
-34
-10
-9
4
-9
-4
5
20
37
22
29
12
-13
-6
-10
-18
-63
1
-44
3
-8
-8
-13
13
76
12
20
3
9
13
51
18
-9
-16
-38
-9
-3
9
9
-7
31
19
-55
-13
12
-3
-13
-28
-73
0
-81
2
-19
-11
-33
-2
37
22
-59
-13
0
1
-13
1
-61
-13
-19
-32
-2
-11
-5
19
-7
-61
43
-18
-48
8
36
5
11
10
42
8
-3
1
10
-19
-48
8
-35
0
12
-9
-32
-10
6
7
58
9
-11
-8
-13
-14
-72
10
-16
-6
20
11
14
15
81
31
18
2
-7
5
6
-26
13
-18
28
20
1
2
7
22
7
40
46
-26
7
-9
-11
9
26
-6
-26
1
-7
-7
-11
-27
-53
-58
14
-5
4
-2
-18
-24
-15
7
-23
8
-6
7
54
30
34
0
3
-11
-7
4
7
7
-29
-23
-22
-4
2
-5
-30
-11
32
-15
27
5
3
7
5
9
14
27
-72
3
2
-8
-23
-17
-35
-16
-54
7
-7
-2
11
3
15
-22
35
-1
8
-2
9
10
-7
-26
18
3
6
1
8
10
-17
-3
3
1
1
0
-33
-27
17
4
8
18
0
2
19
18
18
-10
10
-3
12
-9
-23
-10
-5
46
1
-3
-27
4
9
6
27
-13
-44
-2
-13
4
14
-9
-13
-58
18
10
8
-8
-11
-11
2
36
31
-3
6
3
-4
2
-17
10
-10
-5
8
1
24
15
-23
-18
37
-5
-3
-3
-40
-11
37
-32
-9
-1
-6
0
3
-1
5
-6
15
8
7
4
35
6
9
7
-3
-1
-4
-3
-11
9
-14
1
-2
-22
-1
-3
2
-6
-75
21
19
0
10
2
-9
-19
-43
-7
8
4
-13
-7
-23
6
49
8
44
3
-8
7
6
7
22
39
-5
-1
-11
-7
7
-12
19
-19
-8
-1
3
3
-2
13
-6
6
-12
-6
7
-1
24
3
-79
-18
3
3
3
1
-17
7
74
23
11
-8
5
-3
2
3
-24
20
36
13
6
5
7
-18
61
0
-6
-22
10
-3
-9
-2
-64
-5
-84
-16
-3
-7
-5
-18
-1
-9
7
0
-10
-6
-28
8
-15
-7
-28
-6
-22
6
41
8
4
-2
-23
12
-9
-2
-18
4
13
-1
28
0
9
-2
12
-6
-73
-12
-26
1
5
0
-3
10
72
-21
38
15
2
-4
-20
-9
-58
27
-68
-13
-4
1
-5
7
31
-2
28
1
6
-4
6
-4
-19
11
39
13
0
7
29
7
31
25
-81
-16
1
1
-16
-12
-7
-11
59
19
7
-2
-6
-11
16
10
6
-15
-10
-2
-16
8
12
22
-5
2
-1
-2
29
-7
-6
38
-42
-2
0
1
-5
2
7
-7
-11
3
-8
-2
-6
-16
-46
-37
-2
7
-10
-10
-16
-4
109
8
-40
-1
14
10
-2
6
-51
-29
-19
-13
-41
-5
13
0
-11
-3
-20
11
22
6
-21
-11
-9
-5
26
2
-9
0
30
19
-23
-14
4
-6
-1
-3
-7
-2
-45
-28
12
-5
21
-2
-10
-5
102
33
-21
-9
-6
-6
-3
5
-26
-2
-24
6
0
-1
-17
-1
-21
-57
41
4
13
7
26
-18
-66
-6
-7
3
2
-5
-11
13
62
-7
17
-15
-16
-9
-24
-7
-35
-38
-5
2
12
10
36
2
32
11
7
-9
-11
-4
-8
-5
14
34
-4
13
12
-1
0
12
-28
2
-9
-2
1
-5
-3
-9
6
15
-25
6
11
9
-2
9
21
-10
-23
1
-8
-8
-4
-13
7
-3
9
-6
5
-1
-10
-1
-72
-19
-10
-3
-3
2
12
10
73
18
-54
-5
-4
-5
-2
-2
-34
15
6
3
-9
1
-5
-1
40
4
9
24
-2
-3
-20
-14
-37
28
-11
-31
18
5
15
7
-18
15
25
-14
-15
0
20
6
2
5
-4
0
-10
-2
-14
-3
13
-1
54
-10
-17
-8
1
2
-30
-16
-7
20
9
9
3
-16
-7
11
-2
6
18
0
-13
-3
-8
6
23
-2
-29
-6
-7
0
-82
-5
35
4
42
9
12
-3
10
-25
12
-1
-40
-8
-23
0
54
-12
-3
-6
-23
-12
21
-5
-37
-9
14
10
23
15
10
15
-4
-1
4
-6
-8
-2
-1
-19
-27
7
2
10
18
3
6
9
5
-3
-17
3
6
3
-16
-5
-24
-18
54
4
-1
-8
-17
-7
26
-39
-4
-5
-10
2
8
5
13
12
-9
-33
-8
-4
14
0
-5
23
17
5
9
0
-2
4
49
-19
9
-7
-4
-8
-4
-8
10
6
-18
-2
-3
-3
-10
2
-9
-6
31
14
-8
-7
-14
-8
29
-9
-17
0
9
0
-11
-7
-33
13
-21
-8
13
7
33
12
22
2
21
0
-10
0
0
0
-26
15
4
12
1
-1
3
1
38
-2
-5
4
-3
1
-1
-1
-34
-71
-20
-23
-8
-15
-21
5
91
43
31
-1
-17
-1
5
10
11
-7
-6
9
-2
-3
15
-4
-12
-4
3
-15
-7
-2
-12
-4
-21
13
13
12
10
0
-14
-11
-13
5
-28
-4
2
1
8
0
21
-4
-3
1
0
4
6
-1
-22
3
15
3
2
-2
5
12
41
-6
30
8
10
9
3
-3
-32
24
42
-1
5
-2
-6
3
-22
10
-23
9
-2
3
-3
10
50
-5
-5
-25
-23
-12
-9
-9
-26
-4
-38
2
-10
-7
-6
0
-2
-9
5
-11
0
-2
-6
-4
-3
4
46
10
10
7
16
2
-9
7
-31
0
11
5
12
5
-17
47
-24
10
6
3
-10
-7
-74
-23
10
16
-5
0
2
5
98
-13
-18
-48
-6
-5
0
-2
7
15
-14
27
16
5
-1
8
29
9
-8
-22
-10
-3
-6
0
-14
-2
-101
-18
-19
-15
-8
-6
-4
-21
6
4
4
-7
-14
-3
-15
-3
25
5
-4
3
10
-6
-2
0
-23
3
10
5
8
1
23
-17
17
15
7
3
-2
4
-15
17
-21
-7
-5
1
4
3
-9
-13
-32
-4
-5
-5
-5
-10
-10
-13
13
9
5
1
-3
1
31
-8
-10
-16
-25
1
-1
-6
-34
6
0
-6
-7
-9
-9
-7
-34
-37
52
6
5
-4
-18
-7
3
3
18
6
-2
0
7
1
21
26
32
0
3
0
5
-12
-42
23
-15
24
12
10
6
13
21
5
7
-49
-5
1
3
1
-18
-22
-1
2
4
-10
-13
-7
-17
-4
-20
20
-9
-6
-7
-6
40
-1
17
-16
-9
4
6
11
14
26
-7
2
-4
0
3
4
-7
7
-40
-7
6
0
2
0
-13
12
-8
0
6
4
0
-3
14
-15
26
13
-1
4
6
6
12
-25
-38
27
-2
-1
-3
-5
16
-21
-1
-20
-14
-4
-8
-1
-52
-9
-12
-14
7
1
5
0
-26
-21
45
3
-9
-4
-4
-6
-9
24
14
7
2
0
0
2
40
6
-3
17
3
2
1
-4
1
-11
-65
-9
7
1
4
6
3
-5
-2
9
4
-2
-6
-2
-20
-3
4
-28
-9
-2
4
-8
-22
4
27
-9
-4
0
0
8
26
-6
21
-4
4
2
1
3
25
9
-15
-11
-1
-4
2
-9
-4
1
-35
17
10
3
-8
-3
-15
-9
60
-6
-1
2
8
-6
39
31
0
24
7
0
0
16
2
9
-12
0
-15
2
0
-3
-17
-19
-5
-22
-4
-2
-3
-1
-9
0
-26
4
-16
-8
-9
-12
-26
-14
1
-3
0
-3
-5
5
8
-7
71
9
14
-1
4
-4
7
14
-7
13
-16
-1
-1
0
1
9
3
-5
3
2
5
-1
2
-11
28
-13
1
-1
-5
-8
3
4
-32
6
17
0
-14
-4
-38
2
15
-7
-16
-1
10
0
7
23
20
2
6
-6
-6
1
14
40
-34
-12
-19
-5
-6
-23
5
-4
26
-9
3
2
-1
21
-15
-16
14
18
13
-5
8
-3
-10
-8
-47
-37
-7
2
0
5
16
-26
-2
2
11
-3
-3
-1
14
-12
-23
10
10
2
-5
-15
-7
10
21
8
-14
0
-4
-2
7
6
-2
-2
8
-1
1
1
-3
-13
23
-3
4
1
-1
4
5
2
-14
1
-38
-8
0
-1
-7
-4
-22
8
7
3
2
5
-9
4
14
21
8
4
-1
-5
-11
21
27
-24
-3
0
-4
2
14
11
50
7
10
2
4
-2
10
13
-8
10
11
-5
-3
0
-4
1
-12
-15
-19
-1
-4
-8
7
-16
-7
-2
1
3
3
7
14
17
-8
-8
3
1
2
2
17
7
6
-6
2
-1
-5
-4
-38
-6
-24
36
0
-2
1
2
-3
13
-11
-3
1
1
1
-2
6
-7
23
-15
-19
-2
-1
-4
1
10
5
-8
-2
-4
-2
0
8
-3
-42
6
11
0
-1
5
-1
-10
35
3
-29
-2
1
2
-20
0
-46
1
6
-2
-1
-10
-14
-5
-25
-24
-4
-3
-1
1
9
-54
-2
-12
1
-5
-2
0
7
-17
13
4
14
0
-2
-12
-41
20
-25
3
9
2
3
8
71
-19
0
-4
2
1
0
0
-44
-15
92
4
6
-2
-3
-9
-11
20
-52
-10
-17
1
-3
2
35
-6
-28
20
4
-1
1
1
-12
14
26
-4
7
8
1
-1
-2
10
7
8
3
2
-1
-1
-7
-1
-8
22
-26
-4
2
1
-26
2
-31
-14
-9
-2
-1
0
17
1
-21
-8
-9
-4
-5
-1
22
6
-26
-8
12
5
2
2
-34
-14
-16
2
19
1
-2
1
12
4
-13
0
-4
-3
-1
-4
-13
-13
12
11
-14
-2
1
-3
32
14
-47
-9
-5
0
-2
2
-5
-12
25
6
10
-5
-2
1
0
-7
46
-21
-2
-3
-3
-4
-5
5
6
8
7
-1
0
-3
1
2
-31
2
-6
-6
-2
2
6
-7
9
-1
17
4
0
-1
0
-9
-20
-11
-13
-3
-2
-11
-39
-10
-90
-8
-27
-7
-4
6
18
-20
-27
5
-6
-1
2
-2
47
-19
7
-7
-5
-1
-2
1
-36
-9
-22
-1
16
8
3
5
23
-13
-28
3
5
-4
-4
-14
-52
26
12
-4
-2
-2
2
23
91
-5
-7
19
6
-2
-2
-7
-21
-11
44
21
-1
-4
-5
-4
-8
12
-29
-23
5
0
-1
-2
-18
-8
45
-7
7
3
0
2
16
10
-6
2
5
1
1
0
8
-10
-16
6
0
-3
0
1
3
-4
21
0
2
3
1
1
-4
-2
-14
-12
-9
-1
-3
-8
-31
-3
-25
-10
-14
-3
-2
1
6
-7
6
-2
-5
-5
-3
-3
-15
-1
11
2
12
2
-3
1
13
-4
-42
-7
-8
-4
-2
-2
-21
-2
1
-6
-4
-1
1
-6
-7
4
-2
-8
-2
-1
0
6
6
-2
11
10
-5
-2
0
0
5
-31
-4
-6
-6
-1
0
0
-9
1
-4
13
15
-5
-4
-3
-10
11
-9
-24
7
2
-2
-6
-33
0
75
-1
6
-3
-4
1
29
-16
18
11
5
-1
-3
-4
5
4
6
-8
-1
0
2
0
-16
-3
-11
-4
-4
2
0
-3
-14
-13
9
2
0
0
-1
-2
-2
14
5
-4
-5
-1
-1
-4
-9
3
-4
-2
-7
-4
-1
-3
2
-10
-3
1
0
0
0
3
11
12
5
-5
-1
0
0
-1
-5
11
6
3
-4
-4
-4
-4
-9
4
37
-6
-2
0
-2
1
8
24
-5
8
0
0
0
-3
2
0
6
8
3
-1
0
2
8
9
-7
-15
-2
0
0
-3
-17
-10
7
4
-10
-1
0
1
2
-4
-1
0
0
-4
-2
0
7
2
11
2
-4
1
0
-1
-5
9
-1
13
-1
2
0
0
-8
1
-11
-18
-4
-1
-1
-1
1
-8
6
14
-1
-1
-2
0
5
4
-4
4
-15
-1
0
3
-3
1
6
-2
2
-2
-1
-2
-11
7
-5
8
9
2
1
0
5
-2
-4
-18
-1
-3
-2
-2
-1
-3
0
-1
3
0
-1
-1
1
6
4
2
-4
0
0
-2
-1
-1
-5
6
-6
-2
-3
-3
1
-2
8
7
10
-1
2
-3
2
2
-1
-4
8
-1
0
1
1
2
2
0
4
0
-1
0
0
-4
-7
-2
-7
-3
-1
0
0
-5
1
2
-3
2
-1
1
0
0
-3
-5
-8
-2
-2
-1
-1
-1
4
6
12
3
1
0
-3
0
-4
-6
7
1
1
1
4
-2
-2
-2
-44
-9
-5
-1
0
-1
-1
-2
3
1
-1
-3
-2
1
2
-2
3
-2
0
-3
2
1
-4
0
22
-1
-3
-1
1
1
4
6
19
14
3
3
4
1
1
3
-7
0
2
-1
-1
1
-2
-12
-32
-5
-4
-4
-3
-3
-9
-13
-21
-6
-6
-3
-1
-4
2
6
31
-6
0
-1
-1
0
2
-1
3
5
3
0
-5
-1
0
3
24
7
1
-1
-2
-3
0
0
-29
-4
1
-1
1
0
-4
-5
-5
-8
-5
-2
0
1
-2
-2
6
6
-5
0
1
1
-2
-6
-46
-10
-4
0
2
0
1
6
4
-1
2
1
-1
-1
1
4
6
2
4
-3
1
0
0
0
-1
5
2
-2
1
1
5
9
38
12
5
1
0
6
-6
-11
10
-14
-5
-3
-1
-3
-4
-5
32
9
-6
-1
-3
-3
-1
1
-34
-20
-8
-2
-2
2
-3
-6
-21
-5
-4
-3
-1
-6
10
23
54
12
7
3
3
5
-1
-9
-59
-2
3
1
3
4
-5
-6
25
7
-2
-1
0
7
-1
-9
32
0
-2
-1
-9
-20
-13
-20
-2
1
-9
-6
-13
-15
6
12
5
-8
1
1
8
2
4
6
9
-1
3
3
5
0
-5
-11
-63
-7
1
-1
-1
6
-1
4
-1
12
-1
0
-6
1
-1
-6
-32
-7
-2
-2
-5
-4
-3
0
-21
3
-5
-1
0
-3
3
8
17
-10
-1
-2
-2
1
1
3
-30
0
-1
-2
4
0
-2
-10
29
4
-2
0
-1
0
2
9
-4
5
6
3
2
0
-3
-3
-3
5
2
0
0
1
-2
4
-32
-14
-4
0
0
0
-4
-4
-8
-18
-6
-1
-4
-3
2
8
17
0
1
-2
0
-1
-2
-3
13
11
-2
1
0
-1
4
-1
-7
3
5
1
2
1
-2
-2
10
1
-4
-1
-3
-2
0
0
7
3
3
-3
-1
-2
-2
-1
14
-6
-4
-2
-1
0
2
9
41
1
-1
1
1
3
-3
-21
-44
-4
-2
-1
-4
-4
-2
0
0
0
-4
-2
-7
-3
-2
2
19
2
0
0
3
1
0
-9
-18
1
0
-3
-2
-3
1
8
26
9
1
0
-1
-1
-4
-2
-20
-5
-2
0
0
-1
-3
-8
-16
-1
-2
0
-3
-1
0
2
-8
1
-2
-1
2
1
4
12
3
2
3
1
1
1
-1
-11
-24
-13
-4
-2
3
-2
4
15
28
8
0
-2
-3
2
-6
-10
36
-7
-1
0
3
-2
-2
8
-4
8
-4
-4
-2
-1
-2
-7
9
-13
-4
0
-3
-3
0
-1
-1
0
0
-1
0
1
0
-1
-7
2
-1
-2
-2
1
0
-1
13
-13
2
2
1
1
-3
-1
9
3
-4
0
0
0
3
6
-25
-5
2
-2
-1
0
-9
-19
-7
2
3
2
3
-2
3
13
41
10
-2
-1
-1
-1
-5
-8
-26
-7
-3
-2
-4
-1
2
0
12
-3
-6
1
2
4
-2
0
-24
0
0
-3
-2
-3
-1
1
39
11
1
0
1
-2
3
9
-1
-4
0
0
3
-3
5
6
-14
-1
2
0
-2
7
-2
-7
-21
-1
-3
0
-1
-2
-4
-1
-7
2
3
-1
4
-2
7
7
12
-1
-1
-1
1
3
-6
-4
10
4
4
0
-1
-6
5
7
17
2
-3
-1
-2
-2
-5
-5
-47
-2
3
0
-6
-2
-2
-4
2
2
-1
-2
-6
-2
-3
-6
-24
-9
-6
-2
-2
-10
3
3
30
7
2
0
-1
3
-2
-11
-32
-18
-8
-4
-2
-5
-9
-3
22
15
7
2
1
-2
1
-5
-19
-9
-3
-2
2
11
-1
0
-2
-7
-4
-1
0
0
2
9
8
4
-1
-2
1
2
-6
-15
-3
0
1
-2
-5
-4
-3
4
24
10
3
2
3
-3
-2
0
-14
-9
-2
-3
-1
1
5
3
16
-2
-1
0
2
3
1
5
27
8
0
-1
-2
0
-5
-7
-14
-15
-6
-3
-3
-5
-3
-7
-3
1
0
0
-1
-1
-6
-2
-27
3
-4
-2
-3
0
3
3
1
3
-3
-1
2
-1
1
0
-2
-2
1
0
0
-3
-3
-8
-4
-11
-4
-2
-3
-1
1
3
4
1
1
-1
-4
-1
0
-5
0
-8
1
0
2
1
-2
0
-9
10
-2
-1
-4
-4
-2
1
11
2
-1
-1
0
-2
-2
-4
2
-6
-4
-5
-6
-1
0
-1
-8
-4
-2
-3
-4
-1
1
0
10
-3
0
-1
-1
1
0
2
5
5
0
-2
0
0
2
4
9
3
-2
2
3
-1
-6
-5
-14
0
-2
-3
-2
-4
3
3
35
-1
0
0
0
11
1
3
8
-5
0
2
2
-1
-3
-5
-18
-6
1
2
0
0
0
9
7
-1
-4
-3
-3
-3
0
-4
11
5
1
2
4
-4
-2
3
6
5
-3
-1
-1
-5
2
-5
7
-3
-1
-1
-2
4
-1
-5
-5
-4
-1
1
1
-4
0
5
-10
3
-1
0
-1
-2
0
2
0
-2
-1
0
-1
0
-5
-10
-45
-5
-1
-2
0
-3
2
3
-6
-1
-2
-1
-2
1
-1
-1
-14
-2
-1
-2
0
-4
3
1
-25
2
1
2
0
-1
-3
1
22
2
-2
-2
-2
0
-1
1
2
3
-1
1
2
3
-1
-2
-4
-2
-2
-1
-1
-2
-1
-7
-16
-5
-1
-1
-3
-1
2
2
-18
0
0
0
6
5
0
-2
4
-8
-7
-6
-4
4
-7
-3
17
0
0
-1
-18
-20
9
7
-2
3
3
2
6
-4
-6
-4
5
-4
-1
-1
18
10
1
2
10
4
-1
1
1
6
-1
-6
-33
-6
-3
-2
5
5
-3
3
17
2
-1
-3
-13
-5
3
-2
5
-4
-2
-2
-6
-2
1
-3
-7
-3
-2
-1
0
-3
-12
-3
-4
0
-3
-3
-4
-3
0
3
-8
1
-1
0
0
3
-2
-4
4
-2
-1
-1
-4
-6
-2
0
-9
-1
2
-2
-3
-1
2
-1
3
0
0
-1
0
-2
-1
1
3
3
1
-4
3
6
-4
-1
17
0
-2
-3
-4
-4
-3
-7
-13
-3
-2
-1
-4
-6
4
2
3
-2
3
1
4
5
-4
-1
-26
-8
-4
-2
1
-1
0
2
-3
1
0
-1
-5
-4
-1
-4
-15
0
-1
0
0
0
-1
0
-5
2
-4
-2
1
-1
-2
-10
-58
-10
0
-2
-2
-6
-2
2
1
-1
-1
3
-4
-5
0
0
8
1
-3
0
1
6
0
-4
-15
-5
0
0
0
0
-2
1
13
1
-2
1
1
-1
1
-2
1
1
0
1
-1
-1
0
3
-10
-3
2
-1
1
-6
1
4
-7
2
0
-1
2
3
-5
-3
20
2
0
-1
-1
1
9
0
-1
-1
-1
-2
-4
-2
-2
-1
4
0
0
1
1
-3
3
-1
-3
-3
-2
-1
2
4
-4
-8
-11
-2
-2
-1
-1
0
-4
0
-6
-1
-2
-2
-2
-1
0
-1
12
-3
-2
-1
-3
-2
0
5
16
0
-2
0
0
-2
-1
-3
15
4
1
-1
-1
3
0
4
7
2
2
-1
-1
-1
-3
-5
14
0
-1
0
1
-1
-6
-2
7
-3
-1
-1
-1
0
6
6
25
6
1
1
1
1
0
-1
-12
3
2
1
0
0
2
-2
-2
-4
-2
-1
-3
2
-2
-4
12
-1
1
-2
-1
-5
-5
-2
-11
-3
-1
0
-1
0
10
0
-2
2
0
-1
-1
8
-5
-3
-17
0
-1
0
2
-5
-2
1
-3
0
-2
0
0
-4
3
-1
-2
-3
-1
-1
-8
12
3
-5
2
-1
-2
-2
11
-12
-11
-8
-4
-1
-3
-4
-20
-9
-8
-5
19
3
1
0
13
-7
-5
-1
-10
-9
-4
-3
-3
9
10
6
20
2
0
2
-6
7
-16
2
-18
-1
0
-1
-24
-7
20
-2
-4
-2
-1
2
46
2
7
0
2
-1
-1
-2
-15
2
15
-1
-2
-1
-2
-2
9
3
-11
-1
2
-3
-2
1
-5
-7
-18
3
-10
1
0
-1
-28
20
11
-7
0
4
-1
0
74
-32
-8
0
-4
0
1
-2
-41
33
19
1
-11
-4
2
-1
-27
-57
-8
2
-5
0
2
1
3
31
-1
0
0
11
-4
-9
6
-26
4
-4
-8
-16
-1
2
-20
25
15
6
11
4
-2
-4
9
-20
2
0
-35
-7
-2
0
15
34
8
6
22
-2
0
3
-1
-9
4
-13
2
4
-3
-6
11
-12
-11
8
2
4
3
-5
-2
15
28
1
-2
-4
-6
-6
-26
-43
-20
-2
-11
-9
0
-4
12
41
-12
-5
-5
1
1
3
-75
-47
-8
-7
6
2
2
4
65
18
7
9
18
5
-3
-1
2
-1
11
2
-7
-7
-5
-9
-11
22
-56
4
4
7
9
8
-1
21
24
-10
-3
-1
-4
-6
-14
-26
16
13
6
4
-1
-2
4
8
-53
0
4
11
12
1
-18
-5
-20
-17
-27
-18
-12
0
102
-48
16
18
10
5
2
12
2
17
45
1
-5
1
4
-6
-28
-7
-36
-14
3
1
-10
4
-23
-31
62
-11
-6
-6
2
-7
-46
52
-80
12
4
5
-11
0
-22
16
32
-7
-19
-11
3
-7
36
-13
13
9
28
8
12
5
14
27
-41
4
-11
6
-4
4
40
8
14
-16
12
-8
7
23
51
70
10
-6
-3
-9
-15
-17
-14
39
-22
10
6
-6
-25
-3
-18
5
-61
-2
2
9
27
1
-63
4
41
8
1
-3
15
15
73
-21
-58
-11
11
-4
-26
-10
-39
-22
63
1
-29
-5
11
-12
72
-49
-48
-11
5
0
-20
-11
-84
-8
18
4
-20
0
6
0
3
38
-28
-25
-4
-8
18
19
-5
5
39
9
11
4
-3
-12
-16
-1
21
7
-21
-3
4
-12
-66
74
36
28
15
2
-23
-19
49
-40
-47
-56
-13
-5
-29
18
-14
45
46
-8
14
-8
10
3
-116
-24
53
23
13
1
20
6
46
-19
96
-18
4
1
10
-18
-34
53
-30
38
-6
14
1
15
76
-30
-74
-33
-21
-12
-26
6
-19
44
-45
-14
19
-2
-13
-11
58
-68
-107
-16
4
-10
17
12
-107
-47
36
11
6
6
-1
-34
-62
-13
68
5
18
22
45
24
-34
35
27
4
-2
-11
-42
-4
32
39
-44
15
-15
-17
-77
-72
36
28
-60
-45
3
2
78
70
-48
-101
-42
-3
-12
-17
10
-3
-45
83
67
24
37
0
-62
11
87
76
-53
0
-1
16
35
-17
-46
-4
35
-45
3
7
36
-2
-27
-34
32
-2
-13
-3
-6
-18
125
64
-43
-5
-22
-8
-20
33
-52
-49
38
6
-8
-13
-35
-7
16
-45
-48
35
-12
13
3
0
20
1
6
-11
-41
-14
31
26
-8
-32
77
-6
-11
-6
-44
-72
12
-23
9
-35
-4
-9
-58
40
-102
69
59
41
11
22
58
44
120
57
18
39
24
18
41
-74
-128
-64
-31
-2
-2
13
53
78
127
60
41
7
-1
-9
-19
-65
-75
32
20
-62
-7
-14
-67
-16
-33
-10
-32
14
-20
-14
-30
33
25
-34
20
12
-3
1
12
-62
-116
-114
-18
-12
20
23
69
94
86
40
-37
47
19
-1
2
-26
-101
-3
37
-2
7
-17
-114
-25
127
50
77
-3
-14
-2
99
-34
-128
-65
-4
-18
-11
-2
1
0
4
-57
-48
18
-16
-3
-12
-17
-1
15
22
-27
15
19
59
11
-122
-42
-35
5
-5
-17
-81
29
108
12
-2
20
9
25
29
21
66
19
5
-36
16
12
66
12
-86
17
-13
-5
-62
-25
-56
-94
-128
42
-2
0
-5
-6
-40
82
93
50
41
-4
-17
-32
-30
-9
51
28
-75
9
-4
30
35
-69
-69
-84
-45
9
13
17
19
127
74
18
83
9
-7
9
76
-18
18
17
-53
-13
-7
-6
-9
-28
-122
-35
66
26
17
-35
-96
-28
122
46
-30
-8
2
2
-10
-31
46
13
-23
1
13
3
-20
-31
30
30
-45
-1
28
10
0
94
4
-39
16
7
10
14
94
0
-76
-5
-56
-17
-28
7
30
-68
-109
-49
-65
-26
17
-18
-78
18
51
-12
7
1
-51
-16
-46
-17
-114
-25
60
-6
-9
6
57
13
-13
113
24
10
35
11
15
91
127
24
-43
2
-9
12
27
-35
-109
-34
-19
-18
-2
2
27
-61
-3
19
-16
-5
4
-41
-128
33
95
2
24
-8
3
4
10
-56
-17
4
-38
-12
8
11
46
25
-24
49
13
2
16
5
20
57
69
2
90
33
-7
-6
-19
-65
-108
-14
-67
-4
19
7
25
74
122
-28
19
22
0
6
9
-30
-47
-12
48
-31
-35
-13
-49
-21
-90
-69
64
6
9
-20
-22
-17
51
34
0
-6
6
-1
-6
-17
-52
-14
-33
0
-19
3
9
25
34
7
13
12
28
23
101
52
40
16
10
-2
-9
2
-30
-10
17
-11
-35
19
13
-4
-16
-11
46
-24
52
1
27
-14
-38
10
50
28
-56
24
-8
-4
-15
-54
-60
20
-54
-34
-41
-2
26
53
60
3
-24
-2
2
0
24
-2
-50
-71
-12
-16
5
-1
-8
-26
-128
-43
59
29
20
-5
-20
8
127
28
20
1
-10
-11
-49
9
-7
-10
3
0
-8
8
66
-7
-81
32
-25
-12
-21
3
16
-12
-5
-20
14
0
-5
-9
-55
-35
0
8
-7
-3
7
5
38
12
21
-21
107
-3
21
1
-39
28
16
22
-15
12
-17
11
40
25
-18
-16
10
-20
1
17
75
-17
-24
9
-8
-2
0
-5
-31
-8
57
-37
72
-4
-5
-22
-74
-32
-39
25
-17
-6
-5
-8
8
-15
-5
-34
0
13
-4
-16
-49
0
-7
-9
-7
-14
-9
-8
-22
6
-45
16
55
-5
8
20
97
40
81
22
-9
-5
-2
4
-1
-27
-5
3
-4
-12
-15
8
16
11
51
-8
-42
10
-2
-12
-24
-5
-2
13
-16
9
0
-10
-63
-35
-91
-28
21
12
10
1
5
21
43
12
-11
-26
-32
-7
24
-10
64
-3
-83
9
11
5
0
24
-50
-25
-54
9
5
4
-5
4
45
-2
41
5
-41
5
11
-2
-33
-26
-48
2
18
-1
1
14
34
30
41
-9
-4
-5
-11
-16
-18
15
2
13
11
3
-10
-4
50
-27
14
-10
13
-9
-8
16
-11
20
28
-9
13
8
5
-25
-72
10
2
-19
-32
-1
43
20
49
-32
-51
-6
-2
-9
-24
-1
-15
12
18
-4
4
2
-3
-43
-98
-5
-44
0
-7
0
3
63
67
-27
-27
10
23
-4
-3
2
-8
-39
42
4
-31
1
-15
-29
-70
-26
8
11
6
-2
0
2
61
28
13
-17
2
-3
4
-46
-113
-11
-1
25
13
-1
-56
11
7
37
-49
-9
-2
0
55
32
85
-7
-40
-7
-1
3
25
7
-44
-33
-3
4
-1
-1
-17
-52
-29
-9
42
6
0
9
-13
16
59
50
44
-3
2
-10
20
22
10
4
-10
9
-5
2
-20
-4
-25
16
18
14
7
-6
-5
0
21
35
5
-32
-8
15
46
-16
-39
4
3
2
13
4
-7
-2
-121
17
52
0
-6
-4
-14
9
56
34
14
0
9
-12
-19
-9
-21
-23
0
13
14
9
-4
-16
-12
-9
-6
-8
-7
-7
-2
6
16
33
-26
-5
15
5
9
0
36
43
9
7
1
2
-14
-10
-52
-14
28
-3
1
1
12
0
51
-9
-23
-7
6
-4
-3
-10
-26
-3
-27
-5
-3
-13
-29
-4
15
-7
-8
5
0
-3
-10
9
52
-7
-75
-4
4
5
46
9
-93
-30
-7
11
-2
2
0
7
77
5
-7
-12
-7
1
-6
-13
33
-19
-9
3
-16
4
13
10
-52
16
48
1
-4
-11
-29
-1
-25
-3
-21
-13
-10
-8
-7
-16
29
13
-17
10
2
3
17
13
-3
-2
55
5
-4
3
5
-7
73
28
34
9
3
3
9
-5
-10
-10
-54
-7
0
-9
-38
-14
-75
22
19
-1
-1
-5
-6
20
124
-32
-58
-17
-2
-3
-1
-5
-34
13
11
2
-11
-3
31
-31
-86
-1
3
3
-20
-6
-29
22
82
-22
-25
8
18
2
1
9
-51
-15
32
-12
4
-3
2
14
-53
-21
10
-6
12
18
48
16
34
13
-72
-2
-25
2
-17
-8
-17
-7
59
-11
-2
-4
-5
-25
-15
5
14
9
0
-3
-29
-2
-10
1
-19
-8
5
-10
-1
-17
-10
-6
27
6
-1
7
3
11
0
43
31
6
-13
-10
-14
-13
-89
30
-64
-4
-3
0
23
43
46
-30
-55
-5
-7
-1
-27
-25
-11
28
2
17
10
-5
4
37
47
-14
33
-10
6
12
29
3
8
36
29
5
-8
5
15
-38
-46
-16
-32
-12
-1
-7
-32
17
27
23
106
-1
-19
-7
-3
-18
-51
-16
-41
2
-12
-13
-14
7
-47
-33
-54
3
8
4
9
-9
23
12
0
11
-5
-3
19
14
-26
-14
-2
-11
20
7
-8
-16
18
11
-3
-2
0
0
0
5
38
27
15
2
1
3
0
0
-10
-10
-29
4
-5
-15
-39
-37
-6
-19
57
-6
-5
-7
16
10
-59
5
-30
-4
-19
10
20
18
-14
-13
-14
6
5
-6
-8
-1
76
26
-26
-6
13
1
-9
17
-5
14
-4
-6
-10
0
-2
-31
-82
-41
-15
4
17
-3
6
7
73
1
82
-1
1
0
-10
-4
-46
24
-2
-1
-11
-2
3
18
125
-3
35
10
16
2
-7
7
-18
0
10
8
-10
2
6
14
59
-13
25
-6
9
2
19
5
31
20
27
-6
0
3
9
-11
-48
6
-18
0
-1
-3
-33
-14
75
-3
39
16
27
2
-6
-28
-54
8
-10
-22
-41
-11
13
11
-40
-3
-20
13
-5
10
-1
-5
56
-14
-13
-22
5
-2
12
15
4
0
-48
-5
0
-5
-9
-14
-70
-18
0
3
11
6
-5
16
1
-1
4
7
3
-4
-5
-11
-18
4
-87
-4
-1
0
-15
-13
-35
-34
-118
-17
3
0
15
10
14
-51
-13
1
4
4
9
-7
-30
-16
26
2
-4
1
6
14
4
3
29
-1
-4
-6
-11
-37
-14
8
33
5
-13
-3
-33
20
-16
-12
-40
7
-6
0
23
-18
5
-25
-2
-1
-7
-7
-17
14
-13
-5
-11
-6
-2
10
22
-4
-70
-19
-9
-23
-17
-2
16
-2
0
-22
13
4
12
7
-11
-9
-42
-9
18
9
9
-3
-9
6
47
-4
-55
-11
0
-10
-14
-16
16
-10
8
-8
-22
-8
-1
-13
-38
8
-17
-5
-3
-3
-4
13
32
-4
-3
-1
1
-2
-4
-12
55
-6
-53
3
6
6
3
15
-16
16
55
19
24
5
7
-26
-87
-6
-41
-12
-5
-1
2
37
47
-2
4
-10
-5
-1
12
-15
-23
-4
11
9
-1
-4
-16
4
35
23
29
-8
-4
-2
-4
-11
-42
18
3
-6
-5
-5
0
-6
-8
-12
7
7
9
-1
-13
-9
-26
-11
-33
4
5
8
30
40
77
-22
-14
2
-13
1
-1
-7
-12
11
-22
10
12
-3
-13
-14
-4
-24
-30
-12
-14
6
10
12
-27
3
46
9
15
-7
-19
-12
21
3
-11
0
3
-2
-14
9
53
35
-2
-7
-41
-3
8
21
20
-6
20
12
6
0
12
-7
-58
-36
-21
-7
-9
7
10
-7
-38
-1
3
-7
9
2
2
7
52
12
-21
-1
15
4
-14
0
31
-2
14
4
-3
-4
0
-6
-27
18
-23
-4
-9
-3
0
5
-7
-21
-2
1
18
2
-3
6
32
7
21
3
-37
-11
-15
-25
-44
10
20
-3
0
1
-7
22
89
13
-17
4
9
1
12
0
-21
-8
3
-13
11
-5
2
-3
25
-10
16
13
6
-2
-14
-17
-32
8
18
7
4
5
7
8
9
-6
47
-27
-13
-2
11
-13
-45
-4
3
-2
-3
1
-3
10
63
2
-13
11
12
1
-1
-8
-11
16
-5
-4
-2
-7
-25
-5
-50
28
-25
4
-1
4
26
5
45
2
-30
-5
5
4
5
7
-19
-32
12
-3
23
7
1
-11
3
30
-40
-4
-30
-4
-6
-5
8
-1
74
12
-13
-8
-16
-5
-12
9
16
3
-3
-1
-2
3
6
-4
-62
7
13
3
6
-1
-9
-24
-1
-16
1
0
-7
1
-46
-21
12
-15
-11
-1
15
-1
3
6
-13
-21
-9
-5
0
4
6
-4
-1
3
-2
0
-4
-13
5
-19
61
5
-1
-2
-6
8
8
21
-24
19
12
1
-1
-1
-5
-2
1
8
1
10
12
-4
32
5
20
-10
-13
-5
4
18
47
12
-30
-7
6
-4
-4
-9
-19
-16
-4
4
-7
3
3
1
1
4
-17
12
13
5
1
5
0
15
4
-2
-13
-3
0
-4
-35
5
6
-3
-5
-5
-3
-14
-39
-10
9
8
6
-4
-28
-6
39
19
-31
-5
6
1
11
-23
-105
-21
-6
-7
4
4
14
26
14
-12
17
-2
1
0
5
-12
10
3
0
8
2
-2
-9
14
22
20
59
3
-9
-5
-13
-18
-34
13
-21
-9
-4
-3
-7
7
-33
30
14
0
7
8
12
-6
-11
-8
10
3
3
0
7
-3
-10
-6
20
-1
-10
-10
-39
3
40
-28
-50
-2
0
1
19
-9
29
20
-10
-2
2
4
23
20
-6
5
4
3
1
3
0
-9
9
-15
-15
4
6
-6
-10
8
21
-3
36
-7
4
-4
-13
9
-5
-17
-56
-5
-22
-5
-1
-17
74
-5
0
-2
8
-3
-3
16
14
2
-37
-5
15
2
1
-7
-25
16
46
-2
11
4
0
-3
-9
-17
-26
-1
-40
-5
2
2
3
-7
20
-8
12
-1
9
24
22
6
-13
-3
-11
-5
-5
-15
-34
14
-21
6
4
-1
-1
-2
20
-2
-64
-2
11
7
1
-1
-29
-15
8
3
-7
-5
-14
-19
-10
-1
9
4
-6
-2
10
8
-63
-27
-21
-14
-17
-3
-1
0
57
5
16
2
7
-6
-6
1
11
-5
34
6
-6
3
-7
-8
-10
-9
6
8
3
-3
-6
-11
-24
9
8
-9
3
3
2
3
0
3
1
-7
-5
-2
2
20
33
-20
3
4
-3
4
28
6
-67
14
18
3
-5
1
-3
-6
63
22
62
10
4
-2
-12
8
24
9
-1
2
10
2
-6
-7
19
6
-23
-7
-6
-4
-7
-4
16
5
-38
3
4
3
4
-9
-33
40
15
5
-17
-4
4
7
-12
-13
-11
-4
4
-5
-7
-4
20
-2
3
-14
-4
-3
-8
-12
25
-12
-29
5
-14
-3
9
24
-20
-13
-8
5
8
4
0
-21
-40
-9
-61
-7
2
3
4
6
-37
24
-21
-7
-3
0
-5
4
23
-30
24
-1
5
-1
-5
-3
6
-17
-7
-1
-4
-1
-3
-10
-39
-15
24
12
7
0
5
-12
8
17
-12
-1
5
0
-15
-13
-54
-14
44
-2
1
-1
9
18
56
-17
-1
-1
-12
1
4
4
-12
7
55
6
19
3
2
-4
-23
-24
3
-6
0
0
0
-7
-4
22
26
-2
-2
0
-5
-1
17
-12
9
0
-1
-2
-4
-28
-40
-16
-21
-9
2
-4
-2
24
8
17
3
-1
-19
-6
-2
-14
-15
-4
-6
8
-2
-1
-5
0
-72
-22
69
-4
5
2
5
2
4
26
7
-7
-4
0
-2
-2
-16
-3
-54
-5
3
0
2
-8
-24
-22
-49
-14
-13
-3
-1
3
23
24
-9
9
-11
-5
-10
-8
-26
-17
48
1
5
3
9
6
59
12
30
16
-2
1
3
2
5
45
-21
-12
3
-1
-6
1
43
0
-26
0
10
0
5
15
4
-3
14
4
-3
1
2
-3
-9
-35
4
-10
3
-2
-3
-2
12
-42
-5
0
-7
-1
-2
-9
-18
-2
-10
-1
-15
-4
-7
-6
31
-13
-27
7
4
-3
-5
0
-20
1
0
-11
-6
-7
3
5
-16
-24
0
-11
-5
-3
-3
-4
3
-5
-20
-1
6
0
1
5
19
11
12
9
-9
1
1
-10
5
21
-5
14
9
2
-3
-2
33
-4
19
-18
-22
-4
-2
3
6
0
8
-1
10
3
1
5
0
24
-40
-7
-6
-4
-5
-1
24
-8
23
-3
3
-4
-2
0
-43
4
27
11
7
4
4
-11
21
11
-30
-3
-2
0
-3
1
-38
-14
20
-4
-2
-5
-4
-5
-32
1
7
-7
-6
2
0
4
7
13
-6
10
7
-1
-6
-2
-13
24
-2
3
4
3
1
4
26
-8
12
-3
-3
0
-1
-9
-12
18
-16
2
-4
-2
0
6
19
-12
45
4
3
2
3
-1
-34
35
-3
-5
2
-1
-3
1
-3
-14
-12
-2
2
-3
-5
-5
-13
-13
-6
-2
-1
1
3
2
23
-3
-38
-3
0
-2
-5
-2
0
-32
48
20
6
1
-3
-10
2
4
21
-21
-8
-4
-1
13
1
1
-7
8
0
0
3
1
-25
5
17
-5
-5
3
0
0
-3
-4
-64
-2
0
-1
-5
-3
7
-17
26
6
0
6
8
-9
-48
24
18
-3
-6
-1
-2
6
44
-22
-20
-1
-3
-6
-4
-5
7
-8
-12
-10
-4
-9
-6
-1
-4
4
-33
4
7
1
-2
0
1
0
3
-5
-11
3
2
-6
-8
0
-8
1
3
8
7
6
-11
17
-33
-2
-4
-2
1
6
20
23
-22
-5
-2
-7
-11
-5
3
-36
-1
2
1
-1
1
0
-28
0
-17
-1
5
0
-2
1
9
-10
38
-3
3
4
4
0
-6
-3
11
6
5
4
4
-7
-24
-16
-17
-5
-9
-6
-6
5
-27
9
15
3
6
-3
-4
2
21
-2
-30
-6
-1
-4
-1
-3
-13
3
2
5
9
-2
-1
-2
10
-1
0
-8
-15
0
3
-2
-10
-15
13
3
9
6
7
4
4
-4
30
-1
1
0
-2
2
24
1
3
-3
-10
-8
-5
-3
-3
9
-2
-2
11
-3
-6
-2
20
6
-7
-3
-5
-2
-2
-2
3
-6
-6
-3
-3
-1
-3
-1
-7
-2
-6
-3
-9
1
1
1
6
0
-5
1
0
-1
-2
1
8
5
-3
-3
-3
-1
2
-2
-3
-10
11
1
-2
0
2
-1
-17
-6
7
0
-1
1
3
2
8
5
8
2
4
1
-3
0
1
7
0
0
-2
-2
-5
-3
-6
-1
-2
-1
-3
-2
-1
0
-5
7
1
0
-2
1
-1
0
2
2
-6
-1
1
-1
-4
-2
3
5
-4
1
1
0
-2
-2
-3
-3
-1
0
-3
3
0
2
-1
-2
2
0
-5
-4
-1
-2
-1
3
-1
-5
2
-3
2
0
0
5
0
-6
-16
-4
1
1
2
0
10
-1
2
0
1
-1
-5
-5
-1
5
4
3
-3
-2
5
-1
6
3
1
-2
-3
-3
2
3
-3
0
-7
-6
0
-3
-2
-3
0
0
2
1
-2
-2
1
-3
-3
0
-1
6
-1
-1
-1
2
-4
1
3
-7
0
-2
0
5
-1
3
18
7
-1
0
-1
-4
3
-2
-1
1
-3
-2
-6
0
-2
-6
-4
-15
1
-2
-1
-1
-2
3
21
13
3
0
1
1
-3
-5
-17
0
-1
-3
-4
-1
-5
-3
1
-13
-3
-3
-3
-3
2
7
0
7
-3
0
0
2
-2
-2
7
-9
2
3
2
0
3
6
-10
1
3
0
0
0
4
2
-2
9
2
2
-1
-2
0
-2
-26
-3
2
0
1
-4
-1
2
10
3
-2
-2
-3
-4
-4
-9
-8
0
-2
-2
0
-2
-1
-3
-2
-6
-3
-2
-2
1
0
-2
8
-7
-4
-4
0
1
2
3
1
8
-1
-3
-1
1
-1
-1
-8
-10
-4
-1
-4
0
0
1
10
-1
-2
0
2
1
-4
-14
14
12
1
-1
-2
-1
2
5
-14
7
3
-2
0
2
-2
-4
11
-18
-4
-2
-1
-2
-5
-2
0
-5
0
1
0
-1
-4
0
9
4
-3
0
-3
-4
-2
-7
-2
14
0
0
0
-3
1
0
-23
-8
-2
-2
0
-1
-1
-2
-3
-1
0
1
0
-2
1
4
8
-12
-3
1
2
4
1
-1
1
-3
-1
-2
-3
-1
0
-1
-21
11
5
-1
2
1
0
4
6
-6
3
1
1
-2
4
5
-17
-1
2
1
0
0
-7
-8
-2
-15
-4
-2
-1
-4
-1
1
-5
1
-4
1
4
0
0
5
-7
6
-1
-2
-1
-2
4
4
13
9
1
-1
0
2
-2
1
1
3
-2
1
-1
0
1
0
-18
-7
2
1
0
2
-1
5
46
20
-2
-1
-2
1
-7
-3
-40
-23
-8
-3
-4
-4
2
-6
2
-3
1
2
4
2
-6
-6
-20
-2
-5
-4
-4
-5
0
-3
-48
0
2
-1
-3
-1
4
2
46
12
5
-1
-1
1
-4
-1
-23
-6
-5
-3
-1
-2
1
3
35
-15
-1
0
-3
1
3
4
10
-10
0
-2
2
1
-8
-12
11
14
-4
1
1
-4
1
6
-20
-5
1
-2
0
0
0
-3
36
6
-2
0
1
-1
-2
-2
-25
-20
1
1
-2
0
-8
-11
-31
3
-5
-3
-2
-6
2
4
12
0
-1
0
0
0
-5
-8
10
18
-4
-4
-2
-4
3
5
12
-9
1
0
1
1
4
3
-17
-6
2
3
4
2
-2
-7
-15
-7
2
-1
-3
0
0
8
14
0
2
-1
-4
-5
-1
-6
-8
11
-2
-1
-1
5
-2
3
11
3
1
1
-1
-1
-5
-14
-38
-21
-9
-2
0
-2
5
6
40
6
4
3
2
1
-8
-8
-9
5
-6
-1
-4
-7
0
2
25
1
0
-3
-9
-4
4
2
5
1
-1
-2
-2
1
-5
-8
-7
4
5
1
5
1
0
-3
18
0
0
-3
-2
-5
0
-2
-19
-1
1
-2
2
2
-1
-2
-15
0
-3
-1
-1
-2
8
2
-12
-1
-3
1
0
-1
-6
-9
1
-9
-9
-4
-4
-1
-5
0
13
-4
2
-1
-3
-3
0
3
11
6
0
-1
-2
2
2
7
15
2
0
-1
1
2
-2
-2
-30
1
2
-1
2
-13
6
0
18
5
1
0
2
5
-7
-3
7
-5
-5
-2
-2
1
-3
1
13
3
-1
-2
-1
2
-3
0
-28
-4
0
-2
-4
1
-1
-2
-13
-6
0
2
3
-2
0
1
19
5
-1
-2
-2
-5
-3
-2
-5
-1
-3
0
-2
-1
3
4
1
2
1
2
2
3
-1
1
-6
-1
1
0
1
-2
0
0
11
3
-1
-1
-3
-1
3
0
-21
-5
-3
-4
-2
1
-8
-11
-16
-9
-2
0
3
-3
2
6
-17
-4
-2
-3
-7
1
3
0
-3
-3
-1
0
-2
1
-6
-2
-7
5
2
-2
1
-3
2
-3
13
2
-1
-1
2
5
-9
-18
-38
-17
-4
0
0
-5
2
3
25
9
2
0
5
0
-3
-5
-30
-4
-1
2
0
-3
3
7
28
6
-1
-1
-29
2
-2
2
16
3
-6
0
13
-1
3
-1
-24
-7
0
-1
11
0
-1
0
-4
3
4
-1
-15
-1
-3
-1
10
4
3
1
6
-2
1
-6
-15
-9
-2
-4
-14
-3
-4
0
10
-1
-2
2
29
0
0
1
2
-2
-3
-3
-36
-2
-3
-6
-7
-6
-4
-4
24
-3
-2
0
21
5
-5
-10
-10
-2
2
1
-7
-3
-1
-2
-1
2
-2
-4
1
-5
0
-1
2
-4
0
-3
-4
3
0
5
-4
-1
4
1
-8
-7
-1
2
4
4
-3
-1
2
7
2
-4
6
-1
0
0
4
0
1
5
-14
1
-3
-9
-7
-8
-8
-9
-5
-3
0
7
18
3
1
3
14
-1
-1
0
-10
-6
1
0
-22
-1
-1
-4
-10
-4
-5
-1
15
0
2
7
16
2
3
1
5
3
0
-1
-24
3
-1
1
-12
0
-4
-7
-15
-13
-4
-3
-14
-2
-4
1
24
12
-2
-1
17
-1
3
1
-8
0
2
0
18
2
-2
-1
9
1
-3
-1
-24
-3
1
0
-1
2
0
2
-16
-2
-2
-4
-18
-11
-2
-4
15
0
-1
-3
0
-1
-3
-2
-19
-4
1
0
10
8
4
2
1
3
-3
-4
-9
-6
-2
-3
17
-2
-1
-1
9
0
-3
-2
-8
-4
0
1
-3
2
-1
-1
0
-2
-1
0
-8
-7
-1
-1
5
0
-2
-2
10
1
-1
0
-17
-2
0
-1
4
-2
-3
2
17
0
-2
-1
-3
0
1
-1
-16
0
-1
3
1
2
0
-2
-2
-5
-2
-3
1
0
-3
-2
7
3
-2
3
12
1
-1
1
5
-1
0
-4
-29
-9
-2
-2
0
0
-5
-7
-9
-10
-6
-4
-13
-1
0
3
0
6
0
-1
7
-6
3
6
-5
-3
3
0
-6
2
-2
-3
16
7
-1
-1
-11
-1
3
-4
0
0
-2
1
16
1
0
0
-5
-2
-1
-1
-16
1
-4
-8
-16
-5
-2
1
10
-1
2
-2
6
1
-1
-4
-3
-3
-14
5
2
0
0
1
7
0
8
-1
10
5
2
-2
-15
7
5
-3
-8
-8
-8
-3
4
6
-1
1
0
-5
-5
-1
5
-9
-5
2
0
0
1
-4
-7
-8
-6
0
2
1
3
0
1
-11
-8
-2
1
0
-1
-5
18
28
15
-5
23
1
1
3
-8
9
8
-15
-39
-8
-4
-2
6
-12
1
11
-5
0
0
-1
-43
-1
20
4
-5
1
2
-1
10
-5
-18
10
12
-1
-5
0
12
-6
-16
-3
22
9
2
-1
-2
1
-11
-10
-9
1
3
6
22
-8
1
-2
-10
-7
-3
-3
-10
7
0
3
-10
-3
0
-1
-28
-3
28
3
11
-3
-3
-1
18
5
4
7
-4
1
-2
-3
24
9
-13
-12
1
-3
-3
-4
-34
-11
15
-10
-7
-4
-1
-1
-2
-8
-12
11
1
-2
2
-4
-24
3
10
-10
5
5
5
8
41
13
-21
1
-3
4
4
2
-26
-14
-18
0
-5
-6
-7
-3
19
8
-9
12
8
3
1
0
-15
-4
46
5
-2
-5
-5
-7
-54
2
-53
10
6
6
3
-1
35
-5
-5
7
-7
-1
-5
7
32
2
-3
-6
7
-1
2
6
42
-7
-36
-6
9
13
8
-7
-22
4
42
13
-9
-6
-3
0
14
25
-20
-9
11
4
3
-6
-49
-16
-23
23
-5
4
0
1
3
-9
16
-24
-13
-8
-5
10
23
2
-5
-11
0
-5
1
9
61
3
18
12
2
1
-3
-4
-14
19
26
-10
-1
-6
-5
-6
-16
2
-3
-5
7
-4
-11
-2
-19
-11
31
33
11
10
8
12
80
-15
1
-20
-14
-11
-16
-8
14
17
44
3
0
9
33
7
-19
52
2
24
-3
-2
5
-29
-95
7
56
-18
-1
-2
-9
8
38
-50
-24
15
9
9
2
-20
11
3
6
0
2
-6
-18
3
61
3
-29
-13
4
0
-1
-4
21
2
40
10
-7
-7
-21
-44
-128
46
-56
-25
-12
-16
-10
27
44
-26
5
-17
4
13
23
8
82
-1
-14
15
-2
-1
12
-19
-67
-47
-21
-2
8
4
-10
19
61
-15
-17
10
-1
1
10
-9
48
-21
22
-24
-9
-9
-10
10
-103
10
16
-9
-7
0
13
39
127
10
-33
-24
-10
-6
-15
-25
-128
-25
30
3
3
11
21
11
67
-13
20
28
13
-9
-16
19
69
0
20
-7
0
-9
-10
-1
20
-7
-31
-14
-4
-11
-31
-77
-93
50
75
21
1
10
16
35
64
29
-16
-11
-11
-3
-11
-37
-128
-49
11
23
6
-3
-4
5
41
53
0
2
-4
-2
15
70
116
12
12
-14
-5
-8
10
-54
-128
-14
-63
-26
-4
3
-31
-12
54
-15
-6
-20
-4
2
33
49
18
-28
-80
-5
-8
0
5
-25
-70
-35
-24
22
10
7
0
9
-12
-12
23
-1
2
-10
-18
-5
73
-40
-79
-13
-9
-1
-25
-44
-71
-55
-23
-19
6
1
14
24
-25
-59
-20
-28
-4
-3
-9
-22
-95
3
71
17
-3
-2
9
14
43
10
-30
-25
-5
-10
-11
-50
-27
-37
4
7
10
2
0
37
10
32
29
13
-5
-5
-7
-45
-116
43
1
-14
-3
2
18
28
69
45
-31
2
-2
-10
-31
-12
64
3
39
9
-9
8
10
7
-76
-5
56
-4
-11
8
23
32
110
-39
12
22
6
1
14
25
5
31
101
-6
-2
10
4
-34
-125
-15
19
5
-10
-10
-21
21
127
67
40
7
8
-7
-25
10
72
-51
-8
-11
4
3
25
-14
-128
21
0
-24
16
-4
-54
-26
58
71
-39
13
11
2
44
40
-120
-87
15
-7
12
-5
4
19
-8
39
100
35
-20
4
14
-27
-11
50
-45
5
-10
-10
-25
-9
-109
24
51
-23
0
9
-12
-40
94
28
-24
7
16
10
47
47
-64
-11
-116
-16
13
-2
-19
-11
-77
-4
73
23
-3
0
4
4
-35
-5
-66
0
7
-3
-15
-37
-59
-42
13
-17
-19
-10
-37
29
86
-1
-64
11
2
-2
5
12
-2
-39
16
-15
-1
5
34
-5
-23
9
2
19
4
9
15
7
-75
8
27
18
6
-4
-26
-5
53
57
-28
-32
-18
3
-13
-14
-38
-28
93
31
18
16
60
45
57
30
-48
-37
-15
-5
-1
-64
4
-49
-40
16
-24
-4
-1
30
65
-53
-57
0
-5
-25
-76
-22
48
-7
-23
24
12
4
0
30
42
-76
55
-4
-6
-3
31
4
3
44
-16
4
3
17
6
-42
-128
10
-47
-13
-12
-9
3
-19
12
-62
-89
-19
-2
-7
-26
15
-10
-24
-43
16
1
3
25
52
10
9
-30
-24
-11
2
-1
-29
-4
-1
29
11
7
8
-12
-23
-59
4
2
2
2
-7
-10
-7
45
30
25
33
6
1
-37
-31
-45
-14
-85
-31
5
10
62
47
80
30
99
-11
5
4
2
9
-39
19
-45
3
-15
-1
12
7
-19
-26
59
-13
3
-13
-30
0
13
-29
-81
5
6
4
-7
-27
-14
0
58
13
11
11
32
2
17
19
-16
-2
-5
-5
-13
29
34
20
-12
4
1
-5
-3
3
-26
22
1
-16
-28
-12
-44
-71
-128
-28
18
-7
-2
-2
35
99
127
10
4
7
2
3
4
-16
-37
9
-48
-3
2
8
-3
-17
-5
-6
63
6
15
-6
-15
-13
34
21
-50
-37
-5
-11
-41
-16
-8
-35
-3
-2
-7
17
50
21
-65
-24
-6
3
-9
1
20
28
108
0
85
4
23
-6
-14
-8
-32
2
-43
6
3
-5
-17
-28
-13
3
-20
0
-21
-11
-20
-22
-35
-3
15
-16
8
-2
6
15
42
21
8
14
4
1
-28
-6
52
3
4
7
-1
9
59
41
58
9
-31
-13
-1
-3
6
-7
2
18
87
-2
6
-1
-36
-22
-57
-4
-6
9
-3
-10
-19
-9
-25
-15
-3
11
9
12
37
15
-78
21
-11
6
-6
6
8
21
115
12
-56
-16
-3
0
9
2
23
15
3
13
8
2
-26
6
-6
-2
9
-22
9
-5
-9
-41
-62
0
-12
1
-1
-1
-7
-8
-26
-4
-11
11
-38
-9
1
3
46
-7
-35
-18
-17
-5
15
10
-66
13
-16
17
-2
1
5
3
-3
-15
9
18
30
4
-17
-18
-22
3
25
-39
-26
-2
-7
0
38
-1
-40
-5
-20
-14
1
2
-22
-1
9
5
-13
-8
-7
-24
-23
-45
40
-12
1
-12
-42
-4
2
9
70
13
14
8
27
35
-19
0
12
4
-3
17
59
19
35
22
8
-3
0
1
-10
-25
-11
38
-3
14
3
1
-13
14
16
-23
-15
3
-1
-11
-9
-29
-31
-12
-2
-25
5
1
-13
18
34
-14
14
12
-1
-1
10
-22
-28
-3
-41
-16
-3
-5
-29
13
39
-5
11
7
0
4
2
-10
4
-2
15
11
-1
-2
25
-22
-59
-28
41
-9
-6
-3
-9
21
21
22
13
-6
-7
-1
11
-15
-31
-2
47
-1
17
-1
-14
15
106
22
-28
-8
-15
-4
-6
-1
-53
24
-18
14
11
4
-8
0
63
-13
50
-13
-9
-4
12
-9
24
-5
-76
-2
-15
-1
-15
-31
-44
7
18
-6
3
0
23
31
28
7
23
5
-9
-3
-14
-6
-8
8
51
13
-7
1
25
23
-12
7
-12
2
5
1
-7
-19
-19
-6
33
2
1
-6
-29
-25
-73
-18
-40
-3
-1
0
-3
18
76
-18
30
-26
14
4
8
-7
-34
-9
-24
13
11
4
12
16
51
18
4
0
-10
-4
-11
-12
24
-4
-10
6
2
-3
-10
-8
-16
-4
-14
-5
-12
-3
-6
-9
-31
1
0
-5
1
-2
13
6
-28
15
-12
-3
10
4
-3
-5
17
6
-1
-10
-5
3
3
-9
-19
-5
27
4
13
4
4
30
119
1
-10
1
-6
0
4
12
38
-3
55
4
8
-4
-8
-5
-25
23
-11
-2
-2
-3
-15
9
4
13
-11
-4
-8
-6
7
-22
-22
25
-16
-2
0
5
9
4
-16
6
-9
10
1
5
8
1
11
-2
-6
-8
-13
-4
-5
-18
-25
-18
-32
5
-2
-4
-7
-5
-54
1
-14
-11
-2
3
-1
-6
-19
-17
-22
9
-1
2
-2
32
113
15
-61
-8
2
-2
7
-16
-38
10
-80
0
-7
-1
-11
15
71
-27
11
-1
5
4
9
-4
-23
2
-3
-2
-4
5
10
0
-18
-13
59
12
2
-1
-5
-1
17
11
33
-13
-7
-10
-16
-11
-3
17
3
14
5
2
5
-11
-28
-11
-44
-9
3
-3
-5
7
42
4
43
-5
-5
1
0
-1
-81
-4
7
8
0
1
0
2
-23
-3
-45
5
-1
-8
-6
-11
-34
-21
-14
-2
-3
2
-4
9
20
1
-38
1
2
-5
6
4
-7
17
-12
4
-14
6
8
-3
3
-13
-48
-38
-7
-8
-5
-5
-32
-9
27
14
10
0
-4
-20
-39
-5
-23
9
5
4
-2
-5
25
19
21
3
10
1
7
21
6
21
28
-4
-14
-5
-6
6
52
-1
-15
8
10
-3
-12
-33
-37
-12
22
-22
-14
-9
-14
22
13
10
11
15
13
7
11
-9
-38
20
-14
-7
-4
-1
10
-2
-33
-8
13
-17
3
1
-2
12
20
-21
13
6
9
6
7
6
42
-2
-17
-4
-2
-2
6
-17
3
-11
43
11
-12
-8
-24
2
-26
14
9
-8
-11
-5
-4
-6
-1
2
-76
-6
3
-4
-1
-16
-47
-64
-62
-17
-11
-5
-7
1
-11
-11
-10
13
14
8
15
12
3
-15
8
-4
-21
-5
9
-3
23
8
-3
10
0
3
-1
3
-6
1
60
10
3
-2
-2
-19
-30
16
11
7
3
0
-11
3
11
-11
-22
-11
-2
-3
-2
10
-25
31
8
-8
1
2
6
-7
-16
2
30
6
2
0
-6
-10
38
11
-37
-1
6
1
-2
-6
-36
17
-20
-9
-6
-1
1
23
79
-18
17
6
1
-4
-3
-10
8
2
58
2
-4
-1
-11
5
13
-11
33
7
0
-3
13
2
2
-4
-10
-10
0
1
3
-7
-65
-11
0
-9
0
2
-4
-6
-28
1
-27
5
-8
-3
1
-8
4
-16
19
-12
-6
-5
-7
8
34
-9
11
3
1
1
-1
-3
-9
-2
43
0
7
-1
2
-3
-16
6
-34
7
31
4
2
15
5
39
-1
-4
-8
-4
-7
-30
-38
1
-43
-8
-1
0
0
22
81
-14
-48
-7
-4
2
-2
-8
-43
2
11
9
10
-1
3
2
-27
-16
-33
2
-5
-3
0
-5
-14
-16
-53
1
4
-2
-11
0
33
-14
20
11
-6
5
14
-2
36
-9
-8
-21
-16
-6
17
17
-5
27
5
1
-7
-12
-28
-2
20
24
61
-10
-10
2
15
-23
-51
15
-38
-5
0
-2
-17
4
53
-18
6
9
-2
1
-3
-1
20
-5
15
-2
14
2
4
25
43
19
23
-9
-6
-2
-3
-17
-53
4
-22
-2
-7
-3
3
11
17
-6
-1
-5
-2
2
-1
-14
-41
21
15
6
18
8
8
13
43
2
-4
11
6
-1
-5
-7
3
8
22
-3
-8
-4
-2
3
-1
-3
-15
-3
-25
-7
-5
-11
-27
-27
62
3
1
0
-1
-7
-18
7
43
11
2
0
-5
-7
-31
-1
56
-10
7
3
5
-11
-30
-3
-3
-13
0
-2
-2
7
-29
8
-1
-5
2
6
6
4
40
-22
0
9
-2
-2
5
12
19
-14
17
-1
-2
-5
-5
2
10
29
-1
2
1
-4
-8
-14
-7
-20
44
5
-6
1
3
-10
-28
17
-19
1
-7
-5
-6
-1
23
-25
-29
-7
7
2
-1
-6
-82
-13
21
-4
9
1
1
3
6
0
40
8
-11
-8
-3
-9
-2
35
-23
10
-4
-3
0
5
25
-15
1
-2
-1
1
-1
-4
-18
3
-21
-1
-3
1
-2
6
39
-5
-51
-9
-4
-6
-4
-10
-33
-14
20
6
14
0
-4
-8
-19
25
16
8
10
4
7
0
23
31
4
-4
-14
-8
-5
-1
-63
-11
-51
-10
2
1
-1
0
13
-15
4
1
-1
-6
-20
-11
-81
9
17
8
-3
3
15
25
44
6
-7
4
10
11
12
2
31
-25
-28
-1
-15
0
7
8
27
17
43
11
12
2
1
0
9
0
14
-14
-5
-7
-15
12
8
-24
-9
7
6
1
-2
-14
68
13
-9
-2
-2
1
0
10
-26
-12
-43
-12
-3
0
2
-8
5
10
-5
1
-10
-2
-3
6
0
-3
1
14
-4
2
1
2
2
-7
-5
-8
-2
-6
-6
-6
-35
-45
-6
-3
-1
2
2
5
28
2
2
-4
5
-1
2
-12
-7
4
-15
-8
-8
-5
-7
-6
-24
9
-23
-8
-2
0
-4
9
18
-5
35
2
3
2
8
5
-1
0
-1
11
2
3
-3
-8
-37
-2
-2
-11
-15
-4
-1
-3
19
-6
-3
6
8
3
0
7
-4
-20
-2
-8
-10
-1
3
6
-5
48
-27
0
-14
0
-3
-3
25
-2
5
-10
6
-5
-5
-9
-21
-26
35
13
10
1
2
-3
-11
2
-50
-10
-4
3
2
17
91
4
-10
12
-9
-3
-4
-5
-18
-8
18
-16
6
7
2
-7
-44
-18
13
-6
-5
-4
0
-2
45
15
10
14
11
2
-1
9
-9
-28
52
-4
-15
-9
-6
-7
32
-21
-20
1
-2
-1
-1
10
-34
42
12
6
3
5
3
-15
8
12
-8
-17
-12
-7
-3
-8
-82
-46
-6
6
6
-5
-3
12
56
-1
50
7
-4
4
3
-3
-16
20
-6
-6
5
3
-2
-5
23
-6
-63
9
3
-3
-3
1
1
-7
12
-15
1
0
1
-17
-15
5
-34
-12
-1
-4
-3
16
54
-18
12
-4
-31
-1
0
-9
4
21
-8
-9
3
1
4
8
0
-13
-27
7
10
2
-2
-6
-26
14
-7
-5
2
0
0
-3
51
-10
5
13
4
-1
-1
2
-62
-2
12
-15
3
-3
-1
-8
30
-3
1
1
-3
1
-1
6
9
-7
26
-3
0
-5
0
13
24
23
5
-7
-2
-3
-5
-13
-43
-3
11
3
-1
-2
-5
-14
-78
-7
-2
0
5
1
1
21
23
17
15
-4
-12
-1
-1
-9
-34
-31
27
6
-13
-2
-3
4
-4
30
3
-8
1
-2
-5
-5
19
2
-21
-9
6
0
-1
-11
-22
-22
-12
5
4
-4
-4
7
-4
-2
-10
-5
16
-1
-1
5
4
-17
-6
-3
3
-1
-3
-9
-2
15
29
7
-3
1
-1
-15
-40
10
-20
-2
2
1
-2
-23
-14
-8
46
2
6
-1
-1
28
29
14
12
4
-2
4
2
3
13
19
-14
0
4
-1
-1
2
5
8
-12
3
-9
-4
-3
-3
13
-5
-29
-10
2
1
1
-4
-8
24
47
19
-6
-4
-1
5
35
6
-32
-10
-13
0
1
8
-9
10
-10
-3
0
0
-2
-7
-1
-6
-24
-8
-3
0
0
-1
7
1
-4
-2
3
0
0
1
-26
6
-26
10
5
3
1
-10
-45
-3
4
4
4
2
2
23
69
39
-9
-15
-8
-7
-6
-12
-5
-47
11
3
-2
1
4
4
-32
-3
-4
-6
-15
-5
-1
-6
14
8
4
2
1
1
0
4
-39
-10
-23
-2
-4
-2
-1
-3
4
-19
6
1
0
2
1
-10
-29
-17
10
1
4
0
-1
-1
34
18
-10
-9
-2
-3
-1
3
24
-4
-36
6
2
2
0
0
-5
-6
-6
-1
0
-1
-1
-2
-5
-4
-11
-11
-3
-5
-2
-2
-3
-20
17
13
-1
-1
0
-7
-10
-17
25
-7
0
-2
-2
-2
0
24
-8
-2
-5
0
-1
-1
18
8
7
1
-8
-3
-3
3
14
-6
-6
1
-6
-1
0
-6
-4
-4
0
4
10
1
0
0
-29
4
30
-2
-8
-1
1
6
30
27
45
1
3
1
-3
-4
-2
-13
-4
0
2
0
0
-3
-27
7
-3
3
-1
0
0
-13
28
-15
13
-4
2
-1
-2
19
24
6
-23
-3
5
-2
-3
4
0
-4
2
-1
-6
-1
-1
0
-9
4
10
8
-3
-3
-4
-6
2
-1
-13
-2
-6
-4
-4
-9
-2
-8
7
5
6
7
4
5
6
-15
-2
1
1
-3
-2
1
-4
-1
-8
1
-2
-3
-3
0
-7
-1
-34
-2
-3
0
-1
-5
5
-12
-8
-1
-1
0
-2
4
2
3
3
-2
0
1
-3
-4
-4
4
-21
-2
-4
0
0
3
0
10
19
1
-3
-3
-3
-4
2
-23
15
-5
-4
-4
-1
1
10
2
-16
1
-3
1
-1
0
-4
-5
-3
-1
2
-1
0
1
-3
-8
-28
-3
-11
-2
-1
-2
-2
0
23
2
-1
-6
-6
-3
-5
-10
12
-5
1
4
3
1
-5
-20
3
-5
1
0
0
2
-41
-6
8
4
-4
-4
-11
-8
30
-5
18
1
11
-7
-1
-1
-15
-4
-3
-3
8
-4
3
2
16
14
2
0
16
24
6
3
-6
1
5
0
10
1
6
-3
-33
7
-20
-5
-16
-7
-1
1
47
22
-4
-3
-24
-13
-10
-2
-15
-25
2
-7
-2
-16
-4
-2
10
1
6
2
3
9
1
-1
-6
6
-12
1
23
12
9
2
-2
3
-4
-1
13
5
0
1
0
-2
9
2
-9
-1
0
-3
8
25
0
-2
-14
-8
-5
-1
7
10
-4
-6
-10
-4
-1
-2
-7
-1
-9
-4
8
-2
-1
-2
3
3
-3
-4
-13
-4
-5
-2
3
-11
-3
-3
4
1
2
-1
0
-7
-14
-5
-3
-2
-5
-4
-3
7
2
6
7
-2
-3
2
1
2
-7
1
0
2
3
-2
4
-3
-2
-3
-6
1
4
0
-2
-1
-10
0
1
5
2
3
-4
-9
-1
1
-11
-2
-4
-2
-4
6
8
-2
3
-5
-2
-2
0
-5
-4
-1
-16
-1
-1
-1
1
2
-8
0
29
0
-2
-1
-5
-3
-1
-3
-26
-1
-1
-1
-3
-1
-2
4
16
-2
1
1
4
-3
-2
-4
-8
2
-2
-3
-2
-1
-2
-5
0
-6
-4
-2
-3
-3
-1
1
-10
-6
-1
-1
-1
1
-1
-1
-8
-1
3
0
2
-2
1
1
14
0
1
-2
1
1
-3
-6
-23
-1
-3
-2
-4
0
2
5
20
8
0
0
0
3
-5
-5
11
-4
-6
0
-1
-5
4
-1
-24
-4
-2
-1
0
2
-9
-2
-3
-6
4
2
-1
-1
-1
2
-1
0
0
0
-2
3
4
2
6
-1
-3
-4
3
-1
0
3
16
8
0
0
-1
-1
1
4
-13
-7
1
0
0
-1
1
-5
-3
8
1
-1
-1
0
-2
-3
3
2
-2
0
-1
-2
-5
-4
-15
-4
-5
0
1
-3
-1
2
18
-9
-2
0
2
-1
-6
-7
-14
-5
-1
-2
-2
-4
2
3
4
15
4
2
2
2
2
3
21
2
0
-1
-2
0
-4
-7
-24
-1
-4
-3
-5
-4
4
7
-4
4
4
2
-1
3
-2
2
-5
-2
-2
-2
1
-1
-2
-6
-42
-15
-1
0
1
-2
1
0
2
5
1
-1
0
-1
1
4
24
-4
-5
-2
0
0
-4
-7
-14
-7
-3
-1
-2
-7
3
6
28
2
2
0
3
1
-2
-6
-27
-1
2
1
-1
0
1
1
3
0
-1
-1
0
2
3
7
43
8
1
0
0
2
-8
-12
-18
-4
-4
-1
-4
-2
-1
-2
-26
-3
-5
-2
-3
0
-1
-2
7
-1
0
0
-3
-2
-2
-6
-40
-10
1
-2
0
-1
2
2
28
8
2
-3
-1
0
-2
1
14
4
-2
-1
-1
0
-2
0
5
1
-1
0
0
-1
0
-1
3
0
0
-1
2
2
2
0
-16
-14
-4
-4
0
1
2
7
34
11
1
-3
1
-1
-4
-8
-21
-8
-2
-3
-1
-3
-2
3
18
2
0
1
-3
0
-1
-4
-32
-6
-1
-1
-1
-1
0
-2
-2
-3
-3
-1
-2
-2
1
1
7
4
1
0
-1
-1
1
0
27
3
-1
-2
1
0
-4
-2
-3
0
0
0
-3
-3
-1
-6
-17
-5
0
0
0
0
1
2
17
-8
-5
-4
1
-2
-2
-5
-3
-2
1
0
0
-1
-3
1
13
13
-1
-3
-2
-2
-1
-3
7
-2
1
1
1
1
0
0
18
1
0
-1
2
2
2
-3
-25
-8
-3
-1
1
0
-3
3
51
0
-3
-1
-1
-4
-3
-6
-31
-1
-1
-1
-1
-2
-1
0
15
10
-1
-1
-1
-1
6
7
-7
-6
1
-2
-1
1
0
2
8
10
3
1
3
0
-2
0
-5
0
-3
0
-3
-3
0
-4
-13
-6
0
-1
-1
0
-7
-8
-20
-3
-4
-3
-4
-9
1
0
13
7
0
-2
3
0
0
2
21
-4
-1
-1
0
-1
-3
-3
-1
-5
-2
-1
-4
-2
5
8
-2
6
1
-1
-1
4
-9
-20
-37
-20
-8
-4
-7
-5
7
16
24
17
6
3
2
4
-11
-24
2
-14
-4
-4
-4
-5
2
2
-5
15
0
0
-1
0
5
9
23
-30
0
3
1
3
-7
-3
12
4
-1
-2
-3
-4
-1
-4
-23
-3
-2
0
-5
-3
0
-2
5
-3
-1
-3
0
1
1
4
14
8
2
0
1
2
2
-3
-25
-10
-2
-1
1
0
4
9
42
14
3
1
3
3
-7
-4
-56
-22
-4
-1
-3
-4
-2
-7
-2
5
-1
-2
-3
-2
0
0
-5
-3
-5
-2
-1
0
-2
5
0
7
5
1
-1
0
-4
0
23
7
-2
0
-2
-3
-2
0
-36
-3
2
2
0
-2
0
0
12
1
-1
0
3
-1
0
-1
-35
0
-1
-2
2
1
-3
-6
-16
-13
-1
-3
0
-2
3
5
-7
6
0
0
0
-2
-6
-6
18
6
-3
-3
-3
2
0
0
-19
-4
-3
-2
-3
-1
1
3
16
-2
3
4
4
-1
-11
-24
-44
-10
-4
-5
-3
-2
4
12
1
12
5
1
0
-3
-7
-12
1
-10
-9
-4
-6
-1
-3
-4
0
1
-2
-2
-4
-1
0
3
41
3
0
0
0
0
0
-8
-47
-15
-4
-1
-1
-2
-1
-3
-13
2
3
1
0
0
-1
2
6
9
3
3
0
-1
1
5
23
5
-1
1
0
1
0
-5
8
-12
-2
-2
-2
-2
2
6
-13
-4
-2
-1
1
-1
-4
-7
4
4
-1
-2
-1
0
-1
4
24
5
-1
-1
-1
-2
-3
-6
-30
-4
-2
-1
0
-1
0
0
10
-5
-4
-3
-2
-3
3
10
17
6
3
0
0
2
-8
-13
-27
-9
-8
-5
-3
-5
-2
1
25
4
1
-2
-2
-2
-2
-2
-18
0
-2
-1
0
-2
2
2
-21
-1
3
-1
1
3
1
4
3
1
-1
-2
-1
0
1
-3
-46
-4
-3
-1
1
0
-2
1
28
1
2
1
0
-2
-3
-7
4
-6
-6
-2
0
-3
3
2
-12
-6
3
0
1
-5
-5
-2
35
8
-4
-2
-2
-2
3
6
-1
3
2
2
1
0
-1
-4
-17
-6
-5
0
-4
-1
1
1
5
5
0
1
0
0
-3
-2
5
-1
0
-1
-3
0
-2
-2
-5
0
-2
-1
-3
-1
-4
-2
9
-1
-2
-1
2
-1
-1
0
-10
1
-1
-1
0
1
1
3
10
0
1
0
-1
0
3
1
-4
6
1
-1
1
1
2
1
15
3
-1
-3
-4
-1
-2
3
-9
-10
-3
-1
0
2
0
1
-5
-2
1
0
1
-4
-6
-8
1
4
1
0
-1
6
7
4
6
-2
0
0
2
3
-6
-7
6
2
0
-2
-1
3
0
-1
1
-5
-4
-2
-2
2
9
9
6
0
0
1
2
-2
-13
-3
0
-2
0
-4
-3
9
16
-5
-6
-3
-1
0
0
8
-32
2
-4
0
-3
-3
-5
2
18
-5
-3
3
3
2
-5
-3
-31
-20
-17
-7
-6
-3
-1
-31
6
6
4
4
-2
-1
12
15
-2
-3
6
1
0
-2
-10
-6
-14
7
-1
-2
-1
0
8
-1
17
2
-1
0
1
0
-6
-5
-3
-3
8
9
3
0
-16
-9
48
0
-13
-2
-7
6
20
16
-50
-7
-8
-5
-1
-2
-17
-11
16
-10
-9
-9
-8
-8
-8
18
-32
-4
2
-1
3
1
2
-26
44
3
-2
3
4
2
-16
14
-37
8
-13
4
1
3
36
-8
63
1
42
3
-2
1
19
53
-5
8
10
-6
-5
-2
-15
-24
21
-16
12
-8
-3
-2
13
2
-45
-10
-2
-1
6
1
-17
-33
-4
8
33
7
2
5
21
45
-33
8
7
0
-1
-8
-23
-62
8
12
-2
-2
4
3
-9
-31
27
-12
2
-12
-9
-5
35
19
-17
1
-22
0
2
-4
-39
-54
62
10
-6
-3
-3
3
53
62
-67
2
-8
-6
-6
3
-3
-39
22
16
2
0
-4
-3
-27
-2
-44
-23
-4
9
1
0
8
-17
28
18
-7
1
6
3
7
-2
25
-6
11
4
10
5
-35
-27
-31
1
8
2
12
-15
-27
39
-31
0
-33
-11
-37
9
27
-11
-78
-18
0
3
22
-6
1
-47
-30
29
12
14
20
-6
-1
-26
52
-43
-1
1
6
24
13
-48
7
1
-5
-8
-3
6
25
17
17
-4
-1
-3
-27
-13
-61
80
-64
-2
23
6
8
-6
69
2
-7
-10
-46
-20
-11
2
-8
15
-14
5
-8
-4
-2
-6
5
-34
5
-9
9
-2
-8
-3
4
-16
40
7
9
-1
-16
2
-8
33
-77
-3
15
4
-5
-14
17
-23
-26
7
-3
10
19
8
-19
30
73
-9
-14
-6
8
12
-25
-23
-30
-36
-16
-7
4
-19
-51
-8
47
8
3
0
-18
12
19
3
0
10
-5
-4
-7
14
20
-14
-39
4
-4
3
-2
-5
-18
-16
7
-3
-9
8
55
25
11
-6
68
7
-6
1
-20
-15
-52
16
66
-6
4
-1
12
-44
-37
55
48
-3
-9
-7
-37
18
60
-25
-41
-27
-13
-10
-22
-6
-55
-51
82
19
8
-1
-7
14
90
2
-19
14
13
11
18
-5
-20
-30
-54
-21
-41
-10
7
-3
46
-42
16
8
-3
-8
-31
-30
-44
-36
-24
1
0
4
15
17
-42
-26
-45
-11
4
-2
19
26
46
30
98
22
16
5
3
3
-22
36
41
0
-1
-1
-19
-2
40
25
-98
-8
6
-4
6
5
25
71
69
11
-4
-3
5
-27
-2
-86
-20
-3
0
7
13
-4
-25
-32
-5
11
-3
-3
-19
-12
27
19
31
2
9
-2
-40
-8
-20
15
17
10
-8
-1
57
66
30
22
12
6
10
13
21
-11
12
20
72
-2
-5
-1
-22
-25
-50
65
66
-8
2
-4
7
23
43
-11
-21
-19
-19
-17
-53
-39
-38
-40
-42
-23
-4
-3
8
-4
-49
15
-88
-4
1
-4
-4
31
43
-24
-18
3
0
13
27
-23
4
22
-47
8
-2
-3
-28
-5
-62
20
-38
-9
-2
-3
33
47
106
-1
-73
-13
-7
2
-11
-31
-27
-22
82
1
6
-8
11
11
1
-13
-83
-15
-3
3
-9
-20
14
3
-19
16
0
5
-19
18
-7
24
99
4
-5
6
52
2
-5
16
-37
-6
-5
-11
-36
-38
-65
-45
-35
-17
-4
1
3
-41
-24
17
5
3
-3
-8
-56
9
-34
-43
12
4
-3
-4
54
79
103
45
36
-1
8
4
6
-19
-51
18
-28
6
-1
10
39
11
9
-4
0
17
12
1
-52
-40
-68
41
-4
-2
6
1
7
-28
-30
-21
-53
1
-3
-4
-8
46
79
-13
122
17
10
-6
-35
3
-52
49
-1
-18
-9
5
25
-27
-7
-24
33
12
-2
1
3
-18
86
44
50
2
-5
-3
-9
36
78
53
4
1
-3
6
28
51
-42
-65
-6
-3
3
-2
64
-2
-24
45
-66
3
-15
-9
-50
-28
-105
-20
-20
9
2
-15
-75
-37
-21
-32
54
21
1
-13
-43
10
65
40
-18
-16
-5
28
86
37
60
-1
-36
-5
3
8
30
-13
-41
-19
-93
-18
-5
1
2
-3
-29
-12
-38
-8
1
-30
-61
-70
-27
-31
60
4
-4
-15
-38
20
59
-9
40
16
23
13
29
30
59
-33
-24
0
1
26
74
-5
-58
36
-7
-25
-18
-3
15
-2
28
5
-102
-10
17
-21
-62
-45
-75
16
28
-9
-6
-19
-75
15
120
48
45
12
2
12
29
-21
-22
-37
-30
-9
-4
6
7
19
21
63
-6
-5
2
1
45
-9
32
16
-29
8
9
12
-13
-10
-71
26
22
1
8
2
47
5
-65
40
-13
10
-3
7
5
39
80
-10
27
-8
11
-10
-52
1
-20
54
52
6
-14
-13
-51
-32
-17
22
3
16
-4
-4
-26
-11
-27
6
30
-15
-1
21
100
20
-26
-7
6
15
0
7
-6
-2
-21
14
-50
-20
13
-19
-10
19
-13
0
-4
-11
-18
-14
-55
-71
51
0
-44
3
-7
-16
-47
-13
25
-11
58
23
-5
15
48
59
-50
38
11
-6
0
22
62
-4
-61
34
-30
-1
6
-6
-26
-2
20
-82
68
12
27
-2
-38
-53
31
-25
25
-11
-27
-5
22
14
-30
4
-88
1
-2
13
30
33
43
-36
44
11
-1
-4
8
24
59
17
38
-10
0
-3
-28
-39
-31
0
2
0
-2
-26
-66
-28
-19
23
-50
10
2
1
-7
22
24
-23
-40
-12
-10
6
58
4
22
42
21
-6
10
0
-14
29
15
-1
-10
-8
9
-10
-54
-24
1
-6
12
-14
-3
15
79
24
32
23
-24
9
15
18
49
27
40
-16
15
-4
-6
1
0
27
10
10
-4
13
-1
-6
-2
-46
-62
1
77
0
-1
-26
-85
-24
24
29
22
5
-17
-12
-28
3
-32
11
-2
-3
-9
12
49
-1
-64
-7
-23
-2
4
4
-8
-2
71
-46
24
-3
-3
7
9
-13
-70
22
7
-1
-17
-9
-3
-16
-13
9
-21
3
-8
-10
-3
16
-21
38
9
-6
-6
-1
-4
-19
93
-3
16
3
-2
-3
-2
4
-83
-61
-40
-6
-1
-10
-18
19
-27
-2
-9
8
7
9
32
-11
-57
-11
-14
-2
0
5
-13
-1
42
-30
19
-4
0
-1
16
-12
-9
21
38
-13
2
-12
-52
-12
52
0
-30
4
0
0
-8
2
-32
-23
-32
-8
2
16
93
37
22
-49
-15
-4
-1
-1
-35
-23
-58
-22
-36
6
11
7
30
-1
-16
13
23
-1
-11
-9
-56
1
34
4
10
0
-2
0
13
-3
-2
14
-14
-2
-7
-2
15
11
35
-18
-3
-5
2
1
-5
-25
-39
14
-43
-1
-4
-4
-2
39
34
-18
30
-8
4
-2
-20
-23
5
0
-11
-22
-25
-2
-2
28
24
2
11
15
20
11
32
13
7
-28
2
-9
-18
-1
-9
-20
14
5
-10
12
3
5
3
3
0
-14
4
-9
26
-6
-14
-16
56
5
8
-1
-10
-3
-36
-34
-78
-23
-39
-14
-2
-1
47
40
32
-4
-14
-1
-5
-1
16
4
-13
-12
38
10
5
-3
-36
-10
-12
-12
-56
-7
-2
6
4
13
37
1
28
3
5
-5
-2
-21
-5
-41
-2
5
2
1
-13
-5
-11
11
-78
-4
0
-3
-13
-22
2
-11
5
-15
-7
-1
-16
0
-25
-4
53
-1
6
5
37
54
15
12
-40
3
17
5
68
13
-26
19
-9
10
-9
2
-25
-16
3
-4
21
-10
-10
-16
-51
-70
-23
23
-20
-9
-1
-2
-12
20
-21
-17
22
-6
-12
-15
-7
23
-19
-10
-8
17
6
5
-6
-7
-20
-22
0
-11
5
12
45
23
31
-1
24
-12
-14
-5
-22
-36
2
24
-56
4
1
-2
-18
-17
-39
4
-25
21
1
-13
-3
14
49
-22
20
-11
-4
-3
-2
24
-9
-9
21
3
9
11
16
-26
-17
30
-23
-5
-3
0
2
0
24
-11
-16
3
-3
-9
-44
0
-35
-2
30
18
9
5
35
19
34
9
13
9
5
-10
-2
-21
-41
28
2
0
-25
-8
-72
2
73
-47
37
3
0
16
101
47
20
5
-21
-9
1
15
49
25
5
-38
1
3
14
-2
-36
-20
-5
-4
37
2
-3
-12
-36
-28
-3
25
4
-7
-9
-7
-30
-26
-30
0
47
1
6
-1
2
11
1
0
21
0
-10
-1
20
3
24
26
-52
-3
10
2
-11
3
-17
-2
-22
-27
-11
-3
7
-11
9
-2
-37
5
3
-16
-61
-22
-20
-15
-17
15
9
17
44
20
11
-10
50
2
8
11
49
16
-54
18
25
-5
-9
-2
-9
-10
23
-26
-82
-1
-9
-11
-65
-8
24
0
-22
1
5
-2
31
0
-34
-39
33
-2
-8
11
28
0
1
9
20
-11
-14
-5
20
8
-7
-2
-25
4
15
-7
-35
-22
-53
-2
-58
-8
-10
-15
-51
-26
65
-7
19
-12
3
4
3
4
-11
-26
-9
-4
-2
9
61
10
-9
22
26
12
-7
-2
11
14
-8
12
-54
-10
7
3
-2
-20
-15
-43
-3
5
-9
-21
-73
-46
1
-29
50
4
1
-6
-34
44
-2
25
-19
-6
-22
10
74
-6
20
-6
64
11
4
3
29
40
19
12
62
9
6
-3
-34
10
0
39
-37
-4
3
11
27
-11
34
-4
26
3
13
3
5
-14
5
43
10
-20
-45
-17
-27
-20
-25
-19
-88
-5
0
-11
-42
1
17
26
26
-1
-9
3
23
-4
4
12
9
-2
7
-1
14
7
-2
0
-18
0
-6
-1
-37
-9
-2
3
18
15
-2
2
44
39
61
1
6
6
10
0
-4
-10
-19
12
0
-7
-3
2
13
-24
-6
-16
69
15
11
-9
-49
-7
-20
20
23
-1
-7
0
-18
-1
-37
-4
-23
1
5
2
52
-1
53
4
84
11
1
7
-17
10
17
43
-55
-12
6
18
57
38
49
-3
35
-6
-8
0
13
-17
-27
-16
39
7
9
-13
-50
-31
-57
6
-37
-7
-7
-11
-11
27
-5
-49
3
0
-3
-4
-26
-3
28
22
-26
-5
2
5
9
-7
17
8
30
15
5
1
17
19
-71
-5
-31
-1
-1
-3
-14
5
46
9
16
-18
10
1
23
-22
-20
-17
-27
-7
-6
-11
-37
-15
-32
-23
-16
-1
7
9
-4
-6
22
3
11
14
1
0
-2
21
-25
-3
-67
10
1
12
72
27
28
15
18
-12
4
6
7
11
-14
-3
-26
7
10
-6
-38
-32
-64
-14
19
-10
-46
-12
-27
-2
58
-2
48
2
21
2
-36
-23
25
30
-63
-7
-6
-4
60
15
12
-9
-54
-7
7
8
-4
4
16
-12
2
5
-2
-3
6
-7
-8
-4
-17
3
2
-15
-58
-25
-60
-14
7
3
10
5
7
13
4
-23
21
-12
-4
0
28
12
28
4
36
-7
-5
0
3
4
-37
-8
-3
0
1
0
16
-2
-59
-14
-27
3
4
-6
-64
-41
2
3
-9
4
-4
6
41
44
6
-5
11
-16
-15
1
20
-6
-34
-26
-31
10
-1
-5
-22
-14
10
-21
-27
-3
22
10
19
-32
-30
-45
38
-1
-37
-18
-53
5
4
-26
-3
-13
-2
-6
13
0
-5
14
12
9
-4
5
18
-1
10
7
-6
-14
-7
-4
12
6
13
43
23
-3
8
-4
-36
-17
-3
7
-11
-9
-1
-9
-7
-4
-54
16
-35
-9
-8
-1
-4
-3
4
-63
90
1
7
8
12
8
-32
22
-4
1
2
0
8
-17
40
-3
10
8
7
-2
-18
5
21
12
11
-12
-6
-7
-35
-1
12
24
-20
10
-5
5
24
-2
12
-4
-37
-3
0
1
32
27
-9
26
-18
-6
6
14
30
8
30
-7
-9
9
2
-1
-44
-25
-25
13
-1
1
-7
-8
6
12
13
-26
-8
-14
-8
-12
-23
-9
-3
-14
7
18
11
9
26
8
-62
-10
-21
-13
0
-12
-6
-43
-18
-9
-22
-3
-17
-9
-53
-2
-29
-3
76
-2
8
11
58
41
7
16
-14
4
11
4
8
-4
18
0
72
-10
-16
-11
-18
5
14
18
12
3
-23
3
24
-7
29
7
-14
7
15
-5
-42
-16
-17
9
-32
2
3
2
-3
-3
23
-3
-8
11
-2
0
16
11
-35
-13
13
-8
8
-5
-9
-10
33
26
16
-3
-12
0
-25
1
-5
-19
-26
-3
5
-4
8
-13
17
10
-4
-10
-16
-4
7
2
6
6
-22
4
6
4
-11
23
13
-17
11
-5
0
4
44
-10
-54
-4
22
-14
-8
-3
-16
0
27
10
-13
15
15
8
1
4
19
5
-18
-4
-5
-8
-9
2
-15
32
30
2
-11
-2
-11
-14
13
-3
-4
7
5
1
-3
-7
-32
-20
-2
-7
-20
-2
12
11
32
12
-47
-3
2
4
30
19
-34
-28
18
5
-2
-2
-23
-15
2
15
30
9
4
0
5
-5
19
-11
7
-1
9
9
-6
13
-28
26
33
-7
-1
-2
-3
-8
-47
-19
-44
-1
-3
-9
14
-8
11
11
32
10
-40
-5
-20
18
50
-11
-10
-3
7
1
8
-5
16
-1
4
-3
-13
-5
-13
-8
-15
-12
-5
-5
15
-2
-17
-10
31
14
14
-3
3
2
12
18
-4
18
-11
5
-4
2
14
11
-11
-4
-26
2
-8
0
13
-3
24
11
-66
-12
-17
-4
-36
-15
-1
-17
34
-3
2
-13
-19
-7
-6
4
25
-5
1
5
16
-4
-1
-7
-32
7
-10
6
1
7
0
3
-18
-12
8
5
43
26
-15
-23
-24
1
16
6
-7
-13
-19
7
-21
-12
-5
-3
-1
-12
-14
11
19
9
20
0
-17
14
67
22
-11
15
-11
-5
-25
-9
15
16
-37
-26
-26
-7
7
9
-17
-2
-40
-5
-5
0
2
-2
-14
-13
38
3
7
-2
5
-14
-12
25
-21
3
5
-2
-5
6
11
-30
-18
-3
14
4
-3
-8
6
-6
23
-2
0
3
-1
5
27
6
-30
0
-3
-1
13
8
-15
-11
-37
-5
3
2
-2
-3
-26
-25
57
7
-8
-3
-12
-18
6
-2
3
8
0
0
5
25
17
-9
32
-12
-1
2
9
-4
-2
-5
35
-2
-5
-7
-14
-9
-7
17
-36
5
3
1
-3
12
19
-20
-2
1
3
0
4
-9
-37
-25
-2
5
3
3
5
8
12
-7
46
1
6
1
-9
-7
-12
12
4
-7
5
-1
1
6
7
10
5
-6
-4
-6
-1
-2
-37
1
12
5
2
-1
-1
-5
-36
-10
-4
-3
-4
-3
-9
-9
-2
-5
-11
3
4
-2
2
-3
0
9
19
-6
-3
-1
-3
-5
-33
-5
1
-7
-1
-3
-2
-1
48
1
-26
-1
-12
-5
-5
3
-1
12
-7
5
-2
1
2
-9
-21
4
-17
-16
7
3
4
13
38
-23
15
7
-2
-1
1
-8
-24
20
46
8
1
0
-5
-6
11
2
-3
11
2
-2
-1
3
22
5
-11
-2
6
-1
7
2
-2
0
-20
-13
7
5
4
-1
46
-4
-21
3
-14
-5
-5
2
-24
-8
8
-13
5
-6
-13
-1
-32
26
36
9
-13
1
5
0
19
8
-14
-10
0
5
4
-20
-30
-10
-22
-4
5
4
3
26
45
6
-2
3
0
-6
-3
-12
-27
1
-37
-3
-2
-8
-17
-6
-4
-7
6
5
-2
-4
-3
-1
-32
-6
14
4
3
8
19
-9
-20
12
-45
-9
-2
3
10
4
-1
-42
-35
-1
-4
-1
-12
11
23
-25
7
-8
-5
-3
9
-5
-36
-23
-2
-7
-13
-6
-12
-8
0
7
7
-2
7
2
-1
1
1
17
4
10
-3
-3
0
-8
14
13
-3
0
-10
-4
-9
5
28
-9
-10
-2
0
-1
-1
7
-2
39
42
3
-2
1
3
10
30
4
-1
-1
11
3
2
-13
-20
15
23
5
2
-1
2
12
-4
12
-2
-12
6
-1
2
-4
10
-10
-26
-3
-10
-3
-11
-6
-10
-2
32
9
-5
-1
4
1
-13
-1
16
1
7
5
8
3
26
7
1
5
0
-2
-6
-4
-2
-7
-18
-1
1
-2
-5
-1
-33
-19
-9
-5
-1
-1
7
2
31
2
54
7
-6
-3
-13
-7
-4
29
-33
3
6
6
4
2
0
-6
-2
-7
3
1
12
-8
12
-8
7
-3
-20
-5
6
4
-46
-5
1
3
-5
-5
-5
8
31
-1
11
-9
1
1
-8
-8
-19
-12
-21
-7
3
2
-4
2
58
-25
0
3
7
1
-4
-9
-65
5
-17
-1
-1
-5
3
-4
-14
-3
6
9
-7
-2
3
6
19
-12
-16
-9
-1
0
2
-2
-18
-10
12
-1
4
2
-6
0
13
-4
-24
-8
-3
-5
-8
-4
-11
-2
-10
9
1
-1
6
0
-4
-2
14
4
-3
0
2
-1
-6
32
-3
-10
-3
0
0
0
8
11
-8
-2
-2
-4
-4
-2
4
-1
-10
-3
-2
-2
-7
-5
6
1
-2
3
-1
-4
-7
1
-15
7
5
3
-1
-1
-7
-1
12
0
-13
-1
0
3
9
0
-5
-10
9
-8
-3
-2
3
-2
-2
0
-15
2
-1
1
-1
5
2
-9
28
5
2
-1
1
0
9
-15
-3
-5
3
1
-5
-3
-7
-7
3
-1
-3
-3
-6
-3
0
-4
3
1
-4
-2
-2
-2
-10
2
-16
-1
1
0
2
2
3
-1
-8
-3
-4
-2
-2
-3
-7
3
12
1
-1
1
-2
0
6
6
-1
0
-3
-3
2
1
-13
-3
4
2
0
6
0
0
-3
4
-1
-4
-6
0
1
-3
-2
0
0
0
-2
-3
-3
0
0
0
5
-1
-1
3
1
-1
-6
0
-6
-1
-1
-5
-4
-2
5
-4
-5
2
-1
-1
-7
-1
0
-1
-5
-3
-1
0
-6
-2
2
0
0
0
-3
-2
1
-3
-13
0
-1
2
-4
3
6
0
2
2
-4
0
0
4
2
4
8
-3
4
-2
-4
-6
-3
-3
5
-1
3
1
-1
-3
-4
-2
-5
0
-5
-3
5
-1
-2
-2
0
0
0
2
8
-4
-1
-7
-4
-1
1
-8
-5
-1
-4
7
-9
-2
-1
-2
2
-6
-1
-1
17
-1
-2
3
12
3
5
-3
-3
0
0
-2
-15
1
3
2
2
0
5
8
36
6
1
-5
-6
0
-2
-4
-17
1
-8
-2
-12
-3
-5
-12
-29
-30
-10
1
1
-1
2
7
16
3
3
0
-3
1
-3
-2
-11
4
2
-2
3
-3
-1
0
25
-2
-1
-1
-1
-4
-2
1
8
9
-2
-1
3
-3
-2
0
-13
-7
-4
-1
2
0
-1
-1
0
-3
-3
1
2
-1
1
0
-18
0
1
1
-2
1
0
3
10
1
0
-1
-3
0
-3
-3
0
4
-1
0
-3
-3
1
-2
-7
1
-1
-1
2
0
0
2
-3
1
0
-3
-3
1
-2
-5
20
0
-2
-1
0
1
1
-1
-6
-4
-4
-1
2
-1
-2
3
-10
-4
0
-2
2
-1
-2
-5
-10
0
6
0
-2
-1
-5
-3
-15
-7
0
2
2
-2
-1
0
-3
0
-2
0
-1
-2
2
1
20
-5
0
0
-1
0
5
4
12
19
0
-1
1
3
-6
-15
-34
-17
-9
-5
-4
-5
-6
-11
-33
-13
-3
-3
-2
-3
2
6
0
3
-2
-1
0
1
0
-3
5
-1
-1
-1
-2
1
1
4
15
15
0
0
0
0
-2
-5
1
-19
-5
0
-2
-2
1
-1
-12
0
9
3
5
1
2
0
7
4
5
1
-1
0
3
7
-6
4
2
-1
2
0
-3
-5
1
9
1
-3
-1
0
3
7
34
10
-2
-2
0
1
-7
-3
2
-10
-7
-2
-3
-3
1
0
-9
-3
-3
0
0
1
0
0
21
5
5
2
-1
0
-3
-1
2
-5
-3
-2
0
-2
0
-5
-19
-7
0
1
0
0
-6
-6
-15
-5
-5
-4
-3
-3
2
6
9
8
1
-1
1
-1
-2
-8
-18
0
-1
-2
-2
-4
-2
-2
1
-10
-4
-2
-3
-2
5
9
45
13
4
1
2
2
-5
-12
-44
-3
-1
-1
-2
-1
-1
-2
18
0
-1
-1
0
1
-1
-3
-17
3
-7
-2
0
-1
2
5
9
-10
6
0
0
2
-1
-3
-11
5
3
0
-1
-1
1
0
-11
-7
-2
2
0
-2
-2
0
-14
-5
-1
-2
0
-1
-1
-6
-11
3
-2
-1
-2
0
4
8
44
11
2
1
4
2
-2
-6
-37
-7
0
-1
0
-2
-3
-2
-8
-3
-2
0
-1
-1
0
1
12
8
0
-1
0
-1
-2
5
20
0
-4
-3
0
-1
-4
-11
-17
0
-2
-1
0
-1
-1
-3
19
1
-2
0
-1
-2
4
9
30
-7
1
2
0
0
-2
-12
-60
-13
-2
-1
-4
-2
-1
-1
-7
-1
0
0
0
0
1
5
12
2
-1
-1
-2
-2
-2
-7
-30
-4
-2
0
1
-3
2
9
45
0
-1
-2
1
0
-3
-5
-8
-10
-3
-1
-2
-2
-7
-12
-55
0
-1
-3
-4
-4
-2
-5
-29
3
-1
-1
2
-4
-1
2
-3
-3
-1
1
0
-1
-1
1
14
2
-5
-4
-2
2
2
3
22
-6
0
-1
1
1
2
5
-11
9
2
-2
-1
-1
-2
-7
13
0
-1
0
3
-1
4
9
8
7
3
0
1
2
-2
-6
49
17
-3
-2
-2
-1
-5
-4
-30
-15
-2
-1
-3
-1
0
4
33
11
2
0
-5
-2
-5
-12
-44
-11
1
2
2
-3
1
-5
25
-3
3
-1
-1
0
8
10
-14
11
3
0
1
4
-15
-25
-44
-34
-15
-9
-9
-8
4
17
72
10
4
2
-1
2
-8
-15
-25
-9
-4
-3
-2
-3
-6
-3
-19
-18
-6
0
-2
0
5
4
10
2
3
0
2
2
3
7
3
5
1
-1
-1
-1
3
6
8
2
2
0
-1
0
0
0
29
3
2
0
0
0
0
6
-6
11
0
0
2
1
-3
-11
-28
-8
-4
-2
-2
-3
0
7
5
2
2
-1
-1
0
5
3
2
6
1
1
-2
0
-5
-4
8
4
-3
-3
-5
-6
-3
2
5
5
-3
-1
0
-2
-8
-21
-63
-21
-8
-4
-4
0
0
6
23
12
1
2
1
1
3
-2
-25
-8
2
0
-1
0
0
-4
6
-7
-1
-3
-2
0
4
10
-3
-5
0
2
5
-2
-3
-13
15
-7
-8
-4
-6
-3
-1
2
-1
14
1
-1
-1
-1
-4
-9
-23
-4
-6
-8
-11
-7
4
2
10
1
5
6
20
2
-5
-11
57
-4
-4
-4
-7
-1
5
4
6
3
2
6
19
5
-1
0
-13
-4
-1
0
-56
-2
4
11
18
6
1
-2
9
-2
-2
-5
-13
3
2
-1
9
2
1
-10
19
3
0
-3
-10
1
-3
-3
-18
-18
-5
4
16
0
0
-1
8
10
-2
-3
-8
-1
1
6
-20
-1
-1
-1
-13
-2
-1
-5
-20
-29
-3
-2
9
-2
-2
4
31
5
1
-1
-4
-2
2
-4
-47
-8
0
1
-3
-2
1
3
-10
5
-8
-5
7
0
0
6
31
9
4
0
-17
-5
0
-7
-19
-3
9
0
16
2
0
7
21
1
0
-3
2
2
-6
-4
-2
4
-1
0
-8
-4
4
11
1
5
-5
1
-6
2
-2
-3
-20
1
-2
-3
7
-3
-3
-3
2
-6
-2
-2
-23
-2
0
-2
-5
-1
3
4
36
0
-6
-6
-19
-6
-6
-4
-34
-7
2
-2
25
-1
1
1
11
1
-1
1
9
15
0
0
-8
0
0
-2
10
-12
-1
-1
8
-1
-2
0
-5
7
2
1
12
0
-3
-3
6
2
-2
-1
5
-2
4
4
-8
1
1
2
5
2
-4
-7
15
1
-1
-1
-26
-3
1
-2
-19
-1
0
-1
22
2
-3
-2
-6
-4
-4
-6
-11
-4
2
11
13
5
1
0
1
-1
-2
-12
-38
-10
1
-2
-7
2
0
4
5
-3
2
2
-3
1
-2
-2
27
1
-4
-2
0
-3
-4
-8
-13
-5
0
2
11
0
-1
4
-1
1
2
-1
-11
-1
0
0
-13
-4
-2
-4
-3
-1
1
2
-8
-1
-3
0
-1
2
-5
-3
10
-1
-4
-3
0
-4
1
2
6
3
-1
1
-3
-1
-1
-5
-20
-5
-2
-1
10
2
1
8
11
0
-4
-1
-3
0
-2
-1
-14
-7
-2
-2
-4
0
-3
8
11
3
-2
-5
-6
-6
6
-3
10
5
-2
2
2
6
1
-3
-34
-6
-3
-3
-1
-2
-5
-1
29
-3
-1
-2
-9
-3
-12
-3
-3
-1
0
-3
-25
0
6
-2
-15
-8
-3
-2
31
-4
4
-8
3
3
1
0
9
-1
0
1
0
-1
1
-2
7
1
-17
4
-2
2
1
2
0
-9
45
2
12
-1
-2
-7
-35
1
-5
1
-3
-3
-2
8
17
-2
-13
-5
-2
1
3
2
14
-3
-9
-2
-5
2
0
-3
-22
-13
2
-12
1
-1
-5
-3
10
1
-13
-14
-2
0
-5
-1
9
6
6
7
-8
-2
-2
-3
-13
5
21
14
-6
1
3
3
8
-5
-45
12
14
7
5
0
-2
-20
34
-9
-20
-5
-7
-5
11
-3
2
-8
17
0
-1
-4
-33
15
42
-16
-20
-3
1
2
8
24
-65
13
12
-1
4
0
-5
-13
-36
3
14
11
6
0
-14
-7
34
-3
-7
-2
-1
3
21
19
-22
-3
17
-2
-5
-3
20
-16
3
5
-21
-8
-4
-3
-14
3
-20
9
10
1
-3
-7
-55
-6
2
10
0
-1
7
12
29
-26
33
12
2
-2
1
-6
23
65
-33
-16
16
4
2
4
13
-14
31
11
-15
2
-1
0
20
21
-21
1
0
-3
-16
-12
-30
-32
-2
-12
-8
-7
0
2
8
-60
36
14
12
8
16
2
-19
-10
24
2
-2
9
-8
-6
-21
11
-69
-51
-33
-14
8
-12
18
-34
38
7
18
-2
-15
-4
8
19
-10
-14
-7
-16
-27
-9
-9
-5
-20
2
5
-6
0
8
-50
-14
37
13
24
17
23
20
23
41
27
13
13
13
6
-12
-20
9
-20
1
-25
2
40
10
-11
23
-36
-18
-8
-15
-37
1
34
2
3
6
8
2
-4
-42
-30
81
-72
-8
-14
-10
-38
-6
-28
-56
40
1
12
-2
13
21
-26
-10
38
4
9
8
-9
12
40
-48
-109
-28
0
-1
42
-40
-2
8
-28
-7
-2
0
-2
42
-81
-54
20
-17
-10
-3
-13
-35
-44
54
57
-6
-2
-9
-9
-21
2
-10
10
-1
-12
-4
-47
23
-7
25
-21
-1
-18
-7
17
-26
77
-3
-55
0
-13
-12
-13
1
-30
8
-47
20
19
22
-16
16
-49
24
127
35
12
22
65
18
-58
-77
-31
-31
-31
-5
46
49
100
-50
-53
-15
4
-2
-47
-50
6
41
48
9
-14
-4
-1
18
5
83
24
-2
7
-2
19
12
27
12
42
18
23
-6
-56
-52
-26
59
-79
-34
-5
-18
-71
-60
67
-55
71
24
12
6
33
56
-30
40
60
2
-19
8
59
23
-120
1
-74
-23
0
8
71
26
-55
0
83
25
20
-15
-84
-17
66
68
-100
-6
-4
-28
-38
-22
-23
-96
-10
16
20
11
-42
-43
125
29
21
-4
-22
14
67
24
-115
63
-13
15
7
24
81
8
63
16
-17
-40
-5
-1
87
89
-57
-43
52
0
7
-14
-79
-37
-39
-19
-83
-18
-7
15
-32
-52
43
42
118
23
23
8
-75
39
-77
-16
-116
2
-6
0
28
47
127
-19
-21
-8
18
11
85
19
-1
-11
-44
18
-15
-8
-108
-94
43
-4
53
-44
-42
-41
25
11
-26
-73
23
17
17
-7
-120
-65
39
17
13
-17
-29
-15
-79
106
-113
-28
20
37
41
30
118
32
85
40
-98
-14
0
12
47
-40
-53
-71
34
20
-12
2
28
-24
-58
19
-68
-17
13
-3
-52
-19
127
2
80
15
-2
-28
-67
-26
-82
17
-46
-17
-36
-12
-11
29
50
-10
51
-35
-12
-15
-69
-58
-37
-2
-2
21
15
9
77
18
-22
4
49
3
0
0
23
56
-63
-30
-20
-3
10
6
47
11
-44
41
-61
-6
6
-5
-53
-13
8
-10
58
-2
-36
2
-14
-23
6
90
60
8
5
-24
1
12
-126
37
40
5
12
40
68
28
73
66
88
-16
12
20
68
-14
-49
47
18
9
-19
-18
-62
-16
59
69
6
-11
5
-11
-29
7
-33
10
70
0
-33
-20
-51
-12
-90
-6
23
34
-7
9
65
23
33
7
-48
0
9
-2
-38
-48
-17
-90
54
-45
-5
-9
9
29
127
-23
-39
11
5
-12
-83
0
-35
-4
-121
-11
15
16
85
14
-93
-30
-97
-27
1
-2
60
44
60
-5
-62
-10
-31
-24
-101
-65
97
-27
39
6
15
-8
-51
-25
-53
-42
-11
-14
-20
20
58
6
106
39
30
26
35
14
28
51
-6
-51
36
9
-2
-3
-6
15
28
30
-44
0
-23
1
0
-46
12
34
-14
24
19
5
-51
-10
56
-46
35
-4
13
-3
12
-42
-63
30
14
10
25
-9
-64
-53
-111
-25
-65
9
8
-3
-38
102
127
32
55
3
6
15
92
24
-89
33
38
-24
-10
-5
-19
-16
-12
-39
3
11
3
2
-6
2
-23
-12
-44
11
22
-9
-38
-21
-68
-13
32
-12
-35
-12
-40
-57
-83
12
-80
-25
-20
-5
23
40
53
-9
-68
-4
-23
-18
-66
-11
-74
-73
119
10
15
16
87
61
116
43
33
-5
-1
15
7
-82
34
-3
25
23
2
-4
-36
4
-7
28
-10
4
9
14
39
24
-42
-45
-44
-10
-9
5
91
25
-9
-45
46
-2
7
-18
-73
27
105
-13
-67
-7
2
14
20
-53
-56
-21
-25
-10
5
-2
-56
24
99
13
-11
-3
-18
-1
5
2
-53
-13
-16
-16
1
-9
20
-20
-56
4
-33
14
-23
-7
-9
9
-47
-26
24
4
-4
10
21
3
-37
-9
26
-25
-3
-8
-31
-36
1
-18
-38
9
5
-12
-10
17
44
-2
33
-1
-14
-9
-63
-50
-128
31
-65
0
2
8
86
72
96
25
10
10
22
12
15
-17
19
22
-51
-6
-9
-6
-6
-4
-81
-23
-73
1
-20
-13
-24
25
93
42
45
-2
14
-6
-17
-33
-29
-35
26
0
1
27
38
27
70
-12
10
-11
2
-6
-48
-14
-76
41
-8
-4
2
9
34
4
-51
-36
79
9
10
9
60
34
61
34
-35
7
8
-17
-58
-36
-20
-9
49
1
16
2
-19
15
30
1
-13
8
5
11
63
-4
-62
0
31
0
-18
8
14
18
84
16
4
-26
18
0
9
-16
-29
-2
9
3
-7
-16
-65
-23
4
-38
48
18
15
-15
-61
-5
22
1
-68
-18
-6
-3
10
-64
-127
3
4
19
-17
7
21
40
-55
0
25
-27
3
2
9
21
29
-3
76
-5
-15
-2
25
16
83
-30
-8
0
-2
-3
-29
-36
-56
4
45
-4
-27
-6
-22
-9
14
0
-22
11
-20
-1
24
25
-78
-7
81
4
18
8
-13
-23
57
14
19
-12
-38
-7
25
36
-16
-15
-23
18
-5
-7
-31
-35
-53
-24
-7
20
-6
15
62
4
-47
-19
-14
-35
-4
-1
-14
19
79
6
2
-1
11
-1
-24
-18
-7
7
-11
-5
5
-4
2
-14
7
16
-25
-4
-8
-5
-25
23
5
23
13
3
-1
-7
-1
-2
-34
42
-32
-1
-14
5
10
-1
-14
1
-42
1
6
2
19
20
50
40
-10
-15
-11
-9
-24
-43
-9
-2
-21
-2
6
-8
-23
-7
13
-23
11
5
13
12
48
65
3
10
-30
-6
-7
2
26
-14
-40
-22
18
18
21
2
-57
-31
42
19
-11
-4
-2
-12
11
-9
-42
-23
-24
7
-10
-1
-35
-2
-16
-20
65
5
-5
6
40
26
-41
-38
-14
0
19
14
70
5
-1
14
33
-15
11
-1
-41
-2
0
-2
-56
6
-23
-13
-19
-37
-26
0
40
-5
3
-17
-53
3
56
47
4
2
-10
-4
-34
8
53
20
39
20
-3
12
73
28
-26
36
-14
-8
3
10
10
8
45
16
-8
-8
-11
0
2
-21
1
-9
-21
7
14
-11
-17
1
31
-27
1
-3
-18
-3
-1
-14
-104
-16
-13
1
12
-3
-50
-26
50
16
24
7
8
15
43
27
-58
7
18
-25
4
2
44
41
3
-1
-37
7
4
2
-4
-1
54
-26
45
-5
2
-7
-50
-36
7
25
-56
-14
-24
-4
-13
0
-67
-8
-30
7
-20
-5
17
-7
23
13
-28
-12
-12
-3
16
14
-66
1
12
5
17
-2
-11
-23
-6
-9
22
1
8
7
-4
2
28
16
7
-13
-9
-8
-16
-2
-13
-16
-90
14
8
4
-2
-5
17
-7
16
-3
-20
-1
28
18
-8
-7
-5
-2
3
-12
-24
-8
28
8
5
1
0
7
15
0
45
-19
17
-5
7
-11
-45
-18
-23
13
-51
-4
19
12
1
-7
-32
2
11
-11
-1
6
38
21
-77
-24
-34
-6
-18
-11
5
5
40
-4
-19
4
-17
-9
-42
-19
-6
-20
17
-2
-7
1
13
-5
-3
-47
10
13
-11
-10
-20
0
-51
-3
29
-2
-3
-3
0
-11
-57
-2
32
-1
-9
9
3
6
45
1
3
-2
25
8
56
22
-38
-5
12
11
0
-8
-28
-27
-32
-24
-3
-6
-1
-5
-11
27
47
6
-22
0
-2
-11
-24
-23
-43
-7
22
-7
-2
4
-6
1
16
11
-42
-2
9
-2
16
2
54
-17
-45
-37
-17
-2
-13
-6
-45
-8
3
1
9
2
25
-4
-21
-18
-2
9
-8
-5
-4
5
14
21
-31
-2
13
2
-2
-20
-18
-1
70
15
4
-5
-38
-11
-43
-16
6
8
8
1
18
19
-5
22
-25
-12
-1
-6
6
0
68
-9
17
7
2
10
1
-11
-22
15
-7
12
17
12
35
39
68
23
66
7
0
-1
-13
-14
-10
26
36
-11
-3
-8
-16
9
-18
-12
37
5
-11
-6
3
-19
-6
-7
-18
-4
-3
-10
-43
-17
-23
-8
47
-1
20
7
40
19
14
15
-72
-6
-8
1
15
-4
-20
-3
47
6
17
7
-8
12
40
-1
-8
-14
0
-1
24
7
47
-4
-61
-4
-21
-9
-53
-36
-28
-15
-14
10
10
5
17
16
-40
-34
3
0
-10
3
8
19
16
20
-43
3
-2
-5
1
-18
83
3
-33
-8
11
-10
-34
-7
-40
-7
28
-2
-17
-7
-18
-1
29
13
-44
-9
-7
8
50
7
1
1
26
11
12
8
5
-4
-47
-7
1
4
9
7
-26
-18
11
-2
-7
-16
-4
-10
-7
8
-42
2
35
-6
-4
-10
15
16
19
-43
8
0
-11
-1
0
-13
8
5
17
5
-2
3
8
3
-45
-7
30
8
15
10
-17
-8
18
32
5
-9
-7
-8
-22
-15
16
20
-3
-5
-18
-7
21
10
-77
6
5
20
11
4
5
9
25
-16
6
-1
-1
-4
-10
-13
3
-20
-26
-15
8
0
-10
0
45
4
11
6
4
7
3
-10
-49
-17
-8
-8
1
0
9
10
42
17
31
-10
-14
2
11
1
-13
29
16
16
2
-2
-23
-15
-22
-14
-9
-1
-6
-7
-20
-4
19
-4
5
-6
-5
4
30
10
-12
-27
-12
6
29
6
-2
2
19
-1
24
-4
-37
3
8
3
-3
16
-24
-6
-37
-14
-23
-29
-64
7
-37
-5
-3
-2
17
35
95
-2
29
1
-13
-4
-26
-28
-23
18
-31
6
12
1
-6
26
54
27
8
7
11
16
61
40
37
11
13
-33
-10
2
4
-3
-40
-1
-40
-1
-2
1
4
-14
-24
-6
3
3
18
-3
-29
-22
-6
3
42
7
6
-3
-31
-7
-23
-10
-10
9
-6
-7
0
-2
25
21
-16
-11
3
-3
12
20
-15
28
-7
-1
-26
-6
-6
-22
-9
-7
-26
-8
29
0
-5
8
-8
-7
33
10
-5
0
-9
-3
15
10
-28
-2
-9
1
12
-9
7
-2
-68
-15
0
-9
-2
16
28
-27
39
6
16
1
-12
-19
-20
10
-24
11
-6
0
8
4
10
-24
-8
2
-7
-5
-7
0
-29
-23
12
-18
9
10
43
9
10
13
-23
9
-1
0
-3
9
38
-7
32
-13
0
-8
-37
-8
-11
-17
12
6
-7
-6
5
-8
7
7
14
6
6
-4
-7
2
-11
30
-9
4
8
3
-2
1
8
19
16
-8
2
-2
-21
-8
-26
3
-22
0
8
7
25
4
-6
-27
2
9
15
7
-3
4
35
-10
13
11
-12
-2
11
-9
-50
5
-43
-9
-15
-8
0
1
12
7
32
-6
4
-2
-13
-6
-32
-4
9
2
-1
-2
-8
2
1
-11
8
-8
0
-4
-35
-18
9
-21
-18
21
-14
2
30
8
-6
-7
14
-13
1
5
25
20
99
-3
47
3
11
0
-4
2
-45
2
11
-15
-17
6
2
-7
26
7
9
0
-9
-1
-9
-6
44
17
34
11
8
-1
3
11
-12
-14
-16
-4
-3
0
-10
0
-19
18
0
1
-2
-3
-6
-13
18
-1
-10
-2
6
4
6
-16
-64
-22
-2
14
20
6
6
19
51
26
-9
-3
-46
-10
-3
0
2
-19
-2
-7
-4
-3
-7
-26
-124
-36
-6
-11
1
-1
0
21
79
11
50
8
-17
-4
8
-1
2
8
-61
-8
31
6
-3
-4
-5
-28
-11
0
-8
-1
4
3
30
15
6
-17
-1
-9
-5
4
-44
-10
-3
-2
-36
-9
-23
-29
-22
-9
6
7
13
-3
2
2
-15
11
-16
-2
-5
-2
8
16
36
-6
-4
11
12
5
-15
-9
0
-1
-35
-3
-5
3
19
2
7
-3
1
-20
7
6
9
-2
-13
43
-5
-3
19
-5
-7
6
25
-3
7
-4
4
-5
-1
-2
-2
-15
-16
9
-5
-3
-30
-17
-19
11
45
16
5
14
30
24
-7
5
-32
-10
-11
3
17
0
94
-14
-6
1
0
-3
3
3
-7
-4
10
-2
22
1
-12
3
-26
16
-20
-6
-23
-8
-6
-6
-5
-12
16
6
21
0
-13
0
-12
8
-7
1
