-2
-2
-3
-8
0
-2
-1
-1
1
-1
-3
5
0
-1
0
-1
0
1
3
2
-2
-1
-1
0
-1
-3
0
-1
0
0
-2
-3
0
-1
-2
-3
-2
-1
0
0
-1
0
1
-3
-2
-2
-1
-2
-2
-2
2
-1
0
-1
-1
-2
0
-2
3
-2
-2
1
0
-1
-2
0
-3
1
0
0
0
0
-1
0
-2
-3
-1
1
-1
0
0
-1
1
2
0
0
0
0
-1
-1
-2
-1
0
1
-1
-1
0
-1
1
0
0
-1
-2
-1
-2
-1
-1
2
0
-2
-1
0
-2
-2
-4
0
-2
0
-1
-2
-2
1
-1
0
-1
0
-1
-2
-1
-1
2
2
1
0
0
0
-2
-2
-2
-2
2
-2
0
-1
-2
-1
0
-1
-2
0
1
-2
-2
0
-3
-1
-3
-2
-2
0
-2
-1
-1
-1
-2
-1
-1
-2
-2
-2
2
0
-2
-3
-2
-1
-2
-4
-12
-2
-1
-1
0
1
0
-1
2
-1
0
0
1
0
0
-2
2
-1
0
-1
-3
-3
1
0
0
-5
1
1
0
1
-1
-1
1
0
1
0
-2
-1
0
-2
-8
-3
-2
-1
-1
-1
-1
0
-2
0
-3
1
1
-1
0
0
-1
2
-1
-1
0
-1
0
0
3
-1
-3
-1
-1
-1
-1
-1
0
-1
-2
-3
0
-2
-1
-2
0
0
2
0
0
0
-1
-1
-1
0
0
-1
0
-2
1
0
-2
-2
1
-1
-1
1
-2
-2
3
-1
-2
0
-1
0
0
-1
-7
-4
-3
-2
-3
-1
-1
-1
0
0
1
1
-1
-1
0
0
-1
-1
-1
-2
-3
-1
-1
-1
1
0
0
0
-1
0
-1
0
5
-2
0
-1
1
0
-2
-2
-4
-2
-1
0
-1
-3
-3
-2
0
-1
-1
0
0
0
0
1
-2
-2
0
-1
0
-1
-1
1
0
3
1
0
0
0
-1
-1
-6
-1
-3
-2
-2
-2
-1
-1
-1
-2
-2
0
0
-1
-2
-1
-3
-1
0
-3
-1
-1
-1
-1
1
0
-1
0
-1
-1
-2
-2
1
0
-2
0
-2
-1
0
-1
-6
-1
0
-1
-1
-1
-2
-1
-1
-1
1
0
-2
-2
-1
-1
-2
-1
-1
-3
-1
0
0
-1
2
-1
-1
-2
-1
-2
-2
-3
1
-4
-2
-2
-1
-2
0
0
0
-1
-1
0
-1
0
0
1
0
2
0
-1
-1
0
-2
-1
-7
-3
0
0
0
-2
0
0
0
0
0
-1
-2
-2
0
-3
0
0
-1
0
1
0
-1
-1
0
-1
1
-1
-1
-3
0
0
-2
-1
-1
1
-2
2
-2
-1
0
1
2
0
0
0
-1
-2
2
3
-2
-2
-2
-2
-1
-1
-2
-3
-3
0
-1
0
-2
-2
1
-4
-1
-1
0
1
-2
-1
-2
-1
-2
-2
0
-2
-1
-1
-1
2
2
-1
-1
-1
0
-1
-1
0
-2
0
-1
-1
0
1
2
1
2
1
0
-2
0
1
10
2
1
-1
0
1
-1
-3
-22
-4
-1
0
-1
-2
0
-2
-7
-2
-1
-1
-3
-3
-2
-1
-1
-1
-2
-2
-1
-1
0
-1
1
0
-1
0
0
-1
-1
-2
2
-1
-1
0
-1
-2
-1
-1
1
1
0
0
0
1
0
-3
-3
0
-2
0
-1
0
0
-1
0
0
0
0
-1
0
-1
0
4
0
1
-2
-1
0
-1
-2
-5
-8
-2
0
-2
0
1
-1
2
4
2
0
2
2
-3
-1
1
-1
-3
-2
-2
-2
-2
-3
-10
-3
-2
-1
-1
-1
-1
0
2
2
0
-2
-1
-1
-1
0
-4
0
1
1
-2
1
-1
-1
1
-1
-1
0
-2
2
1
0
7
1
-2
0
-2
1
-2
-2
-1
0
-3
-1
-2
0
-2
-3
0
-4
-3
-3
-2
-1
-1
-1
-3
0
-2
0
0
-2
1
0
9
0
0
1
-2
0
0
-3
-12
-1
3
-1
0
-1
2
4
7
3
1
1
0
-1
-2
-2
-13
-7
2
0
-1
0
-2
0
4
2
-3
-1
-1
-1
-2
-5
-19
-1
-4
0
0
-2
0
-2
0
0
0
-2
0
-1
0
0
0
1
3
-2
-2
-2
-1
0
1
-2
1
-1
-1
-1
0
1
4
-2
-2
-1
0
-1
0
-2
-4
-3
-3
-2
-1
-1
-1
-2
0
-1
-1
2
0
-1
-1
-3
-8
-6
1
-1
0
-1
-1
0
4
5
2
-2
-2
-1
-1
1
-4
0
-1
-1
-1
0
0
-2
4
-1
-1
-1
0
-2
-1
-2
-1
1
0
1
1
1
-2
-1
7
-3
-2
0
-2
0
-2
-1
0
-1
-3
-2
-1
-1
0
-1
4
-1
-1
-1
-1
0
-2
0
-5
-2
-2
-1
-3
-1
0
0
-3
-2
-1
-2
0
-2
0
-1
-1
1
0
-2
-1
1
-3
-2
-12
0
-1
1
0
-2
-1
2
6
-3
1
0
-1
0
-1
1
9
4
0
-1
-1
-1
0
-4
-5
-5
-2
-2
-1
-2
0
0
3
-2
-6
-3
-1
-2
-1
0
4
-2
-2
1
0
-1
-1
1
-5
0
2
0
0
-2
1
0
5
1
0
-1
0
-1
-1
1
-5
-4
0
-2
-1
-1
-1
0
-1
2
-2
-2
0
-1
0
-2
-2
-6
-3
0
-2
-1
-2
-2
-4
-1
-1
-1
-2
-2
-1
-1
1
2
0
1
-2
0
0
-1
-7
-8
-3
-2
0
-1
-1
0
1
7
1
-1
0
0
-2
0
-1
-4
1
1
0
-1
1
0
1
1
1
-1
0
3
0
-1
2
2
-1
0
-1
-1
-1
-5
-2
-4
-4
0
-1
1
-2
-1
1
0
-2
-2
-3
0
-2
0
0
-2
-1
-1
0
-3
-1
-1
-2
-1
2
-2
-1
0
2
6
3
0
3
-1
-1
-1
0
-6
1
2
-2
1
0
-1
1
-1
-8
-3
-2
-1
-2
-1
-1
2
1
-4
-4
0
0
0
0
0
1
2
-1
-1
1
0
0
-1
-1
-2
-3
-2
-1
2
-3
2
-1
-4
-1
0
-2
0
-1
-1
-2
7
3
-1
-3
-8
-1
-2
3
-2
0
-1
-1
0
-1
-2
-5
0
2
0
0
-2
1
-4
-8
-1
-5
-3
-1
1
-2
3
-1
0
-3
-2
1
2
-1
1
4
-3
2
0
1
0
-4
2
-3
0
1
-1
-3
-3
1
-6
-2
-1
3
-1
-1
0
-4
-14
-1
1
-4
-1
-2
1
-1
2
-3
-2
-2
0
2
1
4
4
2
-3
1
0
0
3
12
4
0
3
0
-2
-1
2
-7
-10
-3
-6
-5
-3
-6
-9
1
-5
-2
-4
-6
-2
-2
-2
-9
3
-5
2
0
1
0
-3
1
-3
0
1
0
-2
1
0
-2
3
-10
2
-1
-1
0
2
6
0
-1
-8
0
0
0
-1
0
5
3
-1
0
-3
-1
1
7
8
-4
0
1
0
2
1
-5
-8
-2
-2
-3
1
3
5
-2
15
7
4
-1
-3
-1
-1
-3
-24
-22
-7
-3
-3
-3
-8
0
0
5
-2
-5
1
-4
5
-4
7
4
4
2
0
2
-17
5
5
2
-1
-4
-2
-7
-7
-3
0
6
2
-1
0
2
3
-3
-6
-6
2
1
-1
-1
5
15
16
3
0
2
1
3
10
-22
-14
-8
3
3
-2
2
0
0
29
13
1
-2
-3
-24
15
-10
-52
-7
-5
-2
-1
-3
-77
0
3
-3
-2
0
2
13
23
0
-9
5
0
-2
2
8
-6
16
2
12
-2
-1
-2
7
23
25
45
-6
12
3
0
-2
41
27
6
11
-9
3
-3
-24
-16
-70
-37
12
-2
-3
-5
-12
-43
44
-11
-4
1
2
4
24
22
44
11
19
-3
-4
3
13
24
14
19
6
2
-7
-5
-16
-37
61
-9
31
13
2
0
-16
16
-14
32
32
6
0
0
28
-6
-34
-6
-1
7
8
5
-11
43
50
7
-45
-24
-6
-3
17
-3
-42
-4
-1
-4
3
3
-10
-11
57
6
-9
14
11
6
-39
-12
-45
75
21
20
-2
-1
13
-11
19
-17
-32
19
-2
-5
-2
-16
-6
-73
-115
-32
-11
-6
1
-1
-71
-17
-26
8
-3
3
14
9
-49
-41
84
-16
-8
-15
-25
-21
-66
6
127
-3
1
3
10
35
-68
3
123
34
15
3
6
23
81
3
90
-65
-34
-13
-22
-35
6
25
72
-18
-6
0
31
0
-47
-16
103
28
-4
6
14
20
17
-1
86
-3
-11
-7
15
-15
-117
16
112
32
35
3
-9
8
48
-18
21
6
-4
-8
-55
-29
-125
-16
-94
28
-8
-5
3
5
66
65
-128
-33
6
2
29
36
-4
3
-128
88
-45
-6
-33
-6
-66
-46
-128
-27
9
-17
10
-52
106
22
-94
-41
51
12
8
46
-68
-3
-80
25
12
2
-53
-36
6
55
-92
-31
19
-2
37
22
9
16
-102
41
13
11
23
22
-45
-24
-120
-67
-68
-30
-67
-46
93
31
-120
-13
26
51
33
41
-27
-20
-126
25
-15
8
38
29
-6
34
-99
30
-17
8
-4
61
-63
54
-119
-61
30
-4
4
-100
71
66
-111
-46
-27
-32
-25
-26
-49
-10
-106
-5
-70
-24
-24
-45
37
91
-83
21
31
4
6
15
33
-47
-34
10
53
23
-28
30
-58
6
60
9
-44
-9
1
5
-61
-90
54
-72
-29
18
27
-19
7
38
97
49
-29
-57
-20
-13
34
44
124
48
39
7
31
-41
29
-12
97
-76
114
80
54
107
-34
-52
121
30
73
32
-24
-110
40
-54
99
41
6
4
35
6
17
-7
76
-17
-111
-6
14
39
-88
-58
89
8
15
-53
-50
-56
8
18
70
2
90
-16
40
69
-75
-2
68
24
-74
-8
-46
-42
-42
-37
14
43
2
21
2
-85
-43
-5
25
55
-128
-47
-16
66
57
-16
-13
-98
-68
-19
-9
-38
4
-61
11
55
102
-1
15
46
33
7
48
12
21
9
-1
-5
-77
2
8
-22
90
40
24
6
50
-66
-17
-11
15
37
4
16
26
-87
-5
-52
36
61
27
-13
-16
28
24
25
-62
-79
12
111
72
-25
-26
-82
-78
-54
-11
-125
65
95
27
82
-80
-71
-55
22
-87
-66
-25
-96
62
101
3
-30
-81
32
21
41
97
24
19
15
36
70
-5
78
87
-18
-14
29
-35
-51
-32
-16
-12
-35
30
37
16
-10
-19
-99
-123
-47
-26
26
34
17
-5
-43
-66
46
5
15
85
93
16
100
65
33
67
70
-108
-63
3
-58
-78
-79
-73
-114
111
44
-13
-62
-20
41
14
-4
91
58
-3
77
95
53
23
21
39
-38
20
50
55
110
54
40
-66
-1
8
41
-11
-34
-26
30
23
33
-3
-5
-42
-91
-25
-20
-87
-128
-13
-89
-128
-88
-43
-44
112
103
4
-6
76
-18
-1
80
-32
-54
-15
-27
14
98
45
-16
-85
-90
-14
-61
-38
-8
0
26
-12
62
12
-18
96
-6
-42
-22
-128
-77
-21
28
-128
-69
-23
-65
126
106
11
7
82
22
0
34
63
66
-6
48
98
60
50
-22
21
-75
6
72
67
35
-7
37
-8
-82
-53
-92
-73
-79
-59
24
11
60
3
-47
-115
-77
7
-27
-58
1
-12
54
-32
86
43
61
37
15
7
60
124
63
-11
-33
39
-2
16
-13
-89
-7
-25
24
2
6
-18
12
-29
6
35
-37
25
93
12
-48
-113
-96
-29
15
-8
-56
-33
-13
38
-9
-23
8
-4
27
20
74
102
-16
4
-74
14
27
-20
-66
-27
65
10
57
-62
40
16
94
30
15
-18
-65
97
27
-28
-61
-94
-44
21
28
-104
-61
-6
-27
-42
-48
-33
-26
12
82
-14
26
-13
-6
-1
-4
-62
-110
8
7
27
8
0
9
-10
68
11
-10
3
52
70
48
-36
-32
-15
-19
29
33
-42
-100
-63
17
22
35
6
-68
-14
7
119
62
-22
-46
-119
-32
-48
3
-37
-96
-13
-40
55
-33
-16
-7
-4
-37
6
-18
-122
24
15
0
6
46
15
33
127
83
52
-15
-13
-71
-9
74
114
9
17
2
-22
15
8
-13
-126
-76
-28
-32
9
28
-1
-70
-32
33
17
40
2
48
30
51
85
14
-22
38
-6
-10
-43
-29
14
-15
18
14
68
-26
-3
5
-8
-7
1
30
-55
-14
-27
-94
-114
-29
-16
-85
113
-3
-12
-54
-95
23
-28
48
46
57
21
60
127
62
27
-2
-110
-42
10
38
-45
-31
24
54
62
47
-14
-22
-69
-64
30
-22
29
-5
-2
-5
75
46
-69
-25
81
35
-9
-43
27
-8
-42
1
32
65
3
-8
-117
-82
0
50
2
-42
-7
102
127
121
-1
-46
-25
-57
8
5
37
4
44
20
-103
50
16
6
67
10
-10
12
-5
32
39
103
127
52
54
30
74
27
-4
-12
13
-32
-32
4
-4
-15
-16
-23
-110
-97
-51
-45
-31
-17
-10
-44
-118
-49
-12
-18
19
18
-26
-75
-128
-112
14
25
-73
-27
-1
48
62
105
43
15
-28
-2
13
39
127
113
2
23
26
-46
-26
-17
-128
-126
-13
-15
-36
-87
5
-12
-83
34
-28
-94
61
45
-1
11
-124
-63
-13
39
-31
-25
-31
-69
90
5
10
-12
81
27
12
-26
-116
-114
18
0
40
78
-11
-45
112
120
-50
-13
-1
19
35
109
75
65
91
44
-71
-82
22
28
-128
-78
30
-29
49
-14
-7
19
121
-44
-31
-8
-15
10
-29
-56
-83
-79
-42
-59
34
52
15
-97
-91
-89
-19
24
25
-35
2
49
90
79
48
-25
-15
4
-5
-2
5
51
22
-7
-65
-16
31
41
-38
25
83
23
36
91
23
38
-63
-49
-28
22
-90
-88
-75
-121
-128
-107
-96
-66
-57
74
9
-45
-128
37
0
-38
5
44
3
67
127
8
-59
-14
-76
1
10
-4
67
63
51
50
122
94
-10
88
-16
-17
-12
30
-107
-47
12
15
127
127
27
-5
-44
-47
-45
-105
-47
-69
-72
-64
-36
-40
-14
10
-84
-49
-38
-24
18
49
3
9
127
-28
19
50
23
-34
34
-10
-128
-44
-12
0
5
13
-6
51
92
74
0
-4
63
0
-3
-21
99
-30
3
37
31
-109
13
15
-99
-18
41
-24
-27
114
15
-91
-109
-37
-36
-63
47
20
8
-63
-83
63
18
26
-41
-87
-26
38
95
34
-29
-31
-64
46
1
30
48
-4
33
16
88
-55
-21
64
-46
-37
-24
69
4
62
16
-36
-128
-108
-29
-93
-17
19
-4
-56
-128
-1
1
-22
78
74
7
18
80
54
2
32
-68
5
2
94
113
57
73
-19
37
44
-10
-61
35
28
-25
64
58
11
39
-45
-61
-42
6
34
-15
26
23
63
34
42
13
-15
-78
-42
-47
5
-17
17
27
24
58
45
9
53
-17
0
20
-10
-45
-91
-21
-10
-90
-99
-54
-5
-20
38
18
-74
-128
15
-18
-41
7
-71
-11
-17
127
-1
-12
-16
29
-12
-12
67
-95
-48
43
48
-62
-54
-5
-56
115
6
-22
-27
-8
-11
-17
-6
59
54
6
-6
-70
12
15
67
103
118
28
21
64
-13
19
11
-23
-70
27
-4
100
58
-6
-28
-119
-64
-4
4
8
49
-16
-81
-93
-60
10
45
-8
-18
-32
-4
18
9
-49
-45
-33
-3
-45
20
53
41
29
21
-47
31
3
51
4
9
-30
-20
55
-15
-1
-36
-48
-50
-9
-13
-19
14
30
-20
-22
-9
-4
0
-34
-55
18
14
50
4
-1
-3
11
17
19
1
18
49
23
-23
-14
-14
11
16
-8
-14
-28
-9
12
1
-1
-41
-68
-59
17
28
29
-43
-13
-49
-78
-22
-7
-20
-28
0
-2
-10
47
57
41
-14
-26
-9
13
45
78
49
10
33
45
32
4
-5
-13
-27
-49
-1
-48
-1
20
5
-8
-24
-29
-14
2
15
-28
-25
-79
2
72
2
12
-7
-15
14
-15
3
0
9
-3
-21
15
0
71
-5
-15
-1
11
-18
10
11
6
28
21
15
-26
62
-8
-8
10
-2
-3
-12
-10
39
-6
3
-18
-11
-2
9
34
41
6
-7
-27
-28
13
1
-33
-14
-14
7
2
18
-21
-5
8
-49
-4
16
9
13
34
11
4
-73
-10
-12
2
-10
4
5
49
-14
13
-9
-29
-10
7
2
10
-58
-43
3
12
27
28
10
-4
-53
-12
5
27
0
-64
16
-39
-81
9
-9
-15
-21
-4
-17
18
-62
-6
-4
-41
-13
-54
12
-11
-32
68
0
21
15
1
14
46
-14
-50
0
27
-1
-29
4
-28
17
8
-4
-20
-12
-15
4
20
-7
-27
-29
-29
-9
13
-12
6
16
30
11
25
10
-9
-6
-52
-105
65
12
17
-2
-3
11
9
-121
-10
-14
-25
-14
-11
1
4
-23
44
-1
-7
1
17
-7
-7
27
-66
-20
-1
-1
-21
7
23
89
35
33
14
6
9
-9
-14
88
27
3
1
-2
12
0
15
64
-51
-1
-7
-6
-2
15
11
93
-2
1
6
7
18
-12
39
91
66
32
19
7
2
-9
-78
13
-82
-33
-11
-10
17
-9
40
59
-2
-6
3
5
-16
-18
-36
10
-5
-2
-8
-2
3
-10
-39
0
-5
-26
-11
-5
-9
-18
48
62
67
-3
8
2
1
17
36
21
40
16
-14
-6
11
3
-37
26
-14
14
16
7
7
-20
-7
25
-66
5
8
1
1
-4
7
39
-38
12
-9
-4
-4
-5
-19
7
-44
-7
-10
-6
-3
1
9
6
-43
14
5
0
3
-5
-1
30
-27
3
6
1
3
6
21
3
-100
1
-1
-1
-4
2
-15
8
-44
-26
-5
-2
6
8
-22
7
29
14
10
5
1
-5
-9
3
-13
-9
-1
0
-5
-1
12
5
6
-3
-6
-2
-7
-2
-14
0
-25
15
-9
-3
13
18
8
-15
-31
-21
1
-3
-12
-2
8
-3
-26
3
10
7
15
5
5
-14
42
11
-2
-5
-14
-2
-20
-7
7
-10
-29
-14
4
-2
10
-5
35
-5
3
-15
-6
4
-17
1
15
7
-20
32
0
0
33
-13
41
-6
32
10
-2
-6
-17
0
53
14
46
-4
8
4
8
-7
40
-16
-16
-1
6
5
0
-9
55
14
-5
-15
-7
-1
-8
0
27
-12
-27
-9
-6
-6
-9
-5
23
-9
-21
0
-2
-9
1
0
9
7
12
-2
-6
-1
5
-6
13
-14
-2
-7
-4
0
-1
0
4
0
-8
3
0
1
-4
-26
-8
-6
3
-2
-4
6
-2
20
10
11
-6
1
2
-5
1
-26
-29
-17
7
-2
-3
-3
-2
-11
-6
11
-15
-16
-1
1
-7
3
9
1
-2
1
-3
-8
4
-19
-3
2
13
24
2
-2
6
3
-18
-2
-13
-17
-3
4
4
8
-1
4
45
21
3
5
-5
-4
-29
-20
-14
-2
3
-1
0
-9
-6
-2
-17
-11
-1
6
1
0
0
1
23
4
-2
-2
-4
-3
-9
9
-12
-6
-1
1
-4
-2
-12
-2
-9
6
-3
-4
1
-18
-22
-5
14
-3
5
2
-2
2
-43
2
-10
-6
-1
-5
1
2
-14
-6
-6
-1
-1
4
-2
1
9
1
8
5
-3
0
0
3
5
-3
-1
-3
-3
-1
-2
-13
-13
7
0
-2
0
3
-1
3
-2
2
-4
-1
-3
6
-4
6
12
1
2
-4
-2
-19
-2
-16
7
10
-12
0
-3
6
-3
-15
14
-16
8
-2
-3
-2
2
5
34
0
-3
-3
-1
2
-5
-9
-15
5
1
-1
-1
1
6
10
24
2
5
0
-2
-3
1
2
24
-1
-2
3
2
-3
-5
-4
35
2
-3
-5
-3
-1
2
-3
19
-7
-3
-1
0
-1
-1
-10
0
-7
-6
-1
-2
-3
1
6
10
7
2
2
-3
-1
-2
-4
3
-10
-5
-6
4
-1
-4
3
15
2
5
3
-2
-1
8
-2
-7
0
3
-2
-3
-1
-9
0
5
0
2
1
-3
1
-11
5
-5
11
1
0
1
1
-1
-4
-6
-6
3
-3
-3
3
2
-7
-16
-3
-4
0
1
9
-5
4
4
-5
-1
-3
2
-2
5
19
-2
-3
-2
-2
-12
-9
-1
-55
-14
5
-5
3
16
8
-5
15
3
-6
6
0
-4
-15
4
1
-9
3
-2
1
0
0
10
5
-22
-13
-5
-2
0
20
43
34
8
10
-2
4
6
24
-46
-63
-23
17
2
-2
-4
-19
30
13
-12
-9
2
-5
-16
-45
-3
23
-16
-1
1
-2
-10
-34
-11
-32
2
-16
-6
0
5
37
70
23
-1
4
-3
5
9
29
-21
13
13
24
1
-7
6
-6
40
10
-10
-27
8
8
14
15
27
53
11
7
21
4
-9
-32
-22
-51
-1
20
4
-10
-24
-1
-23
-26
-32
-46
-31
-12
-22
-76
-7
-9
5
46
-18
-12
16
35
-85
45
-46
-32
1
5
-23
-31
114
84
31
-34
-2
4
51
64
-9
-86
9
38
-1
-8
30
71
71
-1
13
-39
-21
12
-58
-72
-23
-49
67
37
70
-6
12
-21
-5
35
-4
-11
-53
-77
-15
-20
87
15
-30
-25
48
29
12
29
-44
-39
-70
-75
-121
-23
61
49
61
28
-2
28
30
-57
-40
-1
-58
-12
-33
2
36
53
-51
-37
39
-5
7
15
-80
-42
-12
18
-35
1
85
19
127
107
-7
-28
0
12
113
38
-128
-71
65
12
-16
31
120
101
90
122
17
-1
-3
100
127
15
95
27
32
34
6
47
92
3
-65
-78
-19
1
-18
39
6
-100
-66
-72
-23
23
-8
34
-40
6
57
-127
0
-35
-10
13
-121
-90
-128
-38
-44
-29
-84
-78
-117
35
75
-20
35
45
52
64
-128
-20
98
118
-34
29
-60
-73
-128
-36
-128
-8
4
-39
-44
40
-110
24
127
13
-17
-17
-30
12
-128
2
-54
-36
0
-35
12
-82
-128
39
-83
-97
28
33
-38
17
-111
-35
-38
53
17
-1
13
-95
-60
-10
-10
86
0
48
56
28
-3
17
84
69
12
34
-98
-94
31
99
40
29
6
4
94
79
108
-47
-79
-55
-7
19
-41
-60
44
8
-128
-128
25
-34
-3
-54
-38
-56
53
42
-48
-2
34
-14
81
-26
121
85
26
12
-16
-60
5
1
14
-48
7
-24
-8
-24
122
56
-37
-10
-27
5
127
15
116
22
27
81
4
83
-82
-18
83
-6
88
-27
9
-43
53
-6
-6
-117
-98
-80
3
-74
83
41
47
-4
5
-35
-13
25
-98
-26
49
49
-96
-58
-26
13
22
-54
19
-64
42
53
-68
-27
14
-25
56
20
101
85
48
22
-81
-6
26
-16
-82
-110
5
4
15
127
26
-15
46
37
-10
-60
2
-73
6
103
43
107
33
78
-26
-51
23
32
-36
-40
-18
-14
36
111
-12
-31
-43
-13
-1
-14
-34
-127
-55
-69
-128
-128
1
6
6
115
-64
-65
-126
49
-9
-66
-28
-27
-55
63
127
107
29
50
-16
62
-28
33
98
9
8
15
22
18
-50
-67
-84
-116
-18
-15
32
86
-50
39
62
34
-90
-54
-45
-6
-39
73
78
-25
48
62
-16
23
-29
11
-34
74
-30
-24
54
-42
-19
-51
-53
15
92
-19
49
4
-43
-51
-20
-77
-11
-62
-18
-13
-37
-45
-12
46
-26
-13
56
73
-30
35
127
31
12
56
4
-3
-7
33
-66
-79
-53
-20
-77
-57
-20
-3
17
66
52
36
29
31
61
39
107
-16
4
15
-4
-79
3
-9
-86
-34
-29
22
3
77
71
11
-23
37
84
0
73
19
61
-14
-128
-128
-56
-25
2
-60
28
-69
41
46
-41
-23
-64
-117
-6
-37
-84
-83
-12
57
14
20
18
46
127
113
-22
-49
-54
-15
-2
90
84
57
77
32
52
112
25
-27
-114
-57
13
63
51
0
65
-29
-60
29
-9
-45
-89
-47
1
0
125
12
0
-3
-25
38
-29
-62
-101
-103
-23
-89
-56
-53
30
-18
-119
-24
-68
-24
16
5
-51
-55
3
-53
96
94
-54
-63
-11
-20
-7
91
-16
-48
56
80
30
88
127
26
24
48
35
-9
-21
-61
-128
-76
0
11
28
-31
-5
98
127
127
43
1
-52
27
1
38
42
-38
-55
-29
15
-59
-11
-58
-113
-107
-3
40
-18
-18
-10
40
68
96
6
-57
-49
6
27
22
87
74
9
-65
111
58
10
40
-62
-61
16
40
-90
6
10
-61
43
13
-69
16
62
122
-42
-44
-124
-128
-22
56
-61
-97
-40
-78
-21
78
-28
-54
28
53
9
73
123
19
-4
-5
-13
9
12
34
-41
23
17
26
-1
-22
-7
104
127
23
47
46
26
23
-10
-38
-56
-47
-45
-55
87
72
-4
-71
-128
-15
20
88
-17
-95
-7
13
-67
-3
14
0
-37
30
3
56
127
127
26
-25
47
-34
11
14
-81
-105
4
19
-9
-63
-3
-14
-29
-20
-10
44
46
43
-33
-65
84
-77
-11
-2
-50
-67
5
-70
-119
-124
-23
-55
47
49
-6
34
127
104
8
-31
-46
32
-8
80
32
47
34
33
79
-11
28
6
-93
3
14
20
-40
-72
-1
26
-29
-22
-23
-25
-49
14
13
18
-105
-128
-21
-48
-12
-11
-3
-73
-93
7
-47
3
-4
21
-40
22
70
67
-11
-10
30
-2
25
-1
-52
7
26
46
7
0
-66
8
-9
8
-13
-44
13
21
-3
45
-18
-46
26
-8
-42
18
-9
-75
-7
21
-29
-21
7
74
21
50
73
68
29
7
49
-50
16
-1
-42
-33
-21
40
-84
-7
-4
-10
-86
-39
7
-35
38
35
12
-10
18
45
37
12
-9
-90
6
-39
94
40
-112
30
-5
49
0
-9
-38
-82
58
51
-57
-53
-1
-17
54
54
-8
-98
1
-68
21
57
44
-65
49
25
-4
108
10
-44
-55
23
-13
-39
20
24
22
21
-34
46
-31
46
33
1
-24
38
83
84
12
-11
-23
5
-1
67
46
2
33
3
32
-33
2
-8
-70
-58
20
-14
-16
-1
-53
-58
-119
-44
-25
17
9
12
11
-34
20
-20
-22
18
32
-5
0
-5
-42
-32
-16
32
-9
23
7
-6
-24
4
10
3
6
15
16
-18
22
43
-7
-36
-27
-17
41
51
74
-21
41
-44
-27
-32
-40
-41
-55
-103
-53
-7
30
-7
8
-58
-128
-17
-5
16
-40
4
41
28
-45
-28
43
10
100
47
-6
15
108
92
1
47
56
-30
36
30
44
-4
5
-51
10
-46
-27
-20
-62
-34
-13
5
-9
58
31
35
41
-16
-60
-27
-18
-52
-80
-96
-128
-122
21
21
-7
59
-14
8
34
120
-12
-1
-13
-2
-26
104
127
44
13
18
1
-10
0
17
75
49
38
18
17
19
4
-5
-114
-76
-13
-11
-44
-62
0
-52
-128
-20
-16
-68
28
23
-25
6
51
-45
-104
38
-46
7
16
-19
11
48
98
-59
3
-35
-19
23
67
1
11
29
19
19
-5
-11
21
-10
43
-10
-35
47
36
20
-128
-29
-24
44
4
-28
-2
-51
74
0
-52
-67
5
-17
2
17
37
65
-4
14
-25
8
8
-28
22
29
25
-2
13
11
-11
18
2
-28
59
-12
-24
-12
-5
12
-50
-20
-31
40
-25
-31
8
12
56
31
-30
-23
11
-8
-10
28
-1
-27
17
40
16
32
10
-17
-44
0
66
28
-64
-20
-3
4
5
13
-48
-78
-4
-18
3
-34
-66
-36
-15
16
6
25
-15
1
-39
9
1
8
24
-51
0
-6
43
23
-15
-21
-18
15
-9
3
11
-23
9
17
-16
10
2
-8
13
-53
42
14
52
2
-9
-55
-128
-58
-39
4
-19
-8
-14
13
54
78
30
-43
34
18
19
84
127
108
23
38
-21
-5
-16
17
-51
15
-42
7
30
7
2
14
-109
-13
33
17
-7
-16
0
-30
-68
-84
-10
-31
25
-7
-4
-26
-56
-14
-14
26
13
6
14
-4
26
6
-17
-12
-74
-15
18
8
10
-3
-7
-22
12
-26
-9
-18
-6
1
2
0
-8
8
-7
-9
40
28
48
6
-1
23
12
13
-9
-18
-22
0
-15
10
-1
2
32
-6
-31
-7
8
0
-20
6
17
23
-4
-4
25
-4
-41
-11
-20
-15
11
29
16
-12
1
-14
-14
-16
-22
-20
-20
-5
-16
26
21
25
29
-12
20
2
-14
6
21
-3
14
1
-16
-14
-33
-8
-22
-12
13
-24
29
-6
-21
1
-6
-2
-23
51
-7
-14
5
-12
5
15
4
12
-9
-10
19
-7
-14
-3
-4
-18
10
3
78
13
0
-14
-40
42
23
-17
55
8
-5
5
-5
-49
-40
-36
-50
-12
4
-1
-22
10
-3
-30
-15
-24
-2
-3
7
22
-1
-39
94
19
-6
-2
6
7
-35
-53
-65
-11
5
4
8
-16
30
-42
99
-1
-10
-5
-8
15
-12
-118
14
-4
2
-1
3
15
22
-128
32
-40
-20
-11
-20
31
-7
-44
127
27
0
-1
16
8
-46
-8
102
28
14
8
11
-49
-60
28
100
9
2
-3
-4
-20
28
52
-59
-15
-5
2
-12
6
-28
74
2
-2
3
-5
6
14
14
45
-128
-43
-11
-3
-12
-4
13
106
22
-2
7
5
6
24
40
76
18
12
-17
-11
14
-30
56
0
-61
-16
-4
0
13
12
-63
16
-86
-21
-10
2
-8
-13
-50
68
-18
27
22
5
-31
-94
-39
45
-128
-11
-14
-12
18
27
11
105
-88
29
5
6
1
-15
48
71
-59
17
17
0
8
37
-9
45
-25
4
-7
-1
11
-2
-56
93
43
29
14
7
-7
-53
5
-19
-15
-61
-26
-8
21
35
48
8
-7
-10
-9
-2
-8
57
26
22
16
-3
-1
-2
-4
10
-1
14
49
9
7
-1
6
-17
-50
6
38
-6
8
1
-7
-15
-7
25
-32
10
2
3
-7
4
16
-4
-33
-7
-3
2
5
-1
3
1
-10
11
5
1
0
23
-28
5
17
4
-1
-3
-14
-19
16
-6
8
-13
1
2
6
1
29
7
23
8
6
2
-3
-10
-34
-19
45
-8
-4
-2
-11
-8
6
-13
-14
-5
0
1
0
8
-3
9
72
14
4
2
-3
-18
-7
-7
7
1
-4
-2
4
6
-11
-26
-2
-14
-7
-5
-6
-1
4
-1
61
15
-2
-1
-7
-9
5
6
27
3
4
3
10
-6
-8
-16
5
-5
-1
-5
-7
10
11
-17
-9
-13
-5
1
1
5
-7
-8
-27
-7
7
0
-2
-10
4
5
39
23
10
2
2
-14
7
-20
-11
-27
-13
-7
1
16
-23
-14
-26
-10
0
-2
-6
13
7
-2
-18
9
-8
-3
-3
-3
-2
0
34
3
-6
2
6
-7
3
-11
-20
7
-1
-2
1
7
23
-2
-15
-6
-2
-2
2
3
-35
3
0
-2
-3
-3
-5
-9
7
-20
-7
-7
0
-1
-2
6
-8
3
12
4
0
0
0
-4
7
-8
-10
1
-4
-4
-6
-4
3
-3
-3
-6
-7
-1
5
3
1
4
35
18
-7
-2
-3
-7
-12
-19
-33
-9
4
1
1
-3
5
-4
2
0
8
0
-1
-9
10
3
12
-6
1
1
-1
-1
-5
-6
6
14
11
1
1
4
4
-5
-3
-3
-7
-4
-2
0
3
-5
-2
-5
1
-1
-2
-5
-7
-16
-44
1
-10
-4
-1
-4
5
-7
-8
-16
-12
-4
-1
8
-8
-9
-43
2
-5
-1
-1
-9
2
1
5
6
0
1
-1
-1
8
-8
2
-1
2
2
4
7
-1
4
-9
3
0
-1
-6
-6
0
0
1
2
0
-2
-3
-7
1
-7
-5
-4
-4
-2
1
3
1
6
5
5
1
2
5
-1
-1
-11
-9
6
1
0
0
-2
-1
0
-2
-8
2
-3
-1
4
1
-1
-29
-15
-2
3
1
-8
-1
0
13
18
4
-3
-3
1
-2
-4
-55
-2
-2
-4
-3
-6
-2
-2
-16
-8
-11
-3
-2
-1
1
-4
-9
1
-3
-1
0
-2
2
0
10
-10
3
2
3
4
-1
2
27
3
4
-4
-4
-7
-1
-9
17
6
3
-1
-7
-6
-1
1
17
1
0
-1
3
1
3
-9
29
-2
-2
-3
-4
5
-6
1
23
-2
-4
0
-3
-13
15
20
26
13
-1
2
4
9
-6
-12
28
-14
1
-2
-4
-5
1
-13
17
12
1
-1
-3
-2
-14
14
0
-13
-6
-2
1
-5
3
-17
7
-8
-2
-2
-3
1
-16
0
2
18
-3
-1
-1
-1
7
-1
6
5
-2
-3
1
7
3
-16
0
-25
-4
-1
5
22
3
24
0
3
-3
0
-5
-15
18
-4
-7
-10
2
0
-18
-33
-13
-5
-13
14
10
1
2
-2
25
-3
2
14
0
-3
3
1
-52
-26
-17
-9
-3
2
10
4
-2
-5
-17
0
-5
-2
3
12
10
22
-7
2
-1
4
5
20
22
-6
-15
-3
1
4
11
17
21
3
-5
10
5
2
1
-11
-57
19
3
-8
-7
-12
-48
-14
-70
-15
-10
-10
-5
-2
9
-40
30
30
27
9
4
4
41
3
-47
-2
-3
-2
-4
-4
-28
-30
-47
13
-10
6
4
0
-6
3
35
15
6
-12
-7
-22
-53
65
28
-45
-36
-19
-7
2
41
-20
36
44
13
-16
-2
7
-94
32
70
8
58
34
15
3
76
-41
-6
18
-28
-13
-9
2
67
20
-81
-37
31
21
3
-11
-62
-70
53
-21
-33
-17
-27
-18
44
101
35
53
-5
-45
-5
0
28
68
-36
-101
47
14
-21
-33
-87
-81
3
89
0
48
74
-1
-103
42
58
66
-83
-20
-81
-14
48
-86
-65
-84
-44
-13
22
82
96
-24
127
65
71
32
76
-15
-38
-8
-50
-53
-18
-47
-69
-18
-56
-6
-57
73
127
13
33
-18
-6
1
41
-13
98
-8
-57
-12
-90
28
-30
-27
43
-24
-26
-36
62
-51
-13
30
127
20
-23
55
-111
52
-43
-21
73
38
39
29
112
-3
28
7
-108
3
76
26
45
0
23
9
-106
-2
-10
-19
-30
10
-29
-26
-119
-65
-87
-88
-22
-16
35
-20
-128
-29
74
26
-31
-1
-19
-28
-58
4
-1
-11
-27
-11
-4
17
-111
13
-49
85
29
81
74
-3
-77
43
47
-2
47
-98
39
-39
-94
2
54
-52
-18
12
-16
-4
-82
-30
-54
-55
-53
-18
63
66
62
-96
55
78
22
49
-54
-39
-11
63
53
69
46
15
-32
-20
28
97
125
68
0
-19
24
12
-44
-28
-68
-117
-21
-2
-53
-9
-71
8
-35
-106
-24
-42
-3
12
-30
-16
25
-8
64
36
66
-8
-71
-15
-92
-5
-13
30
-20
55
-56
43
72
117
-43
-50
-1
15
-80
21
67
93
50
63
7
10
-46
60
-49
-91
-7
-37
9
-28
-58
-14
-110
-98
-4
79
-17
-22
-74
-72
-86
-39
0
-39
-3
-4
-102
40
90
45
25
16
46
22
-59
-6
24
-62
25
-5
-21
26
-54
-19
-60
44
-59
-1
62
5
-38
79
79
55
6
25
-70
32
-27
-27
-25
42
6
-41
23
80
34
0
-55
8
-5
108
-44
51
92
-94
-128
-59
-8
-85
-19
15
109
31
62
-12
-15
62
15
9
97
63
37
-59
-19
-70
-9
17
93
-75
-109
15
36
28
16
-29
88
-47
43
45
21
37
-74
-37
116
66
105
102
-12
-59
46
-57
99
-17
47
-37
17
54
31
-31
57
-59
-73
-105
-21
-56
-2
-31
38
-78
31
6
-37
38
13
-57
61
68
70
65
82
26
-63
-20
55
25
-99
-57
-22
18
-33
-12
19
-15
-36
-6
-53
-74
-4
-24
1
28
-43
-70
33
87
27
58
23
-33
-127
-32
30
-50
-4
-25
-7
-18
49
23
-25
-37
-19
29
1
11
21
24
3
9
28
-11
-5
6
-31
14
32
30
22
15
12
-37
-77
-72
-49
-8
-11
-21
7
-24
34
-35
4
-29
14
-64
-32
-35
-37
21
9
0
16
9
12
22
127
102
-12
-76
76
-20
5
66
55
-20
47
80
-36
-72
-13
-91
-128
-82
-41
-20
8
6
-13
-17
127
120
13
-17
-37
-50
-8
12
70
4
15
-45
-4
6
0
-1
-80
-49
-13
72
-20
-17
-19
15
-74
-74
-21
-35
20
-27
-9
-48
-122
-96
-31
35
-18
11
-33
-30
-122
-5
-48
-44
28
45
-6
-103
121
75
16
34
-12
-23
1
101
57
122
39
31
-11
5
4
44
125
29
-28
18
-15
-18
1
8
-37
-79
-21
5
1
-19
-23
-79
-128
-128
8
-42
47
-11
-15
-90
-128
-48
-14
8
-13
20
3
127
127
127
6
-7
-69
-36
-7
56
26
-47
74
55
38
23
-2
-16
-98
-92
-53
17
-15
12
3
-73
77
61
-32
-82
-22
50
-11
-9
-61
-59
71
21
-21
-78
4
-19
9
-14
-39
-64
-34
-5
-8
-8
9
84
-46
-19
18
-31
-2
80
4
-39
41
60
14
44
29
-105
-36
3
40
8
-10
24
-36
114
108
81
3
5
-44
-24
-8
10
-122
-35
-24
-34
19
48
3
20
60
37
-45
12
18
-20
-16
-61
-117
-120
2
6
-5
7
15
-16
-40
18
36
-31
-28
-24
-9
42
127
79
-2
-36
-17
-3
-10
-17
-60
-47
30
-32
23
-30
-11
-21
-85
-67
-69
33
19
72
11
-1
84
66
-12
-70
33
-17
7
86
84
26
13
20
2
67
14
-15
-80
-51
12
-19
16
-14
1
-3
-95
-77
7
65
11
62
1
-101
-128
-33
-73
-49
-3
44
1
-1
106
62
36
15
18
37
7
46
-8
-16
-16
34
25
7
21
31
127
100
63
36
-34
-58
-1
52
-21
1
14
-3
-10
9
-1
21
25
-42
-76
-12
-51
-12
-15
-71
-108
-18
32
17
-8
-4
-13
9
-14
-21
-10
-14
0
-2
-3
-9
-90
-86
41
27
44
5
10
4
-56
32
18
34
1
13
-12
-12
127
3
-75
84
-3
-20
0
30
62
127
0
-72
21
50
12
77
127
-37
52
8
24
-25
-6
-17
-128
-36
11
-43
-36
27
-3
-71
89
13
-2
-42
5
31
-3
55
52
-14
50
68
64
13
0
-30
-90
28
-59
9
-76
5
0
-22
-22
-75
-12
2
-10
-13
6
26
19
28
15
-52
-38
-13
-4
2
-19
26
26
-19
-13
-59
-9
-15
-63
10
7
64
-26
-9
-11
-59
-113
-73
-13
-49
23
-3
-2
67
90
80
-9
51
13
9
-11
19
12
-28
-46
-98
-19
-55
0
-10
-102
-95
1
41
-26
-27
1
-91
28
38
-7
-27
68
23
2
2
-55
1
9
33
56
-16
0
60
69
56
32
74
1
48
22
56
127
127
-11
-109
14
0
1
-10
-119
-115
-31
38
-33
-18
5
-11
-62
-92
-13
-30
25
2
-11
-22
-3
31
58
51
47
33
3
-128
94
19
-12
12
-15
-10
-9
29
16
-27
76
86
-5
18
6
101
37
52
4
-66
-26
-27
-6
-11
-69
-30
-86
-12
-1
-16
-20
-7
-84
-37
-6
29
-9
-11
16
-68
12
12
-3
5
-12
-12
7
68
22
48
58
56
13
9
12
-48
-100
-65
7
-97
21
-25
0
22
34
-24
-45
-29
-58
-77
-10
-11
81
111
0
-62
50
-11
-3
-54
-114
-64
1
70
-27
-23
-28
-28
-13
-9
-23
-72
-24
87
1
-29
-119
-32
12
85
20
-33
7
23
67
22
-23
-1
0
-5
9
57
127
126
21
-24
16
14
21
50
7
-35
-33
14
-34
66
0
-8
-128
-128
68
46
26
5
6
-11
-13
14
-44
14
-18
-18
-16
27
94
79
19
2
1
10
21
-27
-69
-39
-6
-61
29
3
19
-18
-29
-25
-33
-23
16
8
5
-13
-52
-40
16
84
81
12
2
15
4
-96
57
-93
20
-6
-23
25
-70
78
-17
70
-15
-8
-1
10
127
75
-9
6
-2
-21
-35
62
40
-8
17
-51
-22
-8
-6
-78
-128
-71
-34
24
-19
28
23
-70
29
-7
13
-40
-12
-35
-31
18
-13
35
-7
8
-2
46
0
7
62
3
-13
-20
-6
5
-7
11
-10
-16
-18
-1
-16
6
4
14
-3
30
7
8
-3
-29
3
45
91
37
-10
-30
6
24
-4
-1
-27
-37
16
1
-36
-13
-1
-11
-70
-20
-4
5
-2
-6
-11
-26
-60
-61
1
27
-11
-22
-4
-1
-58
15
-33
-7
4
8
-22
-13
1
15
67
41
-9
-9
17
4
40
6
-16
-57
-5
-21
-3
9
9
-4
4
29
-2
-12
-9
1
84
29
-13
-28
7
0
18
55
54
-6
-31
-14
1
6
-22
-37
-68
-15
-25
27
-13
-8
1
11
46
19
-5
-3
3
15
19
-9
-56
-37
33
1
-4
8
-38
-41
-18
13
-18
-11
15
-6
6
11
48
27
-1
-2
-18
-53
-5
8
15
-16
-28
-11
6
-62
8
-13
-35
-26
-16
8
-11
-63
27
18
-21
13
-12
-17
8
-91
-4
-23
-2
-1
-25
18
-19
-51
-4
-7
10
3
-2
12
16
-22
6
9
-9
11
32
9
-27
-43
-6
-12
6
5
31
-16
-48
0
-6
5
-4
1
47
7
18
12
-25
-2
13
4
-8
9
3
7
18
5
21
13
-8
-26
11
-6
15
9
-29
-16
2
-7
24
25
24
-11
-35
-9
-17
-17
-41
17
-18
-20
30
18
-45
40
14
19
-26
0
33
3
6
-21
25
27
-24
15
-20
-18
-17
-3
24
11
81
-2
-31
-4
-14
-1
-9
4
-34
-10
20
4
20
-17
12
-86
46
24
19
-4
18
36
18
-71
20
-5
-9
2
3
-12
0
-44
72
-23
-20
-4
-8
-5
1
-13
108
6
7
-7
2
-21
-70
56
14
1
-12
-11
-21
-24
63
96
63
13
-2
7
34
56
-10
60
-57
4
16
4
-21
-18
-15
63
-71
6
11
0
34
-27
-2
58
-51
5
-2
-3
-15
-21
52
87
13
-1
-2
5
8
14
-15
19
-46
-7
-10
-9
-7
10
11
47
-37
10
12
1
1
12
-27
-47
-41
-25
-17
-8
15
3
-19
26
4
7
-6
-3
-10
-10
33
1
-20
20
5
3
12
4
-18
-32
-37
-10
12
-5
2
-2
27
5
35
12
5
2
8
2
-14
9
-71
1
0
0
3
-14
-32
-24
-9
-9
-13
-7
-36
14
36
-12
14
-21
-3
0
22
-13
10
25
-48
-8
-3
-1
3
16
-21
29
-66
-3
-7
-4
-31
-34
13
47
-23
15
13
3
30
6
-3
19
-57
21
8
-1
-4
13
6
34
-47
-2
-8
-7
-12
-2
-35
-5
-1
-7
-4
-2
-11
-23
6
13
-41
-17
1
0
3
-5
1
-5
-7
9
-1
-2
-1
1
17
11
-6
10
0
4
-3
2
-22
13
6
6
1
-1
1
4
7
24
14
-7
-12
-1
-9
-6
-3
-9
36
-22
2
1
1
-6
8
25
73
27
23
4
-7
6
-13
-12
22
-13
-7
-5
3
3
-7
9
39
-15
-10
1
1
-4
15
10
64
25
1
0
-3
-10
-4
-5
36
-2
-8
0
1
21
15
-11
7
-14
-8
-3
2
-4
-21
-10
10
3
-1
-2
-1
-5
-8
7
52
21
2
3
-3
17
11
-14
-29
-22
-3
-3
-2
-15
-19
-13
26
9
-1
-2
0
-1
12
-16
-36
-22
-4
-1
-2
-2
-2
1
13
-2
-2
-1
-2
-2
1
-17
12
-5
-7
-2
6
-7
-2
-4
37
7
3
3
1
-1
-2
-5
-1
4
1
-2
-10
-5
-3
-5
-16
-14
-4
4
15
7
4
-3
-6
-17
3
0
2
2
-7
-11
20
24
9
3
-1
-3
3
-3
-34
-3
6
-2
-2
3
-5
-11
-19
0
-5
-3
-4
-12
-20
17
-12
11
-8
-1
0
10
11
3
-8
-13
2
-2
0
1
-3
-9
-6
-3
-1
-1
2
-14
-4
-12
-10
-8
-3
-3
0
20
-11
-10
-8
3
10
1
2
-18
11
-4
12
10
-4
-2
-3
24
-5
11
-33
-4
-4
0
1
6
-12
-29
-13
-5
-4
-1
-6
-8
32
-6
-3
4
-2
0
-1
3
-12
-10
-6
-18
-6
-3
-3
-12
8
6
35
5
1
1
3
0
2
0
-6
8
7
-1
-7
-4
-22
-25
4
-3
-4
-4
-1
-11
21
-1
-22
-1
-3
-1
3
10
5
-9
9
0
0
0
-8
0
-3
3
2
1
3
1
6
-4
6
-10
-7
-4
-7
-2
-1
-3
-13
-3
-2
-2
-6
-5
-5
-7
-3
-2
7
13
-3
2
2
5
-2
-6
9
-14
7
0
-3
0
-1
2
-6
3
9
2
-3
0
-7
-2
-2
1
2
0
4
0
-1
0
3
0
2
1
-1
2
3
2
-12
14
-6
-1
-3
-2
0
16
-9
-4
-4
-1
1
-2
-12
-31
-30
-4
-6
-2
-4
-4
1
-9
-24
-5
-1
-1
-1
-2
2
2
-3
0
-6
-2
-1
1
-2
4
0
-8
-4
-2
-1
1
2
3
-4
8
1
1
1
0
-3
-8
-2
5
3
-1
-4
-2
0
-3
-3
-15
2
0
0
0
-3
1
-1
-5
-1
1
3
4
-12
10
-10
-11
-6
-5
-4
-5
-9
-10
10
-16
-6
-1
6
-1
9
7
3
13
3
1
2
7
-10
-11
18
4
2
-1
-5
-15
1
-4
6
1
-5
-1
-6
3
6
-2
19
7
1
-2
-2
9
0
4
11
-23
-3
-7
3
4
16
17
15
2
2
-2
-5
0
13
-2
10
-1
2
1
-4
-14
-52
-5
6
-16
-9
-4
-17
-24
0
8
14
8
0
2
8
11
23
5
-9
4
1
5
20
29
5
-2
0
7
0
0
7
-10
-53
9
9
20
-3
-7
-17
-7
-11
7
2
-14
12
-1
-3
-7
27
-4
-6
-1
-1
5
-7
0
-77
16
-10
-5
2
-11
-11
-14
23
67
9
-5
3
3
-21
2
-2
43
-29
3
-6
2
13
2
-24
-15
-10
-7
-10
-5
9
10
32
14
9
0
4
10
27
-5
44
-27
26
0
1
-3
-20
24
-38
-20
59
18
13
10
-3
-49
25
-20
-21
-12
-1
4
98
37
30
-63
3
0
-7
-2
-61
-36
-51
-19
-52
-15
-5
-10
48
-9
10
-15
13
1
-15
-5
-99
52
19
-17
12
5
3
2
29
-63
-62
-44
-8
-15
-6
-5
7
37
44
50
46
28
16
5
83
17
70
-61
-25
17
5
-5
-64
-65
-27
17
23
-14
-17
-13
-8
-39
17
4
-53
-6
11
7
-66
93
-11
-40
-27
-26
-19
-5
99
-85
65
108
57
18
-24
-3
39
127
-89
-96
37
12
35
6
-66
-46
40
100
127
9
-18
-6
85
-52
43
-82
117
11
-1
2
-92
46
-6
54
79
-19
10
5
-35
-26
-31
35
127
35
30
5
75
86
-20
-28
-16
-37
-5
-12
-109
-25
-2
0
-73
-12
-78
-22
33
-15
-26
-17
-30
-45
-1
-35
22
-38
53
10
81
14
-28
6
-56
3
-41
36
-43
3
68
66
47
18
46
15
12
58
111
35
-26
24
-22
-60
-122
-7
-7
-10
-4
-15
24
52
-128
-23
-33
-31
2
-1
69
-28
-67
20
-31
-27
19
-14
-8
-58
-82
-46
-92
-20
-41
-21
-35
-19
-87
0
-11
-10
12
-17
13
5
-87
-4
13
-5
-38
-19
41
-12
-30
28
59
54
28
29
-23
25
-65
0
41
15
-25
6
-14
-33
-8
9
20
9
44
11
29
16
-36
-27
-79
-53
-2
16
-14
-17
-27
-32
-127
-50
-56
-44
-17
8
-21
-6
98
53
38
-14
-73
-83
-31
41
66
32
20
3
50
25
-33
-12
-56
-21
-37
-8
-48
3
-9
5
17
20
16
41
7
32
67
48
-128
-12
27
84
-5
45
12
-35
37
-27
-60
-84
-33
-10
-24
39
127
81
-5
-21
16
3
-87
-4
29
-13
38
84
-3
14
-101
-37
-61
-59
-30
-12
-28
-6
-100
-22
-128
-56
68
28
-48
-1
-128
-17
-28
-26
-64
7
-26
-51
-102
4
-113
16
-13
-71
53
25
-123
16
76
13
22
87
-26
20
-107
-18
51
74
-27
-45
28
91
-31
2
-12
-47
19
62
30
125
53
44
110
-12
38
-33
-16
86
95
-45
-109
18
-6
-36
79
50
127
33
88
76
40
38
-28
-38
107
62
109
-19
-33
10
1
-29
116
-98
-98
-84
34
7
17
-12
118
35
123
70
-13
15
-41
-26
127
79
57
-24
-11
8
-4
-87
106
-25
-104
10
24
-1
12
-48
106
-25
-84
-128
-74
33
-31
-58
66
-68
-17
-1
-12
-34
5
-80
59
5
-16
113
34
17
23
-52
32
49
77
39
98
90
-14
-17
19
-31
68
37
-33
-51
2
-42
2
-25
-120
-100
-14
29
32
11
6
66
101
59
-45
-15
-6
-18
-10
-79
-128
-103
-9
-24
0
-8
0
16
44
127
49
6
-7
-10
-12
72
127
42
-3
-20
21
-9
2
-4
-128
-35
69
8
-26
1
-20
-74
-69
-48
-57
4
1
-4
-13
-66
-83
-47
-65
-65
-14
-35
-14
15
-81
5
-17
-5
74
37
3
18
69
44
61
-33
-70
-48
3
23
72
61
-1
-14
-39
19
8
20
2
-14
-2
19
25
9
-20
-14
-87
-47
-3
-50
-8
12
-14
-64
-128
-88
1
0
22
41
1
37
84
22
7
4
5
35
-5
4
115
73
-4
37
-3
-18
5
1
-22
-52
-8
-1
32
-25
-2
25
-99
32
-21
19
-7
-10
-16
-34
71
50
-23
-37
-7
1
-4
43
-91
-52
-13
11
-5
46
-8
-30
42
-36
31
3
-18
-9
-6
17
-103
15
8
44
14
16
-5
-40
37
-12
-65
-93
3
-47
-8
53
127
82
73
31
25
18
4
9
-92
-15
-82
-21
-29
0
-13
-69
-17
-125
16
10
13
33
-3
46
23
99
38
68
-11
-11
-9
-60
-124
-100
17
-83
19
4
-1
38
127
50
-30
9
-33
15
-18
-6
89
17
-38
-16
26
-6
-7
-83
-128
-99
-27
-35
-22
4
-1
30
92
104
25
28
-17
9
-1
34
90
25
40
3
3
5
7
-23
-38
-50
-45
1
-31
37
16
70
71
37
-8
5
12
-7
-12
25
-47
-50
13
-4
19
-8
-17
-38
-114
-68
84
30
-52
-60
-22
-57
127
21
-41
-36
7
10
-2
-41
-64
4
9
-49
40
6
7
-11
-102
-34
-41
40
-76
8
-9
66
4
45
1
-41
28
33
16
17
-77
-67
45
31
-9
-69
-15
-14
83
122
21
14
-7
34
24
76
127
67
0
-3
15
14
-5
-8
-39
-62
18
29
21
6
-3
-37
-124
-54
-57
-6
-73
-7
-5
-32
-128
-98
6
-12
-8
30
-17
-59
-8
-8
-24
-22
34
35
17
16
57
95
-43
-37
14
20
15
127
127
96
39
36
-15
22
-9
-3
-20
-27
-8
-17
-51
-82
-5
-64
-125
-105
15
20
43
26
-9
-71
-69
-19
21
14
-45
34
-5
-14
-81
-20
-16
-25
76
-68
19
22
6
-31
50
127
-35
41
-33
-40
-72
27
-61
-86
14
26
9
22
107
121
56
-9
-57
14
1
15
-1
3
-16
-25
57
-40
-10
36
-33
-28
5
5
6
26
16
52
17
14
3
25
29
-19
-12
-54
-17
-74
-43
30
-63
5
-8
-9
22
31
47
-28
40
68
4
-3
-107
-10
33
6
28
-89
-9
5
-20
-18
-26
3
-38
8
-14
-1
106
31
-8
60
-2
-85
1
-62
-112
-69
-32
-54
-63
-12
-16
-21
-34
-55
-58
4
87
65
18
31
52
75
67
41
-79
-114
17
22
71
77
40
-17
-30
12
-7
38
2
-87
4
26
17
0
-1
26
-53
12
-12
-22
90
14
-10
-40
-128
-51
71
70
-43
-4
-8
-43
6
-99
-83
-64
24
1
-4
-90
50
64
-19
16
-41
47
5
95
127
98
-28
-59
-17
27
-1
12
-70
-92
23
25
20
22
-1
3
-106
36
51
-3
-52
-48
14
27
77
31
-3
17
43
22
19
23
86
-29
-17
-51
-13
32
-11
-45
62
56
-18
12
6
6
-20
-8
-28
-47
-2
-18
34
-5
-7
0
-128
-67
22
-4
-21
50
4
-44
27
50
-49
-15
2
-16
-4
19
29
30
23
-52
73
-2
3
-9
74
-11
22
40
6
-82
-13
-24
-66
-57
-64
12
-23
48
14
65
104
91
46
-1
41
36
1
-34
-108
-77
-51
12
-74
-24
-2
1
-45
-8
-46
-44
127
127
21
8
-9
32
78
97
-93
-128
-21
31
13
-56
-65
-89
45
24
2
-29
96
24
24
-1
23
-94
10
39
-45
17
-12
-23
32
124
17
91
126
62
59
62
-1
-47
-8
-100
-128
-51
7
-32
47
-1
3
-10
2
-35
-37
-5
-100
12
4
-46
-106
-18
-49
64
-51
-13
10
39
96
22
5
-40
75
50
-13
-31
-54
-21
53
86
28
73
16
118
46
-3
-49
-28
0
-54
7
-5
28
47
-7
27
-19
-63
-45
-2
21
-24
-17
-20
41
114
18
-15
-43
-36
37
72
-47
-87
9
-8
44
81
21
-29
29
63
15
57
14
-24
6
-2
34
-5
-2
-50
-27
-27
-35
0
69
77
25
20
-30
-19
-40
-14
-67
-45
-14
-33
-43
-36
-34
-39
-21
7
-39
-64
-69
-2
3
4
-13
11
36
-9
51
17
35
-13
-18
2
5
11
-56
24
-4
6
-23
32
-4
-26
3
37
44
27
26
-24
17
45
127
9
-1
-4
-4
-16
3
-7
37
1
-9
-9
34
-28
25
-30
10
-3
-16
-24
17
6
26
74
-33
-26
11
21
1
3
1
-55
-22
-26
-24
-25
19
-5
-16
-48
-73
18
-4
11
-79
-49
-7
39
116
27
9
9
-49
-12
5
-8
0
-1
3
6
28
18
-17
-1
-71
-18
44
-11
-4
-4
1
-26
-22
-17
-60
-15
-42
-17
-39
-15
-26
21
7
-3
-4
-18
-18
-16
-9
3
-7
-12
17
31
-5
-5
6
2
-49
8
-5
1
-4
12
11
16
25
-17
13
-11
-14
-12
-15
-2
29
39
-16
2
-12
7
-11
-1
-7
13
2
2
5
-20
4
-6
15
2
18
-5
-18
10
-39
-27
9
-18
5
-8
9
-10
-30
0
-52
8
-38
-21
5
38
127
65
27
-15
30
47
-27
20
23
-16
-33
37
17
35
9
-16
-24
-11
-52
7
-25
-20
-39
-7
-40
-4
60
-20
-23
-37
21
-9
-23
-6
-12
-4
16
-21
50
6
-16
-7
23
-11
32
-33
-23
-1
-13
6
13
23
-8
-48
48
13
12
2
-19
-49
-8
-45
-73
-14
-8
-3
35
25
-14
-18
20
6
-9
-5
59
-20
-45
-40
29
11
12
13
-51
-44
44
-6
62
-2
16
4
3
44
-17
-3
118
9
6
8
-9
7
8
-89
-33
-22
-23
2
-11
-23
-36
-95
119
-5
-14
23
5
9
-1
-37
88
-1
17
-1
-14
32
14
-16
37
4
-5
-5
-11
-3
28
42
95
20
-7
3
-17
16
22
59
69
13
13
4
-19
-14
-4
13
-59
-10
-2
-10
8
-6
-9
43
-87
-1
-7
-18
-18
8
-46
14
-58
15
-3
0
-7
-30
13
17
-128
-29
-5
-9
18
30
-5
4
-39
2
-2
-7
-7
16
22
35
-37
11
4
-10
1
-21
-38
33
-91
-12
-17
-2
19
-5
15
58
-95
-4
-4
-10
-5
5
-10
48
-116
-15
1
-6
20
-15
-13
53
-15
-3
-17
-11
-7
-3
2
74
-9
0
10
-2
-13
-7
-2
31
-96
-12
-4
-4
13
2
-7
57
-44
14
9
3
9
-6
0
-1
-7
-15
-3
-6
-12
0
-6
-6
12
17
2
-1
7
-2
12
-7
37
-11
-1
-2
6
8
3
-17
46
6
6
6
4
-15
-4
1
73
11
-4
-4
1
-6
9
-18
21
-10
4
7
0
13
-8
-19
5
6
8
2
-1
-10
-1
-1
-34
14
7
-3
-2
-3
0
7
-73
8
1
-2
-17
1
21
16
-62
-19
-5
8
-10
2
-1
15
-16
-5
-9
-4
-3
2
1
26
84
8
5
0
-14
3
5
-6
65
-21
-17
-2
16
-13
-2
15
61
-1
1
-4
-28
-10
-10
8
62
8
1
-2
24
2
5
3
3
-16
0
-1
-3
-2
-3
6
56
10
5
-3
-4
21
5
-8
50
7
1
0
-1
9
0
16
25
-2
-12
-3
0
-2
-12
-4
23
-16
1
3
5
-6
1
-7
-10
12
12
0
2
-3
-10
-7
-6
4
3
1
6
3
-1
-6
16
3
-2
0
-16
-13
21
-13
-26
-8
-6
1
2
9
12
-3
3
-5
-3
-1
-3
2
-20
-4
-61
-8
-5
0
7
2
-2
2
-10
6
9
2
4
-10
8
-7
-16
13
4
-3
2
5
22
-9
-33
-7
-1
-2
-26
1
5
3
-1
1
2
3
35
20
-30
-10
-8
-7
-9
-2
21
-22
18
-6
5
-3
-1
-2
-22
-7
-11
-6
-3
4
2
-1
-1
4
3
-1
13
-12
-3
-3
-6
-6
9
0
11
2
3
-1
-5
8
-11
-6
2
0
-1
-1
10
3
-6
-7
-10
4
-2
1
5
-11
7
4
1
-8
2
-1
-13
-7
3
-5
-28
5
0
-3
1
12
-14
-20
-15
-8
-2
-1
-1
-4
-4
-7
-4
-2
1
-1
0
-1
8
0
-1
2
1
1
2
-3
2
2
18
3
-4
0
-9
7
-2
-7
1
3
-4
-1
6
-2
-6
-16
-7
-10
-3
-2
4
-3
-8
-7
21
12
3
0
-2
-8
-9
-14
-11
-14
1
-3
-4
0
22
8
21
0
-1
-2
0
5
-15
-3
-8
-6
-2
-2
2
-11
3
-1
4
5
-2
-3
-4
12
-14
-4
-8
5
2
0
-3
5
-9
-4
-15
-9
-3
-1
6
2
3
2
0
5
3
1
-1
-1
-3
2
9
3
-1
0
-2
-3
0
-8
-7
-6
-2
-2
-3
-10
2
5
4
3
0
1
1
17
-6
-7
-8
-3
1
-1
-3
1
-5
-2
-29
-4
-4
-3
-2
-3
7
-4
-18
-6
-5
0
3
7
-8
6
1
7
-2
-2
-2
-13
5
4
-4
-2
9
2
2
3
-4
-8
6
-3
-7
-3
-7
2
6
-4
13
2
2
0
-2
-4
-3
-7
-8
1
-2
-1
3
-2
2
6
-1
-1
-5
-1
0
3
0
4
3
-8
4
-2
-3
-5
3
3
-1
-2
-5
-4
0
0
-2
-4
-4
1
-6
1
1
-5
2
5
2
2
2
-3
2
5
2
0
-1
5
0
0
0
2
9
-16
-3
-7
2
0
-4
-2
-40
-8
-16
-7
-3
-5
-8
-15
4
-7
-9
-2
-5
-1
3
8
12
17
-7
8
-1
1
1
0
1
15
2
3
4
-3
-1
6
1
-1
-6
3
1
-2
2
8
10
-6
-4
-13
-8
1
2
-29
3
3
11
-1
-4
2
0
21
-9
-14
6
1
0
-3
-5
15
4
-4
9
4
0
0
-8
-26
-14
-4
7
8
-3
-6
-14
-11
37
6
3
7
-2
1
23
-4
35
12
14
-8
3
-1
-17
21
-49
0
-2
-4
2
0
2
-16
53
21
5
2
5
-4
-23
-17
-41
6
0
2
7
3
-3
11
-56
-14
-14
-4
-17
-5
4
-29
-15
-1
29
-2
3
4
-3
30
-21
4
18
-5
-19
-6
12
-3
50
63
23
-2
3
-5
-15
-7
15
10
26
3
8
6
13
15
24
6
-6
-7
1
-1
4
30
-24
1
-10
2
4
-1
5
-17
-29
-55
-16
-17
-21
-7
13
-2
19
-1
-6
16
24
8
-26
18
36
-8
-21
1
-12
-6
31
-77
18
-27
-3
-7
22
5
-21
-25
7
-22
-18
11
-28
-8
-3
-9
-44
-13
-23
-40
-16
4
32
-1
57
-1
-2
22
26
-1
-12
39
0
17
-14
-2
-22
-3
-11
12
-29
-60
4
12
34
4
-12
-22
2
35
12
13
5
-17
1
-23
25
-3
-18
-15
-19
7
19
39
-7
24
12
-16
-26
15
35
24
-76
-16
12
-10
2
11
-43
-60
26
-11
60
49
46
11
11
18
-20
23
-9
-10
2
-25
-16
-12
1
14
9
-13
-84
-8
17
10
28
70
11
15
78
29
5
83
8
-11
-17
-7
23
-43
-8
-32
-10
-14
5
-1
-82
12
-42
-36
-4
-11
-19
22
109
10
0
50
22
-9
-18
-19
-27
-5
4
32
-15
-11
-7
12
-85
-57
-26
-107
-29
-46
-7
-14
-45
56
-28
12
19
-13
-21
-28
54
73
33
24
1
-16
8
74
78
1
2
4
50
10
-19
-2
121
15
2
80
-35
-7
-7
-50
-119
-128
-8
-18
-27
2
-21
-86
-78
16
17
-37
28
35
0
34
7
75
13
-16
-76
-33
0
76
57
127
-8
-17
19
63
21
46
120
22
41
56
-35
8
18
14
-56
-128
-18
-19
13
76
-3
-93
30
59
-48
15
1
41
3
21
31
4
48
-73
7
23
9
20
74
10
9
65
-23
-22
13
1
-65
-107
-25
-11
-21
-24
16
-83
-128
-128
-18
-30
-9
-22
-16
-91
-128
-38
-13
42
30
-8
-56
17
24
35
-5
19
1
-43
-6
28
114
56
-7
-47
-31
-41
23
77
23
63
-1
-14
-12
-30
14
17
10
26
18
16
-3
-8
21
-16
61
-16
-7
-41
6
-36
-11
-6
-128
-64
52
66
47
5
-19
-4
125
31
-38
49
-23
-26
-11
0
39
-34
12
-20
27
-11
9
-47
-94
11
-40
-12
-11
6
5
50
37
30
6
44
-15
-25
1
-33
-128
-120
35
-8
15
29
-11
-15
-79
59
-34
50
2
-41
15
7
33
1
12
-23
-28
-9
-7
-71
32
75
-27
-48
-5
-20
-9
62
46
12
35
-9
21
0
3
42
0
11
2
52
39
34
4
11
-32
18
26
-10
35
-1
8
32
-19
-40
-23
84
-18
18
-3
-58
-96
-74
-23
-53
59
40
-20
-77
-96
-13
22
49
-32
-11
15
10
-62
-3
-49
-90
36
23
5
41
49
15
33
64
-3
27
3
-40
38
72
1
-78
9
-4
9
46
120
6
19
43
-33
-45
-18
-30
-6
-17
14
-47
1
40
3
-5
-98
-52
-52
-23
-35
-70
-6
-9
-8
-21
6
-21
-35
-5
-3
46
61
77
16
-12
-6
10
10
60
55
-38
21
23
18
-7
-19
-43
74
48
-4
-25
13
-2
-11
14
-98
-90
-12
47
3
1
-21
-83
-128
-69
-13
-36
6
17
7
10
115
108
46
127
-38
-31
13
73
70
-31
-76
-101
16
4
-4
-7
-35
1
18
48
-20
-1
-18
-40
-106
-71
-39
30
1
11
12
3
-121
-35
36
14
13
4
-28
-64
-22
-51
20
-16
17
14
-14
-58
-66
9
11
21
-17
-6
15
112
101
69
12
-37
54
-14
11
56
17
-64
79
77
-38
-11
18
25
-78
-52
-57
-80
-12
-24
-11
-65
-73
-120
-40
20
44
11
-3
-87
-128
13
-38
-1
-3
-19
-14
49
103
122
-21
-76
-5
-22
10
67
71
63
112
116
-19
-34
-5
-3
-69
-90
-22
-106
10
-7
4
-58
48
35
-29
-20
-26
-1
-17
-34
57
-24
-4
58
-31
-9
7
-14
-121
-24
4
-28
17
25
-15
72
127
127
1
21
9
-1
3
49
-87
-44
19
67
-17
5
-6
-26
-5
0
-19
-97
-37
18
-15
-90
-38
-33
-30
-7
18
18
-5
33
-103
-59
26
68
-5
-35
8
-82
-7
-46
-1
-65
-21
-18
-16
96
46
65
-23
10
27
23
13
45
-88
-4
6
23
-11
-11
11
-11
44
56
26
7
-56
-21
6
41
109
-47
-18
-21
-39
-9
1
-76
-128
-103
-62
21
4
0
-17
-24
127
66
30
-53
20
-25
10
10
18
-30
-2
-43
28
13
2
25
18
71
5
11
21
45
24
46
73
-33
29
86
-17
-30
-29
-62
-105
-10
-75
-16
-3
-4
-4
-25
-36
-54
17
-5
1
4
7
75
97
73
31
20
3
6
4
18
-79
-91
-51
-20
-25
14
10
-63
-62
-57
22
25
27
46
9
-9
126
126
66
74
-7
-13
0
68
48
-5
-63
-36
-2
11
-2
-52
-90
-6
6
-3
58
-2
-7
36
-78
-30
9
95
-18
3
-14
-63
-128
-28
-47
-54
23
-43
-9
-39
-33
-61
1
30
-33
-45
-9
-6
12
59
18
-34
32
20
5
29
127
10
-23
32
-37
-10
8
-20
-79
-3
26
-27
22
-1
0
45
62
23
93
44
-16
-1
0
-43
-122
-16
-52
-35
5
-5
-2
19
115
93
-7
12
-8
1
2
126
-25
-3
32
78
-12
32
1
-55
-128
-114
-40
-8
29
-21
-21
-121
-128
-2
-27
-84
-45
32
14
62
85
47
49
11
31
-22
1
0
127
8
-54
8
-11
-5
-4
-90
-128
-69
-2
12
21
5
-20
54
110
78
14
28
2
-58
-2
-35
-30
7
-11
-35
22
13
2
70
90
17
37
-26
-5
39
0
-57
-106
-125
-69
-14
39
-22
-29
-69
97
9
6
25
21
24
-11
62
69
74
-40
-52
48
-6
16
18
127
41
52
76
-85
16
-18
5
-1
12
-21
-18
-31
6
23
21
81
-10
36
-6
-18
-6
16
40
-72
9
34
-5
3
-2
-10
-19
-101
-20
-20
70
-25
-11
5
-34
-32
-35
-33
9
23
49
4
-60
-123
-108
-5
-13
-9
-24
-1
-43
6
35
-10
-25
-33
-19
16
70
71
88
-9
17
-6
6
4
33
-14
19
63
20
-28
-24
9
49
-10
30
24
-10
-3
36
5
-38
-80
-66
-37
-10
20
-24
-40
-31
-30
-59
6
-13
44
-5
0
15
41
31
-5
-42
-11
-15
12
21
51
54
15
23
40
15
29
72
46
-4
13
34
-22
10
-28
-37
-80
-33
1
2
36
24
2
41
105
55
8
61
-52
-14
-13
-29
-65
-59
-43
-97
-10
-33
11
-23
-54
-30
14
35
-10
32
-19
-45
-19
-16
16
16
37
7
1
23
21
23
-20
-6
-35
32
1
33
-12
8
-44
0
68
-41
-28
-79
0
-23
32
19
0
-16
-15
4
-123
-23
-30
-66
11
-11
-30
-25
62
42
-19
4
29
35
23
48
-39
2
43
-15
0
5
16
15
89
9
-31
17
-22
-14
-6
-14
68
17
-16
-19
4
4
15
-45
-93
-53
20
-15
15
-4
-19
-4
127
34
1
56
-16
8
4
52
15
-7
37
27
1
-3
32
-1
-46
16
-60
-18
-29
-10
3
6
-36
-10
-1
-16
7
-6
1
-33
-128
-63
19
25
5
5
-12
-24
-93
1
-7
-10
-13
9
5
11
83
38
-3
-15
-19
-28
1
-3
-3
-8
14
8
11
-19
1
-6
-28
-13
-18
14
-18
10
-4
-1
30
26
41
-15
-6
1
23
24
14
11
-11
-3
3
-10
3
-3
-18
-12
38
-20
1
-15
1
-13
23
32
-4
16
21
-21
-29
7
8
-8
-14
-5
-17
-16
-7
-12
-33
-22
-10
-18
1
-19
-11
-10
-7
-1
-21
-1
1
-16
-35
-9
36
17
19
14
3
-8
12
-9
-33
-15
-21
-10
-22
-20
17
4
11
-7
-17
-20
15
-41
16
9
31
25
40
0
10
-53
24
1
3
-9
-20
5
3
-41
11
-2
-43
-15
1
0
-6
-35
0
-12
-11
4
-24
-9
-34
-47
-5
3
17
10
-5
-12
-15
-42
-14
3
-13
-14
15
-30
-26
-27
-20
-11
-27
5
31
13
19
9
34
0
12
5
18
-14
-2
17
-28
3
-6
-5
-31
-36
37
25
-37
7
-3
-7
-12
42
-3
-109
18
-1
0
6
-9
-10
-10
-80
-76
-15
-9
-2
8
10
-27
-34
39
7
2
-7
-9
29
-5
29
0
-3
7
3
2
2
42
83
103
22
3
-5
-18
23
3
55
60
-24
-19
-5
14
-38
46
70
125
4
3
5
12
27
-84
57
108
-6
6
0
-23
-9
-20
71
62
-5
-21
-13
-32
-8
-40
46
2
-2
1
3
-1
-16
-5
46
77
33
19
6
8
23
67
25
-59
-15
-4
-15
-3
9
19
28
-54
-36
-15
-6
-19
-18
10
34
61
11
-31
-10
-12
-7
1
17
-70
-26
-3
5
0
-25
51
3
-28
40
16
2
25
39
-54
16
-128
-19
-12
-9
3
-41
28
66
-109
14
17
0
29
30
-51
44
-109
-21
-16
-13
-18
-45
1
54
-98
-4
-4
2
7
13
8
66
-128
14
13
0
10
14
-18
36
-46
6
6
-3
-1
11
22
33
-1
19
6
-1
11
-13
-16
11
0
-9
2
3
-1
-8
-16
3
58
12
-6
-3
8
3
2
-9
58
-4
-5
-3
2
0
11
-6
-29
-17
-1
3
4
0
-15
-9
64
7
-3
-3
-13
-17
-5
-7
32
7
6
8
5
5
14
-16
-49
-15
7
1
-4
2
8
-12
-8
16
3
2
-15
-4
-9
-21
15
-25
-7
-5
-8
-9
-6
3
46
5
-2
5
8
-19
7
-11
13
-8
6
4
4
16
-32
-5
51
8
1
-3
-7
0
-8
-14
11
-9
-8
-2
-5
-27
10
-4
43
-2
-2
-4
-9
4
3
-6
39
3
2
-1
-5
-4
-5
-4
3
-5
1
2
8
2
5
-7
30
-4
1
0
0
1
3
-5
20
4
2
-1
2
3
-7
-6
-14
2
-2
-1
-2
-2
15
-7
-5
-5
-2
-3
-1
4
-7
-4
11
11
3
4
5
0
0
-5
-1
-13
-8
-2
-9
-4
0
-11
9
8
-1
-4
0
2
8
-4
-12
-1
4
2
3
-1
-6
-14
-10
1
0
-3
-1
-1
-8
-4
-7
4
2
-1
4
-3
11
6
23
9
2
1
-5
12
6
-11
-19
-10
-2
-1
-3
1
-8
1
14
4
0
2
5
-10
4
-10
-21
-3
-3
-3
-1
7
3
-2
7
0
-1
-1
1
9
10
-3
-11
-5
0
0
-1
6
-4
-5
-21
-4
0
-1
-2
7
7
-1
7
6
2
0
-3
-8
-5
-3
-5
-1
-1
1
-1
-8
-5
-4
0
1
-1
0
0
-1
-2
-7
-4
-1
-3
-2
-1
-1
-3
1
-4
0
1
1
-1
4
-2
-6
-3
-2
0
0
-4
0
1
-7
10
0
-1
-1
0
-4
2
5
9
-3
-4
-1
1
1
-6
-12
-2
2
1
0
0
-1
-1
-5
1
3
-1
-3
-1
-3
4
2
8
1
0
-1
3
1
-5
-4
3
-7
0
-2
0
-2
-1
-4
-4
-6
0
-3
-1
1
0
-4
5
3
-5
-1
-2
-5
-1
-1
1
-3
-1
-2
0
-4
-3
-2
5
-3
-4
-1
-5
1
2
-3
4
7
-3
-1
0
1
-3
-10
-2
-7
2
0
-2
-3
-1
1
-1
1
1
-1
-2
-1
1
-3
-7
1
1
0
-1
0
0
-5
-8
0
-4
-1
-1
2
-1
0
-14
-2
-2
-1
-1
-3
-1
-6
-15
1
-2
0
0
0
2
-3
1
4
0
1
-1
0
2
8
1
-3
0
-3
-4
-1
-2
-11
-15
0
4
1
4
1
3
3
-3
-3
-1
0
-1
-3
-5
5
10
2
0
1
0
0
5
-7
9
-1
-1
0
0
-2
-2
4
9
-2
0
0
-1
-1
0
6
18
4
2
-2
1
-4
-4
-14
-2
-3
-2
-1
3
-1
-1
8
4
-1
1
0
4
2
11
2
12
-1
-2
-3
-4
-2
-3
-2
-1
0
-3
-1
1
0
-6
0
8
-4
-3
-1
-6
-7
0
-6
-7
-3
-3
-2
-3
-2
14
10
4
2
1
0
2
2
-19
-11
-1
0
-1
-1
0
-2
8
13
1
2
1
-2
1
10
-4
-3
-9
-12
-6
1
-5
-6
5
-14
2
3
-1
0
6
-12
-6
-12
-15
-9
-6
2
-6
2
0
11
-2
10
4
1
6
-6
16
-3
-14
-5
-2
-5
-7
10
-6
8
-11
5
1
1
-3
17
-44
4
-17
-20
0
-7
-13
-42
31
-4
-10
2
-2
0
-20
-14
-40
-18
-5
-1
4
2
4
-16
-53
3
3
0
-1
2
3
-8
21
7
5
4
0
2
-6
19
20
5
0
-4
-7
-8
-2
19
-18
-7
2
-6
0
-1
0
-25
26
4
-18
-10
-3
-4
-4
-10
-5
-1
4
10
-1
4
13
18
-4
0
36
-1
-1
-1
2
-11
79
13
22
8
-14
-6
23
31
28
-23
33
-8
-5
2
-9
-24
72
-4
-17
-12
-8
-7
4
7
27
22
25
2
11
4
1
1
43
1
30
17
-5
-2
-7
-5
-26
-7
-46
-15
20
4
4
1
-17
-26
14
1
-10
-11
-5
5
-13
-10
-13
-7
-19
1
-8
0
-46
7
-31
5
13
11
0
-5
17
5
-13
4
28
4
4
30
-1
8
12
8
-61
-34
-10
-40
-18
-9
-18
5
51
40
4
24
-1
22
-11
-1
15
-1
17
-27
-9
2
0
18
-18
-3
-13
3
4
15
-21
-4
24
-2
33
51
4
34
-4
32
-49
-24
-42
-33
-12
4
16
-20
29
10
-19
11
-18
7
81
30
4
0
4
-10
-3
29
57
-49
1
7
7
11
21
-16
25
-2
-11
7
5
-12
8
-7
-8
12
-5
-18
-6
10
13
0
-52
-22
-37
5
19
32
-3
10
-48
-5
8
13
-42
-24
-14
-9
-66
2
31
-8
24
2
-11
-13
-53
33
6
9
-6
-20
4
-6
-30
-42
-16
-16
-2
5
8
-20
1
10
-19
-8
3
-11
-15
-26
1
15
59
36
8
18
-17
16
26
-10
-23
-24
-3
-15
4
-11
25
24
-16
4
13
47
48
17
18
35
60
14
-2
-74
-37
4
30
-45
-59
-34
-17
-12
28
49
24
-6
-9
11
15
26
0
64
15
25
12
2
30
36
-35
75
67
-4
-21
-27
-11
9
33
56
23
16
10
35
-12
-34
-3
-11
-34
-77
-14
-42
-14
40
56
-38
-66
-57
-116
-23
-24
-53
-55
-56
11
23
100
63
-8
7
-12
-53
-1
38
67
-27
65
28
-22
-40
27
37
-35
-10
-32
-26
-16
-57
31
-62
-51
10
-65
-38
-3
-43
-54
-11
-46
-24
39
55
-10
-21
28
-49
-82
-1
6
-10
14
-29
30
9
76
-19
23
7
-6
13
125
87
47
71
73
40
45
-16
75
39
88
115
-52
7
-16
3
95
-43
-85
-66
-29
-48
2
15
97
22
-109
-89
0
67
-9
-15
23
-2
-57
-98
-21
-46
-10
-8
-19
-52
74
76
20
39
-18
7
-83
62
-12
-32
4
17
-21
26
-96
-46
-82
11
-24
-14
-34
9
-77
84
118
63
-14
-44
85
25
-101
-5
-57
-21
37
26
-7
-14
-106
-25
-39
10
-17
-6
-4
-7
-60
-6
-116
-70
-12
4
-40
-4
-65
-39
-45
-37
-63
-19
19
28
-54
5
-55
-22
16
-25
-16
-1
-60
-5
58
-1
70
31
7
-29
-84
5
-45
38
42
-55
-8
1
-93
-3
91
-8
11
10
-22
-25
-46
-15
-5
-120
-77
-1
18
12
-13
24
-23
-11
-11
9
-14
44
12
45
-21
108
-38
-14
-17
2
39
-16
101
43
63
25
-23
-13
82
-41
-55
-38
36
-81
-37
-37
80
54
57
-82
-40
22
61
-56
44
-28
-18
-90
-7
10
-30
-6
69
8
-113
-80
-50
-65
-6
-22
3
-8
86
41
9
21
11
-7
35
-28
-52
-1
-21
7
-24
5
40
23
127
127
14
-3
14
-11
8
17
-24
89
24
15
34
-3
30
-17
-22
6
26
33
-50
8
9
-21
-80
-54
-4
-5
-1
-37
-5
-26
99
74
21
13
36
-5
4
-25
62
-40
-57
0
-30
17
11
47
42
50
51
-17
86
-17
-13
-6
-81
-20
-12
-28
-29
-11
-18
-62
-4
-82
4
4
3
-6
11
18
100
105
8
9
-11
-16
-9
29
-113
-25
-15
10
27
7
-15
-40
32
-16
5
22
-55
3
22
24
-88
-53
-6
-35
4
21
-9
19
91
-6
39
1
-6
-3
-2
15
-9
-14
-59
-20
-1
5
-4
-24
-57
3
35
12
-4
38
1
-34
34
17
-30
-12
26
-22
-15
-17
27
-25
-17
16
-34
-9
5
7
48
-46
-3
-6
-12
7
6
-31
-27
-11
3
12
47
30
-32
11
101
28
-19
-11
-8
20
10
65
29
66
8
7
5
7
-12
30
-21
-74
24
8
7
13
3
-26
-26
39
32
55
-50
-1
11
-18
-128
-44
-41
-43
-13
10
12
-39
11
-45
6
-13
13
-18
-21
-3
19
24
-18
3
-34
22
9
-17
-32
32
-43
-17
23
5
2
40
113
50
11
25
-60
-18
0
-4
0
-12
65
-13
21
13
17
-5
0
-32
-79
-1
-26
2
-14
-34
-52
-20
32
-11
-40
-28
-7
-5
-113
-79
-16
-1
32
-1
-12
-50
37
17
-19
-5
-21
13
-1
69
64
41
5
-2
5
1
11
58
-20
1
13
-7
-35
6
20
56
20
12
-3
39
44
-5
-24
-49
-5
21
-24
-19
-2
18
11
-62
6
37
86
-2
20
-10
11
92
87
2
-97
-18
-16
-11
5
0
-85
-65
62
-15
-9
18
11
-35
-93
-54
-33
2
-2
-8
-32
-40
63
-28
-35
3
15
-34
-19
-47
-28
49
45
-6
35
2
6
18
59
79
-6
12
9
16
12
34
23
-22
9
2
-16
-17
-6
-21
-128
-60
-18
1
-30
-12
-1
7
55
-2
-29
-1
21
-8
4
29
112
43
60
32
38
-19
-23
-71
-128
-30
-50
-36
-22
-40
-9
6
-6
-19
12
-4
-44
-20
-6
-14
49
14
28
25
16
6
-6
3
-84
33
-40
-9
-27
10
14
49
115
82
13
-4
-7
-12
5
-11
-128
-57
18
35
7
-18
-16
-65
-41
-24
-31
-40
-14
-5
-7
5
127
21
-3
23
5
12
6
72
30
23
42
2
57
12
14
27
70
80
4
2
27
22
-4
11
4
-39
60
28
9
4
1
-66
-118
-100
-114
-26
-64
26
2
-42
-12
46
21
-10
2
-44
19
94
79
104
39
21
-12
-11
-39
-42
38
14
41
-40
34
-2
-7
-29
-85
-36
-9
36
-19
-5
-3
-24
-128
-88
-14
2
-22
7
-23
-20
34
3
-34
7
-7
39
29
51
80
17
11
8
-16
-38
-9
42
104
54
26
-27
2
15
-5
-25
45
-25
5
3
-26
12
-10
-51
-114
-111
-31
-42
54
33
5
31
111
89
-85
19
45
13
-3
10
62
8
59
21
-12
4
11
18
-34
-73
-20
12
31
-3
-8
-55
-112
12
20
12
-13
-1
-24
3
50
-28
-29
-13
60
56
12
-30
-77
15
21
-4
-68
-16
-17
33
118
31
-9
2
9
-5
9
50
50
35
39
9
11
-25
18
3
-54
13
56
-24
-76
-9
10
52
-17
14
10
-2
110
0
-10
-4
-68
-20
11
16
-27
36
12
-17
-32
-49
-47
10
48
21
-6
-14
-10
23
5
-1
21
25
15
-30
-34
-36
45
3
-18
13
-7
-12
-106
-14
-73
11
-6
-12
-3
39
127
1
-3
-16
-9
-10
8
-11
-54
6
29
-15
-38
-2
-8
-35
126
29
-22
-29
35
-22
19
87
12
23
88
51
-19
4
-31
-49
6
-3
-53
-11
-25
-21
-3
10
-61
-57
-21
-6
46
-19
-8
-37
-93
-4
15
-4
-24
-11
1
-6
2
10
9
-9
-17
-10
8
10
-1
-32
27
-26
5
7
20
-7
-28
49
-20
38
20
-48
-37
5
122
14
-27
-47
30
1
0
18
-39
-35
-4
15
1
10
-16
-42
2
0
-18
-1
-14
-2
18
10
14
8
16
-12
-36
16
15
23
4
14
33
12
0
-9
10
1
-18
-7
2
-9
16
7
-7
-27
-28
19
-53
-8
-41
-1
-5
29
46
18
4
-22
3
-12
-2
0
-27
-23
3
20
4
-10
-9
-28
-19
-25
6
-16
-6
10
19
11
-12
17
22
-2
-2
-22
4
5
32
1
-11
10
0
-24
4
12
0
-14
-8
0
-2
-17
16
-9
-19
-11
-29
-11
5
-47
-42
-4
-17
12
-20
1
9
-30
36
23
28
-2
29
-41
-11
-42
-18
-8
-26
-13
-19
7
-16
-61
39
-4
6
4
3
10
4
-48
-41
-9
0
6
9
9
-20
-68
-6
-16
-1
-3
5
-18
17
-80
12
-15
-6
4
-24
-5
-21
-78
-27
-12
12
-2
24
-1
63
-90
11
9
-6
-1
13
19
-38
-100
-32
-8
-14
-10
-14
-20
-20
-52
48
8
9
2
-12
-1
6
-119
-33
-6
6
-6
-1
-8
-45
4
29
12
-15
-6
15
-6
33
77
-43
-6
2
5
-19
20
-8
105
22
19
10
0
19
-6
25
127
8
-6
-2
-10
-5
26
5
100
104
0
-9
2
-12
-18
-54
86
127
16
5
-2
4
10
-33
74
-9
-39
-22
-8
-26
-1
31
69
93
5
-1
3
3
8
-31
48
115
12
0
6
20
-21
9
45
42
23
20
-2
-45
-7
54
54
85
13
6
-3
25
26
-22
33
-105
-41
-20
-1
-10
-12
16
31
-80
-8
-4
-5
3
-5
-5
11
-119
-8
-5
-10
-10
8
23
14
-106
2
-9
1
-17
-3
-35
32
-78
6
-2
0
10
-43
-33
39
-79
15
12
-2
28
0
53
21
-120
6
1
2
13
38
0
-40
-101
2
-4
-1
14
-17
0
18
-95
-1
3
-1
-17
3
2
8
-92
9
-8
-4
15
-3
-10
26
-88
-19
-3
-4
-22
-1
-11
28
-72
16
3
0
-4
2
32
19
-30
-14
-2
0
6
3
-39
-7
55
12
0
1
3
-9
25
-5
52
-6
-1
2
4
2
-16
16
104
14
-1
-2
1
-10
7
12
40
3
2
1
-7
2
12
13
17
-8
-2
-3
-13
7
-9
7
14
-1
-1
-2
4
-8
-12
-3
-23
-4
0
-1
4
-10
-8
9
26
5
2
2
-9
5
-7
8
16
-7
-1
3
1
-10
11
-2
82
-1
-3
-3
-3
26
-3
-6
20
-15
-2
2
3
5
9
5
53
4
3
0
-5
-5
9
-10
19
-1
2
2
-1
-7
-4
-8
32
-13
-1
-2
-3
17
1
-15
27
5
4
1
1
-1
-4
-9
-2
2
1
3
-2
3
1
-4
30
4
-1
-1
-3
-2
11
-15
-12
1
-1
-1
5
-7
-15
-2
10
-3
-6
-2
4
0
-16
-12
28
-1
0
0
-2
-15
19
-9
-21
-4
1
0
-1
14
2
-4
-2
2
1
0
-5
-10
-8
-1
-12
1
0
0
-2
0
-8
-12
20
3
-4
0
-3
3
7
2
-22
-3
2
0
-3
3
-2
-6
1
-4
-2
-3
-2
-9
-12
-8
8
-4
-2
-2
-4
-5
1
8
-45
-5
3
1
2
0
-6
-23
1
-6
-7
-1
-5
-8
-3
2
-20
-5
-5
-3
-3
-6
-3
-9
-12
0
1
-2
2
2
2
0
0
2
4
0
0
5
5
-5
-10
5
1
0
1
-3
-5
-4
-15
-18
-2
1
-2
-4
-1
4
-2
3
-2
0
-2
-4
1
-13
3
-8
-5
-2
-2
2
-2
1
-10
2
4
2
2
3
1
-5
3
5
-1
0
0
-3
1
1
-16
-3
0
-3
-2
-2
-4
-6
3
-2
-4
0
4
0
-1
2
-5
0
-3
-1
0
3
0
-12
-12
-3
-1
0
-2
-1
6
2
-5
3
2
0
2
-2
-17
-12
-6
-2
-4
-3
-6
-3
-2
13
2
1
1
-1
2
6
4
-12
6
3
2
-1
-2
-10
-8
-12
-9
3
-2
0
-6
-2
0
-6
13
-14
-6
-1
-5
3
-2
-4
7
-1
1
0
-2
5
3
6
5
2
0
2
-6
-11
19
7
22
-1
1
-1
2
5
-4
-8
2
4
4
-3
-4
-2
0
-14
-25
-20
-8
-1
-4
-3
-11
-4
6
4
2
-2
-6
6
10
12
12
2
-1
3
11
1
17
9
11
2
1
1
4
5
-12
-14
19
7
2
1
1
0
-24
-9
9
-8
-4
-6
-4
-9
5
-5
12
-2
-2
-2
-3
-3
-8
-17
6
-6
-2
-1
6
7
-24
4
-3
8
-2
1
0
6
52
25
-8
-8
5
-5
-12
-27
-72
-8
-8
5
8
5
-7
1
-6
-16
-11
-2
-5
-5
3
-2
12
14
-4
-3
4
1
-3
-15
-43
-16
-10
-5
-11
1
2
36
34
3
-16
14
-7
2
7
15
-6
-23
-7
-4
14
0
-25
-87
-24
1
-10
-25
-10
-6
3
-1
61
-6
-8
9
5
5
21
3
-10
-2
-10
10
-8
-2
-16
-6
48
2
-11
-1
-33
-8
29
56
-63
-55
-19
-34
-33
-16
-21
-81
6
-27
-16
14
70
6
-7
10
99
101
10
-19
-43
-11
16
-21
-59
-85
5
16
68
60
13
9
74
60
33
41
38
-26
-47
0
-48
68
3
-12
-111
-19
-4
19
-128
-61
-9
-24
10
-18
5
-25
36
106
8
50
6
-6
0
32
84
76
4
-24
-15
-51
22
45
-79
11
4
-1
-42
72
-21
-65
76
36
-14
13
95
69
34
62
-56
49
35
22
-13
1
-26
-31
-44
64
-18
-26
-47
-32
20
18
45
127
31
26
-46
-91
-25
8
-8
43
-9
-52
-124
-52
-9
-10
-51
-7
7
9
-33
58
11
0
19
-62
12
79
118
127
30
37
52
-68
-22
-7
24
-9
27
-21
23
-127
-32
-20
-66
-36
-16
-16
16
-46
-17
-57
60
-103
-29
-3
-9
-80
-14
-41
-128
-107
-22
5
-22
-89
-11
13
109
93
33
67
9
-57
11
29
127
70
-50
-65
42
1
3
56
67
72
59
-10
-88
-61
-10
-4
9
-15
-7
25
-4
-41
-13
-58
-83
-116
3
-51
39
-8
-11
40
67
45
-27
14
4
36
-29
-58
-58
-64
-47
-15
-22
-35
-17
-19
-44
-75
9
-4
67
-15
2
-36
68
62
8
53
-111
-99
0
27
-83
65
21
-54
15
12
20
-47
69
6
24
29
44
53
37
127
127
7
10
31
-8
55
33
-33
-128
-62
-12
-48
59
59
17
-21
-74
-70
-16
22
-78
-102
-18
-22
-26
38
-10
5
-18
1
21
-39
17
44
-21
-33
1
27
41
51
31
7
13
23
-41
54
33
6
43
-59
10
-12
16
-23
-47
-76
-128
-128
-53
-22
59
64
-33
16
79
121
34
28
89
20
-17
50
127
67
16
1
-90
17
6
-13
33
-11
25
-3
5
-19
12
32
11
-48
-6
-5
44
11
-6
-50
-122
-40
1
2
-15
-52
-5
-29
8
78
-11
-11
-7
-9
-3
73
80
-9
-7
8
-4
22
1
-44
-54
-31
-8
-10
71
100
44
67
-10
34
10
6
-104
-66
-31
-26
54
6
-16
-24
49
0
-10
29
-90
-30
30
50
-70
-64
-17
-32
30
36
-44
-43
58
25
13
7
-95
-46
-31
5
33
-5
-24
-16
-40
-49
-5
-18
-19
46
6
-38
17
17
37
20
27
82
-8
11
-102
-56
-12
1
-14
-24
5
-37
-39
84
15
-7
-5
-7
1
25
96
43
11
10
10
16
-2
-35
-23
-73
17
12
84
17
22
60
108
44
1
54
-46
-3
-6
28
-19
53
12
-35
-21
48
16
-5
56
-49
10
-4
11
81
-16
-63
8
33
-3
23
-30
-36
35
77
20
-35
-7
-15
-23
-21
-27
-111
-71
-54
-22
32
-35
12
34
19
-105
-72
-17
-8
13
17
-12
13
60
66
-8
-29
16
19
8
28
117
96
36
23
-16
17
8
29
97
-26
21
-19
75
2
-23
-14
-128
-97
-11
18
55
-8
-4
-52
-128
-107
-28
-5
11
-5
10
-17
-21
105
-17
-8
-22
-1
-5
64
97
-5
22
5
-53
22
10
-24
41
12
-53
-25
-10
-38
-6
61
-4
35
-18
0
97
81
10
-6
56
17
52
19
-101
-53
0
-36
28
-33
-32
-6
-32
8
-31
28
-84
-6
-3
5
33
64
25
66
8
48
25
103
-42
-73
-52
-100
-90
-49
1
-120
2
52
1
32
-21
-20
1
10
-50
-34
-67
19
68
29
17
16
103
53
5
-25
51
23
6
1
13
116
-5
13
-33
-51
-17
36
-22
-78
0
-69
-87
-57
-32
-41
-30
1
19
57
-1
59
26
-14
-48
-67
-39
-43
95
-38
19
16
-14
37
15
63
-48
52
2
-17
10
11
-2
22
124
71
19
9
-71
11
19
2
13
-9
25
-14
28
-37
7
-25
-113
-77
3
-2
36
0
-3
-43
-55
-3
-1
42
8
-44
-34
-16
45
-1
-58
-62
31
61
31
10
-3
35
30
21
-34
-79
20
79
127
32
24
-23
-13
11
33
31
-49
-87
12
51
-96
-92
-26
-45
-128
-36
-41
-80
43
85
-2
9
109
39
-22
13
45
14
12
15
49
53
-4
-13
-25
-43
-24
-21
14
-32
-15
-3
57
82
-2
-38
-51
-37
37
53
-40
-35
-18
36
-81
-8
4
2
-40
22
10
-4
16
53
-38
-41
5
26
-17
10
102
72
53
38
-9
16
19
46
125
-60
-17
4
21
6
8
-75
-128
-57
15
21
-66
-6
-1
15
66
38
-15
-17
37
15
3
28
46
-24
7
-1
-22
6
15
9
-46
55
41
24
-73
13
15
-31
29
12
-46
11
-97
-4
2
-64
-57
-87
-30
-42
-12
44
-12
-6
-92
-26
2
13
13
27
-47
-48
-37
14
-18
-17
80
66
-21
4
103
42
21
16
24
-73
6
68
37
45
-5
-19
-92
-23
-4
-25
127
15
-16
-34
126
46
7
62
-100
-75
25
66
-6
-34
-6
-16
-99
-24
1
-29
-40
-16
-9
-36
51
50
27
24
-4
-40
9
38
-106
8
-29
-24
23
1
-26
22
106
37
4
9
-21
-114
4
-3
-32
-71
0
-13
-69
32
-8
-46
-128
-77
-11
34
6
-48
22
-52
-96
10
-13
-59
-55
3
27
10
91
66
22
-19
-18
52
32
42
110
-65
-78
-47
-103
-29
-9
-44
-118
-116
0
19
27
83
-3
-59
127
98
10
37
-20
-5
13
78
70
76
29
9
-46
55
45
51
-52
-14
50
1
118
15
-14
-56
-96
-87
-20
20
-29
7
-16
-3
-128
-41
-48
-1
-56
-47
48
57
73
98
49
36
-8
36
6
47
87
60
9
-61
-6
27
-12
13
-99
-47
-57
23
-74
-15
-14
-42
-121
-70
32
-15
30
33
3
-83
-112
-64
-21
-2
52
-60
-15
-56
-117
5
13
8
14
-6
-19
-8
92
19
-26
-31
-17
-50
15
50
64
-42
-18
-22
-13
34
-3
-21
-72
69
10
-1
22
61
0
37
89
-8
-11
10
-38
-24
43
12
-110
-6
25
-19
28
68
-86
-62
51
19
17
54
-57
-97
-32
-12
58
-31
-63
-55
17
-18
-44
-40
-106
36
46
48
32
88
57
71
127
50
41
32
-39
-49
12
71
-76
-42
-62
-81
58
29
-25
-66
-51
-86
-15
17
-2
-48
-42
-59
-13
34
-22
-6
0
-24
-31
17
13
24
32
-15
7
10
33
42
38
21
38
13
11
4
-34
-73
-120
-37
-16
14
29
-69
22
85
127
-3
-13
-1
12
33
-18
-93
-128
-10
1
-38
-14
0
3
83
59
55
18
30
9
-5
-2
-2
100
2
-9
-7
81
47
-9
46
7
-6
10
40
23
9
-43
-35
24
12
-3
-16
9
-39
-9
-32
-48
-27
-14
-19
-88
25
-7
28
-48
-28
16
-6
8
-1
34
-40
-69
-9
-9
8
65
43
-44
-3
25
27
-20
7
28
-49
-8
-12
21
-8
11
13
3
27
25
27
9
8
-5
-9
-41
-21
-41
-46
-25
-38
-4
-5
-44
-36
3
3
-97
7
24
2
-15
17
14
-5
9
3
11
-9
98
32
17
18
89
39
-22
-3
18
-2
2
10
71
16
28
-4
-12
0
23
37
77
12
-11
-11
5
14
23
-2
-50
-23
36
58
-1
-25
11
-26
-65
-22
13
-7
-19
-11
3
-25
-44
2
-39
-4
-10
-16
0
30
22
6
-5
-13
19
-8
49
-8
29
8
-21
2
7
-39
-9
-6
-33
-5
16
-7
5
-32
13
-11
-7
-11
-32
-13
-11
-44
63
8
5
5
30
-22
12
-32
63
11
32
-6
-22
1
71
-76
-28
-21
-14
-11
-42
43
-37
-103
64
7
-22
-7
20
-2
5
-95
59
-20
7
21
11
19
33
-58
126
20
12
16
22
-35
-92
-66
-16
-5
-9
-16
-1
-31
89
-61
15
-13
-13
-8
-2
30
-36
-117
30
-3
6
2
-20
-16
10
-59
-43
-13
9
9
30
63
70
21
8
28
7
-1
25
0
7
71
-5
15
8
5
-18
24
22
117
-41
9
-2
-21
-71
-66
-103
101
-46
-9
-13
11
32
-32
56
110
-31
8
-6
-8
-46
-1
-29
111
-75
-11
5
-15
30
21
108
87
-10
15
-4
5
13
39
-43
63
-31
-8
-1
-12
-61
-56
6
47
74
-10
-5
-6
-19
11
-10
16
-32
-28
-12
0
7
-53
-9
21
21
19
8
-2
12
69
96
14
-68
9
13
-6
3
-21
-60
-18
-31
0
1
8
20
-1
-4
-9
-67
-10
-2
-4
-16
3
-36
-12
-23
-19
-13
-7
-9
-45
1
5
-14
26
9
4
11
67
-11
2
-90
-23
-17
-8
33
-20
-52
30
-13
-12
5
0
-38
-10
7
69
-72
12
7
-1
14
-30
17
34
15
-24
-10
-4
-7
24
5
28
-8
39
25
7
30
10
-1
38
60
8
-15
-8
18
33
-7
15
-32
6
0
7
3
2
19
24
-46
-15
4
0
7
-1
2
10
-13
6
5
-2
5
-13
-6
6
1
10
3
4
3
-14
11
-38
-23
-5
0
-2
-7
-1
-5
-39
-63
2
-1
-3
-25
-10
-46
-13
6
9
-5
4
17
-11
-4
5
9
7
3
5
-1
14
33
8
37
-8
-3
0
-3
6
-4
4
50
4
3
0
1
-17
-26
6
51
-2
2
1
-8
-6
11
-22
63
-1
-7
-4
-6
6
-7
13
16
-5
-5
-3
0
9
-1
13
55
10
-3
2
1
0
-1
7
73
5
0
2
-13
3
3
-8
34
-11
0
-2
6
-10
-24
-5
15
0
2
2
-3
2
-1
8
21
6
10
1
2
5
9
-8
39
7
-7
-5
-7
-11
-22
-5
-7
3
3
5
3
-33
10
-8
-9
0
-5
-3
-4
25
-36
-12
-29
-10
-3
-2
-3
-18
13
-5
-4
2
-1
-1
-2
3
13
-21
-57
-21
-4
1
-2
6
-24
4
-12
2
-1
-2
-2
-6
1
-1
-22
-4
6
5
4
3
-8
-16
-6
1
-6
-1
-13
-4
-18
2
-15
8
2
3
9
-4
1
-10
-7
-10
-2
0
3
-6
21
4
-17
5
-1
-2
2
6
-8
0
14
1
-2
-2
-3
-7
4
-11
3
-7
0
-4
-5
-2
-2
-2
9
-4
-1
-1
-1
4
0
-4
10
-4
-1
-4
0
-10
-2
-3
-6
-4
-4
0
-3
1
4
-6
6
5
-8
-3
-1
3
0
-7
-19
3
10
3
-1
2
1
36
-22
-1
-5
-2
-3
-2
-1
-49
-24
0
6
4
3
-1
7
3
-22
0
1
0
-3
4
-9
2
8
0
-4
-2
-4
-5
6
-11
13
0
-1
-2
-2
-1
2
5
4
-3
0
0
3
2
-1
-5
17
-4
-2
-1
0
-6
-3
-3
14
-2
0
-1
-2
-1
-1
-13
11
1
-4
-1
5
1
-3
9
8
-3
3
-1
-2
-1
-4
-10
-3
-3
-3
-2
-2
0
-4
-3
18
2
-3
-2
-1
3
3
-4
10
-2
-3
0
-3
-1
6
2
13
-7
-1
-3
-1
-2
0
-3
10
-5
-3
-3
0
0
-2
-2
-1
6
2
1
-7
-1
7
9
2
-9
-3
-6
-2
-5
-1
-5
7
3
2
2
3
5
-13
-26
-17
1
4
1
1
-1
6
0
6
-3
-7
-5
-4
-4
12
11
22
10
3
1
2
3
-13
-18
-4
-9
-9
-3
-11
-11
14
1
-8
-2
-1
-2
-2
0
16
6
16
9
-5
2
2
1
-35
-12
1
-6
4
2
-1
-1
-8
5
6
4
-1
0
-1
2
30
18
16
7
3
1
5
7
-27
-10
-7
2
3
-1
3
10
11
-23
-6
-6
-9
-5
-16
-27
-3
18
-6
-1
-2
-1
9
14
31
-17
-6
-14
-3
1
3
12
4
54
11
9
2
2
5
-20
-26
-70
-29
30
6
3
-5
-7
51
48
-10
-18
13
0
13
29
-26
-10
-27
-8
-3
3
-11
-8
1
-30
-26
-28
-24
-12
-37
-44
-89
43
-33
-3
11
5
-1
10
-21
-84
-22
0
-13
3
8
3
5
96
5
1
9
16
26
6
-18
55
4
27
1
-8
20
-29
-66
-85
-14
-32
9
-4
-34
-23
1
13
-61
-3
-1
-9
-3
-14
-79
20
35
69
-29
-4
14
-13
18
-5
-48
-97
14
14
-14
-3
127
102
70
-12
-10
3
28
38
-94
3
63
-15
-14
-32
-7
-9
-4
-43
12
-8
-44
-1
-25
-38
93
127
50
63
35
20
22
25
-83
15
-57
-1
11
-19
7
-5
68
18
-1
-10
2
13
-14
19
11
13
-14
13
-40
-22
-23
-17
-15
-5
-9
-4
10
-16
31
46
104
13
30
36
-46
9
-10
26
-11
109
-20
-5
32
45
-26
-60
-23
119
-22
-20
123
-14
3
11
20
109
3
15
14
22
-2
15
14
89
10
8
-76
9
22
28
-22
-88
-2
0
-4
-77
9
-13
50
-54
16
-6
15
31
-12
15
-55
-128
27
8
-5
-45
-18
-29
30
-6
13
-21
10
-43
5
5
59
-91
-8
-41
-128
74
2
-5
-32
-30
-3
6
20
26
9
4
40
-128
-27
14
95
33
5
32
-21
51
13
48
35
34
-16
8
8
-75
-27
26
20
-1
10
-26
-25
27
13
-37
-113
-85
-36
14
-74
-53
-13
-3
-108
-45
14
-31
-25
-25
-2
4
49
15
3
-34
38
-33
0
-12
37
-17
9
26
-30
-109
-6
-23
-101
52
-1
-8
-7
-23
36
39
53
9
4
1
69
-35
5
-35
32
-12
7
17
-57
3
-13
-2
-67
-95
-26
-25
38
39
-26
-44
-122
-18
5
0
39
92
-19
14
47
84
57
30
-43
-79
-35
57
117
36
-39
-41
2
83
17
34
-65
-55
-19
13
-18
-14
-1
-43
-76
-91
-30
-16
47
29
-30
-11
49
20
-12
-3
-25
-43
-4
-49
-123
9
45
-14
3
-13
-3
33
48
41
6
23
53
6
46
46
105
-9
36
-21
57
-44
-16
-5
-128
0
-9
26
-57
-81
-42
-46
-58
-74
-37
-13
-105
-29
41
-63
-128
-7
-22
-19
48
-100
-26
-54
101
7
-5
-42
59
62
17
-39
-84
-6
-22
-7
54
-21
-11
53
90
85
21
19
14
-38
23
105
60
11
37
13
-3
86
5
28
-29
-2
31
18
-70
12
8
-31
-84
-86
-54
-8
47
67
-25
-55
-128
-100
-30
-18
14
59
-2
-44
-47
22
-7
-1
19
88
23
77
127
97
-4
49
-106
-77
-24
-17
-20
-18
38
-49
37
-33
22
-9
-50
-14
3
29
75
-84
-14
10
95
19
11
-27
45
27
4
16
-100
-17
0
-5
-53
3
6
-3
85
35
-10
16
52
51
-7
-54
18
9
35
21
-27
61
24
-3
-72
-45
1
7
34
-19
-17
17
91
64
3
14
-7
45
34
42
-38
0
-7
-13
-6
64
7
-11
-43
27
-4
10
46
82
0
12
51
-18
-1
30
-37
-69
-10
-39
-128
-112
-24
4
-15
62
20
77
125
92
2
10
-37
-106
4
1
102
13
-18
-54
-3
70
-5
-26
-83
-20
7
14
-43
-14
5
-2
-6
12
29
-4
48
30
-12
2
40
19
-40
3
-1
-18
-4
-18
-67
-78
-2
22
-87
3
7
-7
-27
-13
-28
20
-7
40
-7
63
114
13
37
-36
-53
-64
-47
-124
-45
-37
-9
-38
19
76
-3
50
-59
5
20
2
73
30
7
9
124
92
19
2
13
-59
35
75
38
41
-3
20
-31
-28
-16
9
-92
-42
7
23
17
-30
-21
-50
-53
-45
-16
-17
-5
25
-20
-43
-39
-54
-25
-14
43
55
8
-9
30
-41
-14
13
-29
-83
-17
-61
-65
1
-3
-24
2
98
21
23
49
85
2
-22
28
12
26
92
55
38
23
30
-85
-44
-21
-28
-47
61
5
-14
19
18
1
16
-100
-68
-16
44
-16
15
7
-58
-128
-82
10
-5
28
31
1
-12
61
44
7
-12
26
75
24
15
116
-3
-8
40
-20
-69
-72
-47
-124
-90
-18
-40
-54
-33
22
22
-4
13
10
8
82
19
-10
-17
94
85
-1
-23
-21
0
-9
-83
-128
-73
9
19
-30
-58
21
71
126
24
-18
-28
11
79
15
76
113
106
-2
26
22
-18
0
-13
-114
-119
13
3
-5
-16
2
12
55
39
-36
-26
-50
57
6
9
27
3
23
8
32
-3
-23
7
7
-23
3
-17
-72
3
1
-5
-36
-2
2
19
-10
-58
-1
-80
-128
-81
-45
-24
24
2
-32
-34
-52
46
29
3
-22
-8
33
97
127
70
13
3
-87
-13
-3
16
-81
14
8
-24
57
6
-40
-58
-79
-24
-2
40
87
67
47
25
88
-5
-9
-1
-21
11
-21
-35
-124
-37
17
8
36
67
-1
29
33
-23
-53
-3
19
-101
-22
-50
57
61
6
-11
73
58
12
32
-47
-30
-2
-11
2
48
3
-12
28
1
9
-2
-8
-15
-15
29
127
107
4
-1
13
99
8
63
-13
-33
17
28
17
-33
9
-57
-93
-17
40
0
41
-5
15
-1
-32
-40
-26
-6
-85
-59
-5
-17
-48
1
30
-4
87
96
-9
-10
101
39
-37
-5
-63
-56
-18
39
-34
-9
3
8
43
39
-10
-78
-53
-41
-1
26
4
-105
38
-43
-111
-44
-21
-43
-61
43
-49
64
84
66
14
-6
60
33
-26
9
-4
25
6
11
38
9
-6
12
77
-9
8
7
110
61
19
-40
-113
0
6
31
-64
-106
34
-46
63
-24
-14
-46
-27
-20
28
50
106
-12
0
20
-92
-56
-2
34
-88
-10
-17
-20
29
29
-6
10
90
54
22
19
7
83
-10
23
-4
-40
12
-7
-14
-60
7
-46
-68
-53
-1
-5
-12
-60
16
-17
54
26
-8
-8
-25
-19
-73
12
24
-8
-21
2
-57
-54
-45
10
-8
15
17
-5
97
59
11
9
51
-19
-6
5
-94
-91
-45
-17
-78
-20
-25
-31
-23
40
-41
-64
-47
-26
8
-16
43
-9
14
16
-93
5
5
16
16
61
27
14
-16
34
13
19
-32
70
46
55
119
50
36
19
-11
-24
-7
-17
25
-24
-63
-30
-32
39
-26
-34
-115
-95
5
-6
34
32
14
-33
-109
63
7
17
-12
-5
-5
57
70
53
-18
-27
29
93
44
52
95
15
25
33
-35
-100
50
-9
-100
-35
-6
-19
11
97
47
-5
-34
-9
4
18
28
-49
41
-52
-81
-42
-38
-20
-57
44
-20
22
-66
-28
27
4
105
18
39
-17
65
18
-13
15
-24
-62
-58
-30
56
20
-32
-13
35
64
-23
-18
13
-13
3
12
51
30
-77
-22
-47
-36
5
8
14
-64
49
48
-74
9
27
27
-29
-26
-25
-5
127
73
-52
-71
15
36
42
51
27
-5
-1
-1
-11
11
-13
2
-28
-11
-3
-8
68
39
-92
-33
-39
-22
19
34
-48
25
37
7
-101
-42
1
-1
35
-36
8
-15
-90
-22
-18
-18
22
-3
64
-18
55
46
11
3
-26
46
82
76
127
84
-30
-11
-94
-89
-54
19
110
-19
62
0
-11
34
43
-21
-67
-39
-33
0
23
41
-9
-51
-86
-39
5
17
-124
-49
46
-36
-103
-23
-33
-54
84
20
50
5
70
31
-12
8
48
60
41
3
70
26
18
4
-20
-93
-14
16
32
-4
5
11
-25
17
10
17
-19
0
13
0
-47
85
-83
-16
-73
-34
22
11
-57
-94
-47
-13
-21
-17
-24
-1
41
-6
-73
-26
9
20
-24
-31
-62
47
-6
-1
21
3
12
12
-25
-43
6
17
-116
-50
-9
-23
36
19
-65
2
97
72
43
35
-10
44
47
21
38
11
-22
-27
48
41
-18
39
47
-8
-5
-2
-25
89
12
33
27
14
2
32
-15
-22
-66
-24
-28
-13
-4
-1
-76
22
16
28
8
-9
13
-15
64
11
31
-5
-16
11
10
26
7
-80
-36
-49
-36
-16
-26
-7
-4
-5
-2
-27
-27
3
20
13
-32
10
21
34
20
6
-6
9
12
-66
0
1
7
0
-7
-14
-13
-4
-18
-18
-15
8
-14
-4
-1
48
4
2
-7
-8
4
-2
2
2
-4
-11
-8
-8
6
5
-25
28
-18
-1
-4
9
2
-22
16
-6
7
0
10
-8
16
1
18
7
-23
0
2
-15
-56
-6
19
-39
14
1
-22
-6
34
2
-10
-35
-37
-6
1
8
-5
0
-2
-37
11
3
38
23
-11
-4
-23
0
7
9
-4
-12
15
3
24
-58
7
8
-7
-3
-2
1
-39
-41
-33
-6
10
5
-4
-22
51
-37
-3
0
0
-5
-40
12
-3
-75
-1
-5
-13
-1
26
-31
4
-74
-51
-30
-9
-2
-12
2
7
-98
8
-9
3
5
14
14
15
-87
14
15
4
-5
-12
21
-96
-45
-5
1
-14
-2
-16
-15
5
17
17
-3
-1
-1
-20
-44
22
88
-25
0
4
-10
15
-16
-1
64
-33
9
2
15
-3
26
54
77
31
-17
-5
-6
26
40
-14
63
22
7
-1
-1
-1
-37
-73
88
41
6
10
1
-14
-16
92
65
45
1
-9
-10
-34
2
-60
49
28
-5
-5
7
2
10
-18
21
50
-8
-10
-5
-7
-46
-21
20
25
0
3
5
1
10
16
33
44
11
7
-3
26
26
15
30
-27
-22
1
0
-14
-18
-43
3
51
24
-7
-11
-12
-15
3
14
11
11
-7
6
-7
-3
-33
15
-82
-19
-5
0
7
7
53
50
-45
21
6
-2
7
10
11
-62
-28
10
-2
-4
-13
26
-1
22
-70
-10
-7
2
18
13
-10
18
-92
-31
1
0
37
-30
-12
13
-13
16
-6
-2
-6
-26
16
-33
-17
16
11
8
33
46
28
-25
-7
1
-2
1
-14
6
-10
16
49
18
5
-3
6
-9
-1
13
-12
-16
1
-2
16
8
4
74
68
11
4
0
-5
5
9
5
-30
-20
-5
-3
0
-1
-11
30
107
15
2
-1
-7
-1
0
-16
32
-16
-12
-6
-3
-6
-1
-22
-30
-3
2
3
0
19
10
-4
-1
-1
5
-1
-4
-9
5
-10
-27
-13
-7
-1
5
-6
-4
-7
-25
9
4
1
-4
2
21
9
-21
-15
-6
3
3
19
-4
18
15
-7
1
2
8
0
-18
20
29
6
0
2
-4
-24
9
-15
18
1
-1
-2
-7
25
-7
7
1
-10
-4
-1
2
-3
13
9
37
-9
-5
-4
0
-3
-30
10
48
10
5
1
-6
-8
3
0
59
12
3
1
5
-8
-3
21
34
-1
0
0
-1
8
-3
-10
-34
-20
-9
-3
-5
7
17
-12
14
-5
-2
0
0
3
-13
-11
11
3
0
-1
3
-9
0
-6
-13
-7
-2
-2
-5
-11
9
4
7
5
1
-2
-4
8
-2
-18
-20
-1
1
-3
-1
-3
3
-4
-35
-1
-1
-2
0
2
3
-11
-41
3
1
-2
-2
-2
4
6
-31
0
2
-1
-3
-2
-9
-9
-30
2
-3
-3
1
-1
10
-7
1
2
2
-2
-3
1
-3
-4
-10
-12
-3
-1
0
7
8
-11
-22
-6
0
0
1
-5
-9
-6
-26
-5
-3
-1
-5
-1
6
-4
29
0
-8
-1
0
-2
-1
-11
4
-3
-2
-1
0
1
-2
-4
23
0
-1
2
1
3
-2
4
54
7
4
0
0
-4
-1
-12
15
0
-2
1
8
3
-2
0
15
-3
-1
-1
0
6
0
0
28
3
-2
-1
-2
-5
-4
-6
8
-3
1
2
-3
-3
5
0
-12
3
0
-3
-5
3
-2
7
1
3
3
2
0
-2
-4
-3
-5
1
-1
-2
-3
7
-1
-1
-3
-2
-2
-1
-2
-5
1
-1
-15
-1
2
1
-1
-2
-4
-8
-14
7
-3
-3
-2
0
1
3
-5
5
2
-2
-3
-9
-4
-8
-4
-10
-3
-1
0
-2
2
4
-31
-6
2
2
1
0
1
-4
-18
-2
-1
1
0
1
3
2
24
1
-3
-3
1
-1
-2
-8
-1
3
0
-1
1
-1
-2
2
22
8
1
-3
-4
-1
-1
-6
12
-3
-1
0
-3
-1
3
-2
22
-3
-5
-1
-1
2
0
5
10
-6
-2
-1
-1
-1
-9
7
29
-3
-1
-3
-4
-6
-2
-21
1
3
0
-1
-1
-1
13
-3
5
2
1
-2
1
3
-15
19
7
-1
-1
-3
-2
-5
-9
-12
-6
0
3
2
-1
-1
-5
-10
-9
1
1
-1
0
1
-8
4
-8
4
2
2
9
22
12
-4
-8
-2
3
2
-4
-9
8
2
-13
-8
-1
-7
3
-5
23
3
-7
-7
-3
-1
6
10
-42
-6
-24
2
0
-1
-13
-43
-21
-18
-16
9
1
3
-2
15
13
34
-7
-9
-6
-3
3
11
8
10
-12
4
6
2
6
17
29
20
-21
4
2
-2
20
30
30
-27
-17
-6
-1
-3
-25
-42
-2
-23
-9
4
-14
0
-26
-35
-54
-2
-39
-31
-10
-8
-10
-1
-45
1
8
-16
-10
-2
-3
-5
55
6
29
12
8
5
19
17
-36
13
9
0
-1
5
11
24
33
6
32
-14
-6
-6
1
3
7
3
33
29
-14
-14
-12
-38
-102
-18
-24
-20
18
10
7
-1
36
-15
51
-13
-23
-2
-3
-8
15
-23
3
-2
-6
0
8
-2
43
75
35
8
17
6
10
13
-23
32
14
12
12
3
23
-24
-30
-77
-20
-17
-24
-2
-14
-1
-73
-52
9
30
21
-17
-16
-17
66
-4
-19
-19
-12
39
2
20
46
57
6
-29
-62
-31
0
9
79
38
-65
3
2
20
7
1
17
40
-15
33
82
28
20
6
-29
-23
-22
16
-67
-81
-39
14
8
-1
13
-2
12
52
-21
-15
-40
35
13
9
75
25
-19
-1
2
30
44
-16
-35
5
2
-9
13
22
84
-10
72
-2
11
5
-29
49
107
-24
-128
-101
-37
-29
-49
23
51
-25
-61
-35
13
17
86
108
27
23
-36
22
-6
16
-4
90
-43
29
94
105
12
-33
-40
-15
-87
24
55
44
34
7
30
-23
-92
-14
-59
-59
7
29
12
-40
-115
-65
11
-128
-41
0
55
-74
-107
-112
-128
-23
-34
20
-17
-109
-81
100
127
110
7
-40
80
67
-36
122
127
77
99
-9
-70
-13
14
18
-126
-59
5
-11
-16
4
8
-77
-97
-128
-43
-3
-34
76
52
-75
-128
-128
-31
22
-8
37
10
-19
-6
52
-15
6
69
43
33
99
113
119
49
-16
-67
4
61
21
-1
33
20
22
-46
-64
32
38
-72
-57
-16
-3
-1
-117
7
-90
-8
37
-37
-1
-58
-65
-13
-34
31
-15
18
-19
9
-74
7
23
63
-8
-29
-11
39
-23
-30
-53
-97
-22
60
91
-5
-16
44
30
-23
-83
-38
-72
-39
24
-21
-28
35
67
11
10
-15
3
-10
48
48
16
-10
-46
49
44
11
-31
43
14
5
37
-28
-4
5
-3
-29
-6
3
0
8
47
35
5
-19
-7
-6
-9
-28
13
-22
-17
-49
-55
-22
-11
126
70
-18
9
-31
44
30
12
-112
-47
-10
-54
85
31
8
17
50
12
7
11
-38
-67
-4
-18
35
7
-15
-8
-28
60
23
14
-12
10
-12
69
93
14
-41
-16
3
32
5
-14
-110
-31
28
73
-15
-11
8
-5
106
41
-46
-31
-31
3
-12
40
11
-18
45
7
31
31
-4
-4
-45
7
-11
6
28
96
22
57
15
-19
-5
-3
43
-6
-5
-66
-82
-12
-33
11
2
-56
-17
-11
-6
24
4
1
38
-48
-6
-18
63
9
3
-3
15
57
-11
15
-25
-20
19
-5
-48
-97
20
-8
-36
-6
-40
-5
24
-26
-8
-16
64
-45
25
13
-40
-9
-16
-76
-92
-82
-54
-47
65
6
20
17
102
75
-1
9
-25
46
21
92
68
100
35
16
26
87
18
33
-72
-3
29
-5
13
-79
-13
11
-25
-1
14
0
21
-17
-1
-23
-72
-68
-17
20
1
28
6
-44
-101
-32
14
18
-47
-47
-11
-6
22
-15
-25
34
-29
-67
-1
-24
-99
-64
-43
-17
28
5
-7
-101
-37
63
-31
-14
-12
16
-5
85
89
43
45
37
-65
71
11
34
63
25
4
-8
60
49
2
31
44
-6
40
34
-54
-56
-1
32
-97
-24
-13
-28
-6
57
-35
-77
-41
15
-16
-21
86
-56
17
27
38
-67
20
38
-15
29
-29
34
44
77
-68
-63
61
17
8
10
51
-24
53
20
-12
-42
-5
-39
-128
-51
-88
-49
32
-12
-19
-54
-110
5
58
-31
-16
-27
17
28
64
0
18
32
58
60
16
15
75
47
-1
-1
-32
-94
-15
-4
3
-22
-12
-41
-53
51
7
-47
-72
-49
-42
-6
5
-98
-46
-54
88
88
6
-13
-122
-59
1
5
-128
-121
3
-21
28
8
-4
20
127
90
-1
15
15
33
9
48
78
56
-42
-13
14
57
23
28
98
-28
55
47
-72
-1
-13
0
-41
13
-36
-30
25
1
-11
-35
-45
-66
6
9
-43
-11
13
-24
-112
-8
17
-52
15
13
-3
-4
26
2
-9
3
12
-19
4
2
-53
-8
-30
8
15
8
28
-16
20
59
-1
28
-98
-33
-30
42
32
13
42
-17
-26
50
42
-1
-68
-41
54
20
26
45
-22
16
85
-25
-42
-28
-11
-38
-16
-79
-128
-89
1
12
32
-42
19
57
127
122
-3
41
-77
17
1
39
69
33
-3
-48
55
-65
10
32
77
22
11
5
20
69
6
1
-7
-30
-19
5
8
37
-25
-34
-99
-76
-19
12
-24
-10
20
-8
-128
-27
-7
-27
-26
17
-30
-36
-73
-16
1
14
19
19
-5
20
-12
47
20
-6
13
-47
9
35
57
-24
-1
4
89
96
13
-10
31
64
20
50
-38
-81
-7
-20
-34
10
-9
-48
-4
19
-15
-14
-15
-58
36
4
41
2
5
-15
-54
-32
-89
-4
10
71
-23
0
28
95
45
-24
-12
-30
30
5
-15
-26
32
24
-2
4
2
11
0
4
6
-6
25
64
5
30
127
59
28
9
21
39
7
7
-1
-67
-60
20
16
-34
-13
-13
-54
-9
-6
-36
-29
-42
-13
-1
-75
-10
33
17
34
47
17
16
-21
-14
-44
-16
18
-34
-23
-67
-17
-6
-29
-34
4
47
-22
1
16
16
0
3
29
8
8
27
29
-13
-23
42
-22
-49
3
-26
-20
17
27
-29
-49
4
-10
-3
-25
-4
34
8
1
2
-2
8
50
9
-39
31
-69
29
-15
12
35
-2
13
-55
-65
-93
0
-16
-40
-14
-39
40
14
-9
10
5
-47
-18
-3
-50
-63
-1
2
-40
-25
-7
-43
-24
44
32
16
37
34
25
29
48
65
85
5
-19
57
17
79
-8
-110
-105
-6
9
8
-34
-20
15
-66
58
9
1
-45
6
-15
-17
76
-57
-23
-20
25
-1
-31
-12
47
74
17
12
23
19
3
18
-1
55
31
26
35
5
10
-33
6
30
13
1
9
-3
49
24
-1
-4
6
-19
-44
-20
20
15
-20
-25
-58
-54
-34
8
-55
-14
36
36
-4
2
-33
-13
7
41
-50
34
0
10
27
25
24
-16
1
-26
27
9
-14
-34
-51
-23
-28
17
-7
19
-45
18
36
-12
88
1
2
-20
-61
-1
10
36
-4
-49
-21
21
98
-5
-80
-51
58
20
-4
1
-54
34
86
97
-23
-40
2
7
61
12
-76
-106
73
43
-6
18
44
-7
4
65
0
-31
21
-5
10
-18
49
-13
83
99
20
2
-4
-7
-32
-11
-81
-113
-66
-14
-82
-5
39
33
-58
-79
28
-18
18
9
-15
-44
93
28
-20
27
43
4
10
25
-125
6
17
-40
-3
-8
-2
0
34
49
8
-42
-113
-30
-12
-2
-28
43
17
70
33
17
-23
15
29
-58
-64
-36
-21
-4
10
4
-69
-42
-6
34
39
21
-16
-52
83
-38
22
45
85
8
36
60
-28
-96
-34
-73
-103
-42
-15
-48
72
72
26
32
58
16
-12
11
-22
37
23
44
45
13
3
-5
64
-72
-16
2
67
34
18
60
8
114
15
-3
-35
-39
-13
-10
-20
25
19
41
-111
4
67
37
26
-33
-44
-75
-6
-2
-24
24
-128
-66
3
-16
77
-8
-16
-95
-24
84
17
11
1
12
-8
4
112
84
22
11
-21
0
1
9
-16
25
-31
7
-11
-1
4
-3
29
90
42
2
-68
-34
10
31
-56
-41
-59
-26
-55
-7
-8
-12
11
-79
-14
13
55
26
-16
-16
30
-44
38
76
30
-2
36
19
13
29
10
-27
54
38
13
-10
-12
-68
-11
-21
0
-30
-34
-15
-11
1
22
-9
-10
-12
14
3
-5
-27
-55
-18
-19
7
16
-20
-1
19
19
-12
-46
-9
-1
10
5
-39
26
24
79
29
-19
20
-33
-9
-9
-27
-49
-20
6
3
-7
-3
10
-8
2
-13
-20
-36
-30
1
-2
10
-41
-26
-1
-13
34
-4
-6
2
-4
19
3
1
-27
-37
-4
-14
14
4
24
4
8
-59
-11
11
13
-6
9
-6
-12
-56
-13
4
-10
-3
-10
4
-1
-89
20
14
11
6
36
1
20
-61
-17
-12
3
1
-52
-2
-29
-62
7
-10
-11
-11
-14
-22
16
10
4
-11
-13
6
1
17
-24
-42
-27
-23
26
3
-13
3
13
-115
-15
9
3
-9
-4
4
-21
-114
-11
-22
-17
-1
6
-7
9
-37
-11
-8
-20
-9
-3
-8
-1
32
-2
5
6
12
28
-2
6
120
28
-4
5
7
47
24
32
125
24
17
7
4
-21
-6
-47
95
16
-7
-9
0
-27
-2
42
60
-3
-12
-5
-6
-13
-5
-11
75
32
15
-6
1
-15
-2
-40
71
13
0
5
1
-11
2
12
70
44
16
-9
1
-13
9
-14
57
73
14
1
3
6
-28
-27
28
67
-7
14
-4
-30
2
-1
31
122
-4
-7
1
7
-11
49
25
109
-4
-14
-2
4
25
-11
-4
57
1
-8
0
-16
5
7
22
53
14
12
-1
1
8
-12
3
-78
12
10
3
-3
26
-21
-39
-128
-25
-19
-8
-10
-28
70
-25
-59
-6
13
-5
6
18
-57
-42
-93
-31
-23
-2
0
-9
18
16
2
13
-3
-1
2
-21
16
-28
-56
22
2
-2
-3
-20
12
-12
-89
15
5
-1
29
61
-25
10
-83
12
-2
1
9
-7
14
23
-113
-58
-11
-12
-28
4
-34
22
-22
7
-7
-5
10
-33
-12
30
-34
14
3
7
-9
9
1
25
-14
-12
-2
-7
4
-26
-12
37
19
13
1
0
18
-11
4
29
-5
-2
6
-1
14
37
-8
16
-2
-14
-1
-2
-13
-13
-16
23
21
11
0
-2
2
4
18
43
49
12
9
-1
-2
-20
-28
-36
-31
-14
-9
-5
-5
-1
-19
-8
-24
-21
-7
2
11
-30
19
4
13
14
4
0
-3
10
-7
-4
-11
-12
-5
-3
-5
3
19
16
0
-5
-4
3
3
6
-11
-3
-15
4
0
2
12
-14
12
-4
-15
-9
2
-2
-4
-2
-9
-37
-25
1
3
-1
-5
8
5
3
18
20
7
3
8
-14
-20
-24
1
-8
-6
-2
-9
19
9
-9
3
-15
-3
-3
-7
-10
-5
-8
59
17
-2
-2
-3
19
16
5
-2
-10
-6
0
5
-16
-11
-4
2
-4
-3
2
-12
-10
10
6
33
6
0
-1
5
3
-10
-27
-11
-17
-2
3
-3
-3
6
13
28
5
3
0
5
3
7
-3
35
-12
-5
-5
-2
-3
-9
-14
-8
-8
1
-2
-2
-7
5
-9
-50
-1
-4
-2
-8
2
17
7
10
3
1
1
-9
22
-38
-8
-35
-8
-4
-1
7
-16
-3
-11
4
-2
-2
1
-3
8
5
1
23
7
-1
-3
1
-2
-5
-3
2
2
5
0
2
2
9
9
17
-3
2
0
7
3
-1
-15
1
-1
2
0
-6
-1
-4
-10
-10
-1
0
0
-1
-4
4
0
20
-8
-7
-2
4
5
3
-1
19
9
5
0
0
-8
-8
3
4
3
4
0
0
1
12
-1
10
1
1
1
5
5
-7
-3
-6
-3
-3
1
-3
-8
-3
-9
16
4
1
-1
4
4
-5
0
-5
0
-2
-1
-5
0
-1
-2
23
3
-3
-2
1
0
-2
-5
-18
-13
-2
-1
-3
-1
-1
-2
16
5
-1
-1
-3
-11
9
-2
6
-2
-1
-1
0
6
-1
-8
4
-1
-2
-1
2
-5
-6
-1
4
0
-2
-2
-6
-5
4
-3
-2
1
1
0
-4
-4
-2
-5
-20
1
1
-5
-5
-4
-6
-6
-29
4
5
1
2
-3
-2
0
-11
4
-2
-1
-2
1
0
-3
-10
6
1
-2
-2
0
3
4
-18
-12
-2
0
0
-2
-10
-12
-24
-9
-9
-6
-4
1
1
0
-9
13
-1
-1
-1
-1
-1
-6
-5
-9
-1
0
-2
-3
0
3
13
0
-2
0
-1
-1
3
4
11
2
2
-1
-2
-1
3
-2
28
-4
-2
0
4
0
1
7
21
10
4
0
1
2
-8
-12
-2
-7
-5
0
-3
-2
-1
2
28
-4
-6
-3
-3
1
-3
3
13
0
1
1
1
0
1
-3
3
-3
-3
0
-1
-1
5
5
4
2
0
0
-1
0
-2
0
4
6
2
-1
3
4
11
-11
-9
-9
2
-1
-1
2
-4
-7
1
0
-4
-1
-8
-13
4
0
-1
-2
-1
-2
2
0
-8
-11
-12
-4
-5
1
1
-7
-6
0
-3
5
0
0
2
8
6
-6
-7
7
0
2
6
18
-4
5
-8
-5
2
-2
-1
1
17
9
-19
5
-1
-2
-4
-25
-6
-3
-14
-6
-1
-6
-7
-7
2
-10
-21
-7
-8
-4
-6
-6
-11
7
-10
7
-3
1
2
9
0
14
2
-2
4
1
1
26
-12
-2
-5
-1
2
-1
-5
-22
0
11
8
4
0
-2
4
5
24
10
4
-3
-6
-2
2
-2
-2
-14
17
-4
7
2
-3
-4
-3
26
-14
-7
1
-1
-8
0
-30
-38
23
-9
-7
-2
-10
-4
4
19
-2
0
3
0
-7
-5
49
-32
33
11
-3
0
3
3
-32
21
17
-5
-1
0
9
7
91
14
-9
8
-2
-5
11
16
-35
-81
-5
-28
-2
5
7
-2
-34
-20
4
4
-15
-6
0
-12
55
9
-14
-19
-6
-8
-13
-29
-32
92
15
38
31
9
27
8
47
-81
-17
2
14
-4
-8
26
-123
-60
-13
-4
-4
-7
3
-62
90
24
-6
-12
-60
-25
24
60
-9
41
30
-13
-17
14
-16
-20
58
112
5
-3
22
48
29
-7
-66
-23
13
-6
-75
-67
-36
-24
-47
12
16
60
114
79
10
40
45
89
-12
6
33
-29
-12
-37
-24
54
-27
-29
-57
-15
0
50
66
69
-13
-8
-57
26
-14
5
-14
25
-20
-54
-128
-128
3
-4
-35
-36
-11
34
-89
7
-28
7
-45
25
21
75
111
79
5
-84
12
52
-55
56
18
-63
-27
7
3
21
34
-49
-67
-22
9
21
-23
26
54
80
115
82
22
6
27
115
70
-1
-101
-25
20
38
-6
127
34
26
124
10
61
32
-28
112
3
8
-55
-64
-19
-16
-57
-74
-49
-80
-128
-95
-30
-39
-89
-81
-72
-86
-123
-92
-19
25
40
-6
-20
-75
-29
56
-49
-31
-42
-102
-23
91
123
79
-19
-5
-31
-50
-43
1
-9
29
56
-3
99
76
16
17
-50
-70
45
41
-108
-122
-36
-67
69
67
8
-16
75
11
5
3
18
10
-23
-18
19
51
21
-12
-32
37
-1
7
-60
-128
7
89
106
-50
-13
-19
105
127
15
-2
-126
-64
1
7
-16
-17
2
-51
-46
46
-15
-21
46
-104
-6
-67
-55
-29
-14
7
-27
95
28
35
59
30
20
12
3
-108
-8
8
119
83
13
1
10
35
15
-1
16
-40
-13
2
0
9
-12
-59
-126
-119
5
22
34
-20
-5
-26
-16
33
-33
-11
-36
-61
16
76
113
63
17
18
-17
-67
-15
12
11
24
25
18
28
35
8
-50
-46
-50
-22
-48
102
70
6
28
84
29
5
18
-27
-54
-7
43
43
-21
-18
-9
15
-52
-12
-42
-24
10
-2
2
13
36
4
4
21
21
24
7
-25
-56
-18
-6
70
2
2
-17
84
56
-11
-61
-113
-68
-53
13
-22
11
-11
-8
-57
-86
-11
-21
-63
-61
-4
67
127
114
5
14
32
16
17
-16
31
1
-13
-18
26
92
22
-28
-89
-74
23
32
-18
-1
18
52
91
44
-1
-60
30
18
-1
52
97
18
1
23
-9
-61
-3
-15
-63
16
-7
-5
28
22
-8
-24
-69
-59
16
14
43
7
-6
-39
29
-57
-2
12
-63
-15
17
-4
-100
-13
14
30
2
6
-18
-21
108
51
-49
-81
27
35
25
22
-86
30
13
2
9
-21
-37
-52
-40
6
21
50
-43
23
38
21
79
18
15
-52
9
20
3
-12
-13
-39
9
57
-21
24
7
-9
-33
12
-41
-71
55
106
2
70
-26
12
28
33
60
0
-31
-27
121
-43
-46
13
13
5
15
-42
-128
-40
5
-14
6
9
-4
18
4
83
23
45
-55
53
24
101
106
83
14
-34
47
17
-6
-42
-85
-28
45
52
-60
-29
7
-21
-105
-58
-65
-66
13
83
-7
-5
126
23
-1
8
-127
-128
-2
-39
-118
-38
7
-21
91
58
-11
-1
-6
5
-31
7
26
33
-12
31
118
-1
10
23
-75
-20
-12
-44
-128
-59
-13
-7
121
46
12
35
96
80
34
10
-30
14
-7
6
-12
-93
-18
3
-63
-49
-7
-17
-128
40
21
-22
-24
17
22
91
127
79
43
52
78
44
-3
-31
-57
-45
12
-16
-80
-81
-18
-18
9
2
-31
-26
-16
60
-12
7
-115
-66
1
1
-81
-77
-5
-21
-99
2
5
-5
63
-37
20
-19
87
3
-16
-49
-64
-52
0
-1
-1
13
-5
-1
-12
19
-5
1
-51
-42
-19
6
27
-26
-7
32
101
48
-13
20
-119
-105
-15
-29
-73
-61
38
-10
61
48
2
27
34
92
-51
-37
-8
-16
-1
13
127
19
23
-4
92
85
-15
-98
-128
-128
7
62
-99
-40
-7
20
99
52
-58
-78
38
62
-1
37
87
66
21
19
2
51
34
54
-90
17
8
15
15
-1
24
-20
59
-29
11
6
74
-31
-43
-44
-55
-65
-26
21
-82
19
-9
-9
-46
20
-3
-32
87
33
-15
-24
-2
1
-12
5
-37
57
-28
4
-111
-45
3
-23
0
-32
8
-7
-39
41
13
44
49
38
12
52
82
24
-7
13
15
-6
0
-37
-9
-28
-16
-13
-44
-91
-7
-2
-35
36
32
-37
-1
92
-3
25
67
49
-47
36
-14
7
-2
17
-42
-98
73
20
7
-21
-10
-9
127
67
-2
-4
59
-14
12
0
-64
-6
-6
10
33
124
48
39
-33
28
14
30
-90
-119
-46
-70
-19
-22
-24
-30
-11
119
2
-18
-84
-50
-18
-1
47
-36
-20
2
14
-20
1
4
-46
-29
5
-11
-113
-62
-54
-11
52
7
10
-59
-22
-49
-14
6
-63
-10
-22
-12
-128
18
26
2
20
75
28
72
127
127
-7
-18
20
-9
-63
22
99
-16
37
-10
57
106
21
-31
-122
-72
4
38
-107
-46
5
11
115
106
53
-34
79
75
9
35
95
-9
-32
-38
-16
-21
25
-38
-116
-77
-55
-13
-75
-51
8
-11
-91
-15
-2
-27
127
76
-6
6
78
23
-6
15
-23
-95
-9
29
57
4
42
25
9
40
19
-5
20
17
34
-32
-47
-93
-10
8
-38
-5
-44
-20
-1
52
16
-37
-128
-62
11
25
-6
-81
-34
-45
32
14
-24
-6
-52
54
15
-42
-123
2
13
12
107
127
35
76
106
88
34
55
-76
-96
32
74
55
-5
-20
-61
-15
19
-32
-75
-108
-58
-17
9
31
-2
-9
-29
-128
-37
4
5
45
15
-1
-9
-61
26
37
33
-16
-88
-4
47
122
33
-47
-41
-64
-6
21
51
34
6
10
-26
-32
56
3
16
30
14
-16
19
-65
-88
-21
-26
-82
-73
-10
-32
54
24
-8
-16
-111
-14
2
45
-8
15
2
-17
38
0
0
-30
-31
-11
-23
-11
45
20
-12
2
25
-21
2
47
127
40
22
-9
26
-16
-7
-3
-116
-40
-27
13
-30
32
0
-13
12
24
-2
6
35
-5
-2
14
34
-47
-27
-6
1
108
26
-11
-44
12
16
-34
46
29
-7
4
49
33
46
18
-39
-37
14
16
7
-7
-15
-4
50
52
21
24
23
7
30
23
28
47
-10
-4
-14
-29
-15
31
-92
6
-20
15
29
16
-14
-20
-39
-9
-10
-18
-10
-3
4
14
55
-42
-31
-27
36
13
21
-8
37
39
4
16
-72
-7
-10
48
-60
-98
-42
-16
20
-21
22
-61
50
79
11
37
-48
-15
-7
68
14
-115
-1
-16
-52
5
-5
22
-58
78
0
-43
60
-13
-9
-46
31
-7
10
-3
-101
-6
-9
30
22
105
6
43
87
51
2
10
-50
-88
1
71
100
57
31
-3
-74
12
-8
4
-55
-3
26
29
-1
6
3
-39
-30
-38
-28
-9
87
13
2
-12
-60
-58
-13
8
-22
-58
-11
-30
-67
-12
-30
-24
34
-14
-9
-23
68
37
12
12
-21
43
-4
-50
-75
-27
14
-16
0
-69
8
-3
-71
17
1
-28
-3
31
3
85
127
22
10
-7
16
30
-3
0
-8
19
8
-3
3
33
16
-8
-52
-20
-13
0
-22
16
-7
-53
-50
-58
-3
-39
-18
59
4
46
16
46
17
-13
60
20
24
48
125
33
-9
-5
54
-72
-3
-28
-18
-6
-4
37
-65
-25
0
12
37
5
-16
-37
-104
46
13
15
-47
-51
15
0
-3
-98
-49
-44
-29
21
-18
-14
-18
29
47
-3
46
18
-22
-2
-17
16
15
5
-47
-19
10
-2
15
22
-12
-26
-20
-18
-48
-17
38
-5
-30
9
-15
0
29
16
-15
14
6
14
23
0
25
16
-17
-49
-32
-16
-16
1
12
-1
24
65
23
-22
12
8
15
33
16
-47
-21
-5
-30
-14
-37
-20
15
8
-13
-8
-25
1
-2
17
35
1
20
18
80
0
12
1
3
0
5
-26
-35
1
6
2
-5
-41
-7
6
-39
-16
-17
-12
-2
-11
-15
42
127
22
7
8
6
-17
-7
11
-20
6
41
17
15
-22
2
-16
-8
-6
-29
-17
-40
-57
22
-11
-17
-19
-30
-48
-58
-18
30
4
-8
-2
42
4
-15
-51
-32
-21
-29
-4
-70
-5
-17
-55
11
-18
-6
7
35
-7
27
-52
-48
-6
-14
-9
12
8
31
-59
1
10
32
17
-39
-3
23
-122
40
16
3
-7
8
15
-14
-128
-32
-29
-27
1
-15
9
-70
-102
6
-7
9
0
31
-23
-15
7
74
0
14
1
-17
15
72
74
109
-14
-28
-11
-8
43
14
122
107
4
-7
8
-15
3
23
107
69
7
8
3
0
-10
37
79
17
23
17
-4
21
-2
-35
87
-82
-12
-14
0
-6
-21
-56
69
-85
-7
1
-2
-8
-19
-22
60
29
25
20
7
15
16
24
37
9
-12
-21
-11
-4
-7
27
74
73
4
-10
5
-3
13
37
70
-58
-20
-2
-9
3
35
-34
44
-40
-7
-2
-4
-30
8
4
25
-26
-1
16
3
11
-6
-22
3
7
17
6
1
8
-18
39
-42
-51
-4
-7
-5
4
-4
-1
-31
47
0
2
3
-8
14
-27
-28
-127
-18
-7
-2
-1
23
3
-14
-66
-34
-10
-2
6
-27
17
13
-26
23
6
-2
3
3
66
17
-61
23
12
1
12
13
-29
2
-83
-8
-8
-10
-8
-31
-39
4
-128
-13
-1
0
24
-23
26
33
-68
-17
-2
-4
-5
16
-7
51
-71
-2
-3
-1
-7
-11
-8
61
-52
10
2
2
10
9
-19
61
26
8
-9
-4
0
-5
-1
41
2
-1
7
3
6
-3
-16
35
47
8
5
-3
-6
-1
-1
25
49
4
4
1
1
1
13
9
16
12
2
1
-9
14
-27
-9
4
-10
-6
1
3
-20
-6
-4
-29
-20
-3
-2
0
-1
11
0
25
14
-6
-2
-10
5
-8
-30
48
0
2
3
1
-1
-9
-3
73
9
1
-2
3
-4
3
-21
3
-16
-8
-8
-5
-15
-6
-4
38
11
6
4
-4
8
15
-12
29
-15
-3
-6
-5
-6
-27
0
50
3
-2
-1
2
1
17
-2
69
1
3
-1
-9
1
-7
-20
24
-6
3
3
-2
-4
-1
-1
18
4
-3
-2
-2
0
0
-8
20
4
0
1
-4
0
-8
-3
38
0
-5
-2
-2
-1
4
-7
28
-1
4
-2
-4
0
-5
2
-10
-4
-2
-1
0
-11
1
-11
32
2
-3
-1
1
10
-5
1
-8
2
-3
-2
-4
0
-7
-18
-1
-5
-4
0
4
2
15
-6
-22
-3
-3
-1
-3
-9
-9
1
11
3
1
-2
-3
7
-5
-9
-8
-1
-2
3
4
-5
6
-13
-1
-5
-1
-2
-1
-2
-4
-10
-11
-1
0
-1
0
5
-3
-9
-7
0
2
1
-4
-6
-4
-6
-5
6
0
0
7
2
2
0
19
-1
0
1
-1
1
-14
-21
-69
-2
-6
0
-2
2
5
-8
-28
-10
-6
-1
-2
-6
-3
-11
-17
-4
4
0
-5
-1
5
0
-13
-1
1
-1
-2
-3
-6
-2
25
7
-3
-1
-3
2
2
-4
14
-1
-4
-3
-2
-7
-1
-5
-4
4
-3
-1
-3
0
-2
-2
-13
-1
0
0
-1
1
0
-1
-15
-6
-1
-3
-3
3
5
-1
-24
-4
0
-2
1
-2
-5
1
8
3
0
-2
2
0
2
3
-6
-1
1
-1
1
5
-4
-9
-20
1
-1
-3
-2
-1
0
-5
-9
3
-3
-3
3
7
7
-1
-7
-11
0
0
-5
-8
-12
9
-5
-4
-2
-2
-1
-15
-2
-24
4
-2
-3
-1
-3
3
-12
5
-4
-3
0
-2
0
-6
-7
-8
-7
-9
-1
-1
-1
-8
2
-15
-10
-4
-3
-2
-2
3
11
12
25
-2
-1
4
0
3
4
4
14
8
0
2
1
3
-1
-1
16
2
1
-1
1
6
-10
-5
12
-3
-3
-2
-2
-5
10
17
26
5
0
-1
-1
0
-14
-6
17
-1
2
-3
0
-6
6
8
4
-3
-2
-1
-2
1
-8
-24
2
-7
-4
-2
-6
-4
4
4
11
-1
0
1
-1
2
16
10
18
-2
2
0
1
-1
-33
2
21
6
-2
-1
-3
-5
5
-1
-13
3
3
0
4
8
-5
-2
10
3
-1
-1
0
-3
0
-10
2
-22
-6
-1
-2
0
5
-4
-7
9
3
-1
-1
16
5
1
-7
-4
-1
-1
-1
-10
9
4
-7
-1
-2
-1
7
0
42
-8
-4
1
4
0
3
8
-28
2
-1
-6
-8
-1
-9
-16
15
-14
3
-1
0
-5
-2
16
-17
3
-7
-7
-1
-1
-6
-4
-27
-19
0
9
-1
-3
-5
-2
20
-4
-3
1
3
2
10
22
6
15
-3
4
-1
0
-11
-18
-29
-14
-5
-7
-4
-4
6
-11
-23
16
-8
1
0
5
8
-13
16
14
2
4
0
2
7
11
24
7
-15
0
-1
-3
7
22
43
-18
-7
-1
-4
-5
1
-2
19
25
3
-1
-7
0
-9
-14
-7
11
-19
-23
-1
-1
2
-10
-24
-18
16
5
1
5
10
6
-48
20
-18
1
3
-3
4
15
50
35
20
7
12
1
-2
0
34
1
6
22
-16
4
-4
4
-66
-69
-33
-38
-10
-9
-21
-26
-14
16
6
-13
-3
-1
-3
-35
-55
-13
10
2
-18
3
3
2
40
58
-6
-14
8
-11
-10
-25
26
51
20
14
-27
-6
14
26
11
18
-8
19
47
16
-39
-23
-19
31
-10
9
-4
-11
13
15
1
-22
-40
-12
-2
19
3
-4
10
9
-7
-23
-84
-23
-4
-11
7
20
16
50
65
-22
5
75
42
-1
-5
-12
12
-22
-51
-75
-63
-37
7
-20
-45
15
-4
-17
29
-11
10
20
19
20
-8
5
-6
-1
-1
15
7
12
18
0
-3
-3
1
24
22
43
10
16
-6
-4
9
20
30
-70
5
17
15
61
4
-36
-92
-12
1
-11
91
37
3
5
86
80
4
20
-62
-73
-9
5
-39
-19
8
3
8
59
2
-26
-95
-22
-11
-20
-2
21
-3
11
63
12
25
20
28
-2
5
1
-5
5
-8
-8
20
-26
7
37
127
24
-6
-27
4
-64
8
23
-16
-28
-9
25
26
-36
-17
-90
-50
-82
3
-13
7
-52
-21
-56
-68
23
5
-8
4
65
-2
24
-90
49
10
19
-10
51
14
63
120
31
9
-23
8
36
16
15
49
15
11
22
-20
-10
-22
-61
-59
-67
15
21
-6
-31
-17
-72
-113
-36
-32
34
-25
-58
-9
-21
7
24
-10
-23
-22
-28
0
97
25
35
13
-8
-44
-56
-6
-46
1
-41
3
0
18
-24
-13
-14
25
-3
-4
-18
-7
-42
11
38
0
15
1
53
-14
-37
-4
-1
-28
-6
10
-59
0
-15
9
11
-74
12
19
2
46
22
-4
-16
93
-33
-40
-16
31
11
4
29
63
13
-30
15
12
-25
5
-23
23
12
8
-25
44
-27
5
23
-106
-45
-26
21
-70
30
-10
-58
-77
-49
21
-68
38
7
-3
-11
100
90
16
4
-12
37
2
4
57
9
-14
17
8
4
17
23
-40
-6
22
-7
12
-17
0
27
21
-23
22
4
-56
19
6
-8
-74
-46
-44
-45
28
6
-15
-22
-11
13
-17
-16
15
-35
-6
20
-28
-10
-31
-18
46
-10
5
45
6
25
28
77
-59
-38
-16
-21
19
-39
-9
-16
2
11
-1
-42
-66
-34
-32
-18
-45
-90
1
23
127
112
12
-7
9
-30
-17
25
-29
14
41
34
18
84
20
-3
-86
-42
0
41
4
-61
-3
14
18
15
0
-6
-17
17
3
-23
-44
-58
-14
-20
35
34
8
-35
-61
-23
17
9
10
-24
11
40
-58
-10
15
3
46
92
5
-42
66
52
-32
10
-64
43
-25
6
53
52
-2
9
-13
-53
7
34
10
-38
3
6
44
22
-8
-36
-56
-24
27
-7
-8
-23
10
42
-75
13
-20
-4
55
61
-10
-38
-48
-25
23
26
-103
26
5
48
27
60
-9
-3
77
-40
-24
-23
57
19
-24
-28
-82
-17
1
33
43
43
32
25
25
26
37
-16
-41
-35
12
8
44
61
-4
-3
-107
-81
-16
29
-35
-41
1
-26
6
31
11
-40
-38
18
9
89
90
41
10
35
55
-38
-19
-94
24
-18
-13
-13
20
16
-8
-29
-39
4
-10
-60
-31
-9
-4
19
47
-1
-12
12
37
17
-6
-28
-94
-58
-22
15
-53
1
12
81
-12
-21
74
-36
-13
-33
8
-59
-12
44
-51
-15
-17
9
-27
6
124
20
7
33
57
11
23
60
-37
-11
5
10
-115
3
-26
-16
28
-29
-19
-17
72
6
-2
-42
-48
-63
-20
11
21
8
-8
-9
-84
33
15
16
-8
20
-18
-22
55
-4
-16
-44
-6
-71
14
6
99
36
2
0
3
-41
-35
34
127
20
29
-24
-29
-23
-1
17
-85
-34
-23
-5
9
0
6
-40
-60
-11
13
14
96
28
20
28
113
37
18
26
-120
-44
-13
-39
-82
-52
-54
-37
31
63
39
17
-65
-4
15
26
-18
-40
-23
-3
117
54
34
-9
28
94
7
-22
-49
-21
-45
-22
31
-20
0
10
50
4
23
-12
-36
9
7
-2
-80
-58
-24
-4
-21
-29
4
34
3
52
18
41
15
17
-1
38
-44
3
-13
-20
-27
19
9
21
9
24
27
67
76
-28
-28
-74
106
22
7
-26
-31
21
36
48
-81
-76
-17
-15
32
-24
-28
-47
-13
31
-5
-12
-19
48
4
15
111
74
21
5
-26
13
6
13
-2
-37
-7
1
43
11
-32
-37
-45
-34
11
19
52
-38
-5
-7
-48
-44
-81
-41
-56
-78
-14
-22
-128
-11
10
-17
60
55
16
23
127
75
34
19
34
-51
-2
-11
12
-34
-3
-38
-93
40
28
44
29
16
-3
14
42
8
7
-15
20
30
0
-7
-25
3
1
20
-98
-24
7
7
-59
-4
-17
-6
67
-31
69
67
53
10
-26
-17
-117
-19
-75
-76
-8
43
31
22
109
-19
-14
28
53
-29
-17
-26
-126
-19
28
15
-8
-3
-10
-25
58
61
-31
-52
-32
-28
-12
0
100
-8
45
34
65
58
34
91
92
96
14
19
-69
43
2
-5
94
-1
22
13
-39
-98
-21
-21
-42
-59
-39
-35
-85
-35
-44
3
-98
-49
41
31
69
-47
-3
-49
38
9
-60
21
21
-13
32
-4
10
-13
-23
-81
8
34
15
-10
41
30
2
21
-68
35
35
51
-33
13
13
-37
4
-72
-3
-14
-28
-46
35
70
-11
16
-65
-12
-59
-7
-63
-47
17
18
-15
21
45
7
-16
-26
80
9
0
-30
-105
7
6
49
-53
15
14
40
97
2
25
-28
-7
19
15
-29
-92
17
30
51
-16
-51
-14
-53
43
13
-75
-49
-38
-3
45
100
127
19
35
43
64
64
3
-114
-128
-31
-45
-37
-47
-15
-3
20
-45
-10
3
-3
-14
17
26
51
31
-29
19
72
-64
34
33
-32
16
43
-6
21
-59
-62
-32
-1
19
-10
-61
-90
-5
-39
-3
-43
-53
9
-20
21
-38
32
19
17
-128
-19
71
-18
23
12
-6
-28
107
-16
-40
11
12
7
0
-21
-38
2
4
-6
-23
-10
1
12
53
-5
14
23
88
12
46
37
-96
-22
-21
-13
-47
-2
-41
-28
92
15
33
18
-29
42
52
54
-59
20
7
77
-38
-122
-16
-41
96
9
-27
-55
47
80
12
-5
12
3
36
110
29
28
10
2
-31
9
1
-74
11
14
-8
-28
15
-1
14
1
-15
44
25
39
7
12
22
-10
47
22
-36
-2
14
-4
5
21
-9
-21
-3
-15
-83
-42
-14
-24
-41
-11
-33
12
-6
2
8
19
35
2
10
14
3
-11
3
-6
-33
-26
-17
-42
-92
12
3
-65
1
-18
-14
10
74
1
-68
17
15
8
2
31
14
8
38
-18
1
-3
4
10
61
7
6
-28
-14
-14
-35
-15
16
-17
-14
6
18
-8
19
-5
-98
25
19
-1
6
-13
-21
-14
19
-15
39
-2
9
-5
15
38
37
-8
-20
24
-29
-19
8
-2
26
12
-18
-11
17
-25
8
15
-24
-9
-20
-10
-23
-12
-15
5
-14
-13
13
2
4
-30
-38
-27
-14
4
19
20
3
-40
-15
-3
18
3
-28
-28
-6
-53
-4
-4
-27
-11
4
17
1
-65
-17
-13
-11
-4
-10
-1
4
-45
20
2
11
16
2
0
-11
-103
49
9
6
-5
-37
0
16
-112
-5
-12
-7
-4
44
12
-5
-120
29
-19
4
7
-8
-15
-4
-107
68
0
-16
-2
14
7
-1
-112
92
2
8
5
-1
7
0
10
72
3
9
13
-6
-7
-29
63
60
21
-2
-12
40
7
25
116
-17
-5
-9
-7
-43
-16
2
127
-40
-8
9
13
10
12
-14
100
-47
6
8
-5
3
-19
9
122
-68
6
-10
4
-8
10
-12
102
-62
-3
-7
-9
6
4
-30
100
-60
5
6
4
8
10
10
73
-51
0
-3
-4
-26
-4
-3
60
-34
10
-5
-4
-6
-8
20
41
-37
-3
0
4
-5
4
-30
31
-38
1
5
-1
4
-15
1
23
-16
1
-10
-3
1
12
-1
4
-3
4
3
0
-27
37
27
-13
33
6
2
-3
11
-35
-31
-2
-71
-29
-4
1
-23
14
19
-13
10
-3
0
0
53
3
2
-21
-3
-3
0
0
-25
-3
-36
-9
-55
-1
-3
0
-10
-38
9
17
97
10
0
-6
6
12
6
-6
-19
-1
-4
-4
-17
-7
16
-13
-12
-20
-8
2
2
-1
4
-34
-24
6
3
-3
8
32
13
-25
21
1
8
-3
-4
-51
-13
-13
21
13
-5
3
11
4
41
15
45
2
-5
-1
-11
12
-58
10
-38
-27
-8
-5
-3
-16
5
44
-15
19
11
5
26
15
7
24
6
-2
1
-4
-3
25
-47
21
-29
3
-10
-4
-22
-52
-9
33
28
8
4
3
16
4
4
-11
-84
-25
-8
-7
4
23
-16
10
14
4
0
2
-1
-5
27
-2
7
4
0
-3
-10
1
15
14
54
15
3
0
-2
32
11
14
5
0
-2
-7
0
-21
-8
9
-5
-6
-3
0
4
14
1
4
18
0
3
-1
-3
-22
9
2
20
-2
0
0
2
15
-1
-2
9
1
-3
0
3
-13
-6
-4
10
-1
2
-2
-13
-2
2
2
-2
6
0
0
8
8
-1
-9
34
-4
-4
1
10
1
-10
-6
-23
-14
3
4
-10
-2
0
6
22
14
5
0
3
-2
-3
-4
9
1
-2
-1
12
-5
9
1
5
-6
-4
0
-4
-1
-1
-7
21
-4
1
2
1
2
-4
-21
-31
-11
-5
0
-5
3
-7
-4
-15
-3
2
-1
2
-4
-9
-12
5
2
-6
0
1
5
0
2
18
6
0
-2
0
-1
0
5
-26
-5
4
-1
-2
-16
-9
-10
19
-5
-4
0
0
14
0
-10
-4
2
-2
0
2
2
4
-1
4
-3
-2
0
-3
-1
0
-6
-7
-2
2
-2
-3
-3
0
3
4
3
1
-1
-2
2
8
-8
-28
0
2
-1
-5
3
-5
-5
19
10
-3
-1
-4
-6
3
1
-10
-3
-3
-1
-4
2
0
-3
0
-4
-2
-1
2
-1
3
-2
-14
3
7
0
2
-1
-6
-7
-5
1
-4
-1
-3
4
-1
-4
-8
-12
-5
-2
-5
-7
2
-4
-19
2
0
-1
2
4
0
-3
-3
-7
-4
2
1
8
2
-5
4
-1
-1
-1
-5
-3
-3
-7
3
-4
-1
-2
0
-2
1
-2
-12
-1
2
0
4
-2
1
-5
1
-1
-3
-3
-9
1
-2
-1
-5
-1
1
-1
-1
-2
1
1
4
1
2
0
0
-6
4
-4
-5
-1
1
0
1
0
-4
-1
6
4
-4
-3
-5
2
-1
-4
1
3
0
-1
-1
-2
1
6
16
6
2
-2
-1
-5
-3
-12
-6
-2
0
-1
-3
-4
1
-1
8
-4
1
-1
0
3
3
-2
4
2
1
-3
1
-1
-1
-3
2
-9
0
-1
-1
4
-5
3
13
1
1
-1
-2
-2
5
-8
-12
-1
0
-1
-4
0
-4
-1
4
1
-6
-2
-2
-4
0
-2
-13
-4
-3
-1
3
-1
-2
-11
-5
-9
-2
0
2
-2
-2
3
7
3
-4
-1
-1
-2
2
2
1
-5
1
-1
0
4
1
-2
-42
-2
0
-2
0
1
-8
-4
13
2
-4
3
0
-6
0
-3
3
-7
0
0
-2
0
-1
-2
8
-1
-2
2
-1
2
1
-2
2
-2
-1
-3
-2
2
1
0
2
4
1
-3
-1
-1
-1
1
4
-2
-1
0
-1
0
1
-2
-5
2
4
-1
-2
-4
-1
-3
6
1
-4
0
-2
0
1
0
-7
1
0
-4
-2
-3
-1
4
5
-5
-5
-1
3
0
-2
-9
-13
-17
-2
-1
-1
-7
-1
0
2
5
-2
-3
-3
-1
4
2
1
2
-2
0
2
3
0
-2
-12
-1
-1
1
1
3
-1
5
-3
1
-6
-3
0
-7
-4
-11
3
2
6
-3
1
0
1
6
-5
1
1
1
-2
-3
-4
0
-8
-3
-2
-4
-7
-4
3
0
-8
-1
0
-1
0
1
-1
3
12
2
0
-1
2
1
2
-2
-6
0
-3
-3
-1
-1
-1
3
7
-2
0
1
-1
0
-4
-6
-12
-2
1
-1
-1
0
-14
-2
23
-1
-4
0
-3
-3
2
7
11
1
1
-1
0
1
14
1
9
1
-1
-2
-2
1
-14
0
5
-2
0
0
-1
3
-1
-1
7
-2
-2
1
1
0
-1
1
-5
-6
-3
-1
-2
-4
3
-6
1
-7
0
1
-2
-4
-1
3
-1
10
1
1
-2
-2
12
9
9
1
-2
0
-2
3
4
-11
-13
-9
-1
2
0
1
-12
-12
-10
2
-1
-2
-1
-1
-11
-3
-3
-1
0
-2
0
3
15
8
-2
3
6
2
6
22
-5
-14
4
0
-6
-5
-5
-16
-29
11
-10
0
-6
-3
-9
-15
6
-6
-2
-7
0
1
15
2
35
46
0
8
3
0
-5
-33
-72
-46
-2
-19
4
0
-1
15
-13
6
-8
-2
-9
-4
5
15
0
-8
-5
-14
-10
-3
-12
-32
20
27
-4
3
-5
0
-3
5
79
78
-1
11
15
6
15
18
-23
18
8
50
10
0
5
6
16
1
-24
-41
-5
-5
-9
-2
-29
-12
-13
-16
-29
-5
-3
-16
49
10
27
44
13
1
2
12
-31
-40
-6
-38
-5
-9
-20
-35
16
29
41
7
-21
-18
16
26
-41
-49
6
-1
-36
-3
-22
-11
77
10
6
25
76
32
2
14
20
38
-2
-9
-9
-36
6
24
74
96
6
5
3
21
-7
17
-114
-97
-16
10
-12
4
-12
-45
-79
38
-8
-41
24
6
10
2
11
15
-12
23
-15
0
2
-39
31
-32
-38
-28
-52
-60
-22
24
57
76
27
36
-9
21
0
52
-2
1
-19
2
11
-15
-29
-42
-10
-20
-29
-20
-67
7
34
0
-22
84
26
2
-10
19
-6
9
18
22
11
-3
90
64
21
7
-27
30
15
39
-16
-57
-4
2
18
32
14
-3
-62
35
19
28
-2
-38
21
69
87
107
6
-20
18
-29
-18
-57
9
-36
-3
-7
-39
-53
-10
-60
-87
-86
-36
3
20
40
16
71
110
92
5
-18
-47
9
4
64
-15
-5
9
-24
38
35
6
14
-41
-71
29
17
-20
-73
2
-26
-9
-21
6
16
-9
-70
-21
-47
-53
-85
-4
12
26
-64
2
-27
-40
-47
7
20
-43
-87
-42
-45
-58
22
-42
-70
51
-50
-29
-39
15
42
23
21
-9
-22
-5
20
109
30
-29
-17
-36
-75
-2
19
64
-12
31
1
-52
-29
7
6
-88
-37
-12
9
14
-43
-18
4
-94
19
-2
4
39
0
-1
-26
76
25
-9
8
2
6
-8
-30
-100
-27
-19
-11
3
40
22
-8
18
-87
-11
42
-36
51
18
16
-93
37
35
-54
-12
24
-4
1
106
68
12
6
-34
30
42
41
71
38
9
-6
54
-99
-18
-16
-24
23
-5
9
33
44
1
27
15
-18
1
18
40
18
11
-31
-128
-109
-8
11
-50
15
-4
-65
-84
18
-16
-30
-42
48
-7
21
127
62
8
-9
19
37
30
24
18
-17
-5
9
-15
-60
-12
-27
-35
-22
-31
-37
7
26
-1
5
26
0
-1
3
-42
33
13
2
0
4
16
22
-6
15
1
-4
-46
-22
-15
-37
12
78
9
10
-49
-16
13
46
-39
-69
-19
-49
3
20
-20
-39
60
65
-11
29
73
-10
-5
-12
83
24
10
-9
32
38
21
13
-122
-13
-5
46
107
19
-23
-30
93
-12
-15
-5
-99
-45
-2
41
27
-25
6
-50
-19
-7
6
-11
-42
65
13
13
118
82
3
7
35
-95
-17
7
-81
-38
-6
14
-75
-9
-26
-25
-54
-36
0
-20
30
32
-13
16
-15
7
-13
7
-7
29
-12
-3
-29
-58
5
-5
109
56
26
21
-75
6
-3
32
-28
-35
-1
20
98
23
-11
-17
22
-22
7
-14
6
15
11
6
-39
-4
5
-16
-45
18
14
1
-68
65
6
15
124
54
21
21
127
44
-7
47
6
2
1
24
-71
-51
-14
-36
-70
-52
-40
-45
-22
13
-15
-47
-45
-85
-20
-4
70
15
10
-28
-128
-62
15
20
-66
12
-4
5
-1
98
6
-7
11
65
21
60
117
113
59
2
15
-76
-1
93
68
38
-14
22
-14
-30
-16
-59
-76
-76
-3
9
-100
10
10
-16
-53
-84
-18
-32
15
-90
-18
-24
-71
3
-16
11
64
87
10
-25
-79
17
14
-6
-110
-92
15
68
127
27
-11
-35
119
-19
-27
-31
19
-6
4
12
21
39
13
-5
-116
-56
-40
-5
-3
-41
-13
-13
53
72
35
-10
52
126
-7
-33
50
5
-5
-2
-65
-80
25
67
4
-32
-5
-6
-35
-9
-15
-30
20
-8
24
6
16
-9
-5
-13
-128
-47
-32
-19
-23
23
-9
-59
-20
-27
-5
-32
42
37
19
-34
-72
-50
14
5
-6
3
-3
81
85
97
14
10
-79
23
35
99
87
55
25
5
96
21
-10
20
-64
-7
18
15
-28
-47
-12
-68
-104
-66
-21
-10
-24
90
22
-8
-128
-92
-16
31
49
-76
-24
-37
-2
33
-19
2
-32
-76
7
-23
15
10
-20
-53
27
14
6
35
15
9
4
51
33
-1
27
-17
-40
3
18
-19
-5
67
-1
-9
116
18
-12
13
50
36
8
30
-39
14
11
1
33
-7
-16
-6
-4
9
1
25
-64
-10
17
54
120
17
-10
-37
36
5
2
-10
-79
-46
6
8
-6
42
-3
-24
-13
10
4
12
23
35
-5
47
-16
18
-4
7
-1
17
-20
-59
0
12
0
11
-51
-119
-16
-5
23
-13
-5
-33
-72
1
-26
-4
-48
-18
-5
17
29
45
-16
-26
-73
-4
-6
-13
-20
15
20
44
70
23
4
2
7
6
-45
-11
21
-9
4
-8
22
-8
4
19
4
31
4
26
-22
67
41
25
127
33
11
-9
79
53
-15
-41
-59
-45
7
24
-44
-25
0
-37
-95
-66
-43
-39
29
-29
4
-92
-42
15
-15
-11
-100
-53
-14
29
-20
36
5
-19
22
106
24
-12
67
3
30
-8
-90
-65
-27
-18
-64
-47
-25
30
-11
5
-16
5
38
27
11
-32
28
87
12
12
83
32
-8
4
22
-25
6
12
-40
-16
13
12
29
-41
-5
18
-53
-7
12
1
-35
-54
9
21
59
-21
-3
-16
-34
-12
-25
-25
-68
40
11
2
-28
57
-21
17
81
-18
-24
11
121
-61
-16
-10
-50
-25
-12
-1
-39
-28
6
18
-7
22
9
-25
68
81
-4
-46
83
-8
34
45
-73
-125
-20
-25
-128
-33
-35
-53
-15
35
28
6
46
28
3
-13
4
28
13
18
45
-4
2
2
36
8
-23
-11
-72
-35
-2
2
-20
-87
0
10
-7
22
7
23
-77
111
31
26
127
39
-10
6
21
25
-1
31
-23
6
-4
-2
-32
-4
9
-4
-15
-8
8
-3
49
-3
5
-7
-28
-31
-2
26
28
29
16
-5
-58
-8
-6
-21
-76
15
-14
8
16
14
-4
16
-44
-42
25
-8
29
-12
-3
-7
42
-41
-32
-10
-52
-4
4
-2
-51
-41
28
-14
-68
18
-1
-18
-1
50
26
53
86
11
22
16
36
-41
-24
-28
-5
-70
5
13
64
86
10
16
-54
44
-35
-7
-30
56
3
-56
-7
17
53
32
-33
-115
-16
56
37
13
-3
-13
30
0
34
34
85
17
-4
12
1
46
-28
-27
-43
-30
20
-24
21
41
-9
-16
-91
-31
-38
16
28
46
2
-7
-102
-28
-7
10
9
2
39
-21
19
20
5
-9
-44
-56
-3
17
125
38
13
20
-36
0
-15
-2
-10
7
-22
-19
4
9
6
-36
-1
-43
-6
-7
-6
-21
-21
2
15
22
-23
-23
0
67
21
51
-18
16
2
-8
120
-9
2
-10
16
-6
22
20
37
-19
-13
8
28
-2
25
6
0
13
-7
-4
-34
-12
2
-28
-59
-35
-22
-1
8
-18
-33
22
-48
-4
-5
11
5
-1
-15
-16
29
1
22
-29
-75
-9
17
0
6
-9
-44
-3
-9
1
-35
-13
-27
-33
-2
-5
12
-11
19
-13
2
-10
-2
21
2
-17
-10
12
-2
5
-4
-34
-1
21
-16
-17
-6
-37
-33
30
65
21
13
13
19
-25
-6
-2
-4
-4
-16
-5
-38
-22
-16
4
4
-9
12
7
48
-47
-9
-17
-47
-8
14
17
-10
-38
37
6
16
3
-5
-27
1
-45
4
-5
3
2
-2
-6
3
-46
11
11
31
4
6
-2
-26
-93
-7
-3
-10
-6
-11
-4
-5
-63
4
-4
-36
-16
2
10
23
-56
21
-8
-18
1
0
-6
-4
-120
4
9
33
6
-2
-10
-28
-19
-38
-2
16
19
-21
-9
22
-25
-29
-2
-19
-13
-20
11
-27
-4
15
-18
-2
-9
26
-15
-16
68
-59
-18
-4
-5
8
-5
-40
83
54
32
0
-2
-4
6
30
107
-81
-23
-8
9
-6
31
-5
118
34
27
19
-2
94
-43
-82
54
-57
8
11
20
-53
-27
98
78
12
-30
-12
-13
-20
77
-49
72
46
25
-4
-1
-28
-102
87
16
16
-33
-21
-10
0
112
-16
50
127
19
20
7
28
-101
-97
9
117
-3
-4
1
-11
-22
3
12
107
10
-5
-2
23
-47
56
-10
36
17
13
6
-4
6
51
-3
30
18
12
2
-7
124
64
-57
-43
-36
-6
-6
-29
-4
-31
-92
-57
-67
-27
-13
-4
8
-17
-76
-71
6
-4
-3
-36
-65
-4
-17
-62
24
13
0
55
43
-16
17
-70
-5
-11
-1
-40
-13
86
29
-78
15
4
4
16
66
-48
37
-105
-11
-8
-9
-26
0
1
64
-118
-28
5
-2
14
-44
-43
76
-56
33
3
0
20
15
-44
72
-32
-4
2
-2
10
-33
38
57
79
1
-4
2
-12
58
25
53
127
16
0
0
-6
0
4
31
18
-11
2
1
18
-21
-3
32
47
21
3
0
-1
17
-18
26
-33
2
1
2
4
-17
-1
-1
-101
-10
8
-3
-13
-6
15
1
-1
14
-2
-2
2
-12
-12
-8
-5
6
-4
2
4
20
-17
-5
-7
-9
2
3
-12
-8
14
-7
22
-7
-1
-4
-9
-11
3
-18
11
-5
-2
1
3
-7
-9
-13
40
15
2
1
2
5
-12
-9
-3
-9
-1
0
-4
-16
40
-11
24
3
-2
-3
-7
7
-19
-13
-7
-1
1
2
9
6
-34
-4
33
-2
-5
0
-8
-12
9
-5
5
2
-4
0
-1
-9
-18
2
23
2
0
-2
4
25
15
-5
3
4
9
1
-1
-15
8
-5
0
-11
-5
-4
2
14
-11
-6
42
8
-3
-4
-9
-14
-9
-18
-19
-17
-7
-1
3
-7
10
-2
27
1
1
0
2
-13
8
-9
8
2
2
-4
-5
11
-10
-2
35
7
1
1
-5
-7
-3
-6
10
-13
0
0
5
-6
25
-4
-6
2
3
-1
2
15
-25
-7
33
18
-2
3
-1
-17
0
-13
-17
-13
-2
-2
-2
9
-7
-1
14
2
-4
-2
-6
3
-2
-9
-20
-3
-8
-2
1
3
-14
-9
5
-4
4
0
1
1
8
0
-8
5
7
2
1
-8
6
6
17
11
3
-2
-4
13
2
-19
-12
-8
1
0
4
-12
-5
-9
-6
-10
-10
-4
-2
4
1
1
10
4
-6
-2
-4
-6
-4
-8
-20
-7
-2
-4
-8
-4
-8
0
-7
-1
-4
-1
0
-3
0
0
-20
0
1
0
3
-3
7
-1
-17
-5
1
-1
2
-2
19
-4
11
8
-1
-2
-1
19
-19
-3
3
-2
-3
-3
-3
-17
-1
-6
10
3
0
3
4
12
17
-2
-12
-5
-1
-2
0
5
-5
-5
5
2
-3
-2
-4
-12
13
-1
11
1
2
-1
0
7
5
-10
-21
-5
-4
-1
-1
1
-18
0
6
7
-5
0
-4
0
0
-2
-3
1
2
2
-2
-13
9
-4
-7
1
-3
-5
-1
6
7
0
4
-3
-9
-2
4
12
-8
-1
13
-3
0
2
-1
-2
-7
-9
-16
-3
11
2
1
-12
3
1
5
4
4
1
1
10
0
1
-4
3
3
-1
-5
-1
-6
-6
10
-6
-4
-2
-1
4
1
1
-16
-7
-4
-2
1
-3
-12
-7
-4
1
-3
1
-5
-7
10
1
5
11
-2
-2
-4
-5
-12
0
-14
-19
-4
1
3
10
-5
-3
20
-5
-3
-1
-1
-4
10
0
0
-1
3
-1
-1
-1
-17
-4
-10
3
-2
-1
-2
-9
-5
-1
-3
1
2
0
-1
-1
1
0
0
2
0
-3
0
3
-3
1
1
-3
0
0
1
2
1
0
15
2
0
-3
-2
-2
-4
0
-7
3
-2
-1
-4
-4
-2
-6
-5
0
-4
-1
-3
2
-6
-2
-2
2
-3
0
0
-2
8
3
-8
-5
3
0
1
-3