-1
-1
10
-1
-3
-2
-1
-1
0
0
-6
2
0
1
-3
0
1
-1
-1
2
2
0
2
0
1
-2
2
-3
-1
0
1
-2
-3
2
24
4
0
-2
-1
0
-1
-3
-10
-5
0
0
0
0
-2
-1
4
5
0
-3
0
-2
-1
0
4
0
-4
-3
-2
-1
0
-2
-6
4
0
1
0
0
0
2
13
-2
-1
0
-2
0
-1
-2
-14
1
3
1
0
-2
-1
2
1
-3
0
2
1
1
-3
-3
-4
-3
-3
-3
-3
-2
-1
1
4
-2
-3
-3
-3
-3
-2
-3
-11
-5
-3
-1
-2
-3
-1
0
4
5
2
1
-2
1
-3
-5
-20
-6
-2
-2
-2
-1
-2
-1
-8
2
-1
1
3
-1
-2
0
9
5
-1
-2
1
0
-1
-2
2
-3
-1
-3
-3
-2
1
-2
-30
-13
-4
-2
-2
0
-1
-3
2
5
1
3
-1
-1
-1
-1
1
-4
-2
-1
1
0
-2
-2
-25
-5
-2
-3
-2
-3
1
1
18
8
3
0
1
0
-1
1
-5
-5
-3
-1
-6
-1
0
-3
3
0
1
-1
4
-1
-2
0
-12
-5
1
2
-4
-1
2
0
0
-1
-2
-1
4
0
-2
-3
4
-9
-7
-5
-4
-4
-1
-2
3
5
2
2
2
1
0
2
-5
-2
-1
0
-3
0
-5
-8
-18
-10
-5
-1
-3
-3
-1
2
3
4
1
-2
1
3
-1
-1
-1
1
-1
-2
0
-2
0
-1
7
-1
0
0
-3
1
1
2
7
-1
-2
-1
-2
0
-1
-4
-9
-3
-1
-3
1
-3
-2
2
8
5
2
4
0
-1
-2
-1
-12
-4
-4
-1
1
1
0
1
4
-2
-1
-2
4
-2
0
0
-6
-6
-2
-3
-5
1
-2
-3
-11
-1
-3
-2
-1
-2
1
-2
17
-2
-1
-1
2
-1
0
1
2
8
2
2
-4
-1
-1
0
-4
4
2
1
2
-1
0
2
2
-3
-1
-2
-5
0
1
3
5
-1
-1
-1
2
-1
-2
-7
-6
-7
-5
-3
0
0
2
4
4
3
1
2
0
1
-2
-3
-13
3
0
0
-2
-1
-2
1
10
0
1
1
-2
-1
-1
0
13
1
2
-2
-2
-1
-1
-4
3
-3
-4
-2
-1
-1
0
-1
-7
-11
-4
-1
-4
-1
-2
-1
2
5
0
0
1
-1
1
0
7
4
2
-1
-2
-1
1
-1
-5
-3
1
2
-1
0
-1
-1
7
5
1
2
2
-1
-3
-3
-30
-4
0
-1
1
-2
-1
2
7
-5
-3
-2
-2
0
-3
-2
-5
0
-4
-3
-2
-2
0
0
1
-2
-3
-3
-2
-1
1
0
8
2
1
1
0
-1
0
6
6
6
4
2
0
0
0
-9
-30
-5
2
1
1
1
-4
-1
22
4
-3
-5
-6
-1
0
-1
-13
-12
-3
0
0
2
0
-2
-2
-5
-7
-5
-3
-2
0
2
10
7
3
2
-1
1
0
0
-10
-6
-1
-1
3
-1
0
0
2
2
0
0
-2
-2
-1
-3
-8
-2
-1
-1
1
-1
0
0
2
-4
-3
-3
-1
-2
-1
-1
-5
5
0
-2
-1
0
-1
2
8
3
1
0
0
-1
0
0
7
-4
-2
-3
0
-1
-2
-8
-10
-3
-2
-1
1
-1
1
-1
6
4
2
2
0
0
-1
1
4
3
-2
-1
-1
0
-2
-1
-28
-4
2
1
0
0
-1
3
16
1
-2
-3
-2
0
-1
-3
-31
-10
-3
-1
-2
-1
0
-1
12
0
2
-3
-1
0
-3
-4
7
5
-4
-4
3
-2
-1
5
5
2
1
5
-3
-1
1
-3
-5
-3
3
0
3
1
-2
-3
-2
-1
-4
-2
-5
0
1
-2
-5
0
1
2
1
-3
-1
-1
-1
-2
-1
-4
0
0
0
1
2
5
-2
-1
-2
0
0
-2
-6
-7
-4
-4
0
-1
0
0
10
2
-2
-1
0
-2
-1
1
10
5
1
0
0
-2
0
1
-11
-3
0
0
-3
-1
-3
-7
-21
-7
-3
-1
-3
-1
0
1
-4
3
-3
-2
-5
0
-1
0
-4
-4
-1
-1
3
1
-2
2
11
3
0
0
1
-1
-1
-1
-7
0
2
-1
2
0
0
-4
-2
-5
-3
-1
-2
-2
-1
-2
6
-1
-2
-1
-2
-1
-1
0
-15
-1
2
0
-1
0
-1
0
14
1
-1
0
-1
0
0
-2
-14
4
4
6
0
-2
-2
-3
-13
-5
-6
-4
-5
0
0
-1
8
0
-4
-2
-1
-2
-2
3
1
-2
0
0
-1
-3
0
4
3
0
-1
-3
-1
1
0
-6
-15
-2
-1
-2
0
-2
-2
-3
2
3
1
2
0
-1
0
-2
-8
-1
-1
-2
1
0
-2
1
7
5
2
-2
0
0
0
-1
2
-3
-1
2
0
-1
-3
-4
-20
-10
-7
-4
-3
-1
0
1
13
7
1
0
2
-1
-1
-4
-11
0
3
4
0
0
-1
-1
15
0
-1
-4
0
-1
0
-2
3
-3
-5
-3
-1
-3
0
1
-13
-4
-2
-1
-2
-1
1
-1
5
4
0
0
-1
-1
0
2
-9
2
2
1
-1
-2
0
-2
3
-6
-3
-1
0
-2
-1
-2
-1
-4
1
0
0
-2
-1
-3
-7
3
-1
-1
1
-1
0
3
4
6
1
0
0
0
-1
-2
-8
-3
0
0
-1
-2
0
2
22
13
-2
-3
-1
-1
-2
-6
-9
-21
-3
-1
-3
-2
-2
-4
-11
-2
-4
-2
0
-1
-1
2
14
-4
-3
-2
0
-1
-1
-1
4
4
4
2
1
0
-2
1
7
4
-4
-3
-2
-2
0
-2
-11
-1
5
2
2
0
1
-1
6
-1
-6
-2
-3
-2
1
-3
-13
-2
4
0
-2
-1
-1
3
5
5
0
-1
-1
-1
-1
-3
-1
-1
-1
-1
-3
-1
0
3
2
-2
-4
-4
0
0
-3
-5
-1
-7
-7
-5
-2
-1
0
-2
-9
-3
-1
0
2
0
0
2
4
-1
-1
-1
0
-2
-1
-5
-1
10
7
3
-1
0
-1
0
-2
-7
-3
-2
-2
-1
-1
-2
2
-6
-6
-4
-2
-1
-1
-1
0
-8
0
-2
-1
0
1
1
2
11
4
0
-2
0
-3
-4
-13
-8
-3
-1
-1
0
-1
2
-4
4
-1
0
-2
-2
-4
-1
20
-7
-5
-3
-2
0
-2
-6
-29
-15
-5
-5
-2
-2
-2
-3
9
8
-1
0
1
-1
1
0
-3
-16
-1
-2
0
0
1
2
5
8
-3
-1
-1
-1
-2
-4
-1
-8
-2
1
1
-1
1
0
1
13
-1
-3
-1
0
6
-1
-1
-1
6
5
2
0
-16
0
-1
12
4
4
4
1
11
-2
4
-6
-1
-1
-1
0
-6
1
-2
-14
-9
-3
-7
-5
-3
-3
1
6
-8
-7
-4
-1
12
-3
-6
0
5
0
-2
-4
-6
2
7
13
0
2
3
1
5
2
-11
-21
-2
2
4
4
6
-1
-1
23
10
3
0
1
-2
3
3
1
-3
-3
-2
-1
0
-2
8
-10
0
-3
-3
-8
-22
0
4
-5
-3
-3
-2
-5
-4
-3
-2
-3
-5
0
1
-2
-2
-5
-7
-7
-7
-2
1
0
-2
1
-1
13
3
5
3
3
15
6
-1
0
0
2
3
12
0
5
-7
11
6
2
1
3
20
-1
0
11
3
-2
-5
-1
-39
-7
3
-6
-8
0
5
1
1
4
-4
-17
-1
1
1
-2
-35
5
-7
9
-6
1
1
0
-19
-10
4
26
4
-1
-4
-6
93
-3
18
3
11
10
10
26
9
5
-17
-20
-1
-6
-17
9
60
-6
8
-65
-49
-23
-11
-26
-73
0
-2
4
28
15
11
-25
-110
20
1
0
-8
-19
-2
-41
44
-7
36
16
-16
-1
5
-9
-41
-25
-34
-31
4
9
15
20
81
12
-4
25
3
4
-13
12
-25
9
-84
13
0
-5
-5
6
47
53
65
33
15
10
13
41
-66
-16
-26
0
5
6
10
-9
113
4
73
59
-1
9
15
18
54
-28
-36
-66
-14
-14
-13
19
-85
-65
38
-29
10
-14
-6
-48
63
102
14
27
11
0
-15
24
-99
-71
-5
-25
15
10
10
-40
-52
12
46
10
-8
-6
-1
-45
7
-18
-49
3
-2
-2
-8
-3
86
32
-25
45
-20
-2
-13
24
-51
25
-4
-17
28
8
34
20
-62
-22
23
-45
7
-8
-10
-13
27
-42
-7
-36
-28
13
5
10
-128
49
-6
50
35
-10
-4
-7
108
-53
-30
-70
-56
-11
-52
16
-52
-30
-80
-13
-1
9
19
-2
44
-12
56
-18
10
6
8
3
-22
-40
-4
-12
5
1
12
-26
-83
56
-15
-10
-8
-48
-23
10
78
0
54
21
0
2
-3
16
-29
49
-73
-4
-8
29
-18
20
14
57
47
2
5
-18
-2
-29
-112
-40
13
-12
3
-12
16
-22
127
7
-13
30
4
29
13
33
-128
8
-25
14
20
-17
-13
-38
116
-48
-18
15
7
19
-8
15
76
21
12
-33
-36
-28
12
9
-6
40
-34
24
9
-11
-28
-20
19
25
8
31
12
16
14
-7
-13
0
50
-2
-5
-7
-2
9
70
-52
7
-62
-5
-1
-7
-18
32
33
18
44
-2
-6
7
22
20
-84
-41
-19
-7
-21
-24
-7
39
18
43
-33
-1
-1
7
-42
75
27
-95
-65
-23
10
16
50
-48
33
39
74
15
-4
-31
-27
-19
-47
-7
32
-2
-30
3
-6
50
27
2
15
5
52
29
41
-82
-26
18
-10
-8
8
-12
-36
112
-1
-25
-27
-6
7
23
29
15
11
51
8
6
-16
-10
-20
-3
-43
-15
-25
-27
-16
-1
26
-105
-30
-21
-29
10
10
-2
-22
34
-35
1
14
-10
-31
-2
29
-62
21
38
41
6
13
-6
7
45
-5
14
-16
1
2
-22
-6
-75
46
-23
26
25
19
12
-9
-93
-41
4
-26
-5
4
-4
-43
123
66
-46
-16
-31
-7
25
28
-75
-18
13
-24
26
7
-5
-2
47
34
16
61
7
-6
-2
-16
28
-15
-51
-19
-2
10
10
29
-83
-27
54
-54
-4
1
-23
-55
74
15
-33
91
24
1
17
48
-49
-31
0
27
-3
-14
-13
-3
-20
56
45
-13
-6
10
-7
-24
127
85
-45
5
-13
-1
17
62
-22
-102
31
-59
-12
-24
-23
-74
127
35
1
36
9
17
8
13
-41
-15
-6
-25
2
9
8
-14
45
14
-15
29
11
3
3
9
-41
-8
-54
10
-9
-16
-7
9
8
13
21
19
5
8
14
17
36
-21
41
13
-1
10
11
-12
-27
-27
-1
6
7
-1
-2
-2
-54
35
54
-12
-16
-3
0
-17
66
19
-38
5
-1
2
-19
9
0
-4
-23
-4
-11
-15
-12
3
-31
-9
50
6
11
12
29
-1
50
-30
-41
11
3
1
-4
-6
-69
20
27
-15
-19
-24
-19
-15
1
28
14
31
10
15
22
17
11
-51
11
-32
-10
-17
-25
-16
-69
8
-39
7
6
14
8
-16
14
33
18
-10
1
1
0
27
-59
-14
-25
-2
10
-7
7
18
-90
41
0
-6
-6
-12
-10
-14
-14
-17
40
-27
-9
-3
-2
-10
16
9
-19
16
8
7
-6
8
16
-3
-6
-7
-4
-4
-4
-7
91
18
-11
13
-3
10
3
7
-38
-35
-15
-27
4
-8
3
21
70
-33
11
22
-13
0
-11
0
-98
-11
-19
-15
20
-3
1
-11
40
-2
12
0
1
-1
7
-1
-47
31
-9
29
3
5
12
3
-29
-38
-55
-60
-1
7
4
-9
-7
7
24
21
6
-5
-6
6
-30
18
-30
1
-4
-7
10
5
11
-8
39
-28
-3
10
-28
-26
74
-17
-18
52
13
4
12
28
-79
8
48
-60
-13
0
-15
-23
19
28
-26
22
6
-18
-1
3
40
-17
-59
-14
-10
5
13
17
-94
-18
20
49
2
-6
-12
-11
58
23
35
-28
-6
0
-1
-26
15
-41
-3
22
4
7
-3
22
-12
21
9
14
-5
-8
8
-6
49
2
3
-47
-25
-11
-13
0
-33
-16
7
43
7
5
7
-2
-21
-44
36
-9
9
7
0
-11
18
-22
-8
43
0
-9
-20
-3
-21
35
47
-39
-9
-10
8
-6
48
20
-31
40
0
9
9
24
39
7
-3
-25
-4
4
-19
-21
2
-27
-9
13
-6
1
19
12
74
34
23
28
11
12
19
22
-38
-36
19
-58
-36
-23
-34
-31
-34
-26
-20
28
25
10
10
-13
36
20
-21
11
7
-3
5
24
-15
16
24
-3
-5
-6
-2
-27
100
-2
-67
-21
-5
-4
6
27
-66
-11
-40
-25
-14
-2
-3
-9
-33
-1
21
-18
-2
-9
-12
-6
-6
-8
-19
-2
0
-1
-1
-1
8
2
5
5
9
6
1
5
-52
1
16
-22
-10
-5
-4
-3
27
10
-36
15
12
2
-4
-6
-94
-36
7
-4
-5
-6
-3
-14
37
22
16
-3
-1
1
-7
10
-19
-4
-11
-7
-8
-3
13
-6
34
0
-18
-6
9
4
-3
10
-25
-9
-9
28
6
6
4
-18
25
1
23
-14
-4
-2
30
31
41
-4
-42
12
6
-9
-51
-35
-92
4
10
5
-10
2
-4
-15
50
-3
-9
-25
-1
-4
3
1
-6
-16
16
21
12
-1
4
2
38
-8
6
-9
-6
-1
7
16
-18
27
20
-48
-8
1
6
-12
46
-21
-57
34
-3
-8
-15
4
-29
-8
12
4
1
-3
-8
-9
25
8
5
15
3
3
1
11
30
-1
2
-30
-9
-3
2
-8
-44
16
9
-16
1
-2
14
4
90
2
10
2
-9
-7
-11
-3
-29
-6
-5
-15
-1
7
7
8
-18
1
23
33
0
-6
-14
-25
78
23
-17
7
1
-2
16
26
-96
-53
20
-20
-6
3
-25
-28
56
9
-34
14
3
2
16
20
-68
6
42
-7
-2
-6
5
7
-60
-9
-8
-6
0
3
-1
-8
116
30
-2
30
2
-3
-20
-4
-55
-12
-2
-42
-9
-1
7
-21
17
-22
0
5
1
0
6
2
-66
11
-5
12
0
6
-1
0
-31
10
9
-7
-8
3
6
4
-43
-3
20
10
13
6
-3
4
98
9
-28
24
-3
-11
-4
3
-63
-20
25
-32
-10
3
-1
-9
-18
12
-31
-27
-1
-2
-4
-1
6
1
-10
63
0
-11
12
23
-30
-20
16
-13
8
2
-12
-25
25
14
-9
3
0
-2
-13
-4
38
-2
-17
-11
0
5
7
1
-7
34
20
-5
-4
-2
4
6
12
-5
-26
7
0
7
10
20
-23
-12
30
-8
-1
-12
-11
-23
54
-13
-26
-9
-6
-16
-13
-11
7
18
4
1
1
7
-7
-3
9
-34
10
-5
-5
-4
6
-2
8
6
11
-17
-4
-3
5
-4
-15
10
24
-5
7
3
0
16
-38
-30
-82
-2
-13
-1
6
-21
-63
11
-4
17
-5
-11
-9
9
9
12
31
24
6
16
3
-2
-6
-6
-12
-17
-5
-6
2
6
17
13
41
-5
-5
-2
-4
-4
7
18
3
-36
-8
-2
-3
-1
-58
-23
-20
13
2
0
3
-4
-20
-4
8
10
5
4
1
7
29
-1
-11
-11
4
1
-2
6
-13
-8
-41
-1
-2
-8
9
4
17
12
13
-15
6
6
-5
-1
-23
0
10
-6
-1
2
-7
-11
35
-14
9
1
-6
2
4
22
-23
25
4
1
2
-1
2
-18
23
-3
-12
-4
-2
-10
-8
7
-42
-8
-7
-6
-2
8
18
-4
39
19
16
31
8
-11
-3
9
-17
-20
-10
-6
-5
10
-1
2
58
15
4
2
2
5
7
9
-64
0
5
10
-5
-8
-16
-14
45
6
20
-20
-8
-6
-2
8
-33
-17
-2
-57
0
-1
-2
-9
-2
3
3
33
-3
-6
-5
-6
-30
4
-15
11
2
-4
16
26
-5
-9
-6
-20
-10
7
-36
-41
64
1
24
46
9
1
-4
2
-55
-4
23
12
23
6
4
0
2
0
-50
5
-3
-7
5
-4
66
-3
-12
1
-7
-6
0
14
13
24
22
-10
-4
-1
-4
0
1
-20
12
-16
-10
-7
-7
-10
13
-5
-9
12
5
4
5
-4
10
-4
1
10
3
-4
13
23
-81
-11
-16
-13
-6
1
-5
-26
21
7
-7
17
-2
-3
6
1
-21
5
15
-6
4
9
-6
-14
8
-5
-10
-18
3
2
9
23
0
12
28
1
-1
-7
4
-12
4
-10
-35
-19
-9
-2
-17
13
-26
-5
13
5
-2
1
-9
-33
-30
-1
-6
-14
9
-1
-2
-9
50
-7
-7
33
0
-6
-2
15
2
3
-8
-6
-4
-1
2
2
8
-2
0
-41
-4
-1
7
3
0
10
3
40
4
8
5
-6
-16
-8
-7
-12
-5
-1
-1
14
38
-14
-6
-21
-6
-9
-13
-16
9
15
33
0
2
-6
2
1
-35
3
-4
44
8
-2
3
-12
32
-17
-45
-12
-5
7
4
13
-26
2
4
22
-4
-5
-1
-14
-11
-11
5
-1
-5
4
-4
1
-32
-8
-10
-15
-3
-12
-9
-2
20
16
25
20
7
9
-6
-2
-4
-4
16
-31
-8
0
-3
11
10
-4
-46
-12
5
-3
13
-3
19
-2
13
1
-11
-15
-13
-11
1
-7
-40
-19
-5
10
4
4
16
12
20
29
1
0
-13
4
-47
-1
0
-12
1
0
1
2
-15
-10
-2
-13
-1
1
6
-4
32
9
9
4
-2
-10
-5
-8
2
-17
-25
-6
-1
-2
5
-7
-1
7
15
7
2
-5
-11
0
10
-12
-53
-16
-10
1
13
7
23
0
18
-21
1
-8
-23
7
-53
-17
-9
2
1
0
10
-7
52
11
1
26
-10
-11
-8
4
-79
8
1
-13
7
14
7
-19
57
-9
-5
8
-4
-6
6
26
-40
-5
5
-28
-7
-3
-8
-28
25
6
16
23
0
-10
-12
-6
-23
-4
-20
-10
-4
14
9
-5
-16
-4
-27
7
-4
-3
2
8
7
0
7
-1
3
-8
-3
14
-61
-9
21
-18
-13
-5
3
0
-17
-7
27
16
4
8
-16
-14
12
21
13
17
4
-1
11
-4
20
14
-1
-17
7
3
-1
-3
12
-30
-16
-10
-4
-3
2
16
14
-4
-7
-34
-4
-4
4
4
-88
-11
13
7
-4
-3
-9
-12
25
13
7
1
2
4
5
3
-6
13
-7
41
5
9
-2
4
50
16
2
7
-2
-4
3
2
42
-7
0
8
1
2
11
-11
-14
-6
5
-3
-8
-7
4
16
-35
-7
-27
-7
-3
3
-10
-13
56
-17
-7
3
-5
-9
1
7
-15
12
46
0
2
7
-6
-17
9
10
-57
-5
0
10
5
15
-33
-26
-4
29
6
2
-2
-5
4
3
12
-15
2
-6
-4
-6
19
36
-3
-29
1
-3
6
7
-44
-21
29
27
3
-3
4
0
63
11
8
1
-1
0
-12
4
-106
-19
-2
-12
-1
3
5
-5
17
-20
-19
1
-2
-2
-6
7
83
31
8
-23
-6
-3
-3
-8
31
-13
-4
12
5
3
6
-1
-18
18
10
7
-7
-6
-11
-9
21
-15
-5
17
2
-1
15
16
-4
8
1
-11
-9
-12
-6
4
37
16
29
-9
5
14
4
3
-6
4
-17
-1
2
-1
1
-1
-50
-11
-9
-22
-9
1
-6
-1
-15
-6
-9
22
5
-2
0
8
-27
-12
24
-17
-11
-12
0
-16
-1
7
-11
6
-5
-3
-8
-1
7
9
21
17
5
-1
-2
-4
30
-3
-18
1
0
2
0
-2
-2
-8
-4
-10
0
-1
-4
4
9
10
17
10
-2
1
-5
6
5
-6
-7
-8
-6
-4
0
-12
-10
0
3
-5
5
12
0
-1
6
8
-7
4
6
2
10
6
6
-6
1
-13
-4
-1
-4
-4
-30
-7
-3
-4
-5
-7
-2
-3
-2
-4
-7
6
1
-5
2
-2
-6
8
-12
-15
0
7
1
2
6
0
7
7
0
3
-7
-3
1
-3
-13
1
2
5
-4
-3
-2
-3
5
2
-3
-3
3
0
0
1
-4
-9
-7
-13
-8
-1
-4
-3
5
5
0
-3
4
1
5
-2
11
9
3
-10
-13
-7
-7
-13
-37
-16
-5
11
9
-2
4
11
-2
0
3
5
15
4
-10
-16
3
-9
-7
-13
-27
-3
-3
4
-5
0
4
11
8
2
-1
-6
6
-1
-7
-21
-12
-2
-1
3
-13
0
-2
7
1
-9
-5
0
0
6
6
3
12
3
10
-6
-8
-6
-5
-22
-16
6
-13
5
12
-4
0
-8
1
-10
0
-15
-17
0
-2
11
-12
4
5
0
-25
-6
0
0
5
21
-1
9
32
19
6
-2
14
-14
11
15
-12
-2
10
37
17
21
5
2
3
-15
-3
4
-11
-18
-8
-16
12
3
1
13
12
-5
-13
0
0
0
-4
-3
-2
5
1
-2
1
-10
-10
-28
-32
-3
1
12
20
15
3
-10
7
4
8
7
10
1
0
-6
-6
3
0
-1
-10
-2
3
-9
-11
-2
-14
-9
25
12
6
12
8
-7
-10
-17
-27
-20
-14
-4
5
6
3
9
-26
8
-3
-2
-12
-9
0
-14
0
-11
0
-5
-6
3
2
7
-41
-6
-11
-25
-10
-2
1
-5
26
12
2
12
-8
4
-5
3
31
0
2
-8
7
-5
3
-5
-59
-35
-3
27
23
-2
6
-1
1
6
7
-5
-8
-6
-7
-12
-26
0
-13
-39
-10
12
1
-4
-5
0
7
49
21
0
-8
6
7
16
3
4
-9
-14
-2
-1
67
1
6
3
5
-2
1
7
28
1
2
-26
-8
-3
5
-17
-91
-49
2
4
-3
1
1
1
13
36
-2
16
6
8
-1
0
24
16
-1
4
-8
3
-2
23
69
10
1
7
10
-3
-2
-18
-24
-28
-14
-45
-51
2
1
-4
-21
1
6
-4
39
1
-10
-30
-59
-37
-12
27
2
-14
9
-11
-98
-1
5
6
-3
4
3
19
74
1
0
6
5
-4
-9
-6
0
-23
-24
-25
-18
-6
8
19
12
14
7
0
-1
9
-4
4
42
26
14
-16
-7
-11
-26
-40
-50
-59
-32
-3
-1
-14
-2
3
40
21
7
6
6
1
11
8
29
-8
5
-1
8
1
4
4
-4
4
4
10
-6
6
6
17
45
19
6
-14
8
-2
-8
6
120
14
-3
-6
-11
-3
-5
-17
-109
-28
-3
7
1
-3
-11
-9
38
-10
-20
2
5
-2
8
12
14
24
-2
-13
6
-2
11
8
17
12
9
26
2
9
-4
9
25
3
1
-8
-5
-4
4
6
-26
-20
2
3
5
0
-6
-3
-19
16
5
-10
5
-1
-2
1
31
8
-4
4
-11
-6
2
-13
-56
-12
-6
-19
-13
7
-7
9
-4
10
2
16
20
-16
-4
3
26
25
13
11
-7
-1
6
-12
-34
-38
-7
-14
-7
-7
-2
-5
37
22
-2
-3
-9
3
5
-2
-24
-28
-8
-6
-1
3
-1
6
-3
17
2
4
3
-2
-1
1
5
7
1
-5
-4
3
-4
-5
-38
-12
-2
1
-4
-2
2
7
47
9
2
2
4
-2
-4
-28
-36
-12
-6
-2
4
0
-1
2
8
7
3
4
-7
-4
-9
-2
6
-2
-8
-5
3
-6
0
-3
0
12
1
5
-11
1
0
6
-7
2
9
1
0
2
3
2
11
4
8
12
7
3
-4
4
45
13
-2
-4
4
-4
2
-10
-14
-23
-5
-1
-3
4
2
9
31
18
-7
-1
11
1
5
3
-24
6
10
2
-6
1
-5
1
-40
-19
-2
4
6
-3
0
-17
-23
-5
-3
-5
-5
2
0
11
18
3
-4
-3
-7
-6
-7
0
-45
-13
-6
-11
-4
1
-2
3
64
29
5
-1
0
-2
-1
-1
-24
-2
1
1
0
0
0
1
-8
-5
-4
-2
1
0
2
4
36
3
-2
-6
-10
-3
0
-3
-25
-1
1
23
6
2
-4
-1
8
3
6
1
-3
-2
-5
-1
27
2
-4
-3
3
-2
0
-3
-1
4
0
-5
-2
1
0
-6
-4
-10
-1
-1
-1
0
2
16
51
12
-1
-2
0
-5
-8
-31
-51
-12
-2
4
-5
-1
-1
-2
-48
-23
-10
-10
-3
0
4
5
48
16
9
0
3
1
-1
-5
-32
-17
-1
-4
-8
0
4
17
15
2
1
3
13
0
-3
-13
-13
5
-1
0
-1
-1
0
0
-4
-5
-4
-3
3
0
3
17
21
10
-2
0
-2
-1
-4
-14
-15
-9
3
-1
-6
-1
0
1
-3
5
0
-3
3
-3
2
2
-21
-11
-4
-5
1
2
-2
-14
-37
-6
-4
-3
-6
-3
-1
6
12
7
6
7
0
3
-1
-1
8
-9
-3
2
-3
-1
0
-1
5
-9
-5
-12
-1
-3
-2
-6
-9
3
0
-3
1
-3
2
8
4
5
5
3
-3
-1
-2
-2
-1
-9
-6
-2
1
-1
-2
-1
-13
1
-10
-6
-5
-1
-1
-5
0
4
7
-2
0
-1
3
10
19
14
6
4
0
0
-1
-2
-10
-4
-3
-2
-1
0
0
-5
12
-11
-9
-4
-3
-2
0
6
-11
-9
3
0
1
-2
0
3
3
14
5
0
0
1
3
2
-10
3
-2
1
0
1
-9
-2
6
4
3
-2
-2
-1
3
-3
6
-10
-3
1
2
-1
-1
0
-8
-4
-7
-4
-2
-4
-3
-6
-53
-25
-10
-7
-6
1
9
3
23
8
-3
1
0
0
-18
-3
-7
-2
4
0
1
2
13
0
13
12
1
2
-1
-1
7
0
1
-17
-6
3
1
0
-14
-5
-8
4
3
-1
0
-3
13
1
-1
22
8
2
0
-1
-9
0
1
0
-4
-4
-2
-1
-10
3
-8
-4
1
2
2
-1
5
3
14
-9
-3
1
-6
3
4
-4
-9
1
-1
-1
3
3
14
-4
-1
-1
-2
-2
-4
-3
26
5
1
1
-2
-5
0
-2
-30
-5
10
1
2
2
3
-2
-10
-2
-16
-6
-2
1
-1
-4
-12
-7
-6
-11
-7
-5
-2
-2
21
3
3
22
12
6
9
12
17
2
-10
8
6
0
-11
3
-29
2
4
-5
-6
-5
-4
-18
-53
-7
9
-17
-11
-6
-1
-7
24
3
-1
11
12
5
-1
3
-2
7
5
-7
2
1
6
7
-55
-11
-35
5
-15
-2
-3
9
25
-1
9
0
8
7
0
7
9
13
8
-30
-16
-20
-10
-8
59
-20
13
-14
3
-2
9
6
-59
-15
-9
-3
-1
-9
-36
-60
66
1
9
16
2
8
15
16
-6
11
11
-38
-22
0
-8
-24
65
29
-53
34
37
9
4
30
-6
-6
42
6
-27
-12
13
16
-39
13
-42
19
11
1
-1
-14
-66
0
12
-10
5
5
-3
22
30
-41
27
-35
-18
-11
-20
-3
47
20
5
-4
-18
14
18
-5
75
-38
-32
54
62
33
14
28
92
48
-5
-16
-7
-39
-8
-16
-84
13
9
5
-6
-4
-3
-8
-15
29
-23
1
6
10
-9
20
24
-3
87
-57
-41
-8
-4
-42
47
-12
-55
-5
17
32
24
-5
63
16
43
84
32
13
27
42
-3
1
-15
-53
-29
-37
-21
-27
-67
5
30
51
18
3
-11
11
17
-6
-31
-56
3
14
9
33
9
3
-27
-15
-17
-10
-13
-29
6
-3
22
21
3
6
4
23
-51
-33
-82
-25
14
8
10
4
-42
-11
50
43
-36
-75
-39
-53
-79
6
-52
-36
-22
25
-7
-16
127
27
21
-11
23
15
6
25
-25
2
10
-15
-27
2
12
-9
113
-5
6
-32
11
10
-6
9
-94
-40
-54
-4
1
6
20
7
-51
-1
28
36
-6
-1
19
5
-84
25
10
40
34
10
-16
-3
9
-46
-1
-29
-18
0
7
-5
121
-1
42
38
-8
-28
-27
-17
-82
-35
-32
-11
8
7
7
-9
112
37
-57
-45
0
-12
4
29
-128
-37
-23
43
34
42
15
8
-30
9
45
-40
-25
-21
-36
-31
80
0
-30
11
16
13
30
18
76
41
10
-2
-16
-33
-7
-21
-88
-6
16
22
1
-7
-15
-3
10
10
15
8
3
6
5
13
33
17
-13
7
-12
6
-10
-30
109
-27
-30
5
-18
-8
-8
48
45
-24
28
3
21
36
44
-31
-116
-17
49
47
-2
-17
-26
-30
52
-32
-77
-65
-25
-29
-31
13
-88
5
51
41
26
22
56
21
-61
39
18
-56
-25
-42
-77
-20
65
-11
-10
45
21
-1
36
24
-83
16
-52
-6
-9
11
-7
-34
-82
9
18
-75
-47
-17
0
-22
51
-9
13
58
7
-4
-13
12
27
0
28
-22
3
2
-5
-3
-55
-12
22
2
10
-4
-1
-9
8
4
-17
-77
-49
-1
-12
21
39
-9
20
63
13
6
21
16
9
16
-56
-42
-5
-25
-7
-5
13
-16
56
33
8
39
11
-24
-56
-39
9
-29
-13
-10
-15
-50
17
40
18
14
-6
-4
-7
19
87
7
-40
-15
-3
3
22
40
-77
-14
39
3
2
-22
-9
-1
-69
53
-34
20
7
23
-26
-4
-32
-33
-4
-1
20
7
23
-17
-27
-19
19
24
2
-3
-15
-31
39
3
12
4
-6
-31
-14
26
32
-41
61
77
33
13
20
15
6
41
-26
-50
-20
-1
-2
-3
-47
16
13
-68
16
7
5
-9
33
12
-4
64
20
7
12
7
-15
-51
-42
-5
-10
-21
-31
-17
-4
7
-12
30
-8
8
18
12
-55
-41
19
-67
-29
-22
-28
-3
-2
-33
30
-39
6
18
10
-14
7
43
-16
20
6
-5
-2
-1
74
-9
-17
15
-10
-6
-17
24
1
42
-17
-5
6
19
31
1
36
-50
-53
-17
4
3
-2
26
17
8
49
-64
-22
-18
-15
-46
-40
17
-11
17
11
9
26
20
51
-1
28
20
-11
6
-1
0
28
26
-18
24
24
0
-4
19
-55
-16
30
12
12
0
11
0
-4
3
7
-14
0
0
2
-11
-28
-24
-51
8
-16
-11
-17
9
63
45
50
13
6
-6
-4
-8
26
20
-35
3
7
21
12
5
-61
-16
16
-25
-10
-4
-8
-10
-52
32
-5
34
14
11
8
8
-43
-10
31
31
1
-7
1
9
107
-14
-41
-10
-16
-17
-24
9
-63
2
21
-37
-5
-1
-2
-19
22
39
5
-7
-2
0
13
-2
-99
-38
-8
-46
-21
-9
-25
-41
101
-11
-1
-71
1
-5
14
28
-25
16
-3
30
2
-1
-15
5
15
-26
-15
15
-6
2
11
-1
63
21
-37
-12
1
-1
-16
2
-23
13
29
31
7
16
7
-14
-22
5
-22
-37
-4
-6
3
8
12
27
26
23
-6
-7
1
-1
40
-9
-4
5
-2
-5
-2
-29
2
0
-4
-24
-1
1
1
35
-37
-24
35
50
18
4
19
-18
22
-12
-44
8
6
11
-18
-14
74
36
-22
-30
-21
-6
28
38
-91
-21
22
-12
-2
-4
-24
-46
78
-5
-21
37
11
-2
6
19
17
-19
12
-10
-1
-6
10
13
-20
3
-16
23
2
1
-31
-12
7
-2
-11
-2
-7
-13
11
24
-18
-10
0
-30
-12
0
-1
0
27
25
-6
-30
22
17
-3
-23
-12
-21
-2
47
7
-7
-5
2
-98
3
4
19
-10
-7
1
-22
44
3
-12
9
-5
1
2
24
28
-4
33
-58
-11
1
1
-15
-5
16
8
-39
-8
-9
0
10
26
4
-39
31
16
12
8
-6
-17
2
-7
13
0
-3
-18
-25
-22
8
42
-17
-13
3
5
14
60
-18
-52
12
6
-4
7
5
-67
-23
-7
9
-10
-7
-6
2
98
22
-4
-12
-2
1
10
12
-101
-23
20
18
1
-3
-6
-23
-56
0
26
-22
6
7
-2
-15
43
12
-22
-22
-9
-2
-1
20
66
-33
-3
19
11
3
8
8
-22
23
-17
-6
0
-2
-21
-10
49
4
4
72
19
3
20
42
-90
9
44
-2
1
-4
-17
-40
-59
-7
-12
-31
-13
-4
-9
-22
50
-14
-13
27
11
5
17
2
-74
-28
-39
-48
-12
3
-7
1
91
33
28
20
4
3
9
26
-20
-11
-31
-20
0
-12
-17
2
-50
-11
-15
9
-2
-11
-9
-29
-23
7
2
31
11
29
17
-5
82
-3
-2
2
-5
-2
8
23
-82
9
3
-19
20
5
-8
-14
63
-15
-20
14
-8
-9
0
24
-11
-1
23
-55
-12
-12
-7
-19
-51
-40
36
15
0
-2
-6
-27
55
30
-29
46
-4
-7
-12
28
-23
-19
6
-21
0
1
12
14
44
7
73
15
5
7
-16
-18
24
15
-80
-25
-14
-6
-1
2
19
11
-8
-21
-9
3
1
-25
-57
-11
-3
67
12
-1
-3
13
77
15
30
-7
-16
-8
21
19
-79
-23
11
43
6
-9
-18
-16
92
23
-14
-27
0
14
18
14
11
-2
-23
-7
7
5
-2
9
-57
12
26
-23
-19
-5
5
5
-88
-14
-5
48
37
14
7
-6
-91
-15
-18
13
-10
-3
-4
-27
71
22
-18
-2
-8
-16
-13
17
-1
18
6
-14
-3
-1
20
-1
53
13
-3
-27
-10
2
-26
10
-11
-24
31
-8
1
3
10
-3
-36
6
-18
15
5
18
19
-2
-5
-8
-18
24
14
12
-1
20
45
-13
12
-57
-11
-8
-2
-20
22
16
21
29
4
-12
-18
-17
22
-3
-8
10
-7
-8
20
-21
-41
-1
-25
-20
-1
-2
-20
-8
105
49
23
23
8
2
6
11
-65
-68
-20
1
-12
1
2
9
-15
6
22
-24
-2
-1
-8
-4
-76
-65
-13
10
9
-2
0
-22
58
40
2
20
0
-16
10
23
-8
-4
5
-26
-11
-6
-43
-1
93
9
19
-22
-10
29
33
10
-81
17
-47
-30
2
-7
-3
-35
-9
15
-9
22
6
2
8
1
61
11
20
22
-6
-20
1
9
-93
-19
-11
-8
3
16
-26
1
42
38
16
-9
-2
-5
-2
38
-73
-77
-28
-16
-6
-2
3
-32
13
45
42
12
4
3
-3
2
15
-48
-40
-40
-5
-33
-24
-22
48
42
31
27
3
13
13
-10
-14
-24
-27
1
-1
-2
-11
18
80
-11
-20
-1
0
10
12
7
-20
18
29
-20
-13
-13
-3
-4
13
9
-10
18
-2
-17
-10
-1
54
-10
22
-5
-4
13
1
14
-106
11
22
12
-2
1
8
-19
35
-12
-46
-25
-2
0
6
6
-20
-16
-14
-17
-6
-9
-7
-10
-11
7
6
24
-2
2
-1
-10
32
-4
6
-20
-3
0
-2
12
-72
21
41
31
15
5
-13
-9
66
-29
-20
-14
-16
-11
-3
2
-57
11
7
-15
-4
0
0
-9
-68
-6
-20
4
4
7
14
5
2
4
16
22
1
-17
5
2
3
-9
-2
9
5
17
-7
2
-8
2
-2
-10
3
3
-3
-1
7
-10
1
-17
-4
-1
0
-7
10
0
0
9
3
2
2
12
32
-5
1
5
3
-5
8
5
-24
3
11
-14
-4
1
0
-4
-19
-17
-8
-12
3
10
0
3
8
0
0
2
2
6
3
-1
-8
7
14
5
0
-4
-2
2
-2
-8
-7
-4
-3
-5
-3
-3
23
0
-10
-1
-1
-6
2
7
-26
2
2
-6
-4
-1
-10
-2
-23
-3
8
1
3
6
12
-7
32
3
-1
-6
1
-1
2
7
-15
-5
-8
-9
-1
1
-4
-1
13
8
-2
3
-1
2
-1
-1
-5
-3
10
1
1
-2
0
2
3
1
4
3
1
-9
-9
-4
9
-5
-4
-6
-2
3
10
1
-2
5
23
15
8
13
-3
2
-12
-5
-52
-9
2
-2
-3
-7
-5
-12
5
-7
-10
-8
-2
0
-1
10
25
2
-2
-6
-3
-3
7
-9
-18
-10
-4
-9
-9
-3
-19
-14
-4
3
-8
-7
-7
4
17
15
-10
7
9
36
24
-6
-8
-10
6
-12
-3
-15
-14
9
8
14
3
7
2
8
18
0
3
-8
11
-3
-1
0
-16
11
2
-6
-40
-16
-5
-27
-11
-4
-13
25
50
28
11
41
20
-14
-3
-19
-23
-14
-9
-6
-3
-7
-9
-13
-67
-16
-4
1
3
-5
11
1
47
7
-1
-13
-11
2
4
8
-13
-9
3
-16
-3
4
2
-3
-7
3
1
-2
-4
4
-21
11
94
29
6
28
1
-6
2
-5
-35
-9
-4
-29
-8
-6
6
-5
22
5
9
48
36
3
-16
-1
-43
-16
-9
-11
-3
-10
-3
-12
-15
-21
-1
-16
-1
3
-8
10
60
-18
-16
-7
-24
-3
13
11
22
28
5
-36
-13
2
-7
-31
-30
-8
-10
25
-1
7
1
10
0
5
6
9
6
1
2
9
23
10
3
-17
-7
-3
8
-1
-75
-21
-2
-6
0
-2
-1
-10
109
19
0
-22
-9
-6
0
-15
-73
-26
-4
11
34
9
-9
3
62
25
8
10
-23
-9
8
1
22
13
-8
3
-3
-4
-4
20
-76
30
13
8
-3
-10
7
11
4
-12
5
-10
0
4
3
-8
5
-6
-10
6
18
10
9
-27
15
-10
4
-26
-16
6
-5
8
-48
-17
-16
5
-8
-6
2
4
30
22
8
13
19
-9
3
15
-61
23
11
-3
7
11
-6
5
49
-6
0
19
6
6
-11
-21
-32
-50
-25
-29
-14
-7
11
39
82
24
12
2
-23
-3
-3
1
112
37
4
4
14
-4
-16
-40
-40
-57
-27
-42
-37
-2
12
21
93
25
14
53
48
13
-16
-6
11
-21
-11
-10
-2
-16
6
-13
-5
-9
1
15
2
5
-5
13
29
22
3
-4
14
-7
-5
0
-16
7
10
-4
-16
-1
12
12
0
-6
-10
-14
-6
-2
3
2
-37
1
1
9
0
1
-3
-17
-3
-8
-6
-2
-2
-3
-5
-26
-22
-8
-10
-20
-5
1
-2
1
16
28
6
6
-12
-3
-4
-8
-50
-46
-4
2
-1
-5
-2
13
-13
7
2
16
14
0
5
17
77
20
2
-5
-7
1
-2
-16
-34
-2
-3
-6
-2
-1
-2
0
-16
-5
1
-1
1
0
-6
4
-34
6
-4
-1
-2
-1
7
6
75
10
4
-2
-3
3
-4
-3
-17
-9
-8
-8
-5
-4
-9
-20
-32
-22
-7
-1
1
-3
5
0
9
1
-3
-2
-8
0
9
22
46
21
14
2
4
-1
-5
-4
-29
-9
-1
3
11
0
-6
-21
-35
-12
-3
9
-2
0
-1
17
-12
-4
0
4
-9
4
-1
-5
-30
-13
-11
-13
-7
-14
5
2
30
15
2
3
-4
3
2
7
-6
-2
-2
-9
12
-1
-6
-13
-58
-26
-1
0
-5
-3
0
-3
25
12
-2
-4
4
3
-1
-1
9
20
0
-4
-17
-1
1
9
-18
-7
0
7
7
0
-3
2
20
8
2
0
6
-3
-1
-11
-26
-20
1
4
-1
2
-2
-9
1
1
-3
-6
4
-5
1
5
17
0
3
-1
-7
3
0
11
-6
-3
-1
3
-1
-1
0
-9
-16
4
10
3
5
1
2
-8
-17
-23
-11
-6
-2
1
3
11
-13
5
0
1
-4
-2
-7
-13
-7
8
-9
-7
-6
-3
-1
5
-35
-5
-5
-7
-1
0
2
3
28
9
3
-9
-7
-1
-4
4
14
6
7
17
7
-1
2
-7
-1
-5
0
3
10
-1
1
4
-5
-3
-2
-2
-4
1
-1
-5
-16
-9
-4
-1
-4
1
-6
-3
0
5
-7
-15
-7
-2
0
-5
1
-3
0
0
0
1
-3
-8
-22
-9
1
6
2
1
0
7
9
7
6
-1
2
0
-3
-12
-4
-2
-6
-6
-5
-2
-1
-2
-3
-5
-6
-2
-3
-1
7
1
-16
-13
0
0
1
-1
7
0
3
10
4
3
2
-1
-18
1
-4
6
6
3
1
1
-6
-6
0
2
1
2
-1
-2
-11
-5
-11
-21
-10
-6
-3
-3
12
2
-24
-15
-12
-5
-3
2
5
-6
13
11
5
4
0
0
2
5
-3
2
1
0
1
2
-3
0
18
17
2
1
1
-1
5
-6
2
-4
-7
-2
-2
-1
6
2
2
-10
-7
-3
-1
-1
-27
-3
-3
2
5
1
-2
-1
-1
0
9
3
-3
-2
-1
-3
16
-1
-18
-6
-1
1
0
-2
5
-6
4
-7
-3
-3
-1
2
0
4
6
6
3
1
1
0
12
3
-9
1
-2
1
-1
1
-15
2
11
4
0
-2
0
0
-6
4
-1
-4
2
0
0
-6
-7
-7
-8
2
-1
-3
2
1
-21
2
4
3
1
0
-5
1
-12
-8
4
-8
-1
-2
-3
-5
8
-3
-1
0
1
-3
-2
-6
-2
7
0
1
-1
2
1
0
26
-2
-9
-2
-3
0
-1
2
-18
-4
-7
-7
9
5
2
4
-41
-8
-3
1
-2
-1
-1
-4
-19
6
9
-6
-7
-6
-8
-4
39
-1
-5
9
7
1
14
6
10
-9
1
-13
-10
-11
-9
-1
-3
-16
12
-19
-7
-11
-29
-32
-15
7
1
-12
3
-1
6
-7
-25
18
-11
26
-1
4
6
10
74
6
-2
4
10
8
14
18
21
1
-10
23
1
3
5
14
-31
-11
-10
5
2
-4
-6
-7
40
23
8
-21
-3
7
3
10
15
-23
-14
33
0
-3
-6
19
-96
-12
29
-57
-13
-23
-20
-61
65
34
41
17
7
12
9
-3
43
-20
-60
26
19
-5
-3
13
23
42
29
-8
-12
10
6
-3
127
-6
-28
-3
3
7
11
29
96
-7
-7
27
6
-22
-36
8
-128
-41
79
-11
-5
-3
-5
-30
-70
25
-19
-4
-7
-4
-10
-24
88
18
-81
-18
-9
13
-3
30
79
-29
-4
18
-5
-2
14
-5
-30
-50
16
10
3
-13
19
31
-75
-6
38
-14
2
-13
-23
-27
4
31
-27
12
-5
26
36
8
-94
-75
-29
-67
11
19
-20
-19
120
18
-28
1
-16
-18
-11
5
-74
-50
46
41
9
-3
10
-26
-10
46
9
14
-10
-20
-16
17
9
-19
-60
-52
-11
-6
20
4
25
0
11
7
0
8
-26
-9
-65
50
-49
28
12
14
26
17
-5
-31
-3
-27
-2
-20
-18
-3
-28
65
9
68
16
-16
-15
33
-120
13
17
-11
0
11
8
-59
127
-27
-43
-10
-12
1
3
9
-96
-67
36
-21
-6
-4
-6
-36
59
42
19
-12
-18
-11
-13
8
24
21
-32
6
-6
12
23
37
-11
9
49
-9
-3
2
13
-9
-101
-48
-54
36
40
27
15
8
71
16
27
42
5
-5
20
14
-29
-2
-16
-19
-12
-16
-55
-10
-38
-37
8
-41
-9
-4
2
-37
42
10
12
40
10
-7
11
27
41
73
26
-12
-9
1
2
0
-63
-71
9
11
6
26
27
-11
38
1
-39
12
12
19
-19
-11
-29
-1
19
-23
-20
-16
-7
6
-81
-52
-12
16
2
-15
-26
-33
33
33
20
29
-10
-11
17
7
0
5
11
-72
-9
-2
-16
2
-36
-4
21
71
10
7
3
0
-23
23
24
-2
0
16
9
6
48
-26
-32
-76
9
-5
-19
-10
127
89
-27
57
8
-18
15
59
-40
-27
3
-39
-19
-7
-9
-34
-84
-83
36
-37
-4
18
6
-27
25
12
-67
-11
-7
-11
5
31
29
18
-5
40
11
8
-12
-6
-11
29
-5
-31
-5
-2
12
19
-15
-81
-23
-17
-16
-11
-11
0
29
101
-10
14
1
2
-3
-18
-69
-107
-5
-35
-4
-11
-15
-15
57
13
41
1
-2
-10
-9
1
75
35
-34
15
6
19
29
26
-71
0
19
-32
-7
-10
-2
-3
-40
7
-7
-11
-11
-13
-21
3
39
34
20
-17
4
22
8
2
27
-3
-63
-32
-8
-6
0
0
-11
-33
10
-11
12
1
-4
-15
-29
5
13
12
-9
-16
2
-3
-25
-2
0
-1
-4
-8
-5
3
-19
15
29
-5
19
12
5
-7
-17
-5
20
38
-1
-3
4
9
-26
16
-4
-22
-4
-1
-2
-15
58
11
21
4
4
11
-12
-7
38
-12
1
1
-2
-10
10
18
-16
-39
30
6
7
1
0
-13
3
11
0
37
9
4
2
13
-6
-14
-37
-10
-12
-1
5
-6
-128
24
19
-1
-4
-7
-8
-22
84
-32
4
22
3
-3
-3
-4
52
26
16
-21
-11
5
12
24
-50
11
-6
16
5
-11
-1
-13
-17
-8
-24
10
-17
-17
-15
-10
-27
4
-5
-3
12
33
8
8
5
26
62
29
19
6
4
-16
-12
-39
-41
-16
-1
3
11
5
-58
13
6
-3
-3
-5
-10
-17
-49
15
23
-14
-20
-16
-13
-12
69
-31
-23
9
-1
-9
-6
17
65
34
56
1
5
7
8
15
-8
-22
-63
13
10
-2
-9
6
15
-1
-16
4
0
7
10
-3
-45
-34
-6
-16
-6
11
1
-18
26
32
13
29
0
-5
-1
8
40
23
7
-4
-1
-1
-3
1
25
-5
-22
-17
-5
-1
11
15
-26
-4
-11
10
3
-2
-9
-18
11
-9
-1
-13
-6
-3
4
-6
-12
-8
38
-26
1
7
3
11
-1
21
-69
0
8
15
5
4
21
-9
18
-13
-11
-2
-1
2
-13
0
-20
15
6
-5
-9
-6
-10
6
34
12
2
5
7
-2
29
9
3
8
1
-12
-14
-3
31
-3
-12
-8
-4
1
9
15
46
-28
-6
-19
-6
-9
5
2
10
-1
6
-15
7
7
-9
-3
-2
-6
0
17
-7
-8
-7
-5
19
12
-13
-14
1
3
-3
-15
10
-6
3
24
-1
2
7
24
32
22
37
-26
3
-3
10
12
-4
-4
-25
-10
-7
3
-8
-15
-36
1
0
7
2
-2
8
2
32
-5
-41
-13
-5
-4
-11
3
-67
6
-3
-14
1
8
3
-8
10
31
33
2
0
-9
-5
-7
-58
1
19
-3
3
-9
0
-2
-17
19
-3
12
7
17
12
-3
42
-61
-6
-10
-13
-3
5
13
-15
-16
14
8
0
-8
-8
-10
-34
-10
-56
-6
-12
-1
-6
6
17
16
32
0
-2
-6
-4
-12
26
48
-1
-1
-1
-3
-14
-2
-39
-19
7
-17
3
-2
8
-1
-51
-14
13
30
2
-9
-9
-1
0
14
4
14
-1
5
-1
8
-35
-1
-5
1
-5
17
19
-16
9
-6
-19
-16
3
1
2
4
50
-7
-15
-18
-2
-3
1
-2
-116
-14
-7
-6
4
-9
-17
-8
-6
10
-6
47
1
-5
2
4
68
26
28
-13
2
5
8
15
-7
-17
-4
-6
4
0
-3
0
30
-21
-12
0
5
4
7
-7
-15
1
-27
-11
-12
-5
-9
4
-102
0
34
-5
-7
-7
-8
-18
10
-32
12
2
-3
1
4
-1
12
54
-11
-6
-1
-1
-1
-3
10
-40
7
0
11
6
11
0
63
0
-23
-9
-12
-14
-7
7
0
-30
4
-8
-7
3
-5
-6
5
-5
-3
7
-2
-12
-16
-15
30
20
-19
5
7
21
10
1
-3
-8
27
-2
-11
0
15
21
60
6
-29
-14
1
-7
-4
-9
-30
-18
-6
2
19
-3
-2
-14
8
-3
2
42
-6
-19
-12
-5
55
17
18
28
-4
-2
-13
12
-77
18
-23
-28
-18
-1
17
-5
31
-62
-4
-71
-13
-9
-9
-15
67
17
30
65
33
14
1
20
-61
-21
-47
8
2
-10
-4
-17
48
25
-1
9
-3
-3
-13
16
-57
40
19
-7
-9
-3
13
10
25
-42
-7
-61
-19
-4
-16
-12
11
3
-4
5
14
4
2
-1
4
1
15
9
7
1
7
-10
-24
-10
1
14
-8
-11
-8
-3
28
36
-7
-1
1
0
12
12
-32
10
15
6
6
6
-2
0
-40
-1
-2
-10
-3
-1
-1
8
17
8
-1
37
3
5
-4
-4
18
-20
-18
-13
-12
-17
0
-4
-29
-3
10
-15
-5
2
-4
-18
33
-9
1
20
17
6
12
19
-14
4
26
-5
-2
4
-1
2
-44
-4
-50
17
1
-3
-3
-11
45
-10
-12
-21
-13
-7
-7
3
45
11
7
-1
2
-4
2
7
76
-4
1
19
11
7
9
12
-51
-20
39
-19
-2
-1
-9
-3
6
-9
-35
-2
-3
-1
-7
-17
-15
1
12
10
9
12
12
1
4
1
-11
-4
-2
0
-6
-1
23
1
-8
6
-8
-8
4
5
2
-15
7
3
-2
0
2
14
-89
-6
25
-9
2
3
-4
-20
23
-1
-16
-38
-8
-5
-3
-3
7
18
25
9
3
-8
-7
-3
-25
11
11
23
10
8
1
6
54
-14
-24
5
-5
-5
-1
11
-10
24
34
-4
-5
18
22
9
-59
-8
-18
-20
-6
-10
-11
-13
37
-5
-19
7
-5
-7
-9
0
0
21
22
11
5
-2
5
-2
-35
-15
10
12
10
6
-5
-6
-56
-16
-7
8
4
8
1
-3
-7
39
11
7
7
5
5
0
12
-4
4
-6
-10
-3
4
12
69
-2
0
-4
-9
-6
-11
2
13
0
17
-27
4
5
6
2
-55
-32
-34
-8
0
10
13
-14
19
2
-5
49
16
-4
-13
0
33
-1
-11
3
-7
-13
-10
2
40
8
-14
-9
-8
-1
-2
-7
0
9
27
7
0
6
7
5
29
-9
0
-14
-3
-1
11
-7
-19
-7
3
-1
-8
-3
-8
6
-3
-6
-16
4
1
-7
-5
-1
8
30
6
3
10
-3
13
4
-40
11
5
-16
-15
2
-20
-3
14
4
-6
20
18
11
10
-1
-18
30
-12
-8
-11
2
6
3
32
-34
-2
-19
-12
-9
-8
-16
-21
12
12
-15
7
-8
10
12
-81
-41
-10
-28
-10
-5
-17
-16
25
20
20
10
2
3
0
-6
-19
-16
-2
8
0
-8
0
7
33
-4
28
-29
-10
13
10
12
30
22
-19
7
11
2
16
22
24
-9
0
25
3
-7
-20
-31
-49
8
9
-17
-6
-10
-6
-10
-9
-26
-14
-27
-10
-5
-11
-20
-22
-8
4
5
-12
5
0
-1
-4
3
10
5
0
-1
22
29
39
12
5
-1
-1
0
-14
-2
-23
-5
14
-1
3
-6
-6
-8
23
0
-42
-3
-7
-4
3
0
36
-11
-17
7
5
1
3
20
-62
-19
-4
5
-8
-5
-11
-12
83
55
21
3
3
2
14
31
-57
-25
22
-3
-1
2
-5
-14
-37
-28
5
-10
-8
-2
3
-32
30
-3
-6
-2
6
5
-11
0
16
-19
-33
26
-2
-8
13
0
65
46
18
9
6
17
1
29
7
16
3
-14
-4
-6
-6
0
-30
-34
-10
-8
2
1
2
-11
0
-8
-22
1
-6
-9
-11
-8
-15
-3
8
2
-7
-8
0
-10
1
8
11
-1
-4
0
2
8
34
21
11
17
8
5
7
8
-33
-5
-9
-4
3
-3
-9
-3
-4
-10
-4
-5
-2
-2
3
-7
-25
3
8
4
4
6
-7
-3
22
0
-13
-5
-6
-2
5
5
-14
-1
-7
-7
-7
0
-8
-6
-23
-5
7
2
5
-8
-3
-8
4
-7
-11
-5
-5
-8
-4
2
21
7
12
8
4
2
2
4
-21
0
-2
-2
6
3
-3
-10
0
3
-7
2
-2
-5
3
-1
-13
-4
-3
-4
-6
-3
-2
2
7
-1
-19
-7
-6
-6
-4
3
-19
-4
-1
1
0
3
-3
-5
3
5
8
5
3
-4
-1
-2
3
1
10
1
7
3
2
0
-4
4
-13
-3
-4
-11
7
0
-4
-10
-15
-7
-5
1
-12
-4
1
2
24
-1
-3
13
-5
1
-6
-2
-13
-5
-2
1
1
-1
2
1
19
9
8
13
8
3
-12
1
-20
1
0
-9
2
-7
5
1
1
-1
2
-6
1
-1
-7
-10
-4
-3
-5
-9
-17
-1
0
11
21
-1
-1
13
6
-2
0
13
14
13
4
5
1
0
-8
-16
-26
-14
-3
-10
-12
-6
-3
-10
-14
-1
-8
-5
8
5
7
2
-3
-1
-1
-12
-11
13
-1
6
14
3
2
-2
-5
-5
5
5
13
3
3
-7
3
-4
-6
3
16
-5
-5
10
7
1
4
-6
-25
0
-4
-6
-16
-7
3
4
42
16
5
15
14
9
4
0
-12
-2
1
-6
3
1
-2
-6
-9
-9
7
1
-6
-7
-11
-12
-55
-20
-20
-23
-23
2
-5
-10
17
-1
-1
-8
-7
-8
5
18
20
5
-2
7
2
-2
0
-11
6
-1
0
8
1
3
9
12
8
7
9
-2
5
-1
-8
-13
-27
7
-8
-17
-25
-1
-2
17
14
-2
0
14
34
4
0
-10
-54
-7
-4
12
4
4
-10
-7
48
14
4
36
17
-3
1
-10
-52
-35
0
-5
7
-4
0
4
99
43
11
3
-6
-2
6
2
-52
-31
-6
-13
0
-5
-4
-6
-60
-6
-6
-18
-2
4
-8
-4
37
6
-1
-22
-21
-6
-4
-13
-72
-12
-15
22
-4
-4
-5
-8
1
-20
-5
3
9
0
7
11
32
10
-3
-18
-5
-1
-7
-9
15
-7
2
29
18
-1
0
-2
-44
-30
-6
-36
-11
4
-3
11
27
23
1
6
-3
-15
-6
-14
-27
-1
0
2
-1
2
1
12
25
17
0
-5
2
-2
0
-6
26
-4
6
3
0
4
5
9
-15
25
6
8
4
0
1
2
19
-5
3
4
-1
-2
-3
-11
-30
-7
-5
-19
-2
5
-6
6
98
22
5
17
-7
-3
4
-2
-71
-25
2
-3
1
7
-4
-5
7
-12
-13
-16
-2
1
-8
-17
-9
-11
-4
14
-4
-3
-7
6
0
15
0
-2
3
-1
6
-2
-2
-4
3
-13
-7
-2
3
4
62
19
3
5
7
2
-2
11
-52
-21
-5
0
0
-10
-10
-14
-3
12
-7
-3
-11
-2
-3
9
62
6
5
2
3
-2
2
-10
-24
-4
6
4
1
0
3
20
35
0
-4
-6
-3
3
-1
-8
-31
-13
-2
-4
-4
-2
0
-5
12
7
-2
-6
0
0
1
0
-26
-9
4
8
4
-2
0
-7
21
18
5
2
0
2
-2
1
-73
-29
-11
-16
-12
-3
1
4
66
9
-2
-1
12
-2
-2
2
-44
1
-3
5
0
4
6
-2
6
7
0
4
0
0
-1
0
-30
3
-3
-28
-12
0
-1
9
41
13
2
22
16
3
-2
-8
-30
-12
3
4
5
-7
2
12
11
0
9
8
4
3
-1
-4
22
11
-5
-11
-3
-2
0
-6
-21
2
-4
-10
-13
-3
3
16
58
16
7
6
8
-4
-3
-15
-32
-7
-5
0
-6
4
-1
-7
12
-4
-1
2
3
0
-3
0
-20
-8
-7
-8
-5
0
0
-3
12
-12
-4
-3
-4
-3
1
9
3
9
4
-2
0
-1
0
1
-10
-10
-5
-1
3
1
1
0
16
16
7
10
1
2
1
-1
-7
-19
-6
-13
-4
-1
-2
3
-18
-4
-5
6
2
-4
-2
-8
-28
-18
-7
5
7
1
-4
-2
1
12
-4
-6
-4
-2
-4
-8
-50
-10
-1
1
-14
-2
1
-1
11
14
1
-2
1
3
3
3
-7
0
0
0
0
0
-1
-10
-8
-18
-4
-6
-4
-2
-1
1
14
9
1
1
4
-1
-3
-2
-14
-17
-10
-6
-2
-2
1
0
8
5
2
5
0
0
1
4
-5
5
8
-1
-4
1
-1
-2
4
4
3
1
2
-2
-2
-3
-4
-7
-6
0
-1
0
-2
-5
-6
-7
-4
-3
1
-2
-2
4
6
5
-2
-4
-3
-1
-1
-4
5
6
1
2
-1
-1
0
4
0
-2
1
3
3
-1
0
3
5
2
3
2
0
-1
-2
-5
-15
10
0
-4
-4
-2
-2
2
28
0
-3
-1
-2
-1
4
-1
4
1
-1
-1
0
-2
-3
0
-4
-15
3
2
4
0
2
-3
-20
-2
1
-3
-3
-2
-5
1
14
3
-3
0
1
-2
8
-1
-1
-8
-3
0
1
-1
-20
2
-4
0
1
0
-3
-1
-3
-1
-15
-8
1
-2
-3
-1
6
-3
13
-1
-2
0
0
1
-9
-1
-9
3
-1
1
-1
0
7
-2
2
1
1
2
-1
1
-5
0
-4
2
-11
-5
1
3
18
4
-2
-2
7
1
0
0
5
-5
-3
-15
-3
-4
-4
-6
3
-14
3
-4
-4
-3
-2
-8
-19
6
10
6
4
-1
-3
-5
35
1
-5
-2
-6
-1
2
2
-9
10
11
4
-1
0
2
4
2
-4
-35
-5
9
3
1
3
2
1
5
3
3
4
0
1
-29
-12
-7
1
-4
-2
-1
-1
8
-2
-2
-1
1
-2
-4
4
1
0
-5
-3
-7
-3
-4
-2
-44
-6
6
-18
-4
0
4
-2
72
10
-7
16
5
4
-2
-2
-50
-3
-9
5
-8
3
0
4
1
-13
12
-6
5
-1
1
7
49
5
22
-6
1
-10
-19
-22
-5
-8
14
0
-3
-6
5
-5
14
-2
-3
6
6
0
-1
-4
-14
14
-3
-12
-5
0
6
-3
-34
7
-14
19
2
6
6
11
43
-4
4
1
-3
2
1
9
-11
-14
-17
-19
-4
-6
-10
-5
1
-11
-2
2
-3
-8
-9
-6
-42
17
4
-12
0
-5
-8
-4
32
-6
-6
-35
-29
-3
-2
-14
38
15
-30
56
59
25
20
33
0
-26
30
-9
1
-9
7
-3
28
-30
-29
-16
-14
-19
-21
-25
-49
22
31
9
-10
16
33
-1
-36
10
-20
16
-1
-7
-27
-18
39
64
47
39
0
-7
-8
24
-31
-41
-68
-17
31
23
-2
-10
51
11
9
-49
-38
-12
-7
21
-69
-36
6
15
-1
4
18
-19
45
-29
-3
35
23
1
10
-5
-43
11
28
11
-19
-21
-9
-12
44
-32
-20
-10
31
21
-11
9
22
-1
9
-3
-20
-2
18
18
-8
15
-10
-11
-8
-2
-13
-13
-19
-13
25
35
14
11
12
8
-91
30
-40
-25
-6
-39
-23
-4
52
43
62
-10
-19
12
-5
-14
72
-29
-2
14
10
20
27
43
-29
-30
14
-9
-15
-19
-10
-36
-72
-30
-41
36
18
14
-1
-22
47
18
3
-41
-30
1
6
14
-56
20
-35
-21
0
6
-4
0
127
20
27
48
12
9
16
44
-106
-31
62
6
7
-27
2
3
35
-9
-49
-29
-10
4
-29
-44
-38
6
38
-19
-3
15
5
-25
98
-39
-48
16
-13
-9
3
21
-30
27
58
34
14
-7
-17
-18
-4
-33
-12
-19
-8
-9
4
2
-103
-27
-20
-13
-19
-22
-15
-14
16
2
25
-9
-5
-27
-24
14
-54
-13
-13
-5
-6
30
25
-22
30
45
28
29
25
16
15
22
60
0
-24
-19
-3
-5
-11
17
-125
41
0
-28
-9
-14
-9
-42
91
22
-11
11
11
13
5
26
-20
-38
45
-20
-12
-25
-20
2
56
22
-23
29
16
16
14
-4
10
-12
-17
-81
-16
-2
-9
-3
-13
8
25
-24
-5
-9
-6
-35
44
-38
-28
40
-4
-12
-3
-11
80
12
-57
16
-7
-2
-6
39
-20
7
33
-11
12
11
18
-3
90
-39
-46
13
5
-2
-3
4
-68
39
53
-10
5
-2
7
3
-61
-39
-41
15
-1
2
-5
-12
-35
23
76
10
-8
2
4
0
39
-1
-76
15
-3
-6
-2
16
-70
-8
-1
-5
4
-11
16
-17
47
39
2
-6
1
16
-8
15
-71
-86
-37
5
-4
8
11
-5
-73
17
29
14
-2
-4
-9
-17
74
29
-3
-8
21
15
20
70
-128
-52
51
7
7
-17
-20
-49
113
56
-20
27
7
18
20
16
49
-37
-13
-39
2
-7
6
21
-93
3
-3
2
-10
2
-11
-43
10
14
28
-5
-11
-6
8
16
36
-10
-24
-33
1
9
-3
2
-59
22
-52
34
1
-3
0
-1
52
0
2
15
0
-3
-5
4
-26
24
26
-1
7
-9
4
0
-61
-9
8
-28
-12
-4
-7
-38
67
24
-6
1
9
11
2
10
38
-44
-9
-5
5
-4
-4
10
-100
-13
-3
-40
-5
2
3
-29
79
28
1
34
-7
-9
1
35
-62
-5
39
-7
-7
1
-15
-23
44
10
-32
8
13
6
6
12
25
14
17
-9
0
4
7
-4
-16
-17
-27
-6
-3
-7
11
-7
45
8
19
24
2
21
5
28
-16
15
35
-33
-16
-10
-17
-27
102
-15
-33
17
6
2
3
7
-67
31
3
5
7
-1
-5
-8
-56
-10
11
4
-6
-10
2
-7
-57
-7
-48
48
-4
-4
0
18
-53
-47
27
-41
-9
-8
-14
-18
-25
-6
-12
-9
14
6
-3
-6
6
36
-10
-12
0
0
5
-2
-107
-35
12
22
-1
0
-9
-18
11
-2
6
13
-4
-4
12
25
16
41
-24
-52
-18
0
-10
3
-48
-13
42
29
15
3
3
-10
112
16
-67
-17
9
10
1
14
-32
36
10
28
-21
-11
-10
-18
45
-8
17
-19
1
-2
-3
2
-35
2
2
-19
-2
-2
5
6
17
-26
-43
8
1
-17
-12
-1
-47
-28
10
4
1
19
20
-2
30
6
8
16
2
18
6
29
61
19
5
-25
0
7
-4
-23
-46
-13
20
-16
2
-9
6
-11
16
24
0
-16
-5
-8
-17
-5
0
-16
6
33
3
0
11
26
34
-14
-1
-24
-22
-15
-13
-5
-78
-11
-10
-10
-25
-7
11
4
86
43
3
54
24
9
-7
19
-40
4
-18
-33
1
0
-10
-14
-63
-25
-55
-12
1
-7
8
10
-8
6
41
-32
-18
-4
0
-22
90
51
50
-73
-33
-6
3
20
-97
-63
-25
71
29
7
-4
-23
-75
21
-11
0
-11
-21
-25
-18
-40
0
-4
-24
2
13
1
-5
0
-3
-5
-13
3
-12
1
14
93
47
11
8
4
30
32
2
30
-10
25
-16
-3
-4
-17
9
-16
-3
-23
20
2
-1
3
3
-22
-14
18
3
-1
-8
-20
-49
52
-6
-7
3
-11
-14
5
19
-68
13
16
21
11
11
20
-1
76
12
0
-26
-5
3
-13
-3
-33
-39
-13
56
25
3
5
4
-17
-7
-25
6
-7
-18
-11
-10
68
12
21
-42
-18
-4
12
10
-16
43
43
52
24
19
0
1
-2
-5
-35
-42
4
3
8
15
-77
-20
28
-26
-8
6
3
-19
15
1
-37
51
10
-7
-9
-2
29
-10
19
1
2
-5
1
2
4
1
-12
-8
-11
-3
-12
4
-35
9
16
35
15
3
19
10
-7
-2
-2
-15
5
-3
-24
-10
-16
0
30
-33
-20
-14
13
-8
-30
-27
-63
9
30
32
-2
-7
9
28
-3
-17
-20
-19
-5
17
-25
1
-3
1
0
4
6
-13
-1
-18
-28
23
1
0
3
3
-18
-8
17
4
-8
-17
-3
8
42
-5
3
-66
-21
10
-3
-33
14
0
-7
61
33
6
-2
14
-5
32
9
19
2
-7
-7
1
-64
-58
-14
-25
-18
-6
1
-11
38
0
-13
-4
2
-4
-19
7
41
9
13
-4
-14
-3
12
18
31
2
-11
-30
-1
0
-11
-15
-78
-19
10
28
-14
-8
15
-19
84
-5
7
-11
17
2
-10
33
0
19
30
-43
-23
-7
-11
-16
-41
-5
-4
17
8
1
4
2
44
46
-28
5
2
-10
4
8
15
-26
-35
12
-16
-6
-19
-15
-25
-29
10
-57
-6
-10
0
-2
35
-23
12
41
11
15
7
9
-9
16
-21
-5
1
12
11
-14
-18
10
9
-6
-6
-21
-19
-3
15
-1
-3
11
-11
2
0
7
81
-3
-6
6
-1
-3
-10
-4
-46
-35
22
-42
-5
-5
2
-4
-66
1
-29
19
-4
6
10
-4
19
29
14
34
20
7
1
6
-42
-4
-21
-39
-4
-13
-11
1
127
30
27
4
-15
9
7
34
-89
-1
28
18
24
5
-3
-36
-8
-15
-38
-11
-6
-1
-6
-13
-11
11
14
-20
-9
-7
16
13
-7
-2
10
-2
0
-8
-29
-11
17
26
4
0
-6
-3
-3
10
7
-1
6
-18
-9
-3
0
-5
98
-34
-41
0
9
-1
-12
3
-84
24
16
-2
-3
8
17
1
-3
8
20
21
0
-14
0
3
25
-69
-9
-10
0
28
8
-18
-13
34
30
-23
-8
-7
-14
9
10
13
-9
45
9
-7
-25
-33
-22
9
-11
18
-7
-8
26
11
80
-9
-29
-3
-1
7
12
32
-86
-18
30
-64
-26
-10
-12
-30
101
-5
-42
33
22
8
3
18
-24
-2
30
12
3
-1
-1
-1
88
18
-19
25
-10
-14
0
14
-63
-15
20
-61
-13
0
-6
-5
9
-11
-2
-27
-8
-3
-13
-19
41
-8
-27
-3
9
10
11
0
-24
32
24
19
5
-3
-5
9
-15
-23
-43
15
17
4
2
-11
-36
22
12
-10
-17
-11
9
26
-5
-26
28
-13
-2
18
-8
-15
-47
-25
-11
-21
7
-5
4
-20
54
23
-4
28
8
-2
5
19
13
-13
-8
-13
-22
-4
-10
-13
-39
-6
-3
2
16
-5
-6
4
-77
-34
34
-11
-8
1
7
-2
-51
16
7
30
7
-2
3
-22
73
-6
-54
37
14
2
-6
25
31
9
-14
-7
-14
-11
-7
-4
-43
16
48
13
-2
7
-2
5
52
-5
-3
-4
-2
-10
-5
-21
-24
-38
-6
12
-3
4
15
2
38
4
-6
-30
-1
10
7
-4
-66
-13
-24
26
13
1
1
1
-9
30
10
12
-10
0
8
10
-5
-6
-4
-10
4
-13
-19
-11
55
6
-4
17
-2
10
7
15
67
1
-7
-16
-3
-1
10
5
-11
-5
20
-20
-9
9
-17
5
-45
13
-21
9
5
3
13
-6
-1
-15
20
7
3
-4
-4
2
-17
-5
15
-2
-3
-16
-12
-8
44
-11
-32
7
5
5
6
8
-42
25
14
-11
-3
-5
-2
-17
-13
5
18
4
-8
-13
-11
2
18
0
-22
7
1
16
14
0
-79
-24
-4
-4
-6
-5
-1
-5
39
32
21
-4
3
6
9
18
9
-63
-1
-4
-7
-6
-6
-14
4
15
-5
0
0
-4
-12
-6
9
10
0
2
3
-3
5
8
-13
4
5
-2
0
-1
-3
-7
-20
17
-2
11
5
13
8
4
10
-11
-10
-8
-6
-5
-4
-1
5
1
16
2
0
5
1
-2
-8
-8
-4
-7
-6
-5
-2
-8
12
5
-20
-6
-8
-7
-5
2
2
1
12
-3
-6
-4
-1
-2
6
-1
0
-5
-3
1
0
0
-1
-9
-12
-7
2
-1
0
-2
-9
4
-17
9
-2
1
2
2
-4
10
-10
3
3
-3
-4
1
3
4
27
4
1
-5
-3
0
5
-12
-13
-8
2
3
15
-2
-2
11
-2
0
2
23
-3
1
-6
-1
-18
-9
-4
-4
1
-3
9
-5
-12
-2
-2
1
-2
2
0
0
15
3
-2
0
5
-1
-3
9
16
6
-1
-19
-10
2
-1
-1
26
6
2
-7
0
-5
3
-7
-36
-13
-4
3
16
-2
1
5
-14
-1
2
29
-9
5
-11
8
5
-6
0
-5
6
-1
-4
-7
-6
7
-1
-6
-11
7
-6
0
13
7
0
-29
-7
-5
10
4
21
-3
-1
4
-3
-3
4
-11
-41
-2
1
10
6
-3
6
12
24
5
4
-13
-3
1
-7
-15
-19
-12
-5
18
6
-1
-1
6
16
-7
-1
-14
-7
-2
-3
-5
-1
3
-6
-26
-20
-3
1
1
15
1
3
39
18
11
4
5
35
6
-1
-7
-5
-1
-9
-1
-30
-5
0
1
-3
-14
2
3
23
9
1
-7
5
3
0
-2
-13
1
3
-8
-9
-6
7
4
20
13
7
8
0
9
3
-8
-22
-21
-2
4
17
-4
-4
10
-40
6
-8
-6
-22
-4
-11
-23
-50
-26
-16
-17
-6
0
8
19
39
24
12
4
24
6
-7
-26
-15
-6
1
25
-7
-2
-2
15
55
8
3
0
-3
-4
6
9
26
26
5
9
-1
2
13
3
-43
-12
-1
-5
-8
-3
0
-3
2
7
0
-22
-1
-1
2
-8
15
-1
0
3
-1
2
-3
2
-12
-24
-5
-12
2
-4
-9
5
4
-2
-2
5
-4
-3
-4
-8
15
11
-5
-11
-8
-1
-1
-2
-28
-11
1
31
19
1
-1
-12
-72
-20
-8
-19
0
6
-12
-20
-4
-8
-14
-6
-26
-6
3
17
10
4
5
9
0
-2
3
1
24
1
5
-2
19
1
-4
2
54
17
-2
-10
-9
-10
3
9
-25
-1
3
11
-2
6
4
-7
15
-2
-4
-25
-14
4
5
1
-21
-7
1
16
10
3
-9
11
41
6
0
7
5
-10
-6
-19
-85
-27
-5
-6
1
-3
3
5
101
43
5
2
1
-5
-2
-7
-79
-53
-11
-14
-5
3
0
-2
-15
-7
-3
3
-9
2
4
8
48
30
4
-6
1
0
-5
3
-42
-7
1
6
-1
-1
0
1
31
10
3
-3
-3
-1
2
-3
-13
-14
2
5
-1
0
-6
6
34
10
-4
-3
0
-2
-1
-9
-60
-26
-9
-8
-4
1
-6
-3
41
-3
-3
-4
2
0
-1
1
2
21
7
3
0
-3
-3
-6
21
-10
-3
-15
-3
-2
-1
7
2
2
-2
4
-1
0
-3
-16
-31
6
3
8
12
-3
1
2
26
1
-5
-5
1
3
1
1
-11
-8
3
-1
-2
1
-1
-3
6
11
5
-2
2
-1
-1
8
39
9
-4
-17
-12
1
1
-3
-66
3
1
15
3
3
-4
-9
23
-3
0
20
5
-1
0
14
-3
3
1
-2
2
-2
2
-5
12
3
7
0
1
-1
1
-16
-28
-14
-2
-5
-2
4
-4
-1
-25
-3
-12
-12
-8
-4
0
2
20
17
1
4
-4
-1
2
4
1
-9
2
10
9
3
-5
-7
-28
-13
-8
-4
-16
2
7
-3
-29
-17
4
4
9
1
-3
-14
7
-7
-5
-2
3
-3
1
5
3
3
-1
-6
-8
-2
1
3
-7
-9
-1
-3
-2
-3
-4
-4
-6
8
-2
2
8
0
-3
-1
8
-9
-1
-4
-16
0
0
-1
-2
5
2
-1
-3
-2
0
4
14
-6
-2
1
9
-4
1
2
-6
5
1
0
-5
1
1
-1
4
-3
-1
-2
7
-1
-7
-4
-3
-1
-10
-13
-8
-4
-1
8
14
7
6
15
4
-1
-2
-3
8
4
-4
-8
0
0
2
-1
-26
-4
1
7
-2
-1
-1
-2
-51
-6
-2
-4
-1
0
-5
-7
83
-9
-6
-15
-7
-8
-4
8
-17
-5
2
6
1
-3
-3
-1
-4
12
-2
2
10
1
0
-1
10
8
-4
1
-3
-1
3
8
22
9
0
-1
-1
-3
2
-4
-11
-10
4
-2
-6
0
-5
-9
-5
-18
-5
-9
-2
-3
-1
1
1
0
-1
0
-7
-1
0
1
-3
3
5
7
7
1
-1
3
27
1
-4
-5
-7
0
-1
0
-6
4
-5
-5
3
-2
-2
-4
-2
-3
2
3
0
0
2
-3
-4
-7
-9
-7
-1
0
-1
-1
-2
-4
-3
-2
-4
-2
-1
-1
-3
25
15
6
4
1
0
-3
6
-12
-18
-4
-5
-1
-4
0
-14
0
10
2
-1
0
2
-2
20
9
4
5
1
1
-3
-4
-23
-7
-6
-4
-2
-2
3
3
-9
2
3
0
1
-1
-5
-12
-41
-16
-15
-7
-2
-3
3
10
9
-2
0
-1
-2
0
6
-1
13
-3
0
-1
2
0
-13
2
8
8
2
0
0
1
4
-1
-1
4
0
3
0
0
-17
-8
-16
-9
5
0
-2
0
33
-4
6
9
-5
-6
-3
-4
-2
4
-1
-9
-2
-2
0
1
-13
-4
2
3
0
1
0
1
6
3
2
16
3
1
-1
-5
0
-2
-1
-8
-1
0
0
-1
14
-6
0
-2
-2
-2
-2
-3
-1
9
8
-7
-4
-2
0
2
0
-1
-10
8
1
1
1
3
-3
-3
-7
-3
-1
-1
-2
2
-5
-1
5
-3
1
0
-1
-1
0
1
1
4
2
1
0
-1
3
-2
-2
-4
-1
0
-1
1
1
0
1
4
-1
-3
-1
-1
-23
-5
3
-2
-3
-2
-3
-5
3
0
9
-5
1
3
-1
-3
3
1
10
8
-2
-1
4
0
-18
-1
-17
-3
2
1
0
1
6
-1
-16
-7
1
1
-2
0
17
-5
2
15
4
-2
0
3
-19
-1
2
-4
-6
-5
-14
-8
-5
-2
16
-3
-2
1
6
-6
6
5
-5
0
4
2
0
2
20
-4
0
-6
-1
1
3
-3
-17
-3
-3
1
-4
-1
1
4
-20
-8
-13
6
-2
-5
-2
-1
-1
0
17
5
-3
-3
-7
-7
-22
-5
-5
4
4
2
-10
-8
-4
7
-4
-19
2
2
7
6
26
4
5
-6
-4
0
0
1
-30
-5
-1
2
-1
-3
1
-1
35
1
-5
-4
-7
-4
0
1
-34
1
2
2
9
2
1
-6
-52
0
-20
3
6
11
6
0
27
-9
12
-9
-14
-5
-2
12
15
9
19
38
24
-4
-4
4
50
12
0
-14
-5
1
8
-3
63
7
-11
2
-3
-3
-7
3
-44
10
2
25
8
7
11
-2
11
-3
40
4
-6
0
-1
11
-57
-10
-41
-25
-7
-6
-3
-15
27
2
-34
8
-10
6
-2
4
-12
-26
21
-12
7
-11
-10
10
-25
-7
3
-13
-5
-5
5
1
4
4
-55
-40
1
3
-1
2
-68
0
32
7
-9
-7
1
-1
84
21
-37
24
-10
5
-1
3
-2
-22
-19
-36
7
-9
-11
-18
-30
-2
40
50
-2
-3
-18
-6
93
18
-31
-76
-16
-3
9
38
-67
24
21
50
18
0
7
-24
32
17
17
15
0
1
17
7
67
10
-16
6
-12
-5
-14
0
-99
-32
-8
-20
-21
-5
-5
-17
49
-14
6
-16
7
3
-9
-4
-70
12
-12
-23
5
8
16
-6
60
12
42
49
16
-5
-8
20
20
-18
-10
-10
7
-10
-12
3
3
-10
5
-35
-14
-7
-4
-7
-12
8
-33
28
-8
-3
-10
-4
-26
-31
-31
-18
-9
-1
9
-11
49
-31
36
17
17
3
5
8
-37
-11
-28
11
11
9
-2
9
-78
39
32
7
-8
-10
-6
-11
-80
-13
3
0
-6
-4
0
-21
23
19
-6
-2
-4
1
-1
13
-51
-29
16
-22
-2
2
-4
-4
50
1
-23
-14
2
5
-3
33
-27
4
10
-7
1
15
29
-1
-14
31
-2
39
5
-2
-16
-26
-14
-6
-5
-8
3
-4
0
20
-72
-24
-14
-2
-8
-5
5
6
-8
-8
26
-27
-2
-8
-22
-14
66
14
-35
33
17
16
27
10
-21
16
-6
3
-9
-1
-4
-4
36
-16
-4
-24
3
-2
0
10
-52
-13
7
-20
-7
-4
-16
-19
-65
19
58
-3
-11
-12
-2
-23
10
14
-42
2
3
-5
-1
-1
1
-13
9
-11
-20
-15
-9
-30
43
-4
-7
10
6
27
24
28
48
29
5
-21
1
5
-20
7
-116
-21
33
9
-8
-7
-7
-32
63
16
-34
28
6
3
2
19
-5
4
6
-25
-7
-17
-11
-10
-56
-24
-9
3
-8
-7
7
-6
40
18
15
-37
-4
1
3
13
27
-14
9
41
7
2
-7
-9
-18
-4
-7
10
1
-7
-8
-4
-41
-19
-1
4
-3
1
5
0
92
33
19
-31
-13
-7
2
-3
0
18
-6
10
24
19
3
5
7
-8
-5
33
-3
-4
3
1
-59
-39
-8
-7
-7
-13
-19
-13
19
-8
12
7
-9
-2
4
-5
6
32
6
-30
2
7
6
17
-59
22
-5
1
-11
-9
3
-6
35
8
4
49
25
14
6
7
52
-38
1
7
-4
-7
-10
-10
66
-6
0
-6
-9
5
3
4
11
-27
11
-24
-3
-5
1
-6
3
21
6
6
6
-2
2
-12
-11
-23
-38
9
3
5
2
5
-60
16
9
-10
-11
-10
-13
-6
64
19
-1
-2
-8
-1
2
10
12
-13
6
-17
2
3
7
4
-27
19
2
26
7
7
2
0
-45
-29
-24
-17
-15
-12
-11
-2
27
11
-7
-7
7
1
1
4
-81
-10
1
0
-6
-4
-8
-16
-18
7
8
-3
-1
-7
4
3
-12
5
-3
11
5
9
3
-10
-22
-2
20
-6
-1
-2
-11
7
38
-4
-4
-12
-1
5
8
4
12
-2
10
0
-3
3
-6
6
-75
4
11
-14
2
-1
8
-11
26
-37
-15
34
7
7
6
6
51
-2
-9
2
2
0
-3
1
-31
-15
-9
-8
-7
-10
-2
1
39
-15
-15
3
-3
0
-16
-17
-77
36
27
-17
3
0
15
5
-3
13
-3
-7
0
-7
-1
-8
40
-9
-8
-14
-5
6
3
-9
-24
-34
-18
4
-7
1
-2
5
41
4
10
48
0
-4
0
14
-28
-4
11
-25
-9
-9
-4
-10
20
13
-43
14
22
6
2
-2
26
-19
35
-34
-13
-8
-7
2
-32
4
-28
48
9
4
-11
-9
-5
-28
29
-56
-31
-7
1
-3
29
3
0
25
10
4
6
3
3
25
9
-7
-4
-9
-8
-11
-1
-22
-7
-17
4
4
2
-6
46
-1
-31
9
1
12
11
10
-49
15
17
-41
-8
-3
-12
19
-1
-24
6
9
3
-7
-3
-4
47
26
-5
-27
-3
8
0
-14
-18
5
-4
19
10
-5
-6
0
-27
12
6
11
3
7
10
-5
-12
-14
-2
8
4
-5
-3
5
36
-18
5
-24
-12
-13
-10
-1
-27
48
7
1
-3
2
3
9
3
-2
4
-11
-2
-2
0
-8
-10
10
-6
15
2
3
3
-11
31
-10
-10
1
15
5
6
9
-39
1
6
18
24
4
1
-2
1
-22
-19
-3
-10
-11
-9
4
-18
13
-8
7
-9
2
3
-13
73
-3
-16
9
6
5
3
13
7
-18
9
-10
-2
-2
-6
-7
4
9
39
6
9
-3
-6
-8
27
-27
-16
-7
-2
-1
8
4
7
18
0
3
-5
-8
-16
-13
-8
-8
-10
13
10
8
12
30
11
5
21
-4
-9
-14
-5
-6
25
25
10
-9
2
18
13
-4
-71
3
-2
-13
-2
10
11
7
-28
-9
-7
-6
-11
-9
-15
-18
67
-13
-17
-4
-3
8
-2
19
-78
-25
-6
-7
9
-10
0
-15
11
20
17
3
-5
-6
-12
0
32
12
-3
-18
-14
-3
-3
-5
12
2
-31
32
16
5
8
5
7
0
11
14
-1
-3
1
12
34
0
-4
-16
6
5
5
2
-58
-7
-1
-8
-1
-5
-7
-13
-3
-5
-15
-18
-11
-5
-1
-3
2
2
12
9
1
-1
-8
5
-17
7
-7
9
-3
-6
4
0
25
2
-12
-9
2
0
-4
-2
-19
7
9
-16
-3
3
5
-6
93
-2
-6
10
1
4
-3
3
-25
-34
-21
-16
-10
-11
2
-2
59
2
17
24
12
5
6
20
-2
17
16
6
-8
-1
0
-16
12
18
4
9
11
5
3
4
-37
4
-1
-8
-4
2
0
4
-36
-11
-2
0
-5
-3
-3
-12
22
-26
-16
8
-3
-1
-3
0
-7
15
0
-23
-3
-4
2
13
-5
2
-11
3
1
-1
-4
-2
31
-3
16
0
2
-2
7
1
-22
11
10
-16
-5
3
-4
-6
-23
-16
-3
-26
-7
-4
-3
-8
13
8
-2
24
9
2
6
-7
10
3
5
16
-8
-9
-14
5
-32
-12
-1
-23
-2
-1
4
-2
-18
7
2
11
-3
1
0
1
46
-22
-11
1
-7
-6
-3
4
-4
4
0
-9
-3
0
-1
-4
-11
16
-7
3
0
2
4
-3
-11
8
4
-24
-7
0
-8
-4
6
-30
1
16
4
1
2
7
21
-8
-1
17
1
-1
1
-6
-21
1
4
5
1
-1
-12
4
-14
12
2
-6
-3
0
3
-2
46
-2
2
-6
-4
-5
-3
2
-109
-1
-20
-16
-2
2
2
-12
33
-12
-5
31
16
7
3
6
45
-15
-3
1
0
-7
7
12
-10
5
8
-3
-8
-3
-5
-6
-9
-3
-5
-21
-3
-1
7
-1
-4
36
1
-5
-6
-7
-8
-4
28
-38
-6
5
3
6
-10
-1
-25
7
-1
11
-5
-2
1
8
4
-2
-8
-5
-3
-1
-3
-16
-20
-6
11
0
0
-1
4
-1
77
10
-5
15
3
-4
-6
2
-74
22
21
-20
-6
-2
2
0
16
-46
-28
4
2
-3
-3
-3
-27
-9
-6
-4
-6
-9
-14
-8
20
3
-8
5
-7
4
9
21
-43
6
6
8
13
10
1
-17
7
14
11
3
5
1
3
1
-36
-26
-7
5
1
-3
-5
-3
-13
34
3
4
-6
-5
0
-5
43
-37
-15
-40
-17
-7
-9
-6
-12
-22
2
22
6
-2
12
13
12
16
12
-8
-3
0
-8
-3
-9
0
6
-22
2
-2
-3
-5
13
16
-4
10
2
1
6
-1
0
16
-10
-15
0
15
-11
-5
32
-15
-6
-20
-6
-5
21
16
-82
-31
-3
-11
-2
-1
-5
-21
-4
-6
-8
15
9
-2
-7
-1
30
9
16
-39
-9
-5
-2
-3
23
-2
-4
68
7
3
0
7
-17
17
5
8
-3
-1
1
4
-3
-35
-22
-15
-5
-2
3
-2
45
9
4
-5
-7
-7
-7
11
-27
8
1
-25
1
4
13
-11
15
9
20
6
1
-6
-16
-11
15
8
-8
-15
8
4
-3
9
-46
-3
0
7
0
-1
-5
-9
-65
1
-7
-9
-10
-11
-3
-1
-47
-22
-7
4
-2
2
2
-10
8
7
7
-6
-3
-6
6
-4
-4
8
1
29
5
3
-11
1
55
12
0
4
7
8
8
4
-8
2
-2
-23
-2
3
-2
-3
-9
-2
7
13
-5
-6
-9
-2
12
-2
2
0
2
1
9
1
4
-8
-6
2
-3
3
-4
-5
19
12
-2
-2
3
-3
1
1
8
-4
-10
-2
0
3
-2
-2
-11
-1
2
6
-3
-5
-2
1
2
-1
1
-16
-3
-3
-4
-3
-11
-5
-6
-5
-5
-4
2
3
-1
9
2
11
6
6
2
-3
1
-4
6
1
1
0
0
0
1
-3
-1
-14
-7
-1
-4
-1
5
-3
-4
5
3
-2
3
2
-2
4
4
10
-4
-6
-3
-1
6
3
-1
-3
-3
0
-2
-2
6
-13
-9
-3
3
6
1
1
-5
-2
-2
6
3
0
1
3
-3
-1
-4
-4
0
-4
-4
-3
0
10
38
-5
-5
2
4
-2
0
-8
-48
-10
-3
-5
-1
-2
-2
-6
-7
2
-5
-12
6
0
0
7
31
4
1
10
-11
-5
0
-3
-30
-12
-5
-7
-1
-1
2
7
5
14
4
3
-6
2
1
-5
13
-7
2
16
17
2
-3
-1
-15
4
-5
-15
-11
0
1
-1
16
8
5
5
1
4
-3
2
2
-7
-1
-6
-3
-12
-4
1
-11
2
-3
-15
-2
-1
12
3
-6
-7
1
6
-12
0
0
-2
-6
3
-1
-5
2
0
3
-1
17
1
-1
-5
5
-1
-2
7
-31
-6
2
16
1
0
-15
-28
-23
-11
-10
-32
13
-6
3
-11
-33
-21
-9
54
8
3
-1
5
44
5
4
7
0
2
8
12
25
10
2
4
1
-1
-6
6
-38
-6
7
-4
-3
-5
-4
10
15
10
-4
-32
-14
-1
-6
-10
16
-3
-11
-7
10
-6
1
1
-31
-15
-6
-2
-11
9
3
3
38
21
2
-4
2
-6
7
13
-4
-10
7
-3
2
-5
-14
-28
-65
-23
-15
-3
-21
1
2
7
53
19
-4
-21
-22
-5
0
-4
-55
-10
-2
28
30
7
-5
4
7
8
-4
-20
-9
-3
12
14
18
8
10
14
17
5
-3
-7
-16
-13
1
5
-20
3
4
12
73
23
4
-15
2
-8
2
-19
-23
-16
5
24
-4
-1
-7
1
-66
-37
-10
-5
8
2
-12
-16
42
42
-4
-9
-7
-6
-6
-19
-71
-63
-13
3
-4
7
12
9
65
36
10
-16
-3
13
13
10
-63
-29
7
0
1
-4
-9
-19
-63
-14
-5
10
10
-8
-6
1
29
14
2
-3
-13
-4
-8
-7
-17
-2
-9
-5
-12
-8
3
4
28
14
3
-10
-5
8
16
11
36
-5
17
26
33
6
-2
-20
-59
-38
-8
-1
-17
0
-5
19
54
52
3
-7
2
5
0
2
54
26
2
0
-7
-2
3
16
9
4
-1
-8
-4
-6
9
8
-10
0
9
6
9
7
-6
-18
-30
-16
-7
-3
-3
-6
1
4
28
10
1
-5
-2
0
-4
-1
24
13
3
0
3
1
2
10
-15
-10
1
0
-1
-3
-8
-5
-39
-14
-12
-12
-10
-8
-10
-16
16
4
-3
20
-3
-2
1
-13
-50
-28
-5
-6
5
-3
0
20
50
31
-6
-3
4
1
8
-4
-23
-5
3
4
7
-2
-2
-4
-4
-3
-1
-13
-11
-1
-1
2
1
-4
0
0
-6
1
0
2
16
17
3
9
5
-2
1
2
2
-9
3
-6
2
0
-2
-7
16
6
-3
-1
-4
-4
-3
-3
-39
-6
-3
-2
-3
-1
-2
6
8
15
1
2
-7
1
0
3
21
-18
0
3
4
1
2
6
6
10
2
-10
3
0
-4
0
21
9
-3
5
-5
-4
-5
-15
15
-3
-9
1
-1
-1
-3
-4
-9
-9
0
2
3
-2
4
3
5
-7
6
-2
-3
-1
-5
-2
-30
-4
-6
-11
2
-1
0
-7
14
9
0
-3
-5
-1
-4
-1
-36
-15
-5
8
6
-4
-1
0
1
-2
-3
-3
3
-2
1
-6
-11
0
0
-1
-5
1
-1
-3
37
5
2
-2
-1
-1
-1
-4
2
1
-1
-3
0
-2
2
8
32
9
4
2
-1
-2
-6
-4
-32
-11
-8
-6
-6
-1
4
2
-3
9
7
8
6
0
-5
-7
-26
-3
-10
-11
-4
-1
2
6
-60
-9
1
8
-5
2
2
-6
10
5
-1
1
-2
-2
-3
-10
-18
-18
-2
-4
5
-2
0
9
32
25
8
6
-5
-2
-3
-9
-27
-16
-7
-4
1
1
0
-8
27
1
1
-8
-4
-1
-3
-2
-57
-30
-15
-5
-3
-3
1
4
11
12
4
3
-1
1
1
1
-2
2
1
3
0
0
0
5
28
1
-1
-6
-2
0
4
6
18
7
6
2
9
-1
-6
-9
-9
-21
-12
-11
-4
-3
-2
-5
10
9
-1
4
-4
0
0
0
-9
0
5
2
-1
0
-2
4
-3
10
-1
-4
-4
-1
1
0
10
0
0
2
2
1
-2
-1
-1
-2
1
-2
-2
0
1
4
-2
0
-2
-4
-1
-1
0
7
28
6
4
2
0
-2
0
-7
-33
-8
-2
-4
-1
-1
-1
-1
5
-7
-11
-5
-2
-1
0
-3
-15
-10
-3
1
1
-2
-5
-2
-6
12
5
1
0
0
3
3
17
7
12
6
5
3
1
-2
-1
9
-1
-4
0
0
1
4
21
-6
-7
-2
-2
-1
-8
-18
-37
-15
-9
-2
-4
-3
-6
-4
4
0
2
0
1
-1
-2
-7
-9
-6
0
-1
0
-1
9
4
3
-8
-7
-1
0
2
-4
4
3
0
-2
1
0
3
20
1
3
11
4
3
1
3
-1
4
9
-5
-3
-2
-2
-3
-22
-9
-6
1
7
0
-5
-5
-6
0
4
-4
-2
0
0
-6
-5
-2
1
-6
-5
-3
-2
-3
11
3
2
3
1
2
2
2
11
5
-10
11
1
1
1
8
3
1
2
6
2
0
-2
3
-20
-8
2
-22
-3
-5
1
-5
2
-6
5
10
6
0
-6
-7
-6
-1
-2
-16
-7
-4
-4
-9
2
5
5
8
1
0
-1
-1
5
-1
-5
3
-3
1
1
3
-1
1
-1
-11
-3
-2
5
3
3
2
1
19
3
1
1
4
0
-2
-2
-11
0
-4
-12
-4
-20
-8
8
-16
-6
-4
-3
-7
16
-3
10
5
0
-1
-2
-2
1
4
-11
-6
-3
1
3
-3
7
4
-2
13
5
4
7
6
16
8
-6
1
-2
-1
0
6
-57
-6
8
7
10
3
-1
-9
40
-4
8
6
0
-3
-2
9
-46
-3
12
-13
-7
-9
-5
-15
50
-2
-14
-5
-1
-2
0
0
-35
11
4
-9
-3
-3
1
-6
-14
-7
-8
0
-2
3
-3
2
-9
5
-1
9
3
3
-2
2
-73
-5
-2
16
1
2
4
-2
55
-3
-6
-10
1
0
3
13
-15
-6
18
-6
-1
-6
-6
-13
22
-9
2
-21
-11
-9
-7
0
-9
-4
-1
20
3
5
9
11
69
19
12
-16
-7
-6
-11
-4
-38
7
-13
20
22
6
-5
1
5
-15
2
7
-4
-3
-1
-1
-30
-18
14
-9
-3
0
4
-19
-84
14
-47
-35
-17
-6
-3
4
95
-24
43
30
4
-4
6
6
-70
-8
-47
-13
-4
-2
-4
-13
21
33
26
19
-6
-1
-15
5
79
-4
23
55
25
7
4
24
-77
-17
-97
-22
-34
-9
-10
-21
91
-6
43
-71
11
14
20
15
-39
4
31
-14
-12
-8
-4
-23
60
13
10
22
2
-5
-1
-10
-54
19
24
4
-9
-7
-1
11
42
-2
-8
32
-6
-5
6
15
-54
-12
-25
-43
-2
4
-12
-21
51
47
-2
35
21
13
13
39
-31
-80
-9
-54
3
-12
-15
-18
-6
27
7
8
-12
-6
-12
-27
25
7
-26
-52
-22
-17
-6
-4
-12
-32
6
45
15
17
2
-3
-24
-24
-13
-2
-1
-3
15
7
-54
13
-8
19
9
7
-10
-4
0
2
-6
-38
-17
-7
-2
14
-54
6
1
30
7
-12
-3
-20
0
85
15
40
6
13
3
16
59
-63
11
9
-6
-17
1
-15
-10
-14
-12
18
7
-6
1
-9
17
16
-14
-21
-9
12
-11
24
41
18
52
-12
0
-8
15
18
-81
2
-24
-10
-4
0
-19
-42
127
-1
-43
48
28
35
19
50
-128
-58
24
-32
-13
-7
3
-37
34
57
-7
-13
0
4
-9
-19
97
-1
-10
16
3
-9
2
30
3
-3
16
60
6
-2
-1
16
17
1
19
-42
-14
-7
-5
-12
-36
-5
-40
13
-7
4
-5
12
-44
5
-5
23
4
1
13
-13
49
-2
27
-50
-18
-3
-8
-12
-104
-13
-49
11
27
7
13
-13
90
24
34
9
-1
2
8
11
-59
-4
3
-14
-3
-2
-23
6
87
-4
1
6
3
2
15
-5
-12
40
-4
-19
-23
-4
-6
-16
67
-17
-18
-10
2
2
2
-1
46
-1
18
12
15
4
2
19
-11
17
5
24
8
-3
-6
3
-71
-25
-18
-40
-15
-9
-3
-16
-15
-6
-25
26
11
9
9
11
10
24
21
-42
-9
6
9
13
-63
-23
-15
1
6
-15
-19
-38
79
19
8
28
4
-1
2
13
-37
-8
12
6
2
5
2
-3
31
10
4
-15
-17
-3
8
-5
59
1
-10
-7
-2
-10
-25
5
84
-26
15
5
-1
0
3
14
-47
-15
-8
-16
-1
-6
-10
-18
2
2
9
3
-8
3
4
4
-19
2
7
-33
-7
9
5
-2
61
-16
-12
17
-7
-9
-4
14
7
25
8
-17
-21
-12
-3
-3
-69
-34
-24
29
23
5
-10
-17
31
7
-1
5
-4
8
21
27
-44
-15
27
-37
-13
-11
-12
-12
-2
-29
10
-21
-2
-1
-4
-10
-25
18
-52
-5
-5
-3
0
-2
-44
-8
-9
42
11
1
-2
-4
99
16
4
9
-4
-1
15
10
-44
-9
27
-11
-2
-4
-20
-7
88
5
0
-9
7
11
11
14
-91
3
14
17
5
-3
-1
-8
48
-29
-13
-10
-7
-2
-2
-5
-2
6
-17
6
11
1
3
1
7
-5
4
9
-10
-1
-1
5
-3
17
13
12
14
8
1
7
-114
-16
9
-24
-4
-4
7
-8
3
24
-12
13
2
5
-5
-8
81
-6
16
-19
-7
-6
-9
11
-47
5
-12
11
-2
-6
-1
-10
-8
9
2
13
5
1
-4
-5
-19
6
5
-27
-6
0
6
-2
51
-17
-14
14
0
-4
1
-3
32
8
5
-36
-15
-13
-9
-4
-9
11
-6
0
2
1
-2
3
75
-21
-4
9
-8
-7
-6
2
-47
17
6
10
14
15
15
9
-18
-10
2
-10
1
16
9
-5
-35
4
3
-1
-1
0
-3
-9
36
-14
-10
9
4
0
-3
-2
-94
8
2
7
-6
-17
-3
5
15
-2
-2
8
2
-1
3
3
-24
16
5
2
0
0
-21
-4
11
-24
10
-9
-9
-6
10
2
17
5
-1
-7
4
8
3
-10
14
10
12
3
8
1
7
4
-51
-25
-34
-6
-4
-4
-6
-12
6
-5
2
-7
-11
-4
-4
7
7
22
14
22
5
1
-2
5
-11
-36
-18
-19
6
0
-3
-6
19
10
-6
-20
-9
-7
0
-3
47
-21
-39
38
4
4
-9
-6
34
-14
0
6
-3
-3
1
10
10
24
22
-6
-4
-8
-2
-15
-5
-25
3
9
6
-1
2
6
-41
9
-17
-28
-6
12
9
-8
-5
-11
2
-19
-8
-4
-10
-6
7
8
-23
18
-2
-16
-16
9
49
-16
2
-25
-3
3
16
14
-62
17
26
-1
3
1
3
-12
-19
-20
-12
4
-2
-2
2
-7
-26
-12
1
11
0
0
-2
-4
74
28
1
-37
-12
-10
-9
1
-79
-16
-1
61
15
0
1
6
-24
-6
9
-14
-5
-3
4
-7
-38
12
0
-7
-4
-6
-10
-2
13
-15
11
-24
-4
5
-11
2
-4
4
29
36
-1
5
8
0
12
14
7
-15
10
7
7
2
-54
-21
-16
27
-5
-4
-8
4
-21
-6
-21
2
-5
1
1
-5
11
10
-4
-28
-5
-6
-3
0
4
13
8
-3
-5
-4
-3
-6
38
2
7
-7
-1
5
4
9
-42
-9
-2
22
6
4
-3
-8
14
2
-3
-10
1
-1
4
6
12
10
-6
8
5
2
-7
-8
21
-24
2
-15
-2
1
4
4
-91
-7
5
14
3
3
-6
-2
50
8
-1
-24
-5
-10
-3
-6
-7
14
-1
-14
-8
-6
-3
4
-17
-8
-26
-10
-1
1
6
-8
37
10
-9
14
4
-2
0
8
-25
-8
-12
9
12
5
-3
0
-16
-3
14
2
-3
-3
-10
-4
23
3
-10
-14
-6
-5
-2
-4
-15
-22
6
-7
-9
-5
1
-2
-7
32
-1
-14
-4
-2
3
-7
36
-12
8
-9
-2
-2
-2
-1
21
-13
-17
15
12
6
1
5
-4
19
-2
12
6
4
8
0
-14
-13
-4
10
-2
-6
-7
7
-12
6
-12
-1
-6
-2
1
-3
-12
-18
12
17
-2
2
8
-1
11
4
5
-22
1
-2
-2
-2
-34
-12
-19
7
6
-2
-11
-9
53
4
1
1
-3
9
3
9
-1
8
18
-10
-9
-1
4
-1
35
-9
-11
6
-1
-2
-1
1
0
4
5
0
-6
-3
-1
-5
-44
-14
2
10
7
1
-2
-6
-4
31
13
-6
-2
0
6
2
-24
-8
-19
26
6
0
-6
-1
4
-13
5
-7
-5
-3
-16
-4
-5
9
-5
8
-1
-1
4
0
-68
-1
8
0
0
-3
-4
-9
54
12
15
-30
-9
-3
-1
5
37
-10
-35
-32
0
2
6
4
-31
-16
13
0
-6
-10
1
-8
-51
21
-15
1
5
6
-2
1
-12
10
12
2
-4
4
4
-1
23
-5
-6
-23
0
1
-4
-14
11
-14
-10
-12
-14
-4
-2
11
20
9
-1
3
8
1
-1
-4
-27
5
8
17
0
2
8
-6
26
6
28
4
4
-4
-5
8
-41
0
-35
-5
2
0
7
-11
70
-23
-11
-15
-10
0
-18
4
-10
0
5
-1
0
2
3
1
-17
-3
5
12
-3
2
9
3
0
17
8
2
1
-4
0
-6
0
-9
4
8
-7
-6
-8
-3
8
0
-11
11
6
3
12
10
-20
7
-2
17
4
3
-9
-17
16
5
9
1
5
2
-6
9
-77
8
-8
-19
0
7
18
10
-20
-8
11
-12
-14
-12
-10
-8
-5
-2
0
41
5
-1
6
5
21
1
-17
-3
13
5
-7
1
-44
10
24
-9
0
-1
0
-10
32
-16
-19
-24
-3
-7
-5
-1
-60
10
-5
-2
-12
-6
-13
-1
28
18
26
-4
0
16
17
11
34
-1
5
4
2
-3
0
-9
-54
-13
-28
0
0
-2
-1
-1
18
2
-2
-13
-2
-1
-4
-8
42
11
-9
3
-6
-3
-2
15
-68
-30
12
15
-5
-3
3
-14
78
25
25
48
11
5
3
8
-27
-19
3
-8
1
-5
-13
1
7
3
6
11
0
-1
4
-14
87
4
-12
-11
-13
-5
-5
12
-45
29
4
-17
0
1
18
-11
49
-31
-28
3
-1
-3
-14
11
-60
-40
-6
-6
-3
-4
-5
-3
57
14
10
15
-3
-6
-8
-8
-84
-15
-16
-32
-7
-7
-10
-12
46
7
14
21
5
5
11
2
68
-4
3
23
6
-1
-7
8
-14
8
14
-8
-9
-6
-2
-7
2
1
-22
-3
9
1
-13
-2
40
-11
-7
11
-1
-2
11
19
-24
-1
16
-2
6
3
-2
-12
38
22
-3
-7
1
1
3
8
-17
-18
-23
18
-6
-8
-5
4
29
-10
0
-23
-8
10
3
-7
-67
-5
-16
3
3
-1
1
-4
3
5
2
-19
1
0
0
4
6
-7
17
11
2
2
-5
-4
-39
37
-9
-11
-5
-7
7
-4
26
-11
-9
5
1
2
-9
10
-47
-18
0
-9
1
-3
-4
-13
53
-2
1
0
-2
-2
-5
1
-28
2
2
9
6
7
13
-2
-5
12
10
-14
-9
-2
1
-2
-18
-21
-27
-22
0
-8
-5
-3
49
3
6
9
-4
0
-3
8
-10
-9
10
-5
3
2
-5
-4
-29
1
-16
-9
-4
-9
-3
-8
34
-2
-9
4
-1
6
2
7
-15
12
15
2
0
0
1
-2
-4
-11
-5
-12
-8
-7
2
0
-27
-8
1
-3
-7
-9
-10
-6
9
9
-3
13
1
-7
-1
1
-10
-4
3
-2
5
19
4
-2
-10
1
6
-3
-1
-4
7
-5
14
4
-18
0
3
6
-14
3
0
-5
-2
-2
2
2
3
1
-11
-5
-10
-6
-5
-11
-5
-5
10
0
-1
-2
-3
1
0
2
-3
4
13
4
-1
-14
1
-3
-3
0
19
11
2
-2
-8
0
7
6
-3
-2
0
8
10
3
-6
-15
-35
-23
-9
-11
1
0
-11
2
15
0
-4
10
-6
-9
2
-5
-1
8
-2
-5
-9
1
16
13
48
22
4
-30
-23
-1
-1
-6
-18
-6
4
5
11
-5
-23
-12
-32
-22
-9
-1
17
-2
22
2
19
1
-3
15
12
5
-6
-4
-11
3
-3
1
-8
5
0
12
5
-1
13
55
26
-7
13
5
-26
6
-1
-11
-6
-4
1
7
1
6
4
-21
-4
-3
5
-12
40
-8
4
19
10
6
3
3
30
-8
-9
-22
-3
-3
-3
3
-25
24
-2
-11
-28
0
-10
-1
51
-10
-4
43
56
2
8
17
-48
9
5
2
-18
-3
-11
-19
-6
-4
-3
-3
-3
-1
-4
2
12
-4
6
0
8
-3
-4
15
53
22
6
-20
-33
-9
-5
-21
-39
-20
-7
-8
6
-3
3
4
30
-1
-8
-5
-2
6
5
-8
-30
3
1
-2
-13
2
-11
5
-5
16
5
5
5
1
-6
-14
21
4
-5
15
10
-7
-4
-13
-89
-44
-17
-35
-16
6
4
2
69
5
6
2
5
-5
4
11
-8
4
5
15
23
19
-9
-24
-54
-1
-5
15
-9
-15
9
7
43
58
14
0
2
-1
-7
-1
19
-19
-11
-19
-7
-7
-1
4
-32
-25
0
-4
-11
4
-17
2
-13
-11
-13
-15
-3
1
15
8
115
48
17
2
1
1
-8
-35
-125
-35
-6
29
6
5
-4
-10
116
2
-4
-16
-13
-6
11
12
32
15
-2
-42
20
2
-1
-8
-20
-32
15
76
1
5
-8
20
26
29
-5
3
15
-3
4
10
14
26
7
-1
-9
-6
1
-12
10
-15
-5
-12
-11
7
-13
-33
-85
-47
-18
-17
10
-15
9
14
108
36
16
-5
2
5
-5
-10
-119
-18
-13
1
-26
1
3
25
78
24
10
12
6
-2
2
5
-67
-24
-2
-12
2
15
-15
7
57
-7
2
6
15
-2
-6
-30
-34
-41
-20
-24
-22
-22
11
16
54
14
12
5
-2
-2
-10
-6
-30
-5
-6
-9
-11
2
-2
15
-25
0
-5
-29
-5
-6
4
5
7
22
11
43
36
9
-7
-13
-24
-16
-5
3
-13
-4
2
1
-37
-36
-8
-16
-24
0
14
6
28
13
6
0
17
15
-21
-18
33
-15
-11
-15
-20
-9
11
8
19
11
8
36
29
8
3
16
43
16
-2
-22
-11
-14
-3
-16
2
-6
-13
-8
-14
-5
0
-5
-52
-26
-5
-4
6
12
-2
-1
-19
5
5
0
-1
-7
-1
17
80
35
3
-7
-4
2
-1
-25
-61
-29
-4
10
5
-1
4
19
22
10
3
0
3
-2
-7
-23
-67
-18
-9
-24
-24
4
5
3
21
9
-2
8
8
6
-16
-5
-45
0
-3
11
-1
-14
-2
-14
-46
-3
-5
-19
-5
-4
0
-6
-55
-39
-5
-2
-8
2
-6
32
40
23
3
13
15
1
2
-19
38
-2
5
5
-2
10
10
-18
-28
0
-1
-12
-10
-13
-8
-8
-18
-1
-2
-1
10
-1
-4
3
24
7
-4
-5
-8
-5
2
17
13
0
0
1
-2
1
-6
0
33
16
1
-4
1
1
0
3
8
-10
-4
-3
-5
-2
3
-1
11
13
0
-18
-6
0
-10
-17
-47
-38
-10
11
11
-6
9
4
2
-1
-1
7
-5
1
5
8
16
11
-5
-9
2
6
-17
-8
-14
2
5
14
-3
-12
10
-6
11
4
0
-11
-4
10
-7
3
-31
-5
2
1
1
-9
1
5
17
4
-1
4
4
0
5
-5
-10
2
6
-9
-8
-4
5
12
8
-2
2
1
-3
0
-4
-38
-6
-13
-6
2
-1
4
0
15
20
12
-3
-3
-5
0
-5
-33
-25
-10
2
1
5
-3
3
19
-3
8
2
3
-2
-3
9
40
7
15
13
6
6
8
-7
-16
-7
-11
-5
-5
-4
-8
3
-1
-2
-4
-4
1
1
-1
2
5
27
16
-2
-1
-1
2
-1
6
15
9
0
-5
-3
-1
0
-2
-11
-14
-4
1
0
-3
4
18
7
4
2
4
3
-1
-3
-14
-21
-12
-2
-5
-6
-3
-3
-2
1
8
6
1
2
-1
-2
3
16
8
4
2
-1
-3
-6
-9
-17
-9
-4
-2
1
2
-1
5
12
-1
-4
-7
-6
-3
-3
-6
11
-7
-4
0
2
0
-1
-1
-13
-10
-2
1
2
-1
2
2
-3
12
2
-3
-2
1
6
-1
-2
9
-2
0
-3
0
-9
0
-4
-11
2
0
2
1
-1
3
17
8
-2
-2
0
0
-19
-4
-10
-23
-5
-1
-2
-4
5
2
7
-1
-5
-2
0
-2
-5
-1
1
16
2
-2
-2
2
15
0
-2
-8
6
3
6
1
-3
1
12
11
-2
-3
-5
-2
5
-4
-7
-4
0
0
-1
1
-10
1
4
-7
-8
-3
-2
-6
-6
-1
-22
-3
4
3
0
-1
12
3
-6
1
2
2
2
4
-6
2
24
9
3
1
-2
-1
12
-8
-22
-13
-9
-6
-4
2
-20
-5
14
1
-1
1
-1
-2
-6
-1
-4
1
-2
-1
0
-2
10
7
7
6
4
2
0
1
19
-4
9
-7
-2
-1
0
0
-8
-2
-2
5
3
1
-1
0
10
1
1
1
-3
-2
-2
0
-11
-5
-7
-2
-1
-2
0
-2
-8
-4
-6
-14
1
-2
-2
-2
-5
1
0
8
-2
-1
-8
-2
6
3
2
-2
0
0
1
1
-17
3
-5
-3
0
1
1
1
16
-5
-9
-6
-3
2
3
4
9
-5
0
6
-7
-5
-4
-3
-6
0
23
-4
-2
-5
-4
-6
12
2
-28
-21
-2
0
1
-3
-46
-5
1
-6
3
1
-1
2
31
-3
-14
10
-7
-3
1
-4
15
-6
7
7
-1
0
-1
3
-6
8
10
2
4
2
3
-2
-7
12
-10
-18
-6
-5
8
3
20
-15
5
18
13
7
-5
3
-28
-1
-24
-17
-9
-9
-8
-11
3
2
16
15
0
-2
-1
1
-16
-13
-9
-2
-7
-5
-3
-1
-31
13
-1
-3
-7
0
11
2
54
0
-19
-15
7
4
4
2
-75
-16
12
7
1
-2
-9
-3
81
7
-7
3
-7
-2
-1
4
-3
1
2
4
6
-2
-5
-9
-63
-7
1
-11
-9
-5
0
-4
66
13
-19
18
9
1
-1
3
51
-15
-35
-33
-14
6
1
13
-86
-6
25
13
8
2
2
-18
82
19
0
3
-9
1
10
13
5
26
22
25
12
2
-8
-4
1
-36
-21
-29
-3
-7
-1
-5
-27
11
61
8
-13
-4
-25
-18
-21
-4
-6
45
18
29
15
6
65
40
24
-10
-8
-6
13
11
7
25
-33
-11
0
-5
3
-11
-3
-54
-6
7
-9
-6
13
19
-10
-2
-4
-21
-2
-2
-14
-20
10
-54
13
5
1
5
4
11
-68
29
34
-6
-4
-5
-11
6
14
0
-16
56
24
2
10
3
2
5
10
-7
-5
2
-7
2
-4
-27
-38
-17
-6
-4
-2
1
-30
-7
33
10
1
-27
-22
-15
48
23
-50
-36
-10
31
0
13
-43
-16
22
5
8
4
9
-22
-20
31
-4
23
3
-2
-4
-10
-65
-46
4
-16
-9
-11
-11
-17
83
35
0
-32
-15
-11
5
11
-40
-12
-43
19
2
0
-2
-16
28
3
57
-10
-12
0
6
21
-84
5
-41
-6
6
7
15
1
11
9
-19
16
-8
-13
-21
-10
38
10
-32
-25
4
-8
0
5
12
14
-18
8
-5
-8
-10
-7
0
6
35
7
21
20
19
24
-92
-38
37
-32
-13
-15
-18
-32
75
10
-24
8
-8
1
10
19
-74
-11
-16
3
5
-7
13
-13
49
14
23
-1
2
35
-9
0
-18
-27
6
-13
-1
-9
7
9
-4
9
31
-3
4
-10
-8
6
70
42
5
-24
-10
1
-4
-13
-18
29
25
25
9
-3
6
-5
0
-25
-48
-10
-1
-9
-2
-10
-18
8
7
5
-6
-3
-7
-2
5
-6
-3
-21
-5
2
-1
7
28
-33
-21
-25
-2
0
4
2
52
48
-9
54
14
6
10
9
4
8
28
-12
-13
-15
-6
23
-13
17
-16
-32
-2
3
-2
-7
17
-30
10
40
14
-4
-10
-6
11
22
24
-13
-9
-4
3
-1
-22
-9
-10
4
2
1
3
-2
-19
-33
13
4
-1
10
5
0
-3
1
-22
5
-10
-6
-7
-8
0
-37
-18
-15
-4
-6
-3
3
-19
10
-2
-16
2
5
-5
-2
-1
10
5
29
5
-10
7
-3
110
11
-34
-1
-1
12
2
18
-55
-8
-14
-11
-2
5
-3
-11
44
5
20
-5
0
16
-8
-8
-6
-18
-27
-5
0
-3
3
15
7
10
12
10
17
1
7
5
73
12
18
-20
-1
-8
-1
-4
20
-45
-33
4
-18
-10
-3
-8
-54
21
7
17
10
7
-5
-11
55
-30
37
8
-16
-15
6
16
0
14
-46
-22
-1
1
-4
1
-33
-28
-18
0
-1
-4
-9
-7
13
-26
-2
10
-1
3
1
3
-35
40
15
16
-7
-2
-4
-9
51
-1
0
14
16
-3
3
5
-65
-30
31
7
-4
-1
0
0
15
-13
-16
-3
-2
-3
-1
3
-26
18
7
10
-4
2
2
-9
-33
0
-5
-15
-6
4
-2
3
-4
20
2
-4
5
-7
8
-3
52
-14
7
-15
-1
6
-17
-1
-59
-11
0
-8
-4
-15
9
-7
-12
-2
-19
0
-5
-2
-10
-8
27
29
-3
-1
-3
0
8
7
-30
-51
13
12
-1
-5
2
-10
89
46
21
-11
-6
-6
-14
15
-20
-22
-17
-4
-3
8
11
-1
-21
22
14
18
9
-3
-4
1
-33
4
-58
-38
-7
-5
-6
-10
-29
-22
-24
6
-3
3
2
-5
5
31
29
29
6
2
4
4
77
-43
-3
-9
-2
0
-1
8
-37
-16
3
-8
-1
4
3
-2
-14
-10
-1
-9
-4
-6
-7
-7
42
-6
5
-7
-1
-3
-4
6
-38
20
22
20
11
3
6
-8
18
12
-20
11
-2
-19
-8
7
-52
-2
7
-2
6
38
2
-19
-15
12
29
-21
-9
-1
11
1
-52
-13
-23
16
3
0
-3
-6
9
-5
16
11
2
-5
2
3
7
2
-45
-3
-8
-16
-10
-4
-3
-29
-11
6
3
1
-3
0
1
19
-2
-4
-4
-4
-5
11
-3
-12
20
-11
-8
2
-5
-13
30
23
16
-7
12
0
4
0
-19
-31
-21
-11
-5
-1
0
-3
10
24
7
-8
-6
-4
7
-2
9
-16
5
32
9
5
-5
17
-18
17
16
-1
3
2
-8
-19
-36
1
-9
25
8
0
-4
1
24
-9
-3
-19
-14
-7
2
-2
-21
-5
-22
-43
-1
6
-1
-9
-14
-2
-1
14
-2
-8
4
15
-23
12
19
9
5
-1
-3
2
-58
-23
17
-40
-1
3
-8
-30
6
5
-49
-17
-9
6
-1
-9
38
1
16
14
-1
-12
-2
14
20
54
15
12
2
-3
4
5
18
-38
-25
9
1
9
5
10
-18
15
25
-24
-8
-9
-2
-1
1
-16
-22
17
15
5
-4
-13
20
10
-7
2
-7
-5
2
6
28
-1
10
-6
-1
1
-9
11
6
5
12
5
-4
6
6
-15
27
-10
-14
22
2
-1
-3
4
7
-34
-23
-24
-5
-6
7
0
-28
6
-11
22
0
-11
-14
-14
66
15
15
-4
-10
-4
-5
11
-8
-5
-7
-19
-4
2
5
0
-8
20
-9
9
4
5
-4
-1
2
11
11
4
2
-4
0
9
-35
-2
-9
-9
-3
-15
1
-15
4
-14
-8
-6
0
12
1
-2
-20
10
15
9
-8
-2
1
-1
-43
3
-2
-13
3
6
-10
0
0
23
19
20
12
-12
-9
-9
-18
-22
-4
3
-10
3
-3
-1
-9
6
13
9
1
29
25
-1
75
15
-8
4
5
-7
-3
10
-7
-14
-24
13
-2
0
-1
20
-49
15
16
-24
-7
-12
-10
-17
17
-41
-15
17
3
-11
-13
-7
-10
13
-3
1
9
6
13
6
-26
-5
5
-11
1
4
8
9
34
-18
-19
-10
-9
-8
-10
1
-6
23
19
-15
-5
3
4
5
-22
-24
-3
-6
-9
-5
-7
-20
16
10
1
28
4
1
-6
2
49
0
8
-3
-1
0
16
7
17
14
-13
-16
5
-1
-21
0
-9
-43
3
-3
-11
-5
5
-2
22
-11
-11
-22
-9
-9
-11
-4
-23
1
7
4
-1
0
0
-7
-63
6
-1
2
11
2
3
-3
78
2
-7
-21
-3
-5
4
17
-78
25
19
7
-5
12
3
-9
21
-5
16
-3
9
1
4
2
5
0
-14
0
-8
-28
-5
-8
-23
13
-9
2
3
29
-2
-7
-19
-39
-7
-12
-3
-11
-3
4
-34
19
4
3
-3
18
9
-2
-27
-12
6
0
4
1
-4
-5
25
26
13
16
3
-7
-2
-1
5
0
-5
0
-1
-1
-10
-6
35
1
-20
-2
-15
-13
-13
6
25
3
-1
-1
11
2
30
10
30
-5
-1
0
-7
-5
-19
-5
-22
26
12
5
8
-1
5
-4
-114
-26
-48
5
-2
-1
-9
-24
35
-39
-10
-28
1
3
3
18
2
22
25
4
4
2
11
1
28
3
-21
-13
-7
1
8
8
-11
-2
7
15
3
-9
-15
-16
-3
14
-17
14
-5
5
-1
3
-1
13
14
-19
-12
-11
-6
-9
10
-38
-4
32
15
5
2
8
-3
4
14
-13
-2
0
12
8
-38
1
24
-9
-7
5
-18
-13
18
-5
-2
5
-9
-8
10
4
-65
-2
-9
-15
-6
-4
-10
-10
17
13
7
3
0
10
21
9
7
2
10
29
3
4
-4
-13
-40
-15
-5
-7
0
-3
-3
-6
68
25
-6
1
-5
-7
7
8
-65
-27
-9
9
4
-1
-8
4
33
3
35
-1
-1
-11
-12
-5
-23
-26
-33
-14
-1
14
8
-10
-25
9
-5
-36
6
14
19
10
43
-25
3
9
-6
-8
-8
6
-26
10
10
4
-7
1
-11
-8
-31
1
7
26
4
-10
-13
5
7
-26
15
15
5
-2
0
-23
0
14
6
-30
-4
4
6
10
16
-8
-15
-29
-8
-12
5
-2
27
8
11
26
-3
7
-4
13
-46
12
13
-45
-12
6
0
-8
-12
16
-2
36
15
-6
5
4
39
-22
-15
13
-4
-19
-35
-2
-38
20
13
-20
5
8
14
6
48
-6
-6
-2
-4
8
10
0
27
9
0
-18
-4
-2
7
-2
-56
-6
-15
-10
-7
-7
-5
-8
-14
0
0
7
0
0
1
-1
-29
-22
5
7
3
-9
-29
-6
67
-2
-3
8
2
-3
14
20
-41
14
0
-9
-6
0
2
-15
20
5
-3
1
3
-3
-3
-7
22
-4
-3
16
4
0
7
2
-18
12
-4
-6
-4
0
-11
-7
30
-4
-3
-1
5
11
10
7
3
-5
1
-7
1
1
1
0
0
-7
-8
1
-9
-14
-11
1
12
3
5
-3
1
7
-1
-8
10
3
6
2
5
6
5
6
-3
-2
-5
-2
-1
-2
2
-1
22
-1
-4
-1
-6
-7
-3
2
-6
1
8
-5
-7
-9
-14
-7
6
-4
-4
0
-1
3
5
4
-7
1
-2
4
1
-2
1
-3
13
6
-1
4
1
1
0
3
-5
0
5
-4
1
-1
-3
-3
3
3
-7
-2
0
5
7
0
10
-10
0
1
-2
-8
-4
-2
5
-1
-1
-3
0
2
0
2
-6
0
-1
-3
-3
-5
-6
-2
10
-2
0
-1
-1
1
3
0
1
5
7
3
0
-2
-1
-2
3
0
-1
7
2
2
5
2
-6
-6
-8
-6
-1
-4
-8
-2
5
1
5
-4
-3
-1
2
-2
1
-2
-4
-6
-3
-3
0
-1
2
2
-2
4
0
2
0
-2
3
0
0
-1
-3
-9
-7
-3
2
-2
4
3
5
10
1
2
-3
-11
-17
-7
-1
-1
-1
-2
3
9
0
0
-5
-2
-2
-1
-4
-8
-18
0
-1
2
0
0
1
-6
9
2
-3
-2
4
1
-3
1
11
-2
-2
-3
-3
-2
5
5
18
-1
0
-9
1
0
1
10
21
14
6
12
12
-1
-1
-2
-17
-3
3
1
-3
-3
-3
-11
-36
-6
-3
3
-9
-1
-2
-4
1
0
-1
0
-3
0
-3
3
3
-7
-3
-12
-4
-2
13
2
24
7
0
-5
5
0
1
2
9
-6
-2
8
3
1
2
2
-1
1
0
2
-4
-1
0
7
12
4
1
2
-3
0
-4
-14
7
0
-4
-6
5
-1
1
-1
-26
-2
4
-7
-9
2
-2
-3
-14
1
2
13
13
-2
2
9
19
6
-4
-8
8
2
-2
-4
-26
-6
1
18
-15
1
1
-1
15
9
3
-2
4
-2
0
-3
-12
-4
-4
-10
-4
-1
1
-1
-9
-14
1
5
-8
-2
-2
-2
34
14
-3
-11
2
-3
-2
4
-25
-21
-7
-4
2
-3
1
3
-27
7
0
4
-3
0
-10
-20
-28
-9
-12
-9
-7
-1
5
10
14
12
6
3
2
2
3
-1
37
5
2
-9
-6
-3
-7
-6
52
-12
-6
3
5
0
3
12
-3
4
4
10
8
-2
-1
-12
-124
-45
-3
-2
-5
4
-6
5
115
41
-5
-3
-6
-3
7
6
-9
3
7
-6
-2
-1
2
-5
18
7
3
9
3
0
-2
21
53
0
1
0
1
-5
4
-7
-43
-16
-2
-1
6
9
-9
-29
-66
-21
-13
-14
-9
1
4
21
62
29
11
-1
-8
-1
-4
-19
-52
-4
-5
9
9
-1
10
1
9
-1
5
-3
3
2
-4
3
8
6
-8
3
-12
-8
-3
-10
-13
-3
-5
-10
2
-1
-1
9
30
0
-1
-4
-7
-1
3
-4
25
12
17
16
9
0
-3
-4
-76
-47
-8
-8
3
2
9
-1
16
6
-5
-12
-31
11
-6
8
39
13
-6
-3
7
-21
4
2
7
16
1
22
15
1
7
11
18
10
14
4
1
1
-9
-10
-13
-15
-4
-1
3
-4
5
4
-14
0
-1
-18
-11
10
1
6
-45
-7
2
6
1
2
-16
-28
19
-17
-9
-4
-5
-7
7
1
-34
0
-1
-3
9
-2
4
9
63
26
4
9
-3
2
-10
-6
-74
-15
-15
-15
-8
-9
-3
3
40
14
0
-3
-2
4
-2
-4
-35
1
5
11
4
-1
-2
-6
10
-13
-2
-4
-1
0
-3
2
-34
-22
0
2
4
10
0
-6
32
8
-13
-16
-12
-11
-1
3
51
17
5
8
4
-5
-2
-2
-62
-21
1
13
9
-1
-3
7
-3
12
0
-6
-7
1
1
5
18
-4
-3
0
0
1
9
4
21
5
-1
-8
0
0
-11
-22
-45
-33
-14
-10
-10
-7
-4
2
13
3
-1
-5
1
-2
7
13
0
14
15
8
6
0
2
-8
-28
-16
-5
-5
-5
3
1
3
21
13
3
-3
0
-4
3
-3
23
-12
-6
-6
-6
-4
-3
-9
-45
-12
-5
0
-1
2
-6
-10
-45
-8
3
1
-4
-2
-1
-2
72
38
4
-4
6
-3
-8
-6
-53
-42
-4
13
2
6
13
12
22
17
8
5
2
1
-6
-4
-33
-21
-9
-5
-1
-3
-4
-6
-36
-19
-9
-12
2
0
-3
-3
41
14
3
-8
-10
-5
3
5
15
12
6
9
3
4
-4
-5
3
-12
-6
1
7
-4
4
9
13
7
0
1
1
1
-3
-8
-22
-2
0
3
0
2
1
11
35
8
4
3
2
0
-2
0
6
11
3
-3
-5
-5
-5
-11
-37
-10
-8
-4
-5
5
0
5
28
13
-1
-4
-2
-6
0
-4
-10
-12
0
-2
-1
-2
-3
4
-1
8
5
5
2
-2
3
-4
11
-9
4
2
-3
2
-3
1
9
9
-3
-8
1
-3
0
4
-9
-10
-2
2
2
1
-1
-3
12
-2
-7
-2
3
-1
-1
-1
-12
4
4
0
-7
-1
-3
-6
24
5
-4
-5
-3
-4
-1
1
10
12
1
-1
2
0
-3
1
-12
-22
-9
-2
-1
-1
2
3
19
15
8
3
1
1
-2
-3
-10
-18
-7
-6
-2
-3
-3
-5
-10
-6
-2
-3
-4
0
-1
-7
-10
0
-1
1
0
-3
0
1
-1
1
-2
-4
-1
0
4
4
3
4
5
1
1
2
0
-1
-14
-8
-2
0
-1
-1
-3
11
22
8
-1
-2
-3
-3
-3
-13
-36
-14
-7
-1
-2
2
-1
2
13
4
-4
-4
-2
-1
-2
1
-9
1
2
0
0
0
1
3
-2
-1
-1
1
1
2
-1
2
15
13
10
5
2
0
-2
-2
-13
-4
-2
-2
-2
-1
-3
0
10
-6
-9
-7
-5
-1
-1
-8
-12
-1
5
2
0
0
-3
0
6
-2
-7
-3
-2
0
-1
-4
-2
-3
-4
-3
-4
-3
5
3
-7
-4
1
1
1
0
3
2
-1
3
1
-2
0
-3
-12
-3
11
-7
-6
-1
-1
0
-6
-6
-16
10
13
3
1
-1
8
0
5
-5
-4
-1
-1
-3
-9
1
-2
-3
-5
-5
-3
-3
3
-1
-4
-3
3
1
2
0
-2
5
-2
4
-7
-2
0
-1
-3
-3
4
2
4
1
1
-2
6
-4
-14
1
-5
-2
-2
-1
-2
3
1
-4
0
-2
-1
3
5
0
7
1
1
-1
0
0
2
0
2
-4
-1
2
0
0
4
-5
-3
12
6
-1
-2
-4
-3
-3
-3
-8
-7
-2
-3
-7
3
0
0
1
2
2
0
0
-4
2
10
16
4
0
-1
1
4
0
-15
-8
-6
-2
-2
-2
3
-2
1
0
2
0
1
0
-2
-3
-4
-5
-6
-3
2
0
5
-1
-6
6
1
3
-3
3
-9
-2
9
1
0
-1
0
1
8
-3
4
0
2
-4
-3
-4
-12
3
3
-14
-7
-4
-3
-5
-18
-5
2
-7
-6
-2
0
-3
-15
-8
-2
-11
-2
4
3
-3
-9
5
-2
31
6
5
3
6
-19
-8
-14
-6
0
-2
-4
-2
3
2
2
-2
-3
-6
-4
-3
27
1
1
-6
-2
1
4
4
7
-1
4
-17
-2
-2
0
-5
-27
2
-3
-10
-4
-2
-3
-4
-21
-4
-2
19
11
5
-2
3
43
-3
-11
7
2
1
-1
-4
8
10
1
-15
-12
-5
-2
6
2
-7
3
21
6
-3
0
4
-21
3
5
-16
-3
-1
1
-11
-35
-1
-3
3
-4
-4
0
-6
80
-1
-22
-1
2
-1
1
9
17
1
21
-8
-10
-4
-5
0
-63
-2
-6
13
9
4
8
-1
-7
-9
6
13
2
3
7
3
-33
16
25
2
-3
-8
-27
-18
23
1
-3
-16
-3
0
4
1
9
5
-6
-21
-12
-3
-9
-5
31
-15
-51
14
4
6
16
6
10
14
20
-23
-13
-12
9
8
0
9
-2
39
31
15
-1
0
-19
-30
10
-25
-11
-3
-2
-10
-63
-2
2
-11
-14
-4
-5
-11
2
-14
-15
-6
3
1
-12
7
26
25
-16
3
0
2
7
15
32
16
2
10
8
-4
7
7
12
-15
6
-1
8
-4
-15
-7
-114
3
21
-8
-24
-2
4
-18
2
0
12
4
13
12
0
-1
53
-5
-10
-3
16
-6
-12
-4
21
-8
-4
-15
-17
-21
-4
10
22
11
5
4
-3
4
0
-2
-45
-37
-14
-22
1
5
-4
-16
-2
29
8
18
-9
-4
8
10
28
-8
-6
-3
3
2
-4
1
-22
-2
11
49
21
11
7
9
-36
-7
-23
-47
-14
3
-4
-17
55
19
-8
20
0
-3
-1
7
-19
-2
17
16
-6
0
4
-6
-52
0
-36
-7
8
-9
-13
-4
-14
8
32
-2
-4
-16
-6
-16
74
-15
-22
-4
-6
15
16
13
15
29
7
-1
7
11
5
17
3
-9
-38
-12
-11
0
-4
-12
-43
43
22
53
4
2
6
43
-47
-76
-11
-58
-3
-8
-12
-42
-31
12
18
2
4
5
1
-21
114
-4
24
0
-5
-2
11
12
69
13
-43
46
13
-3
-5
-16
-106
7
-53
29
0
4
3
19
72
-52
35
-27
-8
-3
0
27
2
-33
4
17
14
-5
-18
-25
36
12
10
-18
-21
-18
-13
-4
-13
61
-2
5
-6
25
8
-2
37
-21
-28
-15
-6
-16
-7
4
16
-24
-6
-12
-13
-3
4
-1
-13
-1
52
14
7
-19
-3
4
-7
-27
-9
-13
0
15
16
-11
34
12
-47
29
-2
-3
-22
8
-13
34
31
15
15
10
14
16
-77
-27
5
-15
-13
-1
-3
-8
103
10
18
12
-4
-15
6
14
-56
9
7
-12
5
8
-12
-16
-15
9
-1
4
9
14
17
-1
19
5
15
-25
-13
-5
-7
0
19
-5
12
17
18
-4
-12
-4
-25
11
-25
10
5
-2
7
0
-22
-25
-30
-7
-2
-4
-3
-1
9
16
-4
-13
-11
5
6
1
-49
-34
14
9
12
-8
-4
17
-86
8
21
-35
10
6
-1
-30
64
5
11
33
-1
-4
-5
-5
41
-10
-83
-19
-4
2
5
9
-33
13
14
4
-4
-11
-19
-6
67
1
10
17
1
-3
11
7
1
-4
-8
-11
3
17
10
-6
-39
-14
24
-5
1
-2
2
2
-36
-9
-16
-18
-13
-16
-6
-8
45
24
-19
17
3
5
-2
0
9
-9
-13
-27
-8
-11
-1
5
42
-20
-9
5
1
8
6
-4
-46
7
8
-11
-4
-4
-5
2
-48
27
41
32
1
-5
-7
-12
26
-13
-19
-36
-1
-7
-3
0
-21
-18
-3
-35
-14
-5
-8
-11
-2
9
12
44
20
1
-1
5
-8
9
10
4
4
14
10
13
-2
17
15
13
-5
1
-2
-20
-1
-29
0
-14
1
-1
-6
12
36
5
2
-22
-15
-7
4
-11
-49
3
8
-11
-13
-9
0
-7
66
-4
-31
24
13
5
-13
20
17
4
-14
20
3
-11
0
1
-15
0
4
3
2
19
8
-2
19
-6
-2
-17
-3
-8
-12
-2
-43
2
20
-13
-13
-8
7
-5
28
-1
-13
4
16
17
25
10
19
-11
13
-11
-4
-9
-11
-5
28
9
-11
-20
-10
-10
-2
5
-16
17
-21
-17
6
-2
0
2
-16
-42
20
4
-3
-7
-13
-10
58
18
-20
1
-4
4
12
6
62
-21
28
-37
-4
5
0
9
-71
-21
-12
2
0
-6
2
-10
0
19
7
36
0
0
-9
-12
-35
4
25
18
8
-3
-15
1
-1
1
-59
-41
-16
-2
6
-7
-20
-3
28
16
21
7
-4
7
46
32
10
3
1
-1
13
0
-44
-19
12
-10
-18
-11
-12
-7
-27
4
4
27
7
4
-1
-5
-22
7
-13
-17
-8
-6
7
2
-39
-45
-25
-1
2
2
-4
-1
-14
20
30
-18
-8
-1
-5
-3
-6
-21
-16
15
12
-8
-1
1
19
3
-1
-1
-2
12
13
-1
21
29
26
-18
-6
-3
-6
5
8
1
-38
-9
-6
-8
-2
20
44
6
-6
13
6
8
9
-32
-88
4
5
-15
-16
3
-8
-4
14
-4
-1
-17
9
9
-3
-5
-24
-16
1
18
-1
-3
3
-7
5
27
1
20
7
-3
-5
17
31
-13
-5
1
-11
-12
-11
11
-11
-6
1
-24
-13
0
4
-6
14
7
-5
16
22
10
15
-3
-45
-22
15
-8
-3
-5
-11
-7
84
16
-10
-6
-5
-5
2
10
-34
10
15
-17
-12
-9
0
-4
38
2
-29
10
3
-1
-11
3
-47
17
6
26
-7
0
0
-5
33
-18
-12
-42
2
-3
1
7
9
23
3
22
7
-2
-1
-2
16
-52
-20
-17
-1
5
-1
-2
-2
-25
-1
11
0
2
9
8
-69
15
26
9
-6
-7
-11
-14
-40
-31
-38
-12
-2
-5
-13
0
-34
48
67
-11
0
-16
-1
4
-5
-3
-27
3
10
35
24
4
-15
-15
-12
11
-8
-2
1
-8
67
-3
2
-6
-12
-13
-1
10
-28
-2
-7
3
15
8
-9
-8
-2
-14
15
4
-2
-7
-2
-3
21
30
29
15
0
-3
-7
-3
-17
2
-15
11
2
2
0
-5
28
-1
-14
-1
-12
-5
9
18
12
14
23
-7
0
-6
-4
-8
-15
-12
9
26
8
1
-4
-14
-2
-1
-26
8
-2
-5
-8
0
27
16
3
-11
-6
1
3
0
-57
-11
-1
-7
3
-5
-1
-4
-17
-37
16
23
9
7
5
3
-1
11
18
-19
-8
-9
-2
-3
-11
7
-17
11
-3
6
-7
-6
-13
-4
-11
-5
-7
-6
-4
6
37
6
-24
-14
-2
-3
11
19
21
10
26
-5
-2
-8
-19
3
-53
-26
-16
-43
2
10
10
-12
-2
18
14
18
-2
-13
-3
11
-6
4
-3
3
6
6
-6
-5
-5
2
-5
-3
3
9
7
4
12
-2
-7
8
-14
-10
-2
-4
15
-17
-19
-34
-5
-4
-10
0
37
16
-14
6
2
-2
0
3
-9
-7
12
0
5
4
10
-2
5
-9
11
6
0
2
-11
-8
12
6
8
5
-5
-2
8
6
9
14
-7
2
11
5
-1
2
-41
-3
13
-3
2
2
0
-9
41
5
-17
-32
-10
-7
1
4
-14
-42
-14
13
1
-2
-11
-9
-48
-16
-10
-20
-11
-5
-4
-7
29
12
23
17
1
1
1
6
15
23
31
4
2
-1
-1
-5
-16
-9
-44
-21
-2
4
8
-5
-82
4
10
7
-5
-3
-14
-16
6
6
-30
10
6
6
13
6
22
-28
-3
0
-3
-1
15
7
43
29
13
-1
-4
-10
-19
-2
-34
5
27
20
3
6
3
-5
22
-13
-15
-16
-7
-3
-2
3
-20
1
-8
19
1
-1
-2
-7
-28
11
6
6
4
4
3
2
49
-1
-1
19
5
3
10
10
-13
15
38
9
-2
-2
-20
-12
2
-2
-10
-32
-7
2
4
-3
-9
-14
-21
-6
0
-2
0
0
28
13
10
-13
-17
-10
-1
6
-18
-2
-13
6
0
1
0
3
33
-3
-7
6
3
4
2
7
12
-8
37
-3
-3
1
-5
-3
-43
-8
-26
-15
-3
-2
0
-6
50
-5
4
-13
-1
5
1
-1
-40
10
-17
9
-4
-3
-1
-1
7
-2
0
-17
10
0
7
0
-11
-3
-8
8
-1
1
-4
10
-76
-9
-2
6
-1
-5
-1
-20
74
-33
9
-3
3
-8
-8
9
7
14
25
-16
-13
1
-1
-1
21
-33
-34
-13
-1
-6
2
7
-27
-3
12
1
6
-1
-2
2
-21
-11
-31
-5
0
2
-3
-23
-9
-11
9
7
-18
-9
-9
-2
-2
0
21
19
10
2
9
-3
11
29
-2
13
-12
-6
-9
15
9
-9
-13
6
0
-3
-12
-7
39
18
13
-26
7
12
10
-2
-45
-11
-20
-18
-3
3
1
-3
-54
-13
-25
-5
-2
-8
-5
-10
31
10
18
-2
-14
-4
-1
3
-83
14
-8
31
13
2
4
9
92
9
-11
-12
-10
-5
-7
-5
-27
19
3
37
13
6
-4
-8
35
-9
-2
-7
0
1
6
10
10
-2
5
0
-7
-13
-3
-12
34
18
7
2
-6
-2
-8
6
-34
-23
-27
-14
-4
0
5
-17
-94
7
8
0
-2
11
0
16
9
-3
6
28
7
-1
-3
-3
-13
-16
2
-4
-2
-10
-2
-3
4
7
0
-12
-7
-6
3
2
-8
17
-10
4
6
3
-2
-11
-19
-31
-5
-21
-8
-8
-5
-2
-9
1
4
-20
2
-1
-6
-9
21
12
-6
18
4
6
6
12
-20
2
19
13
5
-4
-2
-5
0
-1
-13
8
-2
0
0
4
3
9
-12
-11
0
-9
-1
-9
26
-12
6
-18
-1
9
10
7
7
-1
-5
4
1
13
8
2
13
2
-5
-9
-1
4
-3
-4
-15
8
19
7
0
-1
-5
-2
27
-18
-10
-10
-3
-13
2
17
-7
-5
4
-8
-8
-9
-7
-22
4
3
4
5
1
1
1
-5
-4
-4
2
-1
-4
2
-3
1
14
1
8
-2
2
-2
-1
-2
-2
4
-3
8
5
0
1
3
2
-6
-10
0
0
0
3
2
2
1
7
1
-1
-5
-10
-1
7
-6
11
-7
1
20
13
-1
1
2
-6
0
-2
-7
-4
1
-1
-2
-3
0
-4
-4
-4
-3
2
1
11
-2
-2
-3
7
1
6
-1
-7
-4
-2
-10
-12
-5
-3
-1
-12
1
3
8
0
2
4
2
8
5
3
2
8
3
3
0
-8
-3
0
2
-1
0
3
-8
-16
-5
1
3
-3
-2
-3
2
22
6
-5
-2
0
1
-1
3
2
-4
-4
-8
-5
-1
0
-9
-14
-4
-1
1
1
-1
3
8
15
-5
0
-1
3
-4
-1
-8
-29
-8
-4
-8
-4
0
0
9
4
4
-2
6
-5
0
-4
-1
2
0
-3
-7
2
1
2
-14
-27
-1
-4
-19
-11
-3
5
5
-1
-6
6
37
10
0
-3
-4
-38
-12
-2
-13
-4
1
-11
-9
23
2
-3
21
10
-3
0
-5
-59
-21
-8
1
4
4
0
1
24
10
-2
-18
-10
-1
4
5
-13
7
9
7
3
-2
4
6
22
4
4
-4
-3
10
-2
-2
5
0
-2
1
-1
-3
2
2
-7
2
1
-7
2
-1
-1
0
43
-4
-5
-15
-3
1
0
-2
-12
9
-1
-5
-8
-3
-3
-4
11
-9
-3
18
-1
-3
2
9
-21
-2
1
-5
-2
1
-5
-11
-4
-17
0
17
23
-2
-1
-9
-91
-25
-7
-4
-1
3
-3
4
83
22
1
-10
-5
2
-4
0
-24
-5
-5
-10
-9
-3
0
-1
22
8
0
-2
0
-1
4
6
31
3
8
3
4
0
-1
7
-22
-1
-3
-5
-9
-8
0
-15
-24
-6
0
-5
1
1
2
5
51
29
3
5
-4
-2
-4
-5
-27
-28
-9
3
-3
-2
-3
0
-3
-3
3
-2
10
2
6
4
43
15
-1
-5
-18
8
13
12
22
12
7
21
7
-3
-6
0
29
-16
3
-3
10
-6
-5
-28
-90
-16
-8
1
1
-4
-2
11
7
29
3
-18
-11
-4
-5
-34
-39
-54
-31
-19
11
1
2
13
-3
16
-3
15
-3
2
2
3
59
15
9
0
0
0
1
11
76
14
6
-9
13
-1
-5
-10
-95
-21
1
17
-18
2
2
-3
29
19
10
7
1
-3
-3
0
26
-14
-6
-1
5
-1
6
-2
-37
-9
-2
1
-2
-2
-7
-16
-8
-18
-4
-8
-6
0
-1
1
8
6
-3
-7
-3
-1
4
2
4
21
7
1
-3
4
-3
15
-18
1
0
1
-4
-5
-6
-10
-19
0
-3
-19
-18
2
1
-5
-48
-32
-11
0
10
3
4
1
16
20
5
1
15
-5
-3
-4
13
-16
6
24
13
-3
-10
6
82
10
-9
-3
-6
-2
-3
4
19
16
0
-18
-14
0
10
10
11
-1
3
-4
-1
3
-4
-5
-16
-8
-8
-6
4
-1
-3
-7
-14
3
5
9
2
2
7
6
62
12
3
-1
1
1
-4
1
-13
-9
-4
-1
-4
-4
-3
-9
-9
-14
0
6
5
-1
3
13
-17
25
7
-3
-3
1
-2
-9
9
6
-3
-10
-5
-5
2
12
3
-2
-2
8
2
2
-6
-15
-6
4
-7
-8
-3
-2
5
6
2
-7
0
-4
4
-2
-2
-4
-15
1
6
5
-6
-1
-3
0
-1
-11
-2
-3
-5
-2
1
-4
3
9
-1
0
6
2
1
10
16
0
2
-4
-1
-1
-4
-6
-5
-5
-8
-6
0
-3
-2
-9
-33
-10
-6
-8
-18
0
-4
-8
14
-8
-9
-1
1
-1
2
4
0
5
7
8
5
2
-5
-4
-26
-11
-4
-1
-11
-3
0
7
3
4
-5
-5
-3
0
-1
-14
-30
-10
0
-4
0
-1
1
8
31
18
4
11
-3
-2
0
-3
-11
-14
-5
-4
2
-2
-5
1
-36
-1
-3
-1
-1
-1
-2
-12
-50
-1
5
1
0
-2
0
10
21
13
5
-4
-5
-1
-5
-7
-9
-25
-11
-7
-5
-2
2
3
26
11
0
5
6
0
-2
0
9
-10
-6
-2
-4
-2
1
-5
-32
-8
-9
-9
-3
-2
0
-2
-21
9
6
5
6
1
-2
-2
16
4
5
0
-2
1
-1
-1
-4
-4
-5
-5
-2
-1
-2
-5
-7
-3
0
4
-1
-1
2
4
12
2
-2
3
3
1
-4
-9
11
2
7
3
2
-1
2
15
17
7
6
0
-2
1
-4
-19
-55
-20
-9
-6
-2
-4
3
11
43
17
2
-1
1
0
-3
-2
-19
-12
-7
-3
-1
1
-3
-5
-7
-1
-8
-2
-5
-2
0
-1
5
-2
0
-2
0
0
3
6
11
6
4
3
3
-1
1
0
11
-5
-4
-5
-3
-3
0
2
12
15
3
4
0
-1
0
4
4
8
2
0
1
2
-3
-7
-17
-4
1
1
-1
0
1
-4
5
-7
1
0
-1
0
0
-5
-9
-5
-5
0
-1
-1
-2
0
-8
-3
-3
-1
-2
-1
3
-3
-4
4
1
-2
0
0
-3
1
-1
-7
-2
2
-1
-1
0
-1
2
4
1
2
1
-1
-7
0
7
-2
-1
0
-2
-1
1
-4
2
-9
1
-2
-3
-3
-4
-1
-1
4
-2
-2
-2
-2
11
-2
6
0
1
-1
1
-1
-4
4
5
-1
-2
-3
-1
1
9
-1
2
1
0
4
3
-1
-13
1
-26
-11
-1
-1
-2
-2
0
-3
11
5
-1
-4
-2
-1
-12
-7
-13
-15
-7
-6
-4
-3
4
2
5
12
3
2
2
3
10
5
10
-1
-1
0
0
2
-4
-2
-1
-1
-4
-2
-1
1
0
-2
9
10
13
1
0
-1
2
2
-6
-11
0
-3
-3
-4
-16
-2
-4
1
0
-1
2
2
8
-7
-1
1
-3
0
-4
-4
-5
0
2
0
-4
-1
-4
-4
18
2
-7
-5
-1
2
2
-1
4
1
3
11
3
1
3
1
-32
-3
6
1
-2
-2
2
-1
29
-1
-1
1
-1
-3
0
2
-9
-1
1
-6
-5
-5
-12
-4
19
2
6
-4
-2
0
0
-4
-5
0
1
1
1
6
2
-2
3
-11
-27
-11
-4
-6
-3
0
12
-5
4
-5
-5
-4
-3
-1
3
12
5
5
0
-2
-2
3
-28
-1
-2
5
5
8
9
2
-4
6
2
-3
-1
-1
-12
-7
40
7
-4
-9
-3
-3
1
8
2
-5
-3
2
-2
-1
1
-1
-78
-32
-11
-8
1
1
-3
-15
33
17
23
9
-5
-1
10
16
-15
9
1
7
4
5
4
-3
64
8
-8
22
5
0
-8
3
-25
-8
7
-18
-8
-6
-7
-14
2
-6
-25
-2
-1
4
4
5
51
14
9
1
-2
-4
4
8
-75
-26
0
-10
-9
-1
-1
5
6
21
-4
9
20
8
0
0
29
8
-31
-7
-5
3
13
-2
-101
-24
38
22
-12
-22
-30
-25
88
6
1
2
1
5
1
18
-55
6
26
-26
-18
-3
10
-16
34
8
-56
12
33
5
9
30
-45
4
-16
6
-19
-5
1
-22
40
-17
-21
8
23
27
-4
-8
67
-28
14
0
-13
-13
-7
34
14
51
41
-8
-8
-16
-1
-18
-52
-20
-18
21
4
-5
2
-6
-38
-17
-13
-19
-14
-4
-7
-1
12
40
4
2
5
0
-2
-17
-19
-25
-4
25
9
7
-1
6
18
10
6
-6
22
3
6
22
-45
17
12
-23
-21
-8
3
-16
60
-60
-47
4
-6
-3
-2
4
-70
3
64
-23
-19
-17
-17
-20
71
22
-13
7
13
12
-4
1
-18
-11
-26
-15
-6
1
3
-6
-11
34
1
27
10
0
5
19
-29
-6
-15
14
-9
-11
-18
-17
94
24
16
-18
-8
7
16
30
-30
-16
14
-17
-7
-11
-18
-29
17
27
10
-29
-6
4
9
-6
-32
-13
12
-3
8
6
6
15
46
-30
-37
9
-2
5
2
0
93
6
-12
17
-20
-22
-11
36
-41
5
4
-26
12
-1
-15
-41
20
-27
17
13
2
4
-7
-4
56
29
-15
-11
-14
-2
11
26
-51
1
40
0
12
-9
11
-5
25
1
11
10
-6
-1
-9
3
-6
28
8
-7
-4
2
8
-3
-62
-41
-15
-6
-4
3
-11
-3
-36
-3
-2
-34
14
1
2
-11
22
12
2
57
13
9
1
10
36
-20
4
17
4
-3
15
-3
-27
18
29
-42
-10
2
8
27
70
3
-19
-30
-10
-6
-9
-15
-30
-49
9
8
0
-1
-3
-10
-35
-6
-4
-21
-3
-4
-23
-13
25
-7
22
31
9
2
0
-4
-24
9
-26
12
5
-2
8
3
22
-1
-21
-7
-7
-3
-1
15
-34
5
-6
-3
-3
6
11
-19
4
-4
-1
-49
-13
4
-11
-1
-18
-12
4
46
21
7
1
18
-73
-22
-16
26
3
-8
-2
-13
83
30
36
-8
-12
-2
-1
3
-40
3
-9
-21
-4
-4
-6
-36
84
26
3
37
12
3
4
22
-11
-36
-9
-22
-8
-6
-3
1
-9
22
38
-35
4
7
8
9
-59
-38
-2
22
5
-6
-7
-16
-17
32
-9
12
-13
0
-2
-1
38
34
-34
-4
3
-7
-2
15
-35
-14
21
-13
-5
0
2
-14
6
-32
-3
0
3
-9
-13
-13
-71
-19
-3
1
-1
5
19
2
89
13
20
-9
-6
8
-6
-6
1
-4
-34
26
5
4
7
23
-44
32
10
-8
-4
-5
-2
-15
-1
-38
9
-6
5
2
16
-6
38
13
-13
6
0
-2
-1
13
-71
-17
-23
-14
-5
-2
-13
-8
37
-1
3
47
7
2
7
13
-9
0
26
-38
-25
-12
-24
-13
7
12
-1
-12
-3
-1
-2
-11
52
-4
-19
28
9
5
5
8
2
-20
-38
18
0
0
3
13
-10
8
30
-20
-1
1
1
-3
11
11
3
2
1
-1
3
7
-6
-22
-12
20
-1
1
-6
-4
-1
2
-7
-20
2
-3
7
0
12
-18
6
32
2
-4
-10
-13
-3
9
2
-13
2
10
10
4
-11
-40
-35
-20
-5
0
-9
0
-16
23
9
-20
-3
-1
1
-2
-44
-13
-8
-12
1
-3
5
8
-62
-17
17
4
4
-21
-28
-7
56
-22
13
6
-7
17
34
3
-97
25
18
0
2
4
-11
-15
87
21
-24
-4
-2
-4
9
29
-7
15
1
-19
-7
-4
-11
-28
-26
0
3
-10
-2
-10
-6
5
79
-5
-3
-14
-13
-12
-12
8
-54
-11
0
34
7
8
4
-8
15
-8
13
-14
-11
-4
5
11
-56
0
-38
-18
-3
-8
-1
-5
-4
-5
13
0
-1
15
2
-8
-26
15
-9
3
1
-1
-9
-14
22
-10
-11
-8
-9
3
5
13
-30
11
33
-14
-3
-6
-11
-8
-25
10
-5
-8
2
-7
16
19
-5
-20
9
-20
-3
-1
-16
-25
19
5
-10
30
5
-3
12
-1
27
8
-24
12
6
17
-2
10
43
13
-8
-2
0
-2
7
-2
-9
-2
9
12
8
5
-2
3
-7
-18
-4
-9
-1
-2
8
-5
-28
-5
7
7
-8
-12
-17
-1
44
11
-3
15
2
-3
-5
-15
91
12
-5
10
4
14
14
18
10
2
5
-18
-4
-1
-8
4
22
-5
-10
-10
3
-1
3
-11
-48
-14
-2
-11
3
3
-1
7
0
4
20
32
1
-16
-16
-21
-14
1
-13
5
-3
6
9
21
16
-2
20
-23
-10
-10
-6
-5
-31
-7
-1
22
4
5
-4
-9
61
1
-9
-9
-7
2
3
2
-56
6
14
2
5
5
0
-7
8
2
15
4
1
-5
-1
-3
26
0
4
14
0
-6
-5
-4
-20
1
4
-5
5
5
5
8
-55
-6
-1
-1
3
5
2
-4
19
15
-11
0
-1
-6
-1
4
-18
-28
-22
-43
-5
0
12
-5
-23
-20
-6
11
-5
4
-14
1
-26
-11
-7
-8
1
-4
2
-14
0
-7
-4
-1
-1
-1
-2
3
18
27
19
-5
-3
-7
-14
-4
-46
-19
-16
4
-3
4
11
13
42
4
5
-23
-7
-8
-1
-6
7
-11
-7
4
-5
4
-10
-5
59
7
5
-11
6
0
6
13
-42
7
-5
-16
-9
-8
-7
-12
-11
7
-3
24
3
3
-2
0
64
7
6
4
-5
-1
-1
17
-30
-4
1
8
5
6
11
-15
64
7
-11
30
2
-5
-11
-2
-48
-16
-23
-19
-11
-3
-11
-14
52
11
11
12
-2
-4
4
15
-1
3
9
-9
1
-1
0
0
-47
-17
3
3
4
-2
-6
-17
41
19
0
-5
-1
2
7
17
-23
2
-17
1
6
7
-1
-6
-6
-36
18
-4
-10
-8
-6
1
-4
37
-8
2
3
-2
1
2
21
13
15
6
-5
1
-2
-2
13
-70
-38
-21
12
5
6
0
-63
11
26
1
3
1
11
6
2
8
-7
-9
-7
-12
-12
-8
9
-4
10
14
-3
2
-1
-2
7
26
10
32
5
-2
-10
11
22
8
-5
-9
-3
5
2
-5
-12
-9
4
-4
-11
-1
1
-9
11
-2
-23
-16
9
1
1
0
-45
1
-11
-6
-11
-11
-18
-10
12
-19
-5
6
1
1
8
13
-7
28
17
3
0
-2
-2
2
12
-35
-10
-5
-1
-2
5
-1
-28
15
0
1
-1
13
4
-15
-8
8
-22
0
-2
-4
-6
-3
3
-20
17
-2
0
-4
5
21
9
-1
-11
12
5
-1
-9
-8
-12
11
26
-13
0
4
4
-8
-8
8
-20
23
-3
-6
-9
-2
21
-11
-30
-9
1
7
9
-1
-2
13
1
13
6
6
13
18
-33
-18
-2
-14
-5
-3
-14
-9
-39
11
12
10
-1
5
-2
-2
60
-13
-2
-4
0
-6
7
1
-37
20
9
-24
-21
-12
-14
-5
-48
29
12
28
13
4
2
-7
36
-16
2
-20
-2
2
2
6
-31
10
-21
10
8
1
-4
-20
-57
-30
17
-2
0
-3
1
6
1
17
19
10
-9
4
22
5
9
-12
-9
18
6
-4
-23
3
-16
9
-6
-25
-4
2
8
2
27
-25
13
14
-3
5
-6
-14
10
13
2
2
3
0
12
15
-31
-21
-21
-35
-6
-5
-5
-11
55
2
-7
11
-2
4
0
4
-34
14
12
-11
1
-5
6
22
-28
-1
-15
-7
-7
-7
-9
-27
12
8
22
-16
-3
2
13
7
-30
-13
7
6
-5
11
-5
-8
34
14
-10
18
12
3
2
-3
33
-10
11
-1
-7
-6
2
4
-25
20
-19
1
-5
-4
2
-9
15
-30
27
-22
-11
-11
-33
9
-28
-18
-9
26
21
7
-3
-42
-10
-4
-5
-8
0
-6
8
20
37
-7
4
-3
-6
-4
-2
4
-61
-3
-4
-11
-4
-1
11
-18
58
10
-1
-26
-12
-1
-3
8
-22
40
-18
2
4
-5
-9
-17
116
-73
-34
20
7
7
10
28
-76
16
44
1
-3
-9
-7
-8
-63
-39
-40
-31
-9
0
-7
-9
59
26
28
1
-8
2
2
-1
61
19
-13
24
5
2
7
28
-65
-28
-31
-34
-10
-8
-11
-20
54
26
-7
31
8
13
18
8
1
-23
-4
-10
6
0
-3
2
-71
19
27
22
-4
-2
-11
-17
70
-3
-24
1
21
4
10
9
18
4
11
40
-8
-11
-11
13
-75
-10
-17
-17
-3
8
3
-7
68
-31
0
29
6
0
-4
-7
43
67
13
-32
-3
8
24
33
36
19
9
11
-2
2
-4
-1
2
-35
-3
2
8
7
4
11
-68
34
10
-37
-3
-5
-15
-5
-9
-72
-43
35
-5
-1
-4
8
117
30
11
-24
12
8
9
-6
-31
4
14
30
-3
-6
-5
0
29
5
-32
7
-11
-1
11
-9
-50
3
-17
-52
7
-3
-7
-21
7
23
10
-39
-27
-14
-15
13
65
-21
9
46
17
3
-4
-8
-14
-6
7
13
-6
1
-1
-2
55
13
-1
12
5
-4
4
12
-60
-36
27
-12
-10
-4
3
-19
-4
-10
-32
-50
-2
-5
-5
24
17
22
18
11
1
4
1
-4
-59
-27
-18
8
-9
-21
-5
-17
-20
11
25
-23
-1
6
-22
-31
82
-4
-9
-24
-7
1
21
17
-36
10
-12
2
6
-2
10
-10
-21
3
-1
3
-2
-2
-26
3
28
2
-24
17
8
2
13
29
-1
4
10
16
-2
-7
-11
-17
-44
-21
-16
-22
-1
4
-6
2
41
23
17
12
-2
0
11
6
-53
-14
-1
12
3
-6
-2
-3
4
8
2
-7
-6
-1
-5
-3
-40
0
12
-10
3
-2
-1
-6
11
-4
1
9
6
9
8
-5
4
-5
-6
7
0
-4
-3
3
-32
-4
10
-6
-4
-2
3
-8
-1
-6
-8
-13
-2
-4
-9
-4
16
9
3
10
-1
4
0
-1
-1
-5
-7
-6
-2
-3
5
10
13
20
9
2
-4
-4
-1
-3
-30
-12
13
-3
-1
-2
-5
-6
16
-5
-14
0
-1
4
3
2
-12
-5
-6
0
-1
-3
2
-1
-3
1
0
1
1
1
-2
-2
-2
-1
3
1
3
1
-4
-3
-12
-2
6
-2
-2
1
5
0
5
-5
-6
-3
-1
-4
0
3
-4
-4
-7
-4
-6
-2
-6
-4
-9
-1
-1
-5
-1
-3
-2
0
14
5
4
6
-1
-3
-2
-3
-7
2
1
8
6
6
7
1
0
2
0
0
0
0
-8
-2
-7
-11
-10
-10
-8
-6
-3
-2
3
10
21
8
0
9
7
-2
6
-1
-17
-1
0
-3
-1
9
-13
-20
-41
-14
-4
-5
0
-7
2
10
13
0
-2
-7
-14
1
9
4
14
8
6
4
7
-3
-6
-2
-6
-2
2
11
6
-1
0
-4
-2
-4
-6
0
3
5
-9
3
0
1
-4
-7
-1
-2
-1
3
-12
-3
-5
-6
-7
2
5
11
32
7
7
-2
1
0
-6
-17
-34
-4
-3
-15
-11
-3
-2
-4
27
2
5
26
13
-2
0
4
-9
-2
-3
-4
-2
-1
-2
-7
-17
-1
-2
6
5
-1
1
8
-12
-7
1
-4
1
-1
-2
0
8
-2
-1
-6
-12
3
6
6
25
10
2
7
11
1
-9
-15
13
-4
-4
-13
-11
-6
3
-6
-63
-15
3
6
6
10
-5
-3
25
6
-7
-10
0
-4
1
4
-8
9
2
2
1
-3
-7
-4
4
-13
-14
-19
-20
0
0
12
77
28
12
22
8
-1
3
7
-106
-33
0
-2
4
3
-2
-41
-69
-33
-17
-11
-1
-12
-6
0
-10
2
-10
-6
-13
3
2
13
71
17
4
1
0
1
2
12
17
25
13
5
6
-1
0
-2
2
-20
3
-9
-9
0
-1
4
24
13
-4
-20
-29
0
-1
-20
-26
-12
-13
-6
10
6
-18
-1
48
8
1
27
24
-18
7
4
-69
-15
-1
-4
-2
-3
-2
2
38
-6
2
17
15
-6
-4
5
23
4
2
-20
-26
0
-4
-7
25
11
-11
-31
-12
0
-3
-13
-44
-27
-9
24
7
0
7
10
36
10
7
1
3
1
2
9
19
29
2
-6
1
-5
6
15
-14
5
6
8
8
5
-7
-22
32
-15
-4
-5
-6
2
-4
-18
-29
-2
-6
-12
-8
1
4
-1
-52
-58
-7
-6
2
-8
10
19
-5
38
12
31
14
10
-12
4
-8
0
-6
-9
-12
-6
-3
6
32
12
6
8
20
6
-5
-8
54
18
6
1
6
-12
1
-21
-46
-39
-11
-12
-22
3
9
29
58
20
9
7
9
9
2
-17
-61
-29
3
3
6
-5
-11
12
75
40
-10
-10
-11
4
0
1
-10
-10
-2
-1
-10
-6
2
12
55
29
7
2
10
13
-7
-6
30
-8
-8
-3
0
-7
8
7
-7
8
2
6
-1
-2
-5
-9
-60
-24
-4
-8
-9
-10
5
11
24
5
-1
-14
-4
-3
3
-2
-76
-9
5
15
10
5
-2
-1
17
0
-1
0
-9
2
-2
-7
-24
-10
-5
-4
-5
-3
-2
1
29
9
-3
-1
-1
-3
-4
5
-20
-11
-9
-14
6
3
2
-11
3
-15
-2
9
-6
-3
3
7
52
20
16
7
12
2
1
12
27
14
6
1
-16
-1
-6
-13
-7
-12
-11
-7
4
-7
-3
4
-23
-11
-5
0
6
0
6
-2
34
9
2
-4
1
7
-5
4
-38
-5
-1
0
-2
-6
0
2
23
14
4
2
-4
-2
-5
-11
-70
-26
-6
-1
-1
-1
-3
-5
1
8
4
-1
-3
5
-5
-7
-7
0
0
3
6
-1
4
2
7
4
1
-4
-4
-3
1
3
-30
-22
-11
-1
-1
2
3
1
4
5
8
6
2
-3
-7
-18
-15
-13
-6
-7
-1
0
2
4
7
1
1
3
-4
0
-2
1
23
15
0
-3
2
0
-3
4
37
-2
-9
-9
-4
-1
2
1
-13
2
-2
-2
-1
0
-2
-8
-27
10
8
8
-4
-1
-1
-4
15
-1
6
3
5
-1
-1
0
-15
-14
-7
-11
-5
-4
2
0
15
3
-2
-3
-3
-2
3
3
-2
-2
-3
3
2
1
-3
-1
-7
-4
-4
-7
-8
-2
-3
-3
11
13
3
2
5
1
-2
-6
-6
0
3
1
0
0
-1
5
15
5
0
-1
-1
-1
3
2
-5
-8
3
5
0
-1
-3
-9
-6
-2
-13
-14
-9
0
-1
-9
2
-1
-3
-1
2
-1
-1
3
-22
-13
-7
-3
-3
0
1
2
21
-7
-2
2
2
-4
1
-1
-33
18
14
5
3
0
2
-2
3
-4
-4
-2
1
1
-4
6
13
4
2
0
-2
0
-6
-9
-30
-5
-2
0
0
-2
-7
-8
-21
1
-2
0
0
-2
5
0
18
0
2
-1
-3
-3
-5
1
-2
0
-1
-2
-2
-2
-7
-6
-6
-1
-4
-6
-3
-3
4
2
-1
-32
-8
-4
-2
-4
6
2
-5
27
-2
2
2
5
5
1
10
-1
5
2
1
0
-18
-2
-13
0
1
0
-1
-2
-22
-3
7
-7
-4
-1
0
-3
11
-4
1
-17
-9
-4
2
-2
-4
-3
-7
-4
-1
1
2
0
35
1
1
23
8
2
-3
5
-15
1
5
-3
-4
-4
-4
-6
-26
-1
0
-6
-1
-1
-2
-2
19
0
0
-1
-1
-2
0
0
-13
3
-4
-16
-2
0
3
0
-19
-10
10
0
-5
0
-1
0
-2
2
6
28
8
1
-1
-3
21
0
-16
-1
-6
-4
-6
0
1
3
18
4
-2
-3
0
1
-11
-3
-1
-11
-3
-2
1
1
0
-2
-9
-6
-1
0
2
-4
-8
-1
5
4
1
0
0
1
4
7
-12
-12
1
-1
0
2
13
-4
-6
15
-2
2
4
4
11
3
-4
18
7
3
-3
5
2
-1
12
11
8
1
5
4
-13
-8
-7
-12
-8
-6
-10
-9
1
-5
5
-13
-6
-3
-1
0
-25
-2
16
-31
-13
-9
-8
-17
-3
8
-1
1
2
2
4
-2
9
3
-3
5
3
5
5
3
23
7
-12
2
2
0
4
6
-10
4
10
11
1
3
2
6
14
-1
-3
2
-4
-1
-6
1
-25
-3
-1
5
2
0
-1
0
8
1
-6
10
1
3
-1
1
-25
-8
-17
-15
0
1
-8
-8
23
-8
5
-16
-8
-3
2
7
38
-1
14
49
23
4
2
3
58
0
-6
-29
-4
-6
-21
-10
-13
4
-11
-6
-2
-4
4
-5
28
10
-7
25
-11
-2
-9
-6
47
15
10
-21
-10
-1
17
19
8
-11
31
10
3
-3
-10
-3
-85
-29
-16
-58
-20
-11
-8
-20
-36
11
-18
32
25
8
6
-1
-43
-1
6
7
1
-1
-2
-2
-52
-18
-42
14
-9
2
0
2
59
4
11
11
-16
4
12
22
-70
-15
31
-45
16
-6
-4
6
33
15
14
25
2
0
-7
-21
1
-4
8
-43
1
2
7
14
65
9
1
23
5
0
10
2
20
-14
1
14
-12
3
-9
-7
95
25
-16
-9
3
1
9
10
-14
-28
-2
-28
-21
-15
-26
-17
24
24
17
17
15
7
21
14
-86
-5
-2
-1
17
7
-4
-10
-92
-3
72
-9
-15
-14
-18
-8
-23
27
-19
23
-1
3
24
-3
61
-12
-14
-7
16
5
-17
10
-4
14
12
-18
-21
-9
3
-6
-48
-25
-50
-4
9
10
8
-7
-16
10
12
-73
-11
-8
-6
-9
58
29
21
74
19
4
13
44
-51
-19
-13
-26
-27
-6
-3
2
-56
49
15
-14
-5
-2
-11
-13
-85
-77
-34
12
-4
-10
0
-29
39
-36
-24
-34
-23
-17
-22
-25
29
12
-4
-3
-4
25
20
15
-9
-40
-6
17
5
5
11
10
13
55
-12
18
13
3
4
5
-86
-19
-4
3
-14
-19
-24
-21
35
19
-23
14
7
13
9
45
-80
-31
28
-33
4
-5
3
-23
42
11
-20
49
15
18
17
-2
-12
-18
-19
22
0
-3
-11
0
35
8
7
-46
-6
-12
0
-4
14
25
-16
-18
-5
4
-3
10
116
-31
6
-12
8
-9
-23
-16
-128
-27
-9
0
-3
-2
18
-7
72
9
13
23
24
17
26
1
37
-41
-22
11
-2
2
-10
13
-47
28
3
4
-13
-16
5
22
3
46
37
35
13
15
0
-17
52
-46
-26
-55
-24
-6
-13
-14
98
-1
-32
-30
11
-2
13
6
-33
-21
33
7
4
6
-16
-1
5
15
-18
-34
-9
7
13
6
-26
9
-20
52
30
1
7
17
2
6
9
1
-17
-22
-13
2
7
9
30
-10
-25
-5
-5
-16
47
18
-16
-3
35
18
16
12
-47
6
51
-11
0
-7
-8
1
-61
-37
-14
-2
-10
-3
-2
-25
17
38
25
-4
-4
2
6
9
21
-40
-34
21
-1
-5
-17
-16
11
19
18
17
-7
1
10
5
25
-15
-28
21
11
-4
1
19
-9
22
37
5
0
-2
-6
-18
-31
14
-24
-27
-11
9
9
-2
-22
1
-17
-21
-8
-16
-22
-20
-40
-3
22
-1
-13
-5
-21
-8
-17
-21
-12
28
23
4
6
3
37
12
25
-18
-3
-17
-8
0
-29
11
10
10
2
6
6
-1
-22
16
-63
-6
-6
-1
-5
10
-14
-5
-6
7
-3
1
8
-11
1
-35
-6
6
5
13
2
14
-103
-25
30
-28
-25
-32
-34
-46
47
31
15
-5
10
14
15
12
65
17
-29
-22
6
2
2
-2
-5
3
13
-1
-4
1
-1
8
115
11
-29
53
4
-1
1
1
-34
-18
9
7
-7
-3
1
2
-2
-3
4
7
0
0
9
10
-48
10
-4
3
2
0
3
-7
-28
-13
-19
-57
-10
-10
-38
-19
-35
-6
16
35
9
-3
1
-5
43
8
8
-10
-9
0
-2
4
-76
5
-3
21
2
-6
2
-6
33
18
-6
7
5
4
10
10
18
-16
5
-6
5
5
-2
-11
25
10
-3
12
-2
1
-10
24
37
-30
-1
-32
-17
-8
18
-3
109
-36
-11
28
2
-4
-11
19
-31
-7
15
-21
-7
4
4
-18
3
-3
-32
6
4
14
8
6
117
15
18
14
-9
-12
-15
17
-58
-4
0
-38
9
3
4
-18
90
24
-5
5
-5
6
10
2
-102
-14
19
11
1
-9
0
-6
12
2
-18
-9
-9
3
-2
10
-15
9
5
-5
-13
-8
5
8
-38
24
-22
-1
2
3
-3
5
-25
-13
-8
-35
-18
-6
-1
-11
-12
25
29
74
25
8
-3
8
26
18
-6
9
-4
1
-1
-16
-14
-29
11
-17
-6
-11
-5
0
97
3
9
20
-5
-8
3
5
-38
-31
-5
-77
-10
11
2
-16
29
25
4
26
7
1
-7
-1
91
-3
-4
11
4
4
3
7
-75
-16
-18
-13
9
4
-1
-1
62
12
0
-12
-9
-14
-2
4
-2
-11
17
-3
-4
1
-5
2
8
13
1
-4
0
0
-7
-40
-18
5
-18
7
4
-5
-7
8
-3
14
-1
-48
-11
-14
-12
-15
-41
-27
15
39
3
4
12
-2
-17
18
-21
-17
2
-1
-7
3
-10
-24
18
19
6
3
15
5
-49
-3
-10
-14
8
-2
-1
-9
-3
-8
-48
-9
-14
-8
-8
-1
42
3
-2
23
2
0
7
16
45
-2
-4
25
3
5
-2
0
-33
-43
-8
-32
-15
-4
-7
-15
-20
14
37
8
10
2
2
-13
55
7
-33
-7
-5
-5
3
25
-10
13
-2
-19
-6
-15
-7
-6
0
9
41
26
8
22
13
16
-6
-16
-33
-27
-7
-6
14
-14
-56
2
13
-6
-8
0
-22
-13
22
25
7
17
-1
0
-3
15
1
-16
-41
-10
-2
-6
-4
8
-13
-8
21
4
2
-2
-1
-23
-52
-4
19
-18
-16
-13
2
1
-30
1
6
29
18
6
0
-10
2
7
1
42
-3
-2
-6
-1
-27
-17
-32
-45
26
15
10
15
8
-14
-7
20
-6
-8
-15
-1
55
13
24
-3
-4
-4
3
9
-8
21
-30
-31
-5
-5
-6
-16
-3
7
14
16
-10
-10
-2
4
-81
-18
-2
-9
0
9
14
2
-12
0
-20
-15
-1
8
5
6
32
3
26
22
12
0
-2
-8
-14
-13
-5
1
-10
-12
-11
-2
66
5
4
-8
-3
-2
-4
7
-83
8
6
16
4
29
11
8
80
-18
16
-17
-3
-5
14
7
33
12
-15
-8
0
-1
-2
13
6
-4
17
-7
-2
-5
5
-5
35
-3
-16
6
14
-4
-8
-7
-31
3
-2
9
0
-1
4
3
-48
0
9
42
-6
0
-7
4
26
-2
-5
-19
7
1
2
-4
5
-14
-14
-33
-8
-8
-5
-14
-8
0
9
27
7
2
-1
3
37
3
-1
2
-4
0
5
7
-5
-9
7
-2
1
1
-3
1
-17
-3
-3
-3
-10
-5
1
-13
28
22
17
-16
-1
3
-9
3
18
-32
-38
-1
4
0
3
7
-40
11
24
-2
1
4
1
-12
28
-3
-16
-16
-2
3
3
-6
-13
-17
-7
-1
-6
-6
2
1
55
23
20
0
-2
5
3
9
2
-17
-2
-8
1
-5
0
-2
20
-9
0
7
-5
-9
-10
-4
-14
12
2
-4
2
-3
-2
-4
-29
5
5
-3
-1
6
7
-3
7
-1
-16
5
-5
-4
8
5
28
-5
-14
36
22
9
-9
9
-70
-7
0
-7
-3
-3
-4
-5
-18
-4
7
-14
-5
-9
-5
-6
12
11
4
-1
-4
0
-4
-8
9
-8
6
-30
-12
-4
1
0
-9
1
-9
-9
-6
1
-3
-3
9
-10
13
23
8
-1
-4
-8
2
9
-6
37
17
9
9
23
-6
-14
-3
-2
-8
-8
2
-9
-17
6
-1
-2
0
-6
-16
-13
-4
5
9
-26
-13
4
6
-2
44
-10
-14
5
2
-2
-15
-9
-16
13
26
-2
4
2
8
18
-15
-19
-11
-2
-10
-9
-1
-2
-14
-4
-17
3
3
-4
5
-10
-16
14
2
-5
-1
6
-24
5
26
-1
0
2
2
10
11
-6
0
5
8
-25
-5
-4
-3
-1
-32
-1
11
13
-4
-6
-3
-9
32
8
-2
21
6
-1
6
10
19
-22
-16
-52
-17
-4
5
5
15
7
-25
-27
13
2
-12
-24
46
25
8
28
9
2
0
34
-1
-18
7
-4
-6
-5
-2
-5
2
-3
-6
5
-8
-5
-2
0
-13
-7
5
15
-5
1
5
1
-5
-1
-6
-30
3
8
3
4
38
19
-8
22
6
0
-20
-9
-91
-4
17
0
4
-8
-4
-11
-8
0
-10
10
2
9
14
6
48
4
3
22
1
0
0
1
-67
-18
-9
-30
-12
-7
-2
10
29
-2
6
2
7
-1
-3
-5
40
13
11
18
2
-1
-9
1
-38
-10
7
-7
-5
-4
-1
-5
-32
-6
-16
-24
-21
-11
-1
-21
49
7
-42
32
19
6
-7
25
-47
33
37
30
8
0
11
-7
18
-13
-1
-26
-12
-9
1
-13
-58
2
12
2
4
1
-19
-3
14
-3
8
9
-14
-2
3
-18
42
22
-2
10
3
4
1
22
-16
-43
-1
-11
-10
-6
1
-3
33
11
10
-10
-3
-4
-5
-8
-63
15
31
1
-10
-6
-3
5
15
-4
-48
-15
13
3
6
18
-18
-16
-15
-8
-8
-8
-10
-29
5
8
8
8
2
11
12
-2
2
-17
-14
-16
-3
1
8
23
-24
-12
32
0
-12
-9
-17
-42
-3
-8
-21
2
9
10
15
16
-8
-18
-4
-10
-6
-3
3
-6
-2
21
8
-5
-12
5
1
13
43
-18
-14
3
4
-7
4
4
-13
22
9
-11
1
-1
-14
-6
-31
-12
-36
4
10
2
6
-10
-14
-4
11
12
-3
-6
-7
-6
14
-15
11
-13
-13
0
2
6
-11
11
-8
11
13
5
-5
-4
10
-4
22
8
-2
-2
8
7
-25
-1
-32
-1
6
-3
-6
-13
-3
4
3
11
-6
-5
-6
2
42
6
25
3
4
1
-4
13
-52
-3
-1
-25
-7
-4
9
-10
3
-12
-8
-3
-3
-5
-2
-15
21
6
5
5
-1
-1
-7
4
-1
15
5
-7
-3
-2
-4
9
51
-4
0
1
1
5
6
10
12
-6
5
0
1
-4
1
-8
-22
-4
-8
-12
-3
-4
-4
-2
-21
1
-2
-3
-8
-7
-1
-6
17
5
-5
11
4
5
5
8
10
4
2
1
9
22
12
-4
-20
-7
-4
-14
-4
-3
-10
2
6
-2
-16
0
0
0
-2
0
13
-4
6
6
-4
-11
-2
-1
2
1
2
-9
-4
-9
-9
-5
-3
-8
0
-5
-4
-4
-3
2
-3
2
-18
-5
-2
-5
1
-1
-1
-2
-13
-7
0
6
-3
0
-2
0
2
1
0
2
1
-2
-5
-1
-4
1
0
1
5
2
-4
3
23
2
-7
-16
-1
-3
2
-2
-6
-2
0
0
-5
0
6
3
5
-9
2
16
-1
-1
-4
-9
-6
-4
-2
3
1
0
-4
7
3
0
1
7
-1
1
3
-1
9
4
1
-10
2
0
0
-2
0
4
-3
-12
-9
-1
-4
-1
-3
0
2
3
1
-3
-6
-4
4
-2
-2
-1
1
-4
6
8
6
1
-2
-8
-9
-1
-4
-12
-24
-16
-8
-15
-3
-2
-3
7
9
12
3
7
15
4
-3
-9
-35
-1
4
9
-26
-12
3
5
45
10
2
22
30
7
-1
-1
-40
-23
-11
-2
-2
4
-2
-9
-8
-15
-8
-15
-1
1
-7
4
41
6
-1
-6
-7
-3
2
5
-4
11
4
-9
2
-3
-4
-4
31
15
0
-16
-22
-6
-10
-20
-30
-22
-6
-7
-4
-3
-2
0
-40
-18
-10
-3
-4
-1
4
9
11
1
11
35
18
0
6
16
38
23
3
-28
-3
-2
-1
-5
-6
1
6
30
4
2
-6
-7
38
7
-5
-6
8
-3
2
-4
-42
-9
-2
-11
-9
2
2
3
13
-6
1
9
8
0
-1
-6
-45
-9
2
-4
-5
-2
0
-3
23
16
2
-10
-4
2
0
1
-7
-10
-8
-7
-1
-7
6
1
11
-9
10
7
11
3
-5
7
-3
-3
-9
10
5
-7
1
7
-8
50
2
-5
-24
6
-14
-33
-70
-59
-23
-9
-1
-2
13
10
26
7
12
5
-3
7
-9
-18
-40
-24
-12
-16
1
-8
-8
5
-34
-13
-1
26
16
-11
-5
3
59
31
1
-6
-8
-2
-2
1
-51
-4
-2
5
10
1
7
11
78
14
11
-2
-16
5
13
14
2
8
2
-12
2
0
-11
-36
-18
-27
-14
-10
-15
-5
-1
7
18
11
8
3
14
2
-5
-23
-55
-23
-13
-6
-7
-2
-1
3
6
-14
-4
0
0
4
7
15
-10
7
8
-18
-5
0
4
-3
10
18
1
17
10
1
-1
7
-2
-18
-4
1
-4
4
-7
-19
-13
-11
-4
16
-5
-2
7
13
-27
21
11
-4
14
3
-19
-26
-3
-15
-21
-21
-21
-10
13
22
28
32
16
17
12
1
9
6
15
-16
2
2
8
-1
2
-1
16
6
-3
-9
-12
0
2
-7
-30
3
3
-2
-7
-1
1
2
57
8
-2
-4
12
10
-4
9
5
18
3
-3
-15
-5
9
9
4
5
6
5
5
-7
-5
3
6
-7
-4
2
-1
-2
-1
0
28
0
1
0
-3
-1
7
-1
13
-1
-1
-9
8
5
-8
-8
-42
-14
-10
-1
0
1
-4
-11
-10
-10
-3
10
-18
-3
8
16
-2
19
7
-1
6
2
-4
-8
24
4
0
-8
0
-4
-3
2
13
-9
-1
19
8
-1
0
4
-15
19
1
-14
-4
0
-7
-14
-47
-27
-9
3
-6
-5
-1
1
0
-2
-1
-5
0
1
-1
1
37
12
2
11
-6
1
1
6
0
-12
-2
-4
-3
2
-1
-2
3
12
2
-7
1
-6
-2
-5
12
-11
-3
6
8
1
1
5
0
-2
-3
-11
-3
2
-1
-4
8
-12
-5
6
-2
-3
-2
-2
4
8
1
-8
-2
-3
-4
-11
-39
-17
-4
0
0
-1
0
6
31
17
3
-2
1
-2
1
2
-8
0
3
-8
4
-1
-4
-1
5
5
-2
17
-2
-2
1
-1
-28
-14
-3
1
5
2
-3
2
-4
2
-3
-2
-8
-2
0
0
13
12
2
-1
0
-3
-4
-9
-37
-25
-4
-10
-4
0
-1
-1
5
15
0
0
0
-1
0
-8
-29
-15
-4
-1
0
-1
1
6
32
-6
-5
-1
-1
-2
-1
6
13
16
-2
-8
-6
-1
1
-6
16
4
9
9
3
2
0
-2
-7
-1
2
-1
1
-1
-5
-2
-47
-19
-11
-2
-1
0
3
6
29
18
3
2
-4
-2
-6
-3
14
-21
-8
-5
0
-1
0
-2
-2
12
0
-2
-7
-1
-2
0
20
-7
-5
-7
-2
-2
-2
-1
-3
3
1
2
-4
-2
3
6
-2
12
3
3
2
-1
0
-2
-19
-16
-3
-5
-2
-2
-5
-8
2
-5
-4
10
5
-1
-1
1
5
3
-3
-18
-3
-1
1
-3
-21
5
6
13
2
1
1
-3
15
1
-4
-1
0
0
-1
3
-1
-11
-2
-2
-2
-2
0
3
-19
8
2
-3
-1
1
-1
-3
5
8
0
-1
2
1
-2
4
-7
0
-3
-3
-4
-1
0
-4
-26
-7
-2
0
0
-2
-1
-2
11
10
3
4
-1
0
-2
-3
-6
-14
-4
-7
-4
-2
-2
3
26
9
-4
0
-2
-3
4
10
45
15
6
4
-1
2
-6
-27
-72
-31
-6
-6
1
-4
2
6
-35
-6
-4
1
-5
0
1
-8
-6
1
3
1
0
0
-4
-3
3
-6
-4
-4
-4
-2
1
-2
14
-3
-1
2
1
-2
-1
-2
11
3
2
-1
4
0
-1
-4
-12
-6
-3
-5
5
0
-1
-2
-18
-3
2
-4
-12
-2
0
5
11
8
2
14
-4
-1
-4
-7
-30
-18
-5
-6
-2
-2
1
6
29
9
1
4
3
-1
0
0
-24
2
2
-4
4
0
0
1
14
0
-3
-7
-6
-1
-1
-4
11
-1
-2
-4
-2
-3
-1
-2
-5
-6
-4
2
-2
-1
-2
-1
19
12
-1
-1
2
0
-2
2
-3
-2
-1
-1
-1
1
-1
3
-21
-4
3
0
1
0
-2
-3
-1
3
0
-3
-2
-1
0
-7
-14
-10
-4
0
-1
-4
1
1
-7
-3
1
1
5
1
0
2
22
3
-4
-8
-2
-3
0
2
7
2
0
0
-4
-1
-1
-1
-17
1
-1
1
0
3
-2
-3
7
4
0
-2
-2
-1
0
-3
-6
-1
-1
2
1
-1
-1
0
3
-3
-1
-2
-3
-2
-1
-6
-26
-7
-5
1
2
-1
0
3
3
4
-2
-4
3
-2
-2
-3
3
-6
-3
-6
-8
0
1
0
13
9
2
6
9
0
-3
-1
-9
-7
-1
2
-12
-1
-1
2
-13
-1
-4
-4
1
-1
-2
-1
-12
-4
2
0
-1
-1
-3
-5
7
-1
-1
-3
-4
-2
2
-1
9
7
1
-1
3
1
1
7
4
9
7
4
0
-1
-4
-5
30
-1
-6
-3
-3
-2
-1
-1
-26
-9
-4
-2
0
-2
0
2
15
2
-4
-3
-1
-1
1
3
6
8
1
-2
2
-1
0
0
-13
-7
-3
-2
-7
-1
-2
-2
-2
-4
4
3
1
1
-1
-1
-12
9
5
5
0
1
0
1
28
0
-5
-6
1
0
-3
-5
3
-5
-6
1
-1
-2
-1
-2
-6
-5
-4
0
2
0
0
1
9
0
1
0
0
-2
-1
-1
-2
-5
-2
3
2
-1
1
1
-1
5
4
-2
-1
0
-1
0
-6
2
-1
-6
-2
-1
-1
-1
5
-1
1
9
6
0
-1
-5
-8
-15
-6
-5
-7
-3
0
3
-10
10
1
3
5
1
-1
-5
-8
-5
-2
-4
-7
0
-2
-3
2
4
1
-3
0
1
0
0
-6
-1
0
0
-3
-2
-3
-3
-5
-4
-3
-3
-3
1
0
3
13
5
0
3
4
0
-1
1
-19
-7
-2
-3
-2
-1
0
3
25
2
-1
0
0
-1
-1
-5
-43
-4
-3
-6
2
-1
-1
-1
6
0
2
4
-2
-1
-2
-1
13
5
1
1
-2
0
-2
-3
1
-2
3
0
1
-1
-1
0
1
1
-3
-4
-6
1
-1
-3
-7
0
-2
-2
-3
-3
-1
-1
8
-6
-2
-2
8
-1
-4
-7
-6
-3
-7
-2
-6
-2
-1
3
15
-2
1
3
3
0
1
2
6
2
-1
-6
-5
-2
3
-1
-28
0
2
0
-1
-2
-2
-2
7
5
-2
-4
0
-2
-1
2
4
-8
-1
0
-2
0
0
4
1
7
-3
-2
0
0
1
-2
2
-3
-2
-4
-2
0
-2
-4
-14
-1
0
-1
-1
-1
-1
-3
16
4
1
2
0
-1
-1
0
1
2
4
2
1
0
0
3
14
1
0
-1
-1
-2
1
-1
-7
2
-1
2
1
-2
-2
-1
5
-1
-2
-1
-2
0
-2
-3
-25
-2
-6
-4
-3
-2