-0.5447105282171902
0.05224298971146309
0.2738075685381355
-0.5447105282171902
0.05224298971146309
0.2738075685381355
-0.5447105282171902
0.05224298971146309
0.2738075685381355
-0.5447105282171902
0.05224298971146309
0.2738075685381355
-0.548158806056315
0.052532740355679085
0.2744205672032617
-0.548158806056315
0.052532740355679085
0.2744205672032617
-0.548158806056315
0.052532740355679085
0.2744205672032617
-0.548158806056315
0.052532740355679085
0.2744205672032617
-0.5511163639567288
0.053448881435794834
0.27433105363097465
-0.5511163639567288
0.053448881435794834
0.27433105363097465
-0.5511163639567288
0.053448881435794834
0.27433105363097465
-0.5511163639567288
0.053448881435794834
0.27433105363097465
-0.5529984650448048
0.054620937545746207
0.2738915143598739
-0.5529984650448048
0.054620937545746207
0.2738915143598739
-0.5529984650448048
0.054620937545746207
0.2738915143598739
-0.5529984650448048
0.054620937545746207
0.2738915143598739
-0.5545423963950574
0.056576721645681206
0.27323651126508447
-0.5545423963950574
0.056576721645681206
0.27323651126508447
-0.5545423963950574
0.056576721645681206
0.27323651126508447
-0.5545423963950574
0.056576721645681206
0.27323651126508447
-0.5559015003334825
0.05882506064129629
0.272356505876798
-0.5559015003334825
0.05882506064129629
0.272356505876798
-0.5559015003334825
0.05882506064129629
0.272356505876798
-0.5559015003334825
0.05882506064129629
0.272356505876798
-0.556911659043385
0.06097666147929446
0.271763646881577
-0.556911659043385
0.06097666147929446
0.271763646881577
-0.556911659043385
0.06097666147929446
0.271763646881577
-0.556911659043385
0.06097666147929446
0.271763646881577
-0.5572893929637772
0.06306011969893949
0.27169401265174314
-0.5572893929637772
0.06306011969893949
0.27169401265174314
-0.5572893929637772
0.06306011969893949
0.27169401265174314
-0.5572893929637772
0.06306011969893949
0.27169401265174314
-0.5587779782668568
0.06443138099281263
0.27169997559516107
-0.5587779782668568
0.06443138099281263
0.27169997559516107
-0.5587779782668568
0.06443138099281263
0.27169997559516107
-0.5587779782668568
0.06443138099281263
0.27169997559516107
-0.5598267074152795
0.06526981463488316
0.27185448051251027
-0.5598267074152795
0.06526981463488316
0.27185448051251027
-0.5598267074152795
0.06526981463488316
0.27185448051251027
-0.5598267074152795
0.06526981463488316
0.27185448051251027
-0.5609770989308533
0.06623949504041113
0.27196666656183677
-0.5609770989308533
0.06623949504041113
0.27196666656183677
-0.5609770989308533
0.06623949504041113
0.27196666656183677
-0.5609770989308533
0.06623949504041113
0.27196666656183677
-0.5609622844692658
0.06635579628699467
0.27193366077702885
-0.5609622844692658
0.06635579628699467
0.27193366077702885
-0.5609622844692658
0.06635579628699467
0.27193366077702885
-0.5609622844692658
0.06635579628699467
0.27193366077702885
-0.5597011109906609
0.06718443033270696
0.27233238539206933
-0.5597011109906609
0.06718443033270696
0.27233238539206933
-0.5597011109906609
0.06718443033270696
0.27233238539206933
-0.5597011109906609
0.06718443033270696
0.27233238539206933
-0.5584543899548506
0.06789621940812804
0.2727650212519745
-0.5584543899548506
0.06789621940812804
0.2727650212519745
-0.5584543899548506
0.06789621940812804
0.2727650212519745
-0.5584543899548506
0.06789621940812804
0.2727650212519745
-0.5576134023393934
0.06851145022869361
0.27310385764020817
-0.5576134023393934
0.06851145022869361
0.27310385764020817
-0.5576134023393934
0.06851145022869361
0.27310385764020817
-0.5576134023393934
0.06851145022869361
0.27310385764020817
-0.5566617859985268
0.0690278587493372
0.2736012146463284
-0.5566617859985268
0.0690278587493372
0.2736012146463284
-0.5566617859985268
0.0690278587493372
0.2736012146463284
-0.5566617859985268
0.0690278587493372
0.2736012146463284
-0.556693546383706
0.06979637984817358
0.2740270446484567
-0.556693546383706
0.06979637984817358
0.2740270446484567
-0.556693546383706
0.06979637984817358
0.2740270446484567
-0.556693546383706
0.06979637984817358
0.2740270446484567
-0.556981878674608
0.07044565511010788
0.2743515489329785
-0.556981878674608
0.07044565511010788
0.2743515489329785
-0.556981878674608
0.07044565511010788
0.2743515489329785
-0.556981878674608
0.07044565511010788
0.2743515489329785
-0.5579485088791181
0.07095414625253389
0.27472749634726207
-0.5579485088791181
0.07095414625253389
0.27472749634726207
-0.5579485088791181
0.07095414625253389
0.27472749634726207
-0.5579485088791181
0.07095414625253389
0.27472749634726207
-0.5587834539276808
0.07156443485265612
0.27507892236071385
-0.5587834539276808
0.07156443485265612
0.27507892236071385
-0.5587834539276808
0.07156443485265612
0.27507892236071385
-0.5587834539276808
0.07156443485265612
0.27507892236071385
-0.5595041009527689
0.07202019828001907
0.27495734407285843
-0.5595041009527689
0.07202019828001907
0.27495734407285843
-0.5595041009527689
0.07202019828001907
0.27495734407285843
-0.5595041009527689
0.07202019828001907
0.27495734407285843
-0.5602305556176117
0.07220164483874103
0.274769765194007
-0.5602305556176117
0.07220164483874103
0.274769765194007
-0.5602305556176117
0.07220164483874103
0.274769765194007
-0.5602305556176117
0.07220164483874103
0.274769765194007
-0.5603325959334882
0.07252356718907928
0.274943176201944
-0.5603325959334882
0.07252356718907928
0.274943176201944
-0.5603325959334882
0.07252356718907928
0.274943176201944
-0.5603325959334882
0.07252356718907928
0.274943176201944
-0.5606887092301127
0.07267551199107278
0.27528126345319864
-0.5606887092301127
0.07267551199107278
0.27528126345319864
-0.5606887092301127
0.07267551199107278
0.27528126345319864
-0.5606887092301127
0.07267551199107278
0.27528126345319864
-0.5606887092301127
0.07267551199107278
0.27528126345319864
-0.5606887092301127
0.07267551199107278
0.27528126345319864
-0.5606887092301127
0.07267551199107278
0.27528126345319864
-0.5606887092301127
0.07267551199107278
0.27528126345319864
-0.560703618929529
0.07255922846289528
0.2753141991979847
-0.560703618929529
0.07255922846289528
0.2753141991979847
-0.560703618929529
0.07255922846289528
0.2753141991979847
-0.560703618929529
0.07255922846289528
0.2753141991979847
-0.560587027037142
0.07254435537725407
0.27532306794645844
-0.560587027037142
0.07254435537725407
0.27532306794645844
-0.560587027037142
0.07254435537725407
0.27532306794645844
-0.560587027037142
0.07254435537725407
0.27532306794645844
-0.5609669112442861
0.07254727007104873
0.2755774915127418
-0.5609669112442861
0.07254727007104873
0.2755774915127418
-0.5609669112442861
0.07254727007104873
0.2755774915127418
-0.5609669112442861
0.07254727007104873
0.2755774915127418
-0.5619775543131913
0.07251737192166563
0.27583541825823105
-0.5619775543131913
0.07251737192166563
0.27583541825823105
-0.5619775543131913
0.07251737192166563
0.27583541825823105
-0.5619775543131913
0.07251737192166563
0.27583541825823105
-0.562273877990243
0.0725145172601385
0.2761136696491747
-0.562273877990243
0.0725145172601385
0.2761136696491747
-0.562273877990243
0.0725145172601385
0.2761136696491747
-0.562273877990243
0.0725145172601385
0.2761136696491747
-0.5614702814384304
0.07267928891632093
0.2770846100750658
-0.5614702814384304
0.07267928891632093
0.2770846100750658
-0.5614702814384304
0.07267928891632093
0.2770846100750658
-0.5614702814384304
0.07267928891632093
0.2770846100750658
-0.55900232973979
0.07186673675067297
0.278200540394397
-0.55900232973979
0.07186673675067297
0.278200540394397
-0.55900232973979
0.07186673675067297
0.278200540394397
-0.55900232973979
0.07186673675067297
0.278200540394397
-0.5589202251949067
0.0704831202367659
0.2783310405952788
-0.5589202251949067
0.0704831202367659
0.2783310405952788
-0.5589202251949067
0.0704831202367659
0.2783310405952788
-0.5589202251949067
0.0704831202367659
0.2783310405952788
-0.5606560822437332
0.06915495038945987
0.27859754010348503
-0.5606560822437332
0.06915495038945987
0.27859754010348503
-0.5606560822437332
0.06915495038945987
0.27859754010348503
-0.5606560822437332
0.06915495038945987
0.27859754010348503
-0.5604122609426228
0.06810505942175807
0.27863887689856626
-0.5604122609426228
0.06810505942175807
0.27863887689856626
-0.5604122609426228
0.06810505942175807
0.27863887689856626
-0.5604122609426228
0.06810505942175807
0.27863887689856626
-0.5588082644503722
0.06751933054540148
0.2778923140925503
-0.5588082644503722
0.06751933054540148
0.2778923140925503
-0.5588082644503722
0.06751933054540148
0.2778923140925503
-0.5588082644503722
0.06751933054540148
0.2778923140925503
-0.5584509624736108
0.06717676528276198
0.27733781680693464
-0.5584509624736108
0.06717676528276198
0.27733781680693464
-0.5584509624736108
0.06717676528276198
0.27733781680693464
-0.5584509624736108
0.06717676528276198
0.27733781680693464
-0.559867032960495
0.06719229878755488
0.27798536206507446
-0.559867032960495
0.06719229878755488
0.27798536206507446
-0.559867032960495
0.06719229878755488
0.27798536206507446
-0.559867032960495
0.06719229878755488
0.27798536206507446
-0.5608533292650036
0.06860141680178702
0.28054712064803466
-0.5608533292650036
0.06860141680178702
0.28054712064803466
-0.5608533292650036
0.06860141680178702
0.28054712064803466
-0.5608533292650036
0.06860141680178702
0.28054712064803466
-0.5637827812318792
0.07113078761976867
0.2858994554593747
-0.5637827812318792
0.07113078761976867
0.2858994554593747
-0.5637827812318792
0.07113078761976867
0.2858994554593747
-0.5637827812318792
0.07113078761976867
0.2858994554593747
-0.5671101657476688
0.07321342953869618
0.2868664759915281
-0.5671101657476688
0.07321342953869618
0.2868664759915281
-0.5671101657476688
0.07321342953869618
0.2868664759915281
-0.5671101657476688
0.07321342953869618
0.2868664759915281
-0.5589773508779985
0.07216650028692248
0.28055957280544547
-0.5589773508779985
0.07216650028692248
0.28055957280544547
-0.5589773508779985
0.07216650028692248
0.28055957280544547
-0.5589773508779985
0.07216650028692248
0.28055957280544547
-0.5266119521056829
0.0706674240910903
0.2826449378029699
-0.5266119521056829
0.0706674240910903
0.2826449378029699
-0.5266119521056829
0.0706674240910903
0.2826449378029699
-0.5266119521056829
0.0706674240910903
0.2826449378029699
-0.5095157039390487
0.06867556350666607
0.28873203972749784
-0.5095157039390487
0.06867556350666607
0.28873203972749784
-0.5095157039390487
0.06867556350666607
0.28873203972749784
-0.5095157039390487
0.06867556350666607
0.28873203972749784
-0.4911717312821066
0.06481551172740162
0.2901388728250607
-0.4911717312821066
0.06481551172740162
0.2901388728250607
-0.4911717312821066
0.06481551172740162
0.2901388728250607
-0.4911717312821066
0.06481551172740162
0.2901388728250607
-0.49054499313591604
0.06676881229594306
0.2976826394431522
-0.49054499313591604
0.06676881229594306
0.2976826394431522
-0.49054499313591604
0.06676881229594306
0.2976826394431522
-0.49054499313591604
0.06676881229594306
0.2976826394431522
-0.48836605566043684
0.06716267246711753
0.30459762981351823
-0.48836605566043684
0.06716267246711753
0.30459762981351823
-0.48836605566043684
0.06716267246711753
0.30459762981351823
-0.48836605566043684
0.06716267246711753
0.30459762981351823
-0.4932307453217114
0.06449876751893695
0.3104942168955077
-0.4932307453217114
0.06449876751893695
0.3104942168955077
-0.4932307453217114
0.06449876751893695
0.3104942168955077
-0.4932307453217114
0.06449876751893695
0.3104942168955077
-0.4981491970371196
0.058467728591329565
0.3140959702767182
-0.4981491970371196
0.058467728591329565
0.3140959702767182
-0.4981491970371196
0.058467728591329565
0.3140959702767182
-0.4981491970371196
0.058467728591329565
0.3140959702767182
-0.49323491137446
0.0524646894829781
0.31820478143275865
-0.49323491137446
0.0524646894829781
0.31820478143275865
-0.49323491137446
0.0524646894829781
0.31820478143275865
-0.49323491137446
0.0524646894829781
0.31820478143275865
-0.4807429008430245
0.047009182198412894
0.3215216746002719
-0.4807429008430245
0.047009182198412894
0.3215216746002719
-0.4807429008430245
0.047009182198412894
0.3215216746002719
-0.4807429008430245
0.047009182198412894
0.3215216746002719
-0.4746986453435456
0.04283919990238167
0.32420753583063455
-0.4746986453435456
0.04283919990238167
0.32420753583063455
-0.4746986453435456
0.04283919990238167
0.32420753583063455
-0.4746986453435456
0.04283919990238167
0.32420753583063455
-0.4761567120891258
0.039290743006261925
0.32532554345892783
-0.4761567120891258
0.039290743006261925
0.32532554345892783
-0.4761567120891258
0.039290743006261925
0.32532554345892783
-0.4761567120891258
0.039290743006261925
0.32532554345892783
-0.48270489389311166
0.03760314989292705
0.32688985989644137
-0.48270489389311166
0.03760314989292705
0.32688985989644137
-0.48270489389311166
0.03760314989292705
0.32688985989644137
-0.48270489389311166
0.03760314989292705
0.32688985989644137
-0.4841299655545675
0.036067222955245205
0.3284407214908402
-0.4841299655545675
0.036067222955245205
0.3284407214908402
-0.4841299655545675
0.036067222955245205
0.3284407214908402
-0.4841299655545675
0.036067222955245205
0.3284407214908402
-0.4819563868863164
0.03624737498103725
0.3291183004294693
-0.4819563868863164
0.03624737498103725
0.3291183004294693
-0.4819563868863164
0.03624737498103725
0.3291183004294693
-0.4819563868863164
0.03624737498103725
0.3291183004294693
-0.4808980047432708
0.03724321232453803
0.32872818912685436
-0.4808980047432708
0.03724321232453803
0.32872818912685436
-0.4808980047432708
0.03724321232453803
0.32872818912685436
-0.4808980047432708
0.03724321232453803
0.32872818912685436
-0.48286943034655067
0.03907084357282853
0.3275588216305108
-0.48286943034655067
0.03907084357282853
0.3275588216305108
-0.48286943034655067
0.03907084357282853
0.3275588216305108
-0.48286943034655067
0.03907084357282853
0.3275588216305108
-0.4836008039771381
0.04075211946400355
0.32665410356207175
-0.4836008039771381
0.04075211946400355
0.32665410356207175
-0.4836008039771381
0.04075211946400355
0.32665410356207175
-0.4836008039771381
0.04075211946400355
0.32665410356207175
-0.48315034720055056
0.04184897863819395
0.3252356454521592
-0.48315034720055056
0.04184897863819395
0.3252356454521592
-0.48315034720055056
0.04184897863819395
0.3252356454521592
-0.48315034720055056
0.04184897863819395
0.3252356454521592
-0.482165398814195
0.042318251207448976
0.324211342973329
-0.482165398814195
0.042318251207448976
0.324211342973329
-0.482165398814195
0.042318251207448976
0.324211342973329
-0.482165398814195
0.042318251207448976
0.324211342973329
-0.48114599631305127
0.042180768017352765
0.32383328989236587
-0.48114599631305127
0.042180768017352765
0.32383328989236587
-0.48114599631305127
0.042180768017352765
0.32383328989236587
-0.48114599631305127
0.042180768017352765
0.32383328989236587
-0.48032424625015724
0.041029323944872374
0.3233482298636298
-0.48032424625015724
0.041029323944872374
0.3233482298636298
-0.48032424625015724
0.041029323944872374
0.3233482298636298
-0.48032424625015724
0.041029323944872374
0.3233482298636298
-0.4802852818975303
0.04024171389675787
0.3227565842579397
-0.4802852818975303
0.04024171389675787
0.3227565842579397
-0.4802852818975303
0.04024171389675787
0.3227565842579397
-0.4802852818975303
0.04024171389675787
0.3227565842579397
-0.48009459624173473
0.03982228696239627
0.32222274673779583
-0.48009459624173473
0.03982228696239627
0.32222274673779583
-0.48009459624173473
0.03982228696239627
0.32222274673779583
-0.48009459624173473
0.03982228696239627
0.32222274673779583
-0.48060527660084196
0.03972631748416863
0.3214916487582647
-0.48060527660084196
0.03972631748416863
0.3214916487582647
-0.48060527660084196
0.03972631748416863
0.3214916487582647
-0.48060527660084196
0.03972631748416863
0.3214916487582647
-0.48044601063824854
0.039762427021809044
0.32020491821291763
-0.48044601063824854
0.039762427021809044
0.32020491821291763
-0.48044601063824854
0.039762427021809044
0.32020491821291763
-0.48044601063824854
0.039762427021809044
0.32020491821291763
-0.4794876304200897
0.03925337222176021
0.31828331911072494
-0.4794876304200897
0.03925337222176021
0.31828331911072494
-0.4794876304200897
0.03925337222176021
0.31828331911072494
-0.4794876304200897
0.03925337222176021
0.31828331911072494
-0.4776953065715535
0.0381300385842456
0.31646714784175234
-0.4776953065715535
0.0381300385842456
0.31646714784175234
-0.4776953065715535
0.0381300385842456
0.31646714784175234
-0.4776953065715535
0.0381300385842456
0.31646714784175234
-0.4768882322152896
0.03584906753233895
0.31497286676773356
-0.4768882322152896
0.03584906753233895
0.31497286676773356
-0.4768882322152896
0.03584906753233895
0.31497286676773356
-0.4768882322152896
0.03584906753233895
0.31497286676773356
-0.4753989163063715
0.03370053924849237
0.31341676713746663
-0.4753989163063715
0.03370053924849237
0.31341676713746663
-0.4753989163063715
0.03370053924849237
0.31341676713746663
-0.4753989163063715
0.03370053924849237
0.31341676713746663
-0.472414368361356
0.031319740798599505
0.31187910399214125
-0.472414368361356
0.031319740798599505
0.31187910399214125
-0.472414368361356
0.031319740798599505
0.31187910399214125
-0.472414368361356
0.031319740798599505
0.31187910399214125
-0.46935134783986926
0.028697253634123773
0.3098987981623273
-0.46935134783986926
0.028697253634123773
0.3098987981623273
-0.46935134783986926
0.028697253634123773
0.3098987981623273
-0.46935134783986926
0.028697253634123773
0.3098987981623273
-0.46665340142410866
0.026016857224669683
0.3079205910693833
-0.46665340142410866
0.026016857224669683
0.3079205910693833
-0.46665340142410866
0.026016857224669683
0.3079205910693833
-0.46665340142410866
0.026016857224669683
0.3079205910693833
-0.46576955530822234
0.023983441897884445
0.30583862189644606
-0.46576955530822234
0.023983441897884445
0.30583862189644606
-0.46576955530822234
0.023983441897884445
0.30583862189644606
-0.46576955530822234
0.023983441897884445
0.30583862189644606
-0.46544912821302925
0.022370451388037504
0.3035444832949859
-0.46544912821302925
0.022370451388037504
0.3035444832949859
-0.46544912821302925
0.022370451388037504
0.3035444832949859
-0.46544912821302925
0.022370451388037504
0.3035444832949859
-0.4635039264065306
0.02138145853575424
0.30118714958400333
-0.4635039264065306
0.02138145853575424
0.30118714958400333
-0.4635039264065306
0.02138145853575424
0.30118714958400333
-0.4635039264065306
0.02138145853575424
0.30118714958400333
-0.46126910743189997
0.02071490429207751
0.29875643574444466
-0.46126910743189997
0.02071490429207751
0.29875643574444466
-0.46126910743189997
0.02071490429207751
0.29875643574444466
-0.46126910743189997
0.02071490429207751
0.29875643574444466
-0.45973778259429093
0.02033490588182987
0.2965176173491389
-0.45973778259429093
0.02033490588182987
0.2965176173491389
-0.45973778259429093
0.02033490588182987
0.2965176173491389
-0.45973778259429093
0.02033490588182987
0.2965176173491389
-0.45951164953607465
0.019784464465585634
0.2948571328548386
-0.45951164953607465
0.019784464465585634
0.2948571328548386
-0.45951164953607465
0.019784464465585634
0.2948571328548386
-0.45951164953607465
0.019784464465585634
0.2948571328548386
-0.45929115185012426
0.019348894773196387
0.29368428764218485
-0.45929115185012426
0.019348894773196387
0.29368428764218485
-0.45929115185012426
0.019348894773196387
0.29368428764218485
-0.45929115185012426
0.019348894773196387
0.29368428764218485
-0.45843223322797644
0.01914536989750869
0.29283556325616555
-0.45843223322797644
0.01914536989750869
0.29283556325616555
-0.45843223322797644
0.01914536989750869
0.29283556325616555
-0.45843223322797644
0.01914536989750869
0.29283556325616555
-0.4569065225521161
0.01885089020705808
0.2914632381722302
-0.4569065225521161
0.01885089020705808
0.2914632381722302
-0.4569065225521161
0.01885089020705808
0.2914632381722302
-0.4569065225521161
0.01885089020705808
0.2914632381722302
-0.45478857619691604
0.018464413371439965
0.29061388430719215
-0.45478857619691604
0.018464413371439965
0.29061388430719215
-0.45478857619691604
0.018464413371439965
0.29061388430719215
-0.45478857619691604
0.018464413371439965
0.29061388430719215
-0.4542219481036538
0.017881139081674647
0.29009775319086323
-0.4542219481036538
0.017881139081674647
0.29009775319086323
-0.4542219481036538
0.017881139081674647
0.29009775319086323
-0.4542219481036538
0.017881139081674647
0.29009775319086323
-0.4544875221643103
0.017752687064604696
0.2893813182564091
-0.4544875221643103
0.017752687064604696
0.2893813182564091
-0.4544875221643103
0.017752687064604696
0.2893813182564091
-0.4544875221643103
0.017752687064604696
0.2893813182564091
-0.4540715980920982
0.017969023916528694
0.28894507937628505
-0.4540715980920982
0.017969023916528694
0.28894507937628505
-0.4540715980920982
0.017969023916528694
0.28894507937628505
-0.4540715980920982
0.017969023916528694
0.28894507937628505
-0.45343685004290485
0.018698386885323916
0.288126551559902
-0.45343685004290485
0.018698386885323916
0.288126551559902
-0.45343685004290485
0.018698386885323916
0.288126551559902
-0.45343685004290485
0.018698386885323916
0.288126551559902
-0.45282958586060224
0.019256588592064614
0.28709988254522406
-0.45282958586060224
0.019256588592064614
0.28709988254522406
-0.45282958586060224
0.019256588592064614
0.28709988254522406
-0.45282958586060224
0.019256588592064614
0.28709988254522406
-0.4528077666138286
0.01940130448741181
0.28719070691742626
-0.4528077666138286
0.01940130448741181
0.28719070691742626
-0.4528077666138286
0.01940130448741181
0.28719070691742626
-0.4528077666138286
0.01940130448741181
0.28719070691742626
-0.4533398829632954
0.020078925957784113
0.2870471786883152
-0.4533398829632954
0.020078925957784113
0.2870471786883152
-0.4533398829632954
0.020078925957784113
0.2870471786883152
-0.4533398829632954
0.020078925957784113
0.2870471786883152
-0.4537993835204656
0.02041349251797769
0.2871072306009548
-0.4537993835204656
0.02041349251797769
0.2871072306009548
-0.4537993835204656
0.02041349251797769
0.2871072306009548
-0.4537993835204656
0.02041349251797769
0.2871072306009548
-0.4528436153485395
0.02098779406340456
0.28746274004811595
-0.4528436153485395
0.02098779406340456
0.28746274004811595
-0.4528436153485395
0.02098779406340456
0.28746274004811595
-0.4528436153485395
0.02098779406340456
0.28746274004811595
-0.45110477308453595
0.021772020899892854
0.2881329027550555
-0.45110477308453595
0.021772020899892854
0.2881329027550555
-0.45110477308453595
0.021772020899892854
0.2881329027550555
-0.45110477308453595
0.021772020899892854
0.2881329027550555
-0.44989704851472934
0.02239202646520721
0.2888537982502739
-0.44989704851472934
0.02239202646520721
0.2888537982502739
-0.44989704851472934
0.02239202646520721
0.2888537982502739
-0.44989704851472934
0.02239202646520721
0.2888537982502739
-0.4486730021837224
0.023091187335999686
0.289928964245712
-0.4486730021837224
0.023091187335999686
0.289928964245712
-0.4486730021837224
0.023091187335999686
0.289928964245712
-0.4486730021837224
0.023091187335999686
0.289928964245712
-0.4482147429943945
0.023836758805796634
0.29126913584520076
-0.4482147429943945
0.023836758805796634
0.29126913584520076
-0.4482147429943945
0.023836758805796634
0.29126913584520076
-0.4482147429943945
0.023836758805796634
0.29126913584520076
-0.44714512864527245
0.024464648272367804
0.29250177846037884
-0.44714512864527245
0.024464648272367804
0.29250177846037884
-0.44714512864527245
0.024464648272367804
0.29250177846037884
-0.44714512864527245
0.024464648272367804
0.29250177846037884
-0.44622271628587395
0.024723003474718615
0.29367431226349466
-0.44622271628587395
0.024723003474718615
0.29367431226349466
-0.44622271628587395
0.024723003474718615
0.29367431226349466
-0.44622271628587395
0.024723003474718615
0.29367431226349466
-0.4454669622242821
0.024858585786974176
0.2947673188369044
-0.4454669622242821
0.024858585786974176
0.2947673188369044
-0.4454669622242821
0.024858585786974176
0.2947673188369044
-0.4454669622242821
0.024858585786974176
0.2947673188369044
-0.4441117383826123
0.024822719949704575
0.2955168450390888
-0.4441117383826123
0.024822719949704575
0.2955168450390888
-0.4441117383826123
0.024822719949704575
0.2955168450390888
-0.4441117383826123
0.024822719949704575
0.2955168450390888
-0.44356974392027504
0.02437078150964287
0.2961207581291674
-0.44356974392027504
0.02437078150964287
0.2961207581291674
-0.44356974392027504
0.02437078150964287
0.2961207581291674
-0.44356974392027504
0.02437078150964287
0.2961207581291674
-0.4441560764176713
0.023778765574258415
0.29700810294138574
-0.4441560764176713
0.023778765574258415
0.29700810294138574
-0.4441560764176713
0.023778765574258415
0.29700810294138574
-0.4441560764176713
0.023778765574258415
0.29700810294138574
-0.4443410081811921
0.0236381637561415
0.2979413382906339
-0.4443410081811921
0.0236381637561415
0.2979413382906339
-0.4443410081811921
0.0236381637561415
0.2979413382906339
-0.4443410081811921
0.0236381637561415
0.2979413382906339
-0.4443836444521392
0.023298983841209608
0.2986360039064583
-0.4443836444521392
0.023298983841209608
0.2986360039064583
-0.4443836444521392
0.023298983841209608
0.2986360039064583
-0.4443836444521392
0.023298983841209608
0.2986360039064583
-0.4435441470182749
0.023217421481520256
0.2994068664569462
-0.4435441470182749
0.023217421481520256
0.2994068664569462
-0.4435441470182749
0.023217421481520256
0.2994068664569462
-0.4435441470182749
0.023217421481520256
0.2994068664569462
-0.44285403918769906
0.022767683824916726
0.3001159455319215
-0.44285403918769906
0.022767683824916726
0.3001159455319215
-0.44285403918769906
0.022767683824916726
0.3001159455319215
-0.44285403918769906
0.022767683824916726
0.3001159455319215
-0.44276548124032566
0.022677742509987175
0.3008983105574264
-0.44276548124032566
0.022677742509987175
0.3008983105574264
-0.44276548124032566
0.022677742509987175
0.3008983105574264
-0.44276548124032566
0.022677742509987175
0.3008983105574264
-0.4423974927159046
0.022664960498911757
0.3016475203133522
-0.4423974927159046
0.022664960498911757
0.3016475203133522
-0.4423974927159046
0.022664960498911757
0.3016475203133522
-0.4423974927159046
0.022664960498911757
0.3016475203133522
-0.44264355016371676
0.021968648999601
0.30231501728960014
-0.44264355016371676
0.021968648999601
0.30231501728960014
-0.44264355016371676
0.021968648999601
0.30231501728960014
-0.44264355016371676
0.021968648999601
0.30231501728960014
-0.4425190132780163
0.021337198326480702
0.3029722671147636
-0.4425190132780163
0.021337198326480702
0.3029722671147636
-0.4425190132780163
0.021337198326480702
0.3029722671147636
-0.4425190132780163
0.021337198326480702
0.3029722671147636
-0.4422685473847138
0.02056484912151998
0.3036432955882297
-0.4422685473847138
0.02056484912151998
0.3036432955882297
-0.4422685473847138
0.02056484912151998
0.3036432955882297
-0.4422685473847138
0.02056484912151998
0.3036432955882297
-0.4425357123789009
0.019575401146467792
0.30411027921002554
-0.4425357123789009
0.019575401146467792
0.30411027921002554
-0.4425357123789009
0.019575401146467792
0.30411027921002554
-0.4425357123789009
0.019575401146467792
0.30411027921002554
-0.44201462793496366
0.018225913003106775
0.3046661240614169
-0.44201462793496366
0.018225913003106775
0.3046661240614169
-0.44201462793496366
0.018225913003106775
0.3046661240614169
-0.44201462793496366
0.018225913003106775
0.3046661240614169
-0.44200615254800185
0.016685756150320145
0.30513588896306565
-0.44200615254800185
0.016685756150320145
0.30513588896306565
-0.44200615254800185
0.016685756150320145
0.30513588896306565
-0.44200615254800185
0.016685756150320145
0.30513588896306565
-0.442741160478881
0.015205422328876653
0.30535824210978857
-0.442741160478881
0.015205422328876653
0.30535824210978857
-0.442741160478881
0.015205422328876653
0.30535824210978857
-0.442741160478881
0.015205422328876653
0.30535824210978857
-0.4439101377588989
0.014207920357262798
0.30573616108297974
-0.4439101377588989
0.014207920357262798
0.30573616108297974
-0.4439101377588989
0.014207920357262798
0.30573616108297974
-0.4439101377588989
0.014207920357262798
0.30573616108297974
-0.4445249514415418
0.013525473599653195
0.3056577462994625
-0.4445249514415418
0.013525473599653195
0.3056577462994625
-0.4445249514415418
0.013525473599653195
0.3056577462994625
-0.4445249514415418
0.013525473599653195
0.3056577462994625
-0.44538519533458076
0.013602931968755559
0.3054059910332197
-0.44538519533458076
0.013602931968755559
0.3054059910332197
-0.44538519533458076
0.013602931968755559
0.3054059910332197
-0.44538519533458076
0.013602931968755559
0.3054059910332197
-0.4453672679374172
0.013720623398503856
0.3053794681160744
-0.4453672679374172
0.013720623398503856
0.3053794681160744
-0.4453672679374172
0.013720623398503856
0.3053794681160744
-0.4453672679374172
0.013720623398503856
0.3053794681160744
-0.4461201308438752
0.014503952318334436
0.30496820753455023
-0.4461201308438752
0.014503952318334436
0.30496820753455023
-0.4461201308438752
0.014503952318334436
0.30496820753455023
-0.4461201308438752
0.014503952318334436
0.30496820753455023
-0.4471788923061306
0.015854085658688878
0.3040730146018088
-0.4471788923061306
0.015854085658688878
0.3040730146018088
-0.4471788923061306
0.015854085658688878
0.3040730146018088
-0.4471788923061306
0.015854085658688878
0.3040730146018088
-0.4481933397164876
0.01813083553588274
0.30282241826247247
-0.4481933397164876
0.01813083553588274
0.30282241826247247
-0.4481933397164876
0.01813083553588274
0.30282241826247247
-0.4481933397164876
0.01813083553588274
0.30282241826247247
-0.44892552831789584
0.02132490656022136
0.30134368515471
-0.44892552831789584
0.02132490656022136
0.30134368515471
-0.44892552831789584
0.02132490656022136
0.30134368515471
-0.44892552831789584
0.02132490656022136
0.30134368515471
-0.4507523544227912
0.025719381948256886
0.2988684012510527
-0.4507523544227912
0.025719381948256886
0.2988684012510527
-0.4507523544227912
0.025719381948256886
0.2988684012510527
-0.4507523544227912
0.025719381948256886
0.2988684012510527
-0.45244513041805745
0.03125490831738558
0.2965137947338601
-0.45244513041805745
0.03125490831738558
0.2965137947338601
-0.45244513041805745
0.03125490831738558
0.2965137947338601
-0.45244513041805745
0.03125490831738558
0.2965137947338601
-0.45197004714307903
0.036794557923264734
0.2939714190908261
-0.45197004714307903
0.036794557923264734
0.2939714190908261
-0.45197004714307903
0.036794557923264734
0.2939714190908261
-0.45197004714307903
0.036794557923264734
0.2939714190908261
-0.4515823807822918
0.043707980634449035
0.29239024793501794
-0.4515823807822918
0.043707980634449035
0.29239024793501794
-0.4515823807822918
0.043707980634449035
0.29239024793501794
-0.4515823807822918
0.043707980634449035
0.29239024793501794
-0.4514915301899716
0.050517291853732556
0.29072270654128285
-0.4514915301899716
0.050517291853732556
0.29072270654128285
-0.4514915301899716
0.050517291853732556
0.29072270654128285
-0.4514915301899716
0.050517291853732556
0.29072270654128285
-0.45401419172265567
0.05778294429245852
0.28985165446862243
-0.45401419172265567
0.05778294429245852
0.28985165446862243
-0.45401419172265567
0.05778294429245852
0.28985165446862243
-0.45401419172265567
0.05778294429245852
0.28985165446862243
-0.45221915347570624
0.06063184931667679
0.28805983115180844
-0.45221915347570624
0.06063184931667679
0.28805983115180844
-0.45221915347570624
0.06063184931667679
0.28805983115180844
-0.45221915347570624
0.06063184931667679
0.28805983115180844
-0.45071592083144085
0.06244165967746877
0.2848731693499956
-0.45071592083144085
0.06244165967746877
0.2848731693499956
-0.45071592083144085
0.06244165967746877
0.2848731693499956
-0.45071592083144085
0.06244165967746877
0.2848731693499956
-0.4491480435277271
0.06542619378034734
0.2824147018572672
-0.4491480435277271
0.06542619378034734
0.2824147018572672
-0.4491480435277271
0.06542619378034734
0.2824147018572672
-0.4491480435277271
0.06542619378034734
0.2824147018572672
-0.45260885689185115
0.06714907665590282
0.28000806152447133
-0.45260885689185115
0.06714907665590282
0.28000806152447133
-0.45260885689185115
0.06714907665590282
0.28000806152447133
-0.45260885689185115
0.06714907665590282
0.28000806152447133
-0.4555436834680698
0.06899637808421455
0.2752776376797508
-0.4555436834680698
0.06899637808421455
0.2752776376797508
-0.4555436834680698
0.06899637808421455
0.2752776376797508
-0.4555436834680698
0.06899637808421455
0.2752776376797508
-0.45042275509897894
0.07027011688829277
0.27474180498059275
-0.45042275509897894
0.07027011688829277
0.27474180498059275
-0.45042275509897894
0.07027011688829277
0.27474180498059275
-0.45042275509897894
0.07027011688829277
0.27474180498059275
-0.45194337153588465
0.06932977930480286
0.2735561463524183
-0.45194337153588465
0.06932977930480286
0.2735561463524183
-0.45194337153588465
0.06932977930480286
0.2735561463524183
-0.45194337153588465
0.06932977930480286
0.2735561463524183
-0.45854230973182514
0.0683810511048638
0.2708450716443539
-0.45854230973182514
0.0683810511048638
0.2708450716443539
-0.45854230973182514
0.0683810511048638
0.2708450716443539
-0.45854230973182514
0.0683810511048638
0.2708450716443539
-0.46325781783663295
0.06521889155258488
0.26801588161840156
-0.46325781783663295
0.06521889155258488
0.26801588161840156
-0.46325781783663295
0.06521889155258488
0.26801588161840156
-0.46325781783663295
0.06521889155258488
0.26801588161840156
-0.4623614381370782
0.05922579778458169
0.2662298205094265
-0.4623614381370782
0.05922579778458169
0.2662298205094265
-0.4623614381370782
0.05922579778458169
0.2662298205094265
-0.4623614381370782
0.05922579778458169
0.2662298205094265
-0.4608258865313703
0.050529191058123556
0.26672394326580173
-0.4608258865313703
0.050529191058123556
0.26672394326580173
-0.4608258865313703
0.050529191058123556
0.26672394326580173
-0.4608258865313703
0.050529191058123556
0.26672394326580173
-0.4605688587406076
0.04167018269103816
0.26737308795697556
-0.4605688587406076
0.04167018269103816
0.26737308795697556
-0.4605688587406076
0.04167018269103816
0.26737308795697556
-0.4605688587406076
0.04167018269103816
0.26737308795697556
-0.46293658498975104
0.034951788201003135
0.2659236671090078
-0.46293658498975104
0.034951788201003135
0.2659236671090078
-0.46293658498975104
0.034951788201003135
0.2659236671090078
-0.46293658498975104
0.034951788201003135
0.2659236671090078
-0.46341943498211136
0.02937453261367509
0.26559855144704264
-0.46341943498211136
0.02937453261367509
0.26559855144704264
-0.46341943498211136
0.02937453261367509
0.26559855144704264
-0.46341943498211136
0.02937453261367509
0.26559855144704264
-0.4594222747961407
0.023452255539577554
0.26854100737949194
-0.4594222747961407
0.023452255539577554
0.26854100737949194
-0.4594222747961407
0.023452255539577554
0.26854100737949194
-0.4594222747961407
0.023452255539577554
0.26854100737949194
-0.4566989406299846
0.018064145416437347
0.27252409651229575
-0.4566989406299846
0.018064145416437347
0.27252409651229575
-0.4566989406299846
0.018064145416437347
0.27252409651229575
-0.4566989406299846
0.018064145416437347
0.27252409651229575
-0.45669369569881113
0.01364351911726873
0.27417217222920853
-0.45669369569881113
0.01364351911726873
0.27417217222920853
-0.45669369569881113
0.01364351911726873
0.27417217222920853
-0.45669369569881113
0.01364351911726873
0.27417217222920853
-0.46012934018408524
0.011359034663282704
0.2726410338406126
-0.46012934018408524
0.011359034663282704
0.2726410338406126
-0.46012934018408524
0.011359034663282704
0.2726410338406126
-0.46012934018408524
0.011359034663282704
0.2726410338406126
-0.464227135887334
0.010782093544634448
0.2704953753782577
-0.464227135887334
0.010782093544634448
0.2704953753782577
-0.464227135887334
0.010782093544634448
0.2704953753782577
-0.464227135887334
0.010782093544634448
0.2704953753782577
-0.46399241927208257
0.01123513503100226
0.2698585055261422
-0.46399241927208257
0.01123513503100226
0.2698585055261422
-0.46399241927208257
0.01123513503100226
0.2698585055261422
-0.46399241927208257
0.01123513503100226
0.2698585055261422
-0.46167506157792026
0.01174645965107245
0.2706948154691057
-0.46167506157792026
0.01174645965107245
0.2706948154691057
-0.46167506157792026
0.01174645965107245
0.2706948154691057
-0.46167506157792026
0.01174645965107245
0.2706948154691057
-0.46157588009282485
0.012650502518539518
0.2713696479860897
-0.46157588009282485
0.012650502518539518
0.2713696479860897
-0.46157588009282485
0.012650502518539518
0.2713696479860897
-0.46157588009282485
0.012650502518539518
0.2713696479860897
-0.4642408415759051
0.01332287049260235
0.27051600382515356
-0.4642408415759051
0.01332287049260235
0.27051600382515356
-0.4642408415759051
0.01332287049260235
0.27051600382515356
-0.4642408415759051
0.01332287049260235
0.27051600382515356
-0.4662221915414887
0.01440814179514255
0.26967428502947033
-0.4662221915414887
0.01440814179514255
0.26967428502947033
-0.4662221915414887
0.01440814179514255
0.26967428502947033
-0.4662221915414887
0.01440814179514255
0.26967428502947033
-0.46468222445686974
0.0164990417989555
0.2697784429317184
-0.46468222445686974
0.0164990417989555
0.2697784429317184
-0.46468222445686974
0.0164990417989555
0.2697784429317184
-0.46468222445686974
0.0164990417989555
0.2697784429317184
-0.4612569476598337
0.019639963278268502
0.27061716013434295
-0.4612569476598337
0.019639963278268502
0.27061716013434295
-0.4612569476598337
0.019639963278268502
0.27061716013434295
-0.4612569476598337
0.019639963278268502
0.27061716013434295
-0.45866784132517885
0.02211638116406999
0.2713801372082409
-0.45866784132517885
0.02211638116406999
0.2713801372082409
-0.45866784132517885
0.02211638116406999
0.2713801372082409
-0.45866784132517885
0.02211638116406999
0.2713801372082409
-0.4582723246735084
0.024086176155971906
0.27191849707106786
-0.4582723246735084
0.024086176155971906
0.27191849707106786
-0.4582723246735084
0.024086176155971906
0.27191849707106786
-0.4582723246735084
0.024086176155971906
0.27191849707106786
-0.4616064141112535
0.02584912645460923
0.2725941546187412
-0.4616064141112535
0.02584912645460923
0.2725941546187412
-0.4616064141112535
0.02584912645460923
0.2725941546187412
-0.4616064141112535
0.02584912645460923
0.2725941546187412
-0.46195404256157907
0.028007316445929343
0.273482714194735
-0.46195404256157907
0.028007316445929343
0.273482714194735
-0.46195404256157907
0.028007316445929343
0.273482714194735
-0.46195404256157907
0.028007316445929343
0.273482714194735
-0.45991235316245427
0.029522022393115004
0.27576550352749984
-0.45991235316245427
0.029522022393115004
0.27576550352749984
-0.45991235316245427
0.029522022393115004
0.27576550352749984
-0.45991235316245427
0.029522022393115004
0.27576550352749984
-0.4593814616391048
0.030988813026871242
0.27908332682429876
-0.4593814616391048
0.030988813026871242
0.27908332682429876
-0.4593814616391048
0.030988813026871242
0.27908332682429876
-0.4593814616391048
0.030988813026871242
0.27908332682429876
-0.46126514446013916
0.03159885056353085
0.2826519107144216
-0.46126514446013916
0.03159885056353085
0.2826519107144216
-0.46126514446013916
0.03159885056353085
0.2826519107144216
-0.46126514446013916
0.03159885056353085
0.2826519107144216
-0.46614333795950313
0.03319837012906237
0.2847673657868314
-0.46614333795950313
0.03319837012906237
0.2847673657868314
-0.46614333795950313
0.03319837012906237
0.2847673657868314
-0.46614333795950313
0.03319837012906237
0.2847673657868314
-0.4690701400305034
0.03422937535511876
0.28672703720174847
-0.4690701400305034
0.03422937535511876
0.28672703720174847
-0.46909962195034044
0.03254343000522953
0.2886562421400071
-0.46909962195034044
0.03254343000522953
0.2886562421400071
-0.46909962195034044
0.03254343000522953
0.2886562421400071
-0.46909962195034044
0.03254343000522953
0.2886562421400071
-0.46349005896671086
0.03032834082429303
0.29084563207947683
-0.46349005896671086
0.03032834082429303
0.29084563207947683
-0.46349005896671086
0.03032834082429303
0.29084563207947683
-0.46349005896671086
0.03032834082429303
0.29084563207947683
-0.4614547714672248
0.026822934993348382
0.291236720838635
-0.4614547714672248
0.026822934993348382
0.291236720838635
-0.4614547714672248
0.026822934993348382
0.291236720838635
-0.4614547714672248
0.026822934993348382
0.291236720838635
-0.4541022346521049
0.024975691328324955
0.2907455464290271
-0.4541022346521049
0.024975691328324955
0.2907455464290271
-0.4541022346521049
0.024975691328324955
0.2907455464290271
-0.4541022346521049
0.024975691328324955
0.2907455464290271
-0.44595596856996333
0.021584027713520526
0.29451340339593757
-0.44595596856996333
0.021584027713520526
0.29451340339593757
-0.44595596856996333
0.021584027713520526
0.29451340339593757
-0.44595596856996333
0.021584027713520526
0.29451340339593757
-0.4345181282011557
0.011653963543064758
0.29566473030174445
-0.4345181282011557
0.011653963543064758
0.29566473030174445
-0.4345181282011557
0.011653963543064758
0.29566473030174445
-0.4345181282011557
0.011653963543064758
0.29566473030174445
-0.4313053683061316
0.0036947622310926913
0.3047742944536298
-0.4313053683061316
0.0036947622310926913
0.3047742944536298
-0.4313053683061316
0.0036947622310926913
0.3047742944536298
-0.4313053683061316
0.0036947622310926913
0.3047742944536298
-0.43055854158335677
-0.002321672556005824
0.31075578238359136
-0.43055854158335677
-0.002321672556005824
0.31075578238359136
-0.43055854158335677
-0.002321672556005824
0.31075578238359136
-0.43055854158335677
-0.002321672556005824
0.31075578238359136
-0.4377985581302905
-0.006844655675298339
0.31607218164476697
-0.4377985581302905
-0.006844655675298339
0.31607218164476697
-0.4377985581302905
-0.006844655675298339
0.31607218164476697
-0.4377985581302905
-0.006844655675298339
0.31607218164476697
-0.4416557750055113
-0.01196078261104901
0.32218463824386284
-0.4416557750055113
-0.01196078261104901
0.32218463824386284
-0.4416557750055113
-0.01196078261104901
0.32218463824386284
-0.4416557750055113
-0.01196078261104901
0.32218463824386284
-0.437970158989742
-0.014508925268339192
0.32653618105933596
-0.437970158989742
-0.014508925268339192
0.32653618105933596
-0.437970158989742
-0.014508925268339192
0.32653618105933596
-0.437970158989742
-0.014508925268339192
0.32653618105933596
-0.43255767344064655
-0.016786495744625884
0.32767785802314875
-0.43255767344064655
-0.016786495744625884
0.32767785802314875
-0.43255767344064655
-0.016786495744625884
0.32767785802314875
-0.43255767344064655
-0.016786495744625884
0.32767785802314875
-0.4291053823629536
-0.017540579401345218
0.32680767563270385
-0.4291053823629536
-0.017540579401345218
0.32680767563270385
-0.4291053823629536
-0.017540579401345218
0.32680767563270385
-0.4291053823629536
-0.017540579401345218
0.32680767563270385
-0.4325742039714431
-0.01708941679569536
0.3268609930510496
-0.4325742039714431
-0.01708941679569536
0.3268609930510496
-0.4325742039714431
-0.01708941679569536
0.3268609930510496
-0.4325742039714431
-0.01708941679569536
0.3268609930510496
-0.4404821352469856
-0.016094179259587487
0.3261064091960413
-0.4404821352469856
-0.016094179259587487
0.3261064091960413
-0.4404821352469856
-0.016094179259587487
0.3261064091960413
-0.4404821352469856
-0.016094179259587487
0.3261064091960413
-0.44301456334978373
-0.013467482646624845
0.32411444955105256
-0.44301456334978373
-0.013467482646624845
0.32411444955105256
-0.44301456334978373
-0.013467482646624845
0.32411444955105256
-0.44301456334978373
-0.013467482646624845
0.32411444955105256
-0.442721157187737
-0.009842512516424085
0.3223919591861639
-0.442721157187737
-0.009842512516424085
0.3223919591861639
-0.442721157187737
-0.009842512516424085
0.3223919591861639
-0.442721157187737
-0.009842512516424085
0.3223919591861639
-0.44244608607618235
-0.006471088140089286
0.32009027812794283
-0.44244608607618235
-0.006471088140089286
0.32009027812794283
-0.44244608607618235
-0.006471088140089286
0.32009027812794283
-0.44244608607618235
-0.006471088140089286
0.32009027812794283
-0.4427231406799381
-0.003721039293211547
0.3186075532925305
-0.4427231406799381
-0.003721039293211547
0.3186075532925305
-0.4427231406799381
-0.003721039293211547
0.3186075532925305
-0.4427231406799381
-0.003721039293211547
0.3186075532925305
-0.4434605055660157
-0.001214109548518075
0.319071850094557
-0.4434605055660157
-0.001214109548518075
0.319071850094557
-0.4434605055660157
-0.001214109548518075
0.319071850094557
-0.4434605055660157
-0.001214109548518075
0.319071850094557
-0.44410088938209175
0.0020557126205420057
0.3196291314103801
-0.44410088938209175
0.0020557126205420057
0.3196291314103801
-0.44410088938209175
0.0020557126205420057
0.3196291314103801
-0.44410088938209175
0.0020557126205420057
0.3196291314103801
-0.4441502418776962
0.0049076396330657085
0.3198698248649952
-0.4441502418776962
0.0049076396330657085
0.3198698248649952
-0.4441502418776962
0.0049076396330657085
0.3198698248649952
-0.4441502418776962
0.0049076396330657085
0.3198698248649952
-0.4427210095867009
0.007614702097112273
0.3199853773019454
-0.4427210095867009
0.007614702097112273
0.3199853773019454
-0.4427210095867009
0.007614702097112273
0.3199853773019454
-0.4427210095867009
0.007614702097112273
0.3199853773019454
-0.44179947099766415
0.010161962970087236
0.3201379457157326
-0.44179947099766415
0.010161962970087236
0.3201379457157326
-0.44179947099766415
0.010161962970087236
0.3201379457157326
-0.44179947099766415
0.010161962970087236
0.3201379457157326
-0.44252585375815556
0.012131737835290693
0.32049221726562305
-0.44252585375815556
0.012131737835290693
0.32049221726562305
-0.44252585375815556
0.012131737835290693
0.32049221726562305
-0.44252585375815556
0.012131737835290693
0.32049221726562305
-0.4445531581842615
0.01368111532623141
0.32082723698378846
-0.4445531581842615
0.01368111532623141
0.32082723698378846
-0.4445531581842615
0.01368111532623141
0.32082723698378846
-0.4445531581842615
0.01368111532623141
0.32082723698378846
-0.44515387340430107
0.014759549196773619
0.32123678464736516
-0.44515387340430107
0.014759549196773619
0.32123678464736516
-0.44515387340430107
0.014759549196773619
0.32123678464736516
-0.44515387340430107
0.014759549196773619
0.32123678464736516
-0.44558365897506846
0.015245696385661775
0.3213905641414432
-0.44558365897506846
0.015245696385661775
0.3213905641414432
-0.44558365897506846
0.015245696385661775
0.3213905641414432
-0.44558365897506846
0.015245696385661775
0.3213905641414432
-0.44558365897506846
0.015245696385661775
0.3213905641414432
-0.44558365897506846
0.015245696385661775
0.3213905641414432
-0.44558365897506846
0.015245696385661775
0.3213905641414432
-0.44558365897506846
0.015245696385661775
0.3213905641414432
-0.4454376444110398
0.01464674095753875
0.3216509037627628
-0.4454376444110398
0.01464674095753875
0.3216509037627628
-0.4454376444110398
0.01464674095753875
0.3216509037627628
-0.4454376444110398
0.01464674095753875
0.3216509037627628
-0.44567037635813606
0.013347390449968627
0.32245786236871166
-0.44567037635813606
0.013347390449968627
0.32245786236871166
-0.44567037635813606
0.013347390449968627
0.32245786236871166
-0.44567037635813606
0.013347390449968627
0.32245786236871166
-0.4459966438995929
0.011636262467763874
0.32362528389747536
-0.4459966438995929
0.011636262467763874
0.32362528389747536
-0.4459966438995929
0.011636262467763874
0.32362528389747536
-0.4459966438995929
0.011636262467763874
0.32362528389747536
-0.446199973356649
0.00978385291441935
0.32480570486144444
-0.446199973356649
0.00978385291441935
0.32480570486144444
-0.446199973356649
0.00978385291441935
0.32480570486144444
-0.446199973356649
0.00978385291441935
0.32480570486144444
-0.4465039797155422
0.008079554431444542
0.32545847658840177
-0.4465039797155422
0.008079554431444542
0.32545847658840177
-0.4465039797155422
0.008079554431444542
0.32545847658840177
-0.4465039797155422
0.008079554431444542
0.32545847658840177
-0.44689288122821424
0.00660296937394603
0.32593627413888154
-0.44689288122821424
0.00660296937394603
0.32593627413888154
-0.44689288122821424
0.00660296937394603
0.32593627413888154
-0.44689288122821424
0.00660296937394603
0.32593627413888154
-0.4470998363815366
0.005337487923524523
0.32634677259387546
-0.4470998363815366
0.005337487923524523
0.32634677259387546
-0.4470998363815366
0.005337487923524523
0.32634677259387546
-0.4470998363815366
0.005337487923524523
0.32634677259387546
-0.44768096970565047
0.004172093096342435
0.3263838307718599
-0.44768096970565047
0.004172093096342435
0.3263838307718599
-0.44768096970565047
0.004172093096342435
0.3263838307718599
-0.44768096970565047
0.004172093096342435
0.3263838307718599
-0.4481674750416615
0.0034183837637160644
0.32606044744800633
-0.4481674750416615
0.0034183837637160644
0.32606044744800633
-0.4481674750416615
0.0034183837637160644
0.32606044744800633
-0.4481674750416615
0.0034183837637160644
0.32606044744800633
-0.44873721646404663
0.002891898577037353
0.32556189730900953
-0.44873721646404663
0.002891898577037353
0.32556189730900953
-0.44873721646404663
0.002891898577037353
0.32556189730900953
-0.44873721646404663
0.002891898577037353
0.32556189730900953
-0.4504285556343513
0.003217222347723261
0.32466050450808326
-0.4504285556343513
0.003217222347723261
0.32466050450808326
-0.4504285556343513
0.003217222347723261
0.32466050450808326
-0.4504285556343513
0.003217222347723261
0.32466050450808326
-0.45093582299335977
0.004553073499259113
0.32348816498912397
-0.45093582299335977
0.004553073499259113
0.32348816498912397
-0.45093582299335977
0.004553073499259113
0.32348816498912397
-0.45093582299335977
0.004553073499259113
0.32348816498912397
-0.45157032496088667
0.006604100314924484
0.32202670547204537
-0.45157032496088667
0.006604100314924484
0.32202670547204537
-0.45157032496088667
0.006604100314924484
0.32202670547204537
-0.45157032496088667
0.006604100314924484
0.32202670547204537
-0.4528829238900916
0.009124624616849965
0.320472566884359
-0.4528829238900916
0.009124624616849965
0.320472566884359
-0.4528829238900916
0.009124624616849965
0.320472566884359
-0.4528829238900916
0.009124624616849965
0.320472566884359
-0.4536632990509892
0.011974474333522823
0.31908923944295214
-0.4536632990509892
0.011974474333522823
0.31908923944295214
-0.4536632990509892
0.011974474333522823
0.31908923944295214
-0.4536632990509892
0.011974474333522823
0.31908923944295214
-0.45407122132288785
0.014725828490542815
0.3180800316025752
-0.45407122132288785
0.014725828490542815
0.3180800316025752
-0.45407122132288785
0.014725828490542815
0.3180800316025752
-0.45407122132288785
0.014725828490542815
0.3180800316025752
-0.4538087112700491
0.017157368427736346
0.31727329696435785
-0.4538087112700491
0.017157368427736346
0.31727329696435785
-0.4538087112700491
0.017157368427736346
0.31727329696435785
-0.4538087112700491
0.017157368427736346
0.31727329696435785
-0.45369924311712684
0.019363021506380723
0.3170124730294413
-0.45369924311712684
0.019363021506380723
0.3170124730294413
-0.45369924311712684
0.019363021506380723
0.3170124730294413
-0.45369924311712684
0.019363021506380723
0.3170124730294413
-0.45349130109607666
0.021432665559453595
0.3167843842500953
-0.45349130109607666
0.021432665559453595
0.3167843842500953
-0.45349130109607666
0.021432665559453595
0.3167843842500953
-0.45349130109607666
0.021432665559453595
0.3167843842500953
-0.45313529799690155
0.02290480667816132
0.3168199758620252
-0.45313529799690155
0.02290480667816132
0.3168199758620252
-0.45313529799690155
0.02290480667816132
0.3168199758620252
-0.45313529799690155
0.02290480667816132
0.3168199758620252
-0.4524239582031927
0.02417156744990037
0.3167641749366571
-0.4524239582031927
0.02417156744990037
0.3167641749366571
-0.4524239582031927
0.02417156744990037
0.3167641749366571
-0.4524239582031927
0.02417156744990037
0.3167641749366571
-0.4521589841064335
0.025093279699488862
0.31655551196499065
-0.4521589841064335
0.025093279699488862
0.31655551196499065
-0.4521589841064335
0.025093279699488862
0.31655551196499065
-0.4521589841064335
0.025093279699488862
0.31655551196499065
-0.4527157346264149
0.025393518504305247
0.3163553544663603
-0.4527157346264149
0.025393518504305247
0.3163553544663603
-0.4527157346264149
0.025393518504305247
0.3163553544663603
-0.4527157346264149
0.025393518504305247
0.3163553544663603
-0.45386990774554214
0.025308779022097577
0.31627602081412576
-0.45386990774554214
0.025308779022097577
0.31627602081412576
-0.45386990774554214
0.025308779022097577
0.31627602081412576
-0.45386990774554214
0.025308779022097577
0.31627602081412576
-0.4546033669591579
0.02482488164189275
0.3164183723257919
-0.4546033669591579
0.02482488164189275
0.3164183723257919
-0.4546033669591579
0.02482488164189275
0.3164183723257919
-0.4546033669591579
0.02482488164189275
0.3164183723257919
-0.45567791653137524
0.024450272369120635
0.3167787690541598
-0.45567791653137524
0.024450272369120635
0.3167787690541598
-0.45567791653137524
0.024450272369120635
0.3167787690541598
-0.45567791653137524
0.024450272369120635
0.3167787690541598
-0.45734757318773717
0.023541324094102888
0.31715290576038097
-0.45734757318773717
0.023541324094102888
0.31715290576038097
-0.45734757318773717
0.023541324094102888
0.31715290576038097
-0.45734757318773717
0.023541324094102888
0.31715290576038097
-0.45838458557618494
0.022652321591171934
0.31751144802803344
-0.45838458557618494
0.022652321591171934
0.31751144802803344
-0.45838458557618494
0.022652321591171934
0.31751144802803344
-0.45838458557618494
0.022652321591171934
0.31751144802803344
-0.4579952576461565
0.021295322915751685
0.31795615082721324
-0.4579952576461565
0.021295322915751685
0.31795615082721324
-0.4579952576461565
0.021295322915751685
0.31795615082721324
-0.4579952576461565
0.021295322915751685
0.31795615082721324
-0.45754407346797127
0.020131325248417584
0.3187069513484013
-0.45754407346797127
0.020131325248417584
0.3187069513484013
-0.45754407346797127
0.020131325248417584
0.3187069513484013
-0.45754407346797127
0.020131325248417584
0.3187069513484013
-0.4580853325723777
0.018412937287781133
0.3191220362557466
-0.4580853325723777
0.018412937287781133
0.3191220362557466
-0.4580853325723777
0.018412937287781133
0.3191220362557466
-0.4580853325723777
0.018412937287781133
0.3191220362557466
-0.45902004480782543
0.016666066052692986
0.3196851954386109
-0.45902004480782543
0.016666066052692986
0.3196851954386109
-0.45902004480782543
0.016666066052692986
0.3196851954386109
-0.45902004480782543
0.016666066052692986
0.3196851954386109
-0.4597360759702567
0.015365076107887298
0.3201272791051723
-0.4597360759702567
0.015365076107887298
0.3201272791051723
-0.4597360759702567
0.015365076107887298
0.3201272791051723
-0.4597360759702567
0.015365076107887298
0.3201272791051723
-0.4601909162286675
0.014206935307342752
0.32029136498956107
-0.4601909162286675
0.014206935307342752
0.32029136498956107
-0.4601909162286675
0.014206935307342752
0.32029136498956107
-0.4601909162286675
0.014206935307342752
0.32029136498956107
-0.4599345282454283
0.013386574659594013
0.32021769055869004
-0.4599345282454283
0.013386574659594013
0.32021769055869004
-0.4599345282454283
0.013386574659594013
0.32021769055869004
-0.4599345282454283
0.013386574659594013
0.32021769055869004
-0.4599298127956176
0.012663658602521598
0.3203869698732368
-0.4599298127956176
0.012663658602521598
0.3203869698732368
-0.4599298127956176
0.012663658602521598
0.3203869698732368
-0.4599298127956176
0.012663658602521598
0.3203869698732368
-0.4614635520064039
0.011892246898235929
0.32037098512913675
-0.4614635520064039
0.011892246898235929
0.32037098512913675
-0.4614635520064039
0.011892246898235929
0.32037098512913675
-0.4614635520064039
0.011892246898235929
0.32037098512913675
-0.4624781002000448
0.011007842232329276
0.32022171894219487
-0.4624781002000448
0.011007842232329276
0.32022171894219487
-0.4624781002000448
0.011007842232329276
0.32022171894219487
-0.4624781002000448
0.011007842232329276
0.32022171894219487
-0.46265744203319076
0.009896938189989926
0.32023479662304694
-0.46265744203319076
0.009896938189989926
0.32023479662304694
-0.46265744203319076
0.009896938189989926
0.32023479662304694
-0.46265744203319076
0.009896938189989926
0.32023479662304694
-0.4628694804226245
0.008578972614133
0.3204205020358121
-0.4628694804226245
0.008578972614133
0.3204205020358121
-0.4628694804226245
0.008578972614133
0.3204205020358121
-0.4628694804226245
0.008578972614133
0.3204205020358121
-0.4632168401323276
0.0073400223538891505
0.3208550497039993
-0.4632168401323276
0.0073400223538891505
0.3208550497039993
-0.4632168401323276
0.0073400223538891505
0.3208550497039993
-0.4632168401323276
0.0073400223538891505
0.3208550497039993
-0.46268849603606266
0.005959079284033129
0.32128603644133313
-0.46268849603606266
0.005959079284033129
0.32128603644133313
-0.46268849603606266
0.005959079284033129
0.32128603644133313
-0.46268849603606266
0.005959079284033129
0.32128603644133313
-0.4622866471882008
0.004718945428002585
0.3217029437628151
-0.4622866471882008
0.004718945428002585
0.3217029437628151
-0.4622866471882008
0.004718945428002585
0.3217029437628151
-0.4622866471882008
0.004718945428002585
0.3217029437628151
-0.4611629882133673
0.0038708789918229206
0.32211204549413014
-0.4611629882133673
0.0038708789918229206
0.32211204549413014
-0.4611629882133673
0.0038708789918229206
0.32211204549413014
-0.4611629882133673
0.0038708789918229206
0.32211204549413014
-0.45990648978796356
0.0038436141823337345
0.32232814768815127
-0.45990648978796356
0.0038436141823337345
0.32232814768815127
-0.45990648978796356
0.0038436141823337345
0.32232814768815127
-0.45990648978796356
0.0038436141823337345
0.32232814768815127
-0.4602241365420784
0.004284773419623231
0.3223680729435369
-0.4602241365420784
0.004284773419623231
0.3223680729435369
-0.4602241365420784
0.004284773419623231
0.3223680729435369
-0.4602241365420784
0.004284773419623231
0.3223680729435369
-0.4608177159637814
0.005252234931619372
0.32228371934541344
-0.4608177159637814
0.005252234931619372
0.32228371934541344
-0.4608177159637814
0.005252234931619372
0.32228371934541344
-0.4608177159637814
0.005252234931619372
0.32228371934541344
-0.4612786049439148
0.007040779535647964
0.3220064024771046
-0.4612786049439148
0.007040779535647964
0.3220064024771046
-0.4612786049439148
0.007040779535647964
0.3220064024771046
-0.4612786049439148
0.007040779535647964
0.3220064024771046
-0.46164044700580514
0.009443228767217234
0.3217081677195387
-0.46164044700580514
0.009443228767217234
0.3217081677195387
-0.46164044700580514
0.009443228767217234
0.3217081677195387
-0.46164044700580514
0.009443228767217234
0.3217081677195387
-0.4619601333052355
0.012107645361015273
0.3214714383157498
-0.4619601333052355
0.012107645361015273
0.3214714383157498
-0.4619601333052355
0.012107645361015273
0.3214714383157498
-0.4619601333052355
0.012107645361015273
0.3214714383157498
-0.46263642923277815
0.015121205285104123
0.3219319112657398
-0.46263642923277815
0.015121205285104123
0.3219319112657398
-0.46263642923277815
0.015121205285104123
0.3219319112657398
-0.46263642923277815
0.015121205285104123
0.3219319112657398
-0.46260918137985063
0.018451779883889137
0.32153924957069413
-0.46260918137985063
0.018451779883889137
0.32153924957069413
-0.46260918137985063
0.018451779883889137
0.32153924957069413
-0.46260918137985063
0.018451779883889137
0.32153924957069413
-0.46300650263546145
0.022939472932535013
0.3203739759508079
-0.46300650263546145
0.022939472932535013
0.3203739759508079
-0.46300650263546145
0.022939472932535013
0.3203739759508079
-0.46300650263546145
0.022939472932535013
0.3203739759508079
-0.46369316783310166
0.02795919834896562
0.3185818231955759
-0.46369316783310166
0.02795919834896562
0.3185818231955759
-0.46369316783310166
0.02795919834896562
0.3185818231955759
-0.46369316783310166
0.02795919834896562
0.3185818231955759
-0.46477460840171386
0.03364511498322711
0.3161260075613113
-0.46477460840171386
0.03364511498322711
0.3161260075613113
-0.46477460840171386
0.03364511498322711
0.3161260075613113
-0.46477460840171386
0.03364511498322711
0.3161260075613113
-0.46593132946194404
0.039795679718538625
0.3129321389664831
-0.46593132946194404
0.039795679718538625
0.3129321389664831
-0.46593132946194404
0.039795679718538625
0.3129321389664831
-0.46593132946194404
0.039795679718538625
0.3129321389664831
-0.4643601363103111
0.045663237690465916
0.3098867408729544
-0.4643601363103111
0.045663237690465916
0.3098867408729544
-0.4643601363103111
0.045663237690465916
0.3098867408729544
-0.4643601363103111
0.045663237690465916
0.3098867408729544
-0.4626980208340548
0.05137492780498985
0.30625128739556995
-0.4626980208340548
0.05137492780498985
0.30625128739556995
-0.4626980208340548
0.05137492780498985
0.30625128739556995
-0.4626980208340548
0.05137492780498985
0.30625128739556995
-0.460508041915504
0.05658123659065755
0.30350390513000985
-0.460508041915504
0.05658123659065755
0.30350390513000985
-0.460508041915504
0.05658123659065755
0.30350390513000985
-0.460508041915504
0.05658123659065755
0.30350390513000985
-0.4589071657967428
0.06130795688716254
0.30100541801252345
-0.4589071657967428
0.06130795688716254
0.30100541801252345
-0.4589071657967428
0.06130795688716254
0.30100541801252345
-0.4589071657967428
0.06130795688716254
0.30100541801252345
-0.461296423681533
0.06672927012362674
0.2982458394006707
-0.461296423681533
0.06672927012362674
0.2982458394006707
-0.461296423681533
0.06672927012362674
0.2982458394006707
-0.461296423681533
0.06672927012362674
0.2982458394006707
-0.46648179303714227
0.06770135853997443
0.29573751151341626
-0.46648179303714227
0.06770135853997443
0.29573751151341626
-0.46648179303714227
0.06770135853997443
0.29573751151341626
-0.46648179303714227
0.06770135853997443
0.29573751151341626
-0.46398821738781676
0.06645726101667292
0.29272228808137085
-0.46398821738781676
0.06645726101667292
0.29272228808137085
-0.46398821738781676
0.06645726101667292
0.29272228808137085
-0.46398821738781676
0.06645726101667292
0.29272228808137085
-0.4591868519819151
0.06722920243482565
0.2889893897156257
-0.4591868519819151
0.06722920243482565
0.2889893897156257
-0.4591868519819151
0.06722920243482565
0.2889893897156257
-0.4591868519819151
0.06722920243482565
0.2889893897156257
-0.4637430291053101
0.06810380990605373
0.28446091641077464
-0.4637430291053101
0.06810380990605373
0.28446091641077464
-0.4637430291053101
0.06810380990605373
0.28446091641077464
-0.4637430291053101
0.06810380990605373
0.28446091641077464
-0.47308453514682247
0.0676567167270415
0.281017775569352
-0.47308453514682247
0.0676567167270415
0.281017775569352
-0.47308453514682247
0.0676567167270415
0.281017775569352
-0.47308453514682247
0.0676567167270415
0.281017775569352
-0.4753236452983705
0.06426611855751689
0.2803056897151934
-0.4753236452983705
0.06426611855751689
0.2803056897151934
-0.4753236452983705
0.06426611855751689
0.2803056897151934
-0.4753236452983705
0.06426611855751689
0.2803056897151934
-0.4762288549955296
0.05927178708697348
0.2816124799230551
-0.4762288549955296
0.05927178708697348
0.2816124799230551
-0.4762288549955296
0.05927178708697348
0.2816124799230551
-0.4762288549955296
0.05927178708697348
0.2816124799230551
-0.47945440033040576
0.05329614205672761
0.2821767625765096
-0.47945440033040576
0.05329614205672761
0.2821767625765096
-0.47945440033040576
0.05329614205672761
0.2821767625765096
-0.47945440033040576
0.05329614205672761
0.2821767625765096
-0.4830696258166832
0.047380634644979276
0.28124338234535623
-0.4830696258166832
0.047380634644979276
0.28124338234535623
-0.4830696258166832
0.047380634644979276
0.28124338234535623
-0.4830696258166832
0.047380634644979276
0.28124338234535623
-0.4818225394149541
0.04053591590315733
0.2799679839064664
-0.4818225394149541
0.04053591590315733
0.2799679839064664
-0.4818225394149541
0.04053591590315733
0.2799679839064664
-0.4818225394149541
0.04053591590315733
0.2799679839064664
-0.4761638383250089
0.03189520436432071
0.2817026154013488
-0.4761638383250089
0.03189520436432071
0.2817026154013488
-0.4761638383250089
0.03189520436432071
0.2817026154013488
-0.4761638383250089
0.03189520436432071
0.2817026154013488
-0.4719725616845994
0.023235618971686106
0.28458091610401975
-0.4719725616845994
0.023235618971686106
0.28458091610401975
-0.4719725616845994
0.023235618971686106
0.28458091610401975
-0.4719725616845994
0.023235618971686106
0.28458091610401975
-0.4707093902364757
0.016138770810641988
0.285356329936277
-0.4707093902364757
0.016138770810641988
0.285356329936277
-0.4707093902364757
0.016138770810641988
0.285356329936277
-0.4707093902364757
0.016138770810641988
0.285356329936277
-0.4728352176121308
0.010107221657012456
0.2848395075722477
-0.4728352176121308
0.010107221657012456
0.2848395075722477
-0.4728352176121308
0.010107221657012456
0.2848395075722477
-0.4728352176121308
0.010107221657012456
0.2848395075722477
-0.473984292155562
0.003951897573136447
0.285965209974964
-0.473984292155562
0.003951897573136447
0.285965209974964
-0.473984292155562
0.003951897573136447
0.285965209974964
-0.473984292155562
0.003951897573136447
0.285965209974964
-0.47350233686739984
-0.0018474823010367883
0.28798687252182587
-0.47350233686739984
-0.0018474823010367883
0.28798687252182587
-0.47350233686739984
-0.0018474823010367883
0.28798687252182587
-0.47350233686739984
-0.0018474823010367883
0.28798687252182587
-0.4716589578699454
-0.004810951901299957
0.288376756862406
-0.4716589578699454
-0.004810951901299957
0.288376756862406
-0.4716589578699454
-0.004810951901299957
0.288376756862406
-0.4716589578699454
-0.004810951901299957
0.288376756862406
-0.47293969127165003
-0.006021653984416783
0.2873227816327674
-0.47293969127165003
-0.006021653984416783
0.2873227816327674
-0.47293969127165003
-0.006021653984416783
0.2873227816327674
-0.47293969127165003
-0.006021653984416783
0.2873227816327674
-0.47404581607247626
-0.0066389260718083855
0.28726259764133805
-0.47404581607247626
-0.0066389260718083855
0.28726259764133805
-0.47404581607247626
-0.0066389260718083855
0.28726259764133805
-0.47404581607247626
-0.0066389260718083855
0.28726259764133805
-0.47354262339830544
-0.00645169762668002
0.28833426794305655
-0.47354262339830544
-0.00645169762668002
0.28833426794305655
-0.47354262339830544
-0.00645169762668002
0.28833426794305655
-0.47354262339830544
-0.00645169762668002
0.28833426794305655
-0.472317891492991
-0.004811056705418236
0.2890356904854518
-0.472317891492991
-0.004811056705418236
0.2890356904854518
-0.472317891492991
-0.004811056705418236
0.2890356904854518
-0.472317891492991
-0.004811056705418236
0.2890356904854518
-0.4704063904601734
-0.001956659336013246
0.2899256903779404
-0.4704063904601734
-0.001956659336013246
0.2899256903779404
-0.4704063904601734
-0.001956659336013246
0.2899256903779404
-0.4704063904601734
-0.001956659336013246
0.2899256903779404
-0.47029376206869705
0.0012361866811744528
0.29221414960531117
-0.47029376206869705
0.0012361866811744528
0.29221414960531117
-0.47029376206869705
0.0012361866811744528
0.29221414960531117
-0.47029376206869705
0.0012361866811744528
0.29221414960531117
-0.46970569016315117
0.004949324420865473
0.29535445147271394
-0.46970569016315117
0.004949324420865473
0.29535445147271394
-0.46970569016315117
0.004949324420865473
0.29535445147271394
-0.46970569016315117
0.004949324420865473
0.29535445147271394
-0.46837776671909476
0.009334026152321538
0.2980723930271725
-0.46837776671909476
0.009334026152321538
0.2980723930271725
-0.46837776671909476
0.009334026152321538
0.2980723930271725
-0.46837776671909476
0.009334026152321538
0.2980723930271725
-0.46634744523026306
0.013982081999867996
0.29970767453053204
-0.46634744523026306
0.013982081999867996
0.29970767453053204
-0.46634744523026306
0.013982081999867996
0.29970767453053204
-0.46634744523026306
0.013982081999867996
0.29970767453053204
-0.4649111057690207
0.01866648694696445
0.3005933985283911
-0.4649111057690207
0.01866648694696445
0.3005933985283911
-0.4649111057690207
0.01866648694696445
0.3005933985283911
-0.4649111057690207
0.01866648694696445
0.3005933985283911
-0.46341194971590555
0.022917086537370252
0.3018366143545661
-0.46341194971590555
0.022917086537370252
0.3018366143545661
-0.46341194971590555
0.022917086537370252
0.3018366143545661
-0.46341194971590555
0.022917086537370252
0.3018366143545661
-0.4657581142449414
0.026256668820351384
0.3031534577164941
-0.4657581142449414
0.026256668820351384
0.3031534577164941
-0.4657581142449414
0.026256668820351384
0.3031534577164941
-0.4657581142449414
0.026256668820351384
0.3031534577164941
-0.4684514194731305
0.02939071476395168
0.3033522353009492
-0.4684514194731305
0.02939071476395168
0.3033522353009492
-0.4684514194731305
0.02939071476395168
0.3033522353009492
-0.4684514194731305
0.02939071476395168
0.3033522353009492
-0.47147072634857
0.03212460019352843
0.30377666295857936
-0.47147072634857
0.03212460019352843
0.30377666295857936
-0.47147072634857
0.03212460019352843
0.30377666295857936
-0.47147072634857
0.03212460019352843
0.30377666295857936
-0.47211828590903343
0.03479302116814041
0.304938156124207
-0.47211828590903343
0.03479302116814041
0.304938156124207
-0.47211828590903343
0.03479302116814041
0.304938156124207
-0.47211828590903343
0.03479302116814041
0.304938156124207
-0.4698120999317246
0.036849950727561503
0.30707245358835883
-0.4698120999317246
0.036849950727561503
0.30707245358835883
-0.4698120999317246
0.036849950727561503
0.30707245358835883
-0.4698120999317246
0.036849950727561503
0.30707245358835883
-0.4663135369277749
0.0384489029439906
0.3091799510044722
-0.4663135369277749
0.0384489029439906
0.3091799510044722
-0.4663135369277749
0.0384489029439906
0.3091799510044722
-0.4663135369277749
0.0384489029439906
0.3091799510044722
-0.4618365542229378
0.03794581492535166
0.3106121479433141
-0.4618365542229378
0.03794581492535166
0.3106121479433141
-0.4618365542229378
0.03794581492535166
0.3106121479433141
-0.4618365542229378
0.03794581492535166
0.3106121479433141
-0.4599583794612159
0.036267062947443744
0.31123064750368157
-0.4599583794612159
0.036267062947443744
0.31123064750368157
-0.4599583794612159
0.036267062947443744
0.31123064750368157
-0.4599583794612159
0.036267062947443744
0.31123064750368157
-0.4624641640785452
0.03234365055734642
0.3111760089464428
-0.4624641640785452
0.03234365055734642
0.3111760089464428
-0.4624641640785452
0.03234365055734642
0.3111760089464428
-0.4624641640785452
0.03234365055734642
0.3111760089464428
-0.4600701069104925
0.030403589230169566
0.31639532210937504
-0.4600701069104925
0.030403589230169566
0.31639532210937504
-0.4600701069104925
0.030403589230169566
0.31639532210937504
-0.4600701069104925
0.030403589230169566
0.31639532210937504
-0.45359946189654266
0.026616431387503626
0.32372220295402465
-0.45359946189654266
0.026616431387503626
0.32372220295402465
-0.45359946189654266
0.026616431387503626
0.32372220295402465
-0.45359946189654266
0.026616431387503626
0.32372220295402465
-0.4444862486437832
0.018534385083081355
0.3277343303975458
-0.4444862486437832
0.018534385083081355
0.3277343303975458
-0.4444862486437832
0.018534385083081355
0.3277343303975458
-0.4444862486437832
0.018534385083081355
0.3277343303975458
-0.4294890997518487
0.009689791892554346
0.3288617417222403
-0.4294890997518487
0.009689791892554346
0.3288617417222403
-0.4294890997518487
0.009689791892554346
0.3288617417222403
-0.4294890997518487
0.009689791892554346
0.3288617417222403
-0.42918343965761346
0.004234582817300387
0.33483761339992596
-0.42918343965761346
0.004234582817300387
0.33483761339992596
-0.42918343965761346
0.004234582817300387
0.33483761339992596
-0.42918343965761346
0.004234582817300387
0.33483761339992596
-0.4439322680990595
-0.003337311773189302
0.3413986409309678
-0.4439322680990595
-0.003337311773189302
0.3413986409309678
-0.4439322680990595
-0.003337311773189302
0.3413986409309678
-0.4439322680990595
-0.003337311773189302
0.3413986409309678
-0.45339657657080445
-0.013037152536294432
0.3446734849876094
-0.45339657657080445
-0.013037152536294432
0.3446734849876094
-0.45339657657080445
-0.013037152536294432
0.3446734849876094
-0.45339657657080445
-0.013037152536294432
0.3446734849876094
-0.4510246305547986
-0.01915966137522414
0.34747901047826063
-0.4510246305547986
-0.01915966137522414
0.34747901047826063
-0.4510246305547986
-0.01915966137522414
0.34747901047826063
-0.4510246305547986
-0.01915966137522414
0.34747901047826063
-0.441455809785688
-0.021107764570830048
0.3496164311413586
-0.441455809785688
-0.021107764570830048
0.3496164311413586
-0.441455809785688
-0.021107764570830048
0.3496164311413586
-0.441455809785688
-0.021107764570830048
0.3496164311413586
-0.4351014274953056
-0.022206291344535913
0.35080602114444576
-0.4351014274953056
-0.022206291344535913
0.35080602114444576
-0.4351014274953056
-0.022206291344535913
0.35080602114444576
-0.4351014274953056
-0.022206291344535913
0.35080602114444576
-0.4378897985151858
-0.021969016886498775
0.35140760281670536
-0.4378897985151858
-0.021969016886498775
0.35140760281670536
-0.4378897985151858
-0.021969016886498775
0.35140760281670536
-0.4378897985151858
-0.021969016886498775
0.35140760281670536
-0.4459354668514811
-0.020498935365599883
0.35225215500462537
-0.4459354668514811
-0.020498935365599883
0.35225215500462537
-0.4459354668514811
-0.020498935365599883
0.35225215500462537
-0.4459354668514811
-0.020498935365599883
0.35225215500462537
-0.450357928815184
-0.018491464756720317
0.3514981654532508
-0.450357928815184
-0.018491464756720317
0.3514981654532508
-0.450357928815184
-0.018491464756720317
0.3514981654532508
-0.450357928815184
-0.018491464756720317
0.3514981654532508
-0.44978061861007057
-0.015615820379770226
0.35005134058645504
-0.44978061861007057
-0.015615820379770226
0.35005134058645504
-0.44978061861007057
-0.015615820379770226
0.35005134058645504
-0.44978061861007057
-0.015615820379770226
0.35005134058645504
-0.4482773388852934
-0.01207279640132731
0.34776673042721507
-0.4482773388852934
-0.01207279640132731
0.34776673042721507
-0.4482773388852934
-0.01207279640132731
0.34776673042721507
-0.4482773388852934
-0.01207279640132731
0.34776673042721507
-0.447053870127752
-0.009215377780602899
0.34616016665331084
-0.447053870127752
-0.009215377780602899
0.34616016665331084
-0.447053870127752
-0.009215377780602899
0.34616016665331084
-0.447053870127752
-0.009215377780602899
0.34616016665331084
-0.4491226150721748
-0.007980431898690967
0.34609720973914043
-0.4491226150721748
-0.007980431898690967
0.34609720973914043
-0.4491226150721748
-0.007980431898690967
0.34609720973914043
-0.4491226150721748
-0.007980431898690967
0.34609720973914043
-0.4510642358445235
-0.007399643776892053
0.3460579177878422
-0.4510642358445235
-0.007399643776892053
0.3460579177878422
-0.4510642358445235
-0.007399643776892053
0.3460579177878422
-0.4510642358445235
-0.007399643776892053
0.3460579177878422
-0.4508975823709541
-0.006610591442115376
0.3457314591490708
-0.4508975823709541
-0.006610591442115376
0.3457314591490708
-0.4508975823709541
-0.006610591442115376
0.3457314591490708
-0.4508975823709541
-0.006610591442115376
0.3457314591490708
-0.45034952540592016
-0.005877883368548439
0.3449019426904749
-0.45034952540592016
-0.005877883368548439
0.3449019426904749
-0.45034952540592016
-0.005877883368548439
0.3449019426904749
-0.45034952540592016
-0.005877883368548439
0.3449019426904749
-0.44965908756747425
-0.004324155189001618
0.3438847911566069
-0.44965908756747425
-0.004324155189001618
0.3438847911566069
-0.44965908756747425
-0.004324155189001618
0.3438847911566069
-0.44965908756747425
-0.004324155189001618
0.3438847911566069
-0.4493600545632835
-0.0026023721284400515
0.3438607496515347
-0.4493600545632835
-0.0026023721284400515
0.3438607496515347
-0.4493600545632835
-0.0026023721284400515
0.3438607496515347
-0.4493600545632835
-0.0026023721284400515
0.3438607496515347
-0.4502043931559957
-0.001582747819028156
0.3437945926556216
-0.4502043931559957
-0.001582747819028156
0.3437945926556216
-0.4502043931559957
-0.001582747819028156
0.3437945926556216
-0.4502043931559957
-0.001582747819028156
0.3437945926556216
-0.45062955003285693
-3.943868767024131E-4
0.34366735811947485
-0.45062955003285693
-3.943868767024131E-4
0.34366735811947485
-0.45062955003285693
-3.943868767024131E-4
0.34366735811947485
-0.45062955003285693
-3.943868767024131E-4
0.34366735811947485
-0.4511796271097646
6.116342200593644E-4
0.3431898072323788
-0.4511796271097646
6.116342200593644E-4
0.3431898072323788
-0.4511796271097646
6.116342200593644E-4
0.3431898072323788
-0.4511796271097646
6.116342200593644E-4
0.3431898072323788
-0.4519290438876757
0.0013270836388413637
0.34242943468431875
-0.4519290438876757
0.0013270836388413637
0.34242943468431875
-0.4519290438876757
0.0013270836388413637
0.34242943468431875
-0.4519290438876757
0.0013270836388413637
0.34242943468431875
-0.45212177940167747
0.001611479541463284
0.34187020309115623
-0.45212177940167747
0.001611479541463284
0.34187020309115623
-0.45212177940167747
0.001611479541463284
0.34187020309115623
-0.45212177940167747
0.001611479541463284
0.34187020309115623
-0.452825224817672
0.0011944270820397776
0.3417401357602143
-0.452825224817672
0.0011944270820397776
0.3417401357602143
-0.452825224817672
0.0011944270820397776
0.3417401357602143
-0.452825224817672
0.0011944270820397776
0.3417401357602143
-0.45392537043348674
5.764255455818155E-4
0.3415331310392567
-0.45392537043348674
5.764255455818155E-4
0.3415331310392567
-0.45392537043348674
5.764255455818155E-4
0.3415331310392567
-0.45392537043348674
5.764255455818155E-4
0.3415331310392567
-0.4546125056316956
-4.4704370243098864E-4
0.3415440233076883
-0.4546125056316956
-4.4704370243098864E-4
0.3415440233076883
-0.4546125056316956
-4.4704370243098864E-4
0.3415440233076883
-0.4546125056316956
-4.4704370243098864E-4
0.3415440233076883
-0.45555659404618165
-0.0013982756068492957
0.341683834881101
-0.45555659404618165
-0.0013982756068492957
0.341683834881101
-0.45555659404618165
-0.0013982756068492957
0.341683834881101
-0.45555659404618165
-0.0013982756068492957
0.341683834881101
-0.45657737436596235
-0.002790833927258504
0.3420507051897975
-0.45657737436596235
-0.002790833927258504
0.3420507051897975
-0.45657737436596235
-0.002790833927258504
0.3420507051897975
-0.45657737436596235
-0.002790833927258504
0.3420507051897975
-0.45670374074412035
-0.004217002916385775
0.3423823416036873
-0.45670374074412035
-0.004217002916385775
0.3423823416036873
-0.45670374074412035
-0.004217002916385775
0.3423823416036873
-0.45670374074412035
-0.004217002916385775
0.3423823416036873
-0.4568712853394638
-0.005877362531955608
0.3427687396977329
-0.4568712853394638
-0.005877362531955608
0.3427687396977329
-0.4568712853394638
-0.005877362531955608
0.3427687396977329
-0.4568712853394638
-0.005877362531955608
0.3427687396977329
-0.4566762153904639
-0.007536262340062563
0.34290664758957495
-0.4566762153904639
-0.007536262340062563
0.34290664758957495
-0.4566762153904639
-0.007536262340062563
0.34290664758957495
-0.4566762153904639
-0.007536262340062563
0.34290664758957495
-0.45668832152266764
-0.009158665464120832
0.343015470360998
-0.45668832152266764
-0.009158665464120832
0.343015470360998
-0.45668832152266764
-0.009158665464120832
0.343015470360998
-0.45668832152266764
-0.009158665464120832
0.343015470360998
-0.4580792411471788
-0.010598591969978893
0.3429063089273168
-0.4580792411471788
-0.010598591969978893
0.3429063089273168
-0.4580792411471788
-0.010598591969978893
0.3429063089273168
-0.4580792411471788
-0.010598591969978893
0.3429063089273168
-0.45921638873732024
-0.012138569095303869
0.34255258428845536
-0.45921638873732024
-0.012138569095303869
0.34255258428845536
-0.45921638873732024
-0.012138569095303869
0.34255258428845536
-0.45921638873732024
-0.012138569095303869
0.34255258428845536
-0.45991607848279026
-0.01324429399549177
0.3422192861092907
-0.45991607848279026
-0.01324429399549177
0.3422192861092907
-0.45991607848279026
-0.01324429399549177
0.3422192861092907
-0.45991607848279026
-0.01324429399549177
0.3422192861092907
-0.46030502507360255
-0.014105716233871765
0.34205311873397953
-0.46030502507360255
-0.014105716233871765
0.34205311873397953
-0.46030502507360255
-0.014105716233871765
0.34205311873397953
-0.46030502507360255
-0.014105716233871765
0.34205311873397953
-0.4603663053482319
-0.014456939745170969
0.34213588314927806
-0.4603663053482319
-0.014456939745170969
0.34213588314927806
-0.4603663053482319
-0.014456939745170969
0.34213588314927806
-0.4603663053482319
-0.014456939745170969
0.34213588314927806
-0.4600747502469025
-0.014174128177725552
0.3419438458817944
-0.4600747502469025
-0.014174128177725552
0.3419438458817944
-0.4600747502469025
-0.014174128177725552
0.3419438458817944
-0.4600747502469025
-0.014174128177725552
0.3419438458817944
-0.45885178593414894
-0.013894057168478325
0.341311664874284
-0.45885178593414894
-0.013894057168478325
0.341311664874284
-0.45885178593414894
-0.013894057168478325
0.341311664874284
-0.45885178593414894
-0.013894057168478325
0.341311664874284
-0.45816569020309666
-0.01376221123229748
0.3407394771305291
-0.45816569020309666
-0.01376221123229748
0.3407394771305291
-0.45816569020309666
-0.01376221123229748
0.3407394771305291
-0.45816569020309666
-0.01376221123229748
0.3407394771305291
-0.4584278564564745
-0.013373971572431776
0.34001191353715754
-0.4584278564564745
-0.013373971572431776
0.34001191353715754
-0.4584278564564745
-0.013373971572431776
0.34001191353715754
-0.4584278564564745
-0.013373971572431776
0.34001191353715754
-0.4584029327094284
-0.01324958463062228
0.33948840840134825
-0.4584029327094284
-0.01324958463062228
0.33948840840134825
-0.4584029327094284
-0.01324958463062228
0.33948840840134825
-0.4584029327094284
-0.01324958463062228
0.33948840840134825
-0.45828206434399593
-0.012722739105761454
0.3390965407130022
-0.45828206434399593
-0.012722739105761454
0.3390965407130022
-0.45828206434399593
-0.012722739105761454
0.3390965407130022
-0.45828206434399593
-0.012722739105761454
0.3390965407130022
-0.457902932202374
-0.012091699215051915
0.3388023965142122
-0.457902932202374
-0.012091699215051915
0.3388023965142122
-0.457902932202374
-0.012091699215051915
0.3388023965142122
-0.457902932202374
-0.012091699215051915
0.3388023965142122
-0.4579190894400539
-0.011485745863514732
0.3386612797782733
-0.4579190894400539
-0.011485745863514732
0.3386612797782733
-0.4579190894400539
-0.011485745863514732
0.3386612797782733
-0.4579190894400539
-0.011485745863514732
0.3386612797782733
-0.458019305877203
-0.010484166067212291
0.33906725224630657
-0.458019305877203
-0.010484166067212291
0.33906725224630657
-0.458019305877203
-0.010484166067212291
0.33906725224630657
-0.458019305877203
-0.010484166067212291
0.33906725224630657
-0.45822018973612044
-0.009372609132285608
0.3393244219808619
-0.45822018973612044
-0.009372609132285608
0.3393244219808619
-0.45822018973612044
-0.009372609132285608
0.3393244219808619
-0.45822018973612044
-0.009372609132285608
0.3393244219808619
-0.4584975397763711
-0.008006519451942836
0.3395223145465687
-0.4584975397763711
-0.008006519451942836
0.3395223145465687
-0.4584975397763711
-0.008006519451942836
0.3395223145465687
-0.4584975397763711
-0.008006519451942836
0.3395223145465687
-0.4579473506790739
-0.006903161298329348
0.3397570732529573
-0.4579473506790739
-0.006903161298329348
0.3397570732529573
-0.4579473506790739
-0.006903161298329348
0.3397570732529573
-0.4579473506790739
-0.006903161298329348
0.3397570732529573
-0.4575789610711024
-0.006158515767176817
0.3399529760225335
-0.4575789610711024
-0.006158515767176817
0.3399529760225335
-0.4575789610711024
-0.006158515767176817
0.3399529760225335
-0.4575789610711024
-0.006158515767176817
0.3399529760225335
-0.45868377187069737
-0.005940704803931868
0.3400715054856129
-0.45868377187069737
-0.005940704803931868
0.3400715054856129
-0.45868377187069737
-0.005940704803931868
0.3400715054856129
-0.45868377187069737
-0.005940704803931868
0.3400715054856129
-0.45882111275315923
-0.00603764843804782
0.340094574310276
-0.45882111275315923
-0.00603764843804782
0.340094574310276
-0.45882111275315923
-0.00603764843804782
0.340094574310276
-0.45882111275315923
-0.00603764843804782
0.340094574310276
-0.4588209200099509
-0.006733253724519577
0.34038057054466964
-0.4588209200099509
-0.006733253724519577
0.34038057054466964
-0.4588209200099509
-0.006733253724519577
0.34038057054466964
-0.4588209200099509
-0.006733253724519577
0.34038057054466964
-0.45918816306302046
-0.007997146993420348
0.34069840389851724
-0.45918816306302046
-0.007997146993420348
0.34069840389851724
-0.45918816306302046
-0.007997146993420348
0.34069840389851724
-0.45918816306302046
-0.007997146993420348
0.34069840389851724
-0.45975414658806407
-0.009709103019287218
0.34112255662890445
-0.45975414658806407
-0.009709103019287218
0.34112255662890445
-0.45975414658806407
-0.009709103019287218
0.34112255662890445
-0.45975414658806407
-0.009709103019287218
0.34112255662890445
-0.46045737699048866
-0.011341239694335894
0.3417981620734795
-0.46045737699048866
-0.011341239694335894
0.3417981620734795
-0.46045737699048866
-0.011341239694335894
0.3417981620734795
-0.46045737699048866
-0.011341239694335894
0.3417981620734795
-0.4603427795290922
-0.012752271857583595
0.3423752806624228
-0.4603427795290922
-0.012752271857583595
0.3423752806624228
-0.4603427795290922
-0.012752271857583595
0.3423752806624228
-0.4603427795290922
-0.012752271857583595
0.3423752806624228
-0.460273862134316
-0.014425049914424013
0.34289031872884235
-0.460273862134316
-0.014425049914424013
0.34289031872884235
-0.460273862134316
-0.014425049914424013
0.34289031872884235
-0.460273862134316
-0.014425049914424013
0.34289031872884235
-0.4601852783268878
-0.015980777618250227
0.3433776503885779
-0.4601852783268878
-0.015980777618250227
0.3433776503885779
-0.4601852783268878
-0.015980777618250227
0.3433776503885779
-0.4601852783268878
-0.015980777618250227
0.3433776503885779
-0.46037977719661066
-0.01760869401772394
0.3439055718949535
-0.46037977719661066
-0.01760869401772394
0.3439055718949535
-0.46037977719661066
-0.01760869401772394
0.3439055718949535
-0.46037977719661066
-0.01760869401772394
0.3439055718949535
-0.46138461203269615
-0.01888217129170276
0.3442564375770301
-0.46138461203269615
-0.01888217129170276
0.3442564375770301
-0.46138461203269615
-0.01888217129170276
0.3442564375770301
-0.46138461203269615
-0.01888217129170276
0.3442564375770301
-0.46203172506656237
-0.020337861855837424
0.34462652111881076
-0.46203172506656237
-0.020337861855837424
0.34462652111881076
-0.46203172506656237
-0.020337861855837424
0.34462652111881076
-0.46203172506656237
-0.020337861855837424
0.34462652111881076
-0.46226622144746266
-0.02150433460169871
0.3449247899887551
-0.46226622144746266
-0.02150433460169871
0.3449247899887551
-0.46226622144746266
-0.02150433460169871
0.3449247899887551
-0.46226622144746266
-0.02150433460169871
0.3449247899887551
-0.46238738727408524
-0.022895348166256387
0.3448828293413552
-0.46238738727408524
-0.022895348166256387
0.3448828293413552
-0.46238738727408524
-0.022895348166256387
0.3448828293413552
-0.46238738727408524
-0.022895348166256387
0.3448828293413552
-0.4626081902053278
-0.024176499739429938
0.34469280630273574
-0.4626081902053278
-0.024176499739429938
0.34469280630273574
-0.4626081902053278
-0.024176499739429938
0.34469280630273574
-0.4626081902053278
-0.024176499739429938
0.34469280630273574
-0.46287650136582925
-0.025206350872314123
0.3444233264076981
-0.46287650136582925
-0.025206350872314123
0.3444233264076981
-0.46287650136582925
-0.025206350872314123
0.3444233264076981
-0.46287650136582925
-0.025206350872314123
0.3444233264076981
-0.4635371600027032
-0.026106317003445526
0.3439238350620898
-0.4635371600027032
-0.026106317003445526
0.3439238350620898
-0.4635371600027032
-0.026106317003445526
0.3439238350620898
-0.4635371600027032
-0.026106317003445526
0.3439238350620898
-0.46466549627863013
-0.0269240105694643
0.3434119941147178
-0.46466549627863013
-0.0269240105694643
0.3434119941147178
-0.46466549627863013
-0.0269240105694643
0.3434119941147178
-0.46466549627863013
-0.0269240105694643
0.3434119941147178
-0.4658310230337822
-0.0272818473354975
0.3426686962020412
-0.4658310230337822
-0.0272818473354975
0.3426686962020412
-0.4658310230337822
-0.0272818473354975
0.3426686962020412
-0.4658310230337822
-0.0272818473354975
0.3426686962020412
-0.4668792919603359
-0.02766113288816957
0.3419290039523613
-0.4668792919603359
-0.02766113288816957
0.3419290039523613
-0.4668792919603359
-0.02766113288816957
0.3419290039523613
-0.4668792919603359
-0.02766113288816957
0.3419290039523613
-0.46728295083169935
-0.027456162698280683
0.3408753722140477
-0.46728295083169935
-0.027456162698280683
0.3408753722140477
-0.46728295083169935
-0.027456162698280683
0.3408753722140477
-0.46728295083169935
-0.027456162698280683
0.3408753722140477
-0.4675092438415841
-0.026255251292359453
0.3393343725903307
-0.4675092438415841
-0.026255251292359453
0.3393343725903307
-0.4675092438415841
-0.026255251292359453
0.3393343725903307
-0.4675092438415841
-0.026255251292359453
0.3393343725903307
-0.46818706821508177
-0.024190566978798244
0.3373454033599538
-0.46818706821508177
-0.024190566978798244
0.3373454033599538
-0.46818706821508177
-0.024190566978798244
0.3373454033599538
-0.46818706821508177
-0.024190566978798244
0.3373454033599538
-0.46920785321594055
-0.02113551515304522
0.33501887303644995
-0.46920785321594055
-0.02113551515304522
0.33501887303644995
-0.46920785321594055
-0.02113551515304522
0.33501887303644995
-0.46920785321594055
-0.02113551515304522
0.33501887303644995
-0.4710138054216923
-0.016810129411277252
0.33265951022690243
-0.4710138054216923
-0.016810129411277252
0.33265951022690243
-0.4710138054216923
-0.016810129411277252
0.33265951022690243
-0.4710138054216923
-0.016810129411277252
0.33265951022690243
-0.4730199200563619
-0.011490322987322736
0.32955755123001385
-0.4730199200563619
-0.011490322987322736
0.32955755123001385
-0.4730199200563619
-0.011490322987322736
0.32955755123001385
-0.4730199200563619
-0.011490322987322736
0.32955755123001385
-0.4755402359963596
-0.00519530330813271
0.32649741702206164
-0.4755402359963596
-0.00519530330813271
0.32649741702206164
-0.4755402359963596
-0.00519530330813271
0.32649741702206164
-0.4755402359963596
-0.00519530330813271
0.32649741702206164
-0.4760957374144384
0.0014861299715983735
0.32374181190479784
-0.4760957374144384
0.0014861299715983735
0.32374181190479784
-0.4760957374144384
0.0014861299715983735
0.32374181190479784
-0.4760957374144384
0.0014861299715983735
0.32374181190479784
-0.4758163994407432
0.008056810120656155
0.321116444431269
-0.4758163994407432
0.008056810120656155
0.321116444431269
-0.4758163994407432
0.008056810120656155
0.321116444431269
-0.4758163994407432
0.008056810120656155
0.321116444431269
-0.47664668518606873
0.01449971171899898
0.3193400518431421
-0.47664668518606873
0.01449971171899898
0.3193400518431421
-0.47664668518606873
0.01449971171899898
0.3193400518431421
-0.47664668518606873
0.01449971171899898
0.3193400518431421
-0.4755985014450485
0.020905345999046733
0.31814708790297264
-0.4755985014450485
0.020905345999046733
0.31814708790297264
-0.4755985014450485
0.020905345999046733
0.31814708790297264
-0.4755985014450485
0.020905345999046733
0.31814708790297264
-0.4745336886953666
0.025778728803553325
0.316939811862306
-0.4745336886953666
0.025778728803553325
0.316939811862306
-0.4745336886953666
0.025778728803553325
0.316939811862306
-0.4745336886953666
0.025778728803553325
0.316939811862306
-0.4756464346867768
0.030527175026960632
0.31430579138900505
-0.4756464346867768
0.030527175026960632
0.31430579138900505
-0.4756464346867768
0.030527175026960632
0.31430579138900505
-0.4756464346867768
0.030527175026960632
0.31430579138900505
-0.48057205769476286
0.032929061226014626
0.31255784982421286
-0.48057205769476286
0.032929061226014626
0.31255784982421286
-0.48057205769476286
0.032929061226014626
0.31255784982421286
-0.48057205769476286
0.032929061226014626
0.31255784982421286
-0.479187658250671
0.03430519001946452
0.3108008224875546
-0.479187658250671
0.03430519001946452
0.3108008224875546
-0.479187658250671
0.03430519001946452
0.3108008224875546
-0.479187658250671
0.03430519001946452
0.3108008224875546
-0.4783516604404346
0.035470325961571465
0.30885900938952093
-0.4783516604404346
0.035470325961571465
0.30885900938952093
-0.4783516604404346
0.035470325961571465
0.30885900938952093
-0.4783516604404346
0.035470325961571465
0.30885900938952093
-0.48100751067701164
0.03603693813291105
0.30635145164092015
-0.48100751067701164
0.03603693813291105
0.30635145164092015
-0.48100751067701164
0.03603693813291105
0.30635145164092015
-0.48100751067701164
0.03603693813291105
0.30635145164092015
-0.4824215348502817
0.03646665658134354
0.3041078209746845
-0.4824215348502817
0.03646665658134354
0.3041078209746845
-0.4824215348502817
0.03646665658134354
0.3041078209746845
-0.4824215348502817
0.03646665658134354
0.3041078209746845
-0.48209241998400787
0.035790274457660975
0.301594241119944
-0.48209241998400787
0.035790274457660975
0.301594241119944
-0.48209241998400787
0.035790274457660975
0.301594241119944
-0.48209241998400787
0.035790274457660975
0.301594241119944
-0.48030967646611644
0.034024623108043175
0.30072158124867365
-0.48030967646611644
0.034024623108043175
0.30072158124867365
-0.48030967646611644
0.034024623108043175
0.30072158124867365
-0.48030967646611644
0.034024623108043175
0.30072158124867365
-0.48184712512481664
0.031922239371766824
0.2994715388008738
-0.48184712512481664
0.031922239371766824
0.2994715388008738
-0.48184712512481664
0.031922239371766824
0.2994715388008738
-0.48184712512481664
0.031922239371766824
0.2994715388008738
-0.48271737179395696
0.028312957285095686
0.2976979256143609
-0.48271737179395696
0.028312957285095686
0.2976979256143609
-0.48271737179395696
0.028312957285095686
0.2976979256143609
-0.48271737179395696
0.028312957285095686
0.2976979256143609
-0.48239936952250634
0.023507040398794078
0.29696396037791845
-0.48239936952250634
0.023507040398794078
0.29696396037791845
-0.48239936952250634
0.023507040398794078
0.29696396037791845
-0.48239936952250634
0.023507040398794078
0.29696396037791845
-0.48085683731606754
0.01743987131532019
0.29649336644558066
-0.48085683731606754
0.01743987131532019
0.29649336644558066
-0.48085683731606754
0.01743987131532019
0.29649336644558066
-0.48085683731606754
0.01743987131532019
0.29649336644558066
-0.48008823596650185
0.010736970439830467
0.29709065621739444
-0.48008823596650185
0.010736970439830467
0.29709065621739444
-0.48008823596650185
0.010736970439830467
0.29709065621739444
-0.48008823596650185
0.010736970439830467
0.29709065621739444
-0.4790443171675271
0.004287461091009589
0.29836688885775653
-0.4790443171675271
0.004287461091009589
0.29836688885775653
-0.4790443171675271
0.004287461091009589
0.29836688885775653
-0.4790443171675271
0.004287461091009589
0.29836688885775653
-0.4775598615349639
-0.0015726622467592218
0.2997405445820149
-0.4775598615349639
-0.0015726622467592218
0.2997405445820149
-0.4775598615349639
-0.0015726622467592218
0.2997405445820149
-0.4775598615349639
-0.0015726622467592218
0.2997405445820149
-0.47511769016590844
-0.007006412063703838
0.30033959856561865
-0.47511769016590844
-0.007006412063703838
0.30033959856561865
-0.47511769016590844
-0.007006412063703838
0.30033959856561865
-0.47511769016590844
-0.007006412063703838
0.30033959856561865
-0.47422386904511205
-0.01141589137801805
0.2994644025382817
-0.47422386904511205
-0.01141589137801805
0.2994644025382817
-0.47422386904511205
-0.01141589137801805
0.2994644025382817
-0.47422386904511205
-0.01141589137801805
0.2994644025382817
-0.4759628209413842
-0.0140752762241599
0.2979024638725564
-0.4759628209413842
-0.0140752762241599
0.2979024638725564
-0.4759628209413842
-0.0140752762241599
0.2979024638725564
-0.4759628209413842
-0.0140752762241599
0.2979024638725564
-0.4777639386164869
-0.01613491045936377
0.29721159023035065
-0.4777639386164869
-0.01613491045936377
0.29721159023035065
-0.4777639386164869
-0.01613491045936377
0.29721159023035065
-0.4777639386164869
-0.01613491045936377
0.29721159023035065
-0.47696539234770474
-0.017367244157690434
0.29785885483435065
-0.47696539234770474
-0.017367244157690434
0.29785885483435065
-0.47696539234770474
-0.017367244157690434
0.29785885483435065
-0.47696539234770474
-0.017367244157690434
0.29785885483435065
-0.4774999104010086
-0.017320482032381724
0.298262007617849
-0.4774999104010086
-0.017320482032381724
0.298262007617849
-0.4774999104010086
-0.017320482032381724
0.298262007617849
-0.4774999104010086
-0.017320482032381724
0.298262007617849
-0.47871675961426297
-0.016501445380663452
0.2972216023853934
-0.47871675961426297
-0.016501445380663452
0.2972216023853934
-0.47871675961426297
-0.016501445380663452
0.2972216023853934
-0.47871675961426297
-0.016501445380663452
0.2972216023853934
-0.4804432070051239
-0.014888395540646956
0.2960079652799972
-0.4804432070051239
-0.014888395540646956
0.2960079652799972
-0.4804432070051239
-0.014888395540646956
0.2960079652799972
-0.4804432070051239
-0.014888395540646956
0.2960079652799972
-0.4803390519443302
-0.012389471074666822
0.29591080753604104
-0.4803390519443302
-0.012389471074666822
0.29591080753604104
-0.4803390519443302
-0.012389471074666822
0.29591080753604104
-0.4803390519443302
-0.012389471074666822
0.29591080753604104
-0.4779583858245713
-0.009846888873054368
0.2968365702469991
-0.4779583858245713
-0.009846888873054368
0.2968365702469991
-0.4779583858245713
-0.009846888873054368
0.2968365702469991
-0.4779583858245713
-0.009846888873054368
0.2968365702469991
-0.4764852049222819
-0.0073810161808782705
0.29795123541938906
-0.4764852049222819
-0.0073810161808782705
0.29795123541938906
-0.4764852049222819
-0.0073810161808782705
0.29795123541938906
-0.4764852049222819
-0.0073810161808782705
0.29795123541938906
-0.4766207733743217
-0.005481244475898369
0.29889403387028635
-0.4766207733743217
-0.005481244475898369
0.29889403387028635
-0.4766207733743217
-0.005481244475898369
0.29889403387028635
-0.4766207733743217
-0.005481244475898369
0.29889403387028635
-0.4763618999572912
-0.00355318533990213
0.30018293522093237
-0.4763618999572912
-0.00355318533990213
0.30018293522093237
-0.4763618999572912
-0.00355318533990213
0.30018293522093237
-0.4763618999572912
-0.00355318533990213
0.30018293522093237
-0.4748572482426161
-0.001723528123263429
0.30133302642998083
-0.4748572482426161
-0.001723528123263429
0.30133302642998083
-0.4748572482426161
-0.001723528123263429
0.30133302642998083
-0.4748572482426161
-0.001723528123263429
0.30133302642998083
-0.47380655365210317
-3.3519522359219943E-4
0.3024867511660723
-0.47380655365210317
-3.3519522359219943E-4
0.3024867511660723
-0.47380655365210317
-3.3519522359219943E-4
0.3024867511660723
-0.47380655365210317
-3.3519522359219943E-4
0.3024867511660723
-0.4735357533147312
8.403427911018597E-4
0.3038357202534825
-0.4735357533147312
8.403427911018597E-4
0.3038357202534825
-0.4735357533147312
8.403427911018597E-4
0.3038357202534825
-0.4735357533147312
8.403427911018597E-4
0.3038357202534825
-0.47372732897665243
0.0019007858625630974
0.3060141414061383
-0.47372732897665243
0.0019007858625630974
0.3060141414061383
-0.47372732897665243
0.0019007858625630974
0.3060141414061383
-0.47372732897665243
0.0019007858625630974
0.3060141414061383
-0.47463387608523433
0.002985754768068261
0.3078133385240051
-0.47463387608523433
0.002985754768068261
0.3078133385240051
-0.47463387608523433
0.002985754768068261
0.3078133385240051
-0.47463387608523433
0.002985754768068261
0.3078133385240051
-0.4747470408445527
0.004163658468294056
0.3089318620318922
-0.4747470408445527
0.004163658468294056
0.3089318620318922
-0.4747470408445527
0.004163658468294056
0.3089318620318922
-0.4747470408445527
0.004163658468294056
0.3089318620318922
-0.47672699019427667
0.004705612562471748
0.3098856685342613
-0.47672699019427667
0.004705612562471748
0.3098856685342613
-0.47672699019427667
0.004705612562471748
0.3098856685342613
-0.47672699019427667
0.004705612562471748
0.3098856685342613
-0.4769633489195354
0.00413915777096533
0.31053867158892506
-0.4769633489195354
0.00413915777096533
0.31053867158892506
-0.4769633489195354
0.00413915777096533
0.31053867158892506
-0.4769633489195354
0.00413915777096533
0.31053867158892506
-0.4750621088796152
0.003619490959204585
0.3122425901243899
-0.4750621088796152
0.003619490959204585
0.3122425901243899
-0.4750621088796152
0.003619490959204585
0.3122425901243899
-0.4750621088796152
0.003619490959204585
0.3122425901243899
-0.4703516591314705
0.0018971624683451083
0.3145306883584054
-0.4703516591314705
0.0018971624683451083
0.3145306883584054
-0.4703516591314705
0.0018971624683451083
0.3145306883584054
-0.4703516591314705
0.0018971624683451083
0.3145306883584054
-0.4668887280364906
0.0011928005706476911
0.3176166417807312
-0.4668887280364906
0.0011928005706476911
0.3176166417807312
-0.4668887280364906
0.0011928005706476911
0.3176166417807312
-0.4668887280364906
0.0011928005706476911
0.3176166417807312
-0.46103229346731733
-6.454560344272618E-4
0.319730161750298
-0.46103229346731733
-6.454560344272618E-4
0.319730161750298
-0.46103229346731733
-6.454560344272618E-4
0.319730161750298
-0.46103229346731733
-6.454560344272618E-4
0.319730161750298
-0.46246435434340916
-0.002297920207455762
0.3236021241397403
-0.46246435434340916
-0.002297920207455762
0.3236021241397403
-0.46246435434340916
-0.002297920207455762
0.3236021241397403
-0.46246435434340916
-0.002297920207455762
0.3236021241397403
-0.4593945751913957
-0.006798308545459788
0.32986732955536757
-0.4593945751913957
-0.006798308545459788
0.32986732955536757
-0.4593945751913957
-0.006798308545459788
0.32986732955536757
-0.4593945751913957
-0.006798308545459788
0.32986732955536757
-0.45163890881818336
-0.012959579204818144
0.33465429511751826
-0.45163890881818336
-0.012959579204818144
0.33465429511751826
-0.45163890881818336
-0.012959579204818144
0.33465429511751826
-0.45163890881818336
-0.012959579204818144
0.33465429511751826
-0.4432931271798594
-0.016429987443360935
0.3389988240659833
-0.4432931271798594
-0.016429987443360935
0.3389988240659833
-0.4432931271798594
-0.016429987443360935
0.3389988240659833
-0.4432931271798594
-0.016429987443360935
0.3389988240659833
-0.44187237902794974
-0.01920916771195253
0.3441353541319562
-0.44187237902794974
-0.01920916771195253
0.3441353541319562
-0.44187237902794974
-0.01920916771195253
0.3441353541319562
-0.44187237902794974
-0.01920916771195253
0.3441353541319562
-0.44881422288166867
-0.023876461217292914
0.3474396003706726
-0.44881422288166867
-0.023876461217292914
0.3474396003706726
-0.44881422288166867
-0.023876461217292914
0.3474396003706726
-0.44881422288166867
-0.023876461217292914
0.3474396003706726
-0.4515559963088388
-0.03000742839956795
0.3514409900006888
-0.4515559963088388
-0.03000742839956795
0.3514409900006888
-0.4515559963088388
-0.03000742839956795
0.3514409900006888
-0.4515559963088388
-0.03000742839956795
0.3514409900006888
-0.44851148264338014
-0.033939981720779756
0.3549612135669968
-0.44851148264338014
-0.033939981720779756
0.3549612135669968
-0.4414417929972006
-0.03496701824587816
0.3570677210991444
-0.4414417929972006
-0.03496701824587816
0.3570677210991444
-0.4414417929972006
-0.03496701824587816
0.3570677210991444
-0.4414417929972006
-0.03496701824587816
0.3570677210991444
-0.4414417929972006
-0.03496701824587816
0.3570677210991444
-0.4414417929972006
-0.03496701824587816
0.3570677210991444
-0.43821493682231266
-0.034841267238564844
0.3585165466851301
-0.43821493682231266
-0.034841267238564844
0.3585165466851301
-0.43821493682231266
-0.034841267238564844
0.3585165466851301
-0.43821493682231266
-0.034841267238564844
0.3585165466851301
-0.4425525484335296
-0.03393405823081788
0.3596971817808346
-0.4425525484335296
-0.03393405823081788
0.3596971817808346
-0.4425525484335296
-0.03393405823081788
0.3596971817808346
-0.4425525484335296
-0.03393405823081788
0.3596971817808346
-0.4479891619529579
-0.03283787824950186
0.3602786790778476
-0.4479891619529579
-0.03283787824950186
0.3602786790778476
-0.4479891619529579
-0.03283787824950186
0.3602786790778476
-0.4479891619529579
-0.03283787824950186
0.3602786790778476
-0.44954093561697966
-0.030688048319569495
0.3589728165266721
-0.44954093561697966
-0.030688048319569495
0.3589728165266721
-0.44954093561697966
-0.030688048319569495
0.3589728165266721
-0.44954093561697966
-0.030688048319569495
0.3589728165266721
-0.4490929267810253
-0.027477464883169576
0.3571801096489411
-0.4490929267810253
-0.027477464883169576
0.3571801096489411
-0.4490929267810253
-0.027477464883169576
0.3571801096489411
-0.4490929267810253
-0.027477464883169576
0.3571801096489411
-0.448418739908156
-0.024630072909805924
0.3562524938198447
-0.448418739908156
-0.024630072909805924
0.3562524938198447
-0.448418739908156
-0.024630072909805924
0.3562524938198447
-0.448418739908156
-0.024630072909805924
0.3562524938198447
-0.44925651590899013
-0.0224497226597387
0.3556636472637383
-0.44925651590899013
-0.0224497226597387
0.3556636472637383
-0.44925651590899013
-0.0224497226597387
0.3556636472637383
-0.44925651590899013
-0.0224497226597387
0.3556636472637383
-0.4510221950951587
-0.02038358945474567
0.35552261880850344
-0.4510221950951587
-0.02038358945474567
0.35552261880850344
-0.4510221950951587
-0.02038358945474567
0.35552261880850344
-0.4510221950951587
-0.02038358945474567
0.35552261880850344
-0.45045338543767127
-0.019204757208568894
0.35610957800000076
-0.45045338543767127
-0.019204757208568894
0.35610957800000076
-0.45045338543767127
-0.019204757208568894
0.35610957800000076
-0.45045338543767127
-0.019204757208568894
0.35610957800000076
-0.4481249482709591
-0.018129213529569185
0.3565148356989065
-0.4481249482709591
-0.018129213529569185
0.3565148356989065
-0.4481249482709591
-0.018129213529569185
0.3565148356989065
-0.4481249482709591
-0.018129213529569185
0.3565148356989065
-0.44805209115768857
-0.01722874147675235
0.3560404924392779
-0.44805209115768857
-0.01722874147675235
0.3560404924392779
-0.44805209115768857
-0.01722874147675235
0.3560404924392779
-0.44805209115768857
-0.01722874147675235
0.3560404924392779
-0.4480637081248515
-0.01597874816094429
0.35538596521494054
-0.4480637081248515
-0.01597874816094429
0.35538596521494054
-0.4480637081248515
-0.01597874816094429
0.35538596521494054
-0.4480637081248515
-0.01597874816094429
0.35538596521494054
-0.448408615096022
-0.015218070719208013
0.3550921203296589
-0.448408615096022
-0.015218070719208013
0.3550921203296589
-0.448408615096022
-0.015218070719208013
0.3550921203296589
-0.448408615096022
-0.015218070719208013
0.3550921203296589
-0.44866174757203714
-0.014622705910354342
0.3547117457900409
-0.44866174757203714
-0.014622705910354342
0.3547117457900409
-0.44866174757203714
-0.014622705910354342
0.3547117457900409
-0.44866174757203714
-0.014622705910354342
0.3547117457900409
-0.44830658777199345
-0.01416406548434874
0.3542127424433761
-0.44830658777199345
-0.01416406548434874
0.3542127424433761
-0.44830658777199345
-0.01416406548434874
0.3542127424433761
-0.44830658777199345
-0.01416406548434874
0.3542127424433761
-0.44810881967758454
-0.013743587945370749
0.3539921669668476
-0.44810881967758454
-0.013743587945370749
0.3539921669668476
-0.44810881967758454
-0.013743587945370749
0.3539921669668476
-0.44810881967758454
-0.013743587945370749
0.3539921669668476
-0.4487887237060462
-0.014012145827477035
0.35395694409685535
-0.4487887237060462
-0.014012145827477035
0.35395694409685535
-0.4487887237060462
-0.014012145827477035
0.35395694409685535
-0.4487887237060462
-0.014012145827477035
0.35395694409685535
-0.448833008242547
-0.014916387117580497
0.35441025965616285
-0.448833008242547
-0.014916387117580497
0.35441025965616285
-0.448833008242547
-0.014916387117580497
0.35441025965616285
-0.448833008242547
-0.014916387117580497
0.35441025965616285
-0.4500265371770358
-0.016368669383596317
0.3549409609215878
-0.4500265371770358
-0.016368669383596317
0.3549409609215878
-0.4500265371770358
-0.016368669383596317
0.3549409609215878
-0.4500265371770358
-0.016368669383596317
0.3549409609215878
-0.4522347025613996
-0.017934763872968766
0.3552844881015096
-0.4522347025613996
-0.017934763872968766
0.3552844881015096
-0.4522347025613996
-0.017934763872968766
0.3552844881015096
-0.4522347025613996
-0.017934763872968766
0.3552844881015096
-0.4535095698193062
-0.01933278790308904
0.3554161685920665
-0.4535095698193062
-0.01933278790308904
0.3554161685920665
-0.4535095698193062
-0.01933278790308904
0.3554161685920665
-0.4535095698193062
-0.01933278790308904
0.3554161685920665
-0.45283127570945125
-0.020569591754803433
0.35552712664831343
-0.45283127570945125
-0.020569591754803433
0.35552712664831343
-0.45283127570945125
-0.020569591754803433
0.35552712664831343
-0.45283127570945125
-0.020569591754803433
0.35552712664831343
-0.4523471577305812
-0.02206985342743915
0.3554752656833107
-0.4523471577305812
-0.02206985342743915
0.3554752656833107
-0.4523471577305812
-0.02206985342743915
0.3554752656833107
-0.4523471577305812
-0.02206985342743915
0.3554752656833107
-0.45226024382498825
-0.02376732980197726
0.35534962814436466
-0.45226024382498825
-0.02376732980197726
0.35534962814436466
-0.45226024382498825
-0.02376732980197726
0.35534962814436466
-0.45226024382498825
-0.02376732980197726
0.35534962814436466
-0.4527171287076
-0.025489615377324717
0.3552804111171233
-0.4527171287076
-0.025489615377324717
0.3552804111171233
-0.4527171287076
-0.025489615377324717
0.3552804111171233
-0.4527171287076
-0.025489615377324717
0.3552804111171233
-0.45385808098844105
-0.0269941315901441
0.3550480563488726
-0.45385808098844105
-0.0269941315901441
0.3550480563488726
-0.45385808098844105
-0.0269941315901441
0.3550480563488726
-0.45385808098844105
-0.0269941315901441
0.3550480563488726
-0.4554300309590394
-0.028059263519201256
0.3547437220646395
-0.4554300309590394
-0.028059263519201256
0.3547437220646395
-0.4554300309590394
-0.028059263519201256
0.3547437220646395
-0.4554300309590394
-0.028059263519201256
0.3547437220646395
-0.45680562371438094
-0.028733408492486585
0.35410014629357894
-0.45680562371438094
-0.028733408492486585
0.35410014629357894
-0.45680562371438094
-0.028733408492486585
0.35410014629357894
-0.45680562371438094
-0.028733408492486585
0.35410014629357894
-0.45731727843789044
-0.029132989119549937
0.35306815989803814
-0.45731727843789044
-0.029132989119549937
0.35306815989803814
-0.45731727843789044
-0.029132989119549937
0.35306815989803814
-0.45731727843789044
-0.029132989119549937
0.35306815989803814
-0.45753080619588965
-0.029224617230315834
0.35195995013482834
-0.45753080619588965
-0.029224617230315834
0.35195995013482834
-0.45753080619588965
-0.029224617230315834
0.35195995013482834
-0.45753080619588965
-0.029224617230315834
0.35195995013482834
-0.45802391881172055
-0.029360458530027552
0.35101127257449005
-0.45802391881172055
-0.029360458530027552
0.35101127257449005
-0.45802391881172055
-0.029360458530027552
0.35101127257449005
-0.45802391881172055
-0.029360458530027552
0.35101127257449005
-0.4592878413965525
-0.02888443047335448
0.3504469375948589
-0.4592878413965525
-0.02888443047335448
0.3504469375948589
-0.4592878413965525
-0.02888443047335448
0.3504469375948589
-0.4592878413965525
-0.02888443047335448
0.3504469375948589
-0.4604530814231473
-0.028343877833414886
0.35025731281383166
-0.4604530814231473
-0.028343877833414886
0.35025731281383166
-0.4604530814231473
-0.028343877833414886
0.35025731281383166
-0.4604530814231473
-0.028343877833414886
0.35025731281383166
-0.461338821831906
-0.027759754251375297
0.34990768935901156
-0.461338821831906
-0.027759754251375297
0.34990768935901156
-0.461338821831906
-0.027759754251375297
0.34990768935901156
-0.461338821831906
-0.027759754251375297
0.34990768935901156
-0.4611979490162829
-0.026996659435462582
0.34947932936767195
-0.4611979490162829
-0.026996659435462582
0.34947932936767195
-0.4611979490162829
-0.026996659435462582
0.34947932936767195
-0.4611979490162829
-0.026996659435462582
0.34947932936767195
-0.46021250949539855
-0.026046083459028917
0.34880774772452927
-0.46021250949539855
-0.026046083459028917
0.34880774772452927
-0.46021250949539855
-0.026046083459028917
0.34880774772452927
-0.46021250949539855
-0.026046083459028917
0.34880774772452927
-0.45934816901546277
-0.02492601678457539
0.34824414835482104
-0.45934816901546277
-0.02492601678457539
0.34824414835482104
-0.45934816901546277
-0.02492601678457539
0.34824414835482104
-0.45934816901546277
-0.02492601678457539
0.34824414835482104
-0.4598319822678378
-0.024088431389139794
0.3481993395946704
-0.4598319822678378
-0.024088431389139794
0.3481993395946704
-0.4603818676774291
-0.023453718234967814
0.3483474087331471
-0.4603818676774291
-0.023453718234967814
0.3483474087331471
-0.4603818676774291
-0.023453718234967814
0.3483474087331471
-0.4603818676774291
-0.023453718234967814
0.3483474087331471
-0.4603818676774291
-0.023453718234967814
0.3483474087331471
-0.4603818676774291
-0.023453718234967814
0.3483474087331471
-0.46046603279937875
-0.022565319387489305
0.3482637392960135
-0.46046603279937875
-0.022565319387489305
0.3482637392960135
-0.4604785725227676
-0.02195947913970726
0.3481218655268604
-0.4604785725227676
-0.02195947913970726
0.3481218655268604
-0.4604785725227676
-0.02195947913970726
0.3481218655268604
-0.4604785725227676
-0.02195947913970726
0.3481218655268604
-0.4607669785973237
-0.021545883756244517
0.3480281875751983
-0.4607669785973237
-0.021545883756244517
0.3480281875751983
-0.4607669785973237
-0.021545883756244517
0.3480281875751983
-0.4607669785973237
-0.021545883756244517
0.3480281875751983
-0.4607669785973237
-0.021545883756244517
0.3480281875751983
-0.4607669785973237
-0.021545883756244517
0.3480281875751983
-0.4607669785973237
-0.021545883756244517
0.3480281875751983
-0.4607669785973237
-0.021545883756244517
0.3480281875751983
-0.4613632788788819
-0.02184006021667557
0.34851753054397566
-0.4613632788788819
-0.02184006021667557
0.34851753054397566
-0.4613632788788819
-0.02184006021667557
0.34851753054397566
-0.4613632788788819
-0.02184006021667557
0.34851753054397566
-0.4623107090402995
-0.02207115871345608
0.3489963887380202
-0.4623107090402995
-0.02207115871345608
0.3489963887380202
-0.4623107090402995
-0.02207115871345608
0.3489963887380202
-0.4623107090402995
-0.02207115871345608
0.3489963887380202
-0.46247640914619864
-0.022163617010600253
0.3490415434344719
-0.46247640914619864
-0.022163617010600253
0.3490415434344719
-0.46247640914619864
-0.022163617010600253
0.3490415434344719
-0.46247640914619864
-0.022163617010600253
0.3490415434344719
-0.46189851412070243
-0.02245028653326278
0.34932786080270584
-0.46189851412070243
-0.02245028653326278
0.34932786080270584
-0.46189851412070243
-0.02245028653326278
0.34932786080270584
-0.46189851412070243
-0.02245028653326278
0.34932786080270584
-0.4616034105815475
-0.022808587598666354
0.34965567389389546
-0.4616034105815475
-0.022808587598666354
0.34965567389389546
-0.4616034105815475
-0.022808587598666354
0.34965567389389546
-0.4616034105815475
-0.022808587598666354
0.34965567389389546
-0.4621466322937978
-0.023649940059204115
0.3500052236231118
-0.4621466322937978
-0.023649940059204115
0.3500052236231118
-0.4621466322937978
-0.023649940059204115
0.3500052236231118
-0.4621466322937978
-0.023649940059204115
0.3500052236231118
-0.4632277968294836
-0.024461236201314254
0.35064528497932085
-0.4632277968294836
-0.024461236201314254
0.35064528497932085
-0.4632277968294836
-0.024461236201314254
0.35064528497932085
-0.4632277968294836
-0.024461236201314254
0.35064528497932085
-0.4634774073466092
-0.025660279276241142
0.3513237324569597
-0.4634774073466092
-0.025660279276241142
0.3513237324569597
-0.4634774073466092
-0.025660279276241142
0.3513237324569597
-0.4634774073466092
-0.025660279276241142
0.3513237324569597
-0.4634694106609188
-0.026932691394121827
0.35187105718824097
-0.4634694106609188
-0.026932691394121827
0.35187105718824097
-0.4634694106609188
-0.026932691394121827
0.35187105718824097
-0.4634694106609188
-0.026932691394121827
0.35187105718824097
-0.46327395328556603
-0.02850911042535656
0.3523637370482983
-0.46327395328556603
-0.02850911042535656
0.3523637370482983
-0.46327395328556603
-0.02850911042535656
0.3523637370482983
-0.46327395328556603
-0.02850911042535656
0.3523637370482983
-0.4633410296565722
-0.030039940841188988
0.3528710863907043
-0.4633410296565722
-0.030039940841188988
0.3528710863907043
-0.4633410296565722
-0.030039940841188988
0.3528710863907043
-0.4633410296565722
-0.030039940841188988
0.3528710863907043
-0.4633840355084322
-0.03160183510872718
0.3532403469209264
-0.4633840355084322
-0.03160183510872718
0.3532403469209264
-0.4633840355084322
-0.03160183510872718
0.3532403469209264
-0.4633840355084322
-0.03160183510872718
0.3532403469209264
-0.4634519671781052
-0.033308453677910965
0.35352071735580537
-0.4634519671781052
-0.033308453677910965
0.35352071735580537
-0.4634519671781052
-0.033308453677910965
0.35352071735580537
-0.4634519671781052
-0.033308453677910965
0.35352071735580537
-0.4639975236617658
-0.034837732321230296
0.3536661259255229
-0.4639975236617658
-0.034837732321230296
0.3536661259255229
-0.4639975236617658
-0.034837732321230296
0.3536661259255229
-0.4639975236617658
-0.034837732321230296
0.3536661259255229
-0.46372251679975784
-0.03597486114534811
0.35392963212372297
-0.46372251679975784
-0.03597486114534811
0.35392963212372297
-0.46372251679975784
-0.03597486114534811
0.35392963212372297
-0.46372251679975784
-0.03597486114534811
0.35392963212372297
-0.46432813733851064
-0.03649856891894169
0.353962964809496
-0.46432813733851064
-0.03649856891894169
0.353962964809496
-0.46432813733851064
-0.03649856891894169
0.353962964809496
-0.46432813733851064
-0.03649856891894169
0.353962964809496
-0.46486667257781017
-0.03664373509852613
0.35402927263629497
-0.46486667257781017
-0.03664373509852613
0.35402927263629497
-0.46486667257781017
-0.03664373509852613
0.35402927263629497
-0.46486667257781017
-0.03664373509852613
0.35402927263629497
-0.4653682726236812
-0.03609749378273683
0.3537858949973723
-0.4653682726236812
-0.03609749378273683
0.3537858949973723
-0.4653682726236812
-0.03609749378273683
0.3537858949973723
-0.4653682726236812
-0.03609749378273683
0.3537858949973723
-0.4654366594335394
-0.035176357824386405
0.3533216093548498
-0.4654366594335394
-0.035176357824386405
0.3533216093548498
-0.4654366594335394
-0.035176357824386405
0.3533216093548498
-0.4654366594335394
-0.035176357824386405
0.3533216093548498
-0.4659893024154254
-0.03362072046997458
0.3524681759559364
-0.4659893024154254
-0.03362072046997458
0.3524681759559364
-0.4659893024154254
-0.03362072046997458
0.3524681759559364
-0.4659893024154254
-0.03362072046997458
0.3524681759559364
-0.4671256998911404
-0.031835378788967514
0.3510959538427276
-0.4671256998911404
-0.031835378788967514
0.3510959538427276
-0.4671256998911404
-0.031835378788967514
0.3510959538427276
-0.4671256998911404
-0.031835378788967514
0.3510959538427276
-0.4682696487527923
-0.029389838782139577
0.3498112812408788
-0.4682696487527923
-0.029389838782139577
0.3498112812408788
-0.4682696487527923
-0.029389838782139577
0.3498112812408788
-0.4682696487527923
-0.029389838782139577
0.3498112812408788
-0.46859932887308436
-0.026755788412826862
0.34830049500255855
-0.46859932887308436
-0.026755788412826862
0.34830049500255855
-0.46859932887308436
-0.026755788412826862
0.34830049500255855
-0.46859932887308436
-0.026755788412826862
0.34830049500255855
-0.4684048196961548
-0.023341880050741004
0.34669840687675824
-0.4684048196961548
-0.023341880050741004
0.34669840687675824
-0.4684048196961548
-0.023341880050741004
0.34669840687675824
-0.4684048196961548
-0.023341880050741004
0.34669840687675824
-0.46889472586123376
-0.01953379962424812
0.3446603808803381
-0.46889472586123376
-0.01953379962424812
0.3446603808803381
-0.46889472586123376
-0.01953379962424812
0.3446603808803381
-0.46889472586123376
-0.01953379962424812
0.3446603808803381
-0.47039042995517155
-0.014917809047742142
0.34210623161322
