-0.6046907568558905
0.027772537641241993
-0.7851820579848783
-0.6046907568558905
0.027772537641241993
-0.7851820579848783
-0.6046907568558905
0.027772537641241993
-0.7851820579848783
-0.6046907568558905
0.027772537641241993
-0.7851820579848783
-0.6060539236539524
0.027236873167008215
-0.7846586343818189
-0.6060539236539524
0.027236873167008215
-0.7846586343818189
-0.6060539236539524
0.027236873167008215
-0.7846586343818189
-0.6060539236539524
0.027236873167008215
-0.7846586343818189
-0.6070867146022234
0.027015540570798597
-0.7845131306338848
-0.6070867146022234
0.027015540570798597
-0.7845131306338848
-0.6070867146022234
0.027015540570798597
-0.7845131306338848
-0.6070867146022234
0.027015540570798597
-0.7845131306338848
-0.6072391984181489
0.02707800086742299
-0.7845349650325057
-0.6072391984181489
0.02707800086742299
-0.7845349650325057
-0.6072391984181489
0.02707800086742299
-0.7845349650325057
-0.6072391984181489
0.02707800086742299
-0.7845349650325057
-0.6068430956021715
0.02753209828274886
-0.7844560613440268
-0.6068430956021715
0.02753209828274886
-0.7844560613440268
-0.6068430956021715
0.02753209828274886
-0.7844560613440268
-0.6068430956021715
0.02753209828274886
-0.7844560613440268
-0.6069005595114617
0.027673856893582965
-0.7843829062132137
-0.6069005595114617
0.027673856893582965
-0.7843829062132137
-0.6069005595114617
0.027673856893582965
-0.7843829062132137
-0.6069005595114617
0.027673856893582965
-0.7843829062132137
-0.6069336272723754
0.02713637907063264
-0.7851891807866547
-0.6069336272723754
0.02713637907063264
-0.7851891807866547
-0.6069336272723754
0.02713637907063264
-0.7851891807866547
-0.6069336272723754
0.02713637907063264
-0.7851891807866547
-0.6074569786151148
0.02667587364057613
-0.7855047187655225
-0.6074569786151148
0.02667587364057613
-0.7855047187655225
-0.6074569786151148
0.02667587364057613
-0.7855047187655225
-0.6074569786151148
0.02667587364057613
-0.7855047187655225
-0.6081703526478209
0.026380638580491805
-0.7855194541965627
-0.6081703526478209
0.026380638580491805
-0.7855194541965627
-0.6081703526478209
0.026380638580491805
-0.7855194541965627
-0.6081703526478209
0.026380638580491805
-0.7855194541965627
-0.6095105783672249
0.02569120928511356
-0.7851121540913747
-0.6095105783672249
0.02569120928511356
-0.7851121540913747
-0.6095105783672249
0.02569120928511356
-0.7851121540913747
-0.6095105783672249
0.02569120928511356
-0.7851121540913747
-0.6109295505413821
0.02477226835439694
-0.7852732564640398
-0.6109295505413821
0.02477226835439694
-0.7852732564640398
-0.6109295505413821
0.02477226835439694
-0.7852732564640398
-0.6109295505413821
0.02477226835439694
-0.7852732564640398
-0.6116779338946411
0.023957703134946863
-0.7851232602539631
-0.6116779338946411
0.023957703134946863
-0.7851232602539631
-0.6116779338946411
0.023957703134946863
-0.7851232602539631
-0.6116779338946411
0.023957703134946863
-0.7851232602539631
-0.6114725786397643
0.023459246149538954
-0.7852001216074569
-0.6114725786397643
0.023459246149538954
-0.7852001216074569
-0.6114725786397643
0.023459246149538954
-0.7852001216074569
-0.6114725786397643
0.023459246149538954
-0.7852001216074569
-0.6107983668867751
0.023447494607895115
-0.7852576294041869
-0.6107983668867751
0.023447494607895115
-0.7852576294041869
-0.6107983668867751
0.023447494607895115
-0.7852576294041869
-0.6107983668867751
0.023447494607895115
-0.7852576294041869
-0.6106909454626976
0.023492435465084602
-0.7852704120805871
-0.6106909454626976
0.023492435465084602
-0.7852704120805871
-0.6106909454626976
0.023492435465084602
-0.7852704120805871
-0.6106909454626976
0.023492435465084602
-0.7852704120805871
-0.6115217243215301
0.023779050449225823
-0.7854687132462537
-0.6115217243215301
0.023779050449225823
-0.7854687132462537
-0.6115217243215301
0.023779050449225823
-0.7854687132462537
-0.6115217243215301
0.023779050449225823
-0.7854687132462537
-0.6122272158046453
0.02427409841663048
-0.7851605625533017
-0.6122272158046453
0.02427409841663048
-0.7851605625533017
-0.6122272158046453
0.02427409841663048
-0.7851605625533017
-0.6122272158046453
0.02427409841663048
-0.7851605625533017
-0.6121995770410211
0.025026113470634898
-0.7845899621513847
-0.6121995770410211
0.025026113470634898
-0.7845899621513847
-0.6121995770410211
0.025026113470634898
-0.7845899621513847
-0.6121995770410211
0.025026113470634898
-0.7845899621513847
-0.6122838231574754
0.02543903019937123
-0.7840322038605232
-0.6122838231574754
0.02543903019937123
-0.7840322038605232
-0.6122838231574754
0.02543903019937123
-0.7840322038605232
-0.6122838231574754
0.02543903019937123
-0.7840322038605232
-0.6125513323862625
0.025785404864078626
-0.7839084539680364
-0.6125513323862625
0.025785404864078626
-0.7839084539680364
-0.6125513323862625
0.025785404864078626
-0.7839084539680364
-0.6125513323862625
0.025785404864078626
-0.7839084539680364
-0.611927533166731
0.026294869639518364
-0.7839637210012664
-0.611927533166731
0.026294869639518364
-0.7839637210012664
-0.611927533166731
0.026294869639518364
-0.7839637210012664
-0.611927533166731
0.026294869639518364
-0.7839637210012664
-0.6107403000716063
0.02686344776981077
-0.7836952079062327
-0.6107403000716063
0.02686344776981077
-0.7836952079062327
-0.6107403000716063
0.02686344776981077
-0.7836952079062327
-0.6107403000716063
0.02686344776981077
-0.7836952079062327
-0.6098523029830674
0.027142562422433236
-0.7835063551353519
-0.6098523029830674
0.027142562422433236
-0.7835063551353519
-0.6098523029830674
0.027142562422433236
-0.7835063551353519
-0.6098523029830674
0.027142562422433236
-0.7835063551353519
-0.609430651860887
0.02714387942764234
-0.7832151435201401
-0.609430651860887
0.02714387942764234
-0.7832151435201401
-0.609430651860887
0.02714387942764234
-0.7832151435201401
-0.609430651860887
0.02714387942764234
-0.7832151435201401
-0.6093231776004295
0.027188781527592756
-0.783227662432506
-0.6093231776004295
0.027188781527592756
-0.783227662432506
-0.6093231776004295
0.027188781527592756
-0.783227662432506
-0.6093231776004295
0.027188781527592756
-0.783227662432506
-0.6096823259171155
0.027339808214799925
-0.7835658932675409
-0.6096823259171155
0.027339808214799925
-0.7835658932675409
-0.6096823259171155
0.027339808214799925
-0.7835658932675409
-0.6096823259171155
0.027339808214799925
-0.7835658932675409
-0.610357799009995
0.027448658607861956
-0.7841109377586297
-0.610357799009995
0.027448658607861956
-0.7841109377586297
-0.610357799009995
0.027448658607861956
-0.7841109377586297
-0.610357799009995
0.027448658607861956
-0.7841109377586297
-0.6105771448016872
0.02757143410038187
-0.7843198350876198
-0.6105771448016872
0.02757143410038187
-0.7843198350876198
-0.6105771448016872
0.02757143410038187
-0.7843198350876198
-0.6105771448016872
0.02757143410038187
-0.7843198350876198
-0.6106845658335813
0.02752647702013651
-0.7843072902646111
-0.6106845658335813
0.02752647702013651
-0.7843072902646111
-0.6106845658335813
0.02752647702013651
-0.7843072902646111
-0.6106845658335813
0.02752647702013651
-0.7843072902646111
-0.6106845658335813
0.02752647702013651
-0.7843072902646111
-0.6106845658335813
0.02752647702013651
-0.7843072902646111
-0.6106845658335813
0.02752647702013651
-0.7843072902646111
-0.6106845658335813
0.02752647702013651
-0.7843072902646111
-0.6106845658335813
0.02752647702013651
-0.7843072902646111
-0.6106845658335813
0.02752647702013651
-0.7843072902646111
-0.6106845658335813
0.02752647702013651
-0.7843072902646111
-0.6106845658335813
0.02752647702013651
-0.7843072902646111
-0.6105771448016872
0.02757143410038187
-0.7843198350876198
-0.6105771448016872
0.02757143410038187
-0.7843198350876198
-0.6105771448016872
0.02757143410038187
-0.7843198350876198
-0.6105771448016872
0.02757143410038187
-0.7843198350876198
-0.6110458886670563
0.02759167860247253
-0.7845486459906501
-0.6110458886670563
0.02759167860247253
-0.7845486459906501
-0.6110458886670563
0.02759167860247253
-0.7845486459906501
-0.6110458886670563
0.02759167860247253
-0.7845486459906501
-0.6114075419331755
0.02714997261725026
-0.7845816324306797
-0.6114075419331755
0.02714997261725026
-0.7845816324306797
-0.6114075419331755
0.02714997261725026
-0.7845816324306797
-0.6114075419331755
0.02714997261725026
-0.7845816324306797
-0.610504126158115
0.02638851725336052
-0.7842313201994495
-0.610504126158115
0.02638851725336052
-0.7842313201994495
-0.610504126158115
0.02638851725336052
-0.7842313201994495
-0.610504126158115
0.02638851725336052
-0.7842313201994495
-0.6099354460261162
0.026138082221286777
-0.7830728528130624
-0.6099354460261162
0.026138082221286777
-0.7830728528130624
-0.6099354460261162
0.026138082221286777
-0.7830728528130624
-0.6099354460261162
0.026138082221286777
-0.7830728528130624
-0.6091699551164753
0.025716872897806487
-0.7818583224684961
-0.6091699551164753
0.025716872897806487
-0.7818583224684961
-0.6091699551164753
0.025716872897806487
-0.7818583224684961
-0.6091699551164753
0.025716872897806487
-0.7818583224684961
-0.6082745041796471
0.02518504063239218
-0.7807746267589596
-0.6082745041796471
0.02518504063239218
-0.7807746267589596
-0.6082745041796471
0.02518504063239218
-0.7807746267589596
-0.6082745041796471
0.02518504063239218
-0.7807746267589596
-0.6074586616301847
0.024423393549771865
-0.7802614370368876
-0.6074586616301847
0.024423393549771865
-0.7802614370368876
-0.6074586616301847
0.024423393549771865
-0.7802614370368876
-0.6074586616301847
0.024423393549771865
-0.7802614370368876
-0.605938187444538
0.023873573173885755
-0.7799948778436049
-0.605938187444538
0.023873573173885755
-0.7799948778436049
-0.605938187444538
0.023873573173885755
-0.7799948778436049
-0.605938187444538
0.023873573173885755
-0.7799948778436049
-0.6044477742224784
0.023904173580535117
-0.7800772751493233
-0.6044477742224784
0.023904173580535117
-0.7800772751493233
-0.6044477742224784
0.023904173580535117
-0.7800772751493233
-0.6044477742224784
0.023904173580535117
-0.7800772751493233
-0.6053498744450374
0.02396034171735003
-0.7804881323201311
-0.6053498744450374
0.02396034171735003
-0.7804881323201311
-0.6053498744450374
0.02396034171735003
-0.7804881323201311
-0.6053498744450374
0.02396034171735003
-0.7804881323201311
-0.6057516971701454
0.024019155858306815
-0.7811302894494137
-0.6057516971701454
0.024019155858306815
-0.7811302894494137
-0.6057516971701454
0.024019155858306815
-0.7811302894494137
-0.6057516971701454
0.024019155858306815
-0.7811302894494137
-0.6051208826564217
0.024494208472602804
-0.783121375498649
-0.6051208826564217
0.024494208472602804
-0.783121375498649
-0.6051208826564217
0.024494208472602804
-0.783121375498649
-0.6051208826564217
0.024494208472602804
-0.783121375498649
-0.6052624566457528
0.0263148073774623
-0.7864949576853103
-0.6052624566457528
0.0263148073774623
-0.7864949576853103
-0.6052624566457528
0.0263148073774623
-0.7864949576853103
-0.6052624566457528
0.0263148073774623
-0.7864949576853103
-0.6048609411001544
0.027410539770466775
-0.7902257836641187
-0.6048609411001544
0.027410539770466775
-0.7902257836641187
-0.6048609411001544
0.027410539770466775
-0.7902257836641187
-0.6048609411001544
0.027410539770466775
-0.7902257836641187
-0.6032209546890793
0.028421732696700966
-0.8027618707734937
-0.6032209546890793
0.028421732696700966
-0.8027618707734937
-0.6032209546890793
0.028421732696700966
-0.8027618707734937
-0.6032209546890793
0.028421732696700966
-0.8027618707734937
-0.6080040108678278
0.03663965627761482
-0.8262864473294751
-0.6080040108678278
0.03663965627761482
-0.8262864473294751
-0.6080040108678278
0.03663965627761482
-0.8262864473294751
-0.6080040108678278
0.03663965627761482
-0.8262864473294751
-0.6301807812288422
0.05560118584263193
-0.8584359500117461
-0.6301807812288422
0.05560118584263193
-0.8584359500117461
-0.6301807812288422
0.05560118584263193
-0.8584359500117461
-0.6301807812288422
0.05560118584263193
-0.8584359500117461
-0.6799775156081724
0.0730492207947862
-0.8966460393070683
-0.6799775156081724
0.0730492207947862
-0.8966460393070683
-0.6799775156081724
0.0730492207947862
-0.8966460393070683
-0.6799775156081724
0.0730492207947862
-0.8966460393070683
-0.7305011869738869
0.07684484954332971
-0.9269237758636083
-0.7305011869738869
0.07684484954332971
-0.9269237758636083
-0.7305011869738869
0.07684484954332971
-0.9269237758636083
-0.7305011869738869
0.07684484954332971
-0.9269237758636083
-0.7698459678144366
0.062268308861018556
-0.9357349921983565
-0.7698459678144366
0.062268308861018556
-0.9357349921983565
-0.7698459678144366
0.062268308861018556
-0.9357349921983565
-0.7698459678144366
0.062268308861018556
-0.9357349921983565
-0.7896961790002484
0.03470381893209353
-0.9273265940026115
-0.7896961790002484
0.03470381893209353
-0.9273265940026115
-0.7896961790002484
0.03470381893209353
-0.9273265940026115
-0.7896961790002484
0.03470381893209353
-0.9273265940026115
-0.7774688674927717
0.01963088989394317
-0.91091077427552
-0.7774688674927717
0.01963088989394317
-0.91091077427552
-0.7774688674927717
0.01963088989394317
-0.91091077427552
-0.7774688674927717
0.01963088989394317
-0.91091077427552
-0.7554378423022077
0.03205499946570226
-0.9008350303862814
-0.7554378423022077
0.03205499946570226
-0.9008350303862814
-0.7554378423022077
0.03205499946570226
-0.9008350303862814
-0.7554378423022077
0.03205499946570226
-0.9008350303862814
-0.7349033811159521
0.05262831012307906
-0.8993974580304805
-0.7349033811159521
0.05262831012307906
-0.8993974580304805
-0.7349033811159521
0.05262831012307906
-0.8993974580304805
-0.7349033811159521
0.05262831012307906
-0.8993974580304805
-0.7279070646323
0.07147693470942773
-0.8988807230651413
-0.7279070646323
0.07147693470942773
-0.8988807230651413
-0.7279070646323
0.07147693470942773
-0.8988807230651413
-0.7279070646323
0.07147693470942773
-0.8988807230651413
-0.7335182458378791
0.0816256363683764
-0.8970908426724451
-0.7335182458378791
0.0816256363683764
-0.8970908426724451
-0.7335182458378791
0.0816256363683764
-0.8970908426724451
-0.7335182458378791
0.0816256363683764
-0.8970908426724451
-0.7412090768002864
0.08161613976364575
-0.8960672153411541
-0.7412090768002864
0.08161613976364575
-0.8960672153411541
-0.7412090768002864
0.08161613976364575
-0.8960672153411541
-0.7412090768002864
0.08161613976364575
-0.8960672153411541
-0.7456140775285892
0.0737635255286658
-0.8982001355504161
-0.7456140775285892
0.0737635255286658
-0.8982001355504161
-0.7456140775285892
0.0737635255286658
-0.8982001355504161
-0.7456140775285892
0.0737635255286658
-0.8982001355504161
-0.7439527654754299
0.06566693802591882
-0.900797862822908
-0.7439527654754299
0.06566693802591882
-0.900797862822908
-0.7439527654754299
0.06566693802591882
-0.900797862822908
-0.7439527654754299
0.06566693802591882
-0.900797862822908
-0.7443232499387936
0.06574883002930339
-0.9043603983774009
-0.7443232499387936
0.06574883002930339
-0.9043603983774009
-0.7443232499387936
0.06574883002930339
-0.9043603983774009
-0.7443232499387936
0.06574883002930339
-0.9043603983774009
-0.7461029673605644
0.06675429013307282
-0.908793096692699
-0.7461029673605644
0.06675429013307282
-0.908793096692699
-0.7461029673605644
0.06675429013307282
-0.908793096692699
-0.7461029673605644
0.06675429013307282
-0.908793096692699
-0.7451956247014617
0.06302199417192608
-0.9136412596315868
-0.7451956247014617
0.06302199417192608
-0.9136412596315868
-0.7451956247014617
0.06302199417192608
-0.9136412596315868
-0.7451956247014617
0.06302199417192608
-0.9136412596315868
-0.7424653359332506
0.054873274474738394
-0.9184800829887323
-0.7424653359332506
0.054873274474738394
-0.9184800829887323
-0.7424653359332506
0.054873274474738394
-0.9184800829887323
-0.7424653359332506
0.054873274474738394
-0.9184800829887323
-0.7398138928547444
0.0454014828595145
-0.9216524908121572
-0.7398138928547444
0.0454014828595145
-0.9216524908121572
-0.7398138928547444
0.0454014828595145
-0.9216524908121572
-0.7398138928547444
0.0454014828595145
-0.9216524908121572
-0.7379538027878473
0.03876178721026974
-0.9230254704242283
-0.7379538027878473
0.03876178721026974
-0.9230254704242283
-0.7379538027878473
0.03876178721026974
-0.9230254704242283
-0.7379538027878473
0.03876178721026974
-0.9230254704242283
-0.7351000568786263
0.03713292816607049
-0.9236908690701592
-0.7351000568786263
0.03713292816607049
-0.9236908690701592
-0.7351000568786263
0.03713292816607049
-0.9236908690701592
-0.7351000568786263
0.03713292816607049
-0.9236908690701592
-0.7305432881772187
0.03680112555465834
-0.9250613253785591
-0.7305432881772187
0.03680112555465834
-0.9250613253785591
-0.7305432881772187
0.03680112555465834
-0.9250613253785591
-0.7305432881772187
0.03680112555465834
-0.9250613253785591
-0.723323842619647
0.036431578130875816
-0.9261927524239473
-0.723323842619647
0.036431578130875816
-0.9261927524239473
-0.723323842619647
0.036431578130875816
-0.9261927524239473
-0.723323842619647
0.036431578130875816
-0.9261927524239473
-0.7162487409923515
0.03651230823271358
-0.9275528062674404
-0.7162487409923515
0.03651230823271358
-0.9275528062674404
-0.7162487409923515
0.03651230823271358
-0.9275528062674404
-0.7162487409923515
0.03651230823271358
-0.9275528062674404
-0.7110577414365133
0.037161863297915404
-0.9291557522989214
-0.7110577414365133
0.037161863297915404
-0.9291557522989214
-0.7110577414365133
0.037161863297915404
-0.9291557522989214
-0.7110577414365133
0.037161863297915404
-0.9291557522989214
-0.7074703832739769
0.037535173254181015
-0.931087660798329
-0.7074703832739769
0.037535173254181015
-0.931087660798329
-0.7074703832739769
0.037535173254181015
-0.931087660798329
-0.7074703832739769
0.037535173254181015
-0.931087660798329
-0.7040499235570876
0.03741296106742241
-0.9340595604964059
-0.7040499235570876
0.03741296106742241
-0.9340595604964059
-0.7040499235570876
0.03741296106742241
-0.9340595604964059
-0.7040499235570876
0.03741296106742241
-0.9340595604964059
-0.7009918297881155
0.03606470193820611
-0.9380397965321625
-0.7009918297881155
0.03606470193820611
-0.9380397965321625
-0.7009918297881155
0.03606470193820611
-0.9380397965321625
-0.7009918297881155
0.03606470193820611
-0.9380397965321625
-0.6994341148655455
0.034082384468525226
-0.9425159362124722
-0.6994341148655455
0.034082384468525226
-0.9425159362124722
-0.6994341148655455
0.034082384468525226
-0.9425159362124722
-0.6994341148655455
0.034082384468525226
-0.9425159362124722
-0.698443423381125
0.03228258550041061
-0.9473024326666083
-0.698443423381125
0.03228258550041061
-0.9473024326666083
-0.698443423381125
0.03228258550041061
-0.9473024326666083
-0.698443423381125
0.03228258550041061
-0.9473024326666083
-0.6964932764632901
0.03191821788736282
-0.9507330542708322
-0.6964932764632901
0.03191821788736282
-0.9507330542708322
-0.6964932764632901
0.03191821788736282
-0.9507330542708322
-0.6964932764632901
0.03191821788736282
-0.9507330542708322
-0.6930083444957893
0.03327980074091905
-0.953127885696885
-0.6930083444957893
0.03327980074091905
-0.953127885696885
-0.6930083444957893
0.03327980074091905
-0.953127885696885
-0.6930083444957893
0.03327980074091905
-0.953127885696885
-0.688781241620999
0.03508742799560217
-0.95496258435323
-0.688781241620999
0.03508742799560217
-0.95496258435323
-0.688781241620999
0.03508742799560217
-0.95496258435323
-0.688781241620999
0.03508742799560217
-0.95496258435323
-0.6839328174969598
0.0369381808313327
-0.9555713405526316
-0.6839328174969598
0.0369381808313327
-0.9555713405526316
-0.6839328174969598
0.0369381808313327
-0.9555713405526316
-0.6839328174969598
0.0369381808313327
-0.9555713405526316
-0.6801224912700603
0.03855974334234186
-0.9556500847832903
-0.6801224912700603
0.03855974334234186
-0.9556500847832903
-0.6801224912700603
0.03855974334234186
-0.9556500847832903
-0.6801224912700603
0.03855974334234186
-0.9556500847832903
-0.6771362392378532
0.040542899177747796
-0.9551764296451767
-0.6771362392378532
0.040542899177747796
-0.9551764296451767
-0.6771362392378532
0.040542899177747796
-0.9551764296451767
-0.6771362392378532
0.040542899177747796
-0.9551764296451767
-0.6747570132901033
0.04321365128774542
-0.9543763277946
-0.6747570132901033
0.04321365128774542
-0.9543763277946
-0.6747570132901033
0.04321365128774542
-0.9543763277946
-0.6747570132901033
0.04321365128774542
-0.9543763277946
-0.6708450628338782
0.046236555488261666
-0.954402881135442
-0.6708450628338782
0.046236555488261666
-0.954402881135442
-0.6708450628338782
0.046236555488261666
-0.954402881135442
-0.6708450628338782
0.046236555488261666
-0.954402881135442
-0.6666108972194296
0.049075935370993265
-0.9541130756662656
-0.6666108972194296
0.049075935370993265
-0.9541130756662656
-0.6666108972194296
0.049075935370993265
-0.9541130756662656
-0.6666108972194296
0.049075935370993265
-0.9541130756662656
-0.6624278905442262
0.051278694428210835
-0.9534788986107067
-0.6624278905442262
0.051278694428210835
-0.9534788986107067
-0.6624278905442262
0.051278694428210835
-0.9534788986107067
-0.6624278905442262
0.051278694428210835
-0.9534788986107067
-0.6600563055279395
0.052628256061430415
-0.9526001485826288
-0.6600563055279395
0.052628256061430415
-0.9526001485826288
-0.6600563055279395
0.052628256061430415
-0.9526001485826288
-0.6600563055279395
0.052628256061430415
-0.9526001485826288
-0.6589660166297002
0.0538384535448937
-0.9519420874275876
-0.6589660166297002
0.0538384535448937
-0.9519420874275876
-0.6589660166297002
0.0538384535448937
-0.9519420874275876
-0.6589660166297002
0.0538384535448937
-0.9519420874275876
-0.6569469927569016
0.05548899452134655
-0.9518655419218127
-0.6569469927569016
0.05548899452134655
-0.9518655419218127
-0.6569469927569016
0.05548899452134655
-0.9518655419218127
-0.6569469927569016
0.05548899452134655
-0.9518655419218127
-0.6542366085954069
0.05766175047616124
-0.9515939289310288
-0.6542366085954069
0.05766175047616124
-0.9515939289310288
-0.6542366085954069
0.05766175047616124
-0.9515939289310288
-0.6542366085954069
0.05766175047616124
-0.9515939289310288
-0.6514541467287365
0.06017116339393485
-0.9505061758837274
-0.6514541467287365
0.06017116339393485
-0.9505061758837274
-0.6514541467287365
0.06017116339393485
-0.9505061758837274
-0.6514541467287365
0.06017116339393485
-0.9505061758837274
-0.6488006291850155
0.06182713473742463
-0.9495328371028979
-0.6488006291850155
0.06182713473742463
-0.9495328371028979
-0.6488006291850155
0.06182713473742463
-0.9495328371028979
-0.6488006291850155
0.06182713473742463
-0.9495328371028979
-0.647050912401102
0.06340181588873212
-0.9482725707619317
-0.647050912401102
0.06340181588873212
-0.9482725707619317
-0.647050912401102
0.06340181588873212
-0.9482725707619317
-0.647050912401102
0.06340181588873212
-0.9482725707619317
-0.645350401731311
0.06478676050340798
-0.9475819487337982
-0.645350401731311
0.06478676050340798
-0.9475819487337982
-0.645350401731311
0.06478676050340798
-0.9475819487337982
-0.645350401731311
0.06478676050340798
-0.9475819487337982
-0.6439423877997492
0.0659728003500395
-0.9469488283456768
-0.6439423877997492
0.0659728003500395
-0.9469488283456768
-0.6429821237800266
0.06710646564060743
-0.9463131615758877
-0.6429821237800266
0.06710646564060743
-0.9463131615758877
-0.6429821237800266
0.06710646564060743
-0.9463131615758877
-0.6429821237800266
0.06710646564060743
-0.9463131615758877
-0.6429821237800266
0.06710646564060743
-0.9463131615758877
-0.6429821237800266
0.06710646564060743
-0.9463131615758877
-0.6418627849028895
0.06801259457958415
-0.945652719678803
-0.6418627849028895
0.06801259457958415
-0.945652719678803
-0.6411359124776927
0.06858601747041064
-0.9449532343623314
-0.6411359124776927
0.06858601747041064
-0.9449532343623314
-0.6411359124776927
0.06858601747041064
-0.9449532343623314
-0.6411359124776927
0.06858601747041064
-0.9449532343623314
-0.6408246158084225
0.06864032798297817
-0.9439237250664964
-0.6408246158084225
0.06864032798297817
-0.9439237250664964
-0.6408246158084225
0.06864032798297817
-0.9439237250664964
-0.6408246158084225
0.06864032798297817
-0.9439237250664964
-0.6409356004667985
0.0691754718128845
-0.943011957041294
-0.6409356004667985
0.0691754718128845
-0.943011957041294
-0.6409356004667985
0.0691754718128845
-0.943011957041294
-0.6409356004667985
0.0691754718128845
-0.943011957041294
-0.6405458265513305
0.0705775975633827
-0.9424269099185341
-0.6405458265513305
0.0705775975633827
-0.9424269099185341
-0.6405458265513305
0.0705775975633827
-0.9424269099185341
-0.6405458265513305
0.0705775975633827
-0.9424269099185341
-0.6395120447676836
0.0731215645848317
-0.9415047417411456
-0.6395120447676836
0.0731215645848317
-0.9415047417411456
-0.6395120447676836
0.0731215645848317
-0.9415047417411456
-0.6395120447676836
0.0731215645848317
-0.9415047417411456
-0.6371003105787552
0.07648502137893178
-0.9401626723230193
-0.6371003105787552
0.07648502137893178
-0.9401626723230193
-0.6371003105787552
0.07648502137893178
-0.9401626723230193
-0.6371003105787552
0.07648502137893178
-0.9401626723230193
-0.6351938343606275
0.07889323217253044
-0.9387501133797316
-0.6351938343606275
0.07889323217253044
-0.9387501133797316
-0.6351938343606275
0.07889323217253044
-0.9387501133797316
-0.6351938343606275
0.07889323217253044
-0.9387501133797316
-0.6333191630066859
0.07976157699652371
-0.9371172573677662
-0.6333191630066859
0.07976157699652371
-0.9371172573677662
-0.6333191630066859
0.07976157699652371
-0.9371172573677662
-0.6333191630066859
0.07976157699652371
-0.9371172573677662
-0.6322193906472916
0.07993046687904382
-0.9355174586456835
-0.6322193906472916
0.07993046687904382
-0.9355174586456835
-0.6322193906472916
0.07993046687904382
-0.9355174586456835
-0.6322193906472916
0.07993046687904382
-0.9355174586456835
-0.6312455938294969
0.07999525406860394
-0.9340614329134931
-0.6312455938294969
0.07999525406860394
-0.9340614329134931
-0.6312455938294969
0.07999525406860394
-0.9340614329134931
-0.6312455938294969
0.07999525406860394
-0.9340614329134931
-0.63011166512667
0.08063087770024975
-0.9333032927161896
-0.63011166512667
0.08063087770024975
-0.9333032927161896
-0.63011166512667
0.08063087770024975
-0.9333032927161896
-0.63011166512667
0.08063087770024975
-0.9333032927161896
-0.6288950753899677
0.08187362041981136
-0.9326232924677467
-0.6288950753899677
0.08187362041981136
-0.9326232924677467
-0.6288950753899677
0.08187362041981136
-0.9326232924677467
-0.6288950753899677
0.08187362041981136
-0.9326232924677467
-0.6271708452197592
0.0822569545001186
-0.9322732294061145
-0.6271708452197592
0.0822569545001186
-0.9322732294061145
-0.6271708452197592
0.0822569545001186
-0.9322732294061145
-0.6271708452197592
0.0822569545001186
-0.9322732294061145
-0.6265102436680567
0.08201208626176718
-0.9317642882723296
-0.6265102436680567
0.08201208626176718
-0.9317642882723296
-0.6265102436680567
0.08201208626176718
-0.9317642882723296
-0.6265102436680567
0.08201208626176718
-0.9317642882723296
-0.6268310902086809
0.0817477353655565
-0.9311749227549656
-0.6268310902086809
0.0817477353655565
-0.9311749227549656
-0.6268310902086809
0.0817477353655565
-0.9311749227549656
-0.6268310902086809
0.0817477353655565
-0.9311749227549656
-0.627265885471264
0.08134598468208903
-0.9308330568742703
-0.627265885471264
0.08134598468208903
-0.9308330568742703
-0.627265885471264
0.08134598468208903
-0.9308330568742703
-0.627265885471264
0.08134598468208903
-0.9308330568742703
-0.6280748895661796
0.0818447868085768
-0.9307412175058493
-0.6280748895661796
0.0818447868085768
-0.9307412175058493
-0.6280748895661796
0.0818447868085768
-0.9307412175058493
-0.6280748895661796
0.0818447868085768
-0.9307412175058493
-0.6272896669522655
0.08288291983761593
-0.9305280227399656
-0.6272896669522655
0.08288291983761593
-0.9305280227399656
-0.6272896669522655
0.08288291983761593
-0.9305280227399656
-0.6272896669522655
0.08288291983761593
-0.9305280227399656
-0.6262536834139758
0.08352142952820914
-0.9301167822997916
-0.6262536834139758
0.08352142952820914
-0.9301167822997916
-0.6262536834139758
0.08352142952820914
-0.9301167822997916
-0.6262536834139758
0.08352142952820914
-0.9301167822997916
-0.626180614215271
0.08372614055140198
-0.9300082175954529
-0.626180614215271
0.08372614055140198
-0.9300082175954529
-0.626180614215271
0.08372614055140198
-0.9300082175954529
-0.626180614215271
0.08372614055140198
-0.9300082175954529
-0.6263796371335751
0.08310038643198496
-0.9298144612990282
-0.6263796371335751
0.08310038643198496
-0.9298144612990282
-0.6263796371335751
0.08310038643198496
-0.9298144612990282
-0.6263796371335751
0.08310038643198496
-0.9298144612990282
-0.6270104182409523
0.082132937452314
-0.9296413630849809
-0.6270104182409523
0.082132937452314
-0.9296413630849809
-0.6270104182409523
0.082132937452314
-0.9296413630849809
-0.6270104182409523
0.082132937452314
-0.9296413630849809
-0.6271003708158365
0.08118138950301056
-0.9297391342315284
-0.6271003708158365
0.08118138950301056
-0.9297391342315284
-0.6271003708158365
0.08118138950301056
-0.9297391342315284
-0.6271003708158365
0.08118138950301056
-0.9297391342315284
-0.6268673921784893
0.08035428497806958
-0.9299783935803387
-0.6268673921784893
0.08035428497806958
-0.9299783935803387
-0.6268673921784893
0.08035428497806958
-0.9299783935803387
-0.6268673921784893
0.08035428497806958
-0.9299783935803387
-0.6264374414580063
0.08027266885639396
-0.9300483424718936
-0.6264374414580063
0.08027266885639396
-0.9300483424718936
-0.6264374414580063
0.08027266885639396
-0.9300483424718936
-0.6264374414580063
0.08027266885639396
-0.9300483424718936
-0.6259016607872372
0.07980556929658272
-0.9300481307829999
-0.6259016607872372
0.07980556929658272
-0.9300481307829999
-0.6259016607872372
0.07980556929658272
-0.9300481307829999
-0.6259016607872372
0.07980556929658272
-0.9300481307829999
-0.6255154887263048
0.07886917663479746
-0.9299027518176078
-0.6255154887263048
0.07886917663479746
-0.9299027518176078
-0.6255154887263048
0.07886917663479746
-0.9299027518176078
-0.6255154887263048
0.07886917663479746
-0.9299027518176078
-0.6252050408173303
0.07784748109838598
-0.9295024685038829
-0.6252050408173303
0.07784748109838598
-0.9295024685038829
-0.6252050408173303
0.07784748109838598
-0.9295024685038829
-0.6252050408173303
0.07784748109838598
-0.9295024685038829
-0.6258269604393986
0.07710379633997046
-0.9295159452352377
-0.6258269604393986
0.07710379633997046
-0.9295159452352377
-0.6258269604393986
0.07710379633997046
-0.9295159452352377
-0.6258269604393986
0.07710379633997046
-0.9295159452352377
-0.6268681346570395
0.07684494673935877
-0.9296446457398139
-0.6268681346570395
0.07684494673935877
-0.9296446457398139
-0.6268681346570395
0.07684494673935877
-0.9296446457398139
-0.6268681346570395
0.07684494673935877
-0.9296446457398139
-0.6275171052738693
0.07717458743434613
-0.9298915783594535
-0.6275171052738693
0.07717458743434613
-0.9298915783594535
-0.6275171052738693
0.07717458743434613
-0.9298915783594535
-0.6275171052738693
0.07717458743434613
-0.9298915783594535
-0.6275705871564521
0.07727764106364553
-0.929927346352676
-0.6275705871564521
0.07727764106364553
-0.929927346352676
-0.6275705871564521
0.07727764106364553
-0.929927346352676
-0.6275705871564521
0.07727764106364553
-0.929927346352676
-0.6280991226089617
0.07722589545515476
-0.9297582167669709
-0.6280991226089617
0.07722589545515476
-0.9297582167669709
-0.6280991226089617
0.07722589545515476
-0.9297582167669709
-0.6280991226089617
0.07722589545515476
-0.9297582167669709
-0.6288677981553664
0.07661620439547379
-0.9295331066453791
-0.6288677981553664
0.07661620439547379
-0.9295331066453791
-0.6288677981553664
0.07661620439547379
-0.9295331066453791
-0.6288677981553664
0.07661620439547379
-0.9295331066453791
-0.6296660357361763
0.07633755982988821
-0.9291855770016524
-0.6296660357361763
0.07633755982988821
-0.9291855770016524
-0.6296660357361763
0.07633755982988821
-0.9291855770016524
-0.6296660357361763
0.07633755982988821
-0.9291855770016524
-0.6298227926679753
0.07638734427946639
-0.9292084356547541
-0.6298227926679753
0.07638734427946639
-0.9292084356547541
-0.6298227926679753
0.07638734427946639
-0.9292084356547541
-0.6298227926679753
0.07638734427946639
-0.9292084356547541
-0.6297924049384624
0.07695901224719552
-0.9288752353585872
-0.6297924049384624
0.07695901224719552
-0.9288752353585872
-0.6297924049384624
0.07695901224719552
-0.9288752353585872
-0.6297924049384624
0.07695901224719552
-0.9288752353585872
-0.6288743125620155
0.07771890632604549
-0.9287997865696711
-0.6288743125620155
0.07771890632604549
-0.9287997865696711
-0.6288743125620155
0.07771890632604549
-0.9287997865696711
-0.6288743125620155
0.07771890632604549
-0.9287997865696711
-0.6284284719457107
0.07820423627010349
-0.928882488778487
-0.6284284719457107
0.07820423627010349
-0.928882488778487
-0.6284284719457107
0.07820423627010349
-0.928882488778487
-0.6284284719457107
0.07820423627010349
-0.928882488778487
-0.6275207574264826
0.07815694008414112
-0.9295211226667334
-0.6275207574264826
0.07815694008414112
-0.9295211226667334
-0.6275207574264826
0.07815694008414112
-0.9295211226667334
-0.6275207574264826
0.07815694008414112
-0.9295211226667334
-0.6254845256547512
0.0772728464573567
-0.9309351955002275
-0.6254845256547512
0.0772728464573567
-0.9309351955002275
-0.6254845256547512
0.0772728464573567
-0.9309351955002275
-0.6254845256547512
0.0772728464573567
-0.9309351955002275
-0.6249977454087393
0.07492125117309935
-0.9323374187767233
-0.6249977454087393
0.07492125117309935
-0.9323374187767233
-0.6249977454087393
0.07492125117309935
-0.9323374187767233
-0.6249977454087393
0.07492125117309935
-0.9323374187767233
-0.6217718512352901
0.07356673938584589
-0.9339588471528493
-0.6217718512352901
0.07356673938584589
-0.9339588471528493
-0.6217718512352901
0.07356673938584589
-0.9339588471528493
-0.6217718512352901
0.07356673938584589
-0.9339588471528493
-0.6176272764986976
0.07344076084811932
-0.9349657238877429
-0.6176272764986976
0.07344076084811932
-0.9349657238877429
-0.6176272764986976
0.07344076084811932
-0.9349657238877429
-0.6176272764986976
0.07344076084811932
-0.9349657238877429
-0.6155798514106283
0.07469146891035774
-0.9336810550287669
-0.6155798514106283
0.07469146891035774
-0.9336810550287669
-0.6155798514106283
0.07469146891035774
-0.9336810550287669
-0.6155798514106283
0.07469146891035774
-0.9336810550287669
-0.6143965229014929
0.07702670445546865
-0.9288172048584882
-0.6143965229014929
0.07702670445546865
-0.9288172048584882
-0.6143965229014929
0.07702670445546865
-0.9288172048584882
-0.6143965229014929
0.07702670445546865
-0.9288172048584882
-0.6139286578616503
0.08103621839441227
-0.9219320060474832
-0.6139286578616503
0.08103621839441227
-0.9219320060474832
-0.6139286578616503
0.08103621839441227
-0.9219320060474832
-0.6139286578616503
0.08103621839441227
-0.9219320060474832
-0.6117094761819504
0.08558260284250745
-0.911244768217443
-0.6117094761819504
0.08558260284250745
-0.911244768217443
-0.6117094761819504
0.08558260284250745
-0.911244768217443
-0.6117094761819504
0.08558260284250745
-0.911244768217443
-0.6054419584998415
0.0905901385854412
-0.8975515125638999
-0.6054419584998415
0.0905901385854412
-0.8975515125638999
-0.6054419584998415
0.0905901385854412
-0.8975515125638999
-0.6054419584998415
0.0905901385854412
-0.8975515125638999
-0.5932617554036972
0.09261189255178266
-0.8795498142496483
-0.5932617554036972
0.09261189255178266
-0.8795498142496483
-0.5932617554036972
0.09261189255178266
-0.8795498142496483
-0.5932617554036972
0.09261189255178266
-0.8795498142496483
-0.575882633814142
0.09369371646560716
-0.8599078576542989
-0.575882633814142
0.09369371646560716
-0.8599078576542989
-0.575882633814142
0.09369371646560716
-0.8599078576542989
-0.575882633814142
0.09369371646560716
-0.8599078576542989
-0.5597070202942314
0.09082972703933795
-0.8419803932301857
-0.5597070202942314
0.09082972703933795
-0.8419803932301857
-0.5597070202942314
0.09082972703933795
-0.8419803932301857
-0.5597070202942314
0.09082972703933795
-0.8419803932301857
-0.5446657111549277
0.08359501249130487
-0.827995460027973
-0.5446657111549277
0.08359501249130487
-0.827995460027973
-0.5446657111549277
0.08359501249130487
-0.827995460027973
-0.5446657111549277
0.08359501249130487
-0.827995460027973
-0.5327916284223027
0.07212099734795946
-0.817402696995648
-0.5327916284223027
0.07212099734795946
-0.817402696995648
-0.5327916284223027
0.07212099734795946
-0.817402696995648
-0.5327916284223027
0.07212099734795946
-0.817402696995648
-0.517921107950869
0.0592199942355502
-0.8097834095345191
-0.517921107950869
0.0592199942355502
-0.8097834095345191
-0.517921107950869
0.0592199942355502
-0.8097834095345191
-0.517921107950869
0.0592199942355502
-0.8097834095345191
-0.5037043638801191
0.04555146869375342
-0.8081135146320979
-0.5037043638801191
0.04555146869375342
-0.8081135146320979
-0.5037043638801191
0.04555146869375342
-0.8081135146320979
-0.5037043638801191
0.04555146869375342
-0.8081135146320979
-0.4968688205201216
0.0338981251408679
-0.8124628798108049
-0.4968688205201216
0.0338981251408679
-0.8124628798108049
-0.4968688205201216
0.0338981251408679
-0.8124628798108049
-0.4968688205201216
0.0338981251408679
-0.8124628798108049
-0.49540346467706137
0.0235779441743753
-0.8156639097075211
-0.49540346467706137
0.0235779441743753
-0.8156639097075211
-0.49540346467706137
0.0235779441743753
-0.8156639097075211
-0.49540346467706137
0.0235779441743753
-0.8156639097075211
-0.49837253602430714
0.0166511586509378
-0.815195312677556
-0.49837253602430714
0.0166511586509378
-0.815195312677556
-0.49837253602430714
0.0166511586509378
-0.815195312677556
-0.49837253602430714
0.0166511586509378
-0.815195312677556
-0.5049199346307778
0.011606386849784994
-0.8136880707943247
-0.5049199346307778
0.011606386849784994
-0.8136880707943247
-0.5049199346307778
0.011606386849784994
-0.8136880707943247
-0.5049199346307778
0.011606386849784994
-0.8136880707943247
-0.5136051660924529
0.007897617278301362
-0.813597569502425
-0.5136051660924529
0.007897617278301362
-0.813597569502425
-0.5136051660924529
0.007897617278301362
-0.813597569502425
-0.5136051660924529
0.007897617278301362
-0.813597569502425
-0.5180030674960148
0.005901136309975838
-0.8139835415430868
-0.5180030674960148
0.005901136309975838
-0.8139835415430868
-0.5180030674960148
0.005901136309975838
-0.8139835415430868
-0.5180030674960148
0.005901136309975838
-0.8139835415430868
-0.5214835038722476
0.005591425286073284
-0.814195211979262
-0.5214835038722476
0.005591425286073284
-0.814195211979262
-0.5214835038722476
0.005591425286073284
-0.814195211979262
-0.5214835038722476
0.005591425286073284
-0.814195211979262
-0.5213587672199246
0.004950553298193169
-0.8131777692139591
-0.5213587672199246
0.004950553298193169
-0.8131777692139591
-0.5213587672199246
0.004950553298193169
-0.8131777692139591
-0.5213587672199246
0.004950553298193169
-0.8131777692139591
-0.5188038895823824
0.004130585310394082
-0.8120903172373595
-0.5188038895823824
0.004130585310394082
-0.8120903172373595
-0.5188038895823824
0.004130585310394082
-0.8120903172373595
-0.5188038895823824
0.004130585310394082
-0.8120903172373595
-0.5157091058166127
0.003980063128650185
-0.8119769941190413
-0.5157091058166127
0.003980063128650185
-0.8119769941190413
-0.5157091058166127
0.003980063128650185
-0.8119769941190413
-0.5157091058166127
0.003980063128650185
-0.8119769941190413
-0.5147458446627794
0.004862235318973089
-0.8133506708147636
-0.5147458446627794
0.004862235318973089
-0.8133506708147636
-0.5147458446627794
0.004862235318973089
-0.8133506708147636
-0.5147458446627794
0.004862235318973089
-0.8133506708147636
-0.5151342299113167
0.006712374147368908
-0.8145684790134097
-0.5151342299113167
0.006712374147368908
-0.8145684790134097
-0.5151342299113167
0.006712374147368908
-0.8145684790134097
-0.5151342299113167
0.006712374147368908
-0.8145684790134097
-0.5154400699614049
0.008095931735644404
-0.814536494042553
-0.5154400699614049
0.008095931735644404
-0.814536494042553
-0.5154400699614049
0.008095931735644404
-0.814536494042553
-0.5154400699614049
0.008095931735644404
-0.814536494042553
-0.5161437877109101
0.009727598704099357
-0.8145063337343883
-0.5161437877109101
0.009727598704099357
-0.8145063337343883
-0.5161437877109101
0.009727598704099357
-0.8145063337343883
-0.5161437877109101
0.009727598704099357
-0.8145063337343883
-0.5189541017569084
0.012183470604463923
-0.8152401122828697
-0.5189541017569084
0.012183470604463923
-0.8152401122828697
-0.5189541017569084
0.012183470604463923
-0.8152401122828697
-0.5189541017569084
0.012183470604463923
-0.8152401122828697
-0.5226001509931977
0.0155482760137425
-0.8174092324709531
-0.5226001509931977
0.0155482760137425
-0.8174092324709531
-0.5226001509931977
0.0155482760137425
-0.8174092324709531
-0.5226001509931977
0.0155482760137425
-0.8174092324709531
-0.5258198640183981
0.019498406657012277
-0.8206586727959879
-0.5258198640183981
0.019498406657012277
-0.8206586727959879
-0.5258198640183981
0.019498406657012277
-0.8206586727959879
-0.5258198640183981
0.019498406657012277
-0.8206586727959879
-0.5260387522906937
0.023210467970310525
-0.8235202896734444
-0.5260387522906937
0.023210467970310525
-0.8235202896734444
-0.5260387522906937
0.023210467970310525
-0.8235202896734444
-0.5260387522906937
0.023210467970310525
-0.8235202896734444
-0.5253191207825965
0.026591796719094663
-0.8265781747527384
-0.5253191207825965
0.026591796719094663
-0.8265781747527384
-0.5253191207825965
0.026591796719094663
-0.8265781747527384
-0.5253191207825965
0.026591796719094663
-0.8265781747527384
-0.527367413114742
0.031505546471330394
-0.8328853861858858
-0.527367413114742
0.031505546471330394
-0.8328853861858858
-0.527367413114742
0.031505546471330394
-0.8328853861858858
-0.527367413114742
0.031505546471330394
-0.8328853861858858
-0.5362212515590977
0.03958341767910166
-0.8436863010941852
-0.5362212515590977
0.03958341767910166
-0.8436863010941852
-0.5362212515590977
0.03958341767910166
-0.8436863010941852
-0.5362212515590977
0.03958341767910166
-0.8436863010941852
-0.5490785113316059
0.047851431420099816
-0.8573599536839349
-0.5490785113316059
0.047851431420099816
-0.8573599536839349
-0.5490785113316059
0.047851431420099816
-0.8573599536839349
-0.5490785113316059
0.047851431420099816
-0.8573599536839349
-0.5583839606007892
0.05394636697060788
-0.8719091546134826
-0.5583839606007892
0.05394636697060788
-0.8719091546134826
-0.5583839606007892
0.05394636697060788
-0.8719091546134826
-0.5583839606007892
0.05394636697060788
-0.8719091546134826
-0.566085323439537
0.0595873759116036
-0.8870634627933504
-0.566085323439537
0.0595873759116036
-0.8870634627933504
-0.566085323439537
0.0595873759116036
-0.8870634627933504
-0.566085323439537
0.0595873759116036
-0.8870634627933504
-0.5794151412908098
0.06431239055560309
-0.9023011601080511
-0.5794151412908098
0.06431239055560309
-0.9023011601080511
-0.5794151412908098
0.06431239055560309
-0.9023011601080511
-0.5794151412908098
0.06431239055560309
-0.9023011601080511
-0.5955513903994892
0.06658315201044218
-0.9165407927657966
-0.5955513903994892
0.06658315201044218
-0.9165407927657966
-0.5955513903994892
0.06658315201044218
-0.9165407927657966
-0.5955513903994892
0.06658315201044218
-0.9165407927657966
-0.6118244755944334
0.06859974293169767
-0.9289204457278146
-0.6118244755944334
0.06859974293169767
-0.9289204457278146
-0.6118244755944334
0.06859974293169767
-0.9289204457278146
-0.6118244755944334
0.06859974293169767
-0.9289204457278146
-0.6234518712236476
0.06979825523234474
-0.9378582192101608
-0.6234518712236476
0.06979825523234474
-0.9378582192101608
-0.6234518712236476
0.06979825523234474
-0.9378582192101608
-0.6234518712236476
0.06979825523234474
-0.9378582192101608
-0.637088502106857
0.06743071516673294
-0.9440759835049748
-0.637088502106857
0.06743071516673294
-0.9440759835049748
-0.637088502106857
0.06743071516673294
-0.9440759835049748
-0.637088502106857
0.06743071516673294
-0.9440759835049748
-0.648268958113182
0.057998888888391595
-0.9410255960713998
-0.648268958113182
0.057998888888391595
-0.9410255960713998
-0.648268958113182
0.057998888888391595
-0.9410255960713998
-0.648268958113182
0.057998888888391595
-0.9410255960713998
-0.6480908345787635
0.047231851168508546
-0.9293376472402782
-0.6480908345787635
0.047231851168508546
-0.9293376472402782
-0.6480908345787635
0.047231851168508546
-0.9293376472402782
-0.6480908345787635
0.047231851168508546
-0.9293376472402782
-0.6346819123876233
0.05138772199245218
-0.9207825926200227
-0.6346819123876233
0.05138772199245218
-0.9207825926200227
-0.6346819123876233
0.05138772199245218
-0.9207825926200227
-0.6346819123876233
0.05138772199245218
-0.9207825926200227
-0.6256978301009302
0.06932277231605014
-0.917004424845052
-0.6256978301009302
0.06932277231605014
-0.917004424845052
-0.6256978301009302
0.06932277231605014
-0.917004424845052
-0.6256978301009302
0.06932277231605014
-0.917004424845052
-0.6295829293798356
0.08577662199410623
-0.9178337357353205
-0.6295829293798356
0.08577662199410623
-0.9178337357353205
-0.6295829293798356
0.08577662199410623
-0.9178337357353205
-0.6295829293798356
0.08577662199410623
-0.9178337357353205
-0.6372136529292698
0.09393647594083836
-0.9174422915911637
-0.6372136529292698
0.09393647594083836
-0.9174422915911637
-0.6372136529292698
0.09393647594083836
-0.9174422915911637
-0.6372136529292698
0.09393647594083836
-0.9174422915911637
-0.6430547188297391
0.08834851418305122
-0.9179785323784793
-0.6430547188297391
0.08834851418305122
-0.9179785323784793
-0.6430547188297391
0.08834851418305122
-0.9179785323784793
-0.6430547188297391
0.08834851418305122
-0.9179785323784793
-0.6478362207413377
0.0769516553565459
-0.9164917070814346
-0.6478362207413377
0.0769516553565459
-0.9164917070814346
-0.6478362207413377
0.0769516553565459
-0.9164917070814346
-0.6478362207413377
0.0769516553565459
-0.9164917070814346
-0.6493579844012813
0.06891049868571486
-0.9158030426684267
-0.6493579844012813
0.06891049868571486
-0.9158030426684267
-0.6493579844012813
0.06891049868571486
-0.9158030426684267
-0.6493579844012813
0.06891049868571486
-0.9158030426684267
-0.6510064730046341
0.06990866476886669
-0.9156727916740707
-0.6510064730046341
0.06990866476886669
-0.9156727916740707
-0.6510064730046341
0.06990866476886669
-0.9156727916740707
-0.6510064730046341
0.06990866476886669
-0.9156727916740707
-0.6500856987561217
0.07352505492688029
-0.9170339967501773
-0.6500856987561217
0.07352505492688029
-0.9170339967501773
-0.6500856987561217
0.07352505492688029
-0.9170339967501773
-0.6500856987561217
0.07352505492688029
-0.9170339967501773
-0.649223150426969
0.0741726049285906
-0.917626285187372
-0.649223150426969
0.0741726049285906
-0.917626285187372
-0.649223150426969
0.0741726049285906
-0.917626285187372
-0.649223150426969
0.0741726049285906
-0.917626285187372
-0.6488857625718275
0.0706664382383408
-0.9168966970294754
-0.6488857625718275
0.0706664382383408
-0.9168966970294754
-0.6488857625718275
0.0706664382383408
-0.9168966970294754
-0.6488857625718275
0.0706664382383408
-0.9168966970294754
-0.6466655121890493
0.06808545608909689
-0.9157259999916157
-0.6466655121890493
0.06808545608909689
-0.9157259999916157
-0.6466655121890493
0.06808545608909689
-0.9157259999916157
-0.6466655121890493
0.06808545608909689
-0.9157259999916157
-0.6465579232033802
0.07065791436414166
-0.9145688576610282
-0.6465579232033802
0.07065791436414166
-0.9145688576610282
-0.6465579232033802
0.07065791436414166
-0.9145688576610282
-0.6465579232033802
0.07065791436414166
-0.9145688576610282
-0.6469071962476132
0.07499691074467633
-0.9140175424002044
-0.6469071962476132
0.07499691074467633
-0.9140175424002044
-0.6469071962476132
0.07499691074467633
-0.9140175424002044
-0.6469071962476132
0.07499691074467633
-0.9140175424002044
-0.6466422257851439
0.0773640913361287
-0.9138203654091354
-0.6466422257851439
0.0773640913361287
-0.9138203654091354
-0.6466422257851439
0.0773640913361287
-0.9138203654091354
-0.6466422257851439
0.0773640913361287
-0.9138203654091354
-0.6459840545228018
0.07725357361837233
-0.9137606753373667
-0.6459840545228018
0.07725357361837233
-0.9137606753373667
-0.6459840545228018
0.07725357361837233
-0.9137606753373667
-0.6459840545228018
0.07725357361837233
-0.9137606753373667
-0.6469279176650866
0.07593286932971226
-0.9138119256879746
-0.6469279176650866
0.07593286932971226
-0.9138119256879746
-0.6469279176650866
0.07593286932971226
-0.9138119256879746
-0.6469279176650866
0.07593286932971226
-0.9138119256879746
-0.6492633282815783
0.07484148592367802
-0.9146231682417548
-0.6492633282815783
0.07484148592367802
-0.9146231682417548
-0.6492633282815783
0.07484148592367802
-0.9146231682417548
-0.6492633282815783
0.07484148592367802
-0.9146231682417548
-0.6507432908133248
0.07529403443238644
-0.9159241485701706
-0.6507432908133248
0.07529403443238644
-0.9159241485701706
-0.6507432908133248
0.07529403443238644
-0.9159241485701706
-0.6507432908133248
0.07529403443238644
-0.9159241485701706
-0.6522382297185422
0.07617409896822212
-0.9176601086309512
-0.6522382297185422
0.07617409896822212
-0.9176601086309512
-0.6522382297185422
0.07617409896822212
-0.9176601086309512
-0.6522382297185422
0.07617409896822212
-0.9176601086309512
-0.6532676030812198
0.07658779755438673
-0.9188760087301611
-0.6532676030812198
0.07658779755438673
-0.9188760087301611
-0.6532676030812198
0.07658779755438673
-0.9188760087301611
-0.6532676030812198
0.07658779755438673
-0.9188760087301611
-0.6528887292776866
0.07648116996240191
-0.9193446369681308
-0.6528887292776866
0.07648116996240191
-0.9193446369681308
-0.6528887292776866
0.07648116996240191
-0.9193446369681308
-0.6528887292776866
0.07648116996240191
-0.9193446369681308
-0.6519641125487625
0.07559975563086233
-0.9190117635768305
-0.6519641125487625
0.07559975563086233
-0.9190117635768305
-0.6519641125487625
0.07559975563086233
-0.9190117635768305
-0.6519641125487625
0.07559975563086233
-0.9190117635768305
-0.651340783742486
0.07451325437503581
-0.9179302640874328
-0.651340783742486
0.07451325437503581
-0.9179302640874328
-0.651340783742486
0.07451325437503581
-0.9179302640874328
-0.651340783742486
0.07451325437503581
-0.9179302640874328
-0.6505754908545127
0.07422000252189546
-0.9163634736006041
-0.6505754908545127
0.07422000252189546
-0.9163634736006041
-0.6505754908545127
0.07422000252189546
-0.9163634736006041
-0.6505754908545127
0.07422000252189546
-0.9163634736006041
-0.6501996030494884
0.07451729972046946
-0.9151236765306122
-0.6501996030494884
0.07451729972046946
-0.9151236765306122
-0.6501996030494884
0.07451729972046946
-0.9151236765306122
-0.6501996030494884
0.07451729972046946
-0.9151236765306122
-0.6486606791555771
0.07495813783248753
-0.9142383540343912
-0.6486606791555771
0.07495813783248753
-0.9142383540343912
-0.6486606791555771
0.07495813783248753
-0.9142383540343912
-0.6486606791555771
0.07495813783248753
-0.9142383540343912
-0.6477226198166625
0.07502292159271665
-0.9136503977559115
-0.6477226198166625
0.07502292159271665
-0.9136503977559115
-0.6477226198166625
0.07502292159271665
-0.9136503977559115
-0.6477226198166625
0.07502292159271665
-0.9136503977559115
-0.6477735907395187
0.07486746432368666
-0.9136002724533524
-0.6477735907395187
0.07486746432368666
-0.9136002724533524
-0.6477735907395187
0.07486746432368666
-0.9136002724533524
-0.6477735907395187
0.07486746432368666
-0.9136002724533524
-0.6493210078033996
0.0747546155826499
-0.9138482753422182
-0.6493210078033996
0.0747546155826499
-0.9138482753422182
-0.6493210078033996
0.0747546155826499
-0.9138482753422182
-0.6493210078033996
0.0747546155826499
-0.9138482753422182
-0.6499457208235527
0.0747224081138223
-0.9148386899409514
-0.6499457208235527
0.0747224081138223
-0.9148386899409514
-0.6499457208235527
0.0747224081138223
-0.9148386899409514
-0.6499457208235527
0.0747224081138223
-0.9148386899409514
-0.6502252631720125
0.07511864993492443
-0.9159040464253057
-0.6502252631720125
0.07511864993492443
-0.9159040464253057
-0.6502252631720125
0.07511864993492443
-0.9159040464253057
-0.6502252631720125
0.07511864993492443
-0.9159040464253057
-0.6500211405047737
0.07587508553051522
-0.9165552149993165
-0.6500211405047737
0.07587508553051522
-0.9165552149993165
-0.6500211405047737
0.07587508553051522
-0.9165552149993165
-0.6500211405047737
0.07587508553051522
-0.9165552149993165
-0.6503699827414794
0.07596286714080751
-0.9166551354494002
-0.6503699827414794
0.07596286714080751
-0.9166551354494002
-0.6503699827414794
0.07596286714080751
-0.9166551354494002
-0.6503699827414794
0.07596286714080751
-0.9166551354494002
-0.650352777179359
0.07540902587433895
-0.9165837635542596
-0.650352777179359
0.07540902587433895
-0.9165837635542596
-0.650352777179359
0.07540902587433895
-0.9165837635542596
-0.650352777179359
0.07540902587433895
-0.9165837635542596
-0.6504015946416828
0.07499508480042015
-0.9164460699590504
-0.6504015946416828
0.07499508480042015
-0.9164460699590504
-0.6504015946416828
0.07499508480042015
-0.9164460699590504
-0.6504015946416828
0.07499508480042015
-0.9164460699590504
-0.6504315549130996
0.07434078683085762
-0.9166864913656392
-0.6504315549130996
0.07434078683085762
-0.9166864913656392
-0.6504315549130996
0.07434078683085762
-0.9166864913656392
-0.6504315549130996
0.07434078683085762
-0.9166864913656392
-0.6502469136556867
0.07395802628677413
-0.9167822635894716
-0.6502469136556867
0.07395802628677413
-0.9167822635894716
-0.6502469136556867
0.07395802628677413
-0.9167822635894716
-0.6502469136556867
0.07395802628677413
-0.9167822635894716
-0.6500641234326525
0.07383379487202031
-0.9169653916726529
-0.6500641234326525
0.07383379487202031
-0.9169653916726529
-0.6500641234326525
0.07383379487202031
-0.9169653916726529
-0.6500641234326525
0.07383379487202031
-0.9169653916726529
-0.6497488576784184
0.07360882233684521
-0.9172809952264369
-0.6497488576784184
0.07360882233684521
-0.9172809952264369
-0.6497488576784184
0.07360882233684521
-0.9172809952264369
-0.6497488576784184
0.07360882233684521
-0.9172809952264369
-0.6489506704889774
0.07275813168016239
-0.9175430455179902
-0.6489506704889774
0.07275813168016239
-0.9175430455179902
-0.6489506704889774
0.07275813168016239
-0.9175430455179902
-0.6489506704889774
0.07275813168016239
-0.9175430455179902
-0.6485888226771774
0.07164755815746636
-0.9179075913663995
-0.6485888226771774
0.07164755815746636
-0.9179075913663995
-0.6485888226771774
0.07164755815746636
-0.9179075913663995
-0.6485888226771774
0.07164755815746636
-0.9179075913663995
-0.6492352919116243
0.07099202532548238
-0.9185163520020395
-0.6492352919116243
0.07099202532548238
-0.9185163520020395
-0.6492352919116243
0.07099202532548238
-0.9185163520020395
-0.6492352919116243
0.07099202532548238
-0.9185163520020395
-0.6508280746732986
0.07077451558910162
-0.9190728367086451
-0.6508280746732986
0.07077451558910162
-0.9190728367086451
-0.6508280746732986
0.07077451558910162
-0.9190728367086451
-0.6508280746732986
0.07077451558910162
-0.9190728367086451
-0.651928775840075
0.07139774020735962
-0.9194945382601803
-0.651928775840075
0.07139774020735962
-0.9194945382601803
-0.651928775840075
0.07139774020735962
-0.9194945382601803
-0.651928775840075
0.07139774020735962
-0.9194945382601803
-0.6520542475959203
0.07241573147134027
-0.9197278747009876
-0.6520542475959203
0.07241573147134027
-0.9197278747009876
-0.6520542475959203
0.07241573147134027
-0.9197278747009876
-0.6520542475959203
0.07241573147134027
-0.9197278747009876
-0.6513309020376982
0.0737259351574198
-0.9199138351348694
-0.6513309020376982
0.0737259351574198
-0.9199138351348694
-0.6513309020376982
0.0737259351574198
-0.9199138351348694
-0.6513309020376982
0.0737259351574198
-0.9199138351348694
-0.6505526066733515
0.07467490516356576
-0.9199745290423683
-0.6505526066733515
0.07467490516356576
-0.9199745290423683
-0.6505526066733515
0.07467490516356576
-0.9199745290423683
-0.6505526066733515
0.07467490516356576
-0.9199745290423683
-0.6503307366763776
0.0752923357314054
-0.9196577994699883
-0.6503307366763776
0.0752923357314054
-0.9196577994699883
-0.6503307366763776
0.0752923357314054
-0.9196577994699883
-0.6503307366763776
0.0752923357314054
-0.9196577994699883
-0.650484300923161
0.0762497350960547
-0.9192343429944476
-0.650484300923161
0.0762497350960547
-0.9192343429944476
-0.650484300923161
0.0762497350960547
-0.9192343429944476
-0.650484300923161
0.0762497350960547
-0.9192343429944476
-0.6505343714529965
0.07708075809367622
-0.9188243994349301
-0.6505343714529965
0.07708075809367622
-0.9188243994349301
-0.6505343714529965
0.07708075809367622
-0.9188243994349301
-0.6505343714529965
0.07708075809367622
-0.9188243994349301
-0.6497429343555252
0.07767874327280025
-0.9185369922214597
-0.6497429343555252
0.07767874327280025
-0.9185369922214597
-0.6497429343555252
0.07767874327280025
-0.9185369922214597
-0.6497429343555252
0.07767874327280025
-0.9185369922214597
-0.6494038093141764
0.07835597505067025
-0.9178861151393665
-0.6494038093141764
0.07835597505067025
-0.9178861151393665
-0.6494038093141764
0.07835597505067025
-0.9178861151393665
-0.6494038093141764
0.07835597505067025
-0.9178861151393665
-0.6496726028159665
0.07911858798192123
-0.9173460706192736
-0.6496726028159665
0.07911858798192123
-0.9173460706192736
-0.6496726028159665
0.07911858798192123
-0.9173460706192736
-0.6496726028159665
0.07911858798192123
-0.9173460706192736
-0.6499915803193527
0.07972582426940213
-0.9167559868796756
-0.6499915803193527
0.07972582426940213
-0.9167559868796756
-0.6499915803193527
0.07972582426940213
-0.9167559868796756
-0.6499915803193527
0.07972582426940213
-0.9167559868796756
-0.6502554713827499
0.07997179922636576
-0.9160416278719741
-0.6502554713827499
0.07997179922636576
-0.9160416278719741
-0.6502554713827499
0.07997179922636576
-0.9160416278719741
-0.6502554713827499
0.07997179922636576
-0.9160416278719741
-0.6497573055717926
0.08016043543532035
-0.9152794979075904
-0.6497573055717926
0.08016043543532035
-0.9152794979075904
-0.6497573055717926
0.08016043543532035
-0.9152794979075904
-0.6497573055717926
0.08016043543532035
-0.9152794979075904
-0.6495535659575236
0.08007533903885235
-0.9144936301010407
-0.6495535659575236
0.08007533903885235
-0.9144936301010407
-0.6495535659575236
0.08007533903885235
-0.9144936301010407
-0.6495535659575236
0.08007533903885235
-0.9144936301010407
-0.6489833090664998
0.07966184810117814
-0.9139854451173418
-0.6489833090664998
0.07966184810117814
-0.9139854451173418
-0.6489833090664998
0.07966184810117814
-0.9139854451173418
-0.6489833090664998
0.07966184810117814
-0.9139854451173418
-0.6484979730172655
0.07851794385419648
-0.9137563924991253
-0.6484979730172655
0.07851794385419648
-0.9137563924991253
-0.6484979730172655
0.07851794385419648
-0.9137563924991253
-0.6484979730172655
0.07851794385419648
-0.9137563924991253
-0.6484126604779854
0.07730690816979749
-0.9135779005928107
-0.6484126604779854
0.07730690816979749
-0.9135779005928107
-0.6484126604779854
0.07730690816979749
-0.9135779005928107
-0.6484126604779854
0.07730690816979749
-0.9135779005928107
-0.6479648218232981
0.07614973706053733
-0.9134022721547003
-0.6479648218232981
0.07614973706053733
-0.9134022721547003
-0.6479648218232981
0.07614973706053733
-0.9134022721547003
-0.6479648218232981
0.07614973706053733
-0.9134022721547003
-0.6471841543914152
0.07502024707895173
-0.9131119323306642
-0.6471841543914152
0.07502024707895173
-0.9131119323306642
-0.6471841543914152
0.07502024707895173
-0.9131119323306642
-0.6471841543914152
0.07502024707895173
-0.9131119323306642
-0.6465482693682628
0.07376944299313513
-0.9124998404613293
-0.6465482693682628
0.07376944299313513
-0.9124998404613293
-0.6465482693682628
0.07376944299313513
-0.9124998404613293
-0.6465482693682628
0.07376944299313513
-0.9124998404613293
-0.646323877940383
0.07240846545801982
-0.9117463255764503
-0.646323877940383
0.07240846545801982
-0.9117463255764503
-0.646323877940383
0.07240846545801982
-0.9117463255764503
-0.646323877940383
0.07240846545801982
-0.9117463255764503
-0.6458589569452056
0.07124480068817474
-0.911055545400709
-0.6458589569452056
0.07124480068817474
-0.911055545400709
-0.6458589569452056
0.07124480068817474
-0.911055545400709
-0.6458589569452056
0.07124480068817474
-0.911055545400709
-0.6459325523615462
0.07078078125749653
-0.9110745946479557
-0.6459325523615462
0.07078078125749653
-0.9110745946479557
-0.6459325523615462
0.07078078125749653
-0.9110745946479557
-0.6459325523615462
0.07078078125749653
-0.9110745946479557
-0.6461017384502904
0.07086851797713957
-0.9109943325258782
-0.6461017384502904
0.07086851797713957
-0.9109943325258782
-0.6461017384502904
0.07086851797713957
-0.9109943325258782
-0.6461017384502904
0.07086851797713957
-0.9109943325258782
-0.646008089822328
0.07083413230144255
-0.9112670639722265
-0.646008089822328
0.07083413230144255
-0.9112670639722265
-0.646008089822328
0.07083413230144255
-0.9112670639722265
-0.646008089822328
0.07083413230144255
-0.9112670639722265
-0.6463563767840166
0.07092304098692419
-0.9113658996539266
-0.6463563767840166
0.07092304098692419
-0.9113658996539266
-0.6463563767840166
0.07092304098692419
-0.9113658996539266
-0.6463563767840166
0.07092304098692419
-0.9113658996539266
-0.6468817024812172
0.07049571036660635
-0.9114701813079797
-0.6468817024812172
0.07049571036660635
-0.9114701813079797
-0.6468817024812172
0.07049571036660635
-0.9114701813079797
-0.6468817024812172
0.07049571036660635
-0.9114701813079797
-0.6469852201485385
0.07044357553238224
-0.9114567427477902
-0.6469852201485385
0.07044357553238224
-0.9114567427477902
-0.6469852201485385
0.07044357553238224
-0.9114567427477902
-0.6469852201485385
0.07044357553238224
-0.9114567427477902
-0.6479410894753108
0.07105738968881319
-0.9117502108397321
-0.6479410894753108
0.07105738968881319
-0.9117502108397321
-0.6479410894753108
0.07105738968881319
-0.9117502108397321
-0.6479410894753108
0.07105738968881319
-0.9117502108397321
-0.6476861347100242
0.07165565786306026
-0.9120021812464754
-0.6476861347100242
0.07165565786306026
-0.9120021812464754
-0.6476861347100242
0.07165565786306026
-0.9120021812464754
-0.6476861347100242
0.07165565786306026
-0.9120021812464754
-0.6466811847506102
0.07215201380795702
-0.9120179733849179
-0.6466811847506102
0.07215201380795702
-0.9120179733849179
-0.6466811847506102
0.07215201380795702
-0.9120179733849179
-0.6466811847506102
0.07215201380795702
-0.9120179733849179
-0.6462492779853188
0.07261381050577709
-0.9116405326263266
-0.6462492779853188
0.07261381050577709
-0.9116405326263266
-0.6462492779853188
0.07261381050577709
-0.9116405326263266
-0.6462492779853188
0.07261381050577709
-0.9116405326263266
-0.6461265808610155
0.0730977211571138
-0.9112218582324162
-0.6461265808610155
0.0730977211571138
-0.9112218582324162
-0.6461265808610155
0.0730977211571138
-0.9112218582324162
-0.6461265808610155
0.0730977211571138
-0.9112218582324162
-0.6455786179502747
0.07383343561836529
-0.9110475423685218
-0.6455786179502747
0.07383343561836529
-0.9110475423685218
-0.6455786179502747
0.07383343561836529
-0.9110475423685218
-0.6455786179502747
0.07383343561836529
-0.9110475423685218
-0.6439809620864135
0.07435787162467256
-0.9109362743358923
-0.6439809620864135
0.07435787162467256
-0.9109362743358923
-0.6439809620864135
0.07435787162467256
-0.9109362743358923
-0.6439809620864135
0.07435787162467256
-0.9109362743358923
-0.6424840284081859
0.07470741870243044
-0.9111742190621064
-0.6424840284081859
0.07470741870243044
-0.9111742190621064
-0.6424840284081859
0.07470741870243044
-0.9111742190621064
-0.6424840284081859
0.07470741870243044
-0.9111742190621064
-0.6417379223649223
0.07427400063198127
-0.9119234000150931
-0.6417379223649223
0.07427400063198127
-0.9119234000150931
-0.6417379223649223
0.07427400063198127
-0.9119234000150931
-0.6417379223649223
0.07427400063198127
-0.9119234000150931
-0.6430306464012912
0.07233029556828058
-0.9133374680892283
-0.6430306464012912
0.07233029556828058
-0.9133374680892283
-0.6430306464012912
0.07233029556828058
-0.9133374680892283
-0.6430306464012912
0.07233029556828058
-0.9133374680892283
-0.6423400618355131
0.06944078231163478
-0.9157506377488611
-0.6423400618355131
0.06944078231163478
-0.9157506377488611
-0.6423400618355131
0.06944078231163478
-0.9157506377488611
-0.6423400618355131
0.06944078231163478
-0.9157506377488611
-0.6397962961031058
0.06601409579820158
-0.9186743560857125
-0.6397962961031058
0.06601409579820158
-0.9186743560857125
-0.6397962961031058
0.06601409579820158
-0.9186743560857125
-0.6397962961031058
0.06601409579820158
-0.9186743560857125
-0.6361595726691626
0.06320816106932997
-0.9212596237281502
-0.6361595726691626
0.06320816106932997
-0.9212596237281502
-0.6361595726691626
0.06320816106932997
-0.9212596237281502
-0.6361595726691626
0.06320816106932997
-0.9212596237281502
-0.632280954745783
0.06146860230332018
-0.9213197339419092
-0.632280954745783
0.06146860230332018
-0.9213197339419092
-0.632280954745783
0.06146860230332018
-0.9213197339419092
-0.632280954745783
0.06146860230332018
-0.9213197339419092
-0.633315918153563
0.06118733819657719
-0.9201096815765913
-0.633315918153563
0.06118733819657719
-0.9201096815765913
-0.633315918153563
0.06118733819657719
-0.9201096815765913
-0.633315918153563
0.06118733819657719
-0.9201096815765913
-0.6329033169931697
0.06308733099266019
-0.9165802213694438
-0.6329033169931697
0.06308733099266019
-0.9165802213694438
-0.6329033169931697
0.06308733099266019
-0.9165802213694438
-0.6329033169931697
0.06308733099266019
-0.9165802213694438
-0.6313914792771413
0.06490866297767973
-0.9107524896437625
-0.6313914792771413
0.06490866297767973
-0.9107524896437625
-0.6313914792771413
0.06490866297767973
-0.9107524896437625
-0.6313914792771413
0.06490866297767973
-0.9107524896437625
-0.6269640755433765
0.06717497781132033
-0.9024526818143814
-0.6269640755433765
0.06717497781132033
-0.9024526818143814
-0.6269640755433765
0.06717497781132033
-0.9024526818143814
-0.6269640755433765
0.06717497781132033
-0.9024526818143814
-0.6178445745334162
0.0697925237706324
-0.8921744791038163
-0.6178445745334162
0.0697925237706324
-0.8921744791038163
-0.6178445745334162
0.0697925237706324
-0.8921744791038163
-0.6178445745334162
0.0697925237706324
-0.8921744791038163
-0.6085424152336142
0.07164500581119411
-0.8814300886272282
-0.6085424152336142
0.07164500581119411
-0.8814300886272282
-0.6085424152336142
0.07164500581119411
-0.8814300886272282
-0.6085424152336142
0.07164500581119411
-0.8814300886272282
-0.6007653011708811
0.07209995530334976
-0.8699039325322744
-0.6007653011708811
0.07209995530334976
-0.8699039325322744
-0.6007653011708811
0.07209995530334976
-0.8699039325322744
-0.6007653011708811
0.07209995530334976
-0.8699039325322744
-0.5920329955230546
0.06918048807391199
-0.856660176131859
-0.5920329955230546
0.06918048807391199
-0.856660176131859
-0.5920329955230546
0.06918048807391199
-0.856660176131859
-0.5920329955230546
0.06918048807391199
-0.856660176131859
-0.5824599676329033
0.06401123103819505
-0.8454671707572883
-0.5824599676329033
0.06401123103819505
-0.8454671707572883
-0.5824599676329033
0.06401123103819505
-0.8454671707572883
-0.5824599676329033
0.06401123103819505
-0.8454671707572883
-0.5732845393248233
0.05623413190223088
-0.841692010846611
-0.5732845393248233
0.05623413190223088
-0.841692010846611
-0.5732845393248233
0.05623413190223088
-0.841692010846611
-0.5732845393248233
0.05623413190223088
-0.841692010846611
-0.5632858127781339
0.046561950170619
-0.842101659475411
-0.5632858127781339
0.046561950170619
-0.842101659475411
-0.5632858127781339
0.046561950170619
-0.842101659475411
-0.5632858127781339
0.046561950170619
-0.842101659475411
-0.5521052955783059
0.03726935859388714
-0.8420860878799832
-0.5521052955783059
0.03726935859388714
-0.8420860878799832
-0.5521052955783059
0.03726935859388714
-0.8420860878799832
-0.5521052955783059
0.03726935859388714
-0.8420860878799832
-0.5435426220126354
0.02965003208332311
-0.8400793133754277
-0.5435426220126354
0.02965003208332311
-0.8400793133754277
-0.5435426220126354
0.02965003208332311
-0.8400793133754277
-0.5435426220126354
0.02965003208332311
-0.8400793133754277
-0.5410836235511741
0.02444739321026267
-0.8371579809550933
-0.5410836235511741
0.02444739321026267
-0.8371579809550933
-0.5410836235511741
0.02444739321026267
-0.8371579809550933
-0.5410836235511741
0.02444739321026267
-0.8371579809550933
-0.5451554357710905
0.02109297232957317
-0.8352536063794301
-0.5451554357710905
0.02109297232957317
-0.8352536063794301
-0.5451554357710905
0.02109297232957317
-0.8352536063794301
-0.5451554357710905
0.02109297232957317
-0.8352536063794301
-0.5517443881907228
0.01815610903047783
-0.8333315403895571
-0.5517443881907228
0.01815610903047783
-0.8333315403895571
-0.5517443881907228
0.01815610903047783
-0.8333315403895571
-0.5517443881907228
0.01815610903047783
-0.8333315403895571
-0.5566336828535291
0.014760792042367497
-0.8323389960227938
-0.5566336828535291
0.014760792042367497
-0.8323389960227938
-0.5566336828535291
0.014760792042367497
-0.8323389960227938
-0.5566336828535291
0.014760792042367497
-0.8323389960227938
-0.5545371219258148
0.010885267555379404
-0.8326135760177176
-0.5545371219258148
0.010885267555379404
-0.8326135760177176
-0.5545371219258148
0.010885267555379404
-0.8326135760177176
-0.5545371219258148
0.010885267555379404
-0.8326135760177176
-0.5506508857973706
0.008469108086675968
-0.8344621855543345
-0.5506508857973706
0.008469108086675968
-0.8344621855543345
-0.5506508857973706
0.008469108086675968
-0.8344621855543345
-0.5506508857973706
0.008469108086675968
-0.8344621855543345
-0.5478069903591699
0.007262069991788909
-0.8358497880356947
-0.5478069903591699
0.007262069991788909
-0.8358497880356947
-0.5478069903591699
0.007262069991788909
-0.8358497880356947
-0.5478069903591699
0.007262069991788909
-0.8358497880356947
-0.542735682051607
0.006460038965571178
-0.8348239291778262
-0.542735682051607
0.006460038965571178
-0.8348239291778262
-0.542735682051607
0.006460038965571178
-0.8348239291778262
-0.542735682051607
0.006460038965571178
-0.8348239291778262
-0.5412190898721286
0.007012571016036362
-0.8317569114805978
-0.5412190898721286
0.007012571016036362
-0.8317569114805978
-0.5412190898721286
0.007012571016036362
-0.8317569114805978
-0.5412190898721286
0.007012571016036362
-0.8317569114805978
-0.5469699075513909
0.008088730978901835
-0.8297323799873901
-0.5469699075513909
0.008088730978901835
-0.8297323799873901
-0.5469699075513909
0.008088730978901835
-0.8297323799873901
-0.5469699075513909
0.008088730978901835
-0.8297323799873901
-0.5537675011384822
0.008172411866106356
-0.8296357189085045
-0.5537675011384822
0.008172411866106356
-0.8296357189085045
-0.5537675011384822
0.008172411866106356
-0.8296357189085045
-0.5537675011384822
0.008172411866106356
-0.8296357189085045
-0.5567942317072954
0.008785256468224827
-0.8315991352847268
-0.5567942317072954
0.008785256468224827
-0.8315991352847268
-0.5567942317072954
0.008785256468224827
-0.8315991352847268
-0.5567942317072954
0.008785256468224827
-0.8315991352847268
-0.5577032823299928
0.010296839894089088
-0.8356065188435443
-0.5577032823299928
0.010296839894089088
-0.8356065188435443
-0.5577032823299928
0.010296839894089088
-0.8356065188435443
-0.5577032823299928
0.010296839894089088
-0.8356065188435443
-0.5565406075549071
0.012232532312752821
-0.8379839770192126
-0.5565406075549071
0.012232532312752821
-0.8379839770192126
-0.5565406075549071
0.012232532312752821
-0.8379839770192126
-0.5565406075549071
0.012232532312752821
-0.8379839770192126
-0.5570487890146413
0.01463396587110827
-0.8390091212408942
-0.5570487890146413
0.01463396587110827
-0.8390091212408942
-0.5570487890146413
0.01463396587110827
-0.8390091212408942
-0.5570487890146413
0.01463396587110827
-0.8390091212408942
-0.5603476080018205
0.017314442196621545
-0.8401024251292096
-0.5603476080018205
0.017314442196621545
-0.8401024251292096
-0.5603476080018205
0.017314442196621545
-0.8401024251292096
-0.5603476080018205
0.017314442196621545
-0.8401024251292096
-0.5647135963355974
0.02001109297302547
-0.8418928538853432
-0.5647135963355974
0.02001109297302547
-0.8418928538853432
-0.5647135963355974
0.02001109297302547
-0.8418928538853432
-0.5647135963355974
0.02001109297302547
-0.8418928538853432
-0.5677559604102501
0.022119636022326482
-0.8448908267470732
-0.5677559604102501
0.022119636022326482
-0.8448908267470732
-0.5677559604102501
0.022119636022326482
-0.8448908267470732
-0.5677559604102501
0.022119636022326482
-0.8448908267470732
-0.5700978983325549
0.02493885137096355
-0.8513513628331517
-0.5700978983325549
0.02493885137096355
-0.8513513628331517
-0.5700978983325549
0.02493885137096355
-0.8513513628331517
-0.5700978983325549
0.02493885137096355
-0.8513513628331517
-0.5729451057036983
0.02799539303901824
-0.8610809269015981
-0.5729451057036983
0.02799539303901824
-0.8610809269015981
-0.5729451057036983
0.02799539303901824
-0.8610809269015981
-0.5729451057036983
0.02799539303901824
-0.8610809269015981
-0.5796274932045504
0.03086947384957731
-0.8740484949641908
-0.5796274932045504
0.03086947384957731
-0.8740484949641908
-0.5796274932045504
0.03086947384957731
-0.8740484949641908
-0.5796274932045504
0.03086947384957731
-0.8740484949641908
-0.5909576919225605
0.033715808055193294
-0.8890997317460951
-0.5909576919225605
0.033715808055193294
-0.8890997317460951
-0.5909576919225605
0.033715808055193294
-0.8890997317460951
-0.5909576919225605
0.033715808055193294
-0.8890997317460951
-0.6043035959179535
0.03598591109791659
-0.9024808213101339
-0.6043035959179535
0.03598591109791659
-0.9024808213101339
-0.6043035959179535
0.03598591109791659
-0.9024808213101339
-0.6043035959179535
0.03598591109791659
-0.9024808213101339
-0.617237700968713
0.03824912510431855
-0.9119254838403389
-0.617237700968713
0.03824912510431855
-0.9119254838403389
-0.617237700968713
0.03824912510431855
-0.9119254838403389
-0.617237700968713
0.03824912510431855
-0.9119254838403389
-0.6276120507619597
0.03960861653113455
-0.9166718454235314
-0.6276120507619597
0.03960861653113455
-0.9166718454235314
-0.6276120507619597
0.03960861653113455
-0.9166718454235314
-0.6276120507619597
0.03960861653113455
-0.9166718454235314
-0.6374097946271654
0.03987101259213735
-0.9179703727050312
-0.6374097946271654
0.03987101259213735
-0.9179703727050312
-0.6374097946271654
0.03987101259213735
-0.9179703727050312
-0.6374097946271654
0.03987101259213735
-0.9179703727050312
-0.6425816234096563
0.03780397214020484
-0.9151913042167549
-0.6425816234096563
0.03780397214020484
-0.9151913042167549
-0.6425816234096563
0.03780397214020484
-0.9151913042167549
-0.6425816234096563
0.03780397214020484
-0.9151913042167549
-0.6478631144585647
0.03323698834899269
-0.9102918215595991
-0.6478631144585647
0.03323698834899269
-0.9102918215595991
-0.6478631144585647
0.03323698834899269
-0.9102918215595991
-0.6478631144585647
0.03323698834899269
-0.9102918215595991
-0.6564397003188257
0.02757603246634283
-0.9027151106172535
-0.6564397003188257
0.02757603246634283
-0.9027151106172535
-0.6564397003188257
0.02757603246634283
-0.9027151106172535
-0.6564397003188257
0.02757603246634283
-0.9027151106172535
-0.6605982665399056
0.028495120771763034
-0.8923335734704173
-0.6605982665399056
0.028495120771763034
-0.8923335734704173
-0.6605982665399056
0.028495120771763034
-0.8923335734704173
-0.6605982665399056
0.028495120771763034
-0.8923335734704173
-0.6516738317230228
0.03911818421750144
-0.8877732353772939
-0.6516738317230228
0.03911818421750144
-0.8877732353772939
-0.6516738317230228
0.03911818421750144
-0.8877732353772939
-0.6516738317230228
0.03911818421750144
-0.8877732353772939
-0.6459832863795552
0.05293231844850693
-0.8833907095655471
-0.6459832863795552
0.05293231844850693
-0.8833907095655471
-0.6459832863795552
0.05293231844850693
-0.8833907095655471
-0.6459832863795552
0.05293231844850693
-0.8833907095655471
-0.6484257171854182
0.06559673523836312
-0.8783461044984519
-0.6484257171854182
0.06559673523836312
-0.8783461044984519
-0.6484257171854182
0.06559673523836312
-0.8783461044984519
-0.6484257171854182
0.06559673523836312
-0.8783461044984519
-0.6573579932584138
0.07275962524726043
-0.8745334333151813
-0.6573579932584138
0.07275962524726043
-0.8745334333151813
-0.6573579932584138
0.07275962524726043
-0.8745334333151813
-0.6573579932584138
0.07275962524726043
-0.8745334333151813
-0.6606999425358597
0.07110654929083773
-0.8740037468131512
-0.6606999425358597
0.07110654929083773
-0.8740037468131512
-0.6606999425358597
0.07110654929083773
-0.8740037468131512
-0.6606999425358597
0.07110654929083773
-0.8740037468131512
-0.6593593077932163
0.06551449686749826
-0.8750059711824769
-0.6593593077932163
0.06551449686749826
-0.8750059711824769
-0.6593593077932163
0.06551449686749826
-0.8750059711824769
-0.6593593077932163
0.06551449686749826
-0.8750059711824769
-0.657654970833008
0.059328530749323365
-0.8762057719081675
-0.657654970833008
0.059328530749323365
-0.8762057719081675
-0.657654970833008
0.059328530749323365
-0.8762057719081675
-0.657654970833008
0.059328530749323365
-0.8762057719081675
-0.6569932582221756
0.056994367823779576
-0.8763802241292534
-0.6569932582221756
0.056994367823779576
-0.8763802241292534
-0.6569932582221756
0.056994367823779576
-0.8763802241292534
-0.6569932582221756
0.056994367823779576
-0.8763802241292534
-0.6543192329247082
0.05889154751313834
-0.8769699079450057
-0.6543192329247082
0.05889154751313834
-0.8769699079450057
-0.6543192329247082
0.05889154751313834
-0.8769699079450057
-0.6543192329247082
0.05889154751313834
-0.8769699079450057
-0.6516986067920129
0.05821335285870647
-0.8783596489048564
-0.6516986067920129
0.05821335285870647
-0.8783596489048564
-0.6516986067920129
0.05821335285870647
-0.8783596489048564
-0.6516986067920129
0.05821335285870647
-0.8783596489048564
-0.6496589480134569
0.054188469237919604
-0.8791532233009396
-0.6496589480134569
0.054188469237919604
-0.8791532233009396
-0.6496589480134569
0.054188469237919604
-0.8791532233009396
-0.6496589480134569
0.054188469237919604
-0.8791532233009396
-0.6478080664702199
0.05023803879357692
-0.879409049438533
-0.6478080664702199
0.05023803879357692
-0.879409049438533
-0.6478080664702199
0.05023803879357692
-0.879409049438533
-0.6478080664702199
0.05023803879357692
-0.879409049438533
-0.6486740233930545
0.049187748115605306
-0.8791876454497626
-0.6486740233930545
0.049187748115605306
-0.8791876454497626
-0.6486740233930545
0.049187748115605306
-0.8791876454497626
-0.6486740233930545
0.049187748115605306
-0.8791876454497626
-0.6493504185274422
0.05079268831922396
-0.8794494234101373
-0.6493504185274422
0.05079268831922396
-0.8794494234101373
-0.6493504185274422
0.05079268831922396
-0.8794494234101373
-0.6493504185274422
0.05079268831922396
-0.8794494234101373
-0.6495285892921285
0.05459577414626574
-0.879808638199593
-0.6495285892921285
0.05459577414626574
-0.879808638199593
-0.6495285892921285
0.05459577414626574
-0.879808638199593
-0.6495285892921285
0.05459577414626574
-0.879808638199593
-0.6498024087960014
0.05797223295258983
-0.8800816394613158
-0.6498024087960014
0.05797223295258983
-0.8800816394613158
-0.6498024087960014
0.05797223295258983
-0.8800816394613158
-0.6498024087960014
0.05797223295258983
-0.8800816394613158
-0.6511027637104045
0.05907031732943749
-0.8805387228529662
-0.6511027637104045
0.05907031732943749
-0.8805387228529662
-0.6511027637104045
0.05907031732943749
-0.8805387228529662
-0.6511027637104045
0.05907031732943749
-0.8805387228529662
-0.651629159129563
0.05814452321411113
-0.8812780878213192
-0.651629159129563
0.05814452321411113
-0.8812780878213192
-0.651629159129563
0.05814452321411113
-0.8812780878213192
-0.651629159129563
0.05814452321411113
-0.8812780878213192
-0.6518419563790885
0.05629885672491496
-0.8818129906117043
-0.6518419563790885
0.05629885672491496
-0.8818129906117043
-0.6518419563790885
0.05629885672491496
-0.8818129906117043
-0.6518419563790885
0.05629885672491496
-0.8818129906117043
-0.6515875969506449
0.05501381986050934
-0.8821808576839583
-0.6515875969506449
0.05501381986050934
-0.8821808576839583
-0.6515875969506449
0.05501381986050934
-0.8821808576839583
-0.6515875969506449
0.05501381986050934
-0.8821808576839583
-0.6515737773890675
0.05497714714653871
-0.8822850926465349
-0.6515737773890675
0.05497714714653871
-0.8822850926465349
-0.6515737773890675
0.05497714714653871
-0.8822850926465349
-0.6515737773890675
0.05497714714653871
-0.8822850926465349
-0.6508864684967867
0.05564962908969399
-0.8829592793736107
-0.6508864684967867
0.05564962908969399
-0.8829592793736107
-0.6508864684967867
0.05564962908969399
-0.8829592793736107
-0.6508864684967867
0.05564962908969399
-0.8829592793736107
-0.6493617472024593
0.055994947267746516
-0.8836763934495736
-0.6493617472024593
0.055994947267746516
-0.8836763934495736
-0.6493617472024593
0.055994947267746516
-0.8836763934495736
-0.6493617472024593
0.055994947267746516
-0.8836763934495736
-0.6477775845105009
0.05530168978646669
-0.8845636515646813
-0.6477775845105009
0.05530168978646669
-0.8845636515646813
-0.6477775845105009
0.05530168978646669
-0.8845636515646813
-0.6477775845105009
0.05530168978646669
-0.8845636515646813
-0.6466879970546506
0.05458460498518477
-0.8852248339308386
-0.6466879970546506
0.05458460498518477
-0.8852248339308386
-0.6466879970546506
0.05458460498518477
-0.8852248339308386
-0.6466879970546506
0.05458460498518477
-0.8852248339308386
-0.6468743826342725
0.054501483707743936
-0.8856614193267102
-0.6468743826342725
0.054501483707743936
-0.8856614193267102
-0.6468743826342725
0.054501483707743936
-0.8856614193267102
-0.6468743826342725
0.054501483707743936
-0.8856614193267102
-0.6484553983440005
0.05572664868191353
-0.8862751865574671
-0.6484553983440005
0.05572664868191353
-0.8862751865574671
-0.6484553983440005
0.05572664868191353
-0.8862751865574671
-0.6484553983440005
0.05572664868191353
-0.8862751865574671
-0.6487794215789526
0.0578886984003609
-0.8870669345621565
-0.6487794215789526
0.0578886984003609
-0.8870669345621565
-0.6487794215789526
0.0578886984003609
-0.8870669345621565
-0.6487794215789526
0.0578886984003609
-0.8870669345621565
-0.6482370936595085
0.05918863567146295
-0.8882961976804237
-0.6482370936595085
0.05918863567146295
-0.8882961976804237
-0.6482370936595085
0.05918863567146295
-0.8882961976804237
-0.6482370936595085
0.05918863567146295
-0.8882961976804237
-0.6470939019822697
0.05957619024493826
-0.8896112773048002
-0.6470939019822697
0.05957619024493826
-0.8896112773048002
-0.6470939019822697
0.05957619024493826
-0.8896112773048002
-0.6470939019822697
0.05957619024493826
-0.8896112773048002
-0.6467291959698873
0.05955084941030159
-0.8906879363156075
-0.6467291959698873
0.05955084941030159
-0.8906879363156075
-0.6467291959698873
0.05955084941030159
-0.8906879363156075
-0.6467291959698873
0.05955084941030159
-0.8906879363156075
-0.6478898949304842
0.05986249235515269
-0.8915699650772437
-0.6478898949304842
0.05986249235515269
-0.8915699650772437
-0.6478898949304842
0.05986249235515269
-0.8915699650772437
-0.6478898949304842
0.05986249235515269
-0.8915699650772437
-0.6488671645084316
0.060946281413958366
-0.8925352339438047
-0.6488671645084316
0.060946281413958366
-0.8925352339438047
-0.6488671645084316
0.060946281413958366
-0.8925352339438047
-0.6488671645084316
0.060946281413958366
-0.8925352339438047
-0.6498686187510618
0.06197879880516125
-0.8936566710408296
-0.6498686187510618
0.06197879880516125
-0.8936566710408296
-0.6498686187510618
0.06197879880516125
-0.8936566710408296
-0.6498686187510618
0.06197879880516125
-0.8936566710408296
-0.649790001013592
0.06228614841020036
-0.8946216914322973
-0.649790001013592
0.06228614841020036
-0.8946216914322973
-0.649790001013592
0.06228614841020036
-0.8946216914322973
-0.649790001013592
0.06228614841020036
-0.8946216914322973
-0.6493319818458705
0.06263921947409776
-0.8950750063253462
-0.6493319818458705
0.06263921947409776
-0.8950750063253462
-0.6493319818458705
0.06263921947409776
-0.8950750063253462
-0.6493319818458705
0.06263921947409776
-0.8950750063253462
-0.6496816419833223
0.06311295540422684
-0.8948966201698483
-0.6496816419833223
0.06311295540422684
-0.8948966201698483
-0.6496816419833223
0.06311295540422684
-0.8948966201698483
-0.6496816419833223
0.06311295540422684
-0.8948966201698483
-0.6513616540799924
0.06341942628776293
-0.894638868928561
-0.6513616540799924
0.06341942628776293
-0.894638868928561
-0.6513616540799924
0.06341942628776293
-0.894638868928561
-0.6513616540799924
0.06341942628776293
-0.894638868928561
-0.6527418500570614
0.06361428717272857
-0.8946835512676
-0.6527418500570614
0.06361428717272857
-0.8946835512676
-0.6527418500570614
0.06361428717272857
-0.8946835512676
-0.6527418500570614
0.06361428717272857
-0.8946835512676
-0.6526093203629356
0.06385012859431195
-0.8949924000040439
-0.6526093203629356
0.06385012859431195
-0.8949924000040439
-0.6526093203629356
0.06385012859431195
-0.8949924000040439
-0.6526093203629356
0.06385012859431195
-0.8949924000040439
-0.6511835171509713
0.06334079204195697
-0.8955326318757055
-0.6511835171509713
0.06334079204195697
-0.8955326318757055
-0.6511835171509713
0.06334079204195697
-0.8955326318757055
-0.6511835171509713
0.06334079204195697
-0.8955326318757055
-0.6497695702174627
0.0622281627704635
-0.8961584033004215
-0.6497695702174627
0.0622281627704635
-0.8961584033004215
-0.6497695702174627
0.0622281627704635
-0.8961584033004215
-0.6497695702174627
0.0622281627704635
-0.8961584033004215
-0.649884162189886
0.06183146191584876
-0.8963166663184594
-0.649884162189886
0.06183146191584876
-0.8963166663184594
-0.649884162189886
0.06183146191584876
-0.8963166663184594
-0.649884162189886
0.06183146191584876
-0.8963166663184594
-0.6502517699155772
0.06238953365976901
-0.8967435855789168
-0.6502517699155772
0.06238953365976901
-0.8967435855789168
-0.6502517699155772
0.06238953365976901
-0.8967435855789168
-0.6502517699155772
0.06238953365976901
-0.8967435855789168
-0.6505640706945025
0.06272006128759325
-0.8974968438760368
-0.6505640706945025
0.06272006128759325
-0.8974968438760368
-0.6505640706945025
0.06272006128759325
-0.8974968438760368
-0.6505640706945025
0.06272006128759325
-0.8974968438760368
-0.6503510770020045
0.0629574004621184
-0.8979742852769669
-0.6503510770020045
0.0629574004621184
-0.8979742852769669
-0.6503510770020045
0.0629574004621184
-0.8979742852769669
-0.6503510770020045
0.0629574004621184
-0.8979742852769669
-0.6505062967616416
0.06300973290334924
-0.8979973916754012
-0.6505062967616416
0.06300973290334924
-0.8979973916754012
-0.6505062967616416
0.06300973290334924
-0.8979973916754012
-0.6505062967616416
0.06300973290334924
-0.8979973916754012
-0.6508440512255564
0.06318782721364327
-0.8978359916818298
-0.6508440512255564
0.06318782721364327
-0.8978359916818298
-0.6508440512255564
0.06318782721364327
-0.8978359916818298
-0.6508440512255564
0.06318782721364327
-0.8978359916818298
-0.6513011943113711
0.06399235509722533
-0.8973689831071817
-0.6513011943113711
0.06399235509722533
-0.8973689831071817
-0.6513011943113711
0.06399235509722533
-0.8973689831071817
-0.6513011943113711
0.06399235509722533
-0.8973689831071817
-0.6511137007217493
0.06497688786346996
-0.8968305586500073
-0.6511137007217493
0.06497688786346996
-0.8968305586500073
-0.6511137007217493
0.06497688786346996
-0.8968305586500073
-0.6511137007217493
0.06497688786346996
-0.8968305586500073
-0.6511567521359196
0.0658085424939935
-0.8964201124410489
-0.6511567521359196
0.0658085424939935
-0.8964201124410489
-0.6511567521359196
0.0658085424939935
-0.8964201124410489
-0.6511567521359196
0.0658085424939935
-0.8964201124410489
-0.651484260105144
0.06607410376684697
-0.8960001842379719
-0.651484260105144
0.06607410376684697
-0.8960001842379719
-0.651484260105144
0.06607410376684697
-0.8960001842379719
-0.651484260105144
0.06607410376684697
-0.8960001842379719
-0.6518116565197531
0.0663397977433252
-0.895580342920425
-0.6518116565197531
0.0663397977433252
-0.895580342920425
-0.6518116565197531
0.0663397977433252
-0.895580342920425
-0.6518116565197531
0.0663397977433252
-0.895580342920425
-0.6521712698614428
0.0667264869329623
-0.8956622094995981
-0.6521712698614428
0.0667264869329623
-0.8956622094995981
-0.6521712698614428
0.0667264869329623
-0.8956622094995981
-0.6521712698614428
0.0667264869329623
-0.8956622094995981
-0.6521712698614428
0.0667264869329623
-0.8956622094995981
-0.6521712698614428
0.0667264869329623
-0.8956622094995981
-0.6521712698614428
0.0667264869329623
-0.8956622094995981
-0.6521712698614428
0.0667264869329623
-0.8956622094995981
-0.6521712698614428
0.0667264869329623
-0.8956622094995981
-0.6521712698614428
0.0667264869329623
-0.8956622094995981
-0.6521712698614428
0.0667264869329623
-0.8956622094995981
-0.6521712698614428
0.0667264869329623
-0.8956622094995981
-0.6516283293902048
0.06647212471055537
-0.895851950076779
-0.6516283293902048
0.06647212471055537
-0.895851950076779
-0.6516283293902048
0.06647212471055537
-0.895851950076779
-0.6516283293902048
0.06647212471055537
-0.895851950076779
-0.6511993697335202
0.06574079636396729
-0.896110651143839
-0.6511993697335202
0.06574079636396729
-0.896110651143839
-0.6511993697335202
0.06574079636396729
-0.896110651143839
-0.6511993697335202
0.06574079636396729
-0.896110651143839
-0.6511380971753312
0.06482487871877296
-0.8959157049059351
-0.6511380971753312
0.06482487871877296
-0.8959157049059351
-0.6511380971753312
0.06482487871877296
-0.8959157049059351
-0.6511380971753312
0.06482487871877296
-0.8959157049059351
-0.6510634118579673
0.0638721858761465
-0.8958246952849722
-0.6510634118579673
0.0638721858761465
-0.8958246952849722
-0.6510634118579673
0.0638721858761465
-0.8958246952849722
-0.6510634118579673
0.0638721858761465
-0.8958246952849722
-0.651163720611059
0.06335814111760961
-0.8959972618067606
-0.651163720611059
0.06335814111760961
-0.8959972618067606
-0.651163720611059
0.06335814111760961
-0.8959972618067606
-0.651163720611059
0.06335814111760961
-0.8959972618067606
-0.6501695235552583
0.06306396702549255
-0.896104021009446
-0.6501695235552583
0.06306396702549255
-0.896104021009446
-0.6501695235552583
0.06306396702549255
-0.896104021009446
-0.6501695235552583
0.06306396702549255
-0.896104021009446
-0.6491050704306557
0.0628399434858309
-0.8956561688873779
-0.6491050704306557
0.0628399434858309
-0.8956561688873779
-0.6491050704306557
0.0628399434858309
-0.8956561688873779
-0.6491050704306557
0.0628399434858309
-0.8956561688873779
-0.648855256568319
0.0622669119031435
-0.8951119981739449
-0.648855256568319
0.0622669119031435
-0.8951119981739449
-0.648855256568319
0.0622669119031435
-0.8951119981739449
-0.648855256568319
0.0622669119031435
-0.8951119981739449
-0.6496132967989761
0.06202521761481793
-0.8943563489459179
-0.6496132967989761
0.06202521761481793
-0.8943563489459179
-0.6496132967989761
0.06202521761481793
-0.8943563489459179
-0.6496132967989761
0.06202521761481793
-0.8943563489459179
-0.6505736237241716
0.06181676960909252
-0.894023328431171
-0.6505736237241716
0.06181676960909252
-0.894023328431171
-0.6505736237241716
0.06181676960909252
-0.894023328431171
-0.6505736237241716
0.06181676960909252
-0.894023328431171
-0.6506384382500885
0.06195720940765596
-0.8939561791122858
-0.6506384382500885
0.06195720940765596
-0.8939561791122858
-0.6506384382500885
0.06195720940765596
-0.8939561791122858
-0.6506384382500885
0.06195720940765596
-0.8939561791122858
-0.6503562768469447
0.06200591809537885
-0.8937915981034611
-0.6503562768469447
0.06200591809537885
-0.8937915981034611
-0.6503562768469447
0.06200591809537885
-0.8937915981034611
-0.6503562768469447
0.06200591809537885
-0.8937915981034611
-0.6500501400404852
0.06146411781162212
-0.893660611193522
-0.6500501400404852
0.06146411781162212
-0.893660611193522
-0.6500501400404852
0.06146411781162212
-0.893660611193522
-0.6500501400404852
0.06146411781162212
-0.893660611193522
-0.6501822457359105
0.06058712254709466
-0.8935405656450959
-0.6501822457359105
0.06058712254709466
-0.8935405656450959
-0.6501822457359105
0.06058712254709466
-0.8935405656450959
-0.6501822457359105
0.06058712254709466
-0.8935405656450959
-0.6496581914758838
0.05959356849843011
-0.8933670878084047
-0.6496581914758838
0.05959356849843011
-0.8933670878084047
-0.6496581914758838
0.05959356849843011
-0.8933670878084047
-0.6496581914758838
0.05959356849843011
-0.8933670878084047
-0.649956482108687
0.05842380784095177
-0.8934418611359574
-0.649956482108687
0.05842380784095177
-0.8934418611359574
-0.649956482108687
0.05842380784095177
-0.8934418611359574
-0.649956482108687
0.05842380784095177
-0.8934418611359574
-0.649812903765564
0.05712619376708925
-0.8936925890903684
-0.649812903765564
0.05712619376708925
-0.8936925890903684
-0.649812903765564
0.05712619376708925
-0.8936925890903684
-0.649812903765564
0.05712619376708925
-0.8936925890903684
-0.6498134244071205
0.05622695160315921
-0.893794245058913
-0.6498134244071205
0.05622695160315921
-0.893794245058913
-0.6498134244071205
0.05622695160315921
-0.893794245058913
-0.6498134244071205
0.05622695160315921
-0.893794245058913
-0.6502216898813976
0.05607694329315584
-0.8940990622603393
-0.6502216898813976
0.05607694329315584
-0.8940990622603393
-0.6502216898813976
0.05607694329315584
-0.8940990622603393
-0.6502216898813976
0.05607694329315584
-0.8940990622603393
-0.6502727446895384
0.0561807347770036
-0.8941356691965856
-0.6502727446895384
0.0561807347770036
-0.8941356691965856
-0.6502727446895384
0.0561807347770036
-0.8941356691965856
-0.6502727446895384
0.0561807347770036
-0.8941356691965856
-0.6508567838425221
0.05719065630820442
-0.8946041866666201
-0.6508567838425221
0.05719065630820442
-0.8946041866666201
-0.6508567838425221
0.05719065630820442
-0.8946041866666201
-0.6508567838425221
0.05719065630820442
-0.8946041866666201
-0.6511637556079239
0.058937597882744
-0.8954301577045176
-0.6511637556079239
0.058937597882744
-0.8954301577045176
-0.6511637556079239
0.058937597882744
-0.8954301577045176
-0.6511637556079239
0.058937597882744
-0.8954301577045176
-0.6509213234912301
0.0611583871637344
-0.896000858943527
-0.6509213234912301
0.0611583871637344
-0.896000858943527
-0.6509213234912301
0.0611583871637344
-0.896000858943527
-0.6509213234912301
0.0611583871637344
-0.896000858943527
-0.648631220059706
0.06243549338059651
-0.8963129316088719
-0.648631220059706
0.06243549338059651
-0.8963129316088719
-0.648631220059706
0.06243549338059651
-0.8963129316088719
-0.648631220059706
0.06243549338059651
-0.8963129316088719
-0.6451036216520915
0.06237793039152531
-0.8967221440713651
-0.6451036216520915
0.06237793039152531
-0.8967221440713651
-0.6451036216520915
0.06237793039152531
-0.8967221440713651
-0.6451036216520915
0.06237793039152531
-0.8967221440713651
-0.6435120564112911
0.0610065591201998
-0.8970874649024215
-0.6435120564112911
0.0610065591201998
-0.8970874649024215
-0.6435120564112911
0.0610065591201998
-0.8970874649024215
-0.6435120564112911
0.0610065591201998
-0.8970874649024215
-0.6426731499143632
0.06042597559343417
-0.8970440561062173
-0.6426731499143632
0.06042597559343417
-0.8970440561062173
-0.6426731499143632
0.06042597559343417
-0.8970440561062173
-0.6426731499143632
0.06042597559343417
-0.8970440561062173
-0.6407448095498374
0.06101564867606975
-0.8975391260530154
-0.6407448095498374
0.06101564867606975
-0.8975391260530154
-0.6407448095498374
0.06101564867606975
-0.8975391260530154
-0.6407448095498374
0.06101564867606975
-0.8975391260530154
-0.6381478918811374
0.06359053039474542
-0.8996451864499442
-0.6381478918811374
0.06359053039474542
-0.8996451864499442
-0.6381478918811374
0.06359053039474542
-0.8996451864499442
-0.6381478918811374
0.06359053039474542
-0.8996451864499442
-0.6376099188468836
0.06536635766485212
-0.900329287493827
-0.6376099188468836
0.06536635766485212
-0.900329287493827
-0.6376099188468836
0.06536635766485212
-0.900329287493827
-0.6376099188468836
0.06536635766485212
-0.900329287493827
-0.6397488957431159
0.06894899871069897
-0.8971432758718472
-0.6397488957431159
0.06894899871069897
-0.8971432758718472
-0.6397488957431159
0.06894899871069897
-0.8971432758718472
-0.6397488957431159
0.06894899871069897
-0.8971432758718472
-0.6395237186114109
0.07406795606383222
-0.8903667753004388
-0.6395237186114109
0.07406795606383222
-0.8903667753004388
-0.6395237186114109
0.07406795606383222
-0.8903667753004388
-0.6395237186114109
0.07406795606383222
-0.8903667753004388
-0.6354332486236274
0.07999304245583166
-0.8807338272495157
-0.6354332486236274
0.07999304245583166
-0.8807338272495157
-0.6354332486236274
0.07999304245583166
-0.8807338272495157
-0.6354332486236274
0.07999304245583166
-0.8807338272495157
-0.6284958905961959
0.08574324898044863
-0.8700709931861967
-0.6284958905961959
0.08574324898044863
-0.8700709931861967
-0.6284958905961959
0.08574324898044863
-0.8700709931861967
-0.6284958905961959
0.08574324898044863
-0.8700709931861967
-0.6158994128490385
0.08982105349583765
-0.8579664019102923
-0.6158994128490385
0.08982105349583765
-0.8579664019102923
-0.6158994128490385
0.08982105349583765
-0.8579664019102923
-0.6158994128490385
0.08982105349583765
-0.8579664019102923
-0.6029220526855286
0.09268914754175223
-0.8442010088993732
-0.6029220526855286
0.09268914754175223
-0.8442010088993732
-0.6029220526855286
0.09268914754175223
-0.8442010088993732
-0.6029220526855286
0.09268914754175223
-0.8442010088993732
-0.5905411334705879
0.09206121834561669
-0.8312964873330076
-0.5905411334705879
0.09206121834561669
-0.8312964873330076
-0.5905411334705879
0.09206121834561669
-0.8312964873330076
-0.5905411334705879
0.09206121834561669
-0.8312964873330076
-0.5847248131430013
0.08832232195906614
-0.8196464216881716
-0.5847248131430013
0.08832232195906614
-0.8196464216881716
-0.5847248131430013
0.08832232195906614
-0.8196464216881716
-0.5847248131430013
0.08832232195906614
-0.8196464216881716
-0.5774144830764346
0.08300982690583035
-0.8107890677344258
-0.5774144830764346
0.08300982690583035
-0.8107890677344258
-0.5774144830764346
0.08300982690583035
-0.8107890677344258
-0.5774144830764346
0.08300982690583035
-0.8107890677344258
-0.5672438095728461
0.07434976532349427
-0.8036974568103972
-0.5672438095728461
0.07434976532349427
-0.8036974568103972
-0.5672438095728461
0.07434976532349427
-0.8036974568103972
-0.5672438095728461
0.07434976532349427
-0.8036974568103972
-0.5600109649534717
0.06615761916722827
-0.7995120653252206
-0.5600109649534717
0.06615761916722827
-0.7995120653252206
-0.5600109649534717
0.06615761916722827
-0.7995120653252206
-0.5600109649534717
0.06615761916722827
-0.7995120653252206
-0.5526296719913886
0.05677574719543793
-0.7964203826818752
-0.5526296719913886
0.05677574719543793
-0.7964203826818752
-0.5526296719913886
0.05677574719543793
-0.7964203826818752
-0.5526296719913886
0.05677574719543793
-0.7964203826818752
-0.5493291715876079
0.04612460372827079
-0.795448584431103
-0.5493291715876079
0.04612460372827079
-0.795448584431103
-0.5493291715876079
0.04612460372827079
-0.795448584431103
-0.5493291715876079
0.04612460372827079
-0.795448584431103
-0.548317400554544
0.036314337120469324
-0.7975330673569823
-0.548317400554544
0.036314337120469324
-0.7975330673569823
-0.548317400554544
0.036314337120469324
-0.7975330673569823
-0.548317400554544
0.036314337120469324
-0.7975330673569823
-0.5521986402575036
0.02963560659229168
-0.8013861201278744
-0.5521986402575036
0.02963560659229168
-0.8013861201278744
-0.5521986402575036
0.02963560659229168
-0.8013861201278744
-0.5521986402575036
0.02963560659229168
-0.8013861201278744
-0.5594161993332619
0.024402730271050627
-0.8042517607880434
-0.5594161993332619
0.024402730271050627
-0.8042517607880434
-0.5594161993332619
0.024402730271050627
-0.8042517607880434
-0.5594161993332619
0.024402730271050627
-0.8042517607880434
-0.5648877900179842
0.020399878501802995
-0.8053389995271741
-0.5648877900179842
0.020399878501802995
-0.8053389995271741
-0.5648877900179842
0.020399878501802995
-0.8053389995271741
-0.5648877900179842
0.020399878501802995
-0.8053389995271741
-0.5646589522344517
0.017782189043963146
-0.8046941595066314
-0.5646589522344517
0.017782189043963146
-0.8046941595066314
-0.5646589522344517
0.017782189043963146
-0.8046941595066314
-0.5646589522344517
0.017782189043963146
-0.8046941595066314
-0.562826278759972
0.01712238803286119
-0.8044049690212145
-0.562826278759972
0.01712238803286119
-0.8044049690212145
-0.562826278759972
0.01712238803286119
-0.8044049690212145
-0.562826278759972
0.01712238803286119
-0.8044049690212145
-0.5607978923504146
0.017603921630684607
-0.8052451277616595
-0.5607978923504146
0.017603921630684607
-0.8052451277616595
-0.5607978923504146
0.017603921630684607
-0.8052451277616595
-0.5607978923504146
0.017603921630684607
-0.8052451277616595
-0.5590399416843288
0.017985054680783492
-0.8045236430601657
-0.5590399416843288
0.017985054680783492
-0.8045236430601657
-0.5590399416843288
0.017985054680783492
-0.8045236430601657
-0.5590399416843288
0.017985054680783492
-0.8045236430601657
-0.5597820852472682
0.018522947326309804
-0.8030161297315899
-0.5597820852472682
0.018522947326309804
-0.8030161297315899
-0.5597820852472682
0.018522947326309804
-0.8030161297315899
-0.5597820852472682
0.018522947326309804
-0.8030161297315899
-0.5606896477937258
0.0194666156085537
-0.8027116514994204
-0.5606896477937258
0.0194666156085537
-0.8027116514994204
-0.5606896477937258
0.0194666156085537
-0.8027116514994204
-0.5606896477937258
0.0194666156085537
-0.8027116514994204
-0.5609945957311101
0.02092856984248406
-0.8054038706707091
-0.5609945957311101
0.02092856984248406
-0.8054038706707091
-0.5609945957311101
0.02092856984248406
-0.8054038706707091
-0.5609945957311101
0.02092856984248406
-0.8054038706707091
-0.5619325168084178
0.023963992846382867
-0.80889187417631
-0.5619325168084178
0.023963992846382867
-0.80889187417631
-0.5619325168084178
0.023963992846382867
-0.80889187417631
-0.5619325168084178
0.023963992846382867
-0.80889187417631
-0.5627903304784581
0.027563061142512557
-0.8119782739182414
-0.5627903304784581
0.027563061142512557
-0.8119782739182414
-0.5627903304784581
0.027563061142512557
-0.8119782739182414
-0.5627903304784581
0.027563061142512557
-0.8119782739182414
-0.562249415197796
0.030634669142383823
-0.8142256693407615
-0.562249415197796
0.030634669142383823
-0.8142256693407615
-0.562249415197796
0.030634669142383823
-0.8142256693407615
-0.562249415197796
0.030634669142383823
-0.8142256693407615
-0.5615587642022646
0.032547797074993924
-0.8163181883847922
-0.5615587642022646
0.032547797074993924
-0.8163181883847922
-0.5615587642022646
0.032547797074993924
-0.8163181883847922
-0.5615587642022646
0.032547797074993924
-0.8163181883847922
-0.5641888608004944
0.03463850167904986
-0.8196566369669152
-0.5641888608004944
0.03463850167904986
-0.8196566369669152
-0.5641888608004944
0.03463850167904986
-0.8196566369669152
-0.5641888608004944
0.03463850167904986
-0.8196566369669152
-0.5670834314085045
0.03739956991146052
-0.8246232539482865
-0.5670834314085045
0.03739956991146052
-0.8246232539482865
-0.5670834314085045
0.03739956991146052
-0.8246232539482865
-0.5670834314085045
0.03739956991146052
-0.8246232539482865
-0.5690487488752154
0.040695884106729516
-0.8306567097812796
-0.5690487488752154
0.040695884106729516
-0.8306567097812796
-0.5690487488752154
0.040695884106729516
-0.8306567097812796
-0.5690487488752154
0.040695884106729516
-0.8306567097812796
-0.570825008413905
0.04416296585902277
-0.8368122253080535
-0.570825008413905
0.04416296585902277
-0.8368122253080535
-0.570825008413905
0.04416296585902277
-0.8368122253080535
-0.570825008413905
0.04416296585902277
-0.8368122253080535
-0.5751827581106801
0.04669413556842367
-0.8442123179885156
-0.5751827581106801
0.04669413556842367
-0.8442123179885156
-0.5751827581106801
0.04669413556842367
-0.8442123179885156
-0.5751827581106801
0.04669413556842367
-0.8442123179885156
-0.5843438846260492
0.04845673437904364
-0.854599282571478
-0.5843438846260492
0.04845673437904364
-0.854599282571478
-0.5843438846260492
0.04845673437904364
-0.854599282571478
-0.5843438846260492
0.04845673437904364
-0.854599282571478
-0.5939915271292581
0.05015055369397777
-0.8670211874989998
-0.5939915271292581
0.05015055369397777
-0.8670211874989998
-0.5939915271292581
0.05015055369397777
-0.8670211874989998
-0.5939915271292581
0.05015055369397777
-0.8670211874989998
-0.6065262284721328
0.051768011847404344
-0.8816344009764311
-0.6065262284721328
0.051768011847404344
-0.8816344009764311
-0.6065262284721328
0.051768011847404344
-0.8816344009764311
-0.6065262284721328
0.051768011847404344
-0.8816344009764311
-0.6205437525873032
0.05299249179504732
-0.8952531328918387
-0.6205437525873032
0.05299249179504732
-0.8952531328918387
-0.6205437525873032
0.05299249179504732
-0.8952531328918387
-0.6205437525873032
0.05299249179504732
-0.8952531328918387
-0.6335087773508308
0.05307130089777493
-0.9054428245472528
-0.6335087773508308
0.05307130089777493
-0.9054428245472528
-0.6335087773508308
0.05307130089777493
-0.9054428245472528
-0.6335087773508308
0.05307130089777493
-0.9054428245472528
-0.6407672482769586
0.05049311284870025
-0.9093016781946066
-0.6407672482769586
0.05049311284870025
-0.9093016781946066
-0.6407672482769586
0.05049311284870025
-0.9093016781946066
-0.6407672482769586
0.05049311284870025
-0.9093016781946066
-0.6432842607199831
0.04493853533241438
-0.9107309725197427
-0.6432842607199831
0.04493853533241438
-0.9107309725197427
-0.6432842607199831
0.04493853533241438
-0.9107309725197427
-0.6432842607199831
0.04493853533241438
-0.9107309725197427
-0.6461445982248183
0.0370613645780455
-0.9068830194538047
-0.6461445982248183
0.0370613645780455
-0.9068830194538047
-0.6461445982248183
0.0370613645780455
-0.9068830194538047
-0.6461445982248183
0.0370613645780455
-0.9068830194538047
-0.6532758590951462
0.029831608123498034
-0.8996434571850297
-0.6532758590951462
0.029831608123498034
-0.8996434571850297
-0.6532758590951462
0.029831608123498034
-0.8996434571850297
-0.6532758590951462
0.029831608123498034
-0.8996434571850297
-0.6538485215692318
0.02906646858701086
-0.8895282608317037
-0.6538485215692318
0.02906646858701086
-0.8895282608317037
-0.6538485215692318
0.02906646858701086
-0.8895282608317037
-0.6538485215692318
0.02906646858701086
-0.8895282608317037
-0.6481233487108516
0.035028278860298086
-0.879614067044367
-0.6481233487108516
0.035028278860298086
-0.879614067044367
-0.6481233487108516
0.035028278860298086
-0.879614067044367
-0.6481233487108516
0.035028278860298086
-0.879614067044367
-0.6368683220833129
0.045322725474694014
-0.870932362634824
-0.6368683220833129
0.045322725474694014
-0.870932362634824
-0.6368683220833129
0.045322725474694014
-0.870932362634824
-0.6368683220833129
0.045322725474694014
-0.870932362634824
-0.6340238004239086
0.05615416242783383
-0.8642580881344997
-0.6340238004239086
0.05615416242783383
-0.8642580881344997
-0.6340238004239086
0.05615416242783383
-0.8642580881344997
-0.6340238004239086
0.05615416242783383
-0.8642580881344997
-0.6377909162943705
0.0646071874431134
-0.85864808439663
-0.6377909162943705
0.0646071874431134
-0.85864808439663
-0.6377909162943705
0.0646071874431134
-0.85864808439663
-0.6377909162943705
0.0646071874431134
-0.85864808439663
-0.642995354306037
0.0669486877393671
-0.856479289702196
-0.642995354306037
0.0669486877393671
-0.856479289702196
-0.642995354306037
0.0669486877393671
-0.856479289702196
-0.642995354306037
0.0669486877393671
-0.856479289702196
-0.643870562277853
0.06253508622052856
-0.8579138311582708
-0.643870562277853
0.06253508622052856
-0.8579138311582708
-0.643870562277853
0.06253508622052856
-0.8579138311582708
-0.643870562277853
0.06253508622052856
-0.8579138311582708
-0.6435462476428397
0.05421182979828915
-0.8595170058397409
-0.6435462476428397
0.05421182979828915
-0.8595170058397409
-0.6435462476428397
0.05421182979828915
-0.8595170058397409
-0.6435462476428397
0.05421182979828915
-0.8595170058397409
-0.6433366495429567
0.046756372814714155
-0.8604348021528977
-0.6433366495429567
0.046756372814714155
-0.8604348021528977
-0.6433366495429567
0.046756372814714155
-0.8604348021528977
-0.6433366495429567
0.046756372814714155
-0.8604348021528977
-0.6445991906932869
0.045208232079236355
-0.8612590748927481
-0.6445991906932869
0.045208232079236355
-0.8612590748927481
-0.6445991906932869
0.045208232079236355
-0.8612590748927481
-0.6445991906932869
0.045208232079236355
-0.8612590748927481
-0.6449166075955
0.04906933205073775
-0.8624932285515353
-0.6449166075955
0.04906933205073775
-0.8624932285515353
-0.6449166075955
0.04906933205073775
-0.8624932285515353
-0.6449166075955
0.04906933205073775
-0.8624932285515353
-0.6418036168045984
0.05074800241554865
-0.8651958848405678
-0.6418036168045984
0.05074800241554865
-0.8651958848405678
-0.6418036168045984
0.05074800241554865
-0.8651958848405678
-0.6418036168045984
0.05074800241554865
-0.8651958848405678
-0.6378692822548093
0.048592472495648346
-0.8668982729664445
-0.6378692822548093
0.048592472495648346
-0.8668982729664445
-0.6378692822548093
0.048592472495648346
-0.8668982729664445
-0.6378692822548093
0.048592472495648346
-0.8668982729664445
-0.6358435756401501
0.04566315447145933
-0.8673482233222689
-0.6358435756401501
0.04566315447145933
-0.8673482233222689
-0.6358435756401501
0.04566315447145933
-0.8673482233222689
-0.6358435756401501
0.04566315447145933
-0.8673482233222689
-0.6376590371079838
0.045373275698496175
-0.8670427367272153
-0.6376590371079838
0.045373275698496175
-0.8670427367272153
-0.6376590371079838
0.045373275698496175
-0.8670427367272153
-0.6376590371079838
0.045373275698496175
-0.8670427367272153
-0.6387328332504336
0.04861857758570793
-0.8669191960019225
-0.6387328332504336
0.04861857758570793
-0.8669191960019225
-0.6387328332504336
0.04861857758570793
-0.8669191960019225
-0.6387328332504336
0.04861857758570793
-0.8669191960019225
-0.6389889368553638
0.052807656352354404
-0.8676739174166355
-0.6389889368553638
0.052807656352354404
-0.8676739174166355
-0.6389889368553638
0.052807656352354404
-0.8676739174166355
-0.6389889368553638
0.052807656352354404
-0.8676739174166355
-0.6381161637108484
0.05573597666904276
-0.868627421380155
-0.6381161637108484
0.05573597666904276
-0.868627421380155
-0.6381161637108484
0.05573597666904276
-0.868627421380155
-0.6381161637108484
0.05573597666904276
-0.868627421380155
-0.6364802366438365
0.056003594221606126
-0.8697192115318575
-0.6364802366438365
0.056003594221606126
-0.8697192115318575
-0.6364802366438365
0.056003594221606126
-0.8697192115318575
-0.6364802366438365
0.056003594221606126
-0.8697192115318575
-0.6379514111333096
0.05528745157699082
-0.8703153198111799
-0.6379514111333096
0.05528745157699082
-0.8703153198111799
-0.6379514111333096
0.05528745157699082
-0.8703153198111799
-0.6379514111333096
0.05528745157699082
-0.8703153198111799
-0.6399160705370976
0.05536107235126238
-0.8708361079465845
-0.6399160705370976
0.05536107235126238
-0.8708361079465845
-0.6399160705370976
0.05536107235126238
-0.8708361079465845
-0.6399160705370976
0.05536107235126238
-0.8708361079465845
-0.6417290155601765
0.05682751943271622
-0.8716455554017509
-0.6417290155601765
0.05682751943271622
-0.8716455554017509
-0.6417290155601765
0.05682751943271622
-0.8716455554017509
-0.6417290155601765
0.05682751943271622
-0.8716455554017509
-0.6415022829180735
0.058826906253635944
-0.8728782151262088
-0.6415022829180735
0.058826906253635944
-0.8728782151262088
-0.6415022829180735
0.058826906253635944
-0.8728782151262088
-0.6415022829180735
0.058826906253635944
-0.8728782151262088
-0.6399770375491107
0.060062467095612145
-0.8738343585159021
-0.6399770375491107
0.060062467095612145
-0.8738343585159021
-0.6399770375491107
0.060062467095612145
-0.8738343585159021
-0.6399770375491107
0.060062467095612145
-0.8738343585159021
-0.6375817902360985
0.05939495160495146
-0.8740233482930003
-0.6375817902360985
0.05939495160495146
-0.8740233482930003
-0.6375817902360985
0.05939495160495146
-0.8740233482930003
-0.6375817902360985
0.05939495160495146
-0.8740233482930003
-0.6364082541291337
0.058449595297655775
-0.8738005528282129
-0.6364082541291337
0.058449595297655775
-0.8738005528282129
-0.6364082541291337
0.058449595297655775
-0.8738005528282129
-0.6364082541291337
0.058449595297655775
-0.8738005528282129
-0.6372004970832669
0.05722375132829036
-0.8737622038354921
-0.6372004970832669
0.05722375132829036
-0.8737622038354921
-0.6372004970832669
0.05722375132829036
-0.8737622038354921
-0.6372004970832669
0.05722375132829036
-0.8737622038354921
-0.6378058540911882
0.05686198904489605
-0.8740558628504017
-0.6378058540911882
0.05686198904489605
-0.8740558628504017
-0.6378058540911882
0.05686198904489605
-0.8740558628504017
-0.6378058540911882
0.05686198904489605
-0.8740558628504017
-0.637697605034983
0.05760391545049432
-0.8745849121793303
-0.637697605034983
0.05760391545049432
-0.8745849121793303
-0.637697605034983
0.05760391545049432
-0.8745849121793303
-0.637697605034983
0.05760391545049432
-0.8745849121793303
-0.6368313152406461
0.05789289665983469
-0.8753545102449891
-0.6368313152406461
0.05789289665983469
-0.8753545102449891
-0.6368313152406461
0.05789289665983469
-0.8753545102449891
-0.6368313152406461
0.05789289665983469
-0.8753545102449891
-0.635523803886615
0.057238746169526546
-0.8761497269210743
-0.635523803886615
0.057238746169526546
-0.8761497269210743
-0.635523803886615
0.057238746169526546
-0.8761497269210743
-0.635523803886615
0.057238746169526546
-0.8761497269210743
-0.6356152015787782
0.05631066517216653
-0.8767089017406383
-0.6356152015787782
0.05631066517216653
-0.8767089017406383
-0.6356152015787782
0.05631066517216653
-0.8767089017406383
-0.6356152015787782
0.05631066517216653
-0.8767089017406383
-0.6372112389396578
0.05549020280901983
-0.8774470147176765
-0.6372112389396578
0.05549020280901983
-0.8774470147176765
-0.6372112389396578
0.05549020280901983
-0.8774470147176765
-0.6372112389396578
0.05549020280901983
-0.8774470147176765
-0.6387892235119585
0.054891535307560066
-0.878373991222726
-0.6387892235119585
0.054891535307560066
-0.878373991222726
-0.6387892235119585
0.054891535307560066
-0.878373991222726
-0.6387892235119585
0.054891535307560066
-0.878373991222726
-0.6395999181693268
0.0551190531280225
-0.8791562820641035
-0.6395999181693268
0.0551190531280225
-0.8791562820641035
-0.6395999181693268
0.0551190531280225
-0.8791562820641035
-0.6395999181693268
0.0551190531280225
-0.8791562820641035
-0.6402559186405623
0.05529188462220115
-0.879916062356914
-0.6402559186405623
0.05529188462220115
-0.879916062356914
-0.6402559186405623
0.05529188462220115
-0.879916062356914
-0.6402559186405623
0.05529188462220115
-0.879916062356914
-0.6407750850135203
0.055269078367375525
-0.8805532062702005
-0.6407750850135203
0.055269078367375525
-0.8805532062702005
-0.6407750850135203
0.055269078367375525
-0.8805532062702005
-0.6407750850135203
0.055269078367375525
-0.8805532062702005
-0.6417248887712401
0.054999101109501805
-0.8809414648791757
-0.6417248887712401
0.054999101109501805
-0.8809414648791757
-0.6417248887712401
0.054999101109501805
-0.8809414648791757
-0.6417248887712401
0.054999101109501805
-0.8809414648791757
-0.6417752959009755
0.05510339214479849
-0.8809776915201873
-0.6417752959009755
0.05510339214479849
-0.8809776915201873
-0.6417752959009755
0.05510339214479849
-0.8809776915201873
-0.6417752959009755
0.05510339214479849
-0.8809776915201873
-0.6407769911281144
0.05570123514544203
-0.8809842942146222
-0.6407769911281144
0.05570123514544203
-0.8809842942146222
-0.6407769911281144
0.05570123514544203
-0.8809842942146222
-0.6407769911281144
0.05570123514544203
-0.8809842942146222
-0.6401139979240906
0.05601681753433367
-0.8810146923406413
-0.6401139979240906
0.05601681753433367
-0.8810146923406413
-0.6401139979240906
0.05601681753433367
-0.8810146923406413
-0.6401139979240906
0.05601681753433367
-0.8810146923406413
-0.6398049908070713
0.05599056149912735
-0.8810594750871661
-0.6398049908070713
0.05599056149912735
-0.8810594750871661
-0.6398049908070713
0.05599056149912735
-0.8810594750871661
-0.6398049908070713
0.05599056149912735
-0.8810594750871661
-0.6390809927945973
0.05552617870383042
-0.8813506109466039
-0.6390809927945973
0.05552617870383042
-0.8813506109466039
-0.6390809927945973
0.05552617870383042
-0.8813506109466039
-0.6390809927945973
0.05552617870383042
-0.8813506109466039
-0.6385118124325464
0.05511593379411242
-0.8816646633888684
-0.6385118124325464
0.05511593379411242
-0.8816646633888684
-0.6385118124325464
0.05511593379411242
-0.8816646633888684
-0.6385118124325464
0.05511593379411242
-0.8816646633888684
-0.6387559575380746
0.054621156236465164
-0.8819664728439749
-0.6387559575380746
0.054621156236465164
-0.8819664728439749
-0.6387559575380746
0.054621156236465164
-0.8819664728439749
-0.6387559575380746
0.054621156236465164
-0.8819664728439749
-0.639269389893564
0.05442484450560452
-0.8822583261672486
-0.639269389893564
0.05442484450560452
-0.8822583261672486
-0.639269389893564
0.05442484450560452
-0.8822583261672486
-0.639269389893564
0.05442484450560452
-0.8822583261672486
-0.639933380010315
0.054459473741736084
-0.8825683044767605
-0.639933380010315
0.054459473741736084
-0.8825683044767605
-0.639933380010315
0.054459473741736084
-0.8825683044767605
-0.639933380010315
0.054459473741736084
-0.8825683044767605
-0.6406050173727781
0.055129657898112853
-0.8830356848086383
-0.6406050173727781
0.055129657898112853
-0.8830356848086383
-0.6406050173727781
0.055129657898112853
-0.8830356848086383
-0.6406050173727781
0.055129657898112853
-0.8830356848086383
-0.64041408466331
0.05616133334522536
-0.8832014827642508
-0.64041408466331
0.05616133334522536
-0.8832014827642508
-0.64041408466331
0.05616133334522536
-0.8832014827642508
-0.64041408466331
0.05616133334522536
-0.8832014827642508
-0.6404590115728992
0.057164293448444196
-0.8831313942969884
-0.6404590115728992
0.057164293448444196
-0.8831313942969884
-0.6404590115728992
0.057164293448444196
-0.8831313942969884
-0.6404590115728992
0.057164293448444196
-0.8831313942969884
-0.6404337270106737
0.057853606005756085
-0.8827842966375471
-0.6404337270106737
0.057853606005756085
-0.8827842966375471
-0.6404337270106737
0.057853606005756085
-0.8827842966375471
-0.6404337270106737
0.057853606005756085
-0.8827842966375471
-0.6403581326639038
0.058819460958460024
-0.8821229388536386
-0.6403581326639038
0.058819460958460024
-0.8821229388536386
-0.6403581326639038
0.058819460958460024
-0.8821229388536386
-0.6403581326639038
0.058819460958460024
-0.8821229388536386
-0.6401269082569179
0.05973147446885819
-0.8814384578604026
-0.6401269082569179
0.05973147446885819
-0.8814384578604026
-0.6401269082569179
0.05973147446885819
-0.8814384578604026
-0.6401269082569179
0.05973147446885819
-0.8814384578604026
-0.6399666684895431
0.06034718693902979
-0.8806041810734584
-0.6399666684895431
0.06034718693902979
-0.8806041810734584
-0.6399666684895431
0.06034718693902979
-0.8806041810734584
-0.6399666684895431
0.06034718693902979
-0.8806041810734584
-0.6397415084528917
0.060360200913458444
-0.8800259441441786
-0.6397415084528917
0.060360200913458444
-0.8800259441441786
-0.6397415084528917
0.060360200913458444
-0.8800259441441786
-0.6397415084528917
0.060360200913458444
-0.8800259441441786
-0.6398130511698115
0.06044479198350569
-0.8795983351185261
-0.6398130511698115
0.06044479198350569
-0.8795983351185261
-0.6398130511698115
0.06044479198350569
-0.8795983351185261
-0.6398130511698115
0.06044479198350569
-0.8795983351185261
-0.639278961525948
0.06043094947975812
-0.8790642454746627
-0.639278961525948
0.06043094947975812
-0.8790642454746627
-0.639278961525948
0.06043094947975812
-0.8790642454746627
-0.639278961525948
0.06043094947975812
-0.8790642454746627
-0.6383172894615015
0.06032290799184643
-0.8786017251527883
-0.6383172894615015
0.06032290799184643
-0.8786017251527883
-0.6383172894615015
0.06032290799184643
-0.8786017251527883
-0.6383172894615015
0.06032290799184643
-0.8786017251527883
-0.637959524421383
0.059499996562070355
-0.8780937665964509
-0.637959524421383
0.059499996562070355
-0.8780937665964509
-0.637959524421383
0.059499996562070355
-0.8780937665964509
-0.637959524421383
0.059499996562070355
-0.8780937665964509
-0.6382380179170855
0.058589162801558965
-0.8773974310010978
-0.6382380179170855
0.058589162801558965
