-0.5559668156307966
0.008546833808578827
-0.27007551433533544
-0.5559668156307966
0.008546833808578827
-0.27007551433533544
-0.5559668156307966
0.008546833808578827
-0.27007551433533544
-0.5559668156307966
0.008546833808578827
-0.27007551433533544
-0.556621465849666
0.008762261318350631
-0.26990539240883976
-0.556621465849666
0.008762261318350631
-0.26990539240883976
-0.556621465849666
0.008762261318350631
-0.26990539240883976
-0.556621465849666
0.008762261318350631
-0.26990539240883976
-0.557754571950567
0.008760456245052492
-0.26981825851214936
-0.557754571950567
0.008760456245052492
-0.26981825851214936
-0.557754571950567
0.008760456245052492
-0.26981825851214936
-0.557754571950567
0.008760456245052492
-0.26981825851214936
-0.5592832876813704
0.008553246405924706
-0.2698336974878497
-0.5592832876813704
0.008553246405924706
-0.2698336974878497
-0.5592832876813704
0.008553246405924706
-0.2698336974878497
-0.5592832876813704
0.008553246405924706
-0.2698336974878497
-0.5605539296681854
0.008431062495472298
-0.2701069883093985
-0.5605539296681854
0.008431062495472298
-0.2701069883093985
-0.5605539296681854
0.008431062495472298
-0.2701069883093985
-0.5605539296681854
0.008431062495472298
-0.2701069883093985
-0.5613342547587511
0.008443538979616642
-0.27014805268544023
-0.5613342547587511
0.008443538979616642
-0.27014805268544023
-0.5613342547587511
0.008443538979616642
-0.27014805268544023
-0.5613342547587511
0.008443538979616642
-0.27014805268544023
-0.5622348653363476
0.008473670298645387
-0.2700688639220303
-0.5622348653363476
0.008473670298645387
-0.2700688639220303
-0.5622348653363476
0.008473670298645387
-0.2700688639220303
-0.5622348653363476
0.008473670298645387
-0.2700688639220303
-0.5629578653652835
0.008325180377998273
-0.2697943314259422
-0.5629578653652835
0.008325180377998273
-0.2697943314259422
-0.5629578653652835
0.008325180377998273
-0.2697943314259422
-0.5629578653652835
0.008325180377998273
-0.2697943314259422
-0.5629737781638857
0.008441358143582905
-0.2698279982704318
-0.5629737781638857
0.008441358143582905
-0.2698279982704318
-0.5629737781638857
0.008441358143582905
-0.2698279982704318
-0.5629737781638857
0.008441358143582905
-0.2698279982704318
-0.5629737781638857
0.008441358143582905
-0.2698279982704318
-0.5629737781638857
0.008441358143582905
-0.2698279982704318
-0.5629737781638857
0.008441358143582905
-0.2698279982704318
-0.5629737781638857
0.008441358143582905
-0.2698279982704318
-0.5629737781638857
0.008441358143582905
-0.2698279982704318
-0.5629737781638857
0.008441358143582905
-0.2698279982704318
-0.5629737781638857
0.008441358143582905
-0.2698279982704318
-0.5629737781638857
0.008441358143582905
-0.2698279982704318
-0.5634658531227763
0.008069814632327523
-0.2700084881840888
-0.5634658531227763
0.008069814632327523
-0.2700084881840888
-0.5634658531227763
0.008069814632327523
-0.2700084881840888
-0.5634658531227763
0.008069814632327523
-0.2700084881840888
-0.5635861822210183
0.007206196529372082
-0.27026276573828256
-0.5635861822210183
0.007206196529372082
-0.27026276573828256
-0.5635861822210183
0.007206196529372082
-0.27026276573828256
-0.5635861822210183
0.007206196529372082
-0.27026276573828256
-0.5632776470370165
0.006672320339037209
-0.2704848975993009
-0.5632776470370165
0.006672320339037209
-0.2704848975993009
-0.5632776470370165
0.006672320339037209
-0.2704848975993009
-0.5632776470370165
0.006672320339037209
-0.2704848975993009
-0.5635760616853195
0.006005835622221671
-0.27043598482602293
-0.5635760616853195
0.006005835622221671
-0.27043598482602293
-0.5635760616853195
0.006005835622221671
-0.27043598482602293
-0.5635760616853195
0.006005835622221671
-0.27043598482602293
-0.5648260850886972
0.005732815777866341
-0.27078977940800386
-0.5648260850886972
0.005732815777866341
-0.27078977940800386
-0.5648260850886972
0.005732815777866341
-0.27078977940800386
-0.5648260850886972
0.005732815777866341
-0.27078977940800386
-0.566112117829587
0.005725425588363578
-0.27109474323528576
-0.566112117829587
0.005725425588363578
-0.27109474323528576
-0.566112117829587
0.005725425588363578
-0.27109474323528576
-0.566112117829587
0.005725425588363578
-0.27109474323528576
-0.5667996725228045
0.00591779340237274
-0.27143902904411876
-0.5667996725228045
0.00591779340237274
-0.27143902904411876
-0.5667996725228045
0.00591779340237274
-0.27143902904411876
-0.5667996725228045
0.00591779340237274
-0.27143902904411876
-0.5672212170998736
0.006146158934225821
-0.27177601906965626
-0.5672212170998736
0.006146158934225821
-0.27177601906965626
-0.5672212170998736
0.006146158934225821
-0.27177601906965626
-0.5672212170998736
0.006146158934225821
-0.27177601906965626
-0.5680792053411704
0.0064678546355854145
-0.27205014899479874
-0.5680792053411704
0.0064678546355854145
-0.27205014899479874
-0.5680792053411704
0.0064678546355854145
-0.27205014899479874
-0.5680792053411704
0.0064678546355854145
-0.27205014899479874
-0.5691162785905691
0.006631466299047144
-0.271883847276419
-0.5691162785905691
0.006631466299047144
-0.271883847276419
-0.5691162785905691
0.006631466299047144
-0.271883847276419
-0.5691162785905691
0.006631466299047144
-0.271883847276419
-0.570265096135321
0.0067451939144518355
-0.27182950662571087
-0.570265096135321
0.0067451939144518355
-0.27182950662571087
-0.570265096135321
0.0067451939144518355
-0.27182950662571087
-0.570265096135321
0.0067451939144518355
-0.27182950662571087
-0.5712860909878932
0.006793067947425484
-0.2716294029896273
-0.5712860909878932
0.006793067947425484
-0.2716294029896273
-0.5712860909878932
0.006793067947425484
-0.2716294029896273
-0.5712860909878932
0.006793067947425484
-0.2716294029896273
-0.5717811714131319
0.006711376351012643
-0.27124608412600576
-0.5717811714131319
0.006711376351012643
-0.27124608412600576
-0.5717811714131319
0.006711376351012643
-0.27124608412600576
-0.5717811714131319
0.006711376351012643
-0.27124608412600576
-0.571218010002797
0.006572121311671311
-0.2706647087893471
-0.571218010002797
0.006572121311671311
-0.2706647087893471
-0.571218010002797
0.006572121311671311
-0.2706647087893471
-0.571218010002797
0.006572121311671311
-0.2706647087893471
-0.570104743966309
0.006118069575181128
-0.27009840187422723
-0.570104743966309
0.006118069575181128
-0.27009840187422723
-0.570104743966309
0.006118069575181128
-0.27009840187422723
-0.570104743966309
0.006118069575181128
-0.27009840187422723
-0.5695725533842533
0.005077303512599094
-0.2695228396115076
-0.5695725533842533
0.005077303512599094
-0.2695228396115076
-0.5695725533842533
0.005077303512599094
-0.2695228396115076
-0.5695725533842533
0.005077303512599094
-0.2695228396115076
-0.5695412059454479
0.004239245429436204
-0.26888228893302196
-0.5695412059454479
0.004239245429436204
-0.26888228893302196
-0.5695412059454479
0.004239245429436204
-0.26888228893302196
-0.5695412059454479
0.004239245429436204
-0.26888228893302196
-0.5695645155635866
0.003546940759416184
-0.2681754512992435
-0.5695645155635866
0.003546940759416184
-0.2681754512992435
-0.5695645155635866
0.003546940759416184
-0.2681754512992435
-0.5695645155635866
0.003546940759416184
-0.2681754512992435
-0.5699410232880662
0.0028416379234454748
-0.26733923149320565
-0.5699410232880662
0.0028416379234454748
-0.26733923149320565
-0.5699410232880662
0.0028416379234454748
-0.26733923149320565
-0.5699410232880662
0.0028416379234454748
-0.26733923149320565
-0.5708818214817182
0.002297568810318939
-0.266584365121133
-0.5708818214817182
0.002297568810318939
-0.266584365121133
-0.5708818214817182
0.002297568810318939
-0.266584365121133
-0.5708818214817182
0.002297568810318939
-0.266584365121133
-0.5714332487183996
0.00200779323932745
-0.2659955227643628
-0.5714332487183996
0.00200779323932745
-0.2659955227643628
-0.5714332487183996
0.00200779323932745
-0.2659955227643628
-0.5714332487183996
0.00200779323932745
-0.2659955227643628
-0.5715715142968805
0.0021628508324828075
-0.26541067670573654
-0.5715715142968805
0.0021628508324828075
-0.26541067670573654
-0.5715715142968805
0.0021628508324828075
-0.26541067670573654
-0.5715715142968805
0.0021628508324828075
-0.26541067670573654
-0.5716910614278958
0.002438486969517824
-0.2648444603758477
-0.5716910614278958
0.002438486969517824
-0.2648444603758477
-0.5716910614278958
0.002438486969517824
-0.2648444603758477
-0.5716910614278958
0.002438486969517824
-0.2648444603758477
-0.5722535800638638
0.0028569608631828203
-0.2644805486901436
-0.5722535800638638
0.0028569608631828203
-0.2644805486901436
-0.5722535800638638
0.0028569608631828203
-0.2644805486901436
-0.5722535800638638
0.0028569608631828203
-0.2644805486901436
-0.5724292001270553
0.0032922365374778457
-0.2642305041384077
-0.5724292001270553
0.0032922365374778457
-0.2642305041384077
-0.5724292001270553
0.0032922365374778457
-0.2642305041384077
-0.5724292001270553
0.0032922365374778457
-0.2642305041384077
-0.5724929550241483
0.003777225872005114
-0.2638687800067102
-0.5724929550241483
0.003777225872005114
-0.2638687800067102
-0.5724929550241483
0.003777225872005114
-0.2638687800067102
-0.5724929550241483
0.003777225872005114
-0.2638687800067102
-0.5727886901954103
0.004231349016890045
-0.26349850335246866
-0.5727886901954103
0.004231349016890045
-0.26349850335246866
-0.5727886901954103
0.004231349016890045
-0.26349850335246866
-0.5727886901954103
0.004231349016890045
-0.26349850335246866
-0.5738097155944624
0.004283748241160731
-0.2632972386800178
-0.5738097155944624
0.004283748241160731
-0.2632972386800178
-0.5738097155944624
0.004283748241160731
-0.2632972386800178
-0.5738097155944624
0.004283748241160731
-0.2632972386800178
-0.5744740091399145
0.004314007734216034
-0.2633409821352668
-0.5744740091399145
0.004314007734216034
-0.2633409821352668
-0.5744740091399145
0.004314007734216034
-0.2633409821352668
-0.5744740091399145
0.004314007734216034
-0.2633409821352668
-0.5743253077235192
0.004076173907664755
-0.26377515562480486
-0.5743253077235192
0.004076173907664755
-0.26377515562480486
-0.5743253077235192
0.004076173907664755
-0.26377515562480486
-0.5743253077235192
0.004076173907664755
-0.26377515562480486
-0.5733825307057369
0.003728803947399683
-0.2636373370400884
-0.5733825307057369
0.003728803947399683
-0.2636373370400884
-0.5733825307057369
0.003728803947399683
-0.2636373370400884
-0.5733825307057369
0.003728803947399683
-0.2636373370400884
-0.5717687717906983
0.003303280454457718
-0.2631900927384069
-0.5717687717906983
0.003303280454457718
-0.2631900927384069
-0.5717687717906983
0.003303280454457718
-0.2631900927384069
-0.5717687717906983
0.003303280454457718
-0.2631900927384069
-0.571421005446552
0.0027238206654749604
-0.2631287551475505
-0.571421005446552
0.0027238206654749604
-0.2631287551475505
-0.571421005446552
0.0027238206654749604
-0.2631287551475505
-0.571421005446552
0.0027238206654749604
-0.2631287551475505
-0.5708939747845421
0.002571420606672697
-0.26344498051506454
-0.5708939747845421
0.002571420606672697
-0.26344498051506454
-0.570080759996139
0.003549685310154332
-0.2648654844058792
-0.570080759996139
0.003549685310154332
-0.2648654844058792
-0.570080759996139
0.003549685310154332
-0.2648654844058792
-0.570080759996139
0.003549685310154332
-0.2648654844058792
-0.5673567860900061
0.004509593091544478
-0.26721605061667825
-0.5673567860900061
0.004509593091544478
-0.26721605061667825
-0.5673567860900061
0.004509593091544478
-0.26721605061667825
-0.5673567860900061
0.004509593091544478
-0.26721605061667825
-0.5630472224065752
0.0055253729947818755
-0.2683553050862655
-0.5630472224065752
0.0055253729947818755
-0.2683553050862655
-0.5630472224065752
0.0055253729947818755
-0.2683553050862655
-0.5630472224065752
0.0055253729947818755
-0.2683553050862655
-0.558935119135426
0.007128850866117592
-0.26915465197035465
-0.558935119135426
0.007128850866117592
-0.26915465197035465
-0.558935119135426
0.007128850866117592
-0.26915465197035465
-0.558935119135426
0.007128850866117592
-0.26915465197035465
-0.5539152745731195
0.009502753537626642
-0.2703788862516431
-0.5539152745731195
0.009502753537626642
-0.2703788862516431
-0.5539152745731195
0.009502753537626642
-0.2703788862516431
-0.5539152745731195
0.009502753537626642
-0.2703788862516431
-0.5510651061289847
0.012098559369735596
-0.2725391552055473
-0.5510651061289847
0.012098559369735596
-0.2725391552055473
-0.5510651061289847
0.012098559369735596
-0.2725391552055473
-0.5510651061289847
0.012098559369735596
-0.2725391552055473
-0.5514558010353505
0.014337435332427458
-0.27484351264149287
-0.5514558010353505
0.014337435332427458
-0.27484351264149287
-0.5514558010353505
0.014337435332427458
-0.27484351264149287
-0.5514558010353505
0.014337435332427458
-0.27484351264149287
-0.55119183086955
0.01722487806393689
-0.2765550884523362
-0.55119183086955
0.01722487806393689
-0.2765550884523362
-0.55119183086955
0.01722487806393689
-0.2765550884523362
-0.55119183086955
0.01722487806393689
-0.2765550884523362
-0.5482641326845537
0.017778898617393304
-0.27554118923538384
-0.5482641326845537
0.017778898617393304
-0.27554118923538384
-0.5482641326845537
0.017778898617393304
-0.27554118923538384
-0.5482641326845537
0.017778898617393304
-0.27554118923538384
-0.5388559317020011
0.015500270065400817
-0.2726722491002485
-0.5388559317020011
0.015500270065400817
-0.2726722491002485
-0.5388559317020011
0.015500270065400817
-0.2726722491002485
-0.5388559317020011
0.015500270065400817
-0.2726722491002485
-0.5141319976567007
0.013620263711995446
-0.27068535217762507
-0.5141319976567007
0.013620263711995446
-0.27068535217762507
-0.5141319976567007
0.013620263711995446
-0.27068535217762507
-0.5141319976567007
0.013620263711995446
-0.27068535217762507
-0.4733943316265277
0.010777518522691413
-0.2746731770137311
-0.4733943316265277
0.010777518522691413
-0.2746731770137311
-0.4733943316265277
0.010777518522691413
-0.2746731770137311
-0.4733943316265277
0.010777518522691413
-0.2746731770137311
-0.41584569223358386
0.011615573910801683
-0.287109220340529
-0.41584569223358386
0.011615573910801683
-0.287109220340529
-0.41584569223358386
0.011615573910801683
-0.287109220340529
-0.41584569223358386
0.011615573910801683
-0.287109220340529
-0.3402479054864127
0.017555001332603883
-0.30539515555969415
-0.3402479054864127
0.017555001332603883
-0.30539515555969415
-0.3402479054864127
0.017555001332603883
-0.30539515555969415
-0.3402479054864127
0.017555001332603883
-0.30539515555969415
-0.2518583157676076
0.024107700959041748
-0.320746635198513
-0.2518583157676076
0.024107700959041748
-0.320746635198513
-0.2518583157676076
0.024107700959041748
-0.320746635198513
-0.2518583157676076
0.024107700959041748
-0.320746635198513
-0.19010903147143096
0.026698787598488385
-0.32175486719621826
-0.19010903147143096
0.026698787598488385
-0.32175486719621826
-0.19010903147143096
0.026698787598488385
-0.32175486719621826
-0.19010903147143096
0.026698787598488385
-0.32175486719621826
-0.1727461081358153
0.021164216868488534
-0.30874290539345134
-0.1727461081358153
0.021164216868488534
-0.30874290539345134
-0.1727461081358153
0.021164216868488534
-0.30874290539345134
-0.1727461081358153
0.021164216868488534
-0.30874290539345134
-0.18838580629730756
0.008837225383250569
-0.29928169432952917
-0.18838580629730756
0.008837225383250569
-0.29928169432952917
-0.18838580629730756
0.008837225383250569
-0.29928169432952917
-0.18838580629730756
0.008837225383250569
-0.29928169432952917
-0.19231131077457575
-7.656441506351893E-4
-0.293709944798782
-0.19231131077457575
-7.656441506351893E-4
-0.293709944798782
-0.19231131077457575
-7.656441506351893E-4
-0.293709944798782
-0.19231131077457575
-7.656441506351893E-4
-0.293709944798782
-0.15899789026988193
-0.005579600997951531
-0.2916619589673107
-0.15899789026988193
-0.005579600997951531
-0.2916619589673107
-0.15899789026988193
-0.005579600997951531
-0.2916619589673107
-0.15899789026988193
-0.005579600997951531
-0.2916619589673107
-0.11387508233559382
-0.00792440518772929
-0.28873725318741605
-0.11387508233559382
-0.00792440518772929
-0.28873725318741605
-0.11387508233559382
-0.00792440518772929
-0.28873725318741605
-0.11387508233559382
-0.00792440518772929
-0.28873725318741605
-0.07904345433758923
-0.009627385612526677
-0.2821521980673834
-0.07904345433758923
-0.009627385612526677
-0.2821521980673834
-0.07904345433758923
-0.009627385612526677
-0.2821521980673834
-0.07904345433758923
-0.009627385612526677
-0.2821521980673834
-0.06941143012257187
-0.013236977707249336
-0.27647665301621843
-0.06941143012257187
-0.013236977707249336
-0.27647665301621843
-0.06941143012257187
-0.013236977707249336
-0.27647665301621843
-0.06941143012257187
-0.013236977707249336
-0.27647665301621843
-0.07183401346913801
-0.01893330705438448
-0.274666253364719
-0.07183401346913801
-0.01893330705438448
-0.274666253364719
-0.07183401346913801
-0.01893330705438448
-0.274666253364719
-0.07183401346913801
-0.01893330705438448
-0.274666253364719
-0.06864852181779872
-0.024153260942813698
-0.27437943106677615
-0.06864852181779872
-0.024153260942813698
-0.27437943106677615
-0.06864852181779872
-0.024153260942813698
-0.27437943106677615
-0.06864852181779872
-0.024153260942813698
-0.27437943106677615
-0.058904098504646916
-0.02687309231508956
-0.27438358996447165
-0.058904098504646916
-0.02687309231508956
-0.27438358996447165
-0.058904098504646916
-0.02687309231508956
-0.27438358996447165
-0.058904098504646916
-0.02687309231508956
-0.27438358996447165
-0.053417162219839456
-0.027252679928449167
-0.275414991406339
-0.053417162219839456
-0.027252679928449167
-0.275414991406339
-0.053417162219839456
-0.027252679928449167
-0.275414991406339
-0.053417162219839456
-0.027252679928449167
-0.275414991406339
-0.053385388563951676
-0.027310840725270832
-0.27762472461003795
-0.053385388563951676
-0.027310840725270832
-0.27762472461003795
-0.053385388563951676
-0.027310840725270832
-0.27762472461003795
-0.053385388563951676
-0.027310840725270832
-0.27762472461003795
-0.055954764623870674
-0.02812784564543524
-0.2805371555773154
-0.055954764623870674
-0.02812784564543524
-0.2805371555773154
-0.055954764623870674
-0.02812784564543524
-0.2805371555773154
-0.055954764623870674
-0.02812784564543524
-0.2805371555773154
-0.05626687305907619
-0.028374770140916272
-0.28313374161735216
-0.05626687305907619
-0.028374770140916272
-0.28313374161735216
-0.05626687305907619
-0.028374770140916272
-0.28313374161735216
-0.05626687305907619
-0.028374770140916272
-0.28313374161735216
-0.054714746492111194
-0.027848656757685736
-0.28538092063279763
-0.054714746492111194
-0.027848656757685736
-0.28538092063279763
-0.054714746492111194
-0.027848656757685736
-0.28538092063279763
-0.054714746492111194
-0.027848656757685736
-0.28538092063279763
-0.05430890748453244
-0.026244921861009733
-0.2873990091692864
-0.05430890748453244
-0.026244921861009733
-0.2873990091692864
-0.05430890748453244
-0.026244921861009733
-0.2873990091692864
-0.05430890748453244
-0.026244921861009733
-0.2873990091692864
-0.05545205418578942
-0.02422655070439908
-0.2886660818222209
-0.05545205418578942
-0.02422655070439908
-0.2886660818222209
-0.05545205418578942
-0.02422655070439908
-0.2886660818222209
-0.05545205418578942
-0.02422655070439908
-0.2886660818222209
-0.05503277350883652
-0.02283135727663691
-0.2894522587967372
-0.05503277350883652
-0.02283135727663691
-0.2894522587967372
-0.05503277350883652
-0.02283135727663691
-0.2894522587967372
-0.05503277350883652
-0.02283135727663691
-0.2894522587967372
-0.05423787692491612
-0.023123899227649267
-0.29080025078826277
-0.05423787692491612
-0.023123899227649267
-0.29080025078826277
-0.05423787692491612
-0.023123899227649267
-0.29080025078826277
-0.05423787692491612
-0.023123899227649267
-0.29080025078826277
-0.05078838475805811
-0.023879643634853547
-0.2918052789111844
-0.05078838475805811
-0.023879643634853547
-0.2918052789111844
-0.05078838475805811
-0.023879643634853547
-0.2918052789111844
-0.05078838475805811
-0.023879643634853547
-0.2918052789111844
-0.0456887807685807
-0.02412274193042527
-0.29208447051112096
-0.0456887807685807
-0.02412274193042527
-0.29208447051112096
-0.0456887807685807
-0.02412274193042527
-0.29208447051112096
-0.0456887807685807
-0.02412274193042527
-0.29208447051112096
-0.04142433580809531
-0.024600214988740918
-0.29186664293905895
-0.04142433580809531
-0.024600214988740918
-0.29186664293905895
-0.04142433580809531
-0.024600214988740918
-0.29186664293905895
-0.04142433580809531
-0.024600214988740918
-0.29186664293905895
-0.038261700663373095
-0.02598408250165287
-0.2917582781448348
-0.038261700663373095
-0.02598408250165287
-0.2917582781448348
-0.038261700663373095
-0.02598408250165287
-0.2917582781448348
-0.038261700663373095
-0.02598408250165287
-0.2917582781448348
-0.03500776440325424
-0.027110956638264492
-0.29188385544496476
-0.03500776440325424
-0.027110956638264492
-0.29188385544496476
-0.03500776440325424
-0.027110956638264492
-0.29188385544496476
-0.03500776440325424
-0.027110956638264492
-0.29188385544496476
-0.030513613263885898
-0.0274421204980698
-0.2921813232224308
-0.030513613263885898
-0.0274421204980698
-0.2921813232224308
-0.030513613263885898
-0.0274421204980698
-0.2921813232224308
-0.030513613263885898
-0.0274421204980698
-0.2921813232224308
-0.02400123745848108
-0.02722845024976383
-0.292514839525216
-0.02400123745848108
-0.02722845024976383
-0.292514839525216
-0.02400123745848108
-0.02722845024976383
-0.292514839525216
-0.02400123745848108
-0.02722845024976383
-0.292514839525216
-0.01905721279021723
-0.02724481218477712
-0.2929443473145473
-0.01905721279021723
-0.02724481218477712
-0.2929443473145473
-0.01905721279021723
-0.02724481218477712
-0.2929443473145473
-0.01905721279021723
-0.02724481218477712
-0.2929443473145473
-0.017511345140376812
-0.027638214288020803
-0.29344505698208806
-0.017511345140376812
-0.027638214288020803
-0.29344505698208806
-0.017511345140376812
-0.027638214288020803
-0.29344505698208806
-0.017511345140376812
-0.027638214288020803
-0.29344505698208806
-0.01722387551465922
-0.027850621662332167
-0.29418968244402033
-0.01722387551465922
-0.027850621662332167
-0.29418968244402033
-0.01722387551465922
-0.027850621662332167
-0.29418968244402033
-0.01722387551465922
-0.027850621662332167
-0.29418968244402033
-0.01603887342509786
-0.028298852708966978
-0.29482432425439464
-0.01603887342509786
-0.028298852708966978
-0.29482432425439464
-0.01603887342509786
-0.028298852708966978
-0.29482432425439464
-0.01603887342509786
-0.028298852708966978
-0.29482432425439464
-0.01324006550578417
-0.028756561104918935
-0.2959656583895243
-0.01324006550578417
-0.028756561104918935
-0.2959656583895243
-0.01324006550578417
-0.028756561104918935
-0.2959656583895243
-0.01324006550578417
-0.028756561104918935
-0.2959656583895243
-0.01059951380118466
-0.02898732148014552
-0.29698638284782136
-0.01059951380118466
-0.02898732148014552
-0.29698638284782136
-0.01059951380118466
-0.02898732148014552
-0.29698638284782136
-0.01059951380118466
-0.02898732148014552
-0.29698638284782136
-0.008449134336190427
-0.029286851687789803
-0.2975173173341563
-0.008449134336190427
-0.029286851687789803
-0.2975173173341563
-0.008449134336190427
-0.029286851687789803
-0.2975173173341563
-0.008449134336190427
-0.029286851687789803
-0.2975173173341563
-0.007022871512781643
-0.029692097712289367
-0.298019704503955
-0.007022871512781643
-0.029692097712289367
-0.298019704503955
-0.007022871512781643
-0.029692097712289367
-0.298019704503955
-0.007022871512781643
-0.029692097712289367
-0.298019704503955
-0.005568409276703999
-0.029476756363079087
-0.29842222117390976
-0.005568409276703999
-0.029476756363079087
-0.29842222117390976
-0.005568409276703999
-0.029476756363079087
-0.29842222117390976
-0.005568409276703999
-0.029476756363079087
-0.29842222117390976
-0.003531964515729454
-0.029047594622114817
-0.2985737213592818
-0.003531964515729454
-0.029047594622114817
-0.2985737213592818
-0.003531964515729454
-0.029047594622114817
-0.2985737213592818
-0.003531964515729454
-0.029047594622114817
-0.2985737213592818
-0.0020665631951494643
-0.028950607045913866
-0.29847438042094204
-0.0020665631951494643
-0.028950607045913866
-0.29847438042094204
-0.0020665631951494643
-0.028950607045913866
-0.29847438042094204
-0.0020665631951494643
-0.028950607045913866
-0.29847438042094204
-6.123130498634415E-4
-0.02873216393576146
-0.29885767064527524
-6.123130498634415E-4
-0.02873216393576146
-0.29885767064527524
-6.123130498634415E-4
-0.02873216393576146
-0.29885767064527524
-6.123130498634415E-4
-0.02873216393576146
-0.29885767064527524
0.0012386673255471842
-0.028700304911335524
-0.2991256805349058
0.0012386673255471842
-0.028700304911335524
-0.2991256805349058
0.0012386673255471842
-0.028700304911335524
-0.2991256805349058
0.0012386673255471842
-0.028700304911335524
-0.2991256805349058
0.0018313559223537843
-0.028488896837606515
-0.2996350581852564
0.0018313559223537843
-0.028488896837606515
-0.2996350581852564
0.0018313559223537843
-0.028488896837606515
-0.2996350581852564
0.0018313559223537843
-0.028488896837606515
-0.2996350581852564
0.002334237738650397
-0.028536305531151714
-0.29976299055812955
0.002334237738650397
-0.028536305531151714
-0.29976299055812955
0.002334237738650397
-0.028536305531151714
-0.29976299055812955
0.002334237738650397
-0.028536305531151714
-0.29976299055812955
0.0027380435222676028
-0.028721714389937213
-0.30013113298803495
0.0027380435222676028
-0.028721714389937213
-0.30013113298803495
0.0027380435222676028
-0.028721714389937213
-0.30013113298803495
0.0027380435222676028
-0.028721714389937213
-0.30013113298803495
0.0029077726002207155
-0.028943467020116895
-0.3009970774393861
0.0029077726002207155
-0.028943467020116895
-0.3009970774393861
0.0029077726002207155
-0.028943467020116895
-0.3009970774393861
0.0029077726002207155
-0.028943467020116895
-0.3009970774393861
0.00399986929699046
-0.02877892858950651
-0.3013929587627577
0.00399986929699046
-0.02877892858950651
-0.3013929587627577
0.00399986929699046
-0.02877892858950651
-0.3013929587627577
0.00399986929699046
-0.02877892858950651
-0.3013929587627577
0.005530904597999748
-0.02829990891371325
-0.3012929673806188
0.005530904597999748
-0.02829990891371325
-0.3012929673806188
0.005530904597999748
-0.02829990891371325
-0.3012929673806188
0.005530904597999748
-0.02829990891371325
-0.3012929673806188
0.006518684386555004
-0.0275326097230951
-0.30080333925602876
0.006518684386555004
-0.0275326097230951
-0.30080333925602876
0.006518684386555004
-0.0275326097230951
-0.30080333925602876
0.006518684386555004
-0.0275326097230951
-0.30080333925602876
0.006609101051052517
-0.0265325335662441
-0.30043916374772267
0.006609101051052517
-0.0265325335662441
-0.30043916374772267
0.006609101051052517
-0.0265325335662441
-0.30043916374772267
0.006609101051052517
-0.0265325335662441
-0.30043916374772267
0.007461585905265031
-0.02566213346849952
-0.3001875554134331
0.007461585905265031
-0.02566213346849952
-0.3001875554134331
0.007461585905265031
-0.02566213346849952
-0.3001875554134331
0.007461585905265031
-0.02566213346849952
-0.3001875554134331
0.008675692965467934
-0.024739452308250347
-0.299837005115127
0.008675692965467934
-0.024739452308250347
-0.299837005115127
0.008675692965467934
-0.024739452308250347
-0.299837005115127
0.008675692965467934
-0.024739452308250347
-0.299837005115127
0.00915085357057491
-0.023802083300476215
-0.2998203675417958
0.00915085357057491
-0.023802083300476215
-0.2998203675417958
0.00915085357057491
-0.023802083300476215
-0.2998203675417958
0.00915085357057491
-0.023802083300476215
-0.2998203675417958
0.009522977985758378
-0.02300582322402388
-0.29970029843986257
0.009522977985758378
-0.02300582322402388
-0.29970029843986257
0.009522977985758378
-0.02300582322402388
-0.29970029843986257
0.009522977985758378
-0.02300582322402388
-0.29970029843986257
0.010049846987271923
-0.02243436638171133
-0.29934135583465904
0.010049846987271923
-0.02243436638171133
-0.29934135583465904
0.010049846987271923
-0.02243436638171133
-0.29934135583465904
0.010049846987271923
-0.02243436638171133
-0.29934135583465904
0.010839047314338447
-0.021945685294913996
-0.29922684534604543
0.010839047314338447
-0.021945685294913996
-0.29922684534604543
0.010839047314338447
-0.021945685294913996
-0.29922684534604543
0.010839047314338447
-0.021945685294913996
-0.29922684534604543
0.011684118220845042
-0.02181827486380417
-0.29923537440558473
0.011684118220845042
-0.02181827486380417
-0.29923537440558473
0.011684118220845042
-0.02181827486380417
-0.29923537440558473
0.011684118220845042
-0.02181827486380417
-0.29923537440558473
0.01250764767900341
-0.021570877115163138
-0.29898320121195604
0.01250764767900341
-0.021570877115163138
-0.29898320121195604
0.01250764767900341
-0.021570877115163138
-0.29898320121195604
0.01250764767900341
-0.021570877115163138
-0.29898320121195604
0.013108891767068793
-0.021481916183757797
-0.2987476722544492
0.013108891767068793
-0.021481916183757797
-0.2987476722544492
0.013108891767068793
-0.021481916183757797
-0.2987476722544492
0.013108891767068793
-0.021481916183757797
-0.2987476722544492
0.013127068846113305
-0.021602612108137124
-0.29874865980474397
0.013127068846113305
-0.021602612108137124
-0.29874865980474397
0.013127068846113305
-0.021602612108137124
-0.29874865980474397
0.013127068846113305
-0.021602612108137124
-0.29874865980474397
0.013638154463792856
-0.021776244624268217
-0.2980129044099573
0.013638154463792856
-0.021776244624268217
-0.2980129044099573
0.013638154463792856
-0.021776244624268217
-0.2980129044099573
0.013638154463792856
-0.021776244624268217
-0.2980129044099573
0.014564366929862016
-0.02225919314640793
-0.29716332517920485
0.014564366929862016
-0.02225919314640793
-0.29716332517920485
0.014564366929862016
-0.02225919314640793
-0.29716332517920485
0.014564366929862016
-0.02225919314640793
-0.29716332517920485
0.015526237463121999
-0.022984352383309488
-0.2963164746150075
0.015526237463121999
-0.022984352383309488
-0.2963164746150075
0.015526237463121999
-0.022984352383309488
-0.2963164746150075
0.015526237463121999
-0.022984352383309488
-0.2963164746150075
0.016413060668003212
-0.023229837428873825
-0.29522398992253795
0.016413060668003212
-0.023229837428873825
-0.29522398992253795
0.016413060668003212
-0.023229837428873825
-0.29522398992253795
0.016413060668003212
-0.023229837428873825
-0.29522398992253795
0.016594216925875944
-0.02370320442732911
-0.2942460489089487
0.016594216925875944
-0.02370320442732911
-0.2942460489089487
0.016594216925875944
-0.02370320442732911
-0.2942460489089487
0.016594216925875944
-0.02370320442732911
-0.2942460489089487
0.017101546744922667
-0.0238817327021264
-0.29326959356841276
0.017101546744922667
-0.0238817327021264
-0.29326959356841276
0.017101546744922667
-0.0238817327021264
-0.29326959356841276
0.017101546744922667
-0.0238817327021264
-0.29326959356841276
0.01799016259779651
-0.024126847298294497
-0.2924191755958747
0.01799016259779651
-0.024126847298294497
-0.2924191755958747
0.01799016259779651
-0.024126847298294497
-0.2924191755958747
0.01799016259779651
-0.024126847298294497
-0.2924191755958747
0.018206187586540135
-0.023975784137214618
-0.2917987407242245
0.018206187586540135
-0.023975784137214618
-0.2917987407242245
0.018206187586540135
-0.023975784137214618
-0.2917987407242245
0.018206187586540135
-0.023975784137214618
-0.2917987407242245
0.01789185182869275
-0.024396501470819842
-0.2913155825309106
0.01789185182869275
-0.024396501470819842
-0.2913155825309106
0.01789185182869275
-0.024396501470819842
-0.2913155825309106
0.01789185182869275
-0.024396501470819842
-0.2913155825309106
0.018059203547693546
-0.024744959415924576
-0.29081990632547106
0.018059203547693546
-0.024744959415924576
-0.29081990632547106
0.018059203547693546
-0.024744959415924576
-0.29081990632547106
0.018059203547693546
-0.024744959415924576
-0.29081990632547106
0.017986081556456448
-0.025130176026973157
-0.2903392727397022
0.017986081556456448
-0.025130176026973157
-0.2903392727397022
0.017986081556456448
-0.025130176026973157
-0.2903392727397022
0.017986081556456448
-0.025130176026973157
-0.2903392727397022
0.017510989715282137
-0.02532793753369189
-0.28959257650427467
0.017510989715282137
-0.02532793753369189
-0.28959257650427467
0.017510989715282137
-0.02532793753369189
-0.28959257650427467
0.017510989715282137
-0.02532793753369189
-0.28959257650427467
0.017001962591926226
-0.0252825290159326
-0.28896410972461184
0.017001962591926226
-0.0252825290159326
-0.28896410972461184
0.017001962591926226
-0.0252825290159326
-0.28896410972461184
0.017001962591926226
-0.0252825290159326
-0.28896410972461184
0.0166967937805614
-0.02496259260190988
-0.288094332298807
0.0166967937805614
-0.02496259260190988
-0.288094332298807
0.0166967937805614
-0.02496259260190988
-0.288094332298807
0.0166967937805614
-0.02496259260190988
-0.288094332298807
0.015787476898008735
-0.023865559265955565
-0.28733189710058965
0.015787476898008735
-0.023865559265955565
-0.28733189710058965
0.015787476898008735
-0.023865559265955565
-0.28733189710058965
0.015787476898008735
-0.023865559265955565
-0.28733189710058965
0.01321744984659142
-0.022391245043109305
-0.2862899981962628
0.01321744984659142
-0.022391245043109305
-0.2862899981962628
0.01321744984659142
-0.022391245043109305
-0.2862899981962628
0.01321744984659142
-0.022391245043109305
-0.2862899981962628
0.006981999756473919
-0.02119697190312147
-0.2844896149258474
0.006981999756473919
-0.02119697190312147
-0.2844896149258474
0.006981999756473919
-0.02119697190312147
-0.2844896149258474
0.006981999756473919
-0.02119697190312147
-0.2844896149258474
-0.005339089454506344
-0.02135382235846795
-0.28337455477407997
-0.005339089454506344
-0.02135382235846795
-0.28337455477407997
-0.005339089454506344
-0.02135382235846795
-0.28337455477407997
-0.005339089454506344
-0.02135382235846795
-0.28337455477407997
-0.024957415177719725
-0.023037500009472543
-0.28291957665277395
-0.024957415177719725
-0.023037500009472543
-0.28291957665277395
-0.024957415177719725
-0.023037500009472543
-0.28291957665277395
-0.024957415177719725
-0.023037500009472543
-0.28291957665277395
-0.050028527811745487
-0.025381882950832813
-0.28300361059276463
-0.050028527811745487
-0.025381882950832813
-0.28300361059276463
-0.050028527811745487
-0.025381882950832813
-0.28300361059276463
-0.050028527811745487
-0.025381882950832813
-0.28300361059276463
-0.07806770825290756
-0.027787856575825488
-0.28307166268526823
-0.07806770825290756
-0.027787856575825488
-0.28307166268526823
-0.07806770825290756
-0.027787856575825488
-0.28307166268526823
-0.07806770825290756
-0.027787856575825488
-0.28307166268526823
-0.10602917525642494
-0.029947733441687704
-0.28324217924914313
-0.10602917525642494
-0.029947733441687704
-0.28324217924914313
-0.10602917525642494
-0.029947733441687704
-0.28324217924914313
-0.10602917525642494
-0.029947733441687704
-0.28324217924914313
-0.1329930782175652
-0.030615412971517198
-0.2833989372158343
-0.1329930782175652
-0.030615412971517198
-0.2833989372158343
-0.1329930782175652
-0.030615412971517198
-0.2833989372158343
-0.1329930782175652
-0.030615412971517198
-0.2833989372158343
-0.15953110587234318
-0.029235695356250913
-0.28337951070946377
-0.15953110587234318
-0.029235695356250913
-0.28337951070946377
-0.15953110587234318
-0.029235695356250913
-0.28337951070946377
-0.15953110587234318
-0.029235695356250913
-0.28337951070946377
-0.18532123198197156
-0.02539817067915702
-0.28341037268256647
-0.18532123198197156
-0.02539817067915702
-0.28341037268256647
-0.18532123198197156
-0.02539817067915702
-0.28341037268256647
-0.18532123198197156
-0.02539817067915702
-0.28341037268256647
-0.21011643863291146
-0.019312912849996998
-0.2847086990722456
-0.21011643863291146
-0.019312912849996998
-0.2847086990722456
-0.21011643863291146
-0.019312912849996998
-0.2847086990722456
-0.21011643863291146
-0.019312912849996998
-0.2847086990722456
-0.2339983935462706
-0.012203823775650708
-0.28780037659750946
-0.2339983935462706
-0.012203823775650708
-0.28780037659750946
-0.2339983935462706
-0.012203823775650708
-0.28780037659750946
-0.2339983935462706
-0.012203823775650708
-0.28780037659750946
-0.25779153632936247
-0.004629503337371127
-0.29278551743700226
-0.25779153632936247
-0.004629503337371127
-0.29278551743700226
-0.25779153632936247
-0.004629503337371127
-0.29278551743700226
-0.25779153632936247
-0.004629503337371127
-0.29278551743700226
-0.28027895557927096
7.483295918125594E-5
-0.2985889908892284
-0.28027895557927096
7.483295918125594E-5
-0.2985889908892284
-0.28027895557927096
7.483295918125594E-5
-0.2985889908892284
-0.28027895557927096
7.483295918125594E-5
-0.2985889908892284
-0.30842912097978215
5.146797292928328E-4
-0.3046461002916042
-0.30842912097978215
5.146797292928328E-4
-0.3046461002916042
-0.30842912097978215
5.146797292928328E-4
-0.3046461002916042
-0.30842912097978215
5.146797292928328E-4
-0.3046461002916042
-0.34151983488627535
-0.0043408772889655025
-0.31130252218538224
-0.34151983488627535
-0.0043408772889655025
-0.31130252218538224
-0.34151983488627535
-0.0043408772889655025
-0.31130252218538224
-0.34151983488627535
-0.0043408772889655025
-0.31130252218538224
-0.37429832694892
-0.011181762345995072
-0.3188047744189779
-0.37429832694892
-0.011181762345995072
-0.3188047744189779
-0.37429832694892
-0.011181762345995072
-0.3188047744189779
-0.37429832694892
-0.011181762345995072
-0.3188047744189779
-0.4011586216722188
-0.017517512956666943
-0.32540461771950135
-0.4011586216722188
-0.017517512956666943
-0.32540461771950135
-0.4011586216722188
-0.017517512956666943
-0.32540461771950135
-0.4011586216722188
-0.017517512956666943
-0.32540461771950135
-0.4114606675381242
-0.022586136409209905
-0.33056566998873965
-0.4114606675381242
-0.022586136409209905
-0.33056566998873965
-0.4114606675381242
-0.022586136409209905
-0.33056566998873965
-0.4114606675381242
-0.022586136409209905
-0.33056566998873965
-0.41400456176792017
-0.027697070892727597
-0.33475473174426257
-0.41400456176792017
-0.027697070892727597
-0.33475473174426257
-0.41400456176792017
-0.027697070892727597
-0.33475473174426257
-0.41400456176792017
-0.027697070892727597
-0.33475473174426257
-0.41519557956006986
-0.03301427561559295
-0.3379669060975391
-0.41519557956006986
-0.03301427561559295
-0.3379669060975391
-0.41519557956006986
-0.03301427561559295
-0.3379669060975391
-0.41519557956006986
-0.03301427561559295
-0.3379669060975391
-0.416711376135109
-0.03783380408366032
-0.3391613740527801
-0.416711376135109
-0.03783380408366032
-0.3391613740527801
-0.416711376135109
-0.03783380408366032
-0.3391613740527801
-0.416711376135109
-0.03783380408366032
-0.3391613740527801
-0.41686324882203474
-0.04141426790231126
-0.33979598836770175
-0.41686324882203474
-0.04141426790231126
-0.33979598836770175
-0.41686324882203474
-0.04141426790231126
-0.33979598836770175
-0.41686324882203474
-0.04141426790231126
-0.33979598836770175
-0.41387163354099293
-0.04432715052869996
-0.341684592471889
-0.41387163354099293
-0.04432715052869996
-0.341684592471889
-0.41387163354099293
-0.04432715052869996
-0.341684592471889
-0.41387163354099293
-0.04432715052869996
-0.341684592471889
-0.4086292082279698
-0.04703686413081388
-0.34334526101158114
-0.4086292082279698
-0.04703686413081388
-0.34334526101158114
-0.4086292082279698
-0.04703686413081388
-0.34334526101158114
-0.4086292082279698
-0.04703686413081388
-0.34334526101158114
-0.402375488402256
-0.0488233713053392
-0.3439184664926725
-0.402375488402256
-0.0488233713053392
-0.3439184664926725
-0.402375488402256
-0.0488233713053392
-0.3439184664926725
-0.402375488402256
-0.0488233713053392
-0.3439184664926725
-0.3982106418072378
-0.04958368810942626
-0.3438619017604806
-0.3982106418072378
-0.04958368810942626
-0.3438619017604806
-0.3982106418072378
-0.04958368810942626
-0.3438619017604806
-0.3982106418072378
-0.04958368810942626
-0.3438619017604806
-0.39868436407455604
-0.049711231891815165
-0.34345601626810285
-0.39868436407455604
-0.049711231891815165
-0.34345601626810285
-0.39868436407455604
-0.049711231891815165
-0.34345601626810285
-0.39868436407455604
-0.049711231891815165
-0.34345601626810285
-0.40315578945954594
-0.049511930770654584
-0.34292097052986276
-0.40315578945954594
-0.049511930770654584
-0.34292097052986276
-0.40315578945954594
-0.049511930770654584
-0.34292097052986276
-0.40315578945954594
-0.049511930770654584
-0.34292097052986276
-0.4076699203503001
-0.048925691775172274
-0.34232061306962897
-0.4076699203503001
-0.048925691775172274
-0.34232061306962897
-0.4076699203503001
-0.048925691775172274
-0.34232061306962897
-0.4076699203503001
-0.048925691775172274
-0.34232061306962897
-0.40855231142588383
-0.04737294637578736
-0.3420061486104896
-0.40855231142588383
-0.04737294637578736
-0.3420061486104896
-0.40855231142588383
-0.04737294637578736
-0.3420061486104896
-0.40855231142588383
-0.04737294637578736
-0.3420061486104896
-0.4051304748371579
-0.04510367867303514
-0.34191339379784147
-0.4051304748371579
-0.04510367867303514
-0.34191339379784147
-0.4051304748371579
-0.04510367867303514
-0.34191339379784147
-0.4051304748371579
-0.04510367867303514
-0.34191339379784147
-0.40137456271972843
-0.04265737263416923
-0.3418564422727706
-0.40137456271972843
-0.04265737263416923
-0.3418564422727706
-0.40137456271972843
-0.04265737263416923
-0.3418564422727706
-0.40137456271972843
-0.04265737263416923
-0.3418564422727706
-0.3996470397541615
-0.04002323023361591
-0.3415839659050035
-0.3996470397541615
-0.04002323023361591
-0.3415839659050035
-0.3996470397541615
-0.04002323023361591
-0.3415839659050035
-0.3996470397541615
-0.04002323023361591
-0.3415839659050035
-0.39958276132899023
-0.037360632824648646
-0.3409773491123439
-0.39958276132899023
-0.037360632824648646
-0.3409773491123439
-0.39958276132899023
-0.037360632824648646
-0.3409773491123439
-0.39958276132899023
-0.037360632824648646
-0.3409773491123439
-0.40069811653012916
-0.034487916721101526
-0.3401896149099998
-0.40069811653012916
-0.034487916721101526
-0.3401896149099998
-0.40069811653012916
-0.034487916721101526
-0.3401896149099998
-0.40069811653012916
-0.034487916721101526
-0.3401896149099998
-0.4020363519390965
-0.030872966214070156
-0.3392855826615995
-0.4020363519390965
-0.030872966214070156
-0.3392855826615995
-0.4020363519390965
-0.030872966214070156
-0.3392855826615995
-0.4020363519390965
-0.030872966214070156
-0.3392855826615995
-0.4029700574750508
-0.026776388578006065
-0.33824490716530475
-0.4029700574750508
-0.026776388578006065
-0.33824490716530475
-0.4029700574750508
-0.026776388578006065
-0.33824490716530475
-0.4029700574750508
-0.026776388578006065
-0.33824490716530475
-0.4024716201201828
-0.02207091226937114
-0.3372853758427922
-0.4024716201201828
-0.02207091226937114
-0.3372853758427922
-0.4024716201201828
-0.02207091226937114
-0.3372853758427922
-0.4024716201201828
-0.02207091226937114
-0.3372853758427922
-0.4003589911913938
-0.017139884446381308
-0.335952561178554
-0.4003589911913938
-0.017139884446381308
-0.335952561178554
-0.4003589911913938
-0.017139884446381308
-0.335952561178554
-0.4003589911913938
-0.017139884446381308
-0.335952561178554
-0.39740985894520425
-0.011827596367591434
-0.33403651995691136
-0.39740985894520425
-0.011827596367591434
-0.33403651995691136
-0.39740985894520425
-0.011827596367591434
-0.33403651995691136
-0.39740985894520425
-0.011827596367591434
-0.33403651995691136
-0.3948747029586487
-0.006907227805097878
-0.33116686404821183
-0.3948747029586487
-0.006907227805097878
-0.33116686404821183
-0.3948747029586487
-0.006907227805097878
-0.33116686404821183
-0.3948747029586487
-0.006907227805097878
-0.33116686404821183
-0.39176001052525633
-0.00204742732464076
-0.32710865924847804
-0.39176001052525633
-0.00204742732464076
-0.32710865924847804
-0.39176001052525633
-0.00204742732464076
-0.32710865924847804
-0.39176001052525633
-0.00204742732464076
-0.32710865924847804
-0.3840853853565678
0.00382202980876504
-0.32157527530018304
-0.3840853853565678
0.00382202980876504
-0.32157527530018304
-0.3840853853565678
0.00382202980876504
-0.32157527530018304
-0.3840853853565678
0.00382202980876504
-0.32157527530018304
-0.36971090608750123
0.010270758390230087
-0.31566016420829035
-0.36971090608750123
0.010270758390230087
-0.31566016420829035
-0.36971090608750123
0.010270758390230087
-0.31566016420829035
-0.36971090608750123
0.010270758390230087
-0.31566016420829035
-0.35008578023613424
0.015371541421599653
-0.3099869558420983
-0.35008578023613424
0.015371541421599653
-0.3099869558420983
-0.35008578023613424
0.015371541421599653
-0.3099869558420983
-0.35008578023613424
0.015371541421599653
-0.3099869558420983
-0.3227742442519269
0.01864198556853241
-0.3058418960299676
-0.3227742442519269
0.01864198556853241
-0.3058418960299676
-0.3227742442519269
0.01864198556853241
-0.3058418960299676
-0.3227742442519269
0.01864198556853241
-0.3058418960299676
-0.28626155310379325
0.019671431069396932
-0.30354835664370405
-0.28626155310379325
0.019671431069396932
-0.30354835664370405
-0.28626155310379325
0.019671431069396932
-0.30354835664370405
-0.28626155310379325
0.019671431069396932
-0.30354835664370405
-0.24239144475915153
0.01948479124877084
-0.3034550155617849
-0.24239144475915153
0.01948479124877084
-0.3034550155617849
-0.24239144475915153
0.01948479124877084
-0.3034550155617849
-0.24239144475915153
0.01948479124877084
-0.3034550155617849
-0.19250484084301658
0.020952814455586045
-0.3062494245360143
-0.19250484084301658
0.020952814455586045
-0.3062494245360143
-0.19250484084301658
0.020952814455586045
-0.3062494245360143
-0.19250484084301658
0.020952814455586045
-0.3062494245360143
-0.14142507642230154
0.02619257656886978
-0.3079076802965845
-0.14142507642230154
0.02619257656886978
-0.3079076802965845
-0.14142507642230154
0.02619257656886978
-0.3079076802965845
-0.14142507642230154
0.02619257656886978
-0.3079076802965845
-0.09326499664264266
0.032573450235320975
-0.3065401079282168
-0.09326499664264266
0.032573450235320975
-0.3065401079282168
-0.09326499664264266
0.032573450235320975
-0.3065401079282168
-0.09326499664264266
0.032573450235320975
-0.3065401079282168
-0.05169719286538179
0.03418753529552187
-0.30479917996085554
-0.05169719286538179
0.03418753529552187
-0.30479917996085554
-0.05169719286538179
0.03418753529552187
-0.30479917996085554
-0.05169719286538179
0.03418753529552187
-0.30479917996085554
-0.023279129430433275
0.03328922539734213
-0.2985477646501978
-0.023279129430433275
0.03328922539734213
-0.2985477646501978
-0.023279129430433275
0.03328922539734213
-0.2985477646501978
-0.023279129430433275
0.03328922539734213
-0.2985477646501978
-0.009876154154156307
0.024845667848238186
-0.28664461100900973
-0.009876154154156307
0.024845667848238186
-0.28664461100900973
-0.009876154154156307
0.024845667848238186
-0.28664461100900973
-0.009876154154156307
0.024845667848238186
-0.28664461100900973
-0.0012362666437222062
0.013384690563807797
-0.2750496657291746
-0.0012362666437222062
0.013384690563807797
-0.2750496657291746
-0.0012362666437222062
0.013384690563807797
-0.2750496657291746
-0.0012362666437222062
0.013384690563807797
-0.2750496657291746
0.01823299674223372
0.00550088963792782
-0.26414943711046635
0.01823299674223372
0.00550088963792782
-0.26414943711046635
0.01823299674223372
0.00550088963792782
-0.26414943711046635
0.01823299674223372
0.00550088963792782
-0.26414943711046635
0.04235096612766018
-1.479403871495664E-4
-0.2531653667867016
0.04235096612766018
-1.479403871495664E-4
-0.2531653667867016
0.04235096612766018
-1.479403871495664E-4
-0.2531653667867016
0.04235096612766018
-1.479403871495664E-4
-0.2531653667867016
0.060935967961871215
-0.00640894070248614
-0.24467923585652546
0.060935967961871215
-0.00640894070248614
-0.24467923585652546
0.060935967961871215
-0.00640894070248614
-0.24467923585652546
0.060935967961871215
-0.00640894070248614
-0.24467923585652546
0.07101734212363894
-0.014842760480116105
-0.2390406947231821
0.07101734212363894
-0.014842760480116105
-0.2390406947231821
0.07101734212363894
-0.014842760480116105
-0.2390406947231821
0.07101734212363894
-0.014842760480116105
-0.2390406947231821
0.07280887281085627
-0.022010547202755342
-0.2355115676308742
0.07280887281085627
-0.022010547202755342
-0.2355115676308742
0.07280887281085627
-0.022010547202755342
-0.2355115676308742
0.07280887281085627
-0.022010547202755342
-0.2355115676308742
0.07216237479385364
-0.025255488230191924
-0.23278849024284703
0.07216237479385364
-0.025255488230191924
-0.23278849024284703
0.07216237479385364
-0.025255488230191924
-0.23278849024284703
0.07216237479385364
-0.025255488230191924
-0.23278849024284703
0.0710103306590065
-0.02716076228601371
-0.23137144982405053
0.0710103306590065
-0.02716076228601371
-0.23137144982405053
0.0710103306590065
-0.02716076228601371
-0.23137144982405053
0.0710103306590065
-0.02716076228601371
-0.23137144982405053
0.06613771432087412
-0.02745325750413738
-0.2321501632485803
0.06613771432087412
-0.02745325750413738
-0.2321501632485803
0.06613771432087412
-0.02745325750413738
-0.2321501632485803
0.06613771432087412
-0.02745325750413738
-0.2321501632485803
0.06100231944204874
-0.027525216947798928
-0.23329497548434208
0.06100231944204874
-0.027525216947798928
-0.23329497548434208
0.06100231944204874
-0.027525216947798928
-0.23329497548434208
0.06100231944204874
-0.027525216947798928
-0.23329497548434208
0.05870687833211229
-0.027773404289860675
-0.23399847034644022
0.05870687833211229
-0.027773404289860675
-0.23399847034644022
0.05870687833211229
-0.027773404289860675
-0.23399847034644022
0.05870687833211229
-0.027773404289860675
-0.23399847034644022
0.05733447733160768
-0.027556088445817487
-0.2343370528479507
0.05733447733160768
-0.027556088445817487
-0.2343370528479507
0.05733447733160768
-0.027556088445817487
-0.2343370528479507
0.05733447733160768
-0.027556088445817487
-0.2343370528479507
0.054817537938092166
-0.026972994104758213
-0.2350140906649892
0.054817537938092166
-0.026972994104758213
-0.2350140906649892
0.054817537938092166
-0.026972994104758213
-0.2350140906649892
0.054817537938092166
-0.026972994104758213
-0.2350140906649892
0.05088290789341203
-0.026794731377962407
-0.23618354704869704
0.05088290789341203
-0.026794731377962407
-0.23618354704869704
0.05088290789341203
-0.026794731377962407
-0.23618354704869704
0.05088290789341203
-0.026794731377962407
-0.23618354704869704
0.049280446799733035
-0.02770445678845172
-0.2369120996478628
0.049280446799733035
-0.02770445678845172
-0.2369120996478628
0.049280446799733035
-0.02770445678845172
-0.2369120996478628
0.049280446799733035
-0.02770445678845172
-0.2369120996478628
0.05148751059083591
-0.028674781442357845
-0.23686080339269341
0.05148751059083591
-0.028674781442357845
-0.23686080339269341
0.05148751059083591
-0.028674781442357845
-0.23686080339269341
0.05148751059083591
-0.028674781442357845
-0.23686080339269341
0.05391639976055456
-0.029500761375654893
-0.23655410601608992
0.05391639976055456
-0.029500761375654893
-0.23655410601608992
0.05391639976055456
-0.029500761375654893
-0.23655410601608992
0.05391639976055456
-0.029500761375654893
-0.23655410601608992
0.055906423510466235
-0.02977220460511097
-0.23598466554110115
0.055906423510466235
-0.02977220460511097
-0.23598466554110115
0.055906423510466235
-0.02977220460511097
-0.23598466554110115
0.055906423510466235
-0.02977220460511097
-0.23598466554110115
0.05669209560745852
-0.03031561333872529
-0.23514846102238068
0.05669209560745852
-0.03031561333872529
-0.23514846102238068
0.05669209560745852
-0.03031561333872529
-0.23514846102238068
0.05669209560745852
-0.03031561333872529
-0.23514846102238068
0.056121837673536366
-0.030768998875772537
-0.23454606084060842
0.056121837673536366
-0.030768998875772537
-0.23454606084060842
0.056121837673536366
-0.030768998875772537
-0.23454606084060842
0.056121837673536366
-0.030768998875772537
-0.23454606084060842
0.05555034332053026
-0.031068613275657506
-0.23503077256876823
0.05555034332053026
-0.031068613275657506
-0.23503077256876823
0.05555034332053026
-0.031068613275657506
-0.23503077256876823
0.05555034332053026
-0.031068613275657506
-0.23503077256876823
0.055404817164404006
-0.030829919204125096
-0.23538576525275764
0.055404817164404006
-0.030829919204125096
-0.23538576525275764
0.055404817164404006
-0.030829919204125096
-0.23538576525275764
0.055404817164404006
-0.030829919204125096
-0.23538576525275764
0.054956318330152236
-0.030142570462101188
-0.23548123647371078
0.054956318330152236
-0.030142570462101188
-0.23548123647371078
0.054956318330152236
-0.030142570462101188
-0.23548123647371078
0.054956318330152236
-0.030142570462101188
-0.23548123647371078
0.05306029070929877
-0.0296107500576326
-0.2361662067867044
0.05306029070929877
-0.0296107500576326
-0.2361662067867044
0.05306029070929877
-0.0296107500576326
-0.2361662067867044
0.05306029070929877
-0.0296107500576326
-0.2361662067867044
0.051709999595364105
-0.02950840509857746
-0.23688555834955266
0.051709999595364105
-0.02950840509857746
-0.23688555834955266
0.051709999595364105
-0.02950840509857746
-0.23688555834955266
0.051709999595364105
-0.02950840509857746
-0.23688555834955266
0.050744619157896145
-0.029614249383841804
-0.2372378004524022
0.050744619157896145
-0.029614249383841804
-0.2372378004524022
0.050744619157896145
-0.029614249383841804
-0.2372378004524022
0.050744619157896145
-0.029614249383841804
-0.2372378004524022
0.050082038900867036
-0.029198810072818243
-0.23733884139317393
0.050082038900867036
-0.029198810072818243
-0.23733884139317393
0.050082038900867036
-0.029198810072818243
-0.23733884139317393
0.050082038900867036
-0.029198810072818243
-0.23733884139317393
0.05049873896303541
-0.028671203049524634
-0.23671087684305184
0.05049873896303541
-0.028671203049524634
-0.23671087684305184
0.05049873896303541
-0.028671203049524634
-0.23671087684305184
0.05049873896303541
-0.028671203049524634
-0.23671087684305184
0.05067392143900971
-0.028180598610036436
-0.2358520437335327
0.05067392143900971
-0.028180598610036436
-0.2358520437335327
0.05067392143900971
-0.028180598610036436
-0.2358520437335327
0.05067392143900971
-0.028180598610036436
-0.2358520437335327
0.049681163087598255
-0.02818611931070893
-0.2353387580677525
0.049681163087598255
-0.02818611931070893
-0.2353387580677525
0.049681163087598255
-0.02818611931070893
-0.2353387580677525
0.049681163087598255
-0.02818611931070893
-0.2353387580677525
0.04799394502493565
-0.028510151097036404
-0.23518717764450606
0.04799394502493565
-0.028510151097036404
-0.23518717764450606
0.04799394502493565
-0.028510151097036404
-0.23518717764450606
0.04799394502493565
-0.028510151097036404
-0.23518717764450606
0.047858364296708054
-0.02840333834190466
-0.23518268674281392
0.047858364296708054
-0.02840333834190466
-0.23518268674281392
0.047858364296708054
-0.02840333834190466
-0.23518268674281392
0.047858364296708054
-0.02840333834190466
-0.23518268674281392
0.04874580762900971
-0.028675818735084194
-0.23483811451360287
0.04874580762900971
-0.028675818735084194
-0.23483811451360287
0.04874580762900971
-0.028675818735084194
-0.23483811451360287
0.04874580762900971
-0.028675818735084194
-0.23483811451360287
0.048288192535428764
-0.028978642430239312
-0.23471758403733659
0.048288192535428764
-0.028978642430239312
-0.23471758403733659
0.048288192535428764
-0.028978642430239312
-0.23471758403733659
0.048288192535428764
-0.028978642430239312
-0.23471758403733659
0.047646851423564264
-0.02979166809085961
-0.2347276623450473
0.047646851423564264
-0.02979166809085961
-0.2347276623450473
0.047646851423564264
-0.02979166809085961
-0.2347276623450473
0.047646851423564264
-0.02979166809085961
-0.2347276623450473
0.04662898418829648
-0.030523478276960284
-0.23485083883588997
0.04662898418829648
-0.030523478276960284
-0.23485083883588997
0.04662898418829648
-0.030523478276960284
-0.23485083883588997
0.04662898418829648
-0.030523478276960284
-0.23485083883588997
0.04592874099031628
-0.03085486157739335
-0.23472647922725
0.04592874099031628
-0.03085486157739335
-0.23472647922725
0.04592874099031628
-0.03085486157739335
-0.23472647922725
0.04592874099031628
-0.03085486157739335
-0.23472647922725
0.04458235158997181
-0.03088838940280498
-0.23482772255324189
0.04458235158997181
-0.03088838940280498
-0.23482772255324189
0.04458235158997181
-0.03088838940280498
-0.23482772255324189
0.04458235158997181
-0.03088838940280498
-0.23482772255324189
0.04381189661970939
-0.030610858474669267
-0.23480973475081982
0.04381189661970939
-0.030610858474669267
-0.23480973475081982
0.04381189661970939
-0.030610858474669267
-0.23480973475081982
0.04381189661970939
-0.030610858474669267
-0.23480973475081982
0.04306264745633397
-0.030582616934895827
-0.23441956897037747
0.04306264745633397
-0.030582616934895827
-0.23441956897037747
0.04306264745633397
-0.030582616934895827
-0.23441956897037747
0.04306264745633397
-0.030582616934895827
-0.23441956897037747
0.04254597843817388
-0.03040307709069379
-0.23416528725862756
0.04254597843817388
-0.03040307709069379
-0.23416528725862756
0.04254597843817388
-0.03040307709069379
-0.23416528725862756
0.04254597843817388
-0.03040307709069379
-0.23416528725862756
0.04226293341610373
-0.030204418220239684
-0.23341489215273648
0.04226293341610373
-0.030204418220239684
-0.23341489215273648
0.04226293341610373
-0.030204418220239684
-0.23341489215273648
0.04226293341610373
-0.030204418220239684
-0.23341489215273648
0.04295004248969374
-0.02989193422403388
-0.23267669764992982
0.04295004248969374
-0.02989193422403388
-0.23267669764992982
0.04295004248969374
-0.02989193422403388
-0.23267669764992982
0.04295004248969374
-0.02989193422403388
-0.23267669764992982
0.042821241070143824
-0.029920173260001424
-0.23206892542175178
0.042821241070143824
-0.029920173260001424
-0.23206892542175178
0.042821241070143824
-0.029920173260001424
-0.23206892542175178
0.042821241070143824
-0.029920173260001424
-0.23206892542175178
0.041494219659734655
-0.030203849637192824
-0.23167698345071572
0.041494219659734655
-0.030203849637192824
-0.23167698345071572
0.041494219659734655
-0.030203849637192824
-0.23167698345071572
0.041494219659734655
-0.030203849637192824
-0.23167698345071572
0.04102022239901966
-0.030387021180252147
-0.23143099174538923
0.04102022239901966
-0.030387021180252147
-0.23143099174538923
0.04102022239901966
-0.030387021180252147
-0.23143099174538923
0.04102022239901966
-0.030387021180252147
-0.23143099174538923
0.04177762665091024
-0.030541921437027508
-0.2315670369994985
0.04177762665091024
-0.030541921437027508
-0.2315670369994985
0.04177762665091024
-0.030541921437027508
-0.2315670369994985
0.04177762665091024
-0.030541921437027508
-0.2315670369994985
0.04227009371569223
-0.030478595986213008
-0.23195118727155942
0.04227009371569223
-0.030478595986213008
-0.23195118727155942
0.04227009371569223
-0.030478595986213008
-0.23195118727155942
0.04227009371569223
-0.030478595986213008
-0.23195118727155942
0.042465804796190075
-0.030087925103291047
-0.23181049298448012
0.042465804796190075
-0.030087925103291047
-0.23181049298448012
0.042465804796190075
-0.030087925103291047
-0.23181049298448012
0.042465804796190075
-0.030087925103291047
-0.23181049298448012
0.042162174466775205
-0.029639716192556825
-0.23143259096284705
0.042162174466775205
-0.029639716192556825
-0.23143259096284705
0.042162174466775205
-0.029639716192556825
-0.23143259096284705
0.042162174466775205
-0.029639716192556825
-0.23143259096284705
0.04117768437519805
-0.028657056743540188
-0.23089852733527208
0.04117768437519805
-0.028657056743540188
-0.23089852733527208
0.04117768437519805
-0.028657056743540188
-0.23089852733527208
0.04117768437519805
-0.028657056743540188
-0.23089852733527208
0.040477077158306944
-0.028012077865223833
-0.23025493555031304
0.040477077158306944
-0.028012077865223833
-0.23025493555031304
0.040477077158306944
-0.028012077865223833
-0.23025493555031304
0.040477077158306944
-0.028012077865223833
-0.23025493555031304
0.04027724437660962
-0.027435852174708987
-0.22951271733854597
0.04027724437660962
-0.027435852174708987
-0.22951271733854597
0.04027724437660962
-0.027435852174708987
-0.22951271733854597
0.04027724437660962
-0.027435852174708987
-0.22951271733854597
0.03983130148775549
-0.026888596155839894
-0.22863260972193847
0.03983130148775549
-0.026888596155839894
-0.22863260972193847
0.03983130148775549
-0.026888596155839894
-0.22863260972193847
0.03983130148775549
-0.026888596155839894
-0.22863260972193847
0.038111445754639
-0.02697130481327563
-0.22811192946466002
0.038111445754639
-0.02697130481327563
-0.22811192946466002
0.038111445754639
-0.02697130481327563
-0.22811192946466002
0.038111445754639
-0.02697130481327563
-0.22811192946466002
0.03715371442610209
-0.027206339167998295
-0.2279820643840237
0.03715371442610209
-0.027206339167998295
-0.2279820643840237
0.03715371442610209
-0.027206339167998295
-0.2279820643840237
0.03715371442610209
-0.027206339167998295
-0.2279820643840237
0.037642838526238336
-0.028255755643376658
-0.2280084783967465
0.037642838526238336
-0.028255755643376658
-0.2280084783967465
0.037642838526238336
-0.028255755643376658
-0.2280084783967465
0.037642838526238336
-0.028255755643376658
-0.2280084783967465
0.03840393749959944
-0.029517232955484612
-0.2281647781864942
0.03840393749959944
-0.029517232955484612
-0.2281647781864942
0.03840393749959944
-0.029517232955484612
-0.2281647781864942
0.03840393749959944
-0.029517232955484612
-0.2281647781864942
0.03911047360728964
-0.030297773719230252
-0.22820434515303134
0.03911047360728964
-0.030297773719230252
-0.22820434515303134
0.03911047360728964
-0.030297773719230252
-0.22820434515303134
0.03911047360728964
-0.030297773719230252
-0.22820434515303134
0.03880889030080124
-0.030951838397597818
-0.22783466514236733
0.03880889030080124
-0.030951838397597818
-0.22783466514236733
0.03880889030080124
-0.030951838397597818
-0.22783466514236733
0.03880889030080124
-0.030951838397597818
-0.22783466514236733
0.03802610241730019
-0.03166040630422715
-0.22759338735464368
0.03802610241730019
-0.03166040630422715
-0.22759338735464368
0.03802610241730019
-0.03166040630422715
-0.22759338735464368
0.03802610241730019
-0.03166040630422715
-0.22759338735464368
0.03763478520879401
-0.032569648667475797
-0.2273616643306094
0.03763478520879401
-0.032569648667475797
-0.2273616643306094
0.03763478520879401
-0.032569648667475797
-0.2273616643306094
0.03763478520879401
-0.032569648667475797
-0.2273616643306094
0.038563742406809896
-0.03320503734120248
-0.22714640701210184
0.038563742406809896
-0.03320503734120248
-0.22714640701210184
0.038563742406809896
-0.03320503734120248
-0.22714640701210184
0.038563742406809896
-0.03320503734120248
-0.22714640701210184
0.03897962206752397
-0.033653571736340884
-0.22691940522946125
0.03897962206752397
-0.033653571736340884
-0.22691940522946125
0.03897962206752397
-0.033653571736340884
-0.22691940522946125
0.03897962206752397
-0.033653571736340884
-0.22691940522946125
0.03827513693517108
-0.03397994289786593
-0.22677868699031933
0.03827513693517108
-0.03397994289786593
-0.22677868699031933
0.03827513693517108
-0.03397994289786593
-0.22677868699031933
0.03827513693517108
-0.03397994289786593
-0.22677868699031933
0.03743621250348949
-0.03420310840943847
-0.22652595558377142
0.03743621250348949
-0.03420310840943847
-0.22652595558377142
0.03743621250348949
-0.03420310840943847
-0.22652595558377142
0.03743621250348949
-0.03420310840943847
-0.22652595558377142
0.03705662544481102
-0.03412583958916959
-0.2263967011416622
0.03705662544481102
-0.03412583958916959
-0.2263967011416622
0.03705662544481102
-0.03412583958916959
-0.2263967011416622
0.03705662544481102
-0.03412583958916959
-0.2263967011416622
0.036635575935695094
-0.03368478137025871
-0.22626010177992906
0.036635575935695094
-0.03368478137025871
-0.22626010177992906
0.036635575935695094
-0.03368478137025871
-0.22626010177992906
0.036635575935695094
-0.03368478137025871
-0.22626010177992906
0.03518117412535379
-0.03287439791133185
-0.22572228379208015
0.03518117412535379
-0.03287439791133185
-0.22572228379208015
0.03518117412535379
-0.03287439791133185
-0.22572228379208015
0.03518117412535379
-0.03287439791133185
-0.22572228379208015
0.03194292868994668
-0.031532395429632064
-0.22490591526306136
0.03194292868994668
-0.031532395429632064
-0.22490591526306136
0.03194292868994668
-0.031532395429632064
-0.22490591526306136
0.03194292868994668
-0.031532395429632064
-0.22490591526306136
0.02542632413585752
-0.03055687374477276
-0.223914133482552
0.02542632413585752
-0.03055687374477276
-0.223914133482552
0.02542632413585752
-0.03055687374477276
-0.223914133482552
0.02542632413585752
-0.03055687374477276
-0.223914133482552
0.013322200158580367
-0.031054227904170045
-0.22408282589411763
0.013322200158580367
-0.031054227904170045
-0.22408282589411763
0.013322200158580367
-0.031054227904170045
-0.22408282589411763
0.013322200158580367
-0.031054227904170045
-0.22408282589411763
-0.005172368405455619
-0.03240545601510903
-0.2257605097813719
-0.005172368405455619
-0.03240545601510903
-0.2257605097813719
-0.005172368405455619
-0.03240545601510903
-0.2257605097813719
-0.005172368405455619
-0.03240545601510903
-0.2257605097813719
-0.02800215149697257
-0.0343135099792082
-0.22919340207260352
-0.02800215149697257
-0.0343135099792082
-0.22919340207260352
-0.02800215149697257
-0.0343135099792082
-0.22919340207260352
-0.02800215149697257
-0.0343135099792082
-0.22919340207260352
-0.05146742281655941
-0.03603337350223051
-0.23336125970756083
-0.05146742281655941
-0.03603337350223051
-0.23336125970756083
-0.05146742281655941
-0.03603337350223051
-0.23336125970756083
-0.05146742281655941
-0.03603337350223051
-0.23336125970756083
-0.07194593065661678
-0.03811804275049216
-0.2376702491441615
-0.07194593065661678
-0.03811804275049216
-0.2376702491441615
-0.07194593065661678
-0.03811804275049216
-0.2376702491441615
-0.07194593065661678
-0.03811804275049216
-0.2376702491441615
-0.09007051742388177
-0.03956486011102207
-0.24042365680325647
-0.09007051742388177
-0.03956486011102207
-0.24042365680325647
-0.09007051742388177
-0.03956486011102207
-0.24042365680325647
-0.09007051742388177
-0.03956486011102207
-0.24042365680325647
-0.10853982218121344
-0.03942785819275177
-0.24177556401695488
-0.10853982218121344
-0.03942785819275177
-0.24177556401695488
-0.10853982218121344
-0.03942785819275177
-0.24177556401695488
-0.10853982218121344
-0.03942785819275177
-0.24177556401695488
-0.12951348290762735
-0.037205223506772384
-0.2419113578416127
-0.12951348290762735
-0.037205223506772384
-0.2419113578416127
-0.12951348290762735
-0.037205223506772384
-0.2419113578416127
-0.12951348290762735
-0.037205223506772384
-0.2419113578416127
-0.15287857576330205
-0.03362614206603808
-0.2414416122067184
-0.15287857576330205
-0.03362614206603808
-0.2414416122067184
-0.15287857576330205
-0.03362614206603808
-0.2414416122067184
-0.15287857576330205
-0.03362614206603808
-0.2414416122067184
-0.17503931095680897
-0.029999399775045087
-0.24086374762032106
-0.17503931095680897
-0.029999399775045087
-0.24086374762032106
-0.17503931095680897
-0.029999399775045087
-0.24086374762032106
-0.17503931095680897
-0.029999399775045087
-0.24086374762032106
-0.19600113937486235
-0.02614610050949693
-0.24090543903055983
-0.19600113937486235
-0.02614610050949693
-0.24090543903055983
-0.19600113937486235
-0.02614610050949693
-0.24090543903055983
-0.19600113937486235
-0.02614610050949693
-0.24090543903055983
-0.2154184878211468
-0.02099674778542023
-0.24219048520543524
-0.2154184878211468
-0.02099674778542023
-0.24219048520543524
-0.2154184878211468
-0.02099674778542023
-0.24219048520543524
-0.2154184878211468
-0.02099674778542023
-0.24219048520543524
-0.23501630057725467
-0.015690284623494713
-0.24498238234533662
-0.23501630057725467
-0.015690284623494713
-0.24498238234533662
-0.23501630057725467
-0.015690284623494713
-0.24498238234533662
-0.23501630057725467
-0.015690284623494713
-0.24498238234533662
-0.2526063985257598
-0.01203832186212947
-0.2487992185987645
-0.2526063985257598
-0.01203832186212947
-0.2487992185987645
-0.2526063985257598
-0.01203832186212947
-0.2487992185987645
-0.2526063985257598
-0.01203832186212947
-0.2487992185987645
-0.27300242597696583
-0.011066550485290504
-0.2537309424012315
-0.27300242597696583
-0.011066550485290504
-0.2537309424012315
-0.27300242597696583
-0.011066550485290504
-0.2537309424012315
-0.27300242597696583
-0.011066550485290504
-0.2537309424012315
-0.29661494413143397
-0.012777178227830976
-0.2590179972003551
-0.29661494413143397
-0.012777178227830976
-0.2590179972003551
-0.29661494413143397
-0.012777178227830976
-0.2590179972003551
-0.29661494413143397
-0.012777178227830976
-0.2590179972003551
-0.32101812337203406
-0.017249342002164842
-0.2644921591346695
-0.32101812337203406
-0.017249342002164842
-0.2644921591346695
-0.32101812337203406
-0.017249342002164842
-0.2644921591346695
-0.32101812337203406
-0.017249342002164842
-0.2644921591346695
-0.34310726932669916
-0.023509161345842265
-0.2697162486730915
-0.34310726932669916
-0.023509161345842265
-0.2697162486730915
-0.34310726932669916
-0.023509161345842265
-0.2697162486730915
-0.34310726932669916
-0.023509161345842265
-0.2697162486730915
-0.3604305105681529
-0.03110564203279041
-0.2742128561439587
-0.3604305105681529
-0.03110564203279041
-0.2742128561439587
-0.3604305105681529
-0.03110564203279041
-0.2742128561439587
-0.3604305105681529
-0.03110564203279041
-0.2742128561439587
-0.37222298284143107
-0.038659996892422444
-0.27881554079026977
-0.37222298284143107
-0.038659996892422444
-0.27881554079026977
-0.37222298284143107
-0.038659996892422444
-0.27881554079026977
-0.37222298284143107
-0.038659996892422444
-0.27881554079026977
-0.3796310982220883
-0.046161341987496045
-0.28285379626341806
-0.3796310982220883
-0.046161341987496045
-0.28285379626341806
-0.3796310982220883
-0.046161341987496045
-0.28285379626341806
-0.3796310982220883
-0.046161341987496045
-0.28285379626341806
-0.3848013766919223
-0.05342525325409039
-0.28589333181045123
-0.3848013766919223
-0.05342525325409039
-0.28589333181045123
-0.3848013766919223
-0.05342525325409039
-0.28589333181045123
-0.3848013766919223
-0.05342525325409039
-0.28589333181045123
-0.3879164898044271
-0.05987397057696829
-0.2881694392224176
-0.3879164898044271
-0.05987397057696829
-0.2881694392224176
-0.3879164898044271
-0.05987397057696829
-0.2881694392224176
-0.3879164898044271
-0.05987397057696829
-0.2881694392224176
-0.3917071663073606
-0.06527113172748229
-0.28964667186862486
-0.3917071663073606
-0.06527113172748229
-0.28964667186862486
-0.3917071663073606
-0.06527113172748229
-0.28964667186862486
-0.3917071663073606
-0.06527113172748229
-0.28964667186862486
-0.39509965450881557
-0.06971275680470145
-0.2903924833383403
-0.39509965450881557
-0.06971275680470145
-0.2903924833383403
-0.39509965450881557
-0.06971275680470145
-0.2903924833383403
-0.39509965450881557
-0.06971275680470145
-0.2903924833383403
-0.39611010713049655
-0.07332476744723068
-0.290690734992939
-0.39611010713049655
-0.07332476744723068
-0.290690734992939
-0.39611010713049655
-0.07332476744723068
-0.290690734992939
-0.39611010713049655
-0.07332476744723068
-0.290690734992939
-0.39384596911328323
-0.07609359567032205
-0.29055539807900366
-0.39384596911328323
-0.07609359567032205
-0.29055539807900366
-0.39384596911328323
-0.07609359567032205
-0.29055539807900366
-0.39384596911328323
-0.07609359567032205
-0.29055539807900366
-0.3896947919629711
-0.07783425988748084
-0.2905079738267752
-0.3896947919629711
-0.07783425988748084
-0.2905079738267752
-0.3896947919629711
-0.07783425988748084
-0.2905079738267752
-0.3896947919629711
-0.07783425988748084
-0.2905079738267752
-0.38546159120188983
-0.07845250759118857
-0.29056755356031916
-0.38546159120188983
-0.07845250759118857
-0.29056755356031916
-0.38546159120188983
-0.07845250759118857
-0.29056755356031916
-0.38546159120188983
-0.07845250759118857
-0.29056755356031916
-0.38262919969466475
-0.07798989685398634
-0.2904319020467857
-0.38262919969466475
-0.07798989685398634
-0.2904319020467857
-0.38262919969466475
-0.07798989685398634
-0.2904319020467857
-0.38262919969466475
-0.07798989685398634
-0.2904319020467857
-0.3825926819500005
-0.0763099605120451
-0.2902294384211296
-0.3825926819500005
-0.0763099605120451
-0.2902294384211296
-0.3825926819500005
-0.0763099605120451
-0.2902294384211296
-0.3825926819500005
-0.0763099605120451
-0.2902294384211296
-0.38515848698482413
-0.07331970189931777
-0.2896424698146565
-0.38515848698482413
-0.07331970189931777
-0.2896424698146565
-0.38515848698482413
-0.07331970189931777
-0.2896424698146565
-0.38515848698482413
-0.07331970189931777
-0.2896424698146565
-0.38727555624764676
-0.06902767934318103
-0.2885590931706038
-0.38727555624764676
-0.06902767934318103
-0.2885590931706038
-0.38727555624764676
-0.06902767934318103
-0.2885590931706038
-0.38727555624764676
-0.06902767934318103
-0.2885590931706038
-0.388431074368221
-0.06345626391390063
-0.28685142211546893
-0.388431074368221
-0.06345626391390063
-0.28685142211546893
-0.388431074368221
-0.06345626391390063
-0.28685142211546893
-0.388431074368221
-0.06345626391390063
-0.28685142211546893
-0.3879500068961675
-0.05786725671783719
-0.2837753372624392
-0.3879500068961675
-0.05786725671783719
-0.2837753372624392
-0.3879500068961675
-0.05786725671783719
-0.2837753372624392
-0.3879500068961675
-0.05786725671783719
-0.2837753372624392
-0.38523970422329157
-0.05199559220599852
-0.2789995061764081
-0.38523970422329157
-0.05199559220599852
-0.2789995061764081
-0.38523970422329157
-0.05199559220599852
-0.2789995061764081
-0.38523970422329157
-0.05199559220599852
-0.2789995061764081
-0.376463913315799
-0.04416519724558835
-0.2742901101920107
-0.376463913315799
-0.04416519724558835
-0.2742901101920107
-0.376463913315799
-0.04416519724558835
-0.2742901101920107
-0.376463913315799
-0.04416519724558835
-0.2742901101920107
-0.3608694618949619
-0.035058031640333935
-0.2708693085988397
-0.3608694618949619
-0.035058031640333935
-0.2708693085988397
-0.3608694618949619
-0.035058031640333935
-0.2708693085988397
-0.3608694618949619
-0.035058031640333935
-0.2708693085988397
-0.3421493899254497
-0.026888096363435206
-0.2676374157851693
-0.3421493899254497
-0.026888096363435206
-0.2676374157851693
-0.3421493899254497
-0.026888096363435206
-0.2676374157851693
-0.3421493899254497
-0.026888096363435206
-0.2676374157851693
-0.3224838328225581
-0.020401447693491018
-0.26426103602659773
-0.3224838328225581
-0.020401447693491018
-0.26426103602659773
-0.3224838328225581
-0.020401447693491018
-0.26426103602659773
-0.3224838328225581
-0.020401447693491018
-0.26426103602659773
-0.30121837387950573
-0.01575294232910575
-0.2598729632299747
-0.30121837387950573
-0.01575294232910575
-0.2598729632299747
-0.30121837387950573
-0.01575294232910575
-0.2598729632299747
-0.30121837387950573
-0.01575294232910575
-0.2598729632299747
-0.2744011810277114
-0.013063672582274503
-0.2560925256056347
-0.2744011810277114
-0.013063672582274503
-0.2560925256056347
-0.2744011810277114
-0.013063672582274503
-0.2560925256056347
-0.2744011810277114
-0.013063672582274503
-0.2560925256056347
-0.24095198080840352
-0.011625220213282675
-0.2564231849745763
-0.24095198080840352
-0.011625220213282675
-0.2564231849745763
-0.24095198080840352
-0.011625220213282675
-0.2564231849745763
-0.24095198080840352
-0.011625220213282675
-0.2564231849745763
-0.20234627388262502
-0.008712996778096895
-0.2610807630218188
-0.20234627388262502
-0.008712996778096895
-0.2610807630218188
-0.20234627388262502
-0.008712996778096895
-0.2610807630218188
-0.20234627388262502
-0.008712996778096895
-0.2610807630218188
-0.15942627766480746
-0.0026891683399982557
-0.2671620861636104
-0.15942627766480746
-0.0026891683399982557
-0.2671620861636104
-0.15942627766480746
-0.0026891683399982557
-0.2671620861636104
-0.15942627766480746
-0.0026891683399982557
-0.2671620861636104
-0.11517188176943588
0.005766052249738063
-0.2707600711154903
-0.11517188176943588
0.005766052249738063
-0.2707600711154903
-0.11517188176943588
0.005766052249738063
-0.2707600711154903
-0.11517188176943588
0.005766052249738063
-0.2707600711154903
-0.06848711563993604
0.012471500640819646
-0.2711801221712715
-0.06848711563993604
0.012471500640819646
-0.2711801221712715
-0.06848711563993604
0.012471500640819646
-0.2711801221712715
-0.06848711563993604
0.012471500640819646
-0.2711801221712715
-0.028153744722561456
0.015034157565852904
-0.26936463308877046
-0.028153744722561456
0.015034157565852904
-0.26936463308877046
-0.028153744722561456
0.015034157565852904
-0.26936463308877046
-0.028153744722561456
0.015034157565852904
-0.26936463308877046
-0.005783421824678228
0.013154367685901218
-0.26016410358300357
-0.005783421824678228
0.013154367685901218
-0.26016410358300357
-0.005783421824678228
0.013154367685901218
-0.26016410358300357
-0.005783421824678228
0.013154367685901218
-0.26016410358300357
0.0014527466392863857
0.0021504990360614144
-0.24942004145386457
0.0014527466392863857
0.0021504990360614144
-0.24942004145386457
0.0014527466392863857
0.0021504990360614144
-0.24942004145386457
0.0014527466392863857
0.0021504990360614144
-0.24942004145386457
0.006724892506656226
-0.012832031568094614
-0.24196985767888704
0.006724892506656226
-0.012832031568094614
-0.24196985767888704
0.006724892506656226
-0.012832031568094614
-0.24196985767888704
0.006724892506656226
-0.012832031568094614
-0.24196985767888704
0.01925555475612016
-0.02536472396422205
-0.2375214422046477
0.01925555475612016
-0.02536472396422205
-0.2375214422046477
0.01925555475612016
-0.02536472396422205
-0.2375214422046477
0.01925555475612016
-0.02536472396422205
-0.2375214422046477
0.04061568167476054
-0.034660164956339314
-0.23557069481433696
0.04061568167476054
-0.034660164956339314
-0.23557069481433696
0.04061568167476054
-0.034660164956339314
-0.23557069481433696
0.04061568167476054
-0.034660164956339314
-0.23557069481433696
0.06113238354003884
-0.04339080068986169
-0.23270426505598854
0.06113238354003884
-0.04339080068986169
-0.23270426505598854
0.06113238354003884
-0.04339080068986169
-0.23270426505598854
0.06113238354003884
-0.04339080068986169
-0.23270426505598854
0.07068645643296417
-0.05250442211171263
-0.22850096790560187
0.07068645643296417
-0.05250442211171263
-0.22850096790560187
0.07068645643296417
-0.05250442211171263
-0.22850096790560187
0.07068645643296417
-0.05250442211171263
-0.22850096790560187
0.07021996343755178
-0.05893564577956406
-0.22530134638019553
0.07021996343755178
-0.05893564577956406
-0.22530134638019553
0.07021996343755178
-0.05893564577956406
-0.22530134638019553
0.07021996343755178
-0.05893564577956406
-0.22530134638019553
0.0680449145047447
-0.06317837487698585
-0.22316859029985392
0.0680449145047447
-0.06317837487698585
-0.22316859029985392
0.0680449145047447
-0.06317837487698585
-0.22316859029985392
0.0680449145047447
-0.06317837487698585
-0.22316859029985392
0.0667079655977244
-0.06595131143816776
-0.2217479732894467
0.0667079655977244
-0.06595131143816776
-0.2217479732894467
0.0667079655977244
-0.06595131143816776
-0.2217479732894467
0.0667079655977244
-0.06595131143816776
-0.2217479732894467
0.06607647100177304
-0.06591160929609427
-0.2213614022599015
0.06607647100177304
-0.06591160929609427
-0.2213614022599015
0.06607647100177304
-0.06591160929609427
-0.2213614022599015
0.06607647100177304
-0.06591160929609427
-0.2213614022599015
0.06539528942351859
-0.06440476633163919
-0.2207903519033342
0.06539528942351859
-0.06440476633163919
-0.2207903519033342
0.06539528942351859
-0.06440476633163919
-0.2207903519033342
0.06539528942351859
-0.06440476633163919
-0.2207903519033342
0.06155620095181526
-0.0651861140811746
-0.22104168275886488
0.06155620095181526
-0.0651861140811746
-0.22104168275886488
0.06155620095181526
-0.0651861140811746
-0.22104168275886488
0.06155620095181526
-0.0651861140811746
-0.22104168275886488
0.05572579262140241
-0.06751495583629032
-0.22250865376222895
0.05572579262140241
-0.06751495583629032
-0.22250865376222895
0.05572579262140241
-0.06751495583629032
-0.22250865376222895
0.05572579262140241
-0.06751495583629032
-0.22250865376222895
0.05513157110627323
-0.06867611693926078
-0.22288494731928338
0.05513157110627323
-0.06867611693926078
-0.22288494731928338
0.05513157110627323
-0.06867611693926078
-0.22288494731928338
0.05513157110627323
-0.06867611693926078
-0.22288494731928338
0.05775988354596891
-0.06828567136155016
-0.22199245421339697
0.05775988354596891
-0.06828567136155016
-0.22199245421339697
0.05775988354596891
-0.06828567136155016
-0.22199245421339697
0.05775988354596891
-0.06828567136155016
-0.22199245421339697
0.06008592610503404
-0.067573836245314
-0.22057969403484376
0.06008592610503404
-0.067573836245314
-0.22057969403484376
0.06008592610503404
-0.067573836245314
-0.22057969403484376
0.06008592610503404
-0.067573836245314
-0.22057969403484376
0.06047049420881827
-0.06694298114610352
-0.2195885751555533
0.06047049420881827
-0.06694298114610352
-0.2195885751555533
0.06047049420881827
-0.06694298114610352
-0.2195885751555533
0.06047049420881827
-0.06694298114610352
-0.2195885751555533
0.059273986032411144
-0.06635367658672287
-0.21891039050435301
0.059273986032411144
-0.06635367658672287
-0.21891039050435301
0.059273986032411144
-0.06635367658672287
-0.21891039050435301
0.059273986032411144
-0.06635367658672287
-0.21891039050435301
0.05865126376704146
-0.06546213828021943
-0.21800001866748736
0.05865126376704146
-0.06546213828021943
-0.21800001866748736
0.05865126376704146
-0.06546213828021943
-0.21800001866748736
0.05865126376704146
-0.06546213828021943
-0.21800001866748736
0.059065739771272156
-0.06396919291598105
-0.2169844926408129
0.059065739771272156
-0.06396919291598105
-0.2169844926408129
0.059065739771272156
-0.06396919291598105
-0.2169844926408129
0.059065739771272156
-0.06396919291598105
-0.2169844926408129
0.05790974916080316
-0.06250416801640661
-0.21664893859944545
0.05790974916080316
-0.06250416801640661
-0.21664893859944545
0.05790974916080316
-0.06250416801640661
-0.21664893859944545
0.05790974916080316
-0.06250416801640661
-0.21664893859944545
0.055749421757873466
-0.060773645432217874
-0.21651995283758801
0.055749421757873466
-0.060773645432217874
-0.21651995283758801
0.055749421757873466
-0.060773645432217874
-0.21651995283758801
0.055749421757873466
-0.060773645432217874
-0.21651995283758801
0.0550086093117349
-0.05962062208126013
-0.2165740310257748
0.0550086093117349
-0.05962062208126013
-0.2165740310257748
0.0550086093117349
-0.05962062208126013
-0.2165740310257748
0.0550086093117349
-0.05962062208126013
-0.2165740310257748
0.05420652190398876
-0.058965496714811265
-0.21677523477136634
0.05420652190398876
-0.058965496714811265
-0.21677523477136634
0.05420652190398876
-0.058965496714811265
-0.21677523477136634
0.05420652190398876
-0.058965496714811265
-0.21677523477136634
0.053840657537042126
-0.05790453375096226
-0.21661438756630447
0.053840657537042126
-0.05790453375096226
-0.21661438756630447
0.053840657537042126
-0.05790453375096226
-0.21661438756630447
0.053840657537042126
-0.05790453375096226
-0.21661438756630447
0.054643819989039735
-0.056483624238913815
-0.2158569611307844
0.054643819989039735
-0.056483624238913815
-0.2158569611307844
0.054643819989039735
-0.056483624238913815
-0.2158569611307844
0.054643819989039735
-0.056483624238913815
-0.2158569611307844
0.054477628373249966
-0.05530475456019992
-0.21459244998544452
0.054477628373249966
-0.05530475456019992
-0.21459244998544452
0.054477628373249966
-0.05530475456019992
-0.21459244998544452
0.054477628373249966
-0.05530475456019992
-0.21459244998544452
0.05270603572262197
-0.05501857745484334
-0.21391554955609302
0.05270603572262197
-0.05501857745484334
-0.21391554955609302
0.05270603572262197
-0.05501857745484334
-0.21391554955609302
0.05270603572262197
-0.05501857745484334
-0.21391554955609302
0.05201473559162923
-0.05449232025433865
-0.21326253491266545
0.05201473559162923
-0.05449232025433865
-0.21326253491266545
0.05201473559162923
-0.05449232025433865
-0.21326253491266545
0.05201473559162923
-0.05449232025433865
-0.21326253491266545
0.05382772405510832
-0.054307111905306245
-0.21294257362279245
0.05382772405510832
-0.054307111905306245
-0.21294257362279245
0.05382772405510832
-0.054307111905306245
-0.21294257362279245
0.05382772405510832
-0.054307111905306245
-0.21294257362279245
0.054796426920123334
-0.054206366407026606
-0.21284466527420326
0.054796426920123334
-0.054206366407026606
-0.21284466527420326
0.054796426920123334
-0.054206366407026606
-0.21284466527420326
0.054796426920123334
-0.054206366407026606
-0.21284466527420326
0.05491788133064929
-0.05419331966175218
-0.21284760175518305
0.05491788133064929
-0.05419331966175218
-0.21284760175518305
0.05491788133064929
-0.05419331966175218
-0.21284760175518305
0.05491788133064929
-0.05419331966175218
-0.21284760175518305
0.05406769029395649
-0.054284640202179664
-0.2128270128380491
0.05406769029395649
-0.054284640202179664
-0.2128270128380491
0.05406769029395649
-0.054284640202179664
-0.2128270128380491
0.05406769029395649
-0.054284640202179664
-0.2128270128380491
0.053258457342395336
-0.05460058495992672
-0.21342080794832644
0.053258457342395336
-0.05460058495992672
-0.21342080794832644
0.053258457342395336
-0.05460058495992672
-0.21342080794832644
0.053258457342395336
-0.05460058495992672
-0.21342080794832644
0.05340851114196571
-0.05469736822088189
-0.2139263064845667
0.05340851114196571
-0.05469736822088189
-0.2139263064845667
0.05340851114196571
-0.05469736822088189
-0.2139263064845667
0.05340851114196571
-0.05469736822088189
-0.2139263064845667
0.05402170799738332
-0.05462454408597978
-0.2141840586033144
0.05402170799738332
-0.05462454408597978
-0.2141840586033144
0.05402170799738332
-0.05462454408597978
-0.2141840586033144
0.05402170799738332
-0.05462454408597978
-0.2141840586033144
0.05328579739908534
-0.054574855780859806
-0.21440554301022557
0.05328579739908534
-0.054574855780859806
-0.21440554301022557
0.05328579739908534
-0.054574855780859806
-0.21440554301022557
0.05328579739908534
-0.054574855780859806
-0.21440554301022557
0.05170569711053648
-0.05461039851188587
-0.21484914337223923
0.05170569711053648
-0.05461039851188587
-0.21484914337223923
0.05170569711053648
-0.05461039851188587
-0.21484914337223923
0.05170569711053648
-0.05461039851188587
-0.21484914337223923
0.05158424956093407
-0.05462356231619458
-0.21484616403821774
0.05158424956093407
-0.05462356231619458
-0.21484616403821774
0.05158424956093407
-0.05462356231619458
-0.21484616403821774
0.05158424956093407
-0.05462356231619458
-0.21484616403821774
0.051876877368705644
-0.05508580069616204
-0.2147447079100094
0.051876877368705644
-0.05508580069616204
-0.2147447079100094
0.051876877368705644
-0.05508580069616204
-0.2147447079100094
0.051876877368705644
-0.05508580069616204
-0.2147447079100094
0.05232738589718831
-0.05590224040666694
-0.21453559124243973
0.05232738589718831
-0.05590224040666694
-0.21453559124243973
0.05232738589718831
-0.05590224040666694
-0.21453559124243973
0.05232738589718831
-0.05590224040666694
-0.21453559124243973
0.05272204061804847
-0.05623727728106539
-0.2141910834289626
0.05272204061804847
-0.05623727728106539
-0.2141910834289626
0.05272204061804847
-0.05623727728106539
-0.2141910834289626
0.05272204061804847
-0.05623727728106539
-0.2141910834289626
0.05326121337482668
-0.056805482813081745
-0.21373553049614566
0.05326121337482668
-0.056805482813081745
-0.21373553049614566
0.05326121337482668
-0.056805482813081745
-0.21373553049614566
0.05326121337482668
-0.056805482813081745
-0.21373553049614566
0.052827843696444395
-0.05734296423922872
-0.21373742149791986
0.052827843696444395
-0.05734296423922872
-0.21373742149791986
0.052827843696444395
-0.05734296423922872
-0.21373742149791986
0.052827843696444395
-0.05734296423922872
-0.21373742149791986
0.05312011396669479
-0.05780542158237078
-0.21363663260151688
0.05312011396669479
-0.05780542158237078
-0.21363663260151688
0.05312011396669479
-0.05780542158237078
-0.21363663260151688
0.05312011396669479
-0.05780542158237078
-0.21363663260151688
0.05328094385828091
-0.05815612078550301
-0.2136506384609134
0.05328094385828091
-0.05815612078550301
-0.2136506384609134
0.05328094385828091
-0.05815612078550301
-0.2136506384609134
0.05328094385828091
-0.05815612078550301
-0.2136506384609134
0.05269310899127323
-0.05833572574409654
-0.21388120976811306
0.05269310899127323
-0.05833572574409654
-0.21388120976811306
0.05269310899127323
-0.05833572574409654
-0.21388120976811306
0.05269310899127323
-0.05833572574409654
-0.21388120976811306
0.051964282617888304
-0.05841439092899875
-0.21386197696968806
0.051964282617888304
-0.05841439092899875
-0.21386197696968806
0.051964282617888304
-0.05841439092899875
-0.21386197696968806
0.051964282617888304
-0.05841439092899875
-0.21386197696968806
0.05208575486499381
-0.05840128094554014
-0.21386518645280178
0.05208575486499381
-0.05840128094554014
-0.21386518645280178
0.05208575486499381
-0.05840128094554014
-0.21386518645280178
0.05208575486499381
-0.05840128094554014
-0.21386518645280178
0.051951150648025066
-0.05829312537517681
-0.21385843972074875
0.051951150648025066
-0.05829312537517681
-0.21385843972074875
0.051951150648025066
-0.05829312537517681
-0.21385843972074875
0.051951150648025066
-0.05829312537517681
-0.21385843972074875
0.051951150648025066
-0.05829312537517681
-0.21385843972074875
0.051951150648025066
-0.05829312537517681
-0.21385843972074875
0.051951150648025066
-0.05829312537517681
-0.21385843972074875
0.051951150648025066
-0.05829312537517681
-0.21385843972074875
0.05226981523410456
-0.057897093573851935
-0.21361443114789844
0.05226981523410456
-0.057897093573851935
-0.21361443114789844
0.05226981523410456
-0.057897093573851935
-0.21361443114789844
0.05226981523410456
-0.057897093573851935
-0.21361443114789844
0.05226981523410456
-0.057897093573851935
-0.21361443114789844
0.05226981523410456
-0.057897093573851935
-0.21361443114789844
0.05226981523410456
-0.057897093573851935
-0.21361443114789844
0.05226981523410456
-0.057897093573851935
-0.21361443114789844
0.05233931985322183
-0.05753438429774229
-0.21312103597022647
0.05233931985322183
-0.05753438429774229
-0.21312103597022647
0.05233931985322183
-0.05753438429774229
-0.21312103597022647
0.05233931985322183
-0.05753438429774229
-0.21312103597022647
0.052891349651844305
-0.057116422567333944
-0.21262706287249944
0.052891349651844305
-0.057116422567333944
-0.21262706287249944
0.052891349651844305
-0.057116422567333944
-0.21262706287249944
0.052891349651844305
-0.057116422567333944
-0.21262706287249944
0.05335172441952971
-0.056957426187909256
-0.21215004934756929
0.05335172441952971
-0.056957426187909256
-0.21215004934756929
0.05335172441952971
-0.056957426187909256
-0.21215004934756929
0.05335172441952971
-0.056957426187909256
-0.21215004934756929
0.05335172441952971
-0.056957426187909256
-0.21215004934756929
0.05335172441952971
-0.056957426187909256
-0.21215004934756929
0.05335172441952971
-0.056957426187909256
-0.21215004934756929
0.05335172441952971
-0.056957426187909256
-0.21215004934756929
0.05276724455198429
-0.057268589715502256
-0.21202012020806668
0.05276724455198429
-0.057268589715502256
-0.21202012020806668
0.05276724455198429
-0.057268589715502256
-0.21202012020806668
0.05276724455198429
-0.057268589715502256
-0.21202012020806668
0.05179855084196752
-0.057497724199126875
-0.21174250089987437
0.05179855084196752
-0.057497724199126875
-0.21174250089987437
0.05179855084196752
-0.057497724199126875
-0.21174250089987437
0.05179855084196752
-0.057497724199126875
-0.21174250089987437
0.05123674162968113
-0.05805471306197859
-0.21149765040372898
0.05123674162968113
-0.05805471306197859
-0.21149765040372898
0.05123674162968113
-0.05805471306197859
-0.21149765040372898
0.05123674162968113
-0.05805471306197859
-0.21149765040372898
0.05120286702880107
-0.05905537176905897
-0.2109148645135906
0.05120286702880107
-0.05905537176905897
-0.2109148645135906
0.05120286702880107
-0.05905537176905897
-0.2109148645135906
0.05120286702880107
-0.05905537176905897
-0.2109148645135906
0.0508993747032729
-0.05983247703231007
-0.2104269703130022
0.0508993747032729
-0.05983247703231007
-0.2104269703130022
0.0508993747032729
-0.05983247703231007
-0.2104269703130022
0.0508993747032729
-0.05983247703231007
-0.2104269703130022
0.05088069831403307
-0.060950837799387814
-0.20996891311450055
0.05088069831403307
-0.060950837799387814
-0.20996891311450055
0.05088069831403307
-0.060950837799387814
-0.20996891311450055
0.05088069831403307
-0.060950837799387814
-0.20996891311450055
0.051117427311346074
-0.06216479808008954
-0.20952119165515778
0.051117427311346074
-0.06216479808008954
-0.20952119165515778
0.051117427311346074
-0.06216479808008954
-0.20952119165515778
0.051117427311346074
-0.06216479808008954
-0.20952119165515778
0.050640820859717176
-0.063573630664788
-0.2091775574857268
0.050640820859717176
-0.063573630664788
-0.2091775574857268
0.050640820859717176
-0.063573630664788
-0.2091775574857268
0.050640820859717176
-0.063573630664788
-0.2091775574857268
0.04992059228567764
-0.0650079276872059
-0.20882595176979735
0.04992059228567764
-0.0650079276872059
-0.20882595176979735
0.04992059228567764
-0.0650079276872059
-0.20882595176979735
0.04992059228567764
-0.0650079276872059
-0.20882595176979735
0.04920351063007649
-0.06643857829460001
-0.20859483209292953
0.04920351063007649
-0.06643857829460001
-0.20859483209292953
0.04920351063007649
-0.06643857829460001
-0.20859483209292953
0.04920351063007649
-0.06643857829460001
-0.20859483209292953
0.04893006879350318
-0.06745745562975262
-0.20824614182685441
0.04893006879350318
-0.06745745562975262
-0.20824614182685441
0.04893006879350318
-0.06745745562975262
-0.20824614182685441
0.04893006879350318
-0.06745745562975262
-0.20824614182685441
0.04872668355862002
-0.06797832524324361
-0.20788741092434238
0.04872668355862002
-0.06797832524324361
-0.20788741092434238
0.04872668355862002
-0.06797832524324361
-0.20788741092434238
0.04872668355862002
-0.06797832524324361
-0.20788741092434238
0.04821659172422798
-0.06791094080465702
-0.20761281405098184
0.04821659172422798
-0.06791094080465702
-0.20761281405098184
0.04821659172422798
-0.06791094080465702
-0.20761281405098184
0.04821659172422798
-0.06791094080465702
-0.20761281405098184
0.0461834331366182
-0.06739656642162688
-0.20716724624166985
0.0461834331366182
-0.06739656642162688
-0.20716724624166985
0.0461834331366182
-0.06739656642162688
-0.20716724624166985
0.0461834331366182
-0.06739656642162688
-0.20716724624166985
0.042471037592518024
-0.06619220351334872
-0.20650529646316038
0.042471037592518024
-0.06619220351334872
-0.20650529646316038
0.042471037592518024
-0.06619220351334872
-0.20650529646316038
0.042471037592518024
-0.06619220351334872
-0.20650529646316038
0.036152609845478884
-0.06476745897740259
-0.20563769585857145
0.036152609845478884
-0.06476745897740259
-0.20563769585857145
0.036152609845478884
-0.06476745897740259
-0.20563769585857145
0.036152609845478884
-0.06476745897740259
-0.20563769585857145
0.0260664830800275
-0.06321798449005277
-0.20625017409085564
0.0260664830800275
-0.06321798449005277
-0.20625017409085564
0.0260664830800275
-0.06321798449005277
-0.20625017409085564
0.0260664830800275
-0.06321798449005277
-0.20625017409085564
0.012942482411690272
-0.06162189526823786
-0.20802407335063766
0.012942482411690272
-0.06162189526823786
-0.20802407335063766
0.012942482411690272
-0.06162189526823786
-0.20802407335063766
0.012942482411690272
-0.06162189526823786
-0.20802407335063766
-0.0011244400083371883
-0.06027475546860369
-0.21041035325353943
-0.0011244400083371883
-0.06027475546860369
-0.21041035325353943
-0.0011244400083371883
-0.06027475546860369
-0.21041035325353943
-0.0011244400083371883
-0.06027475546860369
-0.21041035325353943
-0.015661401663561936
-0.0590195222293246
-0.2134210347908692
-0.015661401663561936
-0.0590195222293246
-0.2134210347908692
-0.015661401663561936
-0.0590195222293246
-0.2134210347908692
-0.015661401663561936
-0.0590195222293246
-0.2134210347908692
-0.03227247511779023
-0.05791684040157835
-0.2166435963490722
-0.03227247511779023
-0.05791684040157835
-0.2166435963490722
-0.03227247511779023
-0.05791684040157835
-0.2166435963490722
-0.03227247511779023
-0.05791684040157835
-0.2166435963490722
-0.05227126220754713
-0.05760133052062583
-0.21920115764210846
-0.05227126220754713
-0.05760133052062583
-0.21920115764210846
-0.05227126220754713
-0.05760133052062583
-0.21920115764210846
-0.05227126220754713
-0.05760133052062583
-0.21920115764210846
-0.07590681954191181
-0.05695929617834176
-0.22058148061910174
-0.07590681954191181
-0.05695929617834176
-0.22058148061910174
-0.07590681954191181
-0.05695929617834176
-0.22058148061910174
-0.07590681954191181
-0.05695929617834176
-0.22058148061910174
-0.10233535759980984
-0.054788620922535836
-0.2211815010876678
-0.10233535759980984
-0.054788620922535836
-0.2211815010876678
-0.10233535759980984
-0.054788620922535836
-0.2211815010876678
-0.10233535759980984
-0.054788620922535836
-0.2211815010876678
-0.12821566644344723
-0.05107683090169095
-0.22148050058821073
-0.12821566644344723
-0.05107683090169095
-0.22148050058821073
-0.12821566644344723
-0.05107683090169095
-0.22148050058821073
-0.12821566644344723
-0.05107683090169095
-0.22148050058821073
-0.15164705641962095
-0.04625348912149485
-0.2220325920133504
-0.15164705641962095
-0.04625348912149485
-0.2220325920133504
-0.15164705641962095
-0.04625348912149485
-0.2220325920133504
-0.15164705641962095
-0.04625348912149485
-0.2220325920133504
-0.17377689647269567
-0.039880115694231486
-0.2233617502019466
-0.17377689647269567
-0.039880115694231486
-0.2233617502019466
-0.17377689647269567
-0.039880115694231486
-0.2233617502019466
-0.17377689647269567
-0.039880115694231486
-0.2233617502019466
-0.19344060601791785
-0.033854518742420125
-0.2246123970323338
-0.19344060601791785
-0.033854518742420125
-0.2246123970323338
-0.19344060601791785
-0.033854518742420125
-0.2246123970323338
-0.19344060601791785
-0.033854518742420125
-0.2246123970323338
-0.21197311525861431
-0.028244448359830816
-0.22621347890282792
-0.21197311525861431
-0.028244448359830816
-0.22621347890282792
-0.21197311525861431
-0.028244448359830816
-0.22621347890282792
-0.21197311525861431
-0.028244448359830816
-0.22621347890282792
-0.23058927049884645
-0.023235828541884017
-0.22848959857215576
-0.23058927049884645
-0.023235828541884017
-0.22848959857215576
-0.23058927049884645
-0.023235828541884017
-0.22848959857215576
-0.23058927049884645
-0.023235828541884017
-0.22848959857215576
-0.2505365829130728
-0.01996700387513474
-0.23130047839244747
-0.2505365829130728
-0.01996700387513474
-0.23130047839244747
-0.2505365829130728
-0.01996700387513474
-0.23130047839244747
-0.2505365829130728
-0.01996700387513474
-0.23130047839244747
-0.2735059584303167
-0.017767041509329173
-0.23532150105784566
-0.2735059584303167
-0.017767041509329173
-0.23532150105784566
-0.2735059584303167
-0.017767041509329173
-0.23532150105784566
-0.2735059584303167
-0.017767041509329173
-0.23532150105784566
-0.2990253207734937
-0.01658365415852825
-0.24017893775324856
-0.2990253207734937
-0.01658365415852825
-0.24017893775324856
-0.2990253207734937
-0.01658365415852825
-0.24017893775324856
-0.2990253207734937
-0.01658365415852825
-0.24017893775324856
-0.3261874260946321
-0.01585272802241913
-0.24433660203075097
-0.3261874260946321
-0.01585272802241913
-0.24433660203075097
-0.3261874260946321
-0.01585272802241913
-0.24433660203075097
-0.3261874260946321
-0.01585272802241913
-0.24433660203075097
-0.35202139947011346
-0.015097022968033924
-0.24730133973053717
-0.35202139947011346
-0.015097022968033924
-0.24730133973053717
-0.35202139947011346
-0.015097022968033924
-0.24730133973053717
-0.35202139947011346
-0.015097022968033924
-0.24730133973053717
-0.3729611308818614
-0.015083324969440929
-0.25050195035565287
-0.3729611308818614
-0.015083324969440929
-0.25050195035565287
-0.3729611308818614
-0.015083324969440929
-0.25050195035565287
-0.3729611308818614
-0.015083324969440929
-0.25050195035565287
-0.38724557540497245
-0.016818570519884595
-0.2557961680861266
-0.38724557540497245
-0.016818570519884595
-0.2557961680861266
-0.38724557540497245
-0.016818570519884595
-0.2557961680861266
-0.38724557540497245
-0.016818570519884595
-0.2557961680861266
-0.3955185182739884
-0.021488162412136462
-0.2611591400607319
-0.3955185182739884
-0.021488162412136462
-0.2611591400607319
-0.3955185182739884
-0.021488162412136462
-0.2611591400607319
-0.3955185182739884
-0.021488162412136462
-0.2611591400607319
-0.39637325141438323
-0.027068933456788437
-0.26522087869235383
-0.39637325141438323
-0.027068933456788437
-0.26522087869235383
-0.39637325141438323
-0.027068933456788437
-0.26522087869235383
-0.39637325141438323
-0.027068933456788437
-0.26522087869235383
-0.39419931362127786
-0.03129912290732867
-0.2677370803159555
-0.39419931362127786
-0.03129912290732867
-0.2677370803159555
-0.39419931362127786
-0.03129912290732867
-0.2677370803159555
-0.39419931362127786
-0.03129912290732867
-0.2677370803159555
-0.3919083076588997
-0.034617130526565676
-0.2695816135308661
-0.3919083076588997
-0.034617130526565676
-0.2695816135308661
-0.3919083076588997
-0.034617130526565676
-0.2695816135308661
-0.3919083076588997
-0.034617130526565676
-0.2695816135308661
-0.38982228142635816
-0.03817688315577338
-0.271258127613534
-0.38982228142635816
-0.03817688315577338
-0.271258127613534
-0.38982228142635816
-0.03817688315577338
-0.271258127613534
-0.38982228142635816
-0.03817688315577338
-0.271258127613534
-0.38600329687397605
-0.0414719959510256
-0.27285535542955214
-0.38600329687397605
-0.0414719959510256
-0.27285535542955214
-0.38600329687397605
-0.0414719959510256
-0.27285535542955214
-0.38600329687397605
-0.0414719959510256
-0.27285535542955214
-0.382133652911797
-0.04316267224673903
-0.27338636025665297
-0.382133652911797
-0.04316267224673903
-0.27338636025665297
-0.382133652911797
-0.04316267224673903
-0.27338636025665297
-0.382133652911797
-0.04316267224673903
-0.27338636025665297
-0.3795047630770805
-0.043141192150061104
-0.27325641372306836
-0.3795047630770805
-0.043141192150061104
-0.27325641372306836
-0.3795047630770805
-0.043141192150061104
-0.27325641372306836
-0.3795047630770805
-0.043141192150061104
-0.27325641372306836
-0.37976081686743457
-0.04201476990157833
-0.2730805405334002
-0.37976081686743457
-0.04201476990157833
-0.2730805405334002
-0.37976081686743457
-0.04201476990157833
-0.2730805405334002
-0.37976081686743457
-0.04201476990157833
-0.2730805405334002
-0.381929819255063
-0.039944599804563635
-0.27311653841243483
-0.381929819255063
-0.039944599804563635
-0.27311653841243483
-0.381929819255063
-0.039944599804563635
-0.27311653841243483
-0.381929819255063
-0.039944599804563635
-0.27311653841243483
-0.38332239517735184
-0.03706777626393215
-0.27280150615000226
-0.38332239517735184
-0.03706777626393215
-0.27280150615000226
-0.38332239517735184
-0.03706777626393215
-0.27280150615000226
-0.38332239517735184
-0.03706777626393215
-0.27280150615000226
-0.38147464820931604
-0.03297254299120049
-0.27243314246203953
-0.38147464820931604
-0.03297254299120049
-0.27243314246203953
-0.38147464820931604
-0.03297254299120049
-0.27243314246203953
-0.38147464820931604
-0.03297254299120049
-0.27243314246203953
-0.3767419328613798
-0.02802359533781603
-0.27231767833375203
-0.3767419328613798
-0.02802359533781603
-0.27231767833375203
-0.3767419328613798
-0.02802359533781603
-0.27231767833375203
-0.3767419328613798
-0.02802359533781603
-0.27231767833375203
-0.37136513676060234
-0.02216843334911761
-0.27183053526046896
-0.37136513676060234
-0.02216843334911761
-0.27183053526046896
-0.37136513676060234
-0.02216843334911761
-0.27183053526046896
-0.37136513676060234
-0.02216843334911761
-0.27183053526046896
-0.36625219171495094
-0.016195283827100195
-0.2704713588292525
-0.36625219171495094
-0.016195283827100195
-0.2704713588292525
-0.36625219171495094
-0.016195283827100195
-0.2704713588292525
-0.36625219171495094
-0.016195283827100195
-0.2704713588292525
-0.35976500151103125
-0.010176582351257941
-0.2684504656741449
-0.35976500151103125
-0.010176582351257941
-0.2684504656741449
-0.35976500151103125
-0.010176582351257941
-0.2684504656741449
-0.35976500151103125
-0.010176582351257941
-0.2684504656741449
-0.35093813695977877
-0.004621795389998919
-0.26575822961978424
-0.35093813695977877
-0.004621795389998919
-0.26575822961978424
-0.35093813695977877
-0.004621795389998919
-0.26575822961978424
-0.35093813695977877
-0.004621795389998919
-0.26575822961978424
-0.33878790023006505
3.755278641582442E-4
-0.2628595726327538
-0.33878790023006505
3.755278641582442E-4
-0.2628595726327538
-0.33878790023006505
3.755278641582442E-4
-0.2628595726327538
-0.33878790023006505
3.755278641582442E-4
-0.2628595726327538
-0.3222177924720162
0.004921227707413588
-0.259863635256541
-0.3222177924720162
0.004921227707413588
-0.259863635256541
-0.3222177924720162
0.004921227707413588
-0.259863635256541
-0.3222177924720162
0.004921227707413588
-0.259863635256541
-0.30111200898633594
0.00888746326253353
-0.2567504773878736
-0.30111200898633594
0.00888746326253353
-0.2567504773878736
-0.30111200898633594
0.00888746326253353
-0.2567504773878736
-0.30111200898633594
0.00888746326253353
-0.2567504773878736
-0.27807586796133005
0.012230356330590596
-0.2530817193544585
-0.27807586796133005
0.012230356330590596
-0.2530817193544585
-0.27807586796133005
0.012230356330590596
-0.2530817193544585
-0.27807586796133005
0.012230356330590596
-0.2530817193544585
-0.25487770816433497
0.014028466706057912
-0.2493016270913814
-0.25487770816433497
0.014028466706057912
-0.2493016270913814
-0.25487770816433497
0.014028466706057912
-0.2493016270913814
-0.25487770816433497
0.014028466706057912
-0.2493016270913814
-0.23275195102163568
0.014070795424887712
-0.24596468079450856
-0.23275195102163568
0.014070795424887712
-0.24596468079450856
-0.23275195102163568
0.014070795424887712
-0.24596468079450856
-0.23275195102163568
0.014070795424887712
-0.24596468079450856
-0.20887888746513864
0.01330465446303337
-0.24465433143765025
-0.20887888746513864
0.01330465446303337
-0.24465433143765025
-0.20887888746513864
0.01330465446303337
-0.24465433143765025
-0.20887888746513864
0.01330465446303337
-0.24465433143765025
-0.1804082697087163
0.01271847344612161
-0.2459227838614263
-0.1804082697087163
0.01271847344612161
-0.2459227838614263
-0.1804082697087163
0.01271847344612161
-0.2459227838614263
-0.1804082697087163
0.01271847344612161
-0.2459227838614263
-0.14526739640881242
0.01563802585268907
-0.24826901831126336
-0.14526739640881242
0.01563802585268907
-0.24826901831126336
-0.14526739640881242
0.01563802585268907
-0.24826901831126336
-0.14526739640881242
0.01563802585268907
-0.24826901831126336
-0.10287505521507954
0.01951018465966739
-0.24904735116430876
-0.10287505521507954
0.01951018465966739
-0.24904735116430876
-0.10287505521507954
0.01951018465966739
-0.24904735116430876
-0.10287505521507954
0.01951018465966739
-0.24904735116430876
-0.06022285825814124
0.022302868430651535
-0.24701865720942792
-0.06022285825814124
0.022302868430651535
-0.24701865720942792
-0.06022285825814124
0.022302868430651535
-0.24701865720942792
-0.06022285825814124
0.022302868430651535
-0.24701865720942792
-0.02332911477427579
0.021735837354616473
-0.24416347391686402
-0.02332911477427579
0.021735837354616473
-0.24416347391686402
-0.02332911477427579
0.021735837354616473
-0.24416347391686402
-0.02332911477427579
0.021735837354616473
-0.24416347391686402
-0.002042698494193636
0.015122725400309501
-0.23652206315061897
-0.002042698494193636
0.015122725400309501
-0.23652206315061897
-0.002042698494193636
0.015122725400309501
-0.23652206315061897
-0.002042698494193636
0.015122725400309501
-0.23652206315061897
0.007050874309429185
0.0038785428198727934
-0.22789259602366368
0.007050874309429185
0.0038785428198727934
-0.22789259602366368
0.007050874309429185
0.0038785428198727934
-0.22789259602366368
0.007050874309429185
0.0038785428198727934
-0.22789259602366368
0.01263430118265175
-0.007557000260522218
-0.22218448932096355
0.01263430118265175
-0.007557000260522218
-0.22218448932096355
0.01263430118265175
-0.007557000260522218
-0.22218448932096355
0.01263430118265175
-0.007557000260522218
-0.22218448932096355
0.025863360814016294
-0.01646003098556619
-0.21721314139973194
0.025863360814016294
-0.01646003098556619
-0.21721314139973194
0.025863360814016294
-0.01646003098556619
-0.21721314139973194
0.025863360814016294
-0.01646003098556619
-0.21721314139973194
0.04310583184322313
-0.023009787168680247
-0.21347740865708897
0.04310583184322313
-0.023009787168680247
-0.21347740865708897
0.04310583184322313
-0.023009787168680247
-0.21347740865708897
0.04310583184322313
-0.023009787168680247
-0.21347740865708897
0.05636834261774053
-0.029015647147605374
-0.21151804641734273
0.05636834261774053
-0.029015647147605374
-0.21151804641734273
0.05636834261774053
-0.029015647147605374
-0.21151804641734273
0.05636834261774053
-0.029015647147605374
-0.21151804641734273
0.05897174619113775
-0.036384576048605954
-0.21043715833325516
0.05897174619113775
-0.036384576048605954
-0.21043715833325516
0.05897174619113775
-0.036384576048605954
-0.21043715833325516
0.05897174619113775
-0.036384576048605954
-0.21043715833325516
0.053495951875568895
-0.04370324399528474
-0.21089774371478331
0.053495951875568895
-0.04370324399528474
-0.21089774371478331
0.053495951875568895
-0.04370324399528474
-0.21089774371478331
0.053495951875568895
-0.04370324399528474
-0.21089774371478331
0.049270017971859224
-0.04963101411467673
-0.2129205397855804
0.049270017971859224
-0.04963101411467673
-0.2129205397855804
0.049270017971859224
-0.04963101411467673
-0.2129205397855804
0.049270017971859224
-0.04963101411467673
-0.2129205397855804
0.0482365484020026
-0.05410367763259709
-0.21571370208383528
0.0482365484020026
-0.05410367763259709
-0.21571370208383528
0.0482365484020026
-0.05410367763259709
-0.21571370208383528
0.0482365484020026
-0.05410367763259709
-0.21571370208383528
0.048592904605853096
-0.05782562721566486
-0.21803920532412158
0.048592904605853096
-0.05782562721566486
-0.21803920532412158
0.048592904605853096
-0.05782562721566486
-0.21803920532412158
0.048592904605853096
-0.05782562721566486
-0.21803920532412158
0.04790856218307032
-0.05994739915375789
-0.22003971105311576
0.04790856218307032
-0.05994739915375789
-0.22003971105311576
0.04790856218307032
-0.05994739915375789
-0.22003971105311576
0.04790856218307032
-0.05994739915375789
-0.22003971105311576
0.04559146419956644
-0.06189955746516288
-0.22137714719099538
0.04559146419956644
-0.06189955746516288
-0.22137714719099538
0.04559146419956644
-0.06189955746516288
-0.22137714719099538
0.04559146419956644
-0.06189955746516288
-0.22137714719099538
0.044176121783285734
-0.06339685897365689
-0.22185209308100545
0.044176121783285734
-0.06339685897365689
-0.22185209308100545
0.044176121783285734
-0.06339685897365689
-0.22185209308100545
0.044176121783285734
-0.06339685897365689
-0.22185209308100545
0.044541941365527034
-0.06433358291308894
-0.2222622852785791
0.044541941365527034
-0.06433358291308894
-0.2222622852785791
0.044541941365527034
-0.06433358291308894
-0.2222622852785791
0.044541941365527034
-0.06433358291308894
-0.2222622852785791
0.04589450642177853
-0.06443587401920504
-0.22194391852622097
0.04589450642177853
-0.06443587401920504
-0.22194391852622097
0.04589450642177853
-0.06443587401920504
-0.22194391852622097
0.04589450642177853
-0.06443587401920504
-0.22194391852622097
0.048028134817709574
-0.06409973034930203
-0.22077696166745728
0.048028134817709574
-0.06409973034930203
-0.22077696166745728
0.048028134817709574
-0.06409973034930203
-0.22077696166745728
0.048028134817709574
-0.06409973034930203
-0.22077696166745728
0.048759027998355665
-0.0631732773971027
-0.22003585289437072
0.048759027998355665
-0.0631732773971027
-0.22003585289437072
0.048759027998355665
-0.0631732773971027
-0.22003585289437072
0.048759027998355665
-0.0631732773971027
-0.22003585289437072
0.048954001210831426
-0.061947614791510675
-0.2189057524418271
0.048954001210831426
-0.061947614791510675
-0.2189057524418271
0.048954001210831426
-0.061947614791510675
-0.2189057524418271
0.048954001210831426
-0.061947614791510675
-0.2189057524418271
0.050027364370905276
-0.06087118558631563
-0.21780584668711328
0.050027364370905276
-0.06087118558631563
-0.21780584668711328
0.050027364370905276
-0.06087118558631563
-0.21780584668711328
0.050027364370905276
-0.06087118558631563
-0.21780584668711328
0.05028475828087049
-0.05998948406631631
-0.21741397873198318
0.05028475828087049
-0.05998948406631631
-0.21741397873198318
0.05028475828087049
-0.05998948406631631
-0.21741397873198318
0.05028475828087049
-0.05998948406631631
-0.21741397873198318
0.05018480927304618
-0.059147656417658276
-0.2171469353596364
0.05018480927304618
-0.059147656417658276
-0.2171469353596364
0.05018480927304618
-0.059147656417658276
-0.2171469353596364
0.05018480927304618
-0.059147656417658276
-0.2171469353596364
0.0499138912001799
-0.05795891452191617
-0.2166102887713107
0.0499138912001799
-0.05795891452191617
-0.2166102887713107
0.0499138912001799
-0.05795891452191617
-0.2166102887713107
0.0499138912001799
-0.05795891452191617
-0.2166102887713107
0.04854741233945004
-0.056892506367307444
-0.21592439944564282
0.04854741233945004
-0.056892506367307444
-0.21592439944564282
0.04854741233945004
-0.056892506367307444
-0.21592439944564282
0.04854741233945004
-0.056892506367307444
-0.21592439944564282
0.046994075509216006
-0.056205559247534405
-0.21574256846719128
0.046994075509216006
-0.056205559247534405
-0.21574256846719128
0.046994075509216006
-0.056205559247534405
-0.21574256846719128
0.046994075509216006
-0.056205559247534405
-0.21574256846719128
0.04687989887698212
-0.0553728435104995
-0.21497805905207237
0.04687989887698212
-0.0553728435104995
-0.21497805905207237
0.04687989887698212
-0.0553728435104995
-0.21497805905207237
0.04687989887698212
-0.0553728435104995
-0.21497805905207237
0.04705173538114718
-0.05487444844243395
-0.21435081030057374
0.04705173538114718
-0.05487444844243395
-0.21435081030057374
0.04705173538114718
-0.05487444844243395
-0.21435081030057374
0.04705173538114718
-0.05487444844243395
-0.21435081030057374
0.04601631917708048
-0.054634630372169785
-0.21345370531252197
0.04601631917708048
-0.054634630372169785
-0.21345370531252197
0.04601631917708048
-0.054634630372169785
-0.21345370531252197
0.04601631917708048
-0.054634630372169785
-0.21345370531252197
0.04521504782496515
-0.05437713911577745
-0.212198458839207
0.04521504782496515
-0.05437713911577745
-0.212198458839207
0.04521504782496515
-0.05437713911577745
-0.212198458839207
0.04521504782496515
-0.05437713911577745
-0.212198458839207
0.045194757326849494
-0.054526360708568436
-0.21097375857543454
0.045194757326849494
-0.054526360708568436
-0.21097375857543454
0.045194757326849494
-0.054526360708568436
-0.21097375857543454
0.045194757326849494
-0.054526360708568436
-0.21097375857543454
0.04606638836256577
-0.054946418770510555
-0.20990117495483665
0.04606638836256577
-0.054946418770510555
-0.20990117495483665
0.04606638836256577
-0.054946418770510555
-0.20990117495483665
0.04606638836256577
-0.054946418770510555
-0.20990117495483665
0.046691490116683575
-0.0553961631775301
-0.20870134166291585
0.046691490116683575
-0.0553961631775301
-0.20870134166291585
0.046691490116683575
-0.0553961631775301
-0.20870134166291585
0.046691490116683575
-0.0553961631775301
-0.20870134166291585
0.045748902746775115
-0.056005609453537226
-0.20783870736335658
0.045748902746775115
-0.056005609453537226
-0.20783870736335658
0.045748902746775115
-0.056005609453537226
-0.20783870736335658
0.045748902746775115
-0.056005609453537226
-0.20783870736335658
0.044584909950809805
-0.05674557928659274
-0.20744552255950077
0.044584909950809805
-0.05674557928659274
-0.20744552255950077
0.044584909950809805
-0.05674557928659274
-0.20744552255950077
0.044584909950809805
-0.05674557928659274
-0.20744552255950077
0.044168761278510646
-0.05753042670931484
-0.20720805925329502
0.044168761278510646
-0.05753042670931484
-0.20720805925329502
0.044168761278510646
-0.05753042670931484
-0.20720805925329502
0.044168761278510646
-0.05753042670931484
-0.20720805925329502
0.04335946027874902
-0.05798024799076232
-0.20731602283150782
0.04335946027874902
-0.05798024799076232
-0.20731602283150782
0.04335946027874902
-0.05798024799076232
-0.20731602283150782
0.04335946027874902
-0.05798024799076232
-0.20731602283150782
0.04317056627994642
-0.05848794811464052
-0.2074430101899737
0.04317056627994642
-0.05848794811464052
-0.2074430101899737
0.04317056627994642
-0.05848794811464052
-0.2074430101899737
0.04317056627994642
-0.05848794811464052
-0.2074430101899737
0.04236466520652621
-0.058934963986410634
-0.20767189411773931
0.04236466520652621
-0.058934963986410634
-0.20767189411773931
0.04236466520652621
-0.058934963986410634
-0.20767189411773931
0.04236466520652621
-0.058934963986410634
-0.20767189411773931
0.04129636342861146
-0.059292062846129895
-0.2076477720053051
0.04129636342861146
-0.059292062846129895
-0.2076477720053051
0.04129636342861146
-0.059292062846129895
-0.2076477720053051
0.04129636342861146
-0.059292062846129895
-0.2076477720053051
0.040128565009643874
-0.05990730949566118
-0.20750398941975717
0.040128565009643874
-0.05990730949566118
-0.20750398941975717
0.040128565009643874
-0.05990730949566118
-0.20750398941975717
0.040128565009643874
-0.05990730949566118
-0.20750398941975717
0.03970604437792307
-0.060564744007064276
-0.2075043901769365
0.03970604437792307
-0.060564744007064276
-0.2075043901769365
0.03970604437792307
-0.060564744007064276
-0.2075043901769365
0.03970604437792307
-0.060564744007064276
-0.2075043901769365
0.04008925481875653
-0.06077489479180897
-0.20727722588855357
0.04008925481875653
-0.06077489479180897
-0.20727722588855357
0.04008925481875653
-0.06077489479180897
-0.20727722588855357
0.04008925481875653
-0.06077489479180897
-0.20727722588855357
0.041210971833849135
-0.06103324956731168
-0.20695216363477192
0.041210971833849135
-0.06103324956731168
-0.20695216363477192
0.041210971833849135
-0.06103324956731168
-0.20695216363477192
0.041210971833849135
-0.06103324956731168
-0.20695216363477192
0.04119716663597988
-0.06104478670767601
-0.20646595573179777
0.04119716663597988
-0.06104478670767601
-0.20646595573179777
0.04119716663597988
-0.06104478670767601
-0.20646595573179777
0.04119716663597988
-0.06104478670767601
-0.20646595573179777
0.04128249212096503
-0.060924700806799265
-0.20572453203712182
0.04128249212096503
-0.060924700806799265
-0.20572453203712182
0.04128249212096503
-0.060924700806799265
-0.20572453203712182
0.04128249212096503
-0.060924700806799265
-0.20572453203712182
0.04146087778582533
-0.06055235456968346
-0.20485921561689907
0.04146087778582533
-0.06055235456968346
-0.20485921561689907
0.04146087778582533
-0.06055235456968346
-0.20485921561689907
0.04146087778582533
-0.06055235456968346
-0.20485921561689907
0.041677768096991426
-0.060417544901264456
-0.204376906066388
0.041677768096991426
-0.060417544901264456
-0.204376906066388
0.041677768096991426
-0.060417544901264456
-0.204376906066388
0.041677768096991426
-0.060417544901264456
-0.204376906066388
0.04201629996373244
-0.060270341380831205
-0.20389795171984576
0.04201629996373244
-0.060270341380831205
-0.20389795171984576
0.04201629996373244
-0.060270341380831205
-0.20389795171984576
0.04201629996373244
-0.060270341380831205
-0.20389795171984576
0.0424701401005595
-0.06011039349166968
-0.20328827110343767
0.0424701401005595
-0.06011039349166968
-0.20328827110343767
0.0424701401005595
-0.06011039349166968
-0.20328827110343767
0.0424701401005595
-0.06011039349166968
-0.20328827110343767
0.04316341117728324
-0.05993524493959455
-0.20245461792035602
0.04316341117728324
-0.05993524493959455
-0.20245461792035602
0.04316341117728324
-0.05993524493959455
-0.20245461792035602
0.04316341117728324
-0.05993524493959455
-0.20245461792035602
0.04325607743594293
-0.05981009588260369
-0.2019562925136499
0.04325607743594293
-0.05981009588260369
