-0.5599578770427548
0.07106072662180038
-0.053865639284511914
-0.5599578770427548
0.07106072662180038
-0.053865639284511914
-0.5599555519769288
0.07173225008990651
-0.053296436119702084
-0.5599555519769288
0.07173225008990651
-0.053296436119702084
-0.5599555519769288
0.07173225008990651
-0.053296436119702084
-0.5599555519769288
0.07173225008990651
-0.053296436119702084
-0.5603415446328417
0.07220936334293454
-0.052942633843310154
-0.5603415446328417
0.07220936334293454
-0.052942633843310154
-0.5603415446328417
0.07220936334293454
-0.052942633843310154
-0.5603415446328417
0.07220936334293454
-0.052942633843310154
-0.5606046564586609
0.0724227635606636
-0.052635208377083596
-0.5606046564586609
0.0724227635606636
-0.052635208377083596
-0.5606046564586609
0.0724227635606636
-0.052635208377083596
-0.5606046564586609
0.0724227635606636
-0.052635208377083596
-0.5606126751025675
0.07314393842581422
-0.05233503240866739
-0.5606126751025675
0.07314393842581422
-0.05233503240866739
-0.5606126751025675
0.07314393842581422
-0.05233503240866739
-0.5606126751025675
0.07314393842581422
-0.05233503240866739
-0.560097664381546
0.07374596069329455
-0.05159642288107635
-0.560097664381546
0.07374596069329455
-0.05159642288107635
-0.560097664381546
0.07374596069329455
-0.05159642288107635
-0.560097664381546
0.07374596069329455
-0.05159642288107635
-0.5600965600885162
0.0742327242317533
-0.051228213386001614
-0.5600965600885162
0.0742327242317533
-0.051228213386001614
-0.5600965600885162
0.0742327242317533
-0.051228213386001614
-0.5600965600885162
0.0742327242317533
-0.051228213386001614
-0.5604384968784273
0.07432146898071326
-0.05088627659609059
-0.5604384968784273
0.07432146898071326
-0.05088627659609059
-0.5604384968784273
0.07432146898071326
-0.05088627659609059
-0.5604384968784273
0.07432146898071326
-0.05088627659609059
-0.5605716250001106
0.07433895497548218
-0.050390172714521286
-0.5605716250001106
0.07433895497548218
-0.050390172714521286
-0.5605716250001106
0.07433895497548218
-0.050390172714521286
-0.5605716250001106
0.07433895497548218
-0.050390172714521286
-0.5606617654443202
0.07396767525545773
-0.049905486157740625
-0.5606617654443202
0.07396767525545773
-0.049905486157740625
-0.5606617654443202
0.07396767525545773
-0.049905486157740625
-0.5606617654443202
0.07396767525545773
-0.049905486157740625
-0.5607472663265016
0.07332827508071696
-0.049470370380269184
-0.5607472663265016
0.07332827508071696
-0.049470370380269184
-0.5607472663265016
0.07332827508071696
-0.049470370380269184
-0.5607472663265016
0.07332827508071696
-0.049470370380269184
-0.5610672955331981
0.07252968951287242
-0.04912560689470324
-0.5610672955331981
0.07252968951287242
-0.04912560689470324
-0.5610672955331981
0.07252968951287242
-0.04912560689470324
-0.5610672955331981
0.07252968951287242
-0.04912560689470324
-0.5612755482270346
0.0721545377792928
-0.04864423453672609
-0.5612755482270346
0.0721545377792928
-0.04864423453672609
-0.5612755482270346
0.0721545377792928
-0.04864423453672609
-0.5612755482270346
0.0721545377792928
-0.04864423453672609
-0.5613095172580311
0.07215794552121135
-0.04864831507913237
-0.5613095172580311
0.07215794552121135
-0.04864831507913237
-0.5613095172580311
0.07215794552121135
-0.04864831507913237
-0.5613095172580311
0.07215794552121135
-0.04864831507913237
-0.5612755482270346
0.0721545377792928
-0.04864423453672609
-0.5612755482270346
0.0721545377792928
-0.04864423453672609
-0.5612755482270346
0.0721545377792928
-0.04864423453672609
-0.5612755482270346
0.0721545377792928
-0.04864423453672609
-0.5618030597978041
0.07224680220280846
-0.048313707317396544
-0.5618030597978041
0.07224680220280846
-0.048313707317396544
-0.5618030597978041
0.07224680220280846
-0.048313707317396544
-0.5618030597978041
0.07224680220280846
-0.048313707317396544
-0.5621768561551681
0.07267593592797099
-0.04769140596516758
-0.5621768561551681
0.07267593592797099
-0.04769140596516758
-0.5621768561551681
0.07267593592797099
-0.04769140596516758
-0.5621768561551681
0.07267593592797099
-0.04769140596516758
-0.562288977051153
0.07319300904772345
-0.04720971380334491
-0.562288977051153
0.07319300904772345
-0.04720971380334491
-0.562288977051153
0.07319300904772345
-0.04720971380334491
-0.562288977051153
0.07319300904772345
-0.04720971380334491
-0.562288977051153
0.07319300904772345
-0.04720971380334491
-0.562288977051153
0.07319300904772345
-0.04720971380334491
-0.562288977051153
0.07319300904772345
-0.04720971380334491
-0.562288977051153
0.07319300904772345
-0.04720971380334491
-0.5623949117367905
0.07298868294581926
-0.04702769920004206
-0.5623949117367905
0.07298868294581926
-0.04702769920004206
-0.5623949117367905
0.07298868294581926
-0.04702769920004206
-0.5623949117367905
0.07298868294581926
-0.04702769920004206
-0.5622545495467572
0.07259199009585957
-0.046653204575358966
-0.5622545495467572
0.07259199009585957
-0.046653204575358966
-0.5622545495467572
0.07259199009585957
-0.046653204575358966
-0.5622545495467572
0.07259199009585957
-0.046653204575358966
-0.5623107685687846
0.07191570327328406
-0.046331117674933545
-0.5623107685687846
0.07191570327328406
-0.046331117674933545
-0.5623107685687846
0.07191570327328406
-0.046331117674933545
-0.5623107685687846
0.07191570327328406
-0.046331117674933545
-0.5627831194166868
0.07096637623608598
-0.046076415511190696
-0.5627831194166868
0.07096637623608598
-0.046076415511190696
-0.5627831194166868
0.07096637623608598
-0.046076415511190696
-0.5627831194166868
0.07096637623608598
-0.046076415511190696
-0.5630131002589149
0.0697906200043287
-0.04574648688519154
-0.5630131002589149
0.0697906200043287
-0.04574648688519154
-0.5630131002589149
0.0697906200043287
-0.04574648688519154
-0.5630131002589149
0.0697906200043287
-0.04574648688519154
-0.5630990909771697
0.06869855618781462
-0.04556066451207003
-0.5630990909771697
0.06869855618781462
-0.04556066451207003
-0.5630990909771697
0.06869855618781462
-0.04556066451207003
-0.5630990909771697
0.06869855618781462
-0.04556066451207003
-0.5634239046720347
0.06771602175894575
-0.04541523441475226
-0.5634239046720347
0.06771602175894575
-0.04541523441475226
-0.5634239046720347
0.06771602175894575
-0.04541523441475226
-0.5634239046720347
0.06771602175894575
-0.04541523441475226
-0.5638996500675622
0.06658180429549874
-0.04535973477886864
-0.5638996500675622
0.06658180429549874
-0.04535973477886864
-0.5638996500675622
0.06658180429549874
-0.04535973477886864
-0.5638996500675622
0.06658180429549874
-0.04535973477886864
-0.5641072592122234
0.06560321434311307
-0.045210509778142144
-0.5641072592122234
0.06560321434311307
-0.045210509778142144
-0.5641072592122234
0.06560321434311307
-0.045210509778142144
-0.5641072592122234
0.06560321434311307
-0.045210509778142144
-0.5641072592122234
0.06560321434311307
-0.045210509778142144
-0.5641072592122234
0.06560321434311307
-0.045210509778142144
-0.5641072592122234
0.06560321434311307
-0.045210509778142144
-0.5641072592122234
0.06560321434311307
-0.045210509778142144
-0.5648797506329218
0.06558678161111771
-0.04523654439513367
-0.5648797506329218
0.06558678161111771
-0.04523654439513367
-0.5648797506329218
0.06558678161111771
-0.04523654439513367
-0.5648797506329218
0.06558678161111771
-0.04523654439513367
-0.5654952233172199
0.06579047086676902
-0.044937844279203
-0.5654952233172199
0.06579047086676902
-0.044937844279203
-0.5654952233172199
0.06579047086676902
-0.044937844279203
-0.5654952233172199
0.06579047086676902
-0.044937844279203
-0.5657660672349617
0.06623974361594988
-0.04469835505903408
-0.5657660672349617
0.06623974361594988
-0.04469835505903408
-0.5657660672349617
0.06623974361594988
-0.04469835505903408
-0.5657660672349617
0.06623974361594988
-0.04469835505903408
-0.5656542844697671
0.06681426686359766
-0.04447995338367804
-0.5656542844697671
0.06681426686359766
-0.04447995338367804
-0.5656542844697671
0.06681426686359766
-0.04447995338367804
-0.5656542844697671
0.06681426686359766
-0.04447995338367804
-0.5656542844697671
0.06681426686359766
-0.04447995338367804
-0.5656542844697671
0.06681426686359766
-0.04447995338367804
-0.5656542844697671
0.06681426686359766
-0.04447995338367804
-0.5656542844697671
0.06681426686359766
-0.04447995338367804
-0.5657753970822428
0.06692761889500741
-0.044517325726548075
-0.5657753970822428
0.06692761889500741
-0.044517325726548075
-0.5657753970822428
0.06692761889500741
-0.044517325726548075
-0.5657753970822428
0.06692761889500741
-0.044517325726548075
-0.5657753970822428
0.06692761889500741
-0.044517325726548075
-0.5657753970822428
0.06692761889500741
-0.044517325726548075
-0.5657753970822428
0.06692761889500741
-0.044517325726548075
-0.5657753970822428
0.06692761889500741
-0.044517325726548075
-0.5659888168745062
0.0665200587767574
-0.0441520857839832
-0.5659888168745062
0.0665200587767574
-0.0441520857839832
-0.5659888168745062
0.0665200587767574
-0.0441520857839832
-0.5659888168745062
0.0665200587767574
-0.0441520857839832
-0.5664712883071727
0.06610833867946282
-0.04379675116565675
-0.5664712883071727
0.06610833867946282
-0.04379675116565675
-0.5664712883071727
0.06610833867946282
-0.04379675116565675
-0.5664712883071727
0.06610833867946282
-0.04379675116565675
-0.5669876023658402
0.06554861042280534
-0.043527959688811534
-0.5669876023658402
0.06554861042280534
-0.043527959688811534
-0.5669876023658402
0.06554861042280534
-0.043527959688811534
-0.5669876023658402
0.06554861042280534
-0.043527959688811534
-0.5670877502091951
0.0652621149409869
-0.04319355722514704
-0.5670877502091951
0.0652621149409869
-0.04319355722514704
-0.5670877502091951
0.0652621149409869
-0.04319355722514704
-0.5670877502091951
0.0652621149409869
-0.04319355722514704
-0.5662981224901568
0.06499483012145377
-0.04283031039712165
-0.5662981224901568
0.06499483012145377
-0.04283031039712165
-0.5662981224901568
0.06499483012145377
-0.04283031039712165
-0.5662981224901568
0.06499483012145377
-0.04283031039712165
-0.5655086168025911
0.06472726290362661
-0.042467286533024486
-0.5655086168025911
0.06472726290362661
-0.042467286533024486
-0.5655086168025911
0.06472726290362661
-0.042467286533024486
-0.5655086168025911
0.06472726290362661
-0.042467286533024486
-0.5646151644805284
0.0646291108283244
-0.042404421522445855
-0.5646151644805284
0.0646291108283244
-0.042404421522445855
-0.5646151644805284
0.0646291108283244
-0.042404421522445855
-0.5646151644805284
0.0646291108283244
-0.042404421522445855
-0.5619712380028792
0.06471674459116103
-0.04309072341246334
-0.5619712380028792
0.06471674459116103
-0.04309072341246334
-0.5619712380028792
0.06471674459116103
-0.04309072341246334
-0.5619712380028792
0.06471674459116103
-0.04309072341246334
-0.5585777174677
0.0648879046492249
-0.044405928955160094
-0.5585777174677
0.0648879046492249
-0.044405928955160094
-0.5585777174677
0.0648879046492249
-0.044405928955160094
-0.5585777174677
0.0648879046492249
-0.044405928955160094
-0.554103900721099
0.06529551002489545
-0.045873728455785585
-0.554103900721099
0.06529551002489545
-0.045873728455785585
-0.554103900721099
0.06529551002489545
-0.045873728455785585
-0.554103900721099
0.06529551002489545
-0.045873728455785585
-0.5482651208124489
0.06392616933875989
-0.04424332879436228
-0.5482651208124489
0.06392616933875989
-0.04424332879436228
-0.5482651208124489
0.06392616933875989
-0.04424332879436228
-0.5482651208124489
0.06392616933875989
-0.04424332879436228
-0.5458916400681728
0.0644686693596865
-0.04468558027027907
-0.5458916400681728
0.0644686693596865
-0.04468558027027907
-0.5458916400681728
0.0644686693596865
-0.04468558027027907
-0.5458916400681728
0.0644686693596865
-0.04468558027027907
-0.5506164408157975
0.06895695459914251
-0.04791605595218396
-0.5506164408157975
0.06895695459914251
-0.04791605595218396
-0.5506164408157975
0.06895695459914251
-0.04791605595218396
-0.5506164408157975
0.06895695459914251
-0.04791605595218396
-0.5714924348708186
0.07338435124958025
-0.051357778778566884
-0.5714924348708186
0.07338435124958025
-0.051357778778566884
-0.5714924348708186
0.07338435124958025
-0.051357778778566884
-0.5714924348708186
0.07338435124958025
-0.051357778778566884
-0.6061596951199082
0.07388742404505703
-0.055110345064955345
-0.6061596951199082
0.07388742404505703
-0.055110345064955345
-0.6061596951199082
0.07388742404505703
-0.055110345064955345
-0.6061596951199082
0.07388742404505703
-0.055110345064955345
-0.6533563082155204
0.07047163638172131
-0.05922097643051569
-0.6533563082155204
0.07047163638172131
-0.05922097643051569
-0.6533563082155204
0.07047163638172131
-0.05922097643051569
-0.6533563082155204
0.07047163638172131
-0.05922097643051569
-0.7137549874114963
0.06741269174028926
-0.06711533688129394
-0.7137549874114963
0.06741269174028926
-0.06711533688129394
-0.7137549874114963
0.06741269174028926
-0.06711533688129394
-0.7137549874114963
0.06741269174028926
-0.06711533688129394
-0.7831224198750861
0.06961502826071216
-0.08015526151910284
-0.7831224198750861
0.06961502826071216
-0.08015526151910284
-0.7831224198750861
0.06961502826071216
-0.08015526151910284
-0.7831224198750861
0.06961502826071216
-0.08015526151910284
-0.8557440285705133
0.07179535870829294
-0.0926292847976434
-0.8557440285705133
0.07179535870829294
-0.0926292847976434
-0.8557440285705133
0.07179535870829294
-0.0926292847976434
-0.8557440285705133
0.07179535870829294
-0.0926292847976434
-0.895241197847815
0.07450880921765772
-0.10719892480820754
-0.895241197847815
0.07450880921765772
-0.10719892480820754
-0.895241197847815
0.07450880921765772
-0.10719892480820754
-0.895241197847815
0.07450880921765772
-0.10719892480820754
-0.9002846771743276
0.07679836047080549
-0.12749758708302303
-0.9002846771743276
0.07679836047080549
-0.12749758708302303
-0.9002846771743276
0.07679836047080549
-0.12749758708302303
-0.9002846771743276
0.07679836047080549
-0.12749758708302303
-0.9012586416777403
0.07778680346233678
-0.14570450836696902
-0.9012586416777403
0.07778680346233678
-0.14570450836696902
-0.9012586416777403
0.07778680346233678
-0.14570450836696902
-0.9012586416777403
0.07778680346233678
-0.14570450836696902
-0.9145344389844174
0.07819261356837887
-0.15821538439032695
-0.9145344389844174
0.07819261356837887
-0.15821538439032695
-0.9145344389844174
0.07819261356837887
-0.15821538439032695
-0.9145344389844174
0.07819261356837887
-0.15821538439032695
-0.9297975280485873
0.07743579006071463
-0.1675181495473466
-0.9297975280485873
0.07743579006071463
-0.1675181495473466
-0.9297975280485873
0.07743579006071463
-0.1675181495473466
-0.9297975280485873
0.07743579006071463
-0.1675181495473466
-0.9393251003336859
0.07585447720303747
-0.17352615000709504
-0.9393251003336859
0.07585447720303747
-0.17352615000709504
-0.9393251003336859
0.07585447720303747
-0.17352615000709504
-0.9393251003336859
0.07585447720303747
-0.17352615000709504
-0.9474064500399524
0.07156862007917383
-0.17680196837238443
-0.9474064500399524
0.07156862007917383
-0.17680196837238443
-0.9474064500399524
0.07156862007917383
-0.17680196837238443
-0.9474064500399524
0.07156862007917383
-0.17680196837238443
-0.9455052404165073
0.06673249713353531
-0.17869826371949718
-0.9455052404165073
0.06673249713353531
-0.17869826371949718
-0.9455052404165073
0.06673249713353531
-0.17869826371949718
-0.9455052404165073
0.06673249713353531
-0.17869826371949718
-0.9415113147439761
0.06329785347653784
-0.18005890829124593
-0.9415113147439761
0.06329785347653784
-0.18005890829124593
-0.9415113147439761
0.06329785347653784
-0.18005890829124593
-0.9415113147439761
0.06329785347653784
-0.18005890829124593
-0.945592486387769
0.060954879269259354
-0.18055236024356186
-0.945592486387769
0.060954879269259354
-0.18055236024356186
-0.945592486387769
0.060954879269259354
-0.18055236024356186
-0.945592486387769
0.060954879269259354
-0.18055236024356186
-0.9509199645743492
0.05996528156647423
-0.18195912418461438
-0.9509199645743492
0.05996528156647423
-0.18195912418461438
-0.9509199645743492
0.05996528156647423
-0.18195912418461438
-0.9509199645743492
0.05996528156647423
-0.18195912418461438
-0.9485571684087059
0.06027228383637033
-0.18441838480887562
-0.9485571684087059
0.06027228383637033
-0.18441838480887562
-0.9485571684087059
0.06027228383637033
-0.18441838480887562
-0.9485571684087059
0.06027228383637033
-0.18441838480887562
-0.9435785853761077
0.061757270093538166
-0.18740556035872874
-0.9435785853761077
0.061757270093538166
-0.18740556035872874
-0.9435785853761077
0.061757270093538166
-0.18740556035872874
-0.9435785853761077
0.061757270093538166
-0.18740556035872874
-0.9447811287051288
0.06387985495000156
-0.1895481335727735
-0.9447811287051288
0.06387985495000156
-0.1895481335727735
-0.9447811287051288
0.06387985495000156
-0.1895481335727735
-0.9447811287051288
0.06387985495000156
-0.1895481335727735
-0.9484251143649927
0.06622151229859463
-0.1900906163545655
-0.9484251143649927
0.06622151229859463
-0.1900906163545655
-0.9484251143649927
0.06622151229859463
-0.1900906163545655
-0.9484251143649927
0.06622151229859463
-0.1900906163545655
-0.9473300988295388
0.06857791573191364
-0.18997954090212818
-0.9473300988295388
0.06857791573191364
-0.18997954090212818
-0.9473300988295388
0.06857791573191364
-0.18997954090212818
-0.9473300988295388
0.06857791573191364
-0.18997954090212818
-0.9428341187910767
0.0704322735743239
-0.1897309649855183
-0.9428341187910767
0.0704322735743239
-0.1897309649855183
-0.9428341187910767
0.0704322735743239
-0.1897309649855183
-0.9428341187910767
0.0704322735743239
-0.1897309649855183
-0.937675301028541
0.07086735328744846
-0.18855712841773475
-0.937675301028541
0.07086735328744846
-0.18855712841773475
-0.937675301028541
0.07086735328744846
-0.18855712841773475
-0.937675301028541
0.07086735328744846
-0.18855712841773475
-0.9367874917706764
0.07150440567708943
-0.1866149178390345
-0.9367874917706764
0.07150440567708943
-0.1866149178390345
-0.9367874917706764
0.07150440567708943
-0.1866149178390345
-0.9367874917706764
0.07150440567708943
-0.1866149178390345
-0.935343036169774
0.07169404885421451
-0.18562922562150558
-0.935343036169774
0.07169404885421451
-0.18562922562150558
-0.935343036169774
0.07169404885421451
-0.18562922562150558
-0.935343036169774
0.07169404885421451
-0.18562922562150558
-0.9307258008500531
0.07080482475612557
-0.18616411536685487
-0.9307258008500531
0.07080482475612557
-0.18616411536685487
-0.9307258008500531
0.07080482475612557
-0.18616411536685487
-0.9307258008500531
0.07080482475612557
-0.18616411536685487
-0.9269426900233141
0.06946051452215138
-0.1866880846949931
-0.9269426900233141
0.06946051452215138
-0.1866880846949931
-0.9269426900233141
0.06946051452215138
-0.1866880846949931
-0.9269426900233141
0.06946051452215138
-0.1866880846949931
-0.925429775653405
0.06900124932902557
-0.18702174205872468
-0.925429775653405
0.06900124932902557
-0.18702174205872468
-0.925429775653405
0.06900124932902557
-0.18702174205872468
-0.925429775653405
0.06900124932902557
-0.18702174205872468
-0.9239999552788863
0.06825880208993435
-0.18735430553666718
-0.9239999552788863
0.06825880208993435
-0.18735430553666718
-0.9239999552788863
0.06825880208993435
-0.18735430553666718
-0.9239999552788863
0.06825880208993435
-0.18735430553666718
-0.9217568841403571
0.06737588822479229
-0.1883677736746279
-0.9217568841403571
0.06737588822479229
-0.1883677736746279
-0.9217568841403571
0.06737588822479229
-0.1883677736746279
-0.9217568841403571
0.06737588822479229
-0.1883677736746279
-0.9201983119221385
0.0666039276853058
-0.189915558599358
-0.9201983119221385
0.0666039276853058
-0.189915558599358
-0.9201983119221385
0.0666039276853058
-0.189915558599358
-0.9201983119221385
0.0666039276853058
-0.189915558599358
-0.9179844834793992
0.0652365478178982
-0.19165287305190543
-0.9179844834793992
0.0652365478178982
-0.19165287305190543
-0.9179844834793992
0.0652365478178982
-0.19165287305190543
-0.9179844834793992
0.0652365478178982
-0.19165287305190543
-0.9164829399705915
0.06495959438918837
-0.193583616442577
-0.9164829399705915
0.06495959438918837
-0.193583616442577
-0.9164829399705915
0.06495959438918837
-0.193583616442577
-0.9164829399705915
0.06495959438918837
-0.193583616442577
-0.9153510207260488
0.06425332486704008
-0.19463828909160255
-0.9153510207260488
0.06425332486704008
-0.19463828909160255
-0.9153510207260488
0.06425332486704008
-0.19463828909160255
-0.9153510207260488
0.06425332486704008
-0.19463828909160255
-0.9155026474162304
0.06331638723230706
-0.19542569885600589
-0.9155026474162304
0.06331638723230706
-0.19542569885600589
-0.9155026474162304
0.06331638723230706
-0.19542569885600589
-0.9155026474162304
0.06331638723230706
-0.19542569885600589
-0.9146432248179863
0.06263898414257899
-0.19638118356516063
-0.9146432248179863
0.06263898414257899
-0.19638118356516063
-0.9146432248179863
0.06263898414257899
-0.19638118356516063
-0.9146432248179863
0.06263898414257899
-0.19638118356516063
-0.9126612920065632
0.062190219676931946
-0.19764297970330394
-0.9126612920065632
0.062190219676931946
-0.19764297970330394
-0.9126612920065632
0.062190219676931946
-0.19764297970330394
-0.9126612920065632
0.062190219676931946
-0.19764297970330394
-0.9110162519871384
0.06121656601292542
-0.19907799235872642
-0.9110162519871384
0.06121656601292542
-0.19907799235872642
-0.9110162519871384
0.06121656601292542
-0.19907799235872642
-0.9110162519871384
0.06121656601292542
-0.19907799235872642
-0.9110603405569042
0.06073224085332068
-0.20034410721520615
-0.9110603405569042
0.06073224085332068
-0.20034410721520615
-0.9110603405569042
0.06073224085332068
-0.20034410721520615
-0.9110603405569042
0.06073224085332068
-0.20034410721520615
-0.9124719876766645
0.06032614874939613
-0.20121609493859302
-0.9124719876766645
0.06032614874939613
-0.20121609493859302
-0.9124719876766645
0.06032614874939613
-0.20121609493859302
-0.9124719876766645
0.06032614874939613
-0.20121609493859302
-0.9121999345059958
0.060139510541052175
-0.20191569783565874
-0.9121999345059958
0.060139510541052175
-0.20191569783565874
-0.9121999345059958
0.060139510541052175
-0.20191569783565874
-0.9121999345059958
0.060139510541052175
-0.20191569783565874
-0.9092827236990635
0.05945116380988135
-0.20216569102195783
-0.9092827236990635
0.05945116380988135
-0.20216569102195783
-0.9092827236990635
0.05945116380988135
-0.20216569102195783
-0.9092827236990635
0.05945116380988135
-0.20216569102195783
-0.906835902030996
0.05899461872330785
-0.20270637016585766
-0.906835902030996
0.05899461872330785
-0.20270637016585766
-0.906835902030996
0.05899461872330785
-0.20270637016585766
-0.906835902030996
0.05899461872330785
-0.20270637016585766
-0.9064775712929563
0.05898735766219381
-0.20362510666912523
-0.9064775712929563
0.05898735766219381
-0.20362510666912523
-0.9064775712929563
0.05898735766219381
-0.20362510666912523
-0.9064775712929563
0.05898735766219381
-0.20362510666912523
-0.9061427286367704
0.05865332158739001
-0.20466780913475624
-0.9061427286367704
0.05865332158739001
-0.20466780913475624
-0.9061427286367704
0.05865332158739001
-0.20466780913475624
-0.9061427286367704
0.05865332158739001
-0.20466780913475624
-0.9046110685433268
0.05893581032670575
-0.2057718015125436
-0.9046110685433268
0.05893581032670575
-0.2057718015125436
-0.9046110685433268
0.05893581032670575
-0.2057718015125436
-0.9046110685433268
0.05893581032670575
-0.2057718015125436
-0.9028040127296943
0.059352114372052886
-0.20637662366441087
-0.9028040127296943
0.059352114372052886
-0.20637662366441087
-0.9028040127296943
0.059352114372052886
-0.20637662366441087
-0.9028040127296943
0.059352114372052886
-0.20637662366441087
-0.8997508783069699
0.058957937702972564
-0.20661736480497817
-0.8997508783069699
0.058957937702972564
-0.20661736480497817
-0.8997508783069699
0.058957937702972564
-0.20661736480497817
-0.8997508783069699
0.058957937702972564
-0.20661736480497817
-0.8974624096360236
0.05908896246428547
-0.20677087071713496
-0.8974624096360236
0.05908896246428547
-0.20677087071713496
-0.8974624096360236
0.05908896246428547
-0.20677087071713496
-0.8974624096360236
0.05908896246428547
-0.20677087071713496
-0.8957576517798714
0.059052788631306204
-0.20690101936882005
-0.8957576517798714
0.059052788631306204
-0.20690101936882005
-0.8957576517798714
0.059052788631306204
-0.20690101936882005
-0.8957576517798714
0.059052788631306204
-0.20690101936882005
-0.8946189968025888
0.05956568360404826
-0.2074622696340736
-0.8946189968025888
0.05956568360404826
-0.2074622696340736
-0.8946189968025888
0.05956568360404826
-0.2074622696340736
-0.8946189968025888
0.05956568360404826
-0.2074622696340736
-0.8944077557827029
0.06003445334658329
-0.20793718528554167
-0.8944077557827029
0.06003445334658329
-0.20793718528554167
-0.8944077557827029
0.06003445334658329
-0.20793718528554167
-0.8944077557827029
0.06003445334658329
-0.20793718528554167
-0.8940197708040053
0.0602631595023389
-0.20897671463183115
-0.8940197708040053
0.0602631595023389
-0.20897671463183115
-0.8940197708040053
0.0602631595023389
-0.20897671463183115
-0.8940197708040053
0.0602631595023389
-0.20897671463183115
-0.8931756672311886
0.06086233868329595
-0.20987024092317647
-0.8931756672311886
0.06086233868329595
-0.20987024092317647
-0.8931756672311886
0.06086233868329595
-0.20987024092317647
-0.8931756672311886
0.06086233868329595
-0.20987024092317647
-0.8922705366406574
0.06102121205588599
-0.2102802053362124
-0.8922705366406574
0.06102121205588599
-0.2102802053362124
-0.8922705366406574
0.06102121205588599
-0.2102802053362124
-0.8922705366406574
0.06102121205588599
-0.2102802053362124
-0.8923012422429767
0.061345209855399756
-0.2101668295944503
-0.8923012422429767
0.061345209855399756
-0.2101668295944503
-0.8923012422429767
0.061345209855399756
-0.2101668295944503
-0.8923012422429767
0.061345209855399756
-0.2101668295944503
-0.8921017953691137
0.06207824042261581
-0.21009347607582413
-0.8921017953691137
0.06207824042261581
-0.21009347607582413
-0.8921017953691137
0.06207824042261581
-0.21009347607582413
-0.8921017953691137
0.06207824042261581
-0.21009347607582413
-0.8908038809032788
0.0624289123097648
-0.20962368243949772
-0.8908038809032788
0.0624289123097648
-0.20962368243949772
-0.8908038809032788
0.0624289123097648
-0.20962368243949772
-0.8908038809032788
0.0624289123097648
-0.20962368243949772
-0.8899652336734045
0.06304619521789195
-0.2087595919897332
-0.8899652336734045
0.06304619521789195
-0.2087595919897332
-0.8899652336734045
0.06304619521789195
-0.2087595919897332
-0.8899652336734045
0.06304619521789195
-0.2087595919897332
-0.888843057282509
0.0636340041750086
-0.2077235496534607
-0.888843057282509
0.0636340041750086
-0.2077235496534607
-0.888843057282509
0.0636340041750086
-0.2077235496534607
-0.888843057282509
0.0636340041750086
-0.2077235496534607
-0.8882959291023904
0.06384335307960153
-0.2071043979597656
-0.8882959291023904
0.06384335307960153
-0.2071043979597656
-0.8882959291023904
0.06384335307960153
-0.2071043979597656
-0.8882959291023904
0.06384335307960153
-0.2071043979597656
-0.8883240117461876
0.06411467240172172
-0.2071000021475907
-0.8883240117461876
0.06411467240172172
-0.2071000021475907
-0.8883240117461876
0.06411467240172172
-0.2071000021475907
-0.8883240117461876
0.06411467240172172
-0.2071000021475907
-0.8878363806116099
0.06401581080010421
-0.2076953499258706
-0.8878363806116099
0.06401581080010421
-0.2076953499258706
-0.8878363806116099
0.06401581080010421
-0.2076953499258706
-0.8878363806116099
0.06401581080010421
-0.2076953499258706
-0.8881248190358678
0.06394402573440429
-0.20835796454521133
-0.8881248190358678
0.06394402573440429
-0.20835796454521133
-0.8881248190358678
0.06394402573440429
-0.20835796454521133
-0.8881248190358678
0.06394402573440429
-0.20835796454521133
-0.8894650093933981
0.06353594439867025
-0.20868021143728763
-0.8894650093933981
0.06353594439867025
-0.20868021143728763
-0.8894650093933981
0.06353594439867025
-0.20868021143728763
-0.8894650093933981
0.06353594439867025
-0.20868021143728763
-0.8896236289509969
0.0624224777243517
-0.20870625026562142
-0.8896236289509969
0.0624224777243517
-0.20870625026562142
-0.8896236289509969
0.0624224777243517
-0.20870625026562142
-0.8896236289509969
0.0624224777243517
-0.20870625026562142
-0.8897311509849618
0.062356798968154686
-0.20881377229958617
-0.8897311509849618
0.062356798968154686
-0.20881377229958617
-0.8897311509849618
0.062356798968154686
-0.20881377229958617
-0.8897311509849618
0.062356798968154686
-0.20881377229958617
-0.8900704104114268
0.06214098186628129
-0.2080620911181372
-0.8900704104114268
0.06214098186628129
-0.2080620911181372
-0.8900704104114268
0.06214098186628129
-0.2080620911181372
-0.8900704104114268
0.06214098186628129
-0.2080620911181372
-0.8896778012657525
0.06177784266679371
-0.2071760725159383
-0.8896778012657525
0.06177784266679371
-0.2071760725159383
-0.8896778012657525
0.06177784266679371
-0.2071760725159383
-0.8896778012657525
0.06177784266679371
-0.2071760725159383
-0.8882001541857418
0.06157853934416447
-0.20614499983365564
-0.8882001541857418
0.06157853934416447
-0.20614499983365564
-0.8882001541857418
0.06157853934416447
-0.20614499983365564
-0.8882001541857418
0.06157853934416447
-0.20614499983365564
-0.8878251169683624
0.0614285891739169
-0.2050927798958807
-0.8878251169683624
0.0614285891739169
-0.2050927798958807
-0.8878251169683624
0.0614285891739169
-0.2050927798958807
-0.8878251169683624
0.0614285891739169
-0.2050927798958807
-0.8879040893051477
0.06129729658075672
-0.20449447699346143
-0.8879040893051477
0.06129729658075672
-0.20449447699346143
-0.8879040893051477
0.06129729658075672
-0.20449447699346143
-0.8879040893051477
0.06129729658075672
-0.20449447699346143
-0.8873553950094305
0.06145297455579944
-0.20398548623418414
-0.8873553950094305
0.06145297455579944
-0.20398548623418414
-0.8873553950094305
0.06145297455579944
-0.20398548623418414
-0.8873553950094305
0.06145297455579944
-0.20398548623418414
-0.8859703032103172
0.06137197819126066
-0.20383589056179072
-0.8859703032103172
0.06137197819126066
-0.20383589056179072
-0.8859703032103172
0.06137197819126066
-0.20383589056179072
-0.8859703032103172
0.06137197819126066
-0.20383589056179072
-0.8843994330825257
0.06113873230817505
-0.20346102435789745
-0.8843994330825257
0.06113873230817505
-0.20346102435789745
-0.8843994330825257
0.06113873230817505
-0.20346102435789745
-0.8843994330825257
0.06113873230817505
-0.20346102435789745
-0.8837261464378021
0.061144181323828
-0.20301113989087935
-0.8837261464378021
0.061144181323828
-0.20301113989087935
-0.8837261464378021
0.061144181323828
-0.20301113989087935
-0.8837261464378021
0.061144181323828
-0.20301113989087935
-0.8840503782745609
0.06120539834965264
-0.20251394177538992
-0.8840503782745609
0.06120539834965264
-0.20251394177538992
-0.8840503782745609
0.06120539834965264
-0.20251394177538992
-0.8840503782745609
0.06120539834965264
-0.20251394177538992
-0.8832762115748947
0.06122829894613653
-0.20233780285026634
-0.8832762115748947
0.06122829894613653
-0.20233780285026634
-0.8832762115748947
0.06122829894613653
-0.20233780285026634
-0.8832762115748947
0.06122829894613653
-0.20233780285026634
-0.8816007376692527
0.06200542449189685
-0.20243729178820669
-0.8816007376692527
0.06200542449189685
-0.20243729178820669
-0.8816007376692527
0.06200542449189685
-0.20243729178820669
-0.8816007376692527
0.06200542449189685
-0.20243729178820669
-0.8808636631241458
0.06279742183255302
-0.20261340188197635
-0.8808636631241458
0.06279742183255302
-0.20261340188197635
-0.8808636631241458
0.06279742183255302
-0.20261340188197635
-0.8808636631241458
0.06279742183255302
-0.20261340188197635
-0.8804799513516348
0.06498203574284851
-0.20267554180494016
-0.8804799513516348
0.06498203574284851
-0.20267554180494016
-0.8804799513516348
0.06498203574284851
-0.20267554180494016
-0.8804799513516348
0.06498203574284851
-0.20267554180494016
-0.878899703560942
0.06778147222239202
-0.2027848712157135
-0.878899703560942
0.06778147222239202
-0.2027848712157135
-0.878899703560942
0.06778147222239202
-0.2027848712157135
-0.878899703560942
0.06778147222239202
-0.2027848712157135
-0.8767753262154693
0.07173393233133182
-0.2028469708734847
-0.8767753262154693
0.07173393233133182
-0.2028469708734847
-0.8767753262154693
0.07173393233133182
-0.2028469708734847
-0.8767753262154693
0.07173393233133182
-0.2028469708734847
-0.8728890641428229
0.07830591816834918
-0.2016919844478906
-0.8728890641428229
0.07830591816834918
-0.2016919844478906
-0.8728890641428229
0.07830591816834918
-0.2016919844478906
-0.8728890641428229
0.07830591816834918
-0.2016919844478906
-0.8636845481155881
0.08684042674959096
-0.198928129394082
-0.8636845481155881
0.08684042674959096
-0.198928129394082
-0.8636845481155881
0.08684042674959096
-0.198928129394082
-0.8636845481155881
0.08684042674959096
-0.198928129394082
-0.8487482868630386
0.09548951125821478
-0.194956432893952
-0.8487482868630386
0.09548951125821478
-0.194956432893952
-0.8487482868630386
0.09548951125821478
-0.194956432893952
-0.8487482868630386
0.09548951125821478
-0.194956432893952
-0.8319876466574108
0.10421975587476001
-0.1902131772838028
-0.8319876466574108
0.10421975587476001
-0.1902131772838028
-0.8319876466574108
0.10421975587476001
-0.1902131772838028
-0.8319876466574108
0.10421975587476001
-0.1902131772838028
-0.810136396547408
0.11230294176681
-0.18501093290734974
-0.810136396547408
0.11230294176681
-0.18501093290734974
-0.810136396547408
0.11230294176681
-0.18501093290734974
-0.810136396547408
0.11230294176681
-0.18501093290734974
-0.7827080574114446
0.11859368619483872
-0.17947241424445695
-0.7827080574114446
0.11859368619483872
-0.17947241424445695
-0.7827080574114446
0.11859368619483872
-0.17947241424445695
-0.7827080574114446
0.11859368619483872
-0.17947241424445695
-0.7539616893141414
0.1215787598653474
-0.17397412500251802
-0.7539616893141414
0.1215787598653474
-0.17397412500251802
-0.7539616893141414
0.1215787598653474
-0.17397412500251802
-0.7539616893141414
0.1215787598653474
-0.17397412500251802
-0.725661465012952
0.1229845069070915
-0.16765375225195236
-0.725661465012952
0.1229845069070915
-0.16765375225195236
-0.725661465012952
0.1229845069070915
-0.16765375225195236
-0.725661465012952
0.1229845069070915
-0.16765375225195236
-0.6967410885764
0.12419718057507609
-0.16008638247769288
-0.6967410885764
0.12419718057507609
-0.16008638247769288
-0.6967410885764
0.12419718057507609
-0.16008638247769288
-0.6967410885764
0.12419718057507609
-0.16008638247769288
-0.6673534239721082
0.12536474625437552
-0.15291686686697084
-0.6673534239721082
0.12536474625437552
-0.15291686686697084
-0.6673534239721082
0.12536474625437552
-0.15291686686697084
-0.6673534239721082
0.12536474625437552
-0.15291686686697084
-0.635921497901539
0.12527168070721909
-0.14663410421078796
-0.635921497901539
0.12527168070721909
-0.14663410421078796
-0.635921497901539
0.12527168070721909
-0.14663410421078796
-0.635921497901539
0.12527168070721909
-0.14663410421078796
-0.6023463119584235
0.12358176533170519
-0.14244678672469954
-0.6023463119584235
0.12358176533170519
-0.14244678672469954
-0.6023463119584235
0.12358176533170519
-0.14244678672469954
-0.6023463119584235
0.12358176533170519
-0.14244678672469954
-0.5675861792314972
0.11958607415528405
-0.13914618387461797
-0.5675861792314972
0.11958607415528405
-0.13914618387461797
-0.5675861792314972
0.11958607415528405
-0.13914618387461797
-0.5675861792314972
0.11958607415528405
-0.13914618387461797
-0.5384430598655938
0.11292799739617039
-0.13509615816365284
-0.5384430598655938
0.11292799739617039
-0.13509615816365284
-0.5384430598655938
0.11292799739617039
-0.13509615816365284
-0.5384430598655938
0.11292799739617039
-0.13509615816365284
-0.5163040620801104
0.10405245787805964
-0.12980673370051338
-0.5163040620801104
0.10405245787805964
-0.12980673370051338
-0.5163040620801104
0.10405245787805964
-0.12980673370051338
-0.5163040620801104
0.10405245787805964
-0.12980673370051338
-0.49887325139653294
0.09407641352238164
-0.12427005617724339
-0.49887325139653294
0.09407641352238164
-0.12427005617724339
-0.49887325139653294
0.09407641352238164
-0.12427005617724339
-0.49887325139653294
0.09407641352238164
-0.12427005617724339
-0.4858663871620473
0.0844965320452735
-0.1186628957255634
-0.4858663871620473
0.0844965320452735
-0.1186628957255634
-0.4858663871620473
0.0844965320452735
-0.1186628957255634
-0.4858663871620473
0.0844965320452735
-0.1186628957255634
-0.4760469947313927
0.07591935678631692
-0.11336114404981834
-0.4760469947313927
0.07591935678631692
-0.11336114404981834
-0.4760469947313927
0.07591935678631692
-0.11336114404981834
-0.4760469947313927
0.07591935678631692
-0.11336114404981834
-0.4677221974366793
0.06757574255184613
-0.10828994054289552
-0.4677221974366793
0.06757574255184613
-0.10828994054289552
-0.4677221974366793
0.06757574255184613
-0.10828994054289552
-0.4677221974366793
0.06757574255184613
-0.10828994054289552
-0.46175023032560575
0.05934724883576999
-0.10380414850900543
-0.46175023032560575
0.05934724883576999
-0.10380414850900543
-0.46175023032560575
0.05934724883576999
-0.10380414850900543
-0.46175023032560575
0.05934724883576999
-0.10380414850900543
-0.45893281858787405
0.05141358175553269
-0.10119568473445789
-0.45893281858787405
0.05141358175553269
-0.10119568473445789
-0.45893281858787405
0.05141358175553269
-0.10119568473445789
-0.45893281858787405
0.05141358175553269
-0.10119568473445789
-0.45816720839554825
0.04491175567390728
-0.1001478459311377
-0.45816720839554825
0.04491175567390728
-0.1001478459311377
-0.45816720839554825
0.04491175567390728
-0.1001478459311377
-0.45816720839554825
0.04491175567390728
-0.1001478459311377
-0.4563806618217921
0.04024547363038889
-0.0994998043285487
-0.4563806618217921
0.04024547363038889
-0.0994998043285487
-0.4563806618217921
0.04024547363038889
-0.0994998043285487
-0.4563806618217921
0.04024547363038889
-0.0994998043285487
-0.45340741202452206
0.03684661193490638
-0.09849342925005916
-0.45340741202452206
0.03684661193490638
-0.09849342925005916
-0.45340741202452206
0.03684661193490638
-0.09849342925005916
-0.45340741202452206
0.03684661193490638
-0.09849342925005916
-0.45048449295539367
0.03453185488730421
-0.09712163487186959
-0.45048449295539367
0.03453185488730421
-0.09712163487186959
-0.45048449295539367
0.03453185488730421
-0.09712163487186959
-0.45048449295539367
0.03453185488730421
-0.09712163487186959
-0.4512106629960363
0.03286117105691441
-0.09549998405083486
-0.4512106629960363
0.03286117105691441
-0.09549998405083486
-0.4512106629960363
0.03286117105691441
-0.09549998405083486
-0.4512106629960363
0.03286117105691441
-0.09549998405083486
-0.45654685334018563
0.032049700329772515
-0.0942067207717986
-0.45654685334018563
0.032049700329772515
-0.0942067207717986
-0.45654685334018563
0.032049700329772515
-0.0942067207717986
-0.45654685334018563
0.032049700329772515
-0.0942067207717986
-0.4623700419563332
0.03151462150434711
-0.09272993655540958
-0.4623700419563332
0.03151462150434711
-0.09272993655540958
-0.4623700419563332
0.03151462150434711
-0.09272993655540958
-0.4623700419563332
0.03151462150434711
-0.09272993655540958
-0.46624075762104533
0.0316167030393156
-0.09160240490157623
-0.46624075762104533
0.0316167030393156
-0.09160240490157623
-0.46624075762104533
0.0316167030393156
-0.09160240490157623
-0.46624075762104533
0.0316167030393156
-0.09160240490157623
-0.4670230226340364
0.032757132310076646
-0.09088904505766693
-0.4670230226340364
0.032757132310076646
-0.09088904505766693
-0.4670230226340364
0.032757132310076646
-0.09088904505766693
-0.4670230226340364
0.032757132310076646
-0.09088904505766693
-0.4655735552221511
0.03432766448516014
-0.090343267954603
-0.4655735552221511
0.03432766448516014
-0.090343267954603
-0.4655735552221511
0.03432766448516014
-0.090343267954603
-0.4655735552221511
0.03432766448516014
-0.090343267954603
-0.46439547314720336
0.035977047956344335
-0.08994965122249982
-0.46439547314720336
0.035977047956344335
-0.08994965122249982
-0.46439547314720336
0.035977047956344335
-0.08994965122249982
-0.46439547314720336
0.035977047956344335
-0.08994965122249982
-0.46463243509097235
0.03798281898716476
-0.08993252170959784
-0.46463243509097235
0.03798281898716476
-0.08993252170959784
-0.46463243509097235
0.03798281898716476
-0.08993252170959784
-0.46463243509097235
0.03798281898716476
-0.08993252170959784
-0.4661388671789348
0.04034978247783914
-0.09028928683091837
-0.4661388671789348
0.04034978247783914
-0.09028928683091837
-0.4661388671789348
0.04034978247783914
-0.09028928683091837
-0.4661388671789348
0.04034978247783914
-0.09028928683091837
-0.4681733555852444
0.04316773789816199
-0.09077432477641523
-0.4681733555852444
0.04316773789816199
-0.09077432477641523
-0.4681733555852444
0.04316773789816199
-0.09077432477641523
-0.4681733555852444
0.04316773789816199
-0.09077432477641523
-0.47236317463878363
0.04615667307587356
-0.09175555033523235
-0.47236317463878363
0.04615667307587356
-0.09175555033523235
-0.47236317463878363
0.04615667307587356
-0.09175555033523235
-0.47236317463878363
0.04615667307587356
-0.09175555033523235
-0.4792100250243182
0.05036154587109667
-0.09352907614498857
-0.4792100250243182
0.05036154587109667
-0.09352907614498857
-0.4792100250243182
0.05036154587109667
-0.09352907614498857
-0.4792100250243182
0.05036154587109667
-0.09352907614498857
-0.48887340277789093
0.05489397640918129
-0.09652969168110524
-0.48887340277789093
0.05489397640918129
-0.09652969168110524
-0.48887340277789093
0.05489397640918129
-0.09652969168110524
-0.48887340277789093
0.05489397640918129
-0.09652969168110524
-0.4981829828633509
0.05897239362054456
-0.09983252714395868
-0.4981829828633509
0.05897239362054456
-0.09983252714395868
-0.4981829828633509
0.05897239362054456
-0.09983252714395868
-0.4981829828633509
0.05897239362054456
-0.09983252714395868
-0.5130908697491523
0.0632440129408033
-0.10576247608928424
-0.5130908697491523
0.0632440129408033
-0.10576247608928424
-0.5130908697491523
0.0632440129408033
-0.10576247608928424
-0.5130908697491523
0.0632440129408033
-0.10576247608928424
-0.5379246302745219
0.06517039970159501
-0.11416011680278491
-0.5379246302745219
0.06517039970159501
-0.11416011680278491
-0.5379246302745219
0.06517039970159501
-0.11416011680278491
-0.5379246302745219
0.06517039970159501
-0.11416011680278491
-0.57139337484067
0.06374828975039995
-0.12225783827446175
-0.57139337484067
0.06374828975039995
-0.12225783827446175
-0.57139337484067
0.06374828975039995
-0.12225783827446175
-0.57139337484067
0.06374828975039995
-0.12225783827446175
-0.6134039059704477
0.06073848814151154
-0.13023079470902107
-0.6134039059704477
0.06073848814151154
-0.13023079470902107
-0.6134039059704477
0.06073848814151154
-0.13023079470902107
-0.6134039059704477
0.06073848814151154
-0.13023079470902107
-0.6659015060339285
0.05858283250272408
-0.13933921036238453
-0.6659015060339285
0.05858283250272408
-0.13933921036238453
-0.6659015060339285
0.05858283250272408
-0.13933921036238453
-0.6659015060339285
0.05858283250272408
-0.13933921036238453
-0.7271304482357005
0.06127440305916992
-0.1544658459561231
-0.7271304482357005
0.06127440305916992
-0.1544658459561231
-0.7271304482357005
0.06127440305916992
-0.1544658459561231
-0.7271304482357005
0.06127440305916992
-0.1544658459561231
-0.7999850670876398
0.06259974667952124
-0.17191263024606068
-0.7999850670876398
0.06259974667952124
-0.17191263024606068
-0.7999850670876398
0.06259974667952124
-0.17191263024606068
-0.7999850670876398
0.06259974667952124
-0.17191263024606068
-0.8632487880166626
0.06141061154708281
-0.18831115126556391
-0.8632487880166626
0.06141061154708281
-0.18831115126556391
-0.8632487880166626
0.06141061154708281
-0.18831115126556391
-0.8632487880166626
0.06141061154708281
-0.18831115126556391
-0.8907738705895418
0.058585323210180465
-0.2070882907768419
-0.8907738705895418
0.058585323210180465
-0.2070882907768419
-0.8907738705895418
0.058585323210180465
-0.2070882907768419
-0.8907738705895418
0.058585323210180465
-0.2070882907768419
-0.8919630987748212
0.0554835059542605
-0.22512902642404334
-0.8919630987748212
0.0554835059542605
-0.22512902642404334
-0.8919630987748212
0.0554835059542605
-0.22512902642404334
-0.8919630987748212
0.0554835059542605
-0.22512902642404334
-0.8899103476391699
0.048999363986668175
-0.23981357821893376
-0.8899103476391699
0.048999363986668175
-0.23981357821893376
-0.8899103476391699
0.048999363986668175
-0.23981357821893376
-0.8899103476391699
0.048999363986668175
-0.23981357821893376
-0.9040638211638099
0.04244126165675177
-0.247065497667673
-0.9040638211638099
0.04244126165675177
-0.247065497667673
-0.9040638211638099
0.04244126165675177
-0.247065497667673
-0.9040638211638099
0.04244126165675177
-0.247065497667673
-0.9233857491700002
0.03845861894537756
-0.2503752936964307
-0.9233857491700002
0.03845861894537756
-0.2503752936964307
-0.9233857491700002
0.03845861894537756
-0.2503752936964307
-0.9233857491700002
0.03845861894537756
-0.2503752936964307
-0.9300789465716911
0.03503216491253187
-0.2518198483858861
-0.9300789465716911
0.03503216491253187
-0.2518198483858861
-0.9300789465716911
0.03503216491253187
-0.2518198483858861
-0.9300789465716911
0.03503216491253187
-0.2518198483858861
-0.926448069869037
0.030757801018506677
-0.25131100991302147
-0.926448069869037
0.030757801018506677
-0.25131100991302147
-0.926448069869037
0.030757801018506677
-0.25131100991302147
-0.926448069869037
0.030757801018506677
-0.25131100991302147
-0.9203974581613783
0.027053362816631978
-0.24939541628501605
-0.9203974581613783
0.027053362816631978
-0.24939541628501605
-0.9203974581613783
0.027053362816631978
-0.24939541628501605
-0.9203974581613783
0.027053362816631978
-0.24939541628501605
-0.916696386217194
0.023260845920550364
-0.2462910707984985
-0.916696386217194
0.023260845920550364
-0.2462910707984985
-0.916696386217194
0.023260845920550364
-0.2462910707984985
-0.916696386217194
0.023260845920550364
-0.2462910707984985
-0.9147578866633721
0.021608379447235797
-0.2434144882223913
-0.9147578866633721
0.021608379447235797
-0.2434144882223913
-0.9147578866633721
0.021608379447235797
-0.2434144882223913
-0.9147578866633721
0.021608379447235797
-0.2434144882223913
-0.9149998541916329
0.021508011102047992
-0.24132532820534805
-0.9149998541916329
0.021508011102047992
-0.24132532820534805
-0.9149998541916329
0.021508011102047992
-0.24132532820534805
-0.9149998541916329
0.021508011102047992
-0.24132532820534805
-0.9164935797231993
0.02302526727822343
-0.24039869275358836
-0.9164935797231993
0.02302526727822343
-0.24039869275358836
-0.9164935797231993
0.02302526727822343
-0.24039869275358836
-0.9164935797231993
0.02302526727822343
-0.24039869275358836
-0.9163240125996307
0.02480612278202632
-0.2404477215352981
-0.9163240125996307
0.02480612278202632
-0.2404477215352981
-0.9163240125996307
0.02480612278202632
-0.2404477215352981
-0.9163240125996307
0.02480612278202632
-0.2404477215352981
-0.9163447036774841
0.027329160548804382
-0.23978371824345554
-0.9163447036774841
0.027329160548804382
-0.23978371824345554
-0.9163447036774841
0.027329160548804382
-0.23978371824345554
-0.9163447036774841
0.027329160548804382
-0.23978371824345554
-0.9163223056819402
0.03090011928060025
-0.23894417785038627
-0.9163223056819402
0.03090011928060025
-0.23894417785038627
-0.9163223056819402
0.03090011928060025
-0.23894417785038627
-0.9163223056819402
0.03090011928060025
-0.23894417785038627
-0.914560232193325
0.034287907682066084
-0.23746638263482997
-0.914560232193325
0.034287907682066084
-0.23746638263482997
-0.914560232193325
0.034287907682066084
-0.23746638263482997
-0.914560232193325
0.034287907682066084
-0.23746638263482997
-0.9126862537603234
0.036857106359532814
-0.23544427051745653
-0.9126862537603234
0.036857106359532814
-0.23544427051745653
-0.9126862537603234
0.036857106359532814
-0.23544427051745653
-0.9126862537603234
0.036857106359532814
-0.23544427051745653
-0.9106250365324972
0.03933007013126276
-0.23308256732322857
-0.9106250365324972
0.03933007013126276
-0.23308256732322857
-0.9106250365324972
0.03933007013126276
-0.23308256732322857
-0.9106250365324972
0.03933007013126276
-0.23308256732322857
-0.909093114881647
0.04113766524628288
-0.23112505520433937
-0.909093114881647
0.04113766524628288
-0.23112505520433937
-0.909093114881647
0.04113766524628288
-0.23112505520433937
-0.909093114881647
0.04113766524628288
-0.23112505520433937
-0.9075772287715391
0.04201257827384103
-0.22992728595303533
-0.9075772287715391
0.04201257827384103
-0.22992728595303533
-0.9075772287715391
0.04201257827384103
-0.22992728595303533
-0.9075772287715391
0.04201257827384103
-0.22992728595303533
-0.9060948389592657
0.0426151769448701
-0.22928679201982333
-0.9060948389592657
0.0426151769448701
-0.22928679201982333
-0.9060948389592657
0.0426151769448701
-0.22928679201982333
-0.9060948389592657
0.0426151769448701
-0.22928679201982333
-0.9051742442132014
0.04238104221680504
-0.22855206164194508
-0.9051742442132014
0.04238104221680504
-0.22855206164194508
-0.9051742442132014
0.04238104221680504
-0.22855206164194508
-0.9051742442132014
0.04238104221680504
-0.22855206164194508
-0.9057804925122194
0.042080739923421914
-0.22763968003491736
-0.9057804925122194
0.042080739923421914
-0.22763968003491736
-0.9057804925122194
0.042080739923421914
-0.22763968003491736
-0.9057804925122194
0.042080739923421914
-0.22763968003491736
-0.9068020027433682
0.042061152582819124
-0.22661816980376878
-0.9068020027433682
0.042061152582819124
-0.22661816980376878
-0.9068020027433682
0.042061152582819124
-0.22661816980376878
-0.9068020027433682
0.042061152582819124
-0.22661816980376878
-0.9070839103421546
0.041796573256541646
-0.22568591171345734
-0.9070839103421546
0.041796573256541646
-0.22568591171345734
-0.9070839103421546
0.041796573256541646
-0.22568591171345734
-0.9070839103421546
0.041796573256541646
-0.22568591171345734
-0.9065806481907868
0.04135117591618593
-0.22502276592155493
-0.9065806481907868
0.04135117591618593
-0.22502276592155493
-0.9065806481907868
0.04135117591618593
-0.22502276592155493
-0.9065806481907868
0.04135117591618593
-0.22502276592155493
-0.9066338676334664
0.040953359140113776
-0.2244249853849717
-0.9066338676334664
0.040953359140113776
-0.2244249853849717
-0.9066338676334664
0.040953359140113776
-0.2244249853849717
-0.9066338676334664
0.040953359140113776
-0.2244249853849717
-0.9061482547450995
0.040669739651423564
-0.2237065117058672
-0.9061482547450995
0.040669739651423564
-0.2237065117058672
-0.9061482547450995
0.040669739651423564
-0.2237065117058672
-0.9061482547450995
0.040669739651423564
-0.2237065117058672
-0.9049842191891042
0.04068130137664544
-0.22307360289413447
-0.9049842191891042
0.04068130137664544
-0.22307360289413447
-0.9049842191891042
0.04068130137664544
-0.22307360289413447
-0.9049842191891042
0.04068130137664544
-0.22307360289413447
-0.9056111299350262
0.04049379214050487
-0.22248538766344853
-0.9056111299350262
0.04049379214050487
-0.22248538766344853
-0.9056111299350262
0.04049379214050487
-0.22248538766344853
-0.9056111299350262
0.04049379214050487
-0.22248538766344853
-0.9063893833431305
0.040129647989011745
-0.2222336190552493
-0.9063893833431305
0.040129647989011745
-0.2222336190552493
-0.9063893833431305
0.040129647989011745
-0.2222336190552493
-0.9063893833431305
0.040129647989011745
-0.2222336190552493
-0.9058913317040667
0.03958107961179415
-0.22233196335586955
-0.9058913317040667
0.03958107961179415
-0.22233196335586955
-0.9058913317040667
0.03958107961179415
-0.22233196335586955
-0.9058913317040667
0.03958107961179415
-0.22233196335586955
-0.9048712518713546
0.039308535016907294
-0.22225449345165096
-0.9048712518713546
0.039308535016907294
-0.22225449345165096
-0.9048712518713546
0.039308535016907294
-0.22225449345165096
-0.9048712518713546
0.039308535016907294
-0.22225449345165096
-0.9041683378344791
0.038895509376636196
-0.22241431854264077
-0.9041683378344791
0.038895509376636196
-0.22241431854264077
-0.9041683378344791
0.038895509376636196
-0.22241431854264077
-0.9041683378344791
0.038895509376636196
-0.22241431854264077
-0.9041419010320603
0.03867752511639587
-0.22230779697406108
-0.9041419010320603
0.03867752511639587
-0.22230779697406108
-0.9041419010320603
0.03867752511639587
-0.22230779697406108
-0.9041419010320603
0.03867752511639587
-0.22230779697406108
-0.9046319258223728
0.03818117189191886
-0.22210583495734365
-0.9046319258223728
0.03818117189191886
-0.22210583495734365
-0.9046319258223728
0.03818117189191886
-0.22210583495734365
-0.9046319258223728
0.03818117189191886
-0.22210583495734365
-0.9045622034017933
0.03758298205789078
-0.22194850139040792
-0.9045622034017933
0.03758298205789078
-0.22194850139040792
-0.9045622034017933
0.03758298205789078
-0.22194850139040792
-0.9045622034017933
0.03758298205789078
-0.22194850139040792
-0.904671270518457
0.037569828668063215
-0.2219446414457293
-0.904671270518457
0.037569828668063215
-0.2219446414457293
-0.904671270518457
0.037569828668063215
-0.2219446414457293
-0.904671270518457
0.037569828668063215
-0.2219446414457293
-0.9044487177733904
0.03798272336233572
-0.22226133811353257
-0.9044487177733904
0.03798272336233572
-0.22226133811353257
-0.9044487177733904
0.03798272336233572
-0.22226133811353257
-0.9044487177733904
0.03798272336233572
-0.22226133811353257
-0.904611058040985
0.037965698852704725
-0.22227068267488767
-0.904611058040985
0.037965698852704725
-0.22227068267488767
-0.904611058040985
0.037965698852704725
-0.22227068267488767
-0.904611058040985
0.037965698852704725
-0.22227068267488767
-0.9046242516535323
0.03807468374883668
-0.22232396373261057
-0.9046242516535323
0.03807468374883668
-0.22232396373261057
-0.9046242516535323
0.03807468374883668
-0.22232396373261057
-0.9046242516535323
0.03807468374883668
-0.22232396373261057
-0.9045167888230567
0.03863160998903126
-0.22203817462705114
-0.9045167888230567
0.03863160998903126
-0.22203817462705114
-0.9045167888230567
0.03863160998903126
-0.22203817462705114
-0.9045167888230567
0.03863160998903126
-0.22203817462705114
-0.9043922032126243
0.03902626428553656
-0.22180812216399215
-0.9043922032126243
0.03902626428553656
-0.22180812216399215
-0.9043922032126243
0.03902626428553656
-0.22180812216399215
-0.9043922032126243
0.03902626428553656
-0.22180812216399215
-0.9044454813599473
0.039022491034716125
-0.2218213167030805
-0.9044454813599473
0.039022491034716125
-0.2218213167030805
-0.9044454813599473
0.039022491034716125
-0.2218213167030805
-0.9044454813599473
0.039022491034716125
-0.2218213167030805
-0.9041415118530205
0.03927183984907728
-0.2216375844527239
-0.9041415118530205
0.03927183984907728
-0.2216375844527239
-0.9041415118530205
0.03927183984907728
-0.2216375844527239
-0.9041415118530205
0.03927183984907728
-0.2216375844527239
-0.9039151360949033
0.039786016396415685
-0.22119297581490163
-0.9039151360949033
0.039786016396415685
-0.22119297581490163
-0.9039151360949033
0.039786016396415685
-0.22119297581490163
-0.9039151360949033
0.039786016396415685
-0.22119297581490163
-0.9039526031502986
0.04016367361007675
-0.22097222926308208
-0.9039526031502986
0.04016367361007675
-0.22097222926308208
-0.9039526031502986
0.04016367361007675
-0.22097222926308208
-0.9039526031502986
0.04016367361007675
-0.22097222926308208
-0.9034771009922284
0.04087255714321145
-0.22073714408640235
-0.9034771009922284
0.04087255714321145
-0.22073714408640235
-0.9034771009922284
0.04087255714321145
-0.22073714408640235
-0.9034771009922284
0.04087255714321145
-0.22073714408640235
-0.9027299546895998
0.04161128625425627
-0.22049570014069925
-0.9027299546895998
0.04161128625425627
-0.22049570014069925
-0.9027299546895998
0.04161128625425627
-0.22049570014069925
-0.9027299546895998
0.04161128625425627
-0.22049570014069925
-0.9027538802340637
0.04187981247028371
-0.22022152806941242
-0.9027538802340637
0.04187981247028371
-0.22022152806941242
-0.9027538802340637
0.04187981247028371
-0.22022152806941242
-0.9027538802340637
0.04187981247028371
-0.22022152806941242
-0.9028594350925263
0.04181346629489602
-0.22032708292787506
-0.9028594350925263
0.04181346629489602
-0.22032708292787506
-0.9028594350925263
0.04181346629489602
-0.22032708292787506
-0.9028594350925263
0.04181346629489602
-0.22032708292787506
-0.9029553670181223
0.041691265526581804
-0.22027028781217659
-0.9029553670181223
0.041691265526581804
-0.22027028781217659
-0.9029553670181223
0.041691265526581804
-0.22027028781217659
-0.9029553670181223
0.041691265526581804
-0.22027028781217659
-0.9030085896378217
0.041687688258367085
-0.22028347272720622
-0.9030085896378217
0.041687688258367085
-0.22028347272720622
-0.9030085896378217
0.041687688258367085
-0.22028347272720622
-0.9030085896378217
0.041687688258367085
-0.22028347272720622
-0.9033352035639517
0.04110476464147358
-0.22056261785069525
-0.9033352035639517
0.04110476464147358
-0.22056261785069525
-0.9033352035639517
0.04110476464147358
-0.22056261785069525
-0.9033352035639517
0.04110476464147358
-0.22056261785069525
-0.9039045540813619
0.04032444033174823
-0.22036034492506126
-0.9039045540813619
0.04032444033174823
-0.22036034492506126
-0.9039045540813619
0.04032444033174823
-0.22036034492506126
-0.9039045540813619
0.04032444033174823
-0.22036034492506126
-0.9044190530695586
0.04009731744815996
-0.2198848595397761
-0.9044190530695586
0.04009731744815996
-0.2198848595397761
-0.9044190530695586
0.04009731744815996
-0.2198848595397761
-0.9044190530695586
0.04009731744815996
-0.2198848595397761
-0.9043797239601599
0.03977031678151069
-0.21972499310400953
-0.9043797239601599
0.03977031678151069
-0.21972499310400953
-0.9043797239601599
0.03977031678151069
-0.21972499310400953
-0.9043797239601599
0.03977031678151069
-0.21972499310400953
-0.904270387481037
0.0392847533653557
-0.21960786590676826
-0.904270387481037
0.0392847533653557
-0.21960786590676826
-0.904270387481037
0.0392847533653557
-0.21960786590676826
-0.904270387481037
0.0392847533653557
-0.21960786590676826
-0.904270387481037
0.0392847533653557
-0.21960786590676826
-0.904270387481037
0.0392847533653557
-0.21960786590676826
-0.904270387481037
0.0392847533653557
-0.21960786590676826
-0.904270387481037
0.0392847533653557
-0.21960786590676826
-0.9052508427987432
0.039231730988603324
-0.21952515934072275
-0.9052508427987432
0.039231730988603324
-0.21952515934072275
-0.9052508427987432
0.039231730988603324
-0.21952515934072275
-0.9052508427987432
0.039231730988603324
-0.21952515934072275
-0.9058729590234271
0.038887748290919205
-0.21953505848688182
-0.9058729590234271
0.038887748290919205
-0.21953505848688182
-0.9058729590234271
0.038887748290919205
-0.21953505848688182
-0.9058729590234271
0.038887748290919205
-0.21953505848688182
-0.904870989842848
0.03818148269166362
-0.22007222740455323
-0.904870989842848
0.03818148269166362
-0.22007222740455323
-0.904870989842848
0.03818148269166362
-0.22007222740455323
-0.904870989842848
0.03818148269166362
-0.22007222740455323
-0.9034125862670734
0.03735775699741997
-0.2203798473886645
-0.9034125862670734
0.03735775699741997
-0.2203798473886645
-0.9034125862670734
0.03735775699741997
-0.2203798473886645
-0.9034125862670734
0.03735775699741997
-0.2203798473886645
-0.9035033777405724
0.036638855998165756
-0.2207217415608105
-0.9035033777405724
0.036638855998165756
-0.2207217415608105
-0.9035033777405724
0.036638855998165756
-0.2207217415608105
-0.9035033777405724
0.036638855998165756
-0.2207217415608105
-0.9045551198327921
0.036194391017866964
-0.22085460841490034
-0.9045551198327921
0.036194391017866964
-0.22085460841490034
-0.9045551198327921
0.036194391017866964
-0.22085460841490034
-0.9045551198327921
0.036194391017866964
-0.22085460841490034
-0.9049509788237761
0.03576966026410303
-0.22108963016539918
-0.9049509788237761
0.03576966026410303
-0.22108963016539918
-0.9049509788237761
0.03576966026410303
-0.22108963016539918
-0.9049509788237761
0.03576966026410303
-0.22108963016539918
-0.9045014565398695
0.03560380520477768
-0.22151157859228912
-0.9045014565398695
0.03560380520477768
-0.22151157859228912
-0.9045014565398695
0.03560380520477768
-0.22151157859228912
-0.9045014565398695
0.03560380520477768
-0.22151157859228912
-0.9031858582812409
0.03559092668390265
-0.22182600467980343
-0.9031858582812409
0.03559092668390265
-0.22182600467980343
-0.9031858582812409
0.03559092668390265
-0.22182600467980343
-0.9031858582812409
0.03559092668390265
-0.22182600467980343
-0.9040433164282939
0.03588071120620907
-0.22189216320951136
-0.9040433164282939
0.03588071120620907
-0.22189216320951136
-0.9040433164282939
0.03588071120620907
-0.22189216320951136
-0.9040433164282939
0.03588071120620907
-0.22189216320951136
-0.9052115939004721
0.03646719740169894
-0.22212371057525843
-0.9052115939004721
0.03646719740169894
-0.22212371057525843
-0.9052115939004721
0.03646719740169894
-0.22212371057525843
-0.9052115939004721
0.03646719740169894
-0.22212371057525843
-0.9064426378804818
0.03710509495637849
-0.22253149974834324
-0.9064426378804818
0.03710509495637849
-0.22253149974834324
-0.9064426378804818
0.03710509495637849
-0.22253149974834324
-0.9064426378804818
0.03710509495637849
-0.22253149974834324
-0.9064294624635336
0.03699615493588583
-0.22247812679474205
-0.9064294624635336
0.03699615493588583
-0.22247812679474205
-0.9064294624635336
0.03699615493588583
-0.22247812679474205
-0.9064294624635336
0.03699615493588583
-0.22247812679474205
-0.9064234277991529
0.03743353956891607
-0.2224070425125062
-0.9064234277991529
0.03743353956891607
-0.2224070425125062
-0.9064234277991529
0.03743353956891607
-0.2224070425125062
-0.9064234277991529
0.03743353956891607
-0.2224070425125062
-0.906571411419142
0.038296646389644494
-0.2223044740072752
-0.906571411419142
0.038296646389644494
-0.2223044740072752
-0.906571411419142
0.038296646389644494
-0.2223044740072752
-0.906571411419142
0.038296646389644494
-0.2223044740072752
-0.9061060679898106
0.03906177446486319
-0.22223318508264753
-0.9061060679898106
0.03906177446486319
-0.22223318508264753
-0.9061060679898106
0.03906177446486319
-0.22223318508264753
-0.9061060679898106
0.03906177446486319
-0.22223318508264753
-0.90440378499136
0.040124291316044954
-0.22180183063795736
-0.90440378499136
0.040124291316044954
-0.22180183063795736
-0.90440378499136
0.040124291316044954
-0.22180183063795736
-0.90440378499136
0.040124291316044954
-0.22180183063795736
-0.9020116457195811
0.042517594624996526
-0.22074065298278273
-0.9020116457195811
0.042517594624996526
-0.22074065298278273
-0.9020116457195811
0.042517594624996526
-0.22074065298278273
-0.9020116457195811
0.042517594624996526
-0.22074065298278273
-0.8977164934111169
0.04615885438264196
-0.21945564106827922
-0.8977164934111169
0.04615885438264196
-0.21945564106827922
-0.8977164934111169
0.04615885438264196
-0.21945564106827922
-0.8977164934111169
0.04615885438264196
-0.21945564106827922
-0.8905995285439656
0.05145599057042583
-0.21698021473057083
-0.8905995285439656
0.05145599057042583
-0.21698021473057083
-0.8905995285439656
0.05145599057042583
-0.21698021473057083
-0.8905995285439656
0.05145599057042583
-0.21698021473057083
-0.8823277435210336
0.0585911662106928
-0.21361410276002332
-0.8823277435210336
0.0585911662106928
-0.21361410276002332
-0.8823277435210336
0.0585911662106928
-0.21361410276002332
-0.8823277435210336
0.0585911662106928
-0.21361410276002332
-0.8754475450426238
0.06675548046433548
-0.21000708195401308
-0.8754475450426238
0.06675548046433548
-0.21000708195401308
-0.8754475450426238
0.06675548046433548
-0.21000708195401308
-0.8754475450426238
0.06675548046433548
-0.21000708195401308
-0.8676367336581049
0.0753140431106862
-0.2061925428864145
-0.8676367336581049
0.0753140431106862
-0.2061925428864145
-0.8676367336581049
0.0753140431106862
-0.2061925428864145
-0.8676367336581049
0.0753140431106862
-0.2061925428864145
-0.8549886513595236
0.08253596207765612
-0.20250867739256953
-0.8549886513595236
0.08253596207765612
-0.20250867739256953
-0.8549886513595236
0.08253596207765612
-0.20250867739256953
-0.8549886513595236
0.08253596207765612
-0.20250867739256953
-0.8379758495152252
0.0879242830744767
-0.19928598236625614
-0.8379758495152252
0.0879242830744767
-0.19928598236625614
-0.8379758495152252
0.0879242830744767
-0.19928598236625614
-0.8379758495152252
0.0879242830744767
-0.19928598236625614
-0.8142225809783372
0.09159347434335284
-0.19614320550489128
-0.8142225809783372
0.09159347434335284
-0.19614320550489128
-0.8142225809783372
0.09159347434335284
-0.19614320550489128
-0.8142225809783372
0.09159347434335284
-0.19614320550489128
-0.7857716356045876
0.09398778265333291
-0.19188007951854028
-0.7857716356045876
0.09398778265333291
-0.19188007951854028
-0.7857716356045876
0.09398778265333291
-0.19188007951854028
-0.7857716356045876
0.09398778265333291
-0.19188007951854028
-0.7563849764220779
0.0966915679942288
-0.18503859973196535
-0.7563849764220779
0.0966915679942288
-0.18503859973196535
-0.7563849764220779
0.0966915679942288
-0.18503859973196535
-0.7563849764220779
0.0966915679942288
-0.18503859973196535
-0.728951664363348
0.0994752445536446
-0.17711793547243207
-0.728951664363348
0.0994752445536446
-0.17711793547243207
-0.728951664363348
0.0994752445536446
-0.17711793547243207
-0.728951664363348
0.0994752445536446
-0.17711793547243207
-0.7036296419970922
0.10099105644838485
-0.16919694334505367
-0.7036296419970922
0.10099105644838485
-0.16919694334505367
-0.7036296419970922
0.10099105644838485
-0.16919694334505367
-0.7036296419970922
0.10099105644838485
-0.16919694334505367
-0.6788916537730807
0.10063091220550206
-0.16186928676369108
-0.6788916537730807
0.10063091220550206
-0.16186928676369108
-0.6788916537730807
0.10063091220550206
-0.16186928676369108
-0.6788916537730807
0.10063091220550206
-0.16186928676369108
-0.654059008735227
0.09895975244492203
-0.1557414481688103
-0.654059008735227
0.09895975244492203
-0.1557414481688103
-0.654059008735227
0.09895975244492203
-0.1557414481688103
-0.654059008735227
0.09895975244492203
-0.1557414481688103
-0.6284509796240886
0.09642910211240995
-0.14963418170270032
-0.6284509796240886
0.09642910211240995
-0.14963418170270032
-0.6284509796240886
0.09642910211240995
-0.14963418170270032
-0.6284509796240886
0.09642910211240995
-0.14963418170270032
-0.6045135345026371
0.09405243804742966
-0.1428066753390121
-0.6045135345026371
0.09405243804742966
-0.1428066753390121
-0.6045135345026371
0.09405243804742966
-0.1428066753390121
-0.6045135345026371
0.09405243804742966
-0.1428066753390121
-0.5840997625116902
0.09120507221817178
-0.1360640065451363
-0.5840997625116902
0.09120507221817178
-0.1360640065451363
-0.5840997625116902
0.09120507221817178
-0.1360640065451363
-0.5840997625116902
0.09120507221817178
-0.1360640065451363
-0.566934335929981
0.0860415640791889
-0.1293423387932537
-0.566934335929981
0.0860415640791889
-0.1293423387932537
-0.566934335929981
0.0860415640791889
-0.1293423387932537
-0.566934335929981
0.0860415640791889
-0.1293423387932537
-0.5540788041216257
0.07878082577831158
-0.12316606061966445
-0.5540788041216257
0.07878082577831158
-0.12316606061966445
-0.5540788041216257
0.07878082577831158
-0.12316606061966445
-0.5540788041216257
0.07878082577831158
-0.12316606061966445
-0.5405626894210658
0.07022507929301389
-0.11746949811851969
-0.5405626894210658
0.07022507929301389
-0.11746949811851969
-0.5405626894210658
0.07022507929301389
-0.11746949811851969
-0.5405626894210658
0.07022507929301389
-0.11746949811851969
-0.5261707233449183
0.06152793955097039
-0.11234981998950684
-0.5261707233449183
0.06152793955097039
-0.11234981998950684
-0.5261707233449183
0.06152793955097039
-0.11234981998950684
-0.5261707233449183
0.06152793955097039
-0.11234981998950684
-0.5102163627638752
0.05385659185434223
-0.10784607667776258
-0.5102163627638752
0.05385659185434223
-0.10784607667776258
-0.5102163627638752
0.05385659185434223
-0.10784607667776258
-0.5102163627638752
0.05385659185434223
-0.10784607667776258
-0.49371301358434433
0.0467978462359677
-0.10336757892057115
-0.49371301358434433
0.0467978462359677
-0.10336757892057115
-0.49371301358434433
0.0467978462359677
-0.10336757892057115
-0.49371301358434433
0.0467978462359677
-0.10336757892057115
-0.48107721207611287
0.03971891197251264
-0.09915187879304267
-0.48107721207611287
0.03971891197251264
-0.09915187879304267
-0.48107721207611287
0.03971891197251264
-0.09915187879304267
-0.48107721207611287
0.03971891197251264
-0.09915187879304267
-0.4737995226640462
0.03298778012896188
-0.0950250196907919
-0.4737995226640462
0.03298778012896188
-0.0950250196907919
-0.4737995226640462
0.03298778012896188
-0.0950250196907919
-0.4737995226640462
0.03298778012896188
-0.0950250196907919
-0.4714100575959278
0.027632923682429332
-0.09052843035968561
-0.4714100575959278
0.027632923682429332
-0.09052843035968561
-0.4714100575959278
0.027632923682429332
-0.09052843035968561
-0.4714100575959278
0.027632923682429332
-0.09052843035968561
-0.47266897534189334
0.02436842698435243
-0.08662939636043647
-0.47266897534189334
0.02436842698435243
-0.08662939636043647
-0.47266897534189334
0.02436842698435243
-0.08662939636043647
-0.47266897534189334
0.02436842698435243
-0.08662939636043647
-0.47618829059511164
0.023092885939380095
-0.08300659991056514
-0.47618829059511164
0.023092885939380095
-0.08300659991056514
-0.47618829059511164
0.023092885939380095
-0.08300659991056514
-0.47618829059511164
0.023092885939380095
-0.08300659991056514
-0.4821401638665164
0.023156268150906042
-0.07975207690602196
-0.4821401638665164
0.023156268150906042
-0.07975207690602196
-0.4821401638665164
0.023156268150906042
-0.07975207690602196
-0.4821401638665164
0.023156268150906042
-0.07975207690602196
-0.4890337715942047
0.0237085410597112
-0.0770176087128701
-0.4890337715942047
0.0237085410597112
-0.0770176087128701
-0.4890337715942047
0.0237085410597112
-0.0770176087128701
-0.4890337715942047
0.0237085410597112
-0.0770176087128701
-0.4942024294145459
0.02454930869394343
-0.07545228700975391
-0.4942024294145459
0.02454930869394343
-0.07545228700975391
-0.4942024294145459
0.02454930869394343
-0.07545228700975391
-0.4942024294145459
0.02454930869394343
-0.07545228700975391
-0.4967538085511931
0.025610292890669795
-0.07489546362212171
-0.4967538085511931
0.025610292890669795
-0.07489546362212171
-0.4967538085511931
0.025610292890669795
-0.07489546362212171
-0.4967538085511931
0.025610292890669795
-0.07489546362212171
-0.49604514652702014
0.02729525756041772
-0.07480054313008397
-0.49604514652702014
0.02729525756041772
-0.07480054313008397
-0.49604514652702014
0.02729525756041772
-0.07480054313008397
-0.49604514652702014
0.02729525756041772
-0.07480054313008397
-0.494759515244507
0.02935900567157731
-0.07479127003645109
-0.494759515244507
0.02935900567157731
-0.07479127003645109
-0.494759515244507
0.02935900567157731
-0.07479127003645109
-0.494759515244507
0.02935900567157731
-0.07479127003645109
-0.4952344219090311
0.03171127108139049
-0.07489432200279311
-0.4952344219090311
0.03171127108139049
-0.07489432200279311
-0.4952344219090311
0.03171127108139049
-0.07489432200279311
-0.4952344219090311
0.03171127108139049
-0.07489432200279311
-0.4987492291981975
0.034392540408103155
-0.07528843197458913
-0.4987492291981975
0.034392540408103155
-0.07528843197458913
-0.4987492291981975
0.034392540408103155
-0.07528843197458913
-0.4987492291981975
0.034392540408103155
-0.07528843197458913
-0.5046037149946441
0.03748666594362866
-0.07624812959701
-0.5046037149946441
0.03748666594362866
-0.07624812959701
-0.5046037149946441
0.03748666594362866
-0.07624812959701
-0.5046037149946441
0.03748666594362866
-0.07624812959701
-0.5115141327924505
0.04138715652489796
-0.07784808049599426
-0.5115141327924505
0.04138715652489796
-0.07784808049599426
-0.5115141327924505
0.04138715652489796
-0.07784808049599426
-0.5115141327924505
0.04138715652489796
-0.07784808049599426
-0.5194748274244043
0.04609234838366765
-0.07959968736454161
-0.5194748274244043
0.04609234838366765
-0.07959968736454161
-0.5194748274244043
0.04609234838366765
-0.07959968736454161
-0.5194748274244043
0.04609234838366765
-0.07959968736454161
-0.5294014345931743
0.051050013877700993
-0.08204186555302427
-0.5294014345931743
0.051050013877700993
-0.08204186555302427
-0.5294014345931743
0.051050013877700993
-0.08204186555302427
-0.5294014345931743
0.051050013877700993
-0.08204186555302427
-0.5392671175096024
0.05625829517876785
-0.08448537325236022
-0.5392671175096024
0.05625829517876785
-0.08448537325236022
-0.5392671175096024
0.05625829517876785
-0.08448537325236022
-0.5392671175096024
0.05625829517876785
-0.08448537325236022
-0.55069038638846
0.06131023455542745
-0.0881494691166857
-0.55069038638846
0.06131023455542745
-0.0881494691166857
-0.55069038638846
0.06131023455542745
-0.0881494691166857
-0.55069038638846
0.06131023455542745
-0.0881494691166857
-0.5638488577958419
0.06561025838505673
-0.09239093223476898
-0.5638488577958419
0.06561025838505673
-0.09239093223476898
-0.5638488577958419
0.06561025838505673
-0.09239093223476898
-0.5638488577958419
0.06561025838505673
-0.09239093223476898
-0.5804100989269079
0.0679370112850459
-0.09755794562395359
-0.5804100989269079
0.0679370112850459
-0.09755794562395359
-0.5804100989269079
0.0679370112850459
-0.09755794562395359
-0.5804100989269079
0.0679370112850459
-0.09755794562395359
-0.5981309330652551
0.06775692053649088
-0.1025865489709306
-0.5981309330652551
0.06775692053649088
-0.1025865489709306
-0.5981309330652551
0.06775692053649088
-0.1025865489709306
-0.5981309330652551
0.06775692053649088
-0.1025865489709306
-0.6225839451499697
0.06368083763429552
-0.10699067801653427
-0.6225839451499697
0.06368083763429552
-0.10699067801653427
-0.6225839451499697
0.06368083763429552
-0.10699067801653427
-0.6225839451499697
0.06368083763429552
-0.10699067801653427
-0.657110824101679
0.05651811758880044
-0.1092224939674044
-0.657110824101679
0.05651811758880044
-0.1092224939674044
-0.657110824101679
0.05651811758880044
-0.1092224939674044
-0.657110824101679
0.05651811758880044
-0.1092224939674044
-0.7029601116686608
0.05178066543113194
-0.11227151385623296
-0.7029601116686608
0.05178066543113194
-0.11227151385623296
-0.7029601116686608
0.05178066543113194
-0.11227151385623296
-0.7029601116686608
0.05178066543113194
-0.11227151385623296
-0.763339313594137
0.05130004353232508
-0.11799342999131163
-0.763339313594137
0.05130004353232508
-0.11799342999131163
-0.763339313594137
0.05130004353232508
-0.11799342999131163
-0.763339313594137
0.05130004353232508
-0.11799342999131163
-0.8273171797781422
0.04972694595866159
-0.1266909073652969
-0.8273171797781422
0.04972694595866159
-0.1266909073652969
-0.8273171797781422
0.04972694595866159
-0.1266909073652969
-0.8273171797781422
0.04972694595866159
-0.1266909073652969
-0.8657499282826289
0.046522566464643776
-0.13804157455096086
-0.8657499282826289
0.046522566464643776
-0.13804157455096086
-0.8657499282826289
0.046522566464643776
-0.13804157455096086
-0.8657499282826289
0.046522566464643776
-0.13804157455096086
-0.869751330888122
0.043627623652169045
-0.1510772025511822
-0.869751330888122
0.043627623652169045
-0.1510772025511822
-0.869751330888122
0.043627623652169045
-0.1510772025511822
-0.869751330888122
0.043627623652169045
-0.1510772025511822
-0.8579820689860231
0.036563298147431075
-0.1611673382382728
-0.8579820689860231
0.036563298147431075
-0.1611673382382728
-0.8579820689860231
0.036563298147431075
-0.1611673382382728
-0.8579820689860231
0.036563298147431075
-0.1611673382382728
-0.8539766576759231
0.025508108228144002
-0.16747470315264504
-0.8539766576759231
0.025508108228144002
-0.16747470315264504
-0.8539766576759231
0.025508108228144002
-0.16747470315264504
-0.8539766576759231
0.025508108228144002
-0.16747470315264504
-0.8624914954903804
0.01583739636902765
-0.1685815395453055
-0.8624914954903804
0.01583739636902765
-0.1685815395453055
-0.8624914954903804
0.01583739636902765
-0.1685815395453055
-0.8624914954903804
0.01583739636902765
-0.1685815395453055
-0.8683891293441156
0.009726839722972669
-0.16790991619246842
-0.8683891293441156
0.009726839722972669
-0.16790991619246842
-0.8683891293441156
0.009726839722972669
-0.16790991619246842
-0.8683891293441156
0.009726839722972669
-0.16790991619246842
-0.8677903311053968
0.005192585717475888
-0.16672207311867135
-0.8677903311053968
0.005192585717475888
-0.16672207311867135
-0.8677903311053968
0.005192585717475888
-0.16672207311867135
-0.8677903311053968
0.005192585717475888
-0.16672207311867135
-0.8635409194111079
0.0015512800095089194
-0.16514437621980368
-0.8635409194111079
0.0015512800095089194
-0.16514437621980368
-0.8635409194111079
0.0015512800095089194
-0.16514437621980368
-0.8635409194111079
0.0015512800095089194
-0.16514437621980368
-0.8613793603478704
-8.056590598620081E-4
-0.16303397695625255
-0.8613793603478704
-8.056590598620081E-4
-0.16303397695625255
-0.8613793603478704
-8.056590598620081E-4
-0.16303397695625255
-0.8613793603478704
-8.056590598620081E-4
-0.16303397695625255
-0.8590531482721184
-0.0018683443959276282
-0.1616468433108228
-0.8590531482721184
-0.0018683443959276282
-0.1616468433108228
-0.8590531482721184
-0.0018683443959276282
-0.1616468433108228
-0.8590531482721184
-0.0018683443959276282
-0.1616468433108228
-0.8598255921606578
-0.001847221464102183
-0.1608743994222833
-0.8598255921606578
-0.001847221464102183
-0.1608743994222833
-0.8598255921606578
-0.001847221464102183
-0.1608743994222833
-0.8598255921606578
-0.001847221464102183
-0.1608743994222833
-0.8603913425012399
-0.0016191629800056406
-0.16086624444799597
-0.8603913425012399
-0.0016191629800056406
-0.16086624444799597
-0.8603913425012399
-0.0016191629800056406
-0.16086624444799597
-0.8603913425012399
-0.0016191629800056406
-0.16086624444799597
-0.8634803615015948
-6.447102455942883E-4
-0.16143150778820356
-0.8634803615015948
-6.447102455942883E-4
-0.16143150778820356
-0.8634803615015948
-6.447102455942883E-4
-0.16143150778820356
-0.8634803615015948
-6.447102455942883E-4
-0.16143150778820356
-0.8659186627333161
0.0010479224723150262
-0.1622998013019879
-0.8659186627333161
0.0010479224723150262
-0.1622998013019879
-0.8659186627333161
0.0010479224723150262
-0.1622998013019879
-0.8659186627333161
0.0010479224723150262
-0.1622998013019879
-0.864246095671258
0.002758405993860868
-0.16356922953578704
-0.864246095671258
0.002758405993860868
-0.16356922953578704
-0.864246095671258
0.002758405993860868
-0.16356922953578704
-0.864246095671258
0.002758405993860868
-0.16356922953578704
-0.863601746485459
0.0042662096472664435
-0.1645090938728582
-0.863601746485459
0.0042662096472664435
-0.1645090938728582
-0.863601746485459
0.0042662096472664435
-0.1645090938728582
-0.863601746485459
0.0042662096472664435
-0.1645090938728582
-0.8643927307370476
0.005886077734325398
-0.1640742907315604
-0.8643927307370476
0.005886077734325398
-0.1640742907315604
-0.8643927307370476
0.005886077734325398
-0.1640742907315604
-0.8643927307370476
0.005886077734325398
-0.1640742907315604
-0.8648398993787958
0.007303021173965587
-0.16325585632747786
-0.8648398993787958
0.007303021173965587
-0.16325585632747786
-0.8648398993787958
0.007303021173965587
-0.16325585632747786
-0.8648398993787958
0.007303021173965587
-0.16325585632747786
-0.8633592830716844
0.00867298494587825
-0.16288892908681513
-0.8633592830716844
0.00867298494587825
-0.16288892908681513
-0.8633592830716844
0.00867298494587825
-0.16288892908681513
-0.8633592830716844
0.00867298494587825
-0.16288892908681513
-0.862099075022458
0.010024002164614193
-0.16251276847994942
-0.862099075022458
0.010024002164614193
-0.16251276847994942
-0.862099075022458
0.010024002164614193
-0.16251276847994942
-0.862099075022458
0.010024002164614193
-0.16251276847994942
-0.8609556530786182
0.010817921536922565
-0.16215847888420956
-0.8609556530786182
0.010817921536922565
-0.16215847888420956
-0.8609556530786182
0.010817921536922565
-0.16215847888420956
-0.8609556530786182
0.010817921536922565
-0.16215847888420956
-0.861914616288117
0.01181613255118281
-0.16157333461298734
-0.861914616288117
0.01181613255118281
-0.16157333461298734
-0.861914616288117
0.01181613255118281
-0.16157333461298734
-0.861914616288117
0.01181613255118281
-0.16157333461298734
-0.8631359261418802
0.012033298405395559
-0.16118809173962656
-0.8631359261418802
0.012033298405395559
-0.16118809173962656
-0.8631359261418802
0.012033298405395559
-0.16118809173962656
-0.8631359261418802
0.012033298405395559
-0.16118809173962656
-0.8615551804281706
0.012161312629016192
-0.16118317717054323
-0.8615551804281706
0.012161312629016192
-0.16118317717054323
-0.8615551804281706
0.012161312629016192
-0.16118317717054323
-0.8615551804281706
0.012161312629016192
-0.16118317717054323
-0.8595722096293127
0.012706379906456526
-0.161211494511354
-0.8595722096293127
0.012706379906456526
-0.161211494511354
-0.8595722096293127
0.012706379906456526
-0.161211494511354
-0.8595722096293127
0.012706379906456526
-0.161211494511354
-0.8594487723963583
0.01320300237986264
-0.16102611422531113
-0.8594487723963583
0.01320300237986264
-0.16102611422531113
-0.8594487723963583
0.01320300237986264
-0.16102611422531113
-0.8594487723963583
0.01320300237986264
-0.16102611422531113
-0.8594995276881097
0.013199642151876769
-0.16103537457573633
-0.8594995276881097
0.013199642151876769
-0.16103537457573633
-0.8594995276881097
0.013199642151876769
-0.16103537457573633
-0.8594995276881097
0.013199642151876769
-0.16103537457573633
-0.8590156973899916
0.012588876841379057
-0.16126641270942088
-0.8590156973899916
0.012588876841379057
-0.16126641270942088
-0.8590156973899916
0.012588876841379057
-0.16126641270942088
-0.8590156973899916
0.012588876841379057
-0.16126641270942088
-0.859805110494217
0.01215873780154896
-0.16177590019306157
-0.859805110494217
0.01215873780154896
-0.16177590019306157
-0.859805110494217
0.01215873780154896
-0.16177590019306157
-0.859805110494217
0.01215873780154896
-0.16177590019306157
-0.8604953789254621
0.011856997384727687
-0.16261123976023895
-0.8604953789254621
0.011856997384727687
-0.16261123976023895
-0.8604953789254621
0.011856997384727687
-0.16261123976023895
-0.8604953789254621
0.011856997384727687
-0.16261123976023895
-0.8608925212160788
0.011346915827777884
-0.16307051239082523
-0.8608925212160788
0.011346915827777884
-0.16307051239082523
-0.8608925212160788
0.011346915827777884
-0.16307051239082523
-0.8608925212160788
0.011346915827777884
-0.16307051239082523
-0.8620414102960461
0.010612118792049078
-0.1635864975062018
-0.8620414102960461
0.010612118792049078
-0.1635864975062018
-0.8620414102960461
0.010612118792049078
-0.1635864975062018
-0.8620414102960461
0.010612118792049078
-0.1635864975062018
-0.8626819412854807
0.009747684344339107
-0.16389449440485718
-0.8626819412854807
0.009747684344339107
-0.16389449440485718
-0.8626819412854807
0.009747684344339107
-0.16389449440485718
-0.8626819412854807
0.009747684344339107
-0.16389449440485718
-0.8626782994197384
0.009696776335308712
-0.16400499433782184
-0.8626782994197384
0.009696776335308712
-0.16400499433782184
-0.8626782994197384
0.009696776335308712
-0.16400499433782184
-0.8626782994197384
0.009696776335308712
-0.16400499433782184
-0.8638744121854589
0.009589713756348409
-0.1637375380853795
-0.8638744121854589
0.009589713756348409
-0.1637375380853795
-0.8638744121854589
0.009589713756348409
-0.1637375380853795
-0.8638744121854589
0.009589713756348409
-0.1637375380853795
-0.864624217761255
0.009356687576667907
-0.1635217592808025
-0.864624217761255
0.009356687576667907
-0.1635217592808025
-0.864624217761255
0.009356687576667907
-0.1635217592808025
-0.864624217761255
0.009356687576667907
-0.1635217592808025
-0.8643281244675607
0.009098566349955343
-0.1632563305719273
-0.8643281244675607
0.009098566349955343
-0.1632563305719273
-0.8643281244675607
0.009098566349955343
-0.1632563305719273
-0.8643281244675607
0.009098566349955343
-0.1632563305719273
-0.8644932520032548
0.009136636885288457
-0.16315147469447358
-0.8644932520032548
0.009136636885288457
-0.16315147469447358
-0.8644932520032548
0.009136636885288457
-0.16315147469447358
-0.8644932520032548
0.009136636885288457
-0.16315147469447358
-0.8649878046176008
0.009138579059605363
-0.16276371577687887
-0.8649878046176008
0.009138579059605363
-0.16276371577687887
-0.8649878046176008
0.009138579059605363
-0.16276371577687887
-0.8649878046176008
0.009138579059605363
-0.16276371577687887
-0.8649729916944277
0.008968729167451226
-0.16255119812306898
-0.8649729916944277
0.008968729167451226
-0.16255119812306898
-0.8649729916944277
0.008968729167451226
-0.16255119812306898
-0.8649729916944277
0.008968729167451226
-0.16255119812306898
-0.8649582146247907
0.008798873062491362
-0.16233867946652983
-0.8649582146247907
0.008798873062491362
-0.16233867946652983
-0.8649582146247907
0.008798873062491362
-0.16233867946652983
-0.8649582146247907
0.008798873062491362
-0.16233867946652983
-0.8662630993758283
0.008675714979312035
-0.1617949557138849
-0.8662630993758283
0.008675714979312035
-0.1617949557138849
-0.8662630993758283
0.008675714979312035
-0.1617949557138849
-0.8662630993758283
0.008675714979312035
-0.1617949557138849
-0.8681283724576863
0.008722177024422408
-0.16108517512235115
-0.8681283724576863
0.008722177024422408
-0.16108517512235115
-0.8681283724576863
0.008722177024422408
-0.16108517512235115
-0.8681283724576863
0.008722177024422408
-0.16108517512235115
-0.8682679162394235
0.009087419988849972
-0.16085285540868455
-0.8682679162394235
0.009087419988849972
-0.16085285540868455
-0.8682679162394235
0.009087419988849972
-0.16085285540868455
-0.8682679162394235
0.009087419988849972
-0.16085285540868455
-0.8667366726188586
0.009818256929697023
-0.16099586336858948
-0.8667366726188586
0.009818256929697023
-0.16099586336858948
-0.8667366726188586
0.009818256929697023
-0.16099586336858948
-0.8667366726188586
0.009818256929697023
-0.16099586336858948
-0.8652975336766486
0.010319280503659494
-0.16103209548180777
-0.8652975336766486
0.010319280503659494
-0.16103209548180777
-0.8652975336766486
0.010319280503659494
-0.16103209548180777
-0.8652975336766486
0.010319280503659494
-0.16103209548180777
-0.8661004359195593
0.010741685597547243
-0.16085119790130878
-0.8661004359195593
0.010741685597547243
-0.16085119790130878
-0.8661004359195593
0.010741685597547243
-0.16085119790130878
-0.8661004359195593
0.010741685597547243
-0.16085119790130878
-0.8680400707126532
0.011065366041921498
-0.1604165209380492
-0.8680400707126532
0.011065366041921498
-0.1604165209380492
-0.8680400707126532
0.011065366041921498
-0.1604165209380492
-0.8680400707126532
0.011065366041921498
-0.1604165209380492
-0.8683022215704504
0.011583049639783346
-0.1601217410966583
-0.8683022215704504
0.011583049639783346
-0.1601217410966583
-0.8683022215704504
0.011583049639783346
-0.1601217410966583
-0.8683022215704504
0.011583049639783346
-0.1601217410966583
-0.8670187680112821
0.012011568211566303
-0.16000125416081895
-0.8670187680112821
0.012011568211566303
-0.16000125416081895
-0.8670187680112821
0.012011568211566303
-0.16000125416081895
-0.8670187680112821
0.012011568211566303
-0.16000125416081895
-0.8658170127757414
0.012056641660352672
-0.16010590408158898
-0.8658170127757414
0.012056641660352672
-0.16010590408158898
-0.8658170127757414
0.012056641660352672
-0.16010590408158898
-0.8658170127757414
0.012056641660352672
-0.16010590408158898
-0.8661175775833501
0.012409064028755497
-0.15987916185414158
-0.8661175775833501
0.012409064028755497
-0.15987916185414158
-0.8661175775833501
0.012409064028755497
-0.15987916185414158
-0.8661175775833501
0.012409064028755497
-0.15987916185414158
-0.8672908853737248
0.012682657938088364
-0.1593751617375318
-0.8672908853737248
0.012682657938088364
-0.1593751617375318
-0.8672908853737248
0.012682657938088364
-0.1593751617375318
-0.8672908853737248
0.012682657938088364
-0.1593751617375318
-0.8668347121729384
0.013164224573929753
-0.1595841942916959
-0.8668347121729384
0.013164224573929753
-0.1595841942916959
-0.8668347121729384
0.013164224573929753
-0.1595841942916959
-0.8668347121729384
0.013164224573929753
-0.1595841942916959
-0.8654990051200675
0.013552886058053373
-0.15983559378285112
-0.8654990051200675
0.013552886058053373
-0.15983559378285112
-0.8654990051200675
0.013552886058053373
-0.15983559378285112
-0.8654990051200675
0.013552886058053373
-0.15983559378285112
-0.8643065413359019
0.013708404436785953
-0.15999030638138118
-0.8643065413359019
0.013708404436785953
-0.15999030638138118
-0.8643065413359019
0.013708404436785953
-0.15999030638138118
-0.8643065413359019
0.013708404436785953
-0.15999030638138118
-0.8643065413359019
0.013708404436785953
-0.15999030638138118
-0.8643065413359019
0.013708404436785953
-0.15999030638138118
-0.8643065413359019
0.013708404436785953
-0.15999030638138118
-0.8643065413359019
0.013708404436785953
-0.15999030638138118
-0.8652714285281576
0.013469120113737451
-0.16006317037476075
-0.8652714285281576
0.013469120113737451
-0.16006317037476075
-0.8652714285281576
0.013469120113737451
-0.16006317037476075
-0.8652714285281576
0.013469120113737451
-0.16006317037476075
-0.8664455811677483
0.013092804528465158
-0.15980594536585882
-0.8664455811677483
0.013092804528465158
-0.15980594536585882
-0.8664455811677483
0.013092804528465158
-0.15980594536585882
-0.8664455811677483
0.013092804528465158
-0.15980594536585882
-0.8662622969929228
0.012833393623535583
-0.15980829318307
-0.8662622969929228
0.012833393623535583
-0.15980829318307
-0.8662622969929228
0.012833393623535583
-0.15980829318307
-0.8662622969929228
0.012833393623535583
-0.15980829318307
-0.865675945402333
0.012375781973672468
-0.15943752967312416
-0.865675945402333
0.012375781973672468
-0.15943752967312416
-0.865675945402333
0.012375781973672468
-0.15943752967312416
-0.865675945402333
0.012375781973672468
-0.15943752967312416
-0.865349217699859
0.011734801220893874
-0.159128698572704
-0.865349217699859
0.011734801220893874
-0.159128698572704
-0.865349217699859
0.011734801220893874
-0.159128698572704
-0.865349217699859
0.011734801220893874
-0.159128698572704
-0.8670178071180887
0.011362366338488451
-0.15848336690269346
-0.8670178071180887
0.011362366338488451
-0.15848336690269346
-0.8670178071180887
0.011362366338488451
-0.15848336690269346
-0.8670178071180887
0.011362366338488451
-0.15848336690269346
-0.86775453696635
0.010312207184693152
-0.15830105317853108
-0.86775453696635
0.010312207184693152
-0.15830105317853108
-0.86775453696635
0.010312207184693152
-0.15830105317853108
-0.86775453696635
0.010312207184693152
-0.15830105317853108
-0.8666054951469959
0.00963353915602984
-0.1582068343117818
-0.8666054951469959
0.00963353915602984
-0.1582068343117818
-0.8666054951469959
0.00963353915602984
-0.1582068343117818
-0.8666054951469959
0.00963353915602984
-0.1582068343117818
-0.8652770816383972
0.008746401661675809
-0.1580058480510276
-0.8652770816383972
0.008746401661675809
-0.1580058480510276
-0.8652770816383972
0.008746401661675809
-0.1580058480510276
-0.8652770816383972
0.008746401661675809
-0.1580058480510276
-0.8660053140311309
0.007585788051990367
-0.15777238852523495
-0.8660053140311309
0.007585788051990367
-0.15777238852523495
-0.8660053140311309
0.007585788051990367
-0.15777238852523495
-0.8660053140311309
0.007585788051990367
-0.15777238852523495
-0.8672465683129579
0.006649966018171836
-0.1572521468263295
-0.8672465683129579
0.006649966018171836
-0.1572521468263295
-0.8672465683129579
0.006649966018171836
-0.1572521468263295
-0.8672465683129579
0.006649966018171836
-0.1572521468263295
-0.8678213649404107
0.005604712852572348
-0.1567908540074326
-0.8678213649404107
0.005604712852572348
-0.1567908540074326
-0.8678213649404107
0.005604712852572348
-0.1567908540074326
-0.8678213649404107
0.005604712852572348
-0.1567908540074326
-0.8675053515515994
0.005074002189848493
-0.15653360610178993
-0.8675053515515994
0.005074002189848493
-0.15653360610178993
-0.8675053515515994
0.005074002189848493
-0.15653360610178993
-0.8675053515515994
0.005074002189848493
-0.15653360610178993
-0.8660939955220635
0.0045261379645576815
-0.15649234543045204
-0.8660939955220635
0.0045261379645576815
-0.15649234543045204
-0.8660939955220635
0.0045261379645576815
-0.15649234543045204
-0.8660939955220635
0.0045261379645576815
-0.15649234543045204
-0.8661150068693708
0.004139931005729228
-0.15645830667140168
-0.8661150068693708
0.004139931005729228
-0.15645830667140168
-0.8661150068693708
0.004139931005729228
-0.15645830667140168
-0.8661150068693708
0.004139931005729228
-0.15645830667140168
-0.8670376685903873
0.004016115985799969
-0.15656857553105583
-0.8670376685903873
0.004016115985799969
-0.15656857553105583
-0.8670376685903873
0.004016115985799969
-0.15656857553105583
-0.8670376685903873
0.004016115985799969
-0.15656857553105583
-0.8673485423838437
0.0044876367872705245
-0.15666395941724526
-0.8673485423838437
0.0044876367872705245
-0.15666395941724526
-0.8673485423838437
0.0044876367872705245
-0.15666395941724526
-0.8673485423838437
0.0044876367872705245
-0.15666395941724526
-0.8668132382160099
0.0060606471369902045
-0.15656500096938947
-0.8668132382160099
0.0060606471369902045
-0.15656500096938947
-0.8668132382160099
0.0060606471369902045
-0.15656500096938947
-0.8668132382160099
0.0060606471369902045
-0.15656500096938947
-0.864256595558624
0.008347558589792194
-0.15670293626828855
-0.864256595558624
0.008347558589792194
-0.15670293626828855
-0.864256595558624
0.008347558589792194
-0.15670293626828855
-0.864256595558624
0.008347558589792194
-0.15670293626828855
-0.8601442856494099
0.012543146142768908
-0.1561764978849502
-0.8601442856494099
0.012543146142768908
-0.1561764978849502
-0.8601442856494099
0.012543146142768908
-0.1561764978849502
-0.8601442856494099
0.012543146142768908
-0.1561764978849502
-0.8551600054045361
0.01830413840863582
-0.15469326824977436
-0.8551600054045361
0.01830413840863582
-0.15469326824977436
-0.8551600054045361
0.01830413840863582
-0.15469326824977436
-0.8551600054045361
0.01830413840863582
-0.15469326824977436
-0.8466840860555713
0.02510757260617788
-0.15349925826145666
-0.8466840860555713
0.02510757260617788
-0.15349925826145666
-0.8466840860555713
0.02510757260617788
-0.15349925826145666
-0.8466840860555713
0.02510757260617788
-0.15349925826145666
-0.8372814796980008
0.032876552369860125
-0.15169411745704262
-0.8372814796980008
0.032876552369860125
-0.15169411745704262
-0.8372814796980008
0.032876552369860125
-0.15169411745704262
-0.8372814796980008
0.032876552369860125
-0.15169411745704262
-0.826220728645892
0.040852596303586175
-0.14957348362737272
-0.826220728645892
0.040852596303586175
-0.14957348362737272
-0.826220728645892
0.040852596303586175
-0.14957348362737272
-0.826220728645892
0.040852596303586175
-0.14957348362737272
-0.8108614924043911
0.048093644052109315
-0.14748886800189626
-0.8108614924043911
0.048093644052109315
-0.14748886800189626
-0.8108614924043911
0.048093644052109315
-0.14748886800189626
-0.8108614924043911
0.048093644052109315
-0.14748886800189626
-0.7904209612669116
0.05559403521261925
-0.14406442910567105
-0.7904209612669116
0.05559403521261925
-0.14406442910567105
-0.7904209612669116
0.05559403521261925
-0.14406442910567105
-0.7904209612669116
0.05559403521261925
-0.14406442910567105
-0.7686236284317468
0.062058251367114896
-0.13950644903835657
-0.7686236284317468
0.062058251367114896
-0.13950644903835657
-0.7686236284317468
0.062058251367114896
-0.13950644903835657
-0.7686236284317468
0.062058251367114896
-0.13950644903835657
-0.7477709914040156
0.06737426147933491
-0.13367678027594623
-0.7477709914040156
0.06737426147933491
-0.13367678027594623
-0.7477709914040156
0.06737426147933491
-0.13367678027594623
-0.7477709914040156
0.06737426147933491
-0.13367678027594623
-0.7258287084291145
0.07059295458045255
-0.12863134314529762
-0.7258287084291145
0.07059295458045255
-0.12863134314529762
-0.7258287084291145
0.07059295458045255
-0.12863134314529762
-0.7258287084291145
0.07059295458045255
-0.12863134314529762
-0.7010199717018305
0.07244264159642777
-0.12380816872931598
-0.7010199717018305
0.07244264159642777
-0.12380816872931598
-0.7010199717018305
0.07244264159642777
-0.12380816872931598
-0.7010199717018305
0.07244264159642777
-0.12380816872931598
-0.6765185006346233
0.0737832317398279
-0.11857610815619538
-0.6765185006346233
0.0737832317398279
-0.11857610815619538
-0.6765185006346233
0.0737832317398279
-0.11857610815619538
-0.6765185006346233
0.0737832317398279
-0.11857610815619538
-0.6555502772109816
0.07562443693370519
-0.11180425268018465
-0.6555502772109816
0.07562443693370519
-0.11180425268018465
-0.6555502772109816
0.07562443693370519
-0.11180425268018465
-0.6555502772109816
0.07562443693370519
-0.11180425268018465
-0.6382451799141544
0.07821666895141506
-0.10383361988880474
-0.6382451799141544
0.07821666895141506
-0.10383361988880474
-0.6382451799141544
0.07821666895141506
-0.10383361988880474
-0.6382451799141544
0.07821666895141506
-0.10383361988880474
-0.6234018886051843
0.07986726605559674
-0.09609049646662804
-0.6234018886051843
0.07986726605559674
-0.09609049646662804
-0.6234018886051843
0.07986726605559674
-0.09609049646662804
-0.6234018886051843
0.07986726605559674
-0.09609049646662804
-0.6101486973050513
0.07990597470497413
-0.09050271276527393
-0.6101486973050513
0.07990597470497413
-0.09050271276527393
-0.6101486973050513
0.07990597470497413
-0.09050271276527393
-0.6101486973050513
0.07990597470497413
-0.09050271276527393
-0.595914898607009
0.07827327617318589
-0.08731075865458492
-0.595914898607009
0.07827327617318589
-0.08731075865458492
-0.595914898607009
0.07827327617318589
-0.08731075865458492
-0.595914898607009
0.07827327617318589
-0.08731075865458492
-0.5776173165186009
0.07502127848573106
-0.08474737096471531
-0.5776173165186009
0.07502127848573106
-0.08474737096471531
-0.5776173165186009
0.07502127848573106
-0.08474737096471531
-0.5776173165186009
0.07502127848573106
-0.08474737096471531
-0.5582419590457217
0.0691692670295618
-0.08285867080423406
-0.5582419590457217
0.0691692670295618
-0.08285867080423406
-0.5582419590457217
0.0691692670295618
-0.08285867080423406
-0.5582419590457217
0.0691692670295618
-0.08285867080423406
-0.5413733786425136
0.06137020125146705
-0.08041327313026873
-0.5413733786425136
0.06137020125146705
-0.08041327313026873
-0.5413733786425136
0.06137020125146705
-0.08041327313026873
-0.5413733786425136
0.06137020125146705
-0.08041327313026873
-0.5264199192458581
0.05266738932070158
-0.07781610416028785
-0.5264199192458581
0.05266738932070158
-0.07781610416028785
-0.5264199192458581
0.05266738932070158
-0.07781610416028785
-0.5264199192458581
0.05266738932070158
-0.07781610416028785
-0.5146333260008925
0.04358665884422873
-0.07435342128911773
-0.5146333260008925
0.04358665884422873
-0.07435342128911773
-0.5146333260008925
0.04358665884422873
-0.07435342128911773
-0.5146333260008925
0.04358665884422873
-0.07435342128911773
-0.508248097503998
0.03467059726523798
-0.07057176985389828
-0.508248097503998
0.03467059726523798
-0.07057176985389828
-0.508248097503998
0.03467059726523798
-0.07057176985389828
-0.508248097503998
0.03467059726523798
-0.07057176985389828
-0.5070709449109061
0.026418663833516258
-0.06650505732514736
-0.5070709449109061
0.026418663833516258
-0.06650505732514736
-0.5070709449109061
0.026418663833516258
-0.06650505732514736
-0.5070709449109061
0.026418663833516258
-0.06650505732514736
-0.5083881469543412
0.01890947153614782
-0.06319311529343706
-0.5083881469543412
0.01890947153614782
-0.06319311529343706
-0.5083881469543412
0.01890947153614782
-0.06319311529343706
-0.5083881469543412
0.01890947153614782
-0.06319311529343706
-0.5106694713937021
0.012845818323241678
-0.0610174040595807
-0.5106694713937021
0.012845818323241678
-0.0610174040595807
-0.5106694713937021
0.012845818323241678
-0.0610174040595807
-0.5106694713937021
0.012845818323241678
-0.0610174040595807
-0.5121630969253107
0.008608752245375722
-0.05967687623243203
-0.5121630969253107
0.008608752245375722
-0.05967687623243203
-0.5121630969253107
0.008608752245375722
-0.05967687623243203
-0.5121630969253107
0.008608752245375722
-0.05967687623243203
-0.5123059247788431
0.005563621118717102
-0.05875384931714298
-0.5123059247788431
0.005563621118717102
-0.05875384931714298
-0.5123059247788431
0.005563621118717102
-0.05875384931714298
-0.5123059247788431
0.005563621118717102
-0.05875384931714298
-0.5126021780307276
0.0036393685674455836
-0.057872041268804034
-0.5126021780307276
0.0036393685674455836
-0.057872041268804034
-0.5126021780307276
0.0036393685674455836
-0.057872041268804034
-0.5126021780307276
0.0036393685674455836
-0.057872041268804034
-0.5134594136504711
0.0025884785218101094
-0.056974239880049314
-0.5134594136504711
0.0025884785218101094
-0.056974239880049314
-0.5134594136504711
0.0025884785218101094
-0.056974239880049314
-0.5134594136504711
0.0025884785218101094
-0.056974239880049314
-0.5145733165973949
0.0022458626916176208
-0.05575718406644141
-0.5145733165973949
0.0022458626916176208
-0.05575718406644141
-0.5145733165973949
0.0022458626916176208
-0.05575718406644141
-0.5145733165973949
0.0022458626916176208
-0.05575718406644141
-0.5155957381132822
0.0028517734432542976
-0.05478940088747455
-0.5155957381132822
0.0028517734432542976
-0.05478940088747455
-0.5155957381132822
0.0028517734432542976
-0.05478940088747455
-0.5155957381132822
0.0028517734432542976
-0.05478940088747455
-0.5159839491917434
0.004190551200612029
-0.05350269780248328
-0.5159839491917434
0.004190551200612029
-0.05350269780248328
-0.5159839491917434
0.004190551200612029
-0.05350269780248328
-0.5159839491917434
0.004190551200612029
-0.05350269780248328
-0.5153000991402646
0.006415827898296345
-0.052317510654428176
-0.5153000991402646
0.006415827898296345
-0.052317510654428176
-0.5153000991402646
0.006415827898296345
-0.052317510654428176
-0.5153000991402646
0.006415827898296345
-0.052317510654428176
-0.5142224709595868
0.009563565384506941
-0.05149158665605587
-0.5142224709595868
0.009563565384506941
-0.05149158665605587
-0.5142224709595868
0.009563565384506941
-0.05149158665605587
-0.5142224709595868
0.009563565384506941
-0.05149158665605587
-0.5133072632983563
0.013204103367358022
-0.051174535629556844
-0.5133072632983563
0.013204103367358022
-0.051174535629556844
-0.5133072632983563
0.013204103367358022
-0.051174535629556844
-0.5133072632983563
0.013204103367358022
-0.051174535629556844
-0.5127857652356825
0.01718883752058275
-0.05095094319358659
-0.5127857652356825
0.01718883752058275
-0.05095094319358659
-0.5127857652356825
0.01718883752058275
-0.05095094319358659
-0.5127857652356825
0.01718883752058275
-0.05095094319358659
-0.5134431199071032
0.021909070403673764
-0.051192641176529226
-0.5134431199071032
0.021909070403673764
-0.051192641176529226
-0.5134431199071032
0.021909070403673764
-0.051192641176529226
-0.5134431199071032
0.021909070403673764
-0.051192641176529226
-0.5149773946877017
0.027407263878926166
-0.0512790023007933
-0.5149773946877017
0.027407263878926166
-0.0512790023007933
-0.5149773946877017
0.027407263878926166
-0.0512790023007933
-0.5149773946877017
0.027407263878926166
-0.0512790023007933
-0.5175536680770773
0.03299796038952903
-0.05142485275472294
-0.5175536680770773
0.03299796038952903
-0.05142485275472294
-0.5175536680770773
0.03299796038952903
-0.05142485275472294
-0.5175536680770773
0.03299796038952903
-0.05142485275472294
-0.5221527638678851
0.03855904612303599
-0.052008563203958885
-0.5221527638678851
0.03855904612303599
-0.052008563203958885
-0.5221527638678851
0.03855904612303599
-0.052008563203958885
-0.5221527638678851
0.03855904612303599
-0.052008563203958885
-0.5288161148086639
0.04417277908597284
-0.053200548867265225
-0.5288161148086639
0.04417277908597284
-0.053200548867265225
-0.5288161148086639
0.04417277908597284
-0.053200548867265225
-0.5288161148086639
0.04417277908597284
-0.053200548867265225
-0.5364967941563159
0.04953559673157133
-0.0547754634232544
-0.5364967941563159
0.04953559673157133
-0.0547754634232544
-0.5364967941563159
0.04953559673157133
-0.0547754634232544
-0.5364967941563159
0.04953559673157133
-0.0547754634232544
-0.5499495525934853
0.054076901435895816
-0.0575122691356607
-0.5499495525934853
0.054076901435895816
-0.0575122691356607
-0.5499495525934853
0.054076901435895816
-0.0575122691356607
-0.5499495525934853
0.054076901435895816
-0.0575122691356607
-0.5675070485673985
0.05763498273791079
-0.061082317459329245
-0.5675070485673985
0.05763498273791079
-0.061082317459329245
-0.5675070485673985
0.05763498273791079
-0.061082317459329245
-0.5675070485673985
0.05763498273791079
-0.061082317459329245
-0.5868766172228335
0.059821804516135155
-0.06554198492580723
-0.5868766172228335
0.059821804516135155
-0.06554198492580723
-0.5868766172228335
0.059821804516135155
-0.06554198492580723
-0.5868766172228335
0.059821804516135155
-0.06554198492580723
-0.6077991084982486
0.05988290811243259
-0.07113528241746682
-0.6077991084982486
0.05988290811243259
-0.07113528241746682
-0.6077991084982486
0.05988290811243259
-0.07113528241746682
-0.6077991084982486
0.05988290811243259
-0.07113528241746682
-0.6315381444490816
0.05691346949707595
-0.07795610419411993
-0.6315381444490816
0.05691346949707595
-0.07795610419411993
-0.6315381444490816
0.05691346949707595
-0.07795610419411993
-0.6315381444490816
0.05691346949707595
-0.07795610419411993
-0.6614625666345643
0.052145974407642216
-0.08402045244464411
-0.6614625666345643
0.052145974407642216
-0.08402045244464411
-0.6614625666345643
0.052145974407642216
-0.08402045244464411
-0.6614625666345643
0.052145974407642216
-0.08402045244464411
-0.7038357661623545
0.04971847467668394
-0.08968613062134682
-0.7038357661623545
0.04971847467668394
-0.08968613062134682
-0.7038357661623545
0.04971847467668394
-0.08968613062134682
-0.7038357661623545
0.04971847467668394
-0.08968613062134682
-0.7558491183486538
0.04930326606568561
-0.09802754579375154
-0.7558491183486538
0.04930326606568561
-0.09802754579375154
-0.7558491183486538
0.04930326606568561
-0.09802754579375154
-0.7558491183486538
0.04930326606568561
-0.09802754579375154
-0.8123264786370118
0.04749117055940445
-0.10764153552163873
-0.8123264786370118
0.04749117055940445
-0.10764153552163873
-0.8123264786370118
0.04749117055940445
-0.10764153552163873
-0.8123264786370118
0.04749117055940445
-0.10764153552163873
-0.8521334919335407
0.04423185994173538
-0.11665371981841297
-0.8521334919335407
0.04423185994173538
-0.11665371981841297
-0.8521334919335407
0.04423185994173538
-0.11665371981841297
-0.8521334919335407
0.04423185994173538
-0.11665371981841297
-0.8700218915469069
0.03841358071724994
-0.12587004361186863
-0.8700218915469069
0.03841358071724994
-0.12587004361186863
-0.8700218915469069
0.03841358071724994
-0.12587004361186863
-0.8700218915469069
0.03841358071724994
-0.12587004361186863
-0.8664449319335721
0.029294558249563278
-0.13494793875442962
-0.8664449319335721
0.029294558249563278
-0.13494793875442962
-0.8664449319335721
0.029294558249563278
-0.13494793875442962
-0.8664449319335721
0.029294558249563278
-0.13494793875442962
-0.8570288106974604
0.020979072483937784
-0.1432202863637388
-0.8570288106974604
0.020979072483937784
-0.1432202863637388
-0.8570288106974604
0.020979072483937784
-0.1432202863637388
-0.8570288106974604
0.020979072483937784
-0.1432202863637388
-0.8595088029612695
0.01400290339397457
-0.1477987219669095
-0.8595088029612695
0.01400290339397457
-0.1477987219669095
-0.8595088029612695
0.01400290339397457
-0.1477987219669095
-0.8595088029612695
0.01400290339397457
-0.1477987219669095
-0.8700804197079229
0.005111231299232785
-0.14963198019239868
-0.8700804197079229
0.005111231299232785
-0.14963198019239868
-0.8700804197079229
0.005111231299232785
-0.14963198019239868
-0.8700804197079229
0.005111231299232785
-0.14963198019239868
-0.8817122042481359
-0.001910313523483824
-0.14892603568472995
-0.8817122042481359
-0.001910313523483824
-0.14892603568472995
-0.8872948047775893
-0.007100525978038801
-0.1484174224307935
-0.8872948047775893
-0.007100525978038801
-0.1484174224307935
-0.8872948047775893
-0.007100525978038801
-0.1484174224307935
-0.8872948047775893
-0.007100525978038801
-0.1484174224307935
-0.8859462008847628
-0.010499511804705363
-0.14865585594764802
-0.8859462008847628
-0.010499511804705363
-0.14865585594764802
-0.8859462008847628
-0.010499511804705363
-0.14865585594764802
-0.8859462008847628
-0.010499511804705363
-0.14865585594764802
-0.8819357310290867
-0.012039722368802847
-0.1497042034674099
-0.8819357310290867
-0.012039722368802847
-0.1497042034674099
-0.8819357310290867
-0.012039722368802847
-0.1497042034674099
-0.8819357310290867
-0.012039722368802847
-0.1497042034674099
-0.8836980494216643
-0.011968365809431215
-0.14898006366855776
-0.8836980494216643
-0.011968365809431215
-0.14898006366855776
-0.8836980494216643
-0.011968365809431215
-0.14898006366855776
-0.8836980494216643
-0.011968365809431215
-0.14898006366855776
-0.886723293620697
-0.011035600651415468
-0.14937052132652895
-0.886723293620697
-0.011035600651415468
-0.14937052132652895
-0.886723293620697
-0.011035600651415468
-0.14937052132652895
-0.886723293620697
-0.011035600651415468
-0.14937052132652895
-0.8890795092812412
-0.009439230229901827
-0.1504786085938949
-0.8890795092812412
-0.009439230229901827
-0.1504786085938949
-0.8890795092812412
-0.009439230229901827
-0.1504786085938949
-0.8890795092812412
-0.009439230229901827
-0.1504786085938949
-0.890458936837282
-0.007770751686654026
-0.15158885838255132
-0.890458936837282
-0.007770751686654026
-0.15158885838255132
-0.890458936837282
-0.007770751686654026
-0.15158885838255132
-0.890458936837282
-0.007770751686654026
-0.15158885838255132
-0.8892340492824875
-0.005861896685983712
-0.1520472848570522
-0.8892340492824875
-0.005861896685983712
-0.1520472848570522
-0.8892340492824875
-0.005861896685983712
-0.1520472848570522
-0.8892340492824875
-0.005861896685983712
-0.1520472848570522
-0.8871695992910186
-0.004242019806888545
-0.1512586085933854
-0.8871695992910186
-0.004242019806888545
-0.1512586085933854
-0.8871695992910186
-0.004242019806888545
-0.1512586085933854
-0.8871695992910186
-0.004242019806888545
-0.1512586085933854
-0.8857907669929113
-0.0022444136663774743
-0.15012700991196032
-0.8857907669929113
-0.0022444136663774743
-0.15012700991196032
-0.8857907669929113
-0.0022444136663774743
-0.15012700991196032
-0.8857907669929113
-0.0022444136663774743
-0.15012700991196032
-0.8862780924805945
-1.778659506116616E-4
-0.1485472527945743
-0.8862780924805945
-1.778659506116616E-4
-0.1485472527945743
-0.8862780924805945
-1.778659506116616E-4
-0.1485472527945743
-0.8862780924805945
-1.778659506116616E-4
-0.1485472527945743
-0.8866528370211967
0.001903023839441782
-0.1472444603024845
-0.8866528370211967
0.001903023839441782
-0.1472444603024845
-0.8866528370211967
0.001903023839441782
-0.1472444603024845
-0.8866528370211967
0.001903023839441782
-0.1472444603024845
-0.8839669936145835
0.004109336981212263
-0.1464357294506916
-0.8839669936145835
0.004109336981212263
-0.1464357294506916
-0.8839669936145835
0.004109336981212263
-0.1464357294506916
-0.8839669936145835
0.004109336981212263
-0.1464357294506916
-0.8816739979588293
0.005704234777945431
-0.14656600368072928
-0.8816739979588293
0.005704234777945431
-0.14656600368072928
-0.8816739979588293
0.005704234777945431
-0.14656600368072928
-0.8816739979588293
0.005704234777945431
-0.14656600368072928
-0.8805245491246929
0.007162817286748743
-0.14679689570252227
-0.8805245491246929
0.007162817286748743
-0.14679689570252227
-0.8805245491246929
0.007162817286748743
-0.14679689570252227
-0.8805245491246929
0.007162817286748743
-0.14679689570252227
-0.8812091370023316
0.007542539674289865
-0.14645984892007963
-0.8812091370023316
0.007542539674289865
-0.14645984892007963
-0.8812091370023316
0.007542539674289865
-0.14645984892007963
-0.8812091370023316
0.007542539674289865
-0.14645984892007963
-0.8828090316375301
0.006982655541878407
-0.14626051074844648
-0.8828090316375301
0.006982655541878407
-0.14626051074844648
-0.8828090316375301
0.006982655541878407
-0.14626051074844648
-0.8828090316375301
0.006982655541878407
-0.14626051074844648
-0.8829108485743238
0.006864356353399266
-0.14620504164269402
-0.8829108485743238
0.006864356353399266
-0.14620504164269402
-0.8829108485743238
0.006864356353399266
-0.14620504164269402
-0.8829108485743238
0.006864356353399266
-0.14620504164269402
-0.8819106491801302
0.0059079367359268845
-0.146662966312923
-0.8819106491801302
0.0059079367359268845
-0.146662966312923
-0.8819106491801302
0.0059079367359268845
-0.146662966312923
-0.8819106491801302
0.0059079367359268845
-0.146662966312923
-0.880235575086687
0.004728157137638163
-0.14712945905560545
-0.880235575086687
0.004728157137638163
-0.14712945905560545
-0.880235575086687
0.004728157137638163
-0.14712945905560545
-0.880235575086687
0.004728157137638163
-0.14712945905560545
-0.8797639448185788
0.0035512865207364725
-0.1468335749799226
-0.8797639448185788
0.0035512865207364725
-0.1468335749799226
-0.8797639448185788
0.0035512865207364725
-0.1468335749799226
-0.8797639448185788
0.0035512865207364725
-0.1468335749799226
-0.8806946700307995
0.0020433184768295742
-0.14615438827108831
-0.8806946700307995
0.0020433184768295742
-0.14615438827108831
-0.8806946700307995
0.0020433184768295742
-0.14615438827108831
-0.8806946700307995
0.0020433184768295742
-0.14615438827108831
-0.8815404158492448
8.744032601230814E-4
-0.14563341045902198
-0.8815404158492448
8.744032601230814E-4
-0.14563341045902198
-0.8815404158492448
8.744032601230814E-4
-0.14563341045902198
-0.8815404158492448
8.744032601230814E-4
-0.14563341045902198
-0.8806563410747409
7.346178300001743E-6
-0.14559878542885138
-0.8806563410747409
7.346178300001743E-6
-0.14559878542885138
-0.8806563410747409
7.346178300001743E-6
-0.14559878542885138
-0.8806563410747409
7.346178300001743E-6
-0.14559878542885138
-0.8807630016980819
-7.627330121835955E-4
-0.14578406523221737
-0.8807630016980819
-7.627330121835955E-4
-0.14578406523221737
-0.8807630016980819
-7.627330121835955E-4
-0.14578406523221737
-0.8807630016980819
-7.627330121835955E-4
-0.14578406523221737
-0.8815679584116454
-9.781831495299402E-4
-0.1461154541579099
-0.8815679584116454
-9.781831495299402E-4
-0.1461154541579099
-0.8815679584116454
-9.781831495299402E-4
-0.1461154541579099
-0.8815679584116454
-9.781831495299402E-4
-0.1461154541579099
-0.8816819202444308
-9.342719550436866E-4
-0.14600149232512435
-0.8816819202444308
-9.342719550436866E-4
-0.14600149232512435
-0.8816819202444308
-9.342719550436866E-4
-0.14600149232512435
-0.8816819202444308
-9.342719550436866E-4
-0.14600149232512435
-0.8832949858146717
-0.0013258783575629807
-0.1460093552050677
-0.8832949858146717
-0.0013258783575629807
-0.1460093552050677
-0.8832949858146717
-0.0013258783575629807
-0.1460093552050677
-0.8832949858146717
-0.0013258783575629807
-0.1460093552050677
-0.8834050501446337
-0.0013338929706946333
-0.14600547611856735
-0.8834050501446337
-0.0013338929706946333
-0.14600547611856735
-0.8834050501446337
-0.0013338929706946333
-0.14600547611856735
-0.8834050501446337
-0.0013338929706946333
-0.14600547611856735
-0.8830311173600833
-0.0011898598714877079
-0.14633327454215722
-0.8830311173600833
-0.0011898598714877079
-0.14633327454215722
-0.8830311173600833
-0.0011898598714877079
-0.14633327454215722
-0.8830311173600833
-0.0011898598714877079
-0.14633327454215722
-0.8820926375495444
-0.0012840273169838848
-0.1463944127942486
-0.8820926375495444
-0.0012840273169838848
-0.1463944127942486
-0.8820926375495444
-0.0012840273169838848
-0.1463944127942486
-0.8820926375495444
-0.0012840273169838848
-0.1463944127942486
-0.8813978821369535
-0.001076407846730653
-0.14605934722189695
-0.8813978821369535
-0.001076407846730653
-0.14605934722189695
-0.8813978821369535
-0.001076407846730653
-0.14605934722189695
-0.8813978821369535
-0.001076407846730653
-0.14605934722189695
-0.8834400508609789
-8.595454980919606E-4
-0.1452870726503896
-0.8834400508609789
-8.595454980919606E-4
-0.1452870726503896
-0.8834400508609789
-8.595454980919606E-4
-0.1452870726503896
-0.8834400508609789
-8.595454980919606E-4
-0.1452870726503896
-0.8846503054881137
-7.904364408947713E-4
-0.14495435372598728
-0.8846503054881137
-7.904364408947713E-4
-0.14495435372598728
-0.8846503054881137
-7.904364408947713E-4
-0.14495435372598728
-0.8846503054881137
-7.904364408947713E-4
-0.14495435372598728
-0.8842882037935006
-4.8465821074228366E-4
-0.14522418403664616
-0.8842882037935006
-4.8465821074228366E-4
-0.14522418403664616
-0.8842882037935006
-4.8465821074228366E-4
-0.14522418403664616
-0.8842882037935006
-4.8465821074228366E-4
-0.14522418403664616
-0.8830901895399874
-3.8542285110498067E-4
-0.14577086009003992
-0.8830901895399874
-3.8542285110498067E-4
-0.14577086009003992
-0.8830901895399874
-3.8542285110498067E-4
-0.14577086009003992
-0.8830901895399874
-3.8542285110498067E-4
-0.14577086009003992
-0.8816236691709342
4.965093077799742E-4
-0.14612823301911534
-0.8816236691709342
4.965093077799742E-4
-0.14612823301911534
-0.8816236691709342
4.965093077799742E-4
-0.14612823301911534
-0.8816236691709342
4.965093077799742E-4
-0.14612823301911534
-0.8826774921466203
0.0014554786123262102
-0.14594770554974784
-0.8826774921466203
0.0014554786123262102
-0.14594770554974784
-0.8826774921466203
0.0014554786123262102
-0.14594770554974784
-0.8826774921466203
0.0014554786123262102
-0.14594770554974784
-0.8826774921466203
0.0014554786123262102
-0.14594770554974784
-0.8826774921466203
0.0014554786123262102
-0.14594770554974784
-0.8826774921466203
0.0014554786123262102
-0.14594770554974784
-0.8826774921466203
0.0014554786123262102
-0.14594770554974784
-0.8822631437794944
0.0017593292565565117
-0.1459365791924141
-0.8822631437794944
0.0017593292565565117
-0.1459365791924141
-0.8822631437794944
0.0017593292565565117
-0.1459365791924141
-0.8822631437794944
0.0017593292565565117
-0.1459365791924141
-0.8816205255120317
0.001969256276892352
-0.1458807406372248
-0.8816205255120317
0.001969256276892352
-0.1458807406372248
-0.8816205255120317
0.001969256276892352
-0.1458807406372248
-0.8816205255120317
0.001969256276892352
-0.1458807406372248
-0.8811701394976557
0.001780695507004055
-0.14577174827194697
-0.8811701394976557
0.001780695507004055
-0.14577174827194697
-0.8811701394976557
0.001780695507004055
-0.14577174827194697
-0.8811701394976557
0.001780695507004055
-0.14577174827194697
-0.8808935969931269
0.001742352312109837
-0.14560901362943734
-0.8808935969931269
0.001742352312109837
-0.14560901362943734
-0.8808935969931269
0.001742352312109837
-0.14560901362943734
-0.8808935969931269
0.001742352312109837
-0.14560901362943734
-0.8822493539061876
0.0015789145342137206
-0.1451781927718508
-0.8822493539061876
0.0015789145342137206
-0.1451781927718508
-0.8822493539061876
0.0015789145342137206
-0.1451781927718508
-0.8822493539061876
0.0015789145342137206
-0.1451781927718508
-0.8828870780859832
0.001305120140578823
-0.14479959093920364
-0.8828870780859832
0.001305120140578823
-0.14479959093920364
-0.8828870780859832
0.001305120140578823
-0.14479959093920364
-0.8828870780859832
0.001305120140578823
-0.14479959093920364
-0.8828864629153832
0.0012990885345467826
-0.1445274146277223
-0.8828864629153832
0.0012990885345467826
-0.1445274146277223
-0.8828864629153832
0.0012990885345467826
-0.1445274146277223
-0.8828864629153832
0.0012990885345467826
-0.1445274146277223
-0.8826924016580276
8.704622061983015E-4
-0.1443150600092312
-0.8826924016580276
8.704622061983015E-4
-0.1443150600092312
-0.8826924016580276
8.704622061983015E-4
-0.1443150600092312
-0.8826924016580276
8.704622061983015E-4
-0.1443150600092312
-0.8826924016580276
8.704622061983015E-4
-0.1443150600092312
-0.8826924016580276
8.704622061983015E-4
-0.1443150600092312
-0.8826924016580276
8.704622061983015E-4
-0.1443150600092312
-0.8826924016580276
8.704622061983015E-4
-0.1443150600092312
-0.883311219218331
3.3084166392018365E-4
-0.1442143403619465
-0.883311219218331
3.3084166392018365E-4
-0.1442143403619465
-0.883311219218331
3.3084166392018365E-4
-0.1442143403619465
-0.883311219218331
3.3084166392018365E-4
-0.1442143403619465
-0.8832484470697237
-5.377095711372342E-4
-0.14434238276813324
-0.8832484470697237
-5.377095711372342E-4
-0.14434238276813324
-0.8832484470697237
-5.377095711372342E-4
-0.14434238276813324
