0
1
23
0
4
0
0
1
0
2
16
0
3
1
0
1
1
4
20
1
2
2
1
0
1
3
17
1
2
1
1
0
1
3
15
2
2
1
1
0
1
3
14
2
2
1
1
0
1
3
14
2
2
1
1
0
1
2
13
2
2
1
1
1
1
2
13
2
2
1
1
1
1
2
13
2
1
1
1
1
1
2
13
3
1
1
1
1
1
4
14
4
2
2
1
1
1
4
14
4
2
2
1
1
1
4
14
4
2
2
1
1
1
4
14
4
2
2
1
1
1
3
14
4
2
2
1
1
1
3
14
4
2
2
1
1
1
3
13
4
2
2
1
1
1
3
13
4
2
1
1
1
1
3
13
4
2
1
1
1
1
3
13
4
2
1
1
1
1
3
13
4
2
1
1
1
1
3
12
4
2
1
1
1
1
3
12
4
2
1
1
1
1
3
12
4
2
1
1
1
1
3
12
4
2
1
1
1
1
3
12
4
2
1
1
1
1
3
12
4
2
1
1
1
1
3
11
4
2
1
1
1
1
3
12
4
2
1
1
1
1
3
12
3
2
1
1
1
1
3
12
3
2
1
1
1
1
3
12
3
2
1
1
1
1
3
13
4
2
1
1
1
1
3
13
5
2
1
1
1
1
3
13
5
2
1
1
1
1
3
12
5
2
1
1
1
1
3
12
5
2
1
1
1
1
3
12
5
2
1
1
1
1
3
12
5
2
1
1
1
1
3
12
5
2
1
1
1
1
3
12
5
2
1
1
1
1
3
12
5
2
1
1
1
1
2
12
5
2
1
1
1
1
2
12
5
2
1
1
1
1
2
12
5
2
1
1
1
1
3
13
5
2
1
1
1
1
3
13
5
2
1
1
1
1
3
13
5
2
1
1
1
1
3
13
5
2
1
1
1
1
3
12
5
2
1
1
1
1
3
12
5
2
1
1
1
1
2
12
5
2
1
1
1
1
2
12
5
2
1
1
1
1
2
12
5
2
1
1
1
1
2
12
5
2
1
1
1
1
2
12
5
2
1
1
1
1
2
12
5
2
1
1
1
1
2
12
5
2
1
1
1
1
2
12
5
3
1
1
1
1
2
12
5
3
1
1
1
1
2
11
5
2
1
1
1
1
2
11
5
2
1
1
1
1
2
11
5
2
1
1
1
1
2
11
5
2
1
1
1
1
2
11
5
2
1
1
1
1
2
11
5
2
1
1
1
1
2
11
5
2
1
1
1
1
2
11
5
2
1
1
1
1
2
11
5
2
1
1
1
1
2
11
5
2
1
1
1
1
2
11
5
2
1
1
1
1
2
11
5
2
1
1
1
1
2
11
5
2
1
1
1
1
2
11
5
2
1
1
1
1
2
12
5
2
1
1
1
1
2
12
5
2
1
1
1
1
2
12
5
2
1
1
1
1
2
12
5
2
1
1
1
1
2
12
5
2
1
1
1
1
2
11
5
2
1
1
1
1
2
11
5
3
1
1
1
1
2
11
5
3
1
1
1
1
2
10
4
3
1
1
1
1
2
10
3
2
1
1
1
1
2
10
3
2
1
1
1
1
2
10
3
2
1
1
1
1
2
10
3
2
1
1
1
1
2
10
3
2
1
1
1
1
2
10
3
2
1
1
1
1
2
10
3
2
1
1
1
1
2
10
3
2
1
1
1
1
2
10
3
2
1
1
1
1
2
10
3
2
1
1
1
1
2
9
3
2
1
1
1
1
2
9
3
2
1
1
1
1
2
9
3
2
1
1
1
1
2
8
3
2
1
1
1
1
2
9
3
2
1
1
1
1
2
9
3
2
1
1
1
1
2
9
3
2
1
1
1
1
2
9
3
2
1
1
1
1
2
9
3
2
1
1
1
1
2
9
3
2
1
1
1
1
2
9
3
2
1
1
1
1
2
9
3
2
1
1
1
1
2
9
3
2
1
1
1
1
2
9
3
2
1
1
1
1
2
9
3
2
1
1
1
1
2
9
3
2
1
1
1
1
2
9
3
2
1
1
1
1
2
9
3
2
1
1
1
1
2
9
3
2
1
1
1
1
2
9
3
2
1
1
1
1
2
9
3
2
1
1
1
1
2
9
3
2
1
1
1
1
2
9
3
2
1
1
1
1
2
9
3
2
1
1
1
1
2
9
4
2
1
1
1
1
2
10
4
2
1
1
1
1
2
9
4
2
1
1
1
1
2
9
4
2
1
1
1
1
2
9
4
2
1
1
1
1
2
9
4
2
1
1
1
1
2
9
4
2
1
1
1
1
2
9
4
2
1
1
1
1
2
9
5
2
1
1
1
1
2
9
5
2
1
1
1
1
2
10
5
2
1
1
1
1
2
10
5
2
1
1
1
1
2
10
5
2
1
1
1
1
2
10
5
2
1
1
1
1
2
10
5
2
1
1
1
1
2
10
5
2
1
1
1
1
2
10
5
2
1
1
1
1
2
10
5
2
1
1
1
1
2
10
5
2
1
1
1
1
2
10
5
2
1
1
1
1
2
10
5
2
1
1
1
1
2
10
5
2
1
1
1
1
2
10
5
2
1
1
1
1
2
10
5
2
1
1
1
1
2
10
5
2
1
1
1
1
2
10
5
2
1
1
1
1
2
10
5
2
1
1
1
1
2
10
5
2
1
1
1
1
2
10
5
2
1
1
1
1
2
10
5
2
1
1
1
1
2
11
5
2
1
1
1
1
2
11
5
2
1
1
1
1
2
10
5
2
1
1
1
1
2
10
5
2
1
1
1
1
2
10
5
2
1
1
1
1
2
10
5
2
1
1
1
1
2
10
5
2
1
1
1
1
2
10
5
2
1
1
1
1
2
10
5
2
1
1
1
1
2
10
5
2
1
1
1
1
2
10
5
2
1
1
1
1
2
10
5
2
1
1
1
1
2
10
5
2
1
1
1
1
2
10
5
2
1
1
1
1
2
10
5
2
1
1
1
1
2
10
5
2
1
1
1
1
2
10
5
2
1
1
1
1
2
10
6
2
1
1
1
1
2
10
6
2
1
1
1
1
2
10
6
2
1
1
1
1
2
10
5
2
1
1
1
1
2
10
5
2
1
1
1
1
2
10
5
2
1
1
1
1
2
10
5
2
1
1
1
1
2
10
5
2
1
1
1
1
2
10
5
2
1
1
1
1
2
10
5
2
1
1
1
1
2
9
5
2
1
1
1
1
2
9
5
2
1
1
1
1
2
9
5
2
1
1
1
1
2
8
5
2
1
1
1
1
2
8
5
2
1
1
1
1
2
8
5
2
1
1
1
1
2
8
5
2
1
1
1
1
2
8
5
2
1
1
1
1
2
8
5
2
1
1
1
1
2
8
5
2
1
1
1
1
2
8
4
2
1
1
1
1
2
8
4
2
1
1
1
1
2
8
4
2
1
1
1
1
2
8
4
2
1
1
1
1
2
8
5
2
1
1
1
1
2
8
5
2
1
1
1
1
2
8
5
2
1
1
1
1
2
8
5
2
1
1
1
1
2
8
5
2
1
1
1
1
2
8
5
2
1
1
1
1
2
8
5
2
1
1
1
1
2
8
5
2
1
1
1
1
2
8
5
2
1
1
1
1
2
8
5
2
1
1
1
1
2
8
5
2
1
1
1
1
2
8
5
2
1
1
1
1
2
8
5
2
1
1
1
1
2
8
5
2
1
1
1
1
2
8
5
2
1
1
1
1
2
9
5
2
1
1
1
1
2
9
5
2
1
1
1
1
2
9
5
2
1
1
1
1
2
9
5
2
1
1
1
1
2
9
5
2
1
1
1
1
2
9
5
2
1
1
1
1
2
9
5
2
1
1
1
1
2
9
5
2
1
1
1
1
2
9
5
2
1
1
1
1
2
9
5
2
1
1
1
1
2
9
5
2
1
1
1
1
2
9
5
2
1
1
1
1
2
9
5
2
1
1
1
1
2
10
5
2
1
1
1
1
2
10
5
2
1
1
1
1
2
11
5
2
1
1
1
1
2
12
5
2
1
1
1
1
2
12
5
2
1
1
1
1
2
12
5
2
1
1
1
1
2
12
5
2
1
1
1
1
2
12
5
2
1
1
1
1
2
12
5
2
1
1
1
1
2
13
5
2
1
1
1
1
2
13
5
2
1
1
1
1
2
13
5
2
1
1
1
1
2
13
6
2
1
1
1
1
2
13
6
2
1
1
1
1
2
14
6
2
1
1
1
1
2
16
6
2
1
1
1
1
2
16
6
2
1
1
1
1
2
16
6
2
1
1
1
1
2
16
6
2
1
1
1
1
2
17
6
2
2
1
1
1
2
17
6
2
2
1
1
1
2
17
6
2
2
1
1
1
2
17
6
3
2
1
1
1
4
18
7
3
2
1
1
1
4
18
7
3
2
1
1
1
4
20
7
3
2
1
1
1
4
24
7
3
2
1
2
1
5
27
8
3
2
1
4
2
6
28
8
3
2
1
5
2
6
29
9
3
2
1
7
2
7
34
13
3
2
1
8
2
9
36
15
5
2
2
8
3
9
36
15
5
2
2
8
3
9
37
15
5
3
2
9
3
9
37
16
6
3
3
9
3
10
40
18
6
3
3
9
3
10
40
19
6
3
3
9
3
10
41
19
7
3
3
9
3
11
41
22
7
3
3
10
3
12
41
23
7
4
3
10
3
12
42
26
8
4
3
10
3
13
43
26
8
4
3
10
4
13
46
28
10
5
4
10
4
13
47
28
10
5
4
10
4
14
47
28
10
5
4
10
6
16
50
32
12
7
5
11
6
18
50
33
12
8
5
12
6
19
50
33
12
8
6
13
7
20
50
34
12
8
6
15
7
20
51
34
12
8
6
15
8
20
51
34
12
8
6
15
9
23
51
34
12
9
6
16
9
23
51
34
12
9
7
16
9
23
54
36
13
9
7
17
11
26
54
36
13
9
7
18
11
26
55
36
13
9
7
18
12
26
56
36
13
9
7
18
12
27
57
37
13
10
7
19
12
27
59
40
14
10
8
19
12
28
59
40
14
10
8
19
13
28
59
40
14
10
8
19
13
28
59
40
14
10
8
20
13
28
60
40
14
10
8
20
13
28
60
41
15
10
8
20
13
29
60
41
15
11
8
20
13
29
60
42
15
11
8
20
13
30
61
44
16
11
8
20
13
30
61
44
16
11
8
21
13
30
61
45
16
11
9
21
14
30
62
45
15
11
9
22
14
30
62
45
16
11
9
22
14
30
62
45
16
11
9
22
14
31
62
45
16
11
9
22
14
31
62
45
16
11
9
22
14
31
62
45
16
11
9
23
14
31
62
45
16
11
9
23
14
32
61
45
16
11
9
23
14
32
59
45
16
11
9
22
14
32
59
45
16
11
9
22
14
32
59
45
16
11
9
22
14
32
57
44
16
11
9
21
14
32
55
44
15
11
9
21
14
32
58
45
16
11
9
21
14
32
57
45
16
11
8
21
14
32
58
45
15
11
8
21
14
31
57
45
15
11
8
21
14
32
56
45
15
11
8
21
15
32
56
44
15
11
8
21
15
31
56
43
15
11
8
21
15
31
58
43
15
11
8
21
16
31
59
43
15
11
8
22
16
31
59
44
15
11
8
22
16
31
57
43
14
10
8
22
16
31
57
43
14
10
8
22
16
31
57
43
14
10
8
22
15
30
54
40
12
9
8
21
16
30
54
39
12
8
8
21
16
30
55
40
12
8
7
20
16
29
55
40
12
8
7
19
16
29
55
41
13
8
7
19
16
29
54
42
13
8
7
20
15
27
55
42
13
8
7
19
15
27
55
42
13
7
6
19
15
27
52
41
13
7
6
19
14
24
52
40
13
7
6
19
14
24
51
40
13
7
6
19
13
25
51
40
13
7
6
19
13
24
51
40
13
7
6
18
13
24
48
37
12
7
6
19
13
23
48
37
12
7
6
19
13
23
48
37
11
6
5
18
13
23
49
37
11
6
5
18
12
23
49
36
11
6
5
18
12
23
49
36
11
6
5
18
12
22
49
36
11
5
5
18
12
23
49
35
11
5
5
18
12
22
48
32
10
5
5
18
12
22
48
33
10
5
5
18
13
22
48
32
10
5
5
17
12
22
48
32
10
5
5
16
12
22
47
32
10
5
5
18
12
21
48
32
10
5
5
18
12
21
48
32
10
5
5
18
12
22
49
32
10
5
5
18
12
23
49
32
10
5
5
18
12
23
49
32
10
5
5
18
12
22
51
32
10
5
5
18
12
22
51
32
10
5
5
18
12
22
51
32
10
5
5
18
12
21
50
32
10
5
5
18
12
21
50
32
10
5
5
18
12
22
51
31
10
5
5
18
12
22
47
30
9
5
5
18
12
22
47
30
10
5
5
18
12
22
46
30
10
5
5
18
13
22
46
30
10
5
5
18
12
22
46
30
9
5
5
18
12
22
47
30
9
5
5
18
12
22
46
30
9
5
5
18
12
22
44
29
9
5
5
18
11
22
43
27
9
5
5
17
11
22
41
26
9
5
5
17
11
22
42
26
9
5
5
17
11
22
42
26
9
5
5
17
11
23
42
26
9
5
5
17
11
22
42
26
9
5
5
17
11
20
43
26
9
5
5
17
11
20
42
25
8
5
5
17
11
22
44
25
8
5
5
16
11
26
43
24
8
4
4
17
11
27
43
22
7
4
4
16
11
27
43
21
6
4
4
16
11
27
45
21
6
4
4
16
10
27
45
21
6
4
4
15
10
27
45
21
6
4
4
15
10
27
45
21
6
4
4
14
11
27
44
22
6
4
4
14
11
27
44
22
6
4
4
15
11
28
44
22
6
4
4
14
11
28
43
23
6
4
4
14
11
28
44
23
6
4
4
14
11
28
43
23
6
4
4
14
11
28
43
23
6
4
4
14
11
28
43
23
6
4
4
14
11
29
42
23
6
4
4
14
11
28
42
23
6
4
4
14
11
28
44
23
6
4
4
13
11
28
43
22
6
4
4
13
11
29
44
23
6
4
4
13
11
28
44
23
6
4
4
13
11
29
45
23
6
4
4
11
11
29
44
23
6
4
4
11
11
29
43
23
6
4
4
12
10
28
43
23
6
4
4
11
10
27
43
23
6
4
4
12
11
27
44
23
6
4
4
12
11
27
42
22
6
4
4
12
11
26
42
22
6
4
4
12
11
26
42
21
6
4
4
11
11
26
41
21
6
4
4
11
11
26
42
22
6
4
4
11
11
26
42
22
6
3
4
11
12
26
42
20
6
3
4
11
12
26
43
20
5
3
4
12
12
26
44
20
5
3
4
12
12
27
44
21
5
3
4
12
12
26
45
21
5
3
4
13
12
26
46
21
5
3
4
13
12
26
46
22
5
3
4
13
12
26
46
22
5
3
4
13
12
26
46
22
5
3
4
13
12
26
46
21
5
3
4
13
12
26
46
20
5
3
4
13
12
26
46
21
5
3
4
13
12
26
46
21
5
3
4
13
11
26
46
21
5
3
4
13
11
26
46
21
5
3
4
13
11
26
46
21
5
3
4
13
11
25
44
21
5
3
4
13
11
21
44
21
5
3
4
13
11
19
45
21
5
3
4
14
11
19
45
21
5
3
4
14
11
19
43
21
5
3
4
14
11
19
42
21
6
3
4
14
10
19
43
21
5
3
3
14
10
19
43
21
5
3
3
14
10
19
43
21
6
3
4
14
10
19
44
21
6
3
4
13
10
18
44
21
6
3
3
13
10
18
44
21
6
3
3
13
10
18
44
20
6
3
3
13
10
18
43
21
6
3
3
13
11
19
44
20
6
3
3
14
11
19
44
20
6
3
4
14
11
18
44
20
6
3
4
13
10
18
43
21
6
3
4
14
10
18
41
21
6
3
4
14
10
18
42
21
6
3
3
14
10
17
40
20
6
3
3
14
10
18
40
20
6
4
4
14
10
17
41
21
6
4
4
14
10
17
41
21
6
4
4
14
10
17
41
21
6
4
4
14
10
17
41
21
6
4
4
14
10
17
42
21
6
4
4
14
10
17
41
21
6
4
4
14
10
17
41
21
6
4
4
13
9
17
41
21
6
4
4
13
9
17
41
21
7
4
4
14
10
18
41
22
7
4
4
14
10
18
41
22
7
4
4
14
10
18
41
22
7
4
4
14
9
18
41
22
7
4
4
13
9
20
40
22
7
4
4
13
10
20
39
21
7
4
4
13
10
20
38
20
7
4
4
13
9
20
37
20
7
4
4
12
9
20
36
20
7
4
4
12
9
20
35
19
7
4
4
12
9
20
35
19
7
4
4
12
9
20
37
20
7
4
4
13
9
21
36
20
7
4
4
13
10
21
36
20
7
4
4
13
10
21
35
20
7
4
4
13
10
21
36
19
7
4
4
12
10
21
35
19
7
4
4
13
10
21
35
19
7
4
4
13
10
20
35
19
7
4
4
13
10
20
35
19
7
4
4
12
10
20
35
19
7
4
4
12
10
20
34
19
7
4
4
11
10
20
34
19
7
4
4
11
10
20
36
19
7
4
4
11
10
20
36
19
7
4
4
11
10
21
37
19
7
4
4
11
11
21
36
19
7
4
4
11
12
22
36
19
6
4
3
11
11
22
35
19
6
4
3
11
11
22
35
19
6
4
3
12
11
22
35
18
6
4
4
12
11
21
35
18
6
4
4
12
12
21
35
18
6
4
4
12
11
21
35
18
6
4
4
11
11
21
35
18
6
4
4
11
11
21
35
18
6
4
4
11
11
21
35
18
6
4
4
10
11
21
34
17
6
4
4
10
11
21
35
17
6
4
4
10
11
21
36
18
6
4
4
11
11
21
37
19
6
3
3
11
11
21
35
18
6
3
3
11
11
21
35
18
6
3
3
10
11
21
34
18
6
3
3
10
11
21
34
18
6
3
3
10
11
21
32
17
6
3
3
10
11
22
32
18
6
3
3
10
11
21
32
17
6
3
3
10
11
21
33
17
6
3
4
10
11
22
32
17
6
3
4
10
11
21
31
16
5
3
4
10
11
20
32
16
5
3
3
10
11
20
32
16
5
3
3
11
11
20
32
17
5
3
3
11
10
19
32
17
5
3
4
10
10
19
32
17
5
3
4
10
10
19
32
17
5
3
3
10
10
19
32
17
5
3
3
10
10
18
33
17
5
3
3
10
10
18
34
18
5
3
4
10
10
18
34
18
5
3
4
10
10
18
32
17
5
3
4
10
10
18
32
17
5
3
4
10
10
18
32
17
5
3
4
11
10
17
32
16
5
3
4
11
10
17
32
16
5
3
4
11
10
17
32
16
5
3
4
11
10
17
33
16
5
3
4
11
10
17
32
16
5
3
4
11
10
17
32
16
5
3
4
12
10
17
32
15
5
3
4
12
9
17
32
15
5
3
4
12
9
17
33
16
5
3
4
12
10
17
32
16
5
3
4
12
9
17
31
16
5
3
4
12
9
16
30
16
5
3
4
12
8
16
31
16
5
3
4
12
7
15
31
16
5
3
4
12
8
15
30
16
5
3
4
12
8
15
31
16
5
3
4
12
8
15
30
16
5
3
4
12
8
15
30
16
5
3
4
11
7
16
31
16
5
3
4
11
7
19
31
16
5
3
4
11
7
19
32
16
5
3
4
12
7
19
32
16
5
3
4
12
7
19
33
16
5
3
4
12
7
19
33
16
5
3
4
11
8
20
37
17
5
3
4
11
7
20
36
16
5
3
4
11
7
20
35
16
5
3
4
12
8
20
35
16
5
3
4
12
8
20
36
15
5
3
4
12
7
20
37
15
5
3
4
13
7
20
37
15
5
3
4
13
8
20
37
15
5
3
4
13
7
20
38
15
4
3
4
13
7
20
38
15
4
3
4
13
7
20
38
15
4
3
4
13
7
20
39
15
4
3
4
13
7
20
39
15
4
3
4
13
7
20
39
15
4
3
4
13
7
20
38
15
4
3
3
13
8
20
39
15
4
3
3
13
8
20
38
15
4
3
4
14
9
20
38
15
4
3
3
14
9
20
39
15
4
3
3
14
9
20
39
15
4
3
3
14
9
20
38
14
4
3
3
14
9
20
38
14
4
3
3
15
9
20
37
14
4
3
3
15
9
19
38
14
4
3
3
15
9
19
38
14
4
3
3
15
8
19
38
14
4
2
3
15
8
19
38
14
4
2
3
15
8
19
38
14
4
2
3
15
8
19
37
14
4
2
3
14
8
19
39
15
4
2
3
15
8
19
40
15
4
2
3
14
8
19
40
15
4
2
3
13
8
19
39
15
4
2
3
13
8
19
39
15
4
2
3
13
8
19
38
15
4
2
3
13
8
19
38
15
4
2
3
13
8
19
38
14
4
2
3
13
8
19
39
15
4
2
3
13
8
19
38
14
4
2
3
13
8
20
39
15
4
2
3
13
8
22
39
15
4
2
3
14
8
22
39
15
4
2
3
14
8
22
39
15
4
2
3
14
8
22
39
15
4
2
3
14
8
21
38
15
4
2
2
14
8
18
38
15
4
2
2
14
8
18
38
15
4
2
3
14
8
18
38
15
4
2
3
14
7
19
38
15
4
2
3
14
7
19
37
15
4
2
3
14
7
18
33
14
4
2
2
14
7
18
33
14
4
2
2
14
7
18
33
14
4
2
2
14
7
18
33
14
4
2
2
13
7
18
33
14
4
2
2
13
7
17
32
14
4
2
2
12
7
17
31
14
4
2
2
12
7
17
31
14
4
2
2
12
7
17
31
14
4
2
2
12
7
17
31
14
4
2
2
12
7
17
31
14
4
2
2
12
7
17
29
14
4
2
2
12
6
17
29
14
4
2
2
12
6
17
29
14
4
2
2
12
6
17
29
14
4
2
2
12
6
16
29
13
4
2
2
12
4
16
29
13
4
2
2
10
4
16
29
12
4
2
2
10
4
16
29
12
4
2
2
10
4
16
28
12
4
2
2
10
3
16
28
13
4
2
2
10
3
16
28
13
4
2
2
8
3
16
28
13
6
2
2
8
3
16
26
13
6
2
2
8
3
16
26
13
6
3
2
8
3
16
26
13
6
3
2
7
3
16
26
13
6
3
2
7
3
16
26
13
6
3
2
7
3
16
26
13
6
3
2
7
3
16
23
12
6
3
2
7
3
16
23
12
6
2
2
7
3
16
22
12
6
2
2
7
2
15
22
12
6
2
2
7
2
15
22
12
6
2
2
7
2
15
21
12
6
2
2
6
2
15
21
12
6
2
2
6
2
15
21
12
6
2
2
6
2
14
20
12
6
2
2
6
2
14
20
12
6
3
2
6
2
13
19
11
6
3
2
6
2
10
18
11
6
3
2
4
2
10
18
11
6
3
2
4
2
10
18
12
6
3
2
4
2
10
18
12
6
3
2
4
2
10
18
12
6
3
2
4
2
10
17
11
6
3
2
4
1
9
16
11
6
2
1
4
1
9
15
11
6
2
1
3
1
7
15
11
6
2
1
2
1
7
15
11
6
2
1
2
1
6
15
11
6
2
1
2
1
5
14
11
6
2
1
2
1
5
13
11
6
2
1
2
1
5
12
11
6
2
1
2
1
5
12
11
6
2
1
1
1
5
12
11
6
2
1
1
1
5
12
10
6
2
1
1
1
5
11
10
6
2
1
1
1
5
11
11
6
2
1
1
1
5
11
11
6
2
1
1
1
3
10
11
6
2
1
1
1
3
11
11
6
2
1
1
1
3
9
11
6
2
1
1
1
3
9
11
6
2
1
1
1
3
9
11
6
2
1
1
1
3
9
11
6
2
1
1
1
3
8
11
6
2
1
1
1
3
8
11
6
2
1
1
1
2
8
11
6
2
1
1
1
2
8
11
6
2
1
1
1
2
8
10
6
2
1
1
1
2
8
10
6
2
1
1
1
2
8
10
5
2
1
1
1
2
8
10
5
2
1
1
1
2
8
10
5
2
1
1
1
2
8
10
5
2
1
1
1
2
8
10
5
2
1
1
1
2
8
11
5
2
1
1
1
2
8
10
5
2
1
1
1
2
8
10
5
2
1
1
1
2
6
9
4
2
1
1
1
2
6
9
4
2
1
1
1
2
6
9
4
2
1
1
1
2
6
9
4
2
1
1
1
2
6
9
4
2
1
1
1
2
6
9
4
2
1
1
1
2
6
9
4
2
1
1
1
2
6
9
4
2
1
1
1
2
6
9
4
1
1
1
1
2
6
9
4
1
1
1
1
2
6
9
4
2
1
1
1
2
6
8
4
1
1
1
1
2
6
8
4
1
1
1
1
2
5
8
4
1
1
1
1
2
5
8
4
1
1
1
1
2
5
8
4
1
1
1
1
2
6
8
4
1
1
1
1
2
6
8
4
1
1
1
1
2
6
8
4
1
1
1
1
2
6
8
4
1
1
1
1
2
6
8
4
1
1
1
1
2
6
8
4
1
1
1
1
2
6
8
4
1
1
1
1
2
6
8
4
1
1
1
1
2
6
8
4
1
1
1
1
2
6
8
4
1
1
1
1
2
6
8
4
1
1
1
1
2
6
8
4
1
1
1
1
2
6
8
4
1
1
1
1
2
6
8
4
1
1
1
1
2
6
7
3
1
1
1
1
2
6
7
3
1
1
1
1
2
6
7
3
1
1
1
1
2
6
7
3
1
1
1
1
2
6
7
3
1
1
1
1
2
6
7
3
1
1
1
1
2
6
7
3
1
1
1
1
2
6
7
3
1
1
1
1
2
7
7
3
1
1
1
1
2
8
7
3
1
1
1
1
2
8
7
3
1
1
1
1
2
8
7
3
1
1
1
1
2
8
7
3
1
1
1
1
2
8
6
3
1
1
1
1
2
8
6
3
1
1
1
1
2
8
6
3
1
1
1
1
2
8
6
3
1
1
1
1
2
8
5
3
1
1
1
1
2
8
5
3
1
1
1
1
2
8
5
3
1
1
1
1
2
8
5
2
1
1
1
1
2
8
5
2
1
1
1
1
2
8
5
2
1
1
1
1
2
8
5
2
1
1
1
1
2
8
5
2
1
1
1
1
2
8
5
2
1
1
1
1
2
8
5
2
1
1
1
1
2
8
5
2
1
1
1
1
2
8
5
2
1
1
1
1
2
8
5
2
1
1
1
1
2
8
5
2
1
1
1
1
2
8
5
3
1
1
1
1
2
8
5
3
1
1
1
1
2
8
5
3
1
1
1
1
2
8
5
3
1
1
1
1
2
8
5
3
1
1
1
1
2
8
5
3
1
1
1
1
2
8
5
3
1
1
1
1
2
8
5
2
1
1
1
1
2
8
5
2
1
1
1
1
2
8
5
3
1
1
1
1
2
8
5
3
1
1
1
1
2
8
5
3
1
1
1
1
2
9
5
3
1
1
1
1
2
9
5
3
1
1
1
1
2
9
5
3
1
1
1
1
2
8
5
3
1
1
1
1
2
9
5
3
1
1
1
1
2
10
5
3
1
1
1
1
2
10
5
3
1
1
1
1
3
10
5
3
1
1
1
1
4
14
6
3
2
1
1
1
4
15
6
3
2
1
1
1
4
15
6
3
2
1
1
1
4
15
6
3
2
1
3
1
4
16
6
3
2
1
3
2
4
17
7
3
2
1
3
2
4
20
7
3
2
1
4
2
4
21
7
3
2
1
4
2
4
21
8
3
2
3
9
3
5
21
8
3
2
5
13
3
6
23
8
4
2
5
15
3
7
23
9
4
3
5
15
3
7
24
9
4
3
5
15
3
7
27
10
4
3
5
16
4
8
27
10
4
4
6
17
4
9
28
10
4
4
6
18
4
9
28
10
4
4
6
18
4
10
29
11
4
4
6
18
4
12
30
13
5
4
6
18
4
13
31
13
5
4
6
19
5
13
32
15
5
4
6
19
5
14
34
15
5
4
6
19
5
14
34
15
5
5
6
20
5
14
35
17
5
5
6
20
5
14
35
17
5
5
6
20
7
14
37
17
5
6
6
20
9
15
39
21
7
6
6
20
9
15
39
21
7
6
6
20
9
15
40
21
7
6
7
20
9
16
41
22
7
6
7
21
9
17
42
23
8
7
8
21
9
17
43
23
9
7
8
21
9
18
43
24
9
7
8
21
9
18
46
25
9
8
8
21
10
19
47
26
10
8
8
21
10
19
50
26
10
8
8
22
11
21
50
26
10
8
9
23
11
21
51
26
10
8
9
23
11
22
52
26
11
8
9
23
11
22
52
27
11
8
9
23
11
23
52
27
11
8
9
23
11
23
52
27
11
8
9
23
11
23
52
27
11
8
9
23
11
23
53
28
11
8
9
24
12
25
54
28
11
8
9
24
12
25
54
29
11
8
9
24
12
25
55
30
11
8
9
24
12
26
55
30
11
8
9
24
12
26
55
30
12
9
9
24
12
26
55
30
12
9
9
24
12
26
54
30
12
9
9
25
12
26
54
30
12
9
9
25
12
26
56
31
12
9
9
25
12
26
56
31
12
9
9
25
12
26
56
31
12
9
9
25
12
26
56
30
12
9
9
25
12
26
56
31
13
9
9
25
12
27
56
32
13
9
9
25
12
27
55
31
13
9
9
25
12
27
56
31
13
9
8
24
12
27
57
32
13
9
8
23
12
27
57
32
14
9
8
23
13
28
57
32
14
9
8
23
12
28
55
32
14
9
8
22
12
28
56
33
14
9
8
22
12
27
57
34
14
9
8
21
12
27
58
34
14
9
8
21
13
27
58
34
14
9
8
22
13
26
58
33
14
8
8
22
13
26
59
33
14
8
8
22
13
27
61
33
14
8
8
22
13
28
60
33
14
8
8
22
13
28
59
33
14
8
8
22
13
29
60
34
14
9
8
22
13
29
60
34
14
9
8
22
12
28
59
34
14
8
8
22
11
28
58
32
14
8
8
22
11
28
58
32
14
8
8
22
11
29
59
32
13
8
8
22
11
30
58
32
13
8
8
22
11
29
58
31
13
7
7
22
11
29
57
32
12
7
7
22
11
30
58
31
12
6
7
22
11
30
55
30
12
6
6
22
10
29
55
30
11
6
6
22
10
29
52
29
11
6
6
22
10
28
52
29
11
6
6
21
10
28
51
29
11
6
6
21
10
27
50
30
11
6
6
21
11
27
50
29
11
6
6
22
10
26
50
30
11
6
6
22
10
27
50
29
11
6
6
22
10
27
50
29
11
6
6
22
10
27
50
28
11
6
6
22
10
25
50
28
11
6
6
22
10
25
50
27
11
6
6
22
10
25
49
27
11
6
6
22
10
26
49
26
11
6
6
22
10
26
49
26
10
6
6
22
10
26
49
26
10
6
6
22
10
25
50
27
10
6
6
21
10
26
50
27
10
5
6
21
11
26
49
27
10
6
6
21
11
26
49
27
10
6
6
21
11
25
49
27
9
5
6
21
11
25
50
27
9
5
6
21
11
25
49
26
9
5
6
21
10
26
49
27
8
5
6
21
10
26
50
28
9
5
6
20
10
26
50
28
9
5
5
18
10
26
47
27
8
5
5
18
10
25
47
27
7
4
5
18
10
25
47
27
7
4
5
19
11
26
47
27
7
4
5
19
11
26
47
26
7
4
5
19
11
26
44
24
7
4
5
19
10
26
43
24
7
4
5
18
10
26
44
24
7
4
5
18
10
26
44
25
7
4
5
17
10
26
43
25
7
4
5
17
10
25
39
24
7
4
5
17
10
24
39
24
8
5
5
16
10
23
40
24
7
5
5
15
9
22
39
21
6
4
4
15
9
22
38
21
6
4
4
15
9
23
38
21
6
4
4
15
9
23
37
21
6
4
4
15
9
23
37
21
6
4
4
15
9
21
35
20
6
4
4
15
9
20
36
20
6
4
4
15
9
20
35
20
6
4
4
15
9
20
35
20
6
4
4
15
9
18
35
20
6
4
4
15
10
18
35
20
7
4
4
14
10
18
35
20
7
4
4
14
10
18
34
20
7
4
4
13
10
19
34
20
6
4
4
13
10
18
34
19
6
4
4
13
10
18
34
19
6
4
4
13
9
18
34
19
6
4
4
11
9
18
35
19
6
4
4
11
9
18
35
19
6
4
4
11
9
18
35
19
6
3
4
12
9
18
35
19
6
3
4
12
9
18
33
19
6
3
4
12
9
18
34
19
6
3
3
12
9
18
34
20
6
3
3
12
9
17
33
20
6
3
3
12
10
17
33
20
6
3
3
12
10
17
33
20
6
3
3
11
10
17
31
18
5
3
3
11
9
17
31
18
6
3
3
12
9
17
30
18
6
3
3
12
9
17
30
18
6
3
3
12
9
17
29
18
6
3
3
12
9
17
27
18
5
3
3
12
9
17
27
18
5
3
3
12
9
16
29
16
5
3
3
12
9
16
29
15
5
3
3
12
9
15
28
15
5
3
3
12
9
15
28
15
5
3
3
12
9
15
27
15
5
3
3
12
9
14
27
15
5
3
3
12
8
14
27
15
5
3
3
12
8
13
27
15
5
3
3
12
9
13
27
15
5
3
3
12
9
13
27
15
5
3
3
12
9
14
26
14
5
3
3
14
9
14
25
14
4
3
3
14
9
15
26
14
4
3
3
14
9
16
25
14
4
3
3
13
9
16
25
15
4
3
3
14
9
16
24
15
4
3
3
13
9
16
24
15
4
3
3
14
9
16
24
15
4
3
3
14
9
16
24
15
4
3
3
14
9
16
24
15
4
3
3
14
9
16
24
16
4
3
3
14
9
16
25
15
4
3
3
14
9
16
25
15
4
3
3
14
9
16
25
15
4
3
3
14
10
16
24
15
4
3
3
14
9
16
24
15
4
3
3
15
9
16
25
15
4
2
3
15
8
16
25
15
4
2
3
15
10
17
25
15
4
3
3
15
10
17
25
15
4
3
3
15
10
16
25
15
4
3
3
15
10
17
25
15
4
3
3
14
10
17
25
15
4
3
3
15
10
17
25
15
4
3
3
15
10
17
25
15
4
3
3
15
9
17
26
15
4
3
3
14
9
17
30
17
4
3
3
14
9
17
30
17
4
3
3
14
9
17
29
16
5
3
3
14
9
17
29
16
5
3
3
14
9
17
30
16
5
3
3
14
9
17
29
16
5
3
3
14
9
17
29
16
5
3
3
14
9
17
30
16
5
3
3
14
9
17
30
16
5
3
3
14
9
17
30
16
4
3
3
14
9
17
30
16
4
3
3
14
9
17
30
16
4
3
3
14
9
17
29
16
4
3
3
14
9
17
30
16
5
3
3
14
9
17
28
15
4
3
3
15
9
17
28
16
5
3
3
15
9
17
29
16
5
3
3
15
9
18
29
16
5
3
3
15
9
18
29
16
5
3
3
15
9
18
30
16
5
3
4
14
9
17
30
16
5
3
4
14
9
17
30
16
5
3
4
14
9
17
31
16
5
3
4
14
8
17
31
16
5
3
4
15
8
18
31
16
5
3
4
13
8
19
32
16
5
3
4
13
9
19
33
16
5
3
4
14
10
18
33
16
5
3
4
14
10
18
33
15
4
3
4
14
10
18
33
15
4
3
4
14
10
19
33
15
4
3
4
14
10
19
33
15
4
3
4
13
10
19
34
15
4
3
4
13
10
19
34
15
5
3
4
14
10
18
34
15
5
3
4
13
10
18
33
15
5
3
4
13
10
18
33
15
5
3
4
13
10
18
33
15
5
3
4
13
10
18
33
15
5
3
4
13
10
18
33
15
5
3
4
13
10
19
33
15
5
3
4
13
10
20
34
15
5
3
4
13
8
21
34
15
5
3
4
13
8
21
34
15
5
3
4
12
8
22
34
15
5
3
4
13
8
21
34
15
5
3
4
14
8
21
35
15
5
3
4
14
8
21
36
15
5
3
4
14
8
21
36
15
5
3
4
14
8
21
35
15
5
3
4
14
8
21
32
13
4
3
4
14
8
22
30
13
4
3
4
14
8
21
31
13
5
3
4
14
8
21
31
13
5
3
3
14
9
21
31
13
5
3
4
15
9
21
31
13
5
3
4
15
8
21
31
13
5
3
4
15
8
21
31
13
5
3
4
15
9
21
31
13
5
3
4
14
9
21
31
13
5
3
4
15
9
21
33
14
5
4
4
15
9
21
34
15
5
4
4
15
9
21
34
14
5
4
4
14
9
21
34
15
5
3
4
15
9
22
34
15
5
3
4
15
9
22
34
14
5
3
4
15
9
22
33
14
5
3
4
14
9
22
34
14
5
3
4
14
9
21
34
14
5
3
4
14
9
21
33
14
5
3
3
14
9
22
33
14
5
3
3
14
9
22
33
14
5
3
4
14
9
22
32
14
5
3
4
14
9
22
32
14
5
3
3
14
9
21
31
14
5
3
3
14
9
20
31
14
5
3
3
14
9
20
29
13
5
3
3
14
8
20
29
13
5
3
3
14
8
20
29
13
5
3
3
13
8
20
30
13
5
3
3
13
8
19
30
13
5
3
3
13
8
19
30
13
5
3
3
13
8
19
29
13
5
3
3
14
8
19
29
13
5
3
3
14
8
20
29
13
5
3
3
14
8
20
30
13
5
3
3
14
8
20
30
14
5
3
3
14
7
20
31
14
5
3
3
14
8
20
32
14
5
3
3
14
7
20
32
14
5
3
3
14
7
19
32
15
5
3
3
14
7
19
31
14
5
3
3
15
7
17
31
14
5
3
3
15
7
17
31
14
5
3
3
15
7
16
31
14
5
3
3
14
7
16
30
14
5
3
3
13
7
18
31
14
5
3
3
13
7
17
29
14
5
3
3
13
7
17
30
14
5
3
3
13
7
17
30
15
5
3
3
13
7
17
30
15
5
3
3
13
7
17
30
15
5
3
3
12
7
17
29
15
5
3
3
12
7
17
30
15
5
3
3
12
7
17
30
15
5
3
3
12
7
18
30
15
5
3
3
12
7
18
30
15
5
3
3
12
7
18
29
15
5
3
3
12
6
18
29
15
5
3
3
12
5
18
29
14
5
3
3
11
5
18
27
14
5
3
3
11
5
18
27
13
5
3
3
12
5
18
27
13
5
3
3
11
5
17
27
13
4
3
3
11
5
17
27
13
4
2
2
11
5
17
27
14
5
3
3
11
5
17
28
14
5
3
3
11
5
17
28
14
5
3
3
11
5
17
28
14
5
3
3
11
5
17
28
14
5
3
3
11
5
17
29
14
4
3
2
11
5
16
29
14
4
2
2
11
5
16
29
14
4
2
2
11
5
16
30
14
4
3
2
11
5
16
30
14
4
2
2
11
5
17
30
14
4
2
2
11
5
17
30
14
4
2
2
11
5
16
30
14
4
2
2
10
5
19
31
15
4
3
2
11
6
23
34
18
6
3
3
11
6
23
34
18
6
3
3
11
6
23
34
18
6
3
3
11
6
23
34
18
6
3
3
10
6
23
34
18
6
3
3
10
6
23
34
18
6
3
3
10
6
23
37
18
6
3
3
10
6
23
37
17
5
3
3
10
6
23
36
17
5
3
3
10
6
23
36
17
5
3
3
9
5
23
36
17
5
3
3
10
5
23
36
17
5
3
3
9
5
24
37
17
6
3
3
9
5
24
36
17
6
3
3
9
5
24
36
17
6
3
3
9
5
24
36
17
6
3
3
9
5
24
36
17
6
3
3
9
5
23
36
17
6
3
3
9
6
23
36
18
6
3
3
9
6
23
37
18
6
3
3
9
6
24
38
18
5
3
3
9
6
24
38
18
5
3
3
9
6
24
38
18
5
3
3
9
6
24
38
18
5
3
3
9
6
24
38
18
5
3
3
9
6
23
37
17
5
3
3
9
6
23
37
17
5
3
3
9
6
23
37
17
5
3
3
9
6
24
38
17
5
3
3
9
6
24
38
17
5
3
3
9
6
24
38
17
5
3
3
8
7
24
38
17
5
3
3
8
7
24
38
17
5
3
3
8
7
24
38
17
5
3
3
8
7
24
38
17
5
3
3
8
7
24
38
17
5
3
3
8
7
24
38
17
5
3
3
8
7
23
37
17
5
3
3
8
7
23
36
16
5
3
3
8
7
23
37
16
5
3
3
8
7
23
39
16
5
3
3
8
7
23
38
16
5
3
3
8
7
23
38
16
5
3
3
8
7
23
38
16
5
3
3
8
7
23
38
16
5
3
3
8
7
23
38
16
5
3
3
8
7
23
37
16
5
3
3
8
7
23
37
16
5
3
3
8
7
23
37
16
5
3
3
7
6
21
36
16
5
3
3
7
6
16
32
12
4
2
2
7
6
16
32
12
4
2
2
7
6
16
32
12
4
2
2
7
5
15
32
12
4
2
2
7
5
15
32
12
4
2
2
6
5
15
32
12
4
2
2
6
5
15
27
11
4
2
2
6
5
15
27
11
5
3
2
6
5
15
27
11
4
3
2
6
5
14
27
10
4
3
2
6
5
14
26
10
4
3
2
5
5
13
26
9
4
2
2
5
5
12
25
9
4
2
2
4
5
12
25
9
4
3
2
4
5
12
25
9
5
3
2
4
5
12
25
9
5
3
2
4
5
11
25
9
5
3
2
4
5
11
25
10
5
3
2
4
3
11
24
9
5
2
2
4
3
10
22
8
5
3
2
3
3
10
21
8
5
3
2
3
3
10
20
8
5
3
2
3
3
10
20
8
5
3
2
3
3
10
20
8
5
2
2
3
3
9
20
9
5
2
2
3
3
9
20
9
5
2
2
3
3
9
20
9
5
2
2
3
2
7
19
9
5
2
1
3
2
6
19
9
5
2
1
3
2
6
19
8
5
2
1
3
2
5
18
8
5
2
1
3
2
4
17
8
5
2
1
3
2
3
16
7
5
2
1
2
2
3
16
7
5
2
1
2
2
3
16
7
5
2
1
2
2
3
16
7
5
2
1
2
2
3
16
7
5
2
1
2
2
3
16
8
5
2
1
1
1
3
16
8
5
2
1
1
1
3
13
8
5
2
1
1
1
2
7
7
5
2
1
1
1
2
7
7
5
2
1
1
1
2
7
7
5
2
1
1
1
2
7
7
5
2
1
1
1
2
7
7
5
2
1
1
1
2
7
7
5
2
1
1
1
2
7
8
5
2
1
1
1
2
5
8
5
2
1
1
1
2
5
7
5
2
1
1
1
2
5
7
5
2
1
1
1
1
4
7
5
2
1
1
1
1
4
7
5
2
1
1
1
1
4
7
5
2
1
1
1
1
4
7
5
2
1
1
1
1
4
7
5
2
1
1
1
1
3
7
5
2
1
1
1
1
3
7
5
2
1
1
1
1
3
7
4
2
1
1
1
1
3
7
4
2
1
1
1
1
3
7
4
2
1
1
1
1
3
7
4
2
1
1
1
1
3
7
4
2
1
1
1
1
2
7
4
2
1
1
1
1
2
7
4
2
1
1
1
1
2
7
4
2
1
1
1
1
2
7
3
2
1
1
1
1
2
7
3
1
1
1
1
1
2
5
3
1
1
1
1
1
2
5
3
1
1
1
1
1
2
5
3
1
1
1
1
1
2
5
3
1
1
1
1
1
2
5
2
1
1
1
1
1
2
5
2
1
1
1
1
1
2
5
2
1
1
1
1
1
2
5
2
1
1
1
1
1
2
5
2
1
1
1
1
1
2
5
2
1
1
1
1
1
2
5
3
1
1
1
1
1
2
5
3
1
1
1
1
1
2
5
2
1
1
1
1
1
2
5
2
1
1
1
1
1
2
5
2
1
1
1
1
1
2
5
2
1
1
1
1
1
3
5
3
1
1
1
1
1
3
5
3
1
1
1
1
1
3
5
3
1
1
1
1
1
3
4
3
1
1
1
1
1
3
4
2
1
1
1
1
1
3
4
2
1
1
1
1
1
3
4
2
1
1
1
1
1
3
4
3
1
1
1
1
1
3
4
3
1
1
1
1
1
3
5
3
1
1
1
1
1
3
5
3
1
1
1
2
1
3
5
3
1
1
1
2
1
3
5
3
1
1
2
2
1
4
5
3
1
1
2
2
1
4
5
3
2
1
2
2
1
4
4
3
2
1
2
2
1
4
4
3
2
1
2
2
1
4
4
3
2
1
1
2
1
4
4
3
2
1
1
2
1
5
4
2
2
1
1
2
1
5
4
2
2
1
2
2
1
5
4
2
2
1
2
2
1
5
4
2
2
1
2
2
1
5
4
2
1
1
2
2
1
5
4
2
1
1
2
2
1
5
4
2
1
1
2
2
1
6
4
2
1
1
2
2
1
6
4
2
1
1
2
2
1
6
4
2
1
1
2
2
1
6
4
2
1
1
2
2
1
6
4
2
1
1
2
2
1
6
4
2
1
1
2
2
1
6
4
2
1
1
2
2
1
6
4
2
1
1
2
2
1
6
4
2
1
1
2
2
1
6
4
2
1
1
2
2
2
6
4
2
1
1
2
2
2
6
5
2
1
1
2
2
2
6
5
2
1
1
2
2
2
6
5
2
1
1
2
2
2
6
5
2
1
1
2
2
2
6
5
2
1
1
2
2
2
6
5
2
1
1
2
2
2
7
5
2
1
1
2
2
2
7
5
2
1
1
2
2
2
7
5
3
1
1
2
2
2
8
5
3
1
1
2
2
2
8
5
2
1
1
2
2
2
8
5
2
1
1
2
2
2
8
5
2
1
1
2
2
2
8
5
2
1
1
2
2
2
8
5
2
1
1
2
2
2
8
5
2
1
1
2
2
2
8
5
2
1
1
2
2
2
8
5
2
1
1
2
2
2
8
5
2
1
1
2
2
2
9
5
2
1
1
2
2
2
10
5
2
1
1
2
2
2
12
6
2
1
1
2
2
2
13
5
2
1
1
2
2
2
13
5
2
1
1
2
2
2
13
5
2
1
1
1
1
2
14
6
3
2
1
1
2
3
19
8
3
2
1
1
2
3
21
9
3
2
1
1
2
3
21
9
3
2
1
1
2
4
22
10
3
2
2
2
2
5
24
11
4
2
2
2
2
5
24
11
4
2
2
2
2
5
24
11
4
2
2
2
3
5
24
11
4
2
2
2
3
5
25
11
4
2
2
2
3
6
26
11
4
2
2
4
3
6
30
11
4
3
2
5
4
6
30
11
4
3
2
5
4
6
30
11
4
3
2
5
4
6
30
11
5
3
2
6
4
6
33
12
5
3
2
7
4
6
34
13
5
3
2
7
4
6
35
13
5
3
2
7
4
7
36
13
5
3
2
8
4
7
39
15
5
3
2
8
5
8
42
18
6
4
3
8
6
9
42
18
6
4
3
8
6
9
45
19
7
5
3
8
6
11
47
22
8
5
3
9
7
11
47
22
8
5
3
10
7
11
47
22
8
5
3
10
7
11
48
22
8
5
3
10
7
11
48
22
8
5
3
10
8
11
48
23
8
5
4
11
8
12
48
23
8
5
4
11
8
16
48
23
8
5
4
11
8
17
49
25
9
5
4
12
8
17
50
25
9
5
4
12
10
17
51
26
9
5
5
12
10
17
51
26
9
5
5
13
10
17
51
26
9
5
5
13
11
18
51
26
9
5
5
13
11
20
51
26
9
5
5
14
11
20
53
26
9
5
5
14
11
20
53
26
9
6
5
14
11
20
53
27
9
6
5
14
11
22
53
27
9
6
5
14
11
22
53
27
9
6
5
14
11
23
54
27
10
6
5
14
11
23
55
27
10
6
5
14
12
23
55
27
10
6
5
14
12
23
55
27
10
6
5
15
12
23
55
27
10
6
5
15
12
23
55
27
10
6
5
15
12
25
58
29
10
6
5
15
12
25
58
29
10
6
5
15
12
26
56
28
10
6
5
15
12
26
55
28
10
6
5
15
12
26
56
28
10
6
5
15
13
26
56
28
10
6
5
15
13
26
55
28
10
6
5
15
13
26
55
28
10
6
5
15
13
27
55
28
10
6
5
15
13
27
56
28
10
6
5
15
13
27
56
28
10
6
5
16
13
27
56
28
10
6
5
15
13
27
54
28
10
5
5
16
13
28
54
30
10
5
5
17
13
28
54
30
10
5
5
17
13
28
55
30
10
5
5
16
13
28
54
32
10
5
5
16
14
28
54
32
10
5
5
16
14
28
53
32
10
5
5
16
14
28
53
32
10
5
5
16
14
28
51
32
10
5
5
16
13
28
48
30
9
4
5
16
13
28
49
31
9
4
5
16
13
28
46
30
9
4
5
17
13
28
45
30
8
4
5
17
13
29
45
30
8
4
5
16
13
29
46
30
8
4
5
16
13
29
46
30
8
4
5
16
13
29
46
30
8
4
5
16
13
29
46
30
8
4
5
17
13
29
46
30
8
4
5
18
13
27
46
31
8
4
4
18
13
26
45
29
7
4
4
18
12
26
45
29
7
4
4
18
11
26
46
29
7
4
4
18
11
26
47
29
8
4
4
18
11
26
47
29
8
4
4
18
11
26
49
29
8
4
4
17
10
24
48
29
8
4
4
17
10
24
47
29
8
4
4
17
10
24
47
29
8
4
3
18
10
24
47
29
8
4
3
18
10
23
47
29
7
4
3
18
10
23
48
29
7
4
3
18
10
23
49
30
7
4
3
18
10
23
48
29
7
4
3
18
10
23
47
29
7
4
3
19
10
23
47
30
8
4
3
19
10
23
47
30
7
4
3
20
10
23
48
30
7
4
3
20
9
21
45
28
7
4
3
20
9
21
45
28
7
4
3
20
9
21
45
28
7
4
3
20
9
21
45
28
7
4
3
20
9
21
45
28
7
4
3
20
9
21
44
29
8
4
3
20
9
21
44
28
7
4
3
20
9
21
44
28
7
4
3
20
9
19
44
28
7
4
3
20
9
19
43
28
8
4
3
20
9
19
44
28
8
4
3
20
9
19
45
28
8
4
3
20
9
19
46
28
8
4
4
19
9
19
45
27
8
4
3
18
9
20
45
27
8
4
3
19
9
20
45
26
8
4
3
19
9
20
45
23
7
4
4
19
7
20
45
23
7
4
3
19
7
20
45
23
7
4
4
19
7
20
44
23
7
4
4
19
7
20
45
22
7
4
4
19
7
20
45
23
7
4
4
19
7
19
45
21
7
4
4
19
7
19
45
21
7
4
4
18
7
19
44
20
7
4
4
18
7
18
44
20
7
4
4
18
8
18
45
20
7
4
4
18
8
18
44
20
7
4
4
18
8
18
44
20
7
4
4
18
8
20
44
20
7
4
4
16
8
21
44
20
7
4
4
16
8
21
44
19
7
4
4
16
8
21
44
20
7
4
3
16
8
21
44
20
7
4
3
16
9
21
41
18
6
4
3
16
8
21
41
18
6
3
3
16
8
22
40
17
5
3
3
15
9
21
39
17
5
3
3
16
9
21
40
17
6
3
3
16
9
21
40
18
5
3
3
16
9
21
40
18
5
3
3
16
9
21
40
18
5
3
3
15
9
21
40
18
6
3
3
15
9
23
41
19
6
3
3
15
9
23
38
19
6
3
3
15
9
23
39
19
6
3
3
15
9
23
39
19
6
3
3
15
9
22
39
18
6
3
3
14
9
22
39
18
6
3
3
13
9
22
38
18
6
3
3
13
10
22
38
18
6
3
3
13
10
22
38
18
6
3
3
13
10
22
38
18
6
3
3
14
10
22
38
17
6
3
3
14
10
22
38
18
5
3
3
14
10
22
39
17
5
3
3
14
9
22
39
17
5
3
3
14
9
23
39
18
5
3
3
14
9
23
40
18
5
3
3
14
9
23
40
18
5
3
3
14
9
23
41
18
5
3
3
14
9
23
39
19
5
3
3
14
9
23
41
20
5
3
3
14
9
22
41
20
5
3
3
14
10
22
43
21
5
3
3
14
10
24
42
21
5
3
3
14
10
23
41
21
5
3
3
14
10
23
41
21
5
3
3
14
9
23
41
22
5
3
3
14
10
23
41
22
6
3
3
14
10
23
40
22
6
3
3
14
10
24
42
22
6
3
3
14
10
25
42
22
6
3
3
14
10
25
42
22
6
3
3
14
10
25
41
22
6
3
3
14
10
25
41
22
6
3
3
14
9
25
41
24
6
3
3
14
9
25
43
25
6
3
3
14
9
25
43
25
6
3
3
14
9
23
43
24
6
3
3
15
9
22
43
25
6
3
3
16
9
22
43
24
6
3
3
16
9
22
42
24
6
3
3
15
9
22
42
24
6
3
3
15
9
22
42
25
6
3
3
15
9
22
42
25
6
3
3
16
9
22
42
24
6
3
4
16
8
22
42
24
6
3
4
15
8
22
40
24
6
3
3
15
8
22
40
24
6
3
4
15
8
22
40
24
6
3
3
14
7
23
40
24
6
3
3
14
7
22
40
24
6
3
3
14
7
20
39
23
6
3
3
14
7
21
39
23
6
3
3
15
7
21
39
23
6
3
3
15
7
21
39
23
6
3
3
15
8
21
39
23
6
3
3
15
8
21
39
23
6
3
3
15
8
21
39
23
6
3
3
15
7
22
40
24
6
3
3
15
8
21
39
24
6
3
3
15
8
21
40
24
6
3
3
14
8
21
40
24
6
3
3
14
8
21
40
24
6
3
3
14
8
21
40
24
6
3
3
14
8
21
40
24
6
3
3
14
8
20
40
24
6
3
3
14
8
20
40
24
6
3
3
14
8
20
39
23
6
3
3
14
8
19
38
23
6
3
3
14
8
19
38
23
6
3
3
14
8
19
36
22
5
3
3
14
7
19
35
21
5
3
3
14
7
20
34
21
5
3
3
14
7
18
34
20
5
3
3
14
8
20
34
21
6
3
3
13
8
20
34
20
5
3
3
13
8
19
35
20
5
3
3
13
8
19
35
19
5
3
3
13
8
20
36
19
5
3
3
13
9
19
34
19
5
3
3
13
9
18
35
19
5
3
3
13
9
17
35
19
5
3
3
13
9
18
35
19
5
3
3
13
9
19
35
19
5
3
3
13
9
19
34
16
5
3
3
13
9
19
32
15
5
3
3
13
9
19
32
15
6
3
3
13
9
19
33
15
6
3
3
12
9
19
32
15
5
3
3
11
9
20
32
15
5
3
3
11
9
20
33
15
6
3
3
11
9
20
33
15
5
3
3
12
9
20
33
15
5
3
3
12
9
20
34
15
5
3
3
12
9
20
34
15
5
3
3
12
9
19
34
15
5
3
4
12
9
19
34
14
5
3
4
12
9
19
34
14
5
3
4
12
9
19
36
15
5
3
4
12
9
19
35
15
5
3
4
12
9
19
35
15
5
3
4
12
9
19
36
15
5
3
4
12
9
19
36
15
5
3
4
11
9
19
35
15
5
3
4
11
10
19
35
15
5
3
4
11
9
18
35
15
5
3
4
11
9
18
35
15
5
3
4
11
9
18
35
15
5
3
4
11
9
18
34
15
5
3
4
11
9
18
34
15
5
3
4
11
9
18
34
15
5
3
4
11
9
18
33
15
5
3
4
11
9
18
33
15
5
3
4
11
9
18
33
14
5
3
4
10
9
18
31
15
5
3
4
10
9
18
32
15
5
3
4
10
9
19
31
14
5
3
4
11
9
19
31
15
5
3
4
11
9
19
31
14
5
3
4
10
9
19
30
14
5
3
4
10
9
19
31
14
5
3
4
10
9
19
30
14
5
3
4
10
9
19
30
14
5
3
4
11
9
19
30
14
5
3
4
11
9
17
30
14
4
3
4
11
9
17
29
14
5
3
4
11
9
17
28
14
5
3
4
11
9
17
28
14
5
3
4
11
9
17
27
14
5
3
4
11
8
17
26
14
4
3
4
11
8
17
26
14
4
2
4
11
8
17
26
14
4
2
4
10
8
16
26
14
4
2
4
10
8
15
26
14
4
2
3
11
8
15
25
13
4
2
3
11
8
15
25
14
4
2
3
11
8
15
25
13
4
2
3
11
8
15
25
13
4
2
3
11
7
15
25
13
4
2
3
11
8
14
25
14
4
2
3
11
8
15
25
14
4
2
3
11
8
14
25
14
4
2
3
10
8
14
25
14
4
2
3
10
8
14
25
14
4
2
3
10
8
14
25
14
4
2
3
10
8
14
24
13
4
2
3
10
8
14
25
13
4
2
3
10
8
14
25
14
4
3
3
10
7
14
24
14
4
3
3
10
7
14
25
14
4
3
3
10
7
14
24
14
4
3
3
10
7
14
23
13
4
3
3
10
7
14
23
14
4
2
3
10
7
14
23
14
4
2
3
10
7
14
23
13
4
2
3
10
7
13
24
13
4
2
3
10
7
13
24
12
4
3
3
10
7
13
25
12
4
2
3
10
7
13
25
12
4
2
3
10
7
13
24
12
4
3
3
10
7
13
24
12
4
3
3
10
7
13
25
12
4
3
3
10
7
13
25
12
4
3
3
11
7
14
25
12
4
3
3
11
7
14
26
12
4
3
3
11
8
14
27
12
4
3
3
13
8
13
28
12
4
3
3
13
7
13
28
12
4
3
3
13
7
13
29
12
4
3
3
13
7
13
28
12
4
3
3
13
7
13
28
12
4
3
3
13
7
13
29
12
4
3
3
13
7
13
29
13
4
3
3
12
7
13
29
13
4
3
2
13
7
13
29
13
4
3
2
12
7
13
29
13
4
3
2
12
7
13
30
13
4
3
2
12
7
13
31
13
4
3
2
12
7
13
31
13
4
3
2
12
7
13
31
13
4
3
2
12
7
13
31
13
4
3
2
12
7
13
30
13
4
3
2
12
7
14
30
13
4
3
2
12
7
14
30
12
4
3
3
12
7
13
31
12
4
3
2
12
7
13
31
12
4
3
2
12
7
13
31
12
4
3
2
12
7
14
31
12
4
3
3
12
7
14
30
12
4
3
3
14
7
13
30
12
4
3
2
14
8
13
30
12
4
2
2
14
7
14
30
12
4
3
2
14
7
14
29
11
4
3
2
14
7
14
29
11
4
3
2
14
7
14
30
12
4
3
3
14
7
14
30
12
5
3
3
14
7
14
29
12
5
3
3
14
7
13
29
11
4
3
3
14
8
14
28
11
5
3
3
14
8
14
29
11
5
3
3
14
8
14
29
11
5
3
3
14
8
14
29
11
5
3
3
14
8
14
29
10
5
3
3
14
8
14
29
10
5
3
3
14
8
14
29
10
5
3
3
14
8
14
29
10
5
3
3
14
8
14
28
10
5
3
3
14
8
14
28
10
5
3
3
14
8
14
28
10
5
3
2
14
8
14
28
10
5
3
2
14
8
14
28
10
5
3
2
14
8
14
27
10
5
3
2
14
8
14
27
10
4
3
2
13
8
13
27
10
4
3
2
13
7
12
26
10
5
3
2
13
6
12
24
11
5
3
2
10
6
13
24
11
5
3
2
10
6
13
24
11
5
3
2
10
6
12
24
12
5
3
2
10
6
12
24
13
5
3
2
10
6
12
23
13
5
3
2
10
6
12
23
13
5
3
2
10
6
12
23
12
6
3
2
10
6
12
23
12
6
3
2
10
6
12
23
12
6
3
2
10
6
12
23
13
6
3
2
10
6
11
21
12
6
3
2
10
6
11
20
12
6
3
2
9
6
11
20
12
6
3
2
9
6
11
20
12
6
3
2
9
6
11
20
12
6
3
2
9
5
11
20
12
6
3
2
9
5
10
20
12
6
3
2
9
5
10
20
12
6
3
2
9
5
10
19
12
6
3
2
9
5
10
19
12
6
3
2
9
5
10
19
12
6
3
2
9
5
9
19
12
6
3
2
9
4
9
19
12
6
3
2
6
4
9
19
12
6
3
2
6
4
9
18
12
6
3
2
6
4
8
17
12
6
3
2
6
4
8
17
12
6
3
2
6
4
7
17
12
6
3
2
6
3
7
17
12
6
3
2
5
3
7
17
12
5
3
2
5
3
7
16
12
5
3
2
5
3
7
16
11
5
3
2
5
3
6
16
11
5
2
2
5
2
5
14
11
5
2
1
4
2
5
14
11
5
2
1
3
2
5
13
11
5
2
1
3
2
5
13
11
5
2
1
3
2
5
13
11
5
2
1
3
2
5
12
11
5
2
1
2
2
4
12
11
5
2
1
2
1
4
11
11
5
2
1
2
1
4
11
11
5
2
1
2
1
4
11
11
5
2
1
2
1
4
10
11
5
2
1
2
1
4
10
11
5
2
2
2
1
4
10
11
5
2
1
2
1
3
10
11
5
2
1
2
1
3
10
11
5
2
1
2
1
3
10
11
5
2
1
2
1
3
10
10
5
2
1
2
1
2
8
9
4
2
1
2
1
1
7
9
4
2
1
1
1
1
7
7
4
2
1
1
1
1
7
7
4
2
1
1
1
1
7
6
4
2
1
1
1
1
7
6
4
2
1
1
1
1
6
6
3
2
1
1
1
1
6
6
3
2
1
1
1
1
6
6
3
2
1
1
1
1
6
5
3
2
1
1
1
1
5
5
3
2
1
1
1
2
5
5
3
2
1
1
1
2
5
5
3
2
1
1
1
2
5
5
3
2
1
1
1
2
5
5
3
2
1
1
1
2
5
5
3
2
1
1
1
2
5
5
3
2
1
1
1
2
5
5
2
2
1
1
1
2
4
5
2
1
1
1
1
2
4
5
2
1
1
1
1
2
4
5
2
1
1
1
1
2
4
4
2
1
1
1
1
2
3
4
2
1
1
1
1
2
3
4
2
1
1
1
1
2
3
4
2
1
1
1
1
2
3
4
2
1
1
1
1
2
4
4
2
1
1
1
1
2
3
4
2
1
1
1
1
2
3
4
2
1
1
1
1
2
3
4
2
1
1
1
1
2
3
4
2
1
1
1
1
2
3
4
2
1
1
1
1
2
4
4
2
1
1
1
1
2
4
4
2
1
1
1
1
2
4
4
2
1
1
1
1
2
7
5
2
1
1
1
1
2
7
5
2
1
1
1
1
2
7
5
2
1
1
1
1
2
7
5
2
1
1
1
1
2
7
5
2
1
1
1
1
2
7
5
2
1
1
1
1
2
7
4
2
1
1
1
1
2
7
4
2
1
1
1
1
2
8
4
2
1
1
1
1
2
8
4
2
1
1
1
1
2
8
4
2
1
1
1
1
2
8
4
2
1
1
1
1
2
8
4
2
1
1
1
1
2
8
4
2
1
1
1
1
2
8
4
2
1
1
1
1
2
8
4
2
1
1
1
1
2
8
4
2
1
1
1
1
2
8
4
2
1
1
1
1
2
8
4
2
1
1
1
1
2
9
4
2
1
1
1
1
2
9
4
2
1
1
1
1
2
9
4
2
1
1
1
1
2
9
5
2
1
1
1
1
2
9
4
2
1
1
1
1
2
9
4
2
1
1
1
1
2
9
4
2
1
1
1
1
2
10
4
2
1
1
1
1
2
10
4
2
1
1
1
1
2
10
4
2
1
1
1
1
2
10
5
2
1
1
1
1
3
11
5
2
1
1
1
1
3
11
5
3
1
1
1
1
3
11
5
3
1
1
1
1
3
11
6
3
1
1
1
1
3
12
6
3
1
1
1
1
3
12
6
3
1
1
1
1
3
12
6
3
1
1
1
1
3
12
6
3
1
1
1
1
3
12
6
3
1
1
1
1
3
13
7
3
1
1
1
1
3
13
6
3
1
1
1
2
3
13
6
3
2
1
1
2
3
14
6
3
2
1
1
2
6
15
6
3
2
1
1
3
6
15
7
3
2
1
1
3
6
18
7
3
2
1
1
3
6
18
7
3
2
1
2
3
6
17
8
3
2
2
2
3
7
18
9
4
2
2
4
4
7
18
9
4
2
2
7
4
7
17
9
4
2
2
7
4
7
18
9
4
3
2
7
4
8
21
10
4
3
2
8
4
8
24
11
4
3
2
8
4
8
24
12
4
3
2
8
5
8
25
12
4
3
3
8
6
8
25
12
5
3
4
9
6
10
26
12
5
3
4
9
6
12
26
13
5
3
4
9
6
12
27
14
5
3
4
9
7
12
29
14
6
3
5
9
7
12
30
15
6
3
5
11
7
13
31
16
6
3
5
11
7
13
31
16
6
3
5
12
7
13
32
16
6
3
5
12
7
13
32
17
6
3
5
12
7
15
32
17
6
3
5
12
7
15
33
17
6
3
5
13
7
15
33
17
6
3
5
13
7
15
34
17
6
4
5
13
7
15
34
17
6
4
5
13
8
15
36
17
6
4
5
13
8
15
36
17
6
4
5
14
8
17
37
17
7
5
5
14
8
17
37
18
7
5
5
15
8
17
37
18
7
5
5
15
8
17
37
18
7
5
5
15
9
17
39
18
7
5
5
15
9
17
39
18
7
6
6
15
9
18
40
19
8
6
6
16
9
18
40
19
8
6
6
16
9
18
40
19
7
6
6
17
9
18
42
19
8
6
6
17
9
18
45
19
8
6
6
17
9
18
45
19
8
6
6
17
9
18
45
19
8
6
6
17
9
19
45
19
8
6
6
18
10
19
48
22
8
6
6
18
10
19
48
22
8
6
6
18
10
19
49
22
8
6
6
18
10
19
49
22
8
6
6
18
10
20
49
24
8
6
6
20
10
20
49
24
8
6
6
21
10
20
49
24
8
6
6
21
10
20
49
24
8
6
6
21
10
20
48
24
8
6
6
21
10
20
51
26
8
6
6
21
10
21
52
26
8
6
6
22
10
22
53
27
8
6
6
21
10
21
53
27
8
6
6
21
9
22
52
27
8
6
6
21
10
22
52
27
8
6
6
21
10
22
52
27
8
6
6
20
10
23
51
27
8
6
6
20
10
23
53
27
8
6
6
21
10
23
53
28
8
6
6
20
9
23
53
28
8
6
6
21
10
23
54
28
8
6
6
21
10
23
53
27
8
6
6
21
10
23
53
27
8
6
5
21
9
23
52
27
8
6
5
20
10
23
52
27
8
6
5
20
10
23
51
26
8
6
5
19
9
23
51
26
8
6
5
19
11
23
51
26
8
6
6
19
11
23
52
26
8
6
6
19
11
22
51
26
8
6
6
19
11
22
51
26
8
6
6
19
11
22
51
26
9
7
6
19
11
22
51
27
8
6
6
19
11
22
50
27
8
6
6
19
11
22
49
27
9
6
6
19
11
23
49
27
8
6
6
19
11
22
49
26
8
6
6
18
12
22
49
26
8
6
6
18
12
22
49
26
8
6
6
18
12
22
49
26
8
5
6
18
12
22
48
26
8
6
6
18
12
22
48
26
8
5
5
18
12
22
46
26
8
5
5
18
12
22
46
26
8
5
5
17
12
22
46
26
8
5
5
17
12
22
45
25
8
5
5
17
12
22
42
25
8
5
5
16
12
22
42
25
7
5
5
17
13
22
43
25
8
5
5
17
12
22
44
25
8
5
5
17
12
22
41
23
8
5
5
17
12
22
43
23
8
5
5
16
12
22
42
24
8
5
5
17
12
22
43
24
8
5
5
17
12
22
42
23
8
5
5
15
12
22
42
22
7
5
5
13
12
21
43
22
7
5
5
13
12
21
42
22
7
5
5
13
12
21
43
22
7
5
5
13
12
21
40
21
7
5
5
13
12
20
39
20
7
5
5
13
12
20
38
19
8
5
5
12
12
20
39
20
8
5
5
12
12
20
39
20
8
5
5
12
12
20
39
20
8
5
5
12
12
20
38
19
7
5
5
13
12
20
37
19
7
5
5
12
12
19
34
18
7
5
5
12
12
19
36
18
7
5
5
12
12
19
36
18
7
5
5
12
12
19
35
18
7
5
5
12
12
18
35
18
7
5
5
12
12
18
35
18
7
5
5
12
12
18
35
18
7
5
5
12
12
18
35
18
7
5
5
12
12
18
35
18
7
5
5
12
12
18
35
18
7
5
5
12
11
18
35
18
6
4
4
12
11
18
33
18
6
4
4
12
11
18
33
18
6
4
4
12
11
18
33
18
6
4
4
12
11
18
33
18
6
4
4
12
11
18
33
18
6
4
4
12
11
18
33
17
6
4
3
12
11
18
33
17
6
4
3
12
11
17
33
17
6
4
3
12
10
17
33
17
6
4
3
12
10
18
33
17
6
4
4
12
8
18
32
17
6
4
4
12
8
17
33
17
6
4
4
13
8
17
32
17
6
4
4
13
8
18
32
17
5
4
4
13
8
18
33
17
5
4
4
12
8
18
33
17
5
4
4
12
8
19
36
18
5
4
4
12
8
21
35
18
5
4
4
12
9
20
36
19
6
4
4
12
9
20
36
19
6
4
4
12
8
20
36
19
5
4
3
11
8
20
33
19
5
4
3
11
8
20
33
19
5
4
4
11
8
20
32
18
5
4
4
11
8
20
32
17
5
3
3
11
8
20
31
17
5
3
3
11
8
20
31
17
5
3
3
11
8
20
32
17
5
3
4
11
8
20
32
18
5
3
4
11
9
20
31
17
5
3
4
11
9
20
31
17
5
3
3
11
8
20
30
17
5
3
3
12
8
20
30
17
5
3
3
12
8
20
31
16
5
3
3
12
8
20
31
16
5
3
3
11
8
19
31
15
5
3
3
11
8
19
31
15
5
3
3
12
8
18
32
16
5
3
3
11
8
19
32
15
5
3
3
11
8
19
33
16
5
3
3
11
8
19
31
14
5
3
3
11
9
19
31
14
5
3
3
12
9
19
31
15
5
3
3
12
9
19
30
15
5
3
3
12
9
20
31
15
5
3
3
12
8
20
31
15
5
3
3
12
8
19
31
14
4
3
3
13
8
19
31
14
4
3
3
13
8
19
34
16
5
3
3
13
8
19
34
16
5
3
3
13
8
19
34
15
5
3
3
13
9
19
34
16
5
3
3
13
9
19
35
16
5
3
3
14
9
19
35
16
5
3
3
14
9
19
35
15
5
3
3
14
9
19
35
15
5
3
3
14
9
19
35
15
5
3
3
14
9
19
35
15
5
3
3
14
9
19
35
15
5
3
3
15
9
19
35
16
5
3
3
15
9
19
35
16
5
3
3
15
9
19
35
16
5
3
3
14
9
19
35
16
5
3
3
14
10
18
35
16
4
3
3
15
10
18
35
16
5
3
3
15
10
18
37
15
5
3
3
15
10
17
35
15
5
3
3
15
10
16
35
15
5
3
3
15
10
16
34
14
4
3
3
15
10
16
35
14
4
3
3
15
10
16
35
14
4
3
3
15
9
16
35
14
4
3
3
15
9
16
35
15
4
3
3
15
9
16
35
14
4
3
3
15
9
16
35
14
4
3
3
15
10
16
36
15
4
3
3
16
10
16
35
15
4
3
3
16
10
16
35
15
4
2
2
16
10
16
35
15
4
3
2
16
10
17
35
15
4
2
2
16
10
17
34
15
4
3
3
15
10
17
34
15
4
3
2
15
10
17
34
15
4
3
3
15
10
17
33
15
4
3
2
15
10
17
33
15
4
3
2
15
10
17
33
15
4
3
2
15
10
17
33
15
4
3
3
15
10
17
33
16
4
3
3
15
10
16
33
16
4
2
3
16
10
16
33
15
4
2
2
16
10
16
33
15
4
3
3
16
9
16
33
15
4
3
3
15
9
16
33
15
4
3
2
15
9
16
33
15
4
3
2
15
9
15
33
15
4
3
2
15
10
15
33
15
4
3
2
15
10
15
33
15
4
3
2
15
10
15
34
15
4
2
2
15
10
15
32
14
4
2
2
15
10
15
33
14
3
2
2
15
10
15
33
14
4
2
2
15
10
14
33
14
4
2
2
15
9
14
32
14
4
2
2
14
9
14
32
14
4
2
2
14
9
14
33
14
4
2
2
14
9
14
32
14
4
2
2
14
9
14
32
14
4
2
2
14
9
14
32
14
4
2
2
14
9
14
32
14
4
2
2
14
9
14
32
14
4
2
2
13
9
14
33
14
4
2
2
13
9
14
33
14
4
3
3
13
9
14
33
14
4
3
3
13
9
14
33
14
4
3
3
13
9
14
33
14
4
3
3
13
9
14
30
14
3
2
2
12
9
13
30
14
3
2
2
12
9
12
30
14
3
2
2
12
9
11
30
14
3
2
2
12
9
11
29
14
3
2
2
12
9
11
29
14
3
2
2
12
9
11
29
13
3
2
2
12
9
11
29
13
3
2
2
12
9
11
30
13
3
2
2
12
9
11
30
14
3
2
2
12
9
11
29
13
4
2
2
12
8
11
29
13
4
2
2
12
8
11
29
13
3
2
2
12
8
10
30
13
3
2
2
12
8
9
30
13
3
2
2
12
8
11
31
13
3
2
2
12
8
11
31
13
3
2
2
12
8
11
32
13
3
2
2
12
8
11
32
13
3
2
2
12
8
12
32
13
3
2
2
12
9
12
33
13
3
2
2
12
9
12
34
14
3
2
2
12
8
12
32
12
3
2
2
12
8
12
32
12
3
2
2
12
8
12
32
12
3
2
2
12
8
12
33
13
4
2
2
12
8
12
34
14
4
2
2
12
8
12
34
14
4
2
2
12
8
13
34
14
4
2
2
12
8
13
34
13
3
2
2
12
8
13
35
14
3
2
2
12
8
13
36
14
3
2
2
11
7
13
35
14
3
2
2
10
7
13
34
13
3
2
2
10
7
13
33
13
3
2
2
10
7
13
34
13
3
2
2
10
7
12
34
13
3
2
2
10
7
13
35
13
3
2
2
10
7
14
37
14
3
2
2
10
8
14
36
14
4
2
2
10
8
14
36
14
4
2
2
10
8
14
36
14
4
2
2
10
8
14
37
14
4
2
2
10
8
14
37
14
4
2
2
10
8
14
36
14
4
2
2
10
8
14
36
14
4
2
2
10
8
15
39
14
4
3
3
10
8
15
39
14
4
3
3
9
8
15
38
14
4
3
3
10
8
15
38
14
4
3
3
10
8
15
38
14
4
3
3
10
8
15
38
14
4
3
3
10
7
16
38
14
4
3
3
9
8
16
41
16
5
3
3
9
8
16
41
16
5
3
3
11
8
16
41
16
5
3
3
11
9
17
41
16
5
3
3
10
8
17
40
16
5
3
3
10
8
17
40
16
5
3
3
10
8
17
39
15
5
3
3
10
8
17
39
15
5
3
3
10
9
18
41
16
5
3
4
10
9
18
42
17
5
4
4
10
9
18
41
16
5
4
4
10
9
18
41
17
5
3
4
10
9
17
40
16
5
4
4
10
9
17
40
16
5
4
4
10
9
17
39
16
5
3
4
10
9
17
42
17
6
4
4
10
10
18
41
17
6
4
4
10
9
17
40
17
6
4
4
10
9
17
40
17
6
4
4
10
9
18
39
17
6
4
4
10
10
17
39
17
6
4
4
11
10
18
39
17
6
4
4
11
10
18
38
16
6
4
4
11
10
18
38
16
6
4
4
11
10
18
38
16
6
4
4
11
10
18
38
16
6
4
4
11
10
18
38
16
6
4
4
11
9
18
37
16
6
4
4
11
9
18
36
15
6
4
4
11
9
18
40
17
6
4
4
11
9
18
41
17
6
4
5
11
9
18
41
17
6
4
5
11
9
19
41
17
6
4
5
11
9
19
41
17
6
4
5
11
9
18
41
17
6
4
5
11
9
18
39
16
6
4
5
12
9
18
39
16
6
4
4
12
9
18
41
16
6
4
5
12
9
18
41
16
6
4
5
13
10
18
40
16
6
4
5
13
9
18
40
16
6
4
5
13
10
18
41
16
6
4
5
13
10
18
41
16
6
4
5
13
9
17
38
16
6
4
4
13
9
17
39
16
6
4
4
13
10
17
39
16
6
3
4
12
10
18
39
16
6
3
4
12
10
19
39
16
6
3
4
12
10
19
39
16
6
3
4
12
10
19
39
16
6
3
4
12
9
19
37
14
5
3
4
12
9
19
37
14
5
3
4
11
9
19
37
14
5
3
4
11
9
18
37
14
5
3
4
11
9
18
37
14
5
3
4
11
9
18
37
14
5
3
4
11
9
18
38
14
5
3
4
11
9
18
38
14
5
3
4
11
8
18
38
13
4
3
4
11
8
18
39
14
5
3
3
11
8
18
39
14
5
3
3
11
8
17
40
14
5
3
3
11
8
17
40
14
5
3
3
10
8
17
40
14
5
3
3
10
8
17
40
14
5
3
3
10
8
16
37
13
4
2
3
10
8
16
38
13
4
2
3
10
8
16
39
13
4
2
3
10
8
16
39
13
4
2
3
10
7
15
39
13
4
2
3
10
7
15
39
13
4
2
3
9
7
15
39
13
4
2
3
9
7
15
39
13
4
2
3
9
7
15
39
13
4
2
3
9
7
15
40
13
4
2
3
9
7
15
40
13
4
2
3
9
7
15
40
13
4
2
3
9
7
15
41
13
4
2
3
9
7
15
41
13
4
2
3
8
7
14
37
11
4
2
3
8
6
14
36
11
4
2
3
8
6
14
36
11
4
2
2
8
6
13
36
11
4
2
2
8
6
13
35
11
4
2
3
8
6
13
35
11
4
2
3
8
6
13
34
11
4
2
2
7
6
13
34
11
4
2
2
7
6
13
32
11
4
2
2
7
5
13
32
11
4
2
2
5
5
13
32
11
4
2
2
5
5
12
32
11
4
2
2
4
5
12
32
10
4
2
2
4
5
12
32
10
4
2
2
4
5
12
32
10
4
2
2
4
5
12
31
10
4
2
2
4
5
12
31
10
4
2
2
4
4
10
31
10
4
2
2
4
4
8
30
10
4
2
2
4
4
7
30
10
4
2
2
4
4
7
30
10
4
2
2
4
3
7
30
11
4
2
2
4
3
7
30
11
4
2
2
4
3
7
30
11
4
2
2
3
3
7
30
11
4
2
2
3
3
7
30
11
4
2
2
3
2
6
30
11
4
2
2
3
2
6
28
11
4
2
2
3
2
5
28
11
4
2
2
3
2
5
27
11
4
2
2
2
2
5
24
10
4
2
2
2
2
5
24
10
4
2
2
2
2
4
22
9
4
2
2
2
2
4
22
9
4
2
2
2
2
4
22
9
4
2
2
2
2
4
22
9
4
2
2
2
2
4
22
9
4
2
2
2
2
4
22
10
5
2
1
2
2
4
20
10
5
2
1
2
2
4
20
10
5
2
1
2
2
4
19
9
5
2
1
2
2
4
18
9
5
2
1
2
2
4
18
9
5
2
1
2
2
4
18
9
5
2
1
1
1
3
18
9
4
2
1
1
1
3
15
9
4
2
1
1
1
3
15
10
4
2
1
1
1
3
15
10
4
2
1
1
2
3
14
10
4
2
1
1
2
3
12
10
4
2
1
1
1
3
11
10
4
2
1
1
1
3
11
10
4
2
1
1
1
3
11
10
4
2
1
1
1
3
11
10
4
2
1
1
1
3
11
10
4
2
1
1
1
2
10
10
4
2
1
1
1
2
11
10
4
2
1
1
1
2
11
10
4
2
1
1
1
2
10
10
4
2
1
1
1
2
10
10
4
2
1
1
1
2
10
10
4
2
1
1
1
2
10
10
4
2
1
1
1
2
10
10
4
2
1
1
1
2
9
10
4
2
1
1
1
2
9
10
4
2
1
1
1
2
9
10
4
2
1
1
1
2
9
10
4
2
1
1
1
2
9
10
4
2
1
1
1
2
9
10
4
2
1
1
1
2
9
10
4
1
1
1
1
2
9
10
4
1
1
1
1
2
9
10
4
1
1
1
1
2
9
9
4
1
1
1
1
2
9
9
4
2
1
1
1
2
9
9
4
2
1
1
1
1
8
9
4
2
1
1
1
1
8
9
4
2
1
1
1
1
8
9
4
1
1
1
1
1
8
9
4
1
1
1
1
1
8
9
4
1
1
1
1
1
8
9
4
1
1
1
1
1
7
9
4
1
1
1
1
1
7
9
4
1
1
1
1
1
7
9
4
1
1
1
1
1
7
9
3
1
1
1
1
1
7
9
4
1
1
1
1
1
7
9
4
1
1
1
1
1
7
8
3
1
1
1
1
1
7
8
3
1
1
1
1
1
7
8
3
1
1
1
1
1
7
8
3
1
1
1
1
1
7
8
3
1
1
1
1
1
7
8
3
1
1
1
1
1
7
8
3
1
1
1
1
1
7
8
3
1
1
1
1
1
7
7
3
1
1
1
1
1
7
7
3
1
1
1
1
1
7
6
3
1
1
1
1
1
7
6
3
1
1
1
1
1
7
6
3
1
1
1
1
1
7
6
3
1
1
1
1
1
7
6
3
1
1
1
1
1
7
6
3
1
1
1
1
1
7
6
3
1
1
1
1
1
7
6
3
1
1
1
1
1
7
5
3
1
1
1
1
1
7
5
3
1
1
1
1
1
6
5
3
1
1
1
1
1
6
5
3
1
1
1
1
1
7
5
3
1
1
1
1
1
7
5
3
1
1
1
1
1
7
5
3
1
1
1
1
1
6
5
3
1
1
1
1
1
6
5
3
1
1
1
1
1
6
5
3
1
1
1
1
1
6
5
3
1
1
1
1
1
7
5
3
1
1
1
1
1
7
5
3
1
1
1
1
1
7
5
3
1
1
1
1
1
7
5
3
1
1
1
1
1
7
5
3
1
1
1
1
1
7
4
3
1
1
1
1
1
7
4
3
1
1
1
1
1
7
4
3
1
1
1
1
1
7
4
3
1
1
1
1
1
7
4
3
1
1
1
1
1
7
4
3
1
1
1
1
1
7
4
2
1
1
1
1
1
7
4
2
1
1
1
1
1
7
4
2
1
1
1
1
1
7
5
3
1
1
1
1
2
7
4
2
1
1
1
1
2
7
4
2
1
1
1
1
2
7
4
2
1
1
1
1
2
7
5
2
1
1
1
1
2
8
5
2
1
1
1
1
2
8
5
2
1
1
1
1
2
8
5
2
1
1
1
1
2
8
5
2
1
1
1
1
2
8
4
2
1
1
1
1
2
8
4
2
1
1
1
1
2
8
5
2
2
1
1
1
2
8
4
2
1
1
1
1
2
8
4
2
1
1
1
1
2
8
4
2
1
1
1
1
2
8
4
2
1
1
1
1
2
9
5
2
2
1
1
1
2
9
5
2
2
1
1
1
2
10
5
2
2
1
1
1
2
10
5
3
2
1
1
1
2
10
5
2
2
1
1
1
2
10
5
2
2
1
1
1
2
11
5
2
2
1
1
1
2
11
5
2
2
1
1
1
2
11
5
2
2
1
1
1
2
11
5
3
2
1
1
2
3
12
5
3
2
1
1
2
3
13
6
3
2
1
3
2
3
13
6
3
2
2
4
2
3
18
6
3
2
2
4
2
3
21
6
3
2
2
4
2
4
22
6
3
2
2
4
3
3
24
6
3
2
2
5
4
4
24
6
3
2
2
5
6
4
26
7
3
2
2
6
6
4
28
7
3
3
2
6
6
4
29
8
3
4
2
8
6
4
31
8
4
4
2
10
6
5
31
9
4
4
2
10
6
6
33
9
4
4
2
10
7
6
33
9
4
5
2
10
7
6
33
11
4
5
2
11
7
7
34
11
4
5
2
12
7
7
34
11
4
5
3
12
7
7
35
11
4
5
3
12
7
8
35
12
4
5
3
12
7
8
37
12
4
5
3
12
7
8
38
12
4
5
3
12
7
8
38
12
4
5
3
13
7
9
38
12
4
5
3
13
8
10
41
15
5
5
3
13
9
12
42
17
5
5
3
14
9
12
42
17
5
5
3
14
9
12
43
17
5
5
3
14
9
12
45
17
5
5
3
14
9
14
48
18
5
5
3
14
9
15
49
19
6
5
3
14
9
16
49
19
6
5
4
14
9
16
50
19
6
5
4
15
9
16
50
19
6
5
4
15
9
16
50
19
6
5
4
15
9
16
50
20
6
5
4
15
9
16
50
20
6
5
4
15
9
17
50
20
6
6
4
15
9
18
51
20
6
6
4
15
10
18
51
21
7
6
4
16
10
19
51
22
7
6
4
16
10
19
51
22
7
6
4
16
10
19
52
22
7
6
4
16
10
19
52
22
7
6
4
16
10
19
53
22
6
6
4
16
10
20
54
23
7
6
4
17
11
20
55
23
7
6
4
17
11
21
55
24
7
6
4
17
11
21
55
24
7
6
4
17
11
21
55
24
7
6
4
17
11
21
55
25
7
6
4
17
10
21
55
24
7
6
4
17
10
21
56
24
7
6
4
17
10
22
55
26
7
6
4
17
11
22
55
25
7
6
4
17
11
22
54
26
7
6
4
17
11
22
54
26
7
6
4
17
10
22
55
26
7
6
4
17
9
22
54
26
7
6
4
17
9
22
53
25
7
6
4
17
9
22
53
25
7
5
4
16
9
22
52
25
7
5
4
15
9
22
52
25
7
5
4
15
9
22
51
25
7
5
4
15
9
22
51
25
7
5
4
15
9
22
51
25
7
5
4
15
9
22
52
25
7
5
4
14
9
22
53
25
7
5
4
14
9
22
52
25
8
5
4
14
9
22
52
26
8
5
4
14
9
23
50
25
8
5
4
14
9
23
50
25
8
5
4
14
9
23
51
25
8
5
4
14
9
23
51
25
8
5
4
14
8
22
48
24
7
5
4
13
8
21
47
23
7
5
4
13
8
21
47
23
7
5
4
14
8
21
47
23
7
5
4
14
8
21
44
23
7
5
4
14
8
20
41
23
7
5
4
14
8
19
40
21
7
5
4
14
8
19
40
21
7
5
4
14
8
19
42
21
7
5
4
13
8
19
42
21
7
5
4
13
8
19
42
22
7
5
4
13
8
19
43
23
7
5
4
13
8
19
43
23
7
5
4
14
8
18
43
23
7
5
4
14
8
17
43
22
6
5
4
14
8
17
42
22
6
5
4
13
8
17
42
21
6
4
4
13
8
17
42
21
6
4
4
13
7
17
42
21
6
4
4
13
7
16
42
21
6
4
4
13
7
16
42
21
6
4
4
13
7
15
40
20
6
4
4
12
7
16
40
20
6
4
4
12
7
16
40
19
6
4
4
12
7
15
40
19
6
4
4
12
7
15
40
19
6
4
4
12
7
15
40
18
6
4
4
12
7
15
42
19
6
4
4
12
7
15
41
19
6
4
4
12
7
14
40
17
6
4
4
12
7
14
39
17
6
4
4
12
7
14
39
17
6
4
4
13
7
14
39
17
6
4
4
13
7
14
38
17
6
4
4
13
7
14
38
17
6
4
4
12
7
14
38
17
6
3
4
13
7
14
38
17
6
3
4
13
7
14
38
17
6
3
4
13
7
14
37
17
5
3
4
13
7
14
38
17
5
3
4
13
7
14
38
18
5
3
4
13
7
14
37
17
5
3
4
13
7
13
36
17
5
3
4
13
7
14
34
17
5
3
4
13
7
13
34
16
4
3
3
13
7
12
34
16
4
3
3
13
7
13
34
16
4
3
3
13
7
13
34
16
4
3
3
13
7
13
34
16
4
2
3
13
7
13
35
16
4
2
3
13
7
13
35
17
4
2
3
13
7
13
35
17
4
2
3
13
6
14
34
16
4
2
3
11
6
14
35
16
4
2
3
11
6
14
35
16
4
2
2
11
6
14
35
16
4
2
2
12
6
14
35
16
4
2
2
12
6
14
35
16
4
2
2
12
6
15
32
16
4
2
2
11
6
15
32
16
4
2
2
11
6
15
31
15
4
2
2
11
6
15
30
14
4
2
2
11
6
15
30
14
4
2
3
11
7
15
30
14
4
2
3
11
6
15
30
14
4
2
3
11
6
15
30
14
4
2
3
11
6
15
29
13
4
2
3
10
6
15
29
13
4
2
2
10
7
15
29
13
4
2
2
10
7
15
29
13
4
2
2
11
7
16
28
14
4
2
2
12
7
15
28
14
4
2
2
12
7
14
27
13
4
2
2
12
6
14
27
13
4
2
2
12
6
14
27
13
4
2
2
12
6
14
27
13
4
2
2
13
7
14
26
13
4
2
2
13
7
14
24
12
4
2
2
12
7
14
26
13
4
2
2
12
7
14
26
13
4
2
2
12
7
14
26
13
4
2
2
12
7
14
26
13
4
2
2
11
7
14
26
13
4
2
2
11
7
14
25
13
4
2
2
11
7
14
25
13
4
2
3
11
7
14
25
13
4
2
2
11
7
14
25
13
4
2
3
11
7
14
26
13
4
2
2
11
7
14
27
13
4
2
2
11
7
14
27
12
4
2
2
11
7
14
26
12
4
2
2
11
7
14
26
12
4
2
3
11
7
15
26
12
4
2
3
11
8
14
26
12
4
3
3
11
8
14
27
11
4
3
3
11
8
14
28
11
4
3
3
11
8
14
28
11
4
3
3
11
8
14
30
11
4
3
3
11
8
13
30
11
4
3
3
11
8
13
30
12
4
3
3
11
8
13
30
11
4
3
3
11
8
13
30
11
4
3
3
11
8
13
30
12
4
3
3
11
8
13
30
12
4
3
3
11
8
13
30
12
4
3
3
11
8
13
31
11
4
3
3
11
8
13
32
11
4
3
3
11
8
13
32
12
4
3
3
11
9
12
32
12
4
3
3
11
9
12
32
12
4
3
3
11
9
12
32
13
4
3
3
11
9
13
32
13
4
3
3
11
9
13
32
13
4
3
3
12
8
13
32
13
4
3
3
12
8
13
33
14
4
3
3
12
8
14
32
14
4
3
3
12
8
14
33
14
4
3
3
12
8
15
33
14
4
3
3
12
8
14
34
14
4
3
3
12
8
14
33
14
4
3
3
13
8
14
33
14
4
3
3
13
8
14
33
14
4
3
3
13
8
14
33
14
4
3
3
13
8
14
33
14
4
3
3
13
8
14
33
14
4
3
3
13
8
14
33
14
4
3
3
13
8
14
32
14
4
3
3
13
8
14
32
15
4
3
3
13
8
14
31
14
4
3
3
13
8
14
31
14
4
3
3
13
8
16
34
16
5
3
3
13
8
16
34
16
5
3
3
12
8
16
34
16
5
3
3
13
8
16
34
16
4
3
3
13
8
16
34
16
4
3
3
13
8
16
34
16
4
3
3
13
8
17
34
16
4
3
3
12
8
17
34
16
4
3
3
12
8
17
33
16
4
3
3
12
8
17
34
17
4
2
3
12
8
18
34
17
4
3
3
13
8
20
34
17
4
3
3
13
8
20
34
17
4
3
3
13
7
20
34
17
5
3
3
13
7
20
33
17
4
3
2
13
7
20
32
17
4
3
2
13
7
20
33
16
4
2
2
13
6
20
31
16
4
2
2
13
6
20
31
16
4
2
2
13
6
20
32
16
4
2
2
13
6
20
32
16
5
2
2
13
7
20
32
16
5
2
2
13
7
20
32
15
5
3
2
13
7
20
32
15
5
3
2
13
7
20
31
15
5
2
2
13
7
20
30
16
5
3
2
13
7
20
30
15
5
3
2
13
7
20
30
15
4
2
2
13
7
20
30
15
5
2
2
13
7
20
30
15
5
2
2
13
7
20
30
15
5
2
2
14
8
19
30
14
5
3
2
14
8
19
30
14
5
3
2
14
8
19
30
14
5
3
2
14
8
19
29
14
5
3
2
14
8
18
29
14
5
3
2
14
8
18
31
14
5
3
2
14
8
18
32
13
5
3
3
14
8
18
31
14
5
3
3
14
8
18
33
13
5
3
3
13
8
18
32
14
5
3
2
12
8
19
33
14
5
3
2
12
8
20
33
14
5
3
2
12
8
20
33
14
5
3
3
12
8
21
34
14
5
3
3
12
8
21
34
13
5
3
2
12
8
21
34
13
5
3
2
12
8
21
33
13
4
3
2
12
8
21
34
13
4
3
2
12
8
21
34
13
4
3
2
12
8
19
31
11
4
2
2
13
8
19
31
11
4
2
2
13
8
19
31
11
4
2
2
13
8
19
31
11
4
2
2
13
8
19
31
10
4
2
2
13
9
19
30
11
4
2
2
13
9
18
30
10
4
2
2
13
8
18
29
11
4
2
2
13
8
18
29
11
4
2
2
13
8
18
29
11
4
2
2
13
8
17
29
11
4
2
2
12
8
16
29
11
4
3
2
12
8
16
29
12
4
3
2
12
8
16
29
12
4
3
2
12
8
15
30
12
4
3
2
12
9
15
30
12
4
3
2
12
9
15
29
12
4
3
2
12
9
15
29
12
4
3
2
12
9
15
30
12
4
3
2
12
9
15
30
12
4
3
2
13
9
15
29
12
4
3
2
13
9
15
29
12
4
2
2
12
9
15
29
12
4
2
2
12
9
15
30
12
4
3
2
12
9
15
30
12
4
3
2
12
9
15
30
12
4
3
2
12
8
15
30
12
4
2
2
12
8
15
30
12
4
2
2
12
8
15
30
12
4
2
2
12
8
15
29
11
4
2
2
12
8
15
29
11
4
2
2
11
8
15
29
11
3
2
2
11
8
16
30
11
4
2
2
11
8
16
30
12
4
2
2
11
8
16
30
12
4
2
2
11
8
16
32
12
3
2
2
10
8
16
30
12
4
2
2
10
7
16
29
12
4
2
2
10
8
16
30
12
3
2
2
11
8
16
28
12
3
2
2
11
8
16
28
12
3
2
2
11
8
15
28
12
4
2
2
11
8
13
27
12
4
2
2
11
7
14
28
12
4
2
2
10
7
13
27
12
4
2
2
10
7
12
28
12
4
2
2
10
7
12
28
12
4
2
2
10
7
13
28
12
4
2
2
10
8
13
27
12
4
2
2
10
7
13
28
12
4
2
2
10
7
13
28
12
4
2
2
9
7
13
28
12
4
2
2
9
7
13
28
12
4
2
2
9
7
14
28
12
4
2
2
9
7
14
28
12
4
2
2
9
7
15
28
12
4
2
3
10
7
15
29
12
4
2
3
10
7
15
28
12
4
3
3
10
7
15
29
11
4
2
3
10
7
15
29
11
4
2
3
10
7
14
28
11
4
2
3
10
7
14
28
11
4
2
3
10
7
14
28
11
4
2
3
10
7
14
28
11
4
2
3
10
7
14
28
11
4
3
3
10
6
14
29
11
4
3
3
10
6
14
29
11
4
3
3
10
6
14
29
11
4
3
3
10
6
14
28
10
4
3
3
10
6
14
28
11
4
3
3
9
6
15
28
11
4
3
3
9
6
15
31
14
5
3
3
9
6
15
31
14
5
3
3
9
6
15
31
14
5
3
3
9
6
15
31
14
5
3
3
9
6
15
31
14
5
3
3
9
6
15
31
15
5
3
3
9
7
15
31
15
5
3
3
9
7
15
32
15
5
3
3
9
7
15
32
15
5
3
3
9
6
15
32
15
5
3
3
9
6
15
32
15
5
3
3
9
6
14
31
15
5
3
2
9
6
14
32
15
5
3
3
9
6
14
32
15
5
3
3
9
6
14
30
15
5
3
3
9
6
14
30
15
5
3
3
9
6
14
29
15
5
3
3
9
6
14
28
14
5
3
3
8
6
14
28
14
5
3
3
8
6
14
28
14
5
3
3
8
6
14
28
14
5
3
3
8
6
14
28
14
5
3
3
8
5
14
28
14
5
3
3
8
5
14
28
14
5
3
2
8
5
14
27
14
5
3
2
8
5
14
27
14
5
3
2
8
5
14
26
14
5
3
2
8
5
13
27
14
5
3
2
8
5
13
26
14
5
3
2
7
5
13
26
14
5
3
2
7
5
13
26
14
5
3
2
7
5
13
27
14
5
3
2
7
5
12
27
15
5
3
2
7
5
12
27
15
5
3
2
7
5
13
27
14
5
3
2
5
5
12
26
14
5
3
2
5
5
12
26
14
4
3
2
5
5
12
26
14
4
3
2
5
4
12
26
14
4
3
2
5
4
12
26
14
4
3
2
5
4
12
26
14
4
3
2
5
4
12
26
14
4
3
2
5
4
12
26
14
4
2
2
5
4
12
26
14
4
2
2
5
4
12
24
14
4
2
2
4
4
12
24
14
4
2
2
4
4
12
24
14
4
2
2
4
4
12
24
14
4
2
2
4
4
12
24
14
4
2
2
4
4
10
24
14
4
2
2
4
4
10
20
10
4
2
2
4
4
10
20
11
4
2
2
4
4
10
19
11
4
2
2
4
4
10
19
11
4
2
2
4
4
10
18
10
4
2
2
4
4
10
18
10
4
2
2
3
3
10
17
10
4
2
2
3
3
10
16
9
4
2
2
3
3
10
16
9
4
2
2
3
3
10
16
9
4
2
2
3
2
10
16
9
4
2
2
2
2
10
16
9
4
2
2
2
2
10
15
9
4
2
1
2
2
10
14
8
4
2
1
2
2
9
14
8
4
2
1
1
2
9
14
8
4
2
1
1
2
9
14
8
4
2
1
1
2
9
14
8
4
2
1
1
2
8
14
8
4
2
1
1
2
8
14
8
4
2
1
1
2
8
13
8
4
2
1
1
2
8
13
7
4
2
1
1
2
8
13
7
4
2
1
1
2
8
13
7
4
2
1
1
2
8
13
8
4
2
1
1
2
8
12
8
4
2
1
1
2
8
12
8
4
2
1
1
2
8
12
7
4
2
1
1
2
8
12
7
4
2
1
1
2
8
11
7
4
2
1
1
1
8
11
7
4
2
1
1
1
8
10
7
4
2
1
1
1
7
8
7
4
2
1
1
1
7
8
7
4
2
1
1
1
4
8
7
4
2
1
1
1
4
8
7
4
2
1
1
1
4
8
7
4
2
1
1
1
4
8
6
4
2
1
1
1
4
7
6
4
2
1
1
1
4
7
6
4
2
1
1
1
4
6
6
4
2
1
1
1
4
6
6
4
2
1
1
1
4
6
6
4
2
1
1
1
4
6
6
4
1
1
1
1
4
6
6
4
1
1
1
1
4
6
6
4
1
1
1
1
4
6
5
4
1
1
1
1
4
6
5
4
1
1
1
1
4
5
5
4
1
1
1
1
4
5
5
4
1
1
1
1
4
5
5
3
1
1
1
1
4
5
5
3
1
1
1
1
4
6
4
3
1
1
1
1
4
5
4
3
1
1
1
1
4
5
4
3
1
1
1
1
4
5
4
3
1
1
1
1
3
5
4
3
1
1
1
1
2
6
4
3
1
1
1
1
2
6
4
3
1
1
1
1
2
5
4
3
1
1
1
1
2
5
4
3
1
1
1
1
2
5
4
3
1
1
1
1
2
5
4
3
1
1
1
1
2
5
4
3
1
1
1
1
2
5
4
3
1
1
1
1
2
5
5
3
1
1
1
1
2
5
5
3
1
1
1
1
2
5
5
3
1
1
1
1
2
5
5
3
1
1
1
1
2
5
5
3
1
1
1
1
1
5
4
3
1
1
1
1
1
5
4
3
1
1
1
1
2
6
4
3
1
1
1
1
2
6
4
3
1
1
1
1
2
6
4
2
1
1
1
1
1
6
4
2
1
1
1
1
1
6
4
2
1
1
1
1
1
6
4
2
1
1
1
1
1
6
4
2
1
1
1
1
1
6
4
2
1
1
1
1
1
6
4
2
1
1
1
1
1
6
4
3
1
1
1
1
1
6
4
3
1
1
1
1
2
6
4
3
1
1
1
1
2
6
4
3
1
1
1
1
2
6
4
3
1
1
1
1
2
6
4
3
1
1
1
1
2
6
4
3
1
1
1
1
2
6
4
3
1
1
1
1
2
6
4
3
1
1
1
1
2
6
4
3
1
1
1
1
2
7
4
3
1
1
1
1
2
7
4
3
1
1
1
1
2
7
4
3
1
1
1
1
2
7
4
3
1
1
1
1
2
6
4
3
1
1
1
1
2
6
4
3
1
1
1
1
2
6
4
3
1
1
1
1
2
6
4
3
1
1
1
1
2
6
4
3
1
1
1
1
2
6
4
3
1
1
1
1
2
5
4
3
1
1
1
1
2
5
4
3
1
1
1
1
2
5
4
3
1
1
1
1
2
6
5
3
2
1
1
1
2
6
5
3
2
1
1
1
2
6
5
3
2
1
1
1
2
6
5
3
2
1
1
1
2
6
5
3
2
1
1
1
2
7
5
3
1
1
1
1
2
7
5
3
1
1
1
1
2
7
5
3
1
1
1
1
2
8
5
3
2
1
1
1
2
9
5
3
2
1
1
1
2
9
5
3
2
1
1
1
2
9
5
3
2
1
1
1
2
11
5
3
2
1
1
1
2
11
5
3
2
1
1
1
3
12
6
3
2
1
1
1
3
12
6
3
2
1
1
2
3
18
8
4
2
1
1
2
3
18
8
4
2
2
1
2
3
18
9
4
2
2
1
2
3
18
9
4
2
2
1
2
3
18
9
4
2
2
2
2
3
18
9
4
2
2
2
2
4
18
9
5
3
2
3
3
4
19
10
5
3
2
3
3
4
19
10
5
3
2
3
3
4
19
10
5
3
2
3
3
4
19
10
5
3
2
4
3
5
19
10
5
3
2
4
5
5
19
10
5
3
2
4
6
5
20
10
5
3
2
4
6
5
21
10
5
3
3
5
6
5
21
10
5
3
3
5
6
6
23
11
5
3
3
5
7
6
25
11
5
3
3
5
7
6
27
12
6
3
3
6
7
7
27
12
6
3
3
6
7
7
27
12
6
3
3
6
7
7
27
12
6
4
3
6
7
7
28
13
6
4
4
6
7
7
30
13
6
4
4
7
7
7
31
13
6
4
4
7
8
9
34
16
7
4
4
8
8
9
37
17
7
5
4
8
8
9
37
17
7
5
4
9
9
9
37
18
7
5
4
9
9
12
38
19
8
5
4
9
9
14
40
20
8
5
4
9
9
15
42
20
8
5
4
9
9
15
42
20
8
5
4
10
9
15
45
21
8
5
4
10
9
15
45
22
8
5
4
11
9
15
45
23
8
5
4
11
9
16
46
23
8
5
5
11
9
16
46
23
8
5
5
11
9
16
47
23
8
5
5
11
10
16
47
23
8
5
5
11
11
16
47
23
8
5
5
11
11
16
51
24
9
5
5
11
11
16
53
25
9
5
5
11
11
16
53
25
9
5
5
11
11
16
53
25
9
5
5
13
11
17
53
25
9
5
5
13
11
17
53
26
9
5
5
13
12
17
53
27
9
5
5
13
12
17
56
28
9
5
5
14
12
17
56
27
9
6
6
14
13
18
54
27
9
6
6
14
13
19
54
27
9
6
6
14
13
19
54
27
9
6
6
14
13
19
54
27
9
6
6
15
13
19
55
28
9
6
6
15
13
19
56
28
9
6
6
14
13
19
56
29
9
6
6
14
13
20
56
29
9
6
6
15
13
20
56
29
9
6
6
14
13
20
56
29
9
6
6
15
13
20
57
29
9
6
6
15
13
20
57
29
9
6
6
15
13
21
57
29
9
6
5
15
13
21
57
29
9
6
6
14
13
21
56
29
9
6
5
14
13
21
58
29
9
6
5
15
13
21
58
30
9
6
5
15
13
21
58
31
9
6
5
15
13
22
57
30
9
6
5
15
13
21
57
30
9
6
5
15
13
21
57
31
9
6
5
16
13
21
57
30
9
6
5
16
13
21
57
30
9
6
5
16
14
21
56
30
9
6
5
16
14
22
56
30
9
5
5
15
13
21
55
29
9
5
5
15
13
21
53
28
8
5
5
15
13
22
52
28
8
5
5
15
13
22
53
28
8
5
5
15
13
21
53
27
8
5
5
15
13
19
52
27
8
5
5
15
13
19
51
27
8
5
5
14
13
19
50
27
8
5
5
14
13
19
48
27
8
5
5
14
13
19
49
26
8
5
5
13
13
19
48
25
7
5
5
13
13
19
48
25
7
5
4
13
13
19
48
25
7
5
4
13
13
19
48
25
7
5
4
13
13
19
48
25
7
5
4
14
12
19
48
25
8
5
4
14
11
19
45
24
8
5
4
14
11
19
42
23
8
5
4
14
11
20
42
23
8
5
4
14
11
20
43
23
8
5
4
12
12
20
43
23
8
5
4
12
12
21
43
23
7
5
4
12
12
21
42
22
7
5
4
12
12
21
40
20
7
5
4
12
12
20
40
20
7
4
3
12
12
20
40
20
7
5
3
12
11
19
41
20
7
4
3
12
11
19
41
20
7
4
3
11
11
19
41
20
7
4
3
11
11
19
40
19
7
4
3
11
12
19
40
19
7
4
3
12
11
19
40
18
6
4
3
11
11
19
41
18
6
3
3
11
11
18
41
18
6
3
3
12
11
18
41
18
6
3
3
11
11
19
40
18
6
3
3
11
11
19
40
18
6
3
3
11
11
18
40
18
6
3
3
11
10
18
40
18
6
4
3
11
10
18
41
18
6
4
3
11
10
18
39
18
6
4
3
11
10
18
39
18
6
4
3
11
10
18
37
15
6
4
3
11
10
18
37
16
6
4
3
10
10
18
38
16
6
4
3
10
10
18
38
16
6
4
3
10
10
18
38
16
6
3
3
10
9
18
38
16
6
3
3
10
9
18
38
16
6
3
3
10
9
18
39
16
6
3
3
10
9
18
39
16
6
4
4
10
9
17
39
16
6
4
4
10
9
17
39
16
6
4
4
10
9
16
39
16
6
4
4
10
9
17
39
15
6
4
4
11
9
18
38
15
6
4
4
11
9
18
39
15
6
4
4
11
9
18
39
15
6
4
3
12
9
18
38
15
6
4
3
12
9
17
38
15
6
3
3
12
9
17
39
15
6
4
4
12
9
17
41
15
6
4
4
12
9
17
41
15
6
4
4
12
9
17
41
15
6
4
4
13
8
17
40
15
6
4
4
13
8
17
40
15
5
3
4
13
9
17
40
15
5
3
3
13
9
17
41
15
5
3
3
13
9
17
41
15
5
3
3
13
9
17
40
15
5
3
3
13
8
16
40
15
5
3
4
12
7
15
39
15
5
3
4
13
7
15
39
15
5
3
4
13
7
15
39
15
5
3
4
13
7
15
38
15
5
3
4
13
6
15
38
14
5
3
4
14
6
15
38
14
5
3
4
14
6
15
38
14
5
3
4
14
6
15
38
14
5
3
4
14
6
15
39
15
5
3
4
14
6
15
38
14
5
3
4
14
6
15
38
15
5
3
4
14
6
15
37
14
5
3
4
14
6
15
36
14
5
3
4
14
6
15
36
14
5
3
4
14
6
14
36
14
5
3
4
14
6
14
36
14
5
3
4
14
6
14
36
13
5
3
4
14
6
14
36
13
5
3
4
14
6
14
35
13
5
3
4
16
6
14
35
13
5
3
4
16
6
14
35
12
5
3
4
16
6
14
35
12
5
3
4
16
5
15
35
12
4
3
4
16
5
15
35
12
4
3
4
16
5
15
34
12
4
3
4
16
6
17
35
12
4
3
4
15
6
17
34
12
4
3
4
15
6
17
35
12
4
3
4
15
6
17
33
11
4
3
4
15
6
17
32
11
4
3
4
15
6
17
32
11
4
3
4
15
6
17
32
11
4
3
4
15
6
17
32
11
4
3
4
15
6
17
31
11
4
2
4
15
6
15
32
11
4
2
4
16
6
15
32
11
4
2
4
16
6
15
31
11
4
2
4
16
6
15
31
11
4
2
4
16
6
15
32
11
4
2
4
16
6
17
31
11
4
2
4
16
6
17
29
11
4
2
4
16
6
18
29
11
4
2
4
16
6
18
28
11
4
2
4
16
6
18
28
11
4
2
4
16
7
18
27
11
4
2
4
16
6
18
27
11
4
3
4
16
6
18
26
11
4
3
4
16
7
18
27
11
4
3
4
16
7
18
27
11
5
3
4
16
7
18
28
11
4
2
4
16
7
17
28
12
5
2
4
16
7
17
28
11
4
2
4
16
7
17
28
11
4
2
3
16
7
17
29
11
4
2
3
16
7
17
28
11
4
2
3
15
7
18
28
12
4
2
3
15
7
18
28
12
4
2
3
15
7
18
27
11
4
2
3
15
7
18
26
11
4
3
3
15
7
18
26
11
4
3
3
15
7
18
26
11
4
3
3
15
7
18
25
11
4
3
3
15
7
18
26
11
4
3
3
15
7
18
26
11
4
3
3
15
7
18
26
11
4
3
3
15
7
18
26
11
4
3
3
15
7
18
25
11
4
3
3
15
7
18
26
11
4
3
3
15
7
18
26
11
4
3
3
13
7
18
26
11
4
3
3
13
7
18
27
11
4
3
3
13
7
18
28
11
4
3
3
13
7
18
28
11
4
3
3
13
7
18
27
10
4
3
3
13
7
17
27
11
4
3
3
13
7
16
27
11
4
3
3
13
7
16
29
11
4
3
3
12
7
16
29
11
4
3
3
12
7
16
30
11
4
3
3
12
7
16
31
11
4
3
3
13
9
16
32
11
4
3
3
17
9
16
33
12
5
3
3
17
9
17
33
12
5
3
3
17
9
18
33
12
5
3
3
17
9
18
32
11
4
3
2
16
9
18
32
11
4
3
2
16
9
19
33
11
4
3
2
16
9
19
33
11
4
3
2
16
9
20
31
11
4
3
2
15
9
18
31
11
5
3
2
15
9
19
32
11
5
3
2
15
9
17
32
11
5
3
2
15
9
17
32
11
4
3
2
15
8
17
32
11
5
3
2
15
8
17
32
11
5
3
2
14
8
17
32
10
4
3
2
15
8
17
34
10
4
3
2
15
8
17
36
11
4
3
2
15
8
17
36
10
4
3
2
15
8
17
36
10
4
3
2
14
8
17
35
10
4
3
2
15
8
17
35
10
4
3
2
15
8
17
35
10
4
3
2
15
8
18
35
10
4
3
2
15
8
18
35
11
4
3
2
15
8
17
35
11
4
3
2
16
7
17
35
11
4
3
2
16
7
17
35
11
4
3
2
16
7
17
35
11
4
3
2
16
7
17
35
11
4
3
2
16
7
17
35
11
4
3
2
15
7
17
38
13
4
3
2
15
8
17
38
13
4
3
2
15
7
17
37
12
4
3
2
15
7
17
37
12
4
3
2
15
7
17
38
12
4
3
2
15
7
18
40
13
4
3
2
16
7
18
40
13
4
3
3
16
8
18
40
14
4
3
3
16
8
18
40
15
5
3
3
16
8
19
40
15
5
3
3
16
8
19
40
15
5
3
3
16
7
19
40
15
5
3
3
16
7
19
40
16
5
3
3
16
8
19
40
15
5
3
3
17
8
19
40
15
4
3
3
17
8
18
38
15
4
3
3
17
8
18
38
15
4
3
3
17
8
18
37
15
4
3
3
17
7
18
38
16
4
3
3
16
5
18
38
15
4
3
3
13
5
18
38
15
4
3
3
13
5
17
38
15
4
3
3
13
5
17
37
15
4
3
3
13
5
17
38
15
4
3
3
13
6
17
38
15
4
3
3
14
6
16
38
15
4
3
3
14
6
15
38
15
4
3
3
14
6
15
38
15
4
3
3
14
6
15
38
15
4
3
3
14
6
15
37
15
4
3
3
14
6
15
37
15
4
3
3
14
6
15
37
16
4
3
3
14
6
17
37
16
4
2
3
14
6
17
37
16
4
2
3
14
6
17
38
16
4
2
3
13
6
17
36
16
4
2
3
14
6
17
34
16
4
2
3
14
6
17
33
16
4
2
3
14
7
17
34
16
4
2
3
14
6
17
34
16
4
2
3
13
6
17
34
16
4
2
3
13
7
17
34
16
4
2
3
13
7
17
36
16
4
2
3
14
7
17
36
16
3
2
3
13
7
17
36
16
3
2
3
12
7
17
36
16
3
2
3
12
7
17
36
16
3
2
3
12
7
17
36
16
3
2
3
12
7
17
36
16
3
2
3
12
7
17
36
16
3
2
3
12
8
16
34
15
3
2
3
12
8
17
34
15
3
2
3
12
8
17
34
15
3
2
3
12
8
17
34
15
3
2
3
12
8
17
34
14
3
2
3
13
8
16
31
13
3
2
3
12
8
16
32
14
4
2
3
12
8
16
32
13
4
2
3
12
8
16
32
13
4
2
3
12
8
15
31
13
4
2
3
12
8
14
30
13
4
2
3
12
8
14
31
12
4
2
3
12
8
14
31
12
4
2
3
12
8
14
31
12
4
2
3
10
8
14
31
12
4
2
3
10
8
14
31
12
4
2
3
11
9
14
31
12
4
2
3
11
9
14
31
12
4
2
3
11
9
14
29
12
4
2
3
11
9
14
28
12
4
2
3
11
9
14
27
12
4
2
3
11
9
14
28
11
4
2
3
11
9
14
29
12
4
2
3
11
9
14
30
12
4
2
3
11
8
14
29
12
4
2
2
10
8
14
29
12
4
2
2
9
8
14
28
12
4
2
2
9
8
14
28
12
4
2
2
11
8
14
29
12
4
2
3
11
8
14
28
12
4
2
3
11
8
14
28
11
4
2
3
11
8
14
28
11
4
2
2
11
8
12
29
11
4
2
2
11
8
13
29
11
4
2
2
11
8
13
30
11
4
2
2
11
8
13
30
11
4
2
2
11
8
13
30
11
4
2
2
11
8
13
30
11
4
2
2
11
8
12
29
10
4
2
2
11
8
12
29
10
4
2
2
11
8
12
29
10
4
2
2
11
7
13
29
9
4
2
2
11
7
13
29
10
4
2
2
11
7
12
29
10
4
3
2
11
7
12
29
10
4
3
2
11
7
12
30
10
4
3
3
11
7
12
29
10
4
3
3
11
7
12
30
10
4
3
3
11
7
12
30
10
4
3
3
11
7
12
30
10
4
3
3
11
6
12
29
10
4
3
3
11
6
12
28
10
4
3
2
11
6
11
29
10
4
3
2
11
6
11
29
11
5
3
3
11
6
11
29
11
5
3
3
11
6
11
29
11
4
3
2
11
6
11
30
11
4
2
2
11
6
11
30
11
4
2
2
11
6
11
30
10
4
2
2
11
6
11
30
10
4
2
2
11
6
11
29
10
4
2
2
11
6
11
28
10
4
2
2
11
6
11
28
10
4
2
2
11
6
11
28
10
4
2
2
11
6
11
28
10
4
2
2
11
5
11
29
10
4
2
2
10
5
11
29
10
4
2
2
10
5
11
29
10
4
2
2
10
5
11
29
10
4
2
2
10
5
11
29
10
4
2
2
10
5
11
29
10
4
2
2
10
4
11
29
10
4
2
2
10
4
11
27
10
4
3
2
10
4
11
27
10
4
3
2
10
4
11
27
10
4
2
2
10
4
11
27
10
4
2
2
10
4
11
27
10
4
3
2
10
4
11
27
10
4
3
2
8
4
11
27
10
4
3
2
8
4
11
26
10
4
3
2
8
4
11
27
10
4
3
2
8
4
11
27
10
4
3
2
8
4
10
26
10
4
3
2
8
4
10
26
10
4
3
2
7
4
10
25
10
4
3
2
7
4
10
25
10
4
2
2
7
4
9
25
10
4
2
2
7
4
9
24
10
4
2
2
7
3
9
24
10
4
2
2
7
3
9
25
11
4
2
2
7
3
9
24
10
4
2
2
7
3
9
24
10
4
2
2
7
3
8
22
10
4
2
2
7
3
8
22
10
4
2
2
7
3
8
21
10
4
2
2
6
3
8
21
9
4
2
2
6
3
8
21
9
4
2
2
6
3
8
20
9
4
2
2
5
3
8
20
10
4
2
2
5
3
8
20
10
4
2
2
5
3
8
20
10
4
2
2
5
3
7
20
10
5
2
2
5
3
7
20
10
5
2
2
5
2
7
19
9
5
2
1
5
2
7
18
9
5
2
1
5
2
7
18
9
5
2
1
4
2
7
17
9
5
2
2
4
2
7
17
9
5
2
2
4
2
6
16
9
5
2
2
4
2
6
16
9
5
2
2
4
2
6
15
9
5
2
2
4
2
6
15
9
5
2
2
4
2
6
15
9
5
2
2
4
2
6
15
9
5
2
2
4
1
6
14
9
5
2
2
3
1
6
14
9
5
2
1
2
1
6
13
9
5
2
1
2
1
6
13
8
5
2
1
2
1
6
13
8
5
2
1
1
1
6
13
8
5
2
1
1
1
5
13
8
5
2
1
1
1
5
13
8
5
2
1
1
1
5
13
8
5
2
1
1
1
5
13
8
5
2
1
1
1
5
13
8
5
2
1
1
1
4
13
8
5
2
1
1
1
3
11
7
5
2
1
1
1
3
11
7
5
2
1
1
1
3
11
7
5
2
1
1
1
3
11
7
5
2
1
1
1
3
11
7
5
2
1
1
1
3
11
7
5
2
1
1
1
3
11
7
5
2
1
1
1
2
11
7
5
2
1
1
1
2
10
7
5
2
1
1
1
2
10
7
5
2
1
1
1
2
10
7
5
2
1
1
1
2
10
7
5
2
1
1
1
2
9
7
5
2
1
1
1
2
8
6
5
2
1
1
1
2
8
6
5
2
1
1
1
2
7
6
5
2
1
1
1
2
7
6
5
2
1
1
1
2
7
6
5
2
1
1
1
2
7
6
5
2
1
1
1
2
7
6
5
2
1
1
1
2
7
6
5
2
1
1
1
2
7
6
5
2
1
1
1
2
7
6
5
2
1
1
1
2
8
6
5
2
1
1
1
2
8
6
4
2
1
1
1
2
8
5
4
2
1
1
1
2
8
5
3
2
1
1
1
1
8
5
3
2
1
1
1
1
8
5
3
2
1
1
1
1
8
5
3
2
1
1
1
1
8
4
3
1
1
1
1
1
8
4
3
1
1
1
1
1
8
4
3
1
1
1
1
1
8
4
3
1
1
1
1
2
9
4
2
1
1
1
1
1
9
4
2
1
1
1
1
1
9
4
2
1
1
1
1
1
9
4
2
1
1
1
1
1
9
4
2
1
1
1
1
1
9
4
2
1
1
1
1
1
9
4
3
1
1
1
1
2
9
4
3
1
1
1
1
2
9
4
3
1
1
1
1
2
9
4
3
1
1
1
1
2
9
4
3
1
1
1
1
2
9
3
2
1
1
1
1
2
8
3
2
1
1
1
1
2
8
3
2
1
1
1
1
2
8
3
2
1
1
1
1
2
8
3
2
1
1
1
1
2
8
3
2
1
1
1
1
2
9
3
2
1
1
1
1
2
8
4
2
1
1
1
1
2
8
4
2
1
1
1
1
2
8
4
2
1
1
1
1
2
8
4
2
1
1
1
1
2
8
4
2
1
1
1
1
2
8
4
3
2
1
1
1
2
8
4
3
2
1
1
1
2
8
4
3
2
1
1
1
2
8
4
3
2
1
1
1
2
8
4
3
2
1
1
1
2
8
4
3
1
1
1
1
2
8
4
3
1
1
1
1
2
8
4
3
1
1
1
1
2
8
4
3
1
1
1
1
2
8
4
3
1
1
1
1
2
8
4
3
1
1
1
1
2
7
4
3
1
1
1
1
2
8
4
3
1
1
1
1
2
7
4
3
1
1
1
1
2
7
4
3
1
1
1
1
2
7
4
3
1
1
1
1
2
7
4
3
1
1
1
1
2
7
4
3
1
1
1
1
2
7
4
3
1
1
1
1
2
7
4
3
1
1
1
1
2
7
5
3
1
1
1
1
2
7
4
3
1
1
1
1
2
7
4
3
1
1
1
1
2
7
4
3
1
1
1
1
2
7
4
3
1
1
1
1
2
7
4
3
1
1
1
1
2
7
5
3
1
1
1
1
2
7
5
3
1
1
1
1
2
7
5
3
1
1
1
1
2
7
5
3
1
1
1
1
2
7
5
3
1
1
1
1
2
8
5
3
1
1
1
1
2
8
5
3
1
1
1
1
2
8
5
3
2
1
1
1
2
8
5
3
1
1
1
1
2
9
5
3
2
1
1
1
2
10
5
3
1
1
1
1
2
10
6
3
1
1
1
1
3
12
6
3
2
1
1
1
3
12
6
3
2
1
1
1
3
13
6
3
2
1
1
1
3
14
6
4
2
2
1
1
3
14
6
4
2
2
2
2
3
14
6
4
2
2
4
2
3
14
6
4
2
2
4
2
3
14
7
4
2
2
4
4
6
15
11
6
3
3
4
4
6
16
12
6
3
3
4
4
6
17
12
6
3
3
4
4
6
18
13
6
3
3
4
5
6
18
13
6
3
3
5
6
7
18
13
6
3
4
7
7
8
24
15
7
3
5
10
7
8
25
15
7
3
5
10
7
8
25
15
7
3
5
10
7
8
25
16
7
3
5
10
8
8
25
16
7
3
5
10
8
8
27
16
7
4
5
10
8
8
29
16
7
4
6
10
8
8
29
16
7
4
6
10
8
9
29
16
8
4
6
10
8
9
33
16
8
4
6
10
8
9
33
17
8
4
6
10
8
9
33
17
8
4
6
11
8
9
34
17
8
4
6
11
8
10
34
17
8
4
6
11
8
10
35
17
8
4
6
11
8
12
36
17
8
4
6
11
8
15
37
18
8
4
6
11
8
16
37
18
8
4
6
11
8
16
38
19
8
4
6
12
8
16
40
19
9
5
6
15
8
17
40
19
9
5
6
16
9
17
40
19
9
5
6
16
9
17
41
20
9
5
6
16
9
18
41
20
9
5
6
16
10
18
42
20
9
5
7
17
10
18
42
20
9
5
7
18
10
19
43
20
9
5
7
18
10
19
44
21
9
5
7
18
10
19
46
22
9
5
7
18
10
19
46
21
9
5
7
18
10
19
47
22
9
5
7
18
10
19
47
22
9
5
7
18
10
20
47
22
9
5
7
18
10
20
49
24
9
5
7
18
10
21
49
25
10
5
7
18
10
21
49
25
10
5
7
19
11
21
49
25
10
5
7
19
11
21
49
26
10
5
7
20
11
21
50
25
10
5
7
20
11
21
50
26
10
5
7
20
11
21
50
26
10
5
7
20
11
22
50
26
10
5
7
20
11
22
50
26
10
5
7
20
11
22
51
26
10
5
7
20
10
21
50
24
8
5
6
20
10
21
50
24
8
5
6
20
10
21
50
24
8
5
6
20
10
21
50
24
8
5
6
20
9
21
50
23
8
5
6
20
9
21
50
23
8
5
6
19
8
24
49
23
8
5
5
18
8
25
49
23
8
5
5
18
9
25
49
23
8
5
5
18
9
25
50
23
8
5
5
18
9
25
51
23
8
5
5
18
9
25
50
23
8
5
5
18
9
24
49
23
8
5
5
18
9
25
49
23
8
5
5
18
9
25
49
23
8
4
5
18
9
25
45
23
8
4
5
18
9
25
46
23
8
4
5
18
9
25
46
23
8
4
5
18
9
27
47
25
8
5
5
18
9
27
47
25
8
5
5
18
9
27
46
25
8
5
5
18
9
26
46
25
8
5
5
18
9
24
45
24
8
4
5
18
9
24
46
24
8
4
5
18
9
24
46
24
7
4
5
17
9
24
44
24
7
4
4
15
9
24
44
24
7
4
4
14
8
23
44
24
7
4
4
14
8
23
43
23
7
4
4
14
8
24
44
23
7
4
4
15
8
23
44
24
6
4
4
14
8
23
45
24
6
4
4
13
7
23
43
24
6
4
4
13
7
23
42
23
6
4
4
13
7
23
40
22
6
4
4
13
8
23
39
22
6
4
4
12
9
23
40
22
6
4
4
12
9
23
40
22
6
4
4
12
9
23
40
22
6
4
4
12
9
22
37
20
6
4
4
12
9
22
36
19
6
4
4
12
9
21
37
19
6
3
4
12
9
21
37
20
6
3
4
12
9
21
37
20
6
3
4
11
9
21
37
21
6
3
4
12
9
21
36
21
6
4
4
11
9
22
36
21
6
4
4
11
9
22
36
20
6
4
3
11
9
22
36
20
6
4
3
11
9
22
35
20
6
4
3
11
10
22
35
20
6
3
3
14
10
22
35
20
6
3
3
14
10
23
35
20
6
3
3
13
10
23
35
20
6
3
3
14
10
23
35
20
6
3
3
13
10
23
35
20
5
3
3
14
10
20
33
19
5
3
3
14
10
19
33
19
5
3
3
13
10
19
33
19
5
3
3
13
9
19
31
19
5
3
3
13
9
19
31
19
5
3
2
13
9
20
31
19
5
3
2
13
9
20
31
19
5
3
2
13
9
19
31
19
5
3
2
13
9
20
32
19
5
3
2
13
9
21
32
19
5
3
2
13
9
20
32
19
5
3
2
13
10
20
31
18
5
3
2
13
9
18
30
16
4
2
2
13
9
17
29
16
4
2
2
14
9
17
30
17
4
3
3
14
9
17
30
16
4
2
3
14
9
18
29
16
4
2
3
14
9
19
28
16
4
2
2
14
9
19
27
16
4
2
2
14
10
19
27
16
4
2
2
15
10
19
27
16
4
2
2
15
10
19
27
16
4
2
2
15
10
19
27
16
4
2
2
15
10
19
25
16
4
2
2
14
10
19
26
15
4
2
2
14
10
19
25
15
4
2
2
14
10
19
25
15
4
2
2
14
10
19
25
15
4
2
2
15
10
19
25
15
4
2
2
15
9
18
26
16
4
2
2
15
8
18
25
16
4
2
2
15
8
18
27
16
4
2
2
15
8
18
27
16
4
2
2
15
8
18
27
16
4
2
2
15
8
18
28
16
4
2
2
15
8
19
27
15
4
2
3
15
8
19
26
15
4
2
3
15
8
18
26
13
3
2
3
14
9
18
25
12
3
2
3
14
9
18
26
12
3
2
2
14
9
17
25
12
3
2
2
14
9
17
26
14
3
2
2
14
9
17
26
14
4
2
2
15
9
17
28
14
4
2
2
15
8
17
28
14
3
2
2
13
8
17
28
14
3
2
2
13
8
16
28
14
3
2
2
13
9
16
28
14
4
2
3
12
9
16
28
13
4
2
3
12
9
16
28
13
4
2
3
12
8
16
27
13
4
2
2
12
9
16
27
13
4
2
3
13
9
16
27
13
4
2
3
13
9
16
28
14
4
2
3
13
9
16
28
15
4
2
3
13
9
16
28
15
4
2
3
13
8
16
28
15
4
3
3
13
8
16
27
14
4
2
3
13
9
15
26
14
4
2
3
14
9
13
28
14
4
3
3
14
8
14
28
14
4
3
3
14
8
14
28
14
4
3
3
14
8
14
28
14
4
3
3
13
8
14
28
14
4
3
3
13
8
14
28
14
4
3
2
12
8
14
29
14
4
3
2
12
8
14
29
14
4
3
2
12
8
13
29
14
4
3
2
12
8
13
30
14
4
3
2
12
8
13
30
14
4
3
2
12
7
12
30
14
4
3
2
11
7
12
30
14
4
3
2
11
7
13
30
14
4
3
2
11
7
13
30
14
4
3
2
11
7
12
29
14
4
3
2
11
7
12
29
14
4
3
2
11
7
12
29
14
4
3
2
10
7
12
30
14
4
3
2
10
7
12
30
14
4
3
2
10
7
12
30
13
4
3
2
10
7
12
29
14
4
3
2
10
7
12
28
13
4
3
2
10
7
12
28
13
4
3
2
10
7
12
28
13
4
3
2
10
7
11
27
13
4
3
2
10
7
11
27
13
4
3
2
11
7
11
27
13
4
3
2
11
7
11
27
13
4
3
2
11
7
11
29
14
4
3
2
11
7
11
28
15
4
3
2
11
7
11
28
15
4
3
2
11
7
11
29
14
4
3
3
10
7
11
29
14
4
3
3
10
7
11
28
14
4
3
3
10
7
12
27
14
4
3
3
9
7
12
28
14
4
3
3
9
7
12
28
15
4
3
3
9
6
12
28
15
4
2
2
9
6
12
28
15
4
2
2
9
6
12
28
15
4
2
2
9
6
11
28
15
4
3
3
9
6
11
28
15
4
2
2
9
6
12
28
15
4
2
2
10
6
11
27
13
4
2
2
10
6
11
27
13
4
2
2
10
6
11
28
13
4
2
2
10
6
12
28
13
4
2
2
10
6
12
28
13
4
2
2
10
6
12
28
13
4
2
2
9
6
12
27
13
4
2
2
9
6
12
27
13
4
2
2
9
6
12
27
13
4
2
2
9
6
12
27
12
4
2
3
10
6
12
28
13
4
2
3
10
6
11
29
14
4
2
3
10
6
11
28
14
4
2
3
10
6
11
28
13
4
2
3
10
6
10
28
14
4
2
3
10
6
11
27
13
4
2
3
10
6
10
28
13
4
2
2
10
6
10
28
13
4
2
2
10
6
10
28
13
4
2
3
10
6
10
28
13
4
2
3
11
6
11
27
13
4
2
3
11
6
10
27
13
4
2
3
11
6
10
27
13
4
2
3
11
6
11
27
13
4
2
3
11
7
11
26
13
4
2
3
12
7
11
27
13
4
2
3
12
7
11
28
13
4
2
3
12
7
12
29
13
4
3
3
14
7
12
29
13
4
3
3
14
7
12
28
14
4
3
3
14
7
12
28
14
4
3
3
14
7
12
29
14
4
3
3
14
6
12
29
14
4
2
2
12
7
12
29
14
4
3
2
12
7
12
29
14
4
2
2
12
7
13
27
13
4
2
2
12
7
13
28
12
4
2
2
12
7
13
28
12
4
3
2
13
7
13
26
12
4
2
2
13
6
13
26
12
4
2
2
13
6
12
26
12
4
2
2
13
7
12
26
12
4
2
2
13
7
12
26
12
4
2
2
14
7
12
27
12
4
2
2
14
7
12
27
12
4
3
2
14
7
12
27
12
4
3
2
14
7
12
27
12
4
2
2
14
7
12
27
12
4
2
2
14
7
12
27
13
4
3
2
13
7
11
27
13
4
3
2
13
6
12
28
14
4
3
2
13
6
12
27
14
4
3
2
13
6
12
27
14
4
3
3
13
6
11
27
14
4
2
2
13
6
11
27
14
4
2
2
12
6
11
27
14
4
2
2
13
6
11
27
14
4
2
2
13
6
11
27
14
4
2
3
13
6
11
27
14
4
2
3
13
6
11
27
14
4
2
2
13
6
11
25
13
4
2
2
13
6
11
25
13
4
2
2
13
6
11
25
13
4
2
2
13
6
12
25
13
4
2
2
13
6
12
24
13
4
2
2
13
6
11
24
13
4
2
2
12
6
11
24
13
4
2
2
12
6
11
24
13
4
2
2
12
6
11
24
13
4
2
2
12
6
11
24
13
4
2
2
11
6
11
25
14
4
2
2
11
6
11
25
14
4
2
2
11
6
12
25
13
4
2
2
11
6
11
26
14
4
2
2
11
6
11
26
13
4
2
2
11
6
11
25
13
4
3
2
10
6
12
24
13
4
2
2
10
5
11
23
13
4
2
2
8
5
11
23
13
4
2
2
8
5
11
24
13
4
2
2
8
5
11
24
13
4
2
2
8
5
12
23
13
4
2
2
8
5
12
23
13
4
2
2
8
5
12
23
13
4
2
2
8
5
12
23
13
4
2
2
8
5
11
24
13
4
2
2
8
5
12
23
13
4
2
2
8
5
14
23
13
4
2
2
8
5
14
24
13
4
2
2
8
5
14
24
13
4
2
2
8
5
14
24
13
4
2
2
8
5
14
24
13
3
2
2
7
5
13
23
12
3
2
2
7
5
14
23
12
3
2
2
7
5
13
23
12
3
2
2
7
5
14
23
12
3
2
2
8
5
15
23
12
3
2
2
8
5
15
23
12
3
2
2
8
5
15
23
11
3
2
2
7
5
15
23
11
3
2
2
7
5
15
22
11
3
2
2
7
5
15
22
10
3
2
2
8
5
15
22
10
3
2
2
8
5
16
22
11
3
2
2
8
5
16
23
11
3
2
2
8
5
16
23
11
3
2
2
7
5
16
23
11
3
2
2
7
5
16
23
11
3
2
2
6
5
16
23
11
3
2
2
7
5
16
23
11
3
2
2
7
5
16
22
11
3
2
2
6
5
17
22
11
3
2
2
6
5
17
23
11
3
2
2
6
5
17
23
11
3
2
2
6
5
17
23
11
3
2
2
6
5
16
23
11
3
2
2
6
5
17
22
12
4
2
2
6
5
17
26
13
4
2
2
6
5
17
26
13
4
2
2
6
5
17
26
13
4
2
2
6
5
17
26
12
4
2
2
6
5
17
26
12
4
2
2
6
5
17
26
12
4
2
2
6
5
17
25
12
4
2
2
6
5
17
25
12
4
2
2
6
5
16
25
12
4
2
2
6
5
16
26
12
4
2
2
6
5
16
26
12
4
2
2
6
5
16
27
12
4
2
2
6
5
16
26
12
4
2
2
6
5
16
27
12
4
2
2
6
5
16
27
12
4
2
2
6
5
16
27
13
4
2
2
6
5
16
28
13
4
2
2
6
5
16
28
13
4
2
2
6
5
16
27
13
4
2
2
6
5
15
27
13
4
2
2
6
5
13
27
13
4
2
2
6
5
13
26
12
4
2
2
4
5
13
26
12
4
2
2
4
5
13
26
12
4
2
2
4
5
13
26
12
4
2
2
4
5
13
26
12
4
2
2
4
5
13
26
12
4
2
2
4
5
13
26
12
4
2
2
4
4
12
26
12
4
2
2
4
4
11
26
12
4
2
2
4
4
11
27
12
4
2
2
4
4
11
26
12
4
2
2
4
4
11
26
12
4
2
2
4
4
11
26
12
4
2
2
4
4
11
26
12
4
2
2
4
4
11
26
12
4
2
2
4
4
9
26
12
4
2
2
4
4
9
26
11
4
2
2
4
4
9
26
11
4
2
2
4
4
9
25
11
4
2
2
4
4
9
25
11
4
2
2
4
4
9
25
11
4
2
2
3
4
9
25
11
4
2
2
3
4
9
25
11
4
2
2
3
4
8
25
11
4
2
2
3
4
7
24
11
3
2
2
3
4
7
24
10
3
2
2
3
4
7
24
10
4
2
2
3
3
7
24
11
4
2
2
3
3
7
24
10
3
2
2
3
3
6
19
9
3
2
1
3
3
6
19
9
3
2
1
3
3
5
19
9
3
2
1
3
3
5
19
9
3
2
1
2
3
5
19
9
3
2
1
2
3
5
19
9
3
2
1
2
3
5
19
9
3
2
1
2
3
5
18
9
3
2
1
2
3
5
18
9
3
2
1
2
3
5
18
9
3
2
1
2
2
5
18
9
3
2
1
2
2
5
16
9
3
2
1
2
2
5
16
9
4
2
1
2
2
4
14
8
3
2
1
2
2
4
14
8
4
2
1
2
2
4
14
8
4
2
1
2
2
4
12
7
3
2
1
2
2
4
12
9
4
2
1
2
2
4
12
9
4
2
1
2
2
4
12
9
4
2
1
2
2
4
12
9
4
2
1
2
2
4
12
9
4
2
1
2
2
4
11
9
4
2
1
2
2
4
11
9
4
2
1
2
2
4
11
9
4
2
1
2
2
4
11
9
4
2
1
2
2
4
11
9
4
2
1
2
2
4
11
9
4
2
1
2
2
4
11
9
4
2
1
2
2
3
10
9
4
2
1
2
2
3
9
9
4
2
1
2
2
3
9
9
4
2
1
2
2
3
9
9
4
2
1
1
2
3
9
9
4
2
1
1
2
3
8
9
4
2
1
1
2
3
8
9
4
2
1
1
2
3
8
9
4
2
1
1
1
2
8
9
4
2
1
1
1
2
8
9
4
2
1
1
1
2
8
9
4
2
1
1
1
2
7
9
4
2
1
1
1
2
7
9
4
2
1
1
1
2
7
9
4
2
1
1
1
2
6
9
4
2
1
1
1
2
6
9
4
2
1
1
1
2
5
9
4
2
1
1
1
2
6
8
4
2
1
1
1
2
6
8
4
2
1
1
1
2
6
8
4
2
1
1
1
2
6
8
4
2
1
1
1
2
6
8
4
2
1
1
1
1
6
8
4
2
1
1
1
1
6
8
4
2
1
1
1
1
5
8
4
2
1
1
1
1
5
8
4
2
1
1
1
1
5
8
4
2
1
1
1
1
5
8
4
2
1
1
1
1
6
8
3
2
1
1
1
1
5
8
3
2
1
1
1
1
5
8
3
2
1
1
1
1
5
8
3
2
1
1
1
1
5
8
3
2
1
1
1
1
5
8
3
2
1
1
1
1
5
8
3
2
1
1
1
1
5
7
3
2
1
1
1
1
5
7
3
2
1
1
1
1
5
7
3
2
1
1
1
1
5
6
2
1
1
1
1
1
4
5
2
1
1
1
1
1
4
5
2
1
1
1
1
1
4
4
2
1
1
1
1
1
4
4
2
1
1
1
1
1
4
4
2
1
1
1
1
1
4
4
2
1
1
1
1
1
4
4
2
1
1
1
1
1
4
4
2
1
1
1
1
1
5
4
2
1
1
1
1
1
5
4
2
1
1
1
1
1
5
4
2
1
1
1
1
1
5
4
2
1
1
1
1
1
5
4
2
1
1
1
1
1
5
4
2
1
1
1
1
1
5
4
2
1
1
1
1
1
5
4
2
1
1
1
1
1
5
4
2
1
1
1
1
1
5
4
2
1
1
1
1
1
5
4
2
1
1
1
1
1
5
4
2
1
1
1
1
1
5
4
2
1
1
1
1
2
5
4
2
1
1
1
1
2
5
4
2
1
1
1
1
2
5
4
2
1
1
1
1
1
5
4
2
1
1
1
1
1
5
4
2
1
1
1
1
2
6
4
2
1
1
1
1
2
6
4
2
1
1
1
1
2
5
4
2
1
1
1
1
2
5
4
2
1
1
1
1
2
5
4
2
1
1
1
1
2
5
4
2
1
1
1
1
2
5
4
2
1
1
1
1
2
5
4
2
1
1
1
1
2
6
5
2
1
1
1
1
2
6
5
2
1
1
1
1
2
6
5
2
1
1
1
1
2
6
5
2
1
1
1
1
2
6
5
2
1
1
1
1
2
6
5
2
1
1
1
1
2
6
5
2
1
1
1
1
2
6
5
2
1
1
1
1
2
6
5
2
1
1
1
1
2
6
5
2
1
1
1
1
2
6
5
2
1
1
1
1
2
6
5
2
1
1
1
1
2
6
5
2
1
1
1
1
2
6
5
2
1
1
1
1
2
8
5
2
1
1
1
1
2
9
5
2
1
1
1
1
2
9
5
2
1
1
1
1
3
9
5
2
1
1
1
1
3
9
5
2
1
1
1
1
3
11
5
2
1
1
1
1
3
12
5
2
1
1
1
1
3
14
5
2
1
1
1
1
3
14
5
2
1
1
1
1
3
15
5
2
1
1
1
1
3
14
5
2
1
1
1
1
3
15
5
2
1
1
1
1
3
16
6
2
1
1
1
1
3
17
6
2
1
1
1
1
3
17
6
2
1
1
2
1
3
18
6
2
1
1
3
1
3
18
5
2
2
1
3
1
3
19
5
2
2
1
3
2
3
20
5
3
2
1
3
2
3
20
6
3
2
1
3
2
3
21
6
3
2
1
4
3
3
21
6
3
2
1
4
3
3
21
6
3
2
2
5
4
3
24
6
3
3
2
7
4
4
24
6
3
3
2
7
4
4
24
6
3
3
2
7
4
4
24
7
4
3
2
7
4
4
25
7
4
4
3
7
5
5
27
8
4
4
3
7
5
5
27
9
4
4
3
7
5
5
28
9
5
4
3
7
5
5
30
10
5
4
3
8
5
5
31
10
5
4
3
8
6
6
31
10
5
4
3
8
6
6
31
10
5
4
4
8
6
6
32
10
5
4
4
8
7
7
34
10
5
4
4
8
7
9
36
10
5
4
4
8
7
9
36
11
5
4
4
8
7
9
37
11
5
4
4
8
7
9
37
11
5
4
4
9
7
10
38
11
5
4
4
10
7
10
40
11
5
4
4
10
7
11
40
11
5
5
4
10
8
11
40
11
5
5
4
10
8
13
43
12
5
5
4
11
8
13
43
12
5
5
4
11
8
14
44
12
5
5
4
11
9
15
44
13
5
5
4
11
9
16
45
13
5
5
4
11
9
16
44
13
6
5
4
11
9
16
45
14
6
5
4
11
10
16
45
14
6
5
4
13
10
16
45
14
6
5
4
13
10
16
46
14
6
5
4
13
10
16
46
15
6
5
4
13
10
16
46
15
6
5
4
14
10
16
47
15
6
5
4
14
10
17
47
15
6
5
4
14
10
17
47
15
6
5
4
14
10
17
48
16
6
5
4
14
10
17
48
16
6
5
4
14
10
17
48
16
7
5
4
14
10
17
49
17
7
5
4
14
10
17
49
17
7
5
4
14
10
18
49
17
7
6
4
14
10
18
50
17
7
6
4
14
10
18
49
17
7
6
4
14
10
18
49
17
7
5
4
14
10
18
49
17
7
5
4
14
10
19
50
19
7
5
4
14
10
20
51
19
7
5
4
14
10
22
52
19
7
5
4
14
9
22
51
19
7
5
4
13
9
22
53
19
7
5
4
13
9
22
53
19
7
5
4
13
9
23
54
20
7
5
4
13
9
23
54
20
7
5
4
13
9
23
54
20
7
5
4
13
9
23
54
20
7
4
4
13
9
23
53
20
6
4
3
13
9
23
52
19
6
4
3
13
9
23
52
19
6
4
3
13
8
23
52
19
6
4
3
13
8
23
52
19
6
4
3
13
8
23
52
19
6
4
3
14
7
23
50
19
6
4
3
14
7
22
49
19
6
4
3
14
8
22
50
19
6
4
3
14
8
22
50
19
6
4
3
14
8
22
50
19
6
4
3
14
8
23
50
19
6
4
3
14
8
22
48
19
6
4
3
14
8
23
48
19
6
4
3
14
7
23
49
19
6
4
4
14
7
21
47
19
6
4
4
13
8
21
46
19
6
4
4
13
8
21
45
19
6
4
4
13
8
20
45
18
6
4
4
13
7
20
45
18
6
4
4
13
8
20
45
18
6
4
4
13
7
20
45
18
6
4
4
13
7
20
45
17
6
4
4
12
7
20
45
17
6
4
4
11
7
20
44
18
6
4
4
12
7
20
44
18
6
4
4
12
8
20
44
18
6
4
4
12
8
20
41
17
6
4
4
12
8
20
41
17
6
4
4
12
8
20
42
18
6
4
4
12
8
20
42
16
6
4
4
12
8
20
42
16
5
4
4
12
8
20
42
16
5
4
3
12
8
20
40
16
5
4
3
12
8
20
40
16
5
4
3
12
8
19
40
16
5
3
3
12
8
19
40
16
5
3
3
12
8
19
40
16
5
3
3
12
8
19
39
17
5
3
3
12
8
19
39
16
5
3
3
12
9
18
39
14
5
3
3
12
9
17
38
14
5
3
3
12
9
15
37
14
5
3
3
12
9
15
37
14
5
3
3
12
9
15
35
14
5
3
3
12
9
15
35
14
5
3
3
12
9
14
33
13
5
3
3
12
9
14
33
14
5
3
3
12
9
14
33
13
5
3
3
12
9
14
33
13
5
3
3
12
9
14
33
13
5
3
3
12
9
14
33
13
5
3
3
14
9
14
32
13
5
3
3
14
9
14
32
13
5
3
3
14
9
14
33
15
5
3
3
14
9
14
32
15
5
3
3
14
9
14
33
15
5
3
3
14
9
14
32
14
5
3
3
13
9
13
32
14
5
3
3
13
9
13
31
14
5
3
3
13
9
13
31
14
5
3
3
13
10
13
31
16
5
3
3
14
9
13
31
16
5
3
3
14
9
12
31
16
5
3
3
14
9
12
30
16
5
3
3
14
9
13
30
16
5
3
3
14
9
13
30
16
5
3
3
14
9
13
30
16
5
3
3
14
9
13
30
16
5
3
3
14
9
13
30
16
5
3
3
14
9
13
30
16
5
3
3
14
9
12
31
16
5
3
3
14
9
12
31
17
5
3
3
14
8
12
30
17
5
3
3
14
8
12
31
17
5
3
3
13
8
12
32
17
5
3
3
14
8
12
32
16
4
2
2
13
7
12
32
16
4
3
2
13
8
12
32
16
4
2
3
13
8
12
31
16
4
2
3
13
8
12
31
16
4
2
3
13
8
12
31
16
4
2
3
13
8
12
31
16
4
2
3
13
8
12
32
16
4
2
3
13
8
12
33
16
4
2
3
13
8
12
33
16
4
2
3
13
8
12
33
16
4
2
3
13
8
12
33
16
4
2
3
13
8
12
33
16
4
2
3
13
8
12
33
16
4
2
3
13
7
12
32
16
4
2
3
13
7
12
33
16
4
2
3
13
7
12
33
16
4
2
3
13
7
12
34
16
4
2
3
13
7
12
34
16
4
3
3
13
7
12
34
16
4
3
3
13
7
12
33
15
4
3
3
13
7
14
33
15
5
3
3
13
7
14
33
16
5
3
3
13
7
13
33
17
5
3
3
13
7
14
33
18
5
3
3
13
7
14
34
17
5
3
3
11
7
14
33
17
5
3
3
10
7
14
33
17
5
3
3
10
7
14
33
16
5
3
3
10
7
14
33
16
5
3
3
10
7
14
32
16
5
3
3
10
7
14
32
16
5
3
3
10
7
14
32
16
5
3
3
10
6
14
31
16
5
3
3
10
6
14
32
16
5
3
3
9
6
14
32
16
5
3
3
9
6
14
32
16
5
3
3
9
6
14
33
16
5
3
3
9
6
14
34
16
5
3
3
9
6
15
34
16
5
3
3
9
6
15
34
16
5
3
3
9
5
15
33
16
5
3
3
8
5
15
34
16
5
3
3
9
5
15
34
16
5
3
3
9
5
15
33
16
5
3
2
9
5
15
33
16
5
3
2
9
5
15
33
16
5
3
2
10
6
15
33
15
5
3
2
10
6
15
32
16
5
3
3
10
6
15
31
16
5
3
3
10
6
15
31
16
5
3
3
10
6
15
31
16
5
3
2
10
6
15
31
16
5
3
2
10
6
15
32
16
5
3
2
10
6
15
32
16
5
3
2
9
6
15
31
16
5
3
2
10
6
15
30
16
5
3
2
10
6
15
30
16
5
3
2
10
6
14
29
16
5
3
2
9
6
15
29
16
5
3
2
10
6
16
31
16
5
3
2
10
6
16
31
16
5
3
2
10
6
16
30
16
5
3
3
10
6
15
30
16
5
3
3
10
6
16
30
17
5
3
3
10
6
16
29
16
5
3
2
10
6
16
29
16
5
3
2
10
6
16
28
16
5
3
2
10
6
16
28
17
5
3
2
10
6
16
28
17
5
3
2
10
6
16
29
17
5
3
2
11
6
15
29
16
4
3
2
11
6
14
28
15
4
3
2
11
6
14
28
15
4
3
2
11
6
14
28
14
4
2
2
11
6
14
28
14
4
2
2
11
6
14
28
14
4
2
2
11
6
14
28
14
4
2
2
11
6
15
28
14
4
2
2
11
6
15
28
14
4
2
2
11
6
15
28
14
4
2
2
11
6
15
28
14
4
2
2
11
6
15
28
14
4
2
2
11
6
15
28
15
5
2
2
11
6
15
27
14
5
3
2
11
6
14
26
13
4
2
2
10
6
14
26
14
4
2
2
10
6
14
25
13
4
2
2
10
6
14
25
13
4
2
2
10
6
13
25
13
4
2
2
10
5
13
27
13
4
2
2
10
5
13
27
14
4
2
2
10
5
13
27
13
4
2
2
9
5
13
27
13
4
2
2
9
5
13
27
13
4
2
2
9
5
13
27
14
4
2
2
9
5
13
27
14
4
2
2
9
5
13
27
14
4
2
2
9
5
13
27
13
5
3
2
10
5
13
27
13
5
3
2
10
5
14
27
14
5
3
2
10
5
14
28
14
5
3
2
11
6
14
28
14
5
3
2
12
6
14
27
14
5
3
2
12
6
14
27
14
5
3
2
12
6
14
27
14
5
3
3
12
7
14
28
14
5
3
3
12
7
16
29
14
5
3
3
12
6
16
29
14
5
3
3
12
7
15
29
14
5
3
3
11
7
15
26
14
5
3
3
11
7
15
26
14
5
3
3
11
7
15
26
14
5
3
3
11
7
16
26
14
5
3
3
11
7
15
27
14
5
3
2
11
7
15
27
14
5
3
2
11
7
15
27
14
5
3
2
11
7
14
27
14
5
3
2
11
7
14
28
14
5
3
2
11
7
15
29
15
5
3
2
11
7
15
28
15
5
3
2
11
7
15
28
15
5
3
2
11
7
15
29
15
5
3
2
11
7
15
29
15
5
3
3
11
7
15
29
15
5
3
3
11
7
15
30
14
5
3
3
11
7
15
30
14
5
3
2
11
7
15
31
14
5
3
2
11
7
14
30
14
5
3
2
10
6
14
30
14
5
3
2
10
7
14
32
15
5
3
3
11
7
14
32
15
5
3
2
11
6
14
32
15
5
3
2
11
6
14
32
15
5
3
2
11
6
14
32
15
5
3
2
11
6
15
32
15
5
3
2
11
6
15
33
15
5
3
3
11
6
14
33
15
5
3
3
11
6
15
33
15
5
3
3
11
7
15
33
15
5
3
3
12
7
15
31
15
5
3
3
12
7
14
32
15
5
3
3
12
8
14
33
15
5
3
3
12
8
14
33
15
5
3
3
12
8
14
33
15
5
3
3
12
8
14
33
14
5
3
3
12
8
14
33
14
5
3
3
12
8
14
33
14
5
3
3
12
8
14
33
14
5
3
2
11
8
14
33
14
5
3
2
11
8
13
33
14
5
3
2
11
7
14
33
14
5
3
2
11
7
14
33
14
5
3
2
10
7
14
33
14
5
3
2
10
7
14
33
14
5
3
2
10
7
14
33
14
4
2
2
10
7
14
32
13
4
2
2
10
7
12
31
13
4
2
2
10
6
12
31
13
4
2
2
10
6
12
31
13
4
2
2
10
6
12
31
13
4
2
2
10
6
11
32
13
4
2
2
10
6
11
32
13
4
2
2
10
6
10
32
13
4
2
2
11
6
10
31
13
4
2
2
10
6
11
31
13
4
2
2
10
6
11
31
13
4
2
2
10
6
11
31
13
4
2
2
10
7
12
29
12
4
2
2
11
7
11
29
12
4
2
2
10
7
11
29
12
4
2
2
10
7
11
29
12
4
2
2
10
7
11
29
12
4
3
2
10
7
11
29
13
4
2
2
10
7
11
29
13
4
2
2
10
7
11
29
13
4
2
2
10
7
11
29
13
4
2
2
10
7
11
29
13
4
2
2
10
7
11
29
13
4
2
2
10
7
11
29
13
4
2
2
10
7
11
27
11
4
2
2
10
7
14
27
11
4
2
2
10
7
16
28
12
4
2
2
10
7
16
28
12
4
2
2
10
7
16
28
12
4
2
2
10
7
16
28
12
4
2
2
10
7
16
27
12
4
2
2
10
7
16
27
12
4
2
2
10
7
16
29
12
4
2
2
9
7
16
29
12
4
2
2
9
6
16
29
12
4
2
2
8
6
16
29
12
4
2
2
8
6
16
28
12
4
2
2
8
6
16
28
12
4
2
2
8
6
16
28
12
4
2
2
8
5
16
28
12
4
2
2
8
5
16
29
12
4
2
2
8
5
16
29
13
4
2
2
7
5
16
28
13
4
2
2
7
5
16
27
12
4
2
2
7
5
17
27
12
4
2
2
7
5
16
28
12
4
2
2
7
5
16
28
12
4
2
2
7
5
16
29
12
4
2
2
7
5
16
29
12
4
2
2
7
5
16
29
12
4
2
2
7
5
16
29
12
4
2
2
7
5
16
29
12
4
2
2
6
5
16
29
12
4
2
2
6
5
16
29
12
4
2
2
6
5
16
29
12
4
2
2
6
5
16
28
12
4
2
2
6
5
16
28
11
4
2
2
6
5
16
28
11
4
2
2
5
5
16
28
11
4
2
2
5
5
15
28
11
4
2
2
5
5
15
28
11
4
2
2
4
5
15
28
11
5
2
2
4
3
15
28
12
5
2
2
4
3
15
27
11
4
2
2
4
3
15
27
11
4
2
2
4
3
15
27
11
4
2
2
3
3
15
26
11
4
2
2
3
3
15
26
11
4
2
2
3
3
15
25
11
4
2
2
3
3
15
24
10
4
2
2
3
3
15
24
10
5
2
2
3
3
14
24
10
5
2
2
3
3
14
24
10
5
2
2
3
3
14
24
11
5
2
2
2
3
14
24
11
5
2
2
2
3
11
24
10
5
2
2
2
2
8
22
10
5
2
2
2
2
8
22
10
5
2
2
2
2
8
22
9
5
2
2
2
2
8
23
9
5
2
2
2
2
7
23
10
5
2
2
2
2
7
23
10
5
2
2
2
2
7
21
10
4
2
1
2
2
7
20
10
4
2
1
2
2
7
20
10
4
2
1
2
2
7
20
10
4
2
1
2
2
7
20
9
4
2
1
2
2
6
20
9
4
2
1
2
2
6
19
9
4
2
1
2
2
6
19
9
4
2
1
2
2
6
18
9
4
2
1
2
2
6
18
8
4
2
1
2
2
6
18
9
5
2
1
2
2
6
18
10
5
2
1
2
2
4
18
10
5
2
1
2
2
4
17
9
5
2
1
2
2
3
17
9
5
2
1
2
2
3
15
9
5
2
1
2
2
3
14
9
5
2
1
2
1
3
13
9
5
2
1
1
1
3
13
9
5
2
1
1
1
3
13
9
5
2
1
1
1
3
13
9
5
2
1
1
1
2
13
9
5
2
1
1
1
2
13
9
5
2
1
1
1
2
13
9
5
2
1
1
1
2
13
9
5
2
1
1
1
2
13
9
4
2
1
1
1
2
12
9
4
2
1
1
1
2
12
9
4
2
1
1
1
2
12
9
4
2
1
1
1
2
12
9
4
2
1
1
1
2
11
8
4
1
1
1
1
2
11
8
4
1
1
1
1
2
11
8
4
1
1
1
1
1
11
8
4
1
1
1
1
1
11
8
4
1
1
1
1
2
11
8
4
1
1
1
1
2
11
8
4
1
1
1
1
2
11
8
4
1
1
1
1
2
11
8
4
1
1
1
1
2
11
8
3
1
1
1
1
2
11
8
3
1
1
1
1
2
11
8
3
1
1
1
1
2
11
8
3
1
1
1
1
1
10
8
3
1
1
1
1
1
10
8
3
1
1
1
1
1
10
8
3
1
1
1
1
1
10
8
3
1
1
1
1
1
9
8
3
1
1
1
1
1
8
6
3
1
1
1
1
1
8
6
3
1
1
1
1
1
8
6
3
1
1
1
1
1
8
7
3
1
1
1
1
1
8
6
3
1
1
1
1
1
8
6
3
1
1
1
1
1
8
6
3
1
1
1
1
1
9
6
3
1
1
1
1
2
9
6
3
1
1
1
1
2
9
6
3
1
1
1
1
2
9
6
3
1
1
1
1
2
9
6
3
1
1
1
1
2
9
4
3
1
1
1
1
2
9
3
3
1
1
1
1
2
10
4
3
1
1
1
1
2
10
3
2
1
1
1
1
2
10
3
2
1
1
1
1
2
10
3
2
1
1
1
1
2
10
3
2
1
1
1
1
2
10
3
2
1
1
1
1
2
10
3
2
1
1
1
1
2
10
3
2
1
1
1
1
2
10
3
2
1
1
1
1
2
10
3
2
1
1
1
1
2
10
3
2
1
1
1
1
2
10
3
2
1
1
1
1
2
10
3
2
1
1
1
1
2
10
3
2
1
1
1
1
2
10
3
2
1
1
1
1
2
10
3
2
1
1
1
1
2
10
3
2
1
1
1
1
2
10
3
2
1
1
1
1
2
10
3
2
1
1
1
1
2
10
3
2
1
1
1
1
2
10
3
2
1
1
1
1
2
10
3
2
1
1
1
1
2
10
3
2
1
1
1
1
2
10
3
2
1
1
1
1
2
10
3
2
1
1
1
1
2
10
3
2
1
1
1
1
2
10
3
2
1
1
1
1
2
10
3
2
1
1
1
1
2
10
3
2
1
1
1
1
2
10
3
2
1
1
1
1
2
10
3
2
1
1
1
1
2
10
3
2
1
1
1
1
2
10
3
2
1
1
1
1
2
10
3
2
1
1
1
1
2
10
3
2
1
1
1
1
2
10
3
2
1
1
1
1
2
10
3
2
1
1
1
1
2
9
3
2
1
1
1
1
2
10
3
2
1
1
1
1
2
10
3
2
1
1
1
1
2
10
3
2
1
1
1
1
2
10
3
2
1
1
1
1
2
9
3
2
1
1
1
1
2
8
3
2
1
1
1
1
2
8
3
2
1
1
1
1
2
8
3
2
1
1
1
1
2
8
3
2
1
1
1
1
2
8
3
2
1
1
1
1
2
9
3
2
1
1
1
1
2
10
3
2
1
1
1
1
2
9
3
2
1
1
1
1
2
9
3
2
1
1
1
1
2
9
3
2
1
1
1
1
2
9
3
2
1
1
1
1
2
9
3
2
1
1
1
1
2
9
3
2
1
1
1
1
2
9
4
2
1
1
1
1
2
10
4
2
1
1
1
1
3
11
4
2
2
1
1
1
3
11
4
2
1
1
1
1
3
11
5
2
2
1
1
1
3
13
5
2
1
1
1
1
3
13
5
2
1
1
1
1
4
13
5
2
1
1
1
2
4
13
5
2
1
1
2
2
4
15
5
2
2
1
2
2
4
15
5
2
1
1
3
2
4
17
5
3
1
1
4
3
4
17
5
3
1
1
5
3
4
17
5
2
1
1
5
3
4
17
5
2
2
1
5
3
4
17
6
3
2
1
5
3
5
17
6
3
2
1
6
3
5
18
6
3
2
1
7
4
5
20
6
3
2
1
7
4
5
20
7
3
2
1
7
4
5
21
8
3
2
1
7
4
5
22
8
3
2
1
7
4
5
22
8
3
2
1
7
4
5
24
8
3
2
2
7
5
5
24
8
4
2
2
7
5
5
26
9
4
2
2
7
5
5
26
9
4
2
2
8
6
5
27
9
4
2
2
9
6
6
27
10
4
2
2
10
6
6
28
11
4
2
2
10
6
6
29
12
4
2
2
10
7
6
29
14
5
3
2
10
7
6
29
14
5
3
2
10
7
6
29
14
5
3
2
10
7
6
29
14
5
3
2
10
7
7
29
14
6
3
2
10
7
7
33
15
6
3
2
10
7
8
33
15
6
3
2
10
7
8
33
15
6
3
2
10
8
8
33
15
6
3
2
11
8
8
34
16
6
3
2
11
8
9
35
17
6
3
2
11
8
9
36
17
6
3
2
11
8
9
36
17
6
3
3
11
8
10
37
17
7
4
3
11
9
10
39
17
7
4
3
12
9
10
39
18
7
4
3
13
9
10
39
18
7
4
3
13
9
11
40
18
7
4
4
14
9
11
40
18
7
4
4
14
9
11
41
18
7
4
4
14
9
12
42
19
8
4
4
15
9
16
42
19
7
5
4
15
9
16
42
19
8
5
4
15
9
16
42
19
8
5
4
15
9
16
42
19
8
5
4
15
9
16
42
19
8
5
4
15
10
16
42
19
8
5
4
15
10
16
42
19
8
5
4
15
10
16
41
19
8
5
4
15
10
16
42
19
8
5
4
15
11
16
42
19
8
5
4
16
12
16
43
19
8
5
4
16
12
16
43
20
8
5
4
16
12
16
43
20
8
5
4
16
12
16
43
20
8
5
4
16
12
16
43
20
8
5
4
16
12
17
43
20
8
5
5
15
12
17
42
20
8
5
5
15
12
17
42
20
8
6
5
15
12
17
42
19
8
6
5
16
11
17
42
19
8
6
5
15
12
18
42
20
8
6
5
15
12
18
41
20
8
6
5
15
12
18
41
20
8
6
5
15
12
20
40
20
8
6
5
15
12
20
40
20
8
6
5
15
12
20
39
20
8
6
5
15
12
20
40
20
8
6
5
14
12
20
39
19
8
6
5
14
12
20
40
19
8
6
5
14
11
21
40
18
7
5
5
14
11
21
41
18
7
5
5
14
11
21
40
17
7
5
5
14
11
21
40
18
7
5
5
14
11
21
40
18
7
5
5
14
11
21
37
17
7
5
5
14
11
21
37
17
7
5
5
14
11
21
38
17
7
5
5
14
11
21
39
17
7
5
5
14
11
22
38
17
7
5
5
14
11
21
38
16
6
5
5
14
11
22
38
16
6
5
5
14
11
21
37
17
6
5
5
14
11
21
37
17
6
5
5
14
10
21
34
17
6
5
4
13
10
21
34
16
5
5
4
12
12
21
34
16
5
5
4
14
12
21
34
16
5
5
4
13
12
22
34
16
5
4
4
13
12
22
32
15
5
4
4
13
12
21
31
15
5
4
4
13
11
19
31
15
5
4
4
13
11
19
31
15
5
4
4
13
11
19
33
16
5
4
4
13
12
19
33
16
5
4
4
14
11
19
33
16
5
4
4
14
11
19
33
16
4
3
3
14
12
19
33
16
4
3
4
15
12
19
33
15
4
3
4
15
12
19
31
15
4
3
3
15
11
19
31
15
4
3
3
13
10
19
32
15
4
3
3
13
10
20
32
15
4
3
4
14
10
20
33
15
4
3
4
13
10
20
32
15
4
3
4
13
10
20
32
15
4
3
3
13
10
19
32
15
4
3
3
13
10
19
34
16
4
3
3
13
10
19
34
16
4
3
3
13
10
19
35
16
4
3
3
13
10
19
35
16
4
3
3
13
10
19
36
18
5
3
3
13
10
18
36
18
4
3
3
13
10
18
36
18
4
3
3
13
10
17
38
17
4
3
3
13
10
17
39
17
4
3
3
13
10
17
39
17
4
3
3
14
10
17
39
17
4
3
3
14
10
16
39
17
4
3
3
14
10
16
38
16
4
3
3
14
10
15
38
16
4
3
3
14
9
15
37
16
4
3
3
14
9
18
39
17
4
3
3
14
9
20
39
17
5
3
3
14
10
20
39
17
5
3
3
14
10
20
39
17
5
3
3
14
10
20
41
18
5
3
3
14
10
21
41
18
5
3
3
14
10
21
40
18
5
3
3
14
10
22
39
18
5
3
3
14
10
23
39
18
5
3
3
14
10
22
39
18
5
3
3
14
10
22
39
17
5
3
3
14
10
23
39
18
5
3
3
14
10
23
39
18
5
3
3
14
10
23
39
18
5
3
3
14
9
23
40
18
5
3
3
13
9
23
40
17
5
3
3
12
9
22
39
17
5
3
3
12
9
22
39
18
5
3
3
12
9
22
40
18
5
3
3
12
9
22
41
18
5
3
3
12
9
22
41
18
5
3
3
12
9
22
40
18
5
3
3
12
9
22
40
18
5
3
3
11
9
22
40
18
5
3
3
11
9
22
40
18
5
3
3
11
7
22
40
18
5
3
3
10
7
22
40
18
5
3
3
10
7
22
40
18
5
3
3
10
7
22
40
18
5
3
3
10
7
22
40
18
5
3
3
10
6
21
41
18
5
3
3
10
6
21
40
18
5
3
3
10
7
21
40
18
5
3
3
11
7
21
40
19
5
3
3
12
7
21
39
18
5
3
3
12
7
22
38
17
5
3
3
12
7
22
38
17
5
3
3
12
7
22
38
17
5
3
3
12
7
22
38
17
5
3
3
12
7
22
37
15
4
3
3
12
7
22
37
15
4
3
3
12
7
22
37
15
4
3
3
12
8
22
35
15
4
3
3
12
8
22
34
15
4
3
3
12
8
22
35
16
4
3
3
12
8
23
35
16
4
3
3
12
8
22
35
16
4
3
3
13
8
22
35
16
4
3
3
13
8
22
35
16
4
3
3
13
8
23
35
16
5
3
3
13
8
20
34
16
4
3
3
13
8
19
34
15
4
3
3
13
7
19
33
15
4
3
3
13
7
18
33
15
4
3
3
13
7
18
32
14
4
3
3
13
7
18
32
14
4
3
3
13
7
16
32
14
4
3
3
13
7
14
32
14
4
3
3
13
7
15
32
14
4
3
3
13
7
14
36
15
5
3
3
12
7
14
36
15
5
3
3
13
7
14
36
14
5
3
3
12
7
14
36
14
5
3
3
12
7
14
35
14
5
3
3
12
7
14
35
14
5
3
3
12
7
14
35
14
5
3
3
12
7
15
36
14
5
3
3
12
8
16
37
16
6
4
3
13
8
16
36
16
6
4
3
13
8
16
36
15
6
4
3
13
8
16
36
15
6
4
3
12
8
16
36
15
6
3
3
12
8
16
36
15
6
3
3
12
8
16
35
15
6
3
3
12
8
16
35
15
6
4
3
12
8
16
37
15
6
3
3
12
9
17
39
15
6
4
4
13
9
17
39
15
6
4
4
12
9
17
39
15
6
4
4
12
9
17
38
15
6
4
4
12
9
17
38
15
6
4
4
12
9
17
39
15
6
4
4
12
9
17
41
15
7
4
4
11
8
17
41
15
7
4
4
11
8
17
41
15
7
4
4
10
8
17
41
15
7
4
4
10
8
16
41
15
7
4
4
10
8
16
40
15
7
4
4
10
8
16
41
15
7
4
4
10
8
16
41
15
7
4
4
10
8
16
40
15
7
4
4
10
8
16
40
15
7
4
4
10
8
16
40
15
7
4
4
10
8
16
40
15
7
4
4
10
8
16
39
15
7
4
4
10
8
15
41
15
7
4
4
9
8
16
41
15
7
4
4
8
8
16
41
15
6
4
4
9
8
16
41
15
7
4
4
8
8
16
41
15
6
4
4
8
8
16
40
15
6
4
4
9
8
16
40
15
6
4
4
9
8
16
40
15
6
4
4
9
8
17
40
15
6
4
4
8
8
17
39
15
6
4
4
8
8
17
40
15
6
3
4
8
8
17
40
15
6
4
4
8
8
17
40
14
6
4
4
9
7
16
39
14
6
4
4
9
7
16
36
13
6
3
3
9
7
16
36
13
6
3
3
9
7
16
36
13
6
3
3
9
7
16
37
14
6
3
3
9
7
16
37
14
6
3
3
9
7
16
37
14
6
3
3
9
7
16
38
14
6
3
3
9
7
15
37
13
6
3
3
9
7
14
36
11
4
3
3
9
7
13
36
11
4
3
3
9
6
13
36
11
4
3
3
9
6
14
35
11
4
3
3
9
6
13
35
11
4
2
3
9
6
13
35
11
4
2
3
9
6
14
35
11
4
3
3
10
6
13
35
11
4
2
3
10
6
14
33
11
4
2
3
9
6
13
31
10
4
2
2
9
6
13
31
10
4
2
2
10
6
13
32
10
4
2
2
11
6
13
32
10
4
2
2
11
6
12
31
10
4
2
2
11
6
12
30
10
4
2
2
11
6
12
31
9
3
2
2
11
6
12
32
10
3
2
2
11
6
12
32
9
3
2
2
11
6
12
32
9
3
2
2
11
6
12
32
9
3
2
2
11
5
12
32
9
3
2
2
11
5
12
31
9
3
2
2
11
5
12
31
9
3
2
2
11
5
13
31
9
3
2
2
11
5
13
31
9
3
2
2
11
5
13
31
9
3
2
2
11
5
13
32
10
3
2
2
11
5
12
32
10
3
2
2
11
5
13
32
10
3
2
2
11
5
12
32
10
3
2
2
11
5
12
32
10
3
2
2
11
5
12
32
10
3
2
2
11
5
11
31
9
3
2
2
11
5
11
31
9
3
2
2
11
5
11
31
9
3
2
2
11
5
11
31
9
3
2
2
11
5
11
31
9
3
2
2
11
5
12
31
9
3
2
2
11
5
12
31
9
3
2
2
11
5
11
32
9
3
2
2
11
5
11
32
9
3
2
2
11
5
11
31
9
3
2
2
11
5
11
31
9
3
2
2
11
5
11
31
9
3
2
2
11
6
11
31
9
3
2
2
12
6
11
30
9
3
2
2
12
6
11
29
9
3
2
2
12
6
11
29
9
3
2
2
12
6
12
28
8
3
2
2
12
6
12
28
8
3
2
2
12
6
12
28
9
3
1
2
12
6
12
29
10
3
1
2
12
6
12
29
10
3
2
2
12
6
12
29
10
3
2
2
12
6
12
30
10
3
2
2
12
6
12
30
10
3
1
2
12
6
12
30
10
2
1
2
11
6
12
30
10
3
1
2
11
6
12
30
10
3
1
2
11
6
12
30
10
3
1
2
11
6
12
30
10
3
1
2
10
6
12
29
10
3
1
2
9
6
12
29
10
3
1
2
9
6
12
29
10
3
1
2
9
6
12
28
10
3
1
2
9
6
12
26
10
3
1
2
9
6
12
25
9
3
1
2
9
6
12
25
9
3
1
2
9
6
12
25
9
3
1
2
9
6
12
25
9
3
1
2
9
6
12
25
9
3
1
2
9
6
12
25
9
3
1
2
9
6
12
25
9
2
1
2
9
6
12
25
9
2
1
1
9
6
13
26
9
2
1
1
8
6
13
26
10
3
2
2
8
6
13
24
9
3
2
2
8
6
12
25
9
3
2
2
8
6
12
24
9
3
2
2
8
6
12
23
9
3
2
2
8
6
12
23
9
3
2
2
8
6
12
24
10
3
2
2
8
6
12
23
10
3
2
2
8
6
12
23
10
3
2
2
8
6
12
23
10
3
2
2
8
6
12
23
10
3
2
2
8
6
13
23
10
3
2
2
8
6
13
23
10
3
2
2
9
6
13
22
10
3
2
2
9
6
13
22
11
3
2
2
9
6
13
22
11
3
2
2
9
6
13
22
11
3
2
2
9
6
13
22
11
3
2
2
9
6
13
22
11
3
2
2
9
5
13
22
11
3
2
2
8
5
13
22
11
3
2
2
8
5
13
23
11
3
2
2
8
5
12
23
11
4
2
2
8
5
11
23
11
4
2
2
8
5
11
23
11
4
2
2
8
5
11
23
10
4
2
2
8
5
11
21
10
3
2
2
8
5
11
23
9
3
2
2
8
4
11
23
9
3
2
2
8
4
12
24
9
3
2
2
8
4
12
23
9
4
2
2
7
4
12
23
9
4
2
2
7
4
12
23
9
3
2
2
7
4
12
23
9
3
2
2
7
4
12
22
9
3
2
2
7
4
12
22
9
4
2
2
8
4
11
23
9
4
2
2
8
4
12
23
9
4
2
2
8
4
11
23
9
3
2
2
8
4
11
24
9
4
2
2
8
4
11
22
9
4
2
2
8
4
12
23
10
4
2
2
7
4
12
22
10
4
2
2
7
4
12
23
10
4
2
2
7
4
12
23
10
4
2
2
8
4
12
23
10
3
2
2
7
4
12
23
10
3
2
2
8
4
12
23
10
3
2
2
8
4
12
23
10
4
2
2
8
4
12
25
12
4
2
2
7
4
12
25
11
4
2
2
7
4
12
24
11
4
2
2
7
4
12
24
11
4
2
2
7
4
12
24
11
4
2
2
7
4
12
24
11
3
2
2
7
4
12
24
11
3
2
1
7
4
12
24
11
3
2
1
7
4
12
24
10
3
2
1
7
4
12
25
10
3
2
2
7
4
12
25
10
3
2
2
7
4
11
25
10
3
2
2
7
4
10
25
10
3
2
2
7
4
10
25
10
3
2
1
5
4
10
25
10
3
2
1
5
4
10
25
10
3
2
1
5
4
10
25
9
3
2
1
5
4
10
25
10
3
2
1
4
4
10
25
11
4
2
1
4
3
10
25
11
4
2
1
4
3
10
25
11
4
2
1
4
3
10
25
11
4
2
1
4
3
10
25
11
4
2
1
3
3
10
25
11
4
2
1
3
3
10
24
11
4
2
1
3
3
10
24
11
4
2
1
3
3
10
24
11
4
2
1
3
3
10
25
11
4
2
1
3
3
10
24
11
4
2
1
3
3
10
23
11
4
2
1
3
3
9
22
11
4
2
1
3
3
9
22
11
4
2
1
3
3
8
22
12
5
2
1
3
3
8
22
12
5
2
2
3
3
8
22
12
5
2
2
3
3
8
22
12
5
2
2
3
3
8
22
12
5
2
1
2
3
8
21
12
5
2
1
2
3
8
21
12
5
2
1
2
3
8
21
12
5
2
1
2
3
8
21
11
5
2
1
2
3
7
20
11
5
2
1
2
3
7
19
11
5
2
1
2
3
7
20
11
5
2
1
2
2
6
19
11
5
2
1
2
2
5
19
11
5
2
1
2
2
5
19
11
5
2
1
2
2
5
19
11
5
2
1
2
2
5
18
11
5
2
1
2
2
5
18
11
5
2
1
2
2
4
14
9
5
2
1
2
2
4
14
9
5
2
1
1
2
4
14
9
5
2
1
1
2
4
14
9
5
2
1
1
2
4
13
9
5
2
1
1
2
4
13
9
5
2
1
1
2
3
13
9
5
2
1
1
2
3
13
9
5
2
1
1
2
3
13
9
5
2
1
1
1
3
11
9
5
2
1
1
1
3
11
9
5
2
1
1
1
3
11
9
5
2
1
1
1
3
11
9
5
2
1
1
1
3
11
9
5
2
1
1
1
3
11
9
5
2
1
1
1
3
10
9
5
2
1
1
1
3
10
9
5
2
1
1
1
3
10
8
5
2
1
1
1
3
10
7
4
2
1
1
1
3
10
7
4
2
1
1
1
3
11
7
4
2
1
1
1
3
10
7
4
2
1
1
1
2
9
6
4
2
1
1
1
2
9
6
4
2
1
1
1
2
9
6
4
2
1
1
1
2
9
6
4
2
1
1
1
2
9
6
4
2
1
1
1
2
7
6
4
2
1
1
1
2
7
6
4
2
1
1
1
2
7
6
4
2
1
1
1
2
7
6
4
2
1
1
1
2
7
6
4
2
1
1
1
2
7
6
3
1
1
1
1
2
7
6
3
1
1
1
1
2
8
6
3
1
1
1
1
2
8
6
3
1
1
1
1
2
8
5
3
1
1
1
1
2
8
5
3
1
1
1
1
2
8
5
3
1
1
1
1
2
8
5
3
1
1
1
1
2
8
5
3
1
1
1
1
2
8
6
3
1
1
1
1
2
8
5
3
1
1
1
1
2
8
5
3
1
1
1
1
2
8
5
3
1
1
1
1
2
8
5
2
1
1
1
1
2
8
5
2
1
1
1
1
2
8
5
2
1
1
1
1
2
8
5
2
1
1
1
1
2
8
5
2
1
1
1
1
2
8
5
2
1
1
1
1
2
8
5
2
1
1
1
1
2
8
5
3
1
1
1
1
2
8
5
3
1
1
1
1
2
8
5
2
1
1
1
1
2
8
5
2
1
1
1
1
2
7
5
2
1
1
1
1
2
8
5
2
1
1
1
1
2
7
5
2
1
1
1
1
2
7
4
2
1
1
1
1
2
7
4
2
1
1
1
1
2
7
4
2
1
1
1
1
2
7
4
2
1
1
1
1
2
7
4
2
1
1
1
1
2
7
5
2
1
1
1
1
2
7
5
2
1
1
1
1
2
7
5
2
1
1
1
1
2
7
5
2
1
1
1
1
2
7
5
2
1
1
1
1
2
7
5
2
1
1
1
1
2
7
5
2
1
1
1
1
2
7
5
2
1
1
1
1
2
7
5
2
1
1
1
1
2
7
5
2
1
1
1
1
2
7
5
2
1
1
1
1
2
7
4
2
1
1
1
1
2
8
4
2
1
1
1
1
2
8
4
2
1
1
1
1
2
8
4
2
1
1
1
1
3
9
4
2
1
1
1
1
3
9
4
2
1
1
1
1
3
9
4
2
1
1
1
1
3
9
4
2
1
1
1
1
3
9
4
2
1
1
1
1
3
9
4
2
1
1
1
1
3
8
4
2
1
1
1
1
3
8
4
2
1
1
1
1
3
8
4
2
1
1
1
1
3
8
4
2
1
1
1
1
3
8
4
2
1
1
1
1
3
8
4
2
1
1
1
1
3
8
4
2
1
1
1
1
3
8
4
2
1
1
1
1
3
8
4
2
1
1
1
1
3
9
4
2
1
1
1
1
3
9
4
2
1
1
1
1
3
9
4
2
1
1
1
1
3
9
4
2
1
1
1
1
3
9
4
2
1
1
1
1
3
10
4
2
1
1
1
1
3
10
4
2
1
1
1
1
3
10
4
2
1
1
1
1
3
10
3
2
1
1
1
1
3
10
4
2
1
1
1
1
3
10
4
2
1
1
1
1
3
10
4
2
1
1
1
1
3
11
4
2
1
1
1
1
3
11
4
2
1
1
1
1
3
11
4
2
1
1
1
1
3
12
4
2
1
1
1
1
3
12
4
2
1
1
1
1
3
13
5
2
1
1
1
1
3
14
5
2
2
1
1
1
3
14
5
2
2
1
1
1
3
14
5
2
2
1
1
1
4
14
5
3
2
1
1
1
4
14
5
3
2
1
3
1
4
14
5
3
2
1
3
1
4
14
5
3
2
1
3
1
4
15
6
3
2
1
3
2
4
15
6
3
2
1
3
2
4
15
6
3
2
2
3
2
4
16
6
3
2
2
3
2
4
16
6
3
2
2
3
2
4
17
6
3
2
2
4
4
4
17
6
3
2
2
4
4
5
18
6
3
2
2
4
4
5
19
6
3
2
2
4
4
5
19
7
3
2
2
5
4
5
18
7
3
2
2
5
4
5
19
9
3
2
2
5
4
5
19
9
3
2
2
5
4
6
19
9
3
2
3
7
5
6
20
9
3
2
3
7
5
6
20
9
3
2
3
7
5
6
20
9
3
2
3
7
5
8
22
10
4
3
3
7
5
10
25
10
4
3
3
7
5
11
25
11
4
3
3
7
6
11
26
14
5
3
3
7
6
12
27
14
5
3
3
8
6
12
30
14
5
3
3
8
6
13
31
15
5
3
3
8
6
13
31
16
5
3
3
8
7
14
31
16
5
3
3
8
7
14
34
16
5
4
4
12
7
14
34
16
5
4
4
12
7
15
34
16
5
4
4
12
7
15
36
16
5
4
4
12
8
16
37
17
6
4
4
12
8
16
37
17
6
4
4
12
8
16
37
17
6
4
4
12
8
16
39
18
6
4
4
13
8
17
39
18
6
4
4
13
8
17
39
18
6
4
4
13
8
17
41
18
6
4
4
13
8
17
40
18
6
4
4
13
8
17
40
18
6
4
4
13
8
18
41
18
6
4
4
14
9
18
43
19
6
4
4
14
9
18
45
20
6
4
4
14
9
18
45
20
6
4
4
15
9
18
45
23
6
4
4
15
9
19
47
24
7
4
4
15
9
19
47
24
7
4
4
15
9
19
47
24
7
4
4
15
9
20
48
24
7
4
4
15
10
20
48
24
7
4
4
15
10
20
49
25
7
4
4
15
10
20
49
25
7
4
4
15
10
21
50
25
7
4
4
15
10
21
50
25
7
4
4
15
10
22
50
25
7
4
4
15
10
22
50
26
7
5
4
15
10
22
51
27
7
5
4
15
9
22
51
27
8
5
4
15
9
22
50
27
7
5
4
16
9
22
50
28
8
5
4
16
9
22
50
28
8
5
4
15
9
22
50
28
8
5
4
16
9
22
51
27
8
5
4
15
10
22
52
28
8
5
4
16
10
22
52
28
8
5
4
15
9
22
52
28
8
5
4
15
9
23
52
29
8
4
4
15
9
23
52
30
9
5
4
15
9
23
51
30
8
5
4
16
9
24
50
30
8
5
4
16
9
23
50
30
8
5
4
16
9
24
50
28
8
4
4
16
9
24
50
28
8
4
4
16
9
24
49
28
8
4
4
16
9
23
49
27
8
4
4
16
9
23
49
27
8
4
4
17
8
23
49
27
8
4
4
17
8
23
47
28
8
4
4
15
8
23
47
28
8
4
4
15
8
22
47
28
8
4
4
14
8
22
49
28
8
4
4
15
8
22
49
28
8
4
3
15
8
22
49
28
8
4
3
15
8
22
49
28
8
4
4
15
8
22
48
28
7
4
4
14
8
21
48
28
8
4
4
14
8
21
47
28
7
4
4
15
8
21
46
28
7
4
4
14
8
21
46
28
7
4
3
14
8
21
48
28
7
4
4
14
8
21
48
28
8
4
3
14
8
21
47
27
8
4
3
13
8
21
45
27
7
4
3
13
8
21
45
26
8
4
3
13
8
21
45
24
7
4
3
13
8
21
43
23
7
4
4
13
8
21
44
23
7
4
4
13
8
21
44
23
7
4
4
13
8
20
43
23
7
4
4
13
7
20
42
22
7
4
4
13
7
21
41
22
7
4
4
13
7
21
41
22
7
4
4
13
7
21
40
22
7
4
4
13
8
20
40
22
7
3
4
12
8
20
40
22
7
4
4
12
7
20
40
20
7
4
4
12
7
20
39
19
7
4
4
12
7
21
39
19
7
4
4
12
7
21
39
18
7
4
4
12
8
21
40
18
7
4
4
12
7
21
40
18
6
4
4
12
8
21
41
18
6
4
4
12
7
22
40
18
6
3
4
12
7
22
39
17
6
3
4
12
7
22
39
17
6
3
4
12
8
22
39
17
6
3
4
11
8
21
39
16
6
3
4
11
8
21
41
13
5
3
4
11
8
20
40
13
5
3
4
11
7
18
41
14
5
3
4
11
7
18
40
13
5
3
4
11
7
18
39
13
5
3
3
10
7
18
39
13
5
3
3
10
7
18
39
13
5
3
3
10
7
18
38
14
5
3
3
10
7
18
38
14
5
3
3
10
7
18
38
14
5
3
3
9
7
18
38
13
5
3
3
9
7
18
41
15
5
3
3
9
7
18
41
15
5
3
3
9
7
18
38
13
5
3
3
9
7
18
36
13
5
3
3
9
7
19
36
13
5
3
3
9
7
19
36
13
5
3
3
9
7
19
37
13
5
3
3
9
7
19
37
13
5
3
3
9
7
19
37
13
5
3
3
9
7
18
36
13
5
3
3
9
7
18
36
13
5
3
3
9
7
18
33
13
5
3
3
9
7
18
33
14
5
3
3
9
7
20
33
13
4
3
3
9
7
20
33
13
4
3
3
9
7
20
33
13
4
3
3
9
7
21
32
13
4
3
3
9
7
20
33
13
4
3
3
9
7
20
32
13
4
3
3
10
7
20
32
13
4
3
3
10
8
20
32
13
4
3
3
10
8
20
33
13
4
3
3
10
8
19
33
14
5
3
3
10
8
19
33
15
6
4
3
10
8
18
33
15
6
4
3
10
7
19
33
15
6
3
3
10
7
19
33
15
6
3
3
10
7
19
33
15
6
3
3
10
7
19
33
15
6
3
3
9
7
17
33
16
6
3
3
11
7
17
32
16
7
3
3
12
7
17
31
16
7
3
3
12
7
17
30
16
7
3
3
12
7
17
30
16
7
3
3
12
7
16
30
16
7
3
3
12
7
17
30
16
7
3
3
12
7
17
30
16
7
3
3
12
7
17
31
17
7
3
3
12
7
17
31
19
7
3
3
12
7
18
29
19
7
3
3
13
7
18
29
19
7
3
3
13
7
18
29
19
7
3
3
13
7
18
29
19
7
3
3
13
7
17
29
19
7
4
3
13
7
18
29
19
7
4
3
13
7
18
29
19
7
4
3
13
7
18
29
19
7
4
3
13
7
18
31
19
7
4
3
13
7
18
31
19
7
4
3
13
7
18
31
19
7
4
3
13
7
18
26
18
7
4
3
13
7
18
27
18
7
4
3
13
7
18
27
18
7
4
3
13
7
17
27
18
7
4
3
14
8
17
27
19
8
4
4
14
8
17
28
19
8
4
3
14
7
17
28
19
8
4
3
14
7
17
28
19
8
4
3
14
7
17
28
20
8
4
3
14
7
17
28
19
8
4
3
14
8
17
28
20
8
4
3
14
8
17
28
19
8
4
4
14
8
17
28
19
8
4
4
14
8
15
28
19
8
4
4
14
8
15
27
19
8
4
4
14
8
15
27
19
8
4
4
14
8
14
27
19
8
4
4
14
8
14
26
19
8
4
4
14
8
15
25
19
8
4
4
13
8
15
25
19
8
4
4
13
8
15
25
19
8
4
4
13
8
15
25
19
8
4
4
13
7
15
25
19
7
4
4
13
7
15
25
18
6
3
3
13
7
15
25
18
6
3
4
13
7
15
25
18
7
4
4
13
7
14
24
18
7
4
4
13
8
14
25
18
7
4
4
13
8
14
25
18
7
4
4
14
8
15
26
17
6
4
4
12
8
15
26
17
6
3
3
11
8
15
26
17
6
3
3
11
8
15
27
18
6
3
3
11
8
15
26
18
6
3
3
12
8
15
26
18
6
4
3
12
8
15
26
18
6
4
3
12
8
15
26
18
6
4
3
12
8
15
25
17
6
4
3
11
8
14
24
15
5
4
3
11
8
14
24
14
5
4
3
11
8
13
24
14
5
4
3
10
8
13
25
14
5
4
3
10
8
14
25
15
5
3
3
10
8
14
25
15
5
3
3
10
8
14
25
15
5
3
3
10
9
14
25
14
5
3
3
10
9
14
25
14
5
3
3
11
9
14
24
14
5
3
3
10
9
14
24
14
5
3
3
10
9
14
24
14
5
3
3
10
9
14
24
14
5
3
3
10
9
14
24
14
5
3
3
10
9
14
24
14
5
3
3
10
9
14
24
14
5
3
3
9
8
14
24
13
5
3
3
8
8
14
23
13
5
3
3
8
8
14
23
13
5
3
3
8
8
14
23
13
5
3
3
8
8
14
23
12
5
3
3
9
8
14
23
12
5
3
3
8
8
14
25
13
5
3
3
9
8
14
25
13
5
3
3
12
8
15
25
13
5
3
3
12
8
15
25
13
5
3
3
12
8
15
26
13
5
3
3
12
8
15
27
13
5
3
3
12
8
15
27
13
5
3
3
12
8
15
27
13
5
3
3
12
8
15
29
14
5
3
3
12
8
15
29
14
5
3
3
12
8
15
29
14
5
3
3
12
8
15
29
14
5
3
3
12
8
15
29
14
5
3
3
12
8
15
29
14
5
3
3
12
8
15
29
14
5
3
3
12
8
15
29
14
5
3
3
12
8
14
29
14
5
3
3
12
7
14
29
14
5
3
3
12
7
14
31
16
5
3
3
12
7
14
30
15
5
3
3
12
7
14
30
15
5
3
3
11
7
14
30
15
5
3
3
12
7
14
29
15
5
3
3
12
8
14
30
15
5
3
3
12
8
14
30
15
5
3
3
12
8
14
30
15
5
3
3
12
8
14
30
15
5
2
3
12
8
14
31
15
5
2
3
12
8
14
31
15
5
2
3
12
8
14
31
15
5
2
3
12
8
14
31
15
5
2
3
12
8
14
30
15
5
2
3
12
8
13
29
15
5
3
3
12
8
13
29
15
5
2
3
12
8
13
29
15
5
2
3
12
7
12
30
15
4
2
3
12
7
12
31
15
4
2
3
12
7
12
30
15
4
2
3
12
7
13
30
15
4
2
3
12
7
13
31
15
4
2
3
12
7
13
32
15
4
2
3
12
7
13
32
15
4
2
3
12
7
13
32
16
4
2
3
12
7
13
32
16
4
2
3
12
7
13
32
16
4
3
3
12
7
13
32
16
4
3
3
12
7
13
32
16
4
3
3
12
7
13
32
16
5
3
3
12
7
12
33
16
4
2
3
12
7
13
33
16
4
3
3
12
7
13
32
15
4
3
3
12
7
13
33
15
4
2
2
9
7
12
36
16
4
2
2
9
7
12
36
16
4
2
2
9
7
12
35
16
4
2
2
9
6
11
35
16
4
2
2
9
6
11
35
16
4
2
2
9
6
12
35
16
4
2
2
9
6
12
34
15
4
2
2
9
6
12
34
15
4
2
2
9
6
11
34
15
4
2
2
9
6
12
34
15
4
2
2
9
6
12
34
15
4
2
2
9
6
11
34
15
4
2
2
9
6
11
34
15
4
2
2
10
6
12
34
14
4
2
2
10
7
12
34
14
4
2
2
10
7
12
34
14
4
2
2
10
7
12
32
12
4
2
2
10
7
12
32
12
4
2
2
10
7
12
32
12
4
2
2
10
7
12
34
12
4
2
2
10
7
12
34
12
4
2
2
12
6
12
33
12
4
2
2
11
6
12
33
12
4
2
2
11
6
12
33
12
4
2
2
11
6
12
33
12
4
2
2
11
6
13
33
12
4
2
2
11
6
13
34
12
4
2
2
11
6
13
34
12
4
2
2
11
6
13
34
12
4
2
2
11
6
13
34
12
4
3
2
12
6
13
34
12
4
3
2
12
6
13
34
12
4
2
2
12
6
13
34
12
4
3
2
12
6
13
34
12
4
3
2
12
6
13
33
12
4
3
2
12
6
13
33
12
4
3
3
12
7
14
33
12
4
3
3
12
7
14
32
12
4
3
3
12
7
14
31
11
4
3
3
12
7
14
31
11
4
3
3
12
7
14
30
10
4
3
3
12
7
14
30
10
4
3
3
12
7
14
30
10
4
2
2
12
7
14
30
10
4
2
2
12
7
14
31
10
4
2
3
12
7
15
31
10
4
2
3
12
7
15
31
10
4
2
3
12
7
15
31
10
4
2
2
12
7
15
31
10
4
2
2
12
7
15
29
9
4
2
2
12
7
15
26
8
4
2
2
12
7
15
26
8
4
2
2
12
7
15
26
8
4
2
2
12
7
15
27
8
4
2
3
12
7
14
26
8
4
2
2
12
7
14
26
8
4
2
2
12
7
14
26
8
4
2
2
12
7
14
26
8
4
2
2
12
7
14
25
8
4
2
2
12
7
14
25
8
4
2
2
12
7
14
26
8
4
2
2
12
7
14
25
8
4
2
2
12
7
14
25
9
4
2
2
11
6
13
26
9
4
2
2
11
6
13
26
9
4
2
2
10
5
14
25
9
4
2
2
10
5
14
25
9
4
2
2
10
5
13
25
9
4
2
2
10
5
13
25
9
4
2
2
10
5
13
23
9
4
2
2
10
5
13
22
9
4
2
2
9
5
13
22
9
4
2
2
8
5
13
22
9
4
2
2
8
5
13
22
9
4
2
2
8
5
12
22
10
4
2
2
8
5
12
22
10
4
2
2
8
5
11
20
10
4
2
2
7
5
11
20
10
4
2
2
7
5
11
21
10
4
2
2
7
5
11
21
10
4
2
2
7
5
11
21
10
4
2
2
6
5
11
20
10
4
2
2
6
5
11
20
10
4
2
2
6
4
11
20
10
4
2
2
6
4
10
20
10
4
2
2
6
4
10
20
9
4
2
2
6
4
9
20
9
4
2
2
5
3
9
20
9
4
2
2
5
3
9
20
9
4
2
2
5
3
8
19
9
4
2
2
5
3
7
19
9
4
2
2
5
3
7
19
9
4
2
2
5
3
7
19
9
4
2
2
5
3
7
18
9
4
2
1
4
3
7
17
10
4
2
1
4
2
6
15
9
4
2
1
2
2
5
15
9
4
2
1
2
2
5
14
9
4
2
1
2
2
5
14
10
4
2
1
1
2
5
14
10
4
2
1
1
2
5
13
10
4
2
1
1
2
5
13
10
4
2
1
1
2
5
13
10
4
2
1
1
2
5
12
10
4
2
1
1
2
5
11
10
4
2
1
1
2
5
11
10
4
2
1
1
2
4
11
10
4
2
1
1
2
5
11
10
4
2
1
1
2
5
11
10
4
2
1
1
2
5
14
10
4
2
1
1
2
5
14
10
4
2
1
1
2
5
14
10
4
2
1
1
2
5
14
10
4
2
1
1
2
5
13
10
4
2
1
1
2
5
13
10
4
2
1
1
2
4
12
10
4
2
1
1
2
4
12
10
4
2
1
1
2
4
12
10
4
2
1
1
2
4
12
10
4
2
1
1
2
4
12
10
5
2
1
1
2
4
12
10
5
2
1
1
2
3
12
10
5
2
1
1
2
3
12
10
5
2
1
1
2
3
12
9
5
2
1
1
1
3
12
8
4
2
1
1
1
3
11
9
4
2
1
1
1
3
11
8
4
1
1
1
1
3
11
8
4
2
1
1
1
3
11
8
4
2
1
1
1
3
11
8
4
2
1
1
1
3
11
8
4
1
1
1
1
3
11
8
4
1
1
1
1
3
11
8
4
1
1
1
1
3
11
8
4
1
1
1
1
3
11
8
4
2
1
1
1
3
11
8
4
2
1
1
1
3
11
8
4
2
1
1
2
3
11
8
4
2
1
1
2
3
11
8
4
2
1
1
2
3
11
8
4
2
1
1
2
3
11
8
4
2
1
1
2
3
12
8
4
2
1
1
2
3
11
8
4
2
1
1
2
3
12
8
4
2
1
1
2
3
11
8
4
2
1
1
2
3
11
8
4
2
1
1
2
3
11
8
4
2
1
1
2
3
11
8
4
2
1
1
2
3
11
7
4
2
1
1
2
3
11
7
4
2
1
1
2
3
11
7
4
2
1
1
2
3
11
6
3
2
1
1
2
3
11
6
3
2
1
1
2
3
11
6
3
2
1
1
2
3
12
6
3
2
1
1
2
3
12
6
4
2
1
1
2
3
12
6
4
2
1
1
2
3
12
6
4
2
1
1
2
3
12
6
4
2
1
1
1
2
9
6
3
2
1
1
1
2
9
6
3
2
1
1
1
2
9
6
3
2
1
1
1
2
12
6
3
2
1
1
1
2
12
6
3
2
1
1
1
2
12
6
3
2
1
1
1
2
12
6
3
2
1
1
1
2
12
6
3
2
1
1
1
2
12
6
3
2
1
1
1
2
12
6
3
2
1
1
1
2
12
6
3
2
1
1
1
2
12
6
3
2
1
1
1
2
12
6
3
2
1
1
1
2
12
6
3
2
1
1
1
2
12
6
3
2
1
1
1
2
12
6
3
2
1
1
1
2
12
6
3
2
1
1
1
2
12
6
3
2
1
1
1
2
12
5
3
2
1
1
1
2
12
5
3
2
1
1
1
2
12
5
3
2
1
1
1
2
12
5
3
2
1
1
1
2
13
5
3
2
1
1
1
2
13
5
3
2
1
1
1
2
12
5
3
2
1
1
1
2
12
5
3
1
1
1
1
2
12
5
3
1
1
1
1
2
12
5
3
1
1
1
1
2
12
5
3
1
1
1
1
2
12
5
3
1
1
1
1
2
12
5
2
1
1
1
1
2
12
5
2
1
1
1
1
2
12
5
2
1
1
1
1
2
12
5
2
1
1
1
1
2
12
5
2
1
1
1
1
2
12
4
2
1
1
1
1
2
12
4
2
1
1
1
1
2
12
4
2
1
1
1
1
2
12
4
2
1
1
1
1
2
12
4
2
1
1
1
1
2
12
5
2
1
1
1
1
2
12
5
2
1
1
1
1
2
12
5
2
1
1
1
1
2
12
5
2
1
1
1
1
2
12
5
2
1
1
1
1
2
12
4
2
1
1
1
1
2
12
4
2
1
1
1
1
2
12
4
2
1
1
1
1
2
12
4
2
1
1
1
1
2
11
4
2
1
1
1
1
2
11
4
2
1
1
1
1
2
11
4
2
1
1
1
1
2
11
4
2
1
1
1
1
2
9
4
2
1
1
1
1
2
9
4
2
1
1
1
1
2
9
4
2
1
1
1
1
2
9
4
2
1
1
1
1
2
8
4
2
1
1
1
1
2
8
4
2
1
1
1
1
2
8
4
2
1
1
1
1
2
8
3
2
1
1
1
1
2
8
4
2
1
1
1
1
2
8
3
2
1
1
1
1
2
8
3
2
1
1
1
1
2
8
3
2
1
1
1
1
2
8
4
2
1
1
1
1
2
8
4
2
1
1
1
1
2
8
4
2
1
1
1
1
2
8
4
2
1
1
1
1
2
8
4
2
1
1
1
1
2
8
4
2
1
1
1
1
2
8
4
2
1
1
1
1
2
7
4
2
1
1
1
1
2
7
4
2
1
1
1
1
2
7
4
2
1
1
1
1
2
7
4
2
1
1
1
1
2
7
4
2
1
1
1
1
2
7
4
2
1
1
1
1
2
7
4
2
1
1
1
1
2
8
4
2
1
1
1
1
2
8
4
2
1
1
1
1
2
7
4
2
1
1
1
1
2
8
4
2
1
1
1
1
2
7
4
2
1
1
1
1
2
7
4
2
1
1
1
1
2
7
4
2
1
1
1
1
2
7
4
2
1
1
1
1
2
7
4
2
1
1
1
1
2
7
4
2
1
1
1
1
2
7
4
2
1
1
1
1
2
7
4
2
1
1
1
1
2
7
4
2
1
1
1
1
2
7
4
2
1
1
1
1
2
7
4
2
1
1
1
1
2
7
4
2
1
1
1
1
2
7
4
2
1
1
1
1
2
7
4
2
1
1
1
1
2
7
4
2
1
1
1
1
2
7
4
2
1
1
1
1
2
7
4
2
1
1
1
1
2
7
4
2
2
1
1
1
2
7
4
2
2
1
1
1
2
7
4
2
2
1
1
1
2
7
4
2
2
1
1
1
2
7
4
2
1
1
1
1
2
8
4
2
1
1
1