-1
-1
1
0
2
3
-1
0
1
2
10
6
1
-6
-1
-1
-1
-7
-16
-7
-7
0
1
0
-2
-3
11
-1
-5
-4
-2
-2
-2
-1
-13
-1
4
1
-2
-1
0
5
16
1
0
2
-2
0
1
3
-2
6
5
-1
0
1
-2
1
4
2
-1
-13
-2
0
-1
0
4
-2
-4
8
2
2
-2
-2
3
-3
-4
-5
-3
-1
-1
2
3
-2
-7
-1
-3
-1
0
6
-5
0
2
1
-1
0
-5
-16
-32
-7
-6
-2
1
-4
-2
1
8
3
7
1
0
0
0
1
0
-1
2
-2
0
1
0
-1
-3
2
-3
-2
1
-1
0
2
13
0
-2
-5
-3
-1
-1
-2
-18
-3
-5
-1
-2
0
-3
-3
-5
-2
-2
-3
-2
-1
-1
1
1
-1
3
3
2
0
2
1
19
6
2
-9
-3
-1
-1
-1
-4
-4
0
5
2
-1
-1
3
-8
3
1
-6
-2
-2
-3
-7
-3
-5
-3
2
-1
-2
0
-6
-5
-4
-4
-2
-2
-2
0
-1
-5
0
-1
0
-1
0
1
-3
3
2
1
3
-2
-1
1
-3
-15
-4
0
-2
-2
0
2
8
18
3
-1
-4
0
1
-2
1
19
1
-4
-2
-1
-2
-2
-8
-39
-9
-5
3
-1
-1
1
-6
-4
-2
-4
-2
-2
-2
-2
3
16
2
5
0
-1
0
0
5
9
3
5
0
1
1
-1
-1
5
0
-2
-2
1
0
-2
2
0
1
0
-2
-1
-1
-1
-6
-7
-3
-6
1
0
-1
0
-6
-8
-4
-3
-2
-1
-2
0
3
16
5
4
-1
-1
0
-1
2
-5
0
-1
7
-1
1
0
2
0
-2
-4
1
0
-1
-2
-6
-13
-2
-2
-5
-2
-2
-1
1
7
-4
-4
-8
-1
0
-1
2
2
-1
1
5
1
-1
1
-2
-21
0
1
0
-3
-1
-1
-11
-13
-2
-4
-4
-2
1
1
4
17
4
-1
3
1
0
-3
-9
-7
3
2
-5
-1
-1
0
4
-2
-3
-2
1
1
0
-3
-2
-1
-2
-1
0
1
-2
-1
1
6
-1
-1
-1
-2
-2
0
1
-9
-6
-9
-2
-1
-2
0
1
13
1
2
-3
-1
-2
-3
-7
-11
-4
2
3
-1
0
0
0
4
1
-2
4
1
1
0
6
6
1
2
3
0
0
-2
-12
-17
-8
-5
-2
-2
0
1
4
7
1
2
-3
-2
-2
-2
-2
-5
3
4
-6
-2
-1
-2
-3
-4
-1
0
3
2
0
0
1
0
1
3
3
0
0
-2
-2
-15
-7
-6
-6
-3
1
0
-2
-5
-4
-5
-6
-5
-1
0
3
13
7
2
8
2
-1
-1
1
9
1
0
2
2
0
-1
-4
-1
-1
1
2
6
2
1
2
9
4
0
-4
-8
-6
6
2
-13
3
-3
-6
10
22
-6
-10
-23
-14
-8
8
8
-13
-2
9
5
4
4
7
1
-9
5
3
24
-5
-5
-1
-13
-9
-5
7
9
7
1
-10
-8
-15
-4
-10
0
4
-1
-10
-1
7
1
2
41
5
1
3
15
7
19
66
28
26
19
23
46
70
-7
-71
-66
-32
-15
-13
-30
-37
-9
0
-42
-31
-17
-12
-14
4
0
-38
83
20
3
-1
-11
-25
-19
-61
-91
-20
-6
-6
-7
-43
13
41
29
12
12
9
19
36
-2
-4
-64
-11
1
0
9
3
-20
-11
8
-28
-21
-14
-29
-19
-2
18
0
3
-3
0
9
35
-8
0
88
19
1
5
6
-35
10
16
-53
21
11
-9
1
16
18
8
3
-4
7
9
4
11
6
-1
20
-1
2
-11
-18
19
-10
20
14
-1
-10
0
-8
-25
-11
-17
-8
-20
-5
-4
-11
-23
-4
18
4
7
-3
-1
23
-38
0
-14
-13
-1
-4
5
4
-4
6
21
36
4
8
2
12
33
4
-9
62
23
5
-8
-24
20
3
18
-6
6
8
-2
19
4
4
20
-64
-14
-2
11
-25
-66
12
25
2
-2
9
7
7
41
-40
-93
60
-12
-22
-5
10
-40
-34
-8
-39
-6
-18
-18
-42
9
40
22
-2
16
22
11
37
20
-11
-39
75
-11
-20
-18
-44
-70
9
61
-75
-10
-2
21
43
45
21
-25
75
32
5
-32
-87
41
-11
38
48
33
10
11
25
-60
5
-87
-128
-82
-13
-15
-18
45
28
14
61
6
13
15
26
24
-28
-73
20
-41
-12
50
71
43
-26
-19
67
4
3
-40
-50
-72
15
21
-7
36
-3
-14
15
32
9
112
75
58
33
40
2
-71
17
-58
-128
-45
-15
-17
0
81
-2
-76
8
-21
6
11
5
-13
-13
98
80
30
-19
-15
4
-36
-31
-14
16
-8
-10
-18
-19
-52
10
44
-20
61
26
33
59
48
-16
-23
16
-43
0
17
17
-41
13
60
52
25
-10
-28
-38
-5
51
102
-79
15
12
16
-16
-46
-9
1
55
-19
12
-6
-17
6
-103
-39
-103
-13
-22
-21
-9
-51
49
74
19
40
30
60
102
74
-43
-128
-13
-73
-23
-69
-108
62
-7
52
-12
34
-11
9
58
5
31
1
-89
-30
-12
-15
-42
93
-33
26
115
34
12
-11
-62
-100
22
32
-4
8
20
0
41
-8
13
-10
-48
-24
0
-10
-12
-32
13
-57
21
4
-13
25
69
127
-7
-25
-78
-41
-2
10
-26
-39
3
-12
-47
9
3
-10
-19
-35
-47
17
21
5
-20
-19
-10
-2
11
60
-68
25
9
6
10
-113
-35
-120
37
-38
-19
-9
-30
-43
17
-36
-60
-29
-12
-1
21
52
26
87
109
25
18
10
-27
-73
12
-26
-55
-11
-29
-21
-27
60
-8
-30
13
-12
12
3
23
-2
-4
-30
115
6
-2
11
3
-20
25
46
-16
10
3
0
-8
-9
23
67
127
33
19
3
1
12
-11
-18
-128
-28
-7
-3
5
14
6
-21
51
24
10
18
27
0
27
67
79
0
-11
-10
-9
27
12
-12
-7
-6
0
2
-12
46
-42
-105
-107
-25
-6
-5
-2
-40
-18
108
114
12
-17
-8
-4
23
8
-2
12
19
19
23
67
24
3
-19
24
-3
0
-23
-82
-98
-6
-21
-87
-26
-9
-6
-5
80
-22
-38
6
4
-3
3
26
-8
0
-8
-86
4
9
13
23
20
4
14
76
-3
-10
13
32
-9
10
-5
-54
-1
6
-16
5
89
-12
13
19
24
-1
-4
-32
-80
10
-13
27
-3
-4
-1
2
1
-5
-11
-67
-15
-3
7
16
8
41
52
2
-20
11
13
15
-20
-19
-77
29
10
-9
0
13
23
-15
-8
-108
-21
-18
-16
-60
-36
0
25
69
26
13
2
9
-2
9
24
84
15
16
17
20
-11
-5
-40
59
-5
-6
-12
-24
13
-26
-114
-120
-70
-12
-8
-11
-49
-13
24
117
35
-4
-11
-23
-34
-23
20
74
0
-13
-1
16
-19
32
61
1
1
3
16
60
53
-15
-43
-15
-8
-3
-15
-69
34
5
36
21
-18
1
-10
-13
0
19
32
85
58
25
14
25
4
-23
-67
-128
-46
-15
-3
-1
-37
15
32
86
11
5
1
14
-3
-1
37
24
22
-5
0
25
77
-9
24
-27
1
-6
-7
-11
-15
4
42
61
17
11
4
-30
-13
12
-18
-67
-8
12
10
19
-10
17
68
72
-6
-7
-6
-6
5
-9
-41
-56
1
-9
-6
14
22
16
56
-10
-7
-8
-4
-2
45
-25
-12
-19
-5
-8
-5
-10
-67
-13
-53
-43
4
11
9
13
-30
15
56
41
-10
-10
-13
-16
23
1
-42
15
1
3
7
29
2
6
8
-36
-5
3
-27
-68
-21
12
-5
41
6
4
8
22
103
-18
20
80
30
-2
2
19
-46
12
-22
-128
-15
-6
12
-10
-10
1
42
115
22
5
1
35
-18
-10
-80
-128
-43
-1
3
-21
-85
25
-7
22
2
-3
1
12
31
-11
7
6
9
-8
-31
-3
45
1
26
97
20
1
10
11
-35
15
26
-43
-10
4
-2
-2
4
5
13
30
10
5
6
-21
-6
-16
-25
5
-2
6
6
0
-1
-21
-2
-23
20
-11
-14
-24
-22
14
38
85
2
0
8
25
67
-26
-80
-79
-35
-19
-12
-24
-74
42
122
-54
10
18
3
-9
-19
-37
-103
37
-3
-18
-10
2
21
-4
33
-72
5
-1
0
15
34
34
4
-25
8
6
-3
-28
-42
-6
-35
-1
-2
10
4
10
-2
4
-12
96
-12
11
16
30
-7
-38
-15
13
-4
-29
-4
-1
-34
9
-14
16
4
11
-7
-36
13
-15
10
14
10
-10
-5
-22
-25
42
24
59
14
9
-7
5
-1
-16
-8
-9
-22
3
-11
-19
-30
-12
23
-21
-28
-6
8
19
29
0
35
26
-6
-3
11
34
19
-17
66
-68
-13
-5
3
-37
-17
-5
-123
-31
0
1
-11
-20
-22
8
79
73
26
-2
0
1
14
0
-41
-9
7
20
15
29
-9
24
42
-34
-7
2
10
1
71
-25
8
76
-2
-13
-17
-2
-36
-9
59
31
1
-1
7
7
-17
13
-58
0
-1
-3
18
7
14
2
-36
-42
1
5
-6
6
-34
7
17
96
25
2
-15
-14
13
-10
-20
2
1
-9
-6
-13
18
-2
9
-81
-33
-4
-5
25
-18
-31
13
91
-19
-13
3
-15
-74
-11
26
-103
3
8
18
17
0
-29
-85
-21
-1
-1
-12
-3
-3
16
43
12
17
9
-8
-12
42
-45
-59
-86
-30
-13
-5
9
-4
16
15
24
0
-6
-5
-7
-21
3
32
51
5
0
2
2
30
-27
-77
31
-24
-15
-6
-3
-34
18
-10
8
2
12
2
-4
-14
-40
-67
-97
-28
-8
-1
-2
12
11
26
-25
-10
-3
-2
-9
-54
24
37
38
26
4
-14
-6
33
-47
-59
-59
-16
-18
10
20
44
13
40
5
-15
7
-26
-18
1
15
15
5
23
21
31
71
26
-4
-61
-45
-52
-24
-28
-55
-75
15
27
-72
35
10
8
23
55
6
-2
27
13
-8
8
0
-63
4
-58
-100
-33
-8
-15
4
48
5
-3
116
19
-3
-2
-21
24
11
-3
20
10
4
17
42
-27
21
18
59
20
16
13
11
33
5
9
-101
-28
-4
-17
-33
-22
-6
12
63
38
13
6
-4
-11
36
33
-3
-17
-12
-2
35
34
8
35
-52
6
12
3
-63
-3
-10
-56
10
-16
-10
-9
-5
-22
-22
-7
-82
-4
-11
-2
-27
-35
25
77
76
-6
-2
-6
-7
32
13
-20
0
16
1
14
57
46
0
-61
-32
-17
-1
-9
-12
-17
10
98
11
3
7
-7
-12
13
1
-24
-2
16
4
-2
19
-31
-18
20
-2
-9
-4
-15
-50
21
-5
2
23
38
11
18
-5
-8
-36
-69
-34
-17
-18
-9
11
-4
-18
-34
40
7
5
-1
-16
-7
26
28
28
-15
-6
12
16
5
18
51
16
19
9
0
20
47
6
22
-61
-6
-1
2
9
6
6
59
1
-1
7
15
-25
35
-13
-85
23
10
-2
-26
-22
-93
0
-55
-7
-8
-9
-5
-8
-3
1
73
86
1
-6
2
28
60
8
-9
-4
22
14
4
-12
-9
21
96
-46
-28
-11
12
33
47
-49
-76
24
18
1
2
4
-17
29
47
31
-22
-8
-23
-44
-13
20
63
38
2
4
15
47
60
-30
-79
-62
-17
-4
-24
-44
-12
2
51
46
21
4
24
77
30
-42
-41
-47
-11
-6
-7
-68
-26
-1
-10
-15
1
3
-25
-33
-29
-3
-62
-35
-30
5
21
27
-2
-19
36
62
5
-21
-30
-36
-41
3
18
-52
-1
-3
22
51
0
28
20
-46
-9
-3
-10
-21
-13
-26
-34
-9
1
5
5
-1
-9
15
34
65
12
14
10
-1
18
-14
-33
-51
-21
-4
2
-7
-14
-18
-44
74
26
-8
-17
8
-18
-6
35
-73
-9
-13
-13
-37
-22
10
-15
81
9
7
20
30
4
17
25
6
7
6
3
-35
-1
-23
-78
-42
-36
-14
-32
0
51
3
12
64
7
-3
9
6
-34
31
57
-85
-15
8
14
26
24
4
-33
44
31
6
-6
13
39
1
-38
-59
-25
-12
3
-13
-42
1
22
52
31
7
1
31
72
-14
-35
-114
-28
-5
13
16
-32
10
55
33
-12
0
-24
-37
34
-5
96
75
27
2
5
-9
-35
-21
-76
-10
-17
-16
-14
-3
7
8
69
-47
3
13
6
-21
-18
1
9
99
19
-2
9
36
26
-13
-1
-86
-30
-9
-1
10
-43
9
19
26
20
7
12
-28
-35
-11
-9
20
-1
-11
-31
-20
21
-4
-34
-43
-8
14
16
36
-31
-20
-66
-51
-21
-8
-28
-41
-8
17
41
29
11
-2
10
24
28
-3
-38
29
6
5
-3
-3
16
-25
-43
-90
-18
-9
3
17
-35
12
-43
38
4
-4
6
1
17
-8
53
-6
-11
0
6
20
-8
11
-11
21
14
5
-4
-11
50
11
32
91
10
-1
-9
-15
-15
-14
-55
-47
-7
-2
5
10
7
24
4
11
-11
-3
-3
12
1
-5
-48
-28
8
1
0
-20
-15
8
-3
-3
12
18
53
100
6
10
83
11
-6
-14
-61
-110
20
-15
-52
47
-5
-12
-4
-17
-38
-5
72
-31
-19
-3
-6
-12
-34
-5
-49
-40
2
-4
9
-12
16
-22
-9
40
14
3
-12
19
-30
23
37
-46
-7
4
9
31
41
-7
17
110
12
-7
-4
7
-40
17
26
-6
10
10
0
-50
32
-7
55
-38
-3
-5
16
17
35
-9
-21
73
30
7
-5
5
-30
-20
-11
-31
-10
3
6
14
-8
7
-3
0
3
3
-10
-16
1
10
11
-13
-1
-3
11
21
-5
8
9
-40
-12
1
-2
-7
25
-25
2
6
-13
-16
-9
5
-37
-11
8
95
22
6
-10
-8
-7
14
-42
-15
-6
9
9
-19
6
19
100
-12
15
5
19
40
-3
-13
-83
-47
-40
-19
-34
-62
37
-24
-11
47
2
-10
-6
-6
-24
25
47
42
18
3
8
41
-15
-7
4
62
18
10
-24
-37
37
16
40
-92
-25
1
11
59
22
-6
-48
-43
-2
-6
-15
-66
-22
6
29
-11
-13
1
11
7
7
-36
5
44
20
-6
3
1
-6
-6
-80
-45
-9
-3
0
18
-2
-9
-15
-62
-27
-15
-13
13
6
12
51
49
19
9
16
-7
-43
19
-15
-44
-7
11
1
29
24
13
51
67
31
1
4
-22
8
-20
-65
-21
-6
-6
-6
2
-14
-2
24
23
2
4
1
0
-1
24
31
-48
-27
-10
-8
-7
13
18
-2
-27
12
13
34
43
-4
4
-61
59
-6
-1
-31
-38
7
-15
-12
-21
-15
-11
29
64
-9
-10
-44
57
30
10
-42
-67
20
11
47
-14
-10
-8
-6
-35
-69
-15
-38
-36
-16
-8
2
32
10
0
-6
-69
0
1
0
-14
17
-45
-56
-9
2
-5
17
21
-35
26
29
17
-4
5
11
9
52
23
71
21
15
10
-2
6
-31
-19
-74
37
2
-2
-21
-26
4
-8
12
-47
-12
-9
13
29
-4
-7
-35
39
-6
-1
-24
-28
29
-2
31
-17
7
-2
54
87
-9
32
42
54
1
4
-51
-74
-3
3
21
-29
-3
-5
0
14
10
-6
4
-30
-19
6
9
11
22
0
-35
82
17
-7
-4
-13
-56
-3
11
-32
-9
1
20
61
15
-18
-85
-41
-9
-5
13
-38
-11
13
2
21
14
-7
-46
-39
-7
7
44
-96
-15
8
6
11
17
-2
-5
33
-10
-7
-8
-13
2
-12
22
-13
-2
-2
0
-10
-33
-26
-21
-15
-11
-7
19
32
-3
1
68
7
21
3
11
-3
6
20
11
31
11
15
1
13
-6
-2
-22
-15
-15
-8
-16
-15
-6
2
-17
0
21
0
-6
-14
6
8
76
-32
-34
-13
-8
34
17
16
34
-9
-8
1
18
-28
19
-19
-54
17
6
17
3
2
-33
-14
-33
19
14
-20
-24
-30
-25
26
80
18
7
7
3
8
5
2
28
52
22
0
17
44
10
-5
-48
-122
-58
-11
-18
-23
34
-23
63
55
19
0
-7
-4
-1
-23
-121
2
-12
-12
-21
-42
-25
-1
41
-33
-12
4
6
19
1
22
122
73
34
16
24
37
30
-14
-25
-9
-20
-14
10
5
-26
13
-9
-25
2
1
2
1
29
-33
-62
38
19
0
-30
-50
-14
53
7
28
6
4
20
50
65
-9
2
-46
-21
-1
-11
-46
-55
12
25
69
29
10
40
58
41
-15
4
-10
-14
-10
-39
-59
-57
5
-35
10
-25
-13
-5
12
0
9
46
-4
20
4
8
4
27
-26
6
-15
-10
-2
-43
-49
12
-31
-91
20
1
6
32
14
0
29
81
39
2
1
-5
4
-2
-4
-60
-47
-21
-7
8
16
-33
-6
32
33
10
-4
-1
0
-15
12
-7
-43
13
-4
0
15
22
-18
-28
47
20
4
-4
-35
-29
12
-22
-29
-1
15
19
20
21
11
57
-1
8
8
-9
-7
4
-13
-57
-71
-39
-21
5
36
41
-2
41
-41
-9
-16
-16
-40
-55
43
90
127
44
13
-1
48
50
-22
-57
-55
-33
-6
-14
-37
-14
-24
-4
-37
-8
5
33
8
-4
3
17
32
4
-13
-32
-21
-7
11
43
26
16
3
25
26
-11
-6
12
-20
18
16
0
-22
4
-2
32
-16
-21
-10
29
91
-33
-7
-38
-8
1
-4
-68
-89
6
-12
-3
-42
-16
-7
-4
7
-2
18
-43
24
-5
1
15
25
26
-22
-42
-46
-2
-13
-17
-15
-11
12
-17
-22
-10
-3
21
31
-20
21
71
79
14
14
0
-7
10
-21
-116
-31
-17
0
4
6
-10
1
54
-48
20
1
-3
-8
23
-13
-7
53
5
-1
-3
-49
-38
9
39
19
-8
-2
-8
-15
40
-1
49
-52
-15
-8
54
113
22
33
-46
40
10
5
-66
-82
-5
-22
25
-22
-15
0
38
13
-47
3
-45
-60
2
10
-31
-37
15
12
30
32
-7
-18
-14
-14
-22
-7
4
12
0
4
14
12
16
-7
-39
-14
6
-1
19
55
7
12
15
12
8
2
8
-14
-11
12
5
-2
-2
-6
-19
-18
-6
-8
-44
11
9
1
6
17
-16
-5
10
-42
-4
8
1
-12
16
-23
-10
-17
-10
-5
-2
-14
-12
3
27
52
9
-1
-20
-13
4
5
-18
-2
-6
2
13
9
-19
6
19
-50
-20
-4
8
46
25
-18
-30
-21
-19
-16
-23
-17
-5
12
24
47
8
7
0
-17
-3
1
-2
2
-7
-1
16
29
0
-9
-7
25
21
6
-21
4
8
9
0
2
-3
6
10
-16
-6
-33
-12
-64
-23
-17
-10
-29
-23
-3
19
43
3
5
15
34
19
18
-6
-28
-1
-3
-3
-25
2
-1
-9
87
21
2
11
26
12
-4
22
-76
-2
2
-1
30
-14
-1
18
-5
-4
-1
-13
-72
-10
2
17
27
-4
-3
9
50
12
1
-45
-49
-15
-6
-5
-38
-4
12
2
52
16
8
9
5
2
4
16
-4
5
-2
-18
-21
-5
-1
-3
18
-5
-2
3
0
1
-7
-2
-19
-2
-3
4
14
-8
3
-12
9
-1
-1
-12
-15
3
-3
8
-4
1
-2
10
29
3
-3
10
12
0
-4
-15
-46
2
-8
-9
-22
3
0
1
13
-7
-3
-12
-8
-11
0
3
-12
-2
9
3
41
5
4
1
4
4
-6
-3
-40
-3
-5
3
25
4
-4
-4
-8
0
-1
-2
-12
-7
2
1
17
8
-5
-5
-10
1
2
17
-5
-8
2
6
-1
0
0
5
16
1
3
-1
13
2
-4
-9
-19
-7
-6
-3
-1
-4
6
1
8
11
2
0
0
6
-1
2
8
-9
-5
-7
-7
-1
2
-2
1
8
5
5
5
0
-1
-12
-6
-7
-6
-2
7
-3
1
-11
-6
2
4
8
-3
-2
2
7
7
1
-3
-8
9
0
-4
-8
3
-11
-4
-2
-30
-4
-8
-8
-7
-6
-10
-2
6
-3
1
-4
2
19
6
-11
-4
1
1
9
-9
0
5
2
-7
-1
4
2
39
10
2
-5
29
0
-2
0
-11
3
3
14
-18
-3
-4
-12
-18
-26
-7
-11
-7
-1
0
3
9
11
-1
2
2
4
-6
-10
-7
-4
-6
-3
-1
-1
2
6
45
7
-2
-11
12
-3
0
-2
-40
0
2
6
-2
-3
-2
-11
37
-1
-4
-3
-17
-2
-6
3
-23
-2
-1
1
9
2
-5
-1
-5
-5
1
-1
1
1
-6
0
13
6
3
1
-4
-4
0
-1
-7
1
-6
-5
-2
-3
-1
-5
-16
-9
1
6
-3
-3
-1
-3
-2
8
4
1
6
2
0
-4
11
0
-3
-5
-7
0
-1
5
-10
-11
-4
1
-4
1
0
-2
-10
-2
-6
0
-1
-3
3
3
4
-2
3
0
-1
-2
7
-14
-6
5
1
-2
3
3
-6
3
-16
-11
-2
-7
-4
-3
2
3
18
5
-4
-5
-2
2
-6
-15
-34
-17
-4
6
5
0
-1
7
14
9
4
1
-1
0
-1
-7
-12
-7
-3
-2
-2
0
-1
3
9
0
0
4
-1
-1
0
2
6
3
-2
-7
-2
-1
-1
1
11
-6
-7
1
-1
-1
8
3
-4
1
4
2
-3
0
-4
-4
-17
2
2
1
2
-1
2
11
42
2
1
-9
-1
-4
-3
-22
-33
-6
0
6
0
0
-6
30
12
1
-5
-12
-6
-1
2
-33
-87
-10
-4
2
2
2
-4
-12
1
-6
-5
7
0
-2
-18
37
5
7
4
-5
1
3
1
13
97
8
-7
-1
3
-2
4
29
29
1
6
-14
-2
0
0
-22
-81
-12
0
4
8
-1
1
-7
36
-2
3
-1
-12
4
-13
-38
-18
-3
-4
18
-9
-10
5
25
20
5
-1
-16
5
-4
5
2
50
2
-5
0
5
-13
-3
7
-4
1
-2
18
28
-10
0
-9
-41
-9
-10
-82
-63
-9
9
6
26
12
15
55
22
-2
-6
9
-2
-7
2
-3
5
3
-4
7
37
3
0
11
5
-6
7
-12
-74
8
8
21
22
24
11
15
30
-3
-1
-18
-11
-11
-4
-40
63
8
-3
-8
3
5
0
-24
-10
-15
-11
-7
-6
6
-5
7
-9
1
-3
0
4
1
-4
-10
-20
-8
-10
-10
-9
12
9
15
-19
4
4
17
5
4
9
17
24
3
-1
-16
-9
-2
0
-5
-2
6
9
10
-2
-5
-5
-25
6
1
3
12
11
-5
-2
12
-17
-4
6
-5
-10
-3
-6
-16
-20
2
-1
-11
-11
0
0
10
7
2
-4
-5
11
-4
-7
-5
-8
-2
-3
9
-2
0
-1
5
-18
0
-5
0
-6
-1
3
-8
-33
-15
0
-1
-4
3
1
0
4
-2
-1
13
9
-3
-4
1
17
-7
-5
-10
-6
0
-2
1
-21
-11
-4
-7
-7
0
4
1
-5
23
8
3
5
1
-2
-1
10
4
1
2
1
-1
-4
-5
2
-3
4
-1
-6
0
0
-7
-20
-9
-5
-4
-2
-5
1
13
8
5
1
-4
-2
-3
6
0
10
-3
1
9
3
-1
-7
2
35
-2
-9
-4
-4
-1
-4
1
11
0
1
-3
-1
4
1
-7
-27
-7
-10
-5
-3
-4
-8
-27
-65
-16
-3
8
-1
0
3
2
6
4
6
10
5
0
-3
2
10
0
3
3
0
-1
2
2
20
1
-1
-13
-3
0
4
11
13
3
-2
6
8
-1
-6
-8
-21
-2
2
-5
-17
-2
0
11
-9
3
4
-5
-1
0
1
-17
0
-4
-2
-4
-3
1
-2
9
25
6
7
5
7
-2
0
-3
-12
0
-5
-4
2
3
-9
-4
1
0
-7
-6
-6
-5
4
-5
-9
-7
-3
-7
-2
-3
0
26
26
-2
4
12
1
2
0
5
27
0
-4
0
1
0
5
1
-48
1
-1
-9
1
3
-1
-2
3
-10
-7
10
-1
-1
-4
-14
-10
5
-3
-7
11
-1
-1
-1
-10
1
3
-1
-14
0
2
11
17
1
4
1
8
3
-11
-11
4
-7
-4
-2
-2
-3
3
-8
-4
-1
3
-2
-6
1
-1
-2
-5
4
0
0
7
-2
1
0
6
-5
-5
-3
-5
-3
0
8
0
2
-2
-2
-6
-1
1
1
12
-7
-3
-3
-1
-1
-6
-21
-5
-9
0
-10
1
-1
-5
-20
-35
8
-2
-1
-9
-5
2
29
29
10
2
-1
3
3
-3
-7
-16
-3
1
5
-2
-3
3
4
-8
3
-1
5
5
0
-1
13
35
-9
-2
-2
-2
-1
-3
-8
-3
4
-1
-3
1
-1
1
-2
-7
-1
-2
-5
-4
0
-7
0
3
6
-1
-4
-2
-2
-2
-13
-9
-10
-4
7
1
-2
3
-4
-6
-4
0
2
0
0
-3
-1
1
-2
1
-5
-6
-2
1
-3
-19
0
2
5
0
1
2
10
29
2
-3
1
-2
0
-4
-15
-54
0
-2
0
-1
0
-1
4
9
0
-2
-7
-3
1
1
-3
-8
-4
-4
-1
2
-2
0
-8
1
5
0
5
0
0
-2
-6
-5
-14
0
2
0
0
-2
0
16
9
4
-4
0
1
-1
-4
-34
-8
-4
-2
-1
-2
2
10
-6
0
2
-1
12
1
-1
-6
9
-2
0
6
-5
-2
0
2
1
-3
-3
-8
-9
-1
-2
2
10
1
0
0
2
-1
-2
-7
1
6
-1
-4
-3
-2
0
7
-15
-2
3
5
10
0
2
-16
-6
-6
-5
-19
-4
-2
-1
16
12
8
2
16
-1
4
-11
-11
-9
-3
-3
1
-1
-3
-2
2
11
9
4
3
-2
0
2
3
2
-3
-1
0
-3
-2
2
-4
-5
0
-3
-10
-1
-3
5
8
7
3
0
-2
-2
0
2
-1
16
-1
-1
-5
-2
-1
-10
-22
-69
-14
-4
8
12
-3
-1
-5
8
4
-5
-15
-28
-5
-3
-2
-26
-6
0
4
-1
1
2
8
13
6
2
-5
-4
-3
2
-6
-3
-1
2
11
5
2
3
7
24
-2
-4
-4
4
1
0
2
-8
1
-3
0
-1
2
-3
-6
-3
-3
2
-4
-4
-1
-2
4
16
6
1
0
-1
0
0
-6
-26
-2
3
8
4
-1
2
1
23
-2
1
-4
-6
-3
-3
6
-26
-5
-3
3
5
-1
0
11
19
3
1
2
-2
-1
0
-4
4
0
-3
-5
0
-2
-4
-7
-4
-3
-3
-3
-2
-2
3
-6
3
1
1
0
-2
-2
-2
1
5
-2
-8
-8
-5
-3
-1
0
8
-4
4
13
7
0
-1
-7
-5
-2
4
5
1
-2
4
21
16
5
-2
-5
0
2
-1
-18
-14
-7
-3
10
15
0
-3
0
10
-2
-3
-17
-33
0
-2
-2
5
-4
-4
1
12
0
-4
1
32
-5
-5
-2
-15
-2
1
9
1
15
3
0
4
0
1
3
-3
1
3
3
12
0
2
-13
-10
-1
-2
-5
-5
-2
-3
-3
-20
-5
-6
-4
2
0
-1
12
7
-2
-1
2
0
0
-1
-8
-19
-8
-3
0
4
-1
2
8
32
10
9
-1
-2
2
-3
-11
-11
-2
-3
-3
2
0
-2
16
-8
1
-1
0
-10
-1
-7
-20
-12
-6
-6
-4
1
-2
0
-4
9
2
-2
-6
-3
0
0
-3
-7
-4
-2
6
19
-1
-2
6
-15
2
5
-5
-33
-4
-1
4
-1
-3
1
-4
-14
1
0
4
4
-3
-2
2
-4
-1
-4
-12
10
3
-2
1
2
0
5
7
20
1
-4
-1
7
-2
3
-8
-17
-2
1
6
24
1
-3
-7
-29
1
1
-2
-8
-1
-2
5
4
-5
-6
-6
-10
0
4
-6
-1
-6
-4
0
6
2
-1
4
2
7
5
-3
-10
-4
3
5
11
7
0
5
25
3
3
-4
-11
-7
6
17
25
-1
-1
5
3
-9
-1
-10
-34
-3
-4
-3
18
3
-6
0
9
0
0
8
-5
-2
-1
-6
-10
-1
0
-6
11
-5
-3
-5
-3
0
-3
0
7
3
1
2
15
-1
5
8
-24
-3
2
2
-3
-2
0
4
31
-2
-2
-7
-6
-4
-9
-10
-33
-2
-3
-5
-2
2
-4
-16
-17
-6
-1
14
9
2
-1
5
17
-1
-5
-18
-31
-4
0
-3
-21
0
-3
-3
-5
-3
4
4
23
5
6
7
-4
-2
-2
10
21
2
1
2
17
0
-2
-17
-55
-3
5
6
7
0
4
-1
-17
-15
-7
-9
-17
-3
-8
-12
0
5
-4
10
24
3
0
-2
16
4
-2
-24
-34
0
-1
4
7
-4
-6
0
13
-2
1
-5
-20
0
6
1
-3
-1
-2
13
9
2
0
1
2
-2
0
-2
-4
0
1
9
12
-2
-4
-18
-31
-7
-5
-2
6
0
-2
13
9
4
-5
-3
-4
-2
0
1
12
-2
-2
-4
-17
-3
-2
-2
1
-1
-2
-4
2
-1
3
3
13
3
6
2
1
2
-5
-7
23
5
2
5
9
1
3
6
-33
-10
1
-7
-10
-1
1
9
-14
-11
-7
-5
-5
-2
-2
2
30
10
-1
6
0
-2
-4
-8
-11
-5
-2
6
12
1
1
0
12
6
2
-11
-14
-1
-3
-11
-8
0
-2
-7
-23
-4
2
6
3
-6
-2
-1
8
-2
-3
3
5
3
2
1
4
2
-7
-8
-31
-7
-3
-4
-6
-5
-1
-1
3
0
1
6
14
0
1
4
3
4
1
7
27
2
1
-6
-33
-6
0
-5
-45
-7
1
10
24
8
-2
-10
-20
-4
-7
-16
-6
-4
0
-5
-5
-1
-2
10
4
7
5
1
4
1
1
8
1
-9
-3
-1
11
2
5
-1
-4
1
-1
7
8
3
1
-2
10
4
1
1
6
0
0
-5
6
-6
0
-3
-10
-2
-1
-8
-7
1
2
14
38
2
-2
2
-4
-5
-5
-13
-49
-5
2
1
-3
1
-1
-1
11
0
0
-13
-6
-6
-8
-2
-2
0
3
5
8
6
6
-1
-6
0
0
-5
-11
-7
4
9
17
1
-3
1
-2
9
4
0
-5
-1
-3
5
1
-3
-6
-6
-3
0
-4
-1
3
-5
-8
-5
0
0
4
0
14
5
-3
-6
-2
-2
-2
0
-14
-10
0
2
-2
-3
-3
-3
-8
-2
0
-4
-4
-1
-3
-8
-16
-2
-1
0
-1
-1
-1
-2
2
1
3
-1
6
1
-1
-4
-6
-4
-4
0
-1
-1
2
3
21
6
1
2
7
-2
0
-1
1
-2
-1
-5
-13
-2
-3
4
3
-5
-3
-1
1
-1
0
5
-11
10
3
4
8
0
3
0
12
-5
-2
-5
-5
-1
-4
2
3
2
-2
-1
0
-3
-2
-4
0
0
0
1
7
0
-1
-4
3
-1
-2
-7
-2
1
-4
1
7
0
0
7
0
-1
-1
10
1
1
1
-1
-3
0
-2
-4
2
-2
-2
-4
-2
-1
1
-3
2
0
-1
6
3
-1
1
4
-12
-5
-7
-3
-9
-1
1
-5
8
3
5
-5
-1
0
-3
-8
-17
-4
-1
-4
-2
1
3
6
-2
-1
-1
9
4
-1
-2
-22
-17
-5
2
-1
-4
-4
-8
3
30
4
-4
-2
-4
-3
-4
2
-7
1
0
-2
6
-1
-3
-6
-13
-9
-4
-4
-3
-1
0
18
-5
-5
-6
-2
-3
-1
1
-7
16
3
-1
-7
-2
-1
-2
-1
-5
0
0
3
0
-3
3
4
23
6
3
4
6
0
-3
-6
-36
-4
3
2
-2
-4
-1
4
22
-3
-2
0
-1
0
3
-1
-41
-14
-7
-3
-1
0
0
6
-4
-9
-7
-5
-2
3
-4
-8
53
14
-1
-13
-8
0
-3
-15
-48
-5
0
7
2
0
3
10
52
13
4
-3
0
0
5
15
-8
5
9
8
8
-3
-1
2
-45
-13
-5
-19
-26
-14
-19
-29
57
0
-4
11
10
-5
3
12
-71
-26
-9
16
45
9
-1
-2
8
2
-3
-22
-64
-14
0
18
78
16
5
8
50
20
6
25
10
-2
-4
-21
-72
-42
-9
-38
-41
6
8
5
7
2
2
-7
18
1
2
14
29
15
6
48
-22
-5
0
7
10
1
-8
-45
7
-14
-5
4
19
9
16
43
68
14
9
-6
-19
14
-3
-31
-38
-20
-21
-35
-18
8
-1
26
-38
-2
-3
31
34
37
-6
-22
47
18
6
23
-16
-23
18
18
4
10
18
-3
27
-8
-34
11
-16
-11
-1
17
23
-14
-25
-81
-85
-14
-4
-6
3
-31
24
48
39
34
1
-19
-41
30
-41
-34
-32
-37
-35
-57
-87
-77
15
-29
59
12
10
-10
9
11
25
91
22
-1
23
17
7
35
43
101
-108
-24
-10
34
107
18
-68
-76
41
-3
-29
-21
-18
97
-22
-88
-64
-48
-6
-32
-52
-95
-3
23
119
52
0
-8
-14
70
17
-64
-117
-44
-25
-6
0
12
47
63
125
54
45
33
37
3
-9
-75
-128
-62
-22
-20
39
47
29
-43
124
15
13
31
-3
-3
9
31
23
-2
-4
-75
-41
-47
12
-65
18
2
-10
55
88
-8
23
16
45
21
14
33
-27
-33
-27
-92
-90
-61
-22
-93
-76
-68
-61
17
95
34
1
6
7
-44
24
-63
-10
-35
-14
-15
-36
-4
34
67
-13
37
3
-2
39
54
24
88
60
23
34
55
65
98
-36
-42
-13
-61
-40
-7
-65
-94
-13
16
-98
-4
10
28
98
87
26
46
37
-13
-15
-41
-94
-10
-32
-81
47
-8
-4
16
24
-27
17
58
-113
-4
33
-8
8
30
6
40
49
58
1
11
17
27
-62
-81
-8
-12
18
40
20
-64
49
29
37
-13
-17
-21
-33
-13
7
77
9
31
16
39
40
73
15
-13
-44
-30
-27
-57
-75
-52
22
-49
-56
2
11
28
63
87
14
-13
-23
-5
-27
-56
-84
-54
65
95
58
26
54
43
74
114
-70
-30
-101
-88
-45
-40
-27
4
-46
40
-34
-4
-31
-2
-2
-83
23
37
-32
29
20
17
3
49
-39
-122
114
25
6
43
93
-59
-66
89
-84
-24
-2
-68
-106
35
19
57
60
58
16
-2
22
-31
-43
-23
-48
-12
-17
5
39
-20
10
-36
-22
-2
17
21
-7
-26
1
-89
81
4
30
45
32
-33
7
127
67
50
5
-4
-3
1
13
-76
-62
-18
-47
-36
-38
57
10
-10
-74
-14
18
10
17
-15
15
76
112
-18
-18
-14
-77
-100
-33
-62
-51
-43
-19
-15
-19
31
10
84
100
47
24
23
35
4
-4
-50
-97
0
-10
-16
-23
39
18
-80
0
0
-13
-4
42
-8
12
66
16
-7
7
21
-18
-38
-15
-19
8
-3
7
-10
11
11
4
-103
30
-45
-21
-16
-92
-79
12
102
-59
27
15
18
20
-9
29
53
101
20
-1
-8
24
93
-7
26
-34
-14
6
63
97
-40
-14
-24
23
-15
-30
-42
-43
3
-7
-30
25
-3
6
-27
-66
50
-19
-63
-97
-31
0
17
51
-67
30
57
39
5
1
-12
-27
19
25
84
59
6
-7
15
57
2
13
-12
-53
-7
-8
14
11
0
-19
-32
-1
-5
-19
-26
-16
79
-4
-31
20
22
19
7
8
-56
41
16
26
0
2
0
-31
21
19
-67
116
19
16
9
4
-7
-20
49
15
-5
-22
-8
-10
-36
0
-1
-56
-16
-8
7
10
-34
4
84
79
34
10
-34
-49
15
-10
-10
-84
-29
5
45
71
-20
-1
17
37
18
18
-29
-43
-33
-18
-66
-58
-81
-33
-19
-37
26
-45
38
83
39
4
42
85
9
14
78
-41
2
4
-47
-65
-7
-14
0
96
37
2
20
44
89
16
39
34
19
21
5
14
-69
-9
-20
-83
-65
-34
-23
-51
-23
-9
-10
125
45
10
11
5
14
38
-90
-59
13
15
-3
17
70
-45
82
-44
-17
2
11
-12
-7
12
-14
89
21
4
15
46
36
-18
-88
-118
-2
-7
-9
-3
-7
26
82
-27
-17
13
5
-10
-10
-8
65
101
56
5
0
-6
48
10
-39
-128
-28
5
-6
31
26
-9
70
127
41
-8
-4
7
-14
11
-71
-37
-7
10
24
7
-54
-1
59
-75
2
6
-20
-34
-23
-10
-60
-48
-38
-14
-18
-57
-30
5
3
23
-7
-16
21
103
30
27
17
-21
2
16
-17
-63
22
-15
-47
45
30
15
31
101
-19
12
49
-103
-17
-15
-35
-43
53
-33
-33
15
-1
-11
1
4
-47
-16
20
54
-27
-11
16
21
5
-1
-57
-7
-34
-7
-13
-21
-12
-11
42
-12
42
27
16
22
10
30
-39
-14
-20
11
22
10
-21
-2
84
93
52
-15
-14
14
58
14
-64
-93
-13
-9
-33
-39
-26
-9
19
-19
-8
-12
6
8
6
50
47
-5
1
9
-28
-26
4
-14
0
22
-21
10
31
15
-12
8
-21
19
-7
-9
-22
2
55
-19
-9
0
7
1
-5
21
-14
17
29
69
13
4
7
-13
7
-8
26
47
8
-9
-7
-7
-18
-22
-102
-86
-24
-14
21
16
30
-9
-3
35
-19
-18
-45
-14
-24
-14
78
29
11
13
29
25
24
-11
40
44
12
16
37
35
-8
18
36
-59
-16
8
-4
-37
-25
-16
-48
116
41
11
51
72
63
12
57
46
15
12
-63
-48
-29
-12
34
-26
-20
-21
-12
12
0
-30
25
-68
-18
-37
-27
-13
-18
4
-21
-20
-8
-2
8
15
33
25
62
0
-1
18
35
-1
0
5
-110
-31
-1
18
14
19
-3
-7
55
63
12
-5
-34
-61
-47
-8
6
108
26
7
25
44
25
-1
-24
-59
-16
-18
-12
-11
9
-17
8
-28
-26
-8
-43
-115
-56
-19
-26
-54
-16
-8
18
28
1
20
57
61
19
11
-16
-18
-15
-13
-56
-71
22
17
30
44
7
-27
-91
11
-1
-14
30
64
-21
24
-48
16
9
6
-64
-100
-16
-23
-41
88
15
-10
-25
-42
-48
-4
2
-52
-34
-13
16
34
20
35
-59
-63
-31
-19
-20
15
5
-10
14
31
28
17
32
24
60
-5
28
-48
2
4
-16
25
-21
-5
-32
-37
-19
3
10
-22
-62
4
87
109
41
7
-16
-51
3
20
20
81
-25
-7
8
29
-10
-19
-102
-128
-27
-12
-11
-17
11
-16
19
3
2
-18
0
20
8
27
41
7
20
16
8
19
29
-13
56
106
16
17
13
30
-15
40
-59
-76
-10
-2
2
-9
15
-18
-35
-49
-27
-13
-8
-26
-1
3
-35
-59
-26
-9
-15
1
12
-16
-41
-3
0
-1
32
44
-19
25
45
80
20
0
-19
-72
-8
-2
8
-12
17
4
-22
-20
77
6
-29
17
-4
-3
3
6
-51
0
-13
-46
6
4
21
51
24
2
-16
-2
-22
-5
-9
-40
-8
28
36
95
48
20
17
37
13
-30
-50
-123
-21
-7
-5
-23
-7
3
-34
-29
-41
-14
1
24
9
-24
-2
-6
4
0
21
18
-32
17
-46
33
8
11
-8
-16
37
25
42
-4
39
8
5
5
-1
-8
-11
0
21
0
-27
-12
-29
-13
-3
-12
-31
-15
-11
-31
29
-16
-5
-32
-6
-1
9
30
-20
-4
19
38
-20
-6
10
29
-7
43
46
25
39
10
8
-9
89
-22
-34
-70
-37
-1
-8
7
-69
3
62
127
6
-1
-4
-18
-35
12
34
24
-11
-6
-14
14
46
-30
-39
51
1
-18
-14
-57
-31
-10
15
38
29
10
14
47
34
17
16
-100
-4
2
6
3
10
-1
-84
-2
-11
14
10
5
-43
46
97
23
24
-8
19
3
11
-30
-85
-63
19
10
-42
-59
6
-4
44
43
-14
-25
-14
-13
-15
-15
-26
-53
-8
4
9
30
-4
40
66
-72
-31
-2
-5
-30
8
3
62
62
15
-1
10
-41
-48
3
-17
22
15
13
22
70
23
-17
36
27
-25
-16
-61
-47
61
-18
-7
5
27
19
38
38
-77
20
93
-21
5
-4
-12
29
30
11
4
31
-2
5
13
-25
-6
-28
-77
-57
-32
-16
20
20
-11
-18
-73
38
-18
-11
-29
-40
29
33
64
0
3
9
70
118
78
-11
-10
-6
9
-5
-57
-120
-68
39
46
7
24
11
-16
-17
-1
-54
-85
-27
-26
-16
-8
7
-7
27
-1
69
0
-8
-3
16
-1
8
19
-68
1
7
23
26
42
-6
19
52
25
-1
0
-21
16
-10
-13
2
3
11
-3
-10
-41
-10
13
-45
-9
2
5
10
-6
-6
38
10
-18
-25
-13
15
-6
16
-14
-20
-1
5
12
-26
8
-21
6
-13
1
-5
15
75
31
-37
3
-24
-18
-6
-22
-73
-52
-4
29
-22
13
8
-8
22
-14
-21
-11
-12
23
19
-9
-27
-16
12
-57
-107
-8
10
33
74
62
-14
-32
38
5
-13
-18
-86
-63
-26
-11
22
-8
2
4
10
17
10
97
69
22
-4
11
21
-40
7
-35
-33
10
6
1
-16
0
-42
-118
-32
-26
3
-6
6
11
21
-13
44
50
15
24
46
13
4
33
-108
-42
-5
3
-29
-18
-30
-62
46
-16
-18
-23
-20
-25
19
67
23
19
4
37
34
-7
-28
-103
25
6
-4
3
-20
10
23
5
-30
6
-4
-50
-34
4
-5
63
20
-11
-15
-36
-52
-25
19
35
-10
-1
3
5
24
-1
-18
-13
-13
0
23
31
33
51
-66
-68
112
32
-9
5
-1
-66
-16
40
-68
-29
-5
7
24
-15
-2
7
1
0
-5
-32
-50
19
1
-8
-39
-29
-9
-2
-10
-24
9
20
40
9
7
27
33
18
18
90
127
28
-1
-12
-12
6
0
-28
-35
17
15
32
85
-14
12
14
-16
-33
-5
-33
-92
15
-1
-15
-37
1
-8
38
47
-10
-4
-13
35
27
9
-22
-51
5
33
40
-61
-17
-5
-25
24
29
-12
-29
24
-11
-18
10
-15
-47
25
10
-35
-11
8
14
44
62
12
-21
46
4
9
-24
-11
-55
1
67
9
-10
-6
1
-6
13
-6
-51
-52
-11
-14
-28
0
-8
-15
-23
55
38
2
14
34
4
4
-4
-87
0
14
42
23
0
-30
-91
79
-6
-10
-35
-31
-22
15
48
29
-12
-4
3
-1
-26
11
9
-98
-25
-8
-12
-3
17
-34
-32
-23
4
3
32
6
-3
3
-45
-30
-11
-6
-5
-53
-5
-15
104
30
12
0
-22
52
-31
-10
-11
38
17
14
44
25
30
13
56
22
-40
-11
-83
-125
-49
-20
-79
-78
-15
-18
2
51
15
-22
-45
-26
10
6
33
11
-16
16
45
37
11
5
-3
-9
-26
8
17
63
9
0
11
51
20
13
-34
-62
-8
4
12
50
17
7
19
-22
-42
-17
-10
-39
-13
-9
-94
43
9
-7
-58
-31
32
25
67
-40
-28
2
19
7
-1
-20
118
96
48
10
7
13
-8
31
17
-97
1
16
23
20
28
-44
-68
80
-11
-14
9
64
28
-56
-17
4
8
-5
-23
-81
-25
12
84
-48
-38
-10
16
65
-1
-8
-81
28
16
4
3
-49
-2
16
45
-11
-14
-9
-54
-74
44
2
-12
35
24
12
-3
40
-29
-13
-64
8
-9
-5
26
2
-2
11
44
20
9
-6
-10
2
-10
4
43
-61
-7
-3
19
31
31
35
-19
-23
2
9
23
33
37
-11
-15
106
13
-1
-49
-79
-50
-42
-73
-124
-48
-14
25
46
34
14
73
86
12
2
-13
-26
-44
1
13
-13
-5
-10
-24
7
45
18
9
0
22
20
19
12
-9
12
37
-5
2
0
6
10
24
-10
19
-24
-22
-8
5
12
-29
-7
23
-8
3
-1
-13
-63
-20
-5
3
28
17
4
0
7
37
-28
-10
98
-3
-19
-15
17
-11
35
75
-67
24
11
25
-1
-24
-2
-83
-45
12
8
42
93
32
-15
-18
87
-22
-17
-73
-119
-1
16
-1
-77
-7
6
7
30
-8
-10
-24
46
-6
3
5
10
-15
3
-47
36
17
-7
0
14
2
29
93
-49
14
10
35
24
31
14
-47
3
9
-6
-42
-25
-40
7
-40
-27
-40
-7
-8
-16
-22
-3
-86
-23
-10
3
31
14
22
33
38
-32
-8
-12
-14
21
56
34
102
16
6
10
-8
42
4
-30
-23
-24
5
3
-1
-9
-16
-14
-35
-37
-28
-20
-3
3
-33
9
-7
32
8
1
23
36
22
-13
28
-10
5
-3
-4
-17
42
12
-27
3
-4
8
-7
10
-33
-11
-5
65
26
9
1
-38
7
1
-3
-68
-23
-1
3
10
-29
-27
18
42
13
7
8
11
19
-22
-89
-61
-29
-12
-18
-68
-23
33
67
99
23
14
36
50
16
-27
-46
1
8
-2
-16
-55
-41
12
-50
-44
2
-4
-18
12
-24
6
-21
-18
-13
5
39
7
12
42
127
69
26
1
-37
-1
17
31
20
41
6
-1
25
57
25
-44
-97
-89
-50
-15
-33
-84
-11
19
31
54
37
6
15
62
3
-3
-88
-37
-26
-15
-20
-42
-33
15
80
39
8
14
21
64
45
10
30
17
-9
-5
-1
-47
-23
-16
-14
17
21
-4
-6
2
-5
-11
27
-11
4
10
6
25
9
-4
-8
-43
6
4
30
-3
-10
-24
-54
120
12
11
-22
-36
-62
-13
-32
-114
-34
-14
-32
-68
27
-15
34
14
-4
-20
-3
67
-13
-33
-86
11
-2
-3
-21
-52
3
56
53
8
8
9
23
19
-4
-32
81
1
-12
-8
13
-9
0
-14
-59
31
9
-4
-40
-44
-2
-23
6
-110
-41
0
17
21
-46
-10
33
113
48
-5
2
1
-10
6
-27
6
6
7
-31
-13
-26
-4
40
-120
-26
2
35
74
20
-2
-30
48
3
-6
-24
-81
-6
-5
-5
12
-2
5
16
38
-4
28
20
-42
-2
-7
10
19
-5
10
17
-8
1
7
-6
-26
8
10
-2
5
16
1
-7
49
22
16
60
42
24
13
15
-12
34
-12
33
-64
-42
-15
-15
-6
-1
1
-7
7
20
8
13
6
9
28
88
27
-11
-3
28
46
-13
-9
-64
-109
-1
-2
-5
2
18
-6
32
85
8
-11
-38
-69
12
10
-4
27
13
9
17
3
-8
3
-21
-25
-17
-4
1
22
-2
6
44
46
-5
-7
-19
10
26
7
-57
44
11
5
7
13
-6
6
-5
-38
-18
3
65
31
4
-15
-24
-31
5
-5
-96
-106
-14
13
13
-86
-20
-9
16
33
16
-40
-73
16
-12
-3
0
30
-26
-10
-2
46
5
0
-12
-83
2
-3
-5
-2
18
1
38
97
-1
8
4
3
-11
1
-26
-13
-7
-1
-57
-53
-7
0
20
51
2
6
48
33
-12
-17
-51
-26
-5
-16
-50
4
-12
1
10
15
6
-20
47
10
-7
-12
-8
-10
3
38
59
36
15
8
31
26
19
-13
13
-9
18
9
-2
3
-13
-7
-43
32
13
1
-6
-41
-13
0
16
-61
-20
-13
10
13
3
2
47
17
1
-1
-6
-17
1
6
1
-17
-2
-1
-9
2
3
-7
19
5
10
2
0
-21
-10
-5
-41
21
8
9
10
4
-5
2
-9
-13
-5
1
-3
23
12
-6
-9
-21
-13
-7
-16
-21
-7
9
7
-19
-2
-2
25
6
-4
-3
-25
33
-24
-9
-14
-10
-1
-1
23
15
20
7
14
0
0
-5
-21
-84
-17
0
7
3
1
-7
1
13
8
1
-9
-11
-6
1
-9
0
-5
0
3
11
1
10
23
18
26
1
-7
-11
1
-14
-31
-17
-8
5
-1
1
-2
-5
-14
-21
-22
-14
-27
-9
-4
-1
4
17
6
1
21
5
2
8
5
20
1
1
-3
1
2
8
5
10
0
-2
9
35
3
-8
8
-33
-15
-3
-18
-53
-9
4
-14
-31
4
1
-2
-1
1
-6
-1
9
-5
-2
-10
-10
-1
2
-3
5
-13
-4
3
9
1
-4
-3
9
0
-4
3
3
-3
26
-15
2
22
12
9
10
1
-17
7
-14
-10
-2
-3
-1
0
0
-1
1
11
1
-9
-16
-2
3
-2
4
-22
-2
10
11
-1
-4
-8
1
42
8
3
-5
2
2
-3
3
6
0
-3
4
1
-4
4
0
-29
-12
-11
-12
-6
-1
4
16
9
1
1
-1
-5
-7
-6
-17
-20
-4
-4
7
1
-1
5
-7
15
7
1
-4
2
-3
4
21
9
5
0
-1
0
1
6
-18
13
-1
0
2
0
-10
-1
6
-8
-1
-1
-2
-1
5
-2
4
-8
-3
-2
2
0
4
-7
-5
1
-11
-5
-7
-1
1
4
15
-17
0
2
4
-2
0
2
12
27
7
-1
-1
-3
-3
-5
-24
6
14
4
-2
1
2
-13
-6
2
1
0
0
2
-2
22
14
-7
-9
-6
-5
-3
-4
-4
-9
-14
-7
-3
0
-4
3
-3
2
-8
-1
3
1
1
1
-4
-6
-17
-7
-7
-5
-1
-6
-11
15
20
5
4
3
-2
-4
-4
-10
-13
-8
-4
-5
2
0
5
11
5
-3
-5
1
-2
1
-4
-21
-14
-5
-3
-2
1
-2
-4
12
4
3
7
1
-3
-5
5
9
-4
3
3
1
-2
-4
-1
2
-4
1
0
0
-2
11
-20
6
-3
0
0
-2
-1
-1
2
9
9
1
-5
1
-3
-8
-14
-49
-11
-6
-4
-2
0
0
1
-10
-9
-13
-5
-3
-3
1
6
14
5
5
6
1
-1
3
6
2
4
7
1
1
1
-2
-19
13
9
2
6
0
0
-2
-3
11
-10
-5
-1
-1
-3
-6
12
-22
2
-6
-3
-1
-2
6
-1
2
-1
2
2
1
3
2
23
1
-3
-2
-5
0
0
-1
-9
5
2
-2
-1
-2
-2
-2
9
11
3
2
2
1
-1
-5
-5
-10
-10
-8
-6
-2
-2
2
-1
-7
8
9
6
2
1
-2
-2
-2
1
0
2
1
-2
2
11
27
6
4
1
-1
2
-2
-9
-19
-5
-4
-8
-4
-2
-1
4
25
-2
-4
-1
0
-4
-1
-8
-34
-3
1
1
-2
1
-4
0
-14
-3
-1
-1
0
-2
0
0
12
-6
-3
-1
0
-2
-1
2
-6
6
0
-3
-3
-2
0
14
47
8
2
-2
1
-1
-15
-9
-35
-6
-2
1
-1
-5
2
-3
3
10
2
2
-1
1
-3
3
-4
0
3
1
1
1
2
-2
-2
-8
-6
-2
-1
0
2
2
15
-7
-1
-1
-1
0
-1
-10
-22
8
3
0
0
0
-5
-6
2
-9
-4
2
2
-5
4
0
2
-10
-3
-4
-4
1
-1
-3
-3
5
-6
-1
-2
2
2
6
-3
-7
-1
-2
1
-2
2
-14
-16
4
3
-2
-1
-1
2
-5
-9
1
3
1
1
0
-1
-2
-2
-1
-1
-2
-1
-1
-2
6
8
2
-1
-5
-1
1
-1
-1
14
2
-4
-4
-4
-2
-1
0
-9
-6
3
8
10
0
2
-1
-17
-2
-1
4
17
-1
-11
-9
-8
-8
-7
-16
-54
-4
3
7
5
-3
-7
-5
4
-1
-6
31
5
14
7
-5
-6
1
-1
-10
4
1
1
4
15
1
3
-1
2
-4
5
8
20
1
3
0
0
5
-4
-1
-8
-1
-3
-11
-22
-13
-4
-1
0
-3
2
-2
-7
-7
-1
-7
-10
1
-11
3
3
6
4
5
6
-3
-3
4
0
-3
0
-2
-5
2
1
-3
24
8
1
1
6
-2
-2
-4
-26
-3
-2
-7
-7
-2
-1
-2
11
-8
-8
-4
-2
1
-1
1
9
2
2
10
15
-1
9
-5
-15
-1
-9
-6
-8
0
1
5
12
1
2
-6
13
2
0
-10
-14
-2
1
8
-16
-3
0
-1
2
-3
2
-11
-43
-4
0
-7
7
-2
-2
3
10
1
-5
7
-1
0
-4
-12
-32
-4
0
0
-5
-3
-5
0
23
2
0
3
9
-1
-1
-2
8
1
-5
-10
-4
0
-2
0
-6
-4
-1
-2
3
15
11
8
12
2
3
6
-4
2
4
-1
4
-2
-1
-12
-19
-12
-2
0
-8
-4
-9
4
18
-6
-7
-7
3
1
-3
-4
-27
-5
-11
-2
-5
-2
1
-3
5
3
-7
-6
-5
-1
3
7
15
4
12
7
9
0
1
-3
5
18
6
2
0
0
-1
-2
-8
-7
-4
-1
-5
-1
1
1
10
8
8
3
5
2
-5
0
-15
-5
-6
-5
6
-2
-2
-1
6
-6
-5
-7
-7
-4
1
-3
3
-2
-2
0
-4
-1
2
-2
-8
-11
-7
-2
3
-2
-1
-7
1
5
-1
2
7
2
-4
9
-19
2
8
8
4
-2
0
-7
25
1
0
2
-2
-2
-4
-3
-5
-10
-5
-11
-19
-4
-1
1
1
-4
-5
-4
3
1
-3
-1
-7
3
-1
-1
-8
-3
-2
-1
-1
1
5
4
16
-1
1
-2
-3
-8
-1
17
53
5
-2
1
7
3
1
-11
-54
-4
2
-2
3
-3
-3
-4
6
0
-2
-2
-27
-7
-7
1
-3
-3
-2
5
15
6
5
-5
-5
2
-4
-4
-21
2
1
9
23
1
1
0
11
-5
-2
-3
-3
1
0
3
7
-3
1
-4
-11
-2
1
-2
-7
-3
-4
3
5
-2
-3
2
8
10
-3
-1
4
-3
-2
-9
-8
-17
0
-7
-7
-2
3
12
6
7
6
2
0
1
-3
-9
-2
3
-1
-1
-8
0
-3
-8
-4
-8
-4
-1
1
3
-1
-3
-4
0
-5
-5
-4
-2
0
1
5
-2
-3
0
2
0
-2
-1
6
-2
3
1
-6
-2
1
-4
-11
-2
-1
-2
2
-2
-1
3
-3
-3
-5
1
5
2
1
4
14
6
2
-2
-1
1
-6
2
1
4
1
-3
-16
-6
2
1
-12
-4
2
8
17
2
0
-5
11
1
2
-1
2
-1
-6
4
26
-8
-6
-16
-29
-6
0
-9
-33
-1
-7
-1
4
0
0
2
-5
-17
-6
-6
3
1
1
-3
-6
3
4
3
10
-1
-1
0
-4
2
5
3
-6
1
-4
-3
24
-2
-3
-7
-7
1
2
10
16
3
-1
3
7
1
-3
-1
-11
1
-2
13
4
-2
-1
0
-8
-6
-1
-6
0
0
1
-6
2
2
-1
-4
-8
-1
-1
-5
-5
4
1
1
5
-2
-1
7
-1
-1
0
-7
-8
-2
-1
-3
-2
1
-2
0
-11
-3
2
7
-9
-2
2
5
2
-2
1
-1
14
11
0
-3
4
1
0
-1
2
-3
4
1
-6
-3
-4
-4
23
-3
-4
3
8
0
0
-2
-49
-11
-1
-4
5
2
-5
-3
0
1
2
-3
-10
0
2
-4
-1
3
-1
1
-6
-1
2
2
-1
-5
-4
0
8
1
-2
-5
5
-3
-3
-4
-3
-1
0
1
-2
-2
0
0
0
-1
-2
-8
-11
-4
-1
-3
1
0
3
-2
5
6
4
2
-1
-2
-4
6
26
2
-2
4
3
-1
-3
-2
-26
-7
-5
-7
-6
-3
0
4
11
-1
-3
-6
-9
0
-2
-8
-9
-1
-3
6
14
0
0
4
7
3
-1
0
-2
0
2
8
5
-7
-3
-8
-23
-4
1
-11
17
8
2
2
5
0
-1
-9
-29
0
0
4
5
1
-5
-1
-5
1
1
-4
-2
-2
-3
-5
-6
-7
-4
0
8
0
1
3
-4
-3
-4
-4
-2
1
0
0
0
2
-2
-2
0
0
2
0
23
1
1
2
11
0
-2
-3
-12
-1
1
6
10
-1
-5
2
4
-6
-3
-6
-22
-2
0
-4
-3
0
-6
1
1
0
4
-1
-6
9
9
-1
-9
1
-1
-2
10
4
1
0
0
-3
0
0
-8
-5
-7
-2
2
-3
-1
4
3
-1
-5
-9
-1
0
-1
3
3
-3
2
-1
-15
-1
-1
-2
-3
0
4
10
10
1
1
-3
-3
-3
-4
-1
2
0
2
8
9
2
-2
-5
-7
-3
1
0
-6
-1
-6
0
6
-1
-3
-10
-3
-4
1
-2
-3
1
2
13
-5
3
4
5
12
2
-4
-14
17
-2
2
-3
-12
-1
-2
1
-6
2
2
2
5
1
2
0
6
5
-2
-3
-2
0
0
-4
-9
-3
0
-4
-3
-2
-1
4
-12
-7
-2
1
10
-2
2
0
7
1
0
0
1
-2
2
11
16
2
0
0
-5
-2
-4
-4
-15
4
6
0
3
0
-1
-3
-1
-2
0
-2
-2
-1
-1
-4
-14
-12
-8
-8
-6
-1
-3
-2
7
2
-7
-3
0
-4
2
2
6
2
5
1
-2
-1
-1
0
-10
-7
0
1
-1
-2
-2
-5
-12
5
1
-7
-3
0
-1
-1
3
-5
-4
4
2
0
-2
-3
1
-4
-3
0
-4
0
6
-1
4
5
4
1
0
-1
-3
-1
3
-3
-8
-1
2
-1
-1
-2
-12
1
2
-2
-2
0
-3
-3
-1
0
0
1
-3
-2
-3
2
-4
3
-1
3
0
0
-1
2
-3
-2
0
3
0
-1
-2
-9
9
-6
-5
-6
-3
-3
0
1
4
4
0
-7
-4
0
-2
2
8
0
1
6
2
0
-2
-5
-24
2
6
3
2
1
-4
1
5
-1
-2
-5
-5
-2
7
-4
-1
-7
-8
-4
-1
0
-3
-3
-7
0
-1
-2
0
0
0
3
11
-1
-2
2
-1
1
4
8
-20
-1
-2
-4
-2
1
1
2
31
-1
-5
0
0
-2
-10
-16
-42
-3
1
-6
-6
-4
-1
-2
20
-1
5
7
3
1
1
-2
-10
-7
0
0
1
0
-4
6
22
6
0
5
2
-1
3
11
-9
2
-1
-2
0
0
-3
-1
3
1
-1
-2
0
-2
-4
-17
11
-1
-1
0
1
-1
3
16
-30
-4
-2
-7
-2
-3
-5
-11
3
-7
-6
3
-1
-3
-2
0
2
1
-2
-3
-2
-1
0
5
45
13
3
2
-2
-4
-4
-15
-53
-10
-5
-8
-2
1
3
0
-10
-8
-4
3
-2
1
-4
-15
-15
-2
0
3
3
-3
4
10
10
5
5
3
0
-1
0
27
42
7
-2
-1
-1
-1
-2
-7
5
1
-1
-4
0
2
4
13
-8
0
-1
0
-1
3
-3
-7
-43
1
2
2
5
-4
3
-11
14
2
1
15
54
7
0
19
-15
-11
-7
-16
-54
17
1
-13
10
-6
-4
1
10
-15
-7
18
12
-1
3
0
14
-13
-1
11
10
9
3
1
-16
-16
-5
-2
5
7
2
12
45
7
0
-20
-52
-11
-3
-15
-26
-3
-4
-30
1
-2
-2
-20
-21
3
1
23
35
-3
-1
5
8
0
-6
-13
-12
-2
-7
-7
-5
-6
1
1
-28
1
1
2
2
14
-2
7
52
8
-2
9
6
-15
-5
-12
-13
0
3
-1
-11
-5
9
-1
-7
-2
3
-4
-6
1
16
72
47
18
9
14
20
5
-12
-24
-90
-29
-13
-8
22
34
-2
-64
69
12
8
-11
-39
-10
33
88
90
43
27
65
96
49
-35
-118
-96
-50
-28
-17
-62
-40
-23
62
73
12
5
-35
-37
-4
-22
58
61
13
-2
22
21
-96
15
-13
-66
-15
-11
-59
-70
13
28
12
-34
3
20
93
121
106
23
-12
59
44
20
20
-11
10
-50
-53
-120
-43
-23
-30
-43
-55
17
-49
-45
0
-32
-101
2
-60
-2
18
31
-2
16
33
-32
-74
5
-61
42
29
8
81
65
73
77
35
108
41
50
105
108
127
12
0
21
-32
-3
-69
-86
2
-13
96
121
18
-41
-74
-3
-102
-13
33
-83
-11
-38
-68
6
-15
38
-72
-125
-36
1
13
-47
78
-7
81
68
0
27
14
-52
34
20
12
92
32
4
-23
37
69
-23
91
11
25
23
38
41
-21
-28
-15
-40
21
-25
-51
-5
20
23
19
-26
-25
-3
50
57
0
-47
-78
104
11
19
1
-48
-95
72
98
25
-27
-23
-1
-15
-31
0
-51
45
22
10
-16
-4
-8
3
-46
-73
-41
-11
35
10
-1
-2
-65
-15
40
-19
-15
-17
-30
84
-40
-114
-35
47
26
28
10
-14
69
1
28
-39
-54
5
58
17
1
127
38
30
57
-1
-83
33
127
54
-6
13
1
-6
55
-68
-46
-95
-85
-36
37
57
-42
39
85
99
31
20
-61
-119
46
-33
116
-71
-36
-13
12
127
48
11
-100
13
-15
2
11
-27
-36
12
14
127
71
18
13
40
29
-29
-12
20
-42
-7
9
7
-78
-56
-52
77
26
-31
-25
28
6
-19
-9
-125
-45
5
-11
-60
-74
-17
-15
54
-47
-14
-14
-19
16
12
6
-84
-18
-31
1
10
-29
-37
16
86
59
26
1
-20
-15
23
-6
-93
-35
-9
-17
34
127
7
-33
31
18
13
1
-37
-72
-42
-62
35
-17
-9
1
13
18
3
57
-68
0
-3
-5
-40
-51
-10
-67
69
28
8
9
-10
10
34
15
-128
-24
-7
-18
-42
16
21
27
81
12
7
4
48
-42
-34
25
78
52
5
0
-33
48
-39
-43
-83
-33
-24
-15
-18
-45
-24
14
93
10
6
44
60
-21
6
-87
-74
-36
-8
-60
-70
-6
7
-30
59
15
9
41
46
-25
42
-15
-75
-39
-16
-5
44
55
7
62
-46
25
3
-42
-53
5
-35
-65
-86
-26
1
50
72
7
56
93
-14
0
-1
-7
-6
-19
-45
108
-42
-4
-21
-12
1
79
-42
-113
-104
-33
-18
-13
-36
-42
4
127
93
17
34
28
26
0
-61
-128
-15
-4
-14
-31
-63
-34
-37
-3
-5
0
-4
14
63
26
17
-1
61
11
-1
-24
-38
-20
21
53
-4
3
5
5
-16
21
24
64
69
-1
16
22
-11
-72
-7
24
87
30
-7
-3
-27
-46
-34
-121
24
-52
-25
-45
13
57
8
-84
-124
22
-7
39
11
2
-29
-30
-95
-9
-10
-24
41
-41
13
16
64
21
21
21
-50
-95
7
112
51
1
8
-45
-28
-25
-23
-76
-111
-65
-33
11
53
81
-65
-59
74
23
-8
-9
-29
-36
38
110
85
34
20
34
30
17
30
-30
-113
-24
18
-16
-13
54
-25
27
127
-2
-15
-11
14
-16
57
72
1
11
-15
9
9
79
-44
-87
21
-3
-9
-22
21
22
17
90
47
-6
12
51
37
51
17
-68
-61
-17
27
17
4
-37
-3
73
80
64
3
-29
-18
65
-1
52
-92
-32
-3
-2
3
-46
-22
-46
100
45
-16
2
12
10
7
-26
25
-5
-5
0
0
14
20
-4
-5
-34
-15
-6
-5
37
28
17
-18
-13
9
5
11
16
7
52
-9
7
0
10
49
23
-2
26
116
24
1
-10
-107
-87
48
-14
-77
8
44
18
19
-8
-6
-22
107
-12
-11
-22
-15
-65
-34
46
-88
24
-21
1
14
10
1
-48
-59
6
11
11
48
60
39
54
-12
-49
-42
-50
-8
9
-14
-52
-98
3
22
35
-1
35
20
62
67
8
11
4
1
-4
21
88
52
26
15
3
10
72
-112
-128
-97
2
0
25
47
89
6
108
-38
-36
-23
-46
-33
-38
14
-75
-97
-8
-5
-2
-27
-46
-9
95
104
43
9
-2
5
-6
97
-4
15
-41
16
26
2
34
-79
-128
-55
-24
-26
1
78
16
33
76
115
41
7
-17
-106
-38
-46
-21
-125
-62
-10
0
18
-28
-13
-51
44
-23
-16
-25
-27
-4
34
60
101
45
7
11
15
-2
8
-57
-74
-25
-9
10
31
56
11
67
-74
12
0
-31
10
43
23
16
12
-29
-8
-3
-36
-50
-48
8
62
5
-6
-30
-19
1
-18
-49
44
-2
4
38
43
-2
34
91
29
34
13
-2
-6
21
-31
-120
-110
-19
8
21
-14
-95
5
-9
39
9
-5
-11
11
47
-37
-16
24
22
14
-9
-29
-27
35
71
-63
5
11
22
62
-18
-10
16
76
0
-21
-46
-74
-74
-13
2
-46
-46
-7
13
-18
-42
9
21
83
38
-8
-16
-12
-17
-37
79
57
30
4
7
-4
-18
-1
-82
-26
12
16
16
38
24
55
14
94
55
17
1
-48
1
-20
-16
-49
-71
-23
4
48
34
6
-119
21
-32
-18
-28
-51
-31
3
114
14
42
22
24
29
19
14
63
-83
-13
1
22
59
121
-11
-113
80
16
12
-34
-57
-64
-8
83
4
-6
-18
1
19
-52
-56
-105
37
15
5
8
4
27
25
75
-128
-30
-10
5
21
25
-16
4
-7
-30
-8
29
28
-12
11
-25
40
-5
-5
-33
-48
-39
28
63
-33
5
13
-1
-6
-16
-1
-84
127
69
38
9
26
24
41
79
-18
-15
-17
8
-25
-97
11
-18
50
10
-1
22
9
20
-6
14
-11
-7
-9
-8
26
2
40
-26
-87
-46
-3
4
-34
-59
-73
-63
6
-3
-4
-5
-34
-17
19
2
47
1
-3
-8
-4
6
32
9
10
-14
-3
-15
-21
11
46
97
123
41
29
10
24
-21
-23
-65
40
18
-6
-18
10
47
-44
22
-121
-16
-14
1
-27
-58
24
-20
-1
-23
-1
14
37
91
-20
3
38
4
-18
-10
-1
-39
16
46
-3
35
22
-7
-27
-12
17
-18
59
13
13
16
23
9
14
13
-27
-38
-16
-23
26
-15
30
27
42
9
-9
6
-42
25
-6
-49
-52
-11
-4
34
72
-13
-5
-25
-113
-44
-5
-49
-70
-15
17
114
24
14
11
3
12
5
1
-62
-71
-12
-3
39
66
1
4
29
66
19
-8
-90
-92
-1
-26
32
-88
-66
-22
35
20
-101
-23
-34
13
16
3
32
55
20
-72
96
-59
-27
-14
-67
-71
-78
32
33
3
16
10
18
-1
70
1
-36
77
20
12
6
23
27
-24
80
84
9
-6
2
-16
-7
40
49
18
30
26
18
41
28
-59
-98
-62
7
-21
-21
-10
-25
83
36
98
-7
8
6
-13
-9
-47
1
-50
11
-13
13
8
-17
48
-16
-31
4
16
-1
-17
10
3
73
127
27
9
9
26
24
-37
-128
-37
-39
-26
-17
18
-12
-3
47
41
12
9
30
26
-23
-14
3
0
-21
-20
-46
-68
38
37
38
-62
-5
3
-4
20
-1
43
67
5
4
17
19
-3
42
-9
-101
-1
-18
-11
-8
-14
-45
5
63
20
10
-8
0
-20
22
-18
10
6
-9
6
25
53
-58
-50
-127
-15
8
-6
-40
-59
39
41
107
-19
0
2
-4
-14
32
-51
-89
-12
-33
-10
12
1
-25
18
62
21
5
-1
6
8
25
7
20
88
50
14
-4
3
-20
14
-48
-73
-11
3
6
-18
43
-16
48
90
-26
-12
9
65
-18
36
3
-122
-17
-1
-5
-40
28
-30
-73
112
26
-1
-3
-1
-17
-24
-27
-63
-18
-1
4
14
13
58
54
10
31
10
11
28
1
12
-9
35
10
19
8
24
28
15
60
-19
-11
-8
8
4
66
-37
-103
-84
-40
-26
-38
-31
-100
22
34
91
20
-1
-4
-30
53
-39
-39
-58
-33
-20
-22
11
-37
-39
-3
-33
22
17
15
1
-4
57
67
30
-6
0
-5
-4
30
-43
-69
56
-17
4
5
28
-3
47
86
70
59
22
42
37
39
-44
-77
-74
-51
-22
-47
-47
20
-8
16
127
15
6
14
6
-5
-16
64
-117
-31
-30
-23
-28
-4
3
-18
1
-31
-15
-4
-4
-21
12
51
27
16
8
25
77
22
10
-3
23
37
22
-3
-64
-21
-46
-100
-52
6
2
7
37
-30
-11
22
37
-38
-22
-41
-32
-58
63
-23
-42
-50
-26
-4
19
-3
20
90
94
28
-15
-19
-6
-19
2
-128
-100
20
24
33
36
26
-47
32
-35
-17
-5
25
82
75
19
59
89
22
2
-28
-106
-76
-15
-50
-2
7
21
14
51
-23
-21
19
1
-24
-6
-5
-2
-1
4
-52
-4
6
-7
2
27
-12
-18
54
-11
36
14
-25
-41
-4
-21
-7
-94
-41
-7
46
29
34
18
-5
127
7
-13
-53
-57
-10
12
-7
-115
-7
19
-12
-27
55
21
53
99
8
8
42
52
-62
-46
13
-22
8
-36
-55
-58
-33
43
8
-21
48
21
27
18
15
-13
-3
44
-51
-18
-2
-49
-50
-7
-40
-90
-2
-8
-3
62
44
25
88
21
5
19
2
-48
3
-19
47
54
-6
14
10
1
-44
-48
-50
78
22
-19
-14
-56
-8
-22
86
-123
-2
3
-7
-25
-9
3
-116
-65
-32
-12
14
83
21
8
78
27
-5
-10
-11
-27
2
10
5
-17
36
33
4
-2
35
-1
41
19
1
1
54
72
-4
-7
43
74
22
-6
-62
-87
-25
-12
-92
-102
-16
-6
9
59
30
8
-8
52
8
3
-5
-29
-42
36
18
-62
-7
10
14
24
32
-17
-24
107
16
13
22
9
3
6
-3
-59
-20
-17
-21
-16
21
-15
-4
30
18
9
19
77
35
11
-50
-12
6
-9
-6
-40
31
18
8
5
-16
2
7
42
-44
-39
43
-100
-8
-3
-48
-70
31
-3
-43
-6
-36
0
57
56
-75
-6
26
93
20
-19
-66
-96
57
-12
-72
-128
-31
-2
23
41
-9
25
-9
127
20
-6
-1
-16
-13
-27
36
-48
-7
10
15
47
-12
17
14
40
26
21
20
31
-8
55
17
0
6
-11
-11
-41
14
-49
-128
70
-7
-2
0
-1
-28
13
1
-92
-38
-5
-13
-39
2
-23
5
78
50
-5
-11
38
3
43
9
-10
-36
4
5
6
6
-7
-31
72
42
8
54
41
-29
29
122
-19
22
-5
-70
-93
45
-71
-67
-2
-38
7
12
45
-9
6
113
70
13
-4
-23
-4
18
-5
-17
-48
0
5
25
28
-47
13
23
55
7
-4
-14
-59
-15
-52
-99
-85
-49
-22
9
19
-13
25
-21
35
0
7
13
6
9
14
33
81
24
12
-2
36
40
8
-27
-25
33
12
27
11
-17
-7
10
-65
-31
-14
-57
-117
-38
-41
-15
-12
4
-2
42
56
14
47
85
85
9
9
-10
-50
24
-20
-92
-112
-27
-8
-11
-5
-13
39
127
35
11
-1
6
54
24
-13
-9
-28
22
11
-11
-78
8
-16
-47
-5
25
10
39
100
30
-28
-44
12
-10
1
-39
-99
-16
22
46
-29
-7
-12
-9
38
-18
-35
26
-21
-2
-11
10
46
18
38
-95
-47
-46
2
0
-8
0
64
44
-9
4
1
24
60
16
-34
-60
-42
11
1
11
-17
-8
17
-11
82
37
6
19
45
27
73
122
-53
-14
-19
-93
-82
-29
-56
-94
-2
-29
-16
-7
-33
-26
21
11
-14
1
17
30
62
5
-28
63
83
12
2
26
50
-5
-26
-38
-40
4
-5
-11
-40
1
17
-2
12
-7
3
28
47
-13
-43
-33
67
-1
-15
-56
-113
-3
8
-14
-17
-1
-3
1
64
30
0
58
-79
-47
-2
1
-35
-47
-28
-36
42
1
-9
-3
28
9
15
7
70
17
5
32
26
4
44
14
54
29
10
-13
-18
76
-34
5
10
7
-11
-24
-10
-35
29
127
73
17
12
37
27
17
-16
-100
-30
-44
-11
-27
7
-24
1
-10
-94
-28
-12
-9
-27
-15
-25
25
89
45
19
25
36
12
12
4
-40
8
-3
-13
16
18
-4
75
80
28
9
17
-14
-49
-47
-43
-46
-39
-13
-32
-43
-45
7
24
-24
-8
-4
2
-42
-20
-8
3
25
-6
1
49
94
14
24
-54
-64
-2
2
-26
-67
34
-10
-66
-18
-16
1
-61
-37
-16
-36
12
-20
-43
-18
25
16
-32
-12
-36
-21
16
12
22
47
31
53
71
58
7
6
8
-60
-49
28
17
-35
34
7
14
20
10
4
42
-60
-51
-26
-23
-13
17
-21
-11
71
36
5
-29
-28
-11
16
-36
29
-17
15
50
87
34
20
5
77
-2
4
3
11
5
-34
-2
-68
-21
-21
-46
-45
18
28
37
4
-37
-15
58
47
-37
-47
-68
40
29
-2
-99
-51
58
16
-4
50
12
4
48
11
-21
24
39
60
19
22
-4
25
23
-4
-43
-83
-21
-17
-20
-37
-11
-58
-93
-37
-9
-6
8
9
0
-3
86
-27
22
15
17
12
-16
-42
2
-10
-23
-21
-7
16
34
10
34
-30
-3
-7
-27
-102
-57
55
74
62
14
5
18
42
-3
-50
-70
-128
-37
-27
-27
-26
-14
47
96
-9
18
26
31
40
6
-15
-43
124
34
7
-24
63
2
3
104
-62
-20
-7
5
-51
28
-28
-66
73
10
-2
21
-19
-15
21
4
-47
-40
0
-7
13
1
-24
42
97
-4
-9
-23
-9
-10
-16
-23
-103
-3
-6
-25
-67
-85
8
58
86
-2
9
16
45
0
1
-81
20
39
4
22
12
14
-11
-10
-53
-2
6
-17
-22
13
21
82
14
0
-1
31
66
31
-49
-76
-5
-9
-17
-29
-35
-19
-18
56
0
12
12
20
44
-28
-7
-23
-63
-29
-10
-29
-60
36
-16
45
44
2
-11
5
16
-21
-5
-57
-84
-12
-1
22
38
9
22
37
60
31
11
-10
-34
43
-10
-47
-30
-9
-1
-12
-6
-48
13
-1
-20
-25
11
34
35
10
4
-5
-2
1
-9
-31
-21
15
-4
-25
0
22
2
28
24
-4
22
51
54
21
4
-26
-26
30
2
-34
-89
-18
-7
7
20
-14
6
61
22
6
10
5
5
-11
7
-27
16
11
-3
10
19
-19
-26
-63
-39
-2
3
-12
-46
5
12
-23
50
-4
-7
13
41
-5
5
44
37
0
3
-15
-30
0
-3
-45
-57
-22
-8
14
27
-3
22
78
101
20
-3
-23
-15
11
-17
-62
-66
8
-1
-2
-2
1
11
8
2
-21
4
-7
-7
7
-5
-31
51
49
9
0
-20
-22
21
13
-43
-36
-5
13
28
11
0
21
58
23
1
-2
1
3
10
17
-32
13
7
2
-9
-8
-37
-11
-23
-29
-13
-21
-18
-12
-5
-14
-26
1
-9
12
7
11
6
14
28
2
-2
-4
9
-1
0
4
-30
0
10
3
-2
-2
18
-44
15
1
-3
-9
-16
-8
14
47
-6
-4
7
4
13
7
-26
-73
-21
-4
4
-4
1
-6
1
6
8
-24
-9
4
-5
-4
7
4
4
11
-6
-14
-18
-5
2
16
-11
-15
-6
9
13
-2
4
-9
6
-2
-6
-8
7
0
5
15
-4
13
6
2
-6
5
-7
-9
4
3
1
-3
-10
-4
-1
9
3
2
3
1
8
1
-1
2
-4
-13
-1
-12
3
0
2
6
-13
6
-5
0
-3
0
-5
-13
15
-7
-8
-2
-9
-9
4
18
-6
-26
4
18
13
1
6
6
4
16
8
3
3
6
-4
0
-10
-1
-12
-14
-6
-6
-5
-3
7
60
26
-6
-3
4
0
15
20
12
-6
6
2
3
-1
7
13
-15
-5
-3
-2
-8
-2
-10
-26
-23
-4
10
2
-1
1
1
8
-34
-3
-1
-3
-3
2
-4
3
19
-2
-3
2
1
5
11
2
6
-2
5
2
-1
-4
-13
-2
21
4
-6
-4
-3
-1
2
-13
-12
-9
-6
-4
4
-3
-6
-9
-20
-3
-2
-1
-4
-6
13
1
9
2
3
-1
-2
7
4
23
-7
-6
-9
-3
-2
1
-19
-42
-18
1
4
0
-3
-6
-5
9
2
-2
-4
-2
1
0
-28
-11
-1
2
4
2
4
2
17
-15
-2
-8
-10
-5
1
-1
5
51
17
1
1
-2
-2
10
4
28
9
5
3
3
1
-4
-20
-90
-30
-6
-3
-3
-5
1
-1
-3
6
8
-2
0
1
1
-2
-6
-24
-8
0
0
1
1
15
19
6
-1
0
1
-1
4
8
34
19
7
5
0
3
-4
-8
-20
-1
3
-1
0
1
-2
4
-2
-5
-6
-6
-4
-4
3
3
-3
8
6
2
2
2
3
0
-1
-10
-8
-1
-2
-3
-3
-5
-3
-12
-6
-11
-3
-5
-4
-5
11
-2
3
12
3
-2
-1
-1
-15
2
-1
-6
-3
0
1
1
9
-15
-4
-1
-1
0
-8
-4
-4
9
2
-4
-4
-2
-6
-1
-1
18
-2
-4
-4
-2
2
2
-14
2
-2
1
2
0
1
2
6
-1
0
-2
-1
-1
6
2
8
-3
4
7
1
1
2
-4
-14
-10
0
-2
-1
-4
-6
1
21
-6
-5
-1
-1
-3
-3
4
9
14
-3
-3
0
1
-2
-11
-19
-13
-11
-6
-3
-1
2
0
-17
0
2
2
0
0
3
-2
7
-5
2
-3
1
1
-12
4
2
2
-2
-1
0
-4
-3
3
13
-8
-1
-2
-2
-1
-2
1
-2
9
7
0
0
3
-4
2
-3
-2
-7
-3
-3
-2
3
-4
-3
-10
0
4
3
-2
-1
4
-5
12
5
0
-2
-2
-3
4
11
-15
-8
-5
-1
0
2
-6
-7
16
5
1
-1
-1
0
5
6
-15
-5
0
-1
-1
-5
-18
-5
3
-3
1
0
-4
3
3
-1
-13
-2
-2
-2
1
-8
-3
-11
3
-3
-3
-3
-3
-1
4
0
4
-2
-3
0
1
-1
11
44
-3
0
-2
1
-1
-1
-15
-29
12
2
4
1
-2
-1
-2
5
-8
0
-4
-2
0
-2
-1
-10
13
1
4
-1
0
0
2
-9
-11
-1
1
2
1
5
9
22
2
-3
-7
-3
-1
2
6
-15
1
0
4
0
-1
-1
-5
11
2
2
1
14
1
-2
-1
-23
-5
-5
-1
-9
-3
-4
6
2
-3
-2
-1
-3
-1
-1
1
-13
-6
-1
-2
1
-3
3
-10
27
9
4
-2
-2
1
4
-20
-60
-13
-3
1
5
2
-13
-1
23
-5
-3
-7
-2
-5
1
4
5
1
3
8
-1
1
1
-1
-17
-3
-1
0
0
-2
0
-4
9
7
-8
-5
-2
0
1
-8
-11
-7
3
2
0
0
0
8
8
4
3
-5
-1
2
0
2
-7
-5
1
4
-2
-3
-3
1
12
-4
-5
0
-1
-1
3
0
-5
-1
-8
-3
-2
1
-2
-6
-3
-5
3
0
0
-1
1
-5
-13
6
10
4
-1
0
-5
5
-6
-8
-8
-10
-5
-3
1
11
20
3
-9
-1
3
0
-3
-12
-22
-8
3
6
2
2
-2
3
9
8
2
-7
-1
2
4
5
-6
2
2
4
0
1
-2
1
3
-1
2
2
2
0
-2
-11
-19
-3
0
-3
-1
-2
-3
4
23
-6
-5
-8
-2
-2
-5
-15
7
4
0
7
18
1
2
-1
-14
-4
-3
-7
-23
-4
2
-1
9
-7
-3
-4
-3
-1
-4
-5
-14
-3
0
5
12
-1
-1
19
-6
-1
0
-9
-23
-4
0
-22
24
13
6
6
14
-1
-4
1
-23
-7
-9
-6
-5
0
2
-7
-4
0
-4
-6
-4
-1
-1
-4
-5
-4
3
9
8
2
-7
5
0
-2
-2
-1
1
-3
0
3
25
4
-2
-5
-4
-6
-6
0
-10
16
9
5
2
-1
-2
-1
13
-3
-5
-3
-2
0
-5
-5
-32
-11
1
-4
-6
-1
-7
-3
8
-2
-9
-4
3
2
3
5
-7
-15
-4
0
-3
1
3
4
33
17
8
0
-2
-2
-1
3
-3
0
-2
-1
3
-5
5
3
-7
5
1
16
38
3
1
-3
-10
-9
-1
5
-1
3
-1
-3
6
3
1
-28
-22
-7
-4
-10
14
0
0
-1
22
-2
-2
4
-28
-1
-1
-5
-7
-3
1
6
8
3
-5
-1
24
2
-1
5
-4
-6
-7
15
5
0
1
-11
-10
1
6
17
-8
0
-1
-19
26
21
10
1
-2
2
-16
38
-10
-12
-3
-9
-18
-4
-1
-4
-10
-3
-4
-8
-4
2
0
2
-7
-11
-5
-9
-5
-2
16
2
-1
-7
-8
2
-3
5
4
-16
13
-3
-6
-6
-8
-1
-2
1
4
9
-2
-1
-1
-1
-1
0
-6
3
10
13
16
2
1
-5
-7
-6
1
-9
-13
-5
1
-7
17
2
-3
-3
-5
-2
-7
3
-8
-13
-4
4
10
-1
3
-4
-4
-3
-8
-11
-7
4
1
5
-5
-4
-6
-13
-12
-4
4
1
11
5
2
5
-2
-3
-1
-4
-5
-1
8
10
9
1
-1
5
5
2
2
-4
-5
-1
-5
14
-10
-9
-7
-6
-7
-1
-2
-39
-10
2
0
3
7
-1
-1
-6
0
-1
0
-4
0
-1
0
6
-5
-3
-2
-12
-12
-1
-2
9
15
5
2
15
12
0
4
4
-16
-1
0
-3
2
1
-2
-1
22
-1
-1
0
-10
-5
0
-9
-40
-11
-5
-4
0
-6
-7
11
21
2
-7
-19
-51
-6
4
-11
2
0
-1
0
10
2
1
0
-34
-1
2
-2
-1
2
3
-1
8
7
-2
7
17
5
0
-10
-2
5
11
10
19
0
-4
10
9
-9
-5
-7
-15
-4
-1
-7
-11
5
-1
-2
-1
-2
-4
-9
6
-5
-5
0
-4
-1
-1
-6
-23
-7
-11
-7
2
-3
-1
13
17
4
2
1
-3
0
3
13
8
-2
6
12
9
2
-3
-13
-9
-4
2
3
0
-1
-7
-18
4
1
1
1
4
0
11
-14
-16
-2
-5
-1
-5
-2
-4
17
4
-5
-10
-24
-14
-1
2
8
20
4
-2
0
-4
-2
1
-3
-23
-9
1
0
4
2
-2
-5
5
10
4
8
4
-1
1
-5
-18
-10
-3
6
10
-1
-1
4
5
-1
1
-8
7
0
-3
-3
0
-4
-2
-7
-30
-3
-3
6
-1
-5
-3
-5
-1
-3
1
-2
10
-3
-8
0
1
-1
-2
8
3
2
9
5
9
0
-4
-1
25
4
-6
3
16
-1
-3
12
-30
-4
1
-1
-12
1
3
-13
1
-3
-4
-1
2
-1
1
1
-3
0
-2
-2
-4
2
1
-2
-3
-3
-2
2
3
-1
-1
10
17
9
-4
-13
-8
0
-1
-13
0
3
5
8
8
1
-3
1
15
-3
-3
0
-7
0
0
7
-6
7
5
3
0
0
-5
3
14
0
-2
2
7
-1
-2
4
-12
-1
-2
-4
-2
-2
-3
-12
-15
-1
-2
-4
-10
0
-3
-4
0
-6
-3
-11
4
-1
2
2
-6
4
7
12
4
2
-1
3
14
4
4
7
0
0
1
0
-2
-2
-6
0
-4
-4
3
-2
-1
-2
-1
-2
5
-1
-7
-7
-6
-12
-8
-8
-5
-2
-5
3
-22
1
-4
-8
-6
-1
0
0
-5
-3
3
0
2
0
2
1
6
13
5
-2
3
1
1
-4
-8
-1
3
8
0
-2
4
-6
4
-8
-4
0
-1
-1
-5
6
-2
1
-5
1
2
-2
-1
1
1
1
-1
-1
-2
-2
-2
-6
-10
-1
-1
-3
-6
-2
0
-6
-6
1
0
1
3
0
4
7
6
0
-1
-5
-6
0
2
12
3
-5
2
12
5
0
5
-6
-9
-7
-7
-7
2
1
-5
-6
0
-1
2
-2
-2
-2
8
-5
0
2
4
0
-1
-1
-7
20
0
3
-4
-2
0
1
2
16
6
-3
-1
-4
-2
0
0
-8
2
3
1
5
2
-2
2
9
0
-8
-6
-2
-1
-2
4
-10
2
-2
-1
-2
1
0
-8
-14
-35
-8
-1
-1
-2
-2
-5
0
9
-2
-7
-4
-4
-1
-6
-6
4
1
1
0
2
-1
0
1
2
-2
2
-3
-4
-2
0
-1
8
4
-4
-4
1
1
-1
-1
6
3
2
0
0
-1
-4
1
6
-5
-2
2
-1
0
-3
-9
-14
-1
-1
-3
-1
0
0
0
8
0
-1
-2
-1
0
-1
-4
-10
3
2
0
2
2
0
5
20
9
1
2
0
-2
-4
-8
-21
-1
-2
-1
-1
1
-3
-13
3
-7
-7
-6
-1
-2
2
19
7
-2
3
6
1
0
-4
-7
-11
2
0
1
-2
0
0
1
12
3
0
0
-2
-4
-2
-7
8
7
4
0
-2
-2
-4
-8
-17
-9
-8
-8
-4
-2
1
-7
-12
-5
-2
-1
-2
-2
2
4
7
1
1
0
-1
-1
0
0
-10
-1
-2
0
2
0
0
4
14
1
-3
-9
-1
-1
-4
-6
-9
0
1
4
1
-2
0
-3
4
2
1
-1
0
-1
3
-7
-15
-8
0
-3
-1
0
-11
-10
-2
-8
1
11
2
-2
1
19
27
8
-4
0
-2
0
0
-12
-38
-3
5
13
5
0
-2
9
22
3
1
3
-1
-1
6
-4
-10
1
-2
-9
-2
-2
1
-10
3
-1
-1
-3
-1
0
-4
17
12
3
-1
-3
-1
-4
-8
-24
-22
-16
-4
-2
-1
-4
4
4
11
6
1
3
1
1
-6
-1
-29
-6
-1
-7
-4
-2
3
17
27
3
0
-6
-1
1
2
-5
29
11
-2
-4
-3
3
-1
4
0
4
-2
-6
-7
-3
-3
-18
-84
-24
-4
2
10
-2
-3
-17
26
-3
-4
4
-12
8
-2
6
-20
1
2
-4
35
-5
-10
17
39
7
2
6
-27
3
2
9
29
1
-6
-22
-46
-35
-1
-19
-45
-17
-3
-4
-7
-6
9
-4
7
2
2
25
26
28
-8
7
-7
0
-4
-22
-13
-16
-4
12
4
5
0
5
19
13
-4
-18
-2
-4
-8
-24
-17
-3
-3
2
5
3
0
-2
-4
-11
-2
-19
-21
-5
1
10
28
9
0
-5
14
-5
-1
5
-2
2
-8
-9
-15
0
-1
14
9
-5
2
11
5
3
-2
3
-11
-1
9
2
9
2
7
0
6
-2
-2
16
25
-9
-6
-6
-9
3
1
-4
-39
-1
-4
-3
18
6
-10
-35
-11
-8
-4
-2
-22
-6
4
19
18
3
0
5
-4
-5
5
-9
-43
-1
0
-3
6
5
11
17
72
7
5
3
5
8
-15
-10
-61
1
2
0
-6
-15
-3
16
13
3
-2
-3
-5
18
-4
-7
-37
-1
2
9
40
0
-5
-4
-16
-6
-7
0
-40
-29
-2
-35
13
-4
-2
-18
-12
-4
4
-13
-31
-13
-3
5
9
3
-2
22
30
13
3
-8
-3
-3
0
-15
14
8
4
13
17
26
12
47
47
16
14
11
19
4
4
5
-47
-9
1
7
-23
-7
2
-16
77
13
0
-5
-12
4
-4
-3
-66
-15
-5
-7
4
-1
-10
22
9
-2
-6
-12
-10
-5
4
13
49
12
2
2
15
11
9
-2
-10
20
12
7
-5
-12
4
2
55
-7
-10
-13
0
-4
-8
-39
-44
-23
-6
-7
-3
-14
22
25
-51
2
3
-13
22
43
-5
63
116
46
5
12
2
-29
17
-55
-28
-17
11
22
-55
-10
-5
3
15
-23
-18
-1
-16
-55
-38
-27
98
1
-11
-23
15
-13
9
-39
-120
-34
-20
-3
-8
1
-3
65
122
47
16
-13
0
13
-17
5
71
56
20
67
86
77
34
-110
-94
-56
-11
-2
-52
-122
-57
-75
-62
-79
-34
-91
-49
107
5
75
-11
21
-13
-3
23
-84
61
88
121
42
50
17
-3
76
-39
-75
-55
-8
-52
-22
30
35
35
52
41
32
57
100
30
-68
34
49
35
-3
-23
-43
-5
92
-13
65
20
-29
-1
9
-19
-108
83
-1
34
9
11
18
13
81
-58
-101
-53
-52
-7
-24
-62
0
-60
-84
22
-23
-3
-7
-30
-43
-8
-66
-94
14
-35
-40
1
-17
62
100
96
-3
4
32
64
58
-42
25
-41
26
21
28
-19
-105
-6
83
-34
-10
3
-69
-51
-32
51
36
-75
-55
-57
-32
-2
41
-66
-23
-77
58
47
7
-1
-38
32
51
127
45
-16
26
125
127
27
72
-78
-32
13
52
48
4
-8
-2
0
8
17
-15
-99
-128
-59
60
-85
-52
-18
2
29
-5
53
42
-26
13
10
-11
-63
3
-33
-60
-96
-8
-6
-9
6
34
-10
-74
52
-16
-14
-9
22
38
-6
25
37
8
9
10
-41
-128
15
-105
-30
1
-12
-18
14
66
6
61
75
36
-6
-13
12
18
-29
-80
-128
-35
-7
-7
9
31
-3
22
4
19
19
18
-21
5
0
92
-9
-27
-17
-18
18
-126
-5
-68
-49
1
-2
19
0
40
5
57
88
45
24
10
-6
-70
-13
30
116
2
-24
-23
-5
97
-17
55
-45
11
9
4
8
14
-13
-47
46
9
9
27
32
42
35
22
105
1
8
-1
24
32
3
18
-119
14
8
-11
-21
-11
20
-18
37
-12
15
39
45
91
51
126
112
32
-9
3
12
-97
-36
-112
-91
-77
-25
-31
-65
24
39
70
127
104
29
-2
22
100
5
17
-89
-70
-19
43
98
-5
-21
-11
73
16
4
-81
-97
-53
-8
110
-24
-7
15
25
89
53
-42
-116
-99
-24
-21
-12
-11
-8
11
-14
44
21
-24
-16
-6
44
22
-49
-77
13
17
54
42
23
6
8
-75
-35
-7
-18
-13
19
36
-32
-5
-35
3
5
-13
76
-13
86
113
76
0
-18
-25
-100
-23
-128
-97
-53
-3
30
65
61
-9
17
-47
4
3
-20
-78
-81
-23
64
87
4
2
-2
-21
-128
54
67
91
6
3
-11
-20
7
-38
-73
-16
-25
-25
-19
-13
1
16
-41
-57
6
-2
29
36
7
-8
-4
-40
-18
-8
-11
-25
-29
-12
-82
-11
-18
-7
-8
-15
-31
-38
8
30
43
21
-18
-46
-16
26
-23
29
17
-4
18
95
97
-13
-6
-117
-43
-13
-21
-61
9
26
71
45
27
30
3
-1
-23
-32
-66
-31
-41
-27
-20
-70
-48
-16
98
38
2
-9
-17
-10
-18
11
16
85
9
-6
0
31
-65
10
14
-10
6
12
7
26
31
22
19
-51
-7
1
13
16
18
-2
39
127
58
10
8
-1
22
3
-73
-100
-36
2
28
48
83
-45
-99
37
-16
-11
-24
-43
-98
18
33
-24
0
-6
11
33
-8
1
-14
82
19
23
12
4
-31
29
127
32
27
4
27
51
34
-74
-71
-46
-24
-14
-58
-74
-18
8
-48
9
-1
-4
-1
-5
-36
17
22
9
-7
7
53
88
-3
-15
-41
55
-60
-28
-85
-83
1
6
-92
19
-9
-22
0
14
3
49
99
92
44
32
29
51
82
-19
-78
-73
-21
-31
-42
-60
-42
-13
-7
55
-1
10
23
6
-95
14
18
-72
-17
-8
-8
9
3
-30
-17
24
-3
10
41
39
-4
46
36
17
-6
8
-9
-56
-7
38
79
-9
23
7
-14
13
83
-43
-63
54
-4
-10
43
16
-93
-13
46
31
14
-14
-50
-30
-42
-28
4
-72
0
1
0
-17
44
2
29
-3
-9
-6
-2
-8
-41
23
32
-21
4
30
6
30
51
2
-41
29
17
14
26
-25
-27
-20
-45
127
11
-4
78
76
-11
2
8
17
40
-16
-95
-93
-32
20
-1
-25
-13
-9
19
5
48
5
29
109
-23
-9
-10
-6
-57
20
-4
-94
1
7
6
6
46
9
-22
21
3
7
50
71
-4
-3
76
53
1
6
-5
-47
36
6
-13
-108
-1
-8
-6
58
-2
-1
-5
66
1
-15
-26
-50
-31
-14
7
-128
-18
6
16
24
40
-12
1
9
3
-10
-22
15
-21
24
127
66
-14
0
3
-24
27
-48
-61
-42
16
1
-10
27
-3
-1
18
127
31
8
14
14
-17
4
-5
-92
-40
4
1
-22
40
17
71
63
34
2
41
65
27
-41
-41
-78
-43
-21
-79
-91
-46
-27
-110
-64
-20
-15
37
33
-5
7
-7
-22
5
2
-41
-45
15
-1
17
-31
-48
-9
7
14
-7
50
7
59
34
18
9
15
24
-17
3
52
12
8
10
14
-30
-18
-60
-41
-15
7
35
-38
-60
-1
-3
-16
28
-7
-39
-42
46
15
117
21
9
12
21
70
55
-43
-116
-57
-39
-8
-12
-29
-30
-2
30
-48
3
-20
-1
39
33
2
-28
17
-36
-10
-12
-23
3
-10
-28
11
16
12
9
1
9
44
82
48
22
24
15
22
5
7
57
127
-11
-14
-18
-8
-28
-51
-108
-84
-36
-17
69
67
-28
29
93
92
36
4
-92
-67
-73
-13
-123
-105
-43
-5
-1
-19
-19
6
45
39
9
2
-10
-10
-18
-1
-2
-28
-17
-9
12
33
28
14
31
-15
-10
-4
26
20
14
8
57
79
37
4
-12
-23
4
-3
-23
54
13
9
23
50
28
24
-2
-120
-30
3
-16
-14
82
-51
-54
95
-31
-8
-7
-61
-76
-64
-79
-69
-12
-24
-21
-14
-10
-2
55
30
23
-9
-1
12
24
-4
22
-8
24
6
-12
-2
-6
21
40
5
1
-4
3
-6
10
-2
-9
1
-35
8
42
60
-10
37
49
3
17
9
-37
-29
8
-6
-10
-11
-6
13
-13
-3
-31
-14
29
-27
17
-16
-1
-2
-11
3
12
-73
-24
-18
-6
21
54
-12
-55
34
10
-5
31
21
-6
19
19
-20
-2
12
-17
-15
-6
-20
-24
-15
-7
-1
39
75
2
17
-14
13
12
3
-38
-72
31
-23
-76
-62
10
18
11
42
-1
9
-34
117
11
-10
-9
-51
-14
-29
-38
-65
-10
-8
7
16
-24
12
3
-30
-12
-18
-1
-12
-20
21
22
-19
3
13
6
22
57
-9
12
34
21
13
-7
-4
-32
7
-15
22
17
19
43
65
18
17
84
87
-2
4
-5
-43
3
-25
-98
-32
-27
-14
-51
-65
-76
-89
-13
-3
-18
-44
-21
24
-5
-19
-82
-52
-10
1
5
-42
16
13
53
56
28
14
29
61
30
-18
59
43
26
7
15
3
10
44
38
-9
5
15
-1
-24
-26
-10
12
26
-38
-6
-9
0
-15
-28
-29
-88
-1
-4
10
4
-23
31
24
4
1
-2
-17
-81
83
-9
-42
-2
6
1
13
22
-26
9
55
10
5
-2
-11
-19
22
22
50
-23
6
8
3
3
4
16
80
52
3
-2
17
58
34
7
2
-52
-11
14
51
50
-18
1
-31
8
-6
-14
-87
-109
-28
30
46
120
60
26
39
44
31
-20
-36
-128
-31
-13
-31
-36
-66
-15
6
-62
-27
-30
-12
0
16
9
40
40
7
2
15
33
22
-30
6
10
-2
0
-2
7
-14
9
11
50
9
5
12
-1
-1
18
70
34
-7
9
-9
3
6
3
-57
-61
-10
-10
-14
-8
29
-19
-5
6
12
-7
6
9
-28
-35
-78
-27
-25
2
45
-9
-77
-2
-1
43
7
-5
-89
-98
-20
16
29
-7
-13
-7
25
53
7
20
35
32
1
7
-6
-2
35
9
69
5
11
-5
18
70
-9
-2
-97
-65
-29
-5
-26
-45
34
-28
74
93
25
0
-6
-4
-53
-14
-82
-98
-20
-7
-15
-26
5
7
127
103
2
-4
19
31
9
2
-31
2
32
18
21
4
4
3
-40
-90
-20
4
18
62
59
9
15
60
-6
0
-14
-70
-50
1
42
18
19
-4
-9
-4
6
-20
-85
-52
-42
-12
-12
-26
-6
3
49
49
3
-8
6
12
26
17
80
56
12
-2
2
11
-24
7
-67
12
11
3
-13
-6
10
11
40
-18
13
13
21
11
2
9
-18
6
0
18
34
23
41
-7
-7
25
-5
-8
-52
-18
31
12
-65
-128
-39
-18
-20
-35
-37
-3
32
78
26
-2
26
52
3
13
-18
-4
-12
-8
-4
-27
-2
8
52
45
1
-5
14
50
33
10
-6
21
19
8
6
-1
1
5
-19
51
11
9
7
-6
32
5
-2
-76
-9
6
16
20
-75
12
37
45
22
8
-12
-43
-70
-31
-19
-108
-15
-5
-15
-5
-9
14
109
62
-1
-13
6
18
6
20
59
-43
-14
2
-10
-21
6
-23
-2
70
27
16
8
5
2
-31
-89
-47
-13
-8
40
76
65
10
-5
-5
-5
-3
-35
-65
-28
-2
-33
44
10
-7
-37
-58
-8
23
19
69
17
2
21
38
14
15
61
-37
3
20
2
3
-2
-54
31
9
1
-2
22
46
4
-25
-35
-26
-15
-12
-25
-65
-18
-25
-107
-69
-32
-13
-17
-24
15
-2
79
32
-5
-5
9
18
13
11
-50
6
-1
-9
1
27
12
-6
53
16
16
10
-11
-35
-6
15
-31
-8
-8
3
3
1
-9
-1
-26
-14
-6
-2
31
53
17
7
22
-25
1
-10
-39
-66
7
6
16
81
35
19
48
63
4
8
-11
-75
-15
2
-37
-76
-1
-20
-66
22
1
4
-7
16
-21
46
82
7
-18
-8
13
-15
-14
-20
-108
9
26
-7
1
16
46
-12
32
-22
-17
-19
-11
15
-20
10
16
-33
2
5
7
0
-2
5
12
27
-10
6
-2
-31
-24
-45
-14
-12
8
12
30
45
-8
-4
68
-5
18
6
20
41
51
10
-73
-16
-31
-18
-73
-83
-37
-6
5
37
29
14
40
82
5
4
-2
7
-12
-9
-36
-53
-1
14
-52
35
-16
-9
7
43
3
-7
4
-48
15
5
1
-52
-28
21
56
-19
2
1
-8
6
67
10
-7
-9
2
-2
17
38
-40
7
45
-10
1
-2
9
-3
-9
-2
-43
41
3
-2
-13
-4
0
-3
-41
-26
-3
4
8
-5
-21
37
46
15
8
0
-10
18
18
-15
-10
37
15
-3
44
10
23
0
24
-48
-39
-3
-59
-64
6
-12
-1
54
20
6
10
60
-5
14
-66
-65
-20
-14
-1
5
8
40
40
43
-2
5
-6
-7
2
-61
-23
4
-13
-19
32
64
15
-1
-19
-112
-9
2
-5
-18
14
-11
-25
56
-4
-10
-30
-42
17
-42
-25
-28
-10
-5
7
-10
-50
31
60
60
19
13
8
2
8
-38
33
20
-3
-2
-10
0
-47
18
45
-2
14
3
23
24
82
-18
-52
-39
-24
-3
7
24
-25
10
-20
41
-9
-9
-65
-104
-39
-11
18
-5
-5
-14
-6
-6
-35
3
90
5
27
8
42
79
20
-21
-112
18
21
15
-27
-68
-11
9
21
-49
-28
-14
17
39
16
9
3
81
12
10
18
26
-5
4
30
1
-3
4
-19
-36
16
55
-45
-46
-16
-12
-14
-22
-30
-52
-90
-32
6
13
20
13
-24
18
-46
42
3
-4
-3
6
23
-27
-4
-16
-2
-11
0
28
9
4
-17
0
-7
-3
-11
-32
-72
43
127
43
4
1
6
-20
3
-5
-26
-46
-5
-9
-20
4
37
-7
-54
-45
-15
13
21
0
-44
-2
54
41
14
8
-17
66
73
15
51
21
11
-8
8
-29
17
-28
-68
-45
-15
-2
-7
26
-68
9
106
22
-11
-8
-18
-56
-39
-21
-63
-62
-8
-2
27
55
22
6
-45
18
9
11
12
37
8
-10
30
65
11
1
-16
-39
2
4
-23
-101
-14
-1
28
51
0
-32
-18
29
-21
-18
-21
-80
-28
13
53
44
-1
-2
-17
35
-4
-48
-35
-42
-2
12
39
13
5
1
0
125
15
-1
-53
-65
-54
1
80
-102
-17
-7
20
22
24
25
31
31
9
4
-1
-30
1
3
-30
-17
-24
-8
-5
-13
3
10
15
-32
12
9
23
59
13
0
-4
13
14
10
-26
-85
4
-4
-16
20
4
-6
34
59
-39
-9
-6
-29
-13
-14
-52
-47
2
7
-21
13
-11
0
-1
-34
-19
-9
36
-55
-8
-6
21
74
16
-17
2
53
27
5
-13
8
51
24
17
-3
-26
-6
1
-21
-29
-16
-28
8
17
-2
-6
-21
-5
9
15
-19
-4
2
-14
27
15
-1
-17
21
6
2
8
-12
-9
18
47
75
27
7
8
1
2
-25
-55
-123
-38
-5
-9
13
-14
-29
18
50
18
6
11
10
-11
-22
-3
-23
-6
-3
-13
-60
-13
10
-58
12
7
-5
3
12
3
10
48
-7
1
0
-2
-17
-4
14
-28
-3
7
13
17
30
11
-7
12
51
12
-2
-22
-16
7
-6
7
-52
-16
-8
14
25
8
12
-9
9
2
-7
-10
-24
13
-2
-13
-13
-18
-5
-6
9
-3
3
-10
-27
-25
2
-2
5
-1
12
5
-4
31
7
11
10
-1
3
-4
50
9
6
-1
-4
1
-6
-5
-9
-9
-13
-9
-18
-13
-3
-2
-39
-14
-9
2
23
4
5
7
9
0
8
6
6
7
2
0
-5
-5
-6
-20
-10
5
2
0
-1
7
1
8
-6
-6
-2
-14
21
-34
-19
6
37
5
-2
1
-22
18
-2
-8
-33
-1
0
3
28
0
7
-2
-5
-3
3
2
-4
14
10
-1
4
1
2
-2
-20
13
4
2
4
6
11
12
34
7
3
5
6
4
-12
-8
-41
-34
-15
-7
-5
-8
3
4
32
8
-4
4
10
2
4
-17
-30
-1
-3
-5
-6
2
1
12
9
10
0
-1
-26
-2
3
-4
-11
-14
4
2
5
4
-2
1
-13
-14
-3
-2
-3
-2
-4
-2
-5
10
5
2
2
1
5
1
-9
-9
6
8
17
5
-1
-4
0
-13
-8
-7
-7
-2
4
-2
8
18
-2
-12
-4
-3
-1
-3
9
16
4
9
0
-2
5
5
-37
5
3
3
0
4
0
-7
13
12
2
-1
-2
-1
-7
17
-3
5
-1
3
-1
-2
3
-11
10
-6
-6
-5
0
-1
0
1
-7
-19
-7
-2
6
2
-1
1
-6
5
0
1
-4
1
3
-15
3
-11
3
-1
-2
-3
2
-6
-18
15
8
2
-3
1
-1
7
13
-11
-6
0
7
1
-2
8
-23
4
-1
-1
0
-1
-2
-5
-9
-15
-7
-9
-4
-1
-1
1
8
-2
-3
30
33
2
-11
4
-8
22
2
-21
-55
-6
2
-2
11
8
2
3
4
0
-2
1
-2
8
14
0
-3
0
2
-3
-18
8
9
-3
1
3
-1
-5
-7
-14
-8
1
19
2
-1
-4
10
0
-1
4
-4
-1
0
0
-1
-14
-14
-6
-7
-4
2
5
24
5
0
-6
-7
-3
-3
-6
-2
-5
3
1
9
1
2
2
8
-7
-6
-3
-5
-1
-9
-1
5
0
4
7
6
-2
-8
-11
-23
1
-4
-8
-9
-2
-2
5
4
11
5
5
6
1
2
0
0
2
-2
-1
3
1
-1
-1
4
-4
-4
-6
-6
-1
2
1
0
-2
3
3
-4
0
-3
0
-9
1
-1
-1
5
-2
0
1
3
-10
1
0
1
0
1
-3
2
-30
-7
0
-5
-1
-2
-5
-3
26
2
-8
-5
-2
9
-2
6
8
3
3
8
1
-2
31
-1
6
4
4
1
2
0
-2
-2
-8
-7
-2
-4
0
2
-8
-1
-14
-7
-5
-5
-1
0
-9
4
-4
-6
3
5
-1
0
-5
-4
-16
-12
-3
-1
-2
1
-1
-10
16
15
3
0
2
-5
6
4
-4
0
-5
-3
-1
-1
8
-3
-1
-3
-3
0
1
-3
-9
-3
-15
-9
-4
-4
-3
-1
1
6
4
0
3
3
-1
-1
-6
-1
-1
-5
-3
-4
-5
-3
-1
-5
-15
-1
1
1
-2
2
-6
-2
11
3
-3
-1
1
-5
-5
3
11
-3
-3
-1
0
-1
-1
-2
-9
1
-2
-1
0
-2
1
2
-1
-2
-1
1
-2
0
-5
-9
-6
-2
0
-1
-3
2
0
3
-12
-8
-3
-1
0
0
2
-2
10
7
-4
-3
4
0
0
-15
-3
2
6
17
0
-6
-6
-1
6
2
-3
-22
-3
3
1
3
-2
-5
-2
-2
-3
-4
-10
-20
-4
-1
0
1
1
0
-3
5
-4
-3
-2
1
0
3
4
0
7
8
1
7
0
1
-2
6
-2
-3
-1
-2
-1
0
1
4
-9
-5
-2
-4
-2
-2
0
-5
4
-3
2
16
1
-5
-22
-19
2
0
2
-4
-1
1
6
0
0
3
-3
-9
1
0
-1
6
-6
2
2
5
-2
4
7
9
-6
-2
0
-6
0
-5
1
-6
8
-6
-4
13
0
0
-3
-2
-9
3
6
7
1
-4
-3
15
18
6
1
-5
-2
1
6
-17
-18
-3
-4
-1
-1
-1
-12
-14
-4
1
-3
-2
-3
-3
7
-4
16
-2
-5
-3
1
-1
-18
-26
-14
-9
-2
-1
0
-3
-5
6
0
0
-1
-8
-2
3
8
11
3
6
2
3
-2
3
-1
5
9
0
1
-1
-2
-3
12
7
-1
0
1
4
0
-2
-6
-7
2
-2
-2
-7
-1
-2
0
3
-11
-2
2
-3
-1
-1
1
-1
-9
-2
10
29
0
12
-13
5
7
0
-10
-31
-2
-2
-20
1
4
0
-2
-2
-1
0
0
5
12
6
0
1
0
-2
2
2
0
-4
-2
-5
0
0
0
1
-7
-2
1
14
0
0
-1
-13
2
0
-1
-3
-1
-4
-9
19
-2
-5
-1
-2
0
1
-9
-15
3
1
5
10
-2
0
5
-8
-6
-4
-6
-7
-2
2
7
7
1
3
3
22
1
-4
8
21
-2
-3
-5
-32
-3
-4
-6
-12
0
0
-5
-5
-3
-8
-6
-3
2
-6
6
5
-2
2
3
-5
-7
2
-2
-2
2
-1
4
-4
11
2
-2
13
2
3
3
-22
-9
4
1
-3
-2
0
9
30
0
-5
-2
0
1
-1
-3
-6
7
-1
-4
-8
0
-1
-1
-4
-3
-3
1
4
0
0
-1
5
3
2
-1
-12
0
1
-1
-25
-5
2
1
10
-1
1
9
27
-2
-2
-1
-8
-2
-3
-2
-9
-8
-9
-4
1
-1
-2
-5
-3
1
-2
-2
-3
0
-1
-2
1
2
-1
1
2
-1
-3
-4
-9
3
2
-2
-6
-3
4
4
4
-3
0
1
0
-2
8
1
12
1
4
0
2
0
-5
-1
-24
-8
-5
2
-1
0
-3
-1
6
-3
-4
-9
-6
-2
0
-1
-4
-2
-2
0
7
-1
-2
2
9
4
-2
-2
-5
-1
-1
-5
4
3
2
-1
-3
0
-4
-1
-1
-2
-1
-3
-4
-3
-1
-7
-7
-14
-5
0
2
-3
-2
0
8
-3
-2
0
0
-1
3
8
2
3
-4
-5
-4
-2
6
-4
-8
1
7
0
22
4
-9
-13
1
-1
7
10
5
0
-3
6
2
0
-2
1
2
1
-2
4
-4
-8
-2
-14
-35
-6
-1
-5
-5
0
-7
0
3
-2
3
2
-3
-4
-3
1
8
0
-3
-7
-4
-5
-8
1
19
0
1
1
-1
6
-2
-3
4
-2
-2
-6
0
-7
5
4
-10
-2
-6
3
-3
3
1
-2
0
2
-2
-2
-9
-4
-2
-4
-11
-1
-2
2
3
-4
-4
-2
2
1
-1
-3
-6
-1
-4
-1
-8
-3
4
6
8
0
-1
-3
-1
-2
1
5
7
-6
-10
-10
-10
-5
-3
-17
-5
14
10
21
22
0
-2
6
-1
-2
7
3
-3
2
0
-1
-9
4
2
-7
-9
-2
5
-3
5
1
-4
1
-1
0
-2
7
0
-10
-2
-17
-8
0
-1
-2
-2
-2
-7
4
7
0
1
6
-6
2
-4
-9
-5
-1
-1
-3
-6
-4
-2
3
-8
-2
2
2
6
1
5
9
13
0
-3
-6
8
-2
-1
0
-6
0
-5
-1
-22
-7
-2
0
6
2
-3
-2
-4
3
1
5
6
3
-3
-3
3
-3
-3
-8
-18
-2
-2
2
-5
1
-4
-6
-2
-3
4
-3
12
3
0
0
-2
-5
1
-3
-2
-3
1
3
18
0
2
8
5
-2
-2
2
12
0
0
-4
9
13
5
9
3
-1
-5
-18
-20
2
1
-5
-14
0
-6
0
-3
-7
0
-9
-10
-2
-2
1
0
-4
-5
-3
2
1
1
2
1
-9
-6
-2
3
-2
3
6
15
4
1
6
11
0
-1
2
1
3
-2
-9
-11
-2
3
0
-3
-2
1
2
-2
1
-7
-10
-3
2
2
4
9
-2
-3
0
19
-4
-3
-3
-8
-2
-4
-6
-30
-4
-2
-4
-10
-1
0
2
6
6
1
2
6
1
2
5
-5
0
-4
-7
-9
0
1
3
4
-8
-2
-2
-2
-2
-2
-2
6
11
3
8
2
-3
-1
3
4
6
2
2
2
0
-1
-6
4
-10
-5
-6
-7
0
-3
1
-16
-7
-1
-6
-6
-3
-3
-1
6
2
6
5
5
0
-3
-2
-9
-1
-2
-1
-3
0
1
4
-3
-2
-5
-2
-7
-1
2
7
27
6
1
1
5
-1
0
-11
-34
-7
-4
-2
-5
-1
-3
-8
2
-9
-2
-5
-4
0
-2
5
8
6
-4
-5
-2
0
0
-2
-2
0
-1
2
0
1
5
10
16
4
2
-1
-2
0
-6
-8
-6
-4
0
-1
-1
-2
-1
0
-6
0
-2
0
2
-1
-3
-2
-12
-1
-3
0
0
1
-3
-4
8
-2
1
-3
-5
-3
0
1
-5
-4
-10
0
0
0
0
6
4
4
7
-2
-2
1
-2
-3
-6
1
0
0
0
-2
-1
-1
8
-3
-1
-3
0
0
0
0
-4
-8
-7
-3
-2
-1
-1
-2
-1
6
3
1
-1
1
2
1
-4
0
2
2
3
-2
-1
-2
1
-7
-3
0
0
-1
-2
-5
-8
3
7
0
-2
0
0
1
-5
2
-1
-2
-2
0
-3
-8
-3
1
0
3
1
-1
-3
-7
-15
-4
-6
-4
-2
-3
-1
6
23
6
-2
-2
-4
-3
-3
-4
-14
-7
-4
1
-1
0
-1
-1
-31
0
2
-1
-2
-1
-1
0
2
4
-1
-1
1
1
1
-5
0
-7
0
0
0
0
-2
0
-3
-4
-6
-2
-2
-1
0
0
17
-1
-7
-2
0
1
2
-1
-4
-2
4
5
3
-2
1
6
4
4
5
0
-1
0
0
3
3
1
1
3
0
-1
-2
-10
-4
-7
-8
-2
-1
1
0
2
4
-3
1
-2
-2
0
1
-2
14
1
-4
-4
-2
-1
-2
-2
-7
2
-1
0
3
-1
-4
-4
-21
0
-5
0
-2
-1
-2
8
32
7
-4
0
0
2
1
5
-10
4
2
2
1
0
5
-3
13
-3
4
-5
-3
-2
-4
-10
-21
-16
-7
-11
-4
-2
-4
-7
-15
-7
-6
3
0
-1
-4
3
32
-6
-4
5
-4
-1
0
8
-10
12
4
-6
-1
-1
3
3
6
3
9
9
4
3
-1
-9
-26
0
-1
-13
-4
2
1
13
41
7
-4
-3
26
8
14
-17
-41
-22
-8
3
-37
-37
-3
2
16
8
2
-1
-3
6
0
1
33
1
-3
-10
9
1
-5
-20
-96
-4
6
17
-2
-5
14
21
-33
-2
-4
4
52
43
-1
0
21
10
9
21
33
57
-16
-7
-28
-21
-14
-38
-50
-68
-6
-62
-71
-29
-12
-11
-9
-24
-6
3
26
-5
-1
21
39
1
21
42
59
10
-3
-20
4
50
-5
20
37
13
6
-34
-12
-13
18
20
17
17
14
4
-3
47
-27
-17
-8
-2
-10
-8
-20
-41
17
0
41
12
6
19
34
46
3
-10
-60
-8
-3
9
26
78
2
19
10
-4
2
5
-13
-98
6
8
59
14
8
1
-33
-7
-15
-39
-20
-2
2
-1
-11
-40
-2
5
19
-3
-9
10
14
22
1
13
3
1
-3
-4
-2
24
-1
0
42
11
1
3
24
20
-24
-19
-40
-16
-1
-8
-15
-57
16
52
9
12
7
9
-11
-1
-18
-28
-109
-12
-3
7
25
16
-19
-16
70
7
-9
-16
-17
-13
-8
-30
-48
-17
-8
-14
-28
-2
20
52
40
5
8
22
12
-18
-17
-62
45
0
0
-4
-12
12
-4
10
-64
-1
4
1
32
-16
7
15
4
-2
-8
-8
-46
-23
-5
-11
-3
-1
1
11
9
2
11
5
14
5
2
-7
-1
-4
-8
-13
-12
-12
-4
-3
-2
23
2
2
50
18
7
5
23
-7
-17
-38
-53
-13
-2
8
-7
-16
13
-5
6
-4
-10
-10
-3
45
-7
-37
-33
-13
-5
-8
-12
-16
-5
18
55
10
2
10
3
-10
28
-10
-19
-6
-5
-6
-6
22
-18
15
74
3
-3
4
6
-32
17
7
-19
11
10
8
6
43
-11
37
-25
0
9
3
0
-52
-21
-109
-99
0
-6
-8
4
40
2
122
54
19
12
11
6
-50
-34
-77
-2
-24
-18
-12
-29
18
28
55
-33
9
25
23
23
37
-23
33
104
-50
-40
-40
-28
-110
-24
-9
-87
-13
-21
-24
-15
-38
11
-23
74
34
24
32
25
-9
9
-42
-39
-32
-17
-75
-4
58
-38
53
22
45
18
14
-31
-38
-4
-48
17
44
16
6
65
121
-4
-57
54
-57
-11
26
33
-90
24
52
-90
20
-19
-16
-48
-5
13
29
-55
-27
26
31
37
50
-35
38
35
16
-10
-12
-15
-81
-26
-87
-119
6
-2
-14
-8
61
41
74
126
15
14
38
63
46
-1
-22
31
-30
-20
-39
-52
-74
8
-5
-72
29
-16
0
-40
-68
-1
47
-24
-14
-29
-80
13
74
21
54
127
3
19
74
-44
-122
-18
51
20
47
55
62
-2
-29
-3
-3
-19
3
27
11
8
52
31
-26
73
36
2
-16
-2
24
-39
11
30
-34
-54
-36
61
13
-29
-121
-73
3
-2
-3
-53
-45
-14
-11
113
-68
-14
-3
3
13
58
127
33
-5
-15
-9
-32
3
-2
-67
-103
11
25
17
12
51
30
72
127
46
-3
-3
45
30
4
-7
-109
-53
-10
-24
-42
28
-58
-27
63
19
0
6
-27
-109
-58
-39
13
-36
-42
-25
-7
0
30
64
86
28
16
15
9
43
-18
-46
-66
-63
-38
-37
-2
5
73
123
1
8
43
45
-11
7
-30
-33
-113
-8
3
-7
-29
-15
4
-57
-87
-57
-28
-11
57
79
-10
-67
50
11
-7
-2
-37
-14
-30
74
0
-4
-15
-18
-49
-23
-65
-87
67
47
17
-23
-5
-5
36
17
-59
-30
0
0
36
127
12
36
-37
-66
-10
16
28
-58
-19
-96
-43
11
-8
-16
-42
27
37
124
94
73
28
29
38
-21
-42
-53
49
-2
-11
-7
11
-3
1
-95
33
39
7
2
25
25
-7
104
88
42
10
19
0
50
48
35
-41
-28
23
29
-23
-75
-17
-11
13
-1
-20
0
38
-20
66
127
12
27
37
12
-6
-42
-48
-88
-99
-38
-32
-22
-9
-24
18
27
-84
-78
-26
-20
1
77
-45
-40
97
64
16
2
24
-31
24
66
-86
-28
-7
-17
-48
-15
0
-125
-78
-4
10
13
26
-35
-11
70
82
29
-6
1
14
59
20
-6
-64
-48
-6
-7
-28
-107
-45
-20
-5
16
-17
-8
-6
81
21
-42
-39
5
-2
2
47
-3
-18
-105
-3
-50
-5
17
22
-87
-9
70
36
42
14
-44
-54
21
-3
-98
24
34
32
29
24
-28
-5
121
92
-49
-11
9
-3
45
23
30
67
62
-6
-8
-31
-50
-8
-75
-99
-70
-15
2
-68
-65
16
105
66
4
-14
-13
-12
-44
37
20
-6
3
2
3
34
39
-25
18
111
18
11
-5
-10
33
79
127
-68
-10
14
16
29
13
-4
45
114
31
0
5
-44
-63
-38
-17
-124
-17
-12
-23
-21
23
-14
-38
-80
12
-16
-15
-2
16
-6
41
-17
-17
-18
-6
2
-10
32
14
84
1
20
22
75
127
-7
11
-58
-8
11
-11
17
31
57
82
10
24
22
74
66
11
-9
-106
81
-5
-41
-92
-96
20
-27
3
-81
-34
-4
18
28
-51
7
-48
13
-9
16
9
17
42
-4
14
19
-9
-18
-6
65
40
20
-26
-18
30
7
21
-32
35
1
113
127
41
-3
-22
5
-38
15
34
-76
-18
11
-3
-49
22
-9
-82
34
-72
-30
-16
-52
-45
1
73
59
59
14
37
74
45
-5
45
-91
3
9
36
73
62
-10
-50
60
-11
-1
-36
-70
-121
58
84
-36
52
27
-14
-19
41
-39
-65
-52
-23
-2
7
22
-6
-92
-128
-78
-53
-36
-27
-48
-49
36
87
90
43
-1
19
37
54
-25
34
-65
-35
7
-7
-34
-58
-11
-33
41
33
12
25
85
26
29
-26
-18
-1
-4
-26
-41
-65
-62
-42
-55
-25
-28
-17
-14
-87
23
-12
26
2
-10
-27
-40
9
30
74
-42
-26
10
31
35
-19
24
-70
127
40
24
24
33
70
30
122
7
26
9
14
20
-23
-19
-37
-48
-27
-8
-32
-51
19
-11
-22
81
4
-9
5
2
6
-18
-55
-107
-18
-7
-5
-8
31
6
-8
70
3
4
13
24
7
-37
-114
-122
-23
-8
7
24
13
-4
-30
-22
-10
11
-4
-10
44
-2
17
-41
9
-14
-15
-21
-9
-11
-9
-64
-11
3
30
62
25
-2
40
98
-19
2
-16
-14
-65
-14
-19
-88
4
6
0
-25
-91
34
22
-46
-26
-10
-17
-33
77
-8
4
57
27
-4
-22
10
42
4
-89
-29
-9
7
26
-2
5
-37
14
47
3
-4
-5
6
-27
30
53
31
3
-11
1
26
41
6
-39
7
-35
-3
9
3
-112
20
76
52
42
13
-10
-11
22
19
12
6
37
18
25
62
20
2
40
-40
-53
-15
-5
-66
-30
-8
55
127
-10
-5
-20
-44
18
17
33
-61
38
13
8
27
-21
-33
-50
-128
-22
-12
7
-9
26
9
34
89
27
-1
-26
-12
-41
14
97
26
23
12
13
6
-45
13
-72
-9
-13
4
2
8
47
13
-9
-2
-22
-15
2
29
2
-21
-22
56
28
0
-6
-32
24
18
6
-17
16
8
17
-23
1
-19
12
-62
-23
-22
-62
-85
-45
-4
0
51
-4
-9
-6
9
-1
6
-71
-77
-3
25
24
38
-36
2
51
47
22
-5
-12
3
30
-7
-62
-62
-61
-20
9
0
17
-1
-16
55
7
2
-6
-1
-33
31
88
-35
-4
2
3
-4
48
-31
-111
45
2
6
7
7
-28
-4
103
85
30
1
-1
13
-22
7
40
-19
6
-2
-9
-30
11
-13
-75
-34
-40
-5
7
0
-44
32
22
0
44
30
32
26
115
-37
-108
-85
-78
-40
-41
-32
-56
24
66
102
-2
5
3
-24
-11
2
61
-47
27
2
8
23
-8
-33
-71
20
-15
-15
-6
-3
33
-9
78
51
60
33
55
43
-23
10
71
18
1
3
-38
-85
15
-7
65
25
-6
-12
-30
-15
-4
12
79
-31
7
-4
8
23
-7
4
28
43
-1
-3
17
40
6
-23
-78
-62
4
10
1
-55
-86
19
39
81
31
14
13
6
-40
-25
-40
36
-10
-14
-21
-32
-57
35
46
-11
10
3
7
41
40
-15
1
-42
-9
-2
5
14
80
25
27
-36
-24
-12
-32
3
-17
18
21
47
13
-11
-8
-14
-21
-22
-60
-30
-13
2
14
35
27
17
10
4
-39
-9
10
4
29
-33
-39
43
57
40
26
16
-25
9
31
-29
-19
-6
-14
-8
-4
5
-11
-22
18
-10
0
-6
26
-54
-76
6
-6
-18
-33
-9
-83
7
-16
-61
-9
3
25
23
36
4
75
-41
-19
0
-3
15
-31
-15
-24
27
8
5
-24
-60
-23
7
-24
79
29
0
-8
9
38
-7
-70
-35
-8
-3
-3
15
38
-1
26
-51
-18
-1
12
30
-26
-46
-57
-12
1
-3
-2
18
22
19
86
29
1
2
14
5
7
6
80
127
36
11
9
7
16
60
51
-2
32
21
34
78
74
-103
-79
41
-35
-20
-55
-111
-97
20
30
-42
11
2
11
48
17
27
50
53
-18
-15
-46
-52
60
-8
-32
-73
17
15
36
24
-14
0
19
22
3
-1
2
-1
10
23
79
-23
10
5
28
26
-7
-24
-121
-12
-20
-7
-23
11
-2
3
-4
-35
-31
-15
-31
-27
-20
36
20
-35
-4
-10
21
32
24
0
17
-3
-19
-13
-16
-20
32
-35
10
-48
-17
-14
10
21
-37
6
-69
13
-25
-3
-11
-36
-18
38
49
84
45
10
-1
4
-8
-4
-3
63
18
8
11
43
1
24
82
-42
14
21
10
-39
31
-38
-97
38
3
-5
-14
-29
-22
-14
26
-27
-21
-8
16
69
-3
6
19
-79
-15
-13
-20
-18
-32
-52
-90
39
6
-7
18
3
-8
-3
119
51
-6
-7
-14
-9
-11
23
-17
12
17
19
5
-9
3
10
26
-12
10
15
12
3
7
-22
-36
-29
-50
-29
-13
0
-27
3
10
-58
22
14
49
33
50
-6
-2
-55
-28
-10
-59
-56
-2
19
18
26
4
1
0
-7
-9
35
19
19
18
15
2
16
-17
18
8
53
20
6
46
76
100
-1
-29
-53
-16
1
-26
-69
-41
0
-1
-26
-49
-24
-21
-24
6
25
25
-11
15
-2
-12
-1
-21
-34
57
-12
-13
-6
-4
2
-10
-10
20
92
29
5
20
57
26
6
-10
-24
-6
-6
-7
-14
5
11
-35
19
10
8
21
15
14
-6
61
27
1
9
-17
-48
-51
20
-22
-49
0
32
32
28
19
-14
5
87
19
-12
-14
-14
-15
-24
-58
-85
-40
-48
-21
-23
79
-36
-106
26
-9
-19
-18
-7
-49
6
48
-6
5
0
-1
29
-12
13
48
24
-3
13
-12
-45
-22
-1
15
127
24
28
44
49
6
7
-17
-116
-22
-23
-61
-72
-42
-31
-6
-5
17
4
51
67
15
-27
-3
27
32
18
-9
2
4
-1
18
-71
-29
-19
-18
-35
-46
10
-8
-43
-18
1
5
-12
-12
38
52
26
6
2
17
35
37
-17
-78
33
-14
-10
-4
-9
12
-5
24
-6
10
6
-10
-19
-25
21
-14
-88
-4
6
21
42
47
17
14
61
-9
-15
-15
-28
23
38
33
40
25
10
11
37
64
-40
-103
-49
-23
-3
-14
-18
-74
26
-16
62
14
-7
-18
-40
11
-3
39
-8
-4
-5
-5
-22
21
-13
34
13
-16
-6
14
20
-30
24
-52
32
15
7
38
49
31
17
51
-91
-8
13
-33
-5
0
-18
-42
30
-33
-19
-5
-43
-19
5
-1
91
51
13
2
20
4
-21
21
-87
-14
-4
-2
-16
-17
-17
-12
-19
-4
-11
12
9
12
-22
-27
-33
-19
1
6
15
-5
-22
33
-13
13
0
-13
-36
-40
23
81
4
3
1
-11
2
-35
-18
-74
21
-11
-8
34
67
33
-7
99
-78
3
-13
-47
-63
-60
-22
-128
1
-39
-12
1
9
-19
33
78
72
78
35
11
18
60
-17
28
21
-9
-2
19
40
-56
16
-91
80
-10
-18
-59
-23
31
1
48
-125
-25
-6
19
0
-27
-5
-46
87
17
12
0
20
29
3
-61
-88
-31
-8
13
-10
3
4
48
46
21
7
23
21
-30
26
51
7
0
3
-20
-23
-11
20
50
43
12
-2
25
32
6
-19
22
7
5
2
-2
35
71
-18
-27
15
2
3
-39
-96
-32
-7
-21
-84
-20
-10
10
38
8
-36
-11
-11
-6
9
10
20
-38
5
64
86
40
-4
-24
-43
-33
-4
-14
-128
-36
-22
-3
25
75
-1
73
96
19
21
37
17
-10
20
46
-74
-16
-7
-41
-33
5
25
-19
57
-3
5
-26
-74
-52
-3
3
4
4
-1
34
27
-13
6
-3
-32
7
2
9
-9
15
-17
-61
-2
-10
-12
-10
10
-22
-6
-10
9
3
-5
-12
-27
-9
24
68
51
26
16
58
59
-46
-19
-40
-37
-7
0
-70
-74
3
-10
21
28
-10
-7
9
19
20
6
4
4
-10
-4
-4
19
5
-19
-11
-5
18
8
13
9
21
-17
-12
-56
-7
-8
17
28
-3
-6
-1
18
0
-1
-8
-22
-3
-11
-35
14
1
0
-10
-26
-3
18
3
15
-2
0
10
32
16
12
-25
-30
-9
2
2
-3
5
4
10
30
19
12
10
5
4
4
-9
-25
-3
-7
-17
-14
1
-10
-31
1
-19
-6
-1
-21
0
-3
-18
-7
-3
-9
-4
14
1
1
23
-22
-1
3
6
-10
4
11
-18
24
11
8
5
9
-1
9
-1
-27
-5
-4
-18
14
10
-2
-5
27
-11
-10
2
-5
-2
2
-5
-16
-11
-3
9
3
-2
-5
-3
-3
-6
-2
5
8
6
3
-1
4
3
8
-14
3
8
7
4
5
10
1
9
2
2
5
-3
0
4
0
-8
-16
4
-14
-33
4
-10
-5
-2
0
-6
-4
13
-3
7
0
-3
1
-2
-10
-6
-9
-8
-1
2
9
-5
1
-4
-2
-15
-9
-8
-1
0
6
1
-4
-7
3
-9
-6
3
-6
-1
-3
11
2
4
4
5
1
-13
-2
-6
-2
9
11
-1
-4
5
0
-11
-13
-9
-13
-2
4
6
-9
-2
11
7
9
1
7
-11
10
5
7
-1
-2
0
-2
-3
-2
4
-8
-8
-2
1
-28
25
12
-6
-11
-5
-6
-5
-5
-26
-18
3
1
3
-1
-3
3
6
-1
-3
-4
-1
1
1
-3
2
-3
-8
2
1
0
1
7
3
-5
3
4
2
-1
0
2
9
8
-1
-2
-2
2
0
-6
-7
-2
16
0
2
-3
0
7
-4
13
-15
-1
-1
5
1
4
1
-2
1
1
0
-2
-3
6
5
16
-3
-3
-2
-1
1
4
-7
-27
-14
0
-6
1
2
0
-5
-28
3
-4
1
0
-2
-6
-6
-6
-5
-3
6
0
-2
-3
13
-4
13
-1
1
-4
1
0
0
5
9
0
1
0
3
1
-1
20
-17
-2
-2
0
-1
3
-9
-6
-6
-1
-4
-3
0
-4
4
3
33
21
14
4
1
0
2
4
-3
-5
-1
0
0
-3
-4
-5
16
5
0
0
-3
9
-3
5
-13
-6
4
-1
1
-1
6
8
-19
-9
-6
-2
-6
-2
-6
-7
4
2
-6
-4
-3
-4
2
-3
6
-3
-3
-2
0
-3
-6
-5
4
1
-2
-3
-2
-2
1
-9
0
2
-5
-1
-1
-3
-2
-3
-4
0
4
1
-1
4
-3
6
-4
-7
-3
0
-2
-2
-5
-6
1
7
-2
-2
-3
-6
-5
-7
-9
5
-1
-1
0
2
0
6
-12
-15
-5
-3
-3
-3
-4
-5
22
7
0
-2
-2
5
1
8
28
6
1
2
3
7
-2
-7
1
-10
-10
-5
1
-3
0
14
-2
11
9
2
1
4
-7
-50
-17
1
2
3
-1
2
4
12
-3
-11
-3
-3
-4
-2
-5
0
-9
-9
-14
-4
-3
0
6
0
-4
-3
-8
1
2
4
-1
31
4
6
23
1
-3
-1
6
-21
-9
-4
2
0
3
-5
-4
-19
-5
-2
7
2
-2
-2
-3
-3
0
-2
-3
-4
-3
-2
1
4
10
2
-15
-2
1
0
-9
4
-6
-1
-1
0
-2
2
8
19
-17
-6
2
3
-1
-3
-4
-11
13
1
-9
-5
-3
0
5
17
-1
1
0
0
2
-4
1
-14
-9
-3
-3
-2
-2
-11
-9
-14
12
0
1
2
-4
-1
-1
1
-5
-2
0
-5
-1
1
1
-9
-7
-3
-7
-1
0
6
-2
8
-7
-1
2
1
-2
-3
-2
-16
-4
-4
-4
-4
1
0
0
-10
-5
-2
0
-2
-4
-1
-1
13
-3
-1
-3
-3
-2
2
2
4
10
1
-5
1
2
4
-4
-4
5
7
3
0
-2
-4
4
6
-6
-10
-3
-2
-1
-2
-4
-2
0
-4
-11
-3
2
-3
-13
-21
-4
3
12
2
0
1
3
28
0
1
5
1
-1
6
5
-42
28
17
1
2
3
-7
4
27
-8
-3
10
2
0
-8
0
-7
4
-4
-4
-4
-1
-2
9
29
3
-4
-3
-1
-1
6
0
-1
-11
1
-1
0
0
-5
-2
-16
0
-2
-11
-4
-2
1
-2
-1
3
1
2
2
0
1
1
24
4
3
12
13
1
-6
2
-11
-3
-9
-17
-41
-4
0
-8
-20
-5
-3
-4
-2
-2
0
2
9
2
-1
-7
-5
-4
-1
8
13
4
3
-2
11
-1
-2
-3
10
-1
1
8
18
3
-5
-16
-26
-11
-10
-6
-17
-4
-4
-9
-25
-1
1
-2
0
-3
8
24
2
11
7
2
-5
-2
-7
-18
10
-6
-7
-1
7
2
-4
-2
7
0
-1
9
3
-1
2
0
13
-5
-1
-3
4
0
-9
0
-7
-7
0
-3
-6
-4
-3
-17
-9
7
4
0
14
-1
3
11
7
5
2
6
-1
2
-4
-5
4
-3
-3
-8
-15
-7
-1
-8
-1
-15
-9
-7
-3
4
4
14
-18
-11
1
6
2
-1
2
2
0
19
8
1
17
2
0
-1
16
-6
-2
-2
3
0
-7
-19
-23
-3
-4
-4
-13
0
-2
-1
25
-4
-3
2
7
-1
2
-2
-23
-1
0
-3
0
1
-5
-4
-14
0
2
-7
-6
-2
2
4
-5
-1
-3
4
0
-1
-1
-8
-24
-10
2
6
0
0
-5
3
25
4
1
0
0
0
-1
9
1
-4
-1
2
-2
-1
0
-11
-38
1
2
-4
5
-1
-1
-3
30
0
-4
1
8
0
0
13
9
-2
-5
-7
-14
0
-1
-6
-4
-10
-4
-2
2
-1
10
-28
-11
4
4
-1
-1
0
-5
-7
-24
-3
5
9
4
-6
3
-4
-7
-8
-4
-7
-7
-2
1
5
17
7
1
12
20
3
-4
1
-2
-4
-13
-26
-60
-8
-1
-5
3
-6
1
-1
-2
-1
2
-2
15
13
8
2
4
-2
0
-10
-6
-6
-6
8
19
1
2
0
-38
-8
5
17
21
1
-5
9
24
4
-7
-29
-31
-2
-5
8
1
-6
-14
-5
2
-1
0
-8
11
7
6
-7
-16
-2
0
-4
7
-4
4
13
23
3
0
-4
-27
-10
-7
-6
-23
-2
-14
-8
-17
-2
5
1
4
-2
4
16
9
2
-5
-4
-3
-1
1
7
19
7
1
-3
-3
0
-3
-11
9
8
2
11
15
0
8
15
6
-3
-3
5
11
0
-6
-8
-26
5
2
-7
-1
-2
-6
-3
-9
-10
-2
-5
-18
-2
2
9
20
12
4
3
0
0
6
-7
-4
-8
-4
1
2
0
-1
7
12
3
2
3
2
1
-2
-4
-1
2
-5
-2
12
2
0
-1
1
0
-4
-4
-6
-2
7
-1
9
-2
4
0
32
0
-2
-9
-28
-10
-7
9
-15
0
-1
26
20
28
10
-1
-3
4
-3
-14
-23
-9
-4
5
4
2
0
-3
-15
7
3
-4
-9
-1
2
-4
13
-6
-1
-4
10
0
7
0
8
-12
-14
-2
0
-3
-3
41
22
9
8
4
-2
0
2
-6
-6
-6
3
4
5
1
-2
-8
-8
1
0
-3
-6
-3
-3
-3
11
-8
-6
-5
-7
-4
3
8
4
2
-4
-2
7
2
-4
-14
2
-4
-7
-5
-16
-2
0
13
7
3
5
-3
-6
0
-1
-1
-7
-4
-2
8
43
1
1
-12
-18
-1
2
-1
-13
-3
-3
5
20
-4
3
3
4
-4
-6
-12
-9
4
-10
5
15
3
-6
-4
-22
-4
-3
-5
-2
1
-1
-6
2
-9
-1
5
26
1
4
0
-8
3
2
7
-8
-1
10
6
12
-2
7
-2
-10
1
-3
-16
-22
-6
1
7
10
-2
-2
4
2
-6
-1
-3
-11
-4
-10
-10
-20
-1
-5
-11
-10
0
1
2
10
2
-4
1
3
-1
-2
2
5
-4
0
-4
-18
-1
1
-1
8
1
0
-3
-3
-3
9
4
-10
4
2
-2
-4
-1
-3
7
18
-12
1
5
22
0
-2
-2
-3
6
-3
-14
-31
-4
-2
-4
-6
3
1
-2
-4
1
-3
0
9
-4
-7
-1
5
0
1
11
-15
2
-2
-3
-8
-1
-1
2
16
0
4
3
-6
-1
1
0
0
-4
-3
3
14
0
-1
6
-11
-1
1
9
45
4
-3
-12
-1
0
1
-16
-88
-9
-2
-8
21
-3
-4
-17
-4
0
-3
-3
-3
8
-3
-6
-3
-2
-4
-4
-11
-7
-3
-1
-1
0
-3
-7
-7
2
-2
-3
15
-1
3
5
7
2
2
11
12
0
0
0
6
-1
2
-3
-6
0
2
-3
17
-6
0
-2
-11
-2
-2
1
-15
4
-1
3
13
2
9
-23
-4
-7
-5
1
1
-2
0
16
0
6
3
5
5
0
-1
-8
0
-6
-12
-10
-24
-4
2
2
0
-2
4
-2
6
0
-1
-1
-3
9
2
0
4
1
1
-11
-4
-7
-3
3
13
3
0
-2
7
-3
2
30
43
0
-6
-8
-26
-15
-11
-51
-88
-11
-2
11
-8
2
5
11
23
-2
-10
-13
0
-5
-3
-4
-7
-3
-5
4
-4
5
-2
-3
1
3
-2
2
10
4
2
14
32
2
-2
6
6
1
-3
-3
-13
0
0
-12
-14
1
3
2
-1
-2
2
1
5
-3
-4
-8
-15
-6
-3
-5
-7
-4
-2
6
15
1
-2
3
-8
-4
2
-6
-12
0
1
3
8
2
-4
2
6
2
-5
-1
-5
2
5
-6
-14
-4
2
-6
24
-1
-2
0
3
-1
-2
8
0
0
-6
3
7
-1
0
0
-5
-9
-1
-4
-7
-3
-3
6
-11
-1
1
-6
-6
3
-2
-4
4
1
-4
3
14
0
1
-12
15
3
-3
-4
-2
1
-1
7
-20
-2
11
9
-2
-3
-1
-4
7
-6
-2
-8
-15
-4
0
9
1
0
-3
18
31
3
-4
-9
-8
0
-3
-20
-43
-5
5
-1
-16
-3
-4
-5
-3
4
-2
-8
-12
1
1
-1
-5
-3
5
-7
-7
-2
3
10
31
3
8
-14
18
-7
-7
-7
-16
-4
0
-3
-14
-3
-4
0
7
2
2
2
1
2
0
-5
-9
2
-2
-4
5
2
-3
-1
-3
-3
-3
3
-17
-4
4
6
11
2
1
8
47
-8
-3
-4
-4
-2
1
-8
-28
9
3
5
4
0
-3
1
-6
0
1
-3
1
2
-6
1
-12
-5
-1
-1
0
1
-3
-2
-4
0
-1
1
2
-1
-3
-1
12
2
-8
-4
-4
1
0
6
0
-3
4
-4
-6
-2
-1
7
0
-6
3
5
14
1
-2
0
25
5
-1
-1
-4
0
-4
-9
-27
-5
-3
-8
-11
-4
-5
-2
-6
4
-1
-3
-5
-2
-2
6
0
-1
-5
-1
7
-1
-3
-7
-7
-5
-3
-3
-3
-3
1
1
7
-3
1
0
-3
-2
-1
4
4
-4
0
2
2
-1
-2
-2
-14
-2
-3
2
2
-1
-1
-4
-4
2
2
-4
-7
-1
1
4
11
-1
6
2
2
1
0
-2
-2
7
-6
-6
-7
-4
1
1
7
-4
0
2
3
0
-5
4
8
-1
-2
-5
-1
0
-4
0
12
-3
-3
4
0
0
1
-3
-28
-1
1
-2
-2
1
-3
-1
-2
8
7
2
2
0
2
1
-6
4
0
-3
0
-1
0
-1
7
-5
-6
-1
0
-1
0
-2
1
5
2
3
0
0
-1
2
-1
-3
-5
2
2
-1
-1
-1
-11
-5
-3
-2
-4
-2
-1
1
5
8
0
-1
0
-2
2
0
-3
-4
-2
-3
0
0
-7
-1
6
4
3
0
3
-2
-5
-1
-11
-6
-1
-1
-4
-2
3
3
15
-2
-5
-6
-4
0
-7
-13
-33
-6
-1
2
2
-2
1
0
11
-2
4
-3
-3
0
2
-2
-8
3
-6
1
0
1
-2
1
2
-5
1
5
1
-1
-2
4
12
9
7
-1
-2
2
-1
-12
-13
0
1
-3
0
1
2
-2
4
4
-1
0
-1
-2
4
8
31
-10
-8
-5
-3
-1
0
2
-22
-9
0
0
-4
-2
0
3
8
4
0
1
0
-2
-3
-2
6
0
-7
-4
-2
0
-3
-8
-22
-1
4
-1
-2
-1
3
-7
30
4
0
0
0
-2
-5
-7
-7
-1
-6
-6
-3
2
0
1
-12
-5
1
6
2
0
1
-2
-9
1
-3
-11
-2
-3
-7
-23
6
-2
-1
7
1
-3
10
34
3
0
5
-2
1
0
5
-20
-7
-11
-4
7
0
-1
-2
-4
-41
4
-3
-5
-5
2
3
10
45
5
4
0
7
-4
-1
53
15
-1
-4
-4
7
3
-6
-71
-12
-1
0
-4
-10
12
-6
6
77
8
-3
-7
-2
-6
1
13
-30
-8
-4
14
20
22
19
20
50
8
1
-15
-2
-22
-8
-15
-89
-32
-7
2
5
-9
-34
-58
91
3
2
33
14
-73
-3
-41
61
18
-6
-43
0
92
8
53
-48
-23
-3
31
-6
9
26
52
111
25
14
-1
4
-3
-9
-41
-128
-45
-9
-5
-20
-46
-10
38
42
4
-2
26
32
-32
-2
-77
-47
9
-9
-45
-6
33
3
46
79
36
26
16
8
10
29
70
-27
-5
12
15
5
9
-13
-21
6
-3
-9
1
-29
16
21
60
13
39
20
44
89
85
-19
-89
-87
-49
-31
-63
-89
-72
11
0
-22
21
20
17
35
19
20
-11
-95
-33
-12
-11
6
74
6
72
100
65
4
-1
-30
-21
3
22
-28
11
6
8
-9
-25
8
-13
-95
-48
-2
8
34
-1
1
14
21
-20
-14
-23
-38
-67
21
17
32
-18
-11
11
-20
12
57
52
81
40
31
23
103
121
-76
-56
-93
1
-24
-32
-63
-62
-72
-16
3
14
-10
-4
-12
-106
-40
2
31
31
18
-32
-85
-92
9
-30
-81
-48
-6
35
70
-58
2
-25
126
11
11
0
-45
12
49
126
89
46
14
-3
-3
22
-77
-128
-128
-84
-34
1
54
29
-36
49
117
50
10
-10
-97
-24
17
12
-35
-38
4
19
63
83
-8
-123
83
65
25
30
79
79
16
-26
-24
-39
-15
-9
-32
-102
39
1
-45
-41
-17
-53
-64
-63
79
93
89
-3
-8
-7
-9
66
-65
-40
-99
-70
-36
-25
32
-42
-12
-77
71
40
43
38
15
41
-92
-33
-68
-31
-34
3
25
57
37
127
127
81
41
-10
-26
-94
24
-79
19
-34
-39
-91
-67
37
21
91
-7
-1
2
101
113
47
29
70
92
-13
-7
-11
-78
-86
-92
-47
-33
-80
-19
5
19
-20
36
48
-39
87
61
-24
11
46
-15
23
69
37
14
-70
-38
-8
20
17
92
64
-15
51
-17
15
26
-87
-86
-71
-23
8
21
-41
8
103
103
-29
-17
31
-19
-27
16
-112
-43
-12
-3
-44
-7
99
-12
87
46
0
-6
-9
29
-15
42
-46
49
47
2
-38
-15
69
-9
-55
-128
-85
-31
11
-36
-65
76
75
-55
11
3
38
20
-47
-42
-75
51
26
10
-31
-8
-15
-12
-28
-31
-38
-28
-8
-8
-22
13
76
22
9
29
16
-1
-13
24
106
-53
0
-20
3
23
-10
-67
-128
37
-32
-13
9
54
47
61
-19
-16
28
10
-47
-97
-12
3
60
97
49
11
29
-2
-74
-4
-54
81
-24
3
9
-5
-8
-16
-30
-128
-21
-6
-10
12
67
-6
69
28
1
-8
-1
16
-35
2
-33
113
23
8
10
-7
0
-12
39
92
1
-15
-18
-41
-18
-1
45
-8
-27
7
-4
3
19
-5
8
79
63
26
33
60
38
23
-14
-69
7
21
11
-15
-29
5
72
10
-20
-31
-29
26
95
-50
-88
33
-2
12
24
-20
-84
46
14
-68
17
6
12
40
127
-92
-100
-66
10
-2
-4
-31
-87
26
45
97
30
22
-3
2
-7
-45
-39
-89
-28
-31
-33
52
-1
18
96
73
37
32
62
-41
-28
48
85
37
-48
-18
6
15
33
-13
23
-37
-28
2
-3
-82
61
50
-19
24
41
9
-3
24
33
-19
41
44
14
-10
3
3
63
1
-23
-107
-50
-14
-12
19
-35
5
-32
55
-9
13
23
-3
-58
-15
61
50
40
-4
-16
-10
14
19
-15
40
21
15
16
34
74
25
127
82
30
-5
5
17
73
-30
-128
-128
-83
-25
-35
-23
-42
7
112
102
41
6
16
6
5
-55
-31
-84
-46
-2
-5
12
-85
48
51
88
32
10
-12
-32
18
-50
-44
-70
14
1
-10
-22
-60
37
72
33
-34
-7
-23
-8
15
-22
26
-119
-25
-38
-6
-3
-64
-18
-13
40
-8
21
40
83
-7
-13
-6
-94
-18
4
-34
-72
35
9
-43
-117
-36
-2
21
49
3
-82
-11
-28
-4
-36
-69
-68
-83
9
-22
-128
-16
-17
22
-21
-44
48
48
105
45
12
-5
72
33
10
-40
-59
-38
-10
-65
-56
-15
-57
-55
57
-28
3
32
-25
51
-16
-119
1
34
8
40
-13
-13
-16
105
17
-45
-23
8
18
-5
66
50
97
5
16
-7
-19
31
-7
35
81
92
30
16
66
-32
-73
-74
-117
-77
-26
-64
-94
-29
-16
21
127
31
-11
-9
17
1
43
68
-62
9
6
37
25
51
21
87
-3
-5
-16
-13
32
28
12
-26
116
22
21
23
69
56
-4
67
-60
-73
-19
-9
-44
-47
-31
-78
43
-8
2
7
-12
-11
17
87
-59
24
10
-21
-20
-6
71
94
100
43
10
-8
11
7
-39
-128
-103
-20
3
15
-34
81
24
127
-53
15
-10
10
31
-45
35
-56
29
-58
-10
20
28
27
19
127
65
24
10
22
22
0
-16
-113
-22
20
1
-31
-15
1
-50
-58
-54
-9
-1
23
-33
-23
18
33
51
8
-7
-31
-16
-2
28
61
-33
-13
-11
1
17
60
31
85
97
45
21
26
54
34
-23
-14
-53
-40
5
-5
-27
-61
-77
-100
44
-3
0
-6
-8
-9
-1
94
-4
-9
7
14
7
30
-2
66
79
71
11
19
32
1
38
63
-11
38
15
-28
3
67
8
-36
66
-7
-14
0
-56
-63
16
-34
11
-9
3
-10
-17
81
-45
-99
-102
-54
-32
-8
46
-74
26
57
55
12
2
-11
-21
26
-32
-95
64
24
28
60
54
15
-37
67
58
54
3
-71
-48
-53
46
-60
116
-10
-4
15
-33
-33
-52
-85
-66
-51
-24
-14
7
3
16
10
-118
-9
7
13
19
68
-30
-103
15
-10
-24
-18
18
-4
3
97
-43
17
23
8
26
-45
44
28
92
41
3
6
7
13
-15
72
59
24
6
6
24
21
-2
-66
-43
-32
-2
1
-52
-40
-40
6
-128
-35
-29
-26
-47
23
44
14
127
25
6
41
80
31
-45
-4
-128
-24
0
-23
-31
-23
-12
-76
46
17
4
17
53
34
15
67
5
-1
-2
-11
-32
54
-27
-43
65
17
15
-16
26
-67
57
53
17
-10
-6
8
25
17
-9
-52
24
-32
-22
-26
-23
10
52
54
25
34
23
7
38
-8
-76
-24
-101
-33
-22
-5
-42
-63
22
-63
-48
-1
11
-15
11
2
-19
10
59
5
4
-1
4
31
-7
-85
30
-1
-12
36
-2
-13
3
57
12
-40
-14
-48
-61
-34
8
10
116
13
0
-2
-50
-23
33
35
-114
-15
-9
-10
18
-3
-12
-20
-49
-10
3
5
5
-15
29
16
41
17
8
27
40
88
17
100
67
35
-4
-16
-12
-35
-28
-57
82
11
5
51
84
-71
-31
6
-69
22
11
-73
-91
-55
-15
-89
65
-21
1
38
71
-1
-23
63
-54
-48
-30
-29
9
0
28
124
74
41
17
53
31
17
-12
-87
-1
33
-14
-51
15
17
7
45
47
-5
7
14
-36
-24
69
-43
3
4
25
-5
-5
15
-3
79
-44
-24
-22
-15
-24
0
-46
-84
27
-33
8
40
4
-1
25
-33
75
71
3
-31
-37
6
-43
-82
-104
-10
-14
26
45
15
25
49
-38
-62
-5
-24
-76
-77
18
37
30
3
-8
24
45
-16
35
49
-128
1
16
-12
38
38
9
14
127
50
4
7
-64
-9
-84
-128
-128
-72
-23
-17
1
-11
31
70
83
-37
-12
-20
-54
-6
10
76
67
24
-5
45
92
23
5
-35
35
11
14
-12
-53
-10
18
92
38
40
22
-6
27
52
12
-58
-20
17
2
2
15
23
-37
-97
-53
-22
-7
9
-13
-5
20
55
-54
-50
-23
0
29
20
6
65
52
51
13
-27
3
53
-7
-23
34
-7
2
18
24
-18
-39
20
-26
15
2
-8
-30
-19
16
18
37
31
12
11
1
-1
-42
-115
-75
2
9
21
-22
29
45
84
-51
-42
-16
-24
14
-26
33
57
71
19
10
24
24
27
-65
-100
-128
-49
-30
-65
-61
-18
38
67
127
34
24
9
-16
-24
-9
-73
-24
19
5
28
-49
-22
-24
28
69
-41
-31
-25
5
5
14
33
-36
9
-1
34
78
73
39
99
-101
-14
-9
-2
1
-22
-44
-43
70
12
31
3
31
-12
20
-57
-38
-22
16
27
14
17
-49
-10
3
21
-1
-24
-38
-56
-6
3
20
-13
-32
-16
11
15
17
65
-48
-31
-20
-13
-2
23
-32
-57
14
-6
5
6
-21
-28
88
84
121
23
4
22
31
95
6
-18
-11
-6
22
-17
-30
-50
-12
3
20
18
2
20
12
-30
-41
-11
-36
-1
-22
-25
-32
-50
-47
-88
-128
-43
-29
-20
0
-62
-28
-39
22
-21
-9
11
3
8
-30
55
-3
-18
-19
-47
-82
-31
34
-47
-35
1
33
5
10
8
42
117
58
19
2
31
4
-11
-35
-36
-61
-32
-6
-11
-4
-27
17
24
-10
29
22
25
50
66
13
43
53
17
-16
-27
-50
-61
-21
-18
-75
-63
-18
0
13
-10
-3
-25
59
22
8
15
54
103
53
-54
94
25
18
7
-21
-50
-65
-35
-68
-27
-7
44
39
-20
36
-23
127
44
12
-55
-73
13
13
-14
-52
12
-10
11
47
7
64
125
81
7
3
32
95
90
-2
-77
-75
-17
-4
-40
-83
4
6
14
80
39
14
14
31
-10
0
-51
-108
-52
-24
-16
-29
-29
-17
5
127
24
12
17
22
-7
42
114
-49
11
20
3
-4
-6
-17
-14
17
16
12
7
20
-9
22
57
124
39
10
-10
-31
44
-4
34
-128
-57
-49
-8
33
7
15
7
54
-40
-33
-37
-23
36
-31
-66
-39
13
12
23
20
-16
15
-24
36
11
34
81
30
-36
28
4
61
41
23
-57
-30
36
-4
27
-47
2
-9
4
-24
-12
0
84
110
-18
-18
1
72
40
-12
-22
-93
9
-2
-25
-98
5
-76
-50
-94
-74
-34
-5
-2
-55
46
103
112
36
12
1
26
18
-15
-43
-47
-44
-9
10
-7
4
2
-22
-39
-23
2
0
6
-18
-3
-6
6
24
18
53
67
36
-24
-76
-52
19
6
-11
-19
-9
53
68
88
8
4
-57
-105
-41
-35
-50
27
16
4
21
73
-58
-9
7
8
1
-24
-29
-97
-57
15
7
-86
-50
-26
3
23
33
-55
-91
39
-10
2
7
-9
15
22
52
-24
6
-2
-29
-27
-19
28
77
97
5
32
87
90
37
12
84
65
46
19
-18
1
-4
-32
-40
-128
-53
-20
-56
-60
-18
-5
61
52
5
-12
-11
-4
-8
-41
-50
30
14
-18
-18
-10
23
6
47
5
24
10
35
55
51
36
16
-16
-4
10
17
42
23
0
20
-3
-27
7
-1
1
-28
-16
-114
-6
10
-3
-2
-16
1
-15
-21
40
10
-3
-22
-45
-34
11
29
16
11
2
0
33
4
-18
55
45
23
-1
14
71
-9
-16
-40
-74
-39
-13
-23
-97
-55
-2
-55
-95
-40
3
-12
-37
-18
-18
77
64
24
4
3
28
4
7
-19
30
-5
-7
4
-14
-1
43
61
-6
41
31
0
27
29
5
69
64
2
-13
-12
-30
-12
5
6
-21
-11
-1
14
24
29
-9
-77
-107
-48
-20
-20
-3
-1
19
62
124
24
2
3
31
-10
-27
-53
-88
12
1
16
-7
17
13
5
-9
21
2
51
97
46
-20
-71
13
10
7
-77
-126
-43
-3
20
0
-17
-4
34
112
-2
-18
43
9
0
-9
-38
-77
-81
1
-13
22
-23
-14
-2
17
-2
46
20
-61
-18
11
41
21
20
-72
-91
48
-19
-11
-43
-68
-73
-3
14
127
37
2
14
32
105
-16
15
-40
28
-4
-5
-27
-12
7
-27
33
-9
-14
-1
3
-10
15
52
-90
-13
8
-8
-16
8
-17
-80
-13
-1
9
23
67
-50
-13
-31
24
-10
-8
-18
-70
-44
27
83
24
0
11
9
20
62
-21
38
0
26
-4
2
22
39
-27
-54
-98
-43
-29
-14
29
-10
38
72
33
32
30
35
-25
31
-75
-60
-40
0
-14
-42
6
-33
39
-33
3
6
4
-20
-29
-11
18
-30
70
-13
8
46
77
32
3
-55
-74
-6
-6
-30
-71
-80
16
88
45
40
18
28
85
68
-20
-62
-24
-21
-13
-49
-94
-5
28
111
56
-7
-15
34
47
-12
-34
2
64
11
-17
-38
58
-8
30
-72
37
30
27
10
-99
-58
35
101
-49
-13
7
52
115
27
4
8
81
24
16
-60
-106
-15
-15
-81
-102
-68
-39
2
-3
46
-36
10
15
-57
-37
20
47
-2
-29
-74
19
14
12
-40
-75
-47
77
34
-38
47
18
61
49
87
-9
-6
40
22
18
-61
-70
-17
34
90
-91
-34
-10
11
33
25
-27
-55
89
-3
-14
0
-47
-33
-1
41
-93
-1
-7
5
37
25
19
10
44
-8
8
13
-9
-11
-63
82
-40
57
9
-1
-1
8
-15
-64
-11
-6
0
37
91
22
-13
63
-19
-25
-6
-83
-120
-35
0
-28
43
-12
-10
41
51
9
23
7
-15
24
17
-7
27
2
-8
72
-25
-48
-24
14
-19
-22
-24
-103
127
54
19
19
44
35
-32
-71
-128
-76
-16
-22
-59
-26
7
-46
81
13
-8
0
16
26
50
66
70
74
9
-12
-19
26
-23
-93
-111
-64
-3
17
35
-40
20
5
41
28
24
8
54
-4
-34
19
-46
-13
-17
-9
-41
24
4
-14
66
-22
-18
-46
-31
-79
-49
-102
-45
-4
12
13
26
6
48
127
61
29
1
33
45
29
-49
-128
40
-12
-17
-30
-27
-7
41
94
-122
7
12
0
33
85
-15
18
58
-27
-6
4
-33
-52
-7
-5
9
14
7
23
54
13
55
49
3
5
10
18
-51
-14
38
9
90
30
20
-9
-6
35
-29
-26
-55
-12
-7
-9
2
8
18
-31
-51
31
13
2
-14
32
-4
-24
87
-12
-13
-5
-9
-60
-62
-104
-128
-43
-17
-10
22
-17
16
49
0
16
6
31
54
10
22
57
65
17
15
-8
-50
-18
-7
-40
-50
-6
-1
61
24
35
-15
60
72
-22
-23
-83
-69
11
2
53
-51
-9
-5
32
17
-46
26
109
51
-9
-6
-13
13
-7
18
-69
-71
-28
-10
-16
-21
24
12
46
51
53
22
47
50
5
17
39
14
20
-9
-53
-41
-13
-73
-37
-28
-14
5
10
-16
-67
-9
-47
-9
-2
0
-2
25
-2
5
-20
49
-2
-2
18
-11
11
10
19
-47
-53
-4
-10
19
-5
-27
12
48
45
8
20
17
5
-21
18
-87
-32
-7
-24
-25
-26
-24
31
-19
-4
-9
35
27
-20
54
-11
34
26
-3
-41
-83
9
9
54
-78
-33
-17
0
40
18
14
-21
38
-1
5
-6
-1
-15
-20
-25
22
18
26
35
19
4
11
7
-59
9
8
-5
17
35
-10
-69
-38
-15
-17
-29
-44
-18
23
34
56
3
-8
-21
12
-1
-5
43
9
-6
-3
66
57
32
-6
-20
49
16
4
-42
28
-33
-23
-46
-25
7
15
-9
20
-2
-8
10
78
13
-5
-2
17
5
14
-5
-40
-21
-6
-7
35
18
4
16
-20
-27
-13
23
-31
12
1
15
15
20
7
6
-25
-3
25
52
-1
1
1
14
37
-4
-1
-22
-39
0
-2
-36
-56
-16
-20
-24
35
1
6
21
-2
-4
11
11
27
-3
-3
1
-2
-11
-20
-49
-71
-8
-6
-3
-3
5
0
-8
-32
5
-8
-21
-24
-9
3
-3
25
-28
-12
8
-1
8
8
12
-12
0
-1
14
53
10
-2
1
44
20
16
-27
-72
-2
1
1
-13
-10
4
-1
-4
-13
12
19
11
5
-10
-20
54
6
-8
-8
-27
-4
4
56
-39
3
-13
24
31
-1
-12
-80
-18
-8
-2
-32
-21
-7
7
30
-18
-20
-7
7
30
7
4
13
-7
12
-1
-30
9
-14
-8
-6
-6
-6
2
18
14
9
7
36
27
6
-9
-27
-44
-9
-13
-36
-22
-3
1
-4
8
0
1
15
10
3
2
-17
-12
-17
-2
-23
-6
0
7
10
25
22
-3
11
3
2
5
10
-18
-5
11
-6
20
1
-4
-9
-1
10
0
4
-12
-5
24
-31
-5
8
-7
-16
-3
-3
5
19
-4
-7
0
8
11
6
-6
-20
3
-8
-9
0
3
1
-3
22
-9
-1
-1
-6
-11
1
-1
-57
-6
6
9
0
0
3
9
36
-1
-20
-4
8
17
3
6
10
-25
-2
1
-8
-4
0
3
-20
17
-2
5
11
-6
-2
-2
39
26
1
-4
-9
7
1
-11
-10
-63
-4
4
10
4
-2
-2
6
15
-1
-7
-6
0
-4
-5
2
14
-9
-12
-10
-8
-5
-14
-4
-38
-3
-4
-7
2
1
7
2
62
19
5
7
2
0
3
-6
-30
-19
-4
8
-5
-4
0
-7
5
10
8
9
3
-1
-21
13
10
8
1
0
-3
-3
-7
-5
16
-5
-5
-1
-4
-3
-1
-1
-1
17
6
-9
4
-1
-6
-6
-9
-14
0
7
-1
2
2
11
9
-1
-1
-6
-1
-2
1
-2
-9
17
4
-2
1
1
-4
-6
5
4
1
1
2
0
14
-5
1
3
-4
-11
-7
0
-3
4
7
-20
-10
5
-1
-3
-2
-11
0
1
-10
-4
0
1
5
3
-5
6
6
3
-1
0
-3
-29
-8
-15
-6
-4
-4
-2
2
13
22
-10
-3
-9
-2
0
-2
-3
8
22
3
-1
0
-3
-3
3
-24
-8
0
0
1
0
11
6
-1
2
0
-1
-2
2
-3
-13
-16
-1
-4
-5
-2
0
3
-4
7
-9
-7
3
1
1
-2
-6
11
-7
-2
-6
-2
-3
3
-7
-7
4
3
-1
-4
-4
4
-1
15
-5
-3
-3
1
-1
-12
4
-35
-1
1
1
0
-2
6
-7
9
-3
-7
0
2
2
-8
-11
5
2
-1
3
-4
-4
9
8
5
-17
-5
-14
-1
2
3
-1
-2
-18
-6
7
2
0
9
-14
4
0
-5
0
1
0
-4
17
-18
31
19
4
3
4
0
3
-7
-25
-5
-2
-2
0
0
-11
5
1
1
-5
-1
-1
2
-6
-1
3
-1
3
3
-1
4
0
9
-3
-1
-1
0
-2
-3
-3
-18
-27
-6
-3
-1
0
3
0
2
-1
1
0
0
-3
-7
17
7
-1
-12
-5
-3
-2
-16
-2
-15
13
11
2
2
-2
-4
-2
-6
24
6
2
0
3
0
-4
1
-9
-2
1
0
0
-1
-2
10
-1
3
-4
-1
-2
-11
-1
3
-6
-11
2
0
-5
-12
0
6
7
3
2
0
-1
3
3
6
-4
-1
2
0
1
-7
-6
0
19
-2
-4
-1
-3
-1
-4
-20
4
9
1
2
2
25
-37
-2
6
1
0
-3
-4
5
8
14
6
7
0
-2
0
-4
1
-10
-19
0
0
-1
0
1
3
8
1
-10
-7
-3
-2
-3
-21
18
2
-6
-3
0
-1
-2
-6
11
4
0
-5
-3
-1
1
7
-35
-4
-3
1
-3
0
7
13
1
4
-1
1
-1
0
-7
3
4
3
-5
1
2
-2
-3
8
-9
-25
0
0
1
1
3
2
9
1
11
2
3
1
-3
-7
-23
-1
-7
-4
-4
-1
-5
10
2
-9
-4
0
-2
-1
-13
4
-7
9
-4
-4
-4
-4
-2
-29
0
-1
-4
-5
-2
-1
10
7
3
-16
-1
1
2
1
-4
3
-41
7
5
2
-1
-3
-6
-6
23
-2
-5
-1
-2
-1
-8
13
5
3
-3
-4
-4
0
0
-2
20
-10
-10
-6
-1
-3
0
6
-17
14
12
4
2
2
8
-12
-29
-7
-3
-4
-1
1
-3
7
15
9
3
3
1
1
-2
0
7
-3
-5
-2
-2
0
-1
-3
1
-8
-7
-4
-1
-1
4
0
-11
1
-1
-1
-2
-1
1
8
25
-8
1
0
0
1
-3
-3
11
7
7
0
-2
-1
2
6
11
11
5
4
0
-2
-5
-9
-31
-12
-5
1
1
-2
8
5
10
-14
-3
-5
0
-1
-9
-1
4
7
-2
-4
-2
-1
0
4
-10
-9
-7
-3
-1
-1
2
4
24
31
8
7
20
3
5
-1
-34
-10
-3
-2
-11
-1
-10
-29
13
8
-3
-7
-7
-4
-3
2
-3
-10
2
2
2
0
-1
-2
-11
-8
-3
-2
-4
2
-4
14
4
17
3
3
14
0
4
-1
-8
-14
-5
-3
0
0
-2
-4
-7
6
3
2
-4
-4
1
-2
5
-3
2
-1
3
-1
-1
-5
-2
-5
-6
-3
-5
-2
-1
-4
-7
-7
0
2
-3
-5
0
5
2
7
7
-2
-1
0
1
7
-2
-8
-4
-6
-4
3
-2
-8
-2
6
2
5
1
0
3
5
0
-5
-4
-2
3
0
2
7
12
1
-2
-4
-17
0
-6
0
-6
-16
-1
2
10
-3
2
-9
-14
-3
-3
-2
-21
2
-6
0
-22
8
6
5
14
1
-2
8
19
-5
-9
-1
4
-1
1
-6
3
-20
1
-6
-12
-1
1
-5
-1
27
7
1
10
-2
11
7
-5
-5
4
3
0
3
1
0
6
10
-4
-5
0
-1
-9
-4
-7
-10
-10
-4
-7
-4
-4
4
3
-13
-3
1
5
1
1
-8
-7
9
6
2
-5
0
-1
-5
-16
10
1
-4
-1
-2
2
-2
6
-1
-2
2
-2
-2
-2
-2
-5
-6
-4
-6
-4
-1
-3
3
8
4
-4
0
-4
-2
0
-2
-5
-8
-1
-2
2
-1
2
-5
-4
8
-2
-1
-2
-2
-5
7
-1
-3
5
-3
-3
-3
-1
-13
4
-17
-6
-5
-1
1
-1
0
-9
13
0
2
4
1
3
-3
-2
-8
-1
0
-4
0
-4
-3
1
15
0
1
-1
-2
-1
6
8
-5
1
12
29
2
-2
0
16
-6
-1
-14
-42
-3
3
12
-4
17
1
0
2
-1
3
-15
-4
-22
-5
-3
0
0
6
2
-13
2
-1
-2
-5
-1
1
-3
0
-1
-4
1
14
0
0
3
7
4
3
1
-4
-1
-2
0
-7
-2
0
-3
-2
-3
8
-26
-1
0
-3
-2
1
-3
0
2
-20
-7
-3
4
13
2
-2
-1
5
4
3
-3
-4
-1
3
0
9
-9
-10
-15
-34
-5
-4
0
-7
3
7
-5
-6
-2
0
7
12
4
5
4
6
-1
-6
-12
-4
-4
-3
3
10
-1
-4
-6
-4
0
0
4
8
0
-3
3
3
-7
-9
-3
-8
0
-2
-2
-5
12
1
1
2
-2
4
10
11
-10
1
-1
-2
0
-1
5
6
12
5
6
8
-1
0
9
-3
0
-6
-8
-9
-1
-5
-8
-13
-9
-2
5
8
-1
-3
-1
5
3
-4
-3
-3
0
-2
-3
-5
1
0
0
4
0
-1
4
-10
-2
0
0
1
0
4
-2
12
-5
-1
-2
-3
-2
-11
-1
-6
8
2
-1
-4
-5
-16
3
7
-3
-3
-3
4
0
-5
3
-4
4
-1
-2
-3
-2
-2
-1
31
1
3
3
1
-1
3
-5
-55
1
-1
-3
-1
-1
0
0
15
-13
-2
11
38
2
-5
-2
-5
-4
-9
-23
-80
-6
-5
-2
-7
5
-2
0
5
0
2
-1
16
0
-7
2
3
0
8
3
6
6
10
-1
2
-1
-2
1
5
6
4
4
23
0
0
-2
-19
-5
-1
3
-5
0
2
5
14
8
6
2
-3
0
-1
-1
-18
-5
-7
1
1
0
1
2
19
-4
-3
-6
7
0
-2
-3
-14
4
-3
-6
-12
-3
0
-2
10
-1
2
7
30
0
-1
-8
0
1
-2
-12
-55
-7
0
2
9
5
6
6
10
2
-8
-7
-13
3
-2
-18
-11
-2
0
-1
-5
-8
-2
2
1
0
2
0
2
2
-5
-5
2
-3
4
4
4
-3
-1
3
4
-1
1
1
-6
-10
-4
8
10
-1
0
0
9
16
8
4
13
0
2
0
-6
-5
0
3
-1
1
-7
-4
5
-5
-5
4
13
-4
-2
3
0
-10
1
-22
-49
-2
0
-3
-9
-1
1
-5
-9
-2
1
-3
-7
2
-1
5
14
0
4
0
-5
-1
-2
2
15
1
1
-3
4
-3
-5
5
9
-1
0
0
10
-1
-4
-2
-9
-2
3
5
2
1
1
1
0
1
-2
-1
-11
7
6
1
-1
-2
-3
-4
0
-1
0
4
8
0
-1
-3
-7
-5
-2
-6
-12
0
-1
-1
0
-1
-1
-1
5
1
0
3
16
-3
-2
4
-1
-1
4
5
-8
2
3
6
11
1
1
2
12
3
0
-3
-4
-1
-4
1
1
-4
-6
-6
-8
-2
-6
-5
-8
0
0
2
-2
-1
1
-1
5
3
2
0
5
1
2
5
-7
2
-1
-3
-6
-1
2
1
3
-1
0
0
-1
0
0
0
-1
-2
-4
-2
-5
-1
0
-1
1
-1
0
1
9
-1
-2
-3
-11
3
0
-3
-7
-2
1
0
19
10
6
4
3
-2
-7
-7
-14
-20
-7
-6
-3
-2
-3
-5
-4
7
2
-3
-2
1
-4
-4
-15
-14
-9
-2
-2
0
1
-1
-11
9
5
0
0
-1
4
3
10
3
-2
-2
0
-1
8
6
7
-5
-1
1
3
-2
0
-1
8
5
3
-3
-4
0
-7
-19
-60
-18
-10
-3
-1
-4
-2
4
12
0
-2
-6
-4
-1
-4
-2
-6
1
4
2
0
0
-3
0
14
0
-3
-5
-3
-1
0
3
14
9
1
13
1
0
3
4
-7
4
3
-1
0
2
-5
-4
-6
-6
-5
-1
0
-3
-1
1
7
-1
-1
-2
-2
0
-2
-4
-1
-8
-3
-8
-3
-4
-3
-2
-16
1
-3
-2
0
-2
0
3
18
1
-9
2
2
0
-5
-9
-4
-6
5
-3
-4
-2
-3
-2
-1
-7
1
-3
-1
0
1
0
1
-3
-5
-2
-2
-1
0
3
-3
3
3
-3
-1
1
2
-9
-4
3
-2
-2
-3
-1
2
7
26
7
4
2
2
1
-3
-12
-43
-16
4
3
0
-1
-6
-1
9
-1
-5
-5
-3
-2
0
2
-8
-7
-3
-1
-4
1
0
0
7
-1
-1
-7
-4
0
0
0
15
13
1
0
1
-1
3
-3
-19
-10
1
6
0
0
0
5
11
-4
-6
-1
0
-1
-3
0
-10
-7
-3
-6
-3
-2
1
1
12
7
1
1
0
1
-1
-1
0
0
0
-2
-1
-1
-2
-2
3
-1
2
2
2
0
-2
-2
-12
3
-3
-2
-1
-1
0
2
14
-2
-5
-4
-3
-1
3
2
-2
-4
1
-2
1
0
-1
-4
-5
6
4
1
1
1
0
2
3
-3
-5
0
1
2
-1
-7
-21
-5
4
2
-2
-2
1
1
19
3
-4
-4
0
-2
-1
3
-17
-11
-1
11
2
0
0
12
10
0
-1
-2
0
-2
-4
-14
7
3
-5
-2
-2
0
1
4
6
-1
1
2
0
0
-1
-2
3
5
1
-4
-3
-4
-4
-7
-18
-15
-3
-1
-2
-1
0
9
19
3
-2
-5
-3
0
-4
-4
-10
1
-5
-2
-1
-1
2
6
23
5
0
0
-1
1
3
-6
-19
-9
0
1
-1
0
-1
-2
-11
4
5
-3
2
0
-1
2
-4
3
1
5
0
0
-2
-8
-19
-1
-2
-2
-1
-1
1
0
23
4
-8
-5
-2
0
0
-12
-80
-21
-3
-2
0
-4
-1
-5
24
8
5
1
-1
-2
-1
1
-20
-3
1
7
4
4
-4
1
1
8
-1
-4
-2
1
-1
-7
26
-1
-2
0
-2
-1
4
-6
-41
-4
-2
1
1
-1
-7
-9
19
-5
-4
-3
-2
-6
-1
8
8
8
-3
-7
-2
0
2
13
19
7
5
6
4
1
1
-9
19
-8
-1
-8
-3
-3
-4
-7
-47
-10
-8
-6
-2
-3
-2
-8
10
0
3
4
0
-2
-1
15
16
3
1
3
0
4
-2
-3
-1
1
1
-3
-2
1
6
3
13
2
-3
1
0
0
0
-7
-13
1
2
-4
0
-1
2
2
11
-2
-3
-1
-2
0
-1
2
6
3
-5
0
0
1
0
-1
-11
1
5
-2
0
-2
1
-2
-10
-5
5
8
1
-2
0
23
-8
-1
-4
-11
-7
-2
-2
-23
27
2
-3
4
3
1
-2
5
-3
-5
-5
-5
-2
-3
2
-12
-42
0
0
0
-1
-1
-4
-9
-15
-7
-3
-2
-1
-2
-1
9
-7
-8
-5
-4
-1
-2
4
10
44
11
2
-1
1
1
-2
-5
3
-3
-1
-15
-6
-4
0
-7
-1
-1
1
11
2
1
1
8
-19
-3
-1
0
-1
1
-2
1
5
4
6
12
3
2
-2
-1
-11
2
-2
-9
-4
1
-1
-8
0
-5
-7
-5
-2
-10
-3
-6
-16
-4
1
-2
0
-1
2
4
15
-2
1
-2
2
1
3
8
20
5
4
5
2
-1
-8
-9
-7
0
1
1
-1
2
-2
0
-2
1
1
5
-2
-1
0
13
18
0
-4
-10
-5
-1
-6
-23
2
-6
-6
3
0
-1
8
20
38
7
1
1
2
0
1
-16
-53
-11
0
-17
2
2
2
15
28
0
2
11
0
10
-4
-13
-32
-1
-7
-12
0
-7
-4
-6
7
-1
1
1
-16
-5
8
27
48
13
11
28
20
40
1
-24
-83
-10
1
6
12
-3
3
50
71
15
3
-7
-26
12
-16
-68
-63
-3
-8
20
47
-17
3
6
-51
-33
-21
-10
9
-9
-3
73
52
13
-3
-49
-87
-15
19
-27
-6
1
18
27
51
72
-29
-42
-45
-26
-19
-48
-36
-56
5
38
107
18
2
29
25
-15
-10
-46
-89
-11
-1
16
54
10
-23
-13
48
6
-5
-31
-29
-8
32
103
74
46
26
20
36
75
-38
-32
79
9
-4
-22
-10
-35
2
-80
-84
-90
-38
-48
12
67
-61
-74
108
-5
3
104
-47
-68
39
29
48
17
26
32
37
90
7
39
-71
8
20
10
-34
-100
-21
-26
127
57
-9
33
124
127
-29
-104
-128
-71
-47
-120
-72
-120
-63
57
116
5
2
17
-35
-83
17
-7
-110
-39
-4
45
56
58
-1
20
127
44
32
25
43
41
38
-27
-66
-35
-33
11
44
2
-3
-31
17
-20
-15
-3
-3
2
17
88
99
81
22
-13
-46
99
0
50
-119
8
23
40
49
-47
14
31
122
11
34
24
-13
1
48
38
1
-5
-21
-97
-61
2
-13
-86
-85
-62
-35
-18
12
-16
-13
71
102
40
-29
-60
-121
-94
28
27
-73
-8
11
71
76
44
54
49
61
16
43
72
-17
17
24
-61
83
21
0
-15
9
45
16
15
119
0
5
36
6
-31
-3
-51
-112
-30
-6
-42
-22
-24
-41
-29
-64
-18
-14
2
47
65
47
35
108
83
46
17
5
-51
-26
-21
12
-36
-46
-49
-100
-119
-32
23
-23
22
5
-7
38
66
23
62
-89
-32
-27
-25
-6
-64
13
-72
-37
-77
-4
25
-33
-39
5
52
-89
16
16
-30
-16
-15
48
-29
54
23
-3
22
12
57
-40
49
-128
12
0
5
-23
-83
4
-14
35
-29
-30
-69
-28
66
-7
-92
34
-24
26
71
44
9
-24
-18
64
97
26
-18
-38
19
-25
-97
-79
-92
-49
-17
-33
-33
10
85
78
39
21
-1
6
-31
2
-83
23
-12
2
-4
10
110
24
127
87
1
-8
-19
-13
-64
14
-40
66
21
17
12
30
63
7
93
17
16
10
6
1
37
-40
-56
-64
-15
-13
-5
6
-17
4
77
49
19
2
-15
-14
22
53
13
50
-34
-11
1
-9
-37
-47
-62
-15
28
-18
-19
-4
-21
59
127
27
12
-1
-18
30
78
2
-44
94
-4
20
22
-29
-29
-19
-10
-40
-55
-31
-5
86
81
-17
3
67
-26
-6
3
-60
3
40
74
45
8
-6
-30
-42
42
-53
17
25
9
-7
25
45
-30
31
-66
-56
25
21
-60
35
90
29
65
20
3
8
63
-49
-42
-63
-71
-101
-54
-13
-10
1
-36
2
-59
46
-3
-17
-16
-25
-3
-18
56
-51
11
29
64
5
-46
-27
31
20
10
-13
-28
47
15
75
24
20
28
42
33
-25
-13
44
114
36
33
25
36
46
127
-74
-124
-25
1
-40
-91
-108
-93
-16
-74
14
-32
-35
-9
-22
-14
49
65
16
-8
3
-17
9
49
-25
26
43
6
16
69
88
19
31
5
-35
14
8
38
4
62
-9
91
-19
-12
5
-30
-3
-47
-36
-102
29
-2
-8
14
19
8
-9
54
-75
-62
-52
-55
-2
12
-29
43
113
67
14
20
-23
-65
1
-44
-49
2
23
8
-3
-6
2
59
83
45
30
41
37
-17
23
-21
-78
-61
3
9
-34
-34
-17
33
20
9
-1
-5
34
-7
14
-92
18
-26
-15
-37
20
13
-62
48
81
41
-18
-13
-65
-100
-53
-128
-116
-95
-26
-35
0
-47
-10
-72
119
40
9
14
43
38
5
22
55
19
19
30
39
23
32
52
-78
-26
15
31
3
-33
-58
-66
-60
12
-11
-95
-45
-41
10
48
24
20
12
68
84
64
4
84
-60
0
-1
23
-87
-128
11
-28
54
-22
-10
40
45
22
45
-13
27
16
22
-33
-7
55
-56
-117
60
-17
-21
-2
6
-45
22
50
33
15
-17
-89
-31
55
-69
-1
-97
-25
-11
-7
49
-16
22
-17
69
34
10
40
61
15
58
116
-13
30
27
9
-22
-30
-47
-128
-21
-53
-14
27
39
71
15
54
-88
20
7
-38
-60
-27
29
81
83
40
-4
33
66
-25
-83
-101
-65
-37
-33
-66
-109
-17
25
50
-31
3
6
33
80
63
-10
-84
-15
2
8
-50
-66
-47
25
56
56
38
8
48
28
13
44
38
-81
-44
12
-36
-7
-80
24
-11
118
38
21
57
-20
43
-18
-90
-48
-21
-38
-27
24
52
-15
-43
-128
2
-6
12
13
-27
19
-61
37
-21
-1
-22
-32
-6
-10
32
-9
22
4
2
48
14
25
-16
10
-15
-11
36
93
10
-1
5
3
2
3
-83
-123
-21
30
13
94
-16
19
75
95
85
-22
3
-4
-14
-11
-71
-35
-59
-26
-43
-55
17
-10
22
13
-6
-9
61
74
19
-6
-21
-28
2
15
59
77
43
7
22
-9
22
-28
86
-126
-8
-5
10
0
-11
-5
-29
41
-56
-5
-3
3
-53
5
0
-37
-16
13
8
8
94
-9
115
18
19
-9
-26
-72
-60
-4
26
-38
7
-12
-19
36
-6
22
-26
29
1
4
37
-28
-15
12
71
-24
-18
0
35
28
10
-26
-37
47
-7
-5
20
85
22
-12
-124
-76
-15
4
-58
-85
-41
-6
-3
-40
5
-3
10
22
7
4
-26
18
-18
-4
-26
-38
-38
-3
-12
6
14
-13
-2
16
24
38
53
34
16
10
29
44
16
-22
-2
34
24
2
-9
50
68
55
54
-79
2
12
1
-75
-47
-16
-56
-62
-50
-21
-44
-16
13
-15
-123
82
0
4
28
68
89
39
127
-34
-17
-9
-27
-74
-51
-19
-97
20
40
0
13
18
-18
15
53
11
5
-9
-29
-14
18
8
49
-44
-37
7
29
13
-29
14
-32
78
-1
2
-3
-13
-26
-38
-95
-98
-38
0
14
14
-22
38
108
84
42
20
68
84
33
-25
25
-11
-21
-28
-88
-78
-39
11
26
22
8
1
0
43
-4
-30
19
43
2
-10
-14
-2
-4
15
29
-47
17
27
42
39
-13
-61
-122
-71
-48
-10
15
-12
42
-11
39
-12
12
4
-28
-37
-33
17
84
-15
-2
-5
12
-2
24
11
-62
-29
-4
5
-14
-25
-28
-4
-8
116
33
-13
-9
54
53
-23
-17
-77
-32
8
1
-35
-15
5
69
109
7
-9
-9
49
64
-31
-81
-49
-19
-14
-7
-58
-92
32
76
-74
17
8
-13
-20
-12
-15
14
-18
-13
-11
3
65
7
23
3
31
-10
8
19
-55
-5
0
77
59
3
-13
-50
-9
4
-20
-98
-31
-16
6
43
24
1
38
52
-54
27
12
12
12
20
-17
19
-4
26
13
30
78
-44
-13
-116
-44
-36
-9
-60
-58
55
24
53
-17
4
2
17
-22
-52
7
-25
12
-8
10
28
19
22
-29
-22
64
-3
-31
-14
3
-3
5
44
3
13
10
8
0
16
8
7
75
44
26
61
103
48
-27
-83
-83
-66
-40
-114
-120
-79
16
-76
36
10
-2
10
47
16
-2
54
-97
-26
5
3
40
31
-13
-1
97
0
-12
22
10
3
-4
43
89
20
5
6
-5
6
34
104
-65
18
9
-3
-20
-16
4
-50
29
-1
-12
-5
2
9
10
-50
-106
-38
-15
-27
-35
-24
-7
11
27
11
5
7
-17
33
-1
51
68
2
-10
0
30
-3
-3
2
-1
20
15
-4
-1
-8
3
28
66
15
18
46
99
-13
-16
-87
-57
-31
-13
-62
-108
-38
-19
4
2
14
17
43
33
-22
-11
1
22
25
12
13
15
-5
-12
40
8
-14
-23
-36
-33
-5
60
-78
-56
-8
-4
48
45
23
-50
-103
-82
-40
-9
-30
-12
28
2
2
22
-4
-7
21
-5
-19
11
105
33
15
0
-31
-54
-43
9
15
49
20
17
26
42
45
-31
-48
-33
-29
-7
-29
-42
-39
32
63
30
14
15
29
34
21
28
5
-16
33
6
-14
0
72
-9
47
55
1
7
109
81
-49
-5
-15
-42
-27
-16
-113
-109
-3
-22
-15
21
9
3
19
5
-1
-14
-18
-24
8
-4
-9
2
-6
11
57
111
14
5
27
26
27
47
45
-28
-10
8
39
52
14
-23
16
24
-5
-13
-46
-56
-44
-3
-9
-95
-31
-19
-27
-40
-26
-22
-30
40
53
0
-29
-5
5
9
-58
-72
-39
-14
2
36
19
57
103
-22
4
12
48
44
22
-30
-127
65
-6
13
5
31
30
10
105
-42
13
9
-14
-48
-8
-22
-9
62
13
-18
-46
-1
-20
38
10
-60
-4
2
7
-28
47
-32
-36
-22
-25
-2
-4
-39
-19
17
1
117
40
10
27
40
-18
-18
-14
-72
-24
-9
19
44
43
-10
11
53
10
1
-25
-57
1
25
52
49
12
2
0
22
66
-22
48
3
-5
-6
-40
-65
-24
18
-60
-4
11
17
35
23
-34
-9
33
1
-9
-19
82
99
59
-27
84
-51
-20
3
-80
-87
-56
8
-19
-50
2
6
11
49
-3
-21
-57
47
17
0
16
-3
-7
17
-15
7
-18
-6
-10
-10
-15
-7
-9
29
5
-9
51
98
-16
2
31
12
-4
-14
-54
-101
12
18
81
-49
18
29
32
23
-26
-19
-76
-66
-23
6
-34
-57
-10
-34
59
95
22
-8
15
30
-26
-5
-74
-43
-9
-9
-24
-15
-13
21
9
-4
-22
-17
5
-22
14
-7
-3
-26
19
0
-20
3
-11
22
24
35
-10
0
13
6
-31
-7
-21
13
-10
3
13
63
38
-6
4
15
26
21
-28
-99
1
-33
-92
-18
-7
-14
-35
-2
-74
21
-13
-13
-24
-10
9
7
-13
-2
-17
-29
-10
1
42
25
41
-1
121
102
7
-9
-15
29
-24
9
53
41
20
12
-1
59
33
11
-52
-128
-4
-1
10
-15
6
8
28
0
8
4
-8
6
49
-9
-30
-26
-30
-6
10
34
-9
26
91
74
39
2
-21
-89
23
25
-41
-50
2
5
63
66
-7
0
88
-44
-5
-7
-59
-44
11
0
-34
63
-36
-2
0
1
-32
-10
-59
-3
-13
-4
20
-6
-27
35
27
-29
14
2
-28
-30
8
-38
-128
-49
-15
-16
-17
-9
-5
22
95
-32
39
17
7
2
-2
-43
-33
-16
-47
-26
7
26
-13
8
-5
82
32
18
-5
-59
-21
-10
-19
-44
-52
-12
12
27
15
-4
16
-7
42
0
25
67
-30
39
117
82
21
33
-16
-41
64
-52
-57
-77
-33
-9
-19
-30
-36
11
10
45
4
-7
7
30
5
-23
-19
3
-18
-4
9
-14
-36
-49
-44
-37
10
-7
8
8
-26
18
4
12
23
10
23
37
35
0
9
23
7
-5
-45
-53
-42
31
58
37
27
18
63
110
88
-21
-83
-4
-42
-4
-35
-94
-79
-10
36
90
-17
-22
-62
-84
-13
-8
-39
-53
-2
-5
-6
21
-6
26
88
-29
-12
-6
27
28
-13
-11
-29
14
40
13
46
119
-13
26
74
-7
-48
-8
-48
-52
19
-56
-58
-29
-20
-24
7
38
-19
-10
-12
-6
0
-14
-68
-76
24
-7
64
31
-12
-4
24
83
-14
19
25
-25
38
29
75
102
43
25
69
26
-24
0
-48
-103
-47
-30
-64
15
-43
-18
-15
-27
-8
8
27
-15
27
-7
1
-10
-2
-3
-2
-11
5
3
9
19
15
6
7
50
32
25
32
28
-9
15
-57
-33
-33
-7
21
75
21
-16
22
-31
-14
-11
-70
-93
-12
2
-37
-7
1
-3
-6
-7
-28
-14
7
-4
-14
-11
29
54
2
-14
-17
44
6
2
-24
-55
-5
0
-3
-28
4
0
28
44
31
-12
-52
-30
-15
0
-11
-1
-1
-18
29
21
25
10
40
1
-8
-8
-5
-83
0
10
-24
-8
12
22
-3
94
-32
-7
11
-16
26
-4
14
-31
31
-1
-13
25
-4
5
-56
-57
-8
16
91
102
40
7
59
120
21
-23
-80
-98
-38
-20
-63
-123
-21
0
-52
-57
-10
-6
25
51
-8
-17
-13
1
-14
45
63
-5
1
6
10
5
30
-37
-96
-35
23
16
27
29
17
39
55
-2
-4
2
34
36
10
-9
11
37
17
1
-10
-43
-23
-25
-4
41
26
9
-10
18
14
12
-9
-89
-39
-4
10
-39
-6
-9
-39
77
38
-4
-10
10
-9
-6
29
-10
9
8
21
-3
4
17
-74
-71
-57
-29
3
77
32
-18
-38
-58
-11
0
-55
-121
-58
43
-5
19
0
6
8
80
46
-4
103
95
4
8
39
26
-45
-38
-86
-21
9
-9
-42
13
24
11
99
12
0
-14
-21
-71
-23
-19
-108
-39
-10
7
27
41
21
-5
-83
-54
-16
-2
7
16
15
13
119
93
22
9
-32
-110
-87
-22
15
-76
-21
-8
25
29
-4
-21
26
40
24
5
0
-15
31
-3
0
-14
-9
-16
-14
-14
-25
11
11
48
40
7
37
16
7
5
-49
70
-17
7
-49
-15
10
23
77
-58
-27
7
29
-15
-46
-69
-92
-27
-7
-14
-29
-29
0
3
36
-24
19
8
-7
-6
54
13
-29
90
21
-1
23
38
-54
-13
6
32
-11
-8
-10
8
5
-5
-58
-65
-22
-4
-5
11
16
1
66
-1
-15
-16
-40
-54
-34
23
24
21
49
22
79
126
39
-7
-5
42
-8
-1
-68
-102
-39
15
-39
-67
-41
-7
9
40
14
13
54
125
16
2
26
33
-6
-53
-68
-116
-15
-7
-17
3
8
0
17
22
-3
-22
-21
23
10
10
-19
35
-14
10
2
-39
15
-12
-41
12
5
4
-10
-12
-9
11
-47
14
0
0
16
9
27
17
37
-4
14
-6
-16
32
3
20
22
-34
-13
-3
15
-16
-4
-12
2
-55
-34
-2
-24
-56
-21
25
14
25
19
-1
23
64
42
-43
-82
-61
-6
-11
-2
-73
-1
18
116
47
18
10
-6
25
-34
9
-27
-18
2
10
10
10
-22
-4
-1
-50
-4
-6
-4
28
32
20
24
-28
-5
-1
17
41
7
-44
-23
80
-4
-14
-34
-71
-9
3
-12
-31
-12
-6
-30
-19
-9
-3
12
63
23
11
36
29
18
0
-22
-15
-10
10
29
48
-18
9
0
-3
18
8
-14
25
11
8
-49
-11
8
-2
-8
-67
-20
17
80
8
-9
-17
-29
-8
24
9
-36
-37
6
13
51
31
-22
-22
-9
55
13
0
10
16
-7
-30
-61
-51
-35
-26
-53
-11
-31
0
-5
0
-10
-3
4
1
-12
-17
16
17
2
5
-4
1
-17
24
22
-4
0
3
1
9
12
11
17
39
16
15
32
30
32
-8
40
75
1
-3
-18
-38
-27
8
-25
-83
-12
-9
2
-7
3
-6
-2
24
4
-4
-4
-2
15
2
-18
-27
18
15
17
37
10
-6
-6
10
7
7
-13
-62
-14
15
37
61
15
0
-8
-2
12
-2
-46
-38
-27
-13
4
21
3
-8
35
20
4
-4
-28
-7
4
7
6
-10
30
22
48
21
5
-10
-7
-10
-4
-1
-5
-7
0
-3
-11
-15
17
-1
-9
-16
-9
10
-3
-9
-14
-8
10
30
13
3
3
23
-8
-2
-9
-14
-4
10
-12
-22
-21
-6
-14
-16
-2
2
16
-21
28
22
22
25
10
9
6
14
-15
-3
7
2
8
-2
18
-10
6
-5
-10
-9
-3
-22
-17
28
7
-9
-13
-13
-5
8
12
-27
-33
-9
5
14
5
-2
-3
15
9
12
7
2
5
-3
-8
-6
29
1
-6
-14
-8
0
-2
-17
-22
1
1
9
-1
4
8
-3
14
2
1
1
8
4
13
-10
1
-5
3
-5
1
12
-38
13
-20
-8
-6
-1
-2
-5
53
30
11
-1
-3
-3
4
-2
-8
-35
-4
-4
0
0
-2
-8
0
30
-2
-1
1
-4
-3
3
-15
-36
-14
-4
-4
1
0
-4
-7
10
0
-6
-13
-4
-5
1
-4
7
-9
-5
2
-4
-4
-5
16
4
-3
3
10
11
2
-19
-17
2
21
1
1
0
-1
-4
3
-1
-6
7
0
-4
0
7
29
1
9
-6
-2
3
5
3
-16
-4
31
7
-1
0
6
4
3
0
-20
-3
-1
-6
-1
2
-12
1
2
5
17
15
2
3
-2
5
-6
-4
-11
-26
-3
-1
-4
-16
-15
-13
-5
-2
-1
-3
5
-3
-4
-2
7
7
-2
1
4
19
-9
-1
-5
-8
0
0
-2
9
-4
-1
3
7
-4
4
-5
-23
36
19
-6
1
3
-7
0
-6
10
2
3
7
2
2
1
-12
-17
1
-7
-12
-4
-2
-8
7
2
-4
0
6
0
1
1
-16
-27
-8
0
-8
-4
-8
30
16
8
4
0
12
3
-2
-4
-11
10
1
4
2
3
1
-7
-2
-15
-9
-13
-10
-1
9
13
2
-13
-10
6
10
-2
21
7
-4
-2
-3
-2
-7
1
9
-6
13
5
-1
-5
-3
2
-4
20
-30
7
9
4
5
3
-3
-14
13
-11
-4
4
2
-2
0
1
4
-17
-8
-9
-12
-6
0
-7
1
5
-4
4
0
0
2
-15
4
1
12
8
11
1
0
2
12
-5
-3
0
0
-1
-8
-3
-4
-13
-4
-13
-10
-4
-16
7
-7
12
0
1
5
1
15
-8
10
-7
-7
-2
1
-1
-10
-5
-3
5
0
1
-2
-2
2
-7
2
-8
0
-5
-6
1
-3
-9
-12
0
-1
-2
0
0
1
0
3
5
4
0
-2
-2
0
-1
11
-14
-6
-1
-5
-3
-2
-22
-27
-6
-4
-4
3
-1
4
-4
-5
0
6
1
-4
-2
-5
0
-5
0
-2
-1
0
-4
-1
0
-18
-10
-2
1
-1
-1
-8
-14
14
1
-1
0
-3
-2
1
-5
-22
-6
-5
-4
-1
-1
-6
5
24
-2
-4
0
-2
-3
6
-15
5
15
6
0
-1
0
2
23
-2
-2
2
2
2
3
-2
-10
-17
-1
-7
-6
-2
-2
-2
-2
-2
-13
-7
-2
0
-1
9
-8
2
11
0
-3
-2
-1
-23
4
-1
4
10
4
-1
-3
1
2
13
6
3
-4
-3
-3
-4
8
-5
11
8
4
4
3
-1
-2
0
-1
2
1
1
1
3
0
-1
-8
-7
-3
-4
-2
-24
16
10
5
0
2
0
-5
-22
-21
3
-3
-7
-2
-4
-5
-7
-6
3
-8
-4
-5
-3
-2
9
8
-23
9
3
0
2
-2
1
-2
16
-3
-3
3
2
0
5
2
-1
-2
-5
-5
-5
0
-3
-1
3
-6
-5
-4
-2
-1
7
-8
4
3
2
1
1
1
-10
30
-6
-3
-1
-3
0
1
3
2
4
6
3
-1
0
-3
-3
-2
-5
-6
-4
-2
-2
-3
2
-8
-29
-21
-13
-6
-5
-1
9
-7
11
0
0
-2
0
0
2
8
4
4
5
2
2
1
-3
-10
-23
-2
-1
-3
-1
0
-10
0
40
7
3
-2
-3
-4
4
-1
-20
-12
-7
-1
-2
2
-4
-5
-10
1
0
2
2
0
1
-1
-7
4
5
0
-1
-1
-4
-9
-3
-6
-5
0
-2
-2
6
6
40
13
4
7
3
-1
5
-9
-33
-21
-6
-3
-1
0
-3
-1
-16
-7
-2
-2
1
1
-4
15
17
2
2
-2
1
-1
1
-19
-20
7
-1
1
17
0
0
7
33
0
-4
-20
-54
-5
-3
5
-2
5
-3
6
6
0
0
-17
7
4
2
0
5
0
3
0
-17
-8
-6
-12
-19
-1
-5
-3
-12
-2
-1
2
15
0
2
2
8
3
5
-2
-4
-2
3
9
17
-6
-3
3
0
-1
0
-5
-11
5
5
11
16
1
-1
-8
-1
6
0
13
18
4
-6
6
2
-16
-11
-34
-57
-6
8
-2
-20
11
2
12
13
-2
1
-6
11
2
0
-15
-16
-1
-1
-3
-2
-4
1
7
19
-1
-2
4
11
4
5
14
30
0
1
-12
-17
-8
-7
-12
-34
-3
0
-6
-3
-7
-6
-4
-2
-2
11
10
9
-1
-7
-9
-4
-1
-4
-4
-6
9
2
9
9
-2
-4
4
-24
4
6
-6
1
2
1
-5
10
4
6
7
3
-1
-4
-4
-5
-1
-2
-2
-1
2
6
-1
3
-9
-5
-3
1
1
-3
1
10
5
-2
0
6
0
-1
-4
-19
-4
0
-1
-2
-1
-2
-1
0
2
0
-5
-2
-1
-3
13
15
8
-3
4
1
1
-3
1
-2
-2
1
10
14
3
-2
-10
2
-5
-6
-18
-24
-4
2
1
-15
0
3
0
-2
-2
-9
-3
8
-5
0
4
12
-1
-4
-1
-7
-2
-3
-4
1
0
-1
-6
2
-3
-8
-4
-6
-2
-3
-8
-16
6
9
7
3
-1
-1
6
9
8
5
0
-3
-1
0
0
-3
-2
-4
-5
7
-1
-4
2
35
14
-2
10
6
-3
-4
-2
-27
-7
0
0
4
-4
4
-9
-37
6
8
9
5
3
0
6
26
1
-4
-12
-21
-2
-5
-7
-29
-12
-1
3
5
-1
0
7
36
12
-2
-8
-5
-1
1
-4
-2
-15
-12
-9
13
0
1
-7
1
-1
0
-1
-6
-4
0
6
1
1
6
19
2
2
-1
-2
-7
8
5
3
8
1
1
-1
8
-3
2
1
-6
-1
-1
-3
-11
-3
-2
-8
-1
0
-4
1
6
-10
-11
-9
-1
-3
5
-11
-34
-6
-1
10
15
0
3
1
19
10
1
5
-8
-2
1
8
-16
0
2
0
5
2
-2
-18
3
-2
5
-12
-22
-2
-1
8
-1
1
-8
-10
-7
0
1
-1
3
-1
-2
-3
2
0
-10
24
19
2
-3
10
14
0
8
3
-9
-13
1
10
11
1
0
-2
-5
-12
-4
-25
-24
-2
0
-2
19
8
-1
-3
2
1
3
-4
-4
-3
1
-1
-4
1
-2
-3
-18
6
-2
-3
6
0
0
3
31
5
0
6
-2
-2
-2
2
-3
-13
-7
-3
-2
0
0
-8
-4
2
-3
-1
-6
-4
2
2
-4
0
8
4
6
-1
-2
-2
-2
7
8
7
6
-1
-3
-9
-7
-2
-3
-5
-8
-3
-1
-7
-1
-5
-6
7
42
3
-5
8
-2
-8
-8
-33
-90
-11
-5
1
6
-1
0
4
9
-1
-1
-3
-2
1
-3
-3
-1
-2
0
-7
-13
-10
-6
0
5
-1
1
5
12
10
7
11
43
5
-1
-4
19
10
2
-6
-30
-3
-7
-11
-40
-13
-4
-1
-3
-4
1
-7
3
-9
-5
-2
-8
1
-5
12
11
6
-3
0
10
2
-6
5
-1
2
1
4
2
0
4
2
1
8
4
3
11
-1
5
11
8
4
3
-6
-15
-1
-16
-29
-17
-9
-3
4
8
-3
-3
0
8
-7
-8
-4
8
-3
-1
-2
-13
-3
2
7
-6
0
-1
-1
10
7
5
12
9
1
6
10
-2
-1
-6
-35
-38
-2
1
-1
-7
-2
-1
3
9
0
-1
-5
38
5
2
-3
10
0
-3
3
-9
-3
0
-4
-46
-6
2
-5
-7
-7
-2
23
44
3
-5
-2
-10
-5
-5
-26
-36
-3
3
4
5
-1
-3
-3
6
2
-2
-7
-6
1
2
3
11
-1
1
4
3
-1
-1
3
5
-1
1
-5
4
-6
-1
15
35
2
0
-4
-34
5
6
0
-36
-4
-4
-4
-12
-7
-5
-5
1
1
-1
-7
-4
0
-2
-5
0
0
1
1
14
-7
-4
1
5
-1
1
5
8
26
4
3
8
-1
2
-5
-7
-7
-3
-5
-5
-1
-6
-11
3
-4
-2
-2
1
-3
2
-3
6
-3
-5
6
6
0
-4
-10
-10
-15
-3
0
-3
-2
-2
0
-1
10
5
-5
-8
-3
7
5
17
7
-2
5
9
2
0
-9
-31
-7
-1
1
-6
-1
0
6
-2
0
2
-7
-6
-1
-4
-9
8
-5
-7
-2
6
-1
4
5
2
1
6
2
-1
-3
-3
0
-6
11
5
1
-4
-1
10
7
-1
-7
-4
-1
2
3
1
-4
-4
-1
0
-1
6
1
0
3
12
-4
-5
-2
-4
0
-1
6
16
6
1
5
-3
1
0
8
16
5
2
1
7
1
-3
-11
4
-11
-5
-4
-5
-4
-9
20
-31
-12
-5
-6
-2
-3
-4
-35
14
6
-7
-13
0
10
-4
2
-48
-18
-10
0
-14
-14
4
19
39
5
4
-6
-10
-3
0
4
-27
0
-1
3
8
20
-3
-4
42
6
8
0
11
-7
-4
-22
-46
-3
2
10
-7
-13
-10
0
20
-5
-5
-10
-14
-19
8
4
-77
-18
-7
-2
20
9
2
4
10
7
2
-20
-70
41
-13
-8
18
-3
-4
-1
4
-45
4
29
18
6
0
-28
-52
-18
0
-41
96
23
14
28
24
4
5
2
-47
-28
-12
3
16
-17
2
25
37
8
-2
1
33
101
4
-12
69
4
-4
7
-9
-49
0
-14
-15
8
3
-13
0
-19
7
-4
-25
3
-1
4
16
-1
-10
66
58
10
10
10
2
13
-1
14
-76
-15
1
54
26
-10
-1
-28
99
23
4
-51
-6
21
-15
-6
-107
-33
-11
0
-54
-41
6
48
30
2
-8
-30
29
20
-7
23
95
16
1
-16
7
-25
21
59
-91
-3
4
41
37
4
-18
-61
-23
-21
-3
-3
11
8
-3
2
49
13
-2
6
-7
31
5
-58
-68
13
10
21
27
14
-20
36
-2
-7
-4
-14
-25
-25
2
44
111
20
1
6
24
12
5
-65
-65
-6
-2
0
-3
-7
-11
-86
-93
-45
-4
0
-9
-22
23
96
64
18
0
-10
-37
-46
-10
-86
-51
-7
-1
-9
-6
-16
1
11
83
33
4
13
47
19
-16
16
-106
-53
-22
-30
-55
-21
-40
-118
-42
-45
-22
-6
-9
-2
41
94
127
22
16
16
24
0
-5
4
90
36
7
32
73
30
49
42
3
36
13
-7
-56
56
11
32
-41
-46
-4
15
-33
5
-30
-89
82
-29
-29
-41
-44
-75
8
15
1
4
-13
-46
-11
37
1
-69
127
29
-1
20
52
-5
13
-79
-42
-8
8
34
14
-11
21
35
-65
28
34
9
8
-56
-19
-21
-11
-26
-21
-20
-57
-3
7
51
63
25
30
30
30
70
-35
-94
-31
-16
-31
-8
39
44
18
110
61
51
18
-5
3
-25
30
-44
-113
-37
-2
27
27
-50
-95
-95
-115
-111
-61
-120
-63
-72
44
116
125
109
14
37
44
10
31
127
16
-25
2
26
14
2
48
127
66
0
19
-26
21
-123
-83
-44
-82
-3
-25
-23
-42
10
-14
17
52
1
20
54
-12
7
-34
-125
-48
-62
-44
1
11
37
6
84
20
2
9
-4
-65
-70
49
-21
83
38
19
30
63
102
-45
-102
-64
-26
3
-60
-30
-24
50
110
29
40
10
44
82
127
24
-74
86
26
-3
0
-24
18
-68
-52
-77
-93
-6
16
52
63
-18
89
127
27
-37
-40
-23
-55
14
-60
45
7
19
-13
-45
-79
55
55
-43
17
48
41
47
46
-37
30
48
32
-12
14
6
-27
5
-64
26
-24
-14
-17
6
33
-48
22
16
-18
-32
-29
24
-8
-21
-10
-10
-16
-9
-3
-62
-59
57
78
63
43
22
32
41
-7
35
63
-92
-52
3
-26
13
80
-20
23
90
32
-3
9
-25
3
-26
-128
-36
21
31
25
-22
19
31
127
-28
16
3
-29
4
-79
-13
6
-38
-30
-12
65
-16
51
10
-2
73
18
23
-7
21
6
-13
86
58
9
-12
-18
7
-24
-10
-47
-27
-10
-24
-72
-44
14
63
96
31
39
64
56
31
-23
-76
-107
-128
-96
-78
-52
-10
-14
9
-100
-86
-17
1
-30
-46
-79
39
-41
45
45
1
-31
47
34
40
32
1
42
27
40
3
-43
-14
-60
-57
-59
21
24
-10
25
-9
67
-67
-30
-38
-63
-12
48
-67
-58
-53
-5
-5
15
-111
-78
3
-15
-24
-12
-19
-17
24
5
0
35
46
54
15
33
16
7
-40
3
-89
-33
-32
-30
5
-8
89
2
-16
8
35
32
44
-21
-30
9
110
-26
15
2
-16
-55
-19
19
-17
63
-5
-31
-2
-39
-37
-17
82
-19
-29
-27
-16
-7
46
127
127
55
41
67
39
42
-31
6
-97
-40
-33
-47
-25
-5
51
20
14
35
29
-3
62
97
16
46
-65
-26
4
55
-17
8
3
53
55
23
-11
-5
-24
-26
2
0
-45
13
6
-26
-12
-19
50
127
70
44
32
18
-10
-14
-79
-119
-96
-56
-36
17
13
-9
-26
25
66
4
-17
-9
-8
30
35
-61
4
13
8
-25
5
0
-22
8
-11
-3
9
27
10
-9
45
90
127
71
35
-48
-32
20
-38
-88
-92
-104
-40
37
-12
-43
-8
-24
52
36
-4
10
66
82
-15
-42
-10
-15
5
-7
-28
-21
33
50
127
31
0
16
30
17
-3
-61
-14
30
19
-4
9
-13
6
-16
-78
-57
-28
20
43
73
35
-63
57
24
22
-31
-52
-6
6
68
38
-27
-8
24
16
45
18
54
59
11
-2
-20
2
-18
17
37
90
33
3
-7
-72
-49
-52
-32
-47
-17
-12
-3
-2
-3
5
-55
12
31
10
23
43
24
37
13
-67
17
21
25
14
106
-6
40
21
-8
-10
-35
17
-6
-24
-27
-7
-33
-27
-34
-70
5
-6
-10
-123
-35
12
21
-5
-27
13
-52
24
-18
-7
10
33
44
-16
10
-11
3
0
-33
0
-23
17
-31
-9
36
15
57
40
8
25
92
21
-35
-30
-22
-17
-13
-35
-26
-5
19
8
-18
-25
-48
-6
42
-35
-9
-11
-2
-22
-31
-25
2
-128
-36
-6
2
19
0
-48
-128
-18
-3
-2
3
37
0
65
127
108
24
5
1
1
-7
27
-16
-63
-64
30
18
-9
-13
-41
-94
100
20
-25
-24
11
68
16
55
-5
36
9
11
-10
-14
-34
-42
9
-17
-1
18
28
-2
-23
-21
-45
-6
-21
-64
-50
-10
42
4
19
2
-3
25
34
-14
2
21
54
24
14
-28
15
12
3
30
-26
-20
0
72
50
28
1
65
52
6
20
-25
-80
-18
-37
-71
-128
-54
-4
-1
2
-24
-24
-34
127
18
-20
-16
-61
-76
-17
-30
-117
-24
-29
-58
9
10
6
68
127
45
9
49
51
43
-1
-66
77
14
3
-6
-27
-1
-6
-27
-39
-8
14
17
35
-9
19
-31
-99
-21
9
43
68
27
-38
-13
60
27
-24
-68
-101
-29
48
127
29
35
5
-4
60
14
-37
-117
-120
-59
-13
5
-68
26
25
51
110
36
23
-13
-14
-15
-67
-128
-28
-21
-10
10
42
-37
37
85
-17
7
14
44
28
47
28
21
32
11
9
-15
-32
-69
-27
-80
-107
-34
-28
-56
-17
36
-16
4
69
8
-4
39
38
-25
5
11
61
13
-2
-25
-71
-26
8
-14
-57
-21
-1
49
60
-2
8
67
74
29
5
-26
-12
-23
26
-43
-65
-7
4
17
88
33
20
61
28
-8
12
-6
-24
-43
1
-61
19
19
-25
-51
-16
70
-7
4
-51
-19
-4
0
-6
-51
-6
24
-47
-11
-13
-3
-20
-8
23
110
21
-3
15
39
22
-38
-18
-31
-33
-9
11
19
44
25
-2
50
88
27
8
-14
-43
-2
-9
-123
-52
-29
-5
14
12
57
19
55
53
37
11
5
13
-40
-15
-27
-50
-20
-11
-39
-78
-24
-46
-74
-73
-44
-31
-19
-15
-21
45
90
61
28
18
21
5
14
3
16
52
5
-8
-9
35
46
23
20
-12
-29
6
3
-10
-42
-15
-35
22
-11
-16
-19
-14
12
-29
-119
29
10
2
7
-11
-51
27
82
-32
-3
-16
-27
-27
26
18
54
9
11
7
19
52
52
38
87
79
50
35
48
53
22
0
13
51
11
10
-62
-46
10
-31
-123
-20
-65
-30
5
-16
16
-7
30
-39
5
7
23
47
15
16
-29
28
-32
-24
-17
-22
-25
-37
58
82
44
-11
-23
-37
48
-1
42
-45
3
16
0
12
1
18
34
59
31
20
-2
56
46
15
-48
-72
-23
24
28
-16
-42
13
83
62
51
1
23
45
-23
-22
-74
-71
-31
-27
-21
-37
-10
-11
32
24
-5
-11
-37
-59
-22
40
127
88
31
16
21
32
29
-71
-99
-44
-38
-7
-7
-13
-47
-1
37
-19
-6
-5
26
18
-25
50
26
105
23
7
-14
-19
-22
-33
-42
-114
-38
-3
-43
40
7
50
77
32
0
-5
46
-69
23
-36
-95
-49
-6
-12
-42
-44
1
12
109
59
22
6
20
7
8
-10
-83
4
-6
-7
-3
-5
29
25
-18
-84
-26
-8
-15
28
2
8
6
26
-21
-18
12
37
-32
-13
-8
49
17
11
-1
-28
-25
6
-45
-26
5
25
4
-10
28
18
32
14
43
8
-1
3
5
-29
-35
10
-29
-22
-23
-39
-13
-20
-26
29
-20
-21
7
26
-13
4
48
78
12
-14
3
-9
-26
8
16
17
-30
3
-9
5
1
13
-43
-55
22
32
16
18
17
-17
31
-35
5
8
-28
0
0
-12
47
119
28
1
17
-28
-20
42
52
-76
-28
-8
-13
2
8
-36
34
40
3
-12
6
35
9
7
54
66
27
22
29
-22
4
25
3
-128
-16
-6
3
-11
-29
-11
31
103
16
11
26
49
32
9
-3
-27
-40
-1
-18
-26
-40
11
-41
-32
42
7
-13
-3
18
-40
-5
-21
-7
-9
-9
-45
-1
-24
-51
-91
-16
-11
-10
-10
-38
18
-6
44
-10
-11
-11
29
44
-21
-54
-85
-18
3
27
20
5
36
62
91
24
19
8
37
46
-9
-6
-116
-9
10
-11
-9
-7
-5
-55
-3
3
0
-6
-30
-49
4
69
109
41
-14
34
70
41
-13
-78
-112
-54
-25
-75
-79
-37
11
-7
1
-15
-21
6
-9
-13
4
17
13
6
10
1
1
22
-6
-71
-20
-18
12
5
24
29
-14
123
-5
27
5
-16
4
-28
-2
17
127
-17
-11
26
7
-14
2
-100
-121
-12
0
-10
9
-2
-45
-63
3
13
-13
-10
-55
-35
-12
-5
10
1
-9
-10
10
11
17
64
4
8
0
-24
3
25
18
-8
66
24
12
41
41
16
-7
44
-71
-38
1
-3
0
-18
-7
-25
114
3
-10
-2
-47
-37
-8
-31
-68
-39
4
21
26
13
-30
102
88
42
-3
-39
-10
6
16
22
-93
-24
-15
-16
-9
13
11
9
30
-1
-8
-4
0
8
-3
21
17
18
17
74
87
41
-12
-50
-62
-19
4
-40
-91
-26
4
11
71
12
-5
11
-5
15
-11
-5
-24
-7
11
40
91
20
10
-96
-67
-10
-11
-34
-73
-6
5
105
22
21
-13
-13
14
11
-4
-91
35
-13
3
-11
-25
-6
32
37
-49
1
11
33
30
38
-44
7
-34
-2
0
-14
-27
-58
12
-38
36
-9
-17
4
41
11
16
-6
-24
-15
-1
-26
-38
32
-33
-69
27
0
-2
13
42
-35
-9
53
-55
4
4
-4
-32
-46
14
20
55
-7
-8
-10
-16
3
9
-2
23
-8
2
4
41
12
-7
3
-34
13
13
9
-25
-6
28
16
81
20
-5
-26
-20
-5
-10
14
-12
-9
3
32
46
60
-30
-12
-37
-12
-7
-6
41
-25
5
-17
-1
22
17
5
-81
16
-14
-33
21
-28
-12
-7
8
-33
34
-4
-37
12
5
19
33
34
5
17
-19
-7
-8
-10
-36
69
6
13
44
-4
-6
-21
5
-50
8
-25
80
42
11
22
33
20
-48
-112
-84
-39
-5
-34
-72
-71
12
42
13
-2
-8
5
-13
-8
29
37
39
2
0
1
13
14
48
23
28
26
11
3
12
39
-12
-22
-33
1
19
16
22
-20
38
93
15
14
-21
-15
-7
6
-2
30
54
-14
-19
-4
-26
-3
8
6
-19
-26
-6
1
6
-14
24
26
-58
39
15
-11
23
80
-27
-112
28
-6
-4
9
-24
-64
18
-39
-90
-29
-2
-14
-11
0
-11
34
27
10
3
-9
21
16
8
-39
13
-3
6
55
12
-14
-7
67
-32
-18
8
-3
62
14
-25
7
59
11
-11
-19
-58
-5
-16
-71
-89
-21
-12
-16
-36
-19
7
45
67
12
10
24
-16
-43
8
-3
-29
5
5
-15
-10
-10
-6
35
-60
0
-7
17
38
-11
7
-22
20
-13
-8
-6
2
12
2
4
24
-6
-13
-34
-41
49
-18
-23
27
27
19
32
13
-28
-22
-81
-88
-47
-15
-20
0
26
-6
-61
73
30
2
6
-2
-16
22
122
-16
-15
-4
-9
19
-8
25
11
13
3
4
42
48
5
-3
-15
67
20
1
-38
-44
61
-31
-27
-78
-29
-16
-27
-91
-56
-39
-24
-11
14
-6
7
-11
-49
12
-41
-10
-25
-4
-6
6
23
21
-2
-29
6
15
29
35
-53
14
113
64
41
19
30
69
15
-6
-65
-26
-18
4
-21
-33
-3
-43
-38
-1
-43
-40
-58
-69
-81
36
72
45
28
13
33
61
28
2
-28
25
-19
6
18
15
38
-34
-14
-40
-33
-19
-37
11
-33
-3
46
20
48
13
3
-17
16
-11
-89
-79
-36
-25
-12
35
27
21
127
44
29
12
25
-58
-48
-11
-74
43
1
9
12
12
1
-14
-64
-25
-34
-16
-7
-6
-1
-1
31
75
42
14
17
25
1
0
-31
5
15
16
-25
-19
24
9
1
-50
-45
-22
10
1
-1
-5
25
-69
17
2
-32
-44
2
-20
0
29
19
0
39
33
-18
-7
-31
10
-14
2
4
22
23
21
29
27
12
5
-28
-42
4
1
40
-5
19
3
30
43
9
10
-102
-1
-25
-2
15
49
-1
2
65
-73
0
-6
-77
-77
-19
7
63
123
26
16
20
4
-6
9
26
-56
-8
-11
21
12
5
-9
57
92
2
-10
-17
-30
-2
-16
-104
-103
-6
0
31
102
34
2
42
0
-1
-3
-16
-53
-34
28
33
55
4
7
-20
9
50
-9
-16
-11
-1
4
3
-4
21
-29
-79
9
-7
-8
16
9
-37
-4
101
66
44
12
-2
-11
-3
-4
-86
-43
-21
2
25
37
-46
-26
59
53
23
-1
-57
-73
-16
31
44
-83
-9
-1
18
66
28
-3
-87
27
-3
-17
-11
-34
10
7
-29
26
-7
0
1
-26
-25
-7
-23
-86
-37
-8
7
7
2
26
72
83
17
3
0
21
6
10
-69
-55
-2
-2
-12
-13
24
9
13
20
21
17
19
25
4
20
51
19
4
2
7
-2
18
-3
18
-17
-22
-5
-17
-18
22
-18
-4
69
37
3
35
75
-28
-3
-124
-93
-49
-27
-51
-98
-64
-4
57
29
1
0
-8
-4
-12
7
37
29
15
8
50
65
29
20
-3
-15
-13
6
-23
-7
40
28
82
29
17
6
5
40
26
-8
0
-34
-14
6
37
-32
-31
-19
-85
-2
-21
-27
-38
3
39
-19
-28
-45
23
3
-9
-18
-26
1
112
69
-8
-3
-11
-22
-6
-6
23
-35
21
6
4
37
6
19
-11
38
-3
6
3
-20
0
26
124
26
0
-3
10
-24
-13
-68
-70
-47
-1
3
11
17
-19
13
-13
-26
-28
4
-9
34
-18
15
16
-1
0
-2
-24
-33
19
10
-14
-8
-9
-22
-20
-30
41
-14
-5
-62
2
-7
5
16
-1
21
-28
23
-1
0
20
20
21
-10
8
-18
0
5
-8
-1
-31
9
-43
40
18
5
28
69
58
33
16
56
6
22
12
-42
-26
-81
-128
-128
-43
-27
-49
-50
-63
7
47
73
-6
-6
20
-1
15
-7
-10
0
0
4
-6
35
-4
-8
-22
40
16
3
-2
-28
23
-3
87
11
11
8
63
52
21
-14
16
36
-3
-10
-94
-75
-27
5
-23
-3
-15
3
42
52
-32
-43
-50
-38
-4
-2
15
80
71
12
16
67
21
9
-40
-91
-39
-18
-78
-55
-18
-19
55
48
-2
-33
38
-23
-12
5
-1
-25
-28
7
30
65
9
16
-6
0
7
-5
-52
-26
-7
-12
-5
5
10
-3
12
-10
0
1
-1
-17
-17
5
57
-76
-12
-17
-35
-16
10
3
30
75
-14
-5
27
30
-11
21
7
13
18
6
8
-25
38
-42
-1
8
3
5
-15
-25
-86
4
12
-64
-35
-14
-13
-7
17
13
31
13
6
13
33
22
-8
7
-24
23
8
-3
-51
-17
-9
33
34
-40
1
-2
20
16
12
-28
-50
-9
4
-3
12
28
10
-30
-87
31
10
-8
-27
-63
-24
10
86
-17
-11
-9
7
19
1
3
-30
-26
0
13
0
-15
7
7
14
61
9
0
-1
0
-16
15
8
-22
-20
-11
-5
8
16
8
2
9
2
-6
-7
-6
1
-30
-2
-16
4
-5
-6
-6
-3
14
16
25
-6
3
16
7
4
1
7
-31
15
11
0
22
4
3
3
10
15
12
6
-32
2
4
-4
14
-11
-12
-6
13
2
2
-24
-17
-21
-5
5
-4
-10
2
19
-6
1
-1
-3
-7
2
0
-8
-1
-7
-4
-2
17
-4
6
-10
-2
16
8
6
3
9
-8
-5
-9
3
-6
-6
-19
-8
9
16
-17
-29
-5
-8
5
3
1
-5
12
-9
8
11
11
4
-3
-7
10
26
7
2
-4
-2
3
14
-3
-16
0
1
-3
-2
-8
7
-12
-2
-13
-16
-6
-6
-3
-19
1
-9
-8
1
2
-3
-5
-7
3
-10
-4
-2
-5
-4
2
-8
-23
-2
4
0
2
-2
2
1
4
6
-5
-3
-4
4
1
7
14
25
9
0
-1
1
-9
-1
-18
-15
7
0
2
-2
0
0
7
35
4
-4
0
1
-2
-4
-21
-12
-3
3
-5
-1
5
5
15
4
-12
-10
0
3
2
1
-10
4
0
2
0
-1
1
0
12
0
2
1
-2
-2
0
3
1
-7
-6
-9
-8
-2
3
-4
-3
-6
-2
5
8
0
-5
-2
5
0
1
-4
-5
1
-2
4
-18
-4
-4
7
-1
-1
11
-25
-1
9
4
-3
1
-4
-8
4
36
8
-2
0
1
0
4
-1
-48
-7
-6
-3
-1
-1
3
0
59
14
3
0
-1
-3
7
10
-62
-8
-3
-3
1
4
-3
-18
21
-11
-4
-2
-1
-2
2
-4
0
2
-5
-4
-2
0
-2
0
-2
-26
-3
-3
-5
-3
6
17
32
9
-7
-3
-1
-3
-4
-4
-40
22
17
12
6
-1
-2
5
22
11
-1
-2
0
4
3
0
-21
-12
-1
1
1
2
-5
-7
12
-3
-3
-7
-5
0
-2
-6
-21
-20
-4
0
0
-1
1
-7
15
7
3
2
1
-1
-4
-1
-10
-2
-2
2
-2
-2
0
5
-2
-11
-9
-6
-4
1
-10
4
-3
4
-2
-5
-2
-1
-1
-5
15
-3
-3
-3
-2
-1
-2
-2
-17
0
-1
8
-2
-3
0
4
-1
-3
-1
3
-2
1
7
0
-2
0
14
-2
-1
2
-8
-4
-5
3
5
7
2
-2
-5
5
11
9
7
-7
-1
0
-4
-3
0
-1
-5
-2
-1
-1
-3
0
3
-17
-15
-9
-3
-4
-3
-4
-7
6
3
-2
0
-2
0
-1
-12
2
3
0
0
1
-5
1
6
11
2
1
0
1
0
1
-4
-17
-3
-3
-1
-1
4
3
13
-2
-7
-2
0
-1
-14
-9
-14
5
0
-2
-3
-3
1
4
-1
-5
6
3
1
1
0
-5
17
0
-2
-1
-1
0
-4
2
-10
-15
-6
-2
-4
-2
1
5
5
4
-2
-1
-3
1
-9
-11
-11
-1
-2
-2
-2
-2
-1
-3
-16
7
-3
0
-1
-2
-11
4
18
-2
0
2
2
-6
-10
-7
-7
-13
-6
-3
-1
-4
3
3
0
15
11
4
0
0
0
9
8
14
9
1
-1
3
-9
-5
-36
-11
-2
-1
-2
2
4
3
11
-12
-13
-6
-3
-4
-3
-2
3
-8
-6
-4
-2
-2
1
0
-3
8
-1
-2
-2
-3
7
-7
2
9
5
5
4
3
2
-1
-1
4
2
-5
-1
-2
1
-3
-4
-3
2
3
3
1
-1
8
14
1
-3
-1
-4
-1
2
-5
-9
1
-4
-2
-3
-1
2
-4
11
3
-3
0
0
-1
-1
-1
-25
1
-1
-4
-1
-5
-4
-15
-59
-21
-6
-1
0
1
2
3
24
6
3
4
2
0
4
0
16
10
4
4
2
1
2
13
7
-2
1
-3
-3
0
-6
-29
-24
3
-4
0
-2
-6
5
-3
7
-6
-4
1
0
0
-10
-1
0
9
5
-3
-3
-4
-8
1
10
-4
0
1
1
-1
-11
16
4
-5
0
1
3
-1
0
-11
4
10
5
-7
-3
-3
2
-1
7
-10
-9
1
-1
2
0
5
1
-7
-9
-2
-2
1
-2
3
-5
3
1
2
0
1
2
0
2
-1
-1
-5
0
-2
5
2
2
0
5
3
2
-1
-1
-6
17
4
3
0
0
-2
3
13
-4
-13
-9
-5
-4
-1
1
11
6
0
-4
-1
-2
-1
3
-2
-10
-5
0
0
1
-1
2
2
5
1
0
-1
0
1
1
-6
13
14
8
3
2
-1
-2
5
-12
-7
0
-3
-2
2
-7
2
3
-3
3
5
2
-1
-12
-14
0
3
-1
0
-2
-5
3
2
-9
-2
-7
-1
0
0
-3
-3
2
7
3
-4
-4
0
6
4
23
-1
-7
-4
9
0
0
-16
-56
-17
0
3
-21
-2
-2
4
45
13
1
-5
-1
-1
2
1
-2
-7
-2
2
3
-2
1
3
0
5
-1
-2
0
1
1
3
8
3
-3
-2
-1
-2
1
-6
-11
-13
-6
-8
-3
-2
3
2
4
5
1
1
1
3
4
0
-38
-3
5
3
8
-1
-3
-16
3
2
-3
15
37
0
-3
-5
-16
-8
-5
-31
-67
-4
0
-5
7
-7
-6
-2
-1
-2
0
13
-20
-1
-1
-7
-8
3
3
8
9
6
1
1
6
1
6
8
23
20
8
18
26
1
2
-10
-24
-3
6
-5
0
-3
-5
-6
-4
-3
-4
-6
-12
-2
0
2
5
-3
-4
-1
-2
2
6
0
-3
-9
-5
6
