-0.40991009737271383
-0.16031392033987282
-1.070760330934812
-0.40991009737271383
-0.16031392033987282
-1.070760330934812
-0.4103397120960946
-0.16032147504326494
-1.0708948343275737
-0.4103397120960946
-0.16032147504326494
-1.0708948343275737
-0.4103397120960946
-0.16032147504326494
-1.0708948343275737
-0.4103397120960946
-0.16032147504326494
-1.0708948343275737
-0.4103397120960946
-0.16032147504326494
-1.0708948343275737
-0.4103397120960946
-0.16032147504326494
-1.0708948343275737
-0.4103397120960946
-0.16032147504326494
-1.0708948343275737
-0.4103397120960946
-0.16032147504326494
-1.0708948343275737
-0.4103397120960946
-0.16032147504326494
-1.0708948343275737
-0.4103397120960946
-0.16032147504326494
-1.0708948343275737
-0.4103397120960946
-0.16032147504326494
-1.0708948343275737
-0.4103397120960946
-0.16032147504326494
-1.0708948343275737
-0.4103397120960946
-0.16032147504326494
-1.0708948343275737
-0.4103397120960946
-0.16032147504326494
-1.0708948343275737
-0.4103397120960946
-0.16032147504326494
-1.0708948343275737
-0.4103397120960946
-0.16032147504326494
-1.0708948343275737
-0.4103995468986582
-0.1602180086083299
-1.0709114880589035
-0.4103995468986582
-0.1602180086083299
-1.0709114880589035
-0.4103995468986582
-0.1602180086083299
-1.0709114880589035
-0.4103995468986582
-0.1602180086083299
-1.0709114880589035
-0.41064069187531926
-0.16009102522943694
-1.0709835078343004
-0.41064069187531926
-0.16009102522943694
-1.0709835078343004
-0.41064069187531926
-0.16009102522943694
-1.0709835078343004
-0.41064069187531926
-0.16009102522943694
-1.0709835078343004
-0.4109804012975909
-0.1597736123554703
-1.0711937439759482
-0.4109804012975909
-0.1597736123554703
-1.0711937439759482
-0.4109804012975909
-0.1597736123554703
-1.0711937439759482
-0.4109804012975909
-0.1597736123554703
-1.0711937439759482
-0.41159136113581235
-0.15975787466655528
-1.0713837596053601
-0.41159136113581235
-0.15975787466655528
-1.0713837596053601
-0.41159136113581235
-0.15975787466655528
-1.0713837596053601
-0.41159136113581235
-0.15975787466655528
-1.0713837596053601
-0.41189501962598346
-0.15972312502992458
-1.0716442976340366
-0.41189501962598346
-0.15972312502992458
-1.0716442976340366
-0.41189501962598346
-0.15972312502992458
-1.0716442976340366
-0.41189501962598346
-0.15972312502992458
-1.0716442976340366
-0.41189501962598346
-0.15972312502992458
-1.0716442976340366
-0.41189501962598346
-0.15972312502992458
-1.0716442976340366
-0.41189501962598346
-0.15972312502992458
-1.0716442976340366
-0.41189501962598346
-0.15972312502992458
-1.0716442976340366
-0.41189501962598346
-0.15972312502992458
-1.0716442976340366
-0.41189501962598346
-0.15972312502992458
-1.0716442976340366
-0.41189501962598346
-0.15972312502992458
-1.0716442976340366
-0.41189501962598346
-0.15972312502992458
-1.0716442976340366
-0.41189501962598346
-0.15972312502992458
-1.0716442976340366
-0.41189501962598346
-0.15972312502992458
-1.0716442976340366
-0.41189501962598346
-0.15972312502992458
-1.0716442976340366
-0.41189501962598346
-0.15972312502992458
-1.0716442976340366
-0.4116555860930264
-0.16013685879617434
-1.0715773785367502
-0.4116555860930264
-0.16013685879617434
-1.0715773785367502
-0.4116555860930264
-0.16013685879617434
-1.0715773785367502
-0.4116555860930264
-0.16013685879617434
-1.0715773785367502
-0.4116960270280185
-0.1603368086143245
-1.0717041092891342
-0.4116960270280185
-0.1603368086143245
-1.0717041092891342
-0.4116960270280185
-0.1603368086143245
-1.0717041092891342
-0.4116960270280185
-0.1603368086143245
-1.0717041092891342
-0.4111659223755131
-0.16075227004358056
-1.0717678317172343
-0.4111659223755131
-0.16075227004358056
-1.0717678317172343
-0.4111659223755131
-0.16075227004358056
-1.0717678317172343
-0.4111659223755131
-0.16075227004358056
-1.0717678317172343
-0.41015502018805017
-0.1607477875426592
-1.0718944978969847
-0.41015502018805017
-0.1607477875426592
-1.0718944978969847
-0.41015502018805017
-0.1607477875426592
-1.0718944978969847
-0.41015502018805017
-0.1607477875426592
-1.0718944978969847
-0.4096473711880447
-0.1595751049780404
-1.0718788594440287
-0.4096473711880447
-0.1595751049780404
-1.0718788594440287
-0.4096473711880447
-0.1595751049780404
-1.0718788594440287
-0.4096473711880447
-0.1595751049780404
-1.0718788594440287
-0.40975534486977466
-0.15686932243584736
-1.0717472064810503
-0.40975534486977466
-0.15686932243584736
-1.0717472064810503
-0.40975534486977466
-0.15686932243584736
-1.0717472064810503
-0.40975534486977466
-0.15686932243584736
-1.0717472064810503
-0.40979649764786164
-0.1527700111463605
-1.071953390677825
-0.40979649764786164
-0.1527700111463605
-1.071953390677825
-0.40979649764786164
-0.1527700111463605
-1.071953390677825
-0.40979649764786164
-0.1527700111463605
-1.071953390677825
-0.4072069158899845
-0.1479851158146663
-1.072907501769133
-0.4072069158899845
-0.1479851158146663
-1.072907501769133
-0.4072069158899845
-0.1479851158146663
-1.072907501769133
-0.4072069158899845
-0.1479851158146663
-1.072907501769133
-0.4023659617045476
-0.14140771344363443
-1.075062988811335
-0.4023659617045476
-0.14140771344363443
-1.075062988811335
-0.4023659617045476
-0.14140771344363443
-1.075062988811335
-0.4023659617045476
-0.14140771344363443
-1.075062988811335
-0.3994496217996208
-0.13402655219378015
-1.0762961825003023
-0.3994496217996208
-0.13402655219378015
-1.0762961825003023
-0.3994496217996208
-0.13402655219378015
-1.0762961825003023
-0.3994496217996208
-0.13402655219378015
-1.0762961825003023
-0.3966248524527636
-0.12593286130407214
-1.0767452505616175
-0.3966248524527636
-0.12593286130407214
-1.0767452505616175
-0.3966248524527636
-0.12593286130407214
-1.0767452505616175
-0.3966248524527636
-0.12593286130407214
-1.0767452505616175
-0.3953875024058935
-0.11781128515984572
-1.0766540910028843
-0.3953875024058935
-0.11781128515984572
-1.0766540910028843
-0.3953875024058935
-0.11781128515984572
-1.0766540910028843
-0.3953875024058935
-0.11781128515984572
-1.0766540910028843
-0.3924447711445246
-0.10940634965798735
-1.0766831071279737
-0.3924447711445246
-0.10940634965798735
-1.0766831071279737
-0.3924447711445246
-0.10940634965798735
-1.0766831071279737
-0.3924447711445246
-0.10940634965798735
-1.0766831071279737
-0.38746335154182326
-0.10046799039443362
-1.0759784325029709
-0.38746335154182326
-0.10046799039443362
-1.0759784325029709
-0.38746335154182326
-0.10046799039443362
-1.0759784325029709
-0.38746335154182326
-0.10046799039443362
-1.0759784325029709
-0.3829703322081136
-0.09212043513465899
-1.074602191094738
-0.3829703322081136
-0.09212043513465899
-1.074602191094738
-0.3829703322081136
-0.09212043513465899
-1.074602191094738
-0.3829703322081136
-0.09212043513465899
-1.074602191094738
-0.3811668677281651
-0.08496939878787967
-1.07188422790065
-0.3811668677281651
-0.08496939878787967
-1.07188422790065
-0.3811668677281651
-0.08496939878787967
-1.07188422790065
-0.3811668677281651
-0.08496939878787967
-1.07188422790065
-0.38081566172736847
-0.07918266523606203
-1.068087192229764
-0.38081566172736847
-0.07918266523606203
-1.068087192229764
-0.38081566172736847
-0.07918266523606203
-1.068087192229764
-0.38081566172736847
-0.07918266523606203
-1.068087192229764
-0.3775521729392199
-0.07361177272007441
-1.0645299251951488
-0.3775521729392199
-0.07361177272007441
-1.0645299251951488
-0.3775521729392199
-0.07361177272007441
-1.0645299251951488
-0.3775521729392199
-0.07361177272007441
-1.0645299251951488
-0.374890434492055
-0.06852370293374808
-1.0628695475318537
-0.374890434492055
-0.06852370293374808
-1.0628695475318537
-0.374890434492055
-0.06852370293374808
-1.0628695475318537
-0.374890434492055
-0.06852370293374808
-1.0628695475318537
-0.37117457811286314
-0.06462687690940347
-1.0602194427449227
-0.37117457811286314
-0.06462687690940347
-1.0602194427449227
-0.37117457811286314
-0.06462687690940347
-1.0602194427449227
-0.37117457811286314
-0.06462687690940347
-1.0602194427449227
-0.369115041049641
-0.06101573539879326
-1.0569169877823053
-0.369115041049641
-0.06101573539879326
-1.0569169877823053
-0.369115041049641
-0.06101573539879326
-1.0569169877823053
-0.369115041049641
-0.06101573539879326
-1.0569169877823053
-0.37030709572966475
-0.05814147392185891
-1.052750629869702
-0.37030709572966475
-0.05814147392185891
-1.052750629869702
-0.37030709572966475
-0.05814147392185891
-1.052750629869702
-0.37030709572966475
-0.05814147392185891
-1.052750629869702
-0.3714594206432765
-0.054953737692940534
-1.051375020117639
-0.3714594206432765
-0.054953737692940534
-1.051375020117639
-0.3714594206432765
-0.054953737692940534
-1.051375020117639
-0.3714594206432765
-0.054953737692940534
-1.051375020117639
-0.36977141954293075
-0.05186551198606496
-1.0494692854600698
-0.36977141954293075
-0.05186551198606496
-1.0494692854600698
-0.36977141954293075
-0.05186551198606496
-1.0494692854600698
-0.36977141954293075
-0.05186551198606496
-1.0494692854600698
-0.3649572631961167
-0.051320130989737624
-1.044960650554312
-0.3649572631961167
-0.051320130989737624
-1.044960650554312
-0.3649572631961167
-0.051320130989737624
-1.044960650554312
-0.3649572631961167
-0.051320130989737624
-1.044960650554312
-0.3595437952017724
-0.05073249671992639
-1.041200801971828
-0.3595437952017724
-0.05073249671992639
-1.041200801971828
-0.3595437952017724
-0.05073249671992639
-1.041200801971828
-0.3595437952017724
-0.05073249671992639
-1.041200801971828
-0.3544724174708103
-0.049693950239434494
-1.0384060629623346
-0.3544724174708103
-0.049693950239434494
-1.0384060629623346
-0.3544724174708103
-0.049693950239434494
-1.0384060629623346
-0.3544724174708103
-0.049693950239434494
-1.0384060629623346
-0.34997308876217026
-0.04930262044293575
-1.0349262190423787
-0.34997308876217026
-0.04930262044293575
-1.0349262190423787
-0.34997308876217026
-0.04930262044293575
-1.0349262190423787
-0.34997308876217026
-0.04930262044293575
-1.0349262190423787
-0.3442609431832933
-0.04969265740243493
-1.0301740548381941
-0.3442609431832933
-0.04969265740243493
-1.0301740548381941
-0.3442609431832933
-0.04969265740243493
-1.0301740548381941
-0.3442609431832933
-0.04969265740243493
-1.0301740548381941
-0.3409190235186283
-0.05134724905578085
-1.026393633146785
-0.3409190235186283
-0.05134724905578085
-1.026393633146785
-0.3409190235186283
-0.05134724905578085
-1.026393633146785
-0.3409190235186283
-0.05134724905578085
-1.026393633146785
-0.3374532576725911
-0.05312146366463428
-1.0236023996368129
-0.3374532576725911
-0.05312146366463428
-1.0236023996368129
-0.3374532576725911
-0.05312146366463428
-1.0236023996368129
-0.3374532576725911
-0.05312146366463428
-1.0236023996368129
-0.33436237332825663
-0.05482508365832376
-1.0215420012469445
-0.33436237332825663
-0.05482508365832376
-1.0215420012469445
-0.33436237332825663
-0.05482508365832376
-1.0215420012469445
-0.33436237332825663
-0.05482508365832376
-1.0215420012469445
-0.33120987546415553
-0.05623629403130179
-1.0203680554044356
-0.33120987546415553
-0.05623629403130179
-1.0203680554044356
-0.33120987546415553
-0.05623629403130179
-1.0203680554044356
-0.33120987546415553
-0.05623629403130179
-1.0203680554044356
-0.3294636123439034
-0.059294417321145966
-1.019295855930269
-0.3294636123439034
-0.059294417321145966
-1.019295855930269
-0.3294636123439034
-0.059294417321145966
-1.019295855930269
-0.3294636123439034
-0.059294417321145966
-1.019295855930269
-0.33079485337797665
-0.0641190599395204
-1.0199067797605261
-0.33079485337797665
-0.0641190599395204
-1.0199067797605261
-0.33079485337797665
-0.0641190599395204
-1.0199067797605261
-0.33079485337797665
-0.0641190599395204
-1.0199067797605261
-0.33263252823076095
-0.06862113732041529
-1.0210541689649009
-0.33263252823076095
-0.06862113732041529
-1.0210541689649009
-0.33263252823076095
-0.06862113732041529
-1.0210541689649009
-0.33263252823076095
-0.06862113732041529
-1.0210541689649009
-0.3338488564323119
-0.07116543258932184
-1.0219330320459399
-0.3338488564323119
-0.07116543258932184
-1.0219330320459399
-0.3338488564323119
-0.07116543258932184
-1.0219330320459399
-0.3338488564323119
-0.07116543258932184
-1.0219330320459399
-0.33471312294644884
-0.0722702964388887
-1.0229434039037284
-0.33471312294644884
-0.0722702964388887
-1.0229434039037284
-0.33471312294644884
-0.0722702964388887
-1.0229434039037284
-0.33471312294644884
-0.0722702964388887
-1.0229434039037284
-0.3364133727618932
-0.07397572778031372
-1.0246029184203491
-0.3364133727618932
-0.07397572778031372
-1.0246029184203491
-0.3364133727618932
-0.07397572778031372
-1.0246029184203491
-0.3364133727618932
-0.07397572778031372
-1.0246029184203491
-0.33630089676986835
-0.0770949510065919
-1.025690583436964
-0.33630089676986835
-0.0770949510065919
-1.025690583436964
-0.3367183724742683
-0.07980373319739673
-1.02678073087764
-0.3367183724742683
-0.07980373319739673
-1.02678073087764
-0.3367183724742683
-0.07980373319739673
-1.02678073087764
-0.3367183724742683
-0.07980373319739673
-1.02678073087764
-0.338601646119806
-0.08036181150368434
-1.027791835986727
-0.338601646119806
-0.08036181150368434
-1.027791835986727
-0.338601646119806
-0.08036181150368434
-1.027791835986727
-0.338601646119806
-0.08036181150368434
-1.027791835986727
-0.3403828346201916
-0.08179230775092922
-1.0306550354725033
-0.3403828346201916
-0.08179230775092922
-1.0306550354725033
-0.3403828346201916
-0.08179230775092922
-1.0306550354725033
-0.3403828346201916
-0.08179230775092922
-1.0306550354725033
-0.34206871878928713
-0.0859719350670972
-1.0333384526062848
-0.34206871878928713
-0.0859719350670972
-1.0333384526062848
-0.34206871878928713
-0.0859719350670972
-1.0333384526062848
-0.34206871878928713
-0.0859719350670972
-1.0333384526062848
-0.3463943715169327
-0.0901909882666428
-1.035627237184221
-0.3463943715169327
-0.0901909882666428
-1.035627237184221
-0.3463943715169327
-0.0901909882666428
-1.035627237184221
-0.3463943715169327
-0.0901909882666428
-1.035627237184221
-0.3517751897527155
-0.0925447374805078
-1.037581732894897
-0.3517751897527155
-0.0925447374805078
-1.037581732894897
-0.3517751897527155
-0.0925447374805078
-1.037581732894897
-0.3517751897527155
-0.0925447374805078
-1.037581732894897
-0.3545089601886413
-0.09574506321357486
-1.0392530546212886
-0.3545089601886413
-0.09574506321357486
-1.0392530546212886
-0.3545089601886413
-0.09574506321357486
-1.0392530546212886
-0.3545089601886413
-0.09574506321357486
-1.0392530546212886
-0.35821011191444535
-0.10025061411078795
-1.0403714434809137
-0.35821011191444535
-0.10025061411078795
-1.0403714434809137
-0.35821011191444535
-0.10025061411078795
-1.0403714434809137
-0.35821011191444535
-0.10025061411078795
-1.0403714434809137
-0.36366659271798274
-0.10313348936260476
-1.0410793379535368
-0.36366659271798274
-0.10313348936260476
-1.0410793379535368
-0.36366659271798274
-0.10313348936260476
-1.0410793379535368
-0.36366659271798274
-0.10313348936260476
-1.0410793379535368
-0.36595469529448654
-0.10500764086924928
-1.0416485634474741
-0.36595469529448654
-0.10500764086924928
-1.0416485634474741
-0.36595469529448654
-0.10500764086924928
-1.0416485634474741
-0.36595469529448654
-0.10500764086924928
-1.0416485634474741
-0.36651114987255545
-0.10439050775448473
-1.0405607362735212
-0.36651114987255545
-0.10439050775448473
-1.0405607362735212
-0.36651114987255545
-0.10439050775448473
-1.0405607362735212
-0.36651114987255545
-0.10439050775448473
-1.0405607362735212
-0.3694234260521093
-0.10247904371343279
-1.0397330175532706
-0.3694234260521093
-0.10247904371343279
-1.0397330175532706
-0.3694234260521093
-0.10247904371343279
-1.0397330175532706
-0.3694234260521093
-0.10247904371343279
-1.0397330175532706
-0.37164196483577394
-0.10267794364114373
-1.0399991695356121
-0.37164196483577394
-0.10267794364114373
-1.0399991695356121
-0.37164196483577394
-0.10267794364114373
-1.0399991695356121
-0.37164196483577394
-0.10267794364114373
-1.0399991695356121
-0.3735034856213548
-0.10378371759760174
-1.0407746520851553
-0.3735034856213548
-0.10378371759760174
-1.0407746520851553
-0.3735034856213548
-0.10378371759760174
-1.0407746520851553
-0.3735034856213548
-0.10378371759760174
-1.0407746520851553
-0.3753608340194731
-0.10354565164225638
-1.0406312326816989
-0.3753608340194731
-0.10354565164225638
-1.0406312326816989
-0.3753608340194731
-0.10354565164225638
-1.0406312326816989
-0.3753608340194731
-0.10354565164225638
-1.0406312326816989
-0.3762260840760703
-0.1024507157318029
-1.039853632095209
-0.3762260840760703
-0.1024507157318029
-1.039853632095209
-0.3762260840760703
-0.1024507157318029
-1.039853632095209
-0.3762260840760703
-0.1024507157318029
-1.039853632095209
-0.37595307992416904
-0.10307389282245914
-1.0388536455073019
-0.37595307992416904
-0.10307389282245914
-1.0388536455073019
-0.37595307992416904
-0.10307389282245914
-1.0388536455073019
-0.37595307992416904
-0.10307389282245914
-1.0388536455073019
-0.3760444572966634
-0.10505532459474086
-1.0372528842144901
-0.3760444572966634
-0.10505532459474086
-1.0372528842144901
-0.3760444572966634
-0.10505532459474086
-1.0372528842144901
-0.3760444572966634
-0.10505532459474086
-1.0372528842144901
-0.37709147663412795
-0.10667915811246627
-1.0360701928430223
-0.37709147663412795
-0.10667915811246627
-1.0360701928430223
-0.37709147663412795
-0.10667915811246627
-1.0360701928430223
-0.37709147663412795
-0.10667915811246627
-1.0360701928430223
-0.378457032004907
-0.10777471888332248
-1.035524457734852
-0.378457032004907
-0.10777471888332248
-1.035524457734852
-0.378457032004907
-0.10777471888332248
-1.035524457734852
-0.378457032004907
-0.10777471888332248
-1.035524457734852
-0.37927422706967995
-0.10904617034259137
-1.034633712540488
-0.37927422706967995
-0.10904617034259137
-1.034633712540488
-0.37927422706967995
-0.10904617034259137
-1.034633712540488
-0.37927422706967995
-0.10904617034259137
-1.034633712540488
-0.37997587315086045
-0.11052624035387243
-1.0337081183977157
-0.37997587315086045
-0.11052624035387243
-1.0337081183977157
-0.37997587315086045
-0.11052624035387243
-1.0337081183977157
-0.37997587315086045
-0.11052624035387243
-1.0337081183977157
-0.3807599585335529
-0.11136617672354028
-1.0329002340172275
-0.3807599585335529
-0.11136617672354028
-1.0329002340172275
-0.3807599585335529
-0.11136617672354028
-1.0329002340172275
-0.3807599585335529
-0.11136617672354028
-1.0329002340172275
-0.3817775285140685
-0.1118206528145913
-1.0323228806116027
-0.3817775285140685
-0.1118206528145913
-1.0323228806116027
-0.3817775285140685
-0.1118206528145913
-1.0323228806116027
-0.3817775285140685
-0.1118206528145913
-1.0323228806116027
-0.38201564023650464
-0.11276832796919219
-1.0308435137341645
-0.38201564023650464
-0.11276832796919219
-1.0308435137341645
-0.38201564023650464
-0.11276832796919219
-1.0308435137341645
-0.38201564023650464
-0.11276832796919219
-1.0308435137341645
-0.3827690405788041
-0.11387645946083831
-1.0294272430412301
-0.3827690405788041
-0.11387645946083831
-1.0294272430412301
-0.3827690405788041
-0.11387645946083831
-1.0294272430412301
-0.3827690405788041
-0.11387645946083831
-1.0294272430412301
-0.3840460368381263
-0.11407440612106534
-1.0283262651868563
-0.3840460368381263
-0.11407440612106534
-1.0283262651868563
-0.3840460368381263
-0.11407440612106534
-1.0283262651868563
-0.3840460368381263
-0.11407440612106534
-1.0283262651868563
-0.38516373697290873
-0.11436733478636689
-1.02804965046108
-0.38516373697290873
-0.11436733478636689
-1.02804965046108
-0.38516373697290873
-0.11436733478636689
-1.02804965046108
-0.38516373697290873
-0.11436733478636689
-1.02804965046108
-0.38597635297652044
-0.11475237868540648
-1.0283288381934195
-0.38597635297652044
-0.11475237868540648
-1.0283288381934195
-0.38597635297652044
-0.11475237868540648
-1.0283288381934195
-0.38597635297652044
-0.11475237868540648
-1.0283288381934195
-0.3873556463564191
-0.11483988228959054
-1.0283543463474591
-0.3873556463564191
-0.11483988228959054
-1.0283543463474591
-0.3873556463564191
-0.11483988228959054
-1.0283543463474591
-0.3873556463564191
-0.11483988228959054
-1.0283543463474591
-0.3873593691119441
-0.11560748352316881
-1.0279875063537462
-0.3873593691119441
-0.11560748352316881
-1.0279875063537462
-0.3873593691119441
-0.11560748352316881
-1.0279875063537462
-0.3873593691119441
-0.11560748352316881
-1.0279875063537462
-0.3856970239333263
-0.11720692603221027
-1.0273085506401416
-0.3856970239333263
-0.11720692603221027
-1.0273085506401416
-0.3856970239333263
-0.11720692603221027
-1.0273085506401416
-0.3856970239333263
-0.11720692603221027
-1.0273085506401416
-0.38501817292879376
-0.11942930730486255
-1.0269152349317001
-0.38501817292879376
-0.11942930730486255
-1.0269152349317001
-0.38501817292879376
-0.11942930730486255
-1.0269152349317001
-0.38501817292879376
-0.11942930730486255
-1.0269152349317001
-0.3850680443379191
-0.1214098222386981
-1.0267574102355232
-0.3850680443379191
-0.1214098222386981
-1.0267574102355232
-0.3850680443379191
-0.1214098222386981
-1.0267574102355232
-0.3850680443379191
-0.1214098222386981
-1.0267574102355232
-0.3852274648734328
-0.12244689439134071
-1.0271629840062741
-0.3852274648734328
-0.12244689439134071
-1.0271629840062741
-0.3852274648734328
-0.12244689439134071
-1.0271629840062741
-0.3852274648734328
-0.12244689439134071
-1.0271629840062741
-0.38563399492863926
-0.12406320829708514
-1.0276093622806195
-0.38563399492863926
-0.12406320829708514
-1.0276093622806195
-0.38563399492863926
-0.12406320829708514
-1.0276093622806195
-0.38563399492863926
-0.12406320829708514
-1.0276093622806195
-0.38661999619604076
-0.12598656797166843
-1.0279743857542902
-0.38661999619604076
-0.12598656797166843
-1.0279743857542902
-0.38661999619604076
-0.12598656797166843
-1.0279743857542902
-0.38661999619604076
-0.12598656797166843
-1.0279743857542902
-0.38667795241321967
-0.12588173114282739
-1.0279911944245903
-0.38667795241321967
-0.12588173114282739
-1.0279911944245903
-0.38667795241321967
-0.12588173114282739
-1.0279911944245903
-0.38667795241321967
-0.12588173114282739
-1.0279911944245903
-0.38683936870451086
-0.12635203854524618
-1.0277803996161508
-0.38683936870451086
-0.12635203854524618
-1.0277803996161508
-0.38683936870451086
-0.12635203854524618
-1.0277803996161508
-0.38683936870451086
-0.12635203854524618
-1.0277803996161508
-0.38721081549689346
-0.1269720454889977
-1.0276965813591574
-0.38721081549689346
-0.1269720454889977
-1.0276965813591574
-0.38721081549689346
-0.1269720454889977
-1.0276965813591574
-0.38721081549689346
-0.1269720454889977
-1.0276965813591574
-0.3883394915560558
-0.12752972631087503
-1.0279153910517156
-0.3883394915560558
-0.12752972631087503
-1.0279153910517156
-0.3883394915560558
-0.12752972631087503
-1.0279153910517156
-0.3883394915560558
-0.12752972631087503
-1.0279153910517156
-0.38851996353786444
-0.1275005642089073
-1.0279718257359898
-0.38851996353786444
-0.1275005642089073
-1.0279718257359898
-0.38851996353786444
-0.1275005642089073
-1.0279718257359898
-0.38851996353786444
-0.1275005642089073
-1.0279718257359898
-0.38734246275828876
-0.12776092265160705
-1.0277029484873528
-0.38734246275828876
-0.12776092265160705
-1.0277029484873528
-0.38734246275828876
-0.12776092265160705
-1.0277029484873528
-0.38734246275828876
-0.12776092265160705
-1.0277029484873528
-0.38649874872347767
-0.12869500186203806
-1.0270643377427378
-0.38649874872347767
-0.12869500186203806
-1.0270643377427378
-0.38649874872347767
-0.12869500186203806
-1.0270643377427378
-0.38649874872347767
-0.12869500186203806
-1.0270643377427378
-0.3864954003666021
-0.12924752770686554
-1.0270185975546153
-0.3864954003666021
-0.12924752770686554
-1.0270185975546153
-0.3864954003666021
-0.12924752770686554
-1.0270185975546153
-0.3864954003666021
-0.12924752770686554
-1.0270185975546153
-0.3873464121546826
-0.12954422158024698
-1.0274141544474693
-0.3873464121546826
-0.12954422158024698
-1.0274141544474693
-0.3873464121546826
-0.12954422158024698
-1.0274141544474693
-0.3873464121546826
-0.12954422158024698
-1.0274141544474693
-0.3878641655308738
-0.12915307753973526
-1.02751904568624
-0.3878641655308738
-0.12915307753973526
-1.02751904568624
-0.3878641655308738
-0.12915307753973526
-1.02751904568624
-0.3878641655308738
-0.12915307753973526
-1.02751904568624
-0.3874083156259608
-0.12838932278155527
-1.0271888830309954
-0.3874083156259608
-0.12838932278155527
-1.0271888830309954
-0.3874083156259608
-0.12838932278155527
-1.0271888830309954
-0.3874083156259608
-0.12838932278155527
-1.0271888830309954
-0.38751404464341127
-0.12844674014265775
-1.0271705148354298
-0.38751404464341127
-0.12844674014265775
-1.0271705148354298
-0.38751404464341127
-0.12844674014265775
-1.0271705148354298
-0.38751404464341127
-0.12844674014265775
-1.0271705148354298
-0.3869701872741031
-0.12810660886092737
-1.0270407676993276
-0.3869701872741031
-0.12810660886092737
-1.0270407676993276
-0.3869701872741031
-0.12810660886092737
-1.0270407676993276
-0.3869701872741031
-0.12810660886092737
-1.0270407676993276
-0.38590053107489614
-0.12789301572978337
-1.02630214860019
-0.38590053107489614
-0.12789301572978337
-1.02630214860019
-0.38590053107489614
-0.12789301572978337
-1.02630214860019
-0.38590053107489614
-0.12789301572978337
-1.02630214860019
-0.3855087352075256
-0.12779338543008154
-1.0256211374328892
-0.3855087352075256
-0.12779338543008154
-1.0256211374328892
-0.3855087352075256
-0.12779338543008154
-1.0256211374328892
-0.3855087352075256
-0.12779338543008154
-1.0256211374328892
-0.3864592198185621
-0.12784685844882493
-1.0253318551820545
-0.3864592198185621
-0.12784685844882493
-1.0253318551820545
-0.3864592198185621
-0.12784685844882493
-1.0253318551820545
-0.3864592198185621
-0.12784685844882493
-1.0253318551820545
-0.38765463109710824
-0.1280659457872998
-1.0257827418638918
-0.38765463109710824
-0.1280659457872998
-1.0257827418638918
-0.38765463109710824
-0.1280659457872998
-1.0257827418638918
-0.38765463109710824
-0.1280659457872998
-1.0257827418638918
-0.388390558517717
-0.12807440331855097
-1.0258571316020235
-0.388390558517717
-0.12807440331855097
-1.0258571316020235
-0.388390558517717
-0.12807440331855097
-1.0258571316020235
-0.388390558517717
-0.12807440331855097
-1.0258571316020235
-0.3885541295562211
-0.12802685901520447
-1.0258556301841646
-0.3885541295562211
-0.12802685901520447
-1.0258556301841646
-0.3885541295562211
-0.12802685901520447
-1.0258556301841646
-0.3885541295562211
-0.12802685901520447
-1.0258556301841646
-0.38906867124379885
-0.12916807007266795
-1.0258285578150568
-0.38906867124379885
-0.12916807007266795
-1.0258285578150568
-0.38906867124379885
-0.12916807007266795
-1.0258285578150568
-0.38906867124379885
-0.12916807007266795
-1.0258285578150568
-0.38987934242272376
-0.13007026748516276
-1.0258907794018501
-0.38987934242272376
-0.13007026748516276
-1.0258907794018501
-0.38987934242272376
-0.13007026748516276
-1.0258907794018501
-0.38987934242272376
-0.13007026748516276
-1.0258907794018501
-0.3898215460470717
-0.13017514906802174
-1.0258738997093844
-0.3898215460470717
-0.13017514906802174
-1.0258738997093844
-0.3898215460470717
-0.13017514906802174
-1.0258738997093844
-0.3898215460470717
-0.13017514906802174
-1.0258738997093844
-0.39038468789613007
-0.1304789693184538
-1.0263945749711176
-0.39038468789613007
-0.1304789693184538
-1.0263945749711176
-0.39038468789613007
-0.1304789693184538
-1.0263945749711176
-0.39038468789613007
-0.1304789693184538
-1.0263945749711176
-0.3910603918758567
-0.1311258676012697
-1.0269018755576418
-0.3910603918758567
-0.1311258676012697
-1.0269018755576418
-0.3910603918758567
-0.1311258676012697
-1.0269018755576418
-0.3910603918758567
-0.1311258676012697
-1.0269018755576418
-0.3910603918758567
-0.1311258676012697
-1.0269018755576418
-0.3910603918758567
-0.1311258676012697
-1.0269018755576418
-0.3910603918758567
-0.1311258676012697
-1.0269018755576418
-0.3910603918758567
-0.1311258676012697
-1.0269018755576418
-0.39043531846516044
-0.13149481243208266
-1.02697906931204
-0.39043531846516044
-0.13149481243208266
-1.02697906931204
-0.39043531846516044
-0.13149481243208266
-1.02697906931204
-0.39043531846516044
-0.13149481243208266
-1.02697906931204
-0.39021277847897207
-0.13214494871182683
-1.027251338821173
-0.39021277847897207
-0.13214494871182683
-1.027251338821173
-0.39021277847897207
-0.13214494871182683
-1.027251338821173
-0.39021277847897207
-0.13214494871182683
-1.027251338821173
-0.38998499778820916
-0.1333827246980094
-1.027640715601713
-0.38998499778820916
-0.1333827246980094
-1.027640715601713
-0.38998499778820916
-0.1333827246980094
-1.027640715601713
-0.38998499778820916
-0.1333827246980094
-1.027640715601713
-0.38873119950837887
-0.13513512102304714
-1.0278750167206887
-0.38873119950837887
-0.13513512102304714
-1.0278750167206887
-0.38873119950837887
-0.13513512102304714
-1.0278750167206887
-0.38873119950837887
-0.13513512102304714
-1.0278750167206887
-0.38688652146376856
-0.1368672891558569
-1.027646085077124
-0.38688652146376856
-0.1368672891558569
-1.027646085077124
-0.38688652146376856
-0.1368672891558569
-1.027646085077124
-0.38688652146376856
-0.1368672891558569
-1.027646085077124
-0.3853288372296479
-0.13811028695014127
-1.0276660437558538
-0.3853288372296479
-0.13811028695014127
-1.0276660437558538
-0.3853288372296479
-0.13811028695014127
-1.0276660437558538
-0.3853288372296479
-0.13811028695014127
-1.0276660437558538
-0.38575283805275
-0.13887873657096522
-1.026883442040214
-0.38575283805275
-0.13887873657096522
-1.026883442040214
-0.38575283805275
-0.13887873657096522
-1.026883442040214
-0.38575283805275
-0.13887873657096522
-1.026883442040214
-0.3877535348759419
-0.1398837032584717
-1.025678527286478
-0.3877535348759419
-0.1398837032584717
-1.025678527286478
-0.3877535348759419
-0.1398837032584717
-1.025678527286478
-0.3877535348759419
-0.1398837032584717
-1.025678527286478
-0.3884347247601467
-0.14127745808857323
-1.0263137765241692
-0.3884347247601467
-0.14127745808857323
-1.0263137765241692
-0.3884347247601467
-0.14127745808857323
-1.0263137765241692
-0.3884347247601467
-0.14127745808857323
-1.0263137765241692
-0.39077561781509706
-0.14133979231410987
-1.028113161246809
-0.39077561781509706
-0.14133979231410987
-1.028113161246809
-0.39077561781509706
-0.14133979231410987
-1.028113161246809
-0.39077561781509706
-0.14133979231410987
-1.028113161246809
-0.3953080985661788
-0.14008251634506358
-1.029820129764276
-0.3953080985661788
-0.14008251634506358
-1.029820129764276
-0.3953080985661788
-0.14008251634506358
-1.029820129764276
-0.3953080985661788
-0.14008251634506358
-1.029820129764276
-0.3979827392133817
-0.13738714166705016
-1.0299737218159
-0.3979827392133817
-0.13738714166705016
-1.0299737218159
-0.3979827392133817
-0.13738714166705016
-1.0299737218159
-0.3979827392133817
-0.13738714166705016
-1.0299737218159
-0.3984054572624245
-0.13344687016510587
-1.0297181675505447
-0.3984054572624245
-0.13344687016510587
-1.0297181675505447
-0.3984054572624245
-0.13344687016510587
-1.0297181675505447
-0.3984054572624245
-0.13344687016510587
-1.0297181675505447
-0.39827177449508516
-0.12943408371715248
-1.031142386307864
-0.39827177449508516
-0.12943408371715248
-1.031142386307864
-0.39827177449508516
-0.12943408371715248
-1.031142386307864
-0.39827177449508516
-0.12943408371715248
-1.031142386307864
-0.40121411919094635
-0.1255288599764912
-1.0345621929117192
-0.40121411919094635
-0.1255288599764912
-1.0345621929117192
-0.40121411919094635
-0.1255288599764912
-1.0345621929117192
-0.40121411919094635
-0.1255288599764912
-1.0345621929117192
-0.40567596642356446
-0.12115880930407125
-1.0371143959865055
-0.40567596642356446
-0.12115880930407125
-1.0371143959865055
-0.40567596642356446
-0.12115880930407125
-1.0371143959865055
-0.40567596642356446
-0.12115880930407125
-1.0371143959865055
-0.40689791123509594
-0.11737962104403218
-1.0410730672028068
-0.40689791123509594
-0.11737962104403218
-1.0410730672028068
-0.40689791123509594
-0.11737962104403218
-1.0410730672028068
-0.40689791123509594
-0.11737962104403218
-1.0410730672028068
-0.40592634890385865
-0.11445187887751275
-1.0455720012531482
-0.40592634890385865
-0.11445187887751275
-1.0455720012531482
-0.40592634890385865
-0.11445187887751275
-1.0455720012531482
-0.40592634890385865
-0.11445187887751275
-1.0455720012531482
-0.4039094085569299
-0.11266344883541621
-1.0502787800836524
-0.4039094085569299
-0.11266344883541621
-1.0502787800836524
-0.4039094085569299
-0.11266344883541621
-1.0502787800836524
-0.4039094085569299
-0.11266344883541621
-1.0502787800836524
-0.40646747131829464
-0.10972536529082613
-1.0551227861599533
-0.40646747131829464
-0.10972536529082613
-1.0551227861599533
-0.40646747131829464
-0.10972536529082613
-1.0551227861599533
-0.40646747131829464
-0.10972536529082613
-1.0551227861599533
-0.415842707978616
-0.10606402653648449
-1.0610992407868383
-0.415842707978616
-0.10606402653648449
-1.0610992407868383
-0.415842707978616
-0.10606402653648449
-1.0610992407868383
-0.415842707978616
-0.10606402653648449
-1.0610992407868383
-0.42101034855568104
-0.10331499503045387
-1.0661826412590372
-0.42101034855568104
-0.10331499503045387
-1.0661826412590372
-0.42101034855568104
-0.10331499503045387
-1.0661826412590372
-0.42101034855568104
-0.10331499503045387
-1.0661826412590372
-0.4230063228445442
-0.10009929201701027
-1.071227474958064
-0.4230063228445442
-0.10009929201701027
-1.071227474958064
-0.4230063228445442
-0.10009929201701027
-1.071227474958064
-0.4230063228445442
-0.10009929201701027
-1.071227474958064
-0.4250864813903603
-0.09767409227685281
-1.0780550231751382
-0.4250864813903603
-0.09767409227685281
-1.0780550231751382
-0.4250864813903603
-0.09767409227685281
-1.0780550231751382
-0.4250864813903603
-0.09767409227685281
-1.0780550231751382
-0.43317945108638084
-0.09517875248235619
-1.0833352991575271
-0.43317945108638084
-0.09517875248235619
-1.0833352991575271
-0.43317945108638084
-0.09517875248235619
-1.0833352991575271
-0.43317945108638084
-0.09517875248235619
-1.0833352991575271
-0.4431215072360893
-0.09439386668918051
-1.0890561982799671
-0.4431215072360893
-0.09439386668918051
-1.0890561982799671
-0.4431215072360893
-0.09439386668918051
-1.0890561982799671
-0.4431215072360893
-0.09439386668918051
-1.0890561982799671
-0.4487831581805835
-0.09572365096963983
-1.0949632717037805
-0.4487831581805835
-0.09572365096963983
-1.0949632717037805
-0.4487831581805835
-0.09572365096963983
-1.0949632717037805
-0.4487831581805835
-0.09572365096963983
-1.0949632717037805
-0.44907294040639045
-0.09653817664517932
-1.1002897469624846
-0.44907294040639045
-0.09653817664517932
-1.1002897469624846
-0.44907294040639045
-0.09653817664517932
-1.1002897469624846
-0.44907294040639045
-0.09653817664517932
-1.1002897469624846
-0.449405217329987
-0.09743032365666109
-1.1035101636269027
-0.449405217329987
-0.09743032365666109
-1.1035101636269027
-0.449405217329987
-0.09743032365666109
-1.1035101636269027
-0.449405217329987
-0.09743032365666109
-1.1035101636269027
-0.4514354785626434
-0.09911149772005064
-1.1074214289461592
-0.4514354785626434
-0.09911149772005064
-1.1074214289461592
-0.4514354785626434
-0.09911149772005064
-1.1074214289461592
-0.4514354785626434
-0.09911149772005064
-1.1074214289461592
-0.45411609163091293
-0.10169502616499067
-1.1119925509975592
-0.45411609163091293
-0.10169502616499067
-1.1119925509975592
-0.45411609163091293
-0.10169502616499067
-1.1119925509975592
-0.45411609163091293
-0.10169502616499067
-1.1119925509975592
-0.4573536679474103
-0.10482280216216278
-1.11615279557
-0.4573536679474103
-0.10482280216216278
-1.11615279557
-0.4573536679474103
-0.10482280216216278
-1.11615279557
-0.4573536679474103
-0.10482280216216278
-1.11615279557
-0.45938374534770604
-0.10905646532671082
-1.119527623596841
-0.45938374534770604
-0.10905646532671082
-1.119527623596841
-0.45938374534770604
-0.10905646532671082
-1.119527623596841
-0.45938374534770604
-0.10905646532671082
-1.119527623596841
-0.46059509871166826
-0.11412471111878791
-1.1229597039048602
-0.46059509871166826
-0.11412471111878791
-1.1229597039048602
-0.46059509871166826
-0.11412471111878791
-1.1229597039048602
-0.46059509871166826
-0.11412471111878791
-1.1229597039048602
-0.4618965416783221
-0.1191379924804041
-1.1253838251007255
-0.4618965416783221
-0.1191379924804041
-1.1253838251007255
-0.4618965416783221
-0.1191379924804041
-1.1253838251007255
-0.4618965416783221
-0.1191379924804041
-1.1253838251007255
-0.4657395922394389
-0.12389357382631681
-1.1262285821048326
-0.4657395922394389
-0.12389357382631681
-1.1262285821048326
-0.4657395922394389
-0.12389357382631681
-1.1262285821048326
-0.4657395922394389
-0.12389357382631681
-1.1262285821048326
-0.4681654525757665
-0.12922797103532394
-1.1265969041920019
-0.4681654525757665
-0.12922797103532394
-1.1265969041920019
-0.4681654525757665
-0.12922797103532394
-1.1265969041920019
-0.4681654525757665
-0.12922797103532394
-1.1265969041920019
-0.4674550116427962
-0.1349835649032083
-1.1283015233693605
-0.4674550116427962
-0.1349835649032083
-1.1283015233693605
-0.4674550116427962
-0.1349835649032083
-1.1283015233693605
-0.4674550116427962
-0.1349835649032083
-1.1283015233693605
-0.4664706497390092
-0.14128257918997514
-1.1293789208246263
-0.4664706497390092
-0.14128257918997514
-1.1293789208246263
-0.4664706497390092
-0.14128257918997514
-1.1293789208246263
-0.4664706497390092
-0.14128257918997514
-1.1293789208246263
-0.4673813087153844
-0.14804912094048028
-1.129362470228083
-0.4673813087153844
-0.14804912094048028
-1.129362470228083
-0.4673813087153844
-0.14804912094048028
-1.129362470228083
-0.4673813087153844
-0.14804912094048028
-1.129362470228083
-0.4692842624250597
-0.15531220698382858
-1.1288239911638966
-0.4692842624250597
-0.15531220698382858
-1.1288239911638966
-0.4692842624250597
-0.15531220698382858
-1.1288239911638966
-0.4692842624250597
-0.15531220698382858
-1.1288239911638966
-0.4704248486090594
-0.1618745282958915
-1.1280873998992051
-0.4704248486090594
-0.1618745282958915
-1.1280873998992051
-0.4704248486090594
-0.1618745282958915
-1.1280873998992051
-0.4704248486090594
-0.1618745282958915
-1.1280873998992051
-0.4693964919968502
-0.16740006315695352
-1.1276131674379772
-0.4693964919968502
-0.16740006315695352
-1.1276131674379772
-0.4693964919968502
-0.16740006315695352
-1.1276131674379772
-0.4693964919968502
-0.16740006315695352
-1.1276131674379772
-0.46935544124521067
-0.1720376654433194
-1.1274424515474581
-0.46935544124521067
-0.1720376654433194
-1.1274424515474581
-0.46935544124521067
-0.1720376654433194
-1.1274424515474581
-0.46935544124521067
-0.1720376654433194
-1.1274424515474581
-0.470518238844187
-0.17557263925670866
-1.127913619423534
-0.470518238844187
-0.17557263925670866
-1.127913619423534
-0.470518238844187
-0.17557263925670866
-1.127913619423534
-0.470518238844187
-0.17557263925670866
-1.127913619423534
-0.4715401462337599
-0.1775790904581512
-1.1275062613539393
-0.4715401462337599
-0.1775790904581512
-1.1275062613539393
-0.4715401462337599
-0.1775790904581512
-1.1275062613539393
-0.4715401462337599
-0.1775790904581512
-1.1275062613539393
-0.4715656979354716
-0.17918498457539486
-1.1269050196206205
-0.4715656979354716
-0.17918498457539486
-1.1269050196206205
-0.4715656979354716
-0.17918498457539486
-1.1269050196206205
-0.4715656979354716
-0.17918498457539486
-1.1269050196206205
-0.4713788490763877
-0.1801783872788568
-1.1266823731130016
-0.4713788490763877
-0.1801783872788568
-1.1266823731130016
-0.4713788490763877
-0.1801783872788568
-1.1266823731130016
-0.4713788490763877
-0.1801783872788568
-1.1266823731130016
-0.47123400052616865
-0.18064461518960567
-1.1265834129380214
-0.47123400052616865
-0.18064461518960567
-1.1265834129380214
-0.47123400052616865
-0.18064461518960567
-1.1265834129380214
-0.47123400052616865
-0.18064461518960567
-1.1265834129380214
-0.47134226761443254
-0.1802816565303713
-1.1271152523927332
-0.47134226761443254
-0.1802816565303713
-1.1271152523927332
-0.47134226761443254
-0.1802816565303713
-1.1271152523927332
-0.47134226761443254
-0.1802816565303713
-1.1271152523927332
-0.47102034704319706
-0.17965050969932125
-1.1276833640921637
-0.47102034704319706
-0.17965050969932125
-1.1276833640921637
-0.47102034704319706
-0.17965050969932125
-1.1276833640921637
-0.47102034704319706
-0.17965050969932125
-1.1276833640921637
-0.47041828286998116
-0.17893180183601254
-1.128054635501984
-0.47041828286998116
-0.17893180183601254
-1.128054635501984
-0.47041828286998116
-0.17893180183601254
-1.128054635501984
-0.47041828286998116
-0.17893180183601254
-1.128054635501984
-0.46984103882663664
-0.17819463811648406
-1.128322503293031
-0.46984103882663664
-0.17819463811648406
-1.128322503293031
-0.46984103882663664
-0.17819463811648406
-1.128322503293031
-0.46984103882663664
-0.17819463811648406
-1.128322503293031
-0.4684641439640408
-0.17750878555560584
-1.1285134893236148
-0.4684641439640408
-0.17750878555560584
-1.1285134893236148
-0.4684641439640408
-0.17750878555560584
-1.1285134893236148
-0.4684641439640408
-0.17750878555560584
-1.1285134893236148
-0.46724485526507775
-0.1768053930798701
-1.1283083966879812
-0.46724485526507775
-0.1768053930798701
-1.1283083966879812
-0.46724485526507775
-0.1768053930798701
-1.1283083966879812
-0.46724485526507775
-0.1768053930798701
-1.1283083966879812
-0.46720402671676087
-0.17610977879143147
-1.1285143687349029
-0.46720402671676087
-0.17610977879143147
-1.1285143687349029
-0.46720402671676087
-0.17610977879143147
-1.1285143687349029
-0.46720402671676087
-0.17610977879143147
-1.1285143687349029
-0.46749532456982834
-0.1751772096059652
-1.1287108748484047
-0.46749532456982834
-0.1751772096059652
-1.1287108748484047
-0.46749532456982834
-0.1751772096059652
-1.1287108748484047
-0.46749532456982834
-0.1751772096059652
-1.1287108748484047
-0.467202858980438
-0.1742388966925698
-1.1291728197049138
-0.467202858980438
-0.1742388966925698
-1.1291728197049138
-0.467202858980438
-0.1742388966925698
-1.1291728197049138
-0.467202858980438
-0.1742388966925698
-1.1291728197049138
-0.46637044427039365
-0.17339575619922787
-1.1291376350898175
-0.46637044427039365
-0.17339575619922787
-1.1291376350898175
-0.46637044427039365
-0.17339575619922787
-1.1291376350898175
-0.46637044427039365
-0.17339575619922787
-1.1291376350898175
-0.4661001817339282
-0.1728224103289564
-1.1287759957298866
-0.4661001817339282
-0.1728224103289564
-1.1287759957298866
-0.4661001817339282
-0.1728224103289564
-1.1287759957298866
-0.4661001817339282
-0.1728224103289564
-1.1287759957298866
-0.46602191500904033
-0.17220991261400573
-1.1288600235465343
-0.46602191500904033
-0.17220991261400573
-1.1288600235465343
-0.46602191500904033
-0.17220991261400573
-1.1288600235465343
-0.46602191500904033
-0.17220991261400573
-1.1288600235465343
-0.46531931452755665
-0.171122513672218
-1.128695598075551
-0.46531931452755665
-0.171122513672218
-1.128695598075551
-0.46531931452755665
-0.171122513672218
-1.128695598075551
-0.46531931452755665
-0.171122513672218
-1.128695598075551
-0.4646811284943029
-0.1701795567341402
-1.1283852816303452
-0.4646811284943029
-0.1701795567341402
-1.1283852816303452
-0.4646811284943029
-0.1701795567341402
-1.1283852816303452
-0.4646811284943029
-0.1701795567341402
-1.1283852816303452
-0.4643806734192532
-0.1692636401333249
-1.1284559685867253
-0.4643806734192532
-0.1692636401333249
-1.1284559685867253
-0.4643806734192532
-0.1692636401333249
-1.1284559685867253
-0.4643806734192532
-0.1692636401333249
-1.1284559685867253
-0.46436786503576694
-0.16826255440845495
-1.1285565781619242
-0.46436786503576694
-0.16826255440845495
-1.1285565781619242
-0.46436786503576694
-0.16826255440845495
-1.1285565781619242
-0.46436786503576694
-0.16826255440845495
-1.1285565781619242
-0.46442776582729794
-0.16751262429932465
-1.1289041691621577
-0.46442776582729794
-0.16751262429932465
-1.1289041691621577
-0.46442776582729794
-0.16751262429932465
-1.1289041691621577
-0.46442776582729794
-0.16751262429932465
-1.1289041691621577
-0.46448997776296863
-0.1674113527678505
-1.1289227675706577
-0.46448997776296863
-0.1674113527678505
-1.1289227675706577
-0.46448997776296863
-0.1674113527678505
-1.1289227675706577
-0.46448997776296863
-0.1674113527678505
-1.1289227675706577
-0.4640388323245586
-0.1674065041479281
-1.1288944525552556
-0.4640388323245586
-0.1674065041479281
-1.1288944525552556
-0.4640388323245586
-0.1674065041479281
-1.1288944525552556
-0.4640388323245586
-0.1674065041479281
-1.1288944525552556
-0.4635371424436992
-0.1677255005785683
-1.1290730142670473
-0.4635371424436992
-0.1677255005785683
-1.1290730142670473
-0.4635371424436992
-0.1677255005785683
-1.1290730142670473
-0.4635371424436992
-0.1677255005785683
-1.1290730142670473
-0.4635371424436992
-0.1677255005785683
-1.1290730142670473
-0.4635371424436992
-0.1677255005785683
-1.1290730142670473
-0.4635371424436992
-0.1677255005785683
-1.1290730142670473
-0.4635371424436992
-0.1677255005785683
-1.1290730142670473
-0.4635371424436992
-0.1677255005785683
-1.1290730142670473
-0.4635371424436992
-0.1677255005785683
-1.1290730142670473
-0.4635371424436992
-0.1677255005785683
-1.1290730142670473
-0.4635371424436992
-0.1677255005785683
-1.1290730142670473
-0.46359937110336025
-0.16762422799741034
-1.129091558074071
-0.46359937110336025
-0.16762422799741034
-1.129091558074071
-0.46359937110336025
-0.16762422799741034
-1.129091558074071
-0.46359937110336025
-0.16762422799741034
-1.129091558074071
-0.4632963625070606
-0.1673985260379813
-1.1289976378189799
-0.4632963625070606
-0.1673985260379813
-1.1289976378189799
-0.4632963625070606
-0.1673985260379813
-1.1289976378189799
-0.4632963625070606
-0.1673985260379813
-1.1289976378189799
-0.4633200255162949
-0.16738024380106675
-1.1288949197523714
-0.4633200255162949
-0.16738024380106675
-1.1288949197523714
-0.4633200255162949
-0.16738024380106675
-1.1288949197523714
-0.4633200255162949
-0.16738024380106675
-1.1288949197523714
-0.46338225251716186
-0.16727895922617442
-1.128913465909627
-0.46338225251716186
-0.16727895922617442
-1.128913465909627
-0.46338225251716186
-0.16727895922617442
-1.128913465909627
-0.46338225251716186
-0.16727895922617442
-1.128913465909627
-0.4621752613812049
-0.1672012880728027
-1.1287610495844245
-0.4621752613812049
-0.1672012880728027
-1.1287610495844245
-0.4621752613812049
-0.1672012880728027
-1.1287610495844245
-0.4621752613812049
-0.1672012880728027
-1.1287610495844245
-0.46144790340249814
-0.16666550513229944
-1.1285340208192005
-0.46144790340249814
-0.16666550513229944
-1.1285340208192005
-0.46144790340249814
-0.16666550513229944
-1.1285340208192005
-0.46144790340249814
-0.16666550513229944
-1.1285340208192005
-0.4620697513994502
-0.16553310027143134
-1.1272815896893278
-0.4620697513994502
-0.16553310027143134
-1.1272815896893278
-0.4620697513994502
-0.16553310027143134
-1.1272815896893278
-0.4620697513994502
-0.16553310027143134
-1.1272815896893278
-0.4623343553235071
-0.16325676092218086
-1.1259140943462973
-0.4623343553235071
-0.16325676092218086
-1.1259140943462973
-0.4623343553235071
-0.16325676092218086
-1.1259140943462973
-0.4623343553235071
-0.16325676092218086
-1.1259140943462973
-0.46225165100254667
-0.16024542774165978
-1.1237748423108196
-0.46225165100254667
-0.16024542774165978
-1.1237748423108196
-0.46225165100254667
-0.16024542774165978
-1.1237748423108196
-0.46225165100254667
-0.16024542774165978
-1.1237748423108196
-0.46192588698897885
-0.155973383368607
-1.1197922714863464
-0.46192588698897885
-0.155973383368607
-1.1197922714863464
-0.46192588698897885
-0.155973383368607
-1.1197922714863464
-0.46192588698897885
-0.155973383368607
-1.1197922714863464
-0.459719622295482
-0.15136462205890713
-1.1167091324799268
-0.459719622295482
-0.15136462205890713
-1.1167091324799268
-0.459719622295482
-0.15136462205890713
-1.1167091324799268
-0.459719622295482
-0.15136462205890713
-1.1167091324799268
-0.45815213596275295
-0.1465220282959406
-1.1139343051508668
-0.45815213596275295
-0.1465220282959406
-1.1139343051508668
-0.45815213596275295
-0.1465220282959406
-1.1139343051508668
-0.45815213596275295
-0.1465220282959406
-1.1139343051508668
-0.456577754142374
-0.1425802095464353
-1.1106647439075832
-0.456577754142374
-0.1425802095464353
-1.1106647439075832
-0.456577754142374
-0.1425802095464353
-1.1106647439075832
-0.456577754142374
-0.1425802095464353
-1.1106647439075832
-0.45057241096000566
-0.1390776984657107
-1.1095461334507932
-0.45057241096000566
-0.1390776984657107
-1.1095461334507932
-0.45057241096000566
-0.1390776984657107
-1.1095461334507932
-0.45057241096000566
-0.1390776984657107
-1.1095461334507932
-0.4438422792444286
-0.13539466805174544
-1.1088854227504454
-0.4438422792444286
-0.13539466805174544
-1.1088854227504454
-0.4438422792444286
-0.13539466805174544
-1.1088854227504454
-0.4438422792444286
-0.13539466805174544
-1.1088854227504454
-0.4375666894718282
-0.13188527774875541
-1.1060452697342806
-0.4375666894718282
-0.13188527774875541
-1.1060452697342806
-0.4375666894718282
-0.13188527774875541
-1.1060452697342806
-0.4375666894718282
-0.13188527774875541
-1.1060452697342806
-0.4275244903287524
-0.12985657956913554
-1.1016027377669682
-0.4275244903287524
-0.12985657956913554
-1.1016027377669682
-0.4275244903287524
-0.12985657956913554
-1.1016027377669682
-0.4275244903287524
-0.12985657956913554
-1.1016027377669682
-0.41798171321252897
-0.12632693119574298
-1.0978199341091892
-0.41798171321252897
-0.12632693119574298
-1.0978199341091892
-0.41798171321252897
-0.12632693119574298
-1.0978199341091892
-0.41798171321252897
-0.12632693119574298
-1.0978199341091892
-0.4143063250929154
-0.1234979097268888
-1.0944173714818428
-0.4143063250929154
-0.1234979097268888
-1.0944173714818428
-0.4143063250929154
-0.1234979097268888
-1.0944173714818428
-0.4143063250929154
-0.1234979097268888
-1.0944173714818428
-0.41327696138348274
-0.12151642659200397
-1.0900925349334045
-0.41327696138348274
-0.12151642659200397
-1.0900925349334045
-0.41327696138348274
-0.12151642659200397
-1.0900925349334045
-0.41327696138348274
-0.12151642659200397
-1.0900925349334045
-0.4105194733554657
-0.119690844731039
-1.085367009267434
-0.4105194733554657
-0.119690844731039
-1.085367009267434
-0.4105194733554657
-0.119690844731039
-1.085367009267434
-0.4105194733554657
-0.119690844731039
-1.085367009267434
-0.40876451609983666
-0.11903660297370681
-1.0817091301170867
-0.40876451609983666
-0.11903660297370681
-1.0817091301170867
-0.40876451609983666
-0.11903660297370681
-1.0817091301170867
-0.40876451609983666
-0.11903660297370681
-1.0817091301170867
-0.403562232296531
-0.11833755561247777
-1.0787153745316742
-0.403562232296531
-0.11833755561247777
-1.0787153745316742
-0.403562232296531
-0.11833755561247777
-1.0787153745316742
-0.403562232296531
-0.11833755561247777
-1.0787153745316742
-0.4013782495302508
-0.11650083145752073
-1.0759228179823752
-0.4013782495302508
-0.11650083145752073
-1.0759228179823752
-0.4013782495302508
-0.11650083145752073
-1.0759228179823752
-0.4013782495302508
-0.11650083145752073
-1.0759228179823752
-0.4000977894725989
-0.11532921800278097
-1.0724063613076118
-0.4000977894725989
-0.11532921800278097
-1.0724063613076118
-0.4000977894725989
-0.11532921800278097
-1.0724063613076118
-0.4000977894725989
-0.11532921800278097
-1.0724063613076118
-0.4003635951193365
-0.11373354588948813
-1.0686287013084808
-0.4003635951193365
-0.11373354588948813
-1.0686287013084808
-0.4003635951193365
-0.11373354588948813
-1.0686287013084808
-0.4003635951193365
-0.11373354588948813
-1.0686287013084808
-0.3963504484514287
-0.11254154268285334
-1.0657868799298222
-0.3963504484514287
-0.11254154268285334
-1.0657868799298222
-0.3963504484514287
-0.11254154268285334
-1.0657868799298222
-0.3963504484514287
-0.11254154268285334
-1.0657868799298222
-0.38945009759922083
-0.11175878892282208
-1.0621518918535766
-0.38945009759922083
-0.11175878892282208
-1.0621518918535766
-0.38945009759922083
-0.11175878892282208
-1.0621518918535766
-0.38945009759922083
-0.11175878892282208
-1.0621518918535766
-0.3809595204007824
-0.11158962676192616
-1.057016369214987
-0.3809595204007824
-0.11158962676192616
-1.057016369214987
-0.3809595204007824
-0.11158962676192616
-1.057016369214987
-0.3809595204007824
-0.11158962676192616
-1.057016369214987
-0.372555148501705
-0.11099855502048515
-1.0508531552094926
-0.372555148501705
-0.11099855502048515
-1.0508531552094926
-0.372555148501705
-0.11099855502048515
-1.0508531552094926
-0.372555148501705
-0.11099855502048515
-1.0508531552094926
-0.36420149997321066
-0.11016776029106326
-1.0451838970639593
-0.36420149997321066
-0.11016776029106326
-1.0451838970639593
-0.36420149997321066
-0.11016776029106326
-1.0451838970639593
-0.36420149997321066
-0.11016776029106326
-1.0451838970639593
-0.35383831312289366
-0.10965253113222775
-1.0395555550511122
-0.35383831312289366
-0.10965253113222775
-1.0395555550511122
-0.35383831312289366
-0.10965253113222775
-1.0395555550511122
-0.35383831312289366
-0.10965253113222775
-1.0395555550511122
-0.3496488145458671
-0.11062267637492033
-1.0353484620222009
-0.3496488145458671
-0.11062267637492033
-1.0353484620222009
-0.3496488145458671
-0.11062267637492033
-1.0353484620222009
-0.3496488145458671
-0.11062267637492033
-1.0353484620222009
-0.34551542223613857
-0.11128306245945416
-1.0314762128913582
-0.34551542223613857
-0.11128306245945416
-1.0314762128913582
-0.34551542223613857
-0.11128306245945416
-1.0314762128913582
-0.34551542223613857
-0.11128306245945416
-1.0314762128913582
-0.3425272988956509
-0.11233717528885342
-1.0290457433590345
-0.3425272988956509
-0.11233717528885342
-1.0290457433590345
-0.3425272988956509
-0.11233717528885342
-1.0290457433590345
-0.3425272988956509
-0.11233717528885342
-1.0290457433590345
-0.33851833610001447
-0.11345714333210681
-1.026990236227867
-0.33851833610001447
-0.11345714333210681
-1.026990236227867
-0.33851833610001447
-0.11345714333210681
-1.026990236227867
-0.33851833610001447
-0.11345714333210681
-1.026990236227867
-0.33408028439770493
-0.11412958705042929
-1.0253183367273815
-0.33408028439770493
-0.11412958705042929
-1.0253183367273815
-0.33408028439770493
-0.11412958705042929
-1.0253183367273815
-0.33408028439770493
-0.11412958705042929
-1.0253183367273815
-0.33241392040628787
-0.11470799127953624
-1.0237496547576586
-0.33241392040628787
-0.11470799127953624
-1.0237496547576586
-0.33241392040628787
-0.11470799127953624
-1.0237496547576586
-0.33241392040628787
-0.11470799127953624
-1.0237496547576586
-0.3333235353922033
-0.11424849506399272
-1.022389702502812
-0.3333235353922033
-0.11424849506399272
-1.022389702502812
-0.3333235353922033
-0.11424849506399272
-1.022389702502812
-0.3333235353922033
-0.11424849506399272
-1.022389702502812
-0.3331134323512395
-0.11250873523944198
-1.0213575055749191
-0.3331134323512395
-0.11250873523944198
-1.0213575055749191
-0.3331134323512395
-0.11250873523944198
-1.0213575055749191
-0.3331134323512395
-0.11250873523944198
-1.0213575055749191
-0.332069874863691
-0.11151245859056208
-1.0207395227212084
-0.332069874863691
-0.11151245859056208
-1.0207395227212084
-0.332069874863691
-0.11151245859056208
-1.0207395227212084
-0.332069874863691
-0.11151245859056208
-1.0207395227212084
-0.3330192016081142
-0.11339207353967008
-1.0203837149929025
-0.3330192016081142
-0.11339207353967008
-1.0203837149929025
-0.3330192016081142
-0.11339207353967008
-1.0203837149929025
-0.3330192016081142
-0.11339207353967008
-1.0203837149929025
-0.3382011720370733
-0.1179901024791715
-1.020909720002439
-0.3382011720370733
-0.1179901024791715
-1.020909720002439
-0.3382011720370733
-0.1179901024791715
-1.020909720002439
-0.3382011720370733
-0.1179901024791715
-1.020909720002439
-0.342787283556166
-0.12068088226495523
-1.0220584082534008
-0.342787283556166
-0.12068088226495523
-1.0220584082534008
-0.342787283556166
-0.12068088226495523
-1.0220584082534008
-0.342787283556166
-0.12068088226495523
-1.0220584082534008
-0.3445443882983166
-0.12225536033650118
-1.0234764831247967
-0.3445443882983166
-0.12225536033650118
-1.0234764831247967
-0.3445443882983166
-0.12225536033650118
-1.0234764831247967
-0.3445443882983166
-0.12225536033650118
-1.0234764831247967
-0.34846559106077946
-0.12451288990694419
-1.024265205678697
-0.34846559106077946
-0.12451288990694419
-1.024265205678697
-0.34846559106077946
-0.12451288990694419
-1.024265205678697
-0.34846559106077946
-0.12451288990694419
-1.024265205678697
-0.3545802190298928
-0.12755484731587036
-1.0255187568017237
-0.3545802190298928
-0.12755484731587036
-1.0255187568017237
-0.3545802190298928
-0.12755484731587036
-1.0255187568017237
-0.3545802190298928
-0.12755484731587036
-1.0255187568017237
-0.3579745016692017
-0.12897871429594754
-1.0264117678465738
-0.3579745016692017
-0.12897871429594754
-1.0264117678465738
-0.3579745016692017
-0.12897871429594754
-1.0264117678465738
-0.3579745016692017
-0.12897871429594754
-1.0264117678465738
-0.36095385880260644
-0.13039476507105588
-1.0270524083262147
-0.36095385880260644
-0.13039476507105588
-1.0270524083262147
-0.36095385880260644
-0.13039476507105588
-1.0270524083262147
-0.36095385880260644
-0.13039476507105588
-1.0270524083262147
-0.36525009399582464
-0.13353819688104476
-1.027573981332359
-0.36525009399582464
-0.13353819688104476
-1.027573981332359
-0.36525009399582464
-0.13353819688104476
-1.027573981332359
-0.36525009399582464
-0.13353819688104476
-1.027573981332359
-0.3699536806697806
-0.13711542847052835
-1.0289931365104117
-0.3699536806697806
-0.13711542847052835
-1.0289931365104117
-0.3699536806697806
-0.13711542847052835
-1.0289931365104117
-0.3699536806697806
-0.13711542847052835
-1.0289931365104117
-0.3729947660742967
-0.13869560323947958
-1.030135051316457
-0.3729947660742967
-0.13869560323947958
-1.030135051316457
-0.3729947660742967
-0.13869560323947958
-1.030135051316457
-0.3729947660742967
-0.13869560323947958
-1.030135051316457
-0.37679896972078414
-0.13870645947922444
-1.0311953007143477
-0.37679896972078414
-0.13870645947922444
-1.0311953007143477
-0.37679896972078414
-0.13870645947922444
-1.0311953007143477
-0.37679896972078414
-0.13870645947922444
-1.0311953007143477
-0.38250189910758137
-0.139215519379089
-1.0333238021254634
-0.38250189910758137
-0.139215519379089
-1.0333238021254634
-0.38250189910758137
-0.139215519379089
-1.0333238021254634
-0.38250189910758137
-0.139215519379089
-1.0333238021254634
-0.3866954096296598
-0.13963843445939236
-1.035729986028624
-0.3866954096296598
-0.13963843445939236
-1.035729986028624
-0.3866954096296598
-0.13963843445939236
-1.035729986028624
-0.3866954096296598
-0.13963843445939236
-1.035729986028624
-0.3894612993031532
-0.13996172314222532
-1.036957242782066
-0.3894612993031532
-0.13996172314222532
-1.036957242782066
-0.3894612993031532
-0.13996172314222532
-1.036957242782066
-0.3894612993031532
-0.13996172314222532
-1.036957242782066
-0.39111350449771326
-0.14008529266594566
-1.0364457335084707
-0.39111350449771326
-0.14008529266594566
-1.0364457335084707
-0.39111350449771326
-0.14008529266594566
-1.0364457335084707
-0.39111350449771326
-0.14008529266594566
-1.0364457335084707
-0.39175053073794613
-0.13963255345568554
-1.0353764549083229
-0.39175053073794613
-0.13963255345568554
-1.0353764549083229
-0.39175053073794613
-0.13963255345568554
-1.0353764549083229
-0.39175053073794613
-0.13963255345568554
-1.0353764549083229
-0.3927287847837014
-0.13865788323619038
-1.0348992217839814
-0.3927287847837014
-0.13865788323619038
-1.0348992217839814
-0.3927287847837014
-0.13865788323619038
-1.0348992217839814
-0.3927287847837014
-0.13865788323619038
-1.0348992217839814
-0.39519968929998667
-0.1375813847703722
-1.035126998705513
-0.39519968929998667
-0.1375813847703722
-1.035126998705513
-0.39519968929998667
-0.1375813847703722
-1.035126998705513
-0.39519968929998667
-0.1375813847703722
-1.035126998705513
-0.3984125216183825
-0.13762428884414896
-1.0358876746203733
-0.3984125216183825
-0.13762428884414896
-1.0358876746203733
-0.3984125216183825
-0.13762428884414896
-1.0358876746203733
-0.3984125216183825
-0.13762428884414896
-1.0358876746203733
-0.3998249394926654
-0.13821732923528046
-1.0361340777895622
-0.3998249394926654
-0.13821732923528046
-1.0361340777895622
-0.3998249394926654
-0.13821732923528046
-1.0361340777895622
-0.3998249394926654
-0.13821732923528046
-1.0361340777895622
-0.3998574415673577
-0.1375573325804241
-1.0350888112999062
-0.3998574415673577
-0.1375573325804241
-1.0350888112999062
-0.3998574415673577
-0.1375573325804241
-1.0350888112999062
-0.3998574415673577
-0.1375573325804241
-1.0350888112999062
-0.4001565231359293
-0.13742424020276484
-1.0338095886903955
-0.4001565231359293
-0.13742424020276484
-1.0338095886903955
-0.4001565231359293
-0.13742424020276484
-1.0338095886903955
-0.4001565231359293
-0.13742424020276484
-1.0338095886903955
-0.40141349556153105
-0.13715071671288379
-1.0326167826965706
-0.40141349556153105
-0.13715071671288379
-1.0326167826965706
-0.40141349556153105
-0.13715071671288379
-1.0326167826965706
-0.40141349556153105
-0.13715071671288379
-1.0326167826965706
-0.40254452575168365
-0.13635557018869912
-1.0319262677863896
-0.40254452575168365
-0.13635557018869912
-1.0319262677863896
-0.40254452575168365
-0.13635557018869912
-1.0319262677863896
-0.40254452575168365
-0.13635557018869912
-1.0319262677863896
-0.4038617696156577
-0.13628038367247072
-1.03141703465961
-0.4038617696156577
-0.13628038367247072
-1.03141703465961
-0.4038617696156577
-0.13628038367247072
-1.03141703465961
-0.4038617696156577
-0.13628038367247072
-1.03141703465961
-0.4049566261922829
-0.13687232961742946
-1.0306782100064713
-0.4049566261922829
-0.13687232961742946
-1.0306782100064713
-0.4049566261922829
-0.13687232961742946
-1.0306782100064713
-0.4049566261922829
-0.13687232961742946
-1.0306782100064713
-0.4058011299145661
-0.13652503800377944
-1.0295749167116395
-0.4058011299145661
-0.13652503800377944
-1.0295749167116395
-0.4058011299145661
-0.13652503800377944
-1.0295749167116395
-0.4058011299145661
-0.13652503800377944
-1.0295749167116395
-0.4052249485564339
-0.13569774575355142
-1.0287167615058446
-0.4052249485564339
-0.13569774575355142
-1.0287167615058446
-0.4052249485564339
-0.13569774575355142
-1.0287167615058446
-0.4052249485564339
-0.13569774575355142
-1.0287167615058446
-0.40523484947658417
-0.13543113642783458
-1.028771073442754
-0.40523484947658417
-0.13543113642783458
-1.028771073442754
-0.40523484947658417
-0.13543113642783458
-1.028771073442754
-0.40523484947658417
-0.13543113642783458
-1.028771073442754
-0.4053404974681154
-0.1354883838722751
-1.0287517917526179
-0.4053404974681154
-0.1354883838722751
-1.0287517917526179
-0.4053404974681154
-0.1354883838722751
-1.0287517917526179
-0.4053404974681154
-0.1354883838722751
-1.0287517917526179
-0.40510940258607797
-0.13590711373737246
-1.0286817543239117
-0.40510940258607797
-0.13590711373737246
-1.0286817543239117
-0.40510940258607797
-0.13590711373737246
-1.0286817543239117
-0.40510940258607797
-0.13590711373737246
-1.0286817543239117
-0.4050373693361007
-0.13681448606615274
-1.0290570912589176
-0.4050373693361007
-0.13681448606615274
-1.0290570912589176
-0.4050373693361007
-0.13681448606615274
-1.0290570912589176
-0.4050373693361007
-0.13681448606615274
-1.0290570912589176
-0.4060340665624264
-0.13796006688241697
-1.0296663523567309
-0.4060340665624264
-0.13796006688241697
-1.0296663523567309
-0.4060340665624264
-0.13796006688241697
-1.0296663523567309
-0.4060340665624264
-0.13796006688241697
-1.0296663523567309
-0.40575940450367387
-0.13900223943921092
-1.0299203654001725
-0.40575940450367387
-0.13900223943921092
-1.0299203654001725
-0.40575940450367387
-0.13900223943921092
-1.0299203654001725
-0.40575940450367387
-0.13900223943921092
-1.0299203654001725
-0.40586507465292804
-0.1390594960854726
-1.0299008634704163
-0.40586507465292804
-0.1390594960854726
-1.0299008634704163
-0.40586507465292804
-0.1390594960854726
-1.0299008634704163
-0.40586507465292804
-0.1390594960854726
-1.0299008634704163
-0.40652284501550146
-0.1387132900855434
-1.0304375299007464
-0.40652284501550146
-0.1387132900855434
-1.0304375299007464
-0.40652284501550146
-0.1387132900855434
-1.0304375299007464
-0.40652284501550146
-0.1387132900855434
-1.0304375299007464
-0.40729239467263867
-0.13917369435632948
-1.0310778241707967
-0.40729239467263867
-0.13917369435632948
-1.0310778241707967
-0.40729239467263867
-0.13917369435632948
-1.0310778241707967
-0.40729239467263867
-0.13917369435632948
-1.0310778241707967
-0.4077289408519986
-0.1389801001732444
-1.0315991865256628
-0.4077289408519986
-0.1389801001732444
-1.0315991865256628
-0.4077289408519986
-0.1389801001732444
-1.0315991865256628
-0.4077289408519986
-0.1389801001732444
-1.0315991865256628
-0.4074533778788604
-0.13816850484008417
-1.031832225898291
-0.4074533778788604
-0.13816850484008417
-1.031832225898291
-0.4074533778788604
-0.13816850484008417
-1.031832225898291
-0.4074533778788604
-0.13816850484008417
-1.031832225898291
-0.4074057012979013
-0.13800657628323557
-1.0318692672867462
-0.4074057012979013
-0.13800657628323557
-1.0318692672867462
-0.4074057012979013
-0.13800657628323557
-1.0318692672867462
-0.4074057012979013
-0.13800657628323557
-1.0318692672867462
-0.4081758468248793
-0.13852022690293656
-1.0321753178456703
-0.4081758468248793
-0.13852022690293656
-1.0321753178456703
-0.4081758468248793
-0.13852022690293656
-1.0321753178456703
-0.4081758468248793
-0.13852022690293656
-1.0321753178456703
-0.40865746724808083
-0.13946773595296472
-1.0325640040373745
-0.40865746724808083
-0.13946773595296472
-1.0325640040373745
-0.40865746724808083
-0.13946773595296472
-1.0325640040373745
-0.40865746724808083
-0.13946773595296472
-1.0325640040373745
-0.41005871075847616
-0.1403630123653041
-1.0329145322367645
-0.41005871075847616
-0.1403630123653041
-1.0329145322367645
-0.41005871075847616
-0.1403630123653041
-1.0329145322367645
-0.41005871075847616
-0.1403630123653041
-1.0329145322367645
-0.410340269785406
-0.14140821019081323
-1.0330174747159009
-0.410340269785406
-0.14140821019081323
-1.0330174747159009
-0.410340269785406
-0.14140821019081323
-1.0330174747159009
-0.410340269785406
-0.14140821019081323
-1.0330174747159009
-0.41050023839520083
-0.14242880041126652
-1.032747719270347
-0.41050023839520083
-0.14242880041126652
-1.032747719270347
-0.41050023839520083
-0.14242880041126652
-1.032747719270347
-0.41050023839520083
-0.14242880041126652
-1.032747719270347
-0.41139271116030485
-0.1426231332638124
-1.0325961088554736
-0.41139271116030485
-0.1426231332638124
-1.0325961088554736
-0.41139271116030485
-0.1426231332638124
-1.0325961088554736
-0.41139271116030485
-0.1426231332638124
-1.0325961088554736
-0.41172629952092493
-0.14199133198237623
-1.0321460615138276
-0.41172629952092493
-0.14199133198237623
-1.0321460615138276
-0.41172629952092493
-0.14199133198237623
-1.0321460615138276
-0.41172629952092493
-0.14199133198237623
-1.0321460615138276
-0.41207278763721267
-0.1423945446336629
-1.0318200644599773
-0.41207278763721267
-0.1423945446336629
-1.0318200644599773
-0.41207278763721267
-0.1423945446336629
-1.0318200644599773
-0.41207278763721267
-0.1423945446336629
-1.0318200644599773
-0.41250289400196327
-0.14290957106460306
-1.031743061785288
-0.41250289400196327
-0.14290957106460306
-1.031743061785288
-0.41250289400196327
-0.14290957106460306
-1.031743061785288
-0.41250289400196327
-0.14290957106460306
-1.031743061785288
-0.4126085196390784
-0.14296680659733543
-1.031723135132261
-0.4126085196390784
-0.14296680659733543
-1.031723135132261
-0.4126085196390784
-0.14296680659733543
-1.031723135132261
-0.4126085196390784
-0.14296680659733543
-1.031723135132261
-0.41130776442352446
-0.14271866265956962
-1.0314668734883923
-0.41130776442352446
-0.14271866265956962
-1.0314668734883923
-0.41130776442352446
-0.14271866265956962
-1.0314668734883923
-0.41130776442352446
-0.14271866265956962
-1.0314668734883923
-0.41130776442352446
-0.14271866265956962
-1.0314668734883923
-0.41130776442352446
-0.14271866265956962
-1.0314668734883923
-0.41130776442352446
-0.14271866265956962
-1.0314668734883923
-0.41130776442352446
-0.14271866265956962
-1.0314668734883923
-0.41134797838261056
-0.1425944232067463
-1.0314266595293065
-0.41134797838261056
-0.1425944232067463
-1.0314266595293065
-0.41134797838261056
-0.1425944232067463
-1.0314266595293065
-0.41134797838261056
-0.1425944232067463
-1.0314266595293065
-0.41147240457620626
-0.14297935761719988
-1.0321287988479633
-0.41147240457620626
-0.14297935761719988
-1.0321287988479633
-0.41147240457620626
-0.14297935761719988
-1.0321287988479633
-0.41147240457620626
-0.14297935761719988
-1.0321287988479633
-0.41153126095621023
-0.14318285122901286
-1.0328105987493135
-0.41153126095621023
-0.14318285122901286
-1.0328105987493135
-0.41153126095621023
-0.14318285122901286
-1.0328105987493135
-0.41153126095621023
-0.14318285122901286
-1.0328105987493135
-0.41100325750410405
-0.1433222144243398
-1.0328653332902467
-0.41100325750410405
-0.1433222144243398
-1.0328653332902467
-0.41100325750410405
-0.1433222144243398
-1.0328653332902467
-0.41100325750410405
-0.1433222144243398
-1.0328653332902467
-0.40974998034133897
-0.1437509107603786
-1.0323563892285423
-0.40974998034133897
-0.1437509107603786
-1.0323563892285423
-0.40974998034133897
-0.1437509107603786
-1.0323563892285423
-0.40974998034133897
-0.1437509107603786
-1.0323563892285423
-0.4090805393314945
-0.14439895704500952
-1.0319294146360305
-0.4090805393314945
-0.14439895704500952
-1.0319294146360305
-0.4090805393314945
-0.14439895704500952
-1.0319294146360305
-0.4090805393314945
-0.14439895704500952
-1.0319294146360305
-0.4087260172535797
-0.14607866609318254
-1.0320561630506822
-0.4087260172535797
-0.14607866609318254
-1.0320561630506822
-0.4087260172535797
-0.14607866609318254
-1.0320561630506822
-0.4087260172535797
-0.14607866609318254
-1.0320561630506822
-0.408647788125541
-0.14753878434523696
-1.0323790127431192
-0.408647788125541
-0.14753878434523696
-1.0323790127431192
-0.408647788125541
-0.14753878434523696
-1.0323790127431192
-0.408647788125541
-0.14753878434523696
-1.0323790127431192
-0.40911307373207567
-0.14851923458588018
-1.0323731438680568
-0.40911307373207567
-0.14851923458588018
-1.0323731438680568
-0.40911307373207567
-0.14851923458588018
-1.0323731438680568
-0.40911307373207567
-0.14851923458588018
-1.0323731438680568
-0.4089902134942967
-0.14895771403093142
-1.03212014584635
-0.4089902134942967
-0.14895771403093142
-1.03212014584635
-0.4089902134942967
-0.14895771403093142
-1.03212014584635
-0.4089902134942967
-0.14895771403093142
-1.03212014584635
-0.40839275606060765
-0.14971368514664835
-1.031388201318076
-0.40839275606060765
-0.14971368514664835
-1.031388201318076
-0.40839275606060765
-0.14971368514664835
-1.031388201318076
-0.40839275606060765
-0.14971368514664835
-1.031388201318076
-0.40877672143689037
-0.15109827243362373
-1.0309173858977017
-0.40877672143689037
-0.15109827243362373
-1.0309173858977017
-0.40877672143689037
-0.15109827243362373
-1.0309173858977017
-0.40877672143689037
-0.15109827243362373
-1.0309173858977017
-0.40849087386680827
-0.15158434218948463
-1.03066761322855
-0.40849087386680827
-0.15158434218948463
-1.03066761322855
-0.40849087386680827
-0.15158434218948463
-1.03066761322855
-0.40849087386680827
-0.15158434218948463
-1.03066761322855
-0.40888035022280644
-0.15170817574531353
-1.030845376990395
-0.40888035022280644
-0.15170817574531353
-1.030845376990395
-0.40888035022280644
-0.15170817574531353
-1.030845376990395
-0.40888035022280644
-0.15170817574531353
-1.030845376990395
-0.40949642508789963
-0.15242859721861973
-1.0311594899761656
-0.40949642508789963
-0.15242859721861973
-1.0311594899761656
-0.40949642508789963
-0.15242859721861973
-1.0311594899761656
-0.40949642508789963
-0.15242859721861973
-1.0311594899761656
-0.40891620680638424
-0.1537818998334341
-1.0316524613267248
-0.40891620680638424
-0.1537818998334341
-1.0316524613267248
-0.40891620680638424
-0.1537818998334341
-1.0316524613267248
-0.40891620680638424
-0.1537818998334341
-1.0316524613267248
-0.40885011700906276
-0.15493849303470214
-1.0318666764166695
-0.40885011700906276
-0.15493849303470214
-1.0318666764166695
-0.40885011700906276
-0.15493849303470214
-1.0318666764166695
-0.40885011700906276
-0.15493849303470214
-1.0318666764166695
-0.40914882863278385
-0.15600345508085278
-1.0320260491524222
-0.40914882863278385
-0.15600345508085278
-1.0320260491524222
-0.40914882863278385
-0.15600345508085278
-1.0320260491524222
-0.40914882863278385
-0.15600345508085278
-1.0320260491524222
-0.40851885500235713
-0.15719476378949235
-1.0325582102451192
-0.40851885500235713
-0.15719476378949235
-1.0325582102451192
-0.40851885500235713
-0.15719476378949235
-1.0325582102451192
-0.40851885500235713
-0.15719476378949235
-1.0325582102451192
-0.4077451220289194
-0.15805546611542842
-1.0326581547266698
-0.4077451220289194
-0.15805546611542842
-1.0326581547266698
-0.4077451220289194
-0.15805546611542842
-1.0326581547266698
-0.4077451220289194
-0.15805546611542842
-1.0326581547266698
-0.4064036030052024
-0.1578414071411539
-1.0326228006199853
-0.4064036030052024
-0.1578414071411539
-1.0326228006199853
-0.4064036030052024
-0.1578414071411539
-1.0326228006199853
-0.4064036030052024
-0.1578414071411539
-1.0326228006199853
-0.40533749224710397
-0.1566225384667884
-1.0324933969586139
-0.40533749224710397
-0.1566225384667884
-1.0324933969586139
-0.40533749224710397
-0.1566225384667884
-1.0324933969586139
-0.40533749224710397
-0.1566225384667884
-1.0324933969586139
-0.40545325158472434
-0.15641330217379992
-1.032527193716699
-0.40545325158472434
-0.15641330217379992
-1.032527193716699
-0.40545325158472434
-0.15641330217379992
-1.032527193716699
-0.40545325158472434
-0.15641330217379992
-1.032527193716699
-0.40811800361237116
-0.15576574527565915
-1.0317537458591666
-0.40811800361237116
-0.15576574527565915
-1.0317537458591666
-0.40811800361237116
-0.15576574527565915
-1.0317537458591666
-0.40811800361237116
-0.15576574527565915
-1.0317537458591666
-0.40978348570358725
-0.1564616853664371
-1.0329500151830309
-0.40978348570358725
-0.1564616853664371
-1.0329500151830309
-0.40978348570358725
-0.1564616853664371
-1.0329500151830309
-0.40978348570358725
-0.1564616853664371
-1.0329500151830309
-0.41118372932029273
-0.15652165476392474
-1.0356513994212764
-0.41118372932029273
-0.15652165476392474
-1.0356513994212764
-0.41118372932029273
-0.15652165476392474
-1.0356513994212764
-0.41118372932029273
-0.15652165476392474
-1.0356513994212764
-0.4128811430450387
-0.1565037327699042
-1.0378953834109788
-0.4128811430450387
-0.1565037327699042
-1.0378953834109788
-0.4128811430450387
-0.1565037327699042
-1.0378953834109788
-0.4128811430450387
-0.1565037327699042
-1.0378953834109788
-0.4141170337863154
-0.1556336128102774
-1.0383847358456233
-0.4141170337863154
-0.1556336128102774
-1.0383847358456233
-0.4141170337863154
-0.1556336128102774
-1.0383847358456233
-0.4141170337863154
-0.1556336128102774
-1.0383847358456233
-0.41512555629725084
-0.15384224072098043
-1.0385744780158428
-0.41512555629725084
-0.15384224072098043
-1.0385744780158428
-0.41512555629725084
-0.15384224072098043
-1.0385744780158428
-0.41512555629725084
-0.15384224072098043
-1.0385744780158428
-0.41467133407233137
-0.15060906255524287
-1.0398327844027972
-0.41467133407233137
-0.15060906255524287
-1.0398327844027972
-0.41467133407233137
-0.15060906255524287
-1.0398327844027972
-0.41467133407233137
-0.15060906255524287
-1.0398327844027972
-0.41431633798844913
-0.14527362136513064
-1.0427487527285202
-0.41431633798844913
-0.14527362136513064
-1.0427487527285202
-0.41431633798844913
-0.14527362136513064
-1.0427487527285202
-0.41431633798844913
-0.14527362136513064
-1.0427487527285202
-0.41671578086680505
-0.1371168505205366
-1.0451358485092386
-0.41671578086680505
-0.1371168505205366
-1.0451358485092386
-0.41671578086680505
-0.1371168505205366
-1.0451358485092386
-0.41671578086680505
-0.1371168505205366
-1.0451358485092386
-0.4169438697334432
-0.13001173452615533
-1.050018062072592
-0.4169438697334432
-0.13001173452615533
-1.050018062072592
-0.4169438697334432
-0.13001173452615533
-1.050018062072592
-0.4169438697334432
-0.13001173452615533
-1.050018062072592
-0.41492101077343263
-0.12378645441205338
-1.0564017932907988
-0.41492101077343263
-0.12378645441205338
-1.0564017932907988
-0.41492101077343263
-0.12378645441205338
-1.0564017932907988
-0.41492101077343263
-0.12378645441205338
-1.0564017932907988
-0.41462133666257495
-0.11867349699282295
-1.062685925521041
-0.41462133666257495
-0.11867349699282295
-1.062685925521041
-0.41462133666257495
-0.11867349699282295
-1.062685925521041
-0.41462133666257495
-0.11867349699282295
-1.062685925521041
-0.42049953490136743
-0.11363337593812854
-1.0695351176275332
-0.42049953490136743
-0.11363337593812854
-1.0695351176275332
-0.42049953490136743
-0.11363337593812854
-1.0695351176275332
-0.42049953490136743
-0.11363337593812854
-1.0695351176275332
-0.42538053372662016
-0.10864820439766934
-1.0743189668725006
-0.42538053372662016
-0.10864820439766934
-1.0743189668725006
-0.42538053372662016
-0.10864820439766934
-1.0743189668725006
-0.42538053372662016
-0.10864820439766934
-1.0743189668725006
-0.426865771161757
-0.10261626388398612
-1.0779047886449926
-0.426865771161757
-0.10261626388398612
-1.0779047886449926
-0.426865771161757
-0.10261626388398612
-1.0779047886449926
-0.426865771161757
-0.10261626388398612
-1.0779047886449926
-0.4267624626847634
-0.09711458010102994
-1.081718944439512
-0.4267624626847634
-0.09711458010102994
-1.081718944439512
-0.4267624626847634
-0.09711458010102994
-1.081718944439512
-0.4267624626847634
-0.09711458010102994
-1.081718944439512
-0.4263938831382067
-0.09296240456972361
-1.086430909862584
-0.4263938831382067
-0.09296240456972361
-1.086430909862584
-0.4263938831382067
-0.09296240456972361
-1.086430909862584
-0.4263938831382067
-0.09296240456972361
-1.086430909862584
-0.42918334430640814
-0.08952967800470217
-1.0915758591206148
-0.42918334430640814
-0.08952967800470217
-1.0915758591206148
-0.42918334430640814
-0.08952967800470217
-1.0915758591206148
-0.42918334430640814
-0.08952967800470217
-1.0915758591206148
-0.432054344231617
-0.08771969562690483
-1.0966107100505458
-0.432054344231617
-0.08771969562690483
-1.0966107100505458
-0.432054344231617
-0.08771969562690483
-1.0966107100505458
-0.432054344231617
-0.08771969562690483
-1.0966107100505458
-0.4348230464578148
-0.08697297418583742
-1.1008659227821145
-0.4348230464578148
-0.08697297418583742
-1.1008659227821145
-0.4348230464578148
-0.08697297418583742
-1.1008659227821145
-0.4348230464578148
-0.08697297418583742
-1.1008659227821145
-0.4347156807384693
-0.0873196314818274
-1.1037119031919718
-0.4347156807384693
-0.0873196314818274
-1.1037119031919718
-0.4347156807384693
-0.0873196314818274
-1.1037119031919718
-0.4347156807384693
-0.0873196314818274
-1.1037119031919718
-0.4341574830426292
-0.08843689592790258
-1.1066865941904274
-0.4341574830426292
-0.08843689592790258
-1.1066865941904274
-0.4341574830426292
-0.08843689592790258
-1.1066865941904274
-0.4341574830426292
-0.08843689592790258
-1.1066865941904274
-0.43501220243135863
-0.09001274635642409
-1.1103183268762584
-0.43501220243135863
-0.09001274635642409
-1.1103183268762584
-0.43501220243135863
-0.09001274635642409
-1.1103183268762584
-0.43501220243135863
-0.09001274635642409
-1.1103183268762584
-0.4372264677971442
-0.09275563649948956
-1.1139990728057392
-0.4372264677971442
-0.09275563649948956
-1.1139990728057392
-0.4372264677971442
-0.09275563649948956
-1.1139990728057392
-0.4372264677971442
-0.09275563649948956
-1.1139990728057392
-0.440096990363588
-0.09606563575324664
-1.117094104121691
-0.440096990363588
-0.09606563575324664
-1.117094104121691
-0.440096990363588
-0.09606563575324664
-1.117094104121691
-0.440096990363588
-0.09606563575324664
-1.117094104121691
-0.4434567949688993
-0.1001982934568691
-1.1186160253009116
-0.4434567949688993
-0.1001982934568691
-1.1186160253009116
-0.4434567949688993
-0.1001982934568691
-1.1186160253009116
-0.4434567949688993
-0.1001982934568691
-1.1186160253009116
-0.443514273726884
-0.10445506558373734
-1.1202178471897883
-0.443514273726884
-0.10445506558373734
-1.1202178471897883
-0.443514273726884
-0.10445506558373734
-1.1202178471897883
-0.443514273726884
-0.10445506558373734
-1.1202178471897883
-0.4435104277992523
-0.10834490855965405
-1.1239240063808498
-0.4435104277992523
-0.10834490855965405
-1.1239240063808498
-0.4435104277992523
-0.10834490855965405
-1.1239240063808498
-0.4435104277992523
-0.10834490855965405
-1.1239240063808498
-0.44597210949633836
-0.1120020124269315
-1.1268707967487637
-0.44597210949633836
-0.1120020124269315
-1.1268707967487637
-0.44597210949633836
-0.1120020124269315
-1.1268707967487637
-0.44597210949633836
-0.1120020124269315
-1.1268707967487637
-0.4495003282793931
-0.11680889714562111
-1.1281575955118397
-0.4495003282793931
-0.11680889714562111
-1.1281575955118397
-0.4495003282793931
-0.11680889714562111
-1.1281575955118397
-0.4495003282793931
-0.11680889714562111
-1.1281575955118397
-0.4507650576377277
-0.12196115548326256
-1.129567037804835
-0.4507650576377277
-0.12196115548326256
-1.129567037804835
-0.4507650576377277
-0.12196115548326256
-1.129567037804835
-0.4507650576377277
-0.12196115548326256
-1.129567037804835
-0.4512384898345653
-0.12742967764620516
-1.1312659721771035
-0.4512384898345653
-0.12742967764620516
-1.1312659721771035
-0.4512384898345653
-0.12742967764620516
-1.1312659721771035
-0.4512384898345653
-0.12742967764620516
-1.1312659721771035
-0.45204648094218325
-0.13349446957327116
-1.1326970735365443
-0.45204648094218325
-0.13349446957327116
-1.1326970735365443
-0.45204648094218325
-0.13349446957327116
-1.1326970735365443
-0.45204648094218325
-0.13349446957327116
-1.1326970735365443
-0.4538698730702936
-0.1394098799989099
-1.1343960838271983
-0.4538698730702936
-0.1394098799989099
-1.1343960838271983
-0.4538698730702936
-0.1394098799989099
-1.1343960838271983
-0.4538698730702936
-0.1394098799989099
-1.1343960838271983
-0.4562325942546227
-0.14493309600274668
-1.1355425483393502
-0.4562325942546227
-0.14493309600274668
-1.1355425483393502
-0.4562325942546227
-0.14493309600274668
-1.1355425483393502
-0.4562325942546227
-0.14493309600274668
-1.1355425483393502
-0.45845332690353474
-0.15019326172520392
-1.1365759430121085
-0.45845332690353474
-0.15019326172520392
-1.1365759430121085
-0.45845332690353474
-0.15019326172520392
-1.1365759430121085
-0.45845332690353474
-0.15019326172520392
-1.1365759430121085
-0.46077271946293985
-0.1555179838008599
-1.1375753848235814
-0.46077271946293985
-0.1555179838008599
-1.1375753848235814
-0.46077271946293985
-0.1555179838008599
-1.1375753848235814
-0.46077271946293985
-0.1555179838008599
-1.1375753848235814
-0.4614988539248264
-0.16061283577508187
-1.1382298511345215
-0.4614988539248264
-0.16061283577508187
-1.1382298511345215
-0.4614988539248264
-0.16061283577508187
-1.1382298511345215
-0.4614988539248264
-0.16061283577508187
-1.1382298511345215
-0.4615634990628613
-0.16546011601187394
-1.1390670342624503
-0.4615634990628613
-0.16546011601187394
-1.1390670342624503
-0.4615634990628613
-0.16546011601187394
-1.1390670342624503
-0.4615634990628613
-0.16546011601187394
-1.1390670342624503
-0.4628966104272532
-0.17040710794057654
-1.1399065625943812
-0.4628966104272532
-0.17040710794057654
-1.1399065625943812
-0.4628966104272532
-0.17040710794057654
-1.1399065625943812
-0.4628966104272532
-0.17040710794057654
-1.1399065625943812
-0.46554083178539285
-0.1752148481281447
-1.140862168751012
-0.46554083178539285
-0.1752148481281447
-1.140862168751012
-0.46554083178539285
-0.1752148481281447
-1.140862168751012
-0.46554083178539285
-0.1752148481281447
-1.140862168751012
-0.4677517241484567
-0.17948880870723324
-1.141450951039982
-0.4677517241484567
-0.17948880870723324
-1.141450951039982
-0.4677517241484567
-0.17948880870723324
-1.141450951039982
-0.4677517241484567
-0.17948880870723324
-1.141450951039982
-0.4678574415881133
-0.18297197118412972
-1.1420032409146583
-0.4678574415881133
-0.18297197118412972
-1.1420032409146583
-0.4678574415881133
-0.18297197118412972
-1.1420032409146583
-0.4678574415881133
-0.18297197118412972
-1.1420032409146583
-0.4675612674013314
-0.18561316317785662
-1.1420974634879175
-0.4675612674013314
-0.18561316317785662
-1.1420974634879175
-0.4675612674013314
-0.18561316317785662
-1.1420974634879175
-0.4675612674013314
-0.18561316317785662
-1.1420974634879175
-0.4678819237467693
-0.18755662751929042
-1.1419852454714312
-0.4678819237467693
-0.18755662751929042
-1.1419852454714312
-0.4678819237467693
-0.18755662751929042
-1.1419852454714312
-0.4678819237467693
-0.18755662751929042
-1.1419852454714312
-0.46797418499800036
-0.18859585927074732
-1.1417967669391555
-0.46797418499800036
-0.18859585927074732
-1.1417967669391555
-0.46797418499800036
-0.18859585927074732
-1.1417967669391555
-0.46797418499800036
-0.18859585927074732
-1.1417967669391555
-0.4682291339099709
-0.18908511932425348
-1.1413742031113057
-0.4682291339099709
-0.18908511932425348
-1.1413742031113057
-0.4682291339099709
-0.18908511932425348
-1.1413742031113057
-0.4682291339099709
-0.18908511932425348
-1.1413742031113057
-0.46860384721074055
-0.18927841345653243
-1.1417105231171494
-0.46860384721074055
-0.18927841345653243
-1.1417105231171494
-0.46860384721074055
-0.18927841345653243
-1.1417105231171494
-0.46860384721074055
-0.18927841345653243
-1.1417105231171494
-0.46860384721074055
-0.18927841345653243
-1.1417105231171494
-0.46860384721074055
-0.18927841345653243
-1.1417105231171494
-0.46860384721074055
-0.18927841345653243
-1.1417105231171494
-0.46860384721074055
-0.18927841345653243
-1.1417105231171494
-0.4691887483273092
-0.18930696901579297
-1.141994927964685
-0.4691887483273092
-0.18930696901579297
-1.141994927964685
-0.4691887483273092
-0.18930696901579297
-1.141994927964685
-0.4691887483273092
-0.18930696901579297
-1.141994927964685
-0.4691887483273092
-0.18930696901579297
-1.141994927964685
-0.4691887483273092
-0.18930696901579297
-1.141994927964685
-0.4691887483273092
-0.18930696901579297
-1.141994927964685
-0.4691887483273092
-0.18930696901579297
-1.141994927964685
-0.4691887483273092
-0.18930696901579297
-1.141994927964685
-0.4691887483273092
-0.18930696901579297
-1.141994927964685
-0.4691887483273092
-0.18930696901579297
-1.141994927964685
-0.4691887483273092
-0.18930696901579297
-1.141994927964685
-0.46930950323593795
-0.18939330555068914
-1.142032511511712
-0.46930950323593795
-0.18939330555068914
-1.142032511511712
-0.46930950323593795
-0.18939330555068914
-1.142032511511712
-0.46930950323593795
-0.18939330555068914
-1.142032511511712
-0.46924675659520476
-0.1894942002763839
-1.142014486981299
-0.46924675659520476
-0.1894942002763839
-1.142014486981299
-0.46941223394381365
-0.18945492814044082
-1.1420073415695065
-0.46941223394381365
-0.18945492814044082
-1.1420073415695065
-0.46941223394381365
-0.18945492814044082
-1.1420073415695065
-0.46941223394381365
-0.18945492814044082
-1.1420073415695065
-0.469063259871042
-0.1895087572384344
-1.1419588923665456
-0.469063259871042
-0.1895087572384344
-1.1419588923665456
-0.469063259871042
-0.1895087572384344
-1.1419588923665456
-0.469063259871042
-0.1895087572384344
-1.1419588923665456
-0.468611554443152
-0.1895009784265637
-1.1419356154794702
-0.468611554443152
-0.1895009784265637
-1.1419356154794702
-0.468611554443152
-0.1895009784265637
-1.1419356154794702
-0.468611554443152
-0.1895009784265637
-1.1419356154794702
-0.4688374640976724
-0.18989468774897575
-1.1417841401410382
-0.4688374640976724
-0.18989468774897575
-1.1417841401410382
-0.4688374640976724
-0.18989468774897575
-1.1417841401410382
-0.4688374640976724
-0.18989468774897575
-1.1417841401410382
-0.46905524281590183
-0.19046698293498157
-1.141240361205881
-0.46905524281590183
-0.19046698293498157
-1.141240361205881
-0.46905524281590183
-0.19046698293498157
-1.141240361205881
-0.46905524281590183
-0.19046698293498157
-1.141240361205881
-0.4687011563234528
-0.1912102838266896
-1.1410266247644723
-0.4687011563234528
-0.1912102838266896
-1.1410266247644723
-0.4687011563234528
-0.1912102838266896
-1.1410266247644723
-0.4687011563234528
-0.1912102838266896
-1.1410266247644723
-0.4684503764634875
-0.19161402881872228
-1.1409548582929347
-0.4684503764634875
-0.19161402881872228
-1.1409548582929347
-0.4684503764634875
-0.19161402881872228
-1.1409548582929347
-0.4684503764634875
-0.19161402881872228
-1.1409548582929347
-0.46834755490645813
-0.19155247960848149
-1.1409801068759067
-0.46834755490645813
-0.19155247960848149
-1.1409801068759067
-0.46834755490645813
-0.19155247960848149
-1.1409801068759067
-0.46834755490645813
-0.19155247960848149
-1.1409801068759067
-0.46834755490645813
-0.19155247960848149
-1.1409801068759067
-0.46834755490645813
-0.19155247960848149
-1.1409801068759067
-0.46834755490645813
-0.19155247960848149
-1.1409801068759067
-0.46834755490645813
-0.19155247960848149
-1.1409801068759067
-0.46851307103595163
-0.19151309005413
-1.1409727909211869
-0.46851307103595163
-0.19151309005413
-1.1409727909211869
-0.46851307103595163
-0.19151309005413
-1.1409727909211869
-0.46851307103595163
-0.19151309005413
-1.1409727909211869
-0.46851307103595163
-0.19151309005413
-1.1409727909211869
-0.46851307103595163
-0.19151309005413
-1.1409727909211869
-0.46851307103595163
-0.19151309005413
-1.1409727909211869
-0.46851307103595163
-0.19151309005413
-1.1409727909211869
-0.46855319776010035
-0.19167557364170676
-1.1409296037163825
-0.46855319776010035
-0.19167557364170676
-1.1409296037163825
-0.46855319776010035
-0.19167557364170676
-1.1409296037163825
-0.46855319776010035
-0.19167557364170676
-1.1409296037163825
-0.46855319776010035
-0.19167557364170676
-1.1409296037163825
-0.46855319776010035
-0.19167557364170676
-1.1409296037163825
-0.46855319776010035
-0.19167557364170676
-1.1409296037163825
-0.46855319776010035
-0.19167557364170676
-1.1409296037163825
-0.4684503764634875
-0.19161402881872228
-1.1409548582929347
-0.4684503764634875
-0.19161402881872228
-1.1409548582929347
-0.4684503764634875
-0.19161402881872228
-1.1409548582929347
-0.4684503764634875
-0.19161402881872228
-1.1409548582929347
-0.4684503764634875
-0.19161402881872228
-1.1409548582929347
-0.4684503764634875
-0.19161402881872228
-1.1409548582929347
-0.4684503764634875
-0.19161402881872228
-1.1409548582929347
-0.4684503764634875
-0.19161402881872228
-1.1409548582929347
-0.4684503764634875
-0.19161402881872228
-1.1409548582929347
-0.4684503764634875
-0.19161402881872228
-1.1409548582929347
-0.4684503764634875
-0.19161402881872228
-1.1409548582929347
-0.4684503764634875
-0.19161402881872228
-1.1409548582929347
-0.46796867399873493
-0.19191227779974476
-1.1410365405548732
-0.46796867399873493
-0.19191227779974476
-1.1410365405548732
-0.46796867399873493
-0.19191227779974476
-1.1410365405548732
-0.46796867399873493
-0.19191227779974476
-1.1410365405548732
-0.46740634271882187
-0.19228664810382337
-1.1410378069507794
-0.46740634271882187
-0.19228664810382337
-1.1410378069507794
-0.46740634271882187
-0.19228664810382337
-1.1410378069507794
-0.46740634271882187
-0.19228664810382337
-1.1410378069507794
-0.4669272365153483
-0.19283080280053597
-1.1409560642085732
-0.4669272365153483
-0.19283080280053597
-1.1409560642085732
-0.4669272365153483
-0.19283080280053597
-1.1409560642085732
-0.4669272365153483
-0.19283080280053597
-1.1409560642085732
-0.4670402995975488
-0.1928314371498167
-1.1402105288211297
-0.4670402995975488
-0.1928314371498167
-1.1402105288211297
-0.4670402995975488
-0.1928314371498167
-1.1402105288211297
-0.4670402995975488
-0.1928314371498167
-1.1402105288211297
-0.46738127330410095
-0.19242680797190145
-1.139084595203424
-0.46738127330410095
-0.19242680797190145
-1.139084595203424
-0.46738127330410095
-0.19242680797190145
-1.139084595203424
-0.46738127330410095
-0.19242680797190145
-1.139084595203424
-0.4676482826518701
-0.1916545768935707
-1.1378796870684207
-0.4676482826518701
-0.1916545768935707
-1.1378796870684207
-0.4676482826518701
-0.1916545768935707
-1.1378796870684207
-0.4676482826518701
-0.1916545768935707
-1.1378796870684207
-0.4672576725713017
-0.1902186352917547
-1.1368649443925116
-0.4672576725713017
-0.1902186352917547
-1.1368649443925116
-0.4672576725713017
-0.1902186352917547
-1.1368649443925116
-0.4672576725713017
-0.1902186352917547
-1.1368649443925116
-0.4672384147447886
-0.18751044176560788
-1.1357339421563153
-0.4672384147447886
-0.18751044176560788
-1.1357339421563153
-0.4672384147447886
-0.18751044176560788
-1.1357339421563153
-0.4672384147447886
-0.18751044176560788
-1.1357339421563153
-0.468368016107436
-0.18303918264512353
-1.1335517310747432
-0.468368016107436
-0.18303918264512353
-1.1335517310747432
-0.468368016107436
-0.18303918264512353
-1.1335517310747432
-0.468368016107436
-0.18303918264512353
-1.1335517310747432
-0.47039820409686117
-0.17751689532099674
-1.130320283122223
-0.47039820409686117
-0.17751689532099674
-1.130320283122223
-0.47039820409686117
-0.17751689532099674
-1.130320283122223
-0.47039820409686117
-0.17751689532099674
-1.130320283122223
-0.4700629683308478
-0.1712127540038018
-1.128100491275589
-0.4700629683308478
-0.1712127540038018
-1.128100491275589
-0.4700629683308478
-0.1712127540038018
-1.128100491275589
-0.4700629683308478
-0.1712127540038018
-1.128100491275589
-0.4650607829730471
-0.165016732930364
-1.128535468120823
-0.4650607829730471
-0.165016732930364
-1.128535468120823
-0.4650607829730471
-0.165016732930364
-1.128535468120823
-0.4650607829730471
-0.165016732930364
-1.128535468120823
-0.45833090094850215
-0.15747392265138957
-1.1291584571399584
-0.45833090094850215
-0.15747392265138957
-1.1291584571399584
-0.45833090094850215
-0.15747392265138957
-1.1291584571399584
-0.45833090094850215
-0.15747392265138957
-1.1291584571399584
-0.45331412887024636
-0.14989592471628474
-1.1277880648394492
-0.45331412887024636
-0.14989592471628474
-1.1277880648394492
-0.45331412887024636
-0.14989592471628474
-1.1277880648394492
-0.45331412887024636
-0.14989592471628474
-1.1277880648394492
-0.44713879820003294
-0.1411485779203944
-1.1247890244734973
-0.44713879820003294
-0.1411485779203944
-1.1247890244734973
-0.44713879820003294
-0.1411485779203944
-1.1247890244734973
-0.44713879820003294
-0.1411485779203944
-1.1247890244734973
-0.44115307320592206
-0.13139617277614193
-1.122338684168949
-0.44115307320592206
-0.13139617277614193
-1.122338684168949
-0.44115307320592206
-0.13139617277614193
-1.122338684168949
-0.44115307320592206
-0.13139617277614193
-1.122338684168949
-0.4358268212190988
-0.12278226590420922
-1.1214451883380092
-0.4358268212190988
-0.12278226590420922
-1.1214451883380092
-0.4358268212190988
-0.12278226590420922
-1.1214451883380092
-0.4358268212190988
-0.12278226590420922
-1.1214451883380092
-0.4280004308273481
-0.11632852696415424
-1.1208169630088265
-0.4280004308273481
-0.11632852696415424
-1.1208169630088265
-0.4280004308273481
-0.11632852696415424
-1.1208169630088265
-0.4280004308273481
-0.11632852696415424
-1.1208169630088265
-0.42427543107634763
-0.10887752186567579
-1.118646993446995
-0.42427543107634763
-0.10887752186567579
-1.118646993446995
-0.42427543107634763
-0.10887752186567579
-1.118646993446995
-0.42427543107634763
-0.10887752186567579
-1.118646993446995
-0.4233897878051796
-0.10257753351247696
-1.1149325174709819
-0.4233897878051796
-0.10257753351247696
-1.1149325174709819
-0.4233897878051796
-0.10257753351247696
-1.1149325174709819
-0.4233897878051796
-0.10257753351247696
-1.1149325174709819
-0.42081019647596557
-0.09798083373179023
-1.1105235310282344
-0.42081019647596557
-0.09798083373179023
-1.1105235310282344
-0.42081019647596557
-0.09798083373179023
-1.1105235310282344
-0.42081019647596557
-0.09798083373179023
-1.1105235310282344
-0.41699055973574506
-0.09434752623826673
-1.1071797394282465
-0.41699055973574506
-0.09434752623826673
-1.1071797394282465
-0.41699055973574506
-0.09434752623826673
-1.1071797394282465
-0.41699055973574506
-0.09434752623826673
-1.1071797394282465
-0.4112652304919193
-0.09105383270570598
-1.1046506948921317
-0.4112652304919193
-0.09105383270570598
-1.1046506948921317
-0.4112652304919193
-0.09105383270570598
-1.1046506948921317
-0.4112652304919193
-0.09105383270570598
-1.1046506948921317
-0.4034375697132987
-0.08769295376429503
-1.1029557205729805
-0.4034375697132987
-0.08769295376429503
-1.1029557205729805
-0.4034375697132987
-0.08769295376429503
-1.1029557205729805
-0.4034375697132987
-0.08769295376429503
-1.1029557205729805
-0.4042463138982924
-0.08368996203191384
-1.0992063559571272
-0.4042463138982924
-0.08368996203191384
-1.0992063559571272
-0.4042463138982924
-0.08368996203191384
-1.0992063559571272
-0.4042463138982924
-0.08368996203191384
-1.0992063559571272
-0.4036080332729501
-0.08243864563515153
-1.0948247029393026
-0.4036080332729501
-0.08243864563515153
-1.0948247029393026
-0.4036080332729501
-0.08243864563515153
-1.0948247029393026
-0.4036080332729501
-0.08243864563515153
-1.0948247029393026
-0.39872365723706504
-0.08097122310065666
-1.0925997560571368
-0.39872365723706504
-0.08097122310065666
-1.0925997560571368
-0.39872365723706504
-0.08097122310065666
-1.0925997560571368
-0.39872365723706504
-0.08097122310065666
-1.0925997560571368
-0.39075537443104896
-0.08116083918812135
-1.0893527215760943
-0.39075537443104896
-0.08116083918812135
-1.0893527215760943
-0.39075537443104896
-0.08116083918812135
-1.0893527215760943
-0.39075537443104896
-0.08116083918812135
-1.0893527215760943
-0.38226781210814237
-0.08209955050872
-1.083510676590729
-0.38226781210814237
-0.08209955050872
-1.083510676590729
-0.38226781210814237
-0.08209955050872
-1.083510676590729
-0.38226781210814237
-0.08209955050872
-1.083510676590729
-0.3740472168625335
-0.08414021943095366
-1.0772122374767215
-0.3740472168625335
-0.08414021943095366
-1.0772122374767215
-0.3740472168625335
-0.08414021943095366
-1.0772122374767215
-0.3740472168625335
-0.08414021943095366
-1.0772122374767215
-0.36747646131433254
-0.08743039427443887
-1.0712738041652774
-0.36747646131433254
-0.08743039427443887
-1.0712738041652774
-0.36747646131433254
-0.08743039427443887
-1.0712738041652774
-0.36747646131433254
-0.08743039427443887
-1.0712738041652774
-0.3655654652080327
-0.09089330058118114
-1.0665199344065108
-0.3655654652080327
-0.09089330058118114
-1.0665199344065108
-0.3655654652080327
-0.09089330058118114
-1.0665199344065108
-0.3655654652080327
-0.09089330058118114
-1.0665199344065108
-0.365306918669645
-0.09263880418419976
-1.0625861813634465
-0.365306918669645
-0.09263880418419976
-1.0625861813634465
-0.365306918669645
-0.09263880418419976
-1.0625861813634465
-0.365306918669645
-0.09263880418419976
-1.0625861813634465
-0.36116573876421987
-0.0932400892399229
-1.0573278693542665
-0.36116573876421987
-0.0932400892399229
-1.0573278693542665
-0.36116573876421987
-0.0932400892399229
-1.0573278693542665
-0.36116573876421987
-0.0932400892399229
-1.0573278693542665
-0.35976482340516497
-0.09530064111564727
-1.0539958657425763
-0.35976482340516497
-0.09530064111564727
-1.0539958657425763
-0.35976482340516497
-0.09530064111564727
-1.0539958657425763
-0.35976482340516497
-0.09530064111564727
-1.0539958657425763
-0.3600830551102658
-0.09894514814409654
-1.0507151280023694
-0.3600830551102658
-0.09894514814409654
-1.0507151280023694
-0.3600830551102658
-0.09894514814409654
-1.0507151280023694
-0.3600830551102658
-0.09894514814409654
-1.0507151280023694
-0.36003655042937865
-0.1022639779343445
-1.0476182065276158
-0.36003655042937865
-0.1022639779343445
-1.0476182065276158
-0.36003655042937865
-0.1022639779343445
-1.0476182065276158
-0.36003655042937865
-0.1022639779343445
-1.0476182065276158
-0.35994003557902665
-0.10316944207515039
-1.0447308074168924
-0.35994003557902665
-0.10316944207515039
-1.0447308074168924
-0.35994003557902665
-0.10316944207515039
-1.0447308074168924
-0.35994003557902665
-0.10316944207515039
-1.0447308074168924
-0.36156962132136594
-0.10353676461314837
-1.041313271357656
-0.36156962132136594
-0.10353676461314837
-1.041313271357656
-0.36156962132136594
-0.10353676461314837
-1.041313271357656
-0.36156962132136594
-0.10353676461314837
-1.041313271357656
-0.3674869765993546
-0.10664548504671038
-1.0391667393560764
-0.3674869765993546
-0.10664548504671038
-1.0391667393560764
-0.3674869765993546
-0.10664548504671038
-1.0391667393560764
-0.3674869765993546
-0.10664548504671038
-1.0391667393560764
-0.3766249782223173
-0.11052104638992781
-1.03854177280535
-0.3766249782223173
-0.11052104638992781
-1.03854177280535
-0.3766249782223173
-0.11052104638992781
-1.03854177280535
-0.3766249782223173
-0.11052104638992781
-1.03854177280535
-0.3832668264874464
-0.11335210956152145
-1.0384910343360036
-0.3832668264874464
-0.11335210956152145
-1.0384910343360036
-0.3832668264874464
-0.11335210956152145
-1.0384910343360036
-0.3832668264874464
-0.11335210956152145
-1.0384910343360036
-0.3889821458825088
-0.11457173701396904
-1.0393332453235293
-0.3889821458825088
-0.11457173701396904
-1.0393332453235293
-0.3889821458825088
-0.11457173701396904
-1.0393332453235293
-0.3889821458825088
-0.11457173701396904
-1.0393332453235293
-0.39430294992515086
-0.11423132239563363
-1.0380911263208847
-0.39430294992515086
-0.11423132239563363
-1.0380911263208847
-0.39430294992515086
-0.11423132239563363
-1.0380911263208847
-0.39430294992515086
-0.11423132239563363
-1.0380911263208847
-0.40015983224841484
-0.11271323827037023
-1.0372279870529102
-0.40015983224841484
-0.11271323827037023
-1.0372279870529102
-0.40015983224841484
-0.11271323827037023
-1.0372279870529102
-0.40015983224841484
-0.11271323827037023
-1.0372279870529102
-0.40402086204852694
-0.11230540867229843
-1.0375265602265475
-0.40402086204852694
-0.11230540867229843
-1.0375265602265475
-0.40402086204852694
-0.11230540867229843
-1.0375265602265475
-0.40402086204852694
-0.11230540867229843
-1.0375265602265475
-0.40637292601625785
-0.11419026827348819
-1.0385552580151107
-0.40637292601625785
-0.11419026827348819
-1.0385552580151107
-0.40637292601625785
-0.11419026827348819
-1.0385552580151107
-0.40637292601625785
-0.11419026827348819
-1.0385552580151107
-0.41111902932330413
-0.11589581989952895
-1.0395550508287004
-0.41111902932330413
-0.11589581989952895
-1.0395550508287004
-0.41111902932330413
-0.11589581989952895
-1.0395550508287004
-0.41111902932330413
-0.11589581989952895
-1.0395550508287004
-0.41422397288230106
-0.1168363747834172
-1.040106382269924
-0.41422397288230106
-0.1168363747834172
-1.040106382269924
-0.41422397288230106
-0.1168363747834172
-1.040106382269924
-0.41422397288230106
-0.1168363747834172
-1.040106382269924
-0.41677171057615986
-0.11774836901977094
-1.0401378924974134
-0.41677171057615986
-0.11774836901977094
-1.0401378924974134
-0.41677171057615986
-0.11774836901977094
-1.0401378924974134
-0.41677171057615986
-0.11774836901977094
-1.0401378924974134
-0.41963372629379886
-0.11877112350543166
-1.0392872811277487
-0.41963372629379886
-0.11877112350543166
-1.0392872811277487
-0.41963372629379886
-0.11877112350543166
-1.0392872811277487
-0.41963372629379886
-0.11877112350543166
-1.0392872811277487
-0.42275400460410767
-0.12003150777768849
-1.0381945756366386
-0.42275400460410767
-0.12003150777768849
-1.0381945756366386
-0.42275400460410767
-0.12003150777768849
-1.0381945756366386
-0.42275400460410767
-0.12003150777768849
-1.0381945756366386
-0.426351184682728
-0.1203400987898723
-1.037958711639064
-0.426351184682728
-0.1203400987898723
-1.037958711639064
-0.426351184682728
-0.1203400987898723
-1.037958711639064
-0.426351184682728
-0.1203400987898723
-1.037958711639064
-0.4298677474418927
-0.12135121468458487
-1.0384104056353824
-0.4298677474418927
-0.12135121468458487
-1.0384104056353824
-0.4298677474418927
-0.12135121468458487
-1.0384104056353824
-0.4298677474418927
-0.12135121468458487
-1.0384104056353824
-0.43295478436696694
-0.12221530989556363
-1.037566641642438
-0.43295478436696694
-0.12221530989556363
-1.037566641642438
-0.43295478436696694
-0.12221530989556363
-1.037566641642438
-0.43295478436696694
-0.12221530989556363
-1.037566641642438
-0.43365033782665835
-0.12307859081720507
-1.0354392995382744
-0.43365033782665835
-0.12307859081720507
-1.0354392995382744
-0.43365033782665835
-0.12307859081720507
-1.0354392995382744
-0.43365033782665835
-0.12307859081720507
-1.0354392995382744
-0.43447860466376287
-0.12476825348456291
-1.0334619263333085
-0.43447860466376287
-0.12476825348456291
-1.0334619263333085
-0.43447860466376287
-0.12476825348456291
-1.0334619263333085
-0.43447860466376287
-0.12476825348456291
-1.0334619263333085
-0.4361714847169422
-0.12602512593681575
-1.0323150900897573
-0.4361714847169422
-0.12602512593681575
-1.0323150900897573
-0.4361714847169422
-0.12602512593681575
-1.0323150900897573
-0.4361714847169422
-0.12602512593681575
-1.0323150900897573
-0.4376327958303062
-0.12729413153778782
-1.032296601537937
-0.4376327958303062
-0.12729413153778782
-1.032296601537937
-0.4376327958303062
-0.12729413153778782
-1.032296601537937
-0.4376327958303062
-0.12729413153778782
-1.032296601537937
-0.4395213741743921
-0.12770399574624072
-1.0313216240071577
-0.4395213741743921
-0.12770399574624072
-1.0313216240071577
-0.4395213741743921
-0.12770399574624072
-1.0313216240071577
-0.4395213741743921
-0.12770399574624072
-1.0313216240071577
-0.4408178575793994
-0.12760632803092273
-1.030264671522767
-0.4408178575793994
-0.12760632803092273
-1.030264671522767
-0.4408178575793994
-0.12760632803092273
-1.030264671522767
-0.4408178575793994
-0.12760632803092273
-1.030264671522767
-0.44304916656473975
-0.12797104078170007
-1.0300060369665793
-0.44304916656473975
-0.12797104078170007
-1.0300060369665793
-0.44304916656473975
-0.12797104078170007
-1.0300060369665793
-0.44304916656473975
-0.12797104078170007
-1.0300060369665793
-0.44632290452886814
-0.1289025293923096
-1.0301883614537628
-0.44632290452886814
-0.1289025293923096
-1.0301883614537628
-0.44632290452886814
-0.1289025293923096
-1.0301883614537628
-0.44632290452886814
-0.1289025293923096
-1.0301883614537628
-0.44789359596568507
-0.12924952011615654
-1.0302559791727697
-0.44789359596568507
-0.12924952011615654
-1.0302559791727697
-0.44789359596568507
-0.12924952011615654
-1.0302559791727697
-0.44789359596568507
-0.12924952011615654
-1.0302559791727697
-0.4474663873600575
-0.12811100130636235
-1.0295787394491775
-0.4474663873600575
-0.12811100130636235
-1.0295787394491775
-0.4474663873600575
-0.12811100130636235
-1.0295787394491775
-0.4474663873600575
-0.12811100130636235
-1.0295787394491775
-0.44608956009400585
-0.12837548679299765
-1.0286901247365672
-0.44608956009400585
-0.12837548679299765
-1.0286901247365672
-0.44608956009400585
-0.12837548679299765
-1.0286901247365672
-0.44608956009400585
-0.12837548679299765
-1.0286901247365672
-0.444034392420929
-0.12958809592705633
-1.027461698232194
-0.444034392420929
-0.12958809592705633
-1.027461698232194
-0.444034392420929
-0.12958809592705633
-1.027461698232194
-0.444034392420929
-0.12958809592705633
-1.027461698232194
-0.44294805692736233
-0.12934004317561448
-1.0261748545150717
-0.44294805692736233
-0.12934004317561448
-1.0261748545150717
-0.44294805692736233
-0.12934004317561448
-1.0261748545150717
-0.44294805692736233
-0.12934004317561448
-1.0261748545150717
-0.4438092572625191
-0.1298933360707245
-1.0263970112690712
-0.4438092572625191
-0.1298933360707245
-1.0263970112690712
-0.4438092572625191
-0.1298933360707245
-1.0263970112690712
-0.4438092572625191
-0.1298933360707245
-1.0263970112690712
-0.44446252050751944
-0.130685467837128
-1.027977895998924
-0.44446252050751944
-0.130685467837128
-1.027977895998924
-0.44446252050751944
-0.130685467837128
-1.027977895998924
-0.44446252050751944
-0.130685467837128
-1.027977895998924
-0.44676510723594237
-0.13068424404300688
-1.0294906284627725
-0.44676510723594237
-0.13068424404300688
-1.0294906284627725
-0.44676510723594237
-0.13068424404300688
-1.0294906284627725
-0.44676510723594237
-0.13068424404300688
-1.0294906284627725
-0.4471544983520903
-0.1313163494892788
-1.0299426671504612
-0.4471544983520903
-0.1313163494892788
-1.0299426671504612
-0.4471544983520903
-0.1313163494892788
-1.0299426671504612
-0.4471544983520903
-0.1313163494892788
-1.0299426671504612
-0.4476267553186738
-0.13171072809029485
-1.0293234865523073
-0.4476267553186738
-0.13171072809029485
-1.0293234865523073
-0.4476267553186738
-0.13171072809029485
-1.0293234865523073
-0.4476267553186738
-0.13171072809029485
-1.0293234865523073
-0.4479047213823533
-0.13200584436322044
-1.0293000983560272
-0.4479047213823533
-0.13200584436322044
-1.0293000983560272
-0.4479047213823533
-0.13200584436322044
-1.0293000983560272
-0.4479047213823533
-0.13200584436322044
-1.0293000983560272
-0.44806946101753764
-0.1333751743539221
-1.0303300994763072
-0.44806946101753764
-0.1333751743539221
-1.0303300994763072
-0.44806946101753764
-0.1333751743539221
-1.0303300994763072
-0.44806946101753764
-0.1333751743539221
-1.0303300994763072
-0.44824642530670505
-0.1339735414667043
-1.0311474527108364
-0.44824642530670505
-0.1339735414667043
-1.0311474527108364
-0.44824642530670505
-0.1339735414667043
-1.0311474527108364
-0.44824642530670505
-0.1339735414667043
-1.0311474527108364
-0.4483515794600999
-0.13403050925638066
-1.031126988744796
-0.4483515794600999
-0.13403050925638066
-1.031126988744796
-0.4483515794600999
-0.13403050925638066
-1.031126988744796
-0.4483515794600999
-0.13403050925638066
-1.031126988744796
-0.44840906138499503
-0.1339262995413348
-1.0311467963502388
-0.44840906138499503
-0.1339262995413348
-1.0311467963502388
-0.44840906138499503
-0.1339262995413348
-1.0311467963502388
-0.44840906138499503
-0.1339262995413348
-1.0311467963502388
-0.44840906138499503
-0.1339262995413348
-1.0311467963502388
-0.44840906138499503
-0.1339262995413348
-1.0311467963502388
-0.44840906138499503
-0.1339262995413348
-1.0311467963502388
-0.44840906138499503
-0.1339262995413348
-1.0311467963502388
-0.4488434744502384
-0.13424903911500655
-1.0319455068001597
-0.4488434744502384
-0.13424903911500655
-1.0319455068001597
-0.4488434744502384
-0.13424903911500655
-1.0319455068001597
-0.4488434744502384
-0.13424903911500655
-1.0319455068001597
-0.4482450179048488
-0.13436802021081784
-1.0326285851115828
-0.4482450179048488
-0.13436802021081784
-1.0326285851115828
-0.4482450179048488
-0.13436802021081784
-1.0326285851115828
-0.4482450179048488
-0.13436802021081784
-1.0326285851115828
-0.4470981816574178
-0.1337815043360107
-1.0323729852910355
-0.4470981816574178
-0.1337815043360107
-1.0323729852910355
-0.4470981816574178
-0.1337815043360107
-1.0323729852910355
-0.4470981816574178
-0.1337815043360107
-1.0323729852910355
-0.446372180342968
-0.13448587858496575
-1.031748435399242
-0.446372180342968
-0.13448587858496575
-1.031748435399242
-0.446372180342968
-0.13448587858496575
-1.031748435399242
-0.446372180342968
-0.13448587858496575
-1.031748435399242
-0.44602780184343055
-0.13562259355311937
-1.0314057444190887
-0.44602780184343055
-0.13562259355311937
-1.0314057444190887
-0.44602780184343055
-0.13562259355311937
-1.0314057444190887
-0.44602780184343055
-0.13562259355311937
-1.0314057444190887
-0.44602780184343055
-0.13562259355311937
-1.0314057444190887
-0.44602780184343055
-0.13562259355311937
-1.0314057444190887
-0.44602780184343055
-0.13562259355311937
-1.0314057444190887
-0.44602780184343055
-0.13562259355311937
-1.0314057444190887
-0.4463777941917677
-0.13582812819109907
-1.0319571931637992
-0.4463777941917677
-0.13582812819109907
-1.0319571931637992
-0.4463777941917677
-0.13582812819109907
-1.0319571931637992
-0.4463777941917677
-0.13582812819109907
-1.0319571931637992
-0.44651985025270113
-0.13635155781885802
-1.0319993948459285
-0.44651985025270113
-0.13635155781885802
-1.0319993948459285
-0.44651985025270113
-0.13635155781885802
-1.0319993948459285
-0.44651985025270113
-0.13635155781885802
-1.0319993948459285
-0.4458315875377125
-0.13752262601688317
-1.0314387097518938
-0.4458315875377125
-0.13752262601688317
-1.0314387097518938
-0.4458315875377125
-0.13752262601688317
-1.0314387097518938
-0.4458315875377125
-0.13752262601688317
-1.0314387097518938
-0.4452695916757214
-0.13818036078524093
-1.0308147083587162
-0.4452695916757214
-0.13818036078524093
-1.0308147083587162
-0.4452695916757214
-0.13818036078524093
-1.0308147083587162
-0.4452695916757214
-0.13818036078524093
-1.0308147083587162
-0.4453334906694705
-0.13804280665682708
-1.0301734488925047
-0.4453334906694705
-0.13804280665682708
-1.0301734488925047
-0.4453334906694705
-0.13804280665682708
-1.0301734488925047
-0.4453334906694705
-0.13804280665682708
-1.0301734488925047
-0.44452730153298364
-0.13788856470081132
-1.0302482330607932
-0.44452730153298364
-0.13788856470081132
-1.0302482330607932
-0.44452730153298364
-0.13788856470081132
-1.0302482330607932
-0.44452730153298364
-0.13788856470081132
-1.0302482330607932
-0.4443645706090566
-0.1379359419607932
-1.0302492895567366
-0.4443645706090566
-0.1379359419607932
-1.0302492895567366
-0.4443645706090566
-0.1379359419607932
-1.0302492895567366
-0.4443645706090566
-0.1379359419607932
-1.0302492895567366
-0.4443645706090566
-0.1379359419607932
-1.0302492895567366
-0.4443645706090566
-0.1379359419607932
-1.0302492895567366
-0.4443645706090566
-0.1379359419607932
-1.0302492895567366
-0.4443645706090566
-0.1379359419607932
-1.0302492895567366
-0.4443049670025812
-0.13811956607724665
-1.0305552858860314
-0.4443049670025812
-0.13811956607724665
-1.0305552858860314
-0.4443049670025812
-0.13811956607724665
-1.0305552858860314
-0.4443049670025812
-0.13811956607724665
-1.0305552858860314
-0.44329388709605544
-0.13864190661202094
-1.0309431326820928
-0.44329388709605544
-0.13864190661202094
-1.0309431326820928
-0.44329388709605544
-0.13864190661202094
-1.0309431326820928
-0.44329388709605544
-0.13864190661202094
-1.0309431326820928
-0.44288053214337564
-0.1391255702900612
-1.0309720296695357
-0.44288053214337564
-0.1391255702900612
-1.0309720296695357
-0.44288053214337564
-0.1391255702900612
-1.0309720296695357
-0.44288053214337564
-0.1391255702900612
-1.0309720296695357
-0.442380647761482
-0.14051004012599388
-1.0308039688514332
-0.442380647761482
-0.14051004012599388
-1.0308039688514332
-0.442380647761482
-0.14051004012599388
-1.0308039688514332
-0.442380647761482
-0.14051004012599388
-1.0308039688514332
-0.44174829520360565
-0.14110586035484673
-1.0306527600826287
-0.44174829520360565
-0.14110586035484673
-1.0306527600826287
-0.44174829520360565
-0.14110586035484673
-1.0306527600826287
-0.44174829520360565
-0.14110586035484673
-1.0306527600826287
-0.44110345344709134
-0.14204628958891002
-1.03076852953741
-0.44110345344709134
-0.14204628958891002
-1.03076852953741
-0.44110345344709134
-0.14204628958891002
-1.03076852953741
-0.44110345344709134
-0.14204628958891002
-1.03076852953741
-0.4406818499840886
-0.14366470132982256
-1.0313386233523028
-0.4406818499840886
-0.14366470132982256
-1.0313386233523028
-0.4406818499840886
-0.14366470132982256
-1.0313386233523028
-0.4406818499840886
-0.14366470132982256
-1.0313386233523028
-0.4409911092482334
-0.14493073811838092
-1.0316532168514088
-0.4409911092482334
-0.14493073811838092
-1.0316532168514088
-0.4409911092482334
-0.14493073811838092
-1.0316532168514088
-0.4409911092482334
-0.14493073811838092
-1.0316532168514088
-0.4400172059089076
-0.144584382579959
-1.0313983052982687
-0.4400172059089076
-0.144584382579959
-1.0313983052982687
-0.4400172059089076
-0.144584382579959
-1.0313983052982687
-0.4400172059089076
-0.144584382579959
-1.0313983052982687
-0.4380911697423129
-0.14512787722688728
-1.0311687631280237
-0.4380911697423129
-0.14512787722688728
-1.0311687631280237
-0.4380911697423129
-0.14512787722688728
-1.0311687631280237
-0.4380911697423129
-0.14512787722688728
-1.0311687631280237
-0.4377174514449154
-0.14741912721764322
-1.0314796532302994
-0.4377174514449154
-0.14741912721764322
-1.0314796532302994
-0.4377174514449154
-0.14741912721764322
-1.0314796532302994
-0.4377174514449154
-0.14741912721764322
-1.0314796532302994
-0.4378050725654432
-0.1493881835738549
-1.0317191906013574
-0.4378050725654432
-0.1493881835738549
-1.0317191906013574
-0.4378050725654432
-0.1493881835738549
-1.0317191906013574
-0.4378050725654432
-0.1493881835738549
-1.0317191906013574
-0.43685779625067483
-0.1495383829750613
-1.0321920900389079
-0.43685779625067483
-0.1495383829750613
-1.0321920900389079
-0.43685779625067483
-0.1495383829750613
-1.0321920900389079
-0.43685779625067483
-0.1495383829750613
-1.0321920900389079
-0.4365045419160108
-0.14921761166020642
-1.0328506985155812
-0.4365045419160108
-0.14921761166020642
-1.0328506985155812
-0.4365045419160108
-0.14921761166020642
-1.0328506985155812
-0.4365045419160108
-0.14921761166020642
-1.0328506985155812
-0.43542008680934585
-0.15014605316886925
-1.0333327606056195
-0.43542008680934585
-0.15014605316886925
-1.0333327606056195
-0.43542008680934585
-0.15014605316886925
-1.0333327606056195
-0.43542008680934585
-0.15014605316886925
-1.0333327606056195
-0.43280956939457105
-0.15198951218208015
-1.0336070236797812
-0.43280956939457105
-0.15198951218208015
-1.0336070236797812
-0.43280956939457105
-0.15198951218208015
-1.0336070236797812
-0.43280956939457105
-0.15198951218208015
-1.0336070236797812
-0.4311815343831416
-0.15308500000919736
-1.0337556275252369
-0.4311815343831416
-0.15308500000919736
-1.0337556275252369
-0.4311815343831416
-0.15308500000919736
-1.0337556275252369
-0.4311815343831416
-0.15308500000919736
-1.0337556275252369
-0.430742305119367
-0.15334948288435457
-1.0335611063166368
-0.430742305119367
-0.15334948288435457
-1.0335611063166368
-0.430742305119367
-0.15334948288435457
-1.0335611063166368
-0.430742305119367
-0.15334948288435457
-1.0335611063166368
-0.43084913133451586
-0.15364445973552496
-1.0328206530661215
-0.43084913133451586
-0.15364445973552496
-1.0328206530661215
-0.43084913133451586
-0.15364445973552496
-1.0328206530661215
-0.43084913133451586
-0.15364445973552496
-1.0328206530661215
-0.43068618585737567
-0.15396721832748253
-1.0333218484194475
-0.43068618585737567
-0.15396721832748253
-1.0333218484194475
-0.43068618585737567
-0.15396721832748253
-1.0333218484194475
-0.43068618585737567
-0.15396721832748253
-1.0333218484194475
-0.4309622855054833
-0.15402542475342293
-1.0340173961944947
-0.4309622855054833
-0.15402542475342293
-1.0340173961944947
-0.4309622855054833
-0.15402542475342293
-1.0340173961944947
-0.4309622855054833
-0.15402542475342293
-1.0340173961944947
-0.43237992772190736
-0.15309192072862815
-1.0344081722379057
-0.43237992772190736
-0.15309192072862815
-1.0344081722379057
-0.43237992772190736
-0.15309192072862815
-1.0344081722379057
-0.43237992772190736
-0.15309192072862815
-1.0344081722379057
-0.43334359061068645
-0.15170155364797164
-1.0351535155874432
-0.43334359061068645
-0.15170155364797164
-1.0351535155874432
-0.43334359061068645
-0.15170155364797164
-1.0351535155874432
-0.43334359061068645
-0.15170155364797164
-1.0351535155874432
-0.4353488501493056
-0.15028970856240187
-1.036230165788729
-0.4353488501493056
-0.15028970856240187
-1.036230165788729
-0.4353488501493056
-0.15028970856240187
-1.036230165788729
-0.4353488501493056
-0.15028970856240187
-1.036230165788729
-0.43593059930970185
-0.14835080781847354
-1.0379060675186556
-0.43593059930970185
-0.14835080781847354
-1.0379060675186556
-0.43593059930970185
-0.14835080781847354
-1.0379060675186556
-0.43593059930970185
-0.14835080781847354
-1.0379060675186556
-0.43820096048562845
-0.1452569231824214
-1.0396241104853572
-0.43820096048562845
-0.1452569231824214
-1.0396241104853572
-0.43820096048562845
-0.1452569231824214
-1.0396241104853572
-0.43820096048562845
-0.1452569231824214
-1.0396241104853572
-0.43809691875975126
-0.140467431814189
-1.0418014572032794
-0.43809691875975126
-0.140467431814189
-1.0418014572032794
-0.43809691875975126
-0.140467431814189
-1.0418014572032794
-0.43809691875975126
-0.140467431814189
-1.0418014572032794
-0.4360006617920008
-0.1346838176951436
-1.042451298869392
-0.4360006617920008
-0.1346838176951436
-1.042451298869392
-0.4360006617920008
-0.1346838176951436
-1.042451298869392
-0.4360006617920008
-0.1346838176951436
